'Id: "0011388" Comment: "Integrate frame 0011388_Au-Ir-Rh_Rh-rich_XRD-Mapping-074-0000.gfrmwith cursor Wedge Cursor #5" Operator: "B?rgel" Anode: "Cu" Wavelength: "1.5406" Scantype: "2Theta (TwoTheta)" TimePerStep: "1" X: "40.5" Y: "-22.5" Z: "5.95" 
10.00000 0.000
10.02000 -3.189
10.04000 -1.737
10.06000 -2.457
10.08000 7.229
10.10000 8.122
10.12000 11.449
10.14000 11.044
10.16000 2.730
10.18000 -2.833
10.20000 -3.239
10.22000 0.613
10.24000 13.802
10.26000 14.240
10.28000 12.217
10.30000 2.562
10.32000 -0.197
10.34000 1.143
10.36000 7.898
10.38000 -3.295
10.40000 -1.899
10.42000 8.699
10.44000 7.995
10.46000 19.582
10.48000 20.459
10.50000 16.274
10.52000 12.216
10.54000 7.165
10.56000 9.343
10.58000 11.591
10.60000 18.505
10.62000 18.756
10.64000 21.458
10.66000 22.816
10.68000 10.761
10.70000 4.690
10.72000 15.086
10.74000 21.558
10.76000 11.246
10.78000 13.482
10.80000 17.990
10.82000 17.576
10.84000 27.087
10.86000 13.289
10.88000 12.811
10.90000 18.201
10.92000 18.576
10.94000 30.537
10.96000 31.946
10.98000 24.832
11.00000 33.184
11.02000 25.068
11.04000 27.192
11.06000 27.789
11.08000 30.180
11.10000 27.530
11.12000 20.593
11.14000 18.561
11.16000 23.557
11.18000 23.845
11.20000 24.540
11.22000 24.958
11.24000 41.248
11.26000 36.098
11.28000 28.226
11.30000 27.849
11.32000 27.278
11.34000 25.632
11.36000 20.240
11.38000 20.702
11.40000 23.023
11.42000 30.474
11.44000 24.269
11.46000 26.748
11.48000 24.968
11.50000 23.984
11.52000 30.129
11.54000 42.381
11.56000 36.388
11.58000 32.974
11.60000 27.599
11.62000 40.213
11.64000 43.434
11.66000 36.926
11.68000 30.142
11.70000 24.681
11.72000 35.823
11.74000 32.025
11.76000 28.361
11.78000 32.566
11.80000 39.959
11.82000 40.840
11.84000 43.833
11.86000 35.149
11.88000 35.724
11.90000 29.369
11.92000 38.063
11.94000 52.008
11.96000 41.637
11.98000 40.629
12.00000 26.863
12.02000 23.498
12.04000 22.028
12.06000 44.022
12.08000 52.195
12.10000 41.417
12.12000 46.552
12.14000 52.885
12.16000 43.317
12.18000 39.125
12.20000 44.782
12.22000 42.038
12.24000 38.347
12.26000 41.749
12.28000 39.452
12.30000 34.293
12.32000 44.737
12.34000 50.813
12.36000 44.537
12.38000 43.502
12.40000 50.825
12.42000 38.679
12.44000 46.291
12.46000 53.251
12.48000 49.892
12.50000 46.290
12.52000 39.392
12.54000 28.664
12.56000 28.978
12.58000 27.069
12.60000 33.156
12.62000 46.136
12.64000 50.072
12.66000 44.569
12.68000 48.467
12.70000 53.529
12.72000 54.607
12.74000 53.285
12.76000 51.872
12.78000 48.209
12.80000 39.535
12.82000 36.921
12.84000 36.874
12.86000 41.971
12.88000 39.029
12.90000 47.168
12.92000 51.680
12.94000 40.100
12.96000 33.943
12.98000 45.860
13.00000 48.722
13.02000 41.723
13.04000 38.038
13.06000 38.120
13.08000 36.363
13.10000 33.210
13.12000 37.698
13.14000 44.081
13.16000 48.018
13.18000 43.935
13.20000 39.227
13.22000 48.335
13.24000 45.278
13.26000 43.584
13.28000 50.929
13.30000 51.909
13.32000 45.167
13.34000 39.851
13.36000 36.813
13.38000 37.929
13.40000 44.685
13.42000 40.082
13.44000 42.295
13.46000 40.786
13.48000 37.140
13.50000 38.739
13.52000 54.147
13.54000 51.740
13.56000 37.047
13.58000 39.381
13.60000 32.889
13.62000 35.696
13.64000 39.563
13.66000 36.645
13.68000 40.699
13.70000 31.946
13.72000 30.022
13.74000 35.198
13.76000 41.645
13.78000 42.848
13.80000 35.600
13.82000 33.096
13.84000 42.308
13.86000 40.897
13.88000 33.488
13.90000 27.696
13.92000 35.994
13.94000 33.616
13.96000 31.511
13.98000 35.226
14.00000 35.431
14.02000 42.659
14.04000 42.533
14.06000 39.281
14.08000 35.947
14.10000 40.049
14.12000 36.639
14.14000 26.526
14.16000 28.964
14.18000 34.403
14.20000 35.632
14.22000 34.623
14.24000 37.790
14.26000 37.637
14.28000 33.384
14.30000 20.084
14.32000 23.594
14.34000 25.081
14.36000 29.605
14.38000 37.555
14.40000 28.386
14.42000 33.156
14.44000 40.251
14.46000 34.139
14.48000 29.404
14.50000 31.498
14.52000 33.700
14.54000 26.879
14.56000 32.578
14.58000 28.925
14.60000 35.436
14.62000 30.000
14.64000 28.683
14.66000 23.940
14.68000 24.352
14.70000 20.990
14.72000 26.669
14.74000 35.563
14.76000 38.407
14.78000 29.296
14.80000 23.705
14.82000 25.512
14.84000 25.584
14.86000 18.446
14.88000 19.453
14.90000 22.347
14.92000 28.332
14.94000 26.865
14.96000 26.981
14.98000 28.632
15.00000 28.935
15.02000 21.965
15.04000 15.967
15.06000 21.900
15.08000 22.836
15.10000 27.167
15.12000 26.510
15.14000 29.518
15.16000 23.620
15.18000 17.794
15.20000 24.043
15.22000 28.899
15.24000 30.029
15.26000 26.185
15.28000 18.448
15.30000 25.798
15.32000 22.209
15.34000 21.892
15.36000 19.778
15.38000 20.554
15.40000 17.676
15.42000 20.552
15.44000 16.172
15.46000 20.230
15.48000 23.974
15.50000 21.867
15.52000 21.514
15.54000 20.374
15.56000 23.014
15.58000 21.732
15.60000 25.337
15.62000 28.885
15.64000 26.923
15.66000 21.384
15.68000 21.611
15.70000 24.672
15.72000 28.294
15.74000 27.367
15.76000 18.542
15.78000 18.495
15.80000 17.611
15.82000 16.534
15.84000 21.295
15.86000 23.171
15.88000 20.639
15.90000 16.814
15.92000 15.054
15.94000 24.015
15.96000 21.264
15.98000 21.693
16.00000 21.150
16.02000 13.580
16.04000 17.371
16.06000 17.380
16.08000 18.446
16.10000 12.526
16.12000 8.202
16.14000 15.710
16.16000 21.078
16.18000 16.091
16.20000 17.787
16.22000 11.165
16.24000 8.553
16.26000 8.131
16.28000 4.879
16.30000 14.918
16.32000 20.761
16.34000 18.171
16.36000 10.909
16.38000 13.111
16.40000 13.184
16.42000 14.952
16.44000 15.091
16.46000 13.697
16.48000 21.492
16.50000 19.821
16.52000 13.197
16.54000 15.423
16.56000 13.289
16.58000 11.061
16.60000 14.952
16.62000 7.331
16.64000 12.951
16.66000 14.003
16.68000 10.675
16.70000 9.460
16.72000 14.769
16.74000 12.442
16.76000 12.832
16.78000 13.294
16.80000 5.569
16.82000 6.949
16.84000 4.252
16.86000 12.113
16.88000 20.576
16.90000 19.915
16.92000 13.224
16.94000 7.382
16.96000 14.654
16.98000 16.255
17.00000 15.102
17.02000 11.888
17.04000 11.738
17.06000 8.507
17.08000 10.671
17.10000 7.463
17.12000 10.083
17.14000 11.372
17.16000 19.167
17.18000 17.566
17.20000 11.668
17.22000 11.404
17.24000 9.912
17.26000 4.632
17.28000 11.535
17.30000 10.363
17.32000 11.015
17.34000 9.851
17.36000 9.600
17.38000 7.358
17.40000 13.661
17.42000 5.257
17.44000 8.083
17.46000 8.172
17.48000 13.899
17.50000 9.169
17.52000 -0.779
17.54000 6.269
17.56000 7.974
17.58000 2.526
17.60000 6.793
17.62000 2.636
17.64000 4.193
17.66000 8.636
17.68000 10.510
17.70000 4.193
17.72000 3.670
17.74000 14.838
17.76000 13.756
17.78000 1.165
17.80000 6.123
17.82000 5.799
17.84000 6.902
17.86000 5.051
17.88000 0.976
17.90000 5.157
17.92000 11.172
17.94000 14.532
17.96000 8.973
17.98000 0.885
18.00000 4.687
18.02000 5.105
18.04000 5.214
18.06000 10.191
18.08000 9.413
18.10000 4.711
18.12000 6.564
18.14000 15.395
18.16000 18.928
18.18000 8.971
18.20000 11.991
18.22000 7.648
18.24000 2.227
18.26000 7.236
18.28000 11.252
18.30000 7.979
18.32000 6.028
18.34000 4.215
18.36000 4.253
18.38000 4.808
18.40000 0.195
18.42000 0.194
18.44000 7.810
18.46000 11.143
18.48000 12.280
18.50000 12.276
18.52000 9.339
18.54000 9.682
18.56000 11.549
18.58000 8.585
18.60000 13.169
18.62000 14.202
18.64000 12.719
18.66000 1.673
18.68000 6.253
18.70000 5.446
18.72000 -1.180
18.74000 -0.956
18.76000 3.032
18.78000 2.296
18.80000 4.563
18.82000 7.235
18.84000 4.365
18.86000 6.034
18.88000 5.586
18.90000 7.593
18.92000 6.653
18.94000 8.558
18.96000 3.849
18.98000 0.725
19.00000 4.933
19.02000 7.635
19.04000 3.912
19.06000 11.076
19.08000 15.902
19.10000 10.866
19.12000 9.269
19.14000 7.253
19.16000 5.730
19.18000 4.841
19.20000 9.938
19.22000 9.444
19.24000 11.501
19.26000 13.151
19.28000 10.342
19.30000 15.104
19.32000 13.084
19.34000 10.928
19.36000 5.651
19.38000 1.615
19.40000 -4.097
19.42000 4.081
19.44000 0.892
19.46000 -4.200
19.48000 -4.208
19.50000 8.351
19.52000 12.717
19.54000 6.612
19.56000 7.056
19.58000 4.626
19.60000 5.579
19.62000 6.775
19.64000 11.492
19.66000 9.508
19.68000 7.653
19.70000 4.831
19.72000 5.775
19.74000 16.285
19.76000 4.212
19.78000 1.221
19.80000 5.510
19.82000 5.751
19.84000 5.121
19.86000 6.040
19.88000 7.928
19.90000 4.996
19.92000 3.985
19.94000 -1.080
19.96000 4.504
19.98000 4.928
20.00000 10.854
20.02000 5.776
20.04000 3.175
20.06000 -1.145
20.08000 0.688
20.10000 9.532
20.12000 7.499
20.14000 7.553
20.16000 6.757
20.18000 1.678
20.20000 9.097
20.22000 12.917
20.24000 9.811
20.26000 6.825
20.28000 13.085
20.30000 14.231
20.32000 5.991
20.34000 6.540
20.36000 6.057
20.38000 7.717
20.40000 8.709
20.42000 1.720
20.44000 -0.495
20.46000 3.015
20.48000 6.682
20.50000 4.822
20.52000 1.206
20.54000 -1.796
20.56000 -3.245
20.58000 1.493
20.60000 8.851
20.62000 8.908
20.64000 2.734
20.66000 6.677
20.68000 5.733
20.70000 9.107
20.72000 4.603
20.74000 1.205
20.76000 -4.153
20.78000 6.034
20.80000 8.459
20.82000 8.907
20.84000 8.853
20.86000 5.962
20.88000 11.875
20.90000 12.002
20.92000 9.148
20.94000 0.899
20.96000 3.320
20.98000 3.436
21.00000 2.363
21.02000 -4.151
21.04000 -1.810
21.06000 3.865
21.08000 10.067
21.10000 13.130
21.12000 14.031
21.14000 3.639
21.16000 1.269
21.18000 3.624
21.20000 9.258
21.22000 6.311
21.24000 6.979
21.26000 9.659
21.28000 8.771
21.30000 8.920
21.32000 8.982
21.34000 1.451
21.36000 -0.931
21.38000 -1.148
21.40000 -0.771
21.42000 7.261
21.44000 11.494
21.46000 5.159
21.48000 4.694
21.50000 8.428
21.52000 7.050
21.54000 -1.057
21.56000 -3.693
21.58000 3.999
21.60000 2.099
21.62000 0.234
21.64000 -0.659
21.66000 5.341
21.68000 3.213
21.70000 -1.544
21.72000 -2.026
21.74000 1.885
21.76000 -2.226
21.78000 0.348
21.80000 -0.291
21.82000 -3.694
21.84000 -1.849
21.86000 -3.853
21.88000 1.947
21.90000 5.447
21.92000 0.216
21.94000 0.270
21.96000 2.466
21.98000 8.225
22.00000 4.407
22.02000 5.451
22.04000 9.959
22.06000 8.434
22.08000 1.298
22.10000 4.870
22.12000 5.204
22.14000 2.224
22.16000 2.986
22.18000 8.185
22.20000 11.655
22.22000 2.475
22.24000 -2.239
22.26000 -0.638
22.28000 6.975
22.30000 2.860
22.32000 3.962
22.34000 3.969
22.36000 6.842
22.38000 6.268
22.40000 7.207
22.42000 -0.053
22.44000 4.642
22.46000 -1.013
22.48000 -4.087
22.50000 0.232
22.52000 5.056
22.54000 2.964
22.56000 -0.827
22.58000 0.760
22.60000 0.719
22.62000 1.600
22.64000 2.932
22.66000 -0.537
22.68000 1.123
22.70000 1.130
22.72000 3.223
22.74000 3.149
22.76000 -1.362
22.78000 -3.608
22.80000 -1.646
22.82000 1.606
22.84000 -2.741
22.86000 -0.743
22.88000 6.499
22.90000 4.052
22.92000 6.993
22.94000 -0.762
22.96000 -2.748
22.98000 5.984
23.00000 5.643
23.02000 10.091
23.04000 6.834
23.06000 -2.032
23.08000 -2.613
23.10000 3.328
23.12000 5.759
23.14000 3.971
23.16000 7.676
23.18000 7.199
23.20000 -0.453
23.22000 -0.347
23.24000 5.386
23.26000 -0.175
23.28000 -0.328
23.30000 0.828
23.32000 4.477
23.34000 3.256
23.36000 4.633
23.38000 -0.491
23.40000 0.939
23.42000 4.779
23.44000 -0.130
23.46000 4.330
23.48000 6.106
23.50000 6.004
23.52000 4.090
23.54000 3.060
23.56000 3.977
23.58000 5.105
23.60000 4.705
23.62000 1.825
23.64000 2.126
23.66000 8.218
23.68000 10.628
23.70000 10.009
23.72000 8.871
23.74000 5.954
23.76000 9.050
23.78000 7.389
23.80000 -4.001
23.82000 4.284
23.84000 7.390
23.86000 4.863
23.88000 8.320
23.90000 4.882
23.92000 1.274
23.94000 3.239
23.96000 2.886
23.98000 5.864
24.00000 0.825
24.02000 3.465
24.04000 6.494
24.06000 1.590
24.08000 3.692
24.10000 4.024
24.12000 4.213
24.14000 3.149
24.16000 3.710
24.18000 1.438
24.20000 0.103
24.22000 2.152
24.24000 4.679
24.26000 3.032
24.28000 4.457
24.30000 2.986
24.32000 0.145
24.34000 -0.944
24.36000 2.370
24.38000 6.104
24.40000 4.926
24.42000 3.556
24.44000 5.164
24.46000 3.803
24.48000 2.842
24.50000 4.875
24.52000 7.250
24.54000 3.292
24.56000 1.776
24.58000 -3.950
24.60000 0.416
24.62000 5.435
24.64000 2.247
24.66000 -2.258
24.68000 -1.446
24.70000 -2.085
24.72000 3.732
24.74000 3.186
24.76000 4.665
24.78000 6.338
24.80000 2.783
24.82000 5.064
24.84000 4.667
24.86000 -0.764
24.88000 2.653
24.90000 3.008
24.92000 3.279
24.94000 5.656
24.96000 2.934
24.98000 1.926
25.00000 -0.671
25.02000 2.268
25.04000 8.202
25.06000 4.481
25.08000 9.008
25.10000 3.660
25.12000 2.531
25.14000 10.089
25.16000 7.272
25.18000 3.525
25.20000 5.064
25.22000 9.561
25.24000 7.572
25.26000 10.647
25.28000 16.262
25.30000 7.239
25.32000 0.643
25.34000 3.753
25.36000 2.217
25.38000 0.069
25.40000 3.232
25.42000 -0.577
25.44000 -3.909
25.46000 2.043
25.48000 9.088
25.50000 3.741
25.52000 1.139
25.54000 -0.684
25.56000 -0.315
25.58000 1.268
25.60000 6.133
25.62000 6.749
25.64000 -0.370
25.66000 2.171
25.68000 -0.800
25.70000 7.469
25.72000 5.657
25.74000 1.566
25.76000 1.983
25.78000 6.831
25.80000 5.185
25.82000 2.538
25.84000 1.104
25.86000 7.894
25.88000 3.990
25.90000 2.774
25.92000 0.906
25.94000 5.514
25.96000 4.980
25.98000 1.405
26.00000 4.556
26.02000 7.714
26.04000 3.155
26.06000 2.214
26.08000 11.225
26.10000 7.989
26.12000 4.961
26.14000 4.436
26.16000 3.794
26.18000 3.511
26.20000 -3.400
26.22000 -1.130
26.24000 4.046
26.26000 8.620
26.28000 4.801
26.30000 2.322
26.32000 8.954
26.34000 8.400
26.36000 6.193
26.38000 8.517
26.40000 8.812
26.42000 6.427
26.44000 4.435
26.46000 2.726
26.48000 -1.119
26.50000 -0.082
26.52000 -2.152
26.54000 -3.477
26.56000 -3.158
26.58000 2.002
26.60000 4.390
26.62000 1.569
26.64000 -1.516
26.66000 5.842
26.68000 2.828
26.70000 -1.319
26.72000 -3.390
26.74000 -1.184
26.76000 1.694
26.78000 5.199
26.80000 3.735
26.82000 -0.794
26.84000 -2.385
26.86000 -0.214
26.88000 -0.246
26.90000 0.655
26.92000 5.162
26.94000 10.733
26.96000 6.431
26.98000 5.416
27.00000 3.426
27.02000 7.597
27.04000 7.978
27.06000 1.552
27.08000 1.410
27.10000 3.526
27.12000 4.903
27.14000 1.695
27.16000 1.302
27.18000 -1.754
27.20000 2.329
27.22000 0.886
27.24000 2.929
27.26000 3.080
27.28000 -0.763
27.30000 -1.290
27.32000 4.090
27.34000 5.215
27.36000 3.126
27.38000 0.109
27.40000 3.501
27.42000 3.074
27.44000 -0.095
27.46000 -0.568
27.48000 12.041
27.50000 11.450
27.52000 2.120
27.54000 1.416
27.56000 3.423
27.58000 4.393
27.60000 1.471
27.62000 -2.250
27.64000 -3.790
27.66000 -1.242
27.68000 1.325
27.70000 4.010
27.72000 2.297
27.74000 1.989
27.76000 2.531
27.78000 1.165
27.80000 6.846
27.82000 9.982
27.84000 4.645
27.86000 5.055
27.88000 6.461
27.90000 1.686
27.92000 -0.050
27.94000 5.213
27.96000 5.130
27.98000 6.006
28.00000 7.514
28.02000 5.854
28.04000 3.056
28.06000 -3.607
28.08000 0.816
28.10000 1.466
28.12000 3.882
28.14000 10.023
28.16000 7.907
28.18000 10.360
28.20000 4.459
28.22000 3.569
28.24000 2.763
28.26000 4.076
28.28000 6.102
28.30000 2.689
28.32000 -0.031
28.34000 3.572
28.36000 5.656
28.38000 0.475
28.40000 -2.717
28.42000 4.313
28.44000 6.331
28.46000 4.544
28.48000 1.105
28.50000 -0.354
28.52000 0.361
28.54000 0.763
28.56000 0.167
28.58000 3.213
28.60000 6.341
28.62000 7.773
28.64000 14.257
28.66000 11.280
28.68000 7.577
28.70000 7.520
28.72000 6.524
28.74000 2.509
28.76000 2.933
28.78000 4.392
28.80000 3.862
28.82000 5.185
28.84000 7.511
28.86000 1.857
28.88000 -0.048
28.90000 1.145
28.92000 3.854
28.94000 4.113
28.96000 0.848
28.98000 8.001
29.00000 8.039
29.02000 -0.490
29.04000 0.649
29.06000 3.304
29.08000 -0.718
29.10000 0.924
29.12000 4.114
29.14000 2.840
29.16000 -2.976
29.18000 -3.699
29.20000 1.399
29.22000 3.417
29.24000 4.964
29.26000 9.090
29.28000 4.828
29.30000 2.038
29.32000 3.459
29.34000 3.273
29.36000 3.787
29.38000 6.441
29.40000 2.180
29.42000 1.026
29.44000 1.083
29.46000 5.530
29.48000 5.793
29.50000 4.050
29.52000 1.319
29.54000 1.163
29.56000 4.343
29.58000 -1.687
29.60000 -3.688
29.62000 -2.555
29.64000 4.422
29.66000 1.449
29.68000 0.277
29.70000 0.743
29.72000 9.298
29.74000 6.555
29.76000 5.848
29.78000 0.042
29.80000 3.600
29.82000 6.517
29.84000 0.585
29.86000 2.828
29.88000 1.139
29.90000 3.161
29.92000 -1.243
29.94000 -1.462
29.96000 -0.337
29.98000 -2.205
30.00000 1.457
30.02000 -1.995
30.04000 1.693
30.06000 5.733
30.08000 8.016
30.10000 4.015
30.12000 -0.788
30.14000 -0.270
30.16000 4.425
30.18000 7.744
30.20000 2.688
30.22000 -1.566
30.24000 -1.571
30.26000 0.922
30.28000 1.685
30.30000 0.529
30.32000 2.823
30.34000 5.097
30.36000 0.656
30.38000 -0.460
30.40000 -0.223
30.42000 -3.266
30.44000 -0.010
30.46000 1.909
30.48000 6.954
30.50000 4.664
30.52000 4.708
30.54000 1.604
30.56000 2.974
30.58000 4.884
30.60000 4.203
30.62000 5.764
30.64000 3.104
30.66000 -0.261
30.68000 1.833
30.70000 1.318
30.72000 4.885
30.74000 0.203
30.76000 -0.129
30.78000 -3.635
30.80000 -1.070
30.82000 0.850
30.84000 1.108
30.86000 1.213
30.88000 4.095
30.90000 0.806
30.92000 3.857
30.94000 5.221
30.96000 3.806
30.98000 2.720
31.00000 6.201
31.02000 7.600
31.04000 2.194
31.06000 3.287
31.08000 -0.309
31.10000 -1.326
31.12000 -1.328
31.14000 0.619
31.16000 1.855
31.18000 2.210
31.20000 5.590
31.22000 2.681
31.24000 -0.414
31.26000 3.275
31.28000 3.943
31.30000 4.331
31.32000 -2.769
31.34000 -0.297
31.36000 4.290
31.38000 3.158
31.40000 2.189
31.42000 2.956
31.44000 0.937
31.46000 -3.020
31.48000 0.770
31.50000 7.796
31.52000 7.218
31.54000 2.397
31.56000 3.388
31.58000 2.418
31.60000 6.846
31.62000 7.853
31.64000 1.841
31.66000 -0.795
31.68000 -2.421
31.70000 -3.586
31.72000 3.364
31.74000 6.180
31.76000 -0.165
31.78000 0.532
31.80000 0.668
31.82000 2.156
31.84000 0.040
31.86000 1.666
31.88000 3.322
31.90000 6.920
31.92000 2.082
31.94000 3.455
31.96000 -0.409
31.98000 3.395
32.00000 4.513
32.02000 2.261
32.04000 1.761
32.06000 6.998
32.08000 5.762
32.10000 2.133
32.12000 -0.363
32.14000 3.256
32.16000 3.439
32.18000 2.092
32.20000 1.634
32.22000 3.576
32.24000 -3.560
32.26000 -1.848
32.28000 7.386
32.30000 6.169
32.32000 6.658
32.34000 8.697
32.36000 4.803
32.38000 5.128
32.40000 3.923
32.42000 -2.051
32.44000 0.816
32.46000 -3.545
32.48000 2.129
32.50000 11.536
32.52000 9.289
32.54000 2.462
32.56000 -2.188
32.58000 -0.682
32.60000 5.252
32.62000 5.988
32.64000 1.631
32.66000 0.142
32.68000 0.489
32.70000 -0.551
32.72000 0.099
32.74000 7.794
32.76000 5.587
32.78000 0.793
32.80000 2.306
32.82000 7.390
32.84000 4.454
32.86000 1.236
32.88000 1.419
32.90000 2.048
32.92000 2.439
32.94000 0.534
32.96000 4.043
32.98000 7.428
33.00000 4.002
33.02000 2.987
33.04000 3.247
33.06000 8.060
33.08000 4.900
33.10000 3.832
33.12000 -0.382
33.14000 3.480
33.16000 4.872
33.18000 0.101
33.20000 2.962
33.22000 4.408
33.24000 10.167
33.26000 4.886
33.28000 3.598
33.30000 0.159
33.32000 1.693
33.34000 6.234
33.36000 6.265
33.38000 4.326
33.40000 1.865
33.42000 0.055
33.44000 -1.898
33.46000 0.840
33.48000 4.096
33.50000 3.324
33.52000 6.587
33.54000 2.362
33.56000 6.337
33.58000 7.742
33.60000 7.049
33.62000 8.580
33.64000 8.366
33.66000 2.247
33.68000 0.765
33.70000 0.156
33.72000 4.018
33.74000 7.022
33.76000 1.493
33.78000 1.940
33.80000 -0.073
33.82000 0.710
33.84000 5.007
33.86000 9.992
33.88000 4.578
33.90000 0.713
33.92000 -0.273
33.94000 1.087
33.96000 2.208
33.98000 1.590
34.00000 3.218
34.02000 2.155
34.04000 2.665
34.06000 3.839
34.08000 4.840
34.10000 -0.100
34.12000 2.083
34.14000 8.167
34.16000 3.751
34.18000 0.941
34.20000 4.488
34.22000 7.901
34.24000 6.331
34.26000 5.743
34.28000 2.059
34.30000 0.406
34.32000 -2.738
34.34000 2.707
34.36000 5.606
34.38000 4.562
34.40000 6.808
34.42000 3.576
34.44000 0.549
34.46000 -0.326
34.48000 3.147
34.50000 6.595
34.52000 5.841
34.54000 1.579
34.56000 3.629
34.58000 8.681
34.60000 4.529
34.62000 -1.537
34.64000 -1.736
34.66000 -1.271
34.68000 -0.591
34.70000 -3.518
34.72000 -1.937
34.74000 5.161
34.76000 3.832
34.78000 1.142
34.80000 2.674
34.82000 -1.907
34.84000 -3.509
34.86000 -3.443
34.88000 2.560
34.90000 0.734
34.92000 3.966
34.94000 1.946
34.96000 6.378
34.98000 -0.127
35.00000 3.079
35.02000 7.482
35.04000 7.041
35.06000 3.530
35.08000 4.730
35.10000 3.921
35.12000 3.309
35.14000 0.313
35.16000 -0.305
35.18000 -0.173
35.20000 -0.022
35.22000 2.671
35.24000 4.874
35.26000 7.364
35.28000 8.851
35.30000 5.855
35.32000 2.355
35.34000 -3.260
35.36000 -3.477
35.38000 0.046
35.40000 2.037
35.42000 5.579
35.44000 6.478
35.46000 7.508
35.48000 1.337
35.50000 -0.867
35.52000 0.653
35.54000 6.328
35.56000 5.611
35.58000 5.850
35.60000 5.999
35.62000 4.689
35.64000 1.275
35.66000 -3.419
35.68000 -2.536
35.70000 1.814
35.72000 0.586
35.74000 1.237
35.76000 -0.779
35.78000 4.191
35.80000 6.950
35.82000 1.828
35.84000 1.478
35.86000 -0.354
35.88000 0.663
35.90000 1.246
35.92000 2.292
35.94000 0.666
35.96000 4.794
35.98000 6.732
36.00000 5.834
36.02000 1.284
36.04000 -0.536
36.06000 -1.062
36.08000 1.624
36.10000 8.204
36.12000 11.136
36.14000 3.340
36.16000 3.602
36.18000 4.414
36.20000 2.210
36.22000 4.067
36.24000 6.192
36.26000 3.079
36.28000 1.018
36.30000 1.636
36.32000 0.141
36.34000 -1.362
36.36000 2.459
36.38000 3.757
36.40000 2.949
36.42000 6.903
36.44000 2.435
36.46000 3.874
36.48000 1.262
36.50000 3.436
36.52000 4.983
36.54000 3.272
36.56000 -2.183
36.58000 2.140
36.60000 4.138
36.62000 1.784
36.64000 2.539
36.66000 1.588
36.68000 5.224
36.70000 7.030
36.72000 3.730
36.74000 6.989
36.76000 5.579
36.78000 3.781
36.80000 -1.188
36.82000 -3.472
36.84000 -1.103
36.86000 -0.034
36.88000 1.365
36.90000 3.163
36.92000 6.172
36.94000 6.267
36.96000 3.162
36.98000 3.727
37.00000 4.637
37.02000 3.907
37.04000 4.168
37.06000 4.346
37.08000 5.028
37.10000 3.228
37.12000 2.844
37.14000 3.919
37.16000 2.374
37.18000 8.311
37.20000 2.882
37.22000 -1.290
37.24000 -0.773
37.26000 3.678
37.28000 3.658
37.30000 2.249
37.32000 3.155
37.34000 1.581
37.36000 2.671
37.38000 6.125
37.40000 2.853
37.42000 5.425
37.44000 3.513
37.46000 5.299
37.48000 5.952
37.50000 5.856
37.52000 -0.595
37.54000 0.500
37.56000 -1.728
37.58000 3.681
37.60000 3.490
37.62000 4.639
37.64000 2.465
37.66000 -3.530
37.68000 -2.630
37.70000 5.431
37.72000 1.481
37.74000 2.697
37.76000 2.488
37.78000 7.643
37.80000 6.452
37.82000 8.586
37.84000 6.441
37.86000 1.885
37.88000 -0.729
37.90000 1.295
37.92000 1.853
37.94000 4.474
37.96000 5.022
37.98000 7.544
38.00000 4.791
38.02000 5.839
38.04000 4.988
38.06000 2.726
38.08000 7.579
38.10000 9.773
38.12000 7.794
38.14000 9.439
38.16000 16.949
38.18000 11.563
38.20000 9.453
38.22000 9.995
38.24000 11.324
38.26000 9.512
38.28000 5.091
38.30000 6.797
38.32000 6.850
38.34000 9.620
38.36000 11.012
38.38000 15.854
38.40000 17.427
38.42000 16.851
38.44000 13.614
38.46000 12.719
38.48000 16.859
38.50000 16.097
38.52000 19.165
38.54000 19.973
38.56000 19.255
38.58000 17.468
38.60000 14.881
38.62000 19.625
38.64000 23.616
38.66000 17.824
38.68000 16.442
38.70000 18.631
38.72000 16.045
38.74000 13.071
38.76000 15.117
38.78000 21.843
38.80000 23.479
38.82000 23.696
38.84000 21.430
38.86000 19.754
38.88000 23.988
38.90000 30.702
38.92000 26.192
38.94000 23.645
38.96000 26.406
38.98000 27.877
39.00000 25.530
39.02000 29.476
39.04000 29.747
39.06000 26.152
39.08000 26.183
39.10000 24.014
39.12000 27.256
39.14000 31.084
39.16000 30.376
39.18000 30.274
39.20000 35.173
39.22000 32.934
39.24000 32.115
39.26000 36.131
39.28000 39.653
39.30000 40.443
39.32000 38.568
39.34000 36.289
39.36000 39.259
39.38000 40.715
39.40000 42.935
39.42000 41.822
39.44000 43.203
39.46000 46.596
39.48000 49.861
39.50000 52.270
39.52000 49.564
39.54000 51.524
39.56000 56.633
39.58000 57.874
39.60000 63.183
39.62000 64.264
39.64000 72.471
39.66000 68.179
39.68000 74.849
39.70000 77.010
39.72000 84.607
39.74000 87.572
39.76000 84.244
39.78000 90.644
39.80000 94.286
39.82000 101.715
39.84000 104.519
39.86000 105.318
39.88000 112.963
39.90000 118.208
39.92000 124.326
39.94000 134.847
39.96000 137.837
39.98000 146.615
40.00000 149.805
40.02000 157.996
40.04000 166.022
40.06000 171.124
40.08000 181.885
40.10000 192.019
40.12000 201.518
40.14000 208.813
40.16000 221.233
40.18000 225.238
40.20000 231.911
40.22000 245.717
40.24000 256.260
40.26000 272.866
40.28000 292.464
40.30000 300.867
40.32000 306.844
40.34000 318.132
40.36000 330.817
40.38000 345.683
40.40000 364.511
40.42000 380.385
40.44000 386.785
40.46000 412.468
40.48000 427.170
40.50000 437.712
40.52000 452.974
40.54000 460.929
40.56000 477.771
40.58000 493.203
40.60000 510.665
40.62000 531.706
40.64000 543.267
40.66000 556.745
40.68000 550.360
40.70000 559.904
40.72000 579.804
40.74000 594.003
40.76000 597.132
40.78000 598.913
40.80000 609.000
40.82000 615.977
40.84000 618.104
40.86000 610.248
40.88000 608.991
40.90000 604.445
40.92000 601.057
40.94000 595.352
40.96000 586.280
40.98000 568.871
41.00000 563.720
41.02000 547.434
41.04000 524.913
41.06000 515.275
41.08000 497.073
41.10000 484.710
41.12000 479.574
41.14000 463.352
41.16000 444.050
41.18000 428.742
41.20000 413.533
41.22000 397.924
41.24000 380.059
41.26000 358.709
41.28000 338.563
41.30000 326.547
41.32000 316.986
41.34000 301.181
41.36000 289.353
41.38000 269.703
41.40000 250.363
41.42000 233.895
41.44000 233.686
41.46000 222.325
41.48000 210.564
41.50000 199.636
41.52000 184.190
41.54000 175.844
41.56000 168.131
41.58000 154.373
41.60000 146.577
41.62000 145.259
41.64000 136.286
41.66000 131.073
41.68000 127.455
41.70000 124.417
41.72000 112.466
41.74000 106.647
41.76000 99.885
41.78000 91.680
41.80000 86.007
41.82000 81.575
41.84000 81.549
41.86000 75.689
41.88000 72.505
41.90000 71.611
41.92000 66.806
41.94000 57.944
41.96000 55.283
41.98000 56.904
42.00000 55.266
42.02000 53.282
42.04000 53.801
42.06000 45.847
42.08000 40.849
42.10000 40.646
42.12000 44.585
42.14000 40.660
42.16000 41.188
42.18000 36.049
42.20000 34.206
42.22000 29.154
42.24000 27.433
42.26000 28.033
42.28000 25.056
42.30000 24.497
42.32000 22.912
42.34000 21.679
42.36000 21.374
42.38000 20.327
42.40000 18.854
42.42000 19.368
42.44000 16.846
42.46000 18.645
42.48000 15.276
42.50000 15.915
42.52000 16.444
42.54000 12.106
42.56000 9.971
42.58000 14.423
42.60000 16.316
42.62000 17.690
42.64000 9.115
42.66000 4.736
42.68000 6.770
42.70000 10.969
42.72000 12.321
42.74000 11.327
42.76000 8.479
42.78000 6.875
42.80000 3.164
42.82000 5.443
42.84000 8.455
42.86000 9.315
42.88000 9.398
42.90000 4.901
42.92000 6.841
42.94000 6.243
42.96000 2.457
42.98000 3.436
43.00000 6.274
43.02000 4.813
43.04000 5.009
43.06000 7.524
43.08000 6.204
43.10000 5.870
43.12000 3.380
43.14000 6.117
43.16000 9.062
43.18000 2.639
43.20000 0.196
43.22000 7.029
43.24000 3.239
43.26000 3.210
43.28000 4.351
43.30000 5.497
43.32000 2.840
43.34000 -2.657
43.36000 -3.478
43.38000 -0.872
43.40000 1.879
43.42000 2.409
43.44000 -2.341
43.46000 0.347
43.48000 3.622
43.50000 6.303
43.52000 2.324
43.54000 -3.565
43.56000 -1.099
43.58000 0.539
43.60000 1.691
43.62000 2.992
43.64000 4.156
43.66000 1.453
43.68000 0.721
43.70000 1.311
43.72000 0.930
43.74000 -2.969
43.76000 1.196
43.78000 -1.914
43.80000 -0.632
43.82000 -0.058
43.84000 4.116
43.86000 3.689
43.88000 2.932
43.90000 3.954
43.92000 1.476
43.94000 -2.717
43.96000 0.273
43.98000 5.757
44.00000 8.555
44.02000 5.037
44.04000 0.936
44.06000 -1.370
44.08000 4.480
44.10000 7.150
44.12000 1.587
44.14000 -1.435
44.16000 0.143
44.18000 4.612
44.20000 8.192
44.22000 9.236
44.24000 4.887
44.26000 -0.831
44.28000 -1.628
44.30000 2.805
44.32000 1.792
44.34000 3.009
44.36000 1.436
44.38000 1.117
44.40000 4.269
44.42000 0.887
44.44000 -3.449
44.46000 -0.832
44.48000 2.482
44.50000 2.464
44.52000 5.746
44.54000 1.467
44.56000 3.904
44.58000 1.697
44.60000 1.755
44.62000 3.269
44.64000 6.136
44.66000 0.524
44.68000 3.228
44.70000 7.927
44.72000 7.937
44.74000 8.731
44.76000 3.928
44.78000 -0.509
44.80000 0.955
44.82000 1.326
44.84000 1.223
44.86000 0.585
44.88000 0.753
44.90000 2.506
44.92000 4.373
44.94000 3.599
44.96000 4.521
44.98000 0.366
45.00000 -0.326
45.02000 4.320
45.04000 5.328
45.06000 0.987
45.08000 1.222
45.10000 -0.176
45.12000 -1.985
45.14000 -1.126
45.16000 -3.472
45.18000 -1.556
45.20000 -0.599
45.22000 1.883
45.24000 4.862
45.26000 6.355
45.28000 0.141
45.30000 -1.257
45.32000 -0.674
45.34000 0.668
45.36000 0.365
45.38000 1.044
45.40000 4.050
45.42000 2.393
45.44000 -0.370
45.46000 2.314
45.48000 2.126
45.50000 3.224
45.52000 6.364
45.54000 8.176
45.56000 3.099
45.58000 5.093
45.60000 4.086
45.62000 7.145
45.64000 10.694
45.66000 8.485
45.68000 6.080
45.70000 2.842
45.72000 7.955
45.74000 13.772
45.76000 9.367
45.78000 7.273
45.80000 7.582
45.82000 7.406
45.84000 5.489
45.86000 4.365
45.88000 9.618
45.90000 12.294
45.92000 8.220
45.94000 12.211
45.96000 12.345
45.98000 11.586
46.00000 14.425
46.02000 21.725
46.04000 22.287
46.06000 11.724
46.08000 8.972
46.10000 10.219
46.12000 11.816
46.14000 13.731
46.16000 19.484
46.18000 17.724
46.20000 15.213
46.22000 18.435
46.24000 24.030
46.26000 20.945
46.28000 14.188
46.30000 16.655
46.32000 13.925
46.34000 13.978
46.36000 23.949
46.38000 29.219
46.40000 31.445
46.42000 26.999
46.44000 20.602
46.46000 28.839
46.48000 25.365
46.50000 26.646
46.52000 32.709
46.54000 32.265
46.56000 30.395
46.58000 29.779
46.60000 29.756
46.62000 33.886
46.64000 32.490
46.66000 35.727
46.68000 41.793
46.70000 41.543
46.72000 35.720
46.74000 37.613
46.76000 42.938
46.78000 44.863
46.80000 42.444
46.82000 43.980
46.84000 48.809
46.86000 48.338
46.88000 47.812
46.90000 48.642
46.92000 46.646
46.94000 47.247
46.96000 48.014
46.98000 46.675
47.00000 52.243
47.02000 51.140
47.04000 54.807
47.06000 60.671
47.08000 58.343
47.10000 55.210
47.12000 63.615
47.14000 62.491
47.16000 58.372
47.18000 58.468
47.20000 54.304
47.22000 57.555
47.24000 65.014
47.26000 60.026
47.28000 58.325
47.30000 61.645
47.32000 60.869
47.34000 58.071
47.36000 61.472
47.38000 66.614
47.40000 61.824
47.42000 65.503
47.44000 66.009
47.46000 63.781
47.48000 56.022
47.50000 54.066
47.52000 54.414
47.54000 51.144
47.56000 57.521
47.58000 64.689
47.60000 61.602
47.62000 56.207
47.64000 56.536
47.66000 55.667
47.68000 49.228
47.70000 52.031
47.72000 60.202
47.74000 57.763
47.76000 56.775
47.78000 51.993
47.80000 48.364
47.82000 47.201
47.84000 42.103
47.86000 45.869
47.88000 44.484
47.90000 42.871
47.92000 39.223
47.94000 37.348
47.96000 32.469
47.98000 36.449
48.00000 37.623
48.02000 30.652
48.04000 26.556
48.06000 37.670
48.08000 38.528
48.10000 28.920
48.12000 23.738
48.14000 20.166
48.16000 26.768
48.18000 26.742
48.20000 26.165
48.22000 17.445
48.24000 15.437
48.26000 22.301
48.28000 20.033
48.30000 14.822
48.32000 11.106
48.34000 15.459
48.36000 18.447
48.38000 22.658
48.40000 18.334
48.42000 14.133
48.44000 7.905
48.46000 13.080
48.48000 17.882
48.50000 17.456
48.52000 15.085
48.54000 13.345
48.56000 17.651
48.58000 15.668
48.60000 15.358
48.62000 11.732
48.64000 8.571
48.66000 5.533
48.68000 12.113
48.70000 12.371
48.72000 6.580
48.74000 9.873
48.76000 4.487
48.78000 8.189
48.80000 5.206
48.82000 5.133
48.84000 7.682
48.86000 8.570
48.88000 10.143
48.90000 6.766
48.92000 6.616
48.94000 3.875
48.96000 5.426
48.98000 7.615
49.00000 11.823
49.02000 12.022
49.04000 8.761
49.06000 -0.368
49.08000 -3.143
49.10000 2.183
49.12000 10.330
49.14000 8.822
49.16000 0.868
49.18000 6.497
49.20000 5.709
49.22000 1.531
49.24000 -3.123
49.26000 2.353
49.28000 4.743
49.30000 3.559
49.32000 6.374
49.34000 9.000
49.36000 8.946
49.38000 7.592
49.40000 8.172
49.42000 8.134
49.44000 7.138
49.46000 2.929
49.48000 6.374
49.50000 7.194
49.52000 5.563
49.54000 -0.006
49.56000 -0.336
49.58000 6.238
49.60000 8.788
49.62000 2.494
49.64000 0.563
49.66000 0.668
49.68000 1.298
49.70000 7.440
49.72000 2.389
49.74000 3.098
49.76000 2.907
49.78000 2.521
49.80000 2.033
49.82000 2.542
49.84000 4.322
49.86000 5.225
49.88000 5.105
49.90000 0.109
49.92000 3.385
49.94000 6.581
49.96000 2.666
49.98000 5.920
50.00000 7.604
50.02000 3.627
50.04000 7.134
50.06000 3.603
50.08000 2.802
50.10000 3.401
50.12000 3.300
50.14000 -0.774
50.16000 -3.006
50.18000 1.585
50.20000 0.732
50.22000 -2.304
50.24000 -0.797
50.26000 1.443
50.28000 -0.185
50.30000 -2.999
50.32000 1.325
50.34000 6.540
50.36000 5.485
50.38000 3.318
50.40000 -2.676
50.42000 0.537
50.44000 4.227
50.46000 0.097
50.48000 3.917
50.50000 3.608
50.52000 6.129
50.54000 5.197
50.56000 6.646
50.58000 0.705
50.60000 -2.427
50.62000 -1.352
50.64000 1.431
50.66000 5.059
50.68000 0.648
50.70000 6.154
50.72000 5.288
50.74000 3.022
50.76000 1.557
50.78000 4.517
50.80000 1.935
50.82000 3.008
50.84000 3.223
50.86000 2.444
50.88000 2.459
50.90000 -0.106
50.92000 0.805
50.94000 0.707
50.96000 0.551
50.98000 0.936
51.00000 0.780
51.02000 3.156
51.04000 3.458
51.06000 0.716
51.08000 1.501
51.10000 -2.984
51.12000 -0.848
51.14000 3.088
51.16000 3.270
51.18000 2.679
51.20000 1.043
51.22000 2.355
51.24000 -0.266
51.26000 -0.295
51.28000 -2.608
51.30000 2.579
51.32000 8.321
51.34000 2.569
51.36000 1.284
51.38000 -0.957
51.40000 -1.171
51.42000 -1.052
51.44000 3.622
51.46000 1.225
51.48000 -1.551
51.50000 0.998
51.52000 -0.351
51.54000 0.602
51.56000 2.234
51.58000 -0.435
51.60000 -0.712
51.62000 -1.594
51.64000 1.869
51.66000 0.756
51.68000 0.150
51.70000 2.681
51.72000 0.137
51.74000 1.408
51.76000 2.076
51.78000 6.706
51.80000 9.761
51.82000 2.356
51.84000 3.846
51.86000 7.978
51.88000 3.857
51.90000 1.505
51.92000 -0.290
51.94000 0.658
51.96000 -0.374
51.98000 3.173
52.00000 3.838
52.02000 9.966
52.04000 2.170
52.06000 0.307
52.08000 4.541
52.10000 0.073
52.12000 -2.935
52.14000 1.882
52.16000 4.216
52.18000 3.910
52.20000 2.357
52.22000 2.131
52.24000 1.606
52.26000 2.854
52.28000 5.685
52.30000 5.400
52.32000 1.427
52.34000 -1.304
52.36000 -2.923
52.38000 2.138
52.40000 4.813
52.42000 -0.695
52.44000 0.819
52.46000 0.062
52.48000 2.632
52.50000 4.760
52.52000 7.297
52.54000 6.202
52.56000 -0.947
52.58000 -1.640
52.60000 2.962
52.62000 1.662
52.64000 0.730
52.66000 -2.903
52.68000 3.104
52.70000 6.487
52.72000 5.896
52.74000 0.501
52.76000 0.623
52.78000 4.046
52.80000 4.779
52.82000 2.786
52.84000 10.072
52.86000 6.695
52.88000 7.080
52.90000 3.048
52.92000 5.976
52.94000 1.974
52.96000 1.177
52.98000 5.635
53.00000 6.794
53.02000 2.063
53.04000 4.063
53.06000 4.774
53.08000 5.566
53.10000 3.130
53.12000 3.874
53.14000 4.415
53.16000 4.524
53.18000 4.425
53.20000 4.589
53.22000 5.775
53.24000 5.215
53.26000 6.697
53.28000 5.103
53.30000 3.451
53.32000 7.159
53.34000 7.752
53.36000 7.885
53.38000 4.514
53.40000 2.760
53.42000 11.788
53.44000 8.441
53.46000 5.967
53.48000 5.052
53.50000 -0.154
53.52000 0.933
53.54000 0.154
53.56000 -2.827
53.58000 4.229
53.60000 3.894
53.62000 3.899
53.64000 9.610
53.66000 8.351
53.68000 4.412
53.70000 3.843
53.72000 5.045
53.74000 7.529
53.76000 4.672
53.78000 -0.497
53.80000 -0.968
53.82000 9.239
53.84000 10.005
53.86000 8.023
53.88000 6.636
53.90000 6.899
53.92000 3.117
53.94000 2.315
53.96000 5.758
53.98000 3.858
54.00000 4.719
54.02000 5.201
54.04000 5.781
54.06000 -0.716
54.08000 1.838
54.10000 2.872
54.12000 6.893
54.14000 3.493
54.16000 4.356
54.18000 7.221
54.20000 9.034
54.22000 6.205
54.24000 3.026
54.26000 2.744
54.28000 0.145
54.30000 -0.631
54.32000 2.530
54.34000 1.754
54.36000 6.197
54.38000 6.185
54.40000 3.968
54.42000 4.326
54.44000 5.728
54.46000 -0.639
54.48000 4.301
54.50000 4.439
54.52000 -1.337
54.54000 -1.937
54.56000 -1.704
54.58000 2.503
54.60000 9.711
54.62000 6.083
54.64000 4.988
54.66000 8.816
54.68000 7.786
54.70000 3.279
54.72000 -0.694
54.74000 2.969
54.76000 -1.084
54.78000 2.600
54.80000 1.692
54.82000 2.578
54.84000 9.428
54.86000 -2.606
54.88000 1.830
54.90000 8.813
54.92000 7.488
54.94000 0.202
54.96000 -2.076
54.98000 0.565
55.00000 -0.226
55.02000 3.032
55.04000 4.886
55.06000 2.768
55.08000 7.821
55.10000 10.037
55.12000 5.660
55.14000 -0.883
55.16000 3.295
55.18000 6.476
55.20000 5.736
55.22000 4.706
55.24000 1.172
55.26000 0.077
55.28000 7.579
55.30000 4.158
55.32000 -1.335
55.34000 0.025
55.36000 1.689
55.38000 3.401
55.40000 5.647
55.42000 2.250
55.44000 0.132
55.46000 -0.740
55.48000 -0.009
55.50000 0.108
55.52000 1.838
55.54000 2.342
55.56000 3.804
55.58000 0.868
55.60000 -2.832
55.62000 -0.645
55.64000 2.553
55.66000 3.143
55.68000 2.543
55.70000 1.756
55.72000 -0.444
55.74000 -0.555
55.76000 4.918
55.78000 9.228
55.80000 4.110
55.82000 1.239
55.84000 1.971
55.86000 0.936
55.88000 2.399
55.90000 3.584
55.92000 0.429
55.94000 5.119
55.96000 2.870
55.98000 -1.359
56.00000 2.593
56.02000 1.144
56.04000 -1.340
56.06000 1.917
56.08000 4.885
56.10000 3.311
56.12000 6.731
56.14000 2.320
56.16000 -2.776
56.18000 1.210
56.20000 4.876
56.22000 4.139
56.24000 1.828
56.26000 -0.023
56.28000 0.626
56.30000 3.340
56.32000 2.015
56.34000 8.090
56.36000 3.744
56.38000 2.680
56.40000 1.961
56.42000 3.824
56.44000 1.581
56.46000 4.935
56.48000 4.109
56.50000 0.769
56.52000 0.464
56.54000 -0.854
56.56000 0.972
56.58000 3.555
56.60000 1.556
56.62000 4.093
56.64000 7.748
56.66000 6.811
56.68000 2.463
56.70000 2.712
56.72000 5.946
56.74000 7.860
56.76000 6.907
56.78000 3.843
56.80000 -2.775
56.82000 3.831
56.84000 8.950
56.86000 6.812
56.88000 7.930
56.90000 6.082
56.92000 2.639
56.94000 2.009
56.96000 6.093
56.98000 4.493
57.00000 -0.893
57.02000 7.692
57.04000 9.634
57.06000 6.841
57.08000 1.777
57.10000 8.883
57.12000 8.358
57.14000 5.331
57.16000 4.468
57.18000 4.622
57.20000 8.167
57.22000 5.970
57.24000 -0.258
57.26000 -2.227
57.28000 -2.736
57.30000 0.670
57.32000 9.039
57.34000 11.320
57.36000 2.308
57.38000 1.315
57.40000 5.150
57.42000 9.189
57.44000 11.723
57.46000 6.392
57.48000 0.914
57.50000 5.333
57.52000 8.491
57.54000 2.989
57.56000 6.094
57.58000 7.444
57.60000 2.295
57.62000 3.464
57.64000 4.216
57.66000 6.091
57.68000 7.744
57.70000 11.287
57.72000 8.442
57.74000 8.129
57.76000 6.764
57.78000 5.913
57.80000 4.927
57.82000 1.656
57.84000 1.804
57.86000 7.779
57.88000 5.188
57.90000 3.494
57.92000 3.030
57.94000 4.054
57.96000 1.583
57.98000 2.180
58.00000 1.018
58.02000 2.180
58.04000 -2.709
58.06000 -0.538
58.08000 1.373
58.10000 4.166
58.12000 5.537
58.14000 5.150
58.16000 6.712
58.18000 9.659
58.20000 8.218
58.22000 4.243
58.24000 2.629
58.26000 4.169
58.28000 6.551
58.30000 6.471
58.32000 3.301
58.34000 3.612
58.36000 8.934
58.38000 8.800
58.40000 7.349
58.42000 1.901
58.44000 -1.286
58.46000 1.643
58.48000 2.459
58.50000 5.276
58.52000 3.536
58.54000 5.496
58.56000 5.953
58.58000 1.915
58.60000 -1.350
58.62000 0.259
58.64000 0.857
58.66000 4.015
58.68000 1.209
58.70000 0.613
58.72000 0.522
58.74000 2.354
58.76000 3.734
58.78000 3.291
58.80000 6.720
58.82000 7.730
58.84000 8.057
58.86000 4.468
58.88000 6.127
58.90000 3.096
58.92000 -1.849
58.94000 1.755
58.96000 4.916
58.98000 5.945
59.00000 6.371
59.02000 3.376
59.04000 6.567
59.06000 7.890
59.08000 4.893
59.10000 2.355
59.12000 3.247
59.14000 3.369
59.16000 5.147
59.18000 6.474
59.20000 5.619
59.22000 7.680
59.24000 1.658
59.26000 1.773
59.28000 9.204
59.30000 9.640
59.32000 1.728
59.34000 -2.681
59.36000 2.752
59.38000 4.551
59.40000 7.372
59.42000 5.712
59.44000 5.337
59.46000 3.989
59.48000 9.204
59.50000 10.391
59.52000 6.581
59.54000 2.281
59.56000 6.551
59.58000 7.828
59.60000 4.056
59.62000 2.146
59.64000 3.062
59.66000 9.094
59.68000 8.822
59.70000 4.986
59.72000 -0.392
59.74000 -2.518
59.76000 2.874
59.78000 6.357
59.80000 2.718
59.82000 -0.918
59.84000 0.126
59.86000 1.446
59.88000 4.731
59.90000 4.172
59.92000 4.746
59.94000 3.723
59.96000 5.191
59.98000 7.935
60.00000 2.591
60.02000 3.953
60.04000 4.254
60.06000 8.131
60.08000 8.573
60.10000 8.318
60.12000 6.630
60.14000 6.049
60.16000 6.377
60.18000 1.072
60.20000 5.768
60.22000 3.818
60.24000 -0.571
60.26000 1.089
60.28000 1.007
60.30000 1.078
60.32000 0.089
60.34000 -1.012
60.36000 -1.310
60.38000 -0.303
60.40000 1.905
60.42000 5.000
60.44000 1.180
60.46000 1.991
60.48000 2.639
60.50000 3.076
60.52000 4.111
60.54000 4.100
60.56000 0.078
60.58000 4.602
60.60000 -1.287
60.62000 -2.531
60.64000 2.245
60.66000 0.021
60.68000 5.940
60.70000 6.351
60.72000 4.069
60.74000 2.574
60.76000 0.816
60.78000 0.566
60.80000 3.005
60.82000 0.749
60.84000 -2.625
60.86000 1.445
60.88000 -0.813
60.90000 -0.981
60.92000 3.069
60.94000 4.172
60.96000 4.549
60.98000 4.163
61.00000 9.448
61.02000 5.775
61.04000 5.351
61.06000 6.417
61.08000 5.213
61.10000 7.184
61.12000 3.219
61.14000 0.519
61.16000 4.119
61.18000 5.334
61.20000 0.238
61.22000 0.606
61.24000 4.367
61.26000 6.958
61.28000 3.614
61.30000 2.022
61.32000 1.906
61.34000 4.210
61.36000 7.423
61.38000 4.031
61.40000 -1.023
61.42000 -0.445
61.44000 2.049
61.46000 6.142
61.48000 2.139
61.50000 2.181
61.52000 2.694
61.54000 4.168
61.56000 2.827
61.58000 -0.908
61.60000 1.526
61.62000 -2.605
61.64000 1.078
61.66000 -2.320
61.68000 0.620
61.70000 5.132
61.72000 6.771
61.74000 3.427
61.76000 3.591
61.78000 2.937
61.80000 1.457
61.82000 4.610
61.84000 0.986
61.86000 -0.144
61.88000 0.330
61.90000 4.609
61.92000 6.542
61.94000 5.755
61.96000 6.928
61.98000 4.258
62.00000 2.753
62.02000 1.435
62.04000 6.168
62.06000 4.206
62.08000 2.082
62.10000 -0.401
62.12000 2.821
62.14000 -2.372
62.16000 -2.310
62.18000 4.957
62.20000 4.543
62.22000 1.905
62.24000 3.888
62.26000 -0.809
62.28000 0.767
62.30000 3.265
62.32000 3.115
62.34000 -2.593
62.36000 2.519
62.38000 1.940
62.40000 0.104
62.42000 0.760
62.44000 -1.414
62.46000 1.733
62.48000 1.071
62.50000 2.765
62.52000 8.761
62.54000 8.777
62.56000 5.204
62.58000 7.717
62.60000 9.370
62.62000 9.350
62.64000 4.750
62.66000 2.414
62.68000 5.793
62.70000 1.376
62.72000 0.136
62.74000 2.382
62.76000 1.750
62.78000 0.104
62.80000 -1.994
62.82000 -0.571
62.84000 1.686
62.86000 0.355
62.88000 -1.021
62.90000 2.119
62.92000 4.378
62.94000 5.074
62.96000 3.893
62.98000 2.887
63.00000 2.134
63.02000 4.553
63.04000 1.918
63.06000 3.868
63.08000 4.706
63.10000 5.611
63.12000 3.074
63.14000 -1.687
63.16000 0.800
63.18000 -0.946
63.20000 -2.598
63.22000 -0.731
63.24000 1.344
63.26000 0.658
63.28000 0.689
63.30000 1.774
63.32000 4.423
63.34000 2.685
63.36000 3.660
63.38000 -0.213
63.40000 0.631
63.42000 2.753
63.44000 2.471
63.46000 0.237
63.48000 1.134
63.50000 3.552
63.52000 1.907
63.54000 2.115
63.56000 2.645
63.58000 4.850
63.60000 4.327
63.62000 4.847
63.64000 5.664
63.66000 3.285
63.68000 2.763
63.70000 3.534
63.72000 5.377
63.74000 6.046
63.76000 2.380
63.78000 3.152
63.80000 2.135
63.82000 1.623
63.84000 2.603
63.86000 2.721
63.88000 3.381
63.90000 2.066
63.92000 3.817
63.94000 4.620
63.96000 0.706
63.98000 2.499
64.00000 3.435
64.02000 0.041
64.04000 -2.570
64.06000 5.455
64.08000 4.146
64.10000 6.708
64.12000 4.264
64.14000 3.261
64.16000 -0.365
64.18000 2.498
64.20000 5.430
64.22000 1.965
64.24000 3.545
64.26000 3.554
64.28000 2.521
64.30000 5.077
64.32000 1.796
64.34000 5.328
64.36000 4.071
64.38000 6.061
64.40000 2.665
64.42000 0.625
64.44000 5.719
64.46000 7.125
64.48000 5.969
64.50000 6.055
64.52000 4.957
64.54000 5.636
64.56000 4.585
64.58000 4.079
64.60000 3.895
64.62000 0.069
64.64000 -0.176
64.66000 1.309
64.68000 3.175
64.70000 4.528
64.72000 0.764
64.74000 -1.515
64.76000 4.654
64.78000 5.497
64.80000 5.933
64.82000 1.148
64.84000 -2.171
64.86000 -2.605
64.88000 1.215
64.90000 5.419
64.92000 3.408
64.94000 5.187
64.96000 2.417
64.98000 -1.635
65.00000 0.383
65.02000 0.845
65.04000 -2.164
65.06000 -0.566
65.08000 -0.679
65.10000 -1.382
65.12000 -0.611
65.14000 2.386
65.16000 2.297
65.18000 1.521
65.20000 1.052
65.22000 -0.680
65.24000 1.842
65.26000 1.133
65.28000 -0.214
65.30000 -0.466
65.32000 3.193
65.34000 0.080
65.36000 -0.855
65.38000 -1.136
65.40000 -0.668
65.42000 1.521
65.44000 2.382
65.46000 0.921
65.48000 1.399
65.50000 -0.989
65.52000 -0.421
65.54000 -1.370
65.56000 -0.799
65.58000 -2.452
65.60000 -1.656
65.62000 1.272
65.64000 0.494
65.66000 -0.224
65.68000 -1.766
65.70000 -0.315
65.72000 -2.609
65.74000 0.419
65.76000 3.124
65.78000 3.509
65.80000 3.626
65.82000 2.021
65.84000 2.277
65.86000 3.448
65.88000 1.864
65.90000 3.361
65.92000 0.144
65.94000 -0.272
65.96000 0.263
65.98000 0.591
66.00000 -2.133
66.02000 5.305
66.04000 4.310
66.06000 4.056
66.08000 3.582
66.10000 6.506
66.12000 3.914
66.14000 4.234
66.16000 6.316
66.18000 7.307
66.20000 5.795
66.22000 3.330
66.24000 2.345
66.26000 3.913
66.28000 7.716
66.30000 6.824
66.32000 4.859
66.34000 5.812
66.36000 3.011
66.38000 2.721
66.40000 4.793
66.42000 2.832
66.44000 0.987
66.46000 1.637
66.48000 0.521
66.50000 3.036
66.52000 1.340
66.54000 1.987
66.56000 3.258
66.58000 3.405
66.60000 4.355
66.62000 2.592
66.64000 -2.574
66.66000 2.425
66.68000 8.050
66.70000 4.573
66.72000 -1.521
66.74000 2.067
66.76000 2.216
66.78000 1.324
66.80000 1.969
66.82000 5.023
66.84000 1.961
66.86000 -1.074
66.88000 0.786
66.90000 1.287
66.92000 1.289
66.94000 0.950
66.96000 1.175
66.98000 -0.637
67.00000 2.514
67.02000 2.653
67.04000 3.688
67.06000 2.741
67.08000 0.639
67.10000 -1.421
67.12000 4.387
67.14000 4.546
67.16000 1.437
67.18000 -2.528
67.20000 -1.149
67.22000 -2.078
67.24000 -1.325
67.26000 0.365
67.28000 -0.430
67.30000 5.264
67.32000 2.495
67.34000 1.425
67.36000 -2.610
67.38000 -2.407
67.40000 -2.019
67.42000 -2.060
67.44000 -0.443
67.46000 3.360
67.48000 3.703
67.50000 5.719
67.52000 1.128
67.54000 -2.657
67.56000 0.867
67.58000 4.085
67.60000 1.144
67.62000 -2.153
67.64000 0.028
67.66000 2.497
67.68000 1.479
67.70000 4.432
67.72000 3.463
67.74000 4.075
67.76000 -0.800
67.78000 0.857
67.80000 0.753
67.82000 -0.779
67.84000 2.388
67.86000 0.230
67.88000 0.238
67.90000 -0.230
67.92000 0.160
67.94000 -0.809
67.96000 3.093
67.98000 -2.305
68.00000 -2.395
68.02000 1.405
68.04000 1.121
68.06000 1.013
68.08000 -0.460
68.10000 1.249
68.12000 4.144
68.14000 5.706
68.16000 4.255
68.18000 0.209
68.20000 1.978
68.22000 3.462
68.24000 5.349
68.26000 7.102
68.28000 6.078
68.30000 3.608
68.32000 3.643
68.34000 11.472
68.36000 9.846
68.38000 9.448
68.40000 10.652
68.42000 6.898
68.44000 5.999
68.46000 4.140
68.48000 8.168
68.50000 6.251
68.52000 6.377
68.54000 8.883
68.56000 8.846
68.58000 10.155
68.60000 7.818
68.62000 12.399
68.64000 10.497
68.66000 11.955
68.68000 15.059
68.70000 13.813
68.72000 13.273
68.74000 12.062
68.76000 12.247
68.78000 17.143
68.80000 19.316
68.82000 14.350
68.84000 17.143
68.86000 20.804
68.88000 15.330
68.90000 17.370
68.92000 16.116
68.94000 15.128
68.96000 16.206
68.98000 19.900
69.00000 20.384
69.02000 21.286
69.04000 18.082
69.06000 15.848
69.08000 22.198
69.10000 20.583
69.12000 19.364
69.14000 19.071
69.16000 21.285
69.18000 22.077
69.20000 21.706
69.22000 23.693
69.24000 26.144
69.26000 24.722
69.28000 24.493
69.30000 27.893
69.32000 28.956
69.34000 24.798
69.36000 24.732
69.38000 26.820
69.40000 30.126
69.42000 24.471
69.44000 20.811
69.46000 24.146
69.48000 28.605
69.50000 28.307
69.52000 23.615
69.54000 22.073
69.56000 25.215
69.58000 22.969
69.60000 21.134
69.62000 25.074
69.64000 22.000
69.66000 20.178
69.68000 13.669
69.70000 17.118
69.72000 22.469
69.74000 19.067
69.76000 17.987
69.78000 17.083
69.80000 17.211
69.82000 18.347
69.84000 14.105
69.86000 11.824
69.88000 15.798
69.90000 16.819
69.92000 12.629
69.94000 13.467
69.96000 13.365
69.98000 9.157
70.00000 13.563
70.02000 14.581
70.04000 7.273
70.06000 3.980
70.08000 5.572
70.10000 1.871
70.12000 5.198
70.14000 2.909
70.16000 3.774
70.18000 8.297
70.20000 8.566
70.22000 7.023
70.24000 5.960
70.26000 7.409
70.28000 7.387
70.30000 7.467
70.32000 9.666
70.34000 6.698
70.36000 5.313
70.38000 6.778
70.40000 -1.248
70.42000 2.158
70.44000 7.543
70.46000 0.965
70.48000 1.471
70.50000 2.536
70.52000 2.636
70.54000 3.115
70.56000 2.049
70.58000 3.438
70.60000 5.083
70.62000 4.515
70.64000 6.580
70.66000 1.653
70.68000 -2.264
70.70000 2.907
70.72000 1.100
70.74000 0.169
70.76000 -0.962
70.78000 2.583
70.80000 5.172
70.82000 2.469
70.84000 -1.469
70.86000 -2.556
70.88000 0.755
70.90000 2.739
70.92000 -0.410
70.94000 2.523
70.96000 3.404
70.98000 0.128
71.00000 1.660
71.02000 4.570
71.04000 5.082
71.06000 3.414
71.08000 0.718
71.10000 -2.523
71.12000 -0.935
71.14000 4.747
71.16000 1.395
71.18000 -1.088
71.20000 0.851
71.22000 2.610
71.24000 -0.828
71.26000 3.922
71.28000 2.329
71.30000 -0.523
71.32000 1.061
71.34000 0.728
71.36000 -2.502
71.38000 -2.151
71.40000 -0.196
71.42000 0.173
71.44000 3.175
71.46000 1.553
71.48000 -0.581
71.50000 0.442
71.52000 3.561
71.54000 2.853
71.56000 -0.322
71.58000 -0.527
71.60000 3.014
71.62000 6.897
71.64000 6.804
71.66000 2.874
71.68000 -0.998
71.70000 -1.931
71.72000 -0.157
71.74000 0.200
71.76000 2.206
71.78000 2.253
71.80000 0.950
71.82000 0.214
71.84000 1.445
71.86000 2.256
71.88000 -0.468
71.90000 -0.569
71.92000 -0.105
71.94000 -0.825
71.96000 -1.778
71.98000 -1.061
72.00000 0.225
72.02000 2.037
72.04000 0.076
72.06000 0.269
72.08000 7.228
72.10000 6.844
72.12000 1.661
72.14000 3.044
72.16000 3.879
72.18000 -0.163
72.20000 -0.532
72.22000 3.761
72.24000 -0.083
72.26000 -0.991
72.28000 4.210
72.30000 1.504
72.32000 -0.491
72.34000 1.442
72.36000 2.457
72.38000 1.423
72.40000 -1.184
72.42000 0.620
72.44000 3.240
72.46000 -1.063
72.48000 -2.457
72.50000 -2.007
72.52000 -1.794
72.54000 5.595
72.56000 0.925
72.58000 3.495
72.60000 5.954
72.62000 1.441
72.64000 1.195
72.66000 5.810
72.68000 -0.421
72.70000 1.545
72.72000 -1.504
72.74000 3.359
72.76000 7.707
72.78000 3.500
72.80000 3.745
72.82000 4.152
72.84000 3.701
72.86000 3.485
72.88000 4.416
72.90000 7.199
72.92000 3.070
72.94000 4.537
72.96000 2.124
72.98000 0.291
73.00000 3.153
73.02000 1.525
73.04000 1.846
73.06000 0.688
73.08000 2.223
73.10000 1.090
73.12000 4.655
73.14000 5.419
73.16000 -1.219
73.18000 -2.414
73.20000 -1.551
73.22000 0.542
73.24000 2.504
73.26000 0.067
73.28000 3.148
73.30000 3.004
73.32000 2.071
73.34000 3.230
73.36000 2.992
73.38000 2.622
73.40000 2.571
73.42000 2.810
73.44000 1.200
73.46000 -0.070
73.48000 1.370
73.50000 6.002
73.52000 2.219
73.54000 3.018
73.56000 7.720
73.58000 3.949
73.60000 2.203
73.62000 2.334
73.64000 3.584
73.66000 2.892
73.68000 0.654
73.70000 2.882
73.72000 6.212
73.74000 4.990
73.76000 4.724
73.78000 4.524
73.80000 2.771
73.82000 1.305
73.84000 0.246
73.86000 4.834
73.88000 -2.390
73.90000 -0.166
73.92000 1.663
73.94000 7.725
73.96000 4.904
73.98000 3.446
74.00000 5.292
74.02000 6.972
74.04000 4.813
74.06000 2.717
74.08000 4.918
74.10000 6.200
74.12000 4.334
74.14000 7.591
74.16000 5.384
74.18000 1.534
74.20000 1.364
74.22000 2.621
74.24000 2.075
74.26000 6.079
74.28000 11.130
74.30000 8.945
74.32000 1.494
74.34000 -2.358
74.36000 0.471
74.38000 8.508
74.40000 8.545
74.42000 1.742
74.44000 1.212
74.46000 3.105
74.48000 6.020
74.50000 5.695
74.52000 4.952
74.54000 3.556
74.56000 3.850
74.58000 0.234
74.60000 3.672
74.62000 5.104
74.64000 8.944
74.66000 11.145
74.68000 8.292
74.70000 6.525
74.72000 3.848
74.74000 3.676
74.76000 5.083
74.78000 0.353
74.80000 3.285
74.82000 7.153
74.84000 7.119
74.86000 8.080
74.88000 6.956
74.90000 5.860
74.92000 8.302
74.94000 0.199
74.96000 0.716
74.98000 1.923
75.00000 0.627
75.02000 1.189
75.04000 4.713
75.06000 4.489
75.08000 4.034
75.10000 3.302
75.12000 -2.364
75.14000 0.624
75.16000 2.217
75.18000 0.662
75.20000 3.156
75.22000 4.515
75.24000 3.786
75.26000 5.368
75.28000 3.906
75.30000 5.774
75.32000 2.663
75.34000 1.474
75.36000 3.301
75.38000 4.230
75.40000 3.889
75.42000 2.043
75.44000 -0.840
75.46000 0.386
75.48000 1.751
75.50000 -2.373
75.52000 0.556
75.54000 6.428
75.56000 2.128
75.58000 3.017
75.60000 6.411
75.62000 2.784
75.64000 1.954
75.66000 4.243
75.68000 -1.493
75.70000 -1.277
75.72000 2.040
75.74000 7.826
75.76000 7.059
75.78000 1.427
75.80000 -0.431
75.82000 1.134
75.84000 4.509
75.86000 2.183
75.88000 4.530
75.90000 7.258
75.92000 4.506
75.94000 8.531
75.96000 12.097
75.98000 6.943
76.00000 -0.208
76.02000 0.559
76.04000 4.690
76.06000 3.910
76.08000 5.119
76.10000 1.347
76.12000 -1.954
76.14000 2.331
76.16000 4.445
76.18000 4.278
76.20000 3.059
76.22000 0.172
76.24000 2.259
76.26000 4.983
76.28000 5.791
76.30000 4.656
76.32000 -1.228
76.34000 4.550
76.36000 1.372
76.38000 -2.402
76.40000 -2.057
76.42000 -2.069
76.44000 3.416
76.46000 6.413
76.48000 3.585
76.50000 4.520
76.52000 4.661
76.54000 4.616
76.56000 4.106
76.58000 2.799
76.60000 4.552
76.62000 5.875
76.64000 3.256
76.66000 4.820
76.68000 10.589
76.70000 4.757
76.72000 -2.401
76.74000 -0.786
76.76000 -0.342
76.78000 2.678
76.80000 4.619
76.82000 2.059
76.84000 3.016
76.86000 4.611
76.88000 1.766
76.90000 -1.433
76.92000 0.576
76.94000 1.254
76.96000 2.749
76.98000 2.114
77.00000 0.494
77.02000 5.184
77.04000 6.301
77.06000 5.402
77.08000 -0.142
77.10000 3.695
77.12000 6.439
77.14000 3.329
77.16000 1.374
77.18000 1.805
77.20000 0.981
77.22000 0.500
77.24000 3.168
77.26000 1.920
77.28000 -2.171
77.30000 -0.028
77.32000 9.199
77.34000 8.595
77.36000 7.912
77.38000 4.473
77.40000 0.214
77.42000 3.595
77.44000 1.428
77.46000 1.828
77.48000 4.636
77.50000 4.386
77.52000 2.600
77.54000 0.787
77.56000 2.934
77.58000 4.584
77.60000 0.234
77.62000 4.205
77.64000 5.699
77.66000 1.579
77.68000 5.197
77.70000 6.927
77.72000 0.567
77.74000 2.315
77.76000 -2.028
77.78000 1.099
77.80000 1.608
77.82000 2.579
77.84000 -2.428
77.86000 3.715
77.88000 0.237
77.90000 5.265
77.92000 3.842
77.94000 1.892
77.96000 3.554
77.98000 1.365
78.00000 2.002
78.02000 7.891
78.04000 2.278
78.06000 4.669
78.08000 2.030
78.10000 1.986
78.12000 -0.636
78.14000 5.458
78.16000 4.130
78.18000 -0.028
78.20000 -1.397
78.22000 3.181
78.24000 1.542
78.26000 0.089
78.28000 -2.429
78.30000 1.991
78.32000 4.338
78.34000 3.089
78.36000 1.239
78.38000 0.619
78.40000 1.139
78.42000 -0.653
78.44000 0.312
78.46000 5.651
78.48000 2.068
78.50000 -1.982
78.52000 1.672
78.54000 8.918
78.56000 7.177
78.58000 1.715
78.60000 3.021
78.62000 0.855
78.64000 4.507
78.66000 8.858
78.68000 3.826
78.70000 0.435
78.72000 -1.815
78.74000 3.703
78.76000 2.602
78.78000 3.128
78.80000 -0.594
78.82000 -1.724
78.84000 -0.271
78.86000 0.397
78.88000 -0.282
78.90000 3.449
78.92000 3.620
78.94000 4.177
78.96000 3.703
78.98000 8.309
79.00000 9.173
79.02000 1.247
79.04000 -2.441
79.06000 2.507
79.08000 6.350
79.10000 3.024
79.12000 -0.570
79.14000 2.499
79.16000 -1.781
79.18000 5.602
79.20000 2.031
79.22000 4.779
79.24000 4.920
79.26000 3.944
79.28000 2.716
79.30000 1.169
79.32000 -2.444
79.34000 1.660
79.36000 3.928
79.38000 1.288
79.40000 2.696
79.42000 0.000
79.44000 2.587
79.46000 3.492
79.48000 5.656
79.50000 3.431
79.52000 4.117
79.54000 5.963
79.56000 1.365
79.58000 -1.331
79.60000 -1.312
79.62000 -1.236
79.64000 -1.085
79.66000 4.925
79.68000 2.220
79.70000 3.328
79.72000 0.537
79.74000 0.871
79.76000 5.860
79.78000 3.790
79.80000 5.191
79.82000 1.372
79.84000 1.387
79.86000 0.915
79.88000 2.875
79.90000 6.971
79.92000 2.047
79.94000 6.793
79.96000 1.225
79.98000 3.180
80.00000 0.315
80.02000 1.110
80.04000 0.666
80.06000 -1.667
80.08000 0.739
80.10000 -2.478
80.12000 -1.152
80.14000 0.742
80.16000 3.026
80.18000 -0.076
80.20000 3.312
80.22000 2.784
80.24000 2.582
80.26000 2.423
80.28000 0.038
80.30000 -0.394
80.32000 -1.174
80.34000 0.833
80.36000 1.939
80.38000 2.870
80.40000 0.992
80.42000 2.175
80.44000 4.366
80.46000 0.568
80.48000 1.460
80.50000 -2.107
80.52000 -2.495
80.54000 -0.701
80.56000 1.802
80.58000 2.180
80.60000 0.154
80.62000 -2.498
80.64000 4.424
80.66000 3.052
80.68000 1.125
80.70000 2.929
80.72000 1.474
80.74000 -2.098
80.76000 0.115
80.78000 -1.390
80.80000 -2.408
80.82000 2.226
80.84000 3.991
80.86000 7.145
80.88000 4.151
80.90000 0.728
80.92000 5.059
80.94000 1.781
80.96000 2.394
80.98000 5.364
81.00000 7.355
81.02000 6.912
81.04000 -0.662
81.06000 0.825
81.08000 4.361
81.10000 0.115
81.12000 0.503
81.14000 4.693
81.16000 3.466
81.18000 1.886
81.20000 1.199
81.22000 3.554
81.24000 2.405
81.26000 6.085
81.28000 8.323
81.30000 5.351
81.32000 5.781
81.34000 6.153
81.36000 2.856
81.38000 -0.689
81.40000 -0.078
81.42000 1.128
81.44000 -2.446
81.46000 0.425
81.48000 4.211
81.50000 1.283
81.52000 3.359
81.54000 5.629
81.56000 1.519
81.58000 -1.685
81.60000 -1.892
81.62000 1.639
81.64000 2.194
81.66000 3.169
81.68000 4.959
81.70000 2.386
81.72000 2.401
81.74000 3.710
81.76000 4.293
81.78000 3.353
81.80000 1.727
81.82000 1.299
81.84000 -2.504
81.86000 4.065
81.88000 3.877
81.90000 6.668
81.92000 6.779
81.94000 3.644
81.96000 1.562
81.98000 5.912
82.00000 14.472
82.02000 10.819
82.04000 16.508
82.06000 10.788
82.08000 7.349
82.10000 4.674
82.12000 6.261
82.14000 6.548
82.16000 5.970
82.18000 4.832
82.20000 4.206
82.22000 4.974
82.24000 7.561
82.26000 0.993
82.28000 4.967
82.30000 8.795
82.32000 9.038
82.34000 6.076
82.36000 4.087
82.38000 0.930
82.40000 6.303
82.42000 6.658
82.44000 11.556
82.46000 9.822
82.48000 9.308
82.50000 9.911
82.52000 9.754
82.54000 9.068
82.56000 7.982
82.58000 6.212
82.60000 2.343
82.62000 4.828
82.64000 8.422
82.66000 7.761
82.68000 11.989
82.70000 9.095
82.72000 8.368
82.74000 12.741
82.76000 14.517
82.78000 15.396
82.80000 16.298
82.82000 13.518
82.84000 12.580
82.86000 11.563
82.88000 7.029
82.90000 5.289
82.92000 5.510
82.94000 6.151
82.96000 13.342
82.98000 17.381
83.00000 12.402
83.02000 13.567
83.04000 17.002
83.06000 17.882
83.08000 12.164
83.10000 14.040
83.12000 13.904
83.14000 12.676
83.16000 15.079
83.18000 19.832
83.20000 19.435
83.22000 16.932
83.24000 23.350
83.26000 19.491
83.28000 18.961
83.30000 17.507
83.32000 18.833
83.34000 23.593
83.36000 23.955
83.38000 19.061
83.40000 22.499
83.42000 26.049
83.44000 25.004
83.46000 23.165
83.48000 27.070
83.50000 24.035
83.52000 26.454
83.54000 28.055
83.56000 32.566
83.58000 30.806
83.60000 25.278
83.62000 28.716
83.64000 28.887
83.66000 24.867
83.68000 25.705
83.70000 24.133
83.72000 27.015
83.74000 27.327
83.76000 27.622
83.78000 26.837
83.80000 18.122
83.82000 25.537
83.84000 34.662
83.86000 32.638
83.88000 27.210
83.90000 28.108
83.92000 28.813
83.94000 20.492
83.96000 23.708
83.98000 26.819
84.00000 27.038
84.02000 21.515
84.04000 18.871
84.06000 28.685
84.08000 28.580
84.10000 27.213
84.12000 26.460
84.14000 22.480
84.16000 20.501
84.18000 23.230
84.20000 17.820
84.22000 22.285
84.24000 21.236
84.26000 16.222
84.28000 18.484
84.30000 18.042
84.32000 18.887
84.34000 16.082
84.36000 14.007
84.38000 19.866
84.40000 19.612
84.42000 19.592
84.44000 16.283
84.46000 10.642
84.48000 13.640
84.50000 11.937
84.52000 13.658
84.54000 10.208
84.56000 17.083
84.58000 18.342
84.60000 16.019
84.62000 16.859
84.64000 15.482
84.66000 13.466
84.68000 9.923
84.70000 9.443
84.72000 12.787
84.74000 13.717
84.76000 4.246
84.78000 3.136
84.80000 11.008
84.82000 9.872
84.84000 7.497
84.86000 9.360
84.88000 12.335
84.90000 10.822
84.92000 5.104
84.94000 4.050
84.96000 4.840
84.98000 3.829
85.00000 3.317
85.02000 4.165
85.04000 9.496
85.06000 10.163
85.08000 7.199
85.10000 2.074
85.12000 -2.525
85.14000 0.969
85.16000 4.310
85.18000 8.758
85.20000 13.400
85.22000 7.217
85.24000 7.933
85.26000 8.186
85.28000 6.015
85.30000 8.768
85.32000 7.574
85.34000 6.534
85.36000 6.732
85.38000 4.193
85.40000 7.113
85.42000 1.948
85.44000 1.032
85.46000 -1.120
85.48000 0.921
85.50000 4.151
85.52000 2.851
85.54000 2.693
85.56000 -0.750
85.58000 0.991
85.60000 4.686
85.62000 0.743
85.64000 -0.984
85.66000 -1.564
85.68000 1.758
85.70000 7.554
85.72000 8.842
85.74000 4.596
85.76000 5.256
85.78000 1.950
85.80000 2.140
85.82000 3.367
85.84000 6.084
85.86000 1.831
85.88000 2.840
85.90000 7.039
85.92000 7.079
85.94000 1.112
85.96000 0.716
85.98000 0.813
86.00000 1.122
86.02000 2.946
86.04000 6.015
86.06000 6.867
86.08000 1.927
86.10000 4.192
86.12000 2.245
86.14000 3.154
86.16000 3.805
86.18000 4.749
86.20000 1.052
86.22000 0.003
86.24000 1.269
86.26000 5.327
86.28000 1.630
86.30000 3.169
86.32000 3.482
86.34000 0.943
86.36000 -2.422
86.38000 1.404
86.40000 6.176
86.42000 4.334
86.44000 7.946
86.46000 9.090
86.48000 9.049
86.50000 6.135
86.52000 5.574
86.54000 3.652
86.56000 3.909
86.58000 2.708
86.60000 2.648
86.62000 5.605
86.64000 1.677
86.66000 5.909
86.68000 11.039
86.70000 8.756
86.72000 8.445
86.74000 5.610
86.76000 2.023
86.78000 -0.115
86.80000 5.026
86.82000 9.585
86.84000 7.516
86.86000 9.451
86.88000 7.564
86.90000 6.218
86.92000 4.885
86.94000 6.519
86.96000 8.625
86.98000 7.952
87.00000 5.620
87.02000 9.449
87.04000 5.333
87.06000 4.098
87.08000 10.827
87.10000 14.723
87.12000 15.243
87.14000 12.118
87.16000 12.574
87.18000 9.399
87.20000 6.107
87.22000 7.559
87.24000 5.565
87.26000 8.311
87.28000 8.983
87.30000 8.214
87.32000 6.664
87.34000 5.849
87.36000 6.984
87.38000 6.519
87.40000 5.753
87.42000 3.957
87.44000 6.895
87.46000 6.346
87.48000 13.598
87.50000 11.204
87.52000 10.173
87.54000 12.630
87.56000 10.706
87.58000 6.561
87.60000 10.992
87.62000 12.856
87.64000 18.469
87.66000 19.608
87.68000 17.166
87.70000 15.445
87.72000 16.697
87.74000 11.772
87.76000 11.936
87.78000 16.763
87.80000 14.585
87.82000 17.977
87.84000 17.292
87.86000 18.871
87.88000 12.299
87.90000 12.198
87.92000 15.380
87.94000 20.262
87.96000 23.997
87.98000 23.899
88.00000 20.179
88.02000 23.677
88.04000 24.907
88.06000 23.848
88.08000 21.900
88.10000 19.209
88.12000 16.999
88.14000 21.485
88.16000 25.040
88.18000 25.804
88.20000 16.250
88.22000 17.888
88.24000 21.407
88.26000 32.085
88.28000 30.074
88.30000 25.864
88.32000 17.822
88.34000 22.200
88.36000 30.612
88.38000 26.118
88.40000 28.015
88.42000 27.139
88.44000 30.039
88.46000 26.108
88.48000 26.629
88.50000 22.054
88.52000 24.113
88.54000 27.722
88.56000 29.920
88.58000 28.950
88.60000 25.566
88.62000 21.047
88.64000 26.734
88.66000 26.087
88.68000 23.291
88.70000 24.717
88.72000 22.519
88.74000 26.868
88.76000 22.800
88.78000 22.445
88.80000 23.263
88.82000 24.035
88.84000 29.969
88.86000 20.874
88.88000 20.061
88.90000 19.914
88.92000 22.128
88.94000 24.860
88.96000 18.939
88.98000 19.807
89.00000 18.976
89.02000 19.510
89.04000 19.144
89.06000 18.599
89.08000 18.647
89.10000 11.428
89.12000 16.000
89.14000 15.643
89.16000 11.094
89.18000 11.423
89.20000 11.292
89.22000 15.142
89.24000 16.247
89.26000 13.835
89.28000 12.044
89.30000 10.911
89.32000 16.756
89.34000 12.775
89.36000 9.262
89.38000 9.922
89.40000 14.341
89.42000 11.014
89.44000 7.460
89.46000 6.306
89.48000 4.385
89.50000 5.399
89.52000 3.404
89.54000 3.259
89.56000 9.153
89.58000 7.774
89.60000 7.336
89.62000 8.394
89.64000 9.332
89.66000 9.397
89.68000 5.944
89.70000 2.781
89.72000 1.658
89.74000 2.036
89.76000 1.430
89.78000 5.613
89.80000 8.472
89.82000 1.814
89.84000 4.946
89.86000 2.177
89.88000 6.079
89.90000 6.432
89.92000 6.434
89.94000 1.881
89.96000 1.540
89.98000 3.504
90.00000 3.591
90.02000 2.322
90.04000 1.756
90.06000 4.254
90.08000 6.011
90.10000 0.962
90.12000 -0.025
90.14000 -0.629
90.16000 0.951
90.18000 6.696
90.20000 9.746
90.22000 7.830
90.24000 3.078
90.26000 1.608
90.28000 7.331
90.30000 2.570
90.32000 1.659
90.34000 5.291
90.36000 1.576
90.38000 4.872
90.40000 4.728
90.42000 -0.779
90.44000 2.573
90.46000 0.628
90.48000 -2.347
90.50000 0.303
90.52000 4.623
90.54000 3.664
90.56000 5.143
90.58000 3.021
90.60000 0.782
90.62000 3.407
90.64000 1.751
90.66000 7.200
90.68000 6.244
90.70000 5.261
90.72000 6.720
90.74000 6.803
90.76000 4.024
90.78000 -2.326
90.80000 -1.717
90.82000 4.955
90.84000 10.720
90.86000 6.531
90.88000 3.027
90.90000 4.172
90.92000 2.347
90.94000 2.670
90.96000 5.624
90.98000 0.103
91.00000 2.694
91.02000 4.437
91.04000 6.705
91.06000 4.272
91.08000 -0.044
91.10000 0.228
91.12000 4.091
91.14000 4.214
91.16000 6.591
91.18000 2.759
91.20000 2.489
91.22000 5.445
91.24000 0.457
91.26000 -2.046
91.28000 1.414
91.30000 2.192
91.32000 2.210
91.34000 4.508
91.36000 2.622
91.38000 4.883
91.40000 6.607
91.42000 4.680
91.44000 5.030
91.46000 6.086
91.48000 4.640
91.50000 4.297
91.52000 1.639
91.54000 5.181
91.56000 1.652
91.58000 -2.079
91.60000 -0.817
91.62000 -1.712
91.64000 5.747
91.66000 4.308
91.68000 3.630
91.70000 6.864
91.72000 3.633
91.74000 1.206
91.76000 5.484
91.78000 5.462
91.80000 2.043
91.82000 4.765
91.84000 1.277
91.86000 1.167
91.88000 0.007
91.90000 2.017
91.92000 2.787
91.94000 -1.381
91.96000 3.133
91.98000 7.817
92.00000 1.061
92.02000 -1.648
92.04000 -0.571
92.06000 0.886
92.08000 -0.982
92.10000 0.523
92.12000 -0.179
92.14000 4.396
92.16000 5.708
92.18000 3.697
92.20000 2.754
92.22000 12.434
92.24000 7.149
92.26000 1.938
92.28000 -0.412
92.30000 -2.267
92.32000 4.132
92.34000 4.153
92.36000 6.229
92.38000 6.020
92.40000 6.890
92.42000 6.116
92.44000 0.199
92.46000 4.635
92.48000 6.860
92.50000 9.794
92.52000 11.773
92.54000 11.908
92.56000 8.971
92.58000 8.775
92.60000 8.727
92.62000 4.369
92.64000 0.948
92.66000 -1.666
92.68000 5.294
92.70000 7.438
92.72000 7.346
92.74000 8.338
92.76000 2.812
92.78000 4.453
92.80000 5.408
92.82000 7.909
92.84000 5.406
92.86000 -2.228
92.88000 5.340
92.90000 8.408
92.92000 5.569
92.94000 6.368
92.96000 5.963
92.98000 7.659
93.00000 6.994
93.02000 13.251
93.04000 10.241
93.06000 9.977
93.08000 8.771
93.10000 3.282
93.12000 5.080
93.14000 6.115
93.16000 9.642
93.18000 7.918
93.20000 6.452
93.22000 5.911
93.24000 7.386
93.26000 5.712
93.28000 3.496
93.30000 3.896
93.32000 2.462
93.34000 4.047
93.36000 2.409
93.38000 4.095
93.40000 5.583
93.42000 3.777
93.44000 7.965
93.46000 10.901
93.48000 8.576
93.50000 3.352
93.52000 3.282
93.54000 5.927
93.56000 6.802
93.58000 2.243
93.60000 3.062
93.62000 8.058
93.64000 7.593
93.66000 8.452
93.68000 2.803
93.70000 7.124
93.72000 2.195
93.74000 1.528
93.76000 2.065
93.78000 2.797
93.80000 5.096
93.82000 8.337
93.84000 2.612
93.86000 2.587
93.88000 -1.907
93.90000 2.662
93.92000 4.426
93.94000 10.557
93.96000 2.853
93.98000 3.866
94.00000 1.377
94.02000 0.601
94.04000 3.664
94.06000 3.727
94.08000 2.608
94.10000 2.958
94.12000 6.846
94.14000 4.113
94.16000 -2.287
94.18000 2.683
94.20000 5.138
94.22000 3.907
94.24000 5.955
94.26000 5.459
94.28000 6.451
94.30000 6.710
94.32000 3.944
94.34000 6.165
94.36000 9.593
94.38000 10.461
94.40000 6.676
94.42000 3.301
94.44000 3.036
94.46000 7.109
94.48000 3.536
94.50000 -1.043
94.52000 -0.526
94.54000 1.373
94.56000 0.961
94.58000 -0.241
94.60000 -0.887
94.62000 3.101
94.64000 1.063
94.66000 6.264
94.68000 0.544
94.70000 4.219
94.72000 9.688
94.74000 4.656
94.76000 3.008
94.78000 7.473
94.80000 5.705
94.82000 11.449
94.84000 10.223
94.86000 7.379
94.88000 0.155
94.90000 4.597
94.92000 5.145
94.94000 0.797
94.96000 -1.187
94.98000 3.829
95.00000 4.467
95.02000 5.243
95.04000 7.663
95.06000 6.525
95.08000 2.368
95.10000 1.096
95.12000 3.782
95.14000 8.793
95.16000 10.165
95.18000 4.045
95.20000 -2.110
95.22000 1.503
95.24000 3.993
95.26000 4.965
95.28000 3.915
95.30000 6.833
95.32000 9.277
95.34000 7.006
95.36000 10.338
95.38000 7.507
95.40000 2.730
95.42000 2.687
95.44000 9.810
95.46000 11.474
95.48000 10.533
95.50000 8.462
95.52000 11.404
95.54000 9.689
95.56000 7.924
95.58000 8.484
95.60000 10.123
95.62000 3.775
95.64000 -2.246
95.66000 1.347
95.68000 5.104
95.70000 9.355
95.72000 11.220
95.74000 5.589
95.76000 9.964
95.78000 12.219
95.80000 6.530
95.82000 -1.892
95.84000 3.437
95.86000 5.673
95.88000 1.620
95.90000 6.202
95.92000 12.008
95.94000 9.079
95.96000 5.172
95.98000 -0.226
96.00000 4.914
96.02000 2.922
96.04000 2.482
96.06000 -1.417
96.08000 3.591
96.10000 2.088
96.12000 1.491
96.14000 3.700
96.16000 6.695
96.18000 7.108
96.20000 13.472
96.22000 4.946
96.24000 9.389
96.26000 2.615
96.28000 8.000
96.30000 9.830
96.32000 5.617
96.34000 3.642
96.36000 1.114
96.38000 0.624
96.40000 2.157
96.42000 4.366
96.44000 4.883
96.46000 2.161
96.48000 -0.640
96.50000 -0.755
96.52000 2.589
96.54000 4.629
96.56000 5.811
96.58000 6.046
96.60000 5.405
96.62000 1.443
96.64000 -1.404
96.66000 0.959
96.68000 1.803
96.70000 4.990
96.72000 4.562
96.74000 7.241
96.76000 8.308
96.78000 3.726
96.80000 8.646
96.82000 10.141
96.84000 5.547
96.86000 4.116
96.88000 7.082
96.90000 10.373
96.92000 7.135
96.94000 11.852
96.96000 12.120
96.98000 2.852
97.00000 3.567
97.02000 6.225
97.04000 9.045
97.06000 9.493
97.08000 8.019
97.10000 5.312
97.12000 5.440
97.14000 3.759
97.16000 5.990
97.18000 11.476
97.20000 6.765
97.22000 0.655
97.24000 5.525
97.26000 8.915
97.28000 10.578
97.30000 7.838
97.32000 5.114
97.34000 7.399
97.36000 12.826
97.38000 12.167
97.40000 7.145
97.42000 10.481
97.44000 8.747
97.46000 8.570
97.48000 5.685
97.50000 6.994
97.52000 5.221
97.54000 -3.231
97.56000 6.206
97.58000 0.828
97.60000 6.766
97.62000 11.389
97.64000 4.595
97.66000 3.907
97.68000 6.287
97.70000 10.486
97.72000 8.759
97.74000 7.640
97.76000 10.903
97.78000 6.077
97.80000 7.802
97.82000 8.886
97.84000 -0.489
97.86000 2.887
97.88000 5.038
97.90000 7.609
97.92000 2.018
97.94000 4.805
97.96000 2.411
97.98000 2.885
98.00000 3.563
98.02000 9.567
98.04000 6.023
98.06000 -1.912
98.08000 2.456
98.10000 3.932
98.12000 4.427
98.14000 6.711
98.16000 9.165
98.18000 4.688
98.20000 1.020
98.22000 -1.023
98.24000 2.221
98.26000 2.176
98.28000 -2.211
98.30000 0.550
98.32000 2.528
98.34000 3.647
98.36000 12.852
98.38000 12.342
98.40000 10.217
98.42000 5.007
98.44000 8.027
98.46000 -5.445
98.48000 5.771
98.50000 3.779
98.52000 2.213
98.54000 8.470
98.56000 13.623
98.58000 8.096
98.60000 4.189
98.62000 1.150
98.64000 5.055
98.66000 9.379
98.68000 4.286
98.70000 7.362
98.72000 15.039
98.74000 9.174
98.76000 15.303
98.78000 13.917
98.80000 6.417
98.82000 12.558
98.84000 8.735
98.86000 0.777
98.88000 0.183
98.90000 7.912
98.92000 10.948
98.94000 9.825
98.96000 13.510
98.98000 9.609
99.00000 8.301
99.02000 0.081
99.04000 5.432
99.06000 14.018
99.08000 14.427
99.10000 9.392
99.12000 -1.274
99.14000 -0.264
99.16000 -2.174
99.18000 6.864
99.20000 15.809
99.22000 11.575
99.24000 14.056
99.26000 2.623
99.28000 1.143
99.30000 8.242
99.32000 18.835
99.34000 7.146
99.36000 5.546
99.38000 10.602
99.40000 14.997
99.42000 6.977
99.44000 -1.747
99.46000 2.976
99.48000 2.986
99.50000 8.905
99.52000 14.628
99.54000 16.841
99.56000 10.329
99.58000 4.951
99.60000 3.391
99.62000 6.291
99.64000 3.119
99.66000 12.463
99.68000 9.360
99.70000 1.885
99.72000 5.357
99.74000 7.070
99.76000 6.162
99.78000 2.784
99.80000 3.492
99.82000 -1.624
99.84000 -2.277
99.86000 0.903
99.88000 0.207
99.90000 2.672
99.92000 0.031
99.94000 0.744
99.96000 14.109
99.98000 0.000
