'Id: "0011387" Comment: "Integrate frame 0011387_Au-Ir-Rh_Rh-rich_XRD-Mapping-270-0000.gfrmwith cursor Wedge Cursor #5" Operator: "B?rgel" Anode: "Cu" Wavelength: "1.5406" Scantype: "2Theta (TwoTheta)" TimePerStep: "1" X: "4.5" Y: "22.5" Z: "5.95" 
10.00000 0.000
10.02000 -4.138
10.04000 -4.059
10.06000 6.603
10.08000 1.425
10.10000 14.067
10.12000 27.452
10.14000 18.756
10.16000 11.771
10.18000 16.132
10.20000 13.999
10.22000 11.749
10.24000 8.436
10.26000 -1.302
10.28000 4.887
10.30000 18.372
10.32000 21.972
10.34000 13.434
10.36000 9.537
10.38000 6.887
10.40000 16.330
10.42000 21.516
10.44000 22.317
10.46000 19.376
10.48000 9.063
10.50000 12.526
10.52000 15.378
10.54000 15.092
10.56000 29.764
10.58000 18.684
10.60000 0.282
10.62000 21.541
10.64000 27.384
10.66000 20.750
10.68000 14.200
10.70000 7.476
10.72000 0.329
10.74000 1.017
10.76000 9.116
10.78000 22.468
10.80000 18.434
10.82000 17.736
10.84000 3.281
10.86000 0.393
10.88000 12.714
10.90000 19.479
10.92000 18.218
10.94000 9.987
10.96000 14.524
10.98000 13.583
11.00000 14.890
11.02000 14.038
11.04000 14.171
11.06000 13.425
11.08000 20.057
11.10000 24.713
11.12000 18.303
11.14000 5.794
11.16000 10.512
11.18000 13.859
11.20000 16.385
11.22000 21.366
11.24000 14.898
11.26000 21.475
11.28000 15.070
11.30000 10.319
11.32000 10.934
11.34000 5.252
11.36000 11.402
11.38000 22.578
11.40000 20.852
11.42000 19.438
11.44000 18.464
11.46000 19.559
11.48000 15.991
11.50000 16.352
11.52000 16.150
11.54000 15.579
11.56000 8.605
11.58000 9.394
11.60000 9.344
11.62000 22.426
11.64000 10.748
11.66000 7.102
11.68000 14.689
11.70000 12.171
11.72000 12.843
11.74000 26.062
11.76000 17.123
11.78000 13.923
11.80000 23.080
11.82000 11.180
11.84000 7.981
11.86000 8.858
11.88000 13.072
11.90000 1.647
11.92000 7.179
11.94000 15.226
11.96000 8.784
11.98000 19.963
12.00000 9.742
12.02000 2.493
12.04000 5.437
12.06000 18.026
12.08000 18.405
12.10000 23.813
12.12000 16.393
12.14000 16.522
12.16000 26.904
12.18000 26.135
12.20000 13.197
12.22000 11.349
12.24000 26.502
12.26000 24.743
12.28000 14.444
12.30000 11.596
12.32000 22.194
12.34000 23.273
12.36000 9.872
12.38000 10.159
12.40000 10.751
12.42000 16.831
12.44000 17.576
12.46000 25.318
12.48000 27.782
12.50000 28.363
12.52000 18.921
12.54000 14.835
12.56000 10.082
12.58000 18.195
12.60000 18.955
12.62000 16.764
12.64000 14.624
12.66000 11.411
12.68000 14.990
12.70000 21.572
12.72000 20.022
12.74000 13.286
12.76000 7.268
12.78000 10.419
12.80000 12.965
12.82000 17.841
12.84000 25.331
12.86000 26.135
12.88000 19.662
12.90000 16.860
12.92000 12.348
12.94000 4.169
12.96000 11.843
12.98000 19.861
13.00000 15.715
13.02000 15.238
13.04000 16.626
13.06000 23.569
13.08000 16.241
13.10000 8.624
13.12000 4.761
13.14000 4.186
13.16000 7.723
13.18000 16.999
13.20000 16.284
13.22000 9.599
13.24000 -1.234
13.26000 -2.925
13.28000 13.399
13.30000 15.726
13.32000 17.912
13.34000 21.884
13.36000 19.682
13.38000 14.308
13.40000 8.155
13.42000 13.476
13.44000 18.505
13.46000 8.487
13.48000 10.886
13.50000 11.524
13.52000 5.800
13.54000 18.298
13.56000 20.010
13.58000 22.709
13.60000 19.342
13.62000 7.027
13.64000 7.181
13.66000 8.678
13.68000 21.639
13.70000 26.375
13.72000 18.655
13.74000 3.041
13.76000 11.904
13.78000 19.708
13.80000 13.282
13.82000 13.362
13.84000 10.133
13.86000 13.000
13.88000 8.251
13.90000 7.288
13.92000 15.179
13.94000 12.343
13.96000 9.327
13.98000 4.293
14.00000 4.053
14.02000 7.534
14.04000 3.445
14.06000 6.375
14.08000 14.039
14.10000 18.525
14.12000 20.513
14.14000 21.133
14.16000 8.840
14.18000 1.625
14.20000 16.906
14.22000 13.277
14.24000 10.215
14.26000 11.055
14.28000 13.450
14.30000 7.316
14.32000 11.357
14.34000 6.634
14.36000 17.310
14.38000 18.174
14.40000 19.586
14.42000 12.666
14.44000 -0.586
14.46000 -0.079
14.48000 2.038
14.50000 11.423
14.52000 12.930
14.54000 8.304
14.56000 -3.982
14.58000 8.376
14.60000 9.267
14.62000 16.304
14.64000 8.601
14.66000 12.009
14.68000 10.258
14.70000 10.818
14.72000 9.456
14.74000 1.433
14.76000 2.598
14.78000 10.595
14.80000 6.187
14.82000 4.911
14.84000 8.314
14.86000 9.290
14.88000 6.221
14.90000 4.270
14.92000 13.162
14.94000 16.692
14.96000 8.763
14.98000 4.235
15.00000 1.829
15.02000 3.244
15.04000 2.660
15.06000 8.160
15.08000 16.093
15.10000 15.648
15.12000 13.918
15.14000 1.419
15.16000 5.406
15.18000 9.298
15.20000 11.207
15.22000 16.795
15.24000 14.955
15.26000 9.695
15.28000 7.016
15.30000 6.610
15.32000 2.440
15.34000 3.116
15.36000 14.820
15.38000 13.469
15.40000 7.170
15.42000 9.648
15.44000 18.273
15.46000 8.487
15.48000 3.672
15.50000 10.929
15.52000 13.239
15.54000 12.760
15.56000 8.021
15.58000 9.877
15.60000 9.640
15.62000 6.599
15.64000 1.135
15.66000 2.908
15.68000 8.496
15.70000 4.197
15.72000 4.385
15.74000 9.306
15.76000 1.991
15.78000 4.885
15.80000 5.848
15.82000 4.517
15.84000 5.095
15.86000 17.027
15.88000 15.099
15.90000 12.898
15.92000 9.905
15.94000 5.656
15.96000 11.054
15.98000 10.873
16.00000 2.847
16.02000 5.909
16.04000 3.699
16.06000 6.104
16.08000 7.377
16.10000 -4.417
16.12000 -3.186
16.14000 12.509
16.16000 13.435
16.18000 8.280
16.20000 8.691
16.22000 11.804
16.24000 12.410
16.26000 5.046
16.28000 2.959
16.30000 13.455
16.32000 15.309
16.34000 5.919
16.36000 6.509
16.38000 13.309
16.40000 15.036
16.42000 9.040
16.44000 16.537
16.46000 17.826
16.48000 15.026
16.50000 10.655
16.52000 13.919
16.54000 14.160
16.56000 5.644
16.58000 5.551
16.60000 7.683
16.62000 9.684
16.64000 5.986
16.66000 3.750
16.68000 0.481
16.70000 -0.403
16.72000 5.370
16.74000 12.381
16.76000 -1.717
16.78000 -3.977
16.80000 11.344
16.82000 11.219
16.84000 11.769
16.86000 8.521
16.88000 8.275
16.90000 6.232
16.92000 7.054
16.94000 12.441
16.96000 8.906
16.98000 7.841
17.00000 6.529
17.02000 7.235
17.04000 6.007
17.06000 3.619
17.08000 2.400
17.10000 7.985
17.12000 7.319
17.14000 8.590
17.16000 14.676
17.18000 11.755
17.20000 4.796
17.22000 -0.998
17.24000 3.794
17.26000 2.716
17.28000 -4.400
17.30000 -1.774
17.32000 2.675
17.34000 7.894
17.36000 10.605
17.38000 4.544
17.40000 7.417
17.42000 7.002
17.44000 6.483
17.46000 1.547
17.48000 -0.777
17.50000 4.773
17.52000 8.474
17.54000 3.404
17.56000 2.323
17.58000 7.281
17.60000 2.829
17.62000 3.525
17.64000 6.706
17.66000 7.558
17.68000 1.238
17.70000 3.747
17.72000 6.762
17.74000 7.293
17.76000 9.126
17.78000 5.451
17.80000 2.384
17.82000 2.495
17.84000 9.410
17.86000 7.867
17.88000 7.685
17.90000 6.774
17.92000 0.867
17.94000 0.600
17.96000 11.522
17.98000 2.031
18.00000 3.246
18.02000 4.601
18.04000 -3.316
18.06000 1.196
18.08000 4.083
18.10000 8.870
18.12000 7.024
18.14000 13.400
18.16000 5.290
18.18000 7.773
18.20000 1.423
18.22000 8.653
18.24000 5.843
18.26000 4.117
18.28000 4.033
18.30000 4.800
18.32000 3.022
18.34000 9.201
18.36000 8.211
18.38000 8.809
18.40000 5.547
18.42000 4.320
18.44000 -0.717
18.46000 6.682
18.48000 7.261
18.50000 8.054
18.52000 4.977
18.54000 4.714
18.56000 6.970
18.58000 2.373
18.60000 -3.047
18.62000 5.090
18.64000 2.050
18.66000 6.448
18.68000 7.601
18.70000 12.354
18.72000 6.112
18.74000 2.545
18.76000 1.146
18.78000 5.641
18.80000 8.668
18.82000 11.146
18.84000 3.993
18.86000 4.078
18.88000 8.051
18.90000 3.118
18.92000 -4.296
18.94000 -4.103
18.96000 0.556
18.98000 4.996
19.00000 7.927
19.02000 6.763
19.04000 5.572
19.06000 -0.489
19.08000 6.124
19.10000 6.561
19.12000 4.998
19.14000 0.887
19.16000 -0.401
19.18000 3.954
19.20000 6.055
19.22000 5.435
19.24000 2.786
19.26000 -2.743
19.28000 -2.487
19.30000 0.065
19.32000 5.347
19.34000 9.874
19.36000 8.494
19.38000 4.547
19.40000 2.863
19.42000 -1.974
19.44000 -2.303
19.46000 -0.233
19.48000 0.236
19.50000 0.060
19.52000 -3.804
19.54000 0.676
19.56000 3.123
19.58000 -1.765
19.60000 -1.434
19.62000 3.958
19.64000 5.343
19.66000 4.899
19.68000 0.955
19.70000 -2.399
19.72000 4.044
19.74000 8.795
19.76000 8.834
19.78000 4.983
19.80000 -2.958
19.82000 2.581
19.84000 -1.156
19.86000 0.948
19.88000 -4.264
19.90000 -3.817
19.92000 -0.884
19.94000 5.598
19.96000 0.700
19.98000 -0.417
20.00000 1.998
20.02000 -1.717
20.04000 4.150
20.06000 5.020
20.08000 3.711
20.10000 5.951
20.12000 3.373
20.14000 3.545
20.16000 -0.511
20.18000 3.723
20.20000 9.646
20.22000 0.295
20.24000 2.364
20.26000 6.346
20.28000 7.683
20.30000 1.032
20.32000 4.040
20.34000 1.724
20.36000 3.847
20.38000 8.979
20.40000 11.385
20.42000 3.755
20.44000 -3.819
20.46000 6.149
20.48000 6.585
20.50000 3.384
20.52000 10.029
20.54000 4.873
20.56000 4.017
20.58000 1.914
20.60000 4.114
20.62000 6.428
20.64000 3.553
20.66000 7.573
20.68000 3.660
20.70000 -0.090
20.72000 2.742
20.74000 4.728
20.76000 1.481
20.78000 -2.977
20.80000 -3.361
20.82000 0.879
20.84000 0.929
20.86000 4.830
20.88000 11.138
20.90000 8.287
20.92000 3.959
20.94000 0.830
20.96000 -0.277
20.98000 -0.077
21.00000 1.859
21.02000 -0.612
21.04000 3.369
21.06000 5.723
21.08000 1.259
21.10000 5.558
21.12000 1.340
21.14000 2.823
21.16000 4.800
21.18000 6.311
21.20000 11.156
21.22000 5.055
21.24000 0.620
21.26000 -4.184
21.28000 -4.122
21.30000 -1.311
21.32000 6.360
21.34000 6.793
21.36000 0.531
21.38000 -4.173
21.40000 -0.653
21.42000 4.860
21.44000 5.766
21.46000 1.955
21.48000 8.101
21.50000 7.852
21.52000 6.643
21.54000 4.492
21.56000 -0.221
21.58000 6.931
21.60000 6.650
21.62000 3.388
21.64000 -1.266
21.66000 -3.661
21.68000 -0.526
21.70000 8.130
21.72000 9.175
21.74000 0.913
21.76000 4.034
21.78000 12.604
21.80000 6.115
21.82000 -4.148
21.84000 -0.426
21.86000 2.799
21.88000 9.074
21.90000 8.932
21.92000 6.979
21.94000 1.502
21.96000 -0.127
21.98000 4.615
22.00000 3.803
22.02000 1.450
22.04000 2.100
22.06000 1.752
22.08000 4.305
22.10000 3.597
22.12000 3.599
22.14000 4.918
22.16000 4.925
22.18000 3.177
22.20000 4.903
22.22000 8.330
22.24000 6.335
22.26000 1.956
22.28000 4.300
22.30000 4.352
22.32000 2.130
22.34000 -1.887
22.36000 -0.714
22.38000 6.141
22.40000 10.905
22.42000 4.735
22.44000 -0.612
22.46000 -2.544
22.48000 2.338
22.50000 8.800
22.52000 4.718
22.54000 1.995
22.56000 5.223
22.58000 0.133
22.60000 -4.088
22.62000 -0.195
22.64000 5.026
22.66000 1.133
22.68000 3.120
22.70000 -0.750
22.72000 6.969
22.74000 5.665
22.76000 3.464
22.78000 3.712
22.80000 6.768
22.82000 3.847
22.84000 4.884
22.86000 3.307
22.88000 1.686
22.90000 -2.877
22.92000 1.059
22.94000 -0.919
22.96000 0.137
22.98000 0.747
23.00000 3.719
23.02000 2.894
23.04000 -1.049
23.06000 -0.598
23.08000 3.796
23.10000 -0.585
23.12000 -2.106
23.14000 -1.083
23.16000 4.156
23.18000 -0.736
23.20000 -2.261
23.22000 -3.190
23.24000 3.269
23.26000 5.300
23.28000 -0.412
23.30000 8.048
23.32000 8.626
23.34000 1.907
23.36000 4.209
23.38000 1.691
23.40000 1.769
23.42000 4.989
23.44000 1.986
23.46000 1.413
23.48000 4.798
23.50000 5.443
23.52000 4.188
23.54000 -0.428
23.56000 -0.788
23.58000 3.574
23.60000 1.906
23.62000 -1.742
23.64000 1.783
23.66000 1.550
23.68000 0.949
23.70000 -0.880
23.72000 2.112
23.74000 3.567
23.76000 0.896
23.78000 0.744
23.80000 0.511
23.82000 2.686
23.84000 -1.140
23.86000 -4.033
23.88000 -4.031
23.90000 -1.760
23.92000 4.754
23.94000 7.756
23.96000 3.369
23.98000 4.798
24.00000 6.392
24.02000 0.824
24.04000 -0.183
24.06000 -2.471
24.08000 0.154
24.10000 2.106
24.12000 0.996
24.14000 2.048
24.16000 7.010
24.18000 7.645
24.20000 2.628
24.22000 1.480
24.24000 7.408
24.26000 3.844
24.28000 -3.634
24.30000 1.023
24.32000 3.553
24.34000 4.775
24.36000 1.742
24.38000 2.205
24.40000 5.026
24.42000 3.291
24.44000 0.059
24.46000 1.633
24.48000 -0.801
24.50000 2.241
24.52000 -0.543
24.54000 1.439
24.56000 2.838
24.58000 4.927
24.60000 6.875
24.62000 0.349
24.64000 0.738
24.66000 3.605
24.68000 3.381
24.70000 3.788
24.72000 3.568
24.74000 2.200
24.76000 3.515
24.78000 2.100
24.80000 3.999
24.82000 6.553
24.84000 4.432
24.86000 1.325
24.88000 -1.048
24.90000 -3.994
24.92000 -2.573
24.94000 -2.618
24.96000 3.197
24.98000 2.303
25.00000 -1.084
25.02000 -1.555
25.04000 -0.748
25.06000 1.417
25.08000 -1.431
25.10000 -2.276
25.12000 1.411
25.14000 2.309
25.16000 3.247
25.18000 -1.995
25.20000 -3.376
25.22000 0.586
25.24000 7.141
25.26000 6.678
25.28000 3.396
25.30000 -0.890
25.32000 -0.217
25.34000 0.295
25.36000 1.649
25.38000 2.346
25.40000 5.176
25.42000 7.749
25.44000 5.319
25.46000 2.144
25.48000 2.146
25.50000 -2.573
25.52000 0.035
25.54000 2.322
25.56000 2.690
25.58000 4.931
25.60000 0.983
25.62000 -1.449
25.64000 -0.777
25.66000 -1.367
25.68000 1.415
25.70000 4.979
25.72000 6.256
25.74000 3.339
25.76000 1.389
25.78000 1.488
25.80000 -0.498
25.82000 -1.476
25.84000 -2.986
25.86000 1.126
25.88000 6.961
25.90000 3.422
25.92000 4.439
25.94000 4.711
25.96000 5.049
25.98000 0.843
26.00000 2.603
26.02000 -0.071
26.04000 5.854
26.06000 6.177
26.08000 3.830
26.10000 2.469
26.12000 4.126
26.14000 4.148
26.16000 -1.024
26.18000 -3.095
26.20000 -0.343
26.22000 0.991
26.24000 5.116
26.26000 5.275
26.28000 5.596
26.30000 0.620
26.32000 0.441
26.34000 3.617
26.36000 6.229
26.38000 1.438
26.40000 2.048
26.42000 -3.384
26.44000 -3.897
26.46000 4.086
26.48000 2.396
26.50000 0.118
26.52000 2.068
26.54000 4.661
26.56000 3.295
26.58000 -2.095
26.60000 -3.883
26.62000 0.872
26.64000 -1.278
26.66000 5.134
26.68000 6.613
26.70000 7.025
26.72000 3.237
26.74000 1.180
26.76000 1.765
26.78000 0.387
26.80000 0.681
26.82000 0.593
26.84000 -2.612
26.86000 4.331
26.88000 5.448
26.90000 5.675
26.92000 4.435
26.94000 2.115
26.96000 4.331
26.98000 3.868
27.00000 7.783
27.02000 9.982
27.04000 6.483
27.06000 5.362
27.08000 3.100
27.10000 0.401
27.12000 1.032
27.14000 5.745
27.16000 4.779
27.18000 0.006
27.20000 4.512
27.22000 -2.077
27.24000 -3.846
27.26000 -0.666
27.28000 0.684
27.30000 1.186
27.32000 0.550
27.34000 0.977
27.36000 8.806
27.38000 10.608
27.40000 8.290
27.42000 2.231
27.44000 -3.836
27.46000 -2.342
27.48000 4.056
27.50000 3.812
27.52000 0.879
27.54000 10.132
27.56000 5.715
27.58000 2.933
27.60000 1.691
27.62000 0.999
27.64000 2.252
27.66000 6.338
27.68000 6.152
27.70000 -3.743
27.72000 0.889
27.74000 1.808
27.76000 3.867
27.78000 7.924
27.80000 7.786
27.82000 -1.485
27.84000 0.735
27.86000 5.583
27.88000 4.712
27.90000 2.197
27.92000 4.860
27.94000 2.283
27.96000 3.439
27.98000 2.996
28.00000 0.737
28.02000 -0.228
28.04000 3.402
28.06000 3.616
28.08000 2.988
28.10000 -0.546
28.12000 0.333
28.14000 3.562
28.16000 5.380
28.18000 1.691
28.20000 9.146
28.22000 7.174
28.24000 4.779
28.26000 7.624
28.28000 -0.275
28.30000 -3.796
28.32000 -0.898
28.34000 0.469
28.36000 3.363
28.38000 3.435
28.40000 5.539
28.42000 9.245
28.44000 5.892
28.46000 3.161
28.48000 0.469
28.50000 1.783
28.52000 3.895
28.54000 2.668
28.56000 1.965
28.58000 2.797
28.60000 7.125
28.62000 4.937
28.64000 6.205
28.66000 0.818
28.68000 1.288
28.70000 1.897
28.72000 3.172
28.74000 1.941
28.76000 9.453
28.78000 8.468
28.80000 1.300
28.82000 -1.758
28.84000 -0.672
28.86000 2.619
28.88000 0.904
28.90000 1.304
28.92000 8.606
28.94000 1.949
28.96000 1.323
28.98000 4.695
29.00000 10.978
29.02000 9.875
29.04000 0.601
29.06000 -1.337
29.08000 1.554
29.10000 4.919
29.12000 4.952
29.14000 -3.740
29.16000 -0.799
29.18000 6.377
29.20000 6.213
29.22000 3.363
29.24000 5.220
29.26000 5.899
29.28000 1.617
29.30000 0.555
29.32000 6.607
29.34000 6.308
29.36000 0.956
29.38000 0.115
29.40000 3.361
29.42000 4.175
29.44000 0.661
29.46000 3.306
29.48000 6.413
29.50000 4.345
29.52000 7.829
29.54000 6.768
29.56000 4.668
29.58000 -0.802
29.60000 -1.250
29.62000 -3.034
29.64000 -0.450
29.66000 3.810
29.68000 8.518
29.70000 8.299
29.72000 6.391
29.74000 5.245
29.76000 5.385
29.78000 -0.106
29.80000 1.925
29.82000 3.559
29.84000 3.519
29.86000 -0.398
29.88000 -2.916
29.90000 -3.705
29.92000 6.079
29.94000 6.876
29.96000 2.905
29.98000 6.895
30.00000 6.683
30.02000 5.367
30.04000 -2.789
30.06000 -3.473
30.08000 -2.737
30.10000 3.688
30.12000 2.512
30.14000 1.150
30.16000 1.916
30.18000 4.025
30.20000 3.219
30.22000 7.273
30.24000 2.924
30.26000 -2.536
30.28000 1.125
30.30000 6.204
30.32000 4.458
30.34000 6.876
30.36000 7.110
30.38000 0.531
30.40000 -0.036
30.42000 1.208
30.44000 -0.792
30.46000 -1.113
30.48000 -2.319
30.50000 -2.806
30.52000 0.320
30.54000 4.270
30.56000 -0.736
30.58000 -2.375
30.60000 -0.313
30.62000 3.949
30.64000 4.837
30.66000 8.180
30.68000 1.018
30.70000 1.314
30.72000 2.910
30.74000 6.134
30.76000 -0.635
30.78000 2.553
30.80000 7.538
30.82000 6.065
30.84000 -1.721
30.86000 3.706
30.88000 4.713
30.90000 1.452
30.92000 -0.675
30.94000 -0.215
30.96000 -0.549
30.98000 -0.049
31.00000 -0.287
31.02000 2.149
31.04000 4.020
31.06000 7.945
31.08000 6.539
31.10000 4.937
31.12000 1.724
31.14000 0.227
31.16000 2.697
31.18000 1.736
31.20000 -1.391
31.22000 -0.217
31.24000 -0.211
31.26000 1.150
31.28000 5.240
31.30000 6.832
31.32000 10.878
31.34000 7.211
31.36000 4.144
31.38000 4.479
31.40000 -2.444
31.42000 1.133
31.44000 2.272
31.46000 4.666
31.48000 11.025
31.50000 5.704
31.52000 -3.622
31.54000 -1.252
31.56000 3.281
31.58000 -0.089
31.60000 -1.053
31.62000 5.106
31.64000 3.040
31.66000 5.898
31.68000 7.811
31.70000 0.844
31.72000 3.120
31.74000 6.005
31.76000 6.081
31.78000 2.333
31.80000 1.140
31.82000 1.796
31.84000 0.202
31.86000 4.636
31.88000 5.604
31.90000 -0.387
31.92000 5.690
31.94000 5.462
31.96000 4.586
31.98000 6.778
32.00000 6.987
32.02000 6.444
32.04000 6.828
32.06000 3.388
32.08000 0.117
32.10000 6.294
32.12000 7.822
32.14000 3.426
32.16000 -3.605
32.18000 -0.827
32.20000 -1.377
32.22000 3.676
32.24000 9.914
32.26000 5.342
32.28000 1.753
32.30000 -0.416
32.32000 2.777
32.34000 1.664
32.36000 3.636
32.38000 3.096
32.40000 -0.355
32.42000 4.746
32.44000 0.286
32.46000 2.994
32.48000 3.943
32.50000 5.430
32.52000 3.408
32.54000 7.746
32.56000 7.281
32.58000 -1.611
32.60000 -0.036
32.62000 1.185
32.64000 -3.592
32.66000 -1.604
32.68000 -2.483
32.70000 -1.548
32.72000 -1.114
32.74000 2.135
32.76000 8.856
32.78000 12.289
32.80000 6.878
32.82000 5.196
32.84000 1.463
32.86000 1.900
32.88000 0.529
32.90000 1.596
32.92000 0.982
32.94000 4.601
32.96000 0.676
32.98000 0.204
33.00000 2.471
33.02000 2.570
33.04000 4.077
33.06000 0.841
33.08000 6.187
33.10000 4.940
33.12000 3.693
33.14000 2.643
33.16000 -0.937
33.18000 0.792
33.20000 7.041
33.22000 5.767
33.24000 1.063
33.26000 4.477
33.28000 3.211
33.30000 6.033
33.32000 8.345
33.34000 2.239
33.36000 3.423
33.38000 3.009
33.40000 2.758
33.42000 5.414
33.44000 4.860
33.46000 1.795
33.48000 3.294
33.50000 7.531
33.52000 1.167
33.54000 -0.206
33.56000 1.222
33.58000 5.270
33.60000 4.909
33.62000 2.077
33.64000 3.232
33.66000 -3.572
33.68000 -1.019
33.70000 0.499
33.72000 1.341
33.74000 -2.481
33.76000 1.787
33.78000 8.237
33.80000 8.228
33.82000 -0.522
33.84000 -0.352
33.86000 0.699
33.88000 7.436
33.90000 9.202
33.92000 2.070
33.94000 0.398
33.96000 0.485
33.98000 2.266
34.00000 3.573
34.02000 1.421
34.04000 5.595
34.06000 10.674
34.08000 6.021
34.10000 4.376
34.12000 2.960
34.14000 1.133
34.16000 -2.991
34.18000 -2.604
34.20000 4.630
34.22000 8.180
34.24000 4.382
34.26000 2.882
34.28000 1.891
34.30000 3.491
34.32000 4.683
34.34000 -2.532
34.36000 -1.025
34.38000 1.863
34.40000 2.396
34.42000 0.404
34.44000 1.607
34.46000 7.003
34.48000 9.808
34.50000 0.839
34.52000 -3.564
34.54000 -0.401
34.56000 0.244
34.58000 -1.863
34.60000 0.635
34.62000 0.973
34.64000 -1.020
34.66000 3.846
34.68000 4.240
34.70000 4.520
34.72000 5.584
34.74000 2.820
34.76000 4.822
34.78000 2.469
34.80000 0.013
34.82000 -0.641
34.84000 -0.555
34.86000 3.654
34.88000 0.029
34.90000 2.150
34.92000 0.727
34.94000 1.695
34.96000 -0.108
34.98000 -1.459
35.00000 2.614
35.02000 1.484
35.04000 2.095
35.06000 1.925
35.08000 5.597
35.10000 5.084
35.12000 3.805
35.14000 3.973
35.16000 4.680
35.18000 -1.220
35.20000 2.192
35.22000 2.676
35.24000 1.979
35.26000 1.487
35.28000 5.174
35.30000 3.379
35.32000 5.284
35.34000 1.994
35.36000 3.436
35.38000 1.134
35.40000 -1.266
35.42000 -3.561
35.44000 0.901
35.46000 0.954
35.48000 5.646
35.50000 5.230
35.52000 0.598
35.54000 3.043
35.56000 5.151
35.58000 3.927
35.60000 -0.482
35.62000 1.489
35.64000 1.816
35.66000 -1.697
35.68000 1.583
35.70000 0.037
35.72000 2.391
35.74000 2.939
35.76000 1.345
35.78000 8.359
35.80000 6.928
35.82000 3.656
35.84000 6.848
35.86000 1.071
35.88000 -1.251
35.90000 -0.142
35.92000 -2.600
35.94000 1.117
35.96000 0.541
35.98000 0.545
36.00000 4.562
36.02000 3.043
36.04000 -2.972
36.06000 -2.037
36.08000 -3.556
36.10000 0.858
36.12000 1.788
36.14000 3.031
36.16000 3.534
36.18000 1.595
36.20000 4.304
36.22000 0.631
36.24000 -1.993
36.26000 -0.011
36.28000 0.562
36.30000 3.173
36.32000 2.522
36.34000 6.029
36.36000 5.387
36.38000 -1.403
36.40000 0.340
36.42000 1.681
36.44000 0.698
36.46000 6.278
36.48000 7.010
36.50000 4.804
36.52000 0.147
36.54000 -0.624
36.56000 1.826
36.58000 3.613
36.60000 3.983
36.62000 4.933
36.64000 5.437
36.66000 5.328
36.68000 3.009
36.70000 -1.198
36.72000 -3.566
36.74000 0.422
36.76000 6.243
36.78000 6.770
36.80000 2.412
36.82000 9.835
36.84000 9.025
36.86000 5.359
36.88000 -3.566
36.90000 -1.470
36.92000 3.777
36.94000 3.212
36.96000 2.864
36.98000 -1.029
37.00000 -3.569
37.02000 -3.513
37.04000 -2.104
37.06000 2.072
37.08000 1.389
37.10000 2.841
37.12000 0.148
37.14000 0.983
37.16000 2.533
37.18000 3.629
37.20000 3.518
37.22000 1.446
37.24000 1.304
37.26000 1.859
37.28000 0.186
37.30000 0.349
37.32000 0.132
37.34000 2.617
37.36000 3.537
37.38000 1.114
37.40000 0.390
37.42000 5.875
37.44000 7.300
37.46000 4.593
37.48000 4.485
37.50000 8.006
37.52000 4.400
37.54000 3.597
37.56000 1.962
37.58000 3.923
37.60000 5.449
37.62000 6.269
37.64000 8.644
37.66000 7.261
37.68000 3.014
37.70000 2.250
37.72000 3.953
37.74000 5.397
37.76000 6.025
37.78000 5.767
37.80000 7.094
37.82000 9.550
37.84000 9.963
37.86000 11.249
37.88000 7.773
37.90000 8.462
37.92000 8.240
37.94000 12.437
37.96000 13.520
37.98000 8.407
38.00000 3.495
38.02000 9.569
38.04000 16.843
38.06000 15.692
38.08000 15.036
38.10000 17.550
38.12000 16.953
38.14000 17.008
38.16000 13.026
38.18000 10.350
38.20000 21.144
38.22000 21.670
38.24000 20.934
38.26000 18.576
38.28000 16.420
38.30000 21.597
38.32000 22.125
38.34000 21.858
38.36000 22.621
38.38000 18.798
38.40000 15.904
38.42000 15.780
38.44000 23.976
38.46000 30.502
38.48000 28.936
38.50000 32.049
38.52000 29.193
38.54000 30.364
38.56000 31.476
38.58000 29.835
38.60000 32.687
38.62000 31.438
38.64000 32.356
38.66000 31.431
38.68000 31.202
38.70000 35.693
38.72000 37.539
38.74000 35.201
38.76000 39.540
38.78000 39.349
38.80000 39.203
38.82000 42.338
38.84000 48.814
38.86000 55.165
38.88000 53.009
38.90000 49.917
38.92000 54.835
38.94000 51.409
38.96000 56.174
38.98000 64.516
39.00000 66.085
39.02000 67.034
39.04000 73.325
39.06000 72.692
39.08000 72.932
39.10000 80.559
39.12000 81.382
39.14000 76.412
39.16000 81.877
39.18000 83.644
39.20000 90.393
39.22000 101.367
39.24000 107.084
39.26000 109.342
39.28000 119.490
39.30000 124.242
39.32000 124.359
39.34000 132.590
39.36000 144.444
39.38000 150.658
39.40000 155.723
39.42000 165.496
39.44000 168.971
39.46000 179.371
39.48000 184.004
39.50000 193.432
39.52000 205.017
39.54000 214.274
39.56000 226.338
39.58000 231.353
39.60000 242.910
39.62000 259.604
39.64000 274.098
39.66000 287.157
39.68000 300.522
39.70000 318.676
39.72000 333.705
39.74000 346.674
39.76000 362.825
39.78000 382.471
39.80000 395.374
39.82000 412.248
39.84000 438.151
39.86000 457.434
39.88000 468.768
39.90000 488.682
39.92000 516.354
39.94000 535.944
39.96000 549.552
39.98000 558.743
40.00000 574.960
40.02000 591.441
40.04000 605.356
40.06000 612.352
40.08000 619.731
40.10000 631.071
40.12000 641.762
40.14000 639.720
40.16000 638.299
40.18000 634.987
40.20000 634.249
40.22000 629.626
40.24000 630.789
40.26000 613.746
40.28000 603.402
40.30000 595.931
40.32000 582.556
40.34000 563.849
40.36000 558.735
40.38000 552.529
40.40000 534.533
40.42000 515.985
40.44000 508.579
40.46000 490.676
40.48000 466.772
40.50000 445.459
40.52000 432.808
40.54000 409.851
40.56000 394.396
40.58000 380.750
40.60000 362.432
40.62000 349.256
40.64000 330.755
40.66000 318.306
40.68000 296.400
40.70000 279.509
40.72000 261.843
40.74000 244.638
40.76000 233.140
40.78000 230.749
40.80000 212.854
40.82000 200.709
40.84000 192.265
40.86000 179.921
40.88000 173.634
40.90000 168.400
40.92000 154.642
40.94000 141.258
40.96000 134.722
40.98000 127.357
41.00000 124.388
41.02000 120.071
41.04000 111.714
41.06000 105.171
41.08000 104.292
41.10000 95.609
41.12000 87.671
41.14000 85.385
41.16000 82.818
41.18000 78.261
41.20000 70.768
41.22000 68.164
41.24000 63.012
41.26000 56.959
41.28000 55.124
41.30000 50.773
41.32000 46.277
41.34000 46.468
41.36000 44.462
41.38000 43.204
41.40000 43.269
41.42000 37.686
41.44000 37.885
41.46000 32.394
41.48000 36.005
41.50000 32.426
41.52000 27.947
41.54000 27.388
41.56000 25.134
41.58000 24.874
41.60000 24.500
41.62000 25.315
41.64000 24.094
41.66000 19.721
41.68000 20.357
41.70000 20.471
41.72000 19.176
41.74000 18.199
41.76000 18.368
41.78000 15.053
41.80000 11.877
41.82000 13.611
41.84000 10.577
41.86000 13.886
41.88000 9.844
41.90000 10.056
41.92000 7.760
41.94000 6.305
41.96000 5.582
41.98000 5.378
42.00000 6.566
42.02000 6.102
42.04000 4.896
42.06000 1.250
42.08000 2.704
42.10000 5.876
42.12000 8.378
42.14000 3.179
42.16000 1.354
42.18000 10.163
42.20000 11.476
42.22000 4.032
42.24000 2.486
42.26000 -0.185
42.28000 -0.406
42.30000 -0.758
42.32000 -1.359
42.34000 3.483
42.36000 6.894
42.38000 4.127
42.40000 1.468
42.42000 3.033
42.44000 3.822
42.46000 1.277
42.48000 0.106
42.50000 1.317
42.52000 3.120
42.54000 0.930
42.56000 1.810
42.58000 2.809
42.60000 2.943
42.62000 1.302
42.64000 4.616
42.66000 -0.577
42.68000 0.163
42.70000 -1.528
42.72000 -1.130
42.74000 -0.549
42.76000 1.648
42.78000 -0.353
42.80000 0.499
42.82000 -0.865
42.84000 -3.192
42.86000 -2.412
42.88000 -2.724
42.90000 -2.241
42.92000 -1.904
42.94000 3.684
42.96000 1.779
42.98000 -2.259
43.00000 -2.982
43.02000 0.516
43.04000 4.366
43.06000 8.023
43.08000 6.517
43.10000 3.136
43.12000 -2.539
43.14000 -3.435
43.16000 -1.092
43.18000 -0.361
43.20000 -1.019
43.22000 0.350
43.24000 -2.013
43.26000 -1.721
43.28000 -1.598
43.30000 1.676
43.32000 1.507
43.34000 -3.118
43.36000 -1.268
43.38000 0.625
43.40000 0.893
43.42000 -3.399
43.44000 -1.069
43.46000 -1.662
43.48000 1.771
43.50000 6.442
43.52000 6.099
43.54000 3.199
43.56000 -0.049
43.58000 0.055
43.60000 1.821
43.62000 2.789
43.64000 0.596
43.66000 -2.480
43.68000 0.535
43.70000 -0.792
43.72000 -2.033
43.74000 1.177
43.76000 -3.373
43.78000 -0.052
43.80000 0.233
43.82000 0.035
43.84000 0.083
43.86000 1.320
43.88000 1.323
43.90000 3.463
43.92000 4.610
43.94000 3.110
43.96000 3.627
43.98000 0.990
44.00000 -1.893
44.02000 -2.561
44.04000 1.845
44.06000 2.950
44.08000 1.894
44.10000 -1.598
44.12000 -1.061
44.14000 1.778
44.16000 4.461
44.18000 1.746
44.20000 -1.235
44.22000 3.252
44.24000 2.406
44.26000 1.947
44.28000 -1.176
44.30000 -0.997
44.32000 -0.724
44.34000 -0.007
44.36000 2.699
44.38000 1.695
44.40000 -0.554
44.42000 2.422
44.44000 2.809
44.46000 4.675
44.48000 2.695
44.50000 -1.934
44.52000 -0.898
44.54000 -0.787
44.56000 2.814
44.58000 5.020
44.60000 8.178
44.62000 5.086
44.64000 4.104
44.66000 -1.520
44.68000 0.376
44.70000 6.815
44.72000 3.996
44.74000 1.616
44.76000 -3.358
44.78000 3.188
44.80000 3.974
44.82000 2.994
44.84000 3.698
44.86000 1.697
44.88000 1.791
44.90000 3.011
44.92000 4.241
44.94000 5.181
44.96000 5.164
44.98000 6.697
45.00000 7.217
45.02000 7.341
45.04000 11.617
45.06000 10.053
45.08000 7.805
45.10000 9.606
45.12000 12.186
45.14000 13.388
45.16000 9.477
45.18000 6.928
45.20000 8.974
45.22000 15.340
45.24000 14.950
45.26000 9.594
45.28000 9.701
45.30000 14.550
45.32000 15.824
45.34000 15.708
45.36000 17.450
45.38000 11.716
45.40000 11.571
45.42000 14.576
45.44000 20.841
45.46000 20.541
45.48000 19.690
45.50000 17.048
45.52000 19.844
45.54000 21.994
45.56000 26.058
45.58000 23.229
45.60000 19.776
45.62000 18.294
45.64000 20.089
45.66000 25.735
45.68000 28.453
45.70000 29.194
45.72000 25.004
45.74000 32.332
45.76000 34.222
45.78000 28.979
45.80000 30.435
45.82000 32.287
45.84000 33.372
45.86000 37.679
45.88000 42.131
45.90000 43.702
45.92000 45.897
45.94000 45.346
45.96000 49.425
45.98000 46.420
46.00000 46.090
46.02000 49.535
46.04000 53.720
46.06000 55.112
46.08000 59.652
46.10000 60.162
46.12000 60.360
46.14000 63.242
46.16000 63.486
46.18000 64.213
46.20000 63.916
46.22000 67.818
46.24000 71.503
46.26000 68.072
46.28000 73.436
46.30000 76.065
46.32000 79.858
46.34000 84.007
46.36000 84.742
46.38000 87.484
46.40000 85.427
46.42000 93.296
46.44000 90.396
46.46000 83.321
46.48000 96.300
46.50000 103.821
46.52000 102.759
46.54000 100.335
46.56000 94.876
46.58000 101.773
46.60000 102.337
46.62000 105.983
46.64000 107.639
46.66000 112.089
46.68000 111.931
46.70000 113.037
46.72000 112.407
46.74000 109.688
46.76000 118.673
46.78000 118.102
46.80000 111.343
46.82000 113.831
46.84000 122.316
46.86000 122.625
46.88000 121.258
46.90000 118.017
46.92000 116.000
46.94000 122.682
46.96000 114.455
46.98000 109.325
47.00000 111.874
47.02000 110.870
47.04000 111.971
47.06000 117.710
47.08000 118.232
47.10000 115.611
47.12000 106.989
47.14000 101.288
47.16000 98.692
47.18000 96.841
47.20000 93.106
47.22000 92.846
47.24000 87.442
47.26000 79.104
47.28000 82.542
47.30000 79.854
47.32000 77.865
47.34000 70.887
47.36000 67.161
47.38000 69.414
47.40000 64.894
47.42000 65.380
47.44000 64.611
47.46000 58.674
47.48000 56.361
47.50000 58.185
47.52000 51.444
47.54000 46.190
47.56000 49.456
47.58000 51.710
47.60000 48.005
47.62000 43.136
47.64000 42.274
47.66000 37.327
47.68000 31.848
47.70000 30.769
47.72000 27.854
47.74000 25.095
47.76000 23.125
47.78000 25.029
47.80000 24.071
47.82000 21.389
47.84000 18.775
47.86000 22.852
47.88000 21.524
47.90000 24.016
47.92000 19.918
47.94000 16.500
47.96000 16.612
47.98000 20.228
48.00000 16.770
48.02000 17.113
48.04000 17.423
48.06000 16.282
48.08000 11.243
48.10000 14.936
48.12000 17.323
48.14000 15.044
48.16000 12.366
48.18000 13.378
48.20000 4.230
48.22000 6.163
48.24000 11.342
48.26000 9.454
48.28000 4.489
48.30000 4.672
48.32000 6.793
48.34000 4.429
48.36000 3.562
48.38000 4.239
48.40000 4.043
48.42000 1.499
48.44000 2.270
48.46000 2.986
48.48000 2.435
48.50000 -1.144
48.52000 4.702
48.54000 7.342
48.56000 3.440
48.58000 0.693
48.60000 -0.192
48.62000 2.758
48.64000 4.644
48.66000 7.284
48.68000 3.349
48.70000 1.846
48.72000 6.642
48.74000 5.853
48.76000 2.866
48.78000 0.037
48.80000 -1.887
48.82000 4.276
48.84000 5.660
48.86000 3.948
48.88000 1.761
48.90000 3.804
48.92000 1.990
48.94000 1.506
48.96000 -2.925
48.98000 -0.590
49.00000 5.682
49.02000 2.467
49.04000 2.629
49.06000 2.548
49.08000 -2.387
49.10000 -0.790
49.12000 0.679
49.14000 3.972
49.16000 3.222
49.18000 -0.513
49.20000 0.088
49.22000 -0.997
49.24000 3.296
49.26000 2.718
49.28000 -1.122
49.30000 0.079
49.32000 1.037
49.34000 1.100
49.36000 0.340
49.38000 -2.856
49.40000 -0.305
49.42000 -1.729
49.44000 -1.801
49.46000 2.731
49.48000 6.258
49.50000 5.638
49.52000 3.401
49.54000 0.427
49.56000 0.418
49.58000 0.538
49.60000 1.745
49.62000 2.360
49.64000 3.384
49.66000 0.051
49.68000 3.359
49.70000 2.845
49.72000 2.538
49.74000 -2.109
49.76000 -0.291
49.78000 2.121
49.80000 0.938
49.82000 4.162
49.84000 2.683
49.86000 -0.935
49.88000 1.073
49.90000 4.656
49.92000 1.932
49.94000 0.590
49.96000 0.522
49.98000 2.177
50.00000 -1.152
50.02000 0.975
50.04000 7.534
50.06000 7.713
50.08000 6.048
50.10000 1.317
50.12000 2.509
50.14000 1.893
50.16000 6.500
50.18000 7.060
50.20000 4.767
50.22000 1.605
50.24000 6.047
50.26000 5.798
50.28000 6.421
50.30000 6.485
50.32000 2.769
50.34000 1.211
50.36000 2.494
50.38000 0.996
50.40000 -2.751
50.42000 -2.172
50.44000 2.599
50.46000 7.230
50.48000 5.113
50.50000 4.089
50.52000 6.240
50.54000 8.995
50.56000 7.370
50.58000 2.993
50.60000 4.471
50.62000 5.518
50.64000 2.879
50.66000 4.643
50.68000 7.947
50.70000 4.257
50.72000 5.557
50.74000 1.445
50.76000 2.160
50.78000 2.252
50.80000 5.231
50.82000 4.962
50.84000 4.516
50.86000 1.700
50.88000 2.245
50.90000 -1.588
50.92000 0.693
50.94000 6.912
50.96000 2.539
50.98000 3.223
51.00000 2.891
51.02000 4.051
51.04000 5.619
51.06000 3.653
51.08000 1.218
51.10000 0.032
51.12000 -0.935
51.14000 -2.234
51.16000 1.052
51.18000 5.915
51.20000 5.021
51.22000 1.310
51.24000 1.291
51.26000 -2.725
51.28000 1.070
51.30000 8.562
51.32000 7.307
51.34000 7.705
51.36000 3.562
51.38000 2.533
51.40000 1.360
51.42000 -0.820
51.44000 1.289
51.46000 2.228
51.48000 4.353
51.50000 3.853
51.52000 -0.267
51.54000 -1.422
51.56000 -1.946
51.58000 0.719
51.60000 -0.408
51.62000 4.974
51.64000 8.646
51.66000 6.878
51.68000 4.700
51.70000 2.612
51.72000 4.174
51.74000 6.582
51.76000 6.937
51.78000 3.890
51.80000 3.038
51.82000 6.509
51.84000 5.357
51.86000 4.464
51.88000 9.660
51.90000 5.331
51.92000 -2.162
51.94000 3.894
51.96000 3.492
51.98000 -0.126
52.00000 2.887
52.02000 4.614
52.04000 4.462
52.06000 4.589
52.08000 4.407
52.10000 0.540
52.12000 -2.673
52.14000 1.195
52.16000 2.505
52.18000 2.774
52.20000 4.312
52.22000 5.158
52.24000 4.144
52.26000 -2.257
52.28000 3.714
52.30000 2.767
52.32000 3.493
52.34000 3.065
52.36000 6.928
52.38000 6.655
52.40000 5.416
52.42000 2.753
52.44000 3.726
52.46000 4.143
52.48000 2.625
52.50000 6.024
52.52000 7.228
52.54000 5.486
52.56000 2.511
52.58000 5.449
52.60000 2.024
52.62000 0.372
52.64000 -0.610
52.66000 -0.985
52.68000 4.460
52.70000 6.031
52.72000 2.803
52.74000 0.225
52.76000 1.998
52.78000 3.997
52.80000 3.243
52.82000 2.875
52.84000 -0.810
52.86000 0.664
52.88000 1.934
52.90000 0.973
52.92000 4.589
52.94000 3.813
52.96000 3.006
52.98000 0.685
53.00000 3.116
53.02000 0.666
53.04000 7.239
53.06000 5.494
53.08000 3.254
53.10000 4.501
53.12000 6.065
53.14000 4.258
53.16000 1.154
53.18000 0.216
53.20000 3.334
53.22000 5.100
53.24000 7.289
53.26000 3.880
53.28000 2.045
53.30000 0.842
53.32000 3.629
53.34000 6.959
53.36000 2.057
53.38000 3.097
53.40000 6.271
53.42000 3.379
53.44000 2.355
53.46000 -0.238
53.48000 -2.626
53.50000 0.060
53.52000 4.900
53.54000 7.032
53.56000 1.189
53.58000 0.475
53.60000 0.668
53.62000 1.530
53.64000 2.872
53.66000 0.673
53.68000 3.236
53.70000 3.468
53.72000 4.309
53.74000 -1.553
53.76000 1.146
53.78000 1.647
53.80000 0.308
53.82000 -0.103
53.84000 1.909
53.86000 1.420
53.88000 -1.355
53.90000 -0.767
53.92000 1.808
53.94000 4.669
53.96000 4.374
53.98000 0.763
54.00000 1.419
54.02000 3.551
54.04000 7.317
54.06000 -1.158
54.08000 -2.627
54.10000 2.494
54.12000 0.079
54.14000 4.341
54.16000 3.738
54.18000 0.389
54.20000 1.962
54.22000 1.670
54.24000 3.075
54.26000 2.128
54.28000 6.194
54.30000 3.116
54.32000 2.332
54.34000 -0.007
54.36000 -0.325
54.38000 -2.377
54.40000 -1.209
54.42000 -1.215
54.44000 2.036
54.46000 4.939
54.48000 2.365
54.50000 -0.687
54.52000 3.507
54.54000 4.025
54.56000 2.146
54.58000 -0.767
54.60000 -1.243
54.62000 3.457
54.64000 1.344
54.66000 3.548
54.68000 5.642
54.70000 5.385
54.72000 3.461
54.74000 2.733
54.76000 -0.604
54.78000 2.771
54.80000 1.616
54.82000 -0.631
54.84000 1.961
54.86000 3.358
54.88000 4.776
54.90000 -0.712
54.92000 -1.894
54.94000 -1.237
54.96000 2.500
54.98000 4.563
55.00000 3.725
55.02000 2.817
55.04000 -0.921
55.06000 0.653
55.08000 4.026
55.10000 6.731
55.12000 6.219
55.14000 3.819
55.16000 2.480
55.18000 4.123
55.20000 4.953
55.22000 4.495
55.24000 6.853
55.26000 5.760
55.28000 2.132
55.30000 4.673
55.32000 3.430
55.34000 4.215
55.36000 2.624
55.38000 -2.575
55.40000 -1.857
55.42000 2.063
55.44000 4.242
55.46000 1.758
55.48000 1.371
55.50000 3.177
55.52000 1.842
55.54000 4.052
55.56000 3.912
55.58000 0.109
55.60000 2.924
55.62000 3.913
55.64000 5.042
55.66000 2.244
55.68000 1.091
55.70000 0.719
55.72000 2.551
55.74000 2.569
55.76000 0.495
55.78000 -0.384
55.80000 2.668
55.82000 4.479
55.84000 7.964
55.86000 4.196
55.88000 5.114
55.90000 7.407
55.92000 5.601
55.94000 6.126
55.96000 4.156
55.98000 -0.225
56.00000 2.228
56.02000 4.152
56.04000 -0.166
56.06000 -2.565
56.08000 1.558
56.10000 -0.923
56.12000 -2.054
56.14000 1.218
56.16000 4.132
56.18000 1.594
56.20000 0.623
56.22000 0.372
56.24000 3.636
56.26000 7.247
56.28000 0.465
56.30000 0.249
56.32000 3.009
56.34000 3.239
56.36000 2.332
56.38000 -1.735
56.40000 0.548
56.42000 1.928
56.44000 -0.665
56.46000 1.662
56.48000 0.134
56.50000 4.540
56.52000 3.301
56.54000 4.446
56.56000 -0.078
56.58000 0.635
56.60000 1.795
56.62000 0.755
56.64000 1.727
56.66000 -1.056
56.68000 -2.571
56.70000 3.640
56.72000 1.703
56.74000 1.930
56.76000 3.223
56.78000 0.775
56.80000 1.202
56.82000 1.131
56.84000 4.017
56.86000 4.389
56.88000 2.667
56.90000 3.893
56.92000 5.462
56.94000 5.927
56.96000 3.540
56.98000 2.323
57.00000 0.520
57.02000 1.440
57.04000 1.752
57.06000 0.412
57.08000 -1.192
57.10000 -1.015
57.12000 3.943
57.14000 5.430
57.16000 1.634
57.18000 1.899
57.20000 -0.302
57.22000 -1.220
57.24000 -1.857
57.26000 0.988
57.28000 2.879
57.30000 0.020
57.32000 -0.456
57.34000 -1.957
57.36000 3.213
57.38000 2.132
57.40000 1.873
57.42000 0.003
57.44000 0.039
57.46000 -2.550
57.48000 -0.686
57.50000 -1.785
57.52000 2.444
57.54000 6.776
57.56000 5.959
57.58000 2.916
57.60000 0.288
57.62000 -2.548
57.64000 0.788
57.66000 -1.123
57.68000 -0.948
57.70000 -2.500
57.72000 -0.162
57.74000 -2.005
57.76000 1.017
57.78000 2.101
57.80000 4.872
57.82000 4.451
57.84000 6.149
57.86000 3.884
57.88000 0.944
57.90000 0.825
57.92000 1.417
57.94000 4.578
57.96000 -1.656
57.98000 -1.894
58.00000 3.763
58.02000 1.017
58.04000 0.976
58.06000 3.518
58.08000 1.289
58.10000 0.261
58.12000 0.455
58.14000 -0.410
58.16000 -1.037
58.18000 1.771
58.20000 4.465
58.22000 3.648
58.24000 0.991
58.26000 -1.410
58.28000 0.252
58.30000 2.467
58.32000 4.462
58.34000 1.160
58.36000 -0.892
58.38000 4.239
58.40000 4.360
58.42000 4.711
58.44000 2.316
58.46000 3.041
58.48000 2.121
58.50000 3.787
58.52000 5.671
58.54000 3.484
58.56000 2.615
58.58000 6.825
58.60000 7.288
58.62000 2.528
58.64000 2.520
58.66000 0.764
58.68000 4.829
58.70000 3.723
58.72000 2.045
58.74000 -0.118
58.76000 3.696
58.78000 0.960
58.80000 -1.309
58.82000 -2.492
58.84000 3.052
58.86000 4.791
58.88000 3.888
58.90000 4.024
58.92000 3.654
58.94000 5.119
58.96000 3.213
58.98000 0.368
59.00000 -2.490
59.02000 1.995
59.04000 4.262
59.06000 2.162
59.08000 0.597
59.10000 0.409
59.12000 2.685
59.14000 4.847
59.16000 -0.735
59.18000 2.969
59.20000 -0.683
59.22000 -0.062
59.24000 1.222
59.26000 -0.340
59.28000 -2.485
59.30000 0.710
59.32000 2.981
59.34000 2.005
59.36000 3.681
59.38000 3.278
59.40000 4.125
59.42000 4.392
59.44000 1.328
59.46000 2.842
59.48000 3.741
59.50000 2.184
59.52000 5.244
59.54000 2.287
59.56000 1.080
59.58000 0.470
59.60000 2.301
59.62000 5.915
59.64000 1.622
59.66000 -1.900
59.68000 0.023
59.70000 -0.842
59.72000 -1.763
59.74000 5.094
59.76000 -0.461
59.78000 -1.445
59.80000 -1.125
59.82000 2.554
59.84000 2.413
59.86000 4.010
59.88000 3.273
59.90000 0.750
59.92000 1.700
59.94000 0.499
59.96000 -1.259
59.98000 -2.452
60.00000 3.531
60.02000 5.298
60.04000 3.334
60.06000 3.669
60.08000 5.790
60.10000 4.912
60.12000 1.663
60.14000 -0.639
60.16000 0.898
60.18000 3.367
60.20000 6.046
60.22000 4.645
60.24000 4.004
60.26000 0.170
60.28000 1.007
60.30000 2.545
60.32000 1.520
60.34000 2.356
60.36000 4.827
60.38000 5.562
60.40000 -1.647
60.42000 -0.640
60.44000 1.722
60.46000 0.994
60.48000 5.323
60.50000 6.783
60.52000 3.807
60.54000 2.055
60.56000 2.440
60.58000 4.435
60.60000 4.579
60.62000 4.354
60.64000 5.318
60.66000 5.326
60.68000 6.841
60.70000 7.239
60.72000 7.617
60.74000 6.705
60.76000 -1.143
60.78000 3.806
60.80000 3.154
60.82000 4.128
60.84000 2.969
60.86000 5.245
60.88000 6.632
60.90000 6.446
60.92000 4.085
60.94000 0.801
60.96000 -1.077
60.98000 2.793
61.00000 3.978
61.02000 0.697
61.04000 -0.359
61.06000 -2.427
61.08000 1.303
61.10000 1.145
61.12000 3.757
61.14000 3.240
61.16000 1.158
61.18000 1.772
61.20000 4.466
61.22000 5.002
61.24000 3.085
61.26000 0.871
61.28000 -0.210
61.30000 -1.203
61.32000 0.240
61.34000 0.104
61.36000 1.022
61.38000 1.953
61.40000 -0.646
61.42000 0.047
61.44000 1.431
61.46000 4.617
61.48000 2.996
61.50000 2.487
61.52000 3.862
61.54000 3.905
61.56000 5.170
61.58000 3.214
61.60000 2.871
61.62000 2.046
61.64000 -0.561
61.66000 2.957
61.68000 1.675
61.70000 3.127
61.72000 2.046
61.74000 4.887
61.76000 4.448
61.78000 4.567
61.80000 6.605
61.82000 4.128
61.84000 2.936
61.86000 0.554
61.88000 4.702
61.90000 5.561
61.92000 3.192
61.94000 -2.376
61.96000 -1.452
61.98000 1.345
62.00000 2.946
62.02000 6.611
62.04000 1.509
62.06000 2.171
62.08000 3.871
62.10000 2.543
62.12000 3.946
62.14000 5.166
62.16000 4.565
62.18000 3.051
62.20000 0.854
62.22000 3.959
62.24000 3.748
62.26000 4.974
62.28000 1.704
62.30000 -1.028
62.32000 -0.360
62.34000 -1.099
62.36000 -0.822
62.38000 3.673
62.40000 2.076
62.42000 -0.647
62.44000 1.083
62.46000 1.501
62.48000 0.357
62.50000 0.931
62.52000 2.032
62.54000 2.771
62.56000 0.037
62.58000 0.776
62.60000 4.364
62.62000 2.347
62.64000 3.632
62.66000 2.599
62.68000 2.140
62.70000 1.925
62.72000 -0.588
62.74000 2.446
62.76000 0.598
62.78000 2.994
62.80000 0.164
62.82000 -2.405
62.84000 -1.656
62.86000 1.020
62.88000 4.391
62.90000 0.693
62.92000 2.919
62.94000 3.652
62.96000 -0.394
62.98000 -0.295
63.00000 2.804
63.02000 0.829
63.04000 2.612
63.06000 1.022
63.08000 0.614
63.10000 -0.691
63.12000 1.017
63.14000 -1.019
63.16000 2.322
63.18000 0.778
63.20000 -0.454
63.22000 2.659
63.24000 6.144
63.26000 0.830
63.28000 0.927
63.30000 0.248
63.32000 1.659
63.34000 1.574
63.36000 0.263
63.38000 1.040
63.40000 -1.478
63.42000 -2.419
63.44000 0.020
63.46000 1.158
63.48000 1.420
63.50000 4.319
63.52000 2.434
63.54000 0.936
63.56000 -0.262
63.58000 -0.980
63.60000 1.065
63.62000 0.385
63.64000 1.273
63.66000 2.983
63.68000 -1.142
63.70000 0.441
63.72000 -0.260
63.74000 2.538
63.76000 3.076
63.78000 2.223
63.80000 -1.377
63.82000 0.484
63.84000 2.988
63.86000 0.790
63.88000 1.032
63.90000 2.180
63.92000 2.159
63.94000 -0.003
63.96000 0.670
63.98000 1.522
64.00000 3.978
64.02000 3.240
64.04000 2.603
64.06000 3.068
64.08000 2.049
64.10000 1.489
64.12000 2.525
64.14000 -0.116
64.16000 1.331
64.18000 0.490
64.20000 -0.155
64.22000 3.644
64.24000 2.425
64.26000 1.213
64.28000 0.441
64.30000 -1.248
64.32000 -1.034
64.34000 -2.399
64.36000 0.391
64.38000 2.766
64.40000 1.146
64.42000 0.716
64.44000 3.588
64.46000 4.843
64.48000 4.319
64.50000 2.164
64.52000 0.343
64.54000 2.596
64.56000 3.204
64.58000 -0.519
64.60000 2.495
64.62000 2.612
64.64000 1.989
64.66000 -1.425
64.68000 2.096
64.70000 4.745
64.72000 5.084
64.74000 2.158
64.76000 2.046
64.78000 3.169
64.80000 3.953
64.82000 2.976
64.84000 0.340
64.86000 1.621
64.88000 2.119
64.90000 -0.185
64.92000 0.335
64.94000 2.321
64.96000 5.496
64.98000 5.002
65.00000 2.024
65.02000 1.702
65.04000 0.774
65.06000 1.840
65.08000 2.925
65.10000 2.128
65.12000 0.981
65.14000 1.047
65.16000 0.445
65.18000 -0.140
65.20000 -1.203
65.22000 0.666
65.24000 -2.456
65.26000 -1.605
65.28000 0.904
65.30000 2.214
65.32000 0.094
65.34000 1.177
65.36000 0.797
65.38000 -0.944
65.40000 -0.981
65.42000 -1.249
65.44000 -1.630
65.46000 -2.363
65.48000 -0.605
65.50000 -1.480
65.52000 0.337
65.54000 -0.383
65.56000 0.116
65.58000 1.551
65.60000 1.504
65.62000 0.446
65.64000 -2.367
65.66000 -2.479
65.68000 0.338
65.70000 0.067
65.72000 -1.939
65.74000 -0.201
65.76000 0.247
65.78000 0.386
65.80000 3.323
65.82000 1.748
65.84000 -2.240
65.86000 -1.001
65.88000 -1.312
65.90000 0.499
65.92000 2.134
65.94000 -0.559
65.96000 -2.425
65.98000 -2.189
66.00000 4.207
66.02000 3.099
66.04000 0.501
66.06000 1.549
66.08000 3.032
66.10000 -1.062
66.12000 -0.654
66.14000 -0.218
66.16000 -2.459
66.18000 -2.490
66.20000 -1.125
66.22000 -0.294
66.24000 0.413
66.26000 3.012
66.28000 3.834
66.30000 1.168
66.32000 -0.120
66.34000 -1.370
66.36000 -0.242
66.38000 -2.451
66.40000 0.144
66.42000 1.796
66.44000 3.528
66.46000 0.405
66.48000 -1.903
66.50000 -1.562
66.52000 -1.019
66.54000 -2.516
66.56000 0.326
66.58000 -0.030
66.60000 -0.764
66.62000 1.347
66.64000 0.846
66.66000 0.298
66.68000 -0.239
66.70000 -1.806
66.72000 -1.061
66.74000 1.197
66.76000 2.363
66.78000 4.609
66.80000 1.711
66.82000 0.966
66.84000 0.724
66.86000 1.260
66.88000 0.804
66.90000 2.528
66.92000 -1.355
66.94000 2.240
66.96000 3.747
66.98000 2.750
67.00000 1.193
67.02000 -0.090
67.04000 -0.004
67.06000 1.065
67.08000 2.475
67.10000 -0.277
67.12000 1.198
67.14000 2.050
67.16000 1.962
67.18000 4.060
67.20000 6.958
67.22000 7.681
67.24000 7.279
67.26000 7.676
67.28000 7.148
67.30000 6.028
67.32000 7.137
67.34000 6.973
67.36000 6.830
67.38000 8.475
67.40000 6.735
67.42000 4.900
67.44000 6.102
67.46000 8.056
67.48000 7.267
67.50000 9.890
67.52000 10.331
67.54000 8.159
67.56000 8.059
67.58000 11.298
67.60000 10.219
67.62000 12.727
67.64000 16.299
67.66000 14.050
67.68000 13.870
67.70000 13.641
67.72000 14.523
67.74000 15.925
67.76000 13.968
67.78000 14.326
67.80000 15.507
67.82000 14.642
67.84000 14.195
67.86000 13.697
67.88000 19.375
67.90000 18.820
67.92000 20.063
67.94000 21.687
67.96000 19.159
67.98000 16.611
68.00000 18.241
68.02000 18.557
68.04000 17.964
68.06000 22.373
68.08000 25.689
68.10000 26.043
68.12000 25.762
68.14000 27.284
68.16000 21.580
68.18000 22.814
68.20000 26.685
68.22000 30.024
68.24000 30.646
68.26000 31.079
68.28000 32.143
68.30000 24.698
68.32000 25.647
68.34000 27.204
68.36000 23.663
68.38000 23.876
68.40000 24.115
68.42000 26.384
68.44000 23.899
68.46000 24.836
68.48000 27.385
68.50000 26.773
68.52000 28.286
68.54000 25.681
68.56000 21.950
68.58000 23.075
68.60000 22.100
68.62000 25.646
68.64000 23.766
68.66000 25.737
68.68000 27.219
68.70000 20.967
68.72000 18.873
68.74000 21.194
68.76000 19.422
68.78000 16.675
68.80000 17.786
68.82000 19.448
68.84000 15.629
68.86000 13.117
68.88000 15.230
68.90000 15.734
68.92000 17.157
68.94000 17.982
68.96000 14.481
68.98000 14.609
69.00000 14.340
69.02000 14.044
69.04000 11.804
69.06000 11.116
69.08000 10.932
69.10000 11.308
69.12000 10.665
69.14000 8.923
69.16000 12.319
69.18000 14.305
69.20000 10.677
69.22000 8.996
69.24000 10.931
69.26000 8.908
69.28000 8.385
69.30000 6.664
69.32000 3.038
69.34000 2.994
69.36000 5.035
69.38000 3.219
69.40000 6.872
69.42000 6.784
69.44000 4.125
69.46000 6.337
69.48000 4.266
69.50000 1.963
69.52000 1.717
69.54000 6.283
69.56000 3.437
69.58000 2.254
69.60000 0.738
69.62000 0.485
69.64000 1.929
69.66000 4.390
69.68000 5.439
69.70000 -0.283
69.72000 -1.505
69.74000 2.846
69.76000 3.116
69.78000 3.804
69.80000 0.504
69.82000 -2.319
69.84000 -0.407
69.86000 1.363
69.88000 1.473
69.90000 -1.669
69.92000 -1.172
69.94000 2.577
69.96000 3.083
69.98000 -0.124
70.00000 -2.400
70.02000 -1.337
70.04000 -0.567
70.06000 1.339
70.08000 0.902
70.10000 0.670
70.12000 0.012
70.14000 -2.385
70.16000 0.576
70.18000 1.642
70.20000 3.347
70.22000 6.076
70.24000 1.819
70.26000 5.420
70.28000 3.384
70.30000 3.027
70.32000 2.609
70.34000 -1.175
70.36000 -0.610
70.38000 1.900
70.40000 4.804
70.42000 3.728
70.44000 2.509
70.46000 1.806
70.48000 1.457
70.50000 -2.356
70.52000 -1.454
70.54000 -2.011
70.56000 -1.433
70.58000 -0.917
70.60000 2.412
70.62000 3.581
70.64000 0.708
70.66000 -0.459
70.68000 1.129
70.70000 3.618
70.72000 4.067
70.74000 1.835
70.76000 -1.032
70.78000 -1.346
70.80000 -0.864
70.82000 1.853
70.84000 3.264
70.86000 0.810
70.88000 -1.017
70.90000 0.586
70.92000 0.424
70.94000 0.692
70.96000 0.982
70.98000 2.632
71.00000 -0.708
71.02000 2.444
71.04000 5.654
71.06000 0.023
71.08000 -0.322
71.10000 -0.384
71.12000 2.347
71.14000 3.394
71.16000 3.174
71.18000 2.839
71.20000 0.184
71.22000 2.859
71.24000 1.593
71.26000 0.831
71.28000 0.964
71.30000 3.035
71.32000 0.828
71.34000 2.066
71.36000 -1.167
71.38000 -2.306
71.40000 1.605
71.42000 2.799
71.44000 5.838
71.46000 1.405
71.48000 1.327
71.50000 2.052
71.52000 1.415
71.54000 4.264
71.56000 4.054
71.58000 1.760
71.60000 -1.364
71.62000 -0.583
71.64000 0.569
71.66000 0.864
71.68000 1.645
71.70000 1.570
71.72000 0.287
71.74000 1.091
71.76000 0.346
71.78000 -0.437
71.80000 2.243
71.82000 0.404
71.84000 -0.519
71.86000 2.325
71.88000 1.821
71.90000 1.598
71.92000 3.203
71.94000 -1.250
71.96000 -0.365
71.98000 0.342
72.00000 1.574
72.02000 0.422
72.04000 2.300
72.06000 3.018
72.08000 -1.494
72.10000 2.199
72.12000 2.860
72.14000 3.594
72.16000 0.822
72.18000 1.836
72.20000 2.917
72.22000 7.867
72.24000 2.769
72.26000 2.711
72.28000 5.095
72.30000 -1.348
72.32000 0.944
72.34000 1.566
72.36000 1.622
72.38000 0.439
72.40000 -0.765
72.42000 0.579
72.44000 3.737
72.46000 3.871
72.48000 4.071
72.50000 -0.320
72.52000 0.878
72.54000 0.617
72.56000 -1.383
72.58000 -2.157
72.60000 -0.431
72.62000 1.256
72.64000 6.452
72.66000 5.005
72.68000 1.191
72.70000 1.301
72.72000 0.867
72.74000 -1.452
72.76000 -0.020
72.78000 1.707
72.80000 2.506
72.82000 0.275
72.84000 0.017
72.86000 2.109
72.88000 2.051
72.90000 0.094
72.92000 3.247
72.94000 6.255
72.96000 1.192
72.98000 2.803
73.00000 2.709
73.02000 6.325
73.04000 7.581
73.06000 1.441
73.08000 1.602
73.10000 4.123
73.12000 1.135
73.14000 -0.721
73.16000 -2.213
73.18000 1.531
73.20000 2.354
73.22000 2.986
73.24000 0.051
73.26000 0.765
73.28000 3.967
73.30000 5.651
73.32000 5.367
73.34000 3.913
73.36000 8.240
73.38000 8.526
73.40000 6.180
73.42000 4.561
73.44000 2.925
73.46000 1.212
73.48000 4.277
73.50000 3.864
73.52000 2.537
73.54000 1.479
73.56000 4.420
73.58000 3.940
73.60000 5.550
73.62000 5.175
73.64000 2.488
73.66000 -2.190
73.68000 2.107
73.70000 3.208
73.72000 6.089
73.74000 5.289
73.76000 3.276
73.78000 2.512
73.80000 2.595
73.82000 0.631
73.84000 1.262
73.86000 4.392
73.88000 6.217
73.90000 -0.965
73.92000 5.943
73.94000 4.818
73.96000 5.067
73.98000 7.312
74.00000 6.276
74.02000 4.016
74.04000 2.898
74.06000 4.849
74.08000 3.482
74.10000 2.414
74.12000 0.483
74.14000 -1.428
74.16000 1.122
74.18000 1.522
74.20000 2.061
74.22000 2.667
74.24000 2.868
74.26000 5.618
74.28000 2.518
74.30000 4.224
74.32000 2.626
74.34000 3.347
74.36000 1.834
74.38000 -1.739
74.40000 0.671
74.42000 0.506
74.44000 -0.895
74.46000 6.416
74.48000 4.872
74.50000 2.589
74.52000 5.743
74.54000 0.619
74.56000 0.062
74.58000 0.456
74.60000 3.080
74.62000 4.756
74.64000 1.436
74.66000 1.106
74.68000 3.049
74.70000 1.643
74.72000 -1.042
74.74000 0.437
74.76000 0.380
74.78000 0.802
74.80000 1.698
74.82000 1.595
74.84000 3.324
74.86000 5.119
74.88000 6.307
74.90000 3.777
74.92000 5.220
74.94000 0.341
74.96000 4.926
74.98000 5.761
75.00000 1.732
75.02000 1.568
75.04000 1.896
75.06000 1.131
75.08000 5.300
75.10000 3.237
75.12000 2.697
75.14000 1.406
75.16000 -0.391
75.18000 -1.381
75.20000 -2.049
75.22000 -0.832
75.24000 -1.140
75.26000 0.435
75.28000 -2.226
75.30000 0.006
75.32000 5.425
75.34000 1.174
75.36000 3.809
75.38000 3.555
75.40000 4.955
75.42000 0.214
75.44000 3.921
75.46000 5.911
75.48000 2.799
75.50000 4.203
75.52000 5.145
75.54000 1.608
75.56000 3.527
75.58000 4.365
75.60000 5.402
75.62000 5.569
75.64000 4.552
75.66000 5.185
75.68000 4.249
75.70000 -2.233
75.72000 -0.143
75.74000 2.025
75.76000 0.019
75.78000 3.317
75.80000 5.397
75.82000 0.515
75.84000 0.213
75.86000 2.475
75.88000 2.947
75.90000 4.450
75.92000 8.265
75.94000 2.699
75.96000 1.781
75.98000 5.302
76.00000 6.535
76.02000 8.191
76.04000 8.113
76.06000 1.570
76.08000 0.906
76.10000 3.888
76.12000 2.467
76.14000 2.631
76.16000 1.804
76.18000 -2.172
76.20000 -2.241
76.22000 3.305
76.24000 5.265
76.26000 4.227
76.28000 4.879
76.30000 3.913
76.32000 0.406
76.34000 1.553
76.36000 2.075
76.38000 2.519
76.40000 4.260
76.42000 4.038
76.44000 3.392
76.46000 2.264
76.48000 1.502
76.50000 -0.113
76.52000 -0.040
76.54000 2.491
76.56000 3.063
76.58000 3.897
76.60000 4.131
76.62000 2.501
76.64000 2.482
76.66000 3.381
76.68000 2.781
76.70000 0.787
76.72000 0.254
76.74000 -1.898
76.76000 -0.762
76.78000 1.985
76.80000 4.506
76.82000 2.870
76.84000 4.412
76.86000 2.640
76.88000 3.729
76.90000 3.809
76.92000 1.989
76.94000 6.563
76.96000 0.859
76.98000 -2.229
77.00000 3.655
77.02000 1.417
77.04000 -0.552
77.06000 0.073
77.08000 2.633
77.10000 2.435
77.12000 2.539
77.14000 3.534
77.16000 4.481
77.18000 1.914
77.20000 -0.171
77.22000 2.661
77.24000 4.186
77.26000 5.401
77.28000 5.379
77.30000 3.475
77.32000 4.151
77.34000 7.467
77.36000 2.989
77.38000 0.287
77.40000 2.478
77.42000 7.900
77.44000 8.737
77.46000 3.989
77.48000 3.683
77.50000 1.086
77.52000 2.688
77.54000 5.394
77.56000 6.285
77.58000 0.807
77.60000 1.863
77.62000 3.680
77.64000 3.190
77.66000 1.979
77.68000 2.218
77.70000 1.156
77.72000 -1.266
77.74000 2.134
77.76000 3.559
77.78000 2.637
77.80000 3.165
77.82000 0.268
77.84000 -0.196
77.86000 -0.319
77.88000 3.947
77.90000 4.109
77.92000 3.581
77.94000 2.512
77.96000 0.129
77.98000 4.029
78.00000 8.066
78.02000 5.266
78.04000 1.642
78.06000 0.533
78.08000 3.632
78.10000 1.681
78.12000 1.799
78.14000 3.472
78.16000 1.955
78.18000 2.564
78.20000 1.168
78.22000 1.493
78.24000 4.877
78.26000 3.676
78.28000 1.775
78.30000 3.338
78.32000 2.335
78.34000 2.881
78.36000 3.633
78.38000 0.408
78.40000 2.279
78.42000 5.166
78.44000 5.138
78.46000 3.736
78.48000 5.474
78.50000 4.520
78.52000 2.705
78.54000 0.795
78.56000 0.453
78.58000 2.367
78.60000 4.054
78.62000 7.179
78.64000 7.980
78.66000 4.850
78.68000 -0.040
78.70000 -2.269
78.72000 0.845
78.74000 4.918
78.76000 4.842
78.78000 8.681
78.80000 6.443
78.82000 5.748
78.84000 1.832
78.86000 -0.911
78.88000 0.305
78.90000 5.429
78.92000 7.295
78.94000 4.296
78.96000 2.641
78.98000 4.777
79.00000 1.999
79.02000 3.101
79.04000 4.860
79.06000 -0.355
79.08000 -0.526
79.10000 2.296
79.12000 1.173
79.14000 3.258
79.16000 0.467
79.18000 3.894
79.20000 6.393
79.22000 1.352
79.24000 4.738
79.26000 4.944
79.28000 7.154
79.30000 3.917
79.32000 -0.644
79.34000 -1.319
79.36000 -0.624
79.38000 -1.445
79.40000 3.654
79.42000 4.617
79.44000 1.852
79.46000 2.218
79.48000 2.351
79.50000 -0.933
79.52000 1.285
79.54000 3.489
79.56000 -1.840
79.58000 3.545
79.60000 0.691
79.62000 2.765
79.64000 3.625
79.66000 1.550
79.68000 -0.762
79.70000 4.375
79.72000 4.733
79.74000 0.543
79.76000 -1.769
79.78000 -0.784
79.80000 1.400
79.82000 1.404
79.84000 1.308
79.86000 1.483
79.88000 4.885
79.90000 1.580
79.92000 4.453
79.94000 1.077
79.96000 2.223
79.98000 4.929
80.00000 3.629
80.02000 3.679
80.04000 -1.846
80.06000 -1.169
80.08000 -1.325
80.10000 -2.073
80.12000 5.015
80.14000 0.727
80.16000 -0.921
80.18000 -2.397
80.20000 1.427
80.22000 3.032
80.24000 4.188
80.26000 1.777
80.28000 -1.567
80.30000 -1.616
80.32000 1.923
80.34000 3.536
80.36000 3.648
80.38000 4.201
80.40000 3.181
80.42000 2.511
80.44000 2.597
80.46000 4.647
80.48000 3.753
80.50000 -0.633
80.52000 -0.271
80.54000 -0.037
80.56000 3.917
80.58000 2.683
80.60000 -0.718
80.62000 -2.074
80.64000 -0.963
80.66000 -2.435
80.68000 -2.256
80.70000 -0.354
80.72000 3.287
80.74000 4.649
80.76000 1.860
80.78000 4.685
80.80000 5.917
80.82000 6.006
80.84000 6.567
80.86000 5.533
80.88000 5.034
80.90000 7.443
80.92000 4.626
80.94000 4.331
80.96000 7.632
80.98000 8.250
81.00000 4.603
81.02000 7.628
81.04000 5.440
81.06000 7.744
81.08000 8.353
81.10000 6.808
81.12000 8.132
81.14000 7.541
81.16000 6.363
81.18000 2.359
81.20000 5.093
81.22000 8.427
81.24000 12.060
81.26000 10.795
81.28000 11.337
81.30000 7.645
81.32000 2.729
81.34000 2.834
81.36000 4.296
81.38000 7.718
81.40000 9.419
81.42000 10.324
81.44000 6.103
81.46000 9.074
81.48000 10.306
81.50000 12.143
81.52000 14.528
81.54000 14.015
81.56000 14.390
81.58000 11.929
81.60000 14.336
81.62000 10.372
81.64000 8.512
81.66000 15.769
81.68000 22.018
81.70000 23.332
81.72000 16.991
81.74000 15.725
81.76000 15.467
81.78000 13.821
81.80000 16.579
81.82000 17.110
81.84000 16.971
81.86000 21.379
81.88000 23.198
81.90000 19.501
81.92000 20.737
81.94000 22.337
81.96000 21.794
81.98000 20.340
82.00000 22.508
82.02000 25.520
82.04000 26.548
82.06000 26.158
82.08000 27.398
82.10000 30.733
82.12000 28.204
82.14000 25.683
82.16000 29.637
82.18000 25.942
82.20000 28.728
82.22000 29.159
82.24000 32.322
82.26000 30.918
82.28000 34.330
82.30000 38.606
82.32000 33.870
82.34000 31.389
82.36000 33.418
82.38000 32.260
82.40000 28.250
82.42000 30.413
82.44000 32.556
82.46000 31.623
82.48000 27.689
82.50000 26.798
82.52000 28.599
82.54000 30.056
82.56000 34.439
82.58000 33.407
82.60000 29.371
82.62000 24.922
82.64000 26.814
82.66000 32.456
82.68000 27.688
82.70000 25.948
82.72000 32.533
82.74000 34.300
82.76000 32.574
82.78000 29.071
82.80000 32.069
82.82000 30.409
82.84000 28.921
82.86000 27.028
82.88000 27.172
82.90000 27.096
82.92000 23.871
82.94000 23.115
82.96000 24.479
82.98000 21.421
83.00000 23.053
83.02000 22.123
83.04000 22.311
83.06000 22.730
83.08000 22.381
83.10000 16.979
83.12000 19.126
83.14000 22.153
83.16000 16.615
83.18000 17.565
83.20000 20.520
83.22000 21.715
83.24000 14.976
83.26000 14.774
83.28000 13.461
83.30000 15.632
83.32000 17.730
83.34000 14.692
83.36000 12.927
83.38000 10.154
83.40000 13.877
83.42000 11.875
83.44000 10.198
83.46000 12.321
83.48000 11.035
83.50000 9.874
83.52000 14.804
83.54000 13.228
83.56000 7.539
83.58000 8.108
83.60000 8.485
83.62000 7.485
83.64000 11.705
83.66000 8.233
83.68000 7.196
83.70000 4.440
83.72000 6.569
83.74000 7.275
83.76000 2.833
83.78000 2.503
83.80000 3.116
83.82000 4.282
83.84000 4.706
83.86000 0.534
83.88000 3.224
83.90000 7.256
83.92000 4.174
83.94000 0.384
83.96000 2.363
83.98000 4.606
84.00000 0.514
84.02000 3.464
84.04000 4.407
84.06000 4.140
84.08000 4.168
84.10000 6.603
84.12000 7.176
84.14000 0.911
84.16000 -1.449
84.18000 4.035
84.20000 4.074
84.22000 7.199
84.24000 2.316
84.26000 4.548
84.28000 1.774
84.30000 0.212
84.32000 2.340
84.34000 3.419
84.36000 6.273
84.38000 3.551
84.40000 2.486
84.42000 5.447
84.44000 3.928
84.46000 -0.091
84.48000 -0.835
84.50000 -0.574
84.52000 4.803
84.54000 6.955
84.56000 1.988
84.58000 3.843
84.60000 2.546
84.62000 -1.986
84.64000 -2.329
84.66000 1.790
84.68000 7.063
84.70000 5.838
84.72000 7.580
84.74000 4.620
84.76000 -2.322
84.78000 1.145
84.80000 2.772
84.82000 3.134
84.84000 1.698
84.86000 4.609
84.88000 4.663
84.90000 6.613
84.92000 2.191
84.94000 -0.404
84.96000 -1.466
84.98000 2.227
85.00000 3.561
85.02000 6.259
85.04000 3.168
85.06000 2.718
85.08000 4.811
85.10000 3.274
85.12000 -0.998
85.14000 1.039
85.16000 5.852
85.18000 5.433
85.20000 4.254
85.22000 0.769
85.24000 4.715
85.26000 2.233
85.28000 -2.313
85.30000 1.152
85.32000 3.137
85.34000 6.090
85.36000 9.454
85.38000 3.620
85.40000 1.942
85.42000 3.589
85.44000 -0.709
85.46000 -0.684
85.48000 2.334
85.50000 5.404
85.52000 3.986
85.54000 2.450
85.56000 3.557
85.58000 0.878
85.60000 2.611
85.62000 5.038
85.64000 4.776
85.66000 0.624
85.68000 1.641
85.70000 4.059
85.72000 6.720
85.74000 7.700
85.76000 4.512
85.78000 4.475
85.80000 3.779
85.82000 4.379
85.84000 6.741
85.86000 5.236
85.88000 5.331
85.90000 5.999
85.92000 4.061
85.94000 1.273
85.96000 4.266
85.98000 2.583
86.00000 3.594
86.02000 6.019
86.04000 8.504
86.06000 9.889
86.08000 9.522
86.10000 12.445
86.12000 11.823
86.14000 9.402
86.16000 7.188
86.18000 11.398
86.20000 13.958
86.22000 11.133
86.24000 11.150
86.26000 7.579
86.28000 8.719
86.30000 9.164
86.32000 11.724
86.34000 10.438
86.36000 13.211
86.38000 15.367
86.40000 20.964
86.42000 18.706
86.44000 20.918
86.46000 17.337
86.48000 18.887
86.50000 16.917
86.52000 12.351
86.54000 11.768
86.56000 13.565
86.58000 13.964
86.60000 12.133
86.62000 17.730
86.64000 20.699
86.66000 19.670
86.68000 22.944
86.70000 17.351
86.72000 18.520
86.74000 18.762
86.76000 14.681
86.78000 19.266
86.80000 22.302
86.82000 23.540
86.84000 20.084
86.86000 19.373
86.88000 22.343
86.90000 25.878
86.92000 27.748
86.94000 22.181
86.96000 19.120
86.98000 17.660
87.00000 14.755
87.02000 11.742
87.04000 14.328
87.06000 18.727
87.08000 17.841
87.10000 13.774
87.12000 15.530
87.14000 13.351
87.16000 13.517
87.18000 16.917
87.20000 18.047
87.22000 11.409
87.24000 16.791
87.26000 13.257
87.28000 11.589
87.30000 7.737
87.32000 8.026
87.34000 12.101
87.36000 11.583
87.38000 12.876
87.40000 11.575
87.42000 9.871
87.44000 12.837
87.46000 6.841
87.48000 8.984
87.50000 10.485
87.52000 5.436
87.54000 5.181
87.56000 8.272
87.58000 8.383
87.60000 9.169
87.62000 7.674
87.64000 5.588
87.66000 5.983
87.68000 4.287
87.70000 7.202
87.72000 4.115
87.74000 2.060
87.76000 4.678
87.78000 5.461
87.80000 4.741
87.82000 4.225
87.84000 2.429
87.86000 3.435
87.88000 5.439
87.90000 4.760
87.92000 1.658
87.94000 0.728
87.96000 5.350
87.98000 3.608
88.00000 0.761
88.02000 5.116
88.04000 1.024
88.06000 -1.503
88.08000 -0.838
88.10000 -1.529
88.12000 -0.853
88.14000 0.456
88.16000 0.243
88.18000 2.214
88.20000 0.926
88.22000 -0.149
88.24000 -0.859
88.26000 0.576
88.28000 -2.091
88.30000 3.441
88.32000 3.391
88.34000 0.378
88.36000 0.266
88.38000 1.109
88.40000 1.603
88.42000 2.553
88.44000 2.107
88.46000 2.068
88.48000 -2.192
88.50000 3.175
88.52000 3.709
88.54000 3.264
88.56000 1.696
88.58000 2.896
88.60000 3.628
88.62000 5.347
88.64000 2.669
88.66000 1.904
88.68000 1.039
88.70000 1.093
88.72000 1.176
88.74000 0.407
88.76000 -0.324
88.78000 0.178
88.80000 2.016
88.82000 -0.651
88.84000 0.554
88.86000 0.870
88.88000 1.263
88.90000 2.670
88.92000 3.861
88.94000 -0.179
88.96000 0.526
88.98000 3.325
89.00000 6.742
89.02000 4.962
89.04000 0.965
89.06000 0.617
89.08000 3.099
89.10000 -0.059
89.12000 0.233
89.14000 2.270
89.16000 0.793
89.18000 4.781
89.20000 3.437
89.22000 1.864
89.24000 3.196
89.26000 2.717
89.28000 0.438
89.30000 2.403
89.32000 3.587
89.34000 4.507
89.36000 -0.760
89.38000 -0.275
89.40000 4.652
89.42000 6.698
89.44000 3.052
89.46000 -2.132
89.48000 2.648
89.50000 1.627
89.52000 3.663
89.54000 2.423
89.56000 7.056
89.58000 5.314
89.60000 3.365
89.62000 1.074
89.64000 0.841
89.66000 2.821
89.68000 4.976
89.70000 5.187
89.72000 2.697
89.74000 2.101
89.76000 -0.754
89.78000 1.126
89.80000 4.697
89.82000 6.283
89.84000 4.416
89.86000 1.958
89.88000 1.352
89.90000 4.898
89.92000 3.875
89.94000 2.285
89.96000 4.174
89.98000 4.442
90.00000 1.728
90.02000 -0.400
90.04000 0.588
90.06000 5.657
90.08000 9.910
90.10000 7.703
90.12000 5.631
90.14000 3.418
90.16000 4.301
90.18000 -1.390
90.20000 0.800
90.22000 4.433
90.24000 5.040
90.26000 -0.797
90.28000 0.226
90.30000 3.920
90.32000 3.721
90.34000 1.208
90.36000 1.336
90.38000 5.126
90.40000 10.339
90.42000 2.058
90.44000 -1.906
90.46000 -2.061
90.48000 -0.181
90.50000 3.249
90.52000 2.778
90.54000 4.082
90.56000 4.486
90.58000 1.349
90.60000 5.508
90.62000 3.161
90.64000 1.218
90.66000 4.448
90.68000 4.994
90.70000 2.957
90.72000 4.633
90.74000 4.452
90.76000 3.822
90.78000 5.324
90.80000 7.720
90.82000 3.347
90.84000 4.035
90.86000 1.578
90.88000 -2.061
90.90000 2.782
90.92000 7.118
90.94000 8.514
90.96000 6.102
90.98000 6.130
91.00000 7.268
91.02000 5.417
91.04000 4.053
91.06000 0.336
91.08000 2.939
91.10000 5.821
91.12000 0.296
91.14000 -1.701
91.16000 2.269
91.18000 2.466
91.20000 7.076
91.22000 7.889
91.24000 5.581
91.26000 4.756
91.28000 1.379
91.30000 0.024
91.32000 0.048
91.34000 2.305
91.36000 4.256
91.38000 4.785
91.40000 4.703
91.42000 4.025
91.44000 -2.105
91.46000 -0.164
91.48000 5.156
91.50000 1.763
91.52000 2.312
91.54000 4.887
91.56000 1.683
91.58000 0.484
91.60000 -0.831
91.62000 -0.338
91.64000 1.628
91.66000 2.624
91.68000 4.395
91.70000 0.324
91.72000 1.413
91.74000 0.481
91.76000 0.115
91.78000 -1.792
91.80000 2.977
91.82000 3.284
91.84000 7.330
91.86000 6.083
91.88000 2.748
91.90000 1.831
91.92000 -0.492
91.94000 -1.042
91.96000 0.892
91.98000 1.914
92.00000 4.581
92.02000 2.192
92.04000 0.090
92.06000 1.935
92.08000 -1.453
92.10000 0.689
92.12000 -0.792
92.14000 -1.211
92.16000 2.839
92.18000 0.358
92.20000 0.119
92.22000 2.007
92.24000 -0.533
92.26000 1.596
92.28000 7.038
92.30000 2.085
92.32000 -0.475
92.34000 2.172
92.36000 2.085
92.38000 4.582
92.40000 4.626
92.42000 1.567
92.44000 1.615
92.46000 1.816
92.48000 1.566
92.50000 -0.136
92.52000 3.416
92.54000 2.159
92.56000 6.643
92.58000 2.467
92.60000 0.593
92.62000 2.707
92.64000 4.013
92.66000 2.197
92.68000 3.387
92.70000 1.789
92.72000 0.459
92.74000 3.790
92.76000 7.126
92.78000 3.980
92.80000 1.515
92.82000 5.859
92.84000 6.203
92.86000 11.765
92.88000 8.254
92.90000 3.689
92.92000 -0.127
92.94000 0.230
92.96000 0.482
92.98000 3.972
93.00000 3.698
93.02000 6.834
93.04000 6.591
93.06000 2.557
93.08000 5.279
93.10000 3.434
93.12000 6.392
93.14000 4.582
93.16000 2.267
93.18000 3.875
93.20000 0.904
93.22000 3.625
93.24000 4.514
93.26000 4.485
93.28000 7.420
93.30000 5.133
93.32000 2.645
93.34000 1.288
93.36000 2.595
93.38000 -0.674
93.40000 3.663
93.42000 8.686
93.44000 8.339
93.46000 12.633
93.48000 8.461
93.50000 9.296
93.52000 5.657
93.54000 -2.080
93.56000 -1.171
93.58000 4.279
93.60000 9.124
93.62000 11.162
93.64000 2.870
93.66000 4.351
93.68000 7.449
93.70000 4.366
93.72000 1.396
93.74000 2.893
93.76000 0.472
93.78000 2.028
93.80000 3.297
93.82000 7.865
93.84000 6.379
93.86000 1.150
93.88000 8.965
93.90000 3.711
93.92000 4.018
93.94000 6.358
93.96000 8.350
93.98000 8.368
94.00000 6.541
94.02000 2.249
94.04000 0.525
94.06000 -2.079
94.08000 -1.431
94.10000 4.092
94.12000 8.847
94.14000 6.423
94.16000 3.231
94.18000 7.808
94.20000 7.179
94.22000 5.427
94.24000 6.777
94.26000 4.247
94.28000 2.948
94.30000 3.528
94.32000 5.244
94.34000 3.000
94.36000 6.351
94.38000 5.653
94.40000 4.090
94.42000 8.129
94.44000 4.650
94.46000 3.383
94.48000 4.184
94.50000 7.426
94.52000 4.279
94.54000 2.592
94.56000 5.383
94.58000 2.963
94.60000 1.001
94.62000 0.672
94.64000 4.591
94.66000 8.801
94.68000 3.896
94.70000 2.051
94.72000 5.024
94.74000 1.433
94.76000 -0.853
94.78000 1.743
94.80000 5.376
94.82000 3.486
94.84000 4.780
94.86000 5.744
94.88000 6.252
94.90000 7.417
94.92000 5.722
94.94000 5.297
94.96000 2.894
94.98000 3.106
95.00000 -0.431
95.02000 1.198
95.04000 4.990
95.06000 3.442
95.08000 3.386
95.10000 4.369
95.12000 2.145
95.14000 1.693
95.16000 4.253
95.18000 4.998
95.20000 1.630
95.22000 3.312
95.24000 -0.099
95.26000 0.643
95.28000 5.256
95.30000 4.115
95.32000 2.468
95.34000 4.505
95.36000 4.575
95.38000 2.465
95.40000 0.983
95.42000 3.648
95.44000 5.974
95.46000 1.336
95.48000 1.015
95.50000 3.199
95.52000 3.007
95.54000 5.739
95.56000 2.351
95.58000 1.388
95.60000 4.315
95.62000 5.788
95.64000 8.973
95.66000 6.484
95.68000 5.050
95.70000 2.787
95.72000 -0.064
95.74000 3.052
95.76000 3.084
95.78000 3.407
95.80000 -2.106
95.82000 0.476
95.84000 8.457
95.86000 9.491
95.88000 2.325
95.90000 -0.327
95.92000 -0.177
95.94000 2.485
95.96000 5.378
95.98000 3.805
96.00000 0.252
96.02000 2.563
96.04000 5.092
96.06000 7.904
96.08000 7.752
96.10000 3.649
96.12000 0.885
96.14000 3.333
96.16000 4.545
96.18000 9.381
96.20000 -0.115
96.22000 2.541
96.24000 5.256
96.26000 0.918
96.28000 1.160
96.30000 -1.226
96.32000 -1.567
96.34000 4.361
96.36000 4.366
96.38000 5.278
96.40000 4.520
96.42000 4.716
96.44000 2.508
96.46000 3.291
96.48000 3.310
96.50000 1.096
96.52000 0.438
96.54000 3.053
96.56000 -0.254
96.58000 2.103
96.60000 1.624
96.62000 0.143
96.64000 -1.321
96.66000 1.473
96.68000 2.768
96.70000 5.539
96.72000 4.729
96.74000 8.085
96.76000 9.134
96.78000 6.772
96.80000 8.533
96.82000 5.438
96.84000 4.837
96.86000 5.369
96.88000 2.901
96.90000 3.143
96.92000 4.048
96.94000 5.856
96.96000 5.005
96.98000 2.299
97.00000 3.711
97.02000 5.625
97.04000 3.702
97.06000 4.790
97.08000 4.888
97.10000 -1.064
97.12000 -0.599
97.14000 7.348
97.16000 7.697
97.18000 6.099
97.20000 5.908
97.22000 7.084
97.24000 3.160
97.26000 -2.122
97.28000 -0.387
97.30000 0.244
97.32000 2.315
97.34000 0.535
97.36000 -1.296
97.38000 5.645
97.40000 9.357
97.42000 4.614
97.44000 2.953
97.46000 0.457
97.48000 2.919
97.50000 1.020
97.52000 3.539
97.54000 8.236
97.56000 10.844
97.58000 2.405
97.60000 5.361
97.62000 8.979
97.64000 3.828
97.66000 -0.092
97.68000 0.246
97.70000 4.875
97.72000 9.510
97.74000 2.743
97.76000 2.082
97.78000 2.155
97.80000 1.157
97.82000 4.992
97.84000 3.326
97.86000 3.387
97.88000 6.911
97.90000 4.671
97.92000 2.697
97.94000 -0.493
97.96000 0.394
97.98000 1.861
98.00000 3.922
98.02000 2.532
98.04000 3.447
98.06000 0.706
98.08000 -0.853
98.10000 -0.252
98.12000 2.233
98.14000 2.733
98.16000 2.135
98.18000 1.866
98.20000 13.258
98.22000 4.449
98.24000 2.772
98.26000 5.140
98.28000 8.506
98.30000 5.860
98.32000 6.214
98.34000 7.091
98.36000 3.182
98.38000 8.660
98.40000 3.095
98.42000 4.653
98.44000 0.555
98.46000 2.875
98.48000 4.776
98.50000 9.669
98.52000 2.422
98.54000 3.452
98.56000 -0.385
98.58000 -1.893
98.60000 0.527
98.62000 15.646
98.64000 12.576
98.66000 10.750
98.68000 16.779
98.70000 8.033
98.72000 5.347
98.74000 0.287
98.76000 3.876
98.78000 4.440
98.80000 1.467
98.82000 8.808
98.84000 4.391
98.86000 -2.025
98.88000 1.142
98.90000 2.223
98.92000 5.489
98.94000 4.516
98.96000 7.380
98.98000 10.428
99.00000 5.742
99.02000 5.520
99.04000 8.445
99.06000 7.571
99.08000 1.679
99.10000 -1.647
99.12000 0.117
99.14000 2.392
99.16000 1.536
99.18000 1.212
99.20000 -2.034
99.22000 3.381
99.24000 -0.516
99.26000 10.603
99.28000 2.386
99.30000 8.524
99.32000 14.198
99.34000 9.502
99.36000 5.852
99.38000 7.418
99.40000 9.525
99.42000 9.285
99.44000 5.716
99.46000 13.706
99.48000 9.267
99.50000 9.844
99.52000 12.469
99.54000 8.542
99.56000 9.976
99.58000 4.639
99.60000 14.144
99.62000 7.735
99.64000 3.686
99.66000 8.620
99.68000 6.335
99.70000 12.031
99.72000 12.114
99.74000 10.832
99.76000 18.177
99.78000 19.037
99.80000 18.259
99.82000 18.252
99.84000 19.654
99.86000 11.716
99.88000 16.338
99.90000 21.515
99.92000 17.227
99.94000 19.890
99.96000 7.363
99.98000 0.000
