'Id: "0011388" Comment: "Integrate frame 0011388_Au-Ir-Rh_Rh-rich_XRD-Mapping-018-0000.gfrmwith cursor Wedge Cursor #5" Operator: "B?rgel" Anode: "Cu" Wavelength: "1.5406" Scantype: "2Theta (TwoTheta)" TimePerStep: "1" X: "4.5" Y: "-36" Z: "5.95" 
10.00000 0.000
10.02000 -4.149
10.04000 -4.127
10.06000 1.744
10.08000 1.056
10.10000 18.167
10.12000 20.751
10.14000 21.055
10.16000 20.838
10.18000 26.545
10.20000 20.473
10.22000 19.719
10.24000 20.311
10.26000 16.946
10.28000 23.089
10.30000 18.691
10.32000 9.406
10.34000 1.391
10.36000 8.924
10.38000 8.988
10.40000 5.042
10.42000 9.368
10.44000 27.221
10.46000 22.603
10.48000 19.171
10.50000 25.906
10.52000 20.869
10.54000 17.242
10.56000 20.222
10.58000 20.916
10.60000 18.580
10.62000 3.589
10.64000 6.261
10.66000 5.620
10.68000 11.767
10.70000 22.693
10.72000 27.979
10.74000 20.256
10.76000 9.558
10.78000 13.698
10.80000 16.574
10.82000 15.361
10.84000 21.822
10.86000 19.054
10.88000 15.386
10.90000 12.366
10.92000 5.485
10.94000 -4.526
10.96000 15.378
10.98000 9.067
11.00000 5.191
11.02000 12.738
11.04000 4.751
11.06000 10.544
11.08000 25.717
11.10000 21.019
11.12000 13.944
11.14000 10.398
11.16000 5.613
11.18000 19.109
11.20000 20.708
11.22000 15.947
11.24000 16.242
11.26000 11.473
11.28000 11.685
11.30000 9.734
11.32000 5.725
11.34000 5.102
11.36000 10.342
11.38000 5.216
11.40000 11.072
11.42000 14.332
11.44000 33.890
11.46000 20.261
11.48000 20.365
11.50000 17.439
11.52000 15.660
11.54000 18.464
11.56000 24.163
11.58000 31.323
11.60000 28.797
11.62000 20.323
11.64000 21.064
11.66000 13.138
11.68000 11.556
11.70000 17.989
11.72000 18.249
11.74000 21.212
11.76000 17.555
11.78000 10.909
11.80000 14.754
11.82000 6.919
11.84000 7.136
11.86000 17.916
11.88000 16.990
11.90000 16.002
11.92000 20.423
11.94000 32.467
11.96000 19.567
11.98000 15.929
12.00000 11.303
12.02000 2.934
12.04000 8.285
12.06000 15.061
12.08000 8.952
12.10000 7.755
12.12000 13.985
12.14000 13.305
12.16000 14.875
12.18000 12.095
12.20000 9.863
12.22000 7.263
12.24000 16.175
12.26000 8.871
12.28000 11.211
12.30000 9.526
12.32000 7.359
12.34000 17.850
12.36000 14.694
12.38000 3.340
12.40000 18.298
12.42000 17.402
12.44000 22.178
12.46000 3.203
12.48000 9.758
12.50000 19.654
12.52000 13.927
12.54000 1.765
12.56000 -0.633
12.58000 3.864
12.60000 8.929
12.62000 11.823
12.64000 17.322
12.66000 7.881
12.68000 8.403
12.70000 6.208
12.72000 9.781
12.74000 15.482
12.76000 14.148
12.78000 18.912
12.80000 17.790
12.82000 13.052
12.84000 5.220
12.86000 10.733
12.88000 13.858
12.90000 12.547
12.92000 16.499
12.94000 17.517
12.96000 20.773
12.98000 17.584
13.00000 14.198
13.02000 15.871
13.04000 19.635
13.06000 14.562
13.08000 15.854
13.10000 12.035
13.12000 14.795
13.14000 8.573
13.16000 6.092
13.18000 10.696
13.20000 9.427
13.22000 8.632
13.24000 5.309
13.26000 18.161
13.28000 21.712
13.30000 7.900
13.32000 11.148
13.34000 10.854
13.36000 15.282
13.38000 4.688
13.40000 4.889
13.42000 5.311
13.44000 9.903
13.46000 17.411
13.48000 12.106
13.50000 4.705
13.52000 6.668
13.54000 15.797
13.56000 19.417
13.58000 9.454
13.60000 16.353
13.62000 16.133
13.64000 5.036
13.66000 6.589
13.68000 16.783
13.70000 9.950
13.72000 -0.432
13.74000 5.213
13.76000 10.391
13.78000 13.625
13.80000 16.210
13.82000 11.473
13.84000 11.726
13.86000 3.312
13.88000 3.698
13.90000 3.297
13.92000 3.237
13.94000 -3.455
13.96000 1.355
13.98000 14.111
14.00000 19.008
14.02000 13.166
14.04000 15.770
14.06000 14.461
14.08000 5.639
14.10000 2.353
14.12000 4.070
14.14000 5.705
14.16000 14.365
14.18000 7.735
14.20000 5.219
14.22000 5.721
14.24000 18.354
14.26000 12.813
14.28000 13.201
14.30000 11.230
14.32000 5.712
14.34000 7.122
14.36000 10.736
14.38000 17.536
14.40000 16.409
14.42000 1.652
14.44000 3.638
14.46000 5.188
14.48000 8.680
14.50000 3.850
14.52000 6.576
14.54000 12.312
14.56000 12.331
14.58000 4.820
14.60000 9.998
14.62000 8.422
14.64000 13.514
14.66000 14.673
14.68000 16.491
14.70000 2.881
14.72000 1.489
14.74000 5.724
14.76000 11.350
14.78000 11.119
14.80000 11.888
14.82000 1.468
14.84000 6.529
14.86000 14.230
14.88000 4.750
14.90000 5.075
14.92000 11.175
14.94000 5.396
14.96000 2.780
14.98000 -4.408
15.00000 2.812
15.02000 9.048
15.04000 15.476
15.06000 10.529
15.08000 8.690
15.10000 7.800
15.12000 4.067
15.14000 5.673
15.16000 7.178
15.18000 11.125
15.20000 9.271
15.22000 6.342
15.24000 7.007
15.26000 10.012
15.28000 15.155
15.30000 6.306
15.32000 10.869
15.34000 3.281
15.36000 -2.253
15.38000 2.699
15.40000 11.056
15.42000 4.507
15.44000 11.745
15.46000 12.013
15.48000 12.250
15.50000 7.202
15.52000 7.826
15.54000 5.232
15.56000 8.140
15.58000 9.368
15.60000 6.019
15.62000 2.786
15.64000 9.620
15.66000 10.294
15.68000 1.565
15.70000 4.338
15.72000 8.008
15.74000 10.198
15.76000 9.221
15.78000 2.901
15.80000 4.232
15.82000 7.386
15.84000 9.583
15.86000 1.056
15.88000 8.210
15.90000 8.044
15.92000 4.799
15.94000 5.277
15.96000 2.102
15.98000 9.982
16.00000 7.289
16.02000 4.985
16.04000 3.404
16.06000 5.469
16.08000 4.122
16.10000 5.202
16.12000 2.003
16.14000 5.384
16.16000 10.854
16.18000 2.511
16.20000 -0.337
16.22000 11.478
16.24000 5.627
16.26000 10.558
16.28000 6.894
16.30000 -0.220
16.32000 2.160
16.34000 8.382
16.36000 10.398
16.38000 6.572
16.40000 -1.039
16.42000 1.784
16.44000 4.518
16.46000 7.228
16.48000 2.378
16.50000 3.980
16.52000 4.079
16.54000 4.837
16.56000 6.149
16.58000 6.548
16.60000 7.577
16.62000 3.270
16.64000 2.433
16.66000 5.259
16.68000 19.437
16.70000 17.754
16.72000 15.519
16.74000 10.771
16.76000 10.931
16.78000 15.780
16.80000 12.537
16.82000 17.395
16.84000 15.278
16.86000 1.567
16.88000 5.183
16.90000 3.158
16.92000 0.525
16.94000 -4.362
16.96000 -2.330
16.98000 1.469
17.00000 6.271
17.02000 9.301
17.04000 5.746
17.06000 10.536
17.08000 11.462
17.10000 11.042
17.12000 8.613
17.14000 6.355
17.16000 5.357
17.18000 5.919
17.20000 9.873
17.22000 5.782
17.24000 1.278
17.26000 1.879
17.28000 6.624
17.30000 8.819
17.32000 5.985
17.34000 3.369
17.36000 -1.148
17.38000 3.102
17.40000 8.055
17.42000 9.423
17.44000 7.115
17.46000 6.708
17.48000 8.628
17.50000 12.360
17.52000 8.721
17.54000 1.541
17.56000 12.866
17.58000 13.570
17.60000 5.010
17.62000 1.489
17.64000 9.953
17.66000 9.227
17.68000 5.152
17.70000 -2.300
17.72000 3.187
17.74000 5.169
17.76000 12.093
17.78000 8.454
17.80000 4.963
17.82000 1.097
17.84000 4.496
17.86000 8.420
17.88000 5.947
17.90000 0.905
17.92000 3.225
17.94000 4.220
17.96000 2.972
17.98000 8.647
18.00000 6.117
18.02000 2.083
18.04000 7.480
18.06000 6.478
18.08000 8.185
18.10000 4.613
18.12000 6.551
18.14000 6.036
18.16000 2.655
18.18000 11.362
18.20000 3.243
18.22000 3.561
18.24000 5.797
18.26000 8.414
18.28000 4.154
18.30000 7.633
18.32000 5.754
18.34000 7.496
18.36000 4.263
18.38000 1.204
18.40000 6.379
18.42000 4.647
18.44000 -4.253
18.46000 0.653
18.48000 0.014
18.50000 -1.484
18.52000 -1.256
18.54000 7.524
18.56000 13.379
18.58000 1.052
18.60000 2.226
18.62000 10.306
18.64000 12.364
18.66000 5.030
18.68000 7.177
18.70000 8.725
18.72000 8.081
18.74000 8.581
18.76000 10.783
18.78000 9.502
18.80000 2.535
18.82000 -0.021
18.84000 4.423
18.86000 5.266
18.88000 6.544
18.90000 6.910
18.92000 7.062
18.94000 9.589
18.96000 9.832
18.98000 7.061
19.00000 6.818
19.02000 -1.230
19.04000 3.273
19.06000 1.472
19.08000 -4.219
19.10000 2.185
19.12000 0.672
19.14000 0.803
19.16000 -1.181
19.18000 -0.608
19.20000 4.131
19.22000 2.714
19.24000 4.856
19.26000 9.894
19.28000 5.999
19.30000 9.898
19.32000 12.190
19.34000 5.763
19.36000 3.026
19.38000 4.053
19.40000 5.829
19.42000 5.684
19.44000 13.332
19.46000 11.229
19.48000 8.444
19.50000 0.068
19.52000 -0.033
19.54000 10.370
19.56000 15.901
19.58000 16.820
19.60000 11.700
19.62000 5.206
19.64000 6.724
19.66000 13.628
19.68000 14.130
19.70000 5.081
19.72000 2.458
19.74000 -1.659
19.76000 0.149
19.78000 2.468
19.80000 1.762
19.82000 3.729
19.84000 1.785
19.86000 3.332
19.88000 4.054
19.90000 5.027
19.92000 4.678
19.94000 6.395
19.96000 7.079
19.98000 5.608
20.00000 12.675
20.02000 10.179
20.04000 8.208
20.06000 9.438
20.08000 8.283
20.10000 8.932
20.12000 4.658
20.14000 0.301
20.16000 -0.935
20.18000 1.550
20.20000 6.800
20.22000 -0.564
20.24000 -4.152
20.26000 3.716
20.28000 5.218
20.30000 5.581
20.32000 11.001
20.34000 3.970
20.36000 5.701
20.38000 6.764
20.40000 -1.143
20.42000 -4.139
20.44000 -2.275
20.46000 4.135
20.48000 5.538
20.50000 5.325
20.52000 11.087
20.54000 12.025
20.56000 5.350
20.58000 -3.354
20.60000 -1.876
20.62000 0.348
20.64000 1.176
20.66000 7.049
20.68000 9.114
20.70000 2.282
20.72000 3.084
20.74000 4.259
20.76000 7.019
20.78000 3.800
20.80000 3.691
20.82000 5.361
20.84000 8.084
20.86000 6.135
20.88000 10.622
20.90000 -4.008
20.92000 -0.489
20.94000 1.547
20.96000 3.132
20.98000 1.207
21.00000 0.317
21.02000 3.860
21.04000 7.199
21.06000 4.183
21.08000 0.466
21.10000 -2.071
21.12000 -0.129
21.14000 -0.462
21.16000 1.861
21.18000 2.884
21.20000 4.812
21.22000 8.491
21.24000 7.316
21.26000 8.014
21.28000 2.322
21.30000 2.819
21.32000 3.128
21.34000 0.980
21.36000 4.567
21.38000 3.764
21.40000 6.899
21.42000 11.171
21.44000 4.801
21.46000 1.548
21.48000 12.435
21.50000 9.303
21.52000 4.601
21.54000 4.111
21.56000 4.012
21.58000 0.780
21.60000 2.098
21.62000 1.520
21.64000 2.723
21.66000 3.459
21.68000 4.078
21.70000 3.800
21.72000 2.017
21.74000 1.592
21.76000 1.263
21.78000 2.315
21.80000 -2.397
21.82000 1.513
21.84000 -0.622
21.86000 3.388
21.88000 5.498
21.90000 5.432
21.92000 5.608
21.94000 2.482
21.96000 1.391
21.98000 5.382
22.00000 5.978
22.02000 5.189
22.04000 4.339
22.06000 0.861
22.08000 -2.687
22.10000 3.712
22.12000 7.911
22.14000 4.323
22.16000 2.709
22.18000 5.705
22.20000 8.837
22.22000 2.171
22.24000 3.587
22.26000 1.283
22.28000 -0.732
22.30000 8.792
22.32000 9.835
22.34000 2.566
22.36000 0.139
22.38000 5.094
22.40000 1.635
22.42000 2.319
22.44000 4.055
22.46000 12.312
22.48000 11.397
22.50000 8.660
22.52000 12.648
22.54000 9.784
22.56000 5.662
22.58000 10.153
22.60000 4.884
22.62000 1.228
22.64000 3.277
22.66000 6.564
22.68000 8.361
22.70000 1.294
22.72000 -3.974
22.74000 -3.973
22.76000 5.201
22.78000 8.582
22.80000 12.243
22.82000 11.823
22.84000 13.741
22.86000 6.241
22.88000 5.572
22.90000 12.169
22.92000 11.943
22.94000 9.632
22.96000 6.933
22.98000 6.156
23.00000 8.812
23.02000 10.918
23.04000 2.497
23.06000 -0.971
23.08000 1.917
23.10000 3.148
23.12000 7.925
23.14000 8.574
23.16000 12.272
23.18000 5.890
23.20000 1.410
23.22000 3.824
23.24000 8.241
23.26000 7.863
23.28000 4.636
23.30000 6.417
23.32000 8.804
23.34000 9.342
23.36000 5.306
23.38000 3.470
23.40000 7.670
23.42000 6.272
23.44000 7.482
23.46000 8.886
23.48000 14.647
23.50000 6.889
23.52000 8.703
23.54000 9.568
23.56000 2.763
23.58000 6.324
23.60000 10.362
23.62000 5.342
23.64000 0.741
23.66000 -1.136
23.68000 5.635
23.70000 5.619
23.72000 6.643
23.74000 8.786
23.76000 7.841
23.78000 6.121
23.80000 3.986
23.82000 5.989
23.84000 -0.138
23.86000 0.478
23.88000 6.971
23.90000 2.696
23.92000 3.604
23.94000 4.948
23.96000 1.417
23.98000 -3.941
24.00000 2.984
24.02000 -0.701
24.04000 -2.667
24.06000 5.096
24.08000 7.845
24.10000 8.809
24.12000 12.762
24.14000 1.055
24.16000 1.109
24.18000 7.885
24.20000 6.414
24.22000 5.797
24.24000 4.447
24.26000 5.677
24.28000 11.411
24.30000 6.164
24.32000 2.870
24.34000 8.812
24.36000 9.053
24.38000 7.282
24.40000 4.348
24.42000 0.190
24.44000 3.792
24.46000 3.857
24.48000 6.097
24.50000 10.135
24.52000 10.634
24.54000 5.467
24.56000 6.553
24.58000 7.764
24.60000 6.696
24.62000 6.879
24.64000 3.698
24.66000 0.716
24.68000 -0.168
24.70000 1.714
24.72000 -0.096
24.74000 -0.283
24.76000 -0.539
24.78000 -3.899
24.80000 -2.376
24.82000 3.098
24.84000 3.979
24.86000 5.628
24.88000 9.617
24.90000 13.832
24.92000 10.259
24.94000 5.025
24.96000 8.812
24.98000 6.541
25.00000 2.506
25.02000 3.373
25.04000 1.230
25.06000 4.526
25.08000 6.838
25.10000 2.751
25.12000 -0.894
25.14000 6.403
25.16000 10.419
25.18000 11.474
25.20000 6.782
25.22000 8.006
25.24000 9.288
25.26000 6.641
25.28000 -1.598
25.30000 1.513
25.32000 3.380
25.34000 3.843
25.36000 -1.287
25.38000 -0.127
25.40000 6.001
25.42000 4.433
25.44000 0.014
25.46000 1.268
25.48000 5.832
25.50000 7.173
25.52000 3.741
25.54000 -3.801
25.56000 -0.951
25.58000 0.703
25.60000 2.173
25.62000 -3.850
25.64000 -1.713
25.66000 2.548
25.68000 3.692
25.70000 6.830
25.72000 6.575
25.74000 5.520
25.76000 8.210
25.78000 10.474
25.80000 4.872
25.82000 2.478
25.84000 6.311
25.86000 7.922
25.88000 5.216
25.90000 1.429
25.92000 -1.965
25.94000 0.469
25.96000 0.643
25.98000 -3.263
26.00000 2.016
26.02000 6.011
26.04000 2.784
26.06000 2.544
26.08000 1.006
26.10000 -2.262
26.12000 -3.831
26.14000 -0.121
26.16000 5.726
26.18000 5.291
26.20000 0.882
26.22000 2.753
26.24000 6.654
26.26000 4.352
26.28000 -0.569
26.30000 0.789
26.32000 1.060
26.34000 -0.929
26.36000 -0.149
26.38000 4.046
26.40000 1.242
26.42000 -0.165
26.44000 -1.942
26.46000 1.447
26.48000 -2.606
26.50000 4.426
26.52000 8.905
26.54000 7.652
26.56000 3.097
26.58000 2.275
26.60000 2.705
26.62000 0.906
26.64000 2.553
26.66000 3.676
26.68000 0.112
26.70000 3.374
26.72000 1.774
26.74000 0.739
26.76000 1.745
26.78000 1.612
26.80000 1.990
26.82000 0.464
26.84000 0.583
26.86000 0.325
26.88000 0.199
26.90000 0.472
26.92000 0.813
26.94000 2.654
26.96000 2.206
26.98000 3.175
27.00000 2.931
27.02000 6.517
27.04000 7.995
27.06000 6.316
27.08000 -3.806
27.10000 0.004
27.12000 0.171
27.14000 2.522
27.16000 6.858
27.18000 2.935
27.20000 7.213
27.22000 8.914
27.24000 7.519
27.26000 6.909
27.28000 6.667
27.30000 2.341
27.32000 4.056
27.34000 8.078
27.36000 4.204
27.38000 1.853
27.40000 1.384
27.42000 0.625
27.44000 4.944
27.46000 7.372
27.48000 2.700
27.50000 6.893
27.52000 5.649
27.54000 5.191
27.56000 3.748
27.58000 1.894
27.60000 1.167
27.62000 -1.947
27.64000 -1.563
27.66000 -3.782
27.68000 -0.636
27.70000 0.121
27.72000 1.598
27.74000 5.527
27.76000 5.371
27.78000 4.740
27.80000 3.542
27.82000 0.640
27.84000 4.714
27.86000 7.170
27.88000 3.891
27.90000 -0.469
27.92000 0.106
27.94000 -1.321
27.96000 1.806
27.98000 4.810
28.00000 0.224
28.02000 3.906
28.04000 3.155
28.06000 -0.165
28.08000 -2.483
28.10000 -0.385
28.12000 1.482
28.14000 -1.099
28.16000 -3.759
28.18000 2.230
28.20000 3.214
28.22000 0.602
28.24000 2.513
28.26000 4.998
28.28000 6.091
28.30000 -0.291
28.32000 -2.944
28.34000 -2.668
28.36000 3.456
28.38000 3.134
28.40000 1.503
28.42000 -0.873
28.44000 1.833
28.46000 0.492
28.48000 2.994
28.50000 5.709
28.52000 2.143
28.54000 -3.740
28.56000 -3.023
28.58000 -0.464
28.60000 1.192
28.62000 3.423
28.64000 1.471
28.66000 5.531
28.68000 4.398
28.70000 7.843
28.72000 -1.124
28.74000 0.873
28.76000 5.669
28.78000 3.424
28.80000 5.730
28.82000 4.667
28.84000 3.463
28.86000 3.641
28.88000 0.579
28.90000 1.702
28.92000 1.654
28.94000 -2.348
28.96000 -0.297
28.98000 2.532
29.00000 0.765
29.02000 5.394
29.04000 3.658
29.06000 1.532
29.08000 -2.285
29.10000 -1.245
29.12000 2.282
29.14000 2.626
29.16000 -2.504
29.18000 -0.010
29.20000 2.287
29.22000 4.693
29.24000 4.229
29.26000 -2.560
29.28000 0.678
29.30000 2.263
29.32000 -2.322
29.34000 -0.488
29.36000 2.453
29.38000 -2.478
29.40000 -2.357
29.42000 -0.553
29.44000 0.766
29.46000 3.493
29.48000 3.487
29.50000 4.186
29.52000 0.192
29.54000 -1.822
29.56000 -1.426
29.58000 3.759
29.60000 3.620
29.62000 0.163
29.64000 -2.849
29.66000 1.130
29.68000 -2.496
29.70000 -1.344
29.72000 5.923
29.74000 6.906
29.76000 3.174
29.78000 -3.668
29.80000 1.254
29.82000 2.741
29.84000 1.817
29.86000 0.479
29.88000 5.149
29.90000 2.578
29.92000 0.128
29.94000 -1.720
29.96000 -2.920
29.98000 -0.966
30.00000 0.537
30.02000 0.033
30.04000 0.877
30.06000 0.588
30.08000 0.449
30.10000 -2.209
30.12000 2.004
30.14000 5.617
30.16000 4.645
30.18000 1.645
30.20000 4.484
30.22000 6.203
30.24000 1.587
30.26000 4.689
30.28000 5.964
30.30000 3.419
30.32000 1.870
30.34000 -2.534
30.36000 0.717
30.38000 8.460
30.40000 5.694
30.42000 0.212
30.44000 2.721
30.46000 3.022
30.48000 1.658
30.50000 1.059
30.52000 -1.019
30.54000 -2.105
30.56000 3.124
30.58000 2.629
30.60000 0.921
30.62000 1.279
30.64000 1.657
30.66000 2.068
30.68000 1.413
30.70000 4.107
30.72000 4.121
30.74000 1.757
30.76000 2.620
30.78000 2.843
30.80000 1.531
30.82000 1.798
30.84000 3.783
30.86000 -1.165
30.88000 0.410
30.90000 3.314
30.92000 3.868
30.94000 0.266
30.96000 0.762
30.98000 4.459
31.00000 4.364
31.02000 1.112
31.04000 3.543
31.06000 0.464
31.08000 -1.745
31.10000 0.872
31.12000 -1.127
31.14000 4.055
31.16000 2.858
31.18000 2.823
31.20000 6.628
31.22000 -0.665
31.24000 -3.604
31.26000 -1.975
31.28000 1.123
31.30000 1.246
31.32000 1.976
31.34000 4.623
31.36000 2.812
31.38000 0.358
31.40000 0.745
31.42000 4.664
31.44000 3.778
31.46000 3.018
31.48000 1.108
31.50000 5.531
31.52000 5.003
31.54000 4.739
31.56000 10.873
31.58000 2.906
31.60000 2.288
31.62000 3.084
31.64000 2.616
31.66000 1.815
31.68000 -1.285
31.70000 0.374
31.72000 5.823
31.74000 2.880
31.76000 0.383
31.78000 0.703
31.80000 4.219
31.82000 6.751
31.84000 8.541
31.86000 5.028
31.88000 3.373
31.90000 1.468
31.92000 -0.010
31.94000 -1.343
31.96000 2.881
31.98000 1.737
32.00000 2.674
32.02000 0.539
32.04000 -1.612
32.06000 -3.559
32.08000 1.084
32.10000 3.736
32.12000 5.725
32.14000 1.728
32.16000 4.019
32.18000 3.082
32.20000 -2.470
32.22000 1.150
32.24000 2.644
32.26000 5.920
32.28000 6.038
32.30000 0.468
32.32000 -1.294
32.34000 1.859
32.36000 8.513
32.38000 8.304
32.40000 3.796
32.42000 2.112
32.44000 5.739
32.46000 6.654
32.48000 7.360
32.50000 3.788
32.52000 0.249
32.54000 2.440
32.56000 0.232
32.58000 4.493
32.60000 2.518
32.62000 0.374
32.64000 10.028
32.66000 10.007
32.68000 5.176
32.70000 2.724
32.72000 7.122
32.74000 8.920
32.76000 5.596
32.78000 4.081
32.80000 -2.435
32.82000 5.162
32.84000 7.488
32.86000 4.429
32.88000 1.541
32.90000 0.421
32.92000 8.161
32.94000 5.175
32.96000 3.471
32.98000 2.554
33.00000 4.064
33.02000 5.401
33.04000 2.827
33.06000 3.356
33.08000 5.543
33.10000 2.921
33.12000 5.218
33.14000 6.028
33.16000 2.744
33.18000 2.788
33.20000 -3.510
33.22000 2.344
33.24000 6.271
33.26000 8.466
33.28000 7.341
33.30000 6.969
33.32000 7.618
33.34000 3.463
33.36000 7.575
33.38000 3.833
33.40000 3.805
33.42000 4.822
33.44000 6.014
33.46000 8.203
33.48000 12.513
33.50000 5.303
33.52000 0.206
33.54000 -0.636
33.56000 4.869
33.58000 5.320
33.60000 2.438
33.62000 4.733
33.64000 5.978
33.66000 -0.989
33.68000 0.101
33.70000 2.310
33.72000 3.396
33.74000 3.472
33.76000 2.565
33.78000 -2.507
33.80000 -0.902
33.82000 4.840
33.84000 3.810
33.86000 4.339
33.88000 5.013
33.90000 8.101
33.92000 5.665
33.94000 0.815
33.96000 3.486
33.98000 6.774
34.00000 2.232
34.02000 -1.734
34.04000 1.087
34.06000 3.844
34.08000 3.503
34.10000 4.702
34.12000 0.081
34.14000 2.197
34.16000 5.991
34.18000 6.284
34.20000 3.611
34.22000 1.654
34.24000 3.441
34.26000 4.555
34.28000 6.435
34.30000 2.854
34.32000 3.087
34.34000 2.055
34.36000 2.910
34.38000 0.363
34.40000 2.565
34.42000 -2.903
34.44000 3.987
34.46000 6.459
34.48000 12.105
34.50000 6.926
34.52000 0.647
34.54000 -1.974
34.56000 -0.196
34.58000 2.846
34.60000 4.815
34.62000 6.646
34.64000 6.786
34.66000 7.599
34.68000 4.646
34.70000 7.189
34.72000 5.697
34.74000 6.676
34.76000 6.772
34.78000 6.701
34.80000 6.011
34.82000 3.690
34.84000 2.962
34.86000 -0.053
34.88000 2.310
34.90000 1.359
34.92000 1.767
34.94000 -1.039
34.96000 -3.441
34.98000 -0.507
35.00000 3.642
35.02000 2.678
35.04000 -1.113
35.06000 4.191
35.08000 6.683
35.10000 1.657
35.12000 1.434
35.14000 1.947
35.16000 3.382
35.18000 3.820
35.20000 4.575
35.22000 7.737
35.24000 9.040
35.26000 6.098
35.28000 3.789
35.30000 3.573
35.32000 1.340
35.34000 8.300
35.36000 7.503
35.38000 5.888
35.40000 1.888
35.42000 4.244
35.44000 7.563
35.46000 5.626
35.48000 4.023
35.50000 6.019
35.52000 0.619
35.54000 -0.159
35.56000 3.023
35.58000 6.227
35.60000 4.075
35.62000 4.947
35.64000 5.904
35.66000 2.817
35.68000 0.537
35.70000 2.135
35.72000 -0.321
35.74000 2.199
35.76000 0.599
35.78000 1.404
35.80000 3.769
35.82000 0.839
35.84000 1.914
35.86000 2.277
35.88000 -0.076
35.90000 3.056
35.92000 10.644
35.94000 2.419
35.96000 -0.016
35.98000 3.861
36.00000 4.015
36.02000 0.214
36.04000 3.459
36.06000 7.406
36.08000 5.897
36.10000 5.311
36.12000 -1.647
36.14000 -3.426
36.16000 3.158
36.18000 4.449
36.20000 4.474
36.22000 6.000
36.24000 0.112
36.26000 1.600
36.28000 3.730
36.30000 2.912
36.32000 3.448
36.34000 2.470
36.36000 5.856
36.38000 4.935
36.40000 6.723
36.42000 6.720
36.44000 2.925
36.46000 -2.170
36.48000 -0.242
36.50000 -1.907
36.52000 -2.320
36.54000 -2.782
36.56000 3.690
36.58000 2.416
36.60000 0.381
36.62000 1.305
36.64000 3.446
36.66000 1.692
36.68000 -1.484
36.70000 -1.219
36.72000 2.479
36.74000 0.749
36.76000 5.912
36.78000 8.633
36.80000 7.438
36.82000 7.123
36.84000 4.375
36.86000 1.359
36.88000 3.499
36.90000 8.504
36.92000 4.302
36.94000 0.489
36.96000 1.356
36.98000 3.789
37.00000 4.556
37.02000 -2.653
37.04000 -0.361
37.06000 1.367
37.08000 -1.505
37.10000 5.464
37.12000 3.937
37.14000 -3.454
37.16000 -3.483
37.18000 4.979
37.20000 5.173
37.22000 2.786
37.24000 4.370
37.26000 1.483
37.28000 -0.990
37.30000 -1.820
37.32000 -1.098
37.34000 0.505
37.36000 0.558
37.38000 2.921
37.40000 1.325
37.42000 4.812
37.44000 7.697
37.46000 5.435
37.48000 2.866
37.50000 -0.214
37.52000 5.676
37.54000 3.288
37.56000 -2.103
37.58000 0.219
37.60000 0.375
37.62000 4.215
37.64000 2.564
37.66000 1.350
37.68000 -2.017
37.70000 -3.187
37.72000 -1.810
37.74000 2.509
37.76000 2.705
37.78000 2.030
37.80000 -1.212
37.82000 -1.858
37.84000 -0.410
37.86000 0.159
37.88000 -3.570
37.90000 -1.632
37.92000 -0.119
37.94000 3.575
37.96000 -1.111
37.98000 1.911
38.00000 1.464
38.02000 -3.214
38.04000 1.873
38.06000 1.942
38.08000 2.369
38.10000 5.406
38.12000 2.834
38.14000 4.582
38.16000 3.593
38.18000 4.603
38.20000 3.583
38.22000 0.948
38.24000 4.762
38.26000 1.738
38.28000 8.454
38.30000 9.348
38.32000 6.411
38.34000 2.511
38.36000 6.148
38.38000 8.077
38.40000 7.725
38.42000 6.065
38.44000 12.479
38.46000 14.507
38.48000 14.810
38.50000 11.640
38.52000 10.762
38.54000 17.365
38.56000 12.719
38.58000 7.817
38.60000 11.824
38.62000 11.325
38.64000 8.816
38.66000 8.412
38.68000 11.499
38.70000 13.578
38.72000 17.086
38.74000 14.014
38.76000 12.903
38.78000 14.195
38.80000 13.562
38.82000 21.338
38.84000 19.480
38.86000 14.955
38.88000 17.402
38.90000 16.369
38.92000 16.179
38.94000 16.593
38.96000 17.687
38.98000 16.934
39.00000 19.353
39.02000 23.888
39.04000 21.133
39.06000 25.062
39.08000 22.683
39.10000 23.438
39.12000 19.934
39.14000 31.060
39.16000 31.340
39.18000 29.969
39.20000 31.473
39.22000 35.000
39.24000 37.378
39.26000 32.224
39.28000 30.313
39.30000 33.807
39.32000 39.499
39.34000 39.347
39.36000 43.929
39.38000 38.374
39.40000 41.048
39.42000 49.271
39.44000 49.033
39.46000 53.343
39.48000 51.055
39.50000 50.638
39.52000 55.282
39.54000 56.395
39.56000 55.435
39.58000 58.656
39.60000 65.177
39.62000 69.848
39.64000 73.157
39.66000 77.301
39.68000 76.229
39.70000 82.303
39.72000 84.201
39.74000 89.831
39.76000 98.092
39.78000 100.973
39.80000 100.565
39.82000 100.780
39.84000 110.643
39.86000 112.750
39.88000 119.166
39.90000 132.754
39.92000 138.908
39.94000 141.080
39.96000 152.866
39.98000 157.878
40.00000 162.698
40.02000 175.974
40.04000 184.829
40.06000 193.542
40.08000 199.758
40.10000 208.934
40.12000 219.564
40.14000 229.657
40.16000 238.444
40.18000 254.669
40.20000 264.110
40.22000 282.583
40.24000 301.673
40.26000 319.530
40.28000 330.378
40.30000 345.710
40.32000 355.138
40.34000 369.005
40.36000 382.639
40.38000 400.393
40.40000 418.061
40.42000 434.453
40.44000 445.702
40.46000 461.015
40.48000 474.292
40.50000 483.158
40.52000 499.380
40.54000 513.327
40.56000 521.023
40.58000 528.784
40.60000 544.284
40.62000 558.455
40.64000 560.357
40.66000 555.695
40.68000 566.034
40.70000 565.780
40.72000 561.899
40.74000 571.352
40.76000 567.190
40.78000 572.838
40.80000 562.449
40.82000 546.825
40.84000 532.397
40.86000 517.427
40.88000 508.964
40.90000 501.206
40.92000 492.127
40.94000 481.418
40.96000 464.505
40.98000 445.990
41.00000 428.723
41.02000 411.956
41.04000 398.647
41.06000 380.599
41.08000 363.581
41.10000 351.894
41.12000 335.031
41.14000 325.587
41.16000 313.115
41.18000 297.148
41.20000 278.318
41.22000 265.914
41.24000 253.248
41.26000 241.670
41.28000 228.440
41.30000 218.385
41.32000 208.103
41.34000 190.792
41.36000 186.865
41.38000 177.603
41.40000 173.632
41.42000 166.183
41.44000 161.190
41.46000 145.405
41.48000 138.513
41.50000 126.569
41.52000 121.514
41.54000 112.151
41.56000 107.721
41.58000 100.761
41.60000 99.367
41.62000 92.772
41.64000 83.315
41.66000 83.806
41.68000 81.852
41.70000 79.169
41.72000 72.183
41.74000 65.308
41.76000 56.239
41.78000 56.869
41.80000 55.380
41.82000 53.677
41.84000 56.188
41.86000 44.817
41.88000 49.519
41.90000 47.390
41.92000 43.086
41.94000 42.578
41.96000 42.695
41.98000 35.310
42.00000 37.875
42.02000 37.720
42.04000 36.911
42.06000 29.965
42.08000 26.193
42.10000 25.944
42.12000 24.504
42.14000 23.542
42.16000 23.101
42.18000 28.088
42.20000 27.035
42.22000 21.504
42.24000 18.851
42.26000 20.864
42.28000 17.763
42.30000 16.139
42.32000 16.561
42.34000 14.593
42.36000 15.425
42.38000 14.675
42.40000 14.842
42.42000 18.373
42.44000 20.515
42.46000 16.207
42.48000 12.690
42.50000 10.622
42.52000 10.298
42.54000 13.353
42.56000 11.186
42.58000 6.057
42.60000 4.405
42.62000 6.932
42.64000 9.327
42.66000 9.105
42.68000 4.543
42.70000 4.587
42.72000 5.623
42.74000 3.585
42.76000 5.545
42.78000 9.250
42.80000 4.014
42.82000 8.459
42.84000 7.436
42.86000 5.385
42.88000 3.043
42.90000 2.197
42.92000 -1.057
42.94000 1.623
42.96000 2.458
42.98000 6.008
43.00000 5.449
43.02000 3.738
43.04000 1.003
43.06000 -0.914
43.08000 3.074
43.10000 2.575
43.12000 2.638
43.14000 3.026
43.16000 5.189
43.18000 2.608
43.20000 -1.161
43.22000 -0.185
43.24000 -0.527
43.26000 -3.255
43.28000 5.123
43.30000 4.305
43.32000 4.919
43.34000 1.272
43.36000 0.003
43.38000 -2.943
43.40000 -1.096
43.42000 3.322
43.44000 4.467
43.46000 0.392
43.48000 5.570
43.50000 7.355
43.52000 4.553
43.54000 0.422
43.56000 1.584
43.58000 -0.529
43.60000 3.743
43.62000 4.322
43.64000 4.010
43.66000 1.815
43.68000 4.738
43.70000 3.551
43.72000 -0.426
43.74000 1.801
43.76000 5.546
43.78000 6.709
43.80000 3.697
43.82000 5.154
43.84000 4.931
43.86000 6.664
43.88000 7.832
43.90000 4.358
43.92000 0.128
43.94000 -3.394
43.96000 0.744
43.98000 4.254
44.00000 -0.507
44.02000 0.676
44.04000 5.372
44.06000 2.562
44.08000 3.722
44.10000 4.318
44.12000 2.890
44.14000 5.477
44.16000 2.374
44.18000 2.395
44.20000 3.876
44.22000 0.826
44.24000 4.873
44.26000 6.885
44.28000 3.917
44.30000 8.794
44.32000 6.766
44.34000 1.700
44.36000 2.353
44.38000 4.240
44.40000 2.003
44.42000 6.324
44.44000 2.597
44.46000 4.145
44.48000 0.745
44.50000 1.518
44.52000 4.084
44.54000 1.108
44.56000 1.048
44.58000 -0.299
44.60000 -3.359
44.62000 -0.653
44.64000 3.597
44.66000 0.940
44.68000 3.508
44.70000 4.224
44.72000 9.492
44.74000 3.533
44.76000 3.341
44.78000 1.534
44.80000 0.825
44.82000 -3.015
44.84000 -3.030
44.86000 0.433
44.88000 0.988
44.90000 3.514
44.92000 0.256
44.94000 -3.347
44.96000 5.212
44.98000 6.033
45.00000 3.751
45.02000 6.198
45.04000 4.955
45.06000 7.714
45.08000 8.609
45.10000 8.658
45.12000 2.701
45.14000 -0.069
45.16000 3.588
45.18000 1.930
45.20000 2.292
45.22000 2.807
45.24000 2.443
45.26000 10.019
45.28000 5.285
45.30000 0.829
45.32000 5.812
45.34000 7.219
45.36000 4.826
45.38000 3.281
45.40000 6.982
45.42000 2.278
45.44000 5.109
45.46000 6.348
45.48000 8.571
45.50000 9.071
45.52000 8.035
45.54000 10.993
45.56000 12.680
45.58000 10.618
45.60000 13.497
45.62000 6.022
45.64000 7.588
45.66000 9.326
45.68000 7.966
45.70000 5.308
45.72000 7.821
45.74000 12.120
45.76000 11.791
45.78000 10.832
45.80000 8.386
45.82000 11.092
45.84000 12.649
45.86000 10.171
45.88000 9.938
45.90000 14.525
45.92000 10.009
45.94000 13.702
45.96000 8.874
45.98000 15.371
46.00000 16.107
46.02000 17.366
46.04000 22.026
46.06000 22.350
46.08000 13.493
46.10000 15.789
46.12000 18.784
46.14000 15.691
46.16000 16.845
46.18000 19.574
46.20000 22.248
46.22000 22.542
46.24000 27.003
46.26000 19.872
46.28000 17.643
46.30000 18.132
46.32000 15.361
46.34000 22.408
46.36000 30.820
46.38000 35.483
46.40000 32.844
46.42000 31.361
46.44000 33.423
46.46000 32.455
46.48000 32.878
46.50000 35.554
46.52000 32.918
46.54000 35.810
46.56000 37.539
46.58000 37.646
46.60000 37.000
46.62000 34.603
46.64000 39.265
46.66000 40.987
46.68000 42.942
46.70000 40.155
46.72000 43.873
46.74000 43.011
46.76000 47.670
46.78000 49.920
46.80000 54.154
46.82000 48.460
46.84000 46.600
46.86000 51.769
46.88000 47.962
46.90000 54.432
46.92000 59.243
46.94000 59.499
46.96000 57.143
46.98000 56.274
47.00000 59.717
47.02000 61.729
47.04000 60.382
47.06000 63.147
47.08000 61.636
47.10000 66.063
47.12000 66.075
47.14000 63.617
47.16000 58.325
47.18000 65.933
47.20000 64.288
47.22000 61.887
47.24000 63.021
47.26000 61.183
47.28000 63.320
47.30000 71.681
47.32000 69.165
47.34000 69.750
47.36000 70.048
47.38000 70.723
47.40000 66.025
47.42000 63.163
47.44000 60.538
47.46000 58.759
47.48000 62.109
47.50000 59.379
47.52000 60.922
47.54000 64.644
47.56000 57.318
47.58000 53.486
47.60000 53.633
47.62000 61.529
47.64000 64.819
47.66000 57.539
47.68000 55.651
47.70000 52.316
47.72000 46.241
47.74000 47.100
47.76000 45.964
47.78000 42.616
47.80000 44.221
47.82000 43.412
47.84000 41.884
47.86000 35.483
47.88000 35.697
47.90000 38.879
47.92000 37.631
47.94000 38.902
47.96000 36.867
47.98000 28.686
48.00000 28.652
48.02000 34.342
48.04000 28.067
48.06000 25.591
48.08000 27.851
48.10000 29.524
48.12000 29.597
48.14000 29.219
48.16000 28.025
48.18000 22.647
48.20000 21.157
48.22000 24.664
48.24000 18.685
48.26000 19.525
48.28000 21.240
48.30000 19.179
48.32000 15.806
48.34000 18.796
48.36000 13.959
48.38000 13.142
48.40000 12.948
48.42000 8.558
48.44000 12.905
48.46000 14.016
48.48000 15.632
48.50000 14.232
48.52000 9.975
48.54000 7.624
48.56000 15.467
48.58000 15.361
48.60000 10.746
48.62000 5.718
48.64000 8.948
48.66000 8.810
48.68000 9.770
48.70000 10.893
48.72000 8.007
48.74000 4.650
48.76000 4.239
48.78000 2.845
48.80000 7.257
48.82000 5.580
48.84000 5.032
48.86000 8.268
48.88000 7.168
48.90000 5.976
48.92000 1.134
48.94000 1.402
48.96000 -1.149
48.98000 -1.961
49.00000 2.194
49.02000 3.300
49.04000 3.226
49.06000 7.244
49.08000 4.798
49.10000 4.314
49.12000 -0.357
49.14000 0.308
49.16000 2.045
49.18000 3.481
49.20000 2.956
49.22000 3.165
49.24000 2.690
49.26000 -0.168
49.28000 6.758
49.30000 1.145
49.32000 -2.975
49.34000 4.201
49.36000 5.660
49.38000 4.854
49.40000 3.533
49.42000 2.753
49.44000 7.472
49.46000 12.142
49.48000 7.357
49.50000 1.433
49.52000 3.864
49.54000 0.611
49.56000 3.794
49.58000 5.415
49.60000 3.046
49.62000 9.678
49.64000 7.764
49.66000 8.305
49.68000 6.664
49.70000 4.555
49.72000 3.887
49.74000 5.833
49.76000 1.702
49.78000 6.873
49.80000 4.323
49.82000 0.082
49.84000 4.441
49.86000 6.058
49.88000 0.643
49.90000 -0.740
49.92000 -0.250
49.94000 1.015
49.96000 0.294
49.98000 2.343
50.00000 9.456
50.02000 11.891
50.04000 6.555
50.06000 9.032
50.08000 4.319
50.10000 -0.632
50.12000 0.861
50.14000 3.318
50.16000 1.020
50.18000 1.191
50.20000 7.051
50.22000 4.338
50.24000 0.764
50.26000 0.514
50.28000 -2.908
50.30000 -0.680
50.32000 5.356
50.34000 8.955
50.36000 7.922
50.38000 4.247
50.40000 0.748
50.42000 2.613
50.44000 5.001
50.46000 7.701
50.48000 5.342
50.50000 4.522
50.52000 0.951
50.54000 -1.848
50.56000 1.936
50.58000 3.981
50.60000 0.829
50.62000 -0.195
50.64000 2.270
50.66000 1.565
50.68000 -0.871
50.70000 7.391
50.72000 7.073
50.74000 1.355
50.76000 1.362
50.78000 5.290
50.80000 6.255
50.82000 7.082
50.84000 4.293
50.86000 -0.063
50.88000 -1.776
50.90000 -2.866
50.92000 2.886
50.94000 10.406
50.96000 2.885
50.98000 1.566
51.00000 -0.090
51.02000 0.369
51.04000 1.947
51.06000 3.336
51.08000 3.018
51.10000 0.805
51.12000 1.206
51.14000 4.501
51.16000 3.839
51.18000 -2.850
51.20000 -1.936
51.22000 2.547
51.24000 7.793
51.26000 8.538
51.28000 10.406
51.30000 7.449
51.32000 2.857
51.34000 6.751
51.36000 1.978
51.38000 4.483
51.40000 6.364
51.42000 1.332
51.44000 0.716
51.46000 6.206
51.48000 9.493
51.50000 5.868
51.52000 0.425
51.54000 -0.856
51.56000 -0.253
51.58000 3.958
51.60000 7.550
51.62000 2.411
51.64000 -1.222
51.66000 -0.833
51.68000 1.506
51.70000 2.629
51.72000 6.095
51.74000 6.104
51.76000 2.251
51.78000 -0.932
51.80000 9.220
51.82000 9.343
51.84000 8.022
51.86000 8.810
51.88000 6.159
51.90000 5.917
51.92000 6.017
51.94000 4.582
51.96000 4.069
51.98000 9.654
52.00000 8.981
52.02000 5.547
52.04000 -2.778
52.06000 -1.465
52.08000 4.209
52.10000 4.462
52.12000 0.024
52.14000 0.808
52.16000 1.771
52.18000 2.479
52.20000 5.323
52.22000 5.485
52.24000 6.476
52.26000 2.375
52.28000 -0.122
52.30000 3.553
52.32000 3.877
52.34000 8.125
52.36000 6.639
52.38000 4.048
52.40000 4.491
52.42000 6.433
52.44000 6.000
52.46000 -0.125
52.48000 -0.775
52.50000 1.250
52.52000 2.736
52.54000 6.205
52.56000 6.807
52.58000 2.726
52.60000 7.485
52.62000 3.439
52.64000 0.838
52.66000 -0.057
52.68000 -2.792
52.70000 1.124
52.72000 5.446
52.74000 3.551
52.76000 3.087
52.78000 8.888
52.80000 7.407
52.82000 3.958
52.84000 -0.734
52.86000 2.551
52.88000 6.917
52.90000 5.767
52.92000 2.052
52.94000 1.239
52.96000 -1.035
52.98000 1.689
53.00000 6.265
53.02000 4.676
53.04000 0.403
53.06000 2.967
53.08000 6.301
53.10000 3.433
53.12000 1.016
53.14000 5.544
53.16000 7.834
53.18000 8.119
53.20000 4.253
53.22000 2.453
53.24000 3.808
53.26000 5.679
53.28000 1.163
53.30000 -1.041
53.32000 -1.770
53.34000 1.359
53.36000 3.616
53.38000 1.574
53.40000 3.014
53.42000 4.490
53.44000 1.224
53.46000 2.829
53.48000 2.620
53.50000 3.153
53.52000 2.753
53.54000 5.295
53.56000 8.587
53.58000 6.514
53.60000 2.625
53.62000 3.992
53.64000 2.022
53.66000 1.317
53.68000 3.292
53.70000 5.061
53.72000 3.566
53.74000 5.499
53.76000 2.286
53.78000 4.116
53.80000 6.638
53.82000 0.847
53.84000 3.752
53.86000 5.624
53.88000 1.048
53.90000 2.106
53.92000 2.401
53.94000 -0.982
53.96000 0.344
53.98000 0.992
54.00000 -1.589
54.02000 2.456
54.04000 2.734
54.06000 2.260
54.08000 2.889
54.10000 5.001
54.12000 5.794
54.14000 5.098
54.16000 5.479
54.18000 5.957
54.20000 4.625
54.22000 1.939
54.24000 4.111
54.26000 2.328
54.28000 -1.977
54.30000 2.559
54.32000 4.182
54.34000 -0.605
54.36000 -2.740
54.38000 -0.204
54.40000 2.440
54.42000 5.295
54.44000 3.857
54.46000 2.599
54.48000 3.953
54.50000 1.249
54.52000 -1.023
54.54000 1.376
54.56000 -0.054
54.58000 -0.237
54.60000 -1.245
54.62000 0.544
54.64000 2.089
54.66000 1.263
54.68000 0.240
54.70000 2.660
54.72000 4.585
54.74000 1.217
54.76000 1.401
54.78000 2.959
54.80000 1.049
54.82000 1.221
54.84000 4.096
54.86000 0.681
54.88000 2.555
54.90000 1.571
54.92000 9.731
54.94000 5.486
54.96000 -2.121
54.98000 2.937
55.00000 -0.072
55.02000 -0.563
55.04000 2.753
55.06000 6.495
55.08000 2.662
55.10000 0.116
55.12000 1.306
55.14000 3.125
55.16000 0.727
55.18000 -1.277
55.20000 4.877
55.22000 3.843
55.24000 3.172
55.26000 2.877
55.28000 8.744
55.30000 8.471
55.32000 2.677
55.34000 3.805
55.36000 -2.723
55.38000 -0.784
55.40000 2.561
55.42000 6.613
55.44000 4.456
55.46000 2.276
55.48000 4.328
55.50000 2.997
55.52000 0.112
55.54000 1.899
55.56000 2.184
55.58000 4.304
55.60000 3.770
55.62000 5.373
55.64000 2.770
55.66000 2.033
55.68000 5.248
55.70000 5.792
55.72000 5.475
55.74000 3.954
55.76000 1.370
55.78000 -2.721
55.80000 1.045
55.82000 0.459
55.84000 -2.207
55.86000 -1.173
55.88000 2.342
55.90000 2.689
55.92000 2.093
55.94000 -2.261
55.96000 3.477
55.98000 1.192
56.00000 -0.178
56.02000 -2.349
56.04000 0.665
56.06000 1.140
56.08000 4.227
56.10000 5.409
56.12000 1.697
56.14000 3.141
56.16000 3.563
56.18000 7.390
56.20000 5.066
56.22000 3.272
56.24000 5.775
56.26000 1.537
56.28000 -2.708
56.30000 -1.422
56.32000 3.116
56.34000 0.159
56.36000 -0.739
56.38000 -0.368
56.40000 6.178
56.42000 7.473
56.44000 6.030
56.46000 2.539
56.48000 0.530
56.50000 1.420
56.52000 3.026
56.54000 0.645
56.56000 1.968
56.58000 -0.601
56.60000 -2.234
56.62000 1.522
56.64000 -0.328
56.66000 -2.622
56.68000 5.111
56.70000 6.019
56.72000 2.960
56.74000 -0.366
56.76000 -0.638
56.78000 0.123
56.80000 1.474
56.82000 3.615
56.84000 1.513
56.86000 2.769
56.88000 2.953
56.90000 2.727
56.92000 0.097
56.94000 -1.989
56.96000 3.092
56.98000 1.538
57.00000 1.454
57.02000 2.485
57.04000 -2.691
57.06000 0.823
57.08000 -1.859
57.10000 -1.421
57.12000 2.359
57.14000 4.893
57.16000 4.252
57.18000 5.697
57.20000 4.144
57.22000 -1.193
57.24000 0.949
57.26000 5.403
57.28000 3.064
57.30000 2.561
57.32000 -0.191
57.34000 1.283
57.36000 1.245
57.38000 1.677
57.40000 2.723
57.42000 0.769
57.44000 1.882
57.46000 1.473
57.48000 3.895
57.50000 6.071
57.52000 7.623
57.54000 4.336
57.56000 4.430
57.58000 -1.108
57.60000 1.508
57.62000 1.150
57.64000 1.538
57.66000 4.338
57.68000 5.648
57.70000 7.665
57.72000 12.017
57.74000 9.872
57.76000 6.539
57.78000 5.217
57.80000 3.021
57.82000 6.811
57.84000 4.530
57.86000 2.175
57.88000 7.742
57.90000 7.306
57.92000 8.931
57.94000 2.081
57.96000 1.530
57.98000 0.060
58.00000 3.977
58.02000 3.630
58.04000 -0.305
58.06000 -2.621
58.08000 2.371
58.10000 8.585
58.12000 7.673
58.14000 7.760
58.16000 10.054
58.18000 4.678
58.20000 8.515
58.22000 4.272
58.24000 3.628
58.26000 3.210
58.28000 -2.611
58.30000 0.057
58.32000 2.900
58.34000 5.479
58.36000 2.416
58.38000 0.840
58.40000 2.370
58.42000 4.903
58.44000 2.383
58.46000 3.209
58.48000 0.744
58.50000 2.110
58.52000 2.765
58.54000 2.983
58.56000 1.363
58.58000 6.202
58.60000 8.056
58.62000 1.588
58.64000 2.822
58.66000 7.241
58.68000 3.410
58.70000 1.217
58.72000 2.581
58.74000 3.020
58.76000 1.904
58.78000 1.904
58.80000 2.450
58.82000 1.841
58.84000 0.531
58.86000 3.769
58.88000 5.722
58.90000 5.709
58.92000 1.847
58.94000 4.210
58.96000 3.737
58.98000 3.970
59.00000 0.402
59.02000 1.230
59.04000 1.322
59.06000 3.914
59.08000 2.703
59.10000 -0.774
59.12000 3.702
59.14000 3.889
59.16000 0.929
59.18000 7.912
59.20000 6.290
59.22000 8.372
59.24000 6.982
59.26000 0.295
59.28000 -0.713
59.30000 2.920
59.32000 5.325
59.34000 1.184
59.36000 -0.059
59.38000 -0.961
59.40000 1.929
59.42000 5.336
59.44000 1.767
59.46000 0.796
59.48000 0.483
59.50000 3.575
59.52000 7.411
59.54000 5.538
59.56000 3.616
59.58000 2.471
59.60000 8.682
59.62000 4.749
59.64000 -2.566
59.66000 -1.125
59.68000 0.633
59.70000 2.365
59.72000 1.457
59.74000 6.791
59.76000 8.577
59.78000 4.833
59.80000 -0.558
59.82000 0.190
59.84000 4.616
59.86000 1.065
59.88000 4.232
59.90000 4.023
59.92000 3.437
59.94000 0.528
59.96000 2.035
59.98000 -0.060
60.00000 3.450
60.02000 6.297
60.04000 5.494
60.06000 8.285
60.08000 9.566
60.10000 5.802
60.12000 0.134
60.14000 2.521
60.16000 4.111
60.18000 3.822
60.20000 5.399
60.22000 5.766
60.24000 1.705
60.26000 1.786
60.28000 1.835
60.30000 3.195
60.32000 6.424
60.34000 9.717
60.36000 7.941
60.38000 4.743
60.40000 2.193
60.42000 -2.553
60.44000 1.919
60.46000 4.378
60.48000 3.724
60.50000 2.538
60.52000 4.567
60.54000 7.405
60.56000 6.830
60.58000 3.470
60.60000 1.087
60.62000 -0.238
60.64000 -1.839
60.66000 0.853
60.68000 0.729
60.70000 4.943
60.72000 6.634
60.74000 5.162
60.76000 4.245
60.78000 6.136
60.80000 5.482
60.82000 0.878
60.84000 -1.263
60.86000 -2.529
60.88000 0.361
60.90000 4.138
60.92000 0.624
60.94000 2.968
60.96000 5.099
60.98000 9.463
61.00000 7.852
61.02000 3.653
61.04000 5.646
61.06000 2.696
61.08000 3.753
61.10000 6.541
61.12000 4.799
61.14000 0.762
61.16000 3.535
61.18000 0.809
61.20000 0.456
61.22000 4.403
61.24000 2.696
61.26000 2.252
61.28000 0.340
61.30000 3.189
61.32000 3.030
61.34000 2.225
61.36000 0.428
61.38000 3.933
61.40000 4.387
61.42000 0.498
61.44000 3.011
61.46000 4.860
61.48000 1.366
61.50000 2.243
61.52000 -0.722
61.54000 3.902
61.56000 7.743
61.58000 4.924
61.60000 1.234
61.62000 -0.661
61.64000 2.752
61.66000 3.700
61.68000 2.812
61.70000 4.599
61.72000 5.147
61.74000 5.085
61.76000 2.918
61.78000 -0.045
61.80000 0.782
61.82000 3.130
61.84000 1.567
61.86000 0.949
61.88000 -0.197
61.90000 -2.473
61.92000 -0.294
61.94000 2.924
61.96000 6.879
61.98000 5.258
62.00000 5.894
62.02000 7.244
62.04000 2.973
62.06000 0.919
62.08000 5.887
62.10000 1.234
62.12000 5.010
62.14000 4.846
62.16000 0.975
62.18000 0.313
62.20000 3.398
62.22000 2.208
62.24000 5.723
62.26000 4.178
62.28000 5.207
62.30000 2.827
62.32000 2.852
62.34000 3.639
62.36000 1.402
62.38000 1.290
62.40000 -0.678
62.42000 2.028
62.44000 3.207
62.46000 3.656
62.48000 1.077
62.50000 -2.481
62.52000 3.020
62.54000 0.845
62.56000 1.871
62.58000 0.021
62.60000 0.943
62.62000 -1.354
62.64000 2.000
62.66000 4.249
62.68000 5.528
62.70000 2.594
62.72000 -0.356
62.74000 1.770
62.76000 2.598
62.78000 6.282
62.80000 8.427
62.82000 6.657
62.84000 2.771
62.86000 0.714
62.88000 2.202
62.90000 2.683
62.92000 4.598
62.94000 0.590
62.96000 1.094
62.98000 3.296
63.00000 5.272
63.02000 3.508
63.04000 -0.996
63.06000 0.703
63.08000 2.767
63.10000 2.554
63.12000 6.913
63.14000 7.919
63.16000 3.556
63.18000 0.599
63.20000 1.851
63.22000 -0.048
63.24000 2.080
63.26000 0.162
63.28000 -2.060
63.30000 0.527
63.32000 3.100
63.34000 4.667
63.36000 3.125
63.38000 0.288
63.40000 2.631
63.42000 2.374
63.44000 2.595
63.46000 2.118
63.48000 2.417
63.50000 4.675
63.52000 -0.481
63.54000 -1.582
63.56000 1.711
63.58000 6.637
63.60000 5.328
63.62000 3.349
63.64000 4.244
63.66000 4.265
63.68000 -2.472
63.70000 -0.638
63.72000 4.083
63.74000 4.711
63.76000 2.997
63.78000 4.844
63.80000 5.404
63.82000 6.734
63.84000 6.452
63.86000 4.846
63.88000 3.929
63.90000 1.364
63.92000 0.464
63.94000 1.507
63.96000 2.830
63.98000 3.963
64.00000 5.911
64.02000 3.207
64.04000 1.376
64.06000 1.018
64.08000 7.620
64.10000 4.142
64.12000 3.014
64.14000 4.576
64.16000 0.011
64.18000 3.077
64.20000 3.432
64.22000 1.910
64.24000 0.205
64.26000 -0.342
64.28000 3.130
64.30000 3.071
64.32000 5.430
64.34000 5.239
64.36000 6.222
64.38000 4.730
64.40000 4.369
64.42000 4.605
64.44000 3.601
64.46000 1.582
64.48000 0.135
64.50000 -1.115
64.52000 1.680
64.54000 4.071
64.56000 4.105
64.58000 5.349
64.60000 2.344
64.62000 -1.418
64.64000 1.149
64.66000 -0.543
64.68000 -0.970
64.70000 -1.007
64.72000 1.254
64.74000 0.877
64.76000 1.985
64.78000 2.090
64.80000 2.817
64.82000 4.602
64.84000 2.070
64.86000 -0.313
64.88000 1.463
64.90000 5.082
64.92000 3.192
64.94000 2.887
64.96000 4.185
64.98000 3.755
65.00000 0.255
65.02000 4.505
65.04000 3.247
65.06000 1.299
65.08000 -1.224
65.10000 0.088
65.12000 -2.483
65.14000 -0.181
65.16000 4.423
65.18000 1.974
65.20000 3.087
65.22000 4.025
65.24000 2.741
65.26000 2.372
65.28000 1.428
65.30000 2.175
65.32000 2.802
65.34000 1.929
65.36000 1.607
65.38000 -2.473
65.40000 2.885
65.42000 4.401
65.44000 1.270
65.46000 1.662
65.48000 3.144
65.50000 4.603
65.52000 7.427
65.54000 5.095
65.56000 1.803
65.58000 2.899
65.60000 2.123
65.62000 4.287
65.64000 4.202
65.66000 4.309
65.68000 3.281
65.70000 3.839
65.72000 -1.742
65.74000 0.020
65.76000 0.093
65.78000 0.254
65.80000 0.922
65.82000 4.025
65.84000 3.971
65.86000 -0.151
65.88000 1.721
65.90000 4.961
65.92000 2.634
65.94000 -1.106
65.96000 2.605
65.98000 0.735
66.00000 1.928
66.02000 2.342
66.04000 6.260
66.06000 3.026
66.08000 1.845
66.10000 1.465
66.12000 2.212
66.14000 2.857
66.16000 4.158
66.18000 2.400
66.20000 1.446
66.22000 4.235
66.24000 2.205
66.26000 1.790
66.28000 -1.404
66.30000 -2.500
66.32000 1.769
66.34000 2.004
66.36000 2.421
66.38000 4.857
66.40000 1.102
66.42000 1.365
66.44000 2.767
66.46000 3.401
66.48000 3.438
66.50000 2.156
66.52000 2.248
66.54000 2.166
66.56000 2.015
66.58000 0.926
66.60000 1.381
66.62000 3.578
66.64000 2.952
66.66000 -1.154
66.68000 1.125
66.70000 4.060
66.72000 0.278
66.74000 2.686
66.76000 4.024
66.78000 0.006
66.80000 2.194
66.82000 4.027
66.84000 2.692
66.86000 0.703
66.88000 0.174
66.90000 0.085
66.92000 -0.777
66.94000 2.092
66.96000 2.231
66.98000 1.124
67.00000 3.430
67.02000 7.080
67.04000 4.048
67.06000 0.892
67.08000 1.090
67.10000 -2.543
67.12000 -1.505
67.14000 -0.847
67.16000 0.850
67.18000 -1.695
67.20000 0.414
67.22000 2.463
67.24000 4.325
67.26000 -0.592
67.28000 -1.820
67.30000 -1.821
67.32000 -1.871
67.34000 1.081
67.36000 2.317
67.38000 1.473
67.40000 1.214
67.42000 -0.894
67.44000 1.607
67.46000 -0.227
67.48000 0.770
67.50000 -1.175
67.52000 2.597
67.54000 2.946
67.56000 -1.039
67.58000 0.016
67.60000 0.891
67.62000 2.092
67.64000 1.872
67.66000 1.540
67.68000 1.236
67.70000 2.726
67.72000 -0.728
67.74000 -0.712
67.76000 1.686
67.78000 2.822
67.80000 3.950
67.82000 -0.151
67.84000 -1.296
67.86000 -2.585
67.88000 2.263
67.90000 2.524
67.92000 1.888
67.94000 5.057
67.96000 6.154
67.98000 1.777
68.00000 0.559
68.02000 6.290
68.04000 8.175
68.06000 4.772
68.08000 6.428
68.10000 6.000
68.12000 3.721
68.14000 1.363
68.16000 3.077
68.18000 4.684
68.20000 7.932
68.22000 6.545
68.24000 1.624
68.26000 -1.335
68.28000 6.481
68.30000 5.878
68.32000 4.579
68.34000 5.100
68.36000 6.031
68.38000 10.417
68.40000 6.378
68.42000 8.348
68.44000 8.636
68.46000 10.396
68.48000 9.365
68.50000 7.865
68.52000 9.377
68.54000 10.645
68.56000 12.896
68.58000 12.861
68.60000 14.375
68.62000 12.367
68.64000 12.014
68.66000 13.461
68.68000 14.346
68.70000 14.703
68.72000 17.671
68.74000 16.362
68.76000 14.944
68.78000 16.013
68.80000 17.724
68.82000 15.035
68.84000 16.094
68.86000 14.036
68.88000 15.684
68.90000 21.190
68.92000 19.111
68.94000 15.593
68.96000 18.926
68.98000 17.374
69.00000 22.269
69.02000 15.544
69.04000 14.213
69.06000 19.348
69.08000 20.013
69.10000 15.662
69.12000 16.510
69.14000 17.583
69.16000 18.014
69.18000 19.847
69.20000 19.171
69.22000 18.207
69.24000 18.714
69.26000 20.723
69.28000 18.663
69.30000 21.307
69.32000 20.174
69.34000 18.293
69.36000 19.910
69.38000 17.761
69.40000 17.753
69.42000 17.574
69.44000 15.754
69.46000 14.948
69.48000 15.106
69.50000 14.745
69.52000 11.331
69.54000 13.384
69.56000 13.126
69.58000 10.992
69.60000 8.517
69.62000 8.791
69.64000 10.494
69.66000 12.045
69.68000 10.117
69.70000 13.464
69.72000 11.949
69.74000 5.859
69.76000 4.697
69.78000 10.531
69.80000 9.668
69.82000 9.149
69.84000 9.246
69.86000 8.034
69.88000 9.368
69.90000 6.761
69.92000 5.188
69.94000 4.717
69.96000 8.046
69.98000 9.544
70.00000 10.765
70.02000 6.117
70.04000 4.713
70.06000 3.410
70.08000 5.911
70.10000 6.384
70.12000 3.557
70.14000 2.252
70.16000 5.799
70.18000 4.102
70.20000 3.358
70.22000 -1.353
70.24000 -2.329
70.26000 -2.524
70.28000 0.591
70.30000 3.064
70.32000 3.047
70.34000 3.544
70.36000 2.302
70.38000 1.495
70.40000 0.959
70.42000 1.225
70.44000 1.558
70.46000 -0.138
70.48000 2.410
70.50000 0.493
70.52000 4.490
70.54000 2.032
70.56000 1.709
70.58000 5.668
70.60000 3.151
70.62000 3.762
70.64000 0.518
70.66000 2.446
70.68000 1.795
70.70000 3.076
70.72000 4.294
70.74000 5.284
70.76000 0.001
70.78000 0.353
70.80000 0.766
70.82000 -1.710
70.84000 0.305
70.86000 1.414
70.88000 -1.157
70.90000 -1.011
70.92000 8.489
70.94000 10.154
70.96000 4.365
70.98000 1.665
71.00000 3.353
71.02000 3.515
71.04000 0.356
71.06000 3.409
71.08000 1.519
71.10000 -0.171
71.12000 4.450
71.14000 1.055
71.16000 2.241
71.18000 -0.085
71.20000 2.372
71.22000 0.543
71.24000 -2.420
71.26000 -1.680
71.28000 -0.007
71.30000 1.855
71.32000 1.628
71.34000 0.517
71.36000 -1.407
71.38000 0.059
71.40000 4.030
71.42000 2.828
71.44000 3.678
71.46000 3.571
71.48000 3.572
71.50000 0.725
71.52000 -2.393
71.54000 0.827
71.56000 1.183
71.58000 -1.542
71.60000 2.701
71.62000 3.444
71.64000 -0.184
71.66000 4.289
71.68000 5.820
71.70000 6.219
71.72000 6.635
71.74000 1.167
71.76000 -1.810
71.78000 -0.771
71.80000 1.248
71.82000 -0.204
71.84000 -2.375
71.86000 0.899
71.88000 0.804
71.90000 0.962
71.92000 2.296
71.94000 2.401
71.96000 1.020
71.98000 1.264
72.00000 1.688
72.02000 3.173
72.04000 1.293
72.06000 1.327
72.08000 0.749
72.10000 0.050
72.12000 0.611
72.14000 0.588
72.16000 0.626
72.18000 1.800
72.20000 -1.935
72.22000 -2.336
72.24000 1.289
72.26000 1.477
72.28000 1.810
72.30000 -1.700
72.32000 1.598
72.34000 2.673
72.36000 6.633
72.38000 7.024
72.40000 2.785
72.42000 0.812
72.44000 4.529
72.46000 6.164
72.48000 1.863
72.50000 -0.848
72.52000 1.189
72.54000 -1.257
72.56000 2.623
72.58000 3.521
72.60000 0.734
72.62000 3.398
72.64000 6.023
72.66000 2.376
72.68000 -1.919
72.70000 0.433
72.72000 0.350
72.74000 -0.361
72.76000 1.887
72.78000 -0.500
72.80000 -2.321
72.82000 2.082
72.84000 1.899
72.86000 1.044
72.88000 0.017
72.90000 -0.044
72.92000 3.192
72.94000 6.285
72.96000 1.968
72.98000 3.473
73.00000 1.982
73.02000 -0.195
73.04000 2.348
73.06000 3.692
73.08000 5.668
73.10000 2.830
73.12000 3.369
73.14000 2.231
73.16000 7.718
73.18000 2.444
73.20000 1.875
73.22000 3.193
73.24000 7.542
73.26000 7.519
73.28000 6.671
73.30000 3.178
73.32000 2.684
73.34000 1.806
73.36000 -0.290
73.38000 0.528
73.40000 2.801
73.42000 5.955
73.44000 5.572
73.46000 6.344
73.48000 5.706
73.50000 4.226
73.52000 4.646
73.54000 2.973
73.56000 0.311
73.58000 -2.267
73.60000 5.673
73.62000 6.227
73.64000 6.287
73.66000 1.870
73.68000 -0.155
73.70000 3.492
73.72000 3.685
73.74000 2.823
73.76000 1.491
73.78000 4.437
73.80000 1.961
73.82000 2.529
73.84000 2.301
73.86000 0.724
73.88000 3.315
73.90000 4.898
73.92000 3.243
73.94000 3.133
73.96000 4.446
73.98000 1.532
74.00000 1.680
74.02000 1.913
74.04000 0.070
74.06000 6.670
74.08000 0.203
74.10000 2.086
74.12000 6.778
74.14000 6.974
74.16000 6.369
74.18000 2.081
74.20000 -2.091
74.22000 -1.218
74.24000 5.128
74.26000 5.446
74.28000 2.513
74.30000 3.155
74.32000 1.643
74.34000 2.280
74.36000 5.556
74.38000 0.723
74.40000 0.680
74.42000 1.772
74.44000 1.898
74.46000 1.250
74.48000 0.598
74.50000 3.319
74.52000 6.500
74.54000 1.926
74.56000 -0.521
74.58000 1.597
74.60000 4.769
74.62000 5.745
74.64000 5.024
74.66000 -0.270
74.68000 2.020
74.70000 3.797
74.72000 5.342
74.74000 4.937
74.76000 3.572
74.78000 6.069
74.80000 10.088
74.82000 7.667
74.84000 8.552
74.86000 3.683
74.88000 1.574
74.90000 2.727
74.92000 2.207
74.94000 5.216
74.96000 0.891
74.98000 8.640
75.00000 8.273
75.02000 7.515
75.04000 5.163
75.06000 4.593
75.08000 6.133
75.10000 4.461
75.12000 0.016
75.14000 3.903
75.16000 5.497
75.18000 4.188
75.20000 -0.380
75.22000 -0.399
75.24000 -2.266
75.26000 -1.809
75.28000 1.467
75.30000 2.794
75.32000 4.137
75.34000 5.237
75.36000 0.514
75.38000 0.195
75.40000 -0.010
75.42000 -1.731
75.44000 0.946
75.46000 6.174
75.48000 6.220
75.50000 4.402
75.52000 3.818
75.54000 4.682
75.56000 6.884
75.58000 10.609
75.60000 5.289
75.62000 3.669
75.64000 4.776
75.66000 -2.282
75.68000 -1.505
75.70000 6.508
75.72000 8.810
75.74000 6.293
75.76000 4.232
75.78000 3.620
75.80000 1.710
75.82000 4.911
75.84000 1.882
75.86000 1.724
75.88000 2.168
75.90000 3.228
75.92000 5.509
75.94000 5.647
75.96000 8.020
75.98000 5.185
76.00000 3.922
76.02000 2.063
76.04000 1.364
76.06000 0.798
76.08000 -0.815
76.10000 3.134
76.12000 3.939
76.14000 5.102
76.16000 1.354
76.18000 -0.855
76.20000 -1.044
76.22000 1.388
76.24000 4.296
76.26000 4.828
76.28000 3.151
76.30000 3.685
76.32000 -0.101
76.34000 -2.288
76.36000 0.166
76.38000 0.647
76.40000 0.172
76.42000 2.938
76.44000 2.500
76.46000 5.461
76.48000 2.551
76.50000 4.966
76.52000 1.578
76.54000 -2.301
76.56000 1.463
76.58000 2.390
76.60000 7.015
76.62000 8.980
76.64000 6.302
76.66000 4.289
76.68000 6.285
76.70000 5.205
76.72000 6.084
76.74000 4.285
76.76000 -1.867
76.78000 -0.743
76.80000 0.749
76.82000 2.878
76.84000 3.257
76.86000 2.971
76.88000 4.727
76.90000 3.068
76.92000 3.282
76.94000 3.943
76.96000 3.688
76.98000 1.144
77.00000 1.408
77.02000 -2.145
77.04000 0.051
77.06000 2.934
77.08000 5.394
77.10000 5.959
77.12000 5.723
77.14000 4.666
77.16000 1.543
77.18000 1.022
77.20000 -0.759
77.22000 1.878
77.24000 0.972
77.26000 -1.491
77.28000 0.496
77.30000 1.068
77.32000 -2.327
77.34000 -1.824
77.36000 0.308
77.38000 3.854
77.40000 2.676
77.42000 5.614
77.44000 3.477
77.46000 2.328
77.48000 2.005
77.50000 4.481
77.52000 5.542
77.54000 4.888
77.56000 3.889
77.58000 0.540
77.60000 0.309
77.62000 3.609
77.64000 5.922
77.66000 7.335
77.68000 4.397
77.70000 4.718
77.72000 6.002
77.74000 5.901
77.76000 1.943
77.78000 -0.897
77.80000 -2.090
77.82000 0.121
77.84000 3.816
77.86000 4.162
77.88000 6.942
77.90000 3.784
77.92000 1.613
77.94000 0.914
77.96000 2.353
77.98000 0.913
78.00000 4.506
78.02000 7.322
78.04000 5.714
78.06000 5.894
78.08000 5.946
78.10000 1.824
78.12000 4.782
78.14000 4.612
78.16000 6.314
78.18000 7.017
78.20000 5.656
78.22000 6.311
78.24000 3.347
78.26000 3.811
78.28000 3.450
78.30000 4.160
78.32000 4.876
78.34000 5.350
78.36000 6.912
78.38000 9.271
78.40000 6.506
78.42000 5.759
78.44000 5.563
78.46000 -0.058
78.48000 -2.286
78.50000 -0.313
78.52000 1.205
78.54000 5.437
78.56000 4.089
78.58000 2.507
78.60000 2.629
78.62000 6.970
78.64000 11.781
78.66000 4.720
78.68000 1.675
78.70000 3.759
78.72000 7.417
78.74000 6.755
78.76000 6.298
78.78000 2.860
78.80000 2.324
78.82000 2.011
78.84000 9.160
78.86000 4.516
78.88000 3.891
78.90000 8.616
78.92000 1.519
78.94000 -0.155
78.96000 0.365
78.98000 1.475
79.00000 5.733
79.02000 0.784
79.04000 6.227
79.06000 6.807
79.08000 -0.037
79.10000 0.576
79.12000 4.114
79.14000 3.670
79.16000 2.931
79.18000 0.916
79.20000 6.666
79.22000 4.508
79.24000 7.950
79.26000 5.854
79.28000 3.312
79.30000 6.492
79.32000 0.818
79.34000 3.487
79.36000 5.185
79.38000 0.154
79.40000 5.473
79.42000 6.648
79.44000 5.611
79.46000 6.660
79.48000 2.500
79.50000 5.404
79.52000 5.918
79.54000 3.131
79.56000 -2.306
79.58000 0.386
79.60000 6.131
79.62000 7.512
79.64000 6.322
79.66000 4.411
79.68000 7.325
79.70000 10.024
79.72000 6.840
79.74000 6.935
79.76000 3.044
79.78000 3.394
79.80000 3.166
79.82000 3.708
79.84000 6.019
79.86000 8.490
79.88000 5.950
79.90000 3.472
79.92000 0.420
79.94000 4.486
79.96000 4.571
79.98000 3.476
80.00000 5.311
80.02000 3.629
80.04000 1.434
80.06000 2.290
80.08000 8.473
80.10000 7.486
80.12000 3.612
80.14000 0.208
80.16000 6.288
80.18000 10.135
80.20000 8.439
80.22000 5.281
80.24000 6.425
80.26000 2.223
80.28000 -0.604
80.30000 2.547
80.32000 1.486
80.34000 3.708
80.36000 5.262
80.38000 9.446
80.40000 5.991
80.42000 2.431
80.44000 1.923
80.46000 5.776
80.48000 3.089
80.50000 -0.266
80.52000 4.496
80.54000 8.615
80.56000 6.822
80.58000 3.462
80.60000 9.805
80.62000 9.036
80.64000 5.870
80.66000 8.444
80.68000 5.409
80.70000 4.358
80.72000 4.509
80.74000 4.466
80.76000 3.557
80.78000 3.724
80.80000 6.485
80.82000 5.537
80.84000 3.722
80.86000 -2.340
80.88000 4.760
80.90000 9.781
80.92000 9.052
80.94000 6.845
80.96000 8.738
80.98000 6.886
81.00000 4.064
81.02000 4.875
81.04000 5.655
81.06000 4.926
81.08000 3.714
81.10000 5.961
81.12000 9.813
81.14000 7.659
81.16000 6.910
81.18000 7.578
81.20000 7.592
81.22000 2.571
81.24000 -2.385
81.26000 -1.523
81.28000 7.348
81.30000 3.453
81.32000 4.009
81.34000 8.806
81.36000 13.458
81.38000 12.271
81.40000 8.927
81.42000 5.136
81.44000 6.385
81.46000 6.842
81.48000 6.218
81.50000 5.278
81.52000 5.639
81.54000 4.629
81.56000 7.216
81.58000 4.805
81.60000 2.465
81.62000 2.118
81.64000 2.892
81.66000 -0.628
81.68000 -0.617
81.70000 9.416
81.72000 10.855
81.74000 8.030
81.76000 2.121
81.78000 7.572
81.80000 7.042
81.82000 2.592
81.84000 6.754
81.86000 6.746
81.88000 4.584
81.90000 3.966
81.92000 4.763
81.94000 4.999
81.96000 5.188
81.98000 10.806
82.00000 9.823
82.02000 5.530
82.04000 6.849
82.06000 9.057
82.08000 10.162
82.10000 11.553
82.12000 10.718
82.14000 8.544
82.16000 2.946
82.18000 5.570
82.20000 6.211
82.22000 9.862
82.24000 8.780
82.26000 12.341
82.28000 8.687
82.30000 9.565
82.32000 11.401
82.34000 9.125
82.36000 8.158
82.38000 8.187
82.40000 9.860
82.42000 10.024
82.44000 9.470
82.46000 7.582
82.48000 13.533
82.50000 15.618
82.52000 10.351
82.54000 16.709
82.56000 16.004
82.58000 17.802
82.60000 17.345
82.62000 10.882
82.64000 10.760
82.66000 15.663
82.68000 17.076
82.70000 20.748
82.72000 23.370
82.74000 17.629
82.76000 15.134
82.78000 18.687
82.80000 19.327
82.82000 15.047
82.84000 13.022
82.86000 14.050
82.88000 18.633
82.90000 19.137
82.92000 18.898
82.94000 17.824
82.96000 14.531
82.98000 16.262
83.00000 20.061
83.02000 16.949
83.04000 16.227
83.06000 22.641
83.08000 25.489
83.10000 24.105
83.12000 22.898
83.14000 27.966
83.16000 29.832
83.18000 25.773
83.20000 28.288
83.22000 35.122
83.24000 28.053
83.26000 22.314
83.28000 22.232
83.30000 26.725
83.32000 22.799
83.34000 23.704
83.36000 27.618
83.38000 30.398
83.40000 25.603
83.42000 21.942
83.44000 23.213
83.46000 23.032
83.48000 21.351
83.50000 23.072
83.52000 28.440
83.54000 33.318
83.56000 26.066
83.58000 22.118
83.60000 28.099
83.62000 30.676
83.64000 31.056
83.66000 29.414
83.68000 21.662
83.70000 24.469
83.72000 26.898
83.74000 27.222
83.76000 25.000
83.78000 20.937
83.80000 24.954
83.82000 23.692
83.84000 21.571
83.86000 24.879
83.88000 22.240
83.90000 18.206
83.92000 25.981
83.94000 21.582
83.96000 16.935
83.98000 19.916
84.00000 20.996
84.02000 21.073
84.04000 22.151
84.06000 16.578
84.08000 16.762
84.10000 16.689
84.12000 16.135
84.14000 15.481
84.16000 16.955
84.18000 13.195
84.20000 14.753
84.22000 21.620
84.24000 15.535
84.26000 12.259
84.28000 11.193
84.30000 13.516
84.32000 14.067
84.34000 8.972
84.36000 8.889
84.38000 10.607
84.40000 5.152
84.42000 6.973
84.44000 13.225
84.46000 10.118
84.48000 9.444
84.50000 9.956
84.52000 10.704
84.54000 10.602
84.56000 8.891
84.58000 12.070
84.60000 8.875
84.62000 7.783
84.64000 6.464
84.66000 8.210
84.68000 4.426
84.70000 8.112
84.72000 8.437
84.74000 9.331
84.76000 5.954
84.78000 4.529
84.80000 1.996
84.82000 8.056
84.84000 7.452
84.86000 6.683
84.88000 8.530
84.90000 5.518
84.92000 8.167
84.94000 7.135
84.96000 7.220
84.98000 2.743
85.00000 1.255
85.02000 5.480
85.04000 9.803
85.06000 4.591
85.08000 3.458
85.10000 5.589
85.12000 3.688
85.14000 6.295
85.16000 5.823
85.18000 8.390
85.20000 8.112
85.22000 5.249
85.24000 5.012
85.26000 6.002
85.28000 7.986
85.30000 3.755
85.32000 -2.373
85.34000 0.257
85.36000 -0.062
85.38000 4.390
85.40000 3.921
85.42000 4.280
85.44000 4.172
85.46000 5.794
85.48000 4.707
85.50000 8.072
85.52000 4.836
85.54000 9.038
85.56000 12.965
85.58000 8.531
85.60000 6.354
85.62000 7.108
85.64000 4.638
85.66000 4.173
85.68000 2.617
85.70000 5.472
85.72000 4.554
85.74000 5.924
85.76000 2.297
85.78000 -2.320
85.80000 1.708
85.82000 6.520
85.84000 7.654
85.86000 3.332
85.88000 5.056
85.90000 4.514
85.92000 2.804
85.94000 2.262
85.96000 3.466
85.98000 2.620
86.00000 2.203
86.02000 2.955
86.04000 4.139
86.06000 3.301
86.08000 2.747
86.10000 1.792
86.12000 1.990
86.14000 6.532
86.16000 2.613
86.18000 2.717
86.20000 2.008
86.22000 -1.023
86.24000 0.402
86.26000 5.587
86.28000 3.825
86.30000 2.815
86.32000 2.868
86.34000 3.290
86.36000 2.535
86.38000 -0.444
86.40000 -1.334
86.42000 -0.473
86.44000 3.231
86.46000 7.082
86.48000 3.118
86.50000 -0.763
86.52000 2.494
86.54000 5.468
86.56000 9.341
86.58000 7.632
86.60000 5.062
86.62000 3.529
86.64000 4.610
86.66000 2.936
86.68000 1.944
86.70000 1.499
86.72000 3.471
86.74000 5.908
86.76000 8.001
86.78000 8.734
86.80000 2.738
86.82000 7.579
86.84000 12.233
86.86000 3.834
86.88000 6.289
86.90000 8.694
86.92000 7.152
86.94000 5.953
86.96000 5.103
86.98000 6.331
87.00000 8.484
87.02000 6.151
87.04000 4.339
87.06000 1.836
87.08000 5.302
87.10000 8.543
87.12000 10.559
87.14000 10.990
87.16000 6.218
87.18000 7.093
87.20000 10.351
87.22000 13.058
87.24000 17.217
87.26000 13.845
87.28000 10.283
87.30000 7.272
87.32000 8.521
87.34000 9.783
87.36000 9.660
87.38000 11.249
87.40000 13.753
87.42000 11.141
87.44000 15.363
87.46000 14.621
87.48000 16.719
87.50000 17.462
87.52000 14.577
87.54000 13.649
87.56000 14.968
87.58000 16.177
87.60000 12.810
87.62000 14.930
87.64000 16.625
87.66000 17.994
87.68000 15.446
87.70000 18.640
87.72000 21.644
87.74000 25.169
87.76000 19.809
87.78000 23.104
87.80000 18.179
87.82000 23.052
87.84000 27.773
87.86000 23.805
87.88000 21.536
87.90000 17.747
87.92000 16.478
87.94000 16.712
87.96000 15.794
87.98000 16.768
88.00000 20.072
88.02000 24.695
88.04000 25.067
88.06000 18.566
88.08000 16.958
88.10000 21.972
88.12000 22.301
88.14000 21.520
88.16000 19.808
88.18000 22.492
88.20000 22.714
88.22000 20.614
88.24000 19.074
88.26000 17.603
88.28000 17.303
88.30000 19.425
88.32000 19.248
88.34000 22.216
88.36000 21.620
88.38000 18.392
88.40000 14.678
88.42000 16.047
88.44000 16.285
88.46000 16.252
88.48000 19.705
88.50000 22.086
88.52000 18.147
88.54000 14.800
88.56000 14.154
88.58000 13.113
88.60000 14.078
88.62000 14.241
88.64000 7.195
88.66000 10.031
88.68000 13.291
88.70000 10.514
88.72000 8.190
88.74000 3.942
88.76000 8.065
88.78000 8.480
88.80000 7.289
88.82000 8.229
88.84000 5.488
88.86000 9.783
88.88000 9.992
88.90000 8.162
88.92000 6.726
88.94000 5.107
88.96000 4.664
88.98000 4.865
89.00000 4.799
89.02000 7.632
89.04000 4.645
89.06000 8.758
89.08000 8.981
89.10000 5.150
89.12000 2.722
89.14000 2.903
89.16000 1.251
89.18000 2.078
89.20000 2.365
89.22000 3.126
89.24000 1.651
89.26000 4.588
89.28000 4.368
89.30000 3.388
89.32000 4.860
89.34000 5.173
89.36000 2.791
89.38000 3.162
89.40000 4.833
89.42000 6.648
89.44000 9.242
89.46000 6.491
89.48000 2.869
89.50000 -1.673
89.52000 0.837
89.54000 3.016
89.56000 3.720
89.58000 -0.219
89.60000 0.394
89.62000 -0.790
89.64000 -1.400
89.66000 3.909
89.68000 6.161
89.70000 3.796
89.72000 2.186
89.74000 0.892
89.76000 -0.537
89.78000 1.772
89.80000 1.606
89.82000 7.369
89.84000 7.020
89.86000 5.464
89.88000 1.886
89.90000 1.008
89.92000 3.672
89.94000 5.017
89.96000 4.468
89.98000 4.493
90.00000 2.813
90.02000 -0.504
90.04000 -1.712
90.06000 1.101
90.08000 2.347
90.10000 0.462
90.12000 4.749
90.14000 -2.194
90.16000 4.306
90.18000 1.765
90.20000 2.970
90.22000 4.323
90.24000 5.873
90.26000 0.472
90.28000 3.340
90.30000 4.583
90.32000 0.971
90.34000 1.459
90.36000 5.138
90.38000 4.959
90.40000 2.276
90.42000 2.513
90.44000 1.962
90.46000 -0.646
90.48000 3.490
90.50000 2.719
90.52000 1.513
90.54000 3.012
90.56000 -1.016
90.58000 -1.021
90.60000 3.050
90.62000 5.807
90.64000 5.655
90.66000 3.405
90.68000 3.021
90.70000 -0.011
90.72000 2.407
90.74000 1.066
90.76000 3.088
90.78000 1.621
90.80000 -0.152
90.82000 2.072
90.84000 4.021
90.86000 1.116
90.88000 2.364
90.90000 9.987
90.92000 4.001
90.94000 2.622
90.96000 4.913
90.98000 2.613
91.00000 3.200
91.02000 6.184
91.04000 -1.163
91.06000 -2.196
91.08000 2.621
91.10000 1.794
91.12000 5.785
91.14000 3.483
91.16000 6.928
91.18000 3.665
91.20000 2.358
91.22000 1.923
91.24000 1.029
91.26000 3.699
91.28000 2.712
91.30000 -1.459
91.32000 0.379
91.34000 1.124
91.36000 -0.226
91.38000 1.861
91.40000 5.316
91.42000 4.748
91.44000 1.302
91.46000 3.152
91.48000 -1.197
91.50000 4.062
91.52000 4.969
91.54000 0.802
91.56000 -2.199
91.58000 -1.522
91.60000 -1.630
91.62000 -0.229
91.64000 7.150
91.66000 4.239
91.68000 0.221
91.70000 -0.432
91.72000 0.418
91.74000 1.801
91.76000 3.926
91.78000 5.186
91.80000 5.220
91.82000 3.271
91.84000 3.149
91.86000 3.961
91.88000 3.011
91.90000 2.140
91.92000 4.324
91.94000 1.702
91.96000 1.024
91.98000 3.077
92.00000 5.082
92.02000 2.121
92.04000 1.468
92.06000 5.719
92.08000 1.040
92.10000 -1.344
92.12000 -0.338
92.14000 -2.211
92.16000 4.872
92.18000 6.696
92.20000 4.275
92.22000 -0.130
92.24000 -0.254
92.26000 2.159
92.28000 -0.618
92.30000 0.990
92.32000 4.186
92.34000 3.213
92.36000 1.010
92.38000 1.091
92.40000 4.434
92.42000 3.382
92.44000 6.033
92.46000 3.345
92.48000 -0.799
92.50000 -0.125
92.52000 -0.554
92.54000 3.788
92.56000 0.050
92.58000 3.290
92.60000 7.396
92.62000 4.709
92.64000 0.648
92.66000 0.757
92.68000 4.020
92.70000 2.561
92.72000 4.541
92.74000 4.083
92.76000 2.916
92.78000 4.702
92.80000 6.929
92.82000 2.921
92.84000 3.305
92.86000 10.448
92.88000 4.380
92.90000 1.148
92.92000 1.572
92.94000 1.380
92.96000 0.801
92.98000 4.540
93.00000 2.991
93.02000 2.402
93.04000 -2.072
93.06000 0.554
93.08000 6.811
93.10000 1.910
93.12000 -1.139
93.14000 -2.193
93.16000 8.637
93.18000 11.081
93.20000 3.961
93.22000 -1.266
93.24000 4.465
93.26000 3.826
93.28000 3.428
93.30000 2.096
93.32000 1.304
93.34000 1.699
93.36000 -2.203
93.38000 0.699
93.40000 -0.300
93.42000 4.452
93.44000 4.590
93.46000 1.207
93.48000 0.931
93.50000 -2.208
93.52000 1.526
93.54000 1.410
93.56000 4.590
93.58000 6.581
93.60000 2.589
93.62000 1.922
93.64000 3.589
93.66000 3.808
93.68000 3.166
93.70000 6.393
93.72000 5.544
93.74000 5.415
93.76000 1.037
93.78000 3.831
93.80000 2.329
93.82000 1.007
93.84000 5.035
93.86000 0.746
93.88000 -0.683
93.90000 7.449
93.92000 2.285
93.94000 2.761
93.96000 2.975
93.98000 1.928
94.00000 4.600
94.02000 6.583
94.04000 8.742
94.06000 2.928
94.08000 -0.321
94.10000 -2.216
94.12000 0.373
94.14000 2.058
94.16000 2.789
94.18000 2.169
94.20000 1.646
94.22000 3.711
94.24000 4.498
94.26000 3.097
94.28000 2.026
94.30000 3.730
94.32000 3.939
94.34000 2.387
94.36000 2.799
94.38000 4.731
94.40000 4.630
94.42000 7.156
94.44000 4.221
94.46000 1.481
94.48000 1.358
94.50000 5.747
94.52000 6.895
94.54000 4.166
94.56000 1.088
94.58000 6.612
94.60000 -1.314
94.62000 3.480
94.64000 1.026
94.66000 -0.795
94.68000 1.835
94.70000 8.068
94.72000 8.796
94.74000 9.288
94.76000 4.325
94.78000 0.585
94.80000 6.999
94.82000 4.538
94.84000 10.041
94.86000 7.650
94.88000 3.182
94.90000 6.275
94.92000 5.527
94.94000 1.183
94.96000 2.376
94.98000 3.441
95.00000 -2.210
95.02000 3.354
95.04000 8.768
95.06000 3.214
95.08000 -0.791
95.10000 -1.834
95.12000 3.052
95.14000 6.832
95.16000 2.951
95.18000 -1.205
95.20000 3.729
95.22000 9.505
95.24000 7.430
95.26000 -0.387
95.28000 3.882
95.30000 11.037
95.32000 8.260
95.34000 2.816
95.36000 7.540
95.38000 10.504
95.40000 7.596
95.42000 7.212
95.44000 3.655
95.46000 1.699
95.48000 7.451
95.50000 2.095
95.52000 3.032
95.54000 1.839
95.56000 1.733
95.58000 2.676
95.60000 -0.166
95.62000 1.589
95.64000 3.599
95.66000 2.704
95.68000 3.306
95.70000 9.617
95.72000 3.806
95.74000 4.078
95.76000 9.222
95.78000 6.393
95.80000 -2.215
95.82000 -0.377
95.84000 3.404
95.86000 8.564
95.88000 4.093
95.90000 6.349
95.92000 6.426
95.94000 0.756
95.96000 4.076
95.98000 2.430
96.00000 6.233
96.02000 5.110
96.04000 4.082
96.06000 0.914
96.08000 2.887
96.10000 -1.972
96.12000 0.594
96.14000 4.872
96.16000 6.369
96.18000 9.339
96.20000 6.338
96.22000 1.192
96.24000 0.480
96.26000 0.057
96.28000 3.285
96.30000 0.989
96.32000 5.360
96.34000 4.779
96.36000 0.982
96.38000 -0.586
96.40000 7.941
96.42000 4.548
96.44000 -0.099
96.46000 10.147
96.48000 6.007
96.50000 9.303
96.52000 6.478
96.54000 4.735
96.56000 4.740
96.58000 3.276
96.60000 5.708
96.62000 5.117
96.64000 3.644
96.66000 1.215
96.68000 6.195
96.70000 6.447
96.72000 6.114
96.74000 8.141
96.76000 7.322
96.78000 6.294
96.80000 4.201
96.82000 6.381
96.84000 6.092
96.86000 6.120
96.88000 7.289
96.90000 7.777
96.92000 9.856
96.94000 8.899
96.96000 0.108
96.98000 1.958
97.00000 0.906
97.02000 1.963
97.04000 1.430
97.06000 5.664
97.08000 5.697
97.10000 6.128
97.12000 6.284
97.14000 11.341
97.16000 8.986
97.18000 6.588
97.20000 3.666
97.22000 2.346
97.24000 7.007
97.26000 2.016
97.28000 -2.158
97.30000 0.732
97.32000 0.182
97.34000 1.111
97.36000 9.309
97.38000 12.370
97.40000 17.589
97.42000 11.198
97.44000 6.009
97.46000 2.007
97.48000 1.983
97.50000 6.423
97.52000 9.236
97.54000 9.028
97.56000 8.503
97.58000 5.967
97.60000 5.671
97.62000 10.349
97.64000 6.901
97.66000 6.467
97.68000 8.428
97.70000 10.800
97.72000 8.430
97.74000 5.179
97.76000 6.186
97.78000 1.257
97.80000 2.960
97.82000 3.605
97.84000 1.342
97.86000 3.648
97.88000 1.169
97.90000 7.628
97.92000 9.322
97.94000 11.161
97.96000 9.036
97.98000 6.715
98.00000 2.309
98.02000 6.753
98.04000 2.344
98.06000 2.796
98.08000 3.267
98.10000 4.459
98.12000 3.851
98.14000 5.975
98.16000 12.283
98.18000 9.969
98.20000 2.368
98.22000 4.599
98.24000 4.632
98.26000 5.211
98.28000 4.214
98.30000 2.974
98.32000 13.427
98.34000 18.330
98.36000 14.905
98.38000 9.327
98.40000 0.133
98.42000 5.770
98.44000 0.004
98.46000 3.578
98.48000 9.446
98.50000 0.788
98.52000 7.112
98.54000 5.550
98.56000 6.264
98.58000 3.055
98.60000 8.336
98.62000 5.075
98.64000 10.283
98.66000 5.800
98.68000 2.249
98.70000 2.698
98.72000 -0.165
98.74000 -2.078
98.76000 2.921
98.78000 11.922
98.80000 7.166
98.82000 7.610
98.84000 3.574
98.86000 4.949
98.88000 14.664
98.90000 8.055
98.92000 4.251
98.94000 6.718
98.96000 10.028
98.98000 9.598
99.00000 2.233
99.02000 6.152
99.04000 18.826
99.06000 5.302
99.08000 0.073
99.10000 -0.028
99.12000 2.366
99.14000 3.664
99.16000 3.416
99.18000 4.453
99.20000 2.224
99.22000 2.897
99.24000 2.404
99.26000 5.507
99.28000 4.482
99.30000 9.045
99.32000 14.842
99.34000 17.423
99.36000 13.638
99.38000 5.357
99.40000 6.488
99.42000 -0.964
99.44000 2.204
99.46000 -0.856
99.48000 0.325
99.50000 5.258
99.52000 3.754
99.54000 8.832
99.56000 9.346
99.58000 9.863
99.60000 13.768
99.62000 8.359
99.64000 -0.505
99.66000 0.315
99.68000 5.199
99.70000 0.728
99.72000 1.870
99.74000 -2.232
99.76000 4.158
99.78000 5.001
99.80000 9.169
99.82000 6.470
99.84000 6.741
99.86000 9.103
99.88000 2.500
99.90000 -2.206
99.92000 -2.281
99.94000 4.765
99.96000 0.779
99.98000 0.000
