'Id: "0011387" Comment: "Integrate frame 0011387_Au-Ir-Rh_Rh-rich_XRD-Mapping-216-0000.gfrmwith cursor Wedge Cursor #5" Operator: "B?rgel" Anode: "Cu" Wavelength: "1.5406" Scantype: "2Theta (TwoTheta)" TimePerStep: "1" X: "31.5" Y: "9" Z: "5.95" 
10.00000 0.000
10.02000 4.524
10.04000 3.001
10.06000 9.485
10.08000 11.578
10.10000 22.409
10.12000 19.917
10.14000 17.968
10.16000 15.251
10.18000 24.350
10.20000 28.265
10.22000 16.326
10.24000 18.586
10.26000 19.055
10.28000 13.753
10.30000 24.129
10.32000 20.536
10.34000 21.240
10.36000 24.242
10.38000 17.411
10.40000 11.189
10.42000 18.055
10.44000 34.938
10.46000 30.763
10.48000 26.675
10.50000 29.498
10.52000 22.201
10.54000 18.698
10.56000 17.017
10.58000 25.974
10.60000 36.326
10.62000 34.196
10.64000 34.107
10.66000 36.999
10.68000 28.794
10.70000 19.710
10.72000 23.815
10.74000 33.717
10.76000 24.063
10.78000 25.294
10.80000 23.904
10.82000 41.453
10.84000 29.622
10.86000 31.812
10.88000 27.215
10.90000 32.949
10.92000 33.270
10.94000 40.154
10.96000 36.542
10.98000 40.156
11.00000 33.310
11.02000 36.474
11.04000 43.468
11.06000 38.353
11.08000 33.445
11.10000 36.756
11.12000 32.225
11.14000 36.290
11.16000 35.617
11.18000 22.209
11.20000 28.862
11.22000 34.358
11.24000 34.771
11.26000 40.752
11.28000 43.029
11.30000 43.106
11.32000 45.918
11.34000 43.849
11.36000 44.997
11.38000 47.371
11.40000 31.012
11.42000 31.413
11.44000 40.378
11.46000 31.810
11.48000 33.302
11.50000 41.673
11.52000 41.985
11.54000 39.037
11.56000 45.735
11.58000 40.021
11.60000 47.224
11.62000 43.825
11.64000 36.573
11.66000 31.641
11.68000 38.259
11.70000 29.423
11.72000 32.825
11.74000 36.661
11.76000 35.265
11.78000 33.324
11.80000 24.633
11.82000 31.040
11.84000 34.680
11.86000 36.113
11.88000 36.824
11.90000 46.425
11.92000 41.798
11.94000 35.908
11.96000 37.534
11.98000 34.169
12.00000 35.748
12.02000 34.843
12.04000 30.639
12.06000 34.360
12.08000 36.353
12.10000 34.062
12.12000 39.783
12.14000 42.872
12.16000 37.125
12.18000 38.326
12.20000 47.802
12.22000 46.280
12.24000 36.932
12.26000 46.891
12.28000 49.959
12.30000 45.138
12.32000 51.188
12.34000 46.277
12.36000 47.049
12.38000 36.820
12.40000 46.966
12.42000 47.274
12.44000 43.559
12.46000 53.143
12.48000 47.518
12.50000 38.129
12.52000 45.374
12.54000 45.062
12.56000 43.936
12.58000 34.552
12.60000 34.759
12.62000 50.725
12.64000 58.126
12.66000 53.898
12.68000 47.383
12.70000 44.809
12.72000 38.464
12.74000 41.601
12.76000 42.326
12.78000 40.575
12.80000 44.724
12.82000 51.011
12.84000 52.559
12.86000 48.965
12.88000 46.465
12.90000 37.720
12.92000 53.274
12.94000 49.687
12.96000 39.321
12.98000 42.135
13.00000 34.558
13.02000 43.131
13.04000 48.100
13.06000 44.930
13.08000 51.173
13.10000 60.832
13.12000 52.656
13.14000 47.432
13.16000 44.701
13.18000 41.775
13.20000 44.352
13.22000 38.825
13.24000 44.342
13.26000 46.537
13.28000 47.445
13.30000 46.608
13.32000 38.582
13.34000 35.520
13.36000 36.704
13.38000 43.336
13.40000 48.359
13.42000 32.411
13.44000 31.296
13.46000 37.285
13.48000 36.073
13.50000 33.219
13.52000 32.699
13.54000 44.738
13.56000 45.304
13.58000 44.326
13.60000 43.576
13.62000 43.064
13.64000 46.388
13.66000 37.022
13.68000 33.219
13.70000 31.596
13.72000 31.192
13.74000 41.244
13.76000 44.306
13.78000 38.288
13.80000 43.979
13.82000 44.061
13.84000 35.300
13.86000 29.574
13.88000 34.128
13.90000 33.171
13.92000 37.353
13.94000 37.614
13.96000 27.779
13.98000 31.327
14.00000 32.810
14.02000 33.586
14.04000 36.863
14.06000 38.770
14.08000 32.624
14.10000 29.924
14.12000 28.429
14.14000 38.055
14.16000 31.977
14.18000 33.331
14.20000 34.067
14.22000 41.396
14.24000 35.801
14.26000 29.916
14.28000 30.905
14.30000 32.707
14.32000 36.410
14.34000 38.810
14.36000 32.029
14.38000 38.669
14.40000 35.073
14.42000 34.077
14.44000 41.937
14.46000 41.652
14.48000 41.821
14.50000 35.644
14.52000 27.308
14.54000 27.239
14.56000 26.929
14.58000 26.581
14.60000 30.918
14.62000 34.656
14.64000 28.503
14.66000 34.662
14.68000 32.143
14.70000 28.250
14.72000 26.356
14.74000 33.350
14.76000 32.415
14.78000 29.624
14.80000 22.803
14.82000 23.020
14.84000 20.105
14.86000 27.824
14.88000 24.755
14.90000 16.098
14.92000 18.599
14.94000 20.481
14.96000 23.145
14.98000 29.053
15.00000 27.926
15.02000 24.455
15.04000 24.118
15.06000 27.025
15.08000 24.163
15.10000 24.213
15.12000 18.465
15.14000 27.480
15.16000 19.056
15.18000 16.722
15.20000 18.529
15.22000 24.087
15.24000 16.591
15.26000 11.790
15.28000 19.957
15.30000 22.328
15.32000 16.894
15.34000 28.208
15.36000 28.072
15.38000 32.274
15.40000 24.064
15.42000 20.795
15.44000 18.173
15.46000 20.059
15.48000 24.682
15.50000 20.072
15.52000 17.376
15.54000 27.010
15.56000 26.619
15.58000 24.900
15.60000 24.592
15.62000 22.849
15.64000 23.220
15.66000 26.318
15.68000 23.293
15.70000 26.049
15.72000 14.726
15.74000 14.603
15.76000 14.709
15.78000 11.793
15.80000 12.875
15.82000 16.509
15.84000 17.704
15.86000 19.119
15.88000 25.104
15.90000 11.404
15.92000 16.047
15.94000 22.023
15.96000 22.524
15.98000 23.273
16.00000 15.061
16.02000 11.073
16.04000 23.556
16.06000 14.104
16.08000 9.250
16.10000 11.330
16.12000 16.071
16.14000 17.855
16.16000 9.129
16.18000 6.394
16.20000 19.166
16.22000 20.186
16.24000 14.120
16.26000 14.805
16.28000 17.784
16.30000 10.521
16.32000 8.963
16.34000 15.125
16.36000 17.147
16.38000 8.486
16.40000 9.915
16.42000 17.054
16.44000 15.971
16.46000 15.936
16.48000 15.689
16.50000 17.889
16.52000 22.063
16.54000 22.342
16.56000 13.385
16.58000 8.789
16.60000 13.465
16.62000 8.593
16.64000 14.984
16.66000 18.998
16.68000 10.006
16.70000 15.949
16.72000 21.890
16.74000 20.226
16.76000 20.563
16.78000 17.103
16.80000 8.114
16.82000 12.656
16.84000 5.628
16.86000 5.673
16.88000 13.231
16.90000 9.323
16.92000 6.861
16.94000 13.104
16.96000 7.169
16.98000 6.428
17.00000 15.560
17.02000 19.055
17.04000 9.280
17.06000 12.216
17.08000 16.811
17.10000 8.559
17.12000 10.772
17.14000 11.439
17.16000 5.586
17.18000 6.741
17.20000 5.858
17.22000 15.508
17.24000 17.277
17.26000 14.288
17.28000 7.023
17.30000 7.607
17.32000 12.569
17.34000 9.767
17.36000 7.621
17.38000 7.031
17.40000 6.474
17.42000 9.666
17.44000 18.161
17.46000 16.506
17.48000 13.171
17.50000 8.121
17.52000 5.285
17.54000 1.391
17.56000 5.186
17.58000 1.885
17.60000 9.918
17.62000 7.699
17.64000 4.632
17.66000 6.558
17.68000 4.025
17.70000 6.516
17.72000 4.781
17.74000 5.820
17.76000 2.475
17.78000 2.229
17.80000 10.312
17.82000 8.071
17.84000 7.937
17.86000 -0.278
17.88000 2.490
17.90000 4.727
17.92000 4.917
17.94000 2.981
17.96000 4.332
17.98000 6.292
18.00000 12.416
18.02000 11.189
18.04000 5.846
18.06000 2.363
18.08000 2.581
18.10000 11.294
18.12000 15.914
18.14000 16.164
18.16000 9.050
18.18000 -0.291
18.20000 3.010
18.22000 7.086
18.24000 12.532
18.26000 12.367
18.28000 9.002
18.30000 1.469
18.32000 -3.371
18.34000 -3.078
18.36000 7.090
18.38000 -0.753
18.40000 -4.326
18.42000 7.381
18.44000 4.555
18.46000 7.868
18.48000 4.456
18.50000 11.658
18.52000 6.935
18.54000 7.798
18.56000 9.642
18.58000 5.713
18.60000 8.081
18.62000 10.773
18.64000 0.150
18.66000 -3.847
18.68000 2.641
18.70000 3.239
18.72000 -2.446
18.74000 0.951
18.76000 4.943
18.78000 8.299
18.80000 1.613
18.82000 -0.178
18.84000 4.738
18.86000 5.299
18.88000 5.832
18.90000 9.974
18.92000 5.841
18.94000 5.673
18.96000 7.366
18.98000 4.699
19.00000 -0.762
19.02000 1.340
19.04000 10.654
19.06000 12.231
19.08000 8.411
19.10000 8.369
19.12000 3.856
19.14000 -4.291
19.16000 1.824
19.18000 2.635
19.20000 0.039
19.22000 2.921
19.24000 3.042
19.26000 2.774
19.28000 2.307
19.30000 -4.281
19.32000 1.177
19.34000 0.320
19.36000 7.329
19.38000 9.739
19.40000 4.234
19.42000 7.291
19.44000 13.043
19.46000 11.145
19.48000 15.543
19.50000 4.290
19.52000 1.537
19.54000 3.563
19.56000 2.812
19.58000 7.319
19.60000 11.554
19.62000 4.489
19.64000 5.589
19.66000 4.789
19.68000 -0.851
19.70000 1.486
19.72000 -0.673
19.74000 1.133
19.76000 8.684
19.78000 6.908
19.80000 5.085
19.82000 1.739
19.84000 5.763
19.86000 8.052
19.88000 5.477
19.90000 3.356
19.92000 -0.254
19.94000 3.647
19.96000 7.474
19.98000 0.285
20.00000 -0.986
20.02000 3.995
20.04000 8.781
20.06000 10.915
20.08000 2.591
20.10000 3.904
20.12000 6.977
20.14000 2.120
20.16000 5.738
20.18000 2.226
20.20000 -0.651
20.22000 0.168
20.24000 -4.214
20.26000 4.432
20.28000 2.267
20.30000 2.801
20.32000 3.411
20.34000 1.422
20.36000 -1.716
20.38000 -0.794
20.40000 5.053
20.42000 8.815
20.44000 8.308
20.46000 6.687
20.48000 3.832
20.50000 2.221
20.52000 -1.932
20.54000 -0.759
20.56000 3.627
20.58000 2.544
20.60000 -2.539
20.62000 0.637
20.64000 2.583
20.66000 -0.299
20.68000 -3.980
20.70000 4.298
20.72000 8.013
20.74000 5.476
20.76000 2.823
20.78000 -0.133
20.80000 4.077
20.82000 2.063
20.84000 2.720
20.86000 2.879
20.88000 10.739
20.90000 12.483
20.92000 7.244
20.94000 3.583
20.96000 -1.579
20.98000 -3.502
21.00000 3.715
21.02000 5.211
21.04000 1.532
21.06000 -2.602
21.08000 3.115
21.10000 6.575
21.12000 3.394
21.14000 2.042
21.16000 0.976
21.18000 4.940
21.20000 4.619
21.22000 0.162
21.24000 0.294
21.26000 7.613
21.28000 11.437
21.30000 1.430
21.32000 -1.727
21.34000 4.245
21.36000 7.171
21.38000 5.428
21.40000 1.622
21.42000 2.457
21.44000 3.136
21.46000 2.994
21.48000 9.261
21.50000 11.340
21.52000 3.389
21.54000 -2.825
21.56000 -2.762
21.58000 0.446
21.60000 7.525
21.62000 3.523
21.64000 1.161
21.66000 7.130
21.68000 5.377
21.70000 3.735
21.72000 2.910
21.74000 -2.798
21.76000 -4.146
21.78000 2.534
21.80000 3.388
21.82000 11.188
21.84000 12.571
21.86000 12.076
21.88000 4.906
21.90000 -2.806
21.92000 1.496
21.94000 -2.335
21.96000 2.270
21.98000 2.933
22.00000 2.706
22.02000 1.466
22.04000 3.779
22.06000 4.710
22.08000 -0.200
22.10000 2.954
22.12000 10.377
22.14000 8.360
22.16000 7.183
22.18000 8.383
22.20000 12.792
22.22000 8.456
22.24000 7.718
22.26000 10.997
22.28000 3.460
22.30000 -0.851
22.32000 -2.682
22.34000 -3.344
22.36000 0.721
22.38000 -1.672
22.40000 -2.682
22.42000 -1.976
22.44000 -1.596
22.46000 4.616
22.48000 4.014
22.50000 10.166
22.52000 12.467
22.54000 11.407
22.56000 4.380
22.58000 1.491
22.60000 6.817
22.62000 10.529
22.64000 6.949
22.66000 0.082
22.68000 0.663
22.70000 8.152
22.72000 4.141
22.74000 1.866
22.76000 0.137
22.78000 3.186
22.80000 7.340
22.82000 1.829
22.84000 -0.129
22.86000 -2.376
22.88000 3.463
22.90000 7.849
22.92000 7.352
22.94000 8.291
22.96000 5.147
22.98000 -1.004
23.00000 3.123
23.02000 0.923
23.04000 1.306
23.06000 5.561
23.08000 5.489
23.10000 3.497
23.12000 4.085
23.14000 5.507
23.16000 8.694
23.18000 8.437
23.20000 4.215
23.22000 3.929
23.24000 3.762
23.26000 7.033
23.28000 13.938
23.30000 9.736
23.32000 0.946
23.34000 -4.028
23.36000 4.273
23.38000 12.242
23.40000 5.487
23.42000 7.210
23.44000 -0.915
23.46000 0.718
23.48000 3.588
23.50000 7.614
23.52000 12.644
23.54000 7.948
23.56000 1.107
23.58000 7.089
23.60000 6.977
23.62000 8.982
23.64000 8.818
23.66000 7.578
23.68000 5.311
23.70000 7.555
23.72000 5.659
23.74000 6.545
23.76000 6.319
23.78000 3.584
23.80000 0.413
23.82000 5.930
23.84000 13.034
23.86000 6.437
23.88000 3.017
23.90000 1.444
23.92000 0.999
23.94000 3.624
23.96000 5.063
23.98000 -0.290
24.00000 2.685
24.02000 2.479
24.04000 -2.768
24.06000 0.242
24.08000 5.953
24.10000 6.717
24.12000 8.030
24.14000 1.556
24.16000 4.686
24.18000 5.807
24.20000 4.582
24.22000 8.772
24.24000 9.132
24.26000 1.397
24.28000 5.406
24.30000 5.551
24.32000 9.356
24.34000 5.434
24.36000 0.982
24.38000 7.276
24.40000 9.271
24.42000 8.552
24.44000 2.330
24.46000 2.739
24.48000 3.048
24.50000 4.783
24.52000 6.053
24.54000 5.711
24.56000 2.952
24.58000 3.137
24.60000 5.561
24.62000 3.160
24.64000 -0.736
24.66000 -2.699
24.68000 1.588
24.70000 6.888
24.72000 6.802
24.74000 2.933
24.76000 5.545
24.78000 7.335
24.80000 0.335
24.82000 -1.027
24.84000 -2.764
24.86000 -3.952
24.88000 1.265
24.90000 4.961
24.92000 6.158
24.94000 0.641
24.96000 0.965
24.98000 5.088
25.00000 2.437
25.02000 3.425
25.04000 7.954
25.06000 6.400
25.08000 3.202
25.10000 6.242
25.12000 5.497
25.14000 4.772
25.16000 8.746
25.18000 7.390
25.20000 9.269
25.22000 5.125
25.24000 3.727
25.26000 5.073
25.28000 10.737
25.30000 8.140
25.32000 5.456
25.34000 3.487
25.36000 6.664
25.38000 7.405
25.40000 6.464
25.42000 4.854
25.44000 4.595
25.46000 5.895
25.48000 0.471
25.50000 -1.432
25.52000 -0.090
25.54000 4.480
25.56000 11.425
25.58000 12.372
25.60000 10.652
25.62000 6.624
25.64000 6.526
25.66000 2.546
25.68000 3.571
25.70000 6.043
25.72000 2.274
25.74000 -0.133
25.76000 0.368
25.78000 5.290
25.80000 6.206
25.82000 6.633
25.84000 7.730
25.86000 5.891
25.88000 9.455
25.90000 4.582
25.92000 -0.965
25.94000 -3.894
25.96000 3.199
25.98000 8.842
26.00000 4.823
26.02000 1.583
26.04000 2.031
26.06000 6.982
26.08000 5.239
26.10000 6.072
26.12000 8.854
26.14000 7.437
26.16000 -2.355
26.18000 -1.878
26.20000 5.073
26.22000 6.197
26.24000 8.069
26.26000 10.949
26.28000 5.984
26.30000 5.004
26.32000 0.230
26.34000 2.989
26.36000 4.712
26.38000 7.649
26.40000 11.007
26.42000 10.538
26.44000 6.778
26.46000 -0.226
26.48000 2.023
26.50000 1.840
26.52000 -1.738
26.54000 -2.467
26.56000 -0.336
26.58000 3.286
26.60000 5.481
26.62000 3.640
26.64000 1.478
26.66000 0.936
26.68000 2.313
26.70000 0.047
26.72000 2.031
26.74000 -3.113
26.76000 3.669
26.78000 5.635
26.80000 5.109
26.82000 6.407
26.84000 2.800
26.86000 -2.166
26.88000 2.875
26.90000 9.014
26.92000 3.812
26.94000 2.121
26.96000 -1.132
26.98000 -1.293
27.00000 0.154
27.02000 -1.856
27.04000 2.925
27.06000 4.606
27.08000 3.640
27.10000 -2.795
27.12000 -3.845
27.14000 -1.098
27.16000 1.161
27.18000 1.639
27.20000 1.449
27.22000 5.406
27.24000 1.528
27.26000 -3.838
27.28000 0.335
27.30000 4.627
27.32000 4.903
27.34000 6.364
27.36000 4.149
27.38000 8.530
27.40000 1.927
27.42000 0.944
27.44000 1.982
27.46000 3.708
27.48000 0.299
27.50000 -2.190
27.52000 -0.667
27.54000 4.112
27.56000 0.720
27.58000 -2.452
27.60000 1.574
27.62000 5.972
27.64000 2.635
27.66000 4.201
27.68000 6.729
27.70000 4.762
27.72000 1.326
27.74000 0.851
27.76000 4.166
27.78000 4.032
27.80000 0.286
27.82000 1.129
27.84000 0.730
27.86000 3.553
27.88000 5.905
27.90000 1.964
27.92000 -2.769
27.94000 1.781
27.96000 8.451
27.98000 10.551
28.00000 5.047
28.02000 2.852
28.04000 6.919
28.06000 5.727
28.08000 6.116
28.10000 1.838
28.12000 1.150
28.14000 4.039
28.16000 1.003
28.18000 1.132
28.20000 2.661
28.22000 6.077
28.24000 2.872
28.26000 -3.497
28.28000 -0.489
28.30000 0.213
28.32000 1.651
28.34000 4.124
28.36000 5.311
28.38000 6.539
28.40000 4.908
28.42000 6.468
28.44000 8.684
28.46000 3.900
28.48000 -1.983
28.50000 2.053
28.52000 2.955
28.54000 5.053
28.56000 5.625
28.58000 5.951
28.60000 4.164
28.62000 2.990
28.64000 4.826
28.66000 3.668
28.68000 4.404
28.70000 1.921
28.72000 1.686
28.74000 6.527
28.76000 2.349
28.78000 1.938
28.80000 -2.198
28.82000 2.493
28.84000 6.603
28.86000 5.929
28.88000 2.696
28.90000 4.241
28.92000 5.352
28.94000 1.486
28.96000 0.886
28.98000 2.937
29.00000 0.373
29.02000 -0.635
29.04000 -3.738
29.06000 4.905
29.08000 8.848
29.10000 3.528
29.12000 5.437
29.14000 5.196
29.16000 4.294
29.18000 0.093
29.20000 3.079
29.22000 5.129
29.24000 3.900
29.26000 -0.019
29.28000 2.651
29.30000 5.246
29.32000 6.588
29.34000 5.283
29.36000 2.715
29.38000 1.420
29.40000 5.004
29.42000 2.968
29.44000 0.605
29.46000 4.206
29.48000 5.018
29.50000 7.014
29.52000 8.118
29.54000 3.302
29.56000 1.426
29.58000 -1.686
29.60000 5.243
29.62000 5.160
29.64000 2.655
29.66000 6.649
29.68000 5.154
29.70000 6.531
29.72000 4.231
29.74000 2.677
29.76000 1.404
29.78000 -0.242
29.80000 -3.102
29.82000 1.348
29.84000 0.055
29.86000 1.876
29.88000 2.219
29.90000 -1.723
29.92000 -1.609
29.94000 0.120
29.96000 -2.875
29.98000 -1.271
30.00000 2.826
30.02000 4.105
30.04000 -1.347
30.06000 -3.260
30.08000 -2.902
30.10000 -0.101
30.12000 -2.003
30.14000 -1.215
30.16000 -0.152
30.18000 6.316
30.20000 4.504
30.22000 0.818
30.24000 -0.965
30.26000 1.893
30.28000 -2.636
30.30000 -3.700
30.32000 -1.197
30.34000 1.645
30.36000 -1.108
30.38000 2.885
30.40000 0.511
30.42000 -3.693
30.44000 -2.348
30.46000 0.101
30.48000 -0.362
30.50000 -1.658
30.52000 2.220
30.54000 1.192
30.56000 0.821
30.58000 3.200
30.60000 3.239
30.62000 2.030
30.64000 3.543
30.66000 2.373
30.68000 5.435
30.70000 4.322
30.72000 2.198
30.74000 1.513
30.76000 -3.671
30.78000 -1.189
30.80000 3.256
30.82000 3.445
30.84000 3.870
30.86000 0.228
30.88000 0.687
30.90000 7.867
30.92000 3.767
30.94000 2.773
30.96000 4.380
30.98000 11.370
31.00000 3.381
31.02000 2.151
31.04000 4.711
31.06000 5.545
31.08000 0.975
31.10000 1.086
31.12000 -3.111
31.14000 -1.505
31.16000 0.851
31.18000 1.023
31.20000 3.214
31.22000 -0.900
31.24000 7.004
31.26000 2.446
31.28000 2.119
31.30000 4.525
31.32000 2.444
31.34000 5.141
31.36000 7.388
31.38000 8.302
31.40000 2.108
31.42000 3.698
31.44000 4.947
31.46000 5.455
31.48000 0.185
31.50000 2.177
31.52000 1.623
31.54000 -0.541
31.56000 0.804
31.58000 -3.378
31.60000 -0.387
31.62000 2.362
31.64000 4.471
31.66000 -0.871
31.68000 -0.546
31.70000 3.295
31.72000 2.858
31.74000 8.540
31.76000 10.597
31.78000 4.543
31.80000 5.685
31.82000 3.211
31.84000 3.482
31.86000 3.327
31.88000 3.043
31.90000 4.741
31.92000 4.168
31.94000 7.742
31.96000 7.514
31.98000 5.566
32.00000 6.345
32.02000 4.457
32.04000 0.108
32.06000 1.159
32.08000 1.852
32.10000 5.204
32.12000 1.136
32.14000 -3.592
32.16000 5.280
32.18000 10.805
32.20000 5.037
32.22000 2.568
32.24000 1.576
32.26000 -3.447
32.28000 -3.596
32.30000 1.421
32.32000 2.816
32.34000 2.869
32.36000 5.307
32.38000 5.455
32.40000 6.496
32.42000 1.382
32.44000 -1.059
32.46000 -1.480
32.48000 2.159
32.50000 1.830
32.52000 2.283
32.54000 4.707
32.56000 2.669
32.58000 -0.603
32.60000 0.256
32.62000 3.326
32.64000 2.941
32.66000 -1.535
32.68000 -0.162
32.70000 0.022
32.72000 5.531
32.74000 6.602
32.76000 6.627
32.78000 7.438
32.80000 1.069
32.82000 2.543
32.84000 -2.156
32.86000 -3.176
32.88000 3.048
32.90000 6.660
32.92000 6.426
32.94000 5.627
32.96000 0.788
32.98000 1.870
33.00000 1.572
33.02000 1.380
33.04000 2.558
33.06000 0.067
33.08000 0.187
33.10000 0.575
33.12000 2.755
33.14000 1.261
33.16000 1.407
33.18000 7.089
33.20000 2.401
33.22000 4.752
33.24000 0.338
33.26000 5.183
33.28000 4.925
33.30000 -0.192
33.32000 -1.030
33.34000 3.164
33.36000 1.552
33.38000 2.393
33.40000 -0.053
33.42000 -3.596
33.44000 0.443
33.46000 3.371
33.48000 4.780
33.50000 0.248
33.52000 -1.441
33.54000 4.845
33.56000 4.940
33.58000 -0.103
33.60000 -0.836
33.62000 2.333
33.64000 3.203
33.66000 0.000
33.68000 -0.945
33.70000 0.280
33.72000 -3.433
33.74000 2.739
33.76000 2.820
33.78000 6.017
33.80000 3.457
33.82000 -1.387
33.84000 -0.622
33.86000 -0.947
33.88000 -1.085
33.90000 -1.022
33.92000 2.903
33.94000 1.412
33.96000 7.397
33.98000 3.786
34.00000 1.694
34.02000 2.366
34.04000 4.346
34.06000 2.705
34.08000 4.350
34.10000 2.960
34.12000 -0.425
34.14000 0.103
34.16000 -2.879
34.18000 2.245
34.20000 6.822
34.22000 3.306
34.24000 0.091
34.26000 1.184
34.28000 -2.200
34.30000 0.512
34.32000 2.589
34.34000 5.722
34.36000 9.739
34.38000 8.096
34.40000 1.007
34.42000 3.977
34.44000 3.827
34.46000 5.263
34.48000 3.764
34.50000 4.600
34.52000 2.762
34.54000 -1.429
34.56000 0.949
34.58000 0.325
34.60000 2.614
34.62000 1.152
34.64000 -3.528
34.66000 0.244
34.68000 0.863
34.70000 0.893
34.72000 0.515
34.74000 5.948
34.76000 8.709
34.78000 6.834
34.80000 3.115
34.82000 0.252
34.84000 -0.155
34.86000 1.388
34.88000 0.115
34.90000 0.736
34.92000 2.403
34.94000 3.285
34.96000 9.150
34.98000 5.436
35.00000 0.550
35.02000 1.089
35.04000 0.291
35.06000 -1.393
35.08000 2.732
35.10000 1.832
35.12000 0.570
35.14000 -1.875
35.16000 -2.706
35.18000 -3.530
35.20000 -0.231
35.22000 8.514
35.24000 3.765
35.26000 1.219
35.28000 1.164
35.30000 -0.829
35.32000 1.880
35.34000 2.323
35.36000 1.024
35.38000 2.905
35.40000 4.320
35.42000 0.370
35.44000 -2.348
35.46000 0.224
35.48000 2.576
35.50000 1.056
35.52000 -0.456
35.54000 2.228
35.56000 4.273
35.58000 6.301
35.60000 2.627
35.62000 -2.119
35.64000 -0.539
35.66000 4.034
35.68000 1.671
35.70000 -0.033
35.72000 2.683
35.74000 2.935
35.76000 -0.974
35.78000 0.637
35.80000 3.815
35.82000 4.600
35.84000 0.948
35.86000 3.453
35.88000 6.686
35.90000 2.196
35.92000 -0.074
35.94000 -2.503
35.96000 2.923
35.98000 5.394
36.00000 6.059
36.02000 3.790
36.04000 4.339
36.06000 6.220
36.08000 6.029
36.10000 5.601
36.12000 4.304
36.14000 1.036
36.16000 2.709
36.18000 4.536
36.20000 5.577
36.22000 8.224
36.24000 5.309
36.26000 1.258
36.28000 0.850
36.30000 3.762
36.32000 4.594
36.34000 0.751
36.36000 1.604
36.38000 1.397
36.40000 0.539
36.42000 -3.505
36.44000 -0.173
36.46000 0.557
36.48000 4.335
36.50000 2.008
36.52000 7.870
36.54000 7.924
36.56000 3.560
36.58000 3.791
36.60000 -0.061
36.62000 0.115
36.64000 1.358
36.66000 6.261
36.68000 1.258
36.70000 5.493
36.72000 1.534
36.74000 6.105
36.76000 5.304
36.78000 4.681
36.80000 2.886
36.82000 5.274
36.84000 6.289
36.86000 3.297
36.88000 0.788
36.90000 -2.402
36.92000 2.727
36.94000 1.467
36.96000 5.139
36.98000 5.602
37.00000 4.682
37.02000 5.321
37.04000 4.499
37.06000 0.695
37.08000 0.268
37.10000 0.368
37.12000 -0.886
37.14000 -3.559
37.16000 -0.601
37.18000 2.137
37.20000 -1.962
37.22000 4.773
37.24000 0.667
37.26000 0.066
37.28000 0.412
37.30000 -0.430
37.32000 2.234
37.34000 4.109
37.36000 1.172
37.38000 0.192
37.40000 1.254
37.42000 2.607
37.44000 -0.729
37.46000 0.656
37.48000 4.934
37.50000 -0.145
37.52000 -3.591
37.54000 -2.767
37.56000 1.547
37.58000 3.109
37.60000 5.448
37.62000 4.675
37.64000 0.337
37.66000 -1.091
37.68000 -0.127
37.70000 6.612
37.72000 5.662
37.74000 3.197
37.76000 -0.424
37.78000 -0.052
37.80000 4.995
37.82000 8.136
37.84000 9.743
37.86000 5.487
37.88000 6.302
37.90000 7.509
37.92000 0.413
37.94000 -3.009
37.96000 0.114
37.98000 3.768
38.00000 5.899
38.02000 5.684
38.04000 6.316
38.06000 5.784
38.08000 3.777
38.10000 8.595
38.12000 9.008
38.14000 9.113
38.16000 9.032
38.18000 7.587
38.20000 7.890
38.22000 13.526
38.24000 8.332
38.26000 9.973
38.28000 10.809
38.30000 16.409
38.32000 13.314
38.34000 11.818
38.36000 13.711
38.38000 15.933
38.40000 15.530
38.42000 9.359
38.44000 8.630
38.46000 11.055
38.48000 15.637
38.50000 22.608
38.52000 21.123
38.54000 21.869
38.56000 13.470
38.58000 13.201
38.60000 17.631
38.62000 20.691
38.64000 20.394
38.66000 19.452
38.68000 19.393
38.70000 20.561
38.72000 22.972
38.74000 21.621
38.76000 22.261
38.78000 26.367
38.80000 26.484
38.82000 26.168
38.84000 30.076
38.86000 29.018
38.88000 29.196
38.90000 27.034
38.92000 29.723
38.94000 30.263
38.96000 24.832
38.98000 28.180
39.00000 35.774
39.02000 33.337
39.04000 30.165
39.06000 29.947
39.08000 36.473
39.10000 33.973
39.12000 41.861
39.14000 43.961
39.16000 47.030
39.18000 54.926
39.20000 49.016
39.22000 46.869
39.24000 52.108
39.26000 54.547
39.28000 58.621
39.30000 59.914
39.32000 57.553
39.34000 63.179
39.36000 66.657
39.38000 71.268
39.40000 75.479
39.42000 79.857
39.44000 85.259
39.46000 80.373
39.48000 85.116
39.50000 89.703
39.52000 90.237
39.54000 94.438
39.56000 105.264
39.58000 113.870
39.60000 120.881
39.62000 127.127
39.64000 132.638
39.66000 135.521
39.68000 139.727
39.70000 149.183
39.72000 153.273
39.74000 163.557
39.76000 161.272
39.78000 168.564
39.80000 178.796
39.82000 197.554
39.84000 205.766
39.86000 218.593
39.88000 233.238
39.90000 254.369
39.92000 264.903
39.94000 275.048
39.96000 281.172
39.98000 296.593
40.00000 317.548
40.02000 335.660
40.04000 356.364
40.06000 358.994
40.08000 382.513
40.10000 398.477
40.12000 407.816
40.14000 423.392
40.16000 449.374
40.18000 460.013
40.20000 476.467
40.22000 492.347
40.24000 505.222
40.26000 518.194
40.28000 533.323
40.30000 538.839
40.32000 543.832
40.34000 541.729
40.36000 550.688
40.38000 555.558
40.40000 565.636
40.42000 556.526
40.44000 553.312
40.46000 551.842
40.48000 553.683
40.50000 540.749
40.52000 539.201
40.54000 533.386
40.56000 518.698
40.58000 509.883
40.60000 499.760
40.62000 486.190
40.64000 473.888
40.66000 465.095
40.68000 446.431
40.70000 437.254
40.72000 419.800
40.74000 403.890
40.76000 380.516
40.78000 353.917
40.80000 342.532
40.82000 335.015
40.84000 313.887
40.86000 303.071
40.88000 289.717
40.90000 273.948
40.92000 264.640
40.94000 253.537
40.96000 237.233
40.98000 227.713
41.00000 224.089
41.02000 209.192
41.04000 191.273
41.06000 177.365
41.08000 175.938
41.10000 162.392
41.12000 155.877
41.14000 153.589
41.16000 141.137
41.18000 133.430
41.20000 125.011
41.22000 121.002
41.24000 113.593
41.26000 106.987
41.28000 103.093
41.30000 98.682
41.32000 89.632
41.34000 82.152
41.36000 80.597
41.38000 81.646
41.40000 73.299
41.42000 74.359
41.44000 71.945
41.46000 67.050
41.48000 63.714
41.50000 63.103
41.52000 61.675
41.54000 60.221
41.56000 61.055
41.58000 54.821
41.60000 46.508
41.62000 44.558
41.64000 47.372
41.66000 40.688
41.68000 36.165
41.70000 34.030
41.72000 36.649
41.74000 37.384
41.76000 30.586
41.78000 31.217
41.80000 34.920
41.82000 30.491
41.84000 32.274
41.86000 29.271
41.88000 29.785
41.90000 22.058
41.92000 24.581
41.94000 20.800
41.96000 18.702
41.98000 17.048
42.00000 15.845
42.02000 9.545
42.04000 12.940
42.06000 16.431
42.08000 15.781
42.10000 18.001
42.12000 18.377
42.14000 16.415
42.16000 13.160
42.18000 13.404
42.20000 13.503
42.22000 15.052
42.24000 7.974
42.26000 8.762
42.28000 11.288
42.30000 16.528
42.32000 16.020
42.34000 13.161
42.36000 11.775
42.38000 10.281
42.40000 14.168
42.42000 9.849
42.44000 7.415
42.46000 5.722
42.48000 2.993
42.50000 5.445
42.52000 7.547
42.54000 3.765
42.56000 7.440
42.58000 5.076
42.60000 6.390
42.62000 6.474
42.64000 4.279
42.66000 3.574
42.68000 0.611
42.70000 1.424
42.72000 3.414
42.74000 5.081
42.76000 3.911
42.78000 1.680
42.80000 0.936
42.82000 2.399
42.84000 5.058
42.86000 3.418
42.88000 4.109
42.90000 1.766
42.92000 -1.102
42.94000 -0.494
42.96000 3.734
42.98000 4.549
43.00000 -3.458
43.02000 -3.354
43.04000 -1.812
43.06000 2.350
43.08000 4.965
43.10000 6.494
43.12000 2.888
43.14000 -1.102
43.16000 2.944
43.18000 -0.165
43.20000 -1.599
43.22000 1.623
43.24000 0.786
43.26000 -1.633
43.28000 -1.275
43.30000 0.506
43.32000 3.497
43.34000 4.733
43.36000 5.582
43.38000 2.888
43.40000 4.157
43.42000 8.216
43.44000 3.094
43.46000 0.930
43.48000 -0.922
43.50000 0.951
43.52000 -0.492
43.54000 0.555
43.56000 1.166
43.58000 0.026
43.60000 -1.153
43.62000 -0.054
43.64000 0.200
43.66000 -3.396
43.68000 1.083
43.70000 1.795
43.72000 -0.812
43.74000 0.046
43.76000 2.466
43.78000 3.528
43.80000 0.816
43.82000 2.164
43.84000 -1.153
43.86000 -0.718
43.88000 -0.829
43.90000 -0.434
43.92000 1.222
43.94000 4.234
43.96000 2.876
43.98000 0.773
44.00000 1.349
44.02000 -0.196
44.04000 1.004
44.06000 -1.947
44.08000 -3.375
44.10000 -1.083
44.12000 -0.321
44.14000 -0.713
44.16000 1.912
44.18000 -1.454
44.20000 0.892
44.22000 0.649
44.24000 3.149
44.26000 0.158
44.28000 -1.283
44.30000 -0.468
44.32000 1.754
44.34000 -0.772
44.36000 0.204
44.38000 2.077
44.40000 0.141
44.42000 0.518
44.44000 1.232
44.46000 -0.519
44.48000 -1.838
44.50000 -1.765
44.52000 -1.026
44.54000 0.352
44.56000 -1.247
44.58000 -0.663
44.60000 -1.801
44.62000 0.051
44.64000 3.338
44.66000 3.830
44.68000 5.739
44.70000 4.154
44.72000 9.157
44.74000 7.979
44.76000 5.769
44.78000 -0.377
44.80000 -3.330
44.82000 -0.394
44.84000 0.303
44.86000 2.784
44.88000 7.263
44.90000 6.351
44.92000 2.597
44.94000 2.358
44.96000 1.592
44.98000 0.093
45.00000 -0.826
45.02000 0.430
45.04000 0.193
45.06000 -0.809
45.08000 0.260
45.10000 -0.633
45.12000 5.466
45.14000 8.609
45.16000 6.614
45.18000 8.641
45.20000 3.707
45.22000 6.721
45.24000 5.485
45.26000 6.669
45.28000 7.060
45.30000 6.994
45.32000 7.075
45.34000 6.839
45.36000 9.157
45.38000 12.056
45.40000 11.061
45.42000 11.074
45.44000 8.296
45.46000 6.372
45.48000 9.920
45.50000 6.433
45.52000 7.782
45.54000 7.622
45.56000 10.404
45.58000 11.451
45.60000 12.150
45.62000 17.048
45.64000 15.773
45.66000 14.000
45.68000 8.200
45.70000 13.961
45.72000 16.363
45.74000 13.541
45.76000 12.449
45.78000 15.319
45.80000 20.530
45.82000 18.112
45.84000 21.480
45.86000 20.491
45.88000 23.301
45.90000 23.363
45.92000 19.962
45.94000 22.959
45.96000 22.745
45.98000 25.658
46.00000 25.769
46.02000 24.266
46.04000 28.443
46.06000 29.000
46.08000 28.068
46.10000 28.195
46.12000 30.802
46.14000 35.732
46.16000 34.735
46.18000 29.252
46.20000 34.222
46.22000 39.271
46.24000 37.709
46.26000 41.031
46.28000 41.628
46.30000 40.229
46.32000 45.434
46.34000 46.821
46.36000 46.739
46.38000 49.127
46.40000 49.048
46.42000 47.383
46.44000 54.181
46.46000 61.630
46.48000 59.406
46.50000 61.462
46.52000 66.221
46.54000 62.379
46.56000 57.090
46.58000 60.999
46.60000 69.953
46.62000 70.443
46.64000 67.940
46.66000 69.751
46.68000 70.583
46.70000 75.752
46.72000 75.640
46.74000 73.188
46.76000 75.253
46.78000 75.458
46.80000 77.307
46.82000 81.329
46.84000 81.696
46.86000 78.365
46.88000 82.085
46.90000 90.156
46.92000 87.711
46.94000 90.393
46.96000 89.882
46.98000 90.393
47.00000 91.240
47.02000 89.987
47.04000 86.972
47.06000 85.528
47.08000 79.961
47.10000 83.201
47.12000 83.314
47.14000 87.657
47.16000 87.361
47.18000 91.596
47.20000 87.384
47.22000 85.504
47.24000 81.213
47.26000 80.627
47.28000 85.552
47.30000 81.699
47.32000 75.349
47.34000 72.843
47.36000 76.279
47.38000 79.025
47.40000 73.479
47.42000 65.707
47.44000 68.833
47.46000 63.479
47.48000 66.762
47.50000 63.351
47.52000 54.529
47.54000 50.940
47.56000 58.598
47.58000 53.610
47.60000 57.138
47.62000 55.551
47.64000 54.413
47.66000 46.240
47.68000 47.311
47.70000 49.908
47.72000 44.808
47.74000 43.130
47.76000 43.090
47.78000 37.271
47.80000 39.266
47.82000 36.535
47.84000 33.452
47.86000 33.993
47.88000 33.758
47.90000 30.152
47.92000 27.067
47.94000 20.782
47.96000 22.722
47.98000 24.708
48.00000 24.678
48.02000 24.985
48.04000 27.287
48.06000 26.548
48.08000 18.625
48.10000 14.672
48.12000 16.590
48.14000 14.828
48.16000 18.131
48.18000 18.762
48.20000 14.308
48.22000 7.387
48.24000 8.258
48.26000 7.769
48.28000 6.577
48.30000 7.624
48.32000 5.381
48.34000 6.749
48.36000 8.745
48.38000 11.482
48.40000 9.955
48.42000 6.183
48.44000 7.973
48.46000 4.577
48.48000 3.628
48.50000 3.217
48.52000 3.219
48.54000 1.046
48.56000 0.776
48.58000 2.842
48.60000 6.303
48.62000 7.266
48.64000 7.424
48.66000 3.997
48.68000 4.700
48.70000 2.841
48.72000 1.391
48.74000 -1.349
48.76000 2.992
48.78000 3.739
48.80000 2.677
48.82000 2.054
48.84000 4.137
48.86000 5.684
48.88000 0.689
48.90000 1.396
48.92000 0.354
48.94000 2.897
48.96000 4.019
48.98000 -2.966
49.00000 -2.898
49.02000 0.706
49.04000 3.475
49.06000 10.108
49.08000 0.950
49.10000 -2.727
49.12000 -0.548
49.14000 -0.602
49.16000 -1.900
49.18000 1.671
49.20000 1.901
49.22000 2.098
49.24000 3.035
49.26000 4.981
49.28000 2.807
49.30000 2.706
49.32000 -1.300
49.34000 -2.928
49.36000 -1.340
49.38000 -1.567
49.40000 3.170
49.42000 1.659
49.44000 1.246
49.46000 -1.455
49.48000 4.049
49.50000 1.502
49.52000 2.470
49.54000 2.999
49.56000 2.458
49.58000 3.009
49.60000 -0.466
49.62000 -1.293
49.64000 2.300
49.66000 5.171
49.68000 5.504
49.70000 0.669
49.72000 -1.354
49.74000 0.183
49.76000 1.510
49.78000 4.414
49.80000 3.129
49.82000 0.638
49.84000 3.115
49.86000 4.617
49.88000 2.566
49.90000 3.685
49.92000 3.499
49.94000 0.203
49.96000 0.333
49.98000 1.089
50.00000 -0.577
50.02000 2.047
50.04000 1.718
50.06000 -2.844
50.08000 -0.944
50.10000 1.248
50.12000 0.926
50.14000 0.742
50.16000 -1.494
50.18000 3.736
50.20000 2.040
50.22000 -1.402
50.24000 1.463
50.26000 1.711
50.28000 -0.792
50.30000 4.688
50.32000 10.095
50.34000 9.173
50.36000 2.283
50.38000 -2.797
50.40000 3.602
50.42000 3.213
50.44000 -0.819
50.46000 2.192
50.48000 2.190
50.50000 1.987
50.52000 7.647
50.54000 4.608
50.56000 3.468
50.58000 3.295
50.60000 2.064
50.62000 4.166
50.64000 6.398
50.66000 6.793
50.68000 -1.689
50.70000 -1.199
50.72000 3.367
50.74000 1.991
50.76000 3.059
50.78000 0.858
50.80000 5.111
50.82000 5.251
50.84000 5.308
50.86000 4.759
50.88000 1.088
50.90000 1.174
50.92000 2.224
50.94000 2.913
50.96000 3.185
50.98000 -0.573
51.00000 0.233
51.02000 1.551
51.04000 2.062
51.06000 3.318
51.08000 2.475
51.10000 4.826
51.12000 2.156
51.14000 1.887
51.16000 0.917
51.18000 -0.969
51.20000 -0.560
51.22000 1.036
51.24000 3.883
51.26000 -2.753
51.28000 2.202
51.30000 6.251
51.32000 5.607
51.34000 2.882
51.36000 6.752
51.38000 7.076
51.40000 2.458
51.42000 3.104
51.44000 3.642
51.46000 -0.932
51.48000 2.695
51.50000 2.775
51.52000 3.608
51.54000 2.181
51.56000 2.173
51.58000 4.060
51.60000 3.439
51.62000 5.603
51.64000 2.600
51.66000 3.164
51.68000 3.217
51.70000 -0.376
51.72000 1.973
51.74000 2.513
51.76000 -0.167
51.78000 3.390
51.80000 1.900
51.82000 -0.360
51.84000 2.017
51.86000 0.087
51.88000 0.503
51.90000 7.127
51.92000 0.414
51.94000 -1.252
51.96000 -0.728
51.98000 7.550
52.00000 7.339
52.02000 3.943
52.04000 -1.813
52.06000 -2.483
52.08000 4.399
52.10000 3.301
52.12000 6.824
52.14000 5.200
52.16000 4.300
52.18000 4.533
52.20000 4.897
52.22000 6.027
52.24000 7.151
52.26000 2.558
52.28000 0.343
52.30000 0.472
52.32000 1.286
52.34000 -0.512
52.36000 3.619
52.38000 6.298
52.40000 5.560
52.42000 1.076
52.44000 -2.696
52.46000 -1.043
52.48000 2.466
52.50000 3.961
52.52000 -0.062
52.54000 3.373
52.56000 4.715
52.58000 5.610
52.60000 4.275
52.62000 4.193
52.64000 4.361
52.66000 2.367
52.68000 0.982
52.70000 0.040
52.72000 -0.278
52.74000 -2.690
52.76000 3.512
52.78000 6.139
52.80000 5.024
52.82000 4.114
52.84000 2.660
52.86000 -0.346
52.88000 1.436
52.90000 -0.359
52.92000 2.005
52.94000 3.354
52.96000 2.728
52.98000 4.894
53.00000 3.936
53.02000 4.601
53.04000 4.305
53.06000 1.982
53.08000 2.008
53.10000 2.924
53.12000 1.461
53.14000 2.215
53.16000 5.333
53.18000 4.985
53.20000 3.090
53.22000 1.185
53.24000 -0.018
53.26000 3.971
53.28000 3.512
53.30000 3.967
53.32000 1.976
53.34000 4.448
53.36000 5.232
53.38000 3.273
53.40000 2.994
53.42000 4.298
53.44000 -0.281
53.46000 -0.149
53.48000 -1.040
53.50000 -1.352
53.52000 2.412
53.54000 4.299
53.56000 0.216
53.58000 2.052
53.60000 -0.742
53.62000 2.178
53.64000 3.771
53.66000 4.804
53.68000 3.397
53.70000 0.045
53.72000 2.315
53.74000 0.732
53.76000 5.501
53.78000 4.995
53.80000 3.536
53.82000 4.652
53.84000 3.047
53.86000 5.313
53.88000 2.874
53.90000 0.928
53.92000 -1.848
53.94000 1.098
53.96000 3.463
53.98000 0.936
54.00000 3.110
54.02000 3.432
54.04000 4.957
54.06000 3.440
54.08000 0.700
54.10000 3.199
54.12000 3.020
54.14000 0.726
54.16000 2.112
54.18000 2.110
54.20000 -0.360
54.22000 1.803
54.24000 2.188
54.26000 3.916
54.28000 3.524
54.30000 2.417
54.32000 1.673
54.34000 2.114
54.36000 5.672
54.38000 4.359
54.40000 0.478
54.42000 4.146
54.44000 2.788
54.46000 2.576
54.48000 5.061
54.50000 3.111
54.52000 7.632
54.54000 6.535
54.56000 7.503
54.58000 6.013
54.60000 7.666
54.62000 4.992
54.64000 1.230
54.66000 3.465
54.68000 7.881
54.70000 11.155
54.72000 7.807
54.74000 1.903
54.76000 3.658
54.78000 4.343
54.80000 7.078
54.82000 5.535
54.84000 5.655
54.86000 3.998
54.88000 -0.392
54.90000 2.648
54.92000 7.299
54.94000 5.766
54.96000 5.260
54.98000 1.348
55.00000 -2.572
55.02000 -0.719
55.04000 0.678
55.06000 0.620
55.08000 3.450
55.10000 4.928
55.12000 4.359
55.14000 3.729
55.16000 4.627
55.18000 5.341
55.20000 0.026
55.22000 1.631
55.24000 6.102
55.26000 3.723
55.28000 4.341
55.30000 7.405
55.32000 8.198
55.34000 1.305
55.36000 2.748
55.38000 4.998
55.40000 0.736
55.42000 2.112
55.44000 3.533
55.46000 4.208
55.48000 5.161
55.50000 3.291
55.52000 1.632
55.54000 3.758
55.56000 2.463
55.58000 1.603
55.60000 1.620
55.62000 1.786
55.64000 3.893
55.66000 6.085
55.68000 4.512
55.70000 3.476
55.72000 5.634
55.74000 3.807
55.76000 -1.296
55.78000 2.473
55.80000 2.174
55.82000 1.669
55.84000 -0.276
55.86000 0.029
55.88000 0.781
55.90000 1.338
55.92000 2.788
55.94000 2.224
55.96000 4.537
55.98000 8.009
56.00000 2.731
56.02000 -2.595
56.04000 0.818
56.06000 0.674
56.08000 0.847
56.10000 1.494
56.12000 4.374
56.14000 0.571
56.16000 1.643
56.18000 3.856
56.20000 6.996
56.22000 2.297
56.24000 1.294
56.26000 1.487
56.28000 -1.816
56.30000 1.770
56.32000 5.575
56.34000 7.353
56.36000 0.141
56.38000 -1.948
56.40000 4.619
56.42000 7.491
56.44000 6.942
56.46000 6.536
56.48000 4.087
56.50000 3.981
56.52000 2.239
56.54000 4.206
56.56000 4.113
56.58000 4.527
56.60000 3.678
56.62000 1.744
56.64000 1.140
56.66000 4.191
56.68000 5.278
56.70000 0.326
56.72000 1.007
56.74000 0.517
56.76000 2.512
56.78000 4.891
56.80000 4.507
56.82000 2.414
56.84000 2.586
56.86000 5.060
56.88000 4.192
56.90000 0.874
56.92000 6.154
56.94000 4.262
56.96000 5.010
56.98000 -2.566
57.00000 -2.247
57.02000 5.046
57.04000 3.777
57.06000 3.803
57.08000 3.204
57.10000 3.304
57.12000 2.907
57.14000 4.612
57.16000 5.800
57.18000 5.177
57.20000 4.744
57.22000 3.141
57.24000 4.577
57.26000 6.937
57.28000 5.523
57.30000 -1.137
57.32000 1.059
57.34000 2.371
57.36000 2.133
57.38000 4.316
57.40000 3.762
57.42000 0.979
57.44000 5.074
57.46000 3.520
57.48000 2.607
57.50000 0.077
57.52000 4.277
57.54000 6.727
57.56000 3.942
57.58000 4.918
57.60000 2.120
57.62000 -2.001
57.64000 -0.158
57.66000 0.790
57.68000 2.183
57.70000 3.721
57.72000 7.297
57.74000 6.323
57.76000 0.907
57.78000 0.764
57.80000 -0.890
57.82000 -0.373
57.84000 2.136
57.86000 4.255
57.88000 3.453
57.90000 1.691
57.92000 1.734
57.94000 -0.093
57.96000 -2.179
57.98000 0.695
58.00000 2.295
58.02000 4.908
58.04000 5.912
58.06000 6.360
58.08000 5.554
58.10000 3.619
58.12000 2.369
58.14000 3.090
58.16000 1.913
58.18000 3.263
58.20000 -2.185
58.22000 -2.536
58.24000 0.459
58.26000 1.713
58.28000 5.682
58.30000 4.950
58.32000 5.151
58.34000 4.879
58.36000 5.139
58.38000 2.244
58.40000 2.357
58.42000 2.981
58.44000 1.013
58.46000 1.647
58.48000 2.973
58.50000 4.032
58.52000 4.831
58.54000 3.137
58.56000 0.796
58.58000 0.032
58.60000 -0.725
58.62000 0.499
58.64000 7.485
58.66000 5.533
58.68000 3.219
58.70000 0.363
58.72000 3.046
58.74000 3.548
58.76000 0.722
58.78000 0.476
58.80000 -1.270
58.82000 -2.528
58.84000 2.700
58.86000 1.371
58.88000 2.373
58.90000 1.886
58.92000 0.535
58.94000 1.291
58.96000 4.011
58.98000 6.700
59.00000 6.790
59.02000 5.305
59.04000 2.148
59.06000 2.107
59.08000 2.885
59.10000 4.521
59.12000 4.841
59.14000 1.188
59.16000 3.560
59.18000 4.386
59.20000 2.557
59.22000 3.652
59.24000 1.650
59.26000 1.357
59.28000 0.210
59.30000 5.031
59.32000 6.530
59.34000 1.079
59.36000 0.185
59.38000 2.674
59.40000 1.763
59.42000 1.796
59.44000 0.164
59.46000 2.602
59.48000 2.689
59.50000 -1.504
59.52000 1.146
59.54000 4.495
59.56000 -1.413
59.58000 1.901
59.60000 3.129
59.62000 3.132
59.64000 1.786
59.66000 -1.448
59.68000 -0.940
59.70000 -2.498
59.72000 0.116
59.74000 0.370
59.76000 4.083
59.78000 1.185
59.80000 3.120
59.82000 5.127
59.84000 2.665
59.86000 3.815
59.88000 5.202
59.90000 5.134
59.92000 0.730
59.94000 -0.841
59.96000 4.182
59.98000 4.359
60.00000 0.148
60.02000 0.445
60.04000 3.871
60.06000 4.700
60.08000 -0.245
60.10000 -2.046
60.12000 -0.280
60.14000 2.455
60.16000 3.821
60.18000 1.115
60.20000 2.270
60.22000 3.583
60.24000 3.927
60.26000 1.043
60.28000 4.134
60.30000 4.704
60.32000 2.380
60.34000 1.288
60.36000 2.468
60.38000 0.626
60.40000 0.810
60.42000 1.907
60.44000 0.863
60.46000 4.045
60.48000 6.035
60.50000 4.327
60.52000 4.339
60.54000 7.074
60.56000 5.777
60.58000 4.124
60.60000 3.768
60.62000 1.804
60.64000 1.573
60.66000 6.429
60.68000 4.985
60.70000 3.239
60.72000 0.540
60.74000 -0.641
60.76000 5.740
60.78000 2.544
60.80000 1.820
60.82000 -0.876
60.84000 -2.425
60.86000 1.242
60.88000 7.660
60.90000 4.207
60.92000 2.180
60.94000 1.966
60.96000 0.444
60.98000 4.022
61.00000 2.764
61.02000 5.688
61.04000 5.674
61.06000 2.740
61.08000 4.760
61.10000 4.002
61.12000 5.329
61.14000 5.269
61.16000 3.095
61.18000 0.658
61.20000 1.677
61.22000 3.671
61.24000 8.118
61.26000 7.552
61.28000 4.690
61.30000 3.364
61.32000 1.076
61.34000 -0.638
61.36000 1.441
61.38000 6.141
61.40000 2.632
61.42000 2.073
61.44000 8.124
61.46000 8.464
61.48000 3.505
61.50000 3.286
61.52000 1.903
61.54000 0.923
61.56000 1.333
61.58000 3.949
61.60000 2.473
61.62000 1.768
61.64000 -1.553
61.66000 3.245
61.68000 0.622
61.70000 1.488
61.72000 3.317
61.74000 1.998
61.76000 -0.336
61.78000 -1.079
61.80000 -0.822
61.82000 -1.052
61.84000 -1.537
61.86000 0.413
61.88000 1.536
61.90000 -0.872
61.92000 -0.740
61.94000 0.797
61.96000 0.020
61.98000 -0.691
62.00000 0.607
62.02000 -0.481
62.04000 -2.460
62.06000 -1.130
62.08000 1.910
62.10000 5.061
62.12000 3.561
62.14000 0.426
62.16000 -0.280
62.18000 1.947
62.20000 0.727
62.22000 0.409
62.24000 0.019
62.26000 -0.650
62.28000 -0.147
62.30000 -0.993
62.32000 -1.305
62.34000 0.122
62.36000 -1.438
62.38000 -0.392
62.40000 -1.748
62.42000 0.306
62.44000 -0.735
62.46000 1.902
62.48000 1.419
62.50000 -2.451
62.52000 -0.510
62.54000 2.095
62.56000 3.952
62.58000 2.929
62.60000 0.076
62.62000 2.268
62.64000 1.575
62.66000 0.792
62.68000 1.798
62.70000 -0.299
62.72000 3.940
62.74000 1.140
62.76000 1.274
62.78000 3.885
62.80000 2.627
62.82000 3.974
62.84000 -0.113
62.86000 0.026
62.88000 1.512
62.90000 1.746
62.92000 2.077
62.94000 3.577
62.96000 3.401
62.98000 -0.863
63.00000 -1.589
63.02000 -2.432
63.04000 2.115
63.06000 2.779
63.08000 -1.349
63.10000 5.198
63.12000 2.851
63.14000 0.372
63.16000 -0.053
63.18000 0.266
63.20000 -0.183
63.22000 -0.451
63.24000 1.685
63.26000 2.864
63.28000 2.607
63.30000 0.100
63.32000 1.188
63.34000 1.986
63.36000 0.318
63.38000 0.877
63.40000 2.618
63.42000 -1.077
63.44000 -1.648
63.46000 -1.845
63.48000 -1.323
63.50000 -0.938
63.52000 1.270
63.54000 3.034
63.56000 1.780
63.58000 3.148
63.60000 1.737
63.62000 -0.368
63.64000 1.677
63.66000 4.033
63.68000 3.750
63.70000 3.454
63.72000 1.556
63.74000 0.932
63.76000 0.144
63.78000 -0.720
63.80000 0.260
63.82000 4.334
63.84000 0.939
63.86000 0.240
63.88000 0.574
63.90000 2.281
63.92000 2.892
63.94000 4.818
63.96000 5.332
63.98000 2.934
64.00000 1.942
64.02000 -1.535
64.04000 -2.207
64.06000 -2.413
64.08000 0.093
64.10000 1.390
64.12000 3.886
64.14000 6.292
64.16000 0.918
64.18000 -0.051
64.20000 -1.314
64.22000 -0.601
64.24000 0.342
64.26000 3.110
64.28000 6.954
64.30000 3.974
64.32000 -1.119
64.34000 -1.236
64.36000 2.943
64.38000 1.090
64.40000 0.279
64.42000 2.634
64.44000 3.546
64.46000 2.415
64.48000 1.527
64.50000 1.345
64.52000 2.109
64.54000 1.261
64.56000 -0.911
64.58000 0.727
64.60000 2.657
64.62000 1.319
64.64000 -0.597
64.66000 -0.295
64.68000 3.645
64.70000 3.042
64.72000 0.831
64.74000 -1.366
64.76000 2.216
64.78000 0.162
64.80000 0.946
64.82000 0.561
64.84000 2.895
64.86000 0.476
64.88000 -1.752
64.90000 -0.699
64.92000 -0.248
64.94000 0.645
64.96000 1.805
64.98000 0.089
65.00000 -0.741
65.02000 2.360
65.04000 2.856
65.06000 0.926
65.08000 -0.938
65.10000 -1.105
65.12000 0.676
65.14000 3.589
65.16000 -1.010
65.18000 0.796
65.20000 2.615
65.22000 2.095
65.24000 -1.439
65.26000 -1.509
65.28000 1.970
65.30000 0.512
65.32000 -2.450
65.34000 0.858
65.36000 -0.759
65.38000 1.647
65.40000 3.260
65.42000 3.875
65.44000 2.876
65.46000 1.133
65.48000 -0.742
65.50000 1.484
65.52000 4.406
65.54000 0.192
65.56000 -1.515
65.58000 1.109
65.60000 2.288
65.62000 -2.451
65.64000 0.013
65.66000 1.584
65.68000 1.083
65.70000 0.767
65.72000 -0.216
65.74000 0.931
65.76000 0.935
65.78000 1.627
65.80000 2.576
65.82000 0.668
65.84000 -0.480
65.86000 0.397
65.88000 -0.619
65.90000 3.060
65.92000 0.514
65.94000 -1.995
65.96000 -1.035
65.98000 1.178
66.00000 3.188
66.02000 1.647
66.04000 0.890
66.06000 1.556
66.08000 -0.048
66.10000 3.403
66.12000 5.146
66.14000 0.383
66.16000 -0.729
66.18000 -0.751
66.20000 0.145
66.22000 0.235
66.24000 1.710
66.26000 1.053
66.28000 1.100
66.30000 3.405
66.32000 2.869
66.34000 1.142
66.36000 1.640
66.38000 2.617
66.40000 -2.467
66.42000 -2.468
66.44000 0.722
66.46000 2.602
66.48000 2.648
66.50000 1.981
66.52000 2.760
66.54000 3.404
66.56000 1.484
66.58000 2.005
66.60000 0.486
66.62000 3.513
66.64000 2.305
66.66000 1.582
66.68000 6.060
66.70000 6.708
66.72000 3.501
66.74000 2.258
66.76000 5.661
66.78000 4.521
66.80000 -2.106
66.82000 -0.234
66.84000 -0.026
66.86000 2.555
66.88000 -0.018
66.90000 -1.426
66.92000 -2.482
66.94000 -1.933
66.96000 2.400
66.98000 2.887
67.00000 3.841
67.02000 3.042
67.04000 2.500
67.06000 2.474
67.08000 1.050
67.10000 1.415
67.12000 2.882
67.14000 3.821
67.16000 3.144
67.18000 0.718
67.20000 1.670
67.22000 0.408
67.24000 4.698
67.26000 4.456
67.28000 4.366
67.30000 1.021
67.32000 0.526
67.34000 2.339
67.36000 1.233
67.38000 1.426
67.40000 1.868
67.42000 1.661
67.44000 0.468
67.46000 0.662
67.48000 0.849
67.50000 1.955
67.52000 5.042
67.54000 4.032
67.56000 5.684
67.58000 9.190
67.60000 9.044
67.62000 5.922
67.64000 6.001
67.66000 8.912
67.68000 8.142
67.70000 8.325
67.72000 6.565
67.74000 8.796
67.76000 9.537
67.78000 8.029
67.80000 7.847
67.82000 11.153
67.84000 10.645
67.86000 6.421
67.88000 5.262
67.90000 4.070
67.92000 4.255
67.94000 7.873
67.96000 8.824
67.98000 11.115
68.00000 9.442
68.02000 10.946
68.04000 14.152
68.06000 15.543
68.08000 7.757
68.10000 12.249
68.12000 15.514
68.14000 15.297
68.16000 15.176
68.18000 15.105
68.20000 13.810
68.22000 15.849
68.24000 13.379
68.26000 16.553
68.28000 20.285
68.30000 19.945
68.32000 17.841
68.34000 17.010
68.36000 18.293
68.38000 22.118
68.40000 22.384
68.42000 20.152
68.44000 24.289
68.46000 23.503
68.48000 19.175
68.50000 22.434
68.52000 21.751
68.54000 18.479
68.56000 18.839
68.58000 20.571
68.60000 26.590
68.62000 25.567
68.64000 22.795
68.66000 23.442
68.68000 22.192
68.70000 26.713
68.72000 31.559
68.74000 26.744
68.76000 24.916
68.78000 26.914
68.80000 28.142
68.82000 23.665
68.84000 24.796
68.86000 25.092
68.88000 22.773
68.90000 21.139
68.92000 20.501
68.94000 22.962
68.96000 20.888
68.98000 23.291
69.00000 23.164
69.02000 24.988
69.04000 22.225
69.06000 22.039
69.08000 19.137
69.10000 21.541
69.12000 23.847
69.14000 23.618
69.16000 21.393
69.18000 20.240
69.20000 18.835
69.22000 15.787
69.24000 18.612
69.26000 21.008
69.28000 19.371
69.30000 14.807
69.32000 16.369
69.34000 16.924
69.36000 14.687
69.38000 13.644
69.40000 12.145
69.42000 9.336
69.44000 10.534
69.46000 13.612
69.48000 13.541
69.50000 12.443
69.52000 12.303
69.54000 12.239
69.56000 9.611
69.58000 8.844
69.60000 7.834
69.62000 6.029
69.64000 7.014
69.66000 7.399
69.68000 4.667
69.70000 5.252
69.72000 4.769
69.74000 7.058
69.76000 4.933
69.78000 5.458
69.80000 5.127
69.82000 5.121
69.84000 6.197
69.86000 6.201
69.88000 7.035
69.90000 5.192
69.92000 0.034
69.94000 1.550
69.96000 2.710
69.98000 3.338
70.00000 5.285
70.02000 6.108
70.04000 2.088
70.06000 1.169
70.08000 1.876
70.10000 0.635
70.12000 3.943
70.14000 4.633
70.16000 4.825
70.18000 2.412
70.20000 2.561
70.22000 4.031
70.24000 0.758
70.26000 0.885
70.28000 -1.325
70.30000 3.237
70.32000 4.072
70.34000 0.908
70.36000 0.184
70.38000 0.360
70.40000 -2.178
70.42000 -1.116
70.44000 -1.481
70.46000 4.971
70.48000 3.495
70.50000 -2.090
70.52000 -2.389
70.54000 3.534
70.56000 1.881
70.58000 4.921
70.60000 6.392
70.62000 2.807
70.64000 0.793
70.66000 1.966
70.68000 1.634
70.70000 8.522
70.72000 7.326
70.74000 6.728
70.76000 4.702
70.78000 5.446
70.80000 5.971
70.82000 5.192
70.84000 1.142
70.86000 1.758
70.88000 3.642
70.90000 0.603
70.92000 -2.377
70.94000 0.002
70.96000 4.400
70.98000 -0.415
71.00000 0.166
71.02000 1.738
71.04000 -0.958
71.06000 4.035
71.08000 4.856
71.10000 -1.073
71.12000 0.636
71.14000 -0.858
71.16000 0.793
71.18000 3.436
71.20000 3.968
71.22000 1.178
71.24000 3.889
71.26000 1.620
71.28000 0.422
71.30000 2.533
71.32000 0.382
71.34000 -0.034
71.36000 -1.117
71.38000 1.164
71.40000 0.761
71.42000 -1.807
71.44000 0.319
71.46000 3.440
71.48000 4.439
71.50000 3.117
71.52000 6.828
71.54000 4.324
71.56000 0.682
71.58000 -0.508
71.60000 1.776
71.62000 0.427
71.64000 -1.697
71.66000 1.234
71.68000 -2.341
71.70000 -0.909
71.72000 0.490
71.74000 -1.222
71.76000 0.166
71.78000 1.989
71.80000 -1.341
71.82000 0.310
71.84000 3.682
71.86000 3.036
71.88000 3.803
71.90000 0.813
71.92000 0.675
71.94000 -0.963
71.96000 0.785
71.98000 0.865
72.00000 -0.903
72.02000 4.799
72.04000 4.454
72.06000 4.003
72.08000 0.161
72.10000 -0.012
72.12000 2.354
72.14000 4.279
72.16000 7.378
72.18000 3.576
72.20000 2.249
72.22000 0.942
72.24000 0.533
72.26000 -0.316
72.28000 0.155
72.30000 -2.293
72.32000 -1.058
72.34000 1.697
72.36000 -0.143
72.38000 2.201
72.40000 4.013
72.42000 3.116
72.44000 -0.385
72.46000 0.954
72.48000 1.043
72.50000 0.881
72.52000 4.389
72.54000 0.168
72.56000 4.528
72.58000 1.759
72.60000 -0.178
72.62000 2.043
72.64000 1.642
72.66000 0.394
72.68000 -2.226
72.70000 -2.275
72.72000 -1.292
72.74000 3.562
72.76000 2.831
72.78000 0.804
72.80000 -1.715
72.82000 -1.496
72.84000 1.156
72.86000 3.026
72.88000 -0.566
72.90000 1.041
72.92000 2.539
72.94000 4.981
72.96000 4.725
72.98000 2.528
73.00000 2.535
73.02000 0.183
73.04000 4.681
73.06000 7.770
73.08000 6.874
73.10000 2.339
73.12000 4.417
73.14000 3.243
73.16000 1.799
73.18000 2.491
73.20000 -2.047
73.22000 -0.766
73.24000 3.068
73.26000 0.902
73.28000 -2.248
73.30000 -0.503
73.32000 1.708
73.34000 -0.700
73.36000 1.418
73.38000 2.500
73.40000 3.564
73.42000 7.229
73.44000 3.786
73.46000 -1.576
73.48000 2.122
73.50000 4.247
73.52000 4.045
73.54000 0.612
73.56000 1.259
73.58000 3.066
73.60000 2.427
73.62000 3.251
73.64000 2.595
73.66000 5.790
73.68000 4.742
73.70000 3.940
73.72000 5.754
73.74000 3.203
73.76000 1.423
73.78000 -0.022
73.80000 -0.065
73.82000 2.086
73.84000 1.057
73.86000 -1.379
73.88000 -1.528
73.90000 4.196
73.92000 5.157
73.94000 3.372
73.96000 4.500
73.98000 7.461
74.00000 5.728
74.02000 4.255
74.04000 5.418
74.06000 5.714
74.08000 6.597
74.10000 8.726
74.12000 5.592
74.14000 4.231
74.16000 1.680
74.18000 2.440
74.20000 1.951
74.22000 1.352
74.24000 2.622
74.26000 2.778
74.28000 5.235
74.30000 3.366
74.32000 2.346
74.34000 4.488
74.36000 5.389
74.38000 3.699
74.40000 4.744
74.42000 2.605
74.44000 6.146
74.46000 4.457
74.48000 10.768
74.50000 9.824
74.52000 3.564
74.54000 3.948
74.56000 2.941
74.58000 -0.054
74.60000 5.182
74.62000 8.050
74.64000 4.551
74.66000 0.767
74.68000 -0.247
74.70000 3.845
74.72000 2.903
74.74000 0.134
74.76000 -0.561
74.78000 3.029
74.80000 4.967
74.82000 7.822
74.84000 4.180
74.86000 -1.900
74.88000 1.957
74.90000 5.471
74.92000 2.936
74.94000 2.711
74.96000 2.588
74.98000 2.276
75.00000 4.480
75.02000 4.134
75.04000 3.941
75.06000 3.334
75.08000 5.091
75.10000 5.723
75.12000 9.198
75.14000 7.081
75.16000 3.062
75.18000 -2.169
75.20000 2.203
75.22000 3.903
75.24000 2.169
75.26000 0.841
75.28000 2.327
75.30000 4.822
75.32000 8.852
75.34000 8.836
75.36000 3.774
75.38000 7.872
75.40000 6.446
75.42000 3.630
75.44000 4.828
75.46000 9.462
75.48000 8.464
75.50000 5.666
75.52000 6.142
75.54000 4.674
75.56000 8.668
75.58000 7.192
75.60000 5.831
75.62000 7.733
75.64000 5.519
75.66000 3.558
75.68000 -0.377
75.70000 0.864
75.72000 4.977
75.74000 5.404
75.76000 4.144
75.78000 5.768
75.80000 4.420
75.82000 3.756
75.84000 5.868
75.86000 3.845
75.88000 4.876
75.90000 9.746
75.92000 4.762
75.94000 5.980
75.96000 8.310
75.98000 6.146
76.00000 7.206
76.02000 5.225
76.04000 6.776
76.06000 1.475
76.08000 -1.032
76.10000 2.992
76.12000 1.672
76.14000 3.554
76.16000 4.321
76.18000 7.781
76.20000 3.421
76.22000 6.543
76.24000 2.225
76.26000 4.277
76.28000 5.775
76.30000 2.735
76.32000 3.817
76.34000 2.697
76.36000 1.113
76.38000 2.583
76.40000 -1.137
76.42000 -0.701
76.44000 2.229
76.46000 3.367
76.48000 5.194
76.50000 0.382
76.52000 -2.229
76.54000 -1.330
76.56000 3.899
76.58000 6.374
76.60000 4.549
76.62000 4.357
76.64000 -0.256
76.66000 1.875
76.68000 4.298
76.70000 4.481
76.72000 1.620
76.74000 -0.742
76.76000 3.510
76.78000 6.408
76.80000 5.730
76.82000 2.117
76.84000 2.288
76.86000 1.886
76.88000 4.039
76.90000 1.538
76.92000 0.753
76.94000 0.526
76.96000 2.174
76.98000 6.024
77.00000 3.849
77.02000 1.536
77.04000 1.299
77.06000 3.808
77.08000 -1.153
77.10000 -1.981
77.12000 0.910
77.14000 5.776
77.16000 5.106
77.18000 6.138
77.20000 6.814
77.22000 5.686
77.24000 3.268
77.26000 0.204
77.28000 1.020
77.30000 0.093
77.32000 -1.480
77.34000 2.462
77.36000 2.469
77.38000 2.408
77.40000 1.639
77.42000 5.391
77.44000 6.575
77.46000 0.977
77.48000 1.058
77.50000 1.019
77.52000 -0.803
77.54000 -1.042
77.56000 0.782
77.58000 2.198
77.60000 -0.322
77.62000 -2.280
77.64000 0.665
77.66000 -0.485
77.68000 -1.608
77.70000 0.068
77.72000 2.498
77.74000 2.189
77.76000 -0.667
77.78000 -1.346
77.80000 -0.239
77.82000 0.195
77.84000 -1.415
77.86000 -0.292
77.88000 2.291
77.90000 0.337
77.92000 4.187
77.94000 6.419
77.96000 3.122
77.98000 4.552
78.00000 3.509
78.02000 7.063
78.04000 2.523
78.06000 5.253
78.08000 6.883
78.10000 3.729
78.12000 -1.789
78.14000 6.110
78.16000 8.022
78.18000 2.609
78.20000 1.112
78.22000 1.570
78.24000 6.045
78.26000 6.420
78.28000 1.535
78.30000 0.279
78.32000 0.313
78.34000 4.083
78.36000 6.037
78.38000 3.154
78.40000 5.496
78.42000 6.240
78.44000 1.028
78.46000 3.233
78.48000 5.275
78.50000 4.715
78.52000 9.983
78.54000 8.637
78.56000 4.932
78.58000 1.296
78.60000 -0.853
78.62000 2.157
78.64000 4.341
78.66000 6.240
78.68000 4.652
78.70000 3.129
78.72000 2.964
78.74000 0.502
78.76000 -1.510
78.78000 -2.261
78.80000 0.709
78.82000 -0.080
78.84000 2.720
78.86000 1.101
78.88000 2.235
78.90000 4.534
78.92000 3.949
78.94000 2.567
78.96000 2.119
78.98000 3.530
79.00000 -0.845
79.02000 -1.174
79.04000 1.884
79.06000 6.627
79.08000 7.075
79.10000 2.375
79.12000 2.798
79.14000 5.157
79.16000 1.289
79.18000 2.277
79.20000 3.053
79.22000 0.553
79.24000 -0.493
79.26000 4.477
79.28000 6.365
79.30000 8.569
79.32000 8.189
79.34000 5.496
79.36000 2.755
79.38000 0.487
79.40000 -0.261
79.42000 2.683
79.44000 0.577
79.46000 3.177
79.48000 3.662
79.50000 3.047
79.52000 2.610
79.54000 4.101
79.56000 4.869
79.58000 -1.722
79.60000 0.928
79.62000 4.788
79.64000 2.544
79.66000 0.338
79.68000 2.270
79.70000 2.622
79.72000 1.237
79.74000 3.064
79.76000 7.429
79.78000 4.972
79.80000 2.874
79.82000 3.172
79.84000 3.218
79.86000 -0.853
79.88000 -2.297
79.90000 -0.944
79.92000 4.272
79.94000 4.845
79.96000 1.659
79.98000 4.590
80.00000 3.619
80.02000 0.725
80.04000 2.475
80.06000 3.878
80.08000 3.480
80.10000 3.515
80.12000 4.645
80.14000 1.544
80.16000 3.003
80.18000 2.334
80.20000 3.066
80.22000 5.982
80.24000 3.403
80.26000 3.850
80.28000 6.503
80.30000 3.618
80.32000 1.477
80.34000 1.416
80.36000 0.528
80.38000 0.796
80.40000 -0.644
80.42000 1.616
80.44000 6.096
80.46000 6.015
80.48000 1.658
80.50000 6.163
80.52000 9.439
80.54000 3.587
80.56000 3.116
80.58000 2.491
80.60000 5.856
80.62000 7.220
80.64000 3.066
80.66000 1.672
80.68000 0.542
80.70000 -0.627
80.72000 2.527
80.74000 -0.431
80.76000 0.175
80.78000 -1.027
80.80000 1.662
80.82000 3.144
80.84000 1.121
80.86000 0.533
80.88000 1.412
80.90000 2.281
80.92000 2.466
80.94000 -2.387
80.96000 2.755
80.98000 6.522
81.00000 0.872
81.02000 1.308
81.04000 4.041
81.06000 3.510
81.08000 5.676
81.10000 2.322
81.12000 5.329
81.14000 4.160
81.16000 3.870
81.18000 7.065
81.20000 7.076
81.22000 6.254
81.24000 3.113
81.26000 6.124
81.28000 4.183
81.30000 6.022
81.32000 4.883
81.34000 2.186
81.36000 4.777
81.38000 6.322
81.40000 4.642
81.42000 6.229
81.44000 4.644
81.46000 6.540
81.48000 7.000
81.50000 10.143
81.52000 4.697
81.54000 2.243
81.56000 3.175
81.58000 4.288
81.60000 7.247
81.62000 5.553
81.64000 5.920
81.66000 5.491
81.68000 5.000
81.70000 6.451
81.72000 5.117
81.74000 5.301
81.76000 9.243
81.78000 13.311
81.80000 9.422
81.82000 5.919
81.84000 2.319
81.86000 5.478
81.88000 9.102
81.90000 8.839
81.92000 13.123
81.94000 12.897
81.96000 11.925
81.98000 10.314
82.00000 7.023
82.02000 13.797
82.04000 15.405
82.06000 11.933
82.08000 15.373
82.10000 16.998
82.12000 15.193
82.14000 13.751
82.16000 13.524
82.18000 9.151
82.20000 8.779
82.22000 14.957
82.24000 15.300
82.26000 15.596
82.28000 15.112
82.30000 16.158
82.32000 21.121
82.34000 23.916
82.36000 23.987
82.38000 26.624
82.40000 23.059
82.42000 21.681
82.44000 20.436
82.46000 20.826
82.48000 21.492
82.50000 21.177
82.52000 23.255
82.54000 25.657
82.56000 31.793
82.58000 26.613
82.60000 23.377
82.62000 24.086
82.64000 24.894
82.66000 26.521
82.68000 28.152
82.70000 27.635
82.72000 26.749
82.74000 29.744
82.76000 29.825
82.78000 31.446
82.80000 29.869
82.82000 28.169
82.84000 29.943
82.86000 30.679
82.88000 24.546
82.90000 25.970
82.92000 25.267
82.94000 26.910
82.96000 30.201
82.98000 31.142
83.00000 32.223
83.02000 27.586
83.04000 29.998
83.06000 34.194
83.08000 36.551
83.10000 33.762
83.12000 29.861
83.14000 36.878
83.16000 28.916
83.18000 28.801
83.20000 31.736
83.22000 29.224
83.24000 33.398
83.26000 30.606
83.28000 31.225
83.30000 27.741
83.32000 26.252
83.34000 30.478
83.36000 26.976
83.38000 23.217
83.40000 22.814
83.42000 30.368
83.44000 33.167
83.46000 23.518
83.48000 24.355
83.50000 19.791
83.52000 24.431
83.54000 24.042
83.56000 23.789
83.58000 23.736
83.60000 23.076
83.62000 22.974
83.64000 20.518
83.66000 22.351
83.68000 16.194
83.70000 14.604
83.72000 18.711
83.74000 17.012
83.76000 15.316
83.78000 18.141
83.80000 18.449
83.82000 15.124
83.84000 13.279
83.86000 15.062
83.88000 15.968
83.90000 12.976
83.92000 13.990
83.94000 13.807
83.96000 13.264
83.98000 12.803
84.00000 10.768
84.02000 6.578
84.04000 6.199
84.06000 5.016
84.08000 2.324
84.10000 5.595
84.12000 7.319
84.14000 7.974
84.16000 4.971
84.18000 7.909
84.20000 7.935
84.22000 8.292
84.24000 13.954
84.26000 10.525
84.28000 7.905
84.30000 10.702
84.32000 8.596
84.34000 5.291
84.36000 7.372
84.38000 12.237
84.40000 9.090
84.42000 5.856
84.44000 5.137
84.46000 4.541
84.48000 2.014
84.50000 6.313
84.52000 8.976
84.54000 4.288
84.56000 2.836
84.58000 3.531
84.60000 3.098
84.62000 2.530
84.64000 6.262
84.66000 6.684
84.68000 1.896
84.70000 -2.373
84.72000 3.036
84.74000 6.965
84.76000 7.365
84.78000 -0.094
84.80000 2.290
84.82000 1.426
84.84000 4.997
84.86000 2.908
84.88000 0.002
84.90000 5.368
84.92000 5.664
84.94000 6.213
84.96000 -0.381
84.98000 1.768
85.00000 0.316
85.02000 -0.658
85.04000 2.849
85.06000 2.433
85.08000 2.515
85.10000 3.196
85.12000 1.930
85.14000 6.588
85.16000 8.093
85.18000 4.565
85.20000 4.004
85.22000 3.016
85.24000 6.415
85.26000 4.288
85.28000 0.793
85.30000 -0.798
85.32000 1.752
85.34000 -0.379
85.36000 0.790
85.38000 1.620
85.40000 6.207
85.42000 6.171
85.44000 2.947
85.46000 4.446
85.48000 1.901
85.50000 3.681
85.52000 3.418
85.54000 2.664
85.56000 6.698
85.58000 1.106
85.60000 1.850
85.62000 0.641
85.64000 3.699
85.66000 5.638
85.68000 1.746
85.70000 -2.271
85.72000 0.454
85.74000 5.685
85.76000 3.083
85.78000 5.533
85.80000 0.415
85.82000 1.806
85.84000 2.460
85.86000 3.369
85.88000 4.773
85.90000 6.668
85.92000 7.749
85.94000 5.952
85.96000 1.834
85.98000 2.872
86.00000 1.289
86.02000 2.184
86.04000 2.375
86.06000 3.309
86.08000 0.322
86.10000 2.338
86.12000 0.654
86.14000 3.963
86.16000 2.086
86.18000 0.178
86.20000 4.335
86.22000 5.901
86.24000 4.991
86.26000 4.621
86.28000 6.905
86.30000 5.631
86.32000 7.569
86.34000 4.641
86.36000 2.327
86.38000 2.669
86.40000 2.515
86.42000 4.224
86.44000 5.404
86.46000 4.958
86.48000 4.901
86.50000 2.492
86.52000 0.841
86.54000 4.821
86.56000 5.199
86.58000 7.103
86.60000 4.735
86.62000 3.561
86.64000 5.366
86.66000 10.846
86.68000 5.385
86.70000 9.296
86.72000 7.565
86.74000 5.350
86.76000 8.804
86.78000 8.117
86.80000 11.615
86.82000 10.020
86.84000 11.278
86.86000 12.586
86.88000 17.354
86.90000 15.564
86.92000 13.504
86.94000 12.417
86.96000 12.265
86.98000 14.265
87.00000 15.271
87.02000 12.138
87.04000 12.356
87.06000 16.217
87.08000 23.499
87.10000 18.021
87.12000 16.821
87.14000 17.235
87.16000 15.478
87.18000 20.581
87.20000 20.557
87.22000 22.851
87.24000 23.321
87.26000 19.037
87.28000 18.257
87.30000 18.904
87.32000 17.999
87.34000 18.490
87.36000 24.283
87.38000 22.635
87.40000 23.734
87.42000 23.283
87.44000 19.084
87.46000 17.548
87.48000 18.547
87.50000 20.465
87.52000 16.512
87.54000 15.660
87.56000 18.391
87.58000 16.424
87.60000 18.384
87.62000 19.613
87.64000 18.141
87.66000 17.251
87.68000 17.839
87.70000 14.116
87.72000 15.408
87.74000 18.878
87.76000 14.841
87.78000 14.211
87.80000 15.622
87.82000 11.154
87.84000 10.738
87.86000 9.475
87.88000 10.008
87.90000 10.743
87.92000 11.887
87.94000 12.921
87.96000 13.829
87.98000 9.733
88.00000 9.282
88.02000 8.226
88.04000 9.178
88.06000 6.627
88.08000 6.393
88.10000 8.419
88.12000 16.082
88.14000 12.417
88.16000 1.866
88.18000 2.741
88.20000 8.007
88.22000 12.150
88.24000 10.122
88.26000 7.349
88.28000 3.548
88.30000 2.258
88.32000 5.014
88.34000 3.150
88.36000 3.431
88.38000 2.866
88.40000 2.335
88.42000 1.950
88.44000 5.445
88.46000 2.502
88.48000 1.370
88.50000 3.594
88.52000 -0.028
88.54000 -0.777
88.56000 4.169
88.58000 3.837
88.60000 1.792
88.62000 -0.211
88.64000 4.321
88.66000 4.859
88.68000 5.138
88.70000 5.013
88.72000 1.072
88.74000 6.651
88.76000 8.363
88.78000 5.937
88.80000 2.300
88.82000 -0.190
88.84000 0.079
88.86000 -2.216
88.88000 2.166
88.90000 4.939
88.92000 1.536
88.94000 0.150
88.96000 -2.229
88.98000 -2.215
89.00000 -2.227
89.02000 -1.165
89.04000 0.899
89.06000 4.342
89.08000 3.388
89.10000 2.141
89.12000 0.297
89.14000 1.661
89.16000 2.194
89.18000 2.743
89.20000 0.883
89.22000 -1.993
89.24000 1.560
89.26000 3.019
89.28000 2.495
89.30000 -0.599
89.32000 -0.178
89.34000 3.556
89.36000 5.081
89.38000 2.612
89.40000 2.665
89.42000 1.510
89.44000 1.989
89.46000 -0.630
89.48000 0.533
89.50000 1.878
89.52000 1.397
89.54000 -0.962
89.56000 2.261
89.58000 1.517
89.60000 0.217
89.62000 1.251
89.64000 -2.176
89.66000 2.476
89.68000 4.203
89.70000 1.144
89.72000 3.969
89.74000 1.074
89.76000 -0.014
89.78000 3.206
89.80000 -0.709
89.82000 4.051
89.84000 3.595
89.86000 2.694
89.88000 -0.336
89.90000 3.154
89.92000 5.298
89.94000 -1.355
89.96000 -2.069
89.98000 0.495
90.00000 1.525
90.02000 1.722
90.04000 1.044
90.06000 3.143
90.08000 8.628
90.10000 6.401
90.12000 1.165
90.14000 -0.100
90.16000 0.933
90.18000 3.284
90.20000 3.670
90.22000 2.476
90.24000 0.427
90.26000 0.414
90.28000 3.157
90.30000 4.536
90.32000 5.210
90.34000 0.880
90.36000 0.893
90.38000 3.090
90.40000 5.586
90.42000 5.467
90.44000 6.152
90.46000 1.932
90.48000 0.546
90.50000 -0.784
90.52000 -0.263
90.54000 3.982
90.56000 6.956
90.58000 2.080
90.60000 3.145
90.62000 4.121
90.64000 0.539
90.66000 1.285
90.68000 1.863
90.70000 1.732
90.72000 -2.126
90.74000 -0.226
90.76000 2.474
90.78000 1.197
90.80000 2.298
90.82000 8.387
90.84000 5.507
90.86000 3.476
90.88000 0.984
90.90000 6.595
90.92000 2.991
90.94000 4.321
90.96000 0.442
90.98000 -2.110
91.00000 1.653
91.02000 3.896
91.04000 6.080
91.06000 7.523
91.08000 5.236
91.10000 3.729
91.12000 3.916
91.14000 4.080
91.16000 6.636
91.18000 4.574
91.20000 4.055
91.22000 1.168
91.24000 1.764
91.26000 1.609
91.28000 -2.111
91.30000 -2.110
91.32000 1.350
91.34000 5.187
91.36000 7.713
91.38000 6.861
91.40000 4.731
91.42000 -0.030
91.44000 -0.851
91.46000 -0.430
91.48000 3.892
91.50000 7.866
91.52000 9.660
91.54000 6.539
91.56000 -0.256
91.58000 1.557
91.60000 0.383
91.62000 3.574
91.64000 4.342
91.66000 4.761
91.68000 6.639
91.70000 9.113
91.72000 8.796
91.74000 4.395
91.76000 2.266
91.78000 3.261
91.80000 -1.125
91.82000 4.210
91.84000 3.767
91.86000 5.898
91.88000 9.309
91.90000 3.053
91.92000 5.908
91.94000 6.168
91.96000 2.668
91.98000 2.309
92.00000 0.416
92.02000 -0.633
92.04000 0.900
92.06000 0.560
92.08000 2.003
92.10000 -1.793
92.12000 -2.122
92.14000 4.846
92.16000 4.420
92.18000 5.270
92.20000 2.430
92.22000 3.336
92.24000 -0.008
92.26000 1.691
92.28000 3.160
92.30000 3.372
92.32000 1.219
92.34000 4.787
92.36000 3.488
92.38000 4.788
92.40000 5.143
92.42000 3.279
92.44000 -1.065
92.46000 -0.335
92.48000 3.185
92.50000 2.077
92.52000 1.394
92.54000 9.475
92.56000 9.672
92.58000 5.028
92.60000 6.846
92.62000 4.231
92.64000 2.981
92.66000 5.240
92.68000 5.666
92.70000 2.078
92.72000 -0.618
92.74000 -2.113
92.76000 2.798
92.78000 5.795
92.80000 0.488
92.82000 0.429
92.84000 6.934
92.86000 6.168
92.88000 5.971
92.90000 3.089
92.92000 1.505
92.94000 0.524
92.96000 3.686
92.98000 5.616
93.00000 4.727
93.02000 0.490
93.04000 -1.950
93.06000 0.946
93.08000 2.344
93.10000 7.732
93.12000 7.730
93.14000 6.434
93.16000 4.235
93.18000 2.006
93.20000 1.810
93.22000 2.435
93.24000 -1.296
93.26000 4.400
93.28000 7.012
93.30000 7.912
93.32000 9.476
93.34000 4.834
93.36000 4.746
93.38000 -0.248
93.40000 0.760
93.42000 3.949
93.44000 6.589
93.46000 5.274
93.48000 7.854
93.50000 8.570
93.52000 5.788
93.54000 6.919
93.56000 6.014
93.58000 1.409
93.60000 6.016
93.62000 5.168
93.64000 3.617
93.66000 7.017
93.68000 10.979
93.70000 4.358
93.72000 2.676
93.74000 3.937
93.76000 5.073
93.78000 7.486
93.80000 8.282
93.82000 4.505
93.84000 -0.941
93.86000 -2.094
93.88000 4.761
93.90000 8.747
93.92000 8.910
93.94000 6.576
93.96000 6.570
93.98000 6.439
94.00000 1.353
94.02000 5.435
94.04000 6.731
94.06000 6.998
94.08000 4.712
94.10000 1.966
94.12000 4.219
94.14000 7.387
94.16000 6.407
94.18000 8.159
94.20000 6.981
94.22000 1.104
94.24000 1.946
94.26000 6.361
94.28000 7.732
94.30000 4.880
94.32000 4.855
94.34000 6.258
94.36000 7.604
94.38000 1.282
94.40000 2.191
94.42000 2.287
94.44000 2.649
94.46000 4.380
94.48000 3.446
94.50000 4.183
94.52000 3.148
94.54000 4.163
94.56000 6.866
94.58000 5.959
94.60000 9.509
94.62000 6.897
94.64000 5.147
94.66000 6.932
94.68000 9.763
94.70000 7.277
94.72000 10.289
94.74000 11.256
94.76000 8.599
94.78000 5.909
94.80000 6.018
94.82000 6.021
94.84000 6.075
94.86000 5.336
94.88000 3.487
94.90000 1.163
94.92000 2.308
94.94000 5.792
94.96000 8.731
94.98000 4.968
95.00000 -2.138
95.02000 -1.593
95.04000 2.766
95.06000 4.713
95.08000 6.251
95.10000 3.132
95.12000 7.211
95.14000 8.666
95.16000 2.786
95.18000 1.564
95.20000 3.343
95.22000 5.731
95.24000 5.807
95.26000 6.080
95.28000 3.405
95.30000 1.979
95.32000 -1.144
95.34000 1.957
95.36000 6.130
95.38000 3.993
95.40000 3.590
95.42000 3.111
95.44000 0.090
95.46000 0.219
95.48000 -0.299
95.50000 2.400
95.52000 4.241
95.54000 4.914
95.56000 5.171
95.58000 1.584
95.60000 2.678
95.62000 4.365
95.64000 2.474
95.66000 -0.542
95.68000 3.822
95.70000 1.685
95.72000 1.667
95.74000 2.635
95.76000 1.284
95.78000 1.156
95.80000 3.527
95.82000 5.573
95.84000 3.687
95.86000 2.627
95.88000 3.625
95.90000 1.367
95.92000 2.313
95.94000 4.735
95.96000 3.031
95.98000 6.825
96.00000 7.622
96.02000 2.913
96.04000 -1.251
96.06000 5.329
96.08000 2.684
96.10000 6.243
96.12000 9.390
96.14000 9.672
96.16000 8.209
96.18000 7.272
96.20000 4.425
96.22000 7.032
96.24000 5.649
96.26000 2.919
96.28000 5.534
96.30000 5.051
96.32000 2.491
96.34000 1.548
96.36000 0.916
96.38000 5.223
96.40000 4.847
96.42000 3.858
96.44000 -2.148
96.46000 0.335
96.48000 0.396
96.50000 2.313
96.52000 3.927
96.54000 3.862
96.56000 -1.733
96.58000 0.996
96.60000 3.410
96.62000 2.764
96.64000 4.057
96.66000 3.657
96.68000 5.001
96.70000 7.219
96.72000 1.237
96.74000 2.494
96.76000 3.380
96.78000 4.286
96.80000 -0.142
96.82000 4.211
96.84000 12.477
96.86000 9.800
96.88000 3.909
96.90000 4.360
96.92000 2.788
96.94000 1.352
96.96000 -2.131
96.98000 -1.799
97.00000 4.689
97.02000 8.191
97.04000 7.410
97.06000 7.722
97.08000 4.480
97.10000 4.324
97.12000 -1.791
97.14000 -0.652
97.16000 0.438
97.18000 5.200
97.20000 5.431
97.22000 1.086
97.24000 3.903
97.26000 11.430
97.28000 11.840
97.30000 5.204
97.32000 8.025
97.34000 7.694
97.36000 3.806
97.38000 6.196
97.40000 4.666
97.42000 3.255
97.44000 3.788
97.46000 4.866
97.48000 8.281
97.50000 9.472
97.52000 6.584
97.54000 -1.777
97.56000 1.384
97.58000 4.784
97.60000 2.828
97.62000 3.096
97.64000 0.588
97.66000 -0.232
97.68000 7.571
97.70000 9.333
97.72000 0.748
97.74000 2.006
97.76000 1.998
97.78000 3.888
97.80000 1.985
97.82000 3.813
97.84000 7.330
97.86000 7.655
97.88000 2.775
97.90000 2.975
97.92000 5.428
97.94000 4.998
97.96000 -0.641
97.98000 4.723
98.00000 6.449
98.02000 2.027
98.04000 0.669
98.06000 1.944
98.08000 8.469
98.10000 5.802
98.12000 3.582
98.14000 4.885
98.16000 3.467
98.18000 4.599
98.20000 9.648
98.22000 4.602
98.24000 -0.112
98.26000 2.347
98.28000 10.892
98.30000 14.215
98.32000 6.870
98.34000 8.940
98.36000 10.868
98.38000 5.638
98.40000 -2.049
98.42000 3.209
98.44000 3.665
98.46000 6.241
98.48000 14.092
98.50000 8.512
98.52000 5.361
98.54000 3.096
98.56000 8.723
98.58000 5.863
98.60000 2.938
98.62000 4.038
98.64000 5.943
98.66000 6.791
98.68000 5.974
98.70000 7.826
98.72000 10.414
98.74000 7.299
98.76000 4.503
98.78000 10.477
98.80000 8.350
98.82000 10.370
98.84000 12.766
98.86000 4.085
98.88000 4.040
98.90000 10.525
98.92000 4.925
98.94000 5.708
98.96000 10.531
98.98000 4.597
99.00000 9.133
99.02000 12.517
99.04000 9.469
99.06000 7.756
99.08000 7.899
99.10000 23.001
99.12000 14.360
99.14000 7.834
99.16000 3.184
99.18000 4.590
99.20000 8.426
99.22000 13.255
99.24000 8.365
99.26000 9.040
99.28000 4.508
99.30000 1.204
99.32000 5.198
99.34000 6.180
99.36000 0.968
99.38000 -2.036
99.40000 5.263
99.42000 2.810
99.44000 -0.243
99.46000 6.911
99.48000 8.891
99.50000 6.861
99.52000 5.758
99.54000 2.467
99.56000 6.622
99.58000 2.099
99.60000 -5.023
99.62000 8.229
99.64000 1.343
99.66000 -1.456
99.68000 4.544
99.70000 -1.758
99.72000 1.786
99.74000 -0.116
99.76000 8.988
99.78000 14.491
99.80000 6.499
99.82000 4.065
99.84000 11.950
99.86000 8.843
99.88000 -2.126
99.90000 0.347
99.92000 5.541
99.94000 4.358
99.96000 5.268
99.98000 0.000
