'Id: "0011388" Comment: "Integrate frame 0011388_Au-Ir-Rh_Rh-rich_XRD-Mapping-206-0000.gfrmwith cursor Wedge Cursor #5" Operator: "B?rgel" Anode: "Cu" Wavelength: "1.5406" Scantype: "2Theta (TwoTheta)" TimePerStep: "1" X: "-13.5" Y: "9" Z: "5.95" 
10.00000 0.000
10.02000 -4.364
10.04000 1.653
10.06000 -1.518
10.08000 2.137
10.10000 -0.430
10.12000 3.819
10.14000 16.350
10.16000 24.896
10.18000 15.250
10.20000 -4.328
10.22000 5.147
10.24000 10.724
10.26000 16.909
10.28000 18.428
10.30000 17.079
10.32000 5.901
10.34000 -1.596
10.36000 -3.095
10.38000 -0.350
10.40000 3.285
10.42000 22.911
10.44000 17.920
10.46000 14.683
10.48000 14.979
10.50000 10.357
10.52000 10.999
10.54000 8.086
10.56000 9.009
10.58000 12.742
10.60000 6.702
10.62000 12.386
10.64000 14.825
10.66000 28.819
10.68000 10.046
10.70000 -6.405
10.72000 10.461
10.74000 23.302
10.76000 24.320
10.78000 23.536
10.80000 15.305
10.82000 20.825
10.84000 28.527
10.86000 19.513
10.88000 12.463
10.90000 17.593
10.92000 11.742
10.94000 18.561
10.96000 17.964
10.98000 10.225
11.00000 22.994
11.02000 18.385
11.04000 19.770
11.06000 21.022
11.08000 24.184
11.10000 19.603
11.12000 9.836
11.14000 13.140
11.16000 20.842
11.18000 21.474
11.20000 8.984
11.22000 11.781
11.24000 18.595
11.26000 21.738
11.28000 18.804
11.30000 17.333
11.32000 17.912
11.34000 11.314
11.36000 10.004
11.38000 7.610
11.40000 6.675
11.42000 4.022
11.44000 9.219
11.46000 17.895
11.48000 10.878
11.50000 1.798
11.52000 4.222
11.54000 9.961
11.56000 24.355
11.58000 18.047
11.60000 9.855
11.62000 20.216
11.64000 16.098
11.66000 18.453
11.68000 19.113
11.70000 22.188
11.72000 15.877
11.74000 16.041
11.76000 3.210
11.78000 7.587
11.80000 12.024
11.82000 19.936
11.84000 12.436
11.86000 1.929
11.88000 1.380
11.90000 22.215
11.92000 13.266
11.94000 7.549
11.96000 13.841
11.98000 11.515
12.00000 2.435
12.02000 6.898
12.04000 17.745
12.06000 16.822
12.08000 6.524
12.10000 7.464
12.12000 12.686
12.14000 14.056
12.16000 15.248
12.18000 11.991
12.20000 13.453
12.22000 18.334
12.24000 19.720
12.26000 17.736
12.28000 17.340
12.30000 15.460
12.32000 10.631
12.34000 14.899
12.36000 20.393
12.38000 15.041
12.40000 23.557
12.42000 19.185
12.44000 11.751
12.46000 16.639
12.48000 26.548
12.50000 16.997
12.52000 24.589
12.54000 24.172
12.56000 16.494
12.58000 5.090
12.60000 6.942
12.62000 11.159
12.64000 13.404
12.66000 5.729
12.68000 0.200
12.70000 -4.246
12.72000 9.733
12.74000 10.433
12.76000 8.552
12.78000 10.250
12.80000 18.995
12.82000 22.149
12.84000 14.162
12.86000 10.580
12.88000 12.148
12.90000 26.325
12.92000 22.980
12.94000 20.794
12.96000 17.472
12.98000 6.396
13.00000 2.604
13.02000 25.571
13.04000 31.369
13.06000 28.818
13.08000 17.628
13.10000 13.220
13.12000 12.719
13.14000 9.633
13.16000 9.592
13.18000 8.393
13.20000 11.654
13.22000 11.772
13.24000 16.308
13.26000 13.745
13.28000 14.938
13.30000 15.231
13.32000 14.498
13.34000 7.809
13.36000 4.065
13.38000 4.686
13.40000 8.061
13.42000 14.602
13.44000 11.663
13.46000 9.525
13.48000 6.251
13.50000 7.116
13.52000 11.657
13.54000 16.360
13.56000 21.294
13.58000 12.226
13.60000 18.982
13.62000 17.376
13.64000 16.400
13.66000 17.815
13.68000 14.517
13.70000 13.611
13.72000 22.242
13.74000 14.824
13.76000 12.380
13.78000 15.347
13.80000 15.832
13.82000 16.701
13.84000 22.462
13.86000 24.157
13.88000 20.497
13.90000 12.566
13.92000 15.268
13.94000 19.733
13.96000 21.208
13.98000 15.016
14.00000 11.877
14.02000 9.319
14.04000 6.557
14.06000 13.839
14.08000 12.842
14.10000 13.197
14.12000 13.315
14.14000 12.725
14.16000 9.737
14.18000 5.197
14.20000 9.291
14.22000 15.717
14.24000 10.537
14.26000 14.087
14.28000 14.882
14.30000 5.126
14.32000 6.878
14.34000 17.301
14.36000 11.453
14.38000 9.991
14.40000 8.232
14.42000 6.128
14.44000 10.977
14.46000 10.709
14.48000 7.917
14.50000 11.029
14.52000 20.099
14.54000 18.867
14.56000 25.797
14.58000 16.532
14.60000 13.753
14.62000 4.266
14.64000 2.871
14.66000 8.137
14.68000 -3.112
14.70000 -4.435
14.72000 7.952
14.74000 17.304
14.76000 9.565
14.78000 7.420
14.80000 12.995
14.82000 18.922
14.84000 10.600
14.86000 9.184
14.88000 6.150
14.90000 6.119
14.92000 7.113
14.94000 5.967
14.96000 8.207
14.98000 2.468
15.00000 13.081
15.02000 17.752
15.04000 17.374
15.06000 15.209
15.08000 10.187
15.10000 10.507
15.12000 14.054
15.14000 3.559
15.16000 15.119
15.18000 17.340
15.20000 16.790
15.22000 15.655
15.24000 4.375
15.26000 9.162
15.28000 21.416
15.30000 19.254
15.32000 4.643
15.34000 -0.264
15.36000 2.824
15.38000 7.619
15.40000 7.986
15.42000 8.771
15.44000 12.940
15.46000 18.552
15.48000 15.249
15.50000 9.244
15.52000 13.334
15.54000 8.312
15.56000 11.614
15.58000 13.691
15.60000 3.836
15.62000 -0.328
15.64000 -0.312
15.66000 8.461
15.68000 12.276
15.70000 2.606
15.72000 9.862
15.74000 3.530
15.76000 4.559
15.78000 12.552
15.80000 5.563
15.82000 0.379
15.84000 5.104
15.86000 4.277
15.88000 7.313
15.90000 5.587
15.92000 6.479
15.94000 9.238
15.96000 10.056
15.98000 11.388
16.00000 10.526
16.02000 5.841
16.04000 8.859
16.06000 2.066
16.08000 0.828
16.10000 13.742
16.12000 18.718
16.14000 11.352
16.16000 5.666
16.18000 5.874
16.20000 -2.608
16.22000 6.489
16.24000 15.058
16.26000 19.163
16.28000 13.804
16.30000 5.243
16.32000 9.135
16.34000 13.509
16.36000 7.881
16.38000 9.233
16.40000 7.879
16.42000 6.265
16.44000 6.492
16.46000 2.156
16.48000 6.969
16.50000 9.657
16.52000 2.330
16.54000 9.922
16.56000 8.832
16.58000 0.588
16.60000 5.071
16.62000 11.751
16.64000 8.534
16.66000 3.858
16.68000 10.329
16.70000 6.765
16.72000 12.931
16.74000 6.452
16.76000 3.897
16.78000 2.689
16.80000 8.730
16.82000 14.835
16.84000 9.253
16.86000 1.661
16.88000 9.492
16.90000 12.928
16.92000 8.404
16.94000 10.179
16.96000 3.337
16.98000 1.657
17.00000 7.096
17.02000 13.495
17.04000 6.291
17.06000 1.026
17.08000 -4.369
17.10000 1.512
17.12000 9.528
17.14000 5.527
17.16000 7.959
17.18000 7.548
17.20000 2.603
17.22000 6.561
17.24000 14.329
17.26000 3.320
17.28000 9.010
17.30000 12.286
17.32000 10.625
17.34000 9.896
17.36000 10.144
17.38000 11.413
17.40000 9.496
17.42000 4.116
17.44000 0.037
17.46000 8.672
17.48000 9.967
17.50000 13.625
17.52000 19.531
17.54000 10.612
17.56000 4.269
17.58000 10.087
17.60000 7.549
17.62000 15.540
17.64000 8.255
17.66000 4.662
17.68000 -1.594
17.70000 5.825
17.72000 6.161
17.74000 -0.193
17.76000 -0.452
17.78000 7.378
17.80000 8.951
17.82000 7.693
17.84000 8.360
17.86000 6.942
17.88000 6.802
17.90000 6.769
17.92000 10.584
17.94000 7.889
17.96000 10.978
17.98000 9.292
18.00000 5.905
18.02000 8.080
18.04000 9.836
18.06000 6.183
18.08000 4.663
18.10000 6.295
18.12000 4.122
18.14000 7.253
18.16000 6.821
18.18000 4.495
18.20000 8.287
18.22000 6.005
18.24000 5.789
18.26000 8.386
18.28000 17.162
18.30000 14.271
18.32000 6.085
18.34000 4.117
18.36000 5.944
18.38000 10.240
18.40000 19.772
18.42000 15.603
18.44000 6.889
18.46000 7.465
18.48000 7.724
18.50000 3.416
18.52000 -0.345
18.54000 6.708
18.56000 9.919
18.58000 6.714
18.60000 6.561
18.62000 8.631
18.64000 6.667
18.66000 14.262
18.68000 16.437
18.70000 15.810
18.72000 9.375
18.74000 10.697
18.76000 13.375
18.78000 8.104
18.80000 1.123
18.82000 -4.267
18.84000 1.303
18.86000 8.232
18.88000 8.420
18.90000 10.231
18.92000 12.999
18.94000 11.904
18.96000 10.522
18.98000 8.121
19.00000 6.092
19.02000 4.463
19.04000 8.839
19.06000 6.745
19.08000 11.077
19.10000 11.255
19.12000 6.267
19.14000 5.280
19.16000 8.419
19.18000 9.402
19.20000 4.308
19.22000 11.015
19.24000 14.582
19.26000 8.843
19.28000 1.477
19.30000 3.258
19.32000 7.278
19.34000 7.283
19.36000 14.211
19.38000 9.897
19.40000 6.640
19.42000 6.412
19.44000 7.584
19.46000 10.619
19.48000 8.536
19.50000 1.566
19.52000 5.170
19.54000 3.780
19.56000 0.862
19.58000 2.410
19.60000 -2.078
19.62000 2.844
19.64000 4.048
19.66000 2.719
19.68000 6.669
19.70000 5.707
19.72000 6.634
19.74000 3.036
19.76000 -2.781
19.78000 3.896
19.80000 -0.538
19.82000 4.971
19.84000 2.101
19.86000 7.097
19.88000 6.039
19.90000 -4.244
19.92000 1.926
19.94000 6.622
19.96000 5.736
19.98000 7.168
20.00000 6.890
20.02000 0.027
20.04000 1.823
20.06000 8.723
20.08000 5.390
20.10000 1.840
20.12000 3.836
20.14000 3.397
20.16000 3.617
20.18000 4.555
20.20000 -0.134
20.22000 5.934
20.24000 1.984
20.26000 4.752
20.28000 10.750
20.30000 12.804
20.32000 9.589
20.34000 4.398
20.36000 -0.497
20.38000 -3.587
20.40000 -2.621
20.42000 6.993
20.44000 11.517
20.46000 10.411
20.48000 7.605
20.50000 1.292
20.52000 1.905
20.54000 2.189
20.56000 -0.889
20.58000 3.973
20.60000 4.691
20.62000 -2.582
20.64000 -2.385
20.66000 -1.157
20.68000 -0.625
20.70000 3.732
20.72000 -3.423
20.74000 -2.049
20.76000 4.714
20.78000 10.489
20.80000 7.887
20.82000 0.463
20.84000 2.895
20.86000 -2.182
20.88000 2.429
20.90000 0.665
20.92000 0.926
20.94000 10.402
20.96000 9.837
20.98000 0.349
21.00000 2.206
21.02000 4.524
21.04000 4.237
21.06000 7.090
21.08000 4.775
21.10000 3.975
21.12000 2.647
21.14000 9.234
21.16000 3.055
21.18000 2.725
21.20000 7.633
21.22000 1.619
21.24000 3.295
21.26000 6.967
21.28000 -0.373
21.30000 -1.109
21.32000 2.212
21.34000 0.977
21.36000 -0.950
21.38000 0.768
21.40000 6.999
21.42000 10.300
21.44000 8.906
21.46000 6.902
21.48000 2.900
21.50000 1.913
21.52000 8.598
21.54000 7.755
21.56000 5.331
21.58000 2.752
21.60000 -0.473
21.62000 4.460
21.64000 2.064
21.66000 2.670
21.68000 10.000
21.70000 1.249
21.72000 5.670
21.74000 2.109
21.76000 4.160
21.78000 4.952
21.80000 3.778
21.82000 6.710
21.84000 6.074
21.86000 5.885
21.88000 6.529
21.90000 7.282
21.92000 7.919
21.94000 5.544
21.96000 10.987
21.98000 12.019
22.00000 7.356
22.02000 10.115
22.04000 15.221
22.06000 11.286
22.08000 11.755
22.10000 7.812
22.12000 6.966
22.14000 3.006
22.16000 -4.076
22.18000 4.317
22.20000 15.136
22.22000 12.405
22.24000 12.686
22.26000 13.358
22.28000 14.955
22.30000 16.786
22.32000 12.732
22.34000 10.549
22.36000 4.364
22.38000 3.296
22.40000 3.366
22.42000 6.543
22.44000 4.841
22.46000 2.991
22.48000 -2.705
22.50000 -1.066
22.52000 3.279
22.54000 5.729
22.56000 4.915
22.58000 7.087
22.60000 8.978
22.62000 7.489
22.64000 4.727
22.66000 18.075
22.68000 13.880
22.70000 7.915
22.72000 3.394
22.74000 -0.983
22.76000 8.534
22.78000 6.063
22.80000 -0.876
22.82000 1.273
22.84000 0.013
22.86000 -4.056
22.88000 -0.985
22.90000 3.802
22.92000 8.149
22.94000 7.793
22.96000 8.070
22.98000 7.136
23.00000 2.377
23.02000 4.879
23.04000 9.371
23.06000 7.724
23.08000 7.471
23.10000 8.020
23.12000 4.716
23.14000 5.072
23.16000 6.617
23.18000 14.466
23.20000 7.051
23.22000 0.453
23.24000 4.802
23.26000 7.413
23.28000 12.081
23.30000 13.794
23.32000 10.205
23.34000 11.549
23.36000 8.519
23.38000 2.679
23.40000 7.077
23.42000 12.374
23.44000 5.831
23.46000 5.313
23.48000 11.321
23.50000 14.165
23.52000 18.952
23.54000 14.935
23.56000 9.128
23.58000 2.683
23.60000 3.202
23.62000 6.583
23.64000 7.734
23.66000 3.331
23.68000 4.244
23.70000 5.636
23.72000 2.623
23.74000 5.748
23.76000 5.279
23.78000 6.439
23.80000 8.508
23.82000 5.483
23.84000 5.139
23.86000 1.450
23.88000 4.638
23.90000 -0.485
23.92000 -2.608
23.94000 -1.798
23.96000 -1.775
23.98000 -3.994
24.00000 0.348
24.02000 1.990
24.04000 5.294
24.06000 12.890
24.08000 11.454
24.10000 6.369
24.12000 0.447
24.14000 0.063
24.16000 2.625
24.18000 0.747
24.20000 7.634
24.22000 9.749
24.24000 7.091
24.26000 3.047
24.28000 4.189
24.30000 5.028
24.32000 11.201
24.34000 7.848
24.36000 9.154
24.38000 8.837
24.40000 8.032
24.42000 7.226
24.44000 6.979
24.46000 3.193
24.48000 3.370
24.50000 5.498
24.52000 -2.723
24.54000 0.354
24.56000 4.116
24.58000 9.233
24.60000 5.322
24.62000 3.073
24.64000 3.531
24.66000 2.267
24.68000 4.525
24.70000 6.148
24.72000 11.714
24.74000 6.117
24.76000 9.418
24.78000 14.706
24.80000 9.200
24.82000 2.547
24.84000 1.060
24.86000 5.559
24.88000 7.813
24.90000 9.972
24.92000 5.372
24.94000 3.105
24.96000 7.545
24.98000 8.237
25.00000 5.436
25.02000 1.869
25.04000 7.517
25.06000 5.851
25.08000 2.711
25.10000 3.515
25.12000 10.761
25.14000 14.415
25.16000 7.513
25.18000 8.091
25.20000 5.461
25.22000 3.256
25.24000 6.042
25.26000 9.416
25.28000 8.278
25.30000 6.736
25.32000 6.268
25.34000 4.678
25.36000 -1.178
25.38000 -3.927
25.40000 -0.492
25.42000 3.919
25.44000 7.595
25.46000 4.431
25.48000 5.241
25.50000 6.469
25.52000 8.041
25.54000 2.346
25.56000 0.025
25.58000 1.826
25.60000 -0.275
25.62000 0.805
25.64000 7.205
25.66000 9.479
25.68000 6.959
25.70000 5.482
25.72000 1.722
25.74000 0.529
25.76000 5.829
25.78000 3.415
25.80000 6.932
25.82000 5.774
25.84000 1.264
25.86000 -0.298
25.88000 -0.948
25.90000 -1.204
25.92000 -0.991
25.94000 2.388
25.96000 8.003
25.98000 4.167
26.00000 5.542
26.02000 0.442
26.04000 -0.112
26.06000 -1.771
26.08000 -0.162
26.10000 7.007
26.12000 11.323
26.14000 9.790
26.16000 6.646
26.18000 5.468
26.20000 4.105
26.22000 2.322
26.24000 4.972
26.26000 1.350
26.28000 1.764
26.30000 -0.157
26.32000 6.897
26.34000 4.150
26.36000 -0.338
26.38000 4.240
26.40000 4.806
26.42000 4.804
26.44000 11.924
26.46000 4.430
26.48000 4.173
26.50000 3.522
26.52000 1.758
26.54000 12.196
26.56000 7.115
26.58000 5.147
26.60000 6.341
26.62000 5.748
26.64000 5.600
26.66000 6.850
26.68000 6.059
26.70000 0.115
26.72000 5.325
26.74000 8.723
26.76000 6.142
26.78000 4.655
26.80000 1.366
26.82000 5.910
26.84000 4.741
26.86000 6.368
26.88000 6.123
26.90000 7.802
26.92000 5.690
26.94000 3.270
26.96000 -1.662
26.98000 2.349
27.00000 8.444
27.02000 3.362
27.04000 8.380
27.06000 5.969
27.08000 5.899
27.10000 7.046
27.12000 7.566
27.14000 4.699
27.16000 3.438
27.18000 6.640
27.20000 2.483
27.22000 5.103
27.24000 3.653
27.26000 -0.083
27.28000 2.600
27.30000 5.360
27.32000 5.703
27.34000 -0.546
27.36000 -1.806
27.38000 3.884
27.40000 5.568
27.42000 2.042
27.44000 3.925
27.46000 7.268
27.48000 8.959
27.50000 5.163
27.52000 5.532
27.54000 9.375
27.56000 2.822
27.58000 -0.019
27.60000 2.971
27.62000 6.898
27.64000 1.831
27.66000 6.328
27.68000 5.860
27.70000 7.652
27.72000 6.808
27.74000 9.502
27.76000 4.804
27.78000 2.530
27.80000 6.540
27.82000 8.652
27.84000 5.565
27.86000 6.994
27.88000 6.711
27.90000 9.423
27.92000 14.104
27.94000 11.938
27.96000 4.904
27.98000 4.181
28.00000 5.313
28.02000 6.519
28.04000 5.721
28.06000 5.710
28.08000 5.209
28.10000 4.384
28.12000 7.918
28.14000 5.628
28.16000 2.557
28.18000 -3.730
28.20000 0.963
28.22000 7.557
28.24000 10.707
28.26000 9.103
28.28000 7.864
28.30000 9.753
28.32000 7.276
28.34000 6.617
28.36000 11.277
28.38000 10.922
28.40000 11.543
28.42000 8.496
28.44000 8.885
28.46000 8.089
28.48000 9.792
28.50000 11.412
28.52000 12.845
28.54000 5.275
28.56000 5.363
28.58000 5.968
28.60000 9.310
28.62000 7.983
28.64000 1.281
28.66000 2.304
28.68000 -2.746
28.70000 0.143
28.72000 6.065
28.74000 4.977
28.76000 1.839
28.78000 6.115
28.80000 9.413
28.82000 8.886
28.84000 8.862
28.86000 6.654
28.88000 0.117
28.90000 2.086
28.92000 7.046
28.94000 6.919
28.96000 5.402
28.98000 8.418
29.00000 9.684
29.02000 9.279
29.04000 4.064
29.06000 5.433
29.08000 8.981
29.10000 -0.290
29.12000 -1.351
29.14000 5.483
29.16000 5.429
29.18000 5.077
29.20000 4.740
29.22000 2.998
29.24000 2.035
29.26000 3.697
29.28000 5.358
29.30000 7.769
29.32000 8.460
29.34000 6.373
29.36000 0.683
29.38000 1.087
29.40000 2.052
29.42000 4.579
29.44000 7.488
29.46000 3.810
29.48000 -3.705
29.50000 2.101
29.52000 0.547
29.54000 2.696
29.56000 6.269
29.58000 3.986
29.60000 5.569
29.62000 5.824
29.64000 8.815
29.66000 2.928
29.68000 0.706
29.70000 1.031
29.72000 3.893
29.74000 2.763
29.76000 2.588
29.78000 6.570
29.80000 -0.702
29.82000 0.637
29.84000 3.814
29.86000 5.424
29.88000 1.033
29.90000 -1.282
29.92000 2.562
29.94000 3.803
29.96000 3.998
29.98000 0.994
30.00000 -1.867
30.02000 2.674
30.04000 7.826
30.06000 6.139
30.08000 -2.621
30.10000 -2.558
30.12000 4.065
30.14000 1.861
30.16000 5.758
30.18000 11.703
30.20000 10.854
30.22000 7.191
30.24000 3.392
30.26000 -0.107
30.28000 5.439
30.30000 0.934
30.32000 1.395
30.34000 3.357
30.36000 1.964
30.38000 7.894
30.40000 3.874
30.42000 4.197
30.44000 7.595
30.46000 9.140
30.48000 7.057
30.50000 5.486
30.52000 0.120
30.54000 2.087
30.56000 3.085
30.58000 2.200
30.60000 -3.700
30.62000 -1.061
30.64000 2.449
30.66000 3.721
30.68000 1.364
30.70000 3.181
30.72000 2.047
30.74000 1.076
30.76000 4.481
30.78000 4.194
30.80000 -0.606
30.82000 4.211
30.84000 5.804
30.86000 2.211
30.88000 2.451
30.90000 0.222
30.92000 -2.794
30.94000 0.598
30.96000 2.144
30.98000 0.033
31.00000 0.751
31.02000 -2.168
31.04000 -0.671
31.06000 4.921
31.08000 4.283
31.10000 -0.995
31.12000 -1.581
31.14000 1.114
31.16000 5.003
31.18000 3.873
31.20000 -1.180
31.22000 2.730
31.24000 6.192
31.26000 5.657
31.28000 3.287
31.30000 3.385
31.32000 -0.555
31.34000 0.034
31.36000 0.362
31.38000 5.177
31.40000 3.084
31.42000 0.226
31.44000 -3.668
31.46000 2.674
31.48000 3.394
31.50000 -1.308
31.52000 -0.954
31.54000 2.314
31.56000 2.191
31.58000 4.039
31.60000 3.465
31.62000 2.658
31.64000 4.047
31.66000 4.288
31.68000 0.814
31.70000 1.369
31.72000 1.993
31.74000 5.831
31.76000 8.807
31.78000 -1.110
31.80000 -2.391
31.82000 -2.805
31.84000 -0.636
31.86000 1.177
31.88000 4.823
31.90000 6.696
31.92000 4.721
31.94000 0.694
31.96000 4.318
31.98000 7.959
32.00000 5.403
32.02000 1.989
32.04000 4.186
32.06000 7.312
32.08000 1.563
32.10000 1.670
32.12000 -0.756
32.14000 -3.623
32.16000 1.940
32.18000 5.934
32.20000 5.597
32.22000 2.101
32.24000 3.487
32.26000 0.910
32.28000 4.036
32.30000 4.418
32.32000 4.686
32.34000 0.793
32.36000 3.184
32.38000 4.416
32.40000 9.192
32.42000 2.250
32.44000 0.258
32.46000 1.618
32.48000 1.841
32.50000 -1.969
32.52000 -0.288
32.54000 0.963
32.56000 5.774
32.58000 1.700
32.60000 -1.024
32.62000 0.687
32.64000 4.645
32.66000 5.447
32.68000 0.476
32.70000 -1.001
32.72000 0.477
32.74000 3.164
32.76000 3.028
32.78000 3.614
32.80000 3.931
32.82000 2.767
32.84000 3.696
32.86000 2.540
32.88000 3.555
32.90000 4.489
32.92000 1.131
32.94000 1.025
32.96000 5.111
32.98000 3.307
33.00000 3.015
33.02000 2.032
33.04000 1.723
33.06000 1.949
33.08000 -2.262
33.10000 -3.376
33.12000 -3.584
33.14000 -0.421
33.16000 -1.727
33.18000 1.434
33.20000 4.417
33.22000 5.335
33.24000 5.756
33.26000 1.161
33.28000 0.748
33.30000 2.826
33.32000 3.452
33.34000 1.436
33.36000 1.149
33.38000 4.167
33.40000 4.246
33.42000 1.364
33.44000 4.476
33.46000 7.766
33.48000 3.768
33.50000 1.605
33.52000 3.618
33.54000 6.571
33.56000 2.406
33.58000 -1.170
33.60000 1.557
33.62000 -1.923
33.64000 4.344
33.66000 9.267
33.68000 7.657
33.70000 5.953
33.72000 5.071
33.74000 4.482
33.76000 1.892
33.78000 5.251
33.80000 4.219
33.82000 4.903
33.84000 4.901
33.86000 -0.046
33.88000 -2.406
33.90000 1.060
33.92000 3.224
33.94000 4.917
33.96000 5.057
33.98000 6.084
34.00000 1.888
34.02000 2.384
34.04000 5.969
34.06000 8.205
34.08000 5.380
34.10000 0.573
34.12000 -2.139
34.14000 1.694
34.16000 3.028
34.18000 6.668
34.20000 8.053
34.22000 4.589
34.24000 3.693
34.26000 2.966
34.28000 6.227
34.30000 9.394
34.32000 10.587
34.34000 2.643
34.36000 3.280
34.38000 1.599
34.40000 1.062
34.42000 5.359
34.44000 4.698
34.46000 -2.092
34.48000 0.897
34.50000 0.349
34.52000 1.777
34.54000 1.098
34.56000 7.750
34.58000 5.567
34.60000 -1.017
34.62000 0.516
34.64000 3.909
34.66000 -1.541
34.68000 -3.548
34.70000 1.222
34.72000 4.589
34.74000 2.617
34.76000 1.509
34.78000 4.112
34.80000 6.062
34.82000 4.848
34.84000 4.234
34.86000 1.848
34.88000 2.874
34.90000 -0.710
34.92000 -0.838
34.94000 1.817
34.96000 4.318
34.98000 5.966
35.00000 3.487
35.02000 7.890
35.04000 7.232
35.06000 1.978
35.08000 1.594
35.10000 4.419
35.12000 0.580
35.14000 1.616
35.16000 4.656
35.18000 5.829
35.20000 -0.094
35.22000 -0.343
35.24000 3.362
35.26000 2.773
35.28000 -1.134
35.30000 -0.808
35.32000 4.465
35.34000 2.126
35.36000 1.603
35.38000 1.498
35.40000 0.024
35.42000 -1.162
35.44000 -1.645
35.46000 -1.747
35.48000 1.798
35.50000 5.647
35.52000 2.932
35.54000 2.579
35.56000 3.655
35.58000 -3.115
35.60000 2.583
35.62000 5.380
35.64000 2.325
35.66000 -0.417
35.68000 -1.777
35.70000 2.321
35.72000 5.933
35.74000 6.241
35.76000 6.046
35.78000 0.734
35.80000 1.020
35.82000 2.432
35.84000 3.354
35.86000 0.205
35.88000 -3.532
35.90000 0.972
35.92000 3.503
35.94000 6.809
35.96000 4.721
35.98000 2.706
36.00000 1.598
36.02000 0.880
36.04000 1.788
36.06000 3.817
36.08000 2.486
36.10000 3.324
36.12000 5.556
36.14000 6.707
36.16000 4.947
36.18000 3.398
36.20000 5.643
36.22000 4.036
36.24000 3.114
36.26000 3.043
36.28000 8.038
36.30000 8.336
36.32000 3.816
36.34000 0.523
36.36000 2.692
36.38000 -0.217
36.40000 -1.321
36.42000 2.093
36.44000 0.373
36.46000 3.870
36.48000 2.970
36.50000 -3.545
36.52000 -2.606
36.54000 1.628
36.56000 2.228
36.58000 3.008
36.60000 2.316
36.62000 2.453
36.64000 6.855
36.66000 7.083
36.68000 9.080
36.70000 4.224
36.72000 1.035
36.74000 5.949
36.76000 2.180
36.78000 -2.804
36.80000 -1.727
36.82000 1.036
36.84000 3.218
36.86000 1.201
36.88000 0.242
36.90000 2.972
36.92000 3.171
36.94000 6.384
36.96000 1.602
36.98000 2.599
37.00000 3.040
37.02000 -3.498
37.04000 -1.370
37.06000 0.418
37.08000 1.715
37.10000 0.126
37.12000 0.607
37.14000 2.183
37.16000 2.856
37.18000 4.333
37.20000 5.124
37.22000 1.796
37.24000 -1.340
37.26000 -1.343
37.28000 0.801
37.30000 3.811
37.32000 1.910
37.34000 2.225
37.36000 2.145
37.38000 2.640
37.40000 1.195
37.42000 -0.111
37.44000 -3.195
37.46000 -3.638
37.48000 0.212
37.50000 4.644
37.52000 5.651
37.54000 1.876
37.56000 -0.315
37.58000 4.080
37.60000 5.411
37.62000 5.596
37.64000 3.660
37.66000 1.889
37.68000 0.476
37.70000 4.093
37.72000 7.406
37.74000 2.431
37.76000 3.977
37.78000 6.618
37.80000 5.071
37.82000 4.859
37.84000 3.467
37.86000 5.377
37.88000 6.884
37.90000 8.926
37.92000 6.196
37.94000 6.601
37.96000 4.534
37.98000 5.271
38.00000 5.034
38.02000 9.183
38.04000 6.019
38.06000 7.062
38.08000 6.565
38.10000 12.929
38.12000 15.189
38.14000 11.293
38.16000 13.472
38.18000 14.971
38.20000 12.522
38.22000 9.018
38.24000 4.811
38.26000 9.428
38.28000 10.450
38.30000 11.600
38.32000 10.755
38.34000 17.420
38.36000 13.549
38.38000 14.445
38.40000 22.478
38.42000 21.714
38.44000 19.259
38.46000 20.613
38.48000 14.859
38.50000 17.913
38.52000 22.161
38.54000 21.603
38.56000 19.616
38.58000 25.678
38.60000 24.182
38.62000 21.931
38.64000 20.769
38.66000 30.711
38.68000 39.118
38.70000 31.753
38.72000 30.475
38.74000 35.501
38.76000 36.827
38.78000 34.571
38.80000 32.840
38.82000 35.513
38.84000 35.302
38.86000 34.683
38.88000 35.711
38.90000 42.237
38.92000 40.528
38.94000 40.122
38.96000 43.436
38.98000 47.722
39.00000 49.344
39.02000 53.904
39.04000 55.270
39.06000 53.819
39.08000 58.771
39.10000 59.950
39.12000 58.807
39.14000 58.249
39.16000 63.749
39.18000 71.130
39.20000 71.839
39.22000 76.473
39.24000 82.404
39.26000 81.932
39.28000 83.680
39.30000 90.458
39.32000 94.961
39.34000 102.528
39.36000 101.266
39.38000 107.334
39.40000 119.309
39.42000 121.721
39.44000 133.316
39.46000 136.028
39.48000 137.246
39.50000 139.294
39.52000 145.896
39.54000 155.405
39.56000 161.381
39.58000 169.000
39.60000 181.477
39.62000 189.194
39.64000 191.572
39.66000 203.880
39.68000 218.300
39.70000 224.587
39.72000 242.918
39.74000 255.391
39.76000 258.895
39.78000 273.290
39.80000 282.799
39.82000 300.110
39.84000 320.098
39.86000 334.562
39.88000 347.378
39.90000 355.293
39.92000 375.701
39.94000 382.200
39.96000 390.671
39.98000 407.798
40.00000 424.589
40.02000 443.787
40.04000 455.057
40.06000 466.234
40.08000 485.247
40.10000 510.012
40.12000 520.857
40.14000 526.606
40.16000 533.795
40.18000 538.277
40.20000 548.302
40.22000 565.538
40.24000 579.872
40.26000 575.134
40.28000 581.032
40.30000 579.741
40.32000 564.056
40.34000 564.363
40.36000 564.169
40.38000 563.819
40.40000 565.387
40.42000 558.474
40.44000 545.122
40.46000 535.148
40.48000 524.138
40.50000 524.195
40.52000 510.921
40.54000 487.974
40.56000 471.500
40.58000 462.253
40.60000 460.997
40.62000 444.886
40.64000 424.937
40.66000 414.668
40.68000 389.026
40.70000 375.181
40.72000 360.164
40.74000 341.735
40.76000 332.830
40.78000 319.534
40.80000 310.820
40.82000 291.665
40.84000 271.386
40.86000 264.754
40.88000 248.841
40.90000 242.809
40.92000 226.036
40.94000 213.695
40.96000 204.288
40.98000 192.584
41.00000 185.759
41.02000 174.896
41.04000 159.798
41.06000 153.920
41.08000 141.494
41.10000 130.701
41.12000 126.248
41.14000 118.386
41.16000 119.443
41.18000 121.184
41.20000 110.601
41.22000 101.782
41.24000 93.913
41.26000 91.400
41.28000 87.114
41.30000 80.438
41.32000 80.300
41.34000 81.371
41.36000 70.236
41.38000 66.153
41.40000 67.383
41.42000 64.012
41.44000 51.944
41.46000 47.100
41.48000 46.641
41.50000 47.064
41.52000 41.121
41.54000 43.406
41.56000 42.689
41.58000 36.078
41.60000 38.763
41.62000 38.238
41.64000 35.559
41.66000 34.780
41.68000 35.807
41.70000 33.538
41.72000 31.231
41.74000 26.932
41.76000 26.861
41.78000 23.194
41.80000 20.192
41.82000 18.309
41.84000 22.030
41.86000 23.313
41.88000 22.163
41.90000 13.010
41.92000 14.651
41.94000 16.582
41.96000 13.540
41.98000 11.004
42.00000 9.361
42.02000 10.497
42.04000 14.689
42.06000 15.928
42.08000 11.880
42.10000 8.842
42.12000 7.797
42.14000 6.608
42.16000 7.068
42.18000 8.602
42.20000 7.643
42.22000 9.108
42.24000 7.056
42.26000 5.386
42.28000 3.737
42.30000 7.022
42.32000 5.759
42.34000 6.974
42.36000 6.833
42.38000 7.263
42.40000 5.409
42.42000 1.539
42.44000 1.447
42.46000 2.876
42.48000 7.387
42.50000 7.715
42.52000 6.196
42.54000 0.477
42.56000 4.038
42.58000 3.335
42.60000 2.680
42.62000 1.887
42.64000 0.924
42.66000 -0.031
42.68000 1.225
42.70000 -1.446
42.72000 5.777
42.74000 6.620
42.76000 4.525
42.78000 5.908
42.80000 3.709
42.82000 1.102
42.84000 3.605
42.86000 3.250
42.88000 1.690
42.90000 3.214
42.92000 -0.231
42.94000 -3.545
42.96000 0.307
42.98000 0.042
43.00000 -2.344
43.02000 -1.092
43.04000 3.792
43.06000 4.879
43.08000 -3.203
43.10000 0.442
43.12000 4.219
43.14000 3.887
43.16000 3.359
43.18000 3.210
43.20000 4.448
43.22000 4.638
43.24000 7.539
43.26000 2.498
43.28000 1.137
43.30000 3.751
43.32000 0.706
43.34000 -2.150
43.36000 -1.511
43.38000 -0.186
43.40000 -1.994
43.42000 -3.080
43.44000 1.973
43.46000 0.627
43.48000 1.376
43.50000 3.794
43.52000 0.817
43.54000 -1.888
43.56000 -2.426
43.58000 -0.584
43.60000 1.829
43.62000 2.847
43.64000 1.380
43.66000 0.975
43.68000 0.815
43.70000 0.192
43.72000 0.877
43.74000 1.499
43.76000 5.438
43.78000 3.291
43.80000 1.121
43.82000 5.314
43.84000 7.372
43.86000 7.205
43.88000 4.971
43.90000 6.416
43.92000 3.483
43.94000 0.380
43.96000 -3.459
43.98000 -1.022
44.00000 1.034
44.02000 -2.136
44.04000 -1.281
44.06000 -0.130
44.08000 5.119
44.10000 2.727
44.12000 3.979
44.14000 0.084
44.16000 -1.349
44.18000 -3.060
44.20000 -0.404
44.22000 -1.106
44.24000 0.384
44.26000 0.407
44.28000 0.692
44.30000 -2.802
44.32000 -0.725
44.34000 0.954
44.36000 3.822
44.38000 4.709
44.40000 1.617
44.42000 1.959
44.44000 3.498
44.46000 5.208
44.48000 3.600
44.50000 5.538
44.52000 0.237
44.54000 -1.396
44.56000 0.017
44.58000 -0.737
44.60000 0.583
44.62000 4.973
44.64000 5.978
44.66000 4.622
44.68000 4.711
44.70000 -0.040
44.72000 2.341
44.74000 3.066
44.76000 2.104
44.78000 1.908
44.80000 -0.298
44.82000 2.657
44.84000 3.133
44.86000 5.100
44.88000 -1.024
44.90000 -0.598
44.92000 8.080
44.94000 8.802
44.96000 6.877
44.98000 2.569
45.00000 -2.671
45.02000 -1.514
45.04000 6.806
45.06000 10.987
45.08000 10.272
45.10000 4.620
45.12000 2.936
45.14000 5.005
45.16000 8.323
45.18000 3.879
45.20000 4.834
45.22000 7.273
45.24000 11.399
45.26000 11.746
45.28000 9.833
45.30000 12.629
45.32000 10.577
45.34000 9.392
45.36000 11.075
45.38000 9.472
45.40000 11.651
45.42000 12.065
45.44000 14.869
45.46000 15.111
45.48000 16.341
45.50000 17.603
45.52000 17.445
45.54000 16.146
45.56000 17.477
45.58000 18.931
45.60000 21.121
45.62000 24.243
45.64000 27.275
45.66000 22.472
45.68000 18.962
45.70000 23.962
45.72000 26.105
45.74000 26.357
45.76000 28.170
45.78000 32.340
45.80000 29.500
45.82000 32.153
45.84000 31.778
45.86000 34.734
45.88000 34.770
45.90000 34.971
45.92000 29.672
45.94000 28.834
45.96000 27.139
45.98000 29.863
46.00000 34.910
46.02000 39.965
46.04000 37.489
46.06000 39.949
46.08000 45.663
46.10000 45.589
46.12000 39.443
46.14000 43.004
46.16000 45.669
46.18000 49.218
46.20000 56.513
46.22000 55.808
46.24000 53.850
46.26000 54.072
46.28000 58.434
46.30000 58.809
46.32000 57.147
46.34000 58.813
46.36000 62.180
46.38000 62.344
46.40000 64.190
46.42000 69.436
46.44000 62.082
46.46000 67.459
46.48000 67.695
46.50000 70.270
46.52000 71.766
46.54000 76.629
46.56000 75.237
46.58000 69.561
46.60000 68.305
46.62000 74.984
46.64000 80.228
46.66000 80.311
46.68000 80.739
46.70000 75.908
46.72000 72.114
46.74000 81.330
46.76000 83.516
46.78000 86.880
46.80000 79.208
46.82000 86.001
46.84000 82.677
46.86000 79.090
46.88000 76.894
46.90000 83.852
46.92000 79.576
46.94000 82.724
46.96000 83.723
46.98000 85.502
47.00000 79.045
47.02000 83.790
47.04000 82.102
47.06000 78.838
47.08000 72.183
47.10000 70.304
47.12000 72.006
47.14000 72.844
47.16000 76.065
47.18000 76.816
47.20000 73.465
47.22000 71.385
47.24000 68.769
47.26000 71.031
47.28000 67.542
47.30000 68.250
47.32000 64.742
47.34000 66.305
47.36000 60.361
47.38000 61.589
47.40000 61.407
47.42000 60.677
47.44000 55.736
47.46000 52.551
47.48000 50.013
47.50000 49.420
47.52000 56.023
47.54000 47.947
47.56000 49.164
47.58000 42.310
47.60000 41.639
47.62000 43.147
47.64000 43.253
47.66000 44.017
47.68000 36.964
47.70000 32.773
47.72000 25.776
47.74000 30.388
47.76000 27.137
47.78000 30.049
47.80000 28.570
47.82000 25.165
47.84000 24.096
47.86000 24.573
47.88000 19.389
47.90000 23.419
47.92000 21.849
47.94000 23.146
47.96000 25.909
47.98000 23.152
48.00000 20.933
48.02000 16.008
48.04000 14.573
48.06000 13.727
48.08000 12.729
48.10000 16.038
48.12000 14.688
48.14000 12.514
48.16000 17.850
48.18000 16.220
48.20000 13.017
48.22000 10.766
48.24000 11.890
48.26000 11.645
48.28000 5.669
48.30000 6.828
48.32000 7.053
48.34000 8.314
48.36000 8.165
48.38000 8.271
48.40000 7.741
48.42000 12.219
48.44000 5.951
48.46000 2.314
48.48000 5.746
48.50000 11.291
48.52000 14.094
48.54000 2.802
48.56000 0.828
48.58000 7.889
48.60000 8.863
48.62000 -0.096
48.64000 2.877
48.66000 3.376
48.68000 4.734
48.70000 9.087
48.72000 7.664
48.74000 1.134
48.76000 8.758
48.78000 10.258
48.80000 6.392
48.82000 5.362
48.84000 7.483
48.86000 4.679
48.88000 1.578
48.90000 -3.156
48.92000 -2.446
48.94000 -1.636
48.96000 3.264
48.98000 4.459
49.00000 3.289
49.02000 2.840
49.04000 8.343
49.06000 4.836
49.08000 2.673
49.10000 1.076
49.12000 0.996
49.14000 2.864
49.16000 0.730
49.18000 0.034
49.20000 1.177
49.22000 3.491
49.24000 1.527
49.26000 -1.228
49.28000 0.205
49.30000 2.569
49.32000 4.650
49.34000 5.863
49.36000 3.550
49.38000 -0.456
49.40000 2.595
49.42000 3.316
49.44000 5.778
49.46000 4.349
49.48000 -3.057
49.50000 1.323
49.52000 0.291
49.54000 3.255
49.56000 1.003
49.58000 5.317
49.60000 4.712
49.62000 1.460
49.64000 1.695
49.66000 4.399
49.68000 11.665
49.70000 10.373
49.72000 0.222
49.74000 -0.061
49.76000 0.944
49.78000 -1.435
49.80000 3.770
49.82000 1.171
49.84000 -2.989
49.86000 -1.493
49.88000 1.478
49.90000 4.810
49.92000 4.899
49.94000 6.768
49.96000 1.491
49.98000 0.639
50.00000 3.461
50.02000 4.458
50.04000 5.433
50.06000 8.943
50.08000 5.592
50.10000 0.496
50.12000 -0.287
50.14000 1.527
50.16000 4.381
50.18000 4.373
50.20000 3.913
50.22000 2.350
50.24000 0.271
50.26000 3.666
50.28000 -1.382
50.30000 1.286
50.32000 8.392
50.34000 5.837
50.36000 -0.486
50.38000 0.242
50.40000 2.299
50.42000 2.595
50.44000 6.868
50.46000 6.463
50.48000 4.926
50.50000 5.509
50.52000 0.281
50.54000 0.842
50.56000 1.731
50.58000 6.033
50.60000 5.915
50.62000 3.406
50.64000 3.242
50.66000 0.755
50.68000 -0.360
50.70000 0.481
50.72000 2.717
50.74000 4.964
50.76000 5.769
50.78000 5.647
50.80000 2.655
50.82000 1.214
50.84000 0.171
50.86000 0.709
50.88000 -2.959
50.90000 0.291
50.92000 3.997
50.94000 6.208
50.96000 5.926
50.98000 3.645
51.00000 6.434
51.02000 0.991
51.04000 2.796
51.06000 0.519
51.08000 5.690
51.10000 4.456
51.12000 6.132
51.14000 5.365
51.16000 1.900
51.18000 0.662
51.20000 4.809
51.22000 7.224
51.24000 1.055
51.26000 -0.227
51.28000 0.448
51.30000 2.294
51.32000 1.738
51.34000 3.504
51.36000 7.957
51.38000 9.212
51.40000 6.422
51.42000 6.490
51.44000 1.924
51.46000 3.512
51.48000 5.136
51.50000 3.396
51.52000 1.257
51.54000 -2.937
51.56000 0.369
51.58000 2.474
51.60000 -0.128
51.62000 0.484
51.64000 0.592
51.66000 3.623
51.68000 6.879
51.70000 5.911
51.72000 3.717
51.74000 5.441
51.76000 3.467
51.78000 0.346
51.80000 -0.486
51.82000 1.236
51.84000 -0.874
51.86000 2.476
51.88000 3.291
51.90000 -0.100
51.92000 2.735
51.94000 4.011
51.96000 2.526
51.98000 2.755
52.00000 -1.152
52.02000 3.907
52.04000 7.315
52.06000 4.330
52.08000 1.689
52.10000 2.119
52.12000 -2.242
52.14000 -0.424
52.16000 1.754
52.18000 3.027
52.20000 3.259
52.22000 2.530
52.24000 4.675
52.26000 5.331
52.28000 4.222
52.30000 0.727
52.32000 3.312
52.34000 4.358
52.36000 -1.712
52.38000 -2.230
52.40000 1.871
52.42000 5.088
52.44000 5.523
52.46000 1.639
52.48000 0.522
52.50000 3.266
52.52000 6.219
52.54000 8.716
52.56000 8.387
52.58000 4.198
52.60000 4.055
52.62000 3.155
52.64000 1.672
52.66000 4.043
52.68000 -1.104
52.70000 -2.907
52.72000 -0.803
52.74000 1.360
52.76000 3.388
52.78000 5.889
52.80000 6.541
52.82000 1.992
52.84000 1.676
52.86000 5.982
52.88000 2.427
52.90000 -2.605
52.92000 -0.862
52.94000 3.618
52.96000 3.828
52.98000 2.271
53.00000 0.529
53.02000 0.308
53.04000 3.245
53.06000 0.748
53.08000 -1.961
53.10000 -2.895
53.12000 1.431
53.14000 2.792
53.16000 2.821
53.18000 3.483
53.20000 -0.374
53.22000 -0.565
53.24000 5.179
53.26000 2.654
53.28000 2.367
53.30000 -2.804
53.32000 0.041
53.34000 3.925
53.36000 3.769
53.38000 1.024
53.40000 3.295
53.42000 3.653
53.44000 2.645
53.46000 0.298
53.48000 1.608
53.50000 3.063
53.52000 5.809
53.54000 4.037
53.56000 5.077
53.58000 1.126
53.60000 0.090
53.62000 4.783
53.64000 6.740
53.66000 1.432
53.68000 1.203
53.70000 1.475
53.72000 -0.074
53.74000 -0.459
53.76000 0.650
53.78000 1.896
53.80000 1.717
53.82000 3.120
53.84000 6.820
53.86000 14.427
53.88000 9.237
53.90000 5.250
53.92000 -2.843
53.94000 3.039
53.96000 5.875
53.98000 5.536
54.00000 6.332
54.02000 5.616
54.04000 0.383
54.06000 1.450
54.08000 5.517
54.10000 3.810
54.12000 0.776
54.14000 4.375
54.16000 7.950
54.18000 3.979
54.20000 1.415
54.22000 0.932
54.24000 0.428
54.26000 4.182
54.28000 5.524
54.30000 2.910
54.32000 1.154
54.34000 0.033
54.36000 6.658
54.38000 15.106
54.40000 11.084
54.42000 7.267
54.44000 10.033
54.46000 11.306
54.48000 1.502
54.50000 0.069
54.52000 3.128
54.54000 2.855
54.56000 5.765
54.58000 3.248
54.60000 3.924
54.62000 3.734
54.64000 -0.598
54.66000 2.518
54.68000 5.518
54.70000 10.169
54.72000 5.805
54.74000 4.492
54.76000 6.686
54.78000 6.126
54.80000 0.921
54.82000 2.789
54.84000 5.056
54.86000 6.553
54.88000 6.487
54.90000 5.777
54.92000 9.553
54.94000 9.920
54.96000 9.908
54.98000 4.148
55.00000 3.348
55.02000 -2.787
55.04000 -0.022
55.06000 3.690
55.08000 0.175
55.10000 5.307
55.12000 11.058
55.14000 12.300
55.16000 5.525
55.18000 5.645
55.20000 5.886
55.22000 3.560
55.24000 0.187
55.26000 2.340
55.28000 3.635
55.30000 5.355
55.32000 -0.281
55.34000 0.492
55.36000 4.225
55.38000 3.095
55.40000 -0.459
55.42000 2.754
55.44000 3.278
55.46000 5.993
55.48000 3.774
55.50000 5.278
55.52000 -0.775
55.54000 2.354
55.56000 5.577
55.58000 8.021
55.60000 5.238
55.62000 4.919
55.64000 1.939
55.66000 1.652
55.68000 4.768
55.70000 3.664
55.72000 1.385
55.74000 0.287
55.76000 1.734
55.78000 0.037
55.80000 -0.221
55.82000 7.416
55.84000 5.551
55.86000 1.156
55.88000 0.242
55.90000 2.354
55.92000 -2.796
55.94000 -1.245
55.96000 -2.083
55.98000 1.486
56.00000 2.519
56.02000 5.483
56.04000 3.639
56.06000 4.032
56.08000 3.820
56.10000 5.874
56.12000 8.043
56.14000 4.856
56.16000 0.847
56.18000 -2.293
56.20000 -1.528
56.22000 0.935
56.24000 0.878
56.26000 4.132
56.28000 3.918
56.30000 4.867
56.32000 0.065
56.34000 -1.711
56.36000 -0.166
56.38000 1.657
56.40000 3.840
56.42000 4.650
56.44000 5.774
56.46000 2.808
56.48000 4.209
56.50000 4.622
56.52000 5.637
56.54000 3.813
56.56000 1.141
56.58000 2.697
56.60000 4.000
56.62000 6.327
56.64000 5.359
56.66000 10.124
56.68000 9.228
56.70000 4.062
56.72000 2.684
56.74000 3.352
56.76000 2.605
56.78000 -2.765
56.80000 -2.682
56.82000 3.164
56.84000 3.640
56.86000 2.221
56.88000 4.021
56.90000 2.398
56.92000 5.759
56.94000 8.233
56.96000 7.924
56.98000 7.547
57.00000 5.073
57.02000 4.359
57.04000 7.220
57.06000 5.624
57.08000 3.682
57.10000 2.204
57.12000 6.714
57.14000 6.986
57.16000 4.325
57.18000 4.879
57.20000 3.607
57.22000 2.790
57.24000 3.319
57.26000 2.912
57.28000 7.633
57.30000 7.520
57.32000 2.869
57.34000 0.154
57.36000 0.415
57.38000 -1.354
57.40000 -1.713
57.42000 4.123
57.44000 4.162
57.46000 3.460
57.48000 2.641
57.50000 -2.757
57.52000 3.145
57.54000 2.465
57.56000 0.753
57.58000 3.161
57.60000 -0.948
57.62000 0.981
57.64000 5.244
57.66000 1.355
57.68000 0.232
57.70000 1.608
57.72000 3.598
57.74000 3.643
57.76000 1.875
57.78000 1.447
57.80000 -2.757
57.82000 -2.166
57.84000 2.230
57.86000 3.593
57.88000 3.171
57.90000 1.710
57.92000 2.453
57.94000 -1.934
57.96000 -0.929
57.98000 2.599
58.00000 5.655
58.02000 5.141
58.04000 0.369
58.06000 0.804
58.08000 -0.847
58.10000 -2.266
58.12000 1.435
58.14000 1.908
58.16000 2.901
58.18000 2.283
58.20000 0.097
58.22000 3.760
58.24000 0.122
58.26000 0.823
58.28000 -0.746
58.30000 4.590
58.32000 -1.434
58.34000 -1.456
58.36000 -1.854
58.38000 1.509
58.40000 0.540
58.42000 3.701
58.44000 3.598
58.46000 -0.156
58.48000 1.551
58.50000 -2.234
58.52000 -0.319
58.54000 -1.307
58.56000 3.102
58.58000 2.575
58.60000 -1.810
58.62000 0.603
58.64000 0.007
58.66000 3.106
58.68000 5.016
58.70000 3.428
58.72000 2.219
58.74000 1.006
58.76000 6.280
58.78000 5.910
58.80000 3.749
58.82000 3.922
58.84000 3.738
58.86000 2.265
58.88000 6.164
58.90000 5.509
58.92000 3.948
58.94000 2.281
58.96000 3.637
58.98000 11.744
59.00000 8.541
59.02000 1.453
59.04000 2.762
59.06000 4.148
59.08000 3.201
59.10000 1.368
59.12000 -1.237
59.14000 -2.690
59.16000 0.113
59.18000 0.211
59.20000 -2.270
59.22000 0.244
59.24000 1.595
59.26000 2.999
59.28000 5.225
59.30000 6.417
59.32000 8.941
59.34000 6.470
59.36000 5.731
59.38000 7.977
59.40000 6.407
59.42000 5.359
59.44000 4.769
59.46000 2.802
59.48000 2.402
59.50000 2.023
59.52000 3.990
59.54000 5.114
59.56000 8.436
59.58000 8.853
59.60000 7.400
59.62000 3.344
59.64000 5.211
59.66000 4.018
59.68000 -1.235
59.70000 2.388
59.72000 6.662
59.74000 6.188
59.76000 6.098
59.78000 6.562
59.80000 12.133
59.82000 11.918
59.84000 6.924
59.86000 7.688
59.88000 2.761
59.90000 3.327
59.92000 2.984
59.94000 5.148
59.96000 6.147
59.98000 5.050
60.00000 4.616
60.02000 -0.911
60.04000 -2.594
60.06000 5.338
60.08000 5.025
60.10000 7.916
60.12000 6.502
60.14000 5.891
60.16000 1.935
60.18000 1.062
60.20000 5.514
60.22000 7.647
60.24000 5.930
60.26000 8.520
60.28000 3.553
60.30000 4.622
60.32000 6.596
60.34000 2.371
60.36000 3.186
60.38000 7.515
60.40000 2.178
60.42000 2.059
60.44000 4.347
60.46000 9.127
60.48000 5.108
60.50000 3.538
60.52000 0.996
60.54000 5.607
60.56000 6.881
60.58000 7.532
60.60000 7.003
60.62000 4.072
60.64000 4.078
60.66000 4.041
60.68000 2.953
60.70000 3.905
60.72000 8.181
60.74000 5.424
60.76000 7.807
60.78000 8.066
60.80000 6.357
60.82000 6.809
60.84000 6.498
60.86000 2.332
60.88000 3.584
60.90000 3.822
60.92000 2.368
60.94000 5.325
60.96000 6.297
60.98000 7.503
61.00000 4.159
61.02000 2.184
61.04000 -1.039
61.06000 -2.620
61.08000 3.008
61.10000 2.175
61.12000 -1.725
61.14000 2.885
61.16000 -0.269
61.18000 1.585
61.20000 0.213
61.22000 2.009
61.24000 0.323
61.26000 5.577
61.28000 10.479
61.30000 7.473
61.32000 0.834
61.34000 2.613
61.36000 1.540
61.38000 2.923
61.40000 2.371
61.42000 6.891
61.44000 6.296
61.46000 4.926
61.48000 0.076
61.50000 4.127
61.52000 0.342
61.54000 3.379
61.56000 3.353
61.58000 0.723
61.60000 3.724
61.62000 0.685
61.64000 -1.916
61.66000 -1.094
61.68000 7.033
61.70000 5.724
61.72000 7.860
61.74000 5.558
61.76000 2.933
61.78000 2.207
61.80000 0.916
61.82000 3.923
61.84000 4.565
61.86000 3.590
61.88000 2.569
61.90000 3.202
61.92000 2.546
61.94000 2.485
61.96000 3.251
61.98000 4.138
62.00000 0.868
62.02000 -1.520
62.04000 -0.526
62.06000 1.123
62.08000 3.818
62.10000 4.429
62.12000 0.548
62.14000 4.843
62.16000 6.570
62.18000 1.386
62.20000 1.245
62.22000 1.108
62.24000 -2.389
62.26000 -2.539
62.28000 -2.481
62.30000 -1.398
62.32000 4.218
62.34000 5.346
62.36000 2.206
62.38000 1.528
62.40000 1.836
62.42000 3.297
62.44000 5.269
62.46000 6.525
62.48000 1.975
62.50000 5.196
62.52000 3.601
62.54000 -1.849
62.56000 -0.391
62.58000 2.544
62.60000 0.800
62.62000 1.965
62.64000 0.937
62.66000 3.005
62.68000 6.970
62.70000 5.630
62.72000 -1.399
62.74000 -1.725
62.76000 2.240
62.78000 2.406
62.80000 2.974
62.82000 2.184
62.84000 -2.602
62.86000 1.833
62.88000 0.766
62.90000 1.633
62.92000 4.572
62.94000 3.404
62.96000 1.012
62.98000 0.603
63.00000 -1.048
63.02000 2.164
63.04000 -0.287
63.06000 -0.735
63.08000 2.436
63.10000 2.433
63.12000 0.615
63.14000 1.585
63.16000 -0.558
63.18000 -1.341
63.20000 -1.041
63.22000 -1.692
63.24000 0.237
63.26000 1.313
63.28000 0.164
63.30000 -0.487
63.32000 1.131
63.34000 0.186
63.36000 -1.642
63.38000 2.725
63.40000 4.403
63.42000 2.996
63.44000 3.433
63.46000 3.522
63.48000 3.832
63.50000 0.102
63.52000 1.089
63.54000 4.516
63.56000 5.553
63.58000 8.196
63.60000 6.475
63.62000 4.479
63.64000 -1.579
63.66000 -2.588
63.68000 2.475
63.70000 2.873
63.72000 3.661
63.74000 5.110
63.76000 1.743
63.78000 2.425
63.80000 1.478
63.82000 4.706
63.84000 6.191
63.86000 3.036
63.88000 4.557
63.90000 1.151
63.92000 0.906
63.94000 -0.845
63.96000 2.479
63.98000 1.808
64.00000 0.588
64.02000 1.403
64.04000 7.779
64.06000 8.738
64.08000 7.034
64.10000 0.431
64.12000 3.510
64.14000 5.222
64.16000 5.481
64.18000 6.075
64.20000 7.066
64.22000 3.419
64.24000 2.551
64.26000 4.498
64.28000 4.952
64.30000 2.577
64.32000 1.560
64.34000 0.778
64.36000 4.531
64.38000 6.408
64.40000 6.215
64.42000 4.823
64.44000 2.800
64.46000 6.828
64.48000 6.550
64.50000 6.692
64.52000 7.204
64.54000 9.781
64.56000 9.592
64.58000 7.253
64.60000 2.365
64.62000 6.288
64.64000 2.810
64.66000 -2.547
64.68000 1.056
64.70000 0.417
64.72000 0.989
64.74000 7.488
64.76000 10.119
64.78000 8.945
64.80000 4.268
64.82000 2.664
64.84000 6.166
64.86000 5.296
64.88000 1.782
64.90000 0.207
64.92000 2.015
64.94000 3.870
64.96000 2.063
64.98000 0.929
65.00000 0.517
65.02000 1.535
65.04000 2.280
65.06000 6.608
65.08000 6.602
65.10000 2.203
65.12000 0.033
65.14000 1.723
65.16000 2.613
65.18000 2.436
65.20000 1.138
65.22000 4.104
65.24000 3.148
65.26000 -2.609
65.28000 -0.425
65.30000 4.474
65.32000 3.232
65.34000 1.723
65.36000 -2.406
65.38000 0.518
65.40000 1.223
65.42000 1.033
65.44000 5.389
65.46000 2.258
65.48000 1.616
65.50000 1.767
65.52000 1.793
65.54000 0.019
65.56000 0.606
65.58000 1.773
65.60000 4.572
65.62000 5.741
65.64000 4.756
65.66000 2.969
65.68000 1.426
65.70000 -0.368
65.72000 -2.643
65.74000 0.197
65.76000 3.575
65.78000 4.635
65.80000 6.412
65.82000 3.194
65.84000 1.460
65.86000 4.610
65.88000 1.197
65.90000 -0.791
65.92000 0.500
65.94000 2.048
65.96000 3.068
65.98000 3.003
66.00000 1.417
66.02000 2.896
66.04000 2.012
66.06000 1.173
66.08000 -0.293
66.10000 2.277
66.12000 -2.261
66.14000 0.540
66.16000 2.552
66.18000 -1.373
66.20000 1.835
66.22000 0.636
66.24000 1.938
66.26000 1.796
66.28000 0.031
66.30000 0.006
66.32000 -1.018
66.34000 3.250
66.36000 6.065
66.38000 4.827
66.40000 4.201
66.42000 0.516
66.44000 -2.670
66.46000 0.038
66.48000 0.932
66.50000 2.155
66.52000 4.160
66.54000 3.843
66.56000 5.082
66.58000 2.298
66.60000 4.306
66.62000 2.552
66.64000 0.930
66.66000 0.778
66.68000 3.771
66.70000 0.797
66.72000 0.126
66.74000 0.040
66.76000 6.108
66.78000 7.437
66.80000 2.452
66.82000 -0.258
66.84000 4.294
66.86000 7.028
66.88000 2.814
66.90000 1.297
66.92000 3.929
66.94000 3.486
66.96000 0.566
66.98000 -1.758
67.00000 3.955
67.02000 8.571
67.04000 7.466
67.06000 4.778
67.08000 4.295
67.10000 2.885
67.12000 3.782
67.14000 8.281
67.16000 8.230
67.18000 9.326
67.20000 3.720
67.22000 3.276
67.24000 7.240
67.26000 11.649
67.28000 8.651
67.30000 8.595
67.32000 3.040
67.34000 5.778
67.36000 4.738
67.38000 7.206
67.40000 5.247
67.42000 9.811
67.44000 6.324
67.46000 6.318
67.48000 4.387
67.50000 7.089
67.52000 7.027
67.54000 8.930
67.56000 11.317
67.58000 13.800
67.60000 12.789
67.62000 15.330
67.64000 12.810
67.66000 7.865
67.68000 6.204
67.70000 10.604
67.72000 11.187
67.74000 14.370
67.76000 15.310
67.78000 12.711
67.80000 13.133
67.82000 11.813
67.84000 13.484
67.86000 14.353
67.88000 13.289
67.90000 14.232
67.92000 20.455
67.94000 16.350
67.96000 19.684
67.98000 21.421
68.00000 18.630
68.02000 18.631
68.04000 19.330
68.06000 17.811
68.08000 17.099
68.10000 15.200
68.12000 18.402
68.14000 21.328
68.16000 19.523
68.18000 21.148
68.20000 23.836
68.22000 24.419
68.24000 22.937
68.26000 17.838
68.28000 16.892
68.30000 16.125
68.32000 18.433
68.34000 20.317
68.36000 23.286
68.38000 28.264
68.40000 23.740
68.42000 26.556
68.44000 23.902
68.46000 21.669
68.48000 23.801
68.50000 22.132
68.52000 19.142
68.54000 19.088
68.56000 23.441
68.58000 26.024
68.60000 24.866
68.62000 21.095
68.64000 23.116
68.66000 22.368
68.68000 25.282
68.70000 24.733
68.72000 21.158
68.74000 20.038
68.76000 18.120
68.78000 21.360
68.80000 18.909
68.82000 19.000
68.84000 20.535
68.86000 18.774
68.88000 19.433
68.90000 19.771
68.92000 17.860
68.94000 17.014
68.96000 16.346
68.98000 21.923
69.00000 18.244
69.02000 15.884
69.04000 13.349
69.06000 11.444
69.08000 13.670
69.10000 12.925
69.12000 13.288
69.14000 11.154
69.16000 8.335
69.18000 9.395
69.20000 10.177
69.22000 13.314
69.24000 12.974
69.26000 11.957
69.28000 10.342
69.30000 7.833
69.32000 8.326
69.34000 7.744
69.36000 7.647
69.38000 9.804
69.40000 6.883
69.42000 7.431
69.44000 5.172
69.46000 7.444
69.48000 10.169
69.50000 7.660
69.52000 9.696
69.54000 3.772
69.56000 1.944
69.58000 4.426
69.60000 1.937
69.62000 4.939
69.64000 8.724
69.66000 5.208
69.68000 4.327
69.70000 6.556
69.72000 6.276
69.74000 4.431
69.76000 3.596
69.78000 3.979
69.80000 2.702
69.82000 4.025
69.84000 6.051
69.86000 4.528
69.88000 3.259
69.90000 3.328
69.92000 3.181
69.94000 4.820
69.96000 1.178
69.98000 -1.587
70.00000 0.207
70.02000 1.238
70.04000 2.494
70.06000 -2.605
70.08000 2.031
70.10000 -0.345
70.12000 3.417
70.14000 4.236
70.16000 3.640
70.18000 3.591
70.20000 4.907
70.22000 2.896
70.24000 1.141
70.26000 4.105
70.28000 4.465
70.30000 2.472
70.32000 2.113
70.34000 3.053
70.36000 0.486
70.38000 0.257
70.40000 0.117
70.42000 -2.557
70.44000 -0.599
70.46000 3.542
70.48000 4.675
70.50000 3.172
70.52000 -0.581
70.54000 0.212
70.56000 4.952
70.58000 6.928
70.60000 5.211
70.62000 2.294
70.64000 2.019
70.66000 6.030
70.68000 2.457
70.70000 1.354
70.72000 -2.515
70.74000 -0.800
70.76000 2.911
70.78000 -0.404
70.80000 -1.224
70.82000 4.582
70.84000 8.207
70.86000 5.071
70.88000 -0.747
70.90000 1.898
70.92000 4.984
70.94000 6.469
70.96000 10.019
70.98000 8.351
71.00000 7.884
71.02000 5.244
71.04000 10.268
71.06000 6.209
71.08000 0.132
71.10000 8.945
71.12000 6.438
71.14000 -1.065
71.16000 0.648
71.18000 1.602
71.20000 2.408
71.22000 1.183
71.24000 -2.494
71.26000 2.877
71.28000 6.799
71.30000 6.007
71.32000 3.164
71.34000 1.551
71.36000 3.265
71.38000 1.218
71.40000 -1.304
71.42000 -1.455
71.44000 -1.974
71.46000 -0.516
71.48000 2.330
71.50000 1.135
71.52000 -0.763
71.54000 -0.227
71.56000 3.222
71.58000 -0.651
71.60000 -1.929
71.62000 2.711
71.64000 2.045
71.66000 0.443
71.68000 0.243
71.70000 2.136
71.72000 7.656
71.74000 5.307
71.76000 6.121
71.78000 3.639
71.80000 0.920
71.82000 4.692
71.84000 2.172
71.86000 3.174
71.88000 1.684
71.90000 3.170
71.92000 6.628
71.94000 6.527
71.96000 1.794
71.98000 0.741
72.00000 1.810
72.02000 6.239
72.04000 4.824
72.06000 2.026
72.08000 3.126
72.10000 0.855
72.12000 3.833
72.14000 6.119
72.16000 7.526
72.18000 2.286
72.20000 -2.426
72.22000 2.630
72.24000 5.797
72.26000 7.648
72.28000 5.284
72.30000 9.414
72.32000 9.103
72.34000 6.490
72.36000 1.914
72.38000 -1.066
72.40000 4.033
72.42000 4.108
72.44000 5.912
72.46000 2.895
72.48000 4.226
72.50000 5.700
72.52000 3.498
72.54000 1.764
72.56000 2.749
72.58000 4.425
72.60000 3.729
72.62000 5.044
72.64000 5.180
72.66000 3.242
72.68000 0.381
72.70000 4.965
72.72000 7.025
72.74000 9.378
72.76000 9.633
72.78000 6.449
72.80000 2.150
72.82000 -0.571
72.84000 0.733
72.86000 2.768
72.88000 5.905
72.90000 5.624
72.92000 9.388
72.94000 5.343
72.96000 3.384
72.98000 5.859
73.00000 4.602
73.02000 5.524
73.04000 1.092
73.06000 -0.021
73.08000 -0.101
73.10000 -1.045
73.12000 -0.948
73.14000 3.393
73.16000 2.431
73.18000 0.477
73.20000 3.646
73.22000 3.891
73.24000 6.093
73.26000 6.543
73.28000 4.411
73.30000 -0.750
73.32000 -2.408
73.34000 1.370
73.36000 2.922
73.38000 3.410
73.40000 8.424
73.42000 2.946
73.44000 3.535
73.46000 6.054
73.48000 3.452
73.50000 2.967
73.52000 4.271
73.54000 4.257
73.56000 8.315
73.58000 7.083
73.60000 -2.156
73.62000 1.105
73.64000 6.022
73.66000 2.824
73.68000 4.085
73.70000 2.671
73.72000 5.958
73.74000 5.382
73.76000 1.612
73.78000 7.020
73.80000 3.328
73.82000 0.831
73.84000 -2.028
73.86000 2.544
73.88000 2.954
73.90000 0.776
73.92000 2.809
73.94000 3.489
73.96000 5.794
73.98000 6.325
74.00000 5.339
74.02000 9.476
74.04000 4.318
74.06000 -1.868
74.08000 0.345
74.10000 5.352
74.12000 1.121
74.14000 1.194
74.16000 1.110
74.18000 -1.895
74.20000 0.200
74.22000 -0.016
74.24000 -1.395
74.26000 -0.869
74.28000 0.830
74.30000 3.320
74.32000 3.060
74.34000 3.515
74.36000 3.286
74.38000 -0.126
74.40000 -0.019
74.42000 0.834
74.44000 3.840
74.46000 2.324
74.48000 -1.696
74.50000 -0.098
74.52000 4.169
74.54000 2.892
74.56000 -1.164
74.58000 0.312
74.60000 0.891
74.62000 -2.439
74.64000 -2.430
74.66000 -1.383
74.68000 2.511
74.70000 2.951
74.72000 3.462
74.74000 1.294
74.76000 -0.448
74.78000 2.098
74.80000 2.140
74.82000 4.189
74.84000 1.610
74.86000 -0.036
74.88000 3.242
74.90000 2.368
74.92000 2.592
74.94000 0.693
74.96000 -1.294
74.98000 2.632
75.00000 0.808
75.02000 0.699
75.04000 1.806
75.06000 1.961
75.08000 1.453
75.10000 2.700
75.12000 2.323
75.14000 4.182
75.16000 1.740
75.18000 -0.057
75.20000 5.522
75.22000 5.904
75.24000 5.934
75.26000 1.100
75.28000 3.900
75.30000 1.689
75.32000 3.438
75.34000 7.312
75.36000 5.397
75.38000 4.568
75.40000 5.584
75.42000 5.947
75.44000 5.367
75.46000 5.312
75.48000 4.688
75.50000 1.408
75.52000 1.146
75.54000 4.454
75.56000 4.185
75.58000 5.932
75.60000 5.139
75.62000 3.944
75.64000 4.750
75.66000 6.577
75.68000 3.511
75.70000 2.091
75.72000 5.114
75.74000 3.259
75.76000 6.021
75.78000 9.745
75.80000 8.486
75.82000 6.073
75.84000 5.994
75.86000 2.695
75.88000 -1.264
75.90000 4.224
75.92000 5.964
75.94000 0.456
75.96000 -2.360
75.98000 4.013
76.00000 4.441
76.02000 4.092
76.04000 6.146
76.06000 6.885
76.08000 8.506
76.10000 7.962
76.12000 7.892
76.14000 4.251
76.16000 4.951
76.18000 1.929
76.20000 3.018
76.22000 1.747
76.24000 3.248
76.26000 4.757
76.28000 5.384
76.30000 6.163
76.32000 4.289
76.34000 0.715
76.36000 4.183
76.38000 5.016
76.40000 3.430
76.42000 6.132
76.44000 4.586
76.46000 8.749
76.48000 8.472
76.50000 8.785
76.52000 7.546
76.54000 4.303
76.56000 4.570
76.58000 8.495
76.60000 9.221
76.62000 5.067
76.64000 6.629
76.66000 3.687
76.68000 0.570
76.70000 -2.413
76.72000 -0.885
76.74000 3.979
76.76000 4.511
76.78000 4.893
76.80000 6.928
76.82000 7.469
76.84000 3.717
76.86000 -1.762
76.88000 1.065
76.90000 6.952
76.92000 6.039
76.94000 3.041
76.96000 3.364
76.98000 4.266
77.00000 3.461
77.02000 1.045
77.04000 2.594
77.06000 3.829
77.08000 3.190
77.10000 4.641
77.12000 4.971
77.14000 -0.061
77.16000 -2.276
77.18000 3.236
77.20000 4.281
77.22000 1.747
77.24000 6.402
77.26000 6.355
77.28000 4.306
77.30000 2.157
77.32000 -1.145
77.34000 -1.881
77.36000 -0.825
77.38000 4.834
77.40000 4.169
77.42000 -0.332
77.44000 -0.635
77.46000 -0.060
77.48000 -0.955
77.50000 1.344
77.52000 1.662
77.54000 0.754
77.56000 0.614
77.58000 0.403
77.60000 0.211
77.62000 2.297
77.64000 4.193
77.66000 0.232
77.68000 0.155
77.70000 3.699
77.72000 5.253
77.74000 1.567
77.76000 4.419
77.78000 4.599
77.80000 1.826
77.82000 4.728
77.84000 4.073
77.86000 0.061
77.88000 3.739
77.90000 2.066
77.92000 -0.849
77.94000 1.316
77.96000 -0.141
77.98000 3.896
78.00000 4.406
78.02000 3.351
78.04000 3.328
78.06000 0.585
78.08000 2.119
78.10000 2.302
78.12000 0.197
78.14000 2.484
78.16000 5.505
78.18000 4.739
78.20000 2.183
78.22000 -1.194
78.24000 -1.822
78.26000 0.073
78.28000 -2.474
78.30000 2.172
78.32000 8.033
78.34000 4.999
78.36000 3.526
78.38000 0.012
78.40000 -0.986
78.42000 -0.393
78.44000 3.717
78.46000 1.359
78.48000 1.050
78.50000 1.149
78.52000 1.127
78.54000 6.208
78.56000 6.549
78.58000 1.668
78.60000 -0.863
78.62000 -2.362
78.64000 2.054
78.66000 0.215
78.68000 1.793
78.70000 -2.481
78.72000 -0.810
78.74000 -1.191
78.76000 -0.639
78.78000 -1.223
78.80000 0.920
78.82000 1.384
78.84000 1.429
78.86000 0.856
78.88000 3.114
78.90000 1.804
78.92000 1.840
78.94000 -2.517
78.96000 0.627
78.98000 5.849
79.00000 4.200
79.02000 0.005
79.04000 8.843
79.06000 7.075
79.08000 6.073
79.10000 5.198
79.12000 5.219
79.14000 5.407
79.16000 2.180
79.18000 1.928
79.20000 -0.556
79.22000 -1.511
79.24000 0.077
79.26000 3.966
79.28000 1.034
79.30000 2.012
79.32000 1.039
79.34000 3.168
79.36000 0.006
79.38000 2.306
79.40000 3.801
79.42000 4.066
79.44000 3.083
79.46000 3.791
79.48000 4.892
79.50000 2.448
79.52000 -2.533
79.54000 -0.461
79.56000 2.614
79.58000 2.187
79.60000 1.274
79.62000 0.818
79.64000 2.552
79.66000 2.272
79.68000 -2.304
79.70000 -1.148
79.72000 -1.361
79.74000 -0.180
79.76000 0.953
79.78000 7.938
79.80000 5.581
79.82000 1.233
79.84000 2.478
79.86000 8.368
79.88000 4.761
79.90000 0.227
79.92000 1.231
79.94000 2.099
79.96000 0.486
79.98000 1.793
80.00000 4.850
80.02000 2.455
80.04000 -0.740
80.06000 1.592
80.08000 9.320
80.10000 7.500
80.12000 4.312
80.14000 3.002
80.16000 4.757
80.18000 3.579
80.20000 3.851
80.22000 4.890
80.24000 3.917
80.26000 0.263
80.28000 -2.552
80.30000 2.824
80.32000 3.591
80.34000 3.743
80.36000 1.784
80.38000 2.888
80.40000 3.753
80.42000 2.394
80.44000 2.274
80.46000 0.095
80.48000 -1.736
80.50000 4.173
80.52000 8.897
80.54000 8.845
80.56000 5.803
80.58000 3.238
80.60000 -2.111
80.62000 -1.013
80.64000 4.006
80.66000 7.105
80.68000 5.830
80.70000 7.484
80.72000 8.154
80.74000 7.489
80.76000 6.145
80.78000 4.876
80.80000 5.477
80.82000 5.675
80.84000 3.241
80.86000 5.472
80.88000 8.057
80.90000 3.748
80.92000 2.126
80.94000 5.059
80.96000 4.486
80.98000 0.152
81.00000 2.161
81.02000 7.706
81.04000 9.883
81.06000 7.299
81.08000 4.713
81.10000 2.270
81.12000 5.000
81.14000 12.537
81.16000 9.873
81.18000 7.796
81.20000 5.221
81.22000 5.731
81.24000 4.567
81.26000 4.199
81.28000 3.882
81.30000 4.515
81.32000 7.553
81.34000 6.511
81.36000 5.121
81.38000 7.699
81.40000 8.447
81.42000 12.459
81.44000 13.290
81.46000 4.973
81.48000 5.208
81.50000 10.170
81.52000 7.617
81.54000 8.978
81.56000 12.977
81.58000 12.848
81.60000 8.245
81.62000 9.735
81.64000 12.852
81.66000 15.692
81.68000 12.865
81.70000 13.160
81.72000 13.947
81.74000 7.834
81.76000 9.323
81.78000 9.730
81.80000 9.517
81.82000 11.279
81.84000 13.090
81.86000 15.703
81.88000 16.214
81.90000 13.925
81.92000 17.013
81.94000 16.603
81.96000 21.673
81.98000 17.522
82.00000 16.527
82.02000 21.116
82.04000 21.051
82.06000 20.958
82.08000 21.657
82.10000 17.506
82.12000 20.299
82.14000 21.495
82.16000 22.714
82.18000 17.087
82.20000 14.125
82.22000 21.849
82.24000 21.916
82.26000 21.684
82.28000 20.186
82.30000 20.782
82.32000 24.306
82.34000 27.314
82.36000 27.601
82.38000 20.489
82.40000 19.886
82.42000 21.205
82.44000 26.397
82.46000 31.887
82.48000 26.360
82.50000 25.570
82.52000 24.038
82.54000 31.365
82.56000 19.690
82.58000 17.153
82.60000 21.171
82.62000 23.633
82.64000 19.807
82.66000 23.280
82.68000 20.072
82.70000 20.055
82.72000 19.015
82.74000 22.220
82.76000 28.988
82.78000 27.330
82.80000 27.205
82.82000 23.526
82.84000 24.517
82.86000 24.330
82.88000 20.546
82.90000 18.600
82.92000 24.351
82.94000 23.831
82.96000 26.569
82.98000 24.734
83.00000 29.665
83.02000 26.928
83.04000 23.426
83.06000 20.347
83.08000 20.712
83.10000 15.926
83.12000 16.337
83.14000 10.188
83.16000 17.685
83.18000 21.744
83.20000 13.231
83.22000 10.849
83.24000 17.594
83.26000 19.236
83.28000 17.439
83.30000 14.027
83.32000 18.489
83.34000 16.754
83.36000 21.564
83.38000 11.991
83.40000 13.288
83.42000 9.184
83.44000 11.338
83.46000 9.620
83.48000 13.937
83.50000 15.422
83.52000 16.674
83.54000 9.746
83.56000 12.292
83.58000 14.749
83.60000 13.223
83.62000 8.757
83.64000 6.164
83.66000 10.319
83.68000 13.460
83.70000 14.655
83.72000 9.978
83.74000 11.362
83.76000 12.224
83.78000 10.211
83.80000 8.305
83.82000 10.032
83.84000 7.610
83.86000 9.835
83.88000 7.650
83.90000 7.180
83.92000 5.390
83.94000 5.786
83.96000 9.011
83.98000 8.197
84.00000 5.923
84.02000 1.372
84.04000 4.597
84.06000 8.601
84.08000 5.167
84.10000 4.772
84.12000 8.157
84.14000 8.841
84.16000 1.395
84.18000 1.779
84.20000 -2.607
84.22000 2.305
84.24000 3.811
84.26000 2.799
84.28000 1.773
84.30000 4.706
84.32000 6.356
84.34000 0.486
84.36000 0.310
84.38000 3.937
84.40000 5.144
84.42000 8.318
84.44000 6.161
84.46000 1.631
84.48000 0.881
84.50000 7.014
84.52000 5.602
84.54000 6.053
84.56000 5.955
84.58000 1.054
84.60000 0.353
84.62000 0.275
84.64000 0.340
84.66000 0.262
84.68000 0.167
84.70000 2.062
84.72000 4.452
84.74000 0.567
84.76000 1.261
84.78000 2.830
84.80000 -1.410
84.82000 -1.320
84.84000 -1.816
84.86000 -0.105
84.88000 -2.025
84.90000 2.530
84.92000 0.361
84.94000 5.462
84.96000 2.777
84.98000 4.390
85.00000 0.147
85.02000 6.086
85.04000 2.806
85.06000 1.114
85.08000 -0.513
85.10000 0.917
85.12000 -1.008
85.14000 0.883
85.16000 4.709
85.18000 1.344
85.20000 2.072
85.22000 -2.518
85.24000 0.359
85.26000 -2.517
85.28000 1.649
85.30000 3.988
85.32000 5.209
85.34000 4.316
85.36000 8.252
85.38000 2.978
85.40000 0.000
85.42000 5.368
85.44000 5.303
85.46000 3.049
85.48000 0.251
85.50000 3.079
85.52000 3.479
85.54000 9.868
85.56000 5.796
85.58000 0.962
85.60000 4.706
85.62000 1.976
85.64000 4.583
85.66000 5.615
85.68000 5.941
85.70000 3.977
85.72000 -2.309
85.74000 -0.385
85.76000 4.706
85.78000 2.164
85.80000 0.665
85.82000 1.875
85.84000 0.823
85.86000 3.197
85.88000 4.969
85.90000 3.116
85.92000 1.661
85.94000 5.217
85.96000 4.580
85.98000 2.221
86.00000 1.487
86.02000 3.422
86.04000 3.391
86.06000 6.662
86.08000 6.826
86.10000 6.904
86.12000 4.406
86.14000 4.893
86.16000 8.018
86.18000 10.903
86.20000 8.679
86.22000 5.306
86.24000 2.576
86.26000 6.106
86.28000 8.857
86.30000 12.469
86.32000 9.245
86.34000 4.343
86.36000 5.141
86.38000 10.189
86.40000 4.629
86.42000 9.876
86.44000 8.362
86.46000 12.103
86.48000 17.118
86.50000 18.171
86.52000 15.071
86.54000 7.068
86.56000 10.841
86.58000 15.454
86.60000 16.234
86.62000 16.567
86.64000 23.486
86.66000 19.596
86.68000 15.575
86.70000 18.108
86.72000 20.018
86.74000 19.376
86.76000 16.479
86.78000 17.506
86.80000 16.443
86.82000 18.066
86.84000 20.032
86.86000 16.869
86.88000 15.044
86.90000 16.500
86.92000 20.090
86.94000 15.358
86.96000 20.287
86.98000 24.006
87.00000 21.996
87.02000 20.476
87.04000 20.988
87.06000 21.161
87.08000 24.842
87.10000 25.966
87.12000 22.594
87.14000 20.579
87.16000 22.641
87.18000 22.090
87.20000 17.536
87.22000 20.537
87.24000 24.639
87.26000 19.433
87.28000 17.131
87.30000 20.025
87.32000 22.399
87.34000 18.868
87.36000 16.443
87.38000 19.891
87.40000 19.642
87.42000 17.330
87.44000 20.454
87.46000 19.271
87.48000 16.441
87.50000 19.828
87.52000 22.606
87.54000 16.415
87.56000 13.081
87.58000 9.315
87.60000 11.965
87.62000 14.493
87.64000 12.011
87.66000 14.020
87.68000 9.885
87.70000 11.553
87.72000 14.030
87.74000 10.963
87.76000 9.620
87.78000 12.472
87.80000 12.870
87.82000 13.699
87.84000 12.570
87.86000 12.508
87.88000 9.142
87.90000 10.756
87.92000 5.618
87.94000 4.354
87.96000 2.048
87.98000 4.776
88.00000 4.555
88.02000 3.598
88.04000 5.490
88.06000 3.622
88.08000 6.163
88.10000 9.527
88.12000 9.205
88.14000 12.887
88.16000 6.480
88.18000 5.513
88.20000 11.012
88.22000 13.749
88.24000 7.252
88.26000 6.250
88.28000 4.439
88.30000 4.959
88.32000 4.395
88.34000 6.543
88.36000 5.403
88.38000 2.959
88.40000 5.671
88.42000 -0.011
88.44000 -2.439
88.46000 1.026
88.48000 3.804
88.50000 4.145
88.52000 6.532
88.54000 4.245
88.56000 2.524
88.58000 4.003
88.60000 0.757
88.62000 5.514
88.64000 2.813
88.66000 3.219
88.68000 4.321
88.70000 -0.214
88.72000 1.485
88.74000 5.343
88.76000 5.713
88.78000 5.398
88.80000 3.156
88.82000 5.834
88.84000 -1.361
88.86000 3.802
88.88000 3.387
88.90000 2.100
88.92000 4.101
88.94000 5.869
88.96000 2.733
88.98000 2.384
89.00000 0.966
89.02000 -2.298
89.04000 -1.518
89.06000 2.677
89.08000 3.209
89.10000 7.639
89.12000 7.215
89.14000 2.766
89.16000 5.860
89.18000 4.816
89.20000 2.101
89.22000 2.158
89.24000 2.161
89.26000 3.969
89.28000 0.238
89.30000 2.230
89.32000 3.565
89.34000 5.271
89.36000 1.732
89.38000 1.729
89.40000 5.313
89.42000 5.624
89.44000 4.813
89.46000 3.355
89.48000 3.957
89.50000 9.281
89.52000 11.881
89.54000 7.265
89.56000 1.374
89.58000 1.542
89.60000 7.294
89.62000 9.471
89.64000 7.706
89.66000 8.201
89.68000 9.049
89.70000 4.082
89.72000 5.931
89.74000 6.856
89.76000 4.163
89.78000 3.014
89.80000 2.533
89.82000 1.420
89.84000 -2.231
89.86000 5.348
89.88000 5.996
89.90000 4.287
89.92000 6.285
89.94000 9.423
89.96000 5.214
89.98000 5.288
90.00000 8.663
90.02000 6.169
90.04000 3.330
90.06000 3.712
90.08000 4.126
90.10000 3.375
90.12000 4.584
90.14000 2.943
90.16000 6.110
90.18000 8.790
90.20000 6.654
90.22000 3.467
90.24000 4.557
90.26000 -1.049
90.28000 5.794
90.30000 8.846
90.32000 9.374
90.34000 5.442
90.36000 2.051
90.38000 1.824
90.40000 4.344
90.42000 6.233
90.44000 3.848
90.46000 3.504
90.48000 7.866
90.50000 7.946
90.52000 3.956
90.54000 6.044
90.56000 6.715
90.58000 6.206
90.60000 4.090
90.62000 6.633
90.64000 4.905
90.66000 5.666
90.68000 4.010
90.70000 3.976
90.72000 3.408
90.74000 -0.912
90.76000 -1.740
90.78000 3.048
90.80000 6.677
90.82000 4.437
90.84000 2.850
90.86000 7.229
90.88000 8.794
90.90000 9.542
90.92000 7.017
90.94000 3.675
90.96000 2.473
90.98000 2.087
91.00000 7.943
91.02000 12.757
91.04000 7.780
91.06000 4.977
91.08000 1.749
91.10000 4.053
91.12000 2.989
91.14000 0.106
91.16000 -0.857
91.18000 -2.275
91.20000 2.152
91.22000 4.950
91.24000 5.832
91.26000 2.877
91.28000 3.356
91.30000 3.705
91.32000 7.603
91.34000 2.990
91.36000 4.150
91.38000 6.887
91.40000 3.545
91.42000 4.906
91.44000 5.358
91.46000 5.251
91.48000 4.275
91.50000 3.920
91.52000 1.408
91.54000 6.544
91.56000 1.917
91.58000 2.529
91.60000 2.528
91.62000 8.301
91.64000 9.331
91.66000 7.501
91.68000 2.502
91.70000 3.870
91.72000 2.044
91.74000 0.902
91.76000 5.803
91.78000 4.584
91.80000 1.547
91.82000 3.008
91.84000 6.681
91.86000 8.531
91.88000 2.971
91.90000 2.727
91.92000 2.339
91.94000 -2.283
91.96000 -1.435
91.98000 2.809
92.00000 12.201
92.02000 11.871
92.04000 3.947
92.06000 3.533
92.08000 4.704
92.10000 2.559
92.12000 -1.204
92.14000 -2.288
92.16000 3.409
92.18000 3.006
92.20000 4.691
92.22000 1.242
92.24000 7.758
92.26000 3.298
92.28000 1.239
92.30000 1.474
92.32000 2.207
92.34000 3.380
92.36000 2.143
92.38000 0.933
92.40000 3.674
92.42000 1.379
92.44000 0.723
92.46000 1.170
92.48000 2.675
92.50000 -1.119
92.52000 -0.303
92.54000 4.686
92.56000 2.455
92.58000 1.143
92.60000 -0.687
92.62000 3.661
92.64000 4.684
92.66000 3.593
92.68000 4.064
92.70000 7.134
92.72000 4.674
92.74000 2.098
92.76000 3.409
92.78000 -1.813
92.80000 -0.531
92.82000 1.527
92.84000 1.546
92.86000 6.081
92.88000 12.854
92.90000 10.603
92.92000 8.007
92.94000 4.810
92.96000 6.018
92.98000 5.329
93.00000 0.454
93.02000 2.660
93.04000 7.194
93.06000 -0.456
93.08000 -0.882
93.10000 2.875
93.12000 0.885
93.14000 5.126
93.16000 -0.528
93.18000 1.754
93.20000 5.941
93.22000 7.767
93.24000 9.534
93.26000 9.590
93.28000 6.180
93.30000 5.782
93.32000 2.198
93.34000 -1.968
93.36000 -2.286
93.38000 2.168
93.40000 6.346
93.42000 7.969
93.44000 6.228
93.46000 6.622
93.48000 1.839
93.50000 4.938
93.52000 -0.913
93.54000 2.702
93.56000 5.507
93.58000 6.674
93.60000 2.563
93.62000 1.558
93.64000 2.364
93.66000 6.660
93.68000 6.582
93.70000 3.207
93.72000 0.447
93.74000 0.518
93.76000 7.753
93.78000 11.213
93.80000 9.082
93.82000 -0.168
93.84000 1.550
93.86000 1.990
93.88000 0.192
93.90000 -0.191
93.92000 -0.822
93.94000 3.734
93.96000 7.940
93.98000 10.163
94.00000 7.336
94.02000 10.088
94.04000 7.517
94.06000 3.455
94.08000 3.598
94.10000 4.713
94.12000 2.992
94.14000 0.949
94.16000 4.902
94.18000 4.339
94.20000 -1.493
94.22000 0.456
94.24000 4.256
94.26000 2.858
94.28000 3.600
94.30000 -2.303
94.32000 -2.141
94.34000 0.081
94.36000 3.356
94.38000 5.515
94.40000 5.653
94.42000 5.049
94.44000 4.872
94.46000 4.838
94.48000 0.631
94.50000 5.775
94.52000 7.196
94.54000 4.961
94.56000 6.367
94.58000 6.609
94.60000 -0.295
94.62000 5.735
94.64000 6.259
94.66000 1.575
94.68000 3.799
94.70000 3.177
94.72000 4.068
94.74000 2.538
94.76000 4.432
94.78000 7.605
94.80000 2.435
94.82000 1.408
94.84000 2.540
94.86000 5.809
94.88000 1.800
94.90000 -0.716
94.92000 1.506
94.94000 -1.522
94.96000 -1.471
94.98000 5.599
95.00000 4.146
95.02000 2.993
95.04000 2.759
95.06000 5.666
95.08000 1.590
95.10000 -2.013
95.12000 3.663
95.14000 8.760
95.16000 5.396
95.18000 7.730
95.20000 7.603
95.22000 4.940
95.24000 3.448
95.26000 -1.539
95.28000 0.946
95.30000 6.784
95.32000 4.583
95.34000 3.516
95.36000 11.059
95.38000 9.403
95.40000 3.194
95.42000 2.395
95.44000 7.461
95.46000 6.589
95.48000 6.271
95.50000 9.083
95.52000 8.644
95.54000 4.592
95.56000 4.654
95.58000 2.782
95.60000 2.036
95.62000 5.076
95.64000 11.067
95.66000 8.229
95.68000 5.829
95.70000 11.736
95.72000 4.325
95.74000 4.271
95.76000 5.397
95.78000 6.692
95.80000 4.422
95.82000 3.710
95.84000 6.639
95.86000 5.070
95.88000 4.176
95.90000 3.092
95.92000 1.464
95.94000 -2.054
95.96000 7.234
95.98000 4.118
96.00000 1.920
96.02000 2.166
96.04000 6.023
96.06000 3.367
96.08000 -0.025
96.10000 10.581
96.12000 4.634
96.14000 2.657
96.16000 2.350
96.18000 4.206
96.20000 7.217
96.22000 7.406
96.24000 4.119
96.26000 6.407
96.28000 -2.281
96.30000 1.367
96.32000 10.976
96.34000 3.235
96.36000 4.666
96.38000 7.006
96.40000 5.604
96.42000 4.095
96.44000 5.451
96.46000 2.773
96.48000 5.718
96.50000 5.745
96.52000 8.384
96.54000 -0.119
96.56000 1.367
96.58000 3.577
96.60000 0.646
96.62000 -1.596
96.64000 4.953
96.66000 8.404
96.68000 -1.522
96.70000 10.318
96.72000 13.425
96.74000 4.922
96.76000 5.942
96.78000 4.529
96.80000 0.616
96.82000 5.681
96.84000 6.309
96.86000 10.461
96.88000 15.340
96.90000 5.444
96.92000 2.914
96.94000 4.397
96.96000 0.468
96.98000 7.376
97.00000 6.481
97.02000 5.982
97.04000 7.391
97.06000 6.794
97.08000 12.965
97.10000 11.849
97.12000 4.761
97.14000 3.850
97.16000 4.763
97.18000 6.096
97.20000 10.905
97.22000 11.372
97.24000 13.980
97.26000 9.808
97.28000 2.748
97.30000 0.694
97.32000 2.233
97.34000 1.183
97.36000 11.152
97.38000 14.299
97.40000 10.123
97.42000 10.237
97.44000 7.473
97.46000 9.055
97.48000 4.996
97.50000 3.758
97.52000 7.174
97.54000 19.496
97.56000 12.572
97.58000 7.321
97.60000 -1.493
97.62000 0.593
97.64000 4.990
97.66000 6.653
97.68000 7.381
97.70000 9.174
97.72000 12.505
97.74000 9.453
97.76000 11.382
97.78000 11.119
97.80000 2.863
97.82000 5.309
97.84000 11.729
97.86000 12.821
97.88000 10.330
97.90000 10.177
97.92000 9.216
97.94000 9.250
97.96000 4.476
97.98000 0.753
98.00000 -2.227
98.02000 10.022
98.04000 10.905
98.06000 10.711
98.08000 9.316
98.10000 6.143
98.12000 8.511
98.14000 12.955
98.16000 14.338
98.18000 11.079
98.20000 6.634
98.22000 6.545
98.24000 1.736
98.26000 7.426
98.28000 10.267
98.30000 15.539
98.32000 15.327
98.34000 7.413
98.36000 1.112
98.38000 1.872
98.40000 6.790
98.42000 8.399
98.44000 6.925
98.46000 6.774
98.48000 12.474
98.50000 10.012
98.52000 5.882
98.54000 6.169
98.56000 10.687
98.58000 8.469
98.60000 7.348
98.62000 1.823
98.64000 10.325
98.66000 12.362
98.68000 8.233
98.70000 7.593
98.72000 12.230
98.74000 7.371
98.76000 11.746
98.78000 4.019
98.80000 6.489
98.82000 9.434
98.84000 13.866
98.86000 15.830
98.88000 4.483
98.90000 10.575
98.92000 9.938
98.94000 6.600
98.96000 11.246
98.98000 9.624
99.00000 5.496
99.02000 7.551
99.04000 6.208
99.06000 13.751
99.08000 8.998
99.10000 14.362
99.12000 13.323
99.14000 5.427
99.16000 -1.398
99.18000 -2.188
99.20000 -0.502
99.22000 10.826
99.24000 9.297
99.26000 0.739
99.28000 7.012
99.30000 10.996
99.32000 16.585
99.34000 16.792
99.36000 9.824
99.38000 13.483
99.40000 2.508
99.42000 7.039
99.44000 7.446
99.46000 6.013
99.48000 3.862
99.50000 2.154
99.52000 -2.159
99.54000 5.981
99.56000 19.405
99.58000 15.604
99.60000 15.231
99.62000 26.133
99.64000 15.265
99.66000 12.981
99.68000 6.148
99.70000 10.017
99.72000 7.606
99.74000 16.699
99.76000 19.584
99.78000 7.927
99.80000 15.193
99.82000 5.433
99.84000 4.938
99.86000 7.221
99.88000 4.369
99.90000 11.969
99.92000 13.494
99.94000 21.405
99.96000 17.989
99.98000 0.000
