'Id: "0011388" Comment: "Integrate frame 0011388_Au-Ir-Rh_Rh-rich_XRD-Mapping-155-0000.gfrmwith cursor Wedge Cursor #5" Operator: "B?rgel" Anode: "Cu" Wavelength: "1.5406" Scantype: "2Theta (TwoTheta)" TimePerStep: "1" X: "40.5" Y: "-4.5" Z: "5.95" 
10.00000 0.000
10.02000 -3.014
10.04000 -3.009
10.06000 8.730
10.08000 4.205
10.10000 4.309
10.12000 -0.179
10.14000 9.376
10.16000 -0.743
10.18000 1.427
10.20000 6.671
10.22000 -0.540
10.24000 11.534
10.26000 12.393
10.28000 5.938
10.30000 6.033
10.32000 4.078
10.34000 -0.837
10.36000 -3.135
10.38000 6.011
10.40000 4.641
10.42000 12.127
10.44000 11.967
10.46000 6.966
10.48000 5.317
10.50000 0.071
10.52000 4.039
10.54000 -1.139
10.56000 5.948
10.58000 11.755
10.60000 15.552
10.62000 13.008
10.64000 9.955
10.66000 4.812
10.68000 12.436
10.70000 10.840
10.72000 18.916
10.74000 19.062
10.76000 21.254
10.78000 14.220
10.80000 19.695
10.82000 15.635
10.84000 13.257
10.86000 9.535
10.88000 19.779
10.90000 20.987
10.92000 24.230
10.94000 23.041
10.96000 13.060
10.98000 16.416
11.00000 15.466
11.02000 13.812
11.04000 12.466
11.06000 14.630
11.08000 23.490
11.10000 33.261
11.12000 30.158
11.14000 18.631
11.16000 20.522
11.18000 23.271
11.20000 25.014
11.22000 32.464
11.24000 26.021
11.26000 37.752
11.28000 30.087
11.30000 22.001
11.32000 19.974
11.34000 29.276
11.36000 29.390
11.38000 31.165
11.40000 34.279
11.42000 34.366
11.44000 32.065
11.46000 22.553
11.48000 26.934
11.50000 36.659
11.52000 32.897
11.54000 27.781
11.56000 41.450
11.58000 30.088
11.60000 29.893
11.62000 36.341
11.64000 40.606
11.66000 45.310
11.68000 44.939
11.70000 35.365
11.72000 29.110
11.74000 30.909
11.76000 38.051
11.78000 45.341
11.80000 44.301
11.82000 42.302
11.84000 33.716
11.86000 41.958
11.88000 41.990
11.90000 31.948
11.92000 44.776
11.94000 49.549
11.96000 31.028
11.98000 26.537
12.00000 29.567
12.02000 38.835
12.04000 41.596
12.06000 35.631
12.08000 45.760
12.10000 47.375
12.12000 57.824
12.14000 53.558
12.16000 51.628
12.18000 49.442
12.20000 51.297
12.22000 35.332
12.24000 41.761
12.26000 46.015
12.28000 55.377
12.30000 45.839
12.32000 42.374
12.34000 42.821
12.36000 46.260
12.38000 46.848
12.40000 51.187
12.42000 40.927
12.44000 44.228
12.46000 46.152
12.48000 39.897
12.50000 41.064
12.52000 40.057
12.54000 36.140
12.56000 50.783
12.58000 59.737
12.60000 56.904
12.62000 60.330
12.64000 51.314
12.66000 43.417
12.68000 41.227
12.70000 42.240
12.72000 45.200
12.74000 44.454
12.76000 42.177
12.78000 47.761
12.80000 43.158
12.82000 47.630
12.84000 54.850
12.86000 48.348
12.88000 39.202
12.90000 41.801
12.92000 43.276
12.94000 40.313
12.96000 49.770
12.98000 45.329
13.00000 48.430
13.02000 48.967
13.04000 46.287
13.06000 52.421
13.08000 41.840
13.10000 38.305
13.12000 38.104
13.14000 49.112
13.16000 52.812
13.18000 46.961
13.20000 48.150
13.22000 47.191
13.24000 43.498
13.26000 41.764
13.28000 46.675
13.30000 54.592
13.32000 55.232
13.34000 61.848
13.36000 52.601
13.38000 49.451
13.40000 53.107
13.42000 51.303
13.44000 40.082
13.46000 42.509
13.48000 50.272
13.50000 48.320
13.52000 34.835
13.54000 45.219
13.56000 44.829
13.58000 46.289
13.60000 43.682
13.62000 47.587
13.64000 42.748
13.66000 40.277
13.68000 35.426
13.70000 38.100
13.72000 38.635
13.74000 34.892
13.76000 45.535
13.78000 42.824
13.80000 42.858
13.82000 45.074
13.84000 42.916
13.86000 33.971
13.88000 35.899
13.90000 42.957
13.92000 44.505
13.94000 48.397
13.96000 41.969
13.98000 43.941
14.00000 37.056
14.02000 35.859
14.04000 36.040
14.06000 34.535
14.08000 38.476
14.10000 45.504
14.12000 43.717
14.14000 41.821
14.16000 39.560
14.18000 34.211
14.20000 36.788
14.22000 35.967
14.24000 35.726
14.26000 36.649
14.28000 31.089
14.30000 33.374
14.32000 34.807
14.34000 34.907
14.36000 36.052
14.38000 34.615
14.40000 36.298
14.42000 30.874
14.44000 30.177
14.46000 38.509
14.48000 39.298
14.50000 31.123
14.52000 37.140
14.54000 40.153
14.56000 39.797
14.58000 31.250
14.60000 27.664
14.62000 29.172
14.64000 26.900
14.66000 40.029
14.68000 42.423
14.70000 34.128
14.72000 34.260
14.74000 35.446
14.76000 29.359
14.78000 29.475
14.80000 42.489
14.82000 39.264
14.84000 33.400
14.86000 31.022
14.88000 27.863
14.90000 32.136
14.92000 33.011
14.94000 33.102
14.96000 29.526
14.98000 29.396
15.00000 24.758
15.02000 25.829
15.04000 26.880
15.06000 21.414
15.08000 26.263
15.10000 28.791
15.12000 34.004
15.14000 20.418
15.16000 24.001
15.18000 31.645
15.20000 26.422
15.22000 27.705
15.24000 18.659
15.26000 21.276
15.28000 27.370
15.30000 28.250
15.32000 31.245
15.34000 32.627
15.36000 38.141
15.38000 34.570
15.40000 25.662
15.42000 19.774
15.44000 22.244
15.46000 25.363
15.48000 26.718
15.50000 21.809
15.52000 16.619
15.54000 20.538
15.56000 24.158
15.58000 24.155
15.60000 24.313
15.62000 16.099
15.64000 12.007
15.66000 17.583
15.68000 24.891
15.70000 23.219
15.72000 24.776
15.74000 17.220
15.76000 11.412
15.78000 23.879
15.80000 26.072
15.82000 20.821
15.84000 13.305
15.86000 13.342
15.88000 20.535
15.90000 17.600
15.92000 22.923
15.94000 15.826
15.96000 6.126
15.98000 14.728
16.00000 12.935
16.02000 16.542
16.04000 15.308
16.06000 17.903
16.08000 21.353
16.10000 20.970
16.12000 20.419
16.14000 19.395
16.16000 17.490
16.18000 17.495
16.20000 16.961
16.22000 21.315
16.24000 19.744
16.26000 10.797
16.28000 10.791
16.30000 16.766
16.32000 18.516
16.34000 14.883
16.36000 12.656
16.38000 13.854
16.40000 17.908
16.42000 18.907
16.44000 19.150
16.46000 17.165
16.48000 12.294
16.50000 16.792
16.52000 24.689
16.54000 12.967
16.56000 4.332
16.58000 4.087
16.60000 -2.309
16.62000 10.536
16.64000 22.257
16.66000 20.850
16.68000 16.861
16.70000 13.633
16.72000 12.763
16.74000 15.656
16.76000 14.590
16.78000 10.995
16.80000 12.159
16.82000 18.161
16.84000 14.325
16.86000 9.644
16.88000 14.738
16.90000 9.007
16.92000 2.723
16.94000 8.766
16.96000 9.474
16.98000 15.815
17.00000 17.958
17.02000 13.349
17.04000 16.450
17.06000 12.933
17.08000 5.996
17.10000 6.472
17.12000 12.150
17.14000 12.395
17.16000 17.074
17.18000 12.760
17.20000 1.555
17.22000 -1.555
17.24000 8.373
17.26000 11.834
17.28000 7.964
17.30000 12.785
17.32000 8.480
17.34000 8.196
17.36000 7.243
17.38000 11.626
17.40000 11.788
17.42000 2.552
17.44000 4.415
17.46000 10.039
17.48000 9.692
17.50000 11.070
17.52000 8.584
17.54000 2.313
17.56000 11.706
17.58000 15.730
17.60000 18.773
17.62000 12.645
17.64000 6.108
17.66000 6.090
17.68000 7.960
17.70000 8.189
17.72000 10.826
17.74000 10.033
17.76000 5.469
17.78000 10.075
17.80000 6.652
17.82000 3.432
17.84000 2.540
17.86000 2.254
17.88000 8.542
17.90000 7.304
17.92000 8.504
17.94000 11.188
17.96000 12.395
17.98000 13.979
18.00000 9.183
18.02000 4.145
18.04000 5.909
18.06000 6.021
18.08000 6.420
18.10000 13.527
18.12000 8.761
18.14000 15.409
18.16000 13.324
18.18000 -2.171
18.20000 1.678
18.22000 5.800
18.24000 5.552
18.26000 3.764
18.28000 -0.238
18.30000 4.070
18.32000 4.543
18.34000 7.170
18.36000 -1.149
18.38000 1.034
18.40000 8.637
18.42000 5.662
18.44000 7.066
18.46000 3.773
18.48000 8.818
18.50000 2.951
18.52000 1.296
18.54000 4.271
18.56000 0.022
18.58000 4.918
18.60000 5.042
18.62000 -1.904
18.64000 -0.436
18.66000 1.967
18.68000 5.704
18.70000 2.710
18.72000 -4.287
18.74000 1.810
18.76000 5.992
18.78000 -1.849
18.80000 3.922
18.82000 9.267
18.84000 6.826
18.86000 6.426
18.88000 10.690
18.90000 8.495
18.92000 0.102
18.94000 11.533
18.96000 14.078
18.98000 10.584
19.00000 7.148
19.02000 7.636
19.04000 10.806
19.06000 4.702
19.08000 7.943
19.10000 9.551
19.12000 10.016
19.14000 14.912
19.16000 4.528
19.18000 6.644
19.20000 5.975
19.22000 3.558
19.24000 4.184
19.26000 6.301
19.28000 0.019
19.30000 3.035
19.32000 8.750
19.34000 3.743
19.36000 4.651
19.38000 6.730
19.40000 3.142
19.42000 3.335
19.44000 0.605
19.46000 5.620
19.48000 5.802
19.50000 1.513
19.52000 3.202
19.54000 0.858
19.56000 -1.812
19.58000 -4.235
19.60000 -2.977
19.62000 -2.276
19.64000 4.632
19.66000 6.435
19.68000 13.338
19.70000 8.617
19.72000 7.681
19.74000 9.271
19.76000 5.284
19.78000 2.047
19.80000 5.078
19.82000 1.803
19.84000 4.396
19.86000 0.216
19.88000 0.914
19.90000 4.232
19.92000 1.545
19.94000 -0.839
19.96000 -2.557
19.98000 -1.863
20.00000 4.476
20.02000 5.399
20.04000 2.410
20.06000 6.975
20.08000 10.188
20.10000 9.218
20.12000 6.283
20.14000 -2.205
20.16000 -1.312
20.18000 2.017
20.20000 5.725
20.22000 1.534
20.24000 6.445
20.26000 9.063
20.28000 6.272
20.30000 3.848
20.32000 0.709
20.34000 3.775
20.36000 11.677
20.38000 7.355
20.40000 0.536
20.42000 7.294
20.44000 10.620
20.46000 11.717
20.48000 10.105
20.50000 2.706
20.52000 -4.185
20.54000 9.046
20.56000 5.630
20.58000 4.494
20.60000 2.161
20.62000 4.663
20.64000 1.380
20.66000 5.795
20.68000 16.688
20.70000 9.853
20.72000 1.578
20.74000 2.145
20.76000 9.680
20.78000 10.723
20.80000 10.617
20.82000 2.933
20.84000 1.125
20.86000 3.880
20.88000 12.280
20.90000 13.116
20.92000 6.886
20.94000 -1.080
20.96000 -0.018
20.98000 5.545
21.00000 1.023
21.02000 8.478
21.04000 10.546
21.06000 4.501
21.08000 -2.695
21.10000 1.354
21.12000 4.044
21.14000 2.068
21.16000 0.341
21.18000 -0.836
21.20000 1.158
21.22000 0.977
21.24000 9.573
21.26000 6.373
21.28000 3.885
21.30000 4.711
21.32000 -0.458
21.34000 -0.590
21.36000 -2.585
21.38000 1.423
21.40000 10.703
21.42000 8.851
21.44000 -4.148
21.46000 -0.316
21.48000 -0.874
21.50000 5.861
21.52000 7.575
21.54000 7.135
21.56000 4.476
21.58000 3.142
21.60000 3.060
21.62000 1.792
21.64000 1.004
21.66000 1.308
21.68000 -1.423
21.70000 4.031
21.72000 3.912
21.74000 1.668
21.76000 5.728
21.78000 -0.041
21.80000 -4.136
21.82000 -3.675
21.84000 1.690
21.86000 5.827
21.88000 5.281
21.90000 -1.788
21.92000 -1.681
21.94000 -0.395
21.96000 -1.252
21.98000 3.663
22.00000 3.576
22.02000 -0.834
22.04000 -0.713
22.06000 3.578
22.08000 5.032
22.10000 3.401
22.12000 9.649
22.14000 9.231
22.16000 8.085
22.18000 7.482
22.20000 9.435
22.22000 9.991
22.24000 3.489
22.26000 1.675
22.28000 -1.005
22.30000 0.206
22.32000 4.726
22.34000 7.552
22.36000 5.778
22.38000 4.056
22.40000 3.157
22.42000 1.655
22.44000 3.892
22.46000 2.759
22.48000 1.429
22.50000 2.668
22.52000 3.088
22.54000 6.372
22.56000 7.723
22.58000 -1.603
22.60000 5.824
22.62000 8.853
22.64000 6.603
22.66000 4.596
22.68000 5.347
22.70000 -0.455
22.72000 -1.102
22.74000 -4.084
22.76000 1.374
22.78000 2.199
22.80000 1.821
22.82000 0.668
22.84000 -3.006
22.86000 1.781
22.88000 1.623
22.90000 7.090
22.92000 6.833
22.94000 5.575
22.96000 2.131
22.98000 0.383
23.00000 6.144
23.02000 10.922
23.04000 2.823
23.06000 5.964
23.08000 4.475
23.10000 4.938
23.12000 4.993
23.14000 4.665
23.16000 -3.237
23.18000 -3.579
23.20000 -3.174
23.22000 8.290
23.24000 4.824
23.26000 -1.011
23.28000 5.025
23.30000 7.697
23.32000 3.549
23.34000 1.525
23.36000 1.553
23.38000 2.833
23.40000 -1.065
23.42000 3.077
23.44000 3.430
23.46000 3.345
23.48000 3.350
23.50000 8.744
23.52000 6.440
23.54000 7.292
23.56000 6.263
23.58000 2.627
23.60000 4.909
23.62000 8.772
23.64000 5.385
23.66000 1.887
23.68000 -1.357
23.70000 1.085
23.72000 -1.896
23.74000 0.311
23.76000 5.733
23.78000 2.522
23.80000 3.130
23.82000 -0.986
23.84000 -4.032
23.86000 -2.037
23.88000 2.685
23.90000 5.859
23.92000 -0.139
23.94000 3.991
23.96000 2.922
23.98000 -2.830
24.00000 0.326
24.02000 1.785
24.04000 3.191
24.06000 1.241
24.08000 1.298
24.10000 0.989
24.12000 3.473
24.14000 5.425
24.16000 6.556
24.18000 4.907
24.20000 3.333
24.22000 0.823
24.24000 1.730
24.26000 -0.160
24.28000 -1.861
24.30000 1.153
24.32000 0.801
24.34000 1.937
24.36000 0.197
24.38000 4.694
24.40000 3.555
24.42000 -2.083
24.44000 1.772
24.46000 3.117
24.48000 4.575
24.50000 8.574
24.52000 6.650
24.54000 3.510
24.56000 8.012
24.58000 13.515
24.60000 5.915
24.62000 2.845
24.64000 -1.084
24.66000 -3.958
24.68000 2.393
24.70000 5.154
24.72000 7.573
24.74000 6.638
24.76000 4.806
24.78000 4.057
24.80000 2.893
24.82000 5.154
24.84000 7.876
24.86000 3.879
24.88000 3.766
24.90000 3.825
24.92000 2.751
24.94000 5.197
24.96000 0.879
24.98000 8.185
25.00000 7.763
25.02000 6.140
25.04000 4.888
25.06000 5.240
25.08000 3.385
25.10000 2.073
25.12000 -0.028
25.14000 1.268
25.16000 0.424
25.18000 4.495
25.20000 6.880
25.22000 8.980
25.24000 7.614
25.26000 3.191
25.28000 0.283
25.30000 3.383
25.32000 -0.027
25.34000 0.577
25.36000 -1.265
25.38000 2.284
25.40000 6.898
25.42000 1.734
25.44000 -0.668
25.46000 3.507
25.48000 3.711
25.50000 8.638
25.52000 9.818
25.54000 6.064
25.56000 4.280
25.58000 1.794
25.60000 -3.905
25.62000 3.930
25.64000 1.831
25.66000 4.828
25.68000 -1.121
25.70000 -3.449
25.72000 -0.794
25.74000 -2.000
25.76000 -3.483
25.78000 0.502
25.80000 4.252
25.82000 9.813
25.84000 1.219
25.86000 2.389
25.88000 4.263
25.90000 2.479
25.92000 7.882
25.94000 8.170
25.96000 -1.456
25.98000 0.696
26.00000 3.214
26.02000 6.841
26.04000 5.406
26.06000 8.850
26.08000 6.806
26.10000 1.193
26.12000 3.229
26.14000 1.414
26.16000 0.708
26.18000 0.740
26.20000 3.917
26.22000 3.925
26.24000 6.751
26.26000 8.073
26.28000 6.156
26.30000 6.272
26.32000 3.565
26.34000 0.795
26.36000 7.510
26.38000 5.953
26.40000 -0.075
26.42000 1.363
26.44000 2.332
26.46000 -0.285
26.48000 0.807
26.50000 3.926
26.52000 6.816
26.54000 3.869
26.56000 6.110
26.58000 3.279
26.60000 7.507
26.62000 4.957
26.64000 9.814
26.66000 11.130
26.68000 6.463
26.70000 -1.100
26.72000 -3.848
26.74000 4.697
26.76000 10.439
26.78000 7.332
26.80000 7.323
26.82000 4.988
26.84000 3.366
26.86000 4.690
26.88000 2.983
26.90000 -0.437
26.92000 4.416
26.94000 3.649
26.96000 -0.651
26.98000 3.284
27.00000 3.805
27.02000 4.930
27.04000 9.282
27.06000 8.094
27.08000 2.874
27.10000 -3.107
27.12000 -0.417
27.14000 8.927
27.16000 10.946
27.18000 6.938
27.20000 1.238
27.22000 5.277
27.24000 2.955
27.26000 1.013
27.28000 2.349
27.30000 2.350
27.32000 2.771
27.34000 4.530
27.36000 6.462
27.38000 5.160
27.40000 7.934
27.42000 5.951
27.44000 3.444
27.46000 -0.428
27.48000 4.174
27.50000 -0.046
27.52000 2.851
27.54000 8.359
27.56000 5.715
27.58000 2.228
27.60000 -3.198
27.62000 -2.477
27.64000 -3.758
27.66000 3.973
27.68000 4.848
27.70000 5.614
27.72000 1.973
27.74000 -1.515
27.76000 -0.673
27.78000 2.498
27.80000 3.644
27.82000 3.560
27.84000 0.317
27.86000 3.559
27.88000 6.069
27.90000 3.458
27.92000 -3.271
27.94000 -3.797
27.96000 0.263
27.98000 3.479
28.00000 -3.037
28.02000 -0.401
28.04000 0.610
28.06000 3.032
28.08000 5.531
28.10000 5.094
28.12000 2.459
28.14000 1.897
28.16000 6.328
28.18000 5.044
28.20000 6.095
28.22000 4.648
28.24000 0.961
28.26000 -3.782
28.28000 0.684
28.30000 2.970
28.32000 2.778
28.34000 2.181
28.36000 3.306
28.38000 5.396
28.40000 4.951
28.42000 4.738
28.44000 6.081
28.46000 7.282
28.48000 6.676
28.50000 4.745
28.52000 4.957
28.54000 1.777
28.56000 1.679
28.58000 1.348
28.60000 4.947
28.62000 -1.533
28.64000 0.887
28.66000 3.263
28.68000 4.765
28.70000 7.390
28.72000 0.380
28.74000 -0.456
28.76000 -3.419
28.78000 4.325
28.80000 6.049
28.82000 6.190
28.84000 0.192
28.86000 0.382
28.88000 3.635
28.90000 4.950
28.92000 7.468
28.94000 4.425
28.96000 3.232
28.98000 4.701
29.00000 4.686
29.02000 3.064
29.04000 3.788
29.06000 5.425
29.08000 0.489
29.10000 4.018
29.12000 0.348
29.14000 -2.815
29.16000 -3.741
29.18000 3.409
29.20000 0.935
29.22000 0.099
29.24000 -0.433
29.26000 -1.689
29.28000 1.217
29.30000 -3.415
29.32000 -3.490
29.34000 0.504
29.36000 6.873
29.38000 3.493
29.40000 7.977
29.42000 5.830
29.44000 4.397
29.46000 6.701
29.48000 1.249
29.50000 -0.495
29.52000 -0.646
29.54000 6.363
29.56000 6.587
29.58000 3.834
29.60000 4.715
29.62000 1.445
29.64000 3.871
29.66000 2.277
29.68000 -0.280
29.70000 2.033
29.72000 0.793
29.74000 -2.540
29.76000 1.985
29.78000 5.224
29.80000 3.279
29.82000 -3.699
29.84000 1.373
29.86000 2.470
29.88000 4.244
29.90000 -0.957
29.92000 0.346
29.94000 5.168
29.96000 7.346
29.98000 4.511
30.00000 2.255
30.02000 5.778
30.04000 4.195
30.06000 6.812
30.08000 5.800
30.10000 10.118
30.12000 12.675
30.14000 10.130
30.16000 2.192
30.18000 1.865
30.20000 2.897
30.22000 5.001
30.24000 2.852
30.26000 3.674
30.28000 2.290
30.30000 4.450
30.32000 2.273
30.34000 -0.890
30.36000 -0.402
30.38000 -0.526
30.40000 -0.758
30.42000 0.333
30.44000 6.572
30.46000 4.929
30.48000 0.997
30.50000 3.187
30.52000 -1.655
30.54000 -3.628
30.56000 0.593
30.58000 6.285
30.60000 3.427
30.62000 4.733
30.64000 3.349
30.66000 7.378
30.68000 6.789
30.70000 7.158
30.72000 5.325
30.74000 8.149
30.76000 4.742
30.78000 10.451
30.80000 4.285
30.82000 -0.928
30.84000 3.951
30.86000 5.790
30.88000 3.426
30.90000 1.652
30.92000 3.801
30.94000 12.569
30.96000 10.641
30.98000 8.312
31.00000 5.530
31.02000 4.233
31.04000 7.924
31.06000 9.802
31.08000 8.905
31.10000 8.785
31.12000 6.936
31.14000 2.364
31.16000 4.450
31.18000 3.246
31.20000 3.354
31.22000 4.679
31.24000 4.988
31.26000 1.601
31.28000 4.518
31.30000 5.802
31.32000 3.958
31.34000 0.993
31.36000 0.695
31.38000 -3.621
31.40000 1.118
31.42000 6.794
31.44000 10.186
31.46000 8.642
31.48000 6.535
31.50000 1.471
31.52000 -2.161
31.54000 -0.188
31.56000 7.614
31.58000 1.927
31.60000 -0.842
31.62000 0.481
31.64000 1.122
31.66000 2.173
31.68000 4.166
31.70000 6.701
31.72000 -0.525
31.74000 -0.382
31.76000 1.439
31.78000 2.568
31.80000 -0.213
31.82000 -2.212
31.84000 -2.381
31.86000 -0.119
31.88000 2.233
31.90000 8.311
31.92000 4.668
31.94000 3.875
31.96000 2.505
31.98000 -0.392
32.00000 2.391
32.02000 0.150
32.04000 -0.222
32.06000 4.270
32.08000 -0.060
32.10000 4.022
32.12000 3.731
32.14000 -0.533
32.16000 0.558
32.18000 0.696
32.20000 -1.089
32.22000 -0.677
32.24000 -2.814
32.26000 -0.889
32.28000 3.939
32.30000 4.541
32.32000 5.139
32.34000 -0.134
32.36000 1.413
32.38000 1.154
32.40000 2.363
32.42000 1.220
32.44000 -3.199
32.46000 -0.799
32.48000 -0.055
32.50000 3.369
32.52000 1.264
32.54000 -3.601
32.56000 0.194
32.58000 4.481
32.60000 4.402
32.62000 5.332
32.64000 0.361
32.66000 0.012
32.68000 -0.080
32.70000 4.245
32.72000 2.533
32.74000 2.956
32.76000 2.416
32.78000 0.466
32.80000 0.007
32.82000 2.265
32.84000 3.628
32.86000 0.767
32.88000 -1.182
32.90000 0.449
32.92000 1.864
32.94000 3.519
32.96000 0.928
32.98000 0.836
33.00000 1.021
33.02000 -3.581
33.04000 -1.335
33.06000 1.025
33.08000 0.733
33.10000 2.546
33.12000 3.655
33.14000 10.468
33.16000 3.071
33.18000 -0.687
33.20000 1.471
33.22000 -3.382
33.24000 -1.177
33.26000 0.817
33.28000 3.088
33.30000 3.377
33.32000 6.108
33.34000 5.348
33.36000 4.057
33.38000 -0.366
33.40000 1.735
33.42000 2.272
33.44000 4.692
33.46000 3.132
33.48000 5.472
33.50000 1.852
33.52000 2.140
33.54000 3.672
33.56000 1.338
33.58000 3.218
33.60000 5.416
33.62000 7.148
33.64000 6.931
33.66000 2.679
33.68000 1.509
33.70000 0.731
33.72000 2.634
33.74000 -1.010
33.76000 3.044
33.78000 5.717
33.80000 7.882
33.82000 3.171
33.84000 -0.463
33.86000 1.548
33.88000 1.825
33.90000 4.108
33.92000 4.712
33.94000 5.485
33.96000 6.247
33.98000 3.924
34.00000 4.286
34.02000 6.590
34.04000 -0.177
34.06000 -3.564
34.08000 -1.141
34.10000 1.902
34.12000 7.608
34.14000 5.411
34.16000 6.551
34.18000 6.118
34.20000 -1.294
34.22000 -0.651
34.24000 0.655
34.26000 0.123
34.28000 2.426
34.30000 4.475
34.32000 0.361
34.34000 2.240
34.36000 1.727
34.38000 4.358
34.40000 5.708
34.42000 4.406
34.44000 -2.064
34.46000 -1.119
34.48000 2.389
34.50000 3.482
34.52000 -0.554
34.54000 0.003
34.56000 3.458
34.58000 -0.005
34.60000 0.148
34.62000 -1.842
34.64000 1.842
34.66000 5.406
34.68000 -2.784
34.70000 -3.105
34.72000 -1.268
34.74000 -0.366
34.76000 1.765
34.78000 -1.945
34.80000 -1.165
34.82000 1.521
34.84000 0.744
34.86000 0.764
34.88000 4.394
34.90000 2.705
34.92000 0.268
34.94000 0.819
34.96000 1.169
34.98000 3.838
35.00000 4.990
35.02000 1.929
35.04000 2.602
35.06000 0.818
35.08000 3.163
35.10000 0.720
35.12000 -2.100
35.14000 -0.476
35.16000 2.618
35.18000 6.689
35.20000 2.281
35.22000 1.530
35.24000 2.511
35.26000 0.120
35.28000 5.099
35.30000 4.553
35.32000 -0.846
35.34000 -3.515
35.36000 -2.270
35.38000 1.517
35.40000 3.140
35.42000 4.797
35.44000 3.175
35.46000 3.827
35.48000 3.060
35.50000 -0.472
35.52000 5.838
35.54000 4.979
35.56000 -0.087
35.58000 3.244
35.60000 5.267
35.62000 6.894
35.64000 5.141
35.66000 -3.496
35.68000 -2.271
35.70000 -0.880
35.72000 2.151
35.74000 3.915
35.76000 0.831
35.78000 1.271
35.80000 4.223
35.82000 4.060
35.84000 7.161
35.86000 2.898
35.88000 4.166
35.90000 4.567
35.92000 4.050
35.94000 1.839
35.96000 -0.237
35.98000 -0.067
36.00000 0.032
36.02000 2.641
36.04000 2.380
36.06000 2.727
36.08000 -0.560
36.10000 2.840
36.12000 4.561
36.14000 -3.516
36.16000 -3.150
36.18000 5.220
36.20000 7.204
36.22000 6.058
36.24000 2.794
36.26000 -1.480
36.28000 1.378
36.30000 1.164
36.32000 3.431
36.34000 4.440
36.36000 -0.464
36.38000 -0.011
36.40000 2.575
36.42000 4.174
36.44000 2.297
36.46000 -0.339
36.48000 0.789
36.50000 1.197
36.52000 3.008
36.54000 7.957
36.56000 5.104
36.58000 4.358
36.60000 2.328
36.62000 2.343
36.64000 6.696
36.66000 7.728
36.68000 2.418
36.70000 2.149
36.72000 6.807
36.74000 7.584
36.76000 7.408
36.78000 2.191
36.80000 -1.091
36.82000 0.224
36.84000 4.751
36.86000 -2.124
36.88000 -3.527
36.90000 0.509
36.92000 -0.678
36.94000 2.364
36.96000 0.786
36.98000 2.711
37.00000 0.867
37.02000 -1.372
37.04000 -0.243
37.06000 1.576
37.08000 4.388
37.10000 1.884
37.12000 0.010
37.14000 0.303
37.16000 2.614
37.18000 0.485
37.20000 0.560
37.22000 5.450
37.24000 1.998
37.26000 3.532
37.28000 0.251
37.30000 2.357
37.32000 2.504
37.34000 5.394
37.36000 6.287
37.38000 4.212
37.40000 -0.688
37.42000 1.930
37.44000 4.704
37.46000 3.536
37.48000 2.034
37.50000 -3.550
37.52000 2.110
37.54000 6.783
37.56000 3.528
37.58000 -1.431
37.60000 1.346
37.62000 3.016
37.64000 4.721
37.66000 5.615
37.68000 4.983
37.70000 3.252
37.72000 3.543
37.74000 6.854
37.76000 6.276
37.78000 -1.555
37.80000 -2.058
37.82000 1.302
37.84000 3.956
37.86000 3.097
37.88000 0.157
37.90000 -0.445
37.92000 -0.963
37.94000 4.731
37.96000 5.469
37.98000 2.449
38.00000 1.806
38.02000 3.283
38.04000 8.200
38.06000 6.275
38.08000 3.850
38.10000 7.512
38.12000 9.707
38.14000 8.831
38.16000 7.925
38.18000 9.968
38.20000 13.006
38.22000 13.654
38.24000 13.291
38.26000 13.842
38.28000 13.040
38.30000 11.859
38.32000 8.263
38.34000 7.815
38.36000 7.917
38.38000 9.577
38.40000 8.745
38.42000 7.444
38.44000 7.242
38.46000 6.873
38.48000 10.852
38.50000 16.168
38.52000 15.527
38.54000 11.883
38.56000 10.881
38.58000 15.893
38.60000 17.792
38.62000 16.415
38.64000 17.436
38.66000 17.984
38.68000 20.485
38.70000 23.233
38.72000 20.154
38.74000 18.415
38.76000 19.518
38.78000 23.850
38.80000 21.041
38.82000 23.917
38.84000 23.196
38.86000 22.053
38.88000 21.883
38.90000 25.935
38.92000 28.269
38.94000 29.550
38.96000 26.612
38.98000 27.624
39.00000 26.807
39.02000 25.595
39.04000 28.656
39.06000 29.577
39.08000 29.636
39.10000 29.645
39.12000 31.842
39.14000 31.747
39.16000 32.734
39.18000 35.466
39.20000 36.906
39.22000 35.883
39.24000 35.052
39.26000 35.090
39.28000 33.529
39.30000 44.848
39.32000 46.128
39.34000 45.501
39.36000 48.760
39.38000 46.175
39.40000 43.794
39.42000 48.674
39.44000 51.808
39.46000 54.730
39.48000 51.932
39.50000 50.820
39.52000 60.154
39.54000 66.206
39.56000 67.134
39.58000 66.967
39.60000 62.677
39.62000 64.677
39.64000 75.919
39.66000 80.688
39.68000 83.484
39.70000 85.259
39.72000 84.384
39.74000 91.578
39.76000 97.824
39.78000 101.661
39.80000 112.006
39.82000 109.004
39.84000 110.647
39.86000 118.755
39.88000 129.782
39.90000 138.009
39.92000 148.757
39.94000 147.297
39.96000 148.819
39.98000 160.712
40.00000 166.900
40.02000 178.484
40.04000 185.627
40.06000 195.365
40.08000 202.876
40.10000 215.171
40.12000 228.267
40.14000 237.329
40.16000 251.346
40.18000 260.713
40.20000 268.610
40.22000 279.220
40.24000 297.806
40.26000 312.905
40.28000 338.998
40.30000 348.683
40.32000 356.756
40.34000 363.913
40.36000 377.422
40.38000 398.740
40.40000 415.271
40.42000 431.467
40.44000 453.534
40.46000 465.422
40.48000 489.150
40.50000 515.208
40.52000 528.033
40.54000 542.859
40.56000 560.502
40.58000 578.144
40.60000 589.993
40.62000 603.877
40.64000 617.137
40.66000 633.937
40.68000 635.408
40.70000 631.544
40.72000 648.135
40.74000 662.750
40.76000 667.381
40.78000 677.029
40.80000 686.022
40.82000 686.027
40.84000 675.842
40.86000 667.036
40.88000 658.979
40.90000 644.452
40.92000 643.870
40.94000 632.488
40.96000 620.436
40.98000 609.430
41.00000 597.354
41.02000 577.503
41.04000 558.185
41.06000 534.448
41.08000 520.757
41.10000 496.787
41.12000 485.888
41.14000 471.059
41.16000 455.543
41.18000 438.596
41.20000 420.966
41.22000 405.559
41.24000 389.893
41.26000 357.058
41.28000 338.806
41.30000 323.786
41.32000 311.484
41.34000 300.180
41.36000 290.190
41.38000 271.060
41.40000 250.445
41.42000 231.747
41.44000 234.095
41.46000 218.637
41.48000 204.368
41.50000 195.850
41.52000 185.891
41.54000 175.761
41.56000 163.279
41.58000 145.366
41.60000 137.071
41.62000 127.474
41.64000 122.592
41.66000 120.577
41.68000 113.345
41.70000 112.176
41.72000 108.537
41.74000 99.771
41.76000 90.057
41.78000 86.811
41.80000 85.356
41.82000 85.384
41.84000 78.406
41.86000 68.387
41.88000 69.368
41.90000 61.676
41.92000 60.647
41.94000 59.647
41.96000 58.400
41.98000 53.291
42.00000 50.550
42.02000 47.458
42.04000 49.178
42.06000 45.053
42.08000 39.296
42.10000 41.070
42.12000 43.533
42.14000 38.707
42.16000 34.133
42.18000 33.163
42.20000 33.827
42.22000 31.416
42.24000 29.857
42.26000 25.830
42.28000 24.692
42.30000 27.220
42.32000 26.887
42.34000 27.216
42.36000 21.844
42.38000 19.202
42.40000 21.901
42.42000 17.805
42.44000 20.995
42.46000 22.245
42.48000 13.504
42.50000 15.916
42.52000 11.958
42.54000 11.832
42.56000 13.337
42.58000 8.997
42.60000 11.435
42.62000 11.669
42.64000 11.510
42.66000 13.732
42.68000 12.056
42.70000 10.269
42.72000 5.530
42.74000 14.141
42.76000 12.552
42.78000 12.208
42.80000 7.196
42.82000 5.200
42.84000 2.997
42.86000 9.699
42.88000 10.223
42.90000 8.161
42.92000 3.057
42.94000 3.779
42.96000 6.040
42.98000 1.952
43.00000 1.330
43.02000 3.203
43.04000 5.691
43.06000 5.540
43.08000 3.483
43.10000 -2.091
43.12000 -2.964
43.14000 -1.281
43.16000 -3.495
43.18000 -3.412
43.20000 -1.982
43.22000 -2.317
43.24000 0.683
43.26000 0.384
43.28000 -0.931
43.30000 3.429
43.32000 0.176
43.34000 -1.386
43.36000 1.835
43.38000 3.660
43.40000 5.019
43.42000 -3.624
43.44000 -2.618
43.46000 -1.038
43.48000 -0.815
43.50000 -1.326
43.52000 0.390
43.54000 -0.091
43.56000 2.959
43.58000 3.444
43.60000 2.627
43.62000 2.802
43.64000 5.305
43.66000 1.094
43.68000 2.241
43.70000 -3.490
43.72000 -3.270
43.74000 -3.590
43.76000 2.290
43.78000 2.394
43.80000 6.631
43.82000 3.172
43.84000 1.842
43.86000 1.265
43.88000 4.257
43.90000 2.215
43.92000 0.072
43.94000 -0.657
43.96000 2.497
43.98000 4.366
44.00000 1.951
44.02000 -1.668
44.04000 1.568
44.06000 4.217
44.08000 1.296
44.10000 -0.389
44.12000 -1.358
44.14000 2.772
44.16000 4.649
44.18000 3.561
44.20000 4.972
44.22000 -1.210
44.24000 -0.330
44.26000 -3.525
44.28000 -1.645
44.30000 4.131
44.32000 5.448
44.34000 3.490
44.36000 5.720
44.38000 7.035
44.40000 3.417
44.42000 1.607
44.44000 5.396
44.46000 6.417
44.48000 1.909
44.50000 1.664
44.52000 0.775
44.54000 3.127
44.56000 0.518
44.58000 4.282
44.60000 5.224
44.62000 2.810
44.64000 -3.515
44.66000 4.174
44.68000 5.063
44.70000 -1.228
44.72000 -1.828
44.74000 3.951
44.76000 5.197
44.78000 4.902
44.80000 4.391
44.82000 2.901
44.84000 2.306
44.86000 -0.186
44.88000 3.360
44.90000 2.261
44.92000 1.144
44.94000 0.879
44.96000 0.763
44.98000 6.443
45.00000 5.588
45.02000 0.128
45.04000 -0.840
45.06000 -0.355
45.08000 1.996
45.10000 1.892
45.12000 0.474
45.14000 1.826
45.16000 2.768
45.18000 5.838
45.20000 5.204
45.22000 4.640
45.24000 -1.135
45.26000 2.423
45.28000 1.507
45.30000 6.874
45.32000 5.367
45.34000 2.543
45.36000 3.482
45.38000 4.203
45.40000 8.698
45.42000 5.416
45.44000 4.147
45.46000 -1.131
45.48000 1.410
45.50000 3.765
45.52000 9.149
45.54000 8.061
45.56000 7.137
45.58000 12.512
45.60000 8.407
45.62000 10.089
45.64000 11.326
45.66000 7.014
45.68000 9.582
45.70000 9.709
45.72000 4.415
45.74000 6.259
45.76000 10.390
45.78000 17.944
45.80000 14.704
45.82000 17.960
45.84000 14.066
45.86000 14.704
45.88000 8.243
45.90000 9.335
45.92000 11.256
45.94000 13.348
45.96000 12.375
45.98000 8.747
46.00000 6.115
46.02000 10.196
46.04000 13.914
46.06000 13.523
46.08000 16.071
46.10000 19.538
46.12000 18.754
46.14000 16.508
46.16000 16.722
46.18000 21.812
46.20000 17.161
46.22000 20.251
46.24000 20.277
46.26000 18.914
46.28000 23.674
46.30000 19.877
46.32000 15.142
46.34000 19.789
46.36000 24.333
46.38000 27.508
46.40000 33.816
46.42000 29.088
46.44000 27.774
46.46000 35.388
46.48000 32.594
46.50000 32.831
46.52000 37.094
46.54000 30.233
46.56000 30.711
46.58000 33.796
46.60000 36.409
46.62000 40.200
46.64000 40.416
46.66000 36.090
46.68000 37.181
46.70000 46.051
46.72000 47.001
46.74000 44.841
46.76000 50.263
46.78000 50.028
46.80000 47.542
46.82000 45.322
46.84000 38.973
46.86000 43.836
46.88000 50.475
46.90000 50.410
46.92000 54.892
46.94000 48.970
46.96000 58.808
46.98000 59.739
47.00000 56.216
47.02000 55.657
47.04000 59.818
47.06000 61.792
47.08000 66.400
47.10000 67.407
47.12000 64.832
47.14000 66.021
47.16000 70.383
47.18000 67.471
47.20000 74.219
47.22000 74.711
47.24000 76.588
47.26000 73.816
47.28000 70.930
47.30000 66.616
47.32000 63.768
47.34000 69.059
47.36000 76.919
47.38000 68.522
47.40000 67.980
47.42000 65.731
47.44000 66.605
47.46000 70.127
47.48000 63.321
47.50000 63.738
47.52000 62.142
47.54000 70.096
47.56000 70.173
47.58000 61.245
47.60000 63.491
47.62000 66.488
47.64000 62.988
47.66000 59.091
47.68000 63.738
47.70000 56.955
47.72000 52.315
47.74000 56.388
47.76000 53.707
47.78000 53.476
47.80000 56.589
47.82000 49.052
47.84000 40.535
47.86000 46.096
47.88000 45.656
47.90000 48.555
47.92000 41.856
47.94000 37.611
47.96000 37.807
47.98000 36.086
48.00000 39.672
48.02000 31.600
48.04000 33.509
48.06000 32.792
48.08000 34.176
48.10000 31.810
48.12000 27.814
48.14000 30.889
48.16000 31.580
48.18000 25.425
48.20000 22.114
48.22000 23.963
48.24000 18.876
48.26000 18.518
48.28000 17.647
48.30000 17.073
48.32000 18.227
48.34000 11.148
48.36000 13.953
48.38000 13.525
48.40000 10.727
48.42000 17.804
48.44000 21.273
48.46000 12.750
48.48000 13.204
48.50000 9.557
48.52000 5.603
48.54000 10.720
48.56000 14.029
48.58000 3.806
48.60000 5.432
48.62000 5.862
48.64000 2.565
48.66000 10.741
48.68000 7.168
48.70000 5.205
48.72000 5.394
48.74000 7.518
48.76000 7.069
48.78000 4.792
48.80000 5.075
48.82000 6.274
48.84000 3.970
48.86000 5.303
48.88000 5.544
48.90000 4.867
48.92000 3.858
48.94000 7.109
48.96000 5.791
48.98000 -0.789
49.00000 -2.962
49.02000 -1.363
49.04000 3.259
49.06000 3.543
49.08000 3.571
49.10000 0.230
49.12000 -1.039
49.14000 0.783
49.16000 -1.154
49.18000 3.123
49.20000 1.902
49.22000 4.193
49.24000 3.216
49.26000 2.506
49.28000 9.155
49.30000 5.574
49.32000 4.119
49.34000 4.807
49.36000 7.223
49.38000 3.055
49.40000 1.155
49.42000 2.976
49.44000 1.923
49.46000 3.379
49.48000 4.553
49.50000 -0.258
49.52000 7.502
49.54000 10.255
49.56000 3.338
49.58000 5.120
49.60000 2.232
49.62000 -1.662
49.64000 -1.967
49.66000 -3.122
49.68000 2.028
49.70000 2.588
49.72000 1.694
49.74000 0.636
49.76000 2.353
49.78000 4.418
49.80000 12.063
49.82000 4.179
49.84000 4.586
49.86000 2.632
49.88000 4.943
49.90000 -1.447
49.92000 -0.058
49.94000 5.345
49.96000 3.106
49.98000 0.918
50.00000 8.601
50.02000 7.079
50.04000 -3.056
50.06000 -1.595
50.08000 4.175
50.10000 10.809
50.12000 15.134
50.14000 13.509
50.16000 5.352
50.18000 9.662
50.20000 8.690
50.22000 6.184
50.24000 2.352
50.26000 0.508
50.28000 5.462
50.30000 3.742
50.32000 1.446
50.34000 3.357
50.36000 6.112
50.38000 0.865
50.40000 2.897
50.42000 2.958
50.44000 2.774
50.46000 1.633
50.48000 3.633
50.50000 3.059
50.52000 2.177
50.54000 4.075
50.56000 7.407
50.58000 7.221
50.60000 2.072
50.62000 -1.524
50.64000 0.687
50.66000 0.820
50.68000 -3.041
50.70000 2.733
50.72000 4.630
50.74000 7.671
50.76000 9.668
50.78000 7.099
50.80000 4.431
50.82000 3.679
50.84000 0.279
50.86000 6.373
50.88000 9.154
50.90000 3.369
50.92000 1.409
50.94000 0.117
50.96000 2.612
50.98000 4.392
51.00000 1.995
51.02000 1.448
51.04000 0.844
51.06000 -2.483
51.08000 0.300
51.10000 6.814
51.12000 6.301
51.14000 1.905
51.16000 -0.429
51.18000 -1.451
51.20000 1.773
51.22000 7.348
51.24000 4.632
51.26000 0.384
51.28000 4.126
51.30000 5.727
51.32000 2.130
51.34000 -2.455
51.36000 -0.068
51.38000 4.982
51.40000 -1.825
51.42000 1.365
51.44000 7.885
51.46000 4.673
51.48000 2.703
51.50000 0.822
51.52000 2.696
51.54000 7.019
51.56000 2.358
51.58000 4.894
51.60000 7.972
51.62000 4.115
51.64000 5.998
51.66000 -0.773
51.68000 2.401
51.70000 9.808
51.72000 7.811
51.74000 1.848
51.76000 3.008
51.78000 4.767
51.80000 4.809
51.82000 6.733
51.84000 8.466
51.86000 1.510
51.88000 3.140
51.90000 2.913
51.92000 2.353
51.94000 0.387
51.96000 -2.963
51.98000 -2.440
52.00000 -0.089
52.02000 -0.438
52.04000 0.874
52.06000 2.730
52.08000 2.419
52.10000 2.863
52.12000 0.443
52.14000 -0.228
52.16000 5.792
52.18000 6.902
52.20000 8.895
52.22000 3.064
52.24000 -2.064
52.26000 1.505
52.28000 -2.694
52.30000 3.849
52.32000 5.834
52.34000 4.182
52.36000 0.722
52.38000 5.197
52.40000 8.077
52.42000 3.746
52.44000 3.050
52.46000 8.735
52.48000 3.570
52.50000 1.936
52.52000 0.491
52.54000 0.243
52.56000 3.188
52.58000 3.844
52.60000 -0.588
52.62000 1.528
52.64000 1.701
52.66000 6.565
52.68000 4.721
52.70000 5.103
52.72000 4.876
52.74000 4.168
52.76000 4.293
52.78000 2.542
52.80000 1.535
52.82000 3.158
52.84000 5.451
52.86000 2.930
52.88000 -0.200
52.90000 0.574
52.92000 2.942
52.94000 2.312
52.96000 2.949
52.98000 4.654
53.00000 1.459
53.02000 8.191
53.04000 7.848
53.06000 7.007
53.08000 10.626
53.10000 1.369
53.12000 0.480
53.14000 2.916
53.16000 5.694
53.18000 5.116
53.20000 0.898
53.22000 -0.006
53.24000 5.302
53.26000 4.635
53.28000 4.577
53.30000 5.720
53.32000 3.303
53.34000 -0.314
53.36000 6.631
53.38000 7.091
53.40000 1.194
53.42000 1.558
53.44000 4.022
53.46000 2.188
53.48000 3.835
53.50000 5.956
53.52000 6.362
53.54000 5.162
53.56000 6.670
53.58000 1.181
53.60000 -2.398
53.62000 -1.675
53.64000 1.579
53.66000 1.203
53.68000 0.307
53.70000 -2.501
53.72000 4.658
53.74000 10.964
53.76000 5.281
53.78000 -1.175
53.80000 -0.006
53.82000 3.988
53.84000 6.270
53.86000 1.767
53.88000 5.590
53.90000 5.536
53.92000 0.909
53.94000 4.050
53.96000 9.691
53.98000 4.244
54.00000 -1.018
54.02000 -2.895
54.04000 -0.873
54.06000 4.774
54.08000 6.628
54.10000 2.287
54.12000 3.592
54.14000 9.037
54.16000 5.210
54.18000 3.744
54.20000 3.587
54.22000 5.481
54.24000 12.159
54.26000 10.853
54.28000 6.890
54.30000 7.826
54.32000 4.582
54.34000 -1.230
54.36000 1.074
54.38000 5.752
54.40000 2.653
54.42000 1.543
54.44000 4.164
54.46000 3.270
54.48000 2.390
54.50000 2.004
54.52000 -1.386
54.54000 2.015
54.56000 5.289
54.58000 4.477
54.60000 0.367
54.62000 -1.423
54.64000 0.732
54.66000 3.908
54.68000 0.791
54.70000 -1.219
54.72000 3.573
54.74000 1.783
54.76000 1.818
54.78000 -0.518
54.80000 0.116
54.82000 0.896
54.84000 3.526
54.86000 4.802
54.88000 9.831
54.90000 12.637
54.92000 2.307
54.94000 -2.871
54.96000 4.736
54.98000 7.961
55.00000 3.709
55.02000 -1.888
55.04000 2.516
55.06000 12.675
55.08000 7.107
55.10000 4.681
55.12000 3.021
55.14000 1.207
55.16000 3.171
55.18000 0.915
55.20000 4.303
55.22000 -0.698
55.24000 2.933
55.26000 0.871
55.28000 5.735
55.30000 6.350
55.32000 2.013
55.34000 6.060
55.36000 6.768
55.38000 9.303
55.40000 7.945
55.42000 1.870
55.44000 0.721
55.46000 0.004
55.48000 1.456
55.50000 3.122
55.52000 4.511
55.54000 5.067
55.56000 4.347
55.58000 10.342
55.60000 6.728
55.62000 4.000
55.64000 5.548
55.66000 4.341
55.68000 3.120
55.70000 4.133
55.72000 4.196
55.74000 2.056
55.76000 5.646
55.78000 5.561
55.80000 7.255
55.82000 2.092
55.84000 3.211
55.86000 2.700
55.88000 6.607
55.90000 7.205
55.92000 8.568
55.94000 1.881
55.96000 2.045
55.98000 1.097
56.00000 2.220
56.02000 -0.928
56.04000 0.567
56.06000 -0.424
56.08000 0.168
56.10000 -2.822
56.12000 -1.552
56.14000 6.152
56.16000 10.374
56.18000 6.818
56.20000 -0.648
56.22000 2.487
56.24000 6.853
56.26000 6.030
56.28000 4.733
56.30000 5.369
56.32000 3.982
56.34000 2.878
56.36000 0.967
56.38000 4.947
56.40000 5.617
56.42000 5.471
56.44000 6.851
56.46000 8.643
56.48000 6.759
56.50000 6.249
56.52000 7.220
56.54000 3.953
56.56000 9.035
56.58000 5.831
56.60000 5.151
56.62000 2.253
56.64000 3.452
56.66000 3.307
56.68000 0.552
56.70000 -0.305
56.72000 3.505
56.74000 4.256
56.76000 1.839
56.78000 -0.086
56.80000 0.717
56.82000 4.808
56.84000 5.064
56.86000 4.139
56.88000 4.526
56.90000 4.516
56.92000 9.029
56.94000 6.848
56.96000 7.184
56.98000 5.634
57.00000 4.438
57.02000 5.231
57.04000 5.162
57.06000 1.165
57.08000 2.158
57.10000 5.531
57.12000 6.738
57.14000 3.321
57.16000 5.553
57.18000 5.716
57.20000 0.374
57.22000 -0.482
57.24000 3.118
57.26000 7.034
57.28000 2.769
57.30000 3.430
57.32000 5.435
57.34000 9.748
57.36000 7.522
57.38000 5.001
57.40000 2.752
57.42000 1.725
57.44000 4.648
57.46000 1.994
57.48000 -2.434
57.50000 -0.764
57.52000 4.406
57.54000 -1.618
57.56000 1.918
57.58000 1.910
57.60000 4.701
57.62000 9.009
57.64000 8.277
57.66000 9.021
57.68000 8.172
57.70000 3.779
57.72000 -2.763
57.74000 1.857
57.76000 6.066
57.78000 5.778
57.80000 3.386
57.82000 3.638
57.84000 3.656
57.86000 4.697
57.88000 3.695
57.90000 0.963
57.92000 2.315
57.94000 7.592
57.96000 3.947
57.98000 7.013
58.00000 -2.770
58.02000 1.531
58.04000 1.738
58.06000 2.700
58.08000 3.950
58.10000 -0.129
58.12000 1.992
58.14000 6.628
58.16000 7.803
58.18000 6.632
58.20000 3.844
58.22000 2.202
58.24000 4.576
58.26000 2.462
58.28000 1.742
58.30000 2.010
58.32000 4.350
58.34000 9.715
58.36000 6.077
58.38000 1.536
58.40000 1.396
58.42000 -0.582
58.44000 3.901
58.46000 7.130
58.48000 6.725
58.50000 6.744
58.52000 7.621
58.54000 6.235
58.56000 6.591
58.58000 3.340
58.60000 6.189
58.62000 -0.572
58.64000 3.367
58.66000 2.394
58.68000 3.991
58.70000 7.941
58.72000 2.047
58.74000 2.057
58.76000 1.722
58.78000 7.284
58.80000 5.214
58.82000 2.646
58.84000 -2.763
58.86000 1.984
58.88000 12.021
58.90000 12.540
58.92000 9.782
58.94000 6.536
58.96000 2.089
58.98000 1.115
59.00000 1.199
59.02000 0.421
59.04000 2.115
59.06000 1.588
59.08000 1.949
59.10000 2.227
59.12000 6.013
59.14000 6.540
59.16000 2.034
59.18000 -1.778
59.20000 2.317
59.22000 5.033
59.24000 9.683
59.26000 6.189
59.28000 -2.168
59.30000 -2.350
59.32000 2.343
59.34000 5.429
59.36000 -2.739
59.38000 -2.174
59.40000 2.221
59.42000 -1.644
59.44000 2.001
59.46000 4.200
59.48000 -0.773
59.50000 2.190
59.52000 5.970
59.54000 5.875
59.56000 9.884
59.58000 8.812
59.60000 1.687
59.62000 2.836
59.64000 0.832
59.66000 3.652
59.68000 3.625
59.70000 4.383
59.72000 4.309
59.74000 3.789
59.76000 2.348
59.78000 7.334
59.80000 8.660
59.82000 10.444
59.84000 8.617
59.86000 7.554
59.88000 3.050
59.90000 4.576
59.92000 5.635
59.94000 5.186
59.96000 8.438
59.98000 5.493
60.00000 5.240
60.02000 -0.446
60.04000 1.045
60.06000 5.111
60.08000 1.984
60.10000 1.196
60.12000 6.565
60.14000 5.284
60.16000 1.906
60.18000 5.222
60.20000 5.869
60.22000 4.192
60.24000 7.450
60.26000 4.220
60.28000 6.667
60.30000 10.383
60.32000 7.967
60.34000 3.195
60.36000 -0.864
60.38000 -0.067
60.40000 -2.671
60.42000 2.393
60.44000 2.972
60.46000 1.875
60.48000 0.952
60.50000 0.732
60.52000 3.889
60.54000 3.598
60.56000 2.088
60.58000 3.493
60.60000 6.481
60.62000 6.024
60.64000 5.765
60.66000 5.634
60.68000 -0.380
60.70000 9.081
60.72000 8.385
60.74000 7.981
60.76000 6.711
60.78000 3.179
60.80000 1.992
60.82000 3.273
60.84000 4.546
60.86000 4.376
60.88000 8.266
60.90000 2.995
60.92000 3.613
60.94000 7.182
60.96000 9.838
60.98000 7.973
61.00000 5.725
61.02000 4.474
61.04000 8.553
61.06000 7.127
61.08000 5.059
61.10000 3.707
61.12000 4.963
61.14000 9.007
61.16000 5.092
61.18000 -2.640
61.20000 2.014
61.22000 4.702
61.24000 5.529
61.26000 3.756
61.28000 6.970
61.30000 3.280
61.32000 -0.028
61.34000 3.042
61.36000 0.875
61.38000 3.847
61.40000 11.523
61.42000 7.568
61.44000 5.039
61.46000 8.173
61.48000 4.628
61.50000 -0.707
61.52000 3.991
61.54000 5.460
61.56000 5.207
61.58000 5.287
61.60000 3.207
61.62000 3.603
61.64000 6.857
61.66000 3.334
61.68000 5.459
61.70000 6.570
61.72000 5.395
61.74000 6.830
61.76000 2.598
61.78000 -2.599
61.80000 0.833
61.82000 2.941
61.84000 6.006
61.86000 3.974
61.88000 5.175
61.90000 3.606
61.92000 5.920
61.94000 8.256
61.96000 6.662
61.98000 6.973
62.00000 5.761
62.02000 5.068
62.04000 4.929
62.06000 1.691
62.08000 2.164
62.10000 3.364
62.12000 6.710
62.14000 2.512
62.16000 3.004
62.18000 3.119
62.20000 4.599
62.22000 4.912
62.24000 2.430
62.26000 3.538
62.28000 5.898
62.30000 7.859
62.32000 7.077
62.34000 3.555
62.36000 2.455
62.38000 0.951
62.40000 0.755
62.42000 4.055
62.44000 5.091
62.46000 6.188
62.48000 4.145
62.50000 -2.537
62.52000 -2.622
62.54000 2.758
62.56000 2.973
62.58000 2.111
62.60000 -0.898
62.62000 2.961
62.64000 3.429
62.66000 5.399
62.68000 4.059
62.70000 0.709
62.72000 0.910
62.74000 -0.658
62.76000 5.926
62.78000 4.029
62.80000 -1.769
62.82000 0.836
62.84000 3.614
62.86000 6.341
62.88000 1.734
62.90000 5.058
62.92000 4.613
62.94000 0.745
62.96000 1.310
62.98000 1.314
63.00000 -2.245
63.02000 4.801
63.04000 7.600
63.06000 5.145
63.08000 3.118
63.10000 2.664
63.12000 2.693
63.14000 0.216
63.16000 2.289
63.18000 1.228
63.20000 2.823
63.22000 2.301
63.24000 3.521
63.26000 0.841
63.28000 2.740
63.30000 -0.116
63.32000 -1.929
63.34000 0.634
63.36000 0.054
63.38000 -1.268
63.40000 -0.113
63.42000 0.817
63.44000 3.027
63.46000 1.286
63.48000 -0.367
63.50000 3.853
63.52000 3.981
63.54000 3.202
63.56000 2.575
63.58000 2.123
63.60000 -0.909
63.62000 0.068
63.64000 1.655
63.66000 3.114
63.68000 1.565
63.70000 2.199
63.72000 1.836
63.74000 2.675
63.76000 -0.896
63.78000 3.923
63.80000 0.520
63.82000 1.832
63.84000 3.945
63.86000 1.930
63.88000 2.299
63.90000 8.527
63.92000 7.329
63.94000 1.041
63.96000 3.566
63.98000 3.728
64.00000 4.365
64.02000 5.013
64.04000 8.456
64.06000 6.398
64.08000 4.763
64.10000 5.602
64.12000 2.700
64.14000 2.103
64.16000 2.505
64.18000 4.238
64.20000 6.472
64.22000 9.548
64.24000 6.062
64.26000 4.115
64.28000 1.907
64.30000 6.114
64.32000 6.035
64.34000 3.271
64.36000 3.176
64.38000 2.893
64.40000 2.370
64.42000 1.877
64.44000 1.778
64.46000 2.751
64.48000 1.283
64.50000 -2.561
64.52000 -1.242
64.54000 5.300
64.56000 6.735
64.58000 8.586
64.60000 6.425
64.62000 0.868
64.64000 1.944
64.66000 2.526
64.68000 1.345
64.70000 4.031
64.72000 5.644
64.74000 5.119
64.76000 5.161
64.78000 7.299
64.80000 6.436
64.82000 5.056
64.84000 -0.986
64.86000 4.477
64.88000 4.668
64.90000 1.505
64.92000 3.448
64.94000 5.920
64.96000 2.033
64.98000 4.295
65.00000 1.984
65.02000 1.957
65.04000 -0.948
65.06000 3.408
65.08000 3.888
65.10000 3.924
65.12000 6.126
65.14000 2.869
65.16000 2.001
65.18000 2.783
65.20000 1.759
65.22000 1.116
65.24000 3.142
65.26000 3.821
65.28000 4.189
65.30000 6.590
65.32000 3.299
65.34000 1.863
65.36000 6.197
65.38000 1.956
65.40000 0.699
65.42000 3.271
65.44000 3.382
65.46000 2.844
65.48000 2.345
65.50000 2.346
65.52000 1.092
65.54000 0.420
65.56000 1.958
65.58000 2.755
65.60000 1.444
65.62000 0.998
65.64000 3.245
65.66000 1.407
65.68000 -0.457
65.70000 2.536
65.72000 0.528
65.74000 -0.978
65.76000 1.997
65.78000 2.230
65.80000 -1.220
65.82000 -2.578
65.84000 2.104
65.86000 2.350
65.88000 3.266
65.90000 2.326
65.92000 2.875
65.94000 3.856
65.96000 2.681
65.98000 1.832
66.00000 -0.293
66.02000 0.357
66.04000 0.931
66.06000 0.995
66.08000 1.866
66.10000 -0.233
66.12000 2.383
66.14000 2.742
66.16000 -1.139
66.18000 -0.893
66.20000 1.503
66.22000 2.723
66.24000 2.975
66.26000 5.219
66.28000 3.764
66.30000 4.872
66.32000 3.145
66.34000 2.884
66.36000 3.329
66.38000 3.533
66.40000 3.958
66.42000 -0.796
66.44000 1.706
66.46000 5.198
66.48000 6.451
66.50000 1.988
66.52000 -2.242
66.54000 3.279
66.56000 4.723
66.58000 1.922
66.60000 -2.550
66.62000 1.415
66.64000 2.998
66.66000 6.582
66.68000 4.259
66.70000 7.752
66.72000 4.735
66.74000 1.488
66.76000 0.151
66.78000 -0.011
66.80000 1.369
66.82000 3.016
66.84000 2.089
66.86000 4.326
66.88000 2.650
66.90000 -0.650
66.92000 2.668
66.94000 5.929
66.96000 5.060
66.98000 2.862
67.00000 0.103
67.02000 1.466
67.04000 -0.713
67.06000 -2.561
67.08000 1.010
67.10000 3.149
67.12000 4.248
67.14000 3.666
67.16000 1.444
67.18000 -1.358
67.20000 0.140
67.22000 -0.287
67.24000 -1.684
67.26000 0.157
67.28000 1.126
67.30000 3.525
67.32000 4.137
67.34000 1.132
67.36000 -1.323
67.38000 3.382
67.40000 3.906
67.42000 -0.732
67.44000 -0.411
67.46000 3.451
67.48000 -1.078
67.50000 0.041
67.52000 1.056
67.54000 1.947
67.56000 4.537
67.58000 1.857
67.60000 1.726
67.62000 2.289
67.64000 3.190
67.66000 2.630
67.68000 2.245
67.70000 2.817
67.72000 1.219
67.74000 -0.278
67.76000 -1.557
67.78000 2.686
67.80000 -0.511
67.82000 0.282
67.84000 1.846
67.86000 1.152
67.88000 -0.438
67.90000 -0.316
67.92000 2.303
67.94000 3.923
67.96000 2.760
67.98000 3.907
68.00000 4.289
68.02000 -0.660
68.04000 2.111
68.06000 2.616
68.08000 4.448
68.10000 5.154
68.12000 5.284
68.14000 5.735
68.16000 6.503
68.18000 5.674
68.20000 0.704
68.22000 3.087
68.24000 3.976
68.26000 3.766
68.28000 3.089
68.30000 7.983
68.32000 7.435
68.34000 8.074
68.36000 5.800
68.38000 3.315
68.40000 4.452
68.42000 6.866
68.44000 4.898
68.46000 5.141
68.48000 7.552
68.50000 10.170
68.52000 8.899
68.54000 9.769
68.56000 10.044
68.58000 8.293
68.60000 11.853
68.62000 14.011
68.64000 14.761
68.66000 14.998
68.68000 15.415
68.70000 16.133
68.72000 15.723
68.74000 17.173
68.76000 18.633
68.78000 17.769
68.80000 15.410
68.82000 19.803
68.84000 21.672
68.86000 19.052
68.88000 17.483
68.90000 17.379
68.92000 22.788
68.94000 21.216
68.96000 23.854
68.98000 21.630
69.00000 19.741
69.02000 19.386
69.04000 23.173
69.06000 21.816
69.08000 26.539
69.10000 29.740
69.12000 26.321
69.14000 30.196
69.16000 27.512
69.18000 26.005
69.20000 26.510
69.22000 29.896
69.24000 25.936
69.26000 28.904
69.28000 26.414
69.30000 27.597
69.32000 26.051
69.34000 30.361
69.36000 22.787
69.38000 27.547
69.40000 26.004
69.42000 28.035
69.44000 29.164
69.46000 28.888
69.48000 26.085
69.50000 28.432
69.52000 23.664
69.54000 21.430
69.56000 20.713
69.58000 20.642
69.60000 23.392
69.62000 21.138
69.64000 21.734
69.66000 22.132
69.68000 26.770
69.70000 24.671
69.72000 18.101
69.74000 14.943
69.76000 19.083
69.78000 21.849
69.80000 21.964
69.82000 15.648
69.84000 14.111
69.86000 15.632
69.88000 13.292
69.90000 12.258
69.92000 11.129
69.94000 10.036
69.96000 15.848
69.98000 14.026
70.00000 15.261
70.02000 17.120
70.04000 13.765
70.06000 13.070
70.08000 9.252
70.10000 10.995
70.12000 10.000
70.14000 7.684
70.16000 6.347
70.18000 3.764
70.20000 2.777
70.22000 6.163
70.24000 7.276
70.26000 6.345
70.28000 8.324
70.30000 7.065
70.32000 7.423
70.34000 5.249
70.36000 2.082
70.38000 1.417
70.40000 2.821
70.42000 4.884
70.44000 3.594
70.46000 2.948
70.48000 1.754
70.50000 0.792
70.52000 0.911
70.54000 1.939
70.56000 4.470
70.58000 6.318
70.60000 4.993
70.62000 4.260
70.64000 3.127
70.66000 2.705
70.68000 2.754
70.70000 6.137
70.72000 4.274
70.74000 4.195
70.76000 0.535
70.78000 0.926
70.80000 4.143
70.82000 3.582
70.84000 4.409
70.86000 2.660
70.88000 0.857
70.90000 0.660
70.92000 2.118
70.94000 3.079
70.96000 2.987
70.98000 1.259
71.00000 4.512
71.02000 3.473
71.04000 4.810
71.06000 4.799
71.08000 5.388
71.10000 6.066
71.12000 6.677
71.14000 8.325
71.16000 0.164
71.18000 1.091
71.20000 6.029
71.22000 7.308
71.24000 3.115
71.26000 8.000
71.28000 10.658
71.30000 -0.331
71.32000 -2.325
71.34000 3.399
71.36000 5.462
71.38000 5.684
71.40000 6.570
71.42000 5.605
71.44000 5.879
71.46000 8.021
71.48000 3.194
71.50000 2.335
71.52000 4.791
71.54000 5.002
71.56000 3.807
71.58000 1.068
71.60000 -0.020
71.62000 1.986
71.64000 4.122
71.66000 4.469
71.68000 3.634
71.70000 2.450
71.72000 2.020
71.74000 3.195
71.76000 5.890
71.78000 6.146
71.80000 2.105
71.82000 4.460
71.84000 0.492
71.86000 -0.538
71.88000 0.099
71.90000 2.516
71.92000 0.762
71.94000 -2.316
71.96000 0.477
71.98000 3.894
72.00000 4.362
72.02000 1.014
72.04000 3.226
72.06000 -0.836
72.08000 3.166
72.10000 5.517
72.12000 4.622
72.14000 4.670
72.16000 5.656
72.18000 3.138
72.20000 2.783
72.22000 1.332
72.24000 1.716
72.26000 1.682
72.28000 2.641
72.30000 0.183
72.32000 3.646
72.34000 7.563
72.36000 2.486
72.38000 -0.687
72.40000 -0.325
72.42000 1.949
72.44000 2.393
72.46000 6.667
72.48000 7.086
72.50000 6.218
72.52000 2.675
72.54000 2.234
72.56000 3.495
72.58000 2.588
72.60000 -2.283
72.62000 -0.906
72.64000 -1.951
72.66000 0.423
72.68000 2.355
72.70000 6.632
72.72000 7.187
72.74000 4.485
72.76000 1.843
72.78000 3.058
72.80000 5.952
72.82000 2.592
72.84000 1.577
72.86000 -1.843
72.88000 0.006
72.90000 3.527
72.92000 4.608
72.94000 6.119
72.96000 5.440
72.98000 3.255
73.00000 2.523
73.02000 1.099
73.04000 2.567
73.06000 2.574
73.08000 7.433
73.10000 5.795
73.12000 3.213
73.14000 4.032
73.16000 4.227
73.18000 4.169
73.20000 3.406
73.22000 0.720
73.24000 2.697
73.26000 2.974
73.28000 4.664
73.30000 5.053
73.32000 4.278
73.34000 1.556
73.36000 4.811
73.38000 1.860
73.40000 1.814
73.42000 0.802
73.44000 2.738
73.46000 3.263
73.48000 -0.199
73.50000 -2.237
73.52000 -0.818
73.54000 -0.540
73.56000 -0.295
73.58000 0.231
73.60000 1.530
73.62000 0.721
73.64000 -1.943
73.66000 1.345
73.68000 4.857
73.70000 4.103
73.72000 2.698
73.74000 3.188
73.76000 -0.467
73.78000 1.895
73.80000 2.036
73.82000 4.982
73.84000 0.993
73.86000 3.371
73.88000 2.489
73.90000 1.459
73.92000 3.599
73.94000 6.530
73.96000 9.987
73.98000 8.097
74.00000 3.669
74.02000 3.666
74.04000 2.111
74.06000 0.796
74.08000 -0.069
74.10000 2.673
74.12000 2.979
74.14000 2.387
74.16000 4.365
74.18000 5.146
74.20000 6.216
74.22000 4.044
74.24000 6.891
74.26000 1.214
74.28000 -2.236
74.30000 -0.187
74.32000 4.811
74.34000 7.024
74.36000 4.587
74.38000 2.731
74.40000 5.755
74.42000 2.678
74.44000 -0.204
74.46000 2.551
74.48000 1.911
74.50000 1.595
74.52000 3.369
74.54000 4.585
74.56000 4.992
74.58000 3.352
74.60000 1.641
74.62000 2.488
74.64000 4.602
74.66000 3.184
74.68000 1.247
74.70000 2.000
74.72000 4.124
74.74000 1.482
74.76000 0.279
74.78000 3.271
74.80000 -0.159
74.82000 -1.175
74.84000 2.209
74.86000 1.396
74.88000 0.631
74.90000 1.980
74.92000 2.800
74.94000 4.503
74.96000 2.171
74.98000 2.621
75.00000 3.506
75.02000 0.798
75.04000 2.041
75.06000 1.470
75.08000 1.056
75.10000 -2.224
75.12000 -0.595
75.14000 2.316
75.16000 3.567
75.18000 2.303
75.20000 -0.645
75.22000 4.058
75.24000 3.786
75.26000 -0.714
75.28000 -1.488
75.30000 2.392
75.32000 7.503
75.34000 7.512
75.36000 5.385
75.38000 4.433
75.40000 6.764
75.42000 3.170
75.44000 2.808
75.46000 1.449
75.48000 2.305
75.50000 0.630
75.52000 0.700
75.54000 2.365
75.56000 7.202
75.58000 5.237
75.60000 0.401
75.62000 4.169
75.64000 4.250
75.66000 3.725
75.68000 2.566
75.70000 1.712
75.72000 1.539
75.74000 1.095
75.76000 0.673
75.78000 4.552
75.80000 3.618
75.82000 4.159
75.84000 2.729
75.86000 -0.253
75.88000 -2.261
75.90000 1.317
75.92000 0.842
75.94000 3.635
75.96000 1.326
75.98000 3.675
76.00000 2.971
76.02000 4.038
76.04000 2.044
76.06000 2.954
76.08000 4.960
76.10000 0.094
76.12000 0.017
76.14000 1.232
76.16000 4.457
76.18000 7.199
76.20000 4.220
76.22000 0.924
76.24000 4.848
76.26000 6.880
76.28000 6.933
76.30000 4.522
76.32000 2.769
76.34000 2.818
76.36000 2.559
76.38000 2.221
76.40000 4.594
76.42000 2.882
76.44000 -0.461
76.46000 4.941
76.48000 3.770
76.50000 0.312
76.52000 2.120
76.54000 -0.134
76.56000 -1.647
76.58000 -0.193
76.60000 1.598
76.62000 1.830
76.64000 3.702
76.66000 3.324
76.68000 4.461
76.70000 -1.075
76.72000 0.732
76.74000 0.332
76.76000 1.024
76.78000 3.279
76.80000 8.761
76.82000 6.307
76.84000 0.552
76.86000 -2.245
76.88000 5.510
76.90000 4.456
76.92000 5.733
76.94000 2.532
76.96000 4.030
76.98000 0.565
77.00000 -2.245
77.02000 -0.280
77.04000 3.671
77.06000 4.457
77.08000 1.622
77.10000 1.160
77.12000 -0.081
77.14000 3.038
77.16000 7.006
77.18000 5.764
77.20000 5.771
77.22000 3.109
77.24000 1.414
77.26000 5.261
77.28000 7.186
77.30000 0.462
77.32000 -0.494
77.34000 2.016
77.36000 3.162
77.38000 1.006
77.40000 -0.822
77.42000 2.146
77.44000 5.114
77.46000 2.539
77.48000 2.673
77.50000 1.493
77.52000 4.378
77.54000 6.144
77.56000 4.333
77.58000 -0.300
77.60000 5.542
77.62000 1.105
77.64000 3.699
77.66000 7.441
77.68000 5.025
77.70000 1.601
77.72000 0.257
77.74000 1.157
77.76000 1.570
77.78000 -0.281
77.80000 1.201
77.82000 7.443
77.84000 2.903
77.86000 -1.380
77.88000 -0.270
77.90000 1.337
77.92000 -0.766
77.94000 2.622
77.96000 2.011
77.98000 1.910
78.00000 3.326
78.02000 8.007
78.04000 8.834
78.06000 8.525
78.08000 4.543
78.10000 0.242
78.12000 2.955
78.14000 0.790
78.16000 0.876
78.18000 -1.539
78.20000 -1.630
78.22000 1.513
78.24000 1.196
78.26000 0.727
78.28000 1.504
78.30000 3.665
78.32000 -1.168
78.34000 0.174
78.36000 0.748
78.38000 0.616
78.40000 -0.658
78.42000 -0.099
78.44000 0.697
78.46000 -2.277
78.48000 0.005
78.50000 2.220
78.52000 4.085
78.54000 0.588
78.56000 3.852
78.58000 1.626
78.60000 3.964
78.62000 -1.170
78.64000 -1.492
78.66000 -0.257
78.68000 0.978
78.70000 -1.345
78.72000 2.142
78.74000 -0.278
78.76000 0.954
78.78000 -0.259
78.80000 1.420
78.82000 2.242
78.84000 1.418
78.86000 -1.838
78.88000 -0.331
78.90000 3.536
78.92000 7.194
78.94000 5.288
78.96000 3.588
78.98000 -0.470
79.00000 -1.102
79.02000 0.892
79.04000 1.278
79.06000 2.735
79.08000 1.525
79.10000 0.627
79.12000 -1.944
79.14000 1.519
79.16000 -0.776
79.18000 0.214
79.20000 2.704
79.22000 7.751
79.24000 1.402
79.26000 -1.941
79.28000 1.577
79.30000 2.059
79.32000 3.284
79.34000 4.456
79.36000 3.229
79.38000 2.966
79.40000 3.798
79.42000 0.425
79.44000 2.468
79.46000 1.642
79.48000 3.729
79.50000 -1.481
79.52000 0.126
79.54000 -2.136
79.56000 4.064
79.58000 2.012
79.60000 -2.298
79.62000 0.627
79.64000 0.812
79.66000 -0.714
79.68000 0.314
79.70000 3.116
79.72000 3.406
79.74000 4.731
79.76000 0.336
79.78000 -2.298
79.80000 -1.342
79.82000 3.459
79.84000 3.543
79.86000 -0.083
79.88000 0.308
79.90000 6.136
79.92000 -0.355
79.94000 0.469
79.96000 3.450
79.98000 2.738
80.00000 -0.287
80.02000 2.257
80.04000 2.629
80.06000 0.942
80.08000 1.577
80.10000 6.896
80.12000 5.406
80.14000 3.493
80.16000 -2.305
80.18000 0.897
80.20000 0.500
80.22000 1.407
80.24000 2.316
80.26000 3.467
80.28000 2.657
80.30000 4.654
80.32000 6.946
80.34000 5.681
80.36000 3.193
80.38000 3.798
80.40000 2.237
80.42000 0.745
80.44000 1.635
80.46000 1.203
80.48000 0.150
80.50000 3.585
80.52000 3.981
80.54000 0.942
80.56000 -1.396
80.58000 3.558
80.60000 3.400
80.62000 5.035
80.64000 3.782
80.66000 3.276
80.68000 3.688
80.70000 5.001
80.72000 3.166
80.74000 -0.775
80.76000 1.438
80.78000 2.553
80.80000 2.669
80.82000 -2.326
80.84000 1.867
80.86000 4.283
80.88000 5.998
80.90000 2.248
80.92000 2.597
80.94000 1.633
80.96000 4.903
80.98000 1.405
81.00000 -0.803
81.02000 5.033
81.04000 4.844
81.06000 3.923
81.08000 -0.532
81.10000 -0.090
81.12000 -0.490
81.14000 -2.344
81.16000 -1.704
81.18000 3.921
81.20000 1.664
81.22000 -0.525
81.24000 3.002
81.26000 1.692
81.28000 4.009
81.30000 6.464
81.32000 3.627
81.34000 3.497
81.36000 1.092
81.38000 -2.367
81.40000 2.605
81.42000 1.955
81.44000 -0.811
81.46000 4.386
81.48000 1.931
81.50000 -0.086
81.52000 1.283
81.54000 3.519
81.56000 1.330
81.58000 -0.473
81.60000 0.751
81.62000 -0.120
81.64000 1.922
81.66000 0.381
81.68000 1.827
81.70000 4.175
81.72000 5.270
81.74000 -0.710
81.76000 1.397
81.78000 3.020
81.80000 2.802
81.82000 1.186
81.84000 1.579
81.86000 0.887
81.88000 1.204
81.90000 4.543
81.92000 2.347
81.94000 2.513
81.96000 -1.151
81.98000 3.222
82.00000 2.936
82.02000 0.393
82.04000 -0.057
82.06000 5.452
82.08000 5.193
82.10000 5.458
82.12000 1.819
82.14000 3.620
82.16000 2.480
82.18000 1.001
82.20000 1.092
82.22000 1.682
82.24000 -1.139
82.26000 1.071
82.28000 2.284
82.30000 6.495
82.32000 3.978
82.34000 1.289
82.36000 4.521
82.38000 1.920
82.40000 4.512
82.42000 5.187
82.44000 7.572
82.46000 8.452
82.48000 5.272
82.50000 6.015
82.52000 5.925
82.54000 1.431
82.56000 6.399
82.58000 3.502
82.60000 4.372
82.62000 8.179
82.64000 6.400
82.66000 2.818
82.68000 3.110
82.70000 10.096
82.72000 10.128
82.74000 9.229
82.76000 7.283
82.78000 3.579
82.80000 5.158
82.82000 10.991
82.84000 15.317
82.86000 14.106
82.88000 6.422
82.90000 8.397
82.92000 8.172
82.94000 11.055
82.96000 14.244
82.98000 14.704
83.00000 9.962
83.02000 8.341
83.04000 7.967
83.06000 10.906
83.08000 12.459
83.10000 12.113
83.12000 11.593
83.14000 14.302
83.16000 15.780
83.18000 15.635
83.20000 18.156
83.22000 18.504
83.24000 15.842
83.26000 15.100
83.28000 20.201
83.30000 20.607
83.32000 17.909
83.34000 19.477
83.36000 19.219
83.38000 18.074
83.40000 14.085
83.42000 18.043
83.44000 15.552
83.46000 17.874
83.48000 18.158
83.50000 23.033
83.52000 22.970
83.54000 24.060
83.56000 22.536
83.58000 18.924
83.60000 23.015
83.62000 20.562
83.64000 17.454
83.66000 19.384
83.68000 21.001
83.70000 22.684
83.72000 21.167
83.74000 26.168
83.76000 23.848
83.78000 19.324
83.80000 16.344
83.82000 23.886
83.84000 27.905
83.86000 27.474
83.88000 24.755
83.90000 25.996
83.92000 26.119
83.94000 25.694
83.96000 24.836
83.98000 24.955
84.00000 26.409
84.02000 24.337
84.04000 21.566
84.06000 19.584
84.08000 20.112
84.10000 17.683
84.12000 18.858
84.14000 20.656
84.16000 21.452
84.18000 23.117
84.20000 22.468
84.22000 19.898
84.24000 18.452
84.26000 16.805
84.28000 11.489
84.30000 14.658
84.32000 21.497
84.34000 22.732
84.36000 15.441
84.38000 15.170
84.40000 20.172
84.42000 24.534
84.44000 20.129
84.46000 16.594
84.48000 20.367
84.50000 19.689
84.52000 21.000
84.54000 15.523
84.56000 11.609
84.58000 8.661
84.60000 10.604
84.62000 13.077
84.64000 14.539
84.66000 13.054
84.68000 10.026
84.70000 6.858
84.72000 8.968
84.74000 11.566
84.76000 11.222
84.78000 11.374
84.80000 10.714
84.82000 9.410
84.84000 12.592
84.86000 11.652
84.88000 10.079
84.90000 7.904
84.92000 7.283
84.94000 12.543
84.96000 11.772
84.98000 9.601
85.00000 10.691
85.02000 4.296
85.04000 6.454
85.06000 7.641
85.08000 7.445
85.10000 -2.359
85.12000 2.421
85.14000 1.836
85.16000 6.918
85.18000 6.122
85.20000 6.598
85.22000 4.001
85.24000 3.544
85.26000 6.215
85.28000 12.480
85.30000 5.480
85.32000 4.504
85.34000 7.320
85.36000 6.223
85.38000 2.286
85.40000 6.977
85.42000 2.876
85.44000 1.028
85.46000 4.560
85.48000 3.098
85.50000 3.221
85.52000 3.315
85.54000 1.945
85.56000 3.010
85.58000 3.954
85.60000 0.475
85.62000 4.069
85.64000 3.359
85.66000 1.188
85.68000 -1.069
85.70000 0.120
85.72000 -0.341
85.74000 0.179
85.76000 0.350
85.78000 0.768
85.80000 -0.052
85.82000 1.106
85.84000 1.020
85.86000 0.650
85.88000 3.541
85.90000 6.541
85.92000 7.778
85.94000 5.375
85.96000 3.699
85.98000 3.142
86.00000 1.196
86.02000 0.761
86.04000 5.822
86.06000 5.387
86.08000 2.650
86.10000 -0.284
86.12000 3.112
86.14000 6.758
86.16000 3.752
86.18000 1.046
86.20000 0.568
86.22000 -0.962
86.24000 3.552
86.26000 -2.307
86.28000 0.470
86.30000 -0.090
86.32000 2.630
86.34000 -0.365
86.36000 1.189
86.38000 1.869
86.40000 4.183
86.42000 -0.540
86.44000 2.556
86.46000 0.543
86.48000 -2.311
86.50000 -2.168
86.52000 -0.867
86.54000 2.000
86.56000 1.672
86.58000 4.726
86.60000 5.870
86.62000 3.680
86.64000 1.957
86.66000 3.560
86.68000 1.613
86.70000 2.329
86.72000 2.822
86.74000 3.905
86.76000 4.860
86.78000 2.885
86.80000 4.394
86.82000 2.107
86.84000 -0.554
86.86000 2.010
86.88000 -1.651
86.90000 -2.356
86.92000 1.362
86.94000 6.585
86.96000 6.318
86.98000 3.270
87.00000 6.656
87.02000 5.091
87.04000 3.348
87.06000 3.008
87.08000 2.617
87.10000 5.375
87.12000 4.150
87.14000 2.018
87.16000 2.994
87.18000 4.974
87.20000 7.248
87.22000 9.651
87.24000 5.480
87.26000 8.597
87.28000 2.987
87.30000 2.900
87.32000 4.876
87.34000 5.704
87.36000 4.096
87.38000 2.176
87.40000 8.873
87.42000 12.013
87.44000 10.302
87.46000 9.704
87.48000 10.014
87.50000 14.187
87.52000 10.750
87.54000 7.747
87.56000 7.796
87.58000 10.275
87.60000 13.969
87.62000 13.810
87.64000 6.012
87.66000 15.436
87.68000 12.564
87.70000 13.826
87.72000 13.917
87.74000 11.085
87.76000 11.662
87.78000 16.829
87.80000 20.501
87.82000 19.487
87.84000 19.193
87.86000 18.873
87.88000 20.162
87.90000 16.606
87.92000 17.079
87.94000 21.000
87.96000 23.434
87.98000 18.510
88.00000 21.050
88.02000 17.768
88.04000 18.625
88.06000 26.943
88.08000 27.428
88.10000 21.504
88.12000 23.525
88.14000 21.881
88.16000 23.188
88.18000 24.829
88.20000 26.692
88.22000 22.587
88.24000 24.638
88.26000 25.632
88.28000 27.384
88.30000 28.243
88.32000 28.773
88.34000 29.069
88.36000 26.059
88.38000 25.603
88.40000 26.286
88.42000 25.642
88.44000 25.114
88.46000 24.343
88.48000 21.849
88.50000 24.263
88.52000 24.008
88.54000 22.992
88.56000 21.515
88.58000 27.582
88.60000 25.027
88.62000 22.779
88.64000 32.459
88.66000 27.064
88.68000 18.094
88.70000 24.776
88.72000 23.995
88.74000 22.120
88.76000 20.682
88.78000 20.767
88.80000 21.287
88.82000 19.514
88.84000 24.231
88.86000 18.110
88.88000 18.921
88.90000 21.322
88.92000 19.678
88.94000 15.867
88.96000 14.956
88.98000 14.148
89.00000 14.973
89.02000 16.351
89.04000 17.112
89.06000 12.922
89.08000 13.481
89.10000 13.876
89.12000 9.666
89.14000 8.235
89.16000 11.677
89.18000 12.414
89.20000 10.345
89.22000 10.068
89.24000 10.383
89.26000 10.877
89.28000 7.612
89.30000 7.575
89.32000 12.239
89.34000 14.916
89.36000 8.689
89.38000 8.107
89.40000 7.678
89.42000 10.419
89.44000 10.565
89.46000 6.768
89.48000 6.031
89.50000 2.126
89.52000 2.181
89.54000 5.060
89.56000 4.340
89.58000 2.935
89.60000 2.111
89.62000 2.446
89.64000 8.405
89.66000 7.311
89.68000 5.476
89.70000 2.436
89.72000 2.191
89.74000 1.343
89.76000 0.591
89.78000 6.388
89.80000 6.742
89.82000 5.438
89.84000 2.265
89.86000 1.371
89.88000 -0.810
89.90000 -2.253
89.92000 2.388
89.94000 5.463
89.96000 7.308
89.98000 4.035
90.00000 0.756
90.02000 1.918
90.04000 2.823
90.06000 1.821
90.08000 1.500
90.10000 -1.562
90.12000 -1.135
90.14000 4.348
90.16000 6.608
90.18000 1.467
90.20000 -1.803
90.22000 -0.535
90.24000 1.016
90.26000 4.201
90.28000 6.159
90.30000 2.418
90.32000 1.600
90.34000 4.441
90.36000 4.522
90.38000 3.792
90.40000 -2.221
90.42000 -2.198
90.44000 -0.729
90.46000 1.639
90.48000 -1.911
90.50000 2.434
90.52000 2.065
90.54000 2.370
90.56000 5.828
90.58000 5.311
90.60000 1.295
90.62000 2.503
90.64000 -0.892
90.66000 -1.891
90.68000 0.207
90.70000 5.298
90.72000 6.790
90.74000 1.863
90.76000 1.265
90.78000 1.314
90.80000 0.527
90.82000 -2.210
90.84000 1.098
90.86000 4.590
90.88000 1.653
90.90000 2.294
90.92000 0.331
90.94000 1.521
90.96000 0.625
90.98000 -1.874
91.00000 1.417
91.02000 3.112
91.04000 3.753
91.06000 -0.880
91.08000 0.117
91.10000 1.275
91.12000 1.294
91.14000 1.098
91.16000 -0.266
91.18000 1.288
91.20000 0.033
91.22000 2.787
91.24000 0.972
91.26000 -2.064
91.28000 -0.005
91.30000 1.115
91.32000 3.335
91.34000 5.830
91.36000 7.237
91.38000 -1.659
91.40000 -2.170
91.42000 0.787
91.44000 6.569
91.46000 1.253
91.48000 0.572
91.50000 -1.300
91.52000 2.004
91.54000 3.513
91.56000 7.858
91.58000 4.109
91.60000 -0.618
91.62000 -2.152
91.64000 3.273
91.66000 0.282
91.68000 -2.090
91.70000 0.644
91.72000 1.668
91.74000 4.544
91.76000 -0.559
91.78000 -1.524
91.80000 2.588
91.82000 7.831
91.84000 6.851
91.86000 0.205
91.88000 5.121
91.90000 6.245
91.92000 -1.780
91.94000 -1.344
91.96000 -0.029
91.98000 3.700
92.00000 6.318
92.02000 3.985
92.04000 1.997
92.06000 2.472
92.08000 2.407
92.10000 3.829
92.12000 3.722
92.14000 7.311
92.16000 1.811
92.18000 0.723
92.20000 3.240
92.22000 4.554
92.24000 3.652
92.26000 3.711
92.28000 1.752
92.30000 -1.140
92.32000 0.640
92.34000 -0.043
92.36000 2.796
92.38000 4.149
92.40000 8.263
92.42000 3.951
92.44000 -0.349
92.46000 -2.087
92.48000 2.814
92.50000 7.243
92.52000 9.563
92.54000 4.071
92.56000 1.459
92.58000 4.598
92.60000 5.842
92.62000 4.854
92.64000 3.096
92.66000 0.966
92.68000 1.001
92.70000 5.729
92.72000 2.383
92.74000 -2.114
92.76000 3.107
92.78000 2.616
92.80000 1.153
92.82000 0.051
92.84000 3.001
92.86000 7.369
92.88000 1.906
92.90000 0.502
92.92000 2.394
92.94000 1.230
92.96000 3.965
92.98000 3.921
93.00000 5.576
93.02000 6.061
93.04000 5.320
93.06000 0.661
93.08000 -1.315
93.10000 -1.830
93.12000 2.867
93.14000 3.369
93.16000 5.456
93.18000 4.683
93.20000 2.510
93.22000 5.291
93.24000 2.863
93.26000 5.004
93.28000 1.583
93.30000 -1.142
93.32000 5.121
93.34000 9.175
93.36000 5.726
93.38000 4.649
93.40000 1.721
93.42000 7.458
93.44000 2.113
93.46000 -0.764
93.48000 -1.612
93.50000 1.544
93.52000 2.546
93.54000 2.777
93.56000 0.815
93.58000 3.619
93.60000 0.672
93.62000 2.424
93.64000 1.984
93.66000 2.372
93.68000 4.892
93.70000 6.818
93.72000 6.385
93.74000 4.350
93.76000 6.000
93.78000 3.446
93.80000 0.521
93.82000 -0.394
93.84000 -2.043
93.86000 -0.388
93.88000 -0.033
93.90000 2.247
93.92000 3.347
93.94000 3.151
93.96000 -0.675
93.98000 2.458
94.00000 2.349
94.02000 6.863
94.04000 3.742
94.06000 -2.162
94.08000 -1.151
94.10000 4.577
94.12000 2.037
94.14000 -0.204
94.16000 3.937
94.18000 5.292
94.20000 2.662
94.22000 3.449
94.24000 5.786
94.26000 9.439
94.28000 10.013
94.30000 6.591
94.32000 5.207
94.34000 3.802
94.36000 4.884
94.38000 7.199
94.40000 5.481
94.42000 1.554
94.44000 3.711
94.46000 1.504
94.48000 2.908
94.50000 3.074
94.52000 4.076
94.54000 5.483
94.56000 4.727
94.58000 7.307
94.60000 3.419
94.62000 -0.316
94.64000 -1.186
94.66000 -0.415
94.68000 4.496
94.70000 6.199
94.72000 5.545
94.74000 2.103
94.76000 3.275
94.78000 4.514
94.80000 3.821
94.82000 6.803
94.84000 4.618
94.86000 -0.887
94.88000 0.088
94.90000 6.380
94.92000 1.621
94.94000 -1.455
94.96000 1.477
94.98000 3.142
95.00000 -1.918
95.02000 -0.242
95.04000 8.228
95.06000 7.863
95.08000 4.759
95.10000 5.447
95.12000 2.492
95.14000 1.859
95.16000 6.879
95.18000 10.207
95.20000 3.958
95.22000 0.594
95.24000 1.495
95.26000 2.435
95.28000 -0.009
95.30000 -1.643
95.32000 4.701
95.34000 4.673
95.36000 -2.134
95.38000 1.397
95.40000 3.805
95.42000 -1.147
95.44000 -1.713
95.46000 1.875
95.48000 2.422
95.50000 3.621
95.52000 8.521
95.54000 7.499
95.56000 4.525
95.58000 1.059
95.60000 5.461
95.62000 6.865
95.64000 7.188
95.66000 5.730
95.68000 3.679
95.70000 2.352
95.72000 4.266
95.74000 2.797
95.76000 3.090
95.78000 4.606
95.80000 4.374
95.82000 2.122
95.84000 3.633
95.86000 7.282
95.88000 1.722
95.90000 3.266
95.92000 4.217
95.94000 -2.157
95.96000 0.878
95.98000 1.573
96.00000 5.003
96.02000 5.445
96.04000 7.639
96.06000 4.601
96.08000 3.838
96.10000 1.613
96.12000 1.505
96.14000 2.885
96.16000 1.361
96.18000 3.048
96.20000 4.602
96.22000 4.649
96.24000 4.729
96.26000 5.640
96.28000 5.984
96.30000 0.913
96.32000 2.215
96.34000 7.042
96.36000 5.052
96.38000 -0.570
96.40000 1.505
96.42000 6.186
96.44000 3.603
96.46000 7.564
96.48000 5.226
96.50000 2.498
96.52000 4.109
96.54000 8.111
96.56000 11.563
96.58000 11.176
96.60000 12.099
96.62000 10.234
96.64000 5.618
96.66000 5.841
96.68000 3.144
96.70000 6.318
96.72000 3.312
96.74000 0.672
96.76000 0.641
96.78000 5.952
96.80000 -1.105
96.82000 2.360
96.84000 2.762
96.86000 2.137
96.88000 2.259
96.90000 1.538
96.92000 3.572
96.94000 3.550
96.96000 1.907
96.98000 5.008
97.00000 5.014
97.02000 4.275
97.04000 -2.123
97.06000 5.431
97.08000 7.408
97.10000 1.190
97.12000 -1.774
97.14000 -0.023
97.16000 -0.608
97.18000 3.033
97.20000 8.925
97.22000 11.474
97.24000 12.440
97.26000 8.703
97.28000 2.792
97.30000 -2.111
97.32000 3.115
97.34000 3.140
97.36000 0.159
97.38000 1.230
97.40000 5.344
97.42000 6.421
97.44000 4.802
97.46000 -0.100
97.48000 0.851
97.50000 4.069
97.52000 2.320
97.54000 3.686
97.56000 9.450
97.58000 6.649
97.60000 1.922
97.62000 -2.069
97.64000 1.542
97.66000 0.387
97.68000 4.359
97.70000 3.672
97.72000 9.897
97.74000 12.563
97.76000 6.777
97.78000 1.836
97.80000 -0.912
97.82000 3.937
97.84000 6.345
97.86000 9.036
97.88000 7.128
97.90000 5.179
97.92000 2.076
97.94000 0.501
97.96000 0.210
97.98000 2.958
98.00000 -1.225
98.02000 1.243
98.04000 8.854
98.06000 8.281
98.08000 1.822
98.10000 -1.768
98.12000 2.714
98.14000 4.077
98.16000 6.774
98.18000 3.554
98.20000 0.670
98.22000 0.777
98.24000 1.119
98.26000 1.633
98.28000 4.220
98.30000 2.305
98.32000 1.673
98.34000 3.544
98.36000 1.228
98.38000 1.031
98.40000 5.848
98.42000 8.246
98.44000 8.468
98.46000 13.275
98.48000 6.780
98.50000 10.266
98.52000 3.850
98.54000 2.742
98.56000 10.212
98.58000 8.387
98.60000 2.185
98.62000 0.575
98.64000 3.958
98.66000 1.282
98.68000 -1.865
98.70000 -2.074
98.72000 5.306
98.74000 8.018
98.76000 5.905
98.78000 8.866
98.80000 5.784
98.82000 6.730
98.84000 5.522
98.86000 6.138
98.88000 8.377
98.90000 1.321
98.92000 0.019
98.94000 4.935
98.96000 7.027
98.98000 10.686
99.00000 7.917
99.02000 9.139
99.04000 13.512
99.06000 5.966
99.08000 7.710
99.10000 1.974
99.12000 4.197
99.14000 4.529
99.16000 15.734
99.18000 10.983
99.20000 3.483
99.22000 2.660
99.24000 1.508
99.26000 -2.017
99.28000 0.298
99.30000 9.773
99.32000 10.760
99.34000 7.566
99.36000 7.701
99.38000 7.377
99.40000 7.338
99.42000 4.252
99.44000 3.083
99.46000 5.966
99.48000 10.898
99.50000 14.521
99.52000 9.357
99.54000 6.923
99.56000 4.162
99.58000 -0.064
99.60000 -2.043
99.62000 2.527
99.64000 6.890
99.66000 11.152
99.68000 12.994
99.70000 6.168
99.72000 2.439
99.74000 6.928
99.76000 6.750
99.78000 5.537
99.80000 11.122
99.82000 9.581
99.84000 3.353
99.86000 4.055
99.88000 4.140
99.90000 -2.177
99.92000 -1.849
99.94000 -2.271
99.96000 -2.340
99.98000 0.000
