'Id: "0011389" Comment: "Integrate frame 0011389_Au-Ir-Rh_Au-Rich_XRD_Mapping-045-0000.gfrmwith cursor Wedge Cursor #5" Operator: "B?rgel" Anode: "Cu" Wavelength: "1.5406" Scantype: "2Theta (TwoTheta)" TimePerStep: "1" X: "-9" Y: "-27" Z: "5.95" 
10.00000 0.000
10.02000 -4.453
10.04000 -4.400
10.06000 10.142
10.08000 -4.327
10.10000 -4.321
10.12000 8.396
10.14000 14.863
10.16000 -1.322
10.18000 3.658
10.20000 10.406
10.22000 5.783
10.24000 6.725
10.26000 14.980
10.28000 6.795
10.30000 8.347
10.32000 7.243
10.34000 5.064
10.36000 15.792
10.38000 2.148
10.40000 3.758
10.42000 20.362
10.44000 27.862
10.46000 20.446
10.48000 16.491
10.50000 17.504
10.52000 15.024
10.54000 19.015
10.56000 16.646
10.58000 11.117
10.60000 10.705
10.62000 25.172
10.64000 34.889
10.66000 17.192
10.68000 13.555
10.70000 12.650
10.72000 10.747
10.74000 -3.422
10.76000 -4.306
10.78000 5.352
10.80000 18.081
10.82000 11.386
10.84000 3.320
10.86000 11.260
10.88000 10.602
10.90000 12.647
10.92000 9.613
10.94000 3.861
10.96000 9.703
10.98000 6.056
11.00000 14.642
11.02000 28.595
11.04000 20.561
11.06000 28.304
11.08000 32.154
11.10000 27.596
11.12000 18.854
11.14000 18.803
11.16000 19.279
11.18000 24.324
11.20000 13.083
11.22000 20.022
11.24000 11.021
11.26000 15.688
11.28000 11.690
11.30000 14.495
11.32000 9.284
11.34000 9.277
11.36000 18.292
11.38000 17.459
11.40000 15.863
11.42000 7.121
11.44000 12.701
11.46000 14.091
11.48000 5.529
11.50000 -4.329
11.52000 -1.007
11.54000 15.759
11.56000 25.036
11.58000 19.338
11.60000 23.863
11.62000 21.394
11.64000 20.973
11.66000 18.301
11.68000 5.415
11.70000 8.426
11.72000 20.762
11.74000 15.880
11.76000 22.350
11.78000 21.469
11.80000 26.897
11.82000 24.526
11.84000 19.183
11.86000 18.657
11.88000 4.061
11.90000 8.231
11.92000 16.130
11.94000 15.974
11.96000 11.082
11.98000 8.814
12.00000 13.015
12.02000 10.184
12.04000 8.916
12.06000 5.748
12.08000 14.881
12.10000 11.876
12.12000 14.821
12.14000 18.811
12.16000 14.736
12.18000 6.320
12.20000 9.346
12.22000 -2.812
12.24000 6.512
12.26000 13.213
12.28000 13.925
12.30000 12.197
12.32000 16.153
12.34000 1.275
12.36000 15.926
12.38000 12.794
12.40000 2.898
12.42000 8.368
12.44000 23.628
12.46000 18.791
12.48000 0.813
12.50000 4.505
12.52000 13.069
12.54000 15.669
12.56000 21.728
12.58000 18.800
12.60000 24.837
12.62000 25.653
12.64000 19.385
12.66000 13.855
12.68000 15.713
12.70000 16.605
12.72000 9.498
12.74000 9.235
12.76000 9.731
12.78000 21.787
12.80000 23.536
12.82000 14.819
12.84000 21.104
12.86000 13.975
12.88000 17.858
12.90000 11.949
12.92000 18.576
12.94000 17.336
12.96000 15.960
12.98000 16.355
13.00000 6.664
13.02000 14.248
13.04000 15.164
13.06000 12.187
13.08000 12.280
13.10000 9.471
13.12000 13.427
13.14000 21.017
13.16000 23.569
13.18000 15.646
13.20000 8.087
13.22000 2.998
13.24000 10.183
13.26000 6.563
13.28000 7.397
13.30000 9.229
13.32000 16.248
13.34000 17.276
13.36000 16.567
13.38000 13.906
13.40000 20.448
13.42000 29.609
13.44000 12.682
13.46000 11.490
13.48000 16.707
13.50000 17.894
13.52000 8.255
13.54000 16.601
13.56000 10.223
13.58000 16.618
13.60000 12.800
13.62000 5.139
13.64000 14.029
13.66000 13.073
13.68000 7.272
13.70000 10.981
13.72000 16.392
13.74000 17.997
13.76000 9.960
13.78000 16.124
13.80000 21.019
13.82000 15.730
13.84000 12.307
13.86000 4.331
13.88000 -4.409
13.90000 4.557
13.92000 16.954
13.94000 17.749
13.96000 17.028
13.98000 20.371
14.00000 9.015
14.02000 20.504
14.04000 18.489
14.06000 19.803
14.08000 16.431
14.10000 12.234
14.12000 9.234
14.14000 10.114
14.16000 11.859
14.18000 8.708
14.20000 15.473
14.22000 8.707
14.24000 12.712
14.26000 15.228
14.28000 13.115
14.30000 13.279
14.32000 6.162
14.34000 7.383
14.36000 8.606
14.38000 13.410
14.40000 8.282
14.42000 -4.403
14.44000 1.218
14.46000 10.038
14.48000 16.230
14.50000 18.814
14.52000 21.318
14.54000 10.398
14.56000 11.238
14.58000 7.743
14.60000 -2.235
14.62000 7.259
14.64000 13.733
14.66000 16.216
14.68000 15.687
14.70000 3.966
14.72000 5.119
14.74000 7.029
14.76000 7.658
14.78000 9.511
14.80000 15.721
14.82000 18.377
14.84000 5.698
14.86000 15.861
14.88000 8.947
14.90000 2.144
14.92000 11.509
14.94000 20.365
14.96000 14.332
14.98000 4.163
15.00000 5.022
15.02000 5.797
15.04000 14.101
15.06000 15.156
15.08000 8.542
15.10000 7.184
15.12000 0.623
15.14000 1.427
15.16000 2.994
15.18000 7.034
15.20000 10.320
15.22000 18.905
15.24000 17.630
15.26000 6.969
15.28000 5.553
15.30000 -0.402
15.32000 9.863
15.34000 13.645
15.36000 12.245
15.38000 5.951
15.40000 10.370
15.42000 11.131
15.44000 7.225
15.46000 2.861
15.48000 7.746
15.50000 3.820
15.52000 5.352
15.54000 3.519
15.56000 4.907
15.58000 13.847
15.60000 9.736
15.62000 -3.999
15.64000 1.862
15.66000 13.524
15.68000 12.071
15.70000 7.058
15.72000 5.631
15.74000 2.543
15.76000 5.112
15.78000 2.456
15.80000 10.956
15.82000 11.583
15.84000 9.485
15.86000 9.559
15.88000 15.444
15.90000 4.293
15.92000 2.144
15.94000 -1.893
15.96000 -0.971
15.98000 6.300
16.00000 6.168
16.02000 7.037
16.04000 19.720
16.06000 16.466
16.08000 8.552
16.10000 3.662
16.12000 0.612
16.14000 11.188
16.16000 9.054
16.18000 5.210
16.20000 2.772
16.22000 -1.307
16.24000 -1.496
16.26000 -0.324
16.28000 1.108
16.30000 0.354
16.32000 6.317
16.34000 9.354
16.36000 9.229
16.38000 6.901
16.40000 2.482
16.42000 5.571
16.44000 6.913
16.46000 1.438
16.48000 -3.357
16.50000 7.408
16.52000 8.310
16.54000 1.442
16.56000 -1.780
16.58000 -0.051
16.60000 2.087
16.62000 6.433
16.64000 -0.194
16.66000 4.340
16.68000 0.405
16.70000 1.697
16.72000 1.673
16.74000 0.739
16.76000 2.261
16.78000 3.354
16.80000 3.399
16.82000 1.771
16.84000 2.474
16.86000 0.537
16.88000 4.273
16.90000 4.564
16.92000 1.819
16.94000 -2.779
16.96000 1.214
16.98000 5.354
17.00000 9.853
17.02000 11.124
17.04000 0.399
17.06000 -2.397
17.08000 -4.372
17.10000 2.829
17.12000 2.008
17.14000 4.505
17.16000 4.995
17.18000 2.539
17.20000 4.189
17.22000 5.227
17.24000 4.639
17.26000 -3.362
17.28000 -4.207
17.30000 8.288
17.32000 17.908
17.34000 15.843
17.36000 10.098
17.38000 8.362
17.40000 5.047
17.42000 8.682
17.44000 5.211
17.46000 3.878
17.48000 4.876
17.50000 9.011
17.52000 8.391
17.54000 10.652
17.56000 9.145
17.58000 13.417
17.60000 8.376
17.62000 6.629
17.64000 5.555
17.66000 6.535
17.68000 0.942
17.70000 -1.807
17.72000 5.242
17.74000 3.647
17.76000 -0.821
17.78000 4.496
17.80000 -1.055
17.82000 -0.077
17.84000 -2.295
17.86000 2.854
17.88000 3.394
17.90000 6.267
17.92000 8.947
17.94000 5.269
17.96000 -0.386
17.98000 2.916
18.00000 0.645
18.02000 1.259
18.04000 2.524
18.06000 5.623
18.08000 0.350
18.10000 -2.474
18.12000 3.401
18.14000 12.013
18.16000 7.918
18.18000 5.757
18.20000 6.142
18.22000 7.008
18.24000 8.300
18.26000 7.170
18.28000 4.448
18.30000 5.632
18.32000 5.435
18.34000 1.328
18.36000 5.540
18.38000 3.474
18.40000 8.492
18.42000 4.384
18.44000 3.144
18.46000 9.627
18.48000 6.796
18.50000 1.539
18.52000 1.060
18.54000 7.898
18.56000 7.975
18.58000 8.346
18.60000 11.296
18.62000 4.045
18.64000 4.139
18.66000 4.931
18.68000 1.714
18.70000 3.620
18.72000 11.260
18.74000 7.105
18.76000 9.771
18.78000 7.176
18.80000 8.664
18.82000 8.867
18.84000 4.553
18.86000 3.123
18.88000 9.637
18.90000 9.947
18.92000 10.885
18.94000 8.274
18.96000 7.451
18.98000 13.063
19.00000 8.453
19.02000 -4.083
19.04000 -4.225
19.06000 3.564
19.08000 5.713
19.10000 3.996
19.12000 0.580
19.14000 -1.531
19.16000 2.167
19.18000 3.875
19.20000 0.249
19.22000 0.806
19.24000 4.998
19.26000 2.810
19.28000 1.062
19.30000 1.020
19.32000 -0.116
19.34000 0.301
19.36000 4.503
19.38000 -2.949
19.40000 -0.189
19.42000 11.609
19.44000 12.035
19.46000 3.276
19.48000 3.972
19.50000 9.405
19.52000 2.174
19.54000 -0.535
19.56000 -1.279
19.58000 -1.657
19.60000 3.243
19.62000 7.342
19.64000 7.037
19.66000 2.334
19.68000 -0.067
19.70000 6.612
19.72000 4.522
19.74000 -1.113
19.76000 0.985
19.78000 -1.445
19.80000 3.272
19.82000 4.901
19.84000 6.027
19.86000 4.661
19.88000 2.186
19.90000 -0.718
19.92000 1.136
19.94000 1.243
19.96000 3.761
19.98000 1.680
20.00000 5.718
20.02000 6.501
20.04000 5.834
20.06000 4.147
20.08000 2.585
20.10000 3.215
20.12000 2.590
20.14000 -0.460
20.16000 -0.261
20.18000 -1.542
20.20000 0.498
20.22000 3.495
20.24000 -1.520
20.26000 3.937
20.28000 1.991
20.30000 0.332
20.32000 2.554
20.34000 1.907
20.36000 3.536
20.38000 5.221
20.40000 7.208
20.42000 4.164
20.44000 2.834
20.46000 4.712
20.48000 2.801
20.50000 4.934
20.52000 7.935
20.54000 4.213
20.56000 0.804
20.58000 -4.177
20.60000 -0.026
20.62000 3.864
20.64000 7.099
20.66000 1.793
20.68000 5.421
20.70000 1.095
20.72000 8.754
20.74000 8.463
20.76000 5.743
20.78000 6.501
20.80000 -0.623
20.82000 6.263
20.84000 3.395
20.86000 3.545
20.88000 1.657
20.90000 0.242
20.92000 -0.014
20.94000 -2.846
20.96000 1.596
20.98000 6.173
21.00000 0.851
21.02000 4.330
21.04000 2.814
21.06000 -0.101
21.08000 -0.205
21.10000 3.430
21.12000 3.708
21.14000 1.588
21.16000 2.088
21.18000 9.824
21.20000 3.941
21.22000 0.391
21.24000 -0.802
21.26000 0.786
21.28000 -3.681
21.30000 3.656
21.32000 5.631
21.34000 5.269
21.36000 4.671
21.38000 4.795
21.40000 1.062
21.42000 -4.128
21.44000 -0.724
21.46000 3.518
21.48000 2.315
21.50000 3.935
21.52000 -3.411
21.54000 -1.699
21.56000 0.789
21.58000 1.205
21.60000 -1.893
21.62000 4.875
21.64000 5.860
21.66000 9.632
21.68000 6.904
21.70000 4.867
21.72000 -0.415
21.74000 -0.376
21.76000 3.113
21.78000 8.791
21.80000 3.439
21.82000 -0.728
21.84000 -3.325
21.86000 1.311
21.88000 10.919
21.90000 9.299
21.92000 8.075
21.94000 3.997
21.96000 6.180
21.98000 7.551
22.00000 10.734
22.02000 2.606
22.04000 -2.687
22.06000 1.257
22.08000 3.166
22.10000 3.263
22.12000 0.690
22.14000 0.913
22.16000 7.276
22.18000 -1.640
22.20000 -4.093
22.22000 2.760
22.24000 7.603
22.26000 7.405
22.28000 0.204
22.30000 1.057
22.32000 4.536
22.34000 3.036
22.36000 4.705
22.38000 4.919
22.40000 1.428
22.42000 5.118
22.44000 3.549
22.46000 -0.256
22.48000 -2.080
22.50000 1.740
22.52000 4.917
22.54000 3.352
22.56000 4.322
22.58000 2.934
22.60000 7.115
22.62000 1.858
22.64000 0.425
22.66000 -3.439
22.68000 3.760
22.70000 3.791
22.72000 6.385
22.74000 2.896
22.76000 2.871
22.78000 2.112
22.80000 2.925
22.82000 6.431
22.84000 6.132
22.86000 5.762
22.88000 -0.357
22.90000 -4.052
22.92000 -1.938
22.94000 -1.327
22.96000 0.580
22.98000 4.752
23.00000 5.808
23.02000 6.836
23.04000 2.184
23.06000 3.148
23.08000 5.810
23.10000 1.199
23.12000 7.701
23.14000 4.450
23.16000 6.677
23.18000 6.760
23.20000 3.954
23.22000 5.345
23.24000 2.158
23.26000 2.020
23.28000 0.628
23.30000 4.013
23.32000 2.195
23.34000 0.747
23.36000 3.722
23.38000 2.239
23.40000 -1.132
23.42000 1.800
23.44000 4.571
23.46000 4.922
23.48000 2.434
23.50000 6.469
23.52000 0.678
23.54000 5.400
23.56000 9.045
23.58000 11.625
23.60000 -1.040
23.62000 3.392
23.64000 4.660
23.66000 1.789
23.68000 -0.585
23.70000 4.179
23.72000 12.526
23.74000 7.699
23.76000 7.657
23.78000 5.594
23.80000 5.963
23.82000 8.381
23.84000 9.041
23.86000 7.007
23.88000 -2.927
23.90000 -3.967
23.92000 -3.713
23.94000 0.499
23.96000 4.084
23.98000 4.028
24.00000 5.444
24.02000 3.126
24.04000 -0.193
24.06000 1.534
24.08000 8.286
24.10000 3.150
24.12000 -2.019
24.14000 -0.819
24.16000 1.816
24.18000 5.208
24.20000 -0.863
24.22000 -0.149
24.24000 -0.631
24.26000 -3.946
24.28000 6.322
24.30000 8.210
24.32000 1.735
24.34000 -1.400
24.36000 2.203
24.38000 3.653
24.40000 4.032
24.42000 5.428
24.44000 6.752
24.46000 6.153
24.48000 7.696
24.50000 4.950
24.52000 11.618
24.54000 7.824
24.56000 4.993
24.58000 9.273
24.60000 7.910
24.62000 0.084
24.64000 1.744
24.66000 5.858
24.68000 7.332
24.70000 3.976
24.72000 1.866
24.74000 1.490
24.76000 1.019
24.78000 -1.793
24.80000 0.271
24.82000 3.716
24.84000 0.671
24.86000 -0.132
24.88000 1.864
24.90000 2.035
24.92000 3.207
24.94000 8.362
24.96000 4.617
24.98000 6.237
25.00000 6.759
25.02000 6.937
25.04000 7.739
25.06000 5.975
25.08000 -3.916
25.10000 2.922
25.12000 0.004
25.14000 -2.035
25.16000 4.635
25.18000 4.633
25.20000 8.077
25.22000 6.960
25.24000 5.832
25.26000 3.518
25.28000 2.423
25.30000 7.334
25.32000 6.735
25.34000 2.473
25.36000 3.623
25.38000 2.521
25.40000 3.386
25.42000 7.439
25.44000 2.816
25.46000 1.606
25.48000 4.100
25.50000 -2.610
25.52000 0.912
25.54000 2.195
25.56000 0.567
25.58000 -1.886
25.60000 3.998
25.62000 6.429
25.64000 4.437
25.66000 5.220
25.68000 6.695
25.70000 -3.900
25.72000 5.540
25.74000 4.679
25.76000 -1.516
25.78000 1.466
25.80000 5.393
25.82000 10.138
25.84000 4.518
25.86000 1.567
25.88000 -0.468
25.90000 3.556
25.92000 7.502
25.94000 4.408
25.96000 -0.212
25.98000 2.376
26.00000 3.855
26.02000 2.869
26.04000 1.699
26.06000 -2.117
26.08000 1.716
26.10000 6.180
26.12000 5.747
26.14000 5.750
26.16000 2.026
26.18000 2.344
26.20000 -0.210
26.22000 1.733
26.24000 2.019
26.26000 -2.143
26.28000 -2.904
26.30000 3.310
26.32000 4.318
26.34000 1.599
26.36000 -0.049
26.38000 2.212
26.40000 4.479
26.42000 2.449
26.44000 -2.288
26.46000 -1.976
26.48000 3.090
26.50000 4.037
26.52000 4.098
26.54000 4.821
26.56000 3.020
26.58000 0.047
26.60000 1.685
26.62000 2.403
26.64000 -3.860
26.66000 -3.006
26.68000 0.390
26.70000 1.021
26.72000 1.621
26.74000 8.830
26.76000 -0.350
26.78000 -2.605
26.80000 4.516
26.82000 1.436
26.84000 -1.945
26.86000 0.583
26.88000 5.536
26.90000 2.440
26.92000 -1.487
26.94000 -1.649
26.96000 0.717
26.98000 1.935
27.00000 1.564
27.02000 3.009
27.04000 2.044
27.06000 -2.611
27.08000 -0.228
27.10000 1.497
27.12000 1.318
27.14000 3.210
27.16000 0.659
27.18000 -0.452
27.20000 1.480
27.22000 8.084
27.24000 5.197
27.26000 2.410
27.28000 2.086
27.30000 5.841
27.32000 8.478
27.34000 6.118
27.36000 5.218
27.38000 1.479
27.40000 -2.065
27.42000 -1.955
27.44000 4.186
27.46000 0.238
27.48000 1.128
27.50000 2.720
27.52000 4.036
27.54000 7.532
27.56000 5.438
27.58000 -1.072
27.60000 -2.935
27.62000 -3.802
27.64000 -1.037
27.66000 3.367
27.68000 1.317
27.70000 0.388
27.72000 1.479
27.74000 2.255
27.76000 6.684
27.78000 2.942
27.80000 -0.026
27.82000 2.468
27.84000 6.810
27.86000 9.590
27.88000 1.192
27.90000 5.136
27.92000 5.631
27.94000 -2.402
27.96000 -1.392
27.98000 4.147
28.00000 9.202
28.02000 4.728
28.04000 4.932
28.06000 -0.446
28.08000 -1.059
28.10000 2.174
28.12000 8.505
28.14000 4.662
28.16000 3.575
28.18000 0.964
28.20000 1.116
28.22000 0.209
28.24000 6.030
28.26000 9.400
28.28000 2.264
28.30000 -3.738
28.32000 2.870
28.34000 5.984
28.36000 -0.344
28.38000 2.142
28.40000 7.164
28.42000 3.296
28.44000 6.797
28.46000 9.147
28.48000 6.609
28.50000 -0.637
28.52000 4.468
28.54000 5.862
28.56000 3.465
28.58000 3.098
28.60000 3.802
28.62000 10.581
28.64000 11.727
28.66000 9.495
28.68000 7.768
28.70000 9.248
28.72000 5.055
28.74000 -3.711
28.76000 -0.412
28.78000 2.957
28.80000 4.579
28.82000 6.489
28.84000 5.906
28.86000 2.979
28.88000 -2.558
28.90000 -2.079
28.92000 4.905
28.94000 4.541
28.96000 7.432
28.98000 10.806
29.00000 7.736
29.02000 5.907
29.04000 3.085
29.06000 6.584
29.08000 5.698
29.10000 7.135
29.12000 2.108
29.14000 1.798
29.16000 3.436
29.18000 3.654
29.20000 -1.645
29.22000 -2.619
29.24000 3.322
29.26000 8.959
29.28000 6.204
29.30000 3.323
29.32000 4.215
29.34000 2.119
29.36000 1.524
29.38000 1.937
29.40000 7.968
29.42000 6.008
29.44000 4.094
29.46000 5.870
29.48000 4.191
29.50000 2.558
29.52000 -1.449
29.54000 -0.770
29.56000 3.726
29.58000 5.784
29.60000 9.981
29.62000 8.006
29.64000 0.407
29.66000 0.406
29.68000 7.618
29.70000 2.152
29.72000 -0.862
29.74000 -0.710
29.76000 -0.512
29.78000 2.772
29.80000 4.994
29.82000 4.371
29.84000 4.657
29.86000 4.225
29.88000 3.132
29.90000 -0.724
29.92000 -2.288
29.94000 -0.327
29.96000 3.454
29.98000 1.558
30.00000 1.152
30.02000 -0.773
30.04000 0.213
30.06000 -1.766
30.08000 -0.131
30.10000 1.188
30.12000 5.946
30.14000 6.497
30.16000 2.240
30.18000 0.304
30.20000 -0.888
30.22000 3.295
30.24000 7.902
30.26000 0.346
30.28000 -2.521
30.30000 0.227
30.32000 3.408
30.34000 2.092
30.36000 -0.817
30.38000 1.415
30.40000 2.066
30.42000 3.816
30.44000 5.423
30.46000 1.985
30.48000 -0.914
30.50000 0.278
30.52000 6.178
30.54000 4.888
30.56000 0.798
30.58000 4.933
30.60000 5.254
30.62000 9.029
30.64000 1.697
30.66000 1.303
30.68000 -0.417
30.70000 -1.307
30.72000 2.049
30.74000 3.431
30.76000 2.667
30.78000 9.167
30.80000 9.588
30.82000 5.567
30.84000 1.451
30.86000 -3.613
30.88000 -0.664
30.90000 1.559
30.92000 3.292
30.94000 6.892
30.96000 7.621
30.98000 9.053
31.00000 9.088
31.02000 12.010
31.04000 8.041
31.06000 3.352
31.08000 3.952
31.10000 4.247
31.12000 1.935
31.14000 0.984
31.16000 2.900
31.18000 8.173
31.20000 5.890
31.22000 5.039
31.24000 6.307
31.26000 5.419
31.28000 7.938
31.30000 5.855
31.32000 1.397
31.34000 -0.371
31.36000 2.960
31.38000 -0.328
31.40000 0.372
31.42000 0.871
31.44000 -1.830
31.46000 3.213
31.48000 2.529
31.50000 -0.330
31.52000 -0.194
31.54000 1.683
31.56000 1.936
31.58000 1.028
31.60000 4.263
31.62000 5.059
31.64000 0.541
31.66000 4.944
31.68000 6.323
31.70000 6.027
31.72000 5.524
31.74000 -0.169
31.76000 -0.547
31.78000 0.573
31.80000 -1.796
31.82000 -1.273
31.84000 0.002
31.86000 2.821
31.88000 0.760
31.90000 -0.025
31.92000 1.621
31.94000 5.831
31.96000 3.907
31.98000 0.460
32.00000 2.943
32.02000 6.997
32.04000 1.636
32.06000 -2.381
32.08000 0.551
32.10000 2.173
32.12000 -0.267
32.14000 6.773
32.16000 7.101
32.18000 2.416
32.20000 -0.841
32.22000 3.342
32.24000 1.474
32.26000 -0.335
32.28000 -0.429
32.30000 1.804
32.32000 3.721
32.34000 2.965
32.36000 3.677
32.38000 5.559
32.40000 1.414
32.42000 2.788
32.44000 1.361
32.46000 4.171
32.48000 2.507
32.50000 -3.500
32.52000 0.133
32.54000 -1.591
32.56000 -0.057
32.58000 3.087
32.60000 0.836
32.62000 2.033
32.64000 7.291
32.66000 4.530
32.68000 1.706
32.70000 4.179
32.72000 3.759
32.74000 7.269
32.76000 6.374
32.78000 4.704
32.80000 3.168
32.82000 -2.911
32.84000 -2.788
32.86000 -3.538
32.88000 1.859
32.90000 6.580
32.92000 6.051
32.94000 5.833
32.96000 3.768
32.98000 4.457
33.00000 2.639
33.02000 -0.933
33.04000 4.710
33.06000 7.213
33.08000 6.790
33.10000 7.101
33.12000 5.796
33.14000 1.857
33.16000 0.736
33.18000 1.846
33.20000 2.640
33.22000 2.455
33.24000 6.650
33.26000 1.537
33.28000 0.072
33.30000 1.683
33.32000 1.948
33.34000 6.572
33.36000 3.394
33.38000 5.293
33.40000 3.647
33.42000 4.207
33.44000 6.609
33.46000 7.968
33.48000 6.817
33.50000 4.604
33.52000 7.653
33.54000 9.962
33.56000 4.442
33.58000 1.362
33.60000 1.532
33.62000 1.309
33.64000 4.991
33.66000 2.423
33.68000 4.999
33.70000 9.205
33.72000 7.263
33.74000 0.940
33.76000 5.437
33.78000 10.905
33.80000 13.103
33.82000 6.358
33.84000 5.187
33.86000 0.174
33.88000 3.059
33.90000 6.231
33.92000 -0.453
33.94000 1.686
33.96000 2.634
33.98000 -0.070
34.00000 6.561
34.02000 4.383
34.04000 7.174
34.06000 3.463
34.08000 2.443
34.10000 2.739
34.12000 1.422
34.14000 6.966
34.16000 11.493
34.18000 8.184
34.20000 0.572
34.22000 4.299
34.24000 2.391
34.26000 0.696
34.28000 -2.541
34.30000 -0.883
34.32000 4.915
34.34000 1.624
34.36000 3.007
34.38000 5.377
34.40000 3.891
34.42000 7.635
34.44000 3.625
34.46000 3.843
34.48000 0.728
34.50000 6.060
34.52000 6.383
34.54000 3.665
34.56000 2.660
34.58000 6.899
34.60000 5.192
34.62000 2.882
34.64000 6.282
34.66000 2.027
34.68000 2.242
34.70000 2.240
34.72000 -1.419
34.74000 -3.547
34.76000 2.817
34.78000 3.999
34.80000 0.418
34.82000 0.782
34.84000 2.753
34.86000 -0.966
34.88000 0.067
34.90000 -2.517
34.92000 1.168
34.94000 3.410
34.96000 0.135
34.98000 2.206
35.00000 1.609
35.02000 9.824
35.04000 6.831
35.06000 4.407
35.08000 0.800
35.10000 4.962
35.12000 4.986
35.14000 1.125
35.16000 0.170
35.18000 1.998
35.20000 2.072
35.22000 0.758
35.24000 -2.643
35.26000 0.014
35.28000 -1.510
35.30000 -0.822
35.32000 -0.714
35.34000 0.518
35.36000 -1.012
35.38000 -0.956
35.40000 0.208
35.42000 2.699
35.44000 -1.089
35.46000 -1.397
35.48000 5.065
35.50000 0.707
35.52000 -1.332
35.54000 4.696
35.56000 4.214
35.58000 3.255
35.60000 2.428
35.62000 1.368
35.64000 5.122
35.66000 8.488
35.68000 5.275
35.70000 1.612
35.72000 5.340
35.74000 5.732
35.76000 4.819
35.78000 0.043
35.80000 -3.523
35.82000 -0.828
35.84000 1.118
35.86000 1.866
35.88000 -0.045
35.90000 5.214
35.92000 6.195
35.94000 4.946
35.96000 5.089
35.98000 7.641
36.00000 4.619
36.02000 5.449
36.04000 6.196
36.06000 1.640
36.08000 1.027
36.10000 2.848
36.12000 3.142
36.14000 2.026
36.16000 0.714
36.18000 1.582
36.20000 0.868
36.22000 -0.980
36.24000 -0.802
36.26000 -0.353
36.28000 3.247
36.30000 0.772
36.32000 0.823
36.34000 3.004
36.36000 5.633
36.38000 5.208
36.40000 3.146
36.42000 1.899
36.44000 1.797
36.46000 1.723
36.48000 -0.210
36.50000 -1.306
36.52000 2.647
36.54000 2.934
36.56000 3.561
36.58000 1.563
36.60000 -1.994
36.62000 2.431
36.64000 5.726
36.66000 3.549
36.68000 -3.570
36.70000 3.398
36.72000 7.900
36.74000 3.621
36.76000 3.430
36.78000 4.988
36.80000 -0.393
36.82000 0.424
36.84000 4.840
36.86000 5.373
36.88000 -2.092
36.90000 -3.583
36.92000 0.566
36.94000 6.732
36.96000 5.567
36.98000 4.750
37.00000 5.641
37.02000 9.040
37.04000 7.740
37.06000 0.228
37.08000 4.511
37.10000 6.488
37.12000 1.947
37.14000 4.756
37.16000 7.049
37.18000 3.440
37.20000 3.046
37.22000 7.491
37.24000 8.525
37.26000 7.409
37.28000 6.532
37.30000 5.943
37.32000 1.297
37.34000 0.074
37.36000 5.259
37.38000 9.307
37.40000 8.921
37.42000 11.947
37.44000 11.831
37.46000 13.566
37.48000 10.482
37.50000 9.868
37.52000 8.754
37.54000 6.669
37.56000 11.310
37.58000 10.392
37.60000 9.395
37.62000 9.293
37.64000 8.111
37.66000 10.153
37.68000 9.603
37.70000 13.856
37.72000 13.767
37.74000 15.356
37.76000 15.153
37.78000 12.991
37.80000 14.293
37.82000 18.106
37.84000 15.776
37.86000 11.889
37.88000 15.820
37.90000 19.850
37.92000 17.324
37.94000 11.263
37.96000 15.758
37.98000 15.770
38.00000 18.354
38.02000 19.421
38.04000 18.074
38.06000 19.888
38.08000 24.624
38.10000 27.655
38.12000 28.047
38.14000 29.614
38.16000 27.323
38.18000 28.376
38.20000 28.042
38.22000 25.671
38.24000 31.066
38.26000 31.096
38.28000 31.698
38.30000 33.981
38.32000 38.834
38.34000 39.717
38.36000 36.954
38.38000 29.186
38.40000 32.744
38.42000 33.035
38.44000 36.942
38.46000 41.924
38.48000 44.463
38.50000 48.334
38.52000 52.037
38.54000 52.693
38.56000 47.685
38.58000 51.275
38.60000 54.626
38.62000 58.852
38.64000 63.118
38.66000 64.048
38.68000 67.659
38.70000 71.652
38.72000 73.764
38.74000 73.415
38.76000 76.355
38.78000 73.013
38.80000 80.732
38.82000 87.430
38.84000 92.242
38.86000 93.601
38.88000 103.977
38.90000 109.693
38.92000 110.192
38.94000 109.072
38.96000 116.210
38.98000 130.476
39.00000 135.767
39.02000 140.833
39.04000 149.741
39.06000 170.368
39.08000 172.193
39.10000 175.929
39.12000 186.036
39.14000 195.091
39.16000 206.007
39.18000 223.901
39.20000 239.468
39.22000 252.996
39.24000 269.437
39.26000 281.275
39.28000 294.700
39.30000 315.335
39.32000 337.678
39.34000 361.566
39.36000 381.642
39.38000 405.424
39.40000 426.909
39.42000 448.833
39.44000 467.060
39.46000 493.691
39.48000 520.690
39.50000 537.784
39.52000 562.848
39.54000 599.668
39.56000 617.795
39.58000 630.686
39.60000 659.122
39.62000 675.940
39.64000 704.665
39.66000 716.112
39.68000 715.160
39.70000 744.765
39.72000 754.756
39.74000 750.095
39.76000 755.474
39.78000 752.170
39.80000 742.531
39.82000 737.967
39.84000 727.320
39.86000 721.620
39.88000 717.949
39.90000 693.080
39.92000 669.597
39.94000 659.226
39.96000 642.062
39.98000 616.451
40.00000 597.276
40.02000 572.185
40.04000 544.242
40.06000 516.126
40.08000 499.426
40.10000 482.271
40.12000 453.321
40.14000 432.491
40.16000 414.685
40.18000 388.629
40.20000 360.142
40.22000 340.731
40.24000 319.321
40.26000 296.014
40.28000 281.657
40.30000 267.929
40.32000 252.273
40.34000 236.674
40.36000 222.929
40.38000 205.708
40.40000 186.246
40.42000 182.419
40.44000 170.730
40.46000 150.315
40.48000 147.144
40.50000 137.445
40.52000 125.601
40.54000 116.521
40.56000 111.052
40.58000 106.866
40.60000 101.658
40.62000 93.295
40.64000 94.177
40.66000 88.415
40.68000 81.009
40.70000 77.631
40.72000 71.262
40.74000 63.176
40.76000 60.207
40.78000 57.215
40.80000 53.621
40.82000 50.316
40.84000 49.128
40.86000 46.103
40.88000 48.550
40.90000 43.773
40.92000 38.627
40.94000 36.758
40.96000 32.310
40.98000 29.594
41.00000 29.733
41.02000 28.633
41.04000 28.221
41.06000 27.900
41.08000 27.612
41.10000 27.819
41.12000 23.383
41.14000 26.447
41.16000 24.836
41.18000 24.073
41.20000 22.026
41.22000 18.464
41.24000 16.482
41.26000 12.650
41.28000 15.049
41.30000 14.043
41.32000 16.222
41.34000 12.470
41.36000 14.291
41.38000 9.885
41.40000 7.370
41.42000 6.349
41.44000 7.816
41.46000 4.813
41.48000 7.812
41.50000 5.999
41.52000 10.875
41.54000 9.906
41.56000 14.714
41.58000 12.745
41.60000 11.699
41.62000 6.534
41.64000 6.497
41.66000 6.386
41.68000 7.513
41.70000 6.132
41.72000 9.387
41.74000 7.169
41.76000 6.983
41.78000 7.973
41.80000 5.612
41.82000 4.701
41.84000 6.529
41.86000 6.356
41.88000 4.842
41.90000 5.734
41.92000 4.167
41.94000 2.555
41.96000 0.914
41.98000 -0.447
42.00000 0.175
42.02000 3.078
42.04000 5.187
42.06000 0.442
42.08000 0.645
42.10000 -0.218
42.12000 1.078
42.14000 1.773
42.16000 0.282
42.18000 5.465
42.20000 5.884
42.22000 6.918
42.24000 4.823
42.26000 1.536
42.28000 2.107
42.30000 1.998
42.32000 2.857
42.34000 2.781
42.36000 1.532
42.38000 -0.821
42.40000 1.257
42.42000 0.413
42.44000 4.812
42.46000 4.312
42.48000 1.255
42.50000 -1.141
42.52000 1.156
42.54000 -0.287
42.56000 4.443
42.58000 6.027
42.60000 6.045
42.62000 4.468
42.64000 2.192
42.66000 5.390
42.68000 2.954
42.70000 1.370
42.72000 4.391
42.74000 4.236
42.76000 4.703
42.78000 -0.022
42.80000 -3.257
42.82000 2.055
42.84000 3.665
42.86000 -0.031
42.88000 -0.819
42.90000 3.744
42.92000 1.063
42.94000 1.575
42.96000 2.978
42.98000 0.778
43.00000 4.734
43.02000 -0.366
43.04000 0.688
43.06000 2.275
43.08000 1.553
43.10000 1.443
43.12000 1.981
43.14000 0.851
43.16000 3.609
43.18000 5.310
43.20000 -0.066
43.22000 -1.383
43.24000 -0.737
43.26000 3.809
43.28000 6.757
43.30000 1.301
43.32000 0.999
43.34000 4.839
43.36000 6.175
43.38000 2.043
43.40000 -1.539
43.42000 0.750
43.44000 3.287
43.46000 2.579
43.48000 -0.145
43.50000 1.412
43.52000 0.961
43.54000 0.516
43.56000 0.156
43.58000 -3.185
43.60000 -0.850
43.62000 1.746
43.64000 -0.046
43.66000 -0.199
43.68000 0.973
43.70000 3.231
43.72000 2.199
43.74000 0.363
43.76000 4.104
43.78000 5.044
43.80000 4.831
43.82000 3.047
43.84000 1.597
43.86000 3.236
43.88000 0.270
43.90000 -3.159
43.92000 0.307
43.94000 4.037
43.96000 5.139
43.98000 3.736
44.00000 2.428
44.02000 0.854
44.04000 1.160
44.06000 0.691
44.08000 4.575
44.10000 5.321
44.12000 3.846
44.14000 4.083
44.16000 3.849
44.18000 -0.309
44.20000 1.845
44.22000 -1.370
44.24000 0.364
44.26000 2.850
44.28000 -0.536
44.30000 -3.148
44.32000 -1.459
44.34000 -0.906
44.36000 0.159
44.38000 2.325
44.40000 1.253
44.42000 3.549
44.44000 2.473
44.46000 2.787
44.48000 1.225
44.50000 2.292
44.52000 1.672
44.54000 2.896
44.56000 4.756
44.58000 2.082
44.60000 0.752
44.62000 -0.781
44.64000 0.745
44.66000 -0.210
44.68000 2.819
44.70000 3.468
44.72000 4.338
44.74000 2.466
44.76000 3.069
44.78000 1.929
44.80000 7.662
44.82000 5.191
44.84000 4.499
44.86000 2.329
44.88000 0.640
44.90000 1.445
44.92000 1.729
44.94000 0.753
44.96000 1.288
44.98000 2.916
45.00000 5.707
45.02000 6.255
45.04000 2.205
45.06000 4.285
45.08000 2.410
45.10000 3.464
45.12000 4.270
45.14000 2.443
45.16000 2.328
45.18000 7.042
45.20000 9.184
45.22000 7.890
45.24000 5.872
45.26000 6.147
45.28000 8.152
45.30000 12.079
45.32000 11.556
45.34000 8.303
45.36000 8.324
45.38000 11.586
45.40000 11.813
45.42000 13.093
45.44000 15.684
45.46000 10.976
45.48000 12.337
45.50000 12.969
45.52000 11.871
45.54000 15.340
45.56000 19.225
45.58000 22.930
45.60000 22.883
45.62000 19.073
45.64000 22.920
45.66000 21.524
45.68000 23.117
45.70000 25.609
45.72000 25.372
45.74000 26.772
45.76000 22.945
45.78000 25.495
45.80000 28.503
45.82000 28.177
45.84000 31.626
45.86000 33.942
45.88000 31.147
45.90000 39.122
45.92000 40.571
45.94000 40.917
45.96000 44.226
45.98000 47.088
46.00000 49.047
46.02000 54.049
46.04000 51.013
46.06000 48.298
46.08000 54.004
46.10000 54.094
46.12000 56.465
46.14000 60.801
46.16000 57.562
46.18000 56.570
46.20000 60.929
46.22000 65.132
46.24000 65.799
46.26000 64.369
46.28000 66.071
46.30000 65.729
46.32000 68.455
46.34000 72.899
46.36000 79.338
46.38000 77.735
46.40000 73.462
46.42000 72.291
46.44000 78.422
46.46000 81.248
46.48000 79.393
46.50000 79.607
46.52000 81.993
46.54000 80.663
46.56000 76.830
46.58000 70.432
46.60000 73.116
46.62000 75.594
46.64000 73.460
46.66000 70.955
46.68000 68.512
46.70000 61.625
46.72000 62.392
46.74000 63.478
46.76000 60.290
46.78000 51.848
46.80000 49.300
46.82000 53.955
46.84000 54.069
46.86000 53.077
46.88000 50.580
46.90000 50.893
46.92000 51.022
46.94000 45.493
46.96000 42.020
46.98000 40.765
47.00000 34.374
47.02000 35.552
47.04000 35.464
47.06000 30.187
47.08000 29.168
47.10000 26.921
47.12000 25.206
47.14000 25.220
47.16000 27.888
47.18000 23.841
47.20000 17.422
47.22000 16.942
47.24000 18.051
47.26000 14.101
47.28000 13.040
47.30000 12.545
47.32000 12.719
47.34000 9.289
47.36000 8.929
47.38000 7.627
47.40000 7.141
47.42000 10.252
47.44000 10.703
47.46000 7.140
47.48000 6.766
47.50000 3.425
47.52000 5.173
47.54000 5.665
47.56000 3.346
47.58000 3.115
47.60000 1.117
47.62000 0.899
47.64000 4.350
47.66000 4.800
47.68000 4.248
47.70000 1.756
47.72000 1.435
47.74000 2.940
47.76000 2.531
47.78000 3.639
47.80000 0.731
47.82000 0.996
47.84000 2.689
47.86000 1.137
47.88000 0.590
47.90000 3.783
47.92000 3.200
47.94000 -2.811
47.96000 -1.400
47.98000 0.719
48.00000 0.055
48.02000 3.403
48.04000 4.408
48.06000 0.831
48.08000 3.404
48.10000 5.648
48.12000 4.323
48.14000 0.787
48.16000 -2.701
48.18000 0.934
48.20000 1.188
48.22000 -2.752
48.24000 0.315
48.26000 2.577
48.28000 2.339
48.30000 -0.087
48.32000 0.478
48.34000 2.086
48.36000 9.490
48.38000 5.087
48.40000 -0.519
48.42000 1.212
48.44000 3.466
48.46000 -0.360
48.48000 0.629
48.50000 1.653
48.52000 1.544
48.54000 1.447
48.56000 1.156
48.58000 0.504
48.60000 -0.723
48.62000 2.726
48.64000 6.198
48.66000 4.813
48.68000 -0.522
48.70000 -2.160
48.72000 -1.786
48.74000 -1.175
48.76000 -2.682
48.78000 3.685
48.80000 4.381
48.82000 3.440
48.84000 2.606
48.86000 2.384
48.88000 0.464
48.90000 -1.006
48.92000 2.698
48.94000 5.291
48.96000 3.330
48.98000 1.972
49.00000 -1.606
49.02000 2.227
49.04000 1.834
49.06000 -1.174
49.08000 1.244
49.10000 0.726
49.12000 4.714
49.14000 3.982
49.16000 0.481
49.18000 0.449
49.20000 4.324
49.22000 4.265
49.24000 0.648
49.26000 -0.030
49.28000 3.613
49.30000 6.285
49.32000 3.808
49.34000 0.599
49.36000 -0.065
49.38000 0.219
49.40000 -1.384
49.42000 1.595
49.44000 1.381
49.46000 1.717
49.48000 -1.206
49.50000 -0.223
49.52000 -2.636
49.54000 0.574
49.56000 -0.173
49.58000 -1.972
49.60000 -1.402
49.62000 1.882
49.64000 -0.107
49.66000 2.837
49.68000 4.270
49.70000 2.258
49.72000 1.074
49.74000 3.382
49.76000 2.689
49.78000 4.123
49.80000 5.182
49.82000 6.056
49.84000 7.184
49.86000 5.052
49.88000 2.406
49.90000 1.506
49.92000 1.066
49.94000 -0.950
49.96000 0.727
49.98000 3.182
50.00000 -1.293
50.02000 -0.974
50.04000 1.016
50.06000 0.153
50.08000 1.352
50.10000 3.532
50.12000 -0.181
50.14000 0.224
50.16000 -1.064
50.18000 -2.601
50.20000 -2.414
50.22000 0.141
50.24000 -0.466
50.26000 2.442
50.28000 0.372
50.30000 -2.177
50.32000 -1.150
50.34000 1.332
50.36000 1.560
50.38000 2.631
50.40000 -0.380
50.42000 0.342
50.44000 -2.498
50.46000 1.956
50.48000 2.476
50.50000 -0.875
50.52000 0.058
50.54000 -2.576
50.56000 0.788
50.58000 3.814
50.60000 3.217
50.62000 2.699
50.64000 1.694
50.66000 1.939
50.68000 4.223
50.70000 -1.094
50.72000 -2.584
50.74000 0.079
50.76000 1.101
50.78000 4.265
50.80000 3.443
50.82000 3.586
50.84000 4.502
50.86000 2.855
50.88000 3.000
50.90000 2.404
50.92000 -0.172
50.94000 3.000
50.96000 5.673
50.98000 4.400
51.00000 -1.157
51.02000 1.010
51.04000 2.361
51.06000 2.868
51.08000 -1.453
51.10000 0.480
51.12000 -0.979
51.14000 -1.075
51.16000 1.338
51.18000 3.362
51.20000 3.364
51.22000 2.259
51.24000 1.353
51.26000 1.968
51.28000 2.313
51.30000 1.387
51.32000 6.020
51.34000 3.893
51.36000 3.623
51.38000 0.713
51.40000 1.411
51.42000 3.355
51.44000 0.559
51.46000 -0.305
51.48000 -0.825
51.50000 -0.034
51.52000 1.620
51.54000 4.994
51.56000 0.826
51.58000 2.816
51.60000 3.021
51.62000 1.912
51.64000 4.129
51.66000 6.412
51.68000 6.043
51.70000 2.771
51.72000 1.094
51.74000 3.808
51.76000 3.119
51.78000 1.608
51.80000 1.042
51.82000 0.176
51.84000 -2.506
51.86000 0.418
51.88000 4.621
51.90000 7.015
51.92000 2.820
51.94000 4.808
51.96000 5.457
51.98000 2.825
52.00000 4.212
52.02000 5.797
52.04000 7.029
52.06000 6.336
52.08000 -0.002
52.10000 -1.186
52.12000 -0.745
52.14000 6.159
52.16000 9.090
52.18000 6.455
52.20000 -0.618
52.22000 0.732
52.24000 2.414
52.26000 2.915
52.28000 2.265
52.30000 2.321
52.32000 2.006
52.34000 2.558
52.36000 3.979
52.38000 3.831
52.40000 3.995
52.42000 0.524
52.44000 -1.525
52.46000 -0.731
52.48000 0.221
52.50000 -0.263
52.52000 -0.069
52.54000 -0.676
52.56000 -0.789
52.58000 -1.459
52.60000 1.097
52.62000 1.895
52.64000 4.713
52.66000 4.176
52.68000 1.830
52.70000 0.164
52.72000 -2.520
52.74000 -1.036
52.76000 0.046
52.78000 2.528
52.80000 3.307
52.82000 2.595
52.84000 2.285
52.86000 1.572
52.88000 1.293
52.90000 5.384
52.92000 4.704
52.94000 5.394
52.96000 8.105
52.98000 6.593
53.00000 3.950
53.02000 2.403
53.04000 3.419
53.06000 6.061
53.08000 1.715
53.10000 0.266
53.12000 0.592
53.14000 6.586
53.16000 4.430
53.18000 0.196
53.20000 -0.773
53.22000 -0.822
53.24000 3.696
53.26000 1.383
53.28000 2.067
53.30000 3.487
53.32000 4.420
53.34000 -0.520
53.36000 -0.096
53.38000 0.304
53.40000 -2.513
53.42000 -2.206
53.44000 -1.751
53.46000 0.222
53.48000 3.443
53.50000 3.857
53.52000 1.719
53.54000 -0.105
53.56000 0.698
53.58000 1.125
53.60000 0.746
53.62000 0.102
53.64000 0.631
53.66000 1.409
53.68000 1.351
53.70000 4.585
53.72000 0.838
53.74000 -2.504
53.76000 0.377
53.78000 -1.571
53.80000 2.045
53.82000 1.899
53.84000 -1.536
53.86000 -0.956
53.88000 2.384
53.90000 -0.881
53.92000 0.530
53.94000 -0.747
53.96000 0.396
53.98000 2.343
54.00000 3.413
54.02000 -2.381
54.04000 0.078
54.06000 5.247
54.08000 2.489
54.10000 0.101
54.12000 4.119
54.14000 5.082
54.16000 2.081
54.18000 1.649
54.20000 2.319
54.22000 3.101
54.24000 3.090
54.26000 5.813
54.28000 1.495
54.30000 0.441
54.32000 0.463
54.34000 0.973
54.36000 1.397
54.38000 0.759
54.40000 -0.847
54.42000 0.595
54.44000 -0.659
54.46000 1.494
54.48000 1.843
54.50000 -0.776
54.52000 -2.462
54.54000 4.300
54.56000 2.314
54.58000 -0.594
54.60000 3.233
54.62000 6.255
54.64000 0.938
54.66000 0.661
54.68000 -0.041
54.70000 -0.857
54.72000 -0.139
54.74000 -0.426
54.76000 0.042
54.78000 5.677
54.80000 2.544
54.82000 1.043
54.84000 -0.002
54.86000 0.963
54.88000 -1.134
54.90000 -0.976
54.92000 1.858
54.94000 5.527
54.96000 0.638
54.98000 4.074
55.00000 1.381
55.02000 0.659
55.04000 -2.106
55.06000 1.016
55.08000 0.308
55.10000 -2.463
55.12000 1.410
55.14000 0.225
55.16000 0.261
55.18000 0.424
55.20000 2.316
55.22000 2.171
55.24000 2.865
55.26000 2.072
55.28000 0.669
55.30000 3.551
55.32000 2.268
55.34000 -1.338
55.36000 0.540
55.38000 1.679
55.40000 2.435
55.42000 3.807
55.44000 5.740
55.46000 3.500
55.48000 2.621
55.50000 -1.039
55.52000 -0.622
55.54000 3.146
55.56000 0.183
55.58000 0.467
55.60000 0.669
55.62000 0.631
55.64000 -2.193
55.66000 1.822
55.68000 2.145
55.70000 -0.290
55.72000 -0.214
55.74000 -0.887
55.76000 1.221
55.78000 2.497
55.80000 3.138
55.82000 0.554
55.84000 -0.521
55.86000 1.095
55.88000 -0.479
55.90000 1.462
55.92000 -0.108
55.94000 3.868
55.96000 4.292
55.98000 0.108
56.00000 0.089
56.02000 -0.404
56.04000 -2.422
56.06000 0.052
56.08000 3.131
56.10000 1.936
56.12000 0.903
56.14000 -0.074
56.16000 4.463
56.18000 3.386
56.20000 1.749
56.22000 2.726
56.24000 0.957
56.26000 3.451
56.28000 2.108
56.30000 1.172
56.32000 2.813
56.34000 4.609
56.36000 2.468
56.38000 3.804
56.40000 1.876
56.42000 2.361
56.44000 1.682
56.46000 0.147
56.48000 1.538
56.50000 1.827
56.52000 1.967
56.54000 -1.992
56.56000 -0.632
56.58000 -0.655
56.60000 -2.409
56.62000 0.109
56.64000 3.156
56.66000 2.828
56.68000 0.198
56.70000 -2.247
56.72000 1.935
56.74000 2.102
56.76000 3.946
56.78000 3.512
56.80000 3.968
56.82000 0.051
56.84000 -1.017
56.86000 0.218
56.88000 -1.711
56.90000 -1.185
56.92000 3.767
56.94000 3.700
56.96000 4.266
56.98000 1.314
57.00000 0.846
57.02000 -0.780
57.04000 5.300
57.06000 0.040
57.08000 0.633
57.10000 0.633
57.12000 -0.163
57.14000 2.802
57.16000 3.110
57.18000 0.542
57.20000 -1.688
57.22000 -0.144
57.24000 0.791
57.26000 -1.774
57.28000 2.475
57.30000 1.572
57.32000 0.499
57.34000 1.795
57.36000 2.163
57.38000 2.317
57.40000 2.040
57.42000 1.061
57.44000 -1.903
57.46000 0.053
57.48000 0.889
57.50000 -0.113
57.52000 2.927
57.54000 0.582
57.56000 3.296
57.58000 4.987
57.60000 5.371
57.62000 1.535
57.64000 0.566
57.66000 3.120
57.68000 -1.299
57.70000 -0.086
57.72000 3.017
57.74000 3.733
57.76000 1.929
57.78000 -2.375
57.80000 -2.286
57.82000 -1.477
57.84000 2.550
57.86000 4.750
57.88000 2.215
57.90000 5.077
57.92000 5.655
57.94000 4.950
57.96000 3.337
57.98000 4.695
58.00000 4.532
58.02000 2.048
58.04000 0.983
58.06000 -1.579
58.08000 1.058
58.10000 5.120
58.12000 3.553
58.14000 6.893
58.16000 6.918
58.18000 1.842
58.20000 0.807
58.22000 1.503
58.24000 0.906
58.26000 2.826
58.28000 4.896
58.30000 6.176
58.32000 4.228
58.34000 3.439
58.36000 1.411
58.38000 -2.362
58.40000 -0.474
58.42000 1.255
58.44000 -0.962
58.46000 0.316
58.48000 1.608
58.50000 1.067
58.52000 1.236
58.54000 2.873
58.56000 -0.763
58.58000 -1.164
58.60000 -0.478
58.62000 -0.559
58.64000 -2.351
58.66000 -1.568
58.68000 2.763
58.70000 2.143
58.72000 5.314
58.74000 3.463
58.76000 3.318
58.78000 1.152
58.80000 -1.945
58.82000 2.631
58.84000 4.929
58.86000 2.274
58.88000 3.349
58.90000 4.924
58.92000 3.718
58.94000 3.041
58.96000 2.494
58.98000 2.468
59.00000 1.446
59.02000 0.159
59.04000 -0.078
59.06000 0.927
59.08000 3.949
59.10000 3.008
59.12000 1.080
59.14000 -2.334
59.16000 0.639
59.18000 -0.211
59.20000 -0.519
59.22000 -0.234
59.24000 5.253
59.26000 5.165
59.28000 1.442
59.30000 2.274
59.32000 0.598
59.34000 0.349
59.36000 1.404
59.38000 -0.324
59.40000 0.081
59.42000 1.078
59.44000 1.481
59.46000 2.431
59.48000 0.271
59.50000 1.023
59.52000 4.453
59.54000 6.534
59.56000 0.662
59.58000 -2.321
59.60000 -2.221
59.62000 -2.216
59.64000 2.695
59.66000 3.902
59.68000 4.164
59.70000 1.939
59.72000 0.490
59.74000 -1.107
59.76000 0.854
59.78000 1.549
59.80000 2.270
59.82000 0.423
59.84000 -1.613
59.86000 0.543
59.88000 1.346
59.90000 2.787
59.92000 2.639
59.94000 0.449
59.96000 1.079
59.98000 3.414
60.00000 0.674
60.02000 1.317
60.04000 2.907
60.06000 4.793
60.08000 6.025
60.10000 0.833
60.12000 0.227
60.14000 2.433
60.16000 4.507
60.18000 2.573
60.20000 2.017
60.22000 0.919
60.24000 1.413
60.26000 3.550
60.28000 0.982
60.30000 3.679
60.32000 4.284
60.34000 4.402
60.36000 3.861
60.38000 -0.469
60.40000 -0.663
60.42000 -0.088
60.44000 2.842
60.46000 5.300
60.48000 -2.300
60.50000 0.364
60.52000 4.751
60.54000 1.850
60.56000 3.082
60.58000 3.726
60.60000 5.856
60.62000 4.161
60.64000 2.862
60.66000 4.034
60.68000 3.383
60.70000 0.478
60.72000 4.411
60.74000 2.266
60.76000 3.259
60.78000 4.724
60.80000 1.957
60.82000 0.006
60.84000 -0.306
60.86000 2.528
60.88000 4.009
60.90000 4.747
60.92000 4.716
60.94000 1.342
60.96000 2.077
60.98000 3.041
61.00000 2.000
61.02000 -1.088
61.04000 1.975
61.06000 5.688
61.08000 2.888
61.10000 2.325
61.12000 2.354
61.14000 0.375
61.16000 0.758
61.18000 2.959
61.20000 1.581
61.22000 -0.698
61.24000 -2.266
61.26000 -1.289
61.28000 -0.719
61.30000 2.513
61.32000 3.958
61.34000 1.866
61.36000 0.823
61.38000 2.640
61.40000 2.476
61.42000 1.317
61.44000 -0.832
61.46000 0.875
61.48000 2.334
61.50000 4.431
61.52000 2.705
61.54000 2.214
61.56000 5.463
61.58000 6.643
61.60000 8.264
61.62000 9.703
61.64000 5.437
61.66000 2.322
61.68000 3.796
61.70000 4.871
61.72000 6.721
61.74000 1.352
61.76000 2.024
61.78000 1.219
61.80000 -1.078
61.82000 -0.784
61.84000 0.157
61.86000 -0.853
61.88000 1.168
61.90000 1.688
61.92000 -0.545
61.94000 1.868
61.96000 4.755
61.98000 6.276
62.00000 4.371
62.02000 1.387
62.04000 3.710
62.06000 2.560
62.08000 -2.238
62.10000 -0.750
62.12000 0.481
62.14000 2.253
62.16000 2.325
62.18000 -0.086
62.20000 1.955
62.22000 3.498
62.24000 -1.174
62.26000 1.247
62.28000 2.551
62.30000 4.044
62.32000 2.469
62.34000 3.442
62.36000 0.528
62.38000 1.893
62.40000 2.003
62.42000 2.491
62.44000 -0.757
62.46000 -0.061
62.48000 2.614
62.50000 5.446
62.52000 1.932
62.54000 2.658
62.56000 1.056
62.58000 0.924
62.60000 0.779
62.62000 3.760
62.64000 5.503
62.66000 4.105
62.68000 0.996
62.70000 -0.609
62.72000 3.454
62.74000 2.703
62.76000 4.963
62.78000 3.247
62.80000 -2.223
62.82000 1.641
62.84000 3.146
62.86000 4.359
62.88000 3.395
62.90000 3.728
62.92000 2.614
62.94000 1.444
62.96000 0.578
62.98000 0.646
63.00000 1.946
63.02000 -0.637
63.04000 1.870
63.06000 4.919
63.08000 1.646
63.10000 1.129
63.12000 2.161
63.14000 3.724
63.16000 -1.281
63.18000 -1.968
63.20000 5.434
63.22000 1.914
63.24000 -1.252
63.26000 -2.240
63.28000 -1.236
63.30000 -0.049
63.32000 -1.674
63.34000 -0.662
63.36000 2.085
63.38000 3.025
63.40000 0.776
63.42000 -0.791
63.44000 -1.880
63.46000 -1.632
63.48000 1.146
63.50000 -1.343
63.52000 0.094
63.54000 2.388
63.56000 1.878
63.58000 1.433
63.60000 1.810
63.62000 -0.269
63.64000 0.333
63.66000 -0.955
63.68000 -1.972
63.70000 0.888
63.72000 1.854
63.74000 3.224
63.76000 1.104
63.78000 -0.658
63.80000 -0.189
63.82000 -2.240
63.84000 -2.249
63.86000 1.911
63.88000 3.191
63.90000 3.194
63.92000 1.456
63.94000 0.460
63.96000 2.465
63.98000 4.066
64.00000 1.016
64.02000 0.422
64.04000 0.110
64.06000 -1.006
64.08000 -0.644
64.10000 1.214
64.12000 -0.189
64.14000 -0.778
64.16000 -1.621
64.18000 -1.770
64.20000 1.383
64.22000 0.853
64.24000 -0.905
64.26000 0.485
64.28000 -0.169
64.30000 1.663
64.32000 1.189
64.34000 2.213
64.36000 2.863
64.38000 2.247
64.40000 2.401
64.42000 1.077
64.44000 1.885
64.46000 1.256
64.48000 -2.232
64.50000 -0.643
64.52000 1.080
64.54000 -0.755
64.56000 -1.947
64.58000 -0.396
64.60000 2.410
64.62000 3.569
64.64000 1.990
64.66000 2.489
64.68000 0.526
64.70000 1.582
64.72000 4.796
64.74000 7.709
64.76000 5.892
64.78000 3.179
64.80000 2.256
64.82000 2.483
64.84000 -0.802
64.86000 -2.217
64.88000 -1.173
64.90000 3.593
64.92000 3.075
64.94000 4.846
64.96000 4.909
64.98000 2.499
65.00000 1.490
65.02000 1.441
65.04000 -0.181
65.06000 -2.217
65.08000 0.134
65.10000 2.091
65.12000 3.749
65.14000 1.333
65.16000 0.160
65.18000 -0.366
65.20000 1.024
65.22000 0.672
65.24000 3.841
65.26000 2.673
65.28000 1.199
65.30000 0.358
65.32000 3.339
65.34000 0.367
65.36000 -1.350
65.38000 0.181
65.40000 1.797
65.42000 1.424
65.44000 0.265
65.46000 -0.714
65.48000 0.894
65.50000 2.285
65.52000 2.643
65.54000 0.331
65.56000 -1.070
65.58000 0.455
65.60000 3.688
65.62000 3.790
65.64000 0.644
65.66000 2.305
65.68000 1.681
65.70000 2.005
65.72000 0.220
65.74000 2.884
65.76000 1.462
65.78000 2.151
65.80000 4.363
65.82000 1.621
65.84000 -1.238
65.86000 -0.558
65.88000 0.385
65.90000 -0.547
65.92000 1.947
65.94000 2.172
65.96000 2.619
65.98000 0.728
66.00000 -2.191
66.02000 2.278
66.04000 1.803
66.06000 3.025
66.08000 2.759
66.10000 0.783
66.12000 0.415
66.14000 2.117
66.16000 3.301
66.18000 2.151
66.20000 3.769
66.22000 3.442
66.24000 -0.292
66.26000 -0.529
66.28000 1.168
66.30000 1.508
66.32000 0.858
66.34000 2.885
66.36000 3.456
66.38000 1.641
66.40000 -0.463
66.42000 0.046
66.44000 2.880
66.46000 1.969
66.48000 1.966
66.50000 2.995
66.52000 4.980
66.54000 5.873
66.56000 4.803
66.58000 3.043
66.60000 -2.232
66.62000 -1.920
66.64000 0.824
66.66000 0.397
66.68000 1.808
66.70000 1.869
66.72000 -0.462
66.74000 -0.108
66.76000 3.864
66.78000 3.789
66.80000 1.406
66.82000 2.528
66.84000 5.832
66.86000 6.542
66.88000 3.542
66.90000 3.939
66.92000 3.699
66.94000 0.995
66.96000 4.027
66.98000 8.051
67.00000 7.273
67.02000 5.868
67.04000 3.284
67.06000 6.395
67.08000 5.303
67.10000 4.443
67.12000 5.594
67.14000 9.237
67.16000 8.699
67.18000 7.773
67.20000 7.565
67.22000 10.135
67.24000 12.840
67.26000 11.713
67.28000 13.741
67.30000 12.212
67.32000 11.648
67.34000 9.891
67.36000 10.542
67.38000 11.260
67.40000 12.923
67.42000 12.224
67.44000 10.208
67.46000 11.867
67.48000 13.481
67.50000 12.474
67.52000 10.912
67.54000 10.649
67.56000 12.563
67.58000 15.553
67.60000 13.268
67.62000 10.227
67.64000 12.314
67.66000 12.748
67.68000 14.149
67.70000 13.155
67.72000 15.655
67.74000 13.567
67.76000 11.713
67.78000 11.644
67.80000 11.601
67.82000 14.608
67.84000 13.308
67.86000 14.835
67.88000 11.023
67.90000 9.915
67.92000 11.525
67.94000 14.588
67.96000 13.534
67.98000 13.182
68.00000 11.224
68.02000 11.382
68.04000 13.790
68.06000 9.764
68.08000 7.991
68.10000 8.658
68.12000 7.048
68.14000 7.963
68.16000 9.828
68.18000 6.255
68.20000 4.849
68.22000 4.870
68.24000 4.671
68.26000 6.122
68.28000 6.833
68.30000 6.599
68.32000 3.674
68.34000 4.259
68.36000 6.161
68.38000 2.959
68.40000 2.947
68.42000 2.521
68.44000 4.912
68.46000 4.207
68.48000 3.713
68.50000 3.218
68.52000 3.085
68.54000 3.653
68.56000 1.149
68.58000 1.296
68.60000 0.332
68.62000 0.867
68.64000 2.294
68.66000 2.453
68.68000 1.287
68.70000 1.744
68.72000 -0.617
68.74000 -0.485
68.76000 -1.106
68.78000 -0.958
68.80000 -0.326
68.82000 -1.342
68.84000 0.763
68.86000 3.758
68.88000 5.388
68.90000 4.024
68.92000 1.712
68.94000 -2.127
68.96000 -0.724
68.98000 -1.113
69.00000 -0.188
69.02000 0.227
69.04000 2.298
69.06000 5.246
69.08000 2.834
69.10000 1.706
69.12000 -2.101
69.14000 -1.432
69.16000 0.755
69.18000 -0.491
69.20000 0.226
69.22000 -0.140
69.24000 -0.412
69.26000 -1.017
69.28000 0.176
69.30000 1.236
69.32000 2.219
69.34000 0.456
69.36000 1.135
69.38000 0.516
69.40000 0.830
69.42000 0.735
69.44000 0.416
69.46000 3.092
69.48000 4.244
69.50000 -0.845
69.52000 -2.087
69.54000 -0.834
69.56000 -0.803
69.58000 0.112
69.60000 0.957
69.62000 1.248
69.64000 2.346
69.66000 2.337
69.68000 -1.481
69.70000 0.184
69.72000 0.880
69.74000 1.999
69.76000 -1.046
69.78000 2.382
69.80000 0.430
69.82000 1.084
69.84000 1.959
69.86000 1.766
69.88000 1.354
69.90000 -0.366
69.92000 -1.055
69.94000 -0.916
69.96000 1.791
69.98000 -0.080
70.00000 -1.264
70.02000 0.270
70.04000 -0.473
70.06000 -2.048
70.08000 0.243
70.10000 0.583
70.12000 2.563
70.14000 3.159
70.16000 2.232
70.18000 1.818
70.20000 0.129
70.22000 2.534
70.24000 1.523
70.26000 1.477
70.28000 0.118
70.30000 2.715
70.32000 4.427
70.34000 0.996
70.36000 0.426
70.38000 -1.043
70.40000 0.842
70.42000 3.392
70.44000 1.897
70.46000 2.821
70.48000 3.061
70.50000 1.057
70.52000 -1.955
70.54000 0.067
70.56000 1.879
70.58000 3.535
70.60000 2.336
70.62000 1.540
70.64000 0.973
70.66000 1.129
70.68000 1.021
70.70000 2.444
70.72000 3.176
70.74000 0.155
70.76000 0.938
70.78000 3.931
70.80000 2.506
70.82000 0.762
70.84000 1.765
70.86000 2.199
70.88000 1.104
70.90000 1.277
70.92000 1.611
70.94000 1.931
70.96000 3.706
70.98000 1.110
71.00000 -0.874
71.02000 0.768
71.04000 3.040
71.06000 2.977
71.08000 2.429
71.10000 -0.708
71.12000 -0.681
71.14000 -0.825
71.16000 -1.997
71.18000 1.354
71.20000 3.312
71.22000 3.439
71.24000 1.246
71.26000 0.014
71.28000 1.307
71.30000 2.575
71.32000 -0.028
71.34000 -0.089
71.36000 2.152
71.38000 2.670
71.40000 1.099
71.42000 -0.464
71.44000 1.024
71.46000 0.852
71.48000 -1.986
71.50000 -0.154
71.52000 0.455
71.54000 -1.228
71.56000 -0.078
71.58000 5.551
71.60000 4.988
71.62000 3.935
71.64000 4.558
71.66000 0.962
71.68000 4.481
71.70000 3.354
71.72000 1.075
71.74000 -0.797
71.76000 -1.305
71.78000 3.446
71.80000 4.226
71.82000 2.666
71.84000 0.627
71.86000 1.481
71.88000 4.176
71.90000 3.414
71.92000 -1.136
71.94000 0.783
71.96000 2.110
71.98000 3.991
72.00000 3.339
72.02000 2.281
72.04000 3.747
72.06000 1.536
72.08000 -1.963
72.10000 -0.419
72.12000 1.868
72.14000 3.721
72.16000 2.320
72.18000 1.862
72.20000 0.763
72.22000 0.197
72.24000 1.190
72.26000 0.403
72.28000 0.288
72.30000 3.298
72.32000 3.168
72.34000 1.720
72.36000 2.782
72.38000 4.028
72.40000 3.038
72.42000 2.722
72.44000 1.867
72.46000 4.576
72.48000 2.992
72.50000 2.419
72.52000 3.094
72.54000 3.146
72.56000 3.395
72.58000 2.191
72.60000 0.614
72.62000 -1.564
72.64000 -1.939
72.66000 3.254
72.68000 2.095
72.70000 1.202
72.72000 1.609
72.74000 4.504
72.76000 1.606
72.78000 1.631
72.80000 0.310
72.82000 -0.089
72.84000 -1.091
72.86000 -1.126
72.88000 0.662
72.90000 2.378
72.92000 -0.534
72.94000 0.568
72.96000 2.496
72.98000 2.295
73.00000 1.908
73.02000 4.311
73.04000 3.499
73.06000 2.946
73.08000 2.089
73.10000 2.320
73.12000 1.431
73.14000 4.505
73.16000 2.203
73.18000 -1.886
73.20000 3.517
73.22000 7.004
73.24000 1.713
73.26000 1.298
73.28000 1.929
73.30000 2.311
73.32000 2.033
73.34000 3.350
73.36000 3.226
73.38000 3.301
73.40000 0.616
73.42000 1.362
73.44000 3.527
73.46000 4.536
73.48000 3.422
73.50000 1.371
73.52000 0.022
73.54000 3.025
73.56000 2.748
73.58000 4.070
73.60000 2.371
73.62000 0.541
73.64000 2.587
73.66000 2.645
73.68000 0.116
73.70000 -0.218
73.72000 -0.285
73.74000 1.789
73.76000 0.918
73.78000 1.747
73.80000 2.457
73.82000 1.400
73.84000 0.427
73.86000 2.929
73.88000 3.074
73.90000 0.391
73.92000 -0.264
73.94000 1.794
73.96000 -1.557
73.98000 -1.206
74.00000 -0.410
74.02000 0.102
74.04000 0.926
74.06000 1.807
74.08000 0.651
74.10000 0.549
74.12000 1.183
74.14000 0.420
74.16000 3.270
74.18000 1.735
74.20000 -0.820
74.22000 -0.561
74.24000 0.310
74.26000 0.910
74.28000 2.364
74.30000 2.619
74.32000 2.745
74.34000 3.483
74.36000 2.428
74.38000 2.289
74.40000 3.305
74.42000 1.783
74.44000 1.053
74.46000 1.312
74.48000 1.277
74.50000 2.722
74.52000 1.689
74.54000 -1.508
74.56000 -1.196
74.58000 1.325
74.60000 -1.942
74.62000 -1.926
74.64000 0.513
74.66000 1.704
74.68000 0.469
74.70000 -1.274
74.72000 -0.734
74.74000 -0.997
74.76000 -0.780
74.78000 0.868
74.80000 -1.207
74.82000 1.289
74.84000 2.609
74.86000 1.376
74.88000 0.251
74.90000 -0.095
74.92000 0.985
74.94000 2.395
74.96000 1.766
74.98000 2.887
75.00000 1.346
75.02000 -1.636
75.04000 1.589
75.06000 0.794
75.08000 0.038
75.10000 -1.302
75.12000 -1.263
75.14000 -1.904
75.16000 0.699
75.18000 0.710
75.20000 -1.541
75.22000 1.818
75.24000 1.866
75.26000 0.188
75.28000 -0.482
75.30000 2.996
75.32000 4.625
75.34000 3.369
75.36000 1.210
75.38000 -0.582
75.40000 0.060
75.42000 1.303
75.44000 2.592
75.46000 0.102
75.48000 1.513
75.50000 2.097
75.52000 2.449
75.54000 -0.137
75.56000 -1.925
75.58000 -0.850
75.60000 -0.559
75.62000 -0.110
75.64000 1.367
75.66000 2.075
75.68000 2.829
75.70000 1.134
75.72000 2.405
75.74000 2.149
75.76000 0.882
75.78000 2.291
75.80000 2.175
75.82000 -0.871
75.84000 1.868
75.86000 -0.790
75.88000 2.647
75.90000 5.896
75.92000 3.334
75.94000 3.267
75.96000 1.175
75.98000 2.604
76.00000 3.162
76.02000 2.497
76.04000 2.037
76.06000 2.857
76.08000 1.760
76.10000 4.537
76.12000 5.178
76.14000 0.663
76.16000 -1.905
76.18000 0.206
76.20000 2.267
76.22000 4.748
76.24000 2.663
76.26000 1.476
76.28000 2.007
76.30000 3.808
76.32000 1.992
76.34000 1.840
76.36000 2.759
76.38000 1.092
76.40000 3.152
76.42000 5.002
76.44000 0.890
76.46000 3.855
76.48000 2.189
76.50000 3.906
76.52000 2.899
76.54000 2.749
76.56000 2.210
76.58000 2.198
76.60000 2.408
76.62000 1.078
76.64000 -1.390
76.66000 0.588
76.68000 1.629
76.70000 0.517
76.72000 1.219
76.74000 -1.023
76.76000 -0.534
76.78000 -1.123
76.80000 -0.756
76.82000 1.452
76.84000 3.276
76.86000 -0.074
76.88000 -0.264
76.90000 2.853
76.92000 1.237
76.94000 -0.180
76.96000 0.481
76.98000 -1.802
77.00000 -0.284
77.02000 2.923
77.04000 1.560
77.06000 0.373
77.08000 -1.221
77.10000 -1.955
77.12000 -0.744
77.14000 3.036
77.16000 4.497
77.18000 3.065
77.20000 1.145
77.22000 5.086
77.24000 4.350
77.26000 1.516
77.28000 1.022
77.30000 0.776
77.32000 1.800
77.34000 4.073
77.36000 2.689
77.38000 1.012
77.40000 1.806
77.42000 0.879
77.44000 5.272
77.46000 4.465
77.48000 4.475
77.50000 3.766
77.52000 0.960
77.54000 -0.043
77.56000 2.367
77.58000 -0.189
77.60000 -0.697
77.62000 -0.425
77.64000 1.338
77.66000 3.601
77.68000 2.005
77.70000 0.929
77.72000 2.409
77.74000 1.891
77.76000 -0.460
77.78000 -0.531
77.80000 2.912
77.82000 1.763
77.84000 1.931
77.86000 1.043
77.88000 3.038
77.90000 1.613
77.92000 -0.752
77.94000 0.028
77.96000 -0.307
77.98000 -1.869
78.00000 1.298
78.02000 1.074
78.04000 1.586
78.06000 0.967
78.08000 3.124
78.10000 0.436
78.12000 -0.459
78.14000 0.341
78.16000 -0.469
78.18000 1.899
78.20000 1.439
78.22000 5.489
78.24000 7.307
78.26000 6.068
78.28000 4.429
78.30000 4.151
78.32000 0.369
78.34000 -1.954
78.36000 -1.954
78.38000 1.402
78.40000 5.013
78.42000 4.209
78.44000 2.344
78.46000 2.069
78.48000 2.040
78.50000 4.343
78.52000 4.658
78.54000 2.911
78.56000 -0.444
78.58000 0.638
78.60000 2.995
78.62000 -0.071
78.64000 -1.503
78.66000 3.650
78.68000 5.643
78.70000 1.958
78.72000 2.010
78.74000 3.200
78.76000 3.370
78.78000 4.143
78.80000 2.231
78.82000 1.118
78.84000 3.649
78.86000 2.514
78.88000 3.868
78.90000 3.150
78.92000 0.706
78.94000 1.144
78.96000 0.835
78.98000 1.605
79.00000 -0.197
79.02000 1.418
79.04000 2.010
79.06000 3.144
79.08000 3.293
79.10000 3.022
79.12000 4.471
79.14000 1.510
79.16000 1.566
79.18000 1.700
79.20000 4.125
79.22000 2.829
79.24000 1.653
79.26000 5.261
79.28000 4.104
79.30000 2.692
79.32000 1.496
79.34000 2.513
79.36000 1.895
79.38000 2.250
79.40000 2.471
79.42000 -1.124
79.44000 -0.226
79.46000 3.631
79.48000 4.298
79.50000 2.925
79.52000 3.688
79.54000 3.987
79.56000 3.738
79.58000 3.698
79.60000 -0.396
79.62000 -1.996
79.64000 0.187
79.66000 1.779
79.68000 0.585
79.70000 0.044
79.72000 0.162
79.74000 -2.014
79.76000 0.800
79.78000 0.771
79.80000 2.882
79.82000 4.428
79.84000 5.379
79.86000 6.427
79.88000 4.650
79.90000 3.360
79.92000 4.665
79.94000 6.083
79.96000 4.481
79.98000 1.117
80.00000 1.657
80.02000 0.840
80.04000 3.040
80.06000 3.288
80.08000 3.449
80.10000 4.326
80.12000 1.983
80.14000 3.100
80.16000 1.538
80.18000 4.146
80.20000 3.278
80.22000 3.501
80.24000 2.558
80.26000 3.801
80.28000 6.496
80.30000 7.820
80.32000 6.994
80.34000 7.604
80.36000 10.232
80.38000 9.145
80.40000 5.282
80.42000 3.812
80.44000 -0.961
80.46000 1.089
80.48000 4.985
80.50000 4.521
80.52000 5.679
80.54000 5.319
80.56000 4.439
80.58000 5.085
80.60000 5.805
80.62000 6.301
80.64000 5.233
80.66000 5.491
80.68000 7.997
80.70000 6.805
80.72000 7.160
80.74000 7.702
80.76000 6.465
80.78000 7.504
80.80000 10.282
80.82000 12.127
80.84000 12.364
80.86000 8.335
80.88000 10.808
80.90000 12.017
80.92000 16.523
80.94000 12.978
80.96000 13.454
80.98000 9.097
81.00000 13.140
81.02000 15.000
81.04000 15.099
81.06000 14.019
81.08000 13.219
81.10000 17.279
81.12000 17.984
81.14000 19.513
81.16000 20.340
81.18000 19.425
81.20000 18.644
81.22000 19.258
81.24000 18.179
81.26000 15.376
81.28000 17.702
81.30000 21.473
81.32000 20.181
81.34000 20.426
81.36000 22.023
81.38000 20.503
81.40000 23.342
81.42000 25.528
81.44000 23.495
81.46000 22.209
81.48000 21.924
81.50000 24.493
81.52000 26.538
81.54000 23.278
81.56000 22.979
81.58000 23.642
81.60000 25.901
81.62000 24.673
81.64000 24.996
81.66000 27.896
81.68000 24.837
81.70000 23.997
81.72000 20.543
81.74000 25.412
81.76000 24.961
81.78000 23.353
81.80000 19.649
81.82000 21.170
81.84000 22.872
81.86000 22.939
81.88000 21.995
81.90000 21.751
81.92000 21.385
81.94000 24.107
81.96000 21.972
81.98000 18.507
82.00000 21.136
82.02000 20.139
82.04000 19.378
82.06000 24.319
82.08000 20.742
82.10000 16.632
82.12000 14.452
82.14000 14.151
82.16000 15.856
82.18000 13.403
82.20000 15.126
82.22000 13.920
82.24000 11.577
82.26000 10.757
82.28000 11.501
82.30000 8.943
82.32000 8.339
82.34000 9.011
82.36000 7.039
82.38000 7.828
82.40000 6.941
82.42000 9.445
82.44000 6.928
82.46000 6.085
82.48000 8.864
82.50000 9.346
82.52000 6.133
82.54000 2.857
82.56000 2.853
82.58000 5.098
82.60000 7.440
82.62000 1.773
82.64000 3.397
82.66000 3.254
82.68000 3.356
82.70000 4.053
82.72000 6.178
82.74000 4.276
82.76000 1.242
82.78000 2.879
82.80000 1.450
82.82000 2.584
82.84000 5.378
82.86000 1.812
82.88000 0.554
82.90000 -0.500
82.92000 2.235
82.94000 2.654
82.96000 1.639
82.98000 2.806
83.00000 4.803
83.02000 3.554
83.04000 1.887
83.06000 2.427
83.08000 1.503
83.10000 0.141
83.12000 -0.205
83.14000 -2.098
83.16000 1.875
83.18000 0.098
83.20000 0.949
83.22000 -0.391
83.24000 -1.323
83.26000 -0.032
83.28000 0.009
83.30000 -2.093
83.32000 -0.615
83.34000 2.371
83.36000 0.788
83.38000 -1.814
83.40000 -0.558
83.42000 -0.462
83.44000 -0.414
83.46000 -1.294
83.48000 2.833
83.50000 5.065
83.52000 4.185
83.54000 1.193
83.56000 1.831
83.58000 2.192
83.60000 0.855
83.62000 0.394
83.64000 0.033
83.66000 2.239
83.68000 3.859
83.70000 -0.269
83.72000 -1.855
83.74000 0.540
83.76000 2.314
83.78000 0.498
83.80000 -0.809
83.82000 -0.626
83.84000 -1.554
83.86000 0.828
83.88000 4.119
83.90000 3.623
83.92000 -1.292
83.94000 -0.604
83.96000 3.158
83.98000 4.774
84.00000 3.480
84.02000 2.160
84.04000 0.566
84.06000 0.334
84.08000 -2.100
84.10000 -0.203
84.12000 1.964
84.14000 0.218
84.16000 0.894
84.18000 1.430
84.20000 2.926
84.22000 1.831
84.24000 0.948
84.26000 2.622
84.28000 1.480
84.30000 2.234
84.32000 0.966
84.34000 -2.034
84.36000 2.117
84.38000 1.273
84.40000 3.668
84.42000 2.226
84.44000 1.868
84.46000 3.769
84.48000 6.465
84.50000 5.206
84.52000 1.179
84.54000 3.253
84.56000 5.070
84.58000 4.301
84.60000 3.609
84.62000 3.359
84.64000 4.291
84.66000 4.381
84.68000 3.092
84.70000 6.178
84.72000 8.502
84.74000 6.925
84.76000 7.111
84.78000 7.779
84.80000 8.840
84.82000 5.072
84.84000 5.717
84.86000 9.311
84.88000 8.543
84.90000 6.682
84.92000 8.320
84.94000 7.956
84.96000 14.224
84.98000 12.828
85.00000 9.725
85.02000 12.483
85.04000 10.773
85.06000 12.645
85.08000 13.355
85.10000 13.446
85.12000 12.762
85.14000 13.676
85.16000 13.255
85.18000 12.730
85.20000 15.161
85.22000 20.124
85.24000 17.600
85.26000 17.174
85.28000 17.933
85.30000 18.094
85.32000 21.274
85.34000 22.163
85.36000 18.295
85.38000 19.420
85.40000 19.260
85.42000 18.224
85.44000 21.722
85.46000 22.663
85.48000 23.812
85.50000 22.715
85.52000 22.603
85.54000 22.980
85.56000 22.137
85.58000 18.835
85.60000 19.384
85.62000 24.724
85.64000 24.809
85.66000 22.137
85.68000 20.495
85.70000 18.009
85.72000 17.444
85.74000 18.867
85.76000 21.656
85.78000 24.081
85.80000 20.295
85.82000 22.247
85.84000 22.571
85.86000 23.003
85.88000 19.792
85.90000 18.133
85.92000 14.482
85.94000 13.345
85.96000 20.497
85.98000 20.377
86.00000 20.350
86.02000 17.371
86.04000 16.205
86.06000 16.158
86.08000 14.917
86.10000 14.049
86.12000 15.834
86.14000 19.196
86.16000 12.421
86.18000 11.044
86.20000 15.824
86.22000 16.686
86.24000 13.958
86.26000 12.217
86.28000 10.050
86.30000 9.065
86.32000 5.822
86.34000 6.373
86.36000 7.545
86.38000 7.172
86.40000 7.417
86.42000 6.174
86.44000 9.606
86.46000 9.108
86.48000 8.323
86.50000 4.015
86.52000 0.426
86.54000 2.469
86.56000 6.609
86.58000 6.209
86.60000 9.311
86.62000 5.844
86.64000 2.915
86.66000 0.778
86.68000 3.083
86.70000 2.340
86.72000 3.530
86.74000 0.753
86.76000 2.160
86.78000 1.510
86.80000 0.755
86.82000 3.156
86.84000 2.138
86.86000 3.615
86.88000 2.629
86.90000 1.918
86.92000 -0.904
86.94000 -0.673
86.96000 0.388
86.98000 1.066
87.00000 1.284
87.02000 1.238
87.04000 -0.843
87.06000 0.952
87.08000 -1.938
87.10000 0.569
87.12000 1.300
87.14000 -1.867
87.16000 0.442
87.18000 0.347
87.20000 2.152
87.22000 -0.421
87.24000 0.115
87.26000 -0.270
87.28000 1.728
87.30000 3.568
87.32000 1.165
87.34000 0.740
87.36000 -0.421
87.38000 0.882
87.40000 -0.152
87.42000 -1.683
87.44000 0.858
87.46000 1.023
87.48000 0.916
87.50000 0.810
87.52000 -1.190
87.54000 -1.530
87.56000 -1.893
87.58000 1.236
87.60000 1.721
87.62000 0.759
87.64000 1.356
87.66000 0.932
87.68000 0.373
87.70000 0.580
87.72000 -1.813
87.74000 -1.212
87.76000 -0.290
87.78000 2.737
87.80000 1.351
87.82000 -0.902
87.84000 0.928
87.86000 0.636
87.88000 0.981
87.90000 0.002
87.92000 1.170
87.94000 4.816
87.96000 0.834
87.98000 0.873
88.00000 3.910
88.02000 3.408
88.04000 2.034
88.06000 1.126
88.08000 0.744
88.10000 2.446
88.12000 0.778
88.14000 -0.115
88.16000 0.131
88.18000 0.483
88.20000 0.681
88.22000 0.389
88.24000 2.546
88.26000 0.771
88.28000 -1.815
88.30000 1.610
88.32000 1.575
88.34000 -0.262
88.36000 0.201
88.38000 1.977
88.40000 3.864
88.42000 1.904
88.44000 0.310
88.46000 -0.683
88.48000 -1.680
88.50000 1.393
88.52000 3.937
88.54000 2.456
88.56000 -0.872
88.58000 1.582
88.60000 0.744
88.62000 1.873
88.64000 -0.372
88.66000 3.713
88.68000 2.830
88.70000 2.968
88.72000 2.588
88.74000 3.661
88.76000 0.730
88.78000 2.710
88.80000 5.196
88.82000 3.031
88.84000 0.891
88.86000 0.514
88.88000 0.207
88.90000 2.880
88.92000 1.715
88.94000 1.863
88.96000 4.624
88.98000 5.235
89.00000 1.421
89.02000 2.673
89.04000 1.655
89.06000 4.355
89.08000 3.936
89.10000 1.979
89.12000 3.034
89.14000 3.559
89.16000 1.879
89.18000 2.717
89.20000 3.095
89.22000 1.042
89.24000 -0.970
89.26000 -0.972
89.28000 1.478
89.30000 2.184
89.32000 3.122
89.34000 1.501
89.36000 -0.603
89.38000 1.638
89.40000 -0.953
89.42000 3.638
89.44000 6.004
89.46000 2.189
89.48000 1.469
89.50000 2.407
89.52000 2.780
89.54000 0.837
89.56000 -1.804
89.58000 0.578
89.60000 -1.096
89.62000 -0.131
89.64000 1.623
89.66000 5.682
89.68000 5.995
89.70000 4.143
89.72000 1.309
89.74000 1.537
89.76000 3.452
89.78000 0.310
89.80000 -1.692
89.82000 0.211
89.84000 2.693
89.86000 3.170
89.88000 -0.687
89.90000 1.184
89.92000 3.012
89.94000 2.735
89.96000 0.143
89.98000 -0.013
90.00000 2.719
90.02000 3.407
90.04000 1.419
90.06000 1.408
90.08000 3.277
90.10000 -0.174
90.12000 2.688
90.14000 1.593
90.16000 4.107
90.18000 4.328
90.20000 3.988
90.22000 3.399
90.24000 3.759
90.26000 2.346
90.28000 2.656
90.30000 0.748
90.32000 2.577
90.34000 3.164
90.36000 -0.280
90.38000 -1.795
90.40000 0.636
90.42000 2.397
90.44000 2.254
90.46000 3.119
90.48000 3.717
90.50000 2.713
90.52000 1.650
90.54000 0.944
90.56000 2.602
90.58000 2.913
90.60000 3.926
90.62000 3.020
90.64000 4.280
90.66000 1.929
90.68000 0.533
90.70000 2.771
90.72000 2.342
90.74000 2.588
90.76000 1.907
90.78000 2.594
90.80000 2.704
90.82000 2.512
90.84000 4.175
90.86000 2.087
90.88000 -0.037
90.90000 1.873
90.92000 1.594
90.94000 1.174
90.96000 -1.293
90.98000 -1.816
91.00000 2.572
91.02000 0.952
91.04000 3.754
91.06000 3.457
91.08000 0.554
91.10000 -0.387
91.12000 1.117
91.14000 1.222
91.16000 2.368
91.18000 1.511
91.20000 0.304
91.22000 0.334
91.24000 -1.821
91.26000 -1.757
91.28000 -1.342
91.30000 1.678
91.32000 3.892
91.34000 4.880
91.36000 3.676
91.38000 1.639
91.40000 -0.432
91.42000 0.777
91.44000 5.114
91.46000 3.621
91.48000 5.943
91.50000 2.309
91.52000 -0.396
91.54000 1.214
91.56000 0.652
91.58000 1.482
91.60000 1.978
91.62000 0.968
91.64000 0.886
91.66000 4.350
91.68000 3.374
91.70000 3.087
91.72000 2.330
91.74000 2.844
91.76000 2.429
91.78000 -0.080
91.80000 1.020
91.82000 2.972
91.84000 5.963
91.86000 2.868
91.88000 -0.957
91.90000 -1.332
91.92000 -1.811
91.94000 2.611
91.96000 3.916
91.98000 2.701
92.00000 2.803
92.02000 0.928
92.04000 -1.099
92.06000 0.075
92.08000 0.891
92.10000 1.780
92.12000 1.562
92.14000 2.616
92.16000 0.118
92.18000 2.115
92.20000 -0.139
92.22000 1.614
92.24000 1.541
92.26000 0.544
92.28000 3.217
92.30000 0.975
92.32000 0.555
92.34000 0.348
92.36000 0.002
92.38000 0.396
92.40000 2.281
92.42000 3.921
92.44000 3.364
92.46000 1.995
92.48000 3.848
92.50000 1.310
92.52000 1.001
92.54000 4.296
92.56000 4.711
92.58000 2.740
92.60000 2.819
92.62000 1.710
92.64000 0.168
92.66000 1.501
92.68000 4.506
92.70000 4.907
92.72000 3.192
92.74000 0.372
92.76000 3.398
92.78000 3.668
92.80000 2.776
92.82000 -0.148
92.84000 -0.312
92.86000 1.101
92.88000 1.618
92.90000 2.234
92.92000 1.570
92.94000 -1.836
92.96000 2.041
92.98000 0.281
93.00000 1.061
93.02000 5.275
93.04000 3.351
93.06000 1.866
93.08000 2.894
93.10000 4.939
93.12000 1.920
93.14000 0.907
93.16000 0.252
93.18000 1.487
93.20000 6.226
93.22000 3.934
93.24000 0.208
93.26000 1.101
93.28000 3.027
93.30000 0.732
93.32000 3.617
93.34000 3.442
93.36000 1.234
93.38000 3.414
93.40000 -0.157
93.42000 -1.801
93.44000 0.831
93.46000 0.861
93.48000 2.418
93.50000 0.919
93.52000 4.209
93.54000 5.831
93.56000 5.220
93.58000 4.870
93.60000 5.199
93.62000 1.566
93.64000 3.122
93.66000 4.587
93.68000 2.598
93.70000 3.822
93.72000 3.430
93.74000 2.302
93.76000 2.834
93.78000 3.319
93.80000 7.432
93.82000 2.563
93.84000 -1.797
93.86000 -0.511
93.88000 -0.210
93.90000 2.943
93.92000 5.427
93.94000 3.096
93.96000 6.881
93.98000 3.337
94.00000 1.439
94.02000 2.578
94.04000 -1.697
94.06000 1.275
94.08000 3.864
94.10000 5.111
94.12000 3.123
94.14000 1.516
94.16000 0.014
94.18000 1.338
94.20000 3.115
94.22000 2.886
94.24000 -0.101
94.26000 2.719
94.28000 2.306
94.30000 2.424
94.32000 2.112
94.34000 1.593
94.36000 -0.327
94.38000 2.124
94.40000 2.839
94.42000 0.930
94.44000 1.422
94.46000 5.881
94.48000 6.179
94.50000 0.906
94.52000 2.037
94.54000 0.417
94.56000 0.197
94.58000 0.818
94.60000 1.366
94.62000 3.046
94.64000 4.572
94.66000 3.457
94.68000 1.293
94.70000 -0.235
94.72000 1.138
94.74000 1.368
94.76000 5.046
94.78000 -1.828
94.80000 -0.096
94.82000 -0.585
94.84000 -0.011
94.86000 1.182
94.88000 2.280
94.90000 2.009
94.92000 2.598
94.94000 4.263
94.96000 2.397
94.98000 1.060
95.00000 0.868
95.02000 2.105
95.04000 1.125
95.06000 6.407
95.08000 5.023
95.10000 2.820
95.12000 -0.951
95.14000 1.096
95.16000 4.968
95.18000 3.326
95.20000 2.424
95.22000 3.325
95.24000 4.839
95.26000 3.918
95.28000 2.461
95.30000 -0.510
95.32000 2.153
95.34000 3.879
95.36000 -1.340
95.38000 1.842
95.40000 2.280
95.42000 5.274
95.44000 4.023
95.46000 2.853
95.48000 1.934
95.50000 0.897
95.52000 0.917
95.54000 1.656
95.56000 2.958
95.58000 1.674
95.60000 4.131
95.62000 2.206
95.64000 0.333
95.66000 -1.050
95.68000 1.593
95.70000 3.093
95.72000 0.893
95.74000 0.987
95.76000 0.795
95.78000 1.283
95.80000 3.011
95.82000 3.493
95.84000 2.591
95.86000 4.429
95.88000 5.690
95.90000 4.547
95.92000 -0.282
95.94000 -1.818
95.96000 1.678
95.98000 1.380
96.00000 2.460
96.02000 4.148
96.04000 4.461
96.06000 4.119
96.08000 3.491
96.10000 4.191
96.12000 3.649
96.14000 3.354
96.16000 4.536
96.18000 5.047
96.20000 1.273
96.22000 2.541
96.24000 1.746
96.26000 2.605
96.28000 1.373
96.30000 -1.662
96.32000 0.482
96.34000 2.619
96.36000 3.541
96.38000 0.329
96.40000 2.443
96.42000 -1.481
96.44000 -1.821
96.46000 -1.769
96.48000 0.518
96.50000 4.955
96.52000 2.538
96.54000 0.265
96.56000 1.022
96.58000 0.269
96.60000 -1.089
96.62000 -1.141
96.64000 -1.619
96.66000 -0.916
96.68000 1.718
96.70000 4.956
96.72000 5.071
96.74000 1.720
96.76000 1.765
96.78000 4.030
96.80000 2.157
96.82000 4.476
96.84000 4.022
96.86000 5.931
96.88000 3.762
96.90000 5.135
96.92000 5.985
96.94000 2.063
96.96000 -0.160
96.98000 -0.562
97.00000 -0.265
97.02000 1.308
97.04000 0.841
97.06000 1.834
97.08000 4.973
97.10000 5.153
97.12000 -0.798
97.14000 -0.198
97.16000 4.392
97.18000 4.548
97.20000 5.911
97.22000 6.141
97.24000 2.272
97.26000 5.778
97.28000 7.238
97.30000 9.250
97.32000 4.593
97.34000 3.366
97.36000 2.737
97.38000 4.339
97.40000 5.637
97.42000 1.891
97.44000 -0.212
97.46000 3.229
97.48000 3.192
97.50000 5.332
97.52000 4.760
97.54000 2.420
97.56000 4.782
97.58000 4.934
97.60000 1.519
97.62000 0.917
97.64000 0.344
97.66000 2.448
97.68000 1.972
97.70000 2.542
97.72000 5.150
97.74000 1.391
97.76000 6.463
97.78000 7.980
97.80000 9.906
97.82000 3.242
97.84000 3.461
97.86000 3.542
97.88000 4.933
97.90000 4.812
97.92000 0.796
97.94000 -1.783
97.96000 2.308
97.98000 4.796
98.00000 4.652
98.02000 5.334
98.04000 -0.951
98.06000 -1.426
98.08000 1.446
98.10000 -1.274
98.12000 -0.871
98.14000 4.517
98.16000 12.768
98.18000 5.497
98.20000 5.113
98.22000 6.934
98.24000 4.750
98.26000 1.033
98.28000 3.624
98.30000 3.793
98.32000 5.807
98.34000 3.481
98.36000 8.412
98.38000 4.152
98.40000 0.269
98.42000 4.199
98.44000 8.567
98.46000 8.589
98.48000 7.757
98.50000 6.154
98.52000 6.299
98.54000 9.417
98.56000 5.528
98.58000 8.289
98.60000 7.592
98.62000 6.323
98.64000 6.669
98.66000 7.820
98.68000 4.388
98.70000 1.748
98.72000 -1.694
98.74000 5.196
98.76000 5.995
98.78000 4.307
98.80000 3.915
98.82000 9.252
98.84000 9.229
98.86000 7.609
98.88000 8.159
98.90000 9.676
98.92000 7.822
98.94000 3.886
98.96000 4.970
98.98000 5.959
99.00000 0.826
99.02000 4.638
99.04000 7.836
99.06000 6.985
99.08000 7.175
99.10000 7.875
99.12000 7.880
99.14000 3.755
99.16000 7.281
99.18000 3.644
99.20000 10.105
99.22000 8.433
99.24000 5.173
99.26000 2.957
99.28000 -1.310
99.30000 1.450
99.32000 4.019
99.34000 4.283
99.36000 4.252
99.38000 2.969
99.40000 9.600
99.42000 4.686
99.44000 -0.301
99.46000 5.140
99.48000 5.644
99.50000 8.170
99.52000 6.999
99.54000 -0.165
99.56000 1.928
99.58000 8.167
99.60000 6.134
99.62000 6.076
99.64000 9.563
99.66000 6.414
99.68000 7.841
99.70000 2.796
99.72000 -1.712
99.74000 2.931
99.76000 1.432
99.78000 4.755
99.80000 7.216
99.82000 9.856
99.84000 0.670
99.86000 6.649
99.88000 9.677
99.90000 10.051
99.92000 -2.123
99.94000 -0.414
99.96000 -1.950
99.98000 0.000
