'Id: "0011387" Comment: "Integrate frame 0011387_Au-Ir-Rh_Rh-rich_XRD-Mapping-060-0000.gfrmwith cursor Wedge Cursor #5" Operator: "B?rgel" Anode: "Cu" Wavelength: "1.5406" Scantype: "2Theta (TwoTheta)" TimePerStep: "1" X: "-22.5" Y: "-22.5" Z: "5.95" 
10.00000 0.000
10.02000 0.576
10.04000 1.056
10.06000 8.512
10.08000 -4.455
10.10000 -4.436
10.12000 -4.434
10.14000 13.166
10.16000 10.977
10.18000 10.497
10.20000 3.585
10.22000 -0.924
10.24000 3.893
10.26000 -1.263
10.28000 4.973
10.30000 17.314
10.32000 4.664
10.34000 -0.841
10.36000 -0.485
10.38000 -3.084
10.40000 12.762
10.42000 15.955
10.44000 6.248
10.46000 11.132
10.48000 14.491
10.50000 24.709
10.52000 16.147
10.54000 21.999
10.56000 24.354
10.58000 9.501
10.60000 7.527
10.62000 16.270
10.64000 18.596
10.66000 7.793
10.68000 4.699
10.70000 12.394
10.72000 14.798
10.74000 14.721
10.76000 6.199
10.78000 15.167
10.80000 17.333
10.82000 10.534
10.84000 7.310
10.86000 -4.418
10.88000 2.229
10.90000 6.484
10.92000 19.054
10.94000 28.265
10.96000 13.473
10.98000 1.428
11.00000 9.896
11.02000 23.269
11.04000 18.318
11.06000 17.697
11.08000 10.866
11.10000 15.102
11.12000 17.250
11.14000 21.279
11.16000 11.471
11.18000 4.029
11.20000 18.719
11.22000 31.747
11.24000 19.872
11.26000 21.223
11.28000 23.692
11.30000 7.962
11.32000 14.396
11.34000 11.211
11.36000 8.988
11.38000 -2.792
11.40000 -1.853
11.42000 17.315
11.44000 22.879
11.46000 7.141
11.48000 -4.397
11.50000 -3.566
11.52000 16.921
11.54000 10.300
11.56000 12.533
11.58000 13.947
11.60000 18.816
11.62000 16.625
11.64000 8.986
11.66000 4.912
11.68000 12.873
11.70000 14.095
11.72000 12.776
11.74000 15.182
11.76000 5.704
11.78000 13.399
11.80000 19.916
11.82000 24.055
11.84000 18.121
11.86000 19.892
11.88000 9.928
11.90000 12.900
11.92000 4.552
11.94000 -2.408
11.96000 0.618
11.98000 14.744
12.00000 14.430
12.02000 14.214
12.04000 14.225
12.06000 12.341
12.08000 21.579
12.10000 11.776
12.12000 3.929
12.14000 3.892
12.16000 4.846
12.18000 11.802
12.20000 16.013
12.22000 16.320
12.24000 26.952
12.26000 22.771
12.28000 14.179
12.30000 6.463
12.32000 17.263
12.34000 16.132
12.36000 3.276
12.38000 -3.046
12.40000 4.102
12.42000 8.294
12.44000 18.519
12.46000 21.708
12.48000 13.962
12.50000 12.849
12.52000 8.902
12.54000 19.945
12.56000 9.140
12.58000 11.810
12.60000 13.954
12.62000 12.010
12.64000 5.952
12.66000 0.377
12.68000 1.687
12.70000 19.146
12.72000 17.642
12.74000 17.208
12.76000 16.730
12.78000 11.204
12.80000 8.062
12.82000 4.124
12.84000 9.180
12.86000 0.188
12.88000 3.904
12.90000 10.890
12.92000 15.376
12.94000 7.509
12.96000 3.752
12.98000 -2.100
13.00000 -2.010
13.02000 11.390
13.04000 12.928
13.06000 8.366
13.08000 0.650
13.10000 -0.478
13.12000 10.689
13.14000 7.762
13.16000 7.001
13.18000 7.636
13.20000 18.304
13.22000 9.789
13.24000 3.537
13.26000 2.804
13.28000 7.685
13.30000 8.611
13.32000 11.515
13.34000 8.873
13.36000 -0.295
13.38000 5.643
13.40000 2.779
13.42000 5.382
13.44000 7.413
13.46000 0.163
13.48000 7.095
13.50000 9.783
13.52000 1.114
13.54000 -3.472
13.56000 1.870
13.58000 6.981
13.60000 0.827
13.62000 3.519
13.64000 5.835
13.66000 13.769
13.68000 5.264
13.70000 9.072
13.72000 12.373
13.74000 12.064
13.76000 7.857
13.78000 2.628
13.80000 -4.488
13.82000 4.241
13.84000 2.051
13.86000 10.554
13.88000 15.818
13.90000 -1.671
13.92000 -4.488
13.94000 -2.169
13.96000 4.778
13.98000 9.530
14.00000 3.492
14.02000 9.614
14.04000 14.062
14.06000 5.198
14.08000 4.293
14.10000 -1.068
14.12000 -1.846
14.14000 2.346
14.16000 -1.609
14.18000 -4.294
14.20000 -2.805
14.22000 2.366
14.24000 6.059
14.26000 -1.339
14.28000 4.881
14.30000 13.359
14.32000 6.776
14.34000 5.911
14.36000 -0.202
14.38000 0.201
14.40000 0.056
14.42000 -1.501
14.44000 -2.261
14.46000 -4.479
14.48000 -0.060
14.50000 -1.039
14.52000 9.530
14.54000 11.288
14.56000 12.845
14.58000 7.136
14.60000 7.372
14.62000 0.437
14.64000 -1.911
14.66000 -1.541
14.68000 -0.701
14.70000 2.129
14.72000 4.277
14.74000 3.685
14.76000 4.973
14.78000 6.512
14.80000 10.077
14.82000 7.272
14.84000 -0.114
14.86000 1.919
14.88000 3.211
14.90000 4.795
14.92000 8.753
14.94000 5.985
14.96000 0.906
14.98000 9.333
15.00000 22.207
15.02000 15.074
15.04000 13.629
15.06000 14.206
15.08000 14.522
15.10000 8.230
15.12000 6.512
15.14000 8.124
15.16000 -0.610
15.18000 1.301
15.20000 2.336
15.22000 -3.488
15.24000 -2.916
15.26000 -0.354
15.28000 8.530
15.30000 2.100
15.32000 2.569
15.34000 8.497
15.36000 5.761
15.38000 11.236
15.40000 8.640
15.42000 -2.415
15.44000 -0.371
15.46000 -1.661
15.48000 5.443
15.50000 2.338
15.52000 -1.499
15.54000 1.295
15.56000 3.482
15.58000 4.960
15.60000 10.599
15.62000 6.605
15.64000 3.881
15.66000 -0.030
15.68000 -4.432
15.70000 3.257
15.72000 3.204
15.74000 6.341
15.76000 5.143
15.78000 0.436
15.80000 -2.058
15.82000 1.352
15.84000 -1.912
15.86000 6.235
15.88000 8.350
15.90000 -1.762
15.92000 12.113
15.94000 7.329
15.96000 5.316
15.98000 6.470
16.00000 1.433
16.02000 6.095
16.04000 0.875
16.06000 4.311
16.08000 6.649
16.10000 11.528
16.12000 7.814
16.14000 8.082
16.16000 3.410
16.18000 1.838
16.20000 -4.404
16.22000 -2.207
16.24000 9.247
16.26000 6.993
16.28000 -0.277
16.30000 4.072
16.32000 12.500
16.34000 13.599
16.36000 5.289
16.38000 7.548
16.40000 1.645
16.42000 2.240
16.44000 8.711
16.46000 13.583
16.48000 6.542
16.50000 9.675
16.52000 7.367
16.54000 -1.339
16.56000 5.265
16.58000 8.287
16.60000 6.912
16.62000 0.541
16.64000 8.909
16.66000 8.619
16.68000 9.526
16.70000 8.587
16.72000 5.370
16.74000 6.033
16.76000 5.220
16.78000 5.247
16.80000 8.294
16.82000 0.808
16.84000 4.543
16.86000 8.592
16.88000 9.615
16.90000 9.603
16.92000 0.992
16.94000 5.405
16.96000 10.580
16.98000 9.848
17.00000 5.435
17.02000 2.498
17.04000 -0.885
17.06000 3.513
17.08000 6.019
17.10000 4.176
17.12000 -2.008
17.14000 -4.357
17.16000 6.855
17.18000 12.526
17.20000 16.189
17.22000 15.547
17.24000 9.960
17.26000 6.030
17.28000 4.352
17.30000 1.973
17.32000 7.903
17.34000 16.928
17.36000 16.531
17.38000 15.082
17.40000 11.020
17.42000 5.990
17.44000 2.746
17.46000 1.213
17.48000 0.531
17.50000 3.655
17.52000 5.439
17.54000 3.944
17.56000 8.236
17.58000 7.608
17.60000 6.316
17.62000 7.482
17.64000 4.401
17.66000 3.286
17.68000 0.820
17.70000 -3.787
17.72000 -4.313
17.74000 3.481
17.76000 8.270
17.78000 0.315
17.80000 -0.323
17.82000 -1.314
17.84000 3.091
17.86000 12.754
17.88000 9.472
17.90000 5.758
17.92000 0.694
17.94000 -1.446
17.96000 1.173
17.98000 5.553
18.00000 4.988
18.02000 -1.017
18.04000 3.154
18.06000 -0.839
18.08000 -0.535
18.10000 -4.309
18.12000 -3.340
18.14000 -2.145
18.16000 4.064
18.18000 2.515
18.20000 -0.205
18.22000 6.126
18.24000 4.124
18.26000 6.886
18.28000 7.864
18.30000 3.160
18.32000 5.640
18.34000 9.014
18.36000 4.694
18.38000 5.309
18.40000 7.768
18.42000 2.315
18.44000 5.307
18.46000 6.496
18.48000 6.445
18.50000 6.290
18.52000 1.640
18.54000 1.391
18.56000 2.101
18.58000 4.985
18.60000 12.236
18.62000 12.945
18.64000 10.570
18.66000 14.205
18.68000 8.053
18.70000 2.071
18.72000 6.908
18.74000 6.757
18.76000 2.793
18.78000 1.926
18.80000 4.796
18.82000 6.831
18.84000 5.341
18.86000 11.089
18.88000 8.846
18.90000 6.817
18.92000 8.305
18.94000 3.382
18.96000 -2.144
18.98000 1.791
19.00000 8.542
19.02000 4.748
19.04000 3.488
19.06000 -4.243
19.08000 -1.406
19.10000 6.534
19.12000 5.240
19.14000 5.448
19.16000 6.154
19.18000 10.033
19.20000 7.797
19.22000 3.593
19.24000 4.083
19.26000 0.465
19.28000 1.172
19.30000 1.065
19.32000 11.324
19.34000 7.420
19.36000 3.982
19.38000 5.126
19.40000 -0.135
19.42000 0.680
19.44000 4.769
19.46000 4.713
19.48000 0.541
19.50000 -1.511
19.52000 -1.073
19.54000 2.025
19.56000 8.796
19.58000 8.687
19.60000 -2.151
19.62000 -3.117
19.64000 3.301
19.66000 9.644
19.68000 15.116
19.70000 7.001
19.72000 3.415
19.74000 4.186
19.76000 3.058
19.78000 3.486
19.80000 4.338
19.82000 8.073
19.84000 7.501
19.86000 16.289
19.88000 3.089
19.90000 -4.181
19.92000 5.266
19.94000 7.169
19.96000 10.329
19.98000 3.169
20.00000 3.512
20.02000 3.402
20.04000 -3.297
20.06000 2.617
20.08000 5.511
20.10000 2.855
20.12000 -0.335
20.14000 2.486
20.16000 2.605
20.18000 4.097
20.20000 8.740
20.22000 3.431
20.24000 6.066
20.26000 3.815
20.28000 8.355
20.30000 10.788
20.32000 4.074
20.34000 -1.311
20.36000 5.687
20.38000 7.882
20.40000 4.276
20.42000 5.424
20.44000 1.960
20.46000 1.250
20.48000 -3.818
20.50000 -1.161
20.52000 1.761
20.54000 6.619
20.56000 4.650
20.58000 3.287
20.60000 0.066
20.62000 -0.287
20.64000 -3.162
20.66000 3.427
20.68000 11.335
20.70000 13.157
20.72000 6.273
20.74000 0.345
20.76000 4.970
20.78000 1.915
20.80000 6.299
20.82000 5.484
20.84000 1.813
20.86000 2.692
20.88000 8.876
20.90000 2.206
20.92000 8.806
20.94000 6.787
20.96000 10.679
20.98000 7.925
21.00000 2.765
21.02000 6.022
21.04000 3.369
21.06000 7.245
21.08000 1.649
21.10000 2.221
21.12000 1.524
21.14000 1.253
21.16000 3.121
21.18000 -4.112
21.20000 1.628
21.22000 8.354
21.24000 0.669
21.26000 -1.413
21.28000 -1.698
21.30000 2.692
21.32000 6.318
21.34000 5.073
21.36000 8.615
21.38000 6.745
21.40000 7.329
21.42000 1.988
21.44000 3.900
21.46000 5.985
21.48000 2.073
21.50000 1.592
21.52000 5.019
21.54000 7.181
21.56000 1.693
21.58000 1.222
21.60000 3.469
21.62000 7.873
21.64000 4.491
21.66000 -0.239
21.68000 2.968
21.70000 0.908
21.72000 -4.082
21.74000 1.831
21.76000 5.360
21.78000 4.669
21.80000 8.777
21.82000 7.062
21.84000 10.965
21.86000 9.834
21.88000 13.248
21.90000 13.767
21.92000 14.580
21.94000 4.706
21.96000 2.191
21.98000 8.449
22.00000 5.124
22.02000 4.377
22.04000 7.147
22.06000 11.502
22.08000 9.884
22.10000 9.495
22.12000 11.272
22.14000 6.142
22.16000 9.601
22.18000 4.274
22.20000 4.138
22.22000 8.891
22.24000 4.581
22.26000 4.905
22.28000 1.025
22.30000 -1.209
22.32000 0.047
22.34000 2.459
22.36000 -1.636
22.38000 5.692
22.40000 11.174
22.42000 15.822
22.44000 8.290
22.46000 5.163
22.48000 7.071
22.50000 5.658
22.52000 4.045
22.54000 9.390
22.56000 10.018
22.58000 3.360
22.60000 2.392
22.62000 2.843
22.64000 1.072
22.66000 -3.995
22.68000 2.744
22.70000 2.453
22.72000 -0.032
22.74000 -0.796
22.76000 3.393
22.78000 10.796
22.80000 8.417
22.82000 5.678
22.84000 9.811
22.86000 5.348
22.88000 8.392
22.90000 2.781
22.92000 5.768
22.94000 8.188
22.96000 9.762
22.98000 8.303
23.00000 4.257
23.02000 0.173
23.04000 0.942
23.06000 3.181
23.08000 1.336
23.10000 2.809
23.12000 4.900
23.14000 6.022
23.16000 7.572
23.18000 5.418
23.20000 3.554
23.22000 1.541
23.24000 5.131
23.26000 6.977
23.28000 5.483
23.30000 6.113
23.32000 6.394
23.34000 3.561
23.36000 0.867
23.38000 -0.085
23.40000 2.503
23.42000 4.877
23.44000 5.285
23.46000 4.480
23.48000 2.497
23.50000 3.390
23.52000 0.995
23.54000 0.099
23.56000 -1.138
23.58000 2.959
23.60000 5.379
23.62000 3.820
23.64000 0.856
23.66000 -1.907
23.68000 -0.549
23.70000 2.858
23.72000 -0.922
23.74000 -0.411
23.76000 -1.032
23.78000 -1.122
23.80000 -0.830
23.82000 3.504
23.84000 1.837
23.86000 4.567
23.88000 2.679
23.90000 -0.933
23.92000 -2.530
23.94000 -0.444
23.96000 -1.071
23.98000 5.715
24.00000 3.364
24.02000 4.530
24.04000 6.275
24.06000 5.489
24.08000 4.924
24.10000 -0.536
24.12000 -2.761
24.14000 3.362
24.16000 0.929
24.18000 0.640
24.20000 7.192
24.22000 3.499
24.24000 5.252
24.26000 6.783
24.28000 6.200
24.30000 6.054
24.32000 2.308
24.34000 4.443
24.36000 2.140
24.38000 -2.532
24.40000 2.215
24.42000 5.619
24.44000 2.112
24.46000 11.657
24.48000 4.099
24.50000 3.788
24.52000 3.590
24.54000 2.765
24.56000 2.414
24.58000 -1.993
24.60000 -2.168
24.62000 -1.354
24.64000 -2.223
24.66000 1.536
24.68000 5.043
24.70000 3.405
24.72000 3.873
24.74000 7.938
24.76000 6.871
24.78000 0.569
24.80000 -3.645
24.82000 -1.978
24.84000 3.142
24.86000 3.025
24.88000 -0.367
24.90000 1.115
24.92000 0.702
24.94000 -0.917
24.96000 -3.909
24.98000 8.022
25.00000 8.006
25.02000 3.531
25.04000 1.577
25.06000 3.103
25.08000 0.025
25.10000 4.143
25.12000 4.030
25.14000 -0.602
25.16000 5.088
25.18000 11.356
25.20000 7.035
25.22000 1.933
25.24000 6.105
25.26000 6.707
25.28000 2.288
25.30000 -2.245
25.32000 -2.691
25.34000 -0.418
25.36000 4.621
25.38000 1.490
25.40000 2.060
25.42000 0.201
25.44000 -0.813
25.46000 4.295
25.48000 8.293
25.50000 -1.285
25.52000 -2.311
25.54000 1.323
25.56000 2.922
25.58000 -3.880
25.60000 -2.952
25.62000 0.038
25.64000 1.537
25.66000 0.946
25.68000 2.228
25.70000 3.637
25.72000 4.714
25.74000 12.187
25.76000 7.072
25.78000 7.006
25.80000 1.964
25.82000 -1.225
25.84000 1.229
25.86000 1.882
25.88000 3.660
25.90000 7.737
25.92000 4.313
25.94000 3.319
25.96000 6.954
25.98000 0.996
26.00000 1.716
26.02000 2.881
26.04000 5.754
26.06000 2.232
26.08000 1.543
26.10000 1.997
26.12000 1.178
26.14000 -1.986
26.16000 0.242
26.18000 4.461
26.20000 2.412
26.22000 2.090
26.24000 -3.854
26.26000 -0.170
26.28000 2.946
26.30000 8.775
26.32000 7.794
26.34000 -0.833
26.36000 -3.022
26.38000 -0.199
26.40000 -0.064
26.42000 3.371
26.44000 1.882
26.46000 1.186
26.48000 2.343
26.50000 -0.714
26.52000 -3.612
26.54000 -0.635
26.56000 0.820
26.58000 -0.469
26.60000 -0.869
26.62000 0.169
26.64000 0.972
26.66000 5.782
26.68000 1.528
26.70000 0.843
26.72000 -1.016
26.74000 1.595
26.76000 0.753
26.78000 1.097
26.80000 -1.134
26.82000 -1.247
26.84000 0.971
26.86000 6.250
26.88000 3.914
26.90000 5.544
26.92000 6.824
26.94000 6.231
26.96000 4.891
26.98000 -0.918
27.00000 2.978
27.02000 6.287
27.04000 3.274
27.06000 3.059
27.08000 -0.791
27.10000 -0.643
27.12000 -3.804
27.14000 1.753
27.16000 8.419
27.18000 5.285
27.20000 1.228
27.22000 6.860
27.24000 8.022
27.26000 8.674
27.28000 3.626
27.30000 1.792
27.32000 6.287
27.34000 -1.687
27.36000 -2.803
27.38000 -1.282
27.40000 2.484
27.42000 -0.010
27.44000 -1.512
27.46000 4.197
27.48000 -0.437
27.50000 0.461
27.52000 2.698
27.54000 3.263
27.56000 3.105
27.58000 1.502
27.60000 1.467
27.62000 -2.304
27.64000 1.607
27.66000 2.808
27.68000 0.432
27.70000 -0.714
27.72000 3.216
27.74000 7.241
27.76000 1.982
27.78000 -3.774
27.80000 0.336
27.82000 5.379
27.84000 1.331
27.86000 1.613
27.88000 0.685
27.90000 1.677
27.92000 2.496
27.94000 5.412
27.96000 6.201
27.98000 4.860
28.00000 5.395
28.02000 8.423
28.04000 5.352
28.06000 8.272
28.08000 7.545
28.10000 6.028
28.12000 5.693
28.14000 4.468
28.16000 2.109
28.18000 3.574
28.20000 1.714
28.22000 2.035
28.24000 1.134
28.26000 1.432
28.28000 2.074
28.30000 4.589
28.32000 -1.081
28.34000 -2.426
28.36000 -0.575
28.38000 5.145
28.40000 -0.316
28.42000 -1.653
28.44000 5.585
28.46000 4.668
28.48000 -0.652
28.50000 -3.711
28.52000 -0.294
28.54000 5.398
28.56000 2.702
28.58000 -0.898
28.60000 2.353
28.62000 4.182
28.64000 4.815
28.66000 1.697
28.68000 3.795
28.70000 0.119
28.72000 2.514
28.74000 1.289
28.76000 2.216
28.78000 4.840
28.80000 3.508
28.82000 5.179
28.84000 7.343
28.86000 3.309
28.88000 3.851
28.90000 3.703
28.92000 6.064
28.94000 2.405
28.96000 0.501
28.98000 2.335
29.00000 3.060
29.02000 8.331
29.04000 2.966
29.06000 5.600
29.08000 7.351
29.10000 2.950
29.12000 2.526
29.14000 1.236
29.16000 0.672
29.18000 1.376
29.20000 2.603
29.22000 7.685
29.24000 3.232
29.26000 1.944
29.28000 3.310
29.30000 6.813
29.32000 4.645
29.34000 -3.508
29.36000 -0.798
29.38000 -1.832
29.40000 -2.702
29.42000 -0.693
29.44000 2.389
29.46000 1.015
29.48000 3.778
29.50000 7.121
29.52000 3.841
29.54000 1.353
29.56000 -1.261
29.58000 -2.181
29.60000 2.219
29.62000 5.618
29.64000 3.823
29.66000 1.374
29.68000 2.834
29.70000 7.505
29.72000 4.834
29.74000 0.134
29.76000 -0.653
29.78000 3.085
29.80000 0.465
29.82000 -2.377
29.84000 -1.424
29.86000 5.944
29.88000 8.519
29.90000 10.712
29.92000 1.650
29.94000 2.027
29.96000 3.848
29.98000 3.007
30.00000 6.489
30.02000 6.353
30.04000 0.437
30.06000 -1.118
30.08000 -3.120
30.10000 0.604
30.12000 2.334
30.14000 1.137
30.16000 6.611
30.18000 10.381
30.20000 8.057
30.22000 3.259
30.24000 1.788
30.26000 4.527
30.28000 1.440
30.30000 -3.598
30.32000 -2.112
30.34000 0.641
30.36000 4.417
30.38000 3.381
30.40000 4.147
30.42000 4.978
30.44000 3.809
30.46000 7.384
30.48000 7.003
30.50000 3.655
30.52000 2.554
30.54000 10.519
30.56000 11.056
30.58000 5.326
30.60000 7.308
30.62000 7.222
30.64000 10.475
30.66000 7.149
30.68000 0.071
30.70000 1.892
30.72000 3.941
30.74000 -3.565
30.76000 1.318
30.78000 5.023
30.80000 5.881
30.82000 4.358
30.84000 2.980
30.86000 3.843
30.88000 9.149
30.90000 10.313
30.92000 5.586
30.94000 4.632
30.96000 7.905
30.98000 7.011
31.00000 3.778
31.02000 0.960
31.04000 1.606
31.06000 3.304
31.08000 7.431
31.10000 4.949
31.12000 2.740
31.14000 -0.654
31.16000 -1.096
31.18000 -0.721
31.20000 3.237
31.22000 1.910
31.24000 1.474
31.26000 -2.166
31.28000 -0.648
31.30000 4.163
31.32000 2.172
31.34000 2.306
31.36000 6.332
31.38000 4.244
31.40000 2.254
31.42000 0.981
31.44000 4.177
31.46000 0.051
31.48000 0.922
31.50000 2.543
31.52000 1.684
31.54000 3.478
31.56000 0.372
31.58000 6.232
31.60000 8.325
31.62000 3.896
31.64000 -1.822
31.66000 -2.353
31.68000 -1.784
31.70000 1.432
31.72000 2.208
31.74000 0.078
31.76000 -0.308
31.78000 1.006
31.80000 -0.930
31.82000 1.906
31.84000 0.711
31.86000 -0.179
31.88000 0.405
31.90000 -0.135
31.92000 1.471
31.94000 -1.707
31.96000 -1.863
31.98000 -0.863
32.00000 0.765
32.02000 0.953
32.04000 6.153
32.06000 3.264
32.08000 -0.380
32.10000 2.793
32.12000 4.518
32.14000 2.556
32.16000 0.274
32.18000 -3.574
32.20000 1.994
32.22000 6.725
32.24000 4.292
32.26000 3.409
32.28000 2.452
32.30000 -1.001
32.32000 -3.036
32.34000 2.220
32.36000 5.633
32.38000 4.731
32.40000 2.101
32.42000 -2.111
32.44000 -3.509
32.46000 0.634
32.48000 -1.299
32.50000 -3.104
32.52000 0.293
32.54000 1.227
32.56000 -0.610
32.58000 0.036
32.60000 -3.232
32.62000 0.545
32.64000 0.558
32.66000 5.635
32.68000 1.266
32.70000 0.645
32.72000 -1.072
32.74000 -0.292
32.76000 -2.171
32.78000 2.010
32.80000 2.411
32.82000 -1.004
32.84000 0.999
32.86000 3.644
32.88000 3.202
32.90000 0.948
32.92000 0.792
32.94000 3.373
32.96000 9.360
32.98000 5.938
33.00000 3.710
33.02000 7.017
33.04000 0.975
33.06000 -1.842
33.08000 1.279
33.10000 1.390
33.12000 5.536
33.14000 0.365
33.16000 0.687
33.18000 2.424
33.20000 5.483
33.22000 4.343
33.24000 3.177
33.26000 6.484
33.28000 2.677
33.30000 2.712
33.32000 3.561
33.34000 2.583
33.36000 6.059
33.38000 1.389
33.40000 -3.515
33.42000 -1.379
33.44000 5.285
33.46000 3.658
33.48000 3.452
33.50000 -0.105
33.52000 -1.327
33.54000 -0.612
33.56000 2.969
33.58000 1.434
33.60000 2.647
33.62000 2.519
33.64000 2.729
33.66000 1.866
33.68000 1.262
33.70000 0.061
33.72000 5.631
33.74000 9.459
33.76000 2.629
33.78000 1.746
33.80000 6.208
33.82000 7.409
33.84000 6.551
33.86000 7.954
33.88000 7.618
33.90000 4.515
33.92000 4.894
33.94000 5.288
33.96000 6.593
33.98000 0.334
34.00000 -3.227
34.02000 -1.199
34.04000 3.658
34.06000 -1.394
34.08000 -3.509
34.10000 1.510
34.12000 0.586
34.14000 1.697
34.16000 4.120
34.18000 2.008
34.20000 1.792
34.22000 2.673
34.24000 4.365
34.26000 5.391
34.28000 11.725
34.30000 11.987
34.32000 7.442
34.34000 2.547
34.36000 1.485
34.38000 1.150
34.40000 -0.692
34.42000 0.804
34.44000 0.314
34.46000 0.270
34.48000 1.648
34.50000 4.224
34.52000 1.940
34.54000 -1.531
34.56000 -3.495
34.58000 -1.740
34.60000 -3.036
34.62000 -1.220
34.64000 2.304
34.66000 -0.247
34.68000 -3.489
34.70000 -3.349
34.72000 -0.998
34.74000 1.562
34.76000 1.574
34.78000 3.740
34.80000 0.299
34.82000 -0.159
34.84000 4.563
34.86000 3.941
34.88000 -2.193
34.90000 -0.902
34.92000 0.694
34.94000 2.931
34.96000 4.136
34.98000 0.378
35.00000 -1.271
35.02000 0.177
35.04000 -0.536
35.06000 -1.608
35.08000 -1.290
35.10000 2.394
35.12000 4.057
35.14000 1.520
35.16000 -0.258
35.18000 -0.511
35.20000 0.065
35.22000 1.590
35.24000 3.732
35.26000 -1.151
35.28000 -0.071
35.30000 2.292
35.32000 1.901
35.34000 1.096
35.36000 -2.091
35.38000 2.934
35.40000 4.560
35.42000 2.690
35.44000 2.584
35.46000 3.334
35.48000 3.214
35.50000 3.860
35.52000 1.279
35.54000 4.379
35.56000 2.873
35.58000 3.991
35.60000 5.502
35.62000 3.890
35.64000 1.629
35.66000 2.262
35.68000 0.404
35.70000 1.920
35.72000 4.467
35.74000 5.305
35.76000 4.537
35.78000 2.290
35.80000 1.823
35.82000 -0.814
35.84000 1.886
35.86000 3.399
35.88000 1.771
35.90000 -1.195
35.92000 2.234
35.94000 3.301
35.96000 -3.449
35.98000 0.882
36.00000 5.012
36.02000 7.049
36.04000 5.765
36.06000 3.075
36.08000 5.447
36.10000 3.660
36.12000 2.292
36.14000 3.766
36.16000 5.494
36.18000 2.335
36.20000 1.082
36.22000 1.351
36.24000 1.208
36.26000 1.104
36.28000 1.846
36.30000 3.269
36.32000 6.323
36.34000 0.530
36.36000 -0.139
36.38000 -1.346
36.40000 2.592
36.42000 7.078
36.44000 6.156
36.46000 7.809
36.48000 5.623
36.50000 3.123
36.52000 3.835
36.54000 3.682
36.56000 0.623
36.58000 -2.539
36.60000 -2.674
36.62000 -2.911
36.64000 -0.428
36.66000 2.367
36.68000 -0.067
36.70000 3.304
36.72000 1.566
36.74000 0.849
36.76000 2.415
36.78000 3.252
36.80000 1.080
36.82000 -0.032
36.84000 5.428
36.86000 -0.438
36.88000 2.741
36.90000 0.963
36.92000 -1.256
36.94000 1.510
36.96000 -0.378
36.98000 2.143
37.00000 5.105
37.02000 3.150
37.04000 4.603
37.06000 0.572
37.08000 -0.186
37.10000 4.861
37.12000 2.117
37.14000 -0.970
37.16000 -3.469
37.18000 -0.792
37.20000 0.935
37.22000 3.443
37.24000 0.065
37.26000 -2.677
37.28000 4.303
37.30000 2.686
37.32000 1.777
37.34000 5.036
37.36000 2.293
37.38000 -0.747
37.40000 0.186
37.42000 -1.277
37.44000 -3.505
37.46000 3.912
37.48000 1.952
37.50000 1.164
37.52000 -2.023
37.54000 -0.571
37.56000 1.746
37.58000 4.099
37.60000 4.761
37.62000 -0.694
37.64000 -1.302
37.66000 0.886
37.68000 -1.154
37.70000 0.989
37.72000 4.081
37.74000 2.463
37.76000 -1.746
37.78000 -1.169
37.80000 -1.150
37.82000 2.882
37.84000 5.402
37.86000 -1.421
37.88000 -1.733
37.90000 3.724
37.92000 5.504
37.94000 8.476
37.96000 6.936
37.98000 4.845
38.00000 6.125
38.02000 6.121
38.04000 4.361
38.06000 3.602
38.08000 6.770
38.10000 11.072
38.12000 8.649
38.14000 16.080
38.16000 13.773
38.18000 5.425
38.20000 8.548
38.22000 12.678
38.24000 8.568
38.26000 6.595
38.28000 7.338
38.30000 7.523
38.32000 7.789
38.34000 10.285
38.36000 11.750
38.38000 12.084
38.40000 12.093
38.42000 15.209
38.44000 17.320
38.46000 19.451
38.48000 17.802
38.50000 15.945
38.52000 17.871
38.54000 17.425
38.56000 17.264
38.58000 19.032
38.60000 21.096
38.62000 18.104
38.64000 19.135
38.66000 16.607
38.68000 20.185
38.70000 21.909
38.72000 22.036
38.74000 20.806
38.76000 17.842
38.78000 15.742
38.80000 19.056
38.82000 23.075
38.84000 30.016
38.86000 29.574
38.88000 28.265
38.90000 25.118
38.92000 26.009
38.94000 27.262
38.96000 28.602
38.98000 27.480
39.00000 28.447
39.02000 25.331
39.04000 30.199
39.06000 34.928
39.08000 34.311
39.10000 35.909
39.12000 37.455
39.14000 38.370
39.16000 36.786
39.18000 37.172
39.20000 38.585
39.22000 45.710
39.24000 52.593
39.26000 52.014
39.28000 50.878
39.30000 49.373
39.32000 51.302
39.34000 55.634
39.36000 62.173
39.38000 65.742
39.40000 69.864
39.42000 76.054
39.44000 76.322
39.46000 79.405
39.48000 82.041
39.50000 85.908
39.52000 99.045
39.54000 99.239
39.56000 101.724
39.58000 109.451
39.60000 113.083
39.62000 121.205
39.64000 124.616
39.66000 131.682
39.68000 141.086
39.70000 152.891
39.72000 165.474
39.74000 173.679
39.76000 179.124
39.78000 195.836
39.80000 209.218
39.82000 217.285
39.84000 229.692
39.86000 247.625
39.88000 271.708
39.90000 288.433
39.92000 311.678
39.94000 332.413
39.96000 354.284
39.98000 383.555
40.00000 401.682
40.02000 435.662
40.04000 464.384
40.06000 502.979
40.08000 534.630
40.10000 573.038
40.12000 624.393
40.14000 665.463
40.16000 707.436
40.18000 745.336
40.20000 789.599
40.22000 829.699
40.24000 878.691
40.26000 923.352
40.28000 953.563
40.30000 997.699
40.32000 1041.709
40.34000 1078.322
40.36000 1106.039
40.38000 1123.604
40.40000 1150.025
40.42000 1167.667
40.44000 1181.324
40.46000 1181.338
40.48000 1204.448
40.50000 1204.107
40.52000 1179.474
40.54000 1164.803
40.56000 1142.914
40.58000 1133.429
40.60000 1123.700
40.62000 1095.578
40.64000 1062.303
40.66000 1041.759
40.68000 1004.705
40.70000 977.356
40.72000 942.593
40.74000 907.372
40.76000 874.545
40.78000 847.757
40.80000 815.940
40.82000 779.573
40.84000 745.794
40.86000 703.917
40.88000 664.981
40.90000 632.447
40.92000 597.562
40.94000 562.104
40.96000 538.600
40.98000 506.873
41.00000 483.558
41.02000 464.757
41.04000 433.446
41.06000 407.233
41.08000 384.818
41.10000 363.443
41.12000 351.235
41.14000 333.662
41.16000 309.627
41.18000 290.547
41.20000 274.535
41.22000 261.553
41.24000 246.411
41.26000 231.494
41.28000 214.117
41.30000 206.150
41.32000 194.162
41.34000 183.325
41.36000 173.352
41.38000 162.530
41.40000 152.846
41.42000 147.734
41.44000 145.965
41.46000 136.806
41.48000 126.712
41.50000 123.792
41.52000 120.537
41.54000 111.217
41.56000 111.952
41.58000 108.137
41.60000 101.170
41.62000 94.617
41.64000 86.264
41.66000 80.207
41.68000 80.815
41.70000 76.543
41.72000 72.077
41.74000 72.099
41.76000 68.247
41.78000 61.389
41.80000 61.594
41.82000 62.389
41.84000 58.158
41.86000 51.480
41.88000 53.191
41.90000 50.616
41.92000 50.295
41.94000 48.236
41.96000 45.393
41.98000 43.046
42.00000 40.413
42.02000 38.276
42.04000 33.716
42.06000 35.004
42.08000 37.518
42.10000 33.297
42.12000 29.228
42.14000 28.122
42.16000 30.114
42.18000 33.844
42.20000 27.749
42.22000 27.708
42.24000 27.337
42.26000 23.986
42.28000 21.875
42.30000 23.621
42.32000 21.005
42.34000 15.611
42.36000 15.928
42.38000 16.514
42.40000 18.221
42.42000 16.184
42.44000 15.390
42.46000 12.874
42.48000 14.727
42.50000 15.265
42.52000 13.849
42.54000 12.083
42.56000 12.122
42.58000 12.029
42.60000 10.851
42.62000 11.356
42.64000 11.360
42.66000 10.408
42.68000 8.280
42.70000 8.638
42.72000 9.126
42.74000 6.260
42.76000 5.908
42.78000 7.271
42.80000 10.074
42.82000 6.005
42.84000 8.192
42.86000 7.791
42.88000 10.020
42.90000 8.932
42.92000 6.815
42.94000 4.436
42.96000 3.227
42.98000 1.786
43.00000 2.355
43.02000 4.082
43.04000 3.870
43.06000 2.261
43.08000 4.095
43.10000 8.374
43.12000 2.333
43.14000 -1.125
43.16000 2.358
43.18000 2.874
43.20000 3.987
43.22000 0.275
43.24000 1.566
43.26000 2.623
43.28000 0.391
43.30000 -3.416
43.32000 0.664
43.34000 3.021
43.36000 3.944
43.38000 1.019
43.40000 0.093
43.42000 2.411
43.44000 3.099
43.46000 4.498
43.48000 2.086
43.50000 1.394
43.52000 1.382
43.54000 -0.965
43.56000 0.138
43.58000 -0.526
43.60000 -0.048
43.62000 -0.023
43.64000 3.248
43.66000 2.760
43.68000 -0.314
43.70000 0.290
43.72000 -2.392
43.74000 -1.095
43.76000 -3.065
43.78000 -3.298
43.80000 -2.551
43.82000 -1.831
43.84000 1.841
43.86000 2.207
43.88000 1.765
43.90000 2.121
43.92000 -0.998
43.94000 -1.259
43.96000 -3.322
43.98000 -2.622
44.00000 0.039
44.02000 -0.956
44.04000 0.595
44.06000 0.559
44.08000 0.041
44.10000 -0.383
44.12000 -2.075
44.14000 -1.359
44.16000 0.793
44.18000 -1.863
44.20000 -2.636
44.22000 -0.551
44.24000 0.180
44.26000 -3.246
44.28000 -3.267
44.30000 -1.018
44.32000 -0.933
44.34000 -1.090
44.36000 -3.279
44.38000 -1.098
44.40000 -2.472
44.42000 -1.051
44.44000 -0.213
44.46000 -0.193
44.48000 -3.145
44.50000 -1.871
44.52000 -0.490
44.54000 0.229
44.56000 0.958
44.58000 0.713
44.60000 -1.877
44.62000 -2.355
44.64000 -1.497
44.66000 1.613
44.68000 -1.951
44.70000 -2.599
44.72000 -2.772
44.74000 -0.634
44.76000 2.893
44.78000 -0.223
44.80000 -2.928
44.82000 0.093
44.84000 1.321
44.86000 1.055
44.88000 -2.098
44.90000 -2.181
44.92000 3.295
44.94000 0.957
44.96000 3.350
44.98000 0.513
45.00000 -3.200
45.02000 2.841
45.04000 2.682
45.06000 1.054
45.08000 1.476
45.10000 0.871
45.12000 0.785
45.14000 5.011
45.16000 5.869
45.18000 5.233
45.20000 3.993
45.22000 4.341
45.24000 4.719
45.26000 2.045
45.28000 0.794
45.30000 1.253
45.32000 3.855
45.34000 2.570
45.36000 6.354
45.38000 4.518
45.40000 7.329
45.42000 4.810
45.44000 3.726
45.46000 4.087
45.48000 6.991
45.50000 7.618
45.52000 4.660
45.54000 5.294
45.56000 2.500
45.58000 2.442
45.60000 6.597
45.62000 2.291
45.64000 4.734
45.66000 7.108
45.68000 6.085
45.70000 4.450
45.72000 8.170
45.74000 8.260
45.76000 12.350
45.78000 9.497
45.80000 12.362
45.82000 13.484
45.84000 10.862
45.86000 7.955
45.88000 8.647
45.90000 9.924
45.92000 10.340
45.94000 13.249
45.96000 15.529
45.98000 16.114
46.00000 17.527
46.02000 17.379
46.04000 19.234
46.06000 17.283
46.08000 24.095
46.10000 23.381
46.12000 21.392
46.14000 19.402
46.16000 22.710
46.18000 29.765
46.20000 32.118
46.22000 33.615
46.24000 31.871
46.26000 33.955
46.28000 32.831
46.30000 28.100
46.32000 36.889
46.34000 36.590
46.36000 34.232
46.38000 40.810
46.40000 42.485
46.42000 43.801
46.44000 45.597
46.46000 49.576
46.48000 52.595
46.50000 55.556
46.52000 58.294
46.54000 59.604
46.56000 60.471
46.58000 60.583
46.60000 63.206
46.62000 72.975
46.64000 78.302
46.66000 76.791
46.68000 78.089
46.70000 79.257
46.72000 82.243
46.74000 92.129
46.76000 95.519
46.78000 102.084
46.80000 109.798
46.82000 118.487
46.84000 122.065
46.86000 122.966
46.88000 118.087
46.90000 130.760
46.92000 137.828
46.94000 138.875
46.96000 140.947
46.98000 151.415
47.00000 157.755
47.02000 158.632
47.04000 156.727
47.06000 158.804
47.08000 159.527
47.10000 157.221
47.12000 149.488
47.14000 151.104
47.16000 153.831
47.18000 156.245
47.20000 151.883
47.22000 153.493
47.24000 150.755
47.26000 149.512
47.28000 140.314
47.30000 138.003
47.32000 141.250
47.34000 138.323
47.36000 136.916
47.38000 128.513
47.40000 121.221
47.42000 114.675
47.44000 116.788
47.46000 109.116
47.48000 99.135
47.50000 98.042
47.52000 91.249
47.54000 92.955
47.56000 87.920
47.58000 83.783
47.60000 81.859
47.62000 79.264
47.64000 72.038
47.66000 67.547
47.68000 62.688
47.70000 61.497
47.72000 54.676
47.74000 48.703
47.76000 51.931
47.78000 49.672
47.80000 40.680
47.82000 37.359
47.84000 45.236
47.86000 39.347
47.88000 37.221
47.90000 36.217
47.92000 31.380
47.94000 29.420
47.96000 30.040
47.98000 27.340
48.00000 25.694
48.02000 23.396
48.04000 21.562
48.06000 18.519
48.08000 14.692
48.10000 14.912
48.12000 15.100
48.14000 10.693
48.16000 11.671
48.18000 10.919
48.20000 10.579
48.22000 15.090
48.24000 11.832
48.26000 10.142
48.28000 15.559
48.30000 11.586
48.32000 6.278
48.34000 4.885
48.36000 3.249
48.38000 5.324
48.40000 4.634
48.42000 6.692
48.44000 10.063
48.46000 8.737
48.48000 9.009
48.50000 5.364
48.52000 3.911
48.54000 -1.410
48.56000 1.217
48.58000 2.872
48.60000 0.900
48.62000 6.856
48.64000 9.029
48.66000 8.733
48.68000 5.754
48.70000 -0.572
48.72000 0.558
48.74000 3.926
48.76000 2.158
48.78000 5.964
48.80000 1.566
48.82000 2.143
48.84000 3.438
48.86000 3.401
48.88000 1.268
48.90000 1.634
48.92000 5.542
48.94000 3.095
48.96000 -0.669
48.98000 -0.829
49.00000 -2.714
49.02000 0.856
49.04000 -0.891
49.06000 0.277
49.08000 0.982
49.10000 3.927
49.12000 -1.351
49.14000 1.379
49.16000 1.209
49.18000 -1.522
49.20000 0.300
49.22000 0.400
49.24000 0.399
49.26000 1.502
49.28000 1.304
49.30000 -1.338
49.32000 -1.148
49.34000 3.082
49.36000 6.529
49.38000 1.159
49.40000 -1.294
49.42000 0.487
49.44000 0.497
49.46000 4.509
49.48000 5.276
49.50000 2.156
49.52000 1.548
49.54000 1.525
49.56000 2.657
49.58000 0.022
49.60000 -0.192
49.62000 1.341
49.64000 2.355
49.66000 -1.287
49.68000 -2.600
49.70000 -0.982
49.72000 2.678
49.74000 5.248
49.76000 2.501
49.78000 0.052
49.80000 1.233
49.82000 0.910
49.84000 0.810
49.86000 3.080
49.88000 2.081
49.90000 -0.255
49.92000 -0.664
49.94000 -0.964
49.96000 -1.245
49.98000 1.449
50.00000 1.401
50.02000 -1.679
50.04000 3.922
50.06000 7.569
50.08000 3.332
50.10000 3.165
50.12000 4.914
50.14000 2.788
50.16000 0.682
50.18000 -2.527
50.20000 -0.355
50.22000 2.891
50.24000 5.678
50.26000 4.990
50.28000 4.695
50.30000 2.609
50.32000 -0.511
50.34000 0.355
50.36000 4.387
50.38000 6.278
50.40000 6.019
50.42000 3.247
50.44000 4.931
50.46000 8.249
50.48000 5.970
50.50000 3.242
50.52000 5.173
50.54000 6.323
50.56000 6.700
50.58000 6.539
50.60000 5.150
50.62000 5.287
50.64000 5.276
50.66000 0.624
50.68000 2.879
50.70000 3.447
50.72000 2.185
50.74000 5.599
50.76000 7.983
50.78000 5.721
50.80000 -1.199
50.82000 -2.452
50.84000 1.027
50.86000 5.650
50.88000 7.910
50.90000 5.663
50.92000 5.651
50.94000 9.994
50.96000 4.900
50.98000 4.139
51.00000 4.692
51.02000 0.743
51.04000 3.203
51.06000 6.258
51.08000 5.599
51.10000 6.824
51.12000 2.698
51.14000 3.743
51.16000 5.012
51.18000 2.620
51.20000 4.480
51.22000 5.980
51.24000 7.027
51.26000 5.017
51.28000 5.302
51.30000 4.688
51.32000 5.342
51.34000 5.882
51.36000 2.817
51.38000 1.662
51.40000 3.000
51.42000 0.926
51.44000 4.397
51.46000 -0.572
51.48000 1.975
51.50000 5.641
51.52000 5.553
51.54000 1.675
51.56000 1.187
51.58000 -1.974
51.60000 1.212
51.62000 2.222
51.64000 1.978
51.66000 4.177
51.68000 4.357
51.70000 3.229
51.72000 1.849
51.74000 0.039
51.76000 0.660
51.78000 3.339
51.80000 3.222
51.82000 2.748
51.84000 -0.610
51.86000 2.171
51.88000 4.804
51.90000 5.818
51.92000 5.628
51.94000 4.333
51.96000 2.792
51.98000 1.012
52.00000 -0.462
52.02000 2.834
52.04000 4.743
52.06000 1.287
52.08000 3.844
52.10000 6.940
52.12000 5.427
52.14000 3.585
52.16000 4.644
52.18000 -0.387
52.20000 -2.427
52.22000 -1.447
52.24000 -1.867
52.26000 -0.986
52.28000 0.115
52.30000 -0.314
52.32000 0.039
52.34000 6.469
52.36000 6.487
52.38000 2.926
52.40000 5.505
52.42000 6.294
52.44000 3.506
52.46000 3.266
52.48000 9.040
52.50000 3.795
52.52000 2.741
52.54000 0.733
52.56000 2.860
52.58000 1.804
52.60000 1.601
52.62000 1.762
52.64000 3.592
52.66000 3.049
52.68000 1.834
52.70000 0.863
52.72000 -0.181
52.74000 3.476
52.76000 3.734
52.78000 1.244
52.80000 1.283
52.82000 -2.420
52.84000 0.896
52.86000 5.838
52.88000 2.565
52.90000 2.191
52.92000 3.862
52.94000 1.405
52.96000 2.314
52.98000 3.484
53.00000 1.850
53.02000 4.213
53.04000 4.156
53.06000 2.320
53.08000 -0.228
53.10000 1.663
53.12000 2.253
53.14000 -0.484
53.16000 1.906
53.18000 2.297
53.20000 1.977
53.22000 0.288
53.24000 -0.638
53.26000 0.986
53.28000 -2.160
53.30000 -1.948
53.32000 -2.401
53.34000 -2.155
53.36000 -1.774
53.38000 -2.428
53.40000 -0.878
53.42000 2.988
53.44000 3.454
53.46000 0.891
53.48000 0.727
53.50000 1.277
53.52000 -0.733
53.54000 -1.281
53.56000 0.278
53.58000 -1.505
53.60000 0.203
53.62000 -2.145
53.64000 -0.364
53.66000 4.346
53.68000 2.737
53.70000 4.025
53.72000 2.729
53.74000 0.143
53.76000 2.799
53.78000 2.801
53.80000 0.900
53.82000 1.092
53.84000 -0.669
53.86000 0.776
53.88000 3.207
53.90000 -0.099
53.92000 -0.919
53.94000 1.559
53.96000 1.666
53.98000 -0.685
54.00000 -0.854
54.02000 2.579
54.04000 5.277
54.06000 3.895
54.08000 1.302
54.10000 -0.719
54.12000 -2.394
54.14000 -1.932
54.16000 -1.512
54.18000 0.719
54.20000 0.431
54.22000 1.260
54.24000 3.571
54.26000 2.909
54.28000 4.392
54.30000 3.749
54.32000 1.176
54.34000 2.173
54.36000 2.059
54.38000 4.023
54.40000 6.460
54.42000 3.329
54.44000 3.606
54.46000 5.322
54.48000 5.518
54.50000 4.281
54.52000 0.964
54.54000 3.371
54.56000 1.786
54.58000 5.303
54.60000 5.004
54.62000 5.014
54.64000 6.131
54.66000 1.471
54.68000 -0.078
54.70000 2.065
54.72000 3.386
54.74000 1.313
54.76000 -2.330
54.78000 0.405
54.80000 5.196
54.82000 5.132
54.84000 1.243
54.86000 2.147
54.88000 3.951
54.90000 4.954
54.92000 2.478
54.94000 4.034
54.96000 2.735
54.98000 4.668
55.00000 4.295
55.02000 3.203
55.04000 2.561
55.06000 -0.512
55.08000 0.212
55.10000 2.661
55.12000 6.162
55.14000 7.912
55.16000 4.531
55.18000 3.756
55.20000 6.379
55.22000 2.866
55.24000 2.382
55.26000 3.298
55.28000 3.591
55.30000 3.327
55.32000 0.165
55.34000 3.946
55.36000 2.218
55.38000 0.848
55.40000 2.990
55.42000 3.727
55.44000 2.706
55.46000 2.064
55.48000 1.816
55.50000 0.487
55.52000 -0.112
55.54000 3.864
55.56000 3.047
55.58000 -1.240
55.60000 -0.708
55.62000 0.869
55.64000 -0.644
55.66000 1.241
55.68000 3.987
55.70000 5.241
55.72000 0.321
55.74000 0.871
55.76000 -1.635
55.78000 -1.011
55.80000 3.363
55.82000 2.511
55.84000 2.310
55.86000 1.414
55.88000 -0.352
55.90000 -0.639
55.92000 -0.464
55.94000 1.043
55.96000 2.299
55.98000 3.270
56.00000 4.854
56.02000 3.038
56.04000 0.695
56.06000 -0.176
56.08000 -1.848
56.10000 -0.049
56.12000 2.560
56.14000 0.191
56.16000 -2.038
56.18000 1.973
56.20000 6.280
56.22000 2.361
56.24000 1.577
56.26000 2.160
56.28000 5.689
56.30000 3.416
56.32000 3.489
56.34000 2.227
56.36000 4.256
56.38000 2.977
56.40000 -0.430
56.42000 -0.009
56.44000 -1.655
56.46000 -0.776
56.48000 4.827
56.50000 5.058
56.52000 3.008
56.54000 1.647
56.56000 6.265
56.58000 2.941
56.60000 1.647
56.62000 3.238
56.64000 0.543
56.66000 4.193
56.68000 4.279
56.70000 2.618
56.72000 4.749
56.74000 7.182
56.76000 -0.320
56.78000 -2.280
56.80000 0.509
56.82000 2.033
56.84000 4.077
56.86000 5.847
56.88000 3.994
56.90000 5.315
56.92000 2.112
56.94000 2.005
56.96000 2.630
56.98000 4.641
57.00000 0.628
57.02000 1.833
57.04000 6.971
57.06000 5.941
57.08000 3.326
57.10000 3.397
57.12000 0.112
57.14000 -2.180
57.16000 1.498
57.18000 4.276
57.20000 2.352
57.22000 3.141
57.24000 4.352
57.26000 2.345
57.28000 1.641
57.30000 -0.867
57.32000 -1.177
57.34000 0.953
57.36000 -0.098
57.38000 -0.599
57.40000 2.149
57.42000 1.896
57.44000 2.082
57.46000 3.767
57.48000 3.764
57.50000 4.900
57.52000 0.840
57.54000 -0.929
57.56000 -1.524
57.58000 -0.436
57.60000 -2.172
57.62000 0.197
57.64000 -1.700
57.66000 0.026
57.68000 3.624
57.70000 2.102
57.72000 2.422
57.74000 2.810
57.76000 3.814
57.78000 1.436
57.80000 3.666
57.82000 1.520
57.84000 0.168
57.86000 1.040
57.88000 1.028
57.90000 2.661
57.92000 1.478
57.94000 2.159
57.96000 1.232
57.98000 4.291
58.00000 3.268
58.02000 1.005
58.04000 2.173
58.06000 1.418
58.08000 0.008
58.10000 -2.288
58.12000 -1.903
58.14000 0.549
58.16000 4.795
58.18000 2.133
58.20000 0.972
58.22000 0.656
58.24000 0.863
58.26000 1.908
58.28000 -0.811
58.30000 -1.509
58.32000 -0.101
58.34000 0.949
58.36000 4.731
58.38000 3.506
58.40000 1.211
58.42000 3.052
58.44000 2.276
58.46000 2.302
58.48000 3.967
58.50000 4.815
58.52000 8.382
58.54000 7.606
58.56000 7.115
58.58000 4.819
58.60000 -0.103
58.62000 -0.505
58.64000 2.988
58.66000 2.203
58.68000 2.091
58.70000 0.305
58.72000 0.319
58.74000 1.316
58.76000 2.662
58.78000 -0.847
58.80000 1.496
58.82000 5.028
58.84000 2.636
58.86000 3.453
58.88000 4.984
58.90000 3.894
58.92000 4.442
58.94000 4.113
58.96000 4.719
58.98000 1.855
59.00000 3.659
59.02000 1.484
59.04000 -2.210
59.06000 0.862
59.08000 4.604
59.10000 6.791
59.12000 6.864
59.14000 3.091
59.16000 4.097
59.18000 3.919
59.20000 4.064
59.22000 1.985
59.24000 1.484
59.26000 2.138
59.28000 3.781
59.30000 3.115
59.32000 -0.452
59.34000 0.149
59.36000 3.159
59.38000 3.930
59.40000 -0.081
59.42000 4.646
59.44000 3.874
59.46000 4.137
59.48000 3.066
59.50000 -1.619
59.52000 -1.585
59.54000 0.088
59.56000 -1.064
59.58000 -0.769
59.60000 2.335
59.62000 1.937
59.64000 -0.667
59.66000 3.011
59.68000 2.334
59.70000 2.008
59.72000 2.188
59.74000 0.390
59.76000 -0.417
59.78000 -1.385
59.80000 1.771
59.82000 0.655
59.84000 -1.859
59.86000 -0.477
59.88000 -0.204
59.90000 1.988
59.92000 -1.800
59.94000 1.033
59.96000 5.184
59.98000 4.498
60.00000 3.800
60.02000 3.179
60.04000 1.958
60.06000 0.418
60.08000 -1.158
60.10000 -0.206
60.12000 3.462
60.14000 1.780
60.16000 0.070
60.18000 -1.164
60.20000 1.579
60.22000 0.468
60.24000 1.884
60.26000 3.421
60.28000 5.381
60.30000 2.940
60.32000 4.766
60.34000 2.660
60.36000 0.664
60.38000 -0.941
60.40000 -2.202
60.42000 -1.568
60.44000 1.145
60.46000 3.308
60.48000 2.445
60.50000 2.269
60.52000 2.268
60.54000 4.101
60.56000 4.613
60.58000 2.672
60.60000 -0.654
60.62000 -0.731
60.64000 -0.656
60.66000 -0.203
60.68000 1.055
60.70000 1.772
60.72000 1.666
60.74000 3.443
60.76000 0.489
60.78000 0.096
60.80000 4.078
60.82000 5.700
60.84000 3.145
60.86000 1.220
60.88000 2.338
60.90000 1.524
60.92000 1.510
60.94000 0.589
60.96000 1.691
60.98000 2.589
61.00000 -0.051
61.02000 2.804
61.04000 7.172
61.06000 5.429
61.08000 -2.168
61.10000 -0.028
61.12000 2.965
61.14000 4.461
61.16000 2.339
61.18000 -0.042
61.20000 3.452
61.22000 2.339
61.24000 -0.323
61.26000 1.495
61.28000 4.856
61.30000 4.104
61.32000 1.370
61.34000 0.099
61.36000 2.492
61.38000 6.508
61.40000 3.118
61.42000 2.014
61.44000 0.237
61.46000 0.506
61.48000 2.955
61.50000 4.243
61.52000 3.406
61.54000 4.009
61.56000 2.624
61.58000 0.619
61.60000 -0.566
61.62000 3.229
61.64000 1.835
61.66000 2.603
61.68000 2.236
61.70000 0.608
61.72000 0.449
61.74000 0.097
61.76000 1.404
61.78000 0.549
61.80000 3.548
61.82000 1.484
61.84000 1.668
61.86000 3.138
61.88000 3.730
61.90000 2.696
61.92000 3.133
61.94000 3.368
61.96000 2.518
61.98000 -0.187
62.00000 1.115
62.02000 1.308
62.04000 -1.542
62.06000 -0.576
62.08000 0.837
62.10000 2.977
62.12000 -0.193
62.14000 -0.830
62.16000 6.476
62.18000 5.264
62.20000 3.924
62.22000 3.454
62.24000 1.790
62.26000 2.195
62.28000 0.576
62.30000 -0.573
62.32000 -2.159
62.34000 -1.258
62.36000 0.528
62.38000 1.604
62.40000 5.210
62.42000 4.633
62.44000 1.011
62.46000 0.642
62.48000 2.879
62.50000 2.702
62.52000 1.493
62.54000 1.458
62.56000 -0.235
62.58000 0.621
62.60000 0.586
62.62000 -1.192
62.64000 -0.965
62.66000 -0.699
62.68000 0.762
62.70000 0.086
62.72000 -0.665
62.74000 0.836
62.76000 -0.249
62.78000 0.486
62.80000 1.603
62.82000 0.896
62.84000 1.058
62.86000 -2.139
62.88000 0.727
62.90000 1.030
62.92000 1.942
62.94000 3.100
62.96000 1.080
62.98000 0.051
63.00000 1.582
63.02000 -0.226
63.04000 -0.774
63.06000 0.742
63.08000 1.911
63.10000 -0.651
63.12000 2.384
63.14000 4.348
63.16000 -1.173
63.18000 0.609
63.20000 1.154
63.22000 1.826
63.24000 3.401
63.26000 4.106
63.28000 3.310
63.30000 1.272
63.32000 -1.319
63.34000 -0.658
63.36000 2.091
63.38000 2.817
63.40000 -1.049
63.42000 -1.879
63.44000 -1.740
63.46000 -0.741
63.48000 0.244
63.50000 -0.523
63.52000 1.697
63.54000 -1.578
63.56000 -1.900
63.58000 -2.154
63.60000 -1.541
63.62000 -0.164
63.64000 -0.226
63.66000 0.852
63.68000 0.619
63.70000 -1.874
63.72000 -1.598
63.74000 -0.161
63.76000 1.382
63.78000 -0.981
63.80000 -1.321
63.82000 -0.822
63.84000 -2.153
63.86000 -1.179
63.88000 0.911
63.90000 1.052
63.92000 0.740
63.94000 0.440
63.96000 -1.745
63.98000 -0.354
64.00000 -0.616
64.02000 -1.521
64.04000 -0.658
64.06000 -1.345
64.08000 4.340
64.10000 4.948
64.12000 2.250
64.14000 -0.178
64.16000 -2.149
64.18000 -1.641
64.20000 -0.258
64.22000 0.370
64.24000 -0.077
64.26000 0.079
64.28000 -1.592
64.30000 1.897
64.32000 1.971
64.34000 1.957
64.36000 3.391
64.38000 1.521
64.40000 1.371
64.42000 1.408
64.44000 -1.282
64.46000 -0.973
64.48000 2.847
64.50000 -0.095
64.52000 -1.174
64.54000 -0.612
64.56000 1.988
64.58000 0.213
64.60000 1.072
64.62000 1.550
64.64000 0.537
64.66000 0.866
64.68000 2.137
64.70000 2.276
64.72000 -0.507
64.74000 -2.129
64.76000 -0.025
64.78000 0.451
64.80000 -0.980
64.82000 -0.414
64.84000 0.421
64.86000 1.242
64.88000 -0.236
64.90000 0.017
64.92000 1.414
64.94000 2.942
64.96000 3.490
64.98000 1.396
65.00000 0.411
65.02000 1.057
65.04000 0.486
65.06000 1.120
65.08000 1.194
65.10000 0.577
65.12000 1.220
65.14000 2.109
65.16000 -1.178
65.18000 1.105
65.20000 1.676
65.22000 0.297
65.24000 -0.506
65.26000 1.217
65.28000 1.587
65.30000 1.745
65.32000 1.729
65.34000 1.366
65.36000 2.461
65.38000 -0.798
65.40000 0.018
65.42000 0.941
65.44000 2.001
65.46000 4.790
65.48000 3.354
65.50000 4.092
65.52000 3.597
65.54000 1.916
65.56000 0.140
65.58000 -2.099
65.60000 -1.004
65.62000 -0.955
65.64000 -0.733
65.66000 2.312
65.68000 0.283
65.70000 0.376
65.72000 -0.976
65.74000 1.043
65.76000 0.704
65.78000 1.466
65.80000 1.670
65.82000 0.410
65.84000 0.174
65.86000 1.396
65.88000 1.437
65.90000 0.771
65.92000 0.597
65.94000 0.941
65.96000 0.780
65.98000 0.728
66.00000 -0.290
66.02000 0.270
66.04000 1.618
66.06000 0.574
66.08000 -2.113
66.10000 -1.949
66.12000 0.165
66.14000 0.074
66.16000 0.764
66.18000 0.102
66.20000 1.616
66.22000 1.362
66.24000 -0.271
66.26000 0.010
66.28000 -0.526
66.30000 -1.708
66.32000 -0.035
66.34000 2.591
66.36000 2.551
66.38000 1.523
66.40000 -1.650
66.42000 -0.712
66.44000 0.146
66.46000 0.829
66.48000 1.873
66.50000 -1.565
66.52000 -1.149
66.54000 -0.256
66.56000 -1.760
66.58000 0.538
66.60000 -0.816
66.62000 -0.460
66.64000 1.404
66.66000 -0.774
66.68000 -1.258
66.70000 -2.096
66.72000 -0.626
66.74000 1.072
66.76000 -1.769
66.78000 -1.698
66.80000 -1.160
66.82000 -0.895
66.84000 -0.796
66.86000 0.197
66.88000 -1.036
66.90000 -0.291
66.92000 0.981
66.94000 0.055
66.96000 1.193
66.98000 0.885
67.00000 -0.816
67.02000 -0.277
67.04000 1.638
67.06000 1.585
67.08000 -0.916
67.10000 1.445
67.12000 2.646
67.14000 0.142
67.16000 -0.094
67.18000 0.598
67.20000 -2.100
67.22000 0.880
67.24000 2.094
67.26000 -0.041
67.28000 1.263
67.30000 0.030
67.32000 2.245
67.34000 2.237
67.36000 0.127
67.38000 -0.347
67.40000 1.153
67.42000 0.748
67.44000 -1.135
67.46000 -2.102
67.48000 1.329
67.50000 1.875
67.52000 2.095
67.54000 1.353
67.56000 -0.262
67.58000 1.590
67.60000 1.380
67.62000 3.416
67.64000 3.332
67.66000 1.037
67.68000 1.080
67.70000 -0.542
67.72000 -1.704
67.74000 1.022
67.76000 1.358
67.78000 1.165
67.80000 -0.967
67.82000 -0.803
67.84000 0.135
67.86000 0.049
67.88000 1.760
67.90000 2.410
67.92000 1.010
67.94000 0.577
67.96000 2.896
67.98000 2.787
68.00000 3.491
68.02000 2.992
68.04000 3.359
68.06000 -0.579
68.08000 2.732
68.10000 4.102
68.12000 3.746
68.14000 5.298
68.16000 3.656
68.18000 3.562
68.20000 5.111
68.22000 8.320
68.24000 7.627
68.26000 5.567
68.28000 5.289
68.30000 7.265
68.32000 9.587
68.34000 8.374
68.36000 8.352
68.38000 8.186
68.40000 10.673
68.42000 8.612
68.44000 10.126
68.46000 12.807
68.48000 16.875
68.50000 19.261
68.52000 14.440
68.54000 14.030
68.56000 16.093
68.58000 19.562
68.60000 19.925
68.62000 21.538
68.64000 23.444
68.66000 22.746
68.68000 21.632
68.70000 20.404
68.72000 20.997
68.74000 23.209
68.76000 24.831
68.78000 24.178
68.80000 23.788
68.82000 25.316
68.84000 24.950
68.86000 27.209
68.88000 25.704
68.90000 24.061
68.92000 23.200
68.94000 23.825
68.96000 26.864
68.98000 24.381
69.00000 23.564
69.02000 23.420
69.04000 23.884
69.06000 22.439
69.08000 21.358
69.10000 22.293
69.12000 19.704
69.14000 17.184
69.16000 15.873
69.18000 18.345
69.20000 15.777
69.22000 15.070
69.24000 17.114
69.26000 18.242
69.28000 16.764
69.30000 12.894
69.32000 13.306
69.34000 14.629
69.36000 16.443
69.38000 15.201
69.40000 12.968
69.42000 10.256
69.44000 9.964
69.46000 9.166
69.48000 7.126
69.50000 4.321
69.52000 3.609
69.54000 3.055
69.56000 5.230
69.58000 6.914
69.60000 6.005
69.62000 6.561
69.64000 6.445
69.66000 4.425
69.68000 2.034
69.70000 -0.974
69.72000 0.614
69.74000 4.866
69.76000 6.429
69.78000 4.997
69.80000 2.517
69.82000 2.140
69.84000 2.476
69.86000 3.182
69.88000 2.572
69.90000 0.397
69.92000 0.962
69.94000 0.289
69.96000 1.566
69.98000 -0.378
70.00000 3.121
70.02000 4.320
70.04000 3.244
70.06000 0.314
70.08000 -1.909
70.10000 -2.072
70.12000 0.210
70.14000 2.008
70.16000 1.612
70.18000 -0.092
70.20000 1.958
70.22000 -0.028
70.24000 1.004
70.26000 -0.524
70.28000 2.914
70.30000 0.212
70.32000 -0.412
70.34000 1.237
70.36000 0.120
70.38000 0.089
70.40000 -0.683
70.42000 1.315
70.44000 1.318
70.46000 0.526
70.48000 0.672
70.50000 3.367
70.52000 2.427
70.54000 2.864
70.56000 2.406
70.58000 0.505
70.60000 0.950
70.62000 1.766
70.64000 -0.417
70.66000 -1.975
70.68000 0.227
70.70000 -0.723
70.72000 -0.514
70.74000 1.672
70.76000 -0.386
70.78000 0.086
70.80000 -0.884
70.82000 0.433
70.84000 3.051
70.86000 0.659
70.88000 -1.939
70.90000 -0.097
70.92000 1.255
70.94000 3.042
70.96000 1.796
70.98000 2.122
71.00000 4.893
71.02000 3.875
71.04000 4.347
71.06000 2.909
71.08000 -0.585
71.10000 -0.437
71.12000 0.218
71.14000 1.745
71.16000 1.083
71.18000 0.855
71.20000 -0.058
71.22000 2.460
71.24000 2.646
71.26000 1.400
71.28000 0.863
71.30000 2.892
71.32000 2.114
71.34000 2.286
71.36000 3.142
71.38000 0.496
71.40000 -1.912
71.42000 -1.179
71.44000 0.991
71.46000 0.685
71.48000 3.439
71.50000 1.967
71.52000 -0.391
71.54000 -0.291
71.56000 1.881
71.58000 1.785
71.60000 -0.360
71.62000 -1.026
71.64000 0.165
71.66000 1.611
71.68000 -1.229
71.70000 -0.043
71.72000 1.592
71.74000 0.264
71.76000 -0.365
71.78000 -1.086
71.80000 -1.505
71.82000 -1.142
71.84000 -0.583
71.86000 0.880
71.88000 1.626
71.90000 1.923
71.92000 3.286
71.94000 -0.076
71.96000 0.261
71.98000 2.627
72.00000 0.588
72.02000 0.272
72.04000 -0.456
72.06000 -1.886
72.08000 1.171
72.10000 0.245
72.12000 -1.274
72.14000 -0.325
72.16000 0.671
72.18000 1.190
72.20000 0.206
72.22000 1.545
72.24000 -0.534
72.26000 -1.902
72.28000 0.555
72.30000 1.142
72.32000 -0.582
72.34000 0.748
72.36000 2.465
72.38000 2.567
72.40000 2.773
72.42000 1.679
72.44000 0.010
72.46000 1.826
72.48000 1.733
72.50000 1.278
72.52000 -0.349
72.54000 0.923
72.56000 2.506
72.58000 4.087
72.60000 1.924
72.62000 0.220
72.64000 3.388
72.66000 -0.429
72.68000 -1.882
72.70000 2.167
72.72000 2.819
72.74000 0.131
72.76000 0.046
72.78000 1.151
72.80000 2.198
72.82000 2.157
72.84000 0.420
72.86000 -0.525
72.88000 -0.093
72.90000 -0.852
72.92000 -0.827
72.94000 0.368
72.96000 -0.342
72.98000 1.170
73.00000 -0.162
73.02000 -0.044
73.04000 1.967
73.06000 3.561
73.08000 3.077
73.10000 1.311
73.12000 -0.742
73.14000 1.252
73.16000 2.689
73.18000 3.033
73.20000 1.824
73.22000 4.467
73.24000 4.279
73.26000 1.529
73.28000 -1.837
73.30000 -0.002
73.32000 -0.035
73.34000 1.693
73.36000 3.301
73.38000 1.400
73.40000 2.077
73.42000 1.429
73.44000 1.118
73.46000 2.206
73.48000 3.768
73.50000 0.595
73.52000 -0.169
73.54000 3.640
73.56000 4.816
73.58000 4.409
73.60000 2.198
73.62000 0.194
73.64000 1.013
73.66000 0.641
73.68000 0.083
73.70000 0.274
73.72000 1.148
73.74000 3.068
73.76000 3.423
73.78000 -0.028
73.80000 -0.637
73.82000 0.376
73.84000 -0.457
73.86000 -0.918
73.88000 -0.080
73.90000 1.221
73.92000 -0.539
73.94000 -1.346
73.96000 0.863
73.98000 2.050
74.00000 2.918
74.02000 1.440
74.04000 0.595
74.06000 2.134
74.08000 1.918
74.10000 2.856
74.12000 0.535
74.14000 -1.096
74.16000 0.072
74.18000 2.776
74.20000 3.335
74.22000 1.006
74.24000 1.596
74.26000 3.309
74.28000 2.215
74.30000 1.777
74.32000 0.208
74.34000 1.448
74.36000 1.728
74.38000 0.048
74.40000 -1.807
74.42000 -0.285
74.44000 1.535
74.46000 2.664
74.48000 2.621
74.50000 2.944
74.52000 3.884
74.54000 3.625
74.56000 3.101
74.58000 3.315
74.60000 3.432
74.62000 1.321
74.64000 2.996
74.66000 1.554
74.68000 3.398
74.70000 1.398
74.72000 1.100
74.74000 1.118
74.76000 -1.819
74.78000 0.745
74.80000 0.008
74.82000 1.315
74.84000 2.173
74.86000 1.937
74.88000 0.329
74.90000 3.284
74.92000 2.924
74.94000 0.295
74.96000 -1.524
74.98000 -0.033
75.00000 -0.132
75.02000 3.265
75.04000 3.366
75.06000 2.147
75.08000 2.276
75.10000 1.480
75.12000 -1.801
75.14000 1.415
75.16000 1.570
75.18000 1.507
75.20000 2.010
75.22000 1.788
75.24000 1.336
75.26000 -0.022
75.28000 -1.423
75.30000 -0.302
75.32000 -0.540
75.34000 0.279
75.36000 1.143
75.38000 1.676
75.40000 1.899
75.42000 -0.309
75.44000 1.757
75.46000 1.739
75.48000 1.524
75.50000 2.029
75.52000 0.478
75.54000 -1.230
75.56000 -1.837
75.58000 -0.517
75.60000 -0.711
75.62000 0.666
75.64000 4.111
75.66000 2.791
75.68000 0.878
75.70000 3.091
75.72000 0.580
75.74000 -1.003
75.76000 1.894
75.78000 1.703
75.80000 0.228
75.82000 2.487
75.84000 -1.004
75.86000 0.539
75.88000 0.928
75.90000 -0.634
75.92000 5.816
75.94000 2.436
75.96000 -0.290
75.98000 1.319
76.00000 1.056
76.02000 0.719
76.04000 -1.705
76.06000 -1.322
76.08000 -0.847
76.10000 0.181
76.12000 0.492
76.14000 1.991
76.16000 -1.406
76.18000 -1.215
76.20000 -0.667
76.22000 0.887
76.24000 1.326
76.26000 1.910
76.28000 0.170
76.30000 -0.209
76.32000 0.764
76.34000 2.015
76.36000 0.661
76.38000 1.288
76.40000 2.033
76.42000 1.364
76.44000 1.578
76.46000 3.381
76.48000 4.519
76.50000 4.378
76.52000 0.389
76.54000 1.264
76.56000 1.418
76.58000 1.905
76.60000 3.670
76.62000 4.504
76.64000 -0.830
76.66000 -1.655
76.68000 -1.813
76.70000 0.039
76.72000 3.111
76.74000 4.813
76.76000 1.256
76.78000 4.012
76.80000 4.924
76.82000 3.887
76.84000 3.883
76.86000 1.026
76.88000 2.875
76.90000 1.546
76.92000 -1.103
76.94000 1.574
76.96000 -0.372
76.98000 1.140
77.00000 3.314
77.02000 1.457
77.04000 0.310
77.06000 2.100
77.08000 -0.241
77.10000 0.647
77.12000 4.299
77.14000 3.641
77.16000 1.946
77.18000 -0.220
77.20000 -0.098
77.22000 1.082
77.24000 0.083
77.26000 0.460
77.28000 -0.569
77.30000 0.069
77.32000 0.111
77.34000 0.021
77.36000 0.997
77.38000 3.465
77.40000 1.005
77.42000 1.099
77.44000 -1.832
77.46000 0.371
77.48000 1.027
77.50000 -0.342
77.52000 3.762
77.54000 5.552
77.56000 0.491
77.58000 1.194
77.60000 -1.115
77.62000 0.740
77.64000 0.805
77.66000 0.915
77.68000 3.902
77.70000 2.385
77.72000 -0.155
77.74000 0.256
77.76000 2.588
77.78000 2.623
77.80000 3.474
77.82000 1.496
77.84000 0.544
77.86000 0.268
77.88000 0.318
77.90000 1.792
77.92000 -0.047
77.94000 -1.834
77.96000 3.041
77.98000 7.075
78.00000 3.131
78.02000 3.845
78.04000 2.166
78.06000 0.296
78.08000 0.441
78.10000 1.224
78.12000 0.084
78.14000 2.567
78.16000 2.164
78.18000 2.302
78.20000 3.582
78.22000 4.444
78.24000 2.705
78.26000 1.162
78.28000 -0.068
78.30000 -1.853
78.32000 -0.548
78.34000 2.250
78.36000 2.283
78.38000 0.660
78.40000 1.047
78.42000 -0.209
78.44000 -0.110
78.46000 3.599
78.48000 2.270
78.50000 0.456
78.52000 0.777
78.54000 2.864
78.56000 2.786
78.58000 0.568
78.60000 1.593
78.62000 1.695
78.64000 1.835
78.66000 1.224
78.68000 0.110
78.70000 1.229
78.72000 0.291
78.74000 0.694
78.76000 2.519
78.78000 1.113
78.80000 -0.963
78.82000 0.056
78.84000 0.068
78.86000 0.530
78.88000 2.196
78.90000 1.021
78.92000 -0.344
78.94000 -0.158
78.96000 0.944
78.98000 0.604
79.00000 1.052
79.02000 2.082
79.04000 4.219
79.06000 3.849
79.08000 -0.366
79.10000 -0.338
79.12000 0.111
79.14000 -1.894
79.16000 -0.692
79.18000 0.229
79.20000 0.249
79.22000 0.868
79.24000 -0.658
79.26000 -0.175
79.28000 2.439
79.30000 2.018
79.32000 -1.769
79.34000 -0.579
79.36000 1.379
79.38000 1.003
79.40000 3.219
79.42000 1.781
79.44000 0.823
79.46000 2.417
79.48000 1.748
79.50000 2.770
79.52000 3.606
79.54000 1.948
79.56000 2.448
79.58000 2.682
79.60000 1.758
79.62000 4.375
79.64000 2.383
79.66000 1.094
79.68000 2.263
79.70000 -0.580
79.72000 -1.887
79.74000 -0.171
79.76000 1.407
79.78000 2.579
79.80000 2.965
79.82000 0.157
79.84000 2.643
79.86000 5.989
79.88000 1.791
79.90000 2.088
79.92000 2.367
79.94000 0.650
79.96000 2.204
79.98000 0.702
80.00000 2.463
80.02000 2.724
80.04000 0.052
80.06000 1.392
80.08000 0.857
80.10000 0.332
80.12000 1.060
80.14000 -1.877
80.16000 -1.042
80.18000 1.613
80.20000 4.693
80.22000 3.887
80.24000 3.745
80.26000 1.492
80.28000 1.128
80.30000 1.295
80.32000 -1.897
80.34000 0.212
80.36000 1.203
80.38000 4.153
80.40000 2.931
80.42000 1.904
80.44000 1.084
80.46000 3.995
80.48000 4.607
80.50000 3.257
80.52000 1.896
80.54000 2.340
80.56000 2.998
80.58000 2.242
80.60000 0.981
80.62000 1.501
80.64000 2.192
80.66000 1.245
80.68000 2.033
80.70000 1.974
80.72000 1.137
80.74000 -1.935
80.76000 2.678
80.78000 2.038
80.80000 -0.516
80.82000 0.199
80.84000 -0.089
80.86000 2.197
80.88000 1.232
80.90000 0.933
80.92000 2.648
80.94000 -0.252
80.96000 -0.046
80.98000 1.958
81.00000 0.043
81.02000 1.960
81.04000 2.300
81.06000 -0.590
81.08000 0.348
81.10000 1.809
81.12000 1.899
81.14000 1.352
81.16000 0.430
81.18000 -0.023
81.20000 -1.863
81.22000 -0.689
81.24000 2.803
81.26000 4.328
81.28000 3.720
81.30000 -0.088
81.32000 0.466
81.34000 2.218
81.36000 1.252
81.38000 -1.974
81.40000 0.547
81.42000 1.515
81.44000 5.178
81.46000 4.997
81.48000 3.343
81.50000 3.638
81.52000 1.754
81.54000 1.645
81.56000 2.959
81.58000 3.844
81.60000 3.132
81.62000 3.737
81.64000 2.993
81.66000 1.019
81.68000 3.014
81.70000 2.044
81.72000 0.922
81.74000 2.393
81.76000 1.086
81.78000 4.202
81.80000 5.015
81.82000 6.939
81.84000 3.228
81.86000 1.397
81.88000 4.535
81.90000 6.697
81.92000 5.817
81.94000 4.581
81.96000 5.277
81.98000 1.410
82.00000 5.099
82.02000 8.440
82.04000 7.143
82.06000 8.063
82.08000 8.652
82.10000 7.831
82.12000 8.672
82.14000 9.230
82.16000 9.147
82.18000 13.371
82.20000 11.418
82.22000 6.783
82.24000 4.502
82.26000 8.984
82.28000 9.607
82.30000 13.984
82.32000 12.225
82.34000 14.823
82.36000 16.613
82.38000 14.301
82.40000 13.340
82.42000 15.523
82.44000 20.422
82.46000 21.773
82.48000 20.128
82.50000 23.242
82.52000 24.481
82.54000 24.087
82.56000 27.959
82.58000 27.074
82.60000 28.501
82.62000 28.161
82.64000 32.023
82.66000 32.398
82.68000 34.671
82.70000 38.711
82.72000 36.943
82.74000 38.043
82.76000 40.764
82.78000 41.947
82.80000 46.883
82.82000 46.022
82.84000 48.574
82.86000 44.269
82.88000 43.383
82.90000 44.077
82.92000 43.823
82.94000 47.260
82.96000 51.183
82.98000 48.978
83.00000 47.982
83.02000 53.595
83.04000 56.465
83.06000 53.403
83.08000 57.023
83.10000 58.221
83.12000 59.028
83.14000 58.316
83.16000 59.675
83.18000 55.595
83.20000 47.807
83.22000 49.567
83.24000 48.785
83.26000 45.812
83.28000 46.622
83.30000 46.996
83.32000 50.547
83.34000 49.248
83.36000 45.693
83.38000 40.965
83.40000 41.653
83.42000 39.918
83.44000 37.720
83.46000 41.564
83.48000 42.390
83.50000 40.200
83.52000 35.906
83.54000 29.970
83.56000 29.847
83.58000 35.094
83.60000 36.405
83.62000 32.165
83.64000 29.926
83.66000 27.851
83.68000 26.051
83.70000 27.389
83.72000 23.095
83.74000 21.091
83.76000 21.900
83.78000 18.625
83.80000 18.172
83.82000 19.266
83.84000 19.625
83.86000 23.416
83.88000 20.388
83.90000 16.041
83.92000 12.812
83.94000 13.457
83.96000 13.002
83.98000 13.167
84.00000 13.249
84.02000 11.439
84.04000 5.899
84.06000 8.262
84.08000 8.376
84.10000 10.293
84.12000 8.579
84.14000 8.434
84.16000 4.161
84.18000 3.506
84.20000 3.974
84.22000 5.561
84.24000 4.903
84.26000 6.004
84.28000 5.510
84.30000 2.395
84.32000 1.728
84.34000 5.649
84.36000 3.633
84.38000 0.269
84.40000 3.421
84.42000 4.310
84.44000 1.190
84.46000 1.195
84.48000 1.251
84.50000 -0.507
84.52000 1.940
84.54000 1.658
84.56000 -0.418
84.58000 -0.256
84.60000 0.816
84.62000 2.977
84.64000 5.414
84.66000 4.578
84.68000 2.628
84.70000 1.821
84.72000 1.810
84.74000 4.827
84.76000 3.879
84.78000 1.739
84.80000 3.862
84.82000 1.067
84.84000 -2.016
84.86000 -0.044
84.88000 0.473
84.90000 2.626
84.92000 2.048
84.94000 -0.613
84.96000 -1.389
84.98000 -0.234
85.00000 2.253
85.02000 3.385
85.04000 2.726
85.06000 0.543
85.08000 1.982
85.10000 1.189
85.12000 -0.448
85.14000 -0.018
85.16000 -1.698
85.18000 -0.035
85.20000 2.139
85.22000 1.378
85.24000 -0.715
85.26000 -1.929
85.28000 1.787
85.30000 1.418
85.32000 -0.241
85.34000 -1.970
85.36000 0.022
85.38000 0.457
85.40000 -1.359
85.42000 -1.206
85.44000 -1.199
85.46000 0.155
85.48000 1.034
85.50000 3.045
85.52000 4.778
85.54000 5.078
85.56000 2.693
85.58000 2.160
85.60000 1.498
85.62000 -0.374
85.64000 0.019
85.66000 -1.342
85.68000 -1.948
85.70000 0.531
85.72000 1.717
85.74000 -1.540
85.76000 1.760
85.78000 1.333
85.80000 -0.650
85.82000 1.790
85.84000 -0.288
85.86000 -1.933
85.88000 -0.494
85.90000 1.596
85.92000 2.645
85.94000 2.137
85.96000 -1.817
85.98000 -1.553
86.00000 -1.582
86.02000 -0.293
86.04000 2.020
86.06000 4.028
86.08000 3.629
86.10000 2.182
86.12000 0.111
86.14000 -1.286
86.16000 -0.746
86.18000 0.330
86.20000 2.010
86.22000 1.309
86.24000 -0.375
86.26000 -1.133
86.28000 2.242
86.30000 1.766
86.32000 1.069
86.34000 1.379
86.36000 0.613
86.38000 -0.605
86.40000 1.738
86.42000 -0.923
86.44000 0.637
86.46000 4.769
86.48000 3.992
86.50000 2.935
86.52000 2.422
86.54000 3.409
86.56000 3.691
86.58000 3.507
86.60000 3.319
86.62000 5.042
86.64000 2.389
86.66000 3.747
86.68000 5.732
86.70000 6.863
86.72000 6.984
86.74000 4.326
86.76000 8.149
86.78000 6.853
86.80000 5.850
86.82000 6.053
86.84000 11.008
86.86000 13.378
86.88000 11.252
86.90000 8.753
86.92000 10.310
86.94000 9.259
86.96000 10.365
86.98000 10.000
87.00000 10.959
87.02000 13.207
87.04000 15.908
87.06000 18.386
87.08000 17.152
87.10000 14.302
87.12000 14.654
87.14000 15.912
87.16000 14.808
87.18000 17.782
87.20000 22.123
87.22000 20.698
87.24000 19.762
87.26000 21.797
87.28000 22.714
87.30000 27.468
87.32000 27.159
87.34000 25.625
87.36000 26.014
87.38000 27.990
87.40000 29.657
87.42000 27.702
87.44000 28.713
87.46000 27.901
87.48000 29.100
87.50000 32.834
87.52000 31.484
87.54000 28.710
87.56000 29.420
87.58000 26.239
87.60000 26.588
87.62000 31.415
87.64000 30.652
87.66000 30.652
87.68000 30.151
87.70000 27.434
87.72000 28.087
87.74000 28.433
87.76000 26.995
87.78000 27.776
87.80000 29.454
87.82000 27.839
87.84000 25.530
87.86000 24.102
87.88000 23.134
87.90000 20.111
87.92000 20.610
87.94000 20.869
87.96000 17.453
87.98000 19.990
88.00000 20.136
88.02000 19.003
88.04000 18.243
88.06000 19.226
88.08000 18.448
88.10000 17.961
88.12000 14.237
88.14000 13.208
88.16000 13.010
88.18000 13.792
88.20000 16.420
88.22000 18.140
88.24000 15.892
88.26000 5.938
88.28000 6.330
88.30000 11.551
88.32000 9.491
88.34000 8.236
88.36000 12.620
88.38000 6.201
88.40000 3.743
88.42000 6.289
88.44000 11.277
88.46000 8.680
88.48000 4.531
88.50000 4.624
88.52000 5.367
88.54000 3.515
88.56000 5.004
88.58000 5.375
88.60000 4.679
88.62000 3.919
88.64000 2.158
88.66000 1.740
88.68000 4.373
88.70000 2.058
88.72000 1.835
88.74000 -0.349
88.76000 2.770
88.78000 2.053
88.80000 2.992
88.82000 1.050
88.84000 2.209
88.86000 4.575
88.88000 1.210
88.90000 0.369
88.92000 0.093
88.94000 0.257
88.96000 0.481
88.98000 -0.766
89.00000 -1.895
89.02000 0.099
89.04000 1.341
89.06000 -0.685
89.08000 0.441
89.10000 1.582
89.12000 1.097
89.14000 -1.109
89.16000 2.022
89.18000 -0.753
89.20000 -1.507
89.22000 0.035
89.24000 -0.319
89.26000 -1.843
89.28000 0.680
89.30000 5.104
89.32000 4.545
89.34000 0.595
89.36000 -1.672
89.38000 0.519
89.40000 1.600
89.42000 3.679
89.44000 2.757
89.46000 -1.808
89.48000 -1.245
89.50000 0.622
89.52000 2.889
89.54000 1.373
89.56000 4.484
89.58000 2.773
89.60000 1.392
89.62000 -0.252
89.64000 2.987
89.66000 -0.287
89.68000 0.233
89.70000 -1.788
89.72000 -1.562
89.74000 0.845
89.76000 4.748
89.78000 4.377
89.80000 0.145
89.82000 0.163
89.84000 2.022
89.86000 2.149
89.88000 4.535
89.90000 2.989
89.92000 0.863
89.94000 -0.110
89.96000 2.715
89.98000 2.710
90.00000 2.574
90.02000 3.649
90.04000 2.148
90.06000 0.861
90.08000 0.496
90.10000 1.338
90.12000 0.813
90.14000 3.054
90.16000 0.591
90.18000 -1.791
90.20000 1.624
90.22000 -0.071
90.24000 0.056
90.26000 0.282
90.28000 0.303
90.30000 1.954
90.32000 3.280
90.34000 0.186
90.36000 0.598
90.38000 1.998
90.40000 -0.058
90.42000 -0.975
90.44000 -1.314
90.46000 0.803
90.48000 3.878
90.50000 0.961
90.52000 -0.260
90.54000 -1.262
90.56000 -0.732
90.58000 -0.702
90.60000 -0.796
90.62000 -0.834
90.64000 0.141
90.66000 3.654
90.68000 3.752
90.70000 -0.142
90.72000 1.090
90.74000 2.923
90.76000 1.118
90.78000 2.640
90.80000 1.176
90.82000 -0.752
90.84000 2.689
90.86000 3.003
90.88000 0.850
90.90000 -0.114
90.92000 2.023
90.94000 0.955
90.96000 0.933
90.98000 -0.050
91.00000 0.974
91.02000 1.864
91.04000 -1.267
91.06000 -0.067
91.08000 5.239
91.10000 6.412
91.12000 4.936
91.14000 4.298
91.16000 6.065
91.18000 1.183
91.20000 -1.739
91.22000 1.937
91.24000 3.210
91.26000 4.913
91.28000 4.435
91.30000 2.554
91.32000 2.820
91.34000 5.897
91.36000 4.120
91.38000 2.035
91.40000 3.122
91.42000 2.239
91.44000 1.227
91.46000 -0.459
91.48000 1.743
91.50000 1.339
91.52000 2.437
91.54000 0.313
91.56000 -1.272
91.58000 0.682
91.60000 -1.741
91.62000 -0.262
91.64000 3.675
91.66000 2.839
91.68000 5.405
91.70000 2.693
91.72000 4.243
91.74000 3.898
91.76000 3.290
91.78000 1.124
91.80000 -0.076
91.82000 -0.536
91.84000 0.602
91.86000 1.671
91.88000 2.320
91.90000 2.528
91.92000 1.106
91.94000 0.953
91.96000 0.795
91.98000 -1.214
92.00000 -0.233
92.02000 -0.499
92.04000 -0.538
92.06000 1.649
92.08000 1.675
92.10000 0.427
92.12000 1.347
92.14000 1.874
92.16000 0.812
92.18000 0.236
92.20000 0.169
92.22000 0.892
92.24000 1.875
92.26000 0.412
92.28000 0.387
92.30000 1.682
92.32000 2.572
92.34000 0.977
92.36000 2.493
92.38000 6.564
92.40000 3.321
92.42000 3.149
92.44000 1.313
92.46000 -1.753
92.48000 0.997
92.50000 0.050
92.52000 4.308
92.54000 1.690
92.56000 2.654
92.58000 0.613
92.60000 0.077
92.62000 -1.084
92.64000 2.948
92.66000 2.728
92.68000 4.656
92.70000 1.633
92.72000 0.459
92.74000 1.181
92.76000 3.286
92.78000 1.508
92.80000 1.822
92.82000 -0.365
92.84000 -0.197
92.86000 3.831
92.88000 1.271
92.90000 -1.569
92.92000 0.747
92.94000 4.312
92.96000 4.303
92.98000 4.212
93.00000 1.811
93.02000 2.797
93.04000 6.502
93.06000 3.289
93.08000 1.747
93.10000 -0.026
93.12000 2.816
93.14000 1.847
93.16000 -1.452
93.18000 0.901
93.20000 3.677
93.22000 3.251
93.24000 0.122
93.26000 1.062
93.28000 1.495
93.30000 4.073
93.32000 5.218
93.34000 2.867
93.36000 2.926
93.38000 2.694
93.40000 3.276
93.42000 -1.718
93.44000 1.246
93.46000 1.404
93.48000 0.792
93.50000 5.424
93.52000 3.222
93.54000 2.892
93.56000 2.364
93.58000 2.128
93.60000 2.237
93.62000 3.349
93.64000 1.979
93.66000 -0.495
93.68000 -1.603
93.70000 -0.185
93.72000 1.937
93.74000 2.208
93.76000 1.063
93.78000 2.782
93.80000 0.875
93.82000 0.988
93.84000 1.763
93.86000 1.047
93.88000 3.532
93.90000 2.537
93.92000 0.867
93.94000 0.397
93.96000 0.984
93.98000 1.503
94.00000 2.771
94.02000 2.855
94.04000 0.141
94.06000 0.228
94.08000 2.252
94.10000 3.550
94.12000 5.884
94.14000 3.517
94.16000 -0.154
94.18000 -0.346
94.20000 3.043
94.22000 2.772
94.24000 2.614
94.26000 0.298
94.28000 -1.549
94.30000 -1.744
94.32000 -0.212
94.34000 -1.153
94.36000 2.101
94.38000 4.217
94.40000 1.783
94.42000 1.596
94.44000 1.694
94.46000 2.709
94.48000 2.911
94.50000 2.074
94.52000 3.169
94.54000 4.070
94.56000 4.654
94.58000 3.287
94.60000 3.438
94.62000 2.286
94.64000 1.825
94.66000 2.409
94.68000 3.348
94.70000 3.402
94.72000 1.400
94.74000 -0.957
94.76000 -0.688
94.78000 2.315
94.80000 3.349
94.82000 2.918
94.84000 3.435
94.86000 3.161
94.88000 1.292
94.90000 -0.139
94.92000 0.502
94.94000 -1.035
94.96000 0.808
94.98000 1.390
95.00000 -0.153
95.02000 1.873
95.04000 1.883
95.06000 0.377
95.08000 0.910
95.10000 2.938
95.12000 0.838
95.14000 2.801
95.16000 2.214
95.18000 1.000
95.20000 2.226
95.22000 1.576
95.24000 -1.527
95.26000 0.483
95.28000 2.369
95.30000 -1.097
95.32000 1.943
95.34000 2.502
95.36000 0.313
95.38000 -0.608
95.40000 3.751
95.42000 5.277
95.44000 3.033
95.46000 1.117
95.48000 -0.780
95.50000 -1.754
95.52000 0.754
95.54000 3.327
95.56000 0.582
95.58000 -1.408
95.60000 2.174
95.62000 1.459
95.64000 0.762
95.66000 1.762
95.68000 1.047
95.70000 1.858
95.72000 1.398
95.74000 -0.430
95.76000 0.570
95.78000 2.902
95.80000 1.844
95.82000 1.926
95.84000 -0.193
95.86000 -1.301
95.88000 0.255
95.90000 0.164
95.92000 4.743
95.94000 4.007
95.96000 5.409
95.98000 1.589
96.00000 2.014
96.02000 -0.043
96.04000 -0.953
96.06000 0.946
96.08000 -0.241
96.10000 0.170
96.12000 1.948
96.14000 1.324
96.16000 -1.046
96.18000 -1.775
96.20000 0.638
96.22000 0.122
96.24000 -0.729
96.26000 1.212
96.28000 2.019
96.30000 1.336
96.32000 -1.431
96.34000 3.759
96.36000 1.722
96.38000 0.909
96.40000 -1.773
96.42000 0.590
96.44000 2.950
96.46000 5.509
96.48000 2.745
96.50000 -1.482
96.52000 1.669
96.54000 2.607
96.56000 3.763
96.58000 2.994
96.60000 3.507
96.62000 3.631
96.64000 -0.934
96.66000 -1.207
96.68000 -0.370
96.70000 2.089
96.72000 3.547
96.74000 1.587
96.76000 1.777
96.78000 1.380
96.80000 1.418
96.82000 2.424
96.84000 0.763
96.86000 0.771
96.88000 6.705
96.90000 2.967
96.92000 1.160
96.94000 2.438
96.96000 6.113
96.98000 2.870
97.00000 3.339
97.02000 5.196
97.04000 1.898
97.06000 1.174
97.08000 1.628
97.10000 2.705
97.12000 3.801
97.14000 2.592
97.16000 0.205
97.18000 2.539
97.20000 6.327
97.22000 4.634
97.24000 0.926
97.26000 1.344
97.28000 -0.117
97.30000 -1.738
97.32000 -0.393
97.34000 5.791
97.36000 8.657
97.38000 4.685
97.40000 -0.609
97.42000 0.417
97.44000 2.580
97.46000 1.333
97.48000 -1.091
97.50000 1.339
97.52000 3.531
97.54000 1.503
97.56000 2.032
97.58000 4.330
97.60000 5.745
97.62000 2.424
97.64000 4.281
97.66000 1.308
97.68000 3.811
97.70000 3.192
97.72000 2.679
97.74000 -0.452
97.76000 1.949
97.78000 3.582
97.80000 5.271
97.82000 6.479
97.84000 7.347
97.86000 5.065
97.88000 6.944
97.90000 7.783
97.92000 5.486
97.94000 3.005
97.96000 2.870
97.98000 -1.669
98.00000 2.143
98.02000 6.992
98.04000 5.642
98.06000 3.851
98.08000 4.251
98.10000 0.376
98.12000 1.100
98.14000 4.429
98.16000 5.368
98.18000 7.477
98.20000 6.486
98.22000 7.205
98.24000 5.752
98.26000 3.663
98.28000 4.725
98.30000 5.897
98.32000 6.314
98.34000 7.712
98.36000 -1.264
98.38000 -1.685
98.40000 5.095
98.42000 7.958
98.44000 8.316
98.46000 7.446
98.48000 5.444
98.50000 4.774
98.52000 6.692
98.54000 5.017
98.56000 3.088
98.58000 3.372
98.60000 3.536
98.62000 5.338
98.64000 2.704
98.66000 4.364
98.68000 3.919
98.70000 3.155
98.72000 6.603
98.74000 1.843
98.76000 1.352
98.78000 8.292
98.80000 1.894
98.82000 2.822
98.84000 2.880
98.86000 3.579
98.88000 8.483
98.90000 10.440
98.92000 2.603
98.94000 -0.598
98.96000 -0.521
98.98000 1.499
99.00000 2.562
99.02000 6.917
99.04000 5.858
99.06000 3.824
99.08000 8.864
99.10000 7.680
99.12000 6.474
99.14000 1.583
99.16000 -1.665
99.18000 -0.955
99.20000 4.809
99.22000 10.544
99.24000 2.946
99.26000 6.795
99.28000 6.560
99.30000 8.783
99.32000 6.698
99.34000 1.807
99.36000 4.654
99.38000 1.122
99.40000 6.714
99.42000 5.238
99.44000 2.176
99.46000 3.446
99.48000 4.548
99.50000 5.033
99.52000 3.227
99.54000 7.204
99.56000 5.725
99.58000 4.040
99.60000 4.379
99.62000 4.436
99.64000 9.586
99.66000 5.642
99.68000 3.403
99.70000 -1.659
99.72000 -0.110
99.74000 3.296
99.76000 9.002
99.78000 7.926
99.80000 1.895
99.82000 -0.728
99.84000 -0.292
99.86000 1.946
99.88000 3.502
99.90000 3.886
99.92000 0.570
99.94000 -1.222
99.96000 -1.877
99.98000 0.000
