'Id: "0011387" Comment: "Integrate frame 0011387_Au-Ir-Rh_Rh-rich_XRD-Mapping-191-0000.gfrmwith cursor Wedge Cursor #5" Operator: "B?rgel" Anode: "Cu" Wavelength: "1.5406" Scantype: "2Theta (TwoTheta)" TimePerStep: "1" X: "13.5" Y: "4.5" Z: "5.95" 
10.00000 0.000
10.02000 0.095
10.04000 -3.940
10.06000 6.822
10.08000 1.108
10.10000 2.921
10.12000 8.290
10.14000 8.704
10.16000 5.291
10.18000 5.049
10.20000 0.413
10.22000 0.688
10.24000 -0.157
10.26000 -0.663
10.28000 12.317
10.30000 14.985
10.32000 9.333
10.34000 13.127
10.36000 19.248
10.38000 10.139
10.40000 -3.966
10.42000 -3.231
10.44000 13.849
10.46000 10.971
10.48000 9.510
10.50000 3.199
10.52000 2.546
10.54000 -0.548
10.56000 -3.980
10.58000 2.708
10.60000 21.980
10.62000 12.923
10.64000 5.931
10.66000 10.526
10.68000 20.737
10.70000 19.398
10.72000 20.839
10.74000 21.508
10.76000 27.323
10.78000 20.631
10.80000 13.665
10.82000 8.798
10.84000 8.150
10.86000 9.698
10.88000 -1.723
10.90000 13.754
10.92000 5.537
10.94000 7.183
10.96000 20.269
10.98000 16.191
11.00000 6.382
11.02000 8.025
11.04000 12.761
11.06000 16.291
11.08000 21.915
11.10000 13.091
11.12000 4.647
11.14000 -0.217
11.16000 6.919
11.18000 7.152
11.20000 7.745
11.22000 8.862
11.24000 14.631
11.26000 22.091
11.28000 35.489
11.30000 29.576
11.32000 18.516
11.34000 17.730
11.36000 17.914
11.38000 5.195
11.40000 14.287
11.42000 16.018
11.44000 12.489
11.46000 9.812
11.48000 8.016
11.50000 3.020
11.52000 5.788
11.54000 13.251
11.56000 18.358
11.58000 23.370
11.60000 25.638
11.62000 23.069
11.64000 12.112
11.66000 16.687
11.68000 15.050
11.70000 13.006
11.72000 17.952
11.74000 22.978
11.76000 25.407
11.78000 28.090
11.80000 24.248
11.82000 21.709
11.84000 18.793
11.86000 13.760
11.88000 21.329
11.90000 25.170
11.92000 18.293
11.94000 17.002
11.96000 10.610
11.98000 14.286
12.00000 4.628
12.02000 0.982
12.04000 3.757
12.06000 7.859
12.08000 11.102
12.10000 12.089
12.12000 21.055
12.14000 20.071
12.16000 9.138
12.18000 11.111
12.20000 12.514
12.22000 20.633
12.24000 25.444
12.26000 31.389
12.28000 15.101
12.30000 6.428
12.32000 10.090
12.34000 18.468
12.36000 20.081
12.38000 9.468
12.40000 25.812
12.42000 27.088
12.44000 20.610
12.46000 6.016
12.48000 11.961
12.50000 19.548
12.52000 18.278
12.54000 14.969
12.56000 19.284
12.58000 24.735
12.60000 24.310
12.62000 24.467
12.64000 22.721
12.66000 20.131
12.68000 15.799
12.70000 19.894
12.72000 18.592
12.74000 18.426
12.76000 17.052
12.78000 19.033
12.80000 18.526
12.82000 21.076
12.84000 19.142
12.86000 18.872
12.88000 14.608
12.90000 13.063
12.92000 20.006
12.94000 20.581
12.96000 20.055
12.98000 23.032
13.00000 23.117
13.02000 20.080
13.04000 10.222
13.06000 7.064
13.08000 4.509
13.10000 7.745
13.12000 10.647
13.14000 14.502
13.16000 25.152
13.18000 25.268
13.20000 11.260
13.22000 17.286
13.24000 21.442
13.26000 24.273
13.28000 20.410
13.30000 15.693
13.32000 15.906
13.34000 12.212
13.36000 16.261
13.38000 22.385
13.40000 19.614
13.42000 20.724
13.44000 18.738
13.46000 12.355
13.48000 14.088
13.50000 24.112
13.52000 19.820
13.54000 23.667
13.56000 25.516
13.58000 23.611
13.60000 11.594
13.62000 3.647
13.64000 11.720
13.66000 16.755
13.68000 10.618
13.70000 18.458
13.72000 16.896
13.74000 18.647
13.76000 17.247
13.78000 17.869
13.80000 10.478
13.82000 6.081
13.84000 13.964
13.86000 23.259
13.88000 21.468
13.90000 10.624
13.92000 -0.813
13.94000 7.564
13.96000 13.462
13.98000 13.823
14.00000 15.383
14.02000 15.057
14.04000 10.242
14.06000 7.315
14.08000 3.961
14.10000 8.069
14.12000 8.572
14.14000 4.428
14.16000 1.557
14.18000 7.406
14.20000 13.738
14.22000 14.849
14.24000 11.855
14.26000 6.429
14.28000 7.700
14.30000 9.510
14.32000 15.262
14.34000 14.982
14.36000 13.151
14.38000 14.409
14.40000 18.632
14.42000 9.442
14.44000 0.621
14.46000 7.252
14.48000 11.526
14.50000 12.064
14.52000 11.110
14.54000 4.939
14.56000 9.933
14.58000 11.321
14.60000 4.665
14.62000 5.324
14.64000 7.507
14.66000 6.199
14.68000 4.296
14.70000 9.114
14.72000 12.782
14.74000 16.795
14.76000 16.191
14.78000 15.858
14.80000 7.513
14.82000 7.077
14.84000 13.801
14.86000 11.564
14.88000 9.455
14.90000 14.675
14.92000 11.847
14.94000 13.710
14.96000 8.756
14.98000 10.226
15.00000 8.158
15.02000 8.985
15.04000 11.574
15.06000 22.977
15.08000 11.225
15.10000 6.856
15.12000 17.093
15.14000 13.688
15.16000 13.758
15.18000 23.116
15.20000 8.852
15.22000 0.386
15.24000 2.131
15.26000 14.244
15.28000 20.279
15.30000 5.714
15.32000 10.661
15.34000 9.138
15.36000 4.531
15.38000 3.397
15.40000 7.467
15.42000 12.366
15.44000 15.998
15.46000 10.557
15.48000 9.892
15.50000 9.982
15.52000 8.837
15.54000 11.863
15.56000 13.890
15.58000 12.979
15.60000 9.249
15.62000 -2.206
15.64000 6.588
15.66000 14.412
15.68000 20.102
15.70000 6.027
15.72000 -4.409
15.74000 -1.461
15.76000 1.676
15.78000 11.301
15.80000 12.267
15.82000 10.432
15.84000 9.173
15.86000 12.748
15.88000 16.734
15.90000 14.576
15.92000 8.499
15.94000 7.385
15.96000 9.846
15.98000 10.567
16.00000 7.355
16.02000 6.153
16.04000 5.354
16.06000 3.717
16.08000 4.485
16.10000 13.982
16.12000 16.865
16.14000 17.107
16.16000 11.170
16.18000 14.477
16.20000 15.651
16.22000 14.738
16.24000 11.040
16.26000 9.515
16.28000 8.698
16.30000 6.050
16.32000 4.358
16.34000 8.306
16.36000 14.313
16.38000 7.862
16.40000 6.058
16.42000 3.628
16.44000 1.076
16.46000 -4.408
16.48000 0.899
16.50000 2.023
16.52000 0.978
16.54000 15.913
16.56000 9.754
16.58000 8.336
16.60000 -2.073
16.62000 -2.179
16.64000 4.320
16.66000 7.175
16.68000 4.082
16.70000 16.190
16.72000 10.435
16.74000 1.096
16.76000 1.603
16.78000 8.286
16.80000 5.005
16.82000 2.720
16.84000 9.902
16.86000 6.481
16.88000 7.573
16.90000 3.857
16.92000 1.691
16.94000 4.389
16.96000 4.386
16.98000 4.720
17.00000 7.652
17.02000 0.603
17.04000 -2.464
17.06000 1.455
17.08000 -3.232
17.10000 1.377
17.12000 8.164
17.14000 9.003
17.16000 14.015
17.18000 11.443
17.20000 8.839
17.22000 11.249
17.24000 6.252
17.26000 5.469
17.28000 -2.430
17.30000 -0.513
17.32000 5.161
17.34000 4.275
17.36000 5.222
17.38000 0.158
17.40000 2.924
17.42000 12.610
17.44000 12.544
17.46000 5.760
17.48000 7.047
17.50000 10.835
17.52000 9.736
17.54000 15.878
17.56000 13.570
17.58000 6.390
17.60000 0.028
17.62000 9.715
17.64000 11.811
17.66000 4.607
17.68000 3.646
17.70000 9.197
17.72000 8.385
17.74000 -0.947
17.76000 3.985
17.78000 4.945
17.80000 -3.296
17.82000 -2.651
17.84000 4.620
17.86000 1.644
17.88000 0.802
17.90000 2.240
17.92000 8.858
17.94000 8.369
17.96000 9.088
17.98000 5.952
18.00000 5.339
18.02000 9.500
18.04000 4.304
18.06000 3.447
18.08000 9.807
18.10000 4.860
18.12000 -4.337
18.14000 0.856
18.16000 3.591
18.18000 7.607
18.20000 11.840
18.22000 7.737
18.24000 12.039
18.26000 12.925
18.28000 4.144
18.30000 0.987
18.32000 3.605
18.34000 7.275
18.36000 10.138
18.38000 12.177
18.40000 6.120
18.42000 10.081
18.44000 9.719
18.46000 9.679
18.48000 8.364
18.50000 12.232
18.52000 7.532
18.54000 2.042
18.56000 1.668
18.58000 4.042
18.60000 2.124
18.62000 6.121
18.64000 9.397
18.66000 1.249
18.68000 -3.791
18.70000 -0.280
18.72000 5.032
18.74000 9.767
18.76000 8.657
18.78000 2.873
18.80000 1.435
18.82000 4.244
18.84000 5.971
18.86000 4.091
18.88000 1.359
18.90000 2.828
18.92000 5.988
18.94000 5.113
18.96000 -1.410
18.98000 -4.275
19.00000 2.555
19.02000 2.893
19.04000 2.982
19.06000 4.520
19.08000 1.538
19.10000 4.119
19.12000 0.915
19.14000 4.104
19.16000 9.546
19.18000 8.952
19.20000 9.210
19.22000 5.901
19.24000 0.594
19.26000 5.818
19.28000 4.738
19.30000 5.326
19.32000 7.946
19.34000 5.047
19.36000 -4.262
19.38000 1.240
19.40000 0.817
19.42000 5.299
19.44000 5.861
19.46000 5.123
19.48000 1.982
19.50000 4.054
19.52000 2.331
19.54000 3.579
19.56000 6.547
19.58000 9.207
19.60000 7.065
19.62000 9.976
19.64000 12.624
19.66000 6.302
19.68000 2.541
19.70000 -0.951
19.72000 6.582
19.74000 7.617
19.76000 1.329
19.78000 6.258
19.80000 1.387
19.82000 3.458
19.84000 1.894
19.86000 4.515
19.88000 2.498
19.90000 0.354
19.92000 4.787
19.94000 13.469
19.96000 7.976
19.98000 3.326
20.00000 -4.234
20.02000 8.236
20.04000 7.930
20.06000 2.965
20.08000 2.437
20.10000 1.766
20.12000 4.599
20.14000 3.744
20.16000 -2.576
20.18000 6.628
20.20000 6.644
20.22000 -4.226
20.24000 1.364
20.26000 3.621
20.28000 3.963
20.30000 10.378
20.32000 6.415
20.34000 7.828
20.36000 4.540
20.38000 -0.110
20.40000 3.338
20.42000 3.322
20.44000 4.010
20.46000 6.098
20.48000 4.390
20.50000 6.547
20.52000 10.279
20.54000 14.325
20.56000 11.620
20.58000 6.157
20.60000 2.636
20.62000 3.143
20.64000 7.301
20.66000 2.026
20.68000 -1.415
20.70000 6.394
20.72000 1.032
20.74000 -2.898
20.76000 2.767
20.78000 5.579
20.80000 4.730
20.82000 1.376
20.84000 6.725
20.86000 5.886
20.88000 2.941
20.90000 0.632
20.92000 5.841
20.94000 1.974
20.96000 -0.875
20.98000 3.932
21.00000 3.302
21.02000 4.977
21.04000 4.396
21.06000 2.261
21.08000 -0.222
21.10000 3.096
21.12000 7.138
21.14000 -3.625
21.16000 0.407
21.18000 2.225
21.20000 -2.119
21.22000 -1.321
21.24000 4.638
21.26000 7.623
21.28000 4.383
21.30000 5.926
21.32000 3.145
21.34000 0.418
21.36000 4.470
21.38000 4.208
21.40000 6.469
21.42000 5.252
21.44000 6.290
21.46000 7.848
21.48000 5.773
21.50000 1.345
21.52000 -4.163
21.54000 0.354
21.56000 -2.706
21.58000 -3.751
21.60000 0.421
21.62000 -1.161
21.64000 -2.723
21.66000 4.919
21.68000 2.654
21.70000 -1.494
21.72000 -3.313
21.74000 2.519
21.76000 6.696
21.78000 11.095
21.80000 1.286
21.82000 3.127
21.84000 2.362
21.86000 -2.153
21.88000 6.323
21.90000 6.568
21.92000 -1.179
21.94000 1.628
21.96000 5.395
21.98000 4.881
22.00000 4.527
22.02000 2.811
22.04000 5.457
22.06000 6.253
22.08000 3.294
22.10000 1.497
22.12000 1.001
22.14000 1.062
22.16000 -1.438
22.18000 -2.079
22.20000 -1.597
22.22000 -2.951
22.24000 -0.069
22.26000 4.329
22.28000 -1.750
22.30000 0.536
22.32000 3.373
22.34000 -0.207
22.36000 -2.856
22.38000 2.658
22.40000 -2.175
22.42000 -1.439
22.44000 5.386
22.46000 7.734
22.48000 3.995
22.50000 4.147
22.52000 -0.929
22.54000 -0.722
22.56000 2.516
22.58000 8.133
22.60000 8.826
22.62000 -2.688
22.64000 0.591
22.66000 1.136
22.68000 3.682
22.70000 5.757
22.72000 1.401
22.74000 3.867
22.76000 10.320
22.78000 -0.972
22.80000 2.218
22.82000 3.536
22.84000 -2.174
22.86000 -2.911
22.88000 -1.016
22.90000 -0.365
22.92000 1.668
22.94000 6.149
22.96000 8.906
22.98000 -0.478
23.00000 5.015
23.02000 5.757
23.04000 5.271
23.06000 4.947
23.08000 2.898
23.10000 2.196
23.12000 3.186
23.14000 3.885
23.16000 -1.021
23.18000 1.148
23.20000 5.999
23.22000 1.777
23.24000 2.258
23.26000 0.253
23.28000 -1.340
23.30000 -1.443
23.32000 -0.448
23.34000 6.780
23.36000 7.320
23.38000 5.212
23.40000 8.275
23.42000 3.408
23.44000 6.821
23.46000 7.129
23.48000 3.736
23.50000 3.097
23.52000 6.641
23.54000 9.345
23.56000 4.998
23.58000 7.169
23.60000 10.788
23.62000 6.658
23.64000 6.712
23.66000 1.933
23.68000 1.076
23.70000 3.726
23.72000 3.145
23.74000 11.119
23.76000 9.079
23.78000 5.869
23.80000 3.873
23.82000 -0.280
23.84000 -0.666
23.86000 -3.983
23.88000 2.970
23.90000 10.390
23.92000 8.780
23.94000 9.097
23.96000 2.526
23.98000 7.858
24.00000 5.309
24.02000 5.134
24.04000 8.862
24.06000 13.770
24.08000 6.577
24.10000 4.737
24.12000 1.862
24.14000 5.586
24.16000 10.287
24.18000 2.987
24.20000 2.580
24.22000 1.094
24.24000 3.619
24.26000 3.601
24.28000 3.478
24.30000 5.315
24.32000 3.369
24.34000 5.233
24.36000 6.689
24.38000 2.726
24.40000 4.707
24.42000 6.529
24.44000 4.283
24.46000 4.287
24.48000 4.539
24.50000 2.951
24.52000 8.396
24.54000 10.179
24.56000 6.192
24.58000 6.205
24.60000 2.702
24.62000 0.892
24.64000 3.027
24.66000 11.642
24.68000 -3.060
24.70000 3.106
24.72000 3.917
24.74000 0.909
24.76000 1.750
24.78000 7.471
24.80000 5.567
24.82000 4.427
24.84000 7.310
24.86000 3.373
24.88000 -1.762
24.90000 7.384
24.92000 4.717
24.94000 7.601
24.96000 4.781
24.98000 3.844
25.00000 3.613
25.02000 -0.276
25.04000 2.353
25.06000 8.208
25.08000 3.941
25.10000 4.893
25.12000 -0.341
25.14000 0.679
25.16000 6.516
25.18000 6.581
25.20000 7.491
25.22000 6.472
25.24000 4.945
25.26000 11.357
25.28000 9.800
25.30000 6.910
25.32000 6.384
25.34000 6.152
25.36000 8.158
25.38000 12.799
25.40000 9.225
25.42000 6.278
25.44000 8.000
25.46000 7.110
25.48000 10.237
25.50000 0.266
25.52000 -3.888
25.54000 4.460
25.56000 7.005
25.58000 9.083
25.60000 5.781
25.62000 -0.705
25.64000 4.533
25.66000 4.561
25.68000 2.842
25.70000 3.277
25.72000 7.243
25.74000 7.008
25.76000 2.356
25.78000 -0.240
25.80000 2.522
25.82000 3.866
25.84000 2.900
25.86000 -2.417
25.88000 2.760
25.90000 5.370
25.92000 9.013
25.94000 9.530
25.96000 9.533
25.98000 5.286
26.00000 -0.212
26.02000 0.584
26.04000 4.602
26.06000 5.197
26.08000 6.562
26.10000 4.404
26.12000 -2.838
26.14000 2.229
26.16000 7.195
26.18000 3.379
26.20000 2.853
26.22000 1.578
26.24000 1.401
26.26000 3.832
26.28000 6.361
26.30000 -0.076
26.32000 -3.149
26.34000 -2.491
26.36000 2.008
26.38000 -1.203
26.40000 0.067
26.42000 -0.197
26.44000 1.094
26.46000 0.484
26.48000 -1.375
26.50000 -1.024
26.52000 0.216
26.54000 1.486
26.56000 2.776
26.58000 2.430
26.60000 3.677
26.62000 -1.538
26.64000 1.220
26.66000 3.713
26.68000 0.242
26.70000 0.481
26.72000 0.851
26.74000 2.397
26.76000 5.727
26.78000 6.316
26.80000 4.804
26.82000 0.931
26.84000 0.859
26.86000 1.242
26.88000 -0.722
26.90000 0.576
26.92000 3.447
26.94000 3.699
26.96000 3.481
26.98000 6.830
27.00000 3.857
27.02000 0.286
27.04000 0.149
27.06000 0.646
27.08000 1.750
27.10000 1.366
27.12000 -1.101
27.14000 1.332
27.16000 2.825
27.18000 1.543
27.20000 2.648
27.22000 3.130
27.24000 6.968
27.26000 5.719
27.28000 2.959
27.30000 0.104
27.32000 4.546
27.34000 3.409
27.36000 5.558
27.38000 4.936
27.40000 4.149
27.42000 5.041
27.44000 -0.601
27.46000 9.527
27.48000 8.517
27.50000 5.892
27.52000 2.084
27.54000 2.242
27.56000 1.247
27.58000 1.022
27.60000 0.183
27.62000 2.062
27.64000 2.829
27.66000 4.652
27.68000 10.688
27.70000 4.487
27.72000 -3.243
27.74000 -3.796
27.76000 3.230
27.78000 2.087
27.80000 0.150
27.82000 0.305
27.84000 2.320
27.86000 10.455
27.88000 11.561
27.90000 2.622
27.92000 1.385
27.94000 -2.493
27.96000 1.412
27.98000 -1.045
28.00000 -0.985
28.02000 -2.302
28.04000 2.016
28.06000 5.661
28.08000 6.599
28.10000 2.645
28.12000 7.083
28.14000 8.123
28.16000 5.752
28.18000 3.756
28.20000 0.754
28.22000 -1.107
28.24000 3.737
28.26000 1.640
28.28000 2.850
28.30000 2.929
28.32000 5.060
28.34000 -0.454
28.36000 -2.006
28.38000 1.814
28.40000 0.327
28.42000 0.034
28.44000 -2.917
28.46000 -2.560
28.48000 2.441
28.50000 3.203
28.52000 4.552
28.54000 -2.029
28.56000 -1.653
28.58000 0.247
28.60000 -2.473
28.62000 -1.397
28.64000 3.514
28.66000 1.746
28.68000 -1.835
28.70000 4.093
28.72000 2.493
28.74000 0.412
28.76000 3.838
28.78000 1.852
28.80000 -3.283
28.82000 -1.377
28.84000 -2.562
28.86000 -2.125
28.88000 -3.761
28.90000 -2.558
28.92000 0.799
28.94000 -1.498
28.96000 -2.908
28.98000 -1.033
29.00000 -2.162
29.02000 -3.191
29.04000 4.911
29.06000 7.638
29.08000 6.349
29.10000 2.941
29.12000 -3.105
29.14000 -1.357
29.16000 4.183
29.18000 -1.424
29.20000 -0.503
29.22000 3.700
29.24000 5.095
29.26000 6.314
29.28000 7.836
29.30000 2.389
29.32000 2.170
29.34000 3.796
29.36000 4.928
29.38000 1.091
29.40000 0.956
29.42000 -0.243
29.44000 1.765
29.46000 1.619
29.48000 -2.653
29.50000 -2.799
29.52000 -2.529
29.54000 1.855
29.56000 1.450
29.58000 2.412
29.60000 -1.570
29.62000 0.954
29.64000 6.772
29.66000 6.830
29.68000 2.430
29.70000 4.416
29.72000 2.844
29.74000 1.355
29.76000 4.557
29.78000 5.005
29.80000 5.033
29.82000 6.971
29.84000 1.845
29.86000 -3.702
29.88000 7.757
29.90000 4.339
29.92000 2.419
29.94000 7.895
29.96000 2.786
29.98000 2.537
30.00000 7.849
30.02000 9.301
30.04000 2.947
30.06000 2.320
30.08000 2.526
30.10000 1.179
30.12000 2.890
30.14000 4.482
30.16000 0.326
30.18000 -3.680
30.20000 -0.086
30.22000 3.045
30.24000 4.346
30.26000 -1.402
30.28000 1.155
30.30000 1.952
30.32000 1.519
30.34000 2.560
30.36000 1.511
30.38000 0.396
30.40000 1.777
30.42000 -2.461
30.44000 -1.086
30.46000 3.829
30.48000 7.154
30.50000 3.468
30.52000 -1.067
30.54000 -3.663
30.56000 5.029
30.58000 1.813
30.60000 -3.377
30.62000 -2.414
30.64000 3.437
30.66000 6.522
30.68000 4.959
30.70000 6.311
30.72000 5.896
30.74000 5.961
30.76000 2.934
30.78000 1.624
30.80000 0.441
30.82000 1.247
30.84000 2.159
30.86000 4.834
30.88000 7.664
30.90000 4.655
30.92000 5.020
30.94000 4.096
30.96000 8.909
30.98000 10.540
31.00000 4.392
31.02000 3.891
31.04000 5.037
31.06000 3.000
31.08000 1.390
31.10000 5.002
31.12000 6.270
31.14000 0.496
31.16000 3.673
31.18000 5.867
31.20000 1.019
31.22000 2.502
31.24000 5.322
31.26000 5.065
31.28000 5.868
31.30000 5.672
31.32000 6.789
31.34000 7.251
31.36000 1.368
31.38000 -0.010
31.40000 -3.592
31.42000 0.786
31.44000 7.579
31.46000 6.990
31.48000 6.303
31.50000 7.646
31.52000 7.602
31.54000 2.576
31.56000 -0.298
31.58000 2.027
31.60000 2.165
31.62000 1.225
31.64000 4.056
31.66000 7.337
31.68000 9.070
31.70000 2.664
31.72000 2.794
31.74000 -2.112
31.76000 -1.831
31.78000 -2.386
31.80000 -1.937
31.82000 2.060
31.84000 4.066
31.86000 6.982
31.88000 8.589
31.90000 7.138
31.92000 3.724
31.94000 -0.672
31.96000 -1.744
31.98000 2.524
32.00000 2.977
32.02000 6.451
32.04000 4.912
32.06000 3.451
32.08000 0.805
32.10000 -3.589
32.12000 3.936
32.14000 7.409
32.16000 2.447
32.18000 -2.613
32.20000 1.259
32.22000 -1.243
32.24000 -1.698
32.26000 0.417
32.28000 5.055
32.30000 4.079
32.32000 0.117
32.34000 0.483
32.36000 1.146
32.38000 0.043
32.40000 -0.484
32.42000 0.404
32.44000 2.645
32.46000 6.190
32.48000 9.196
32.50000 4.886
32.52000 0.413
32.54000 3.898
32.56000 5.846
32.58000 0.602
32.60000 -0.309
32.62000 -3.580
32.64000 -2.941
32.66000 -1.260
32.68000 0.243
32.70000 3.868
32.72000 2.653
32.74000 2.721
32.76000 0.345
32.78000 0.789
32.80000 2.800
32.82000 2.235
32.84000 3.478
32.86000 1.273
32.88000 -0.132
32.90000 3.823
32.92000 7.734
32.94000 3.408
32.96000 2.397
32.98000 4.710
33.00000 2.107
33.02000 2.933
33.04000 0.967
33.06000 1.456
33.08000 6.785
33.10000 6.405
33.12000 5.887
33.14000 2.259
33.16000 -2.006
33.18000 -0.782
33.20000 -0.986
33.22000 3.331
33.24000 1.821
33.26000 3.054
33.28000 2.056
33.30000 3.555
33.32000 5.239
33.34000 5.567
33.36000 7.096
33.38000 6.117
33.40000 1.276
33.42000 2.635
33.44000 7.223
33.46000 1.837
33.48000 0.682
33.50000 1.068
33.52000 -2.825
33.54000 -2.770
33.56000 0.075
33.58000 0.945
33.60000 1.205
33.62000 3.167
33.64000 6.151
33.66000 10.625
33.68000 4.330
33.70000 1.815
33.72000 1.769
33.74000 5.889
33.76000 6.147
33.78000 4.330
33.80000 2.664
33.82000 1.222
33.84000 1.947
33.86000 6.647
33.88000 5.971
33.90000 6.706
33.92000 7.288
33.94000 4.188
33.96000 -0.524
33.98000 0.301
34.00000 3.646
34.02000 5.445
34.04000 8.169
34.06000 2.056
34.08000 0.561
34.10000 3.268
34.12000 0.774
34.14000 -3.543
34.16000 5.160
34.18000 7.137
34.20000 4.592
34.22000 -0.683
34.24000 -0.173
34.26000 0.774
34.28000 2.342
34.30000 4.090
34.32000 5.391
34.34000 6.293
34.36000 4.444
34.38000 2.099
34.40000 3.300
34.42000 3.376
34.44000 7.937
34.46000 6.693
34.48000 4.326
34.50000 5.941
34.52000 7.984
34.54000 7.865
34.56000 5.454
34.58000 3.084
34.60000 0.623
34.62000 3.534
34.64000 3.616
34.66000 5.127
34.68000 6.572
34.70000 3.536
34.72000 -0.148
34.74000 6.340
34.76000 5.648
34.78000 4.335
34.80000 3.221
34.82000 4.935
34.84000 1.419
34.86000 -1.981
34.88000 -2.581
34.90000 1.153
34.92000 4.745
34.94000 -0.400
34.96000 -2.731
34.98000 -0.646
35.00000 0.756
35.02000 3.444
35.04000 5.645
35.06000 6.298
35.08000 8.855
35.10000 1.777
35.12000 -3.462
35.14000 -0.712
35.16000 5.089
35.18000 7.834
35.20000 5.383
35.22000 3.546
35.24000 3.462
35.26000 6.487
35.28000 7.826
35.30000 1.992
35.32000 2.797
35.34000 5.745
35.36000 3.674
35.38000 2.598
35.40000 5.986
35.42000 8.807
35.44000 2.188
35.46000 4.072
35.48000 3.697
35.50000 1.159
35.52000 1.498
35.54000 4.979
35.56000 6.991
35.58000 4.189
35.60000 2.548
35.62000 0.968
35.64000 7.781
35.66000 7.569
35.68000 6.138
35.70000 -1.468
35.72000 1.142
35.74000 9.376
35.76000 5.900
35.78000 0.426
35.80000 1.020
35.82000 2.910
35.84000 2.970
35.86000 2.156
35.88000 1.977
35.90000 0.808
35.92000 1.082
35.94000 2.749
35.96000 3.744
35.98000 3.646
36.00000 3.096
36.02000 6.604
36.04000 8.461
36.06000 3.513
36.08000 3.270
36.10000 4.118
36.12000 1.440
36.14000 0.128
36.16000 3.625
36.18000 -3.519
36.20000 -0.688
36.22000 7.548
36.24000 5.578
36.26000 0.034
36.28000 -0.384
36.30000 0.058
36.32000 0.694
36.34000 2.743
36.36000 2.118
36.38000 2.349
36.40000 3.770
36.42000 1.247
36.44000 -0.170
36.46000 -1.216
36.48000 0.768
36.50000 -1.156
36.52000 0.601
36.54000 5.264
36.56000 7.345
36.58000 3.409
36.60000 0.307
36.62000 -0.128
36.64000 -1.888
36.66000 -0.964
36.68000 -1.315
36.70000 -1.975
36.72000 3.304
36.74000 5.254
36.76000 -3.027
36.78000 -3.548
36.80000 2.044
36.82000 1.138
36.84000 0.088
36.86000 3.020
36.88000 3.599
36.90000 2.758
36.92000 5.457
36.94000 3.497
36.96000 -0.261
36.98000 4.807
37.00000 3.714
37.02000 1.906
37.04000 -1.652
37.06000 -0.165
37.08000 -1.721
37.10000 -2.476
37.12000 0.909
37.14000 -0.110
37.16000 -3.188
37.18000 0.485
37.20000 4.130
37.22000 2.783
37.24000 -2.083
37.26000 -1.563
37.28000 2.615
37.30000 4.551
37.32000 5.180
37.34000 0.071
37.36000 -2.742
37.38000 0.930
37.40000 2.962
37.42000 -3.585
37.44000 -0.131
37.46000 3.987
37.48000 6.101
37.50000 3.847
37.52000 -0.874
37.54000 0.882
37.56000 -0.954
37.58000 2.398
37.60000 5.004
37.62000 0.648
37.64000 0.775
37.66000 1.455
37.68000 4.647
37.70000 0.658
37.72000 0.214
37.74000 0.987
37.76000 0.520
37.78000 3.709
37.80000 7.973
37.82000 4.391
37.84000 0.943
37.86000 0.868
37.88000 4.937
37.90000 5.949
37.92000 11.663
37.94000 9.434
37.96000 3.842
37.98000 2.160
38.00000 0.756
38.02000 1.863
38.04000 8.491
38.06000 6.149
38.08000 8.358
38.10000 8.124
38.12000 11.817
38.14000 11.332
38.16000 10.212
38.18000 13.314
38.20000 12.627
38.22000 8.785
38.24000 13.910
38.26000 15.306
38.28000 11.109
38.30000 16.478
38.32000 11.585
38.34000 11.428
38.36000 17.893
38.38000 15.435
38.40000 14.888
38.42000 17.115
38.44000 15.033
38.46000 17.814
38.48000 16.446
38.50000 20.300
38.52000 18.702
38.54000 16.487
38.56000 14.587
38.58000 13.441
38.60000 15.280
38.62000 18.816
38.64000 16.288
38.66000 19.002
38.68000 22.319
38.70000 26.754
38.72000 24.525
38.74000 19.223
38.76000 25.367
38.78000 27.572
38.80000 25.154
38.82000 29.907
38.84000 24.788
38.86000 23.404
38.88000 25.410
38.90000 29.259
38.92000 33.152
38.94000 33.452
38.96000 38.026
38.98000 34.542
39.00000 36.495
39.02000 34.045
39.04000 35.228
39.06000 45.883
39.08000 44.597
39.10000 37.346
39.12000 42.811
39.14000 45.988
39.16000 45.052
39.18000 48.209
39.20000 48.375
39.22000 54.118
39.24000 55.806
39.26000 60.764
39.28000 64.660
39.30000 67.942
39.32000 69.517
39.34000 69.240
39.36000 75.701
39.38000 85.334
39.40000 84.897
39.42000 81.297
39.44000 94.101
39.46000 94.411
39.48000 92.921
39.50000 104.165
39.52000 117.741
39.54000 114.771
39.56000 115.398
39.58000 122.261
39.60000 132.366
39.62000 138.568
39.64000 143.418
39.66000 149.360
39.68000 154.944
39.70000 170.962
39.72000 183.253
39.74000 191.911
39.76000 199.985
39.78000 211.413
39.80000 225.045
39.82000 231.756
39.84000 252.749
39.86000 267.196
39.88000 277.804
39.90000 292.331
39.92000 311.425
39.94000 333.473
39.96000 345.246
39.98000 371.178
40.00000 388.814
40.02000 403.753
40.04000 412.139
40.06000 448.841
40.08000 474.837
40.10000 489.784
40.12000 506.842
40.14000 530.119
40.16000 553.544
40.18000 567.444
40.20000 586.662
40.22000 600.250
40.24000 609.961
40.26000 623.860
40.28000 634.020
40.30000 649.407
40.32000 659.252
40.34000 661.823
40.36000 661.573
40.38000 655.639
40.40000 656.570
40.42000 661.429
40.44000 660.501
40.46000 648.523
40.48000 642.332
40.50000 629.799
40.52000 617.045
40.54000 608.403
40.56000 585.630
40.58000 570.988
40.60000 557.967
40.62000 545.745
40.64000 531.043
40.66000 509.234
40.68000 489.519
40.70000 470.502
40.72000 450.793
40.74000 431.369
40.76000 406.548
40.78000 395.285
40.80000 383.456
40.82000 364.565
40.84000 350.767
40.86000 330.474
40.88000 302.804
40.90000 292.516
40.92000 275.676
40.94000 260.250
40.96000 245.329
40.98000 240.629
41.00000 232.363
41.02000 223.040
41.04000 205.572
41.06000 189.481
41.08000 177.998
41.10000 172.660
41.12000 162.328
41.14000 148.460
41.16000 140.869
41.18000 135.713
41.20000 131.215
41.22000 119.867
41.24000 114.587
41.26000 111.316
41.28000 104.439
41.30000 95.167
41.32000 90.731
41.34000 87.841
41.36000 89.495
41.38000 88.063
41.40000 78.334
41.42000 70.520
41.44000 67.820
41.46000 63.277
41.48000 62.390
41.50000 61.889
41.52000 57.948
41.54000 53.225
41.56000 52.679
41.58000 52.163
41.60000 50.483
41.62000 42.244
41.64000 44.377
41.66000 42.969
41.68000 39.822
41.70000 34.018
41.72000 34.052
41.74000 32.838
41.76000 33.807
41.78000 29.239
41.80000 27.943
41.82000 26.568
41.84000 23.412
41.86000 23.595
41.88000 24.429
41.90000 21.531
41.92000 23.337
41.94000 22.901
41.96000 20.188
41.98000 20.004
42.00000 21.187
42.02000 22.092
42.04000 15.818
42.06000 12.200
42.08000 11.730
42.10000 13.534
42.12000 16.197
42.14000 14.615
42.16000 12.544
42.18000 13.305
42.20000 13.645
42.22000 6.242
42.24000 9.301
42.26000 11.375
42.28000 7.982
42.30000 7.027
42.32000 9.873
42.34000 10.383
42.36000 8.815
42.38000 10.567
42.40000 9.507
42.42000 5.293
42.44000 6.701
42.46000 5.902
42.48000 3.594
42.50000 2.677
42.52000 3.862
42.54000 3.133
42.56000 6.398
42.58000 5.589
42.60000 5.040
42.62000 4.212
42.64000 4.987
42.66000 4.739
42.68000 1.798
42.70000 1.258
42.72000 5.252
42.74000 7.125
42.76000 6.026
42.78000 3.120
42.80000 2.722
42.82000 -0.391
42.84000 3.667
42.86000 0.071
42.88000 2.021
42.90000 2.326
42.92000 4.441
42.94000 3.372
42.96000 3.016
42.98000 -3.483
43.00000 -2.497
43.02000 -2.674
43.04000 4.139
43.06000 2.001
43.08000 1.675
43.10000 -1.363
43.12000 3.136
43.14000 5.666
43.16000 3.051
43.18000 0.854
43.20000 -2.068
43.22000 -1.059
43.24000 -0.131
43.26000 0.680
43.28000 2.235
43.30000 4.568
43.32000 5.338
43.34000 3.032
43.36000 3.568
43.38000 1.843
43.40000 -2.645
43.42000 -0.189
43.44000 -0.954
43.46000 -0.772
43.48000 -1.058
43.50000 -2.055
43.52000 -3.418
43.54000 -3.385
43.56000 -0.887
43.58000 -0.395
43.60000 2.017
43.62000 5.428
43.64000 0.936
43.66000 2.007
43.68000 2.366
43.70000 5.916
43.72000 2.337
43.74000 2.510
43.76000 -1.228
43.78000 0.985
43.80000 -0.408
43.82000 1.748
43.84000 2.864
43.86000 -0.226
43.88000 -1.601
43.90000 -2.420
43.92000 -2.413
43.94000 -3.385
43.96000 -0.660
43.98000 0.510
44.00000 0.989
44.02000 2.229
44.04000 -1.775
44.06000 1.310
44.08000 0.814
44.10000 2.009
44.12000 2.597
44.14000 1.382
44.16000 3.098
44.18000 4.032
44.20000 2.489
44.22000 1.197
44.24000 -1.740
44.26000 -0.964
44.28000 -3.353
44.30000 2.570
44.32000 3.481
44.34000 3.956
44.36000 1.382
44.38000 -1.243
44.40000 -3.352
44.42000 -2.291
44.44000 0.757
44.46000 2.491
44.48000 0.208
44.50000 -0.231
44.52000 1.789
44.54000 2.214
44.56000 2.885
44.58000 -0.831
44.60000 1.186
44.62000 1.178
44.64000 2.744
44.66000 3.409
44.68000 1.194
44.70000 1.089
44.72000 -0.769
44.74000 -3.310
44.76000 -1.101
44.78000 0.110
44.80000 -2.370
44.82000 3.291
44.84000 3.460
44.86000 -0.416
44.88000 0.001
44.90000 1.305
44.92000 0.684
44.94000 2.509
44.96000 -1.265
44.98000 1.954
45.00000 0.079
45.02000 0.290
45.04000 1.248
45.06000 1.952
45.08000 1.767
45.10000 4.535
45.12000 1.912
45.14000 1.563
45.16000 4.929
45.18000 4.748
45.20000 0.504
45.22000 3.152
45.24000 7.451
45.26000 4.806
45.28000 1.647
45.30000 4.195
45.32000 8.468
45.34000 9.574
45.36000 4.521
45.38000 0.353
45.40000 3.090
45.42000 7.571
45.44000 7.594
45.46000 8.676
45.48000 10.994
45.50000 11.090
45.52000 11.255
45.54000 12.885
45.56000 14.403
45.58000 11.498
45.60000 10.303
45.62000 8.215
45.64000 10.936
45.66000 14.280
45.68000 13.179
45.70000 15.216
45.72000 19.278
45.74000 16.666
45.76000 18.115
45.78000 18.150
45.80000 21.313
45.82000 23.969
45.84000 20.979
45.86000 21.718
45.88000 24.860
45.90000 25.574
45.92000 21.297
45.94000 19.148
45.96000 31.050
45.98000 33.224
46.00000 25.229
46.02000 23.529
46.04000 30.728
46.06000 30.720
46.08000 29.207
46.10000 30.014
46.12000 35.428
46.14000 41.353
46.16000 45.166
46.18000 40.722
46.20000 40.973
46.22000 43.457
46.24000 46.823
46.26000 52.635
46.28000 54.020
46.30000 51.796
46.32000 46.296
46.34000 49.725
46.36000 55.899
46.38000 60.566
46.40000 64.495
46.42000 66.586
46.44000 65.608
46.46000 64.140
46.48000 63.443
46.50000 71.287
46.52000 77.756
46.54000 83.419
46.56000 88.032
46.58000 82.410
46.60000 80.627
46.62000 80.030
46.64000 87.627
46.66000 92.032
46.68000 99.995
46.70000 101.080
46.72000 103.705
46.74000 101.749
46.76000 102.618
46.78000 99.975
46.80000 105.226
46.82000 109.360
46.84000 110.596
46.86000 118.497
46.88000 107.052
46.90000 105.795
46.92000 118.627
46.94000 120.129
46.96000 119.680
46.98000 123.043
47.00000 121.324
47.02000 118.035
47.04000 116.834
47.06000 119.587
47.08000 120.684
47.10000 117.423
47.12000 119.105
47.14000 120.500
47.16000 116.656
47.18000 115.060
47.20000 111.716
47.22000 112.168
47.24000 115.176
47.26000 110.496
47.28000 102.453
47.30000 99.141
47.32000 94.513
47.34000 94.321
47.36000 90.849
47.38000 83.377
47.40000 83.710
47.42000 86.666
47.44000 89.411
47.46000 83.626
47.48000 82.331
47.50000 76.656
47.52000 68.719
47.54000 74.196
47.56000 71.506
47.58000 64.986
47.60000 61.643
47.62000 58.193
47.64000 58.395
47.66000 51.840
47.68000 48.806
47.70000 50.283
47.72000 47.230
47.74000 43.934
47.76000 46.456
47.78000 44.557
47.80000 37.493
47.82000 39.689
47.84000 37.594
47.86000 35.186
47.88000 32.447
47.90000 27.045
47.92000 26.649
47.94000 25.703
47.96000 32.416
47.98000 29.990
48.00000 31.500
48.02000 25.407
48.04000 18.358
48.06000 18.756
48.08000 23.791
48.10000 19.671
48.12000 16.805
48.14000 14.084
48.16000 16.591
48.18000 16.478
48.20000 17.846
48.22000 14.941
48.24000 13.198
48.26000 10.401
48.28000 8.944
48.30000 8.730
48.32000 9.421
48.34000 8.339
48.36000 8.118
48.38000 10.462
48.40000 7.696
48.42000 4.285
48.44000 1.906
48.46000 2.047
48.48000 3.587
48.50000 3.803
48.52000 4.864
48.54000 2.995
48.56000 2.163
48.58000 4.247
48.60000 2.309
48.62000 0.874
48.64000 1.246
48.66000 3.950
48.68000 3.553
48.70000 0.474
48.72000 0.907
48.74000 4.647
48.76000 -0.735
48.78000 0.645
48.80000 1.780
48.82000 -0.911
48.84000 4.789
48.86000 5.934
48.88000 2.996
48.90000 2.248
48.92000 6.330
48.94000 1.076
48.96000 0.186
48.98000 3.086
49.00000 1.790
49.02000 -1.086
49.04000 3.426
49.06000 4.484
49.08000 5.898
49.10000 9.612
49.12000 4.715
49.14000 -2.892
49.16000 -0.088
49.18000 1.812
49.20000 4.816
49.22000 7.209
49.24000 7.294
49.26000 2.900
49.28000 3.304
49.30000 7.652
49.32000 7.053
49.34000 2.412
49.36000 -2.852
49.38000 -0.930
49.40000 -1.462
49.42000 3.030
49.44000 3.306
49.46000 0.732
49.48000 2.645
49.50000 1.540
49.52000 5.402
49.54000 9.713
49.56000 5.436
49.58000 5.175
49.60000 0.658
49.62000 -2.810
49.64000 0.873
49.66000 1.237
49.68000 5.428
49.70000 9.351
49.72000 7.317
49.74000 7.283
49.76000 10.187
49.78000 4.108
49.80000 -0.060
49.82000 2.276
49.84000 1.313
49.86000 2.322
49.88000 7.128
49.90000 5.499
49.92000 5.648
49.94000 1.774
49.96000 3.835
49.98000 6.002
50.00000 7.846
50.02000 4.175
50.04000 2.001
50.06000 0.552
50.08000 1.488
50.10000 0.964
50.12000 -2.746
50.14000 2.293
50.16000 5.880
50.18000 3.792
50.20000 1.463
50.22000 6.107
50.24000 3.331
50.26000 2.240
50.28000 5.312
50.30000 5.882
50.32000 9.152
50.34000 6.976
50.36000 4.839
50.38000 8.605
50.40000 6.350
50.42000 7.911
50.44000 5.081
50.46000 0.911
50.48000 1.654
50.50000 3.103
50.52000 1.033
50.54000 4.758
50.56000 5.597
50.58000 9.728
50.60000 8.810
50.62000 3.786
50.64000 2.038
50.66000 1.054
50.68000 2.585
50.70000 2.077
50.72000 0.382
50.74000 -1.539
50.76000 4.996
50.78000 4.251
50.80000 4.872
50.82000 4.098
50.84000 7.631
50.86000 2.167
50.88000 1.180
50.90000 -2.719
50.92000 2.067
50.94000 1.643
50.96000 4.466
50.98000 1.813
51.00000 2.291
51.02000 4.101
51.04000 3.565
51.06000 3.309
51.08000 4.691
51.10000 3.005
51.12000 1.126
51.14000 2.755
51.16000 1.979
51.18000 2.709
51.20000 3.473
51.22000 1.837
51.24000 5.826
51.26000 4.410
51.28000 4.816
51.30000 5.066
51.32000 6.272
51.34000 2.346
51.36000 4.970
51.38000 7.865
51.40000 7.864
51.42000 1.623
51.44000 1.729
51.46000 2.771
51.48000 3.435
51.50000 4.228
51.52000 7.776
51.54000 5.322
51.56000 5.247
51.58000 2.504
51.60000 0.435
51.62000 1.398
51.64000 0.518
51.66000 -1.568
51.68000 0.108
51.70000 2.069
51.72000 7.271
51.74000 3.147
51.76000 5.358
51.78000 6.754
51.80000 8.480
51.82000 7.478
51.84000 8.178
51.86000 6.986
51.88000 2.954
51.90000 0.722
51.92000 -2.686
51.94000 0.640
51.96000 4.907
51.98000 3.700
52.00000 2.188
52.02000 5.090
52.04000 6.407
52.06000 5.724
52.08000 6.646
52.10000 3.251
52.12000 1.519
52.14000 1.279
52.16000 0.516
52.18000 -0.502
52.20000 1.265
52.22000 1.141
52.24000 4.827
52.26000 7.598
52.28000 5.113
52.30000 2.920
52.32000 -2.506
52.34000 4.854
52.36000 4.268
52.38000 2.288
52.40000 -0.103
52.42000 0.803
52.44000 1.666
52.46000 -0.605
52.48000 -2.621
52.50000 -1.621
52.52000 -1.248
52.54000 1.534
52.56000 2.638
52.58000 3.119
52.60000 2.178
52.62000 1.429
52.64000 0.105
52.66000 -1.728
52.68000 -1.236
52.70000 -2.678
52.72000 -0.922
52.74000 -0.087
52.76000 6.176
52.78000 4.422
52.80000 0.527
52.82000 1.506
52.84000 -2.673
52.86000 -2.480
52.88000 0.981
52.90000 1.815
52.92000 2.087
52.94000 1.000
52.96000 2.933
52.98000 2.483
53.00000 2.200
53.02000 1.855
53.04000 2.959
53.06000 -0.015
53.08000 -0.217
53.10000 -1.560
53.12000 -1.422
53.14000 0.862
53.16000 2.052
53.18000 3.517
53.20000 0.040
53.22000 3.187
53.24000 1.554
53.26000 -1.215
53.28000 0.800
53.30000 -1.849
53.32000 -0.657
53.34000 2.302
53.36000 3.233
53.38000 -1.865
53.40000 -0.933
53.42000 2.896
53.44000 1.632
53.46000 -0.808
53.48000 -1.469
53.50000 -0.808
53.52000 -0.308
53.54000 0.518
53.56000 0.325
53.58000 -2.064
53.60000 4.274
53.62000 2.861
53.64000 3.019
53.66000 3.856
53.68000 -1.201
53.70000 0.061
53.72000 4.807
53.74000 -1.702
53.76000 -2.479
53.78000 1.152
53.80000 2.573
53.82000 1.479
53.84000 3.580
53.86000 2.277
53.88000 3.288
53.90000 2.094
53.92000 -1.088
53.94000 -1.020
53.96000 -0.446
53.98000 -0.610
54.00000 1.513
54.02000 0.731
54.04000 -2.016
54.06000 -1.084
54.08000 2.543
54.10000 3.764
54.12000 0.010
54.14000 0.385
54.16000 1.186
54.18000 1.999
54.20000 6.141
54.22000 2.611
54.24000 6.177
54.26000 5.462
54.28000 7.379
54.30000 1.750
54.32000 1.857
54.34000 5.630
54.36000 2.828
54.38000 4.854
54.40000 6.250
54.42000 3.239
54.44000 2.965
54.46000 5.428
54.48000 -0.014
54.50000 0.642
54.52000 -0.539
54.54000 2.550
54.56000 2.899
54.58000 3.574
54.60000 0.679
54.62000 2.762
54.64000 -0.973
54.66000 -0.251
54.68000 1.131
54.70000 -0.635
54.72000 0.174
54.74000 5.465
54.76000 5.894
54.78000 2.780
54.80000 2.366
54.82000 3.081
54.84000 4.155
54.86000 7.052
54.88000 4.435
54.90000 2.009
54.92000 4.981
54.94000 2.757
54.96000 1.555
54.98000 -2.573
55.00000 0.875
55.02000 1.634
55.04000 2.895
55.06000 4.211
55.08000 -0.116
55.10000 0.725
55.12000 2.599
55.14000 0.818
55.16000 4.571
55.18000 1.324
55.20000 1.860
55.22000 2.083
55.24000 6.090
55.26000 4.577
55.28000 3.678
55.30000 3.463
55.32000 2.160
55.34000 1.950
55.36000 3.163
55.38000 3.208
55.40000 4.250
55.42000 2.517
55.44000 1.803
55.46000 2.404
55.48000 1.394
55.50000 0.893
55.52000 0.112
55.54000 -0.605
55.56000 4.232
55.58000 6.139
55.60000 3.757
55.62000 2.978
55.64000 0.569
55.66000 3.330
55.68000 4.301
55.70000 4.335
55.72000 1.024
55.74000 -0.506
55.76000 1.040
55.78000 3.220
55.80000 4.056
55.82000 6.893
55.84000 2.961
55.86000 0.166
55.88000 5.581
55.90000 8.524
55.92000 3.628
55.94000 0.368
55.96000 4.429
55.98000 7.472
56.00000 1.908
56.02000 -0.756
56.04000 2.891
56.06000 6.502
56.08000 2.044
56.10000 1.101
56.12000 2.065
56.14000 0.697
56.16000 2.411
56.18000 2.077
56.20000 8.139
56.22000 7.038
56.24000 0.782
56.26000 4.528
56.28000 7.678
56.30000 8.244
56.32000 4.050
56.34000 0.719
56.36000 2.319
56.38000 7.223
56.40000 6.499
56.42000 4.957
56.44000 4.070
56.46000 4.976
56.48000 8.845
56.50000 8.121
56.52000 3.930
56.54000 1.676
56.56000 0.157
56.58000 1.460
56.60000 1.623
56.62000 -2.518
56.64000 1.532
56.66000 6.843
56.68000 4.242
56.70000 5.344
56.72000 2.387
56.74000 -2.362
56.76000 0.708
56.78000 2.233
56.80000 1.625
56.82000 2.978
56.84000 4.385
56.86000 0.081
56.88000 -1.733
56.90000 -2.510
56.92000 -0.449
56.94000 3.607
56.96000 0.674
56.98000 -1.304
57.00000 1.866
57.02000 2.731
57.04000 3.975
57.06000 4.253
57.08000 6.568
57.10000 5.082
57.12000 3.503
57.14000 2.291
57.16000 4.627
57.18000 3.774
57.20000 0.145
57.22000 3.519
57.24000 4.780
57.26000 4.534
57.28000 3.814
57.30000 3.651
57.32000 1.090
57.34000 1.544
57.36000 6.249
57.38000 3.966
57.40000 6.163
57.42000 2.229
57.44000 3.625
57.46000 0.945
57.48000 -0.485
57.50000 5.257
57.52000 5.009
57.54000 1.458
57.56000 -0.692
57.58000 0.392
57.60000 0.367
57.62000 -1.889
57.64000 -0.196
57.66000 1.623
57.68000 -0.398
57.70000 2.985
57.72000 2.318
57.74000 1.135
57.76000 -1.192
57.78000 -1.698
57.80000 0.785
57.82000 2.828
57.84000 0.658
57.86000 -0.565
57.88000 1.268
57.90000 1.605
57.92000 6.587
57.94000 4.158
57.96000 2.686
57.98000 0.966
58.00000 3.145
58.02000 2.683
58.04000 0.623
58.06000 3.165
58.08000 3.920
58.10000 -0.143
58.12000 -0.187
58.14000 0.177
58.16000 4.408
58.18000 0.653
58.20000 -2.513
58.22000 1.163
58.24000 2.828
58.26000 2.527
58.28000 1.232
58.30000 3.616
58.32000 5.018
58.34000 1.179
58.36000 2.122
58.38000 6.536
58.40000 3.178
58.42000 1.593
58.44000 2.789
58.46000 0.046
58.48000 1.326
58.50000 3.918
58.52000 1.184
58.54000 2.302
58.56000 2.741
58.58000 3.027
58.60000 1.828
58.62000 0.451
58.64000 -2.507
58.66000 0.221
58.68000 9.081
58.70000 5.189
58.72000 -0.042
58.74000 1.628
58.76000 0.290
58.78000 3.271
58.80000 6.226
58.82000 2.039
58.84000 -1.226
58.86000 0.499
58.88000 4.467
58.90000 6.915
58.92000 4.525
58.94000 2.761
58.96000 7.791
58.98000 3.274
59.00000 1.009
59.02000 -0.024
59.04000 -0.043
59.06000 2.576
59.08000 4.570
59.10000 2.610
59.12000 1.537
59.14000 2.016
59.16000 -0.067
59.18000 1.188
59.20000 1.692
59.22000 2.264
59.24000 -1.695
59.26000 -2.480
59.28000 -1.554
59.30000 -0.666
59.32000 1.105
59.34000 3.551
59.36000 4.144
59.38000 3.626
59.40000 -0.022
59.42000 -0.684
59.44000 3.405
59.46000 3.406
59.48000 0.205
59.50000 -0.331
59.52000 0.544
59.54000 2.159
59.56000 6.411
59.58000 0.914
59.60000 0.222
59.62000 -2.194
59.64000 -0.281
59.66000 2.299
59.68000 -1.077
59.70000 -0.461
59.72000 2.614
59.74000 2.402
59.76000 3.983
59.78000 4.759
59.80000 4.355
59.82000 1.042
59.84000 -0.083
59.86000 0.448
59.88000 1.583
59.90000 2.285
59.92000 2.127
59.94000 -0.487
59.96000 -0.341
59.98000 -0.865
60.00000 0.324
60.02000 1.147
60.04000 1.101
60.06000 -1.958
60.08000 -0.647
60.10000 1.280
60.12000 2.220
60.14000 0.672
60.16000 -1.467
60.18000 0.721
60.20000 -1.003
60.22000 -1.426
60.24000 -2.453
60.26000 -1.505
60.28000 0.819
60.30000 4.134
60.32000 2.582
60.34000 -0.850
60.36000 1.791
60.38000 0.763
60.40000 0.867
60.42000 -0.269
60.44000 6.125
60.46000 8.636
60.48000 6.227
60.50000 0.932
60.52000 0.446
60.54000 1.221
60.56000 -0.225
60.58000 1.563
60.60000 3.030
60.62000 3.905
60.64000 4.241
60.66000 4.327
60.68000 3.218
60.70000 0.926
60.72000 3.592
60.74000 5.644
60.76000 4.023
60.78000 4.339
60.80000 -0.383
60.82000 5.019
60.84000 6.642
60.86000 4.605
60.88000 5.747
60.90000 1.441
60.92000 -1.167
60.94000 2.000
60.96000 2.470
60.98000 4.155
61.00000 4.672
61.02000 3.432
61.04000 3.117
61.06000 6.392
61.08000 5.370
61.10000 4.197
61.12000 6.219
61.14000 4.304
61.16000 1.262
61.18000 6.375
61.20000 7.890
61.22000 4.551
61.24000 2.677
61.26000 1.192
61.28000 3.324
61.30000 0.385
61.32000 -0.013
61.34000 -2.073
61.36000 -1.034
61.38000 -0.019
61.40000 -2.351
61.42000 0.230
61.44000 3.682
61.46000 6.245
61.48000 6.612
61.50000 6.064
61.52000 7.252
61.54000 8.228
61.56000 7.534
61.58000 6.590
61.60000 6.177
61.62000 2.275
61.64000 -0.179
61.66000 1.299
61.68000 0.981
61.70000 6.996
61.72000 7.552
61.74000 3.572
61.76000 3.842
61.78000 7.644
61.80000 5.695
61.82000 3.680
61.84000 3.689
61.86000 0.653
61.88000 2.061
61.90000 1.546
61.92000 2.572
61.94000 4.704
61.96000 5.712
61.98000 3.647
62.00000 4.294
62.02000 -0.448
62.04000 0.385
62.06000 2.273
62.08000 -1.435
62.10000 -2.127
62.12000 -1.425
62.14000 2.172
62.16000 4.098
62.18000 2.954
62.20000 3.604
62.22000 3.453
62.24000 2.915
62.26000 3.912
62.28000 2.466
62.30000 1.009
62.32000 0.484
62.34000 2.515
62.36000 2.791
62.38000 3.004
62.40000 4.017
62.42000 1.316
62.44000 -0.380
62.46000 0.270
62.48000 0.935
62.50000 2.333
62.52000 3.990
62.54000 3.262
62.56000 3.174
62.58000 -1.073
62.60000 -1.218
62.62000 -0.827
62.64000 1.688
62.66000 0.524
62.68000 1.661
62.70000 2.743
62.72000 1.827
62.74000 -0.462
62.76000 -2.085
62.78000 -2.379
62.80000 1.709
62.82000 2.994
62.84000 3.991
62.86000 5.700
62.88000 7.253
62.90000 5.679
62.92000 4.040
62.94000 -0.588
62.96000 -0.748
62.98000 1.786
63.00000 0.914
63.02000 3.357
63.04000 2.158
63.06000 0.286
63.08000 3.443
63.10000 4.000
63.12000 3.591
63.14000 3.696
63.16000 3.117
63.18000 2.962
63.20000 -0.334
63.22000 1.850
63.24000 2.194
63.26000 1.834
63.28000 3.400
63.30000 4.243
63.32000 3.952
63.34000 1.711
63.36000 -0.115
63.38000 -2.380
63.40000 -0.826
63.42000 -0.681
63.44000 -0.228
63.46000 -1.601
63.48000 0.602
63.50000 4.307
63.52000 1.337
63.54000 -1.813
63.56000 -2.095
63.58000 2.107
63.60000 2.189
63.62000 3.718
63.64000 4.246
63.66000 3.707
63.68000 1.974
63.70000 2.686
63.72000 3.765
63.74000 4.906
63.76000 1.420
63.78000 -2.383
63.80000 -2.192
63.82000 0.838
63.84000 0.046
63.86000 -2.100
63.88000 0.855
63.90000 4.703
63.92000 4.728
63.94000 4.046
63.96000 6.612
63.98000 5.079
64.00000 6.712
64.02000 2.603
64.04000 0.491
64.06000 2.749
64.08000 1.917
64.10000 0.324
64.12000 -2.386
64.14000 -1.985
64.16000 -1.204
64.18000 0.890
64.20000 3.413
64.22000 4.687
64.24000 4.059
64.26000 4.988
64.28000 1.327
64.30000 2.831
64.32000 0.821
64.34000 -0.657
64.36000 1.901
64.38000 2.020
64.40000 0.466
64.42000 1.438
64.44000 3.726
64.46000 2.290
64.48000 3.618
64.50000 2.949
64.52000 5.064
64.54000 4.767
64.56000 4.760
64.58000 4.312
64.60000 3.020
64.62000 3.274
64.64000 4.426
64.66000 1.394
64.68000 0.140
64.70000 2.966
64.72000 -0.483
64.74000 0.847
64.76000 4.619
64.78000 2.636
64.80000 -0.386
64.82000 2.555
64.84000 -2.375
64.86000 -0.175
64.88000 1.544
64.90000 3.797
64.92000 1.651
64.94000 2.547
64.96000 2.380
64.98000 3.031
65.00000 3.770
65.02000 2.770
65.04000 1.946
65.06000 1.444
65.08000 0.014
65.10000 3.610
65.12000 3.519
65.14000 1.903
65.16000 4.002
65.18000 7.341
65.20000 2.871
65.22000 1.565
65.24000 2.769
65.26000 3.873
65.28000 3.481
65.30000 -0.790
65.32000 -1.572
65.34000 0.391
65.36000 2.261
65.38000 3.089
65.40000 0.666
65.42000 1.361
65.44000 3.105
65.46000 2.377
65.48000 2.909
65.50000 4.721
65.52000 4.726
65.54000 4.511
65.56000 1.991
65.58000 0.343
65.60000 0.212
65.62000 1.329
65.64000 2.294
65.66000 2.825
65.68000 1.226
65.70000 -0.884
65.72000 0.199
65.74000 4.947
65.76000 4.511
65.78000 1.271
65.80000 1.602
65.82000 2.774
65.84000 2.807
65.86000 1.794
65.88000 -0.099
65.90000 -0.566
65.92000 0.803
65.94000 -0.633
65.96000 0.994
65.98000 0.631
66.00000 2.001
66.02000 1.896
66.04000 -0.057
66.06000 4.118
66.08000 3.827
66.10000 1.616
66.12000 1.633
66.14000 3.854
66.16000 6.587
66.18000 6.514
66.20000 5.240
66.22000 0.684
66.24000 1.543
66.26000 3.077
66.28000 3.026
66.30000 -1.000
66.32000 1.440
66.34000 3.494
66.36000 3.047
66.38000 3.614
66.40000 -2.407
66.42000 0.808
66.44000 3.222
66.46000 1.352
66.48000 1.043
66.50000 4.394
66.52000 1.359
66.54000 0.378
66.56000 4.311
66.58000 3.974
66.60000 3.064
66.62000 4.732
66.64000 3.071
66.66000 3.259
66.68000 2.630
66.70000 1.248
66.72000 4.548
66.74000 3.995
66.76000 0.235
66.78000 0.388
66.80000 -1.373
66.82000 3.154
66.84000 2.073
66.86000 -0.675
66.88000 0.061
66.90000 2.833
66.92000 0.703
66.94000 -0.163
66.96000 -0.808
66.98000 2.094
67.00000 1.516
67.02000 0.216
67.04000 0.281
67.06000 -0.950
67.08000 1.148
67.10000 0.917
67.12000 2.297
67.14000 4.548
67.16000 -1.940
67.18000 0.532
67.20000 3.027
67.22000 4.363
67.24000 4.792
67.26000 3.766
67.28000 0.132
67.30000 -0.024
67.32000 3.169
67.34000 3.948
67.36000 0.277
67.38000 -2.497
67.40000 2.592
67.42000 0.709
67.44000 1.718
67.46000 4.503
67.48000 4.506
67.50000 3.514
67.52000 2.851
67.54000 5.295
67.56000 5.093
67.58000 2.454
67.60000 3.465
67.62000 3.228
67.64000 6.004
67.66000 4.457
67.68000 6.582
67.70000 6.655
67.72000 5.847
67.74000 6.115
67.76000 7.223
67.78000 10.990
67.80000 10.157
67.82000 7.445
67.84000 7.326
67.86000 5.226
67.88000 13.717
67.90000 13.239
67.92000 8.562
67.94000 5.498
67.96000 12.555
67.98000 14.226
68.00000 12.819
68.02000 12.255
68.04000 11.030
68.06000 13.881
68.08000 10.326
68.10000 9.993
68.12000 18.752
68.14000 18.455
68.16000 18.236
68.18000 19.358
68.20000 20.639
68.22000 22.767
68.24000 18.068
68.26000 21.635
68.28000 18.222
68.30000 21.677
68.32000 23.810
68.34000 19.411
68.36000 24.402
68.38000 27.301
68.40000 26.242
68.42000 27.081
68.44000 28.010
68.46000 29.168
68.48000 28.427
68.50000 31.247
68.52000 29.681
68.54000 30.338
68.56000 28.862
68.58000 33.828
68.60000 28.653
68.62000 24.726
68.64000 27.635
68.66000 29.014
68.68000 29.869
68.70000 29.297
68.72000 31.534
68.74000 31.369
68.76000 31.414
68.78000 30.549
68.80000 31.851
68.82000 30.072
68.84000 28.422
68.86000 28.063
68.88000 29.007
68.90000 28.328
68.92000 27.972
68.94000 29.497
68.96000 32.109
68.98000 29.664
69.00000 28.951
69.02000 25.216
69.04000 22.507
69.06000 22.576
69.08000 25.421
69.10000 25.797
69.12000 22.833
69.14000 18.764
69.16000 18.502
69.18000 18.535
69.20000 16.625
69.22000 17.229
69.24000 17.105
69.26000 16.899
69.28000 15.826
69.30000 14.176
69.32000 15.089
69.34000 14.028
69.36000 12.314
69.38000 13.861
69.40000 13.252
69.42000 13.437
69.44000 8.999
69.46000 8.859
69.48000 8.351
69.50000 6.998
69.52000 6.871
69.54000 4.586
69.56000 7.104
69.58000 11.135
69.60000 7.519
69.62000 3.028
69.64000 3.094
69.66000 1.890
69.68000 0.792
69.70000 2.409
69.72000 1.137
69.74000 0.000
69.76000 3.544
69.78000 1.767
69.80000 1.945
69.82000 1.910
69.84000 2.500
69.86000 4.421
69.88000 2.289
69.90000 -0.095
69.92000 1.134
69.94000 0.135
69.96000 3.078
69.98000 0.500
70.00000 3.031
70.02000 1.851
70.04000 2.204
70.06000 1.082
70.08000 3.380
70.10000 0.919
70.12000 -0.787
70.14000 -1.034
70.16000 1.263
70.18000 0.675
70.20000 1.166
70.22000 -0.324
70.24000 3.644
70.26000 0.693
70.28000 -2.210
70.30000 -2.022
70.32000 0.668
70.34000 3.433
70.36000 5.342
70.38000 -2.411
70.40000 -1.381
70.42000 -1.183
70.44000 0.244
70.46000 1.313
70.48000 0.841
70.50000 1.947
70.52000 -0.430
70.54000 -0.665
70.56000 1.957
70.58000 5.618
70.60000 3.174
70.62000 -0.108
70.64000 -1.255
70.66000 -0.752
70.68000 0.673
70.70000 0.747
70.72000 -1.039
70.74000 2.722
70.76000 1.456
70.78000 1.920
70.80000 2.979
70.82000 -2.350
70.84000 -0.808
70.86000 1.697
70.88000 0.411
70.90000 0.999
70.92000 0.378
70.94000 -1.375
70.96000 1.316
70.98000 -0.886
71.00000 2.323
71.02000 1.065
71.04000 1.638
71.06000 -1.376
71.08000 0.623
71.10000 -2.100
71.12000 2.242
71.14000 0.387
71.16000 -0.754
71.18000 -0.899
71.20000 1.448
71.22000 5.974
71.24000 3.907
71.26000 1.477
71.28000 2.005
71.30000 3.087
71.32000 0.180
71.34000 1.916
71.36000 -0.208
71.38000 1.530
71.40000 3.034
71.42000 5.776
71.44000 6.720
71.46000 6.481
71.48000 3.712
71.50000 3.857
71.52000 2.615
71.54000 2.193
71.56000 -0.258
71.58000 -2.280
71.60000 -2.280
71.62000 3.229
71.64000 2.516
71.66000 4.334
71.68000 2.301
71.70000 0.186
71.72000 1.494
71.74000 4.080
71.76000 -0.267
71.78000 -2.280
71.80000 1.902
71.82000 0.721
71.84000 3.985
71.86000 7.166
71.88000 6.923
71.90000 2.896
71.92000 5.217
71.94000 6.252
71.96000 3.457
71.98000 -1.503
72.00000 -2.277
72.02000 -1.777
72.04000 -0.018
72.06000 1.760
72.08000 3.489
72.10000 1.577
72.12000 3.070
72.14000 6.531
72.16000 2.672
72.18000 1.572
72.20000 2.796
72.22000 5.660
72.24000 5.763
72.26000 3.317
72.28000 0.828
72.30000 2.236
72.32000 -1.197
72.34000 -0.918
72.36000 -2.063
72.38000 -2.270
72.40000 0.108
72.42000 0.618
72.44000 1.618
72.46000 1.655
72.48000 5.547
72.50000 5.405
72.52000 3.628
72.54000 -2.078
72.56000 1.440
72.58000 -0.743
72.60000 -0.186
72.62000 -1.429
72.64000 1.347
72.66000 1.480
72.68000 -1.003
72.70000 -1.080
72.72000 -1.525
72.74000 -1.541
72.76000 -2.263
72.78000 2.485
72.80000 4.764
72.82000 3.409
72.84000 0.304
72.86000 -2.259
72.88000 2.762
72.90000 3.282
72.92000 1.038
72.94000 -0.570
72.96000 2.070
72.98000 0.359
73.00000 -1.442
73.02000 0.370
73.04000 -0.281
73.06000 1.484
73.08000 3.470
73.10000 0.713
73.12000 0.887
73.14000 -0.430
73.16000 -1.008
73.18000 -1.773
73.20000 0.900
73.22000 1.240
73.24000 -1.712
73.26000 -2.241
73.28000 -1.453
73.30000 -0.823
73.32000 -0.428
73.34000 1.976
73.36000 7.222
73.38000 5.808
73.40000 1.641
73.42000 2.985
73.44000 0.670
73.46000 0.719
73.48000 1.231
73.50000 -1.952
73.52000 1.230
73.54000 2.741
73.56000 4.772
73.58000 7.635
73.60000 4.255
73.62000 4.436
73.64000 2.430
73.66000 2.867
73.68000 1.773
73.70000 0.545
73.72000 3.522
73.74000 0.483
73.76000 -0.577
73.78000 -0.131
73.80000 1.719
73.82000 5.227
73.84000 5.097
73.86000 2.631
73.88000 3.731
73.90000 2.676
73.92000 2.871
73.94000 2.770
73.96000 1.831
73.98000 3.012
74.00000 4.948
74.02000 3.699
74.04000 -0.697
74.06000 1.283
74.08000 1.664
74.10000 2.588
74.12000 7.771
74.14000 8.004
74.16000 3.766
74.18000 1.557
74.20000 2.825
74.22000 3.307
74.24000 2.245
74.26000 0.912
74.28000 2.752
74.30000 5.366
74.32000 -2.180
74.34000 0.419
74.36000 4.992
74.38000 4.252
74.40000 5.829
74.42000 4.906
74.44000 3.325
74.46000 5.651
74.48000 5.147
74.50000 4.765
74.52000 4.686
74.54000 3.471
74.56000 2.688
74.58000 1.386
74.60000 -0.071
74.62000 0.160
74.64000 1.882
74.66000 2.109
74.68000 0.438
74.70000 -0.418
74.72000 1.424
74.74000 3.277
74.76000 2.648
74.78000 2.542
74.80000 2.310
74.82000 1.609
74.84000 0.764
74.86000 1.495
74.88000 4.206
74.90000 2.278
74.92000 0.648
74.94000 1.689
74.96000 2.415
74.98000 3.515
75.00000 4.091
75.02000 -0.390
75.04000 0.366
75.06000 3.739
75.08000 -2.233
75.10000 -0.908
75.12000 0.207
75.14000 -0.876
75.16000 4.309
75.18000 3.036
75.20000 2.612
75.22000 2.795
75.24000 2.814
75.26000 3.208
75.28000 0.250
75.30000 0.310
75.32000 1.779
75.34000 -0.237
75.36000 0.893
75.38000 3.350
75.40000 2.592
75.42000 5.453
75.44000 2.393
75.46000 -1.456
75.48000 -1.102
75.50000 0.555
75.52000 -1.504
75.54000 1.538
75.56000 -2.242
75.58000 -0.498
75.60000 1.538
75.62000 3.008
75.64000 0.181
75.66000 -1.365
75.68000 0.719
75.70000 0.720
75.72000 3.509
75.74000 4.674
75.76000 4.010
75.78000 2.242
75.80000 2.324
75.82000 -0.092
75.84000 2.467
75.86000 1.462
75.88000 -2.224
75.90000 -0.266
75.92000 5.546
75.94000 3.709
75.96000 4.416
75.98000 4.179
76.00000 1.647
76.02000 -0.488
76.04000 1.810
76.06000 1.815
76.08000 2.600
76.10000 2.086
76.12000 0.514
76.14000 0.737
76.16000 1.771
76.18000 -0.531
76.20000 -0.729
76.22000 -1.382
76.24000 2.443
76.26000 3.660
76.28000 -1.154
76.30000 -0.308
76.32000 0.768
76.34000 1.395
76.36000 0.919
76.38000 2.519
76.40000 5.100
76.42000 2.657
76.44000 4.078
76.46000 5.513
76.48000 3.677
76.50000 3.880
76.52000 1.326
76.54000 -1.110
76.56000 0.278
76.58000 -1.509
76.60000 -1.373
76.62000 -0.403
76.64000 -1.459
76.66000 -0.102
76.68000 -0.340
76.70000 -2.247
76.72000 -0.016
76.74000 4.083
76.76000 2.676
76.78000 1.589
76.80000 -0.346
76.82000 3.421
76.84000 0.233
76.86000 3.333
76.88000 3.778
76.90000 3.334
76.92000 1.957
76.94000 1.369
76.96000 2.612
76.98000 4.116
77.00000 1.926
77.02000 0.835
77.04000 3.077
77.06000 7.333
77.08000 3.272
77.10000 -0.283
77.12000 0.403
77.14000 0.210
77.16000 1.032
77.18000 4.184
77.20000 -0.799
77.22000 -1.924
77.24000 0.335
77.26000 0.770
77.28000 -0.013
77.30000 3.259
77.32000 3.598
77.34000 2.094
77.36000 2.974
77.38000 0.046
77.40000 1.198
77.42000 2.378
77.44000 5.457
77.46000 2.681
77.48000 -0.363
77.50000 -2.256
77.52000 -1.113
77.54000 2.525
77.56000 4.157
77.58000 2.101
77.60000 1.381
77.62000 1.155
77.64000 0.056
77.66000 2.736
77.68000 2.990
77.70000 3.838
77.72000 3.636
77.74000 3.218
77.76000 2.335
77.78000 4.518
77.80000 4.733
77.82000 3.114
77.84000 2.686
77.86000 5.021
77.88000 5.536
77.90000 1.597
77.92000 3.318
77.94000 3.575
77.96000 3.687
77.98000 4.190
78.00000 3.062
78.02000 7.101
78.04000 2.138
78.06000 3.265
78.08000 4.759
78.10000 3.141
78.12000 5.017
78.14000 5.388
78.16000 2.223
78.18000 3.184
78.20000 -0.678
78.22000 2.840
78.24000 4.051
78.26000 0.061
78.28000 -2.227
78.30000 1.967
78.32000 4.554
78.34000 0.036
78.36000 0.734
78.38000 -2.223
78.40000 3.996
78.42000 9.299
78.44000 6.509
78.46000 2.953
78.48000 1.931
78.50000 4.657
78.52000 4.952
78.54000 6.680
78.56000 5.680
78.58000 6.263
78.60000 3.816
78.62000 2.804
78.64000 3.512
78.66000 3.156
78.68000 4.728
78.70000 3.013
78.72000 0.872
78.74000 3.761
78.76000 3.388
78.78000 1.626
78.80000 4.577
78.82000 3.643
78.84000 2.135
78.86000 1.746
78.88000 1.301
78.90000 2.221
78.92000 3.864
78.94000 2.778
78.96000 2.147
78.98000 1.830
79.00000 3.994
79.02000 0.976
79.04000 -0.578
79.06000 -1.220
79.08000 -0.044
79.10000 0.760
79.12000 3.989
79.14000 0.160
79.16000 3.395
79.18000 6.040
79.20000 3.740
79.22000 2.864
79.24000 3.362
79.26000 1.899
79.28000 1.278
79.30000 0.025
79.32000 1.819
79.34000 1.462
79.36000 2.458
79.38000 1.428
79.40000 4.995
79.42000 5.961
79.44000 0.675
79.46000 1.163
79.48000 3.989
79.50000 6.021
79.52000 4.192
79.54000 2.517
79.56000 -0.878
79.58000 0.729
79.60000 7.711
79.62000 3.641
79.64000 1.548
79.66000 2.709
79.68000 4.229
79.70000 4.377
79.72000 3.312
79.74000 1.304
79.76000 -2.288
79.78000 3.669
79.80000 2.406
79.82000 1.570
79.84000 3.593
79.86000 0.484
79.88000 -0.594
79.90000 2.948
79.92000 5.563
79.94000 2.641
79.96000 -1.448
79.98000 -0.346
80.00000 1.490
80.02000 3.887
80.04000 5.783
80.06000 4.974
80.08000 -1.172
80.10000 -1.283
80.12000 3.017
80.14000 0.629
80.16000 2.829
80.18000 2.452
80.20000 3.402
80.22000 4.413
80.24000 2.242
80.26000 0.111
80.28000 -2.318
80.30000 0.552
80.32000 0.105
80.34000 -0.643
80.36000 -0.470
80.38000 3.295
80.40000 4.739
80.42000 1.101
80.44000 2.211
80.46000 3.107
80.48000 2.524
80.50000 1.588
80.52000 1.607
80.54000 3.797
80.56000 3.342
80.58000 3.716
80.60000 5.492
80.62000 5.031
80.64000 5.722
80.66000 3.078
80.68000 1.207
80.70000 2.695
80.72000 3.900
80.74000 0.896
80.76000 4.265
80.78000 5.017
80.80000 0.680
80.82000 -1.785
80.84000 6.105
80.86000 3.416
80.88000 0.466
80.90000 0.478
80.92000 3.393
80.94000 5.066
80.96000 2.270
80.98000 -2.367
81.00000 0.529
81.02000 1.482
81.04000 0.021
81.06000 1.826
81.08000 6.784
81.10000 5.352
81.12000 3.377
81.14000 6.403
81.16000 5.020
81.18000 5.213
81.20000 0.987
81.22000 1.685
81.24000 2.581
81.26000 2.034
81.28000 2.465
81.30000 -0.550
81.32000 -0.448
81.34000 4.509
81.36000 6.446
81.38000 7.467
81.40000 5.599
81.42000 6.855
81.44000 7.978
81.46000 0.407
81.48000 3.320
81.50000 5.727
81.52000 7.136
81.54000 6.166
81.56000 8.446
81.58000 9.221
81.60000 8.726
81.62000 11.366
81.64000 5.421
81.66000 6.490
81.68000 9.934
81.70000 6.482
81.72000 6.458
81.74000 7.981
81.76000 8.301
81.78000 6.980
81.80000 7.089
81.82000 6.609
81.84000 7.492
81.86000 10.219
81.88000 10.178
81.90000 11.352
81.92000 9.001
81.94000 9.137
81.96000 14.175
81.98000 17.125
82.00000 15.435
82.02000 15.238
82.04000 15.593
82.06000 15.468
82.08000 19.500
82.10000 22.797
82.12000 18.927
82.14000 19.986
82.16000 22.263
82.18000 19.526
82.20000 14.714
82.22000 14.781
82.24000 18.837
82.26000 24.443
82.28000 23.342
82.30000 16.454
82.32000 24.939
82.34000 29.426
82.36000 26.598
82.38000 22.805
82.40000 26.952
82.42000 24.055
82.44000 23.457
82.46000 27.609
82.48000 28.468
82.50000 30.754
82.52000 29.781
82.54000 28.513
82.56000 32.887
82.58000 32.876
82.60000 32.123
82.62000 38.108
82.64000 33.803
82.66000 33.610
82.68000 32.490
82.70000 35.844
82.72000 36.591
82.74000 36.171
82.76000 33.930
82.78000 40.475
82.80000 40.653
82.82000 40.099
82.84000 36.873
82.86000 38.470
82.88000 37.770
82.90000 39.080
82.92000 36.509
82.94000 35.351
82.96000 38.972
82.98000 36.640
83.00000 36.819
83.02000 40.185
83.04000 41.280
83.06000 39.462
83.08000 33.476
83.10000 34.048
83.12000 36.894
83.14000 36.614
83.16000 36.762
83.18000 35.641
83.20000 36.034
83.22000 26.666
83.24000 30.934
83.26000 38.130
83.28000 33.368
83.30000 27.611
83.32000 32.056
83.34000 32.681
83.36000 30.702
83.38000 27.411
83.40000 27.190
83.42000 23.158
83.44000 21.312
83.46000 20.638
83.48000 24.039
83.50000 25.108
83.52000 23.014
83.54000 19.841
83.56000 17.333
83.58000 18.516
83.60000 20.191
83.62000 26.272
83.64000 24.999
83.66000 20.143
83.68000 13.807
83.70000 13.419
83.72000 12.026
83.74000 12.448
83.76000 13.375
83.78000 14.911
83.80000 12.104
83.82000 15.075
83.84000 13.106
83.86000 16.115
83.88000 12.713
83.90000 8.124
83.92000 11.903
83.94000 11.576
83.96000 9.655
83.98000 10.913
84.00000 4.263
84.02000 2.362
84.04000 8.473
84.06000 11.739
84.08000 2.889
84.10000 4.228
84.12000 4.804
84.14000 4.041
84.16000 4.711
84.18000 7.460
84.20000 5.204
84.22000 6.385
84.24000 6.541
84.26000 2.496
84.28000 3.923
84.30000 4.128
84.32000 5.108
84.34000 2.757
84.36000 4.712
84.38000 2.184
84.40000 -0.670
84.42000 -0.017
84.44000 1.198
84.46000 3.760
84.48000 2.514
84.50000 1.338
84.52000 -1.310
84.54000 0.036
84.56000 3.513
84.58000 6.442
84.60000 2.430
84.62000 0.189
84.64000 2.042
84.66000 5.175
84.68000 1.224
84.70000 0.041
84.72000 -0.603
84.74000 1.220
84.76000 2.265
84.78000 2.736
84.80000 2.352
84.82000 1.143
84.84000 0.502
84.86000 1.608
84.88000 2.938
84.90000 -0.591
84.92000 -2.251
84.94000 3.205
84.96000 5.346
84.98000 0.496
85.00000 1.099
85.02000 1.247
85.04000 -0.520
85.06000 2.413
85.08000 5.511
85.10000 -0.970
85.12000 -2.310
85.14000 6.143
85.16000 4.474
85.18000 0.250
85.20000 -0.869
85.22000 -1.383
85.24000 1.667
85.26000 3.296
85.28000 3.140
85.30000 3.239
85.32000 6.525
85.34000 3.936
85.36000 3.843
85.38000 5.590
85.40000 1.984
85.42000 0.199
85.44000 0.794
85.46000 2.296
85.48000 5.314
85.50000 6.616
85.52000 4.611
85.54000 3.412
85.56000 1.496
85.58000 1.314
85.60000 -2.280
85.62000 0.664
85.64000 0.695
85.66000 1.997
85.68000 2.810
85.70000 1.306
85.72000 2.380
85.74000 2.999
85.76000 1.662
85.78000 3.608
85.80000 4.170
85.82000 6.328
85.84000 0.124
85.86000 -2.275
85.88000 0.155
85.90000 0.353
85.92000 3.375
85.94000 2.668
85.96000 3.392
85.98000 0.658
86.00000 3.516
86.02000 3.251
86.04000 2.452
86.06000 2.319
86.08000 3.406
86.10000 2.035
86.12000 -0.643
86.14000 3.227
86.16000 5.958
86.18000 4.581
86.20000 -1.091
86.22000 3.837
86.24000 7.719
86.26000 3.896
86.28000 2.229
86.30000 4.153
86.32000 8.539
86.34000 3.982
86.36000 -0.386
86.38000 1.828
86.40000 3.878
86.42000 3.057
86.44000 5.576
86.46000 7.962
86.48000 8.653
86.50000 8.488
86.52000 5.518
86.54000 7.325
86.56000 5.561
86.58000 7.813
86.60000 10.423
86.62000 8.606
86.64000 9.758
86.66000 5.323
86.68000 7.681
86.70000 10.967
86.72000 10.302
86.74000 11.836
86.76000 13.447
86.78000 11.904
86.80000 13.834
86.82000 12.623
86.84000 13.383
86.86000 16.076
86.88000 16.250
86.90000 16.296
86.92000 20.858
86.94000 22.334
86.96000 14.676
86.98000 17.942
87.00000 18.113
87.02000 19.696
87.04000 20.064
87.06000 21.612
87.08000 20.897
87.10000 21.372
87.12000 21.002
87.14000 17.517
87.16000 16.486
87.18000 21.725
87.20000 22.223
87.22000 21.553
87.24000 23.603
87.26000 27.460
87.28000 24.319
87.30000 22.806
87.32000 19.947
87.34000 21.861
87.36000 22.416
87.38000 21.388
87.40000 19.181
87.42000 23.385
87.44000 19.876
87.46000 21.177
87.48000 22.092
87.50000 25.003
87.52000 24.321
87.54000 23.889
87.56000 23.421
87.58000 20.501
87.60000 18.124
87.62000 17.480
87.64000 18.975
87.66000 16.547
87.68000 16.916
87.70000 11.208
87.72000 16.962
87.74000 17.486
87.76000 16.148
87.78000 18.933
87.80000 18.047
87.82000 13.473
87.84000 18.642
87.86000 18.740
87.88000 16.127
87.90000 14.203
87.92000 11.679
87.94000 11.576
87.96000 9.570
87.98000 7.446
88.00000 6.041
88.02000 13.339
88.04000 13.067
88.06000 7.372
88.08000 8.817
88.10000 8.773
88.12000 7.082
88.14000 12.503
88.16000 10.076
88.18000 7.780
88.20000 7.290
88.22000 5.396
88.24000 5.532
88.26000 10.790
88.28000 6.210
88.30000 7.333
88.32000 1.309
88.34000 -2.237
88.36000 2.596
88.38000 7.838
88.40000 5.160
88.42000 4.924
88.44000 3.081
88.46000 3.548
88.48000 6.828
88.50000 0.732
88.52000 -0.009
88.54000 2.985
88.56000 9.681
88.58000 5.859
88.60000 3.512
88.62000 2.437
88.64000 5.279
88.66000 4.075
88.68000 4.785
88.70000 3.635
88.72000 1.487
88.74000 6.187
88.76000 9.649
88.78000 4.799
88.80000 3.705
88.82000 2.527
88.84000 -1.430
88.86000 1.529
88.88000 3.550
88.90000 5.656
88.92000 2.426
88.94000 -0.482
88.96000 2.363
88.98000 3.275
89.00000 5.741
89.02000 4.200
89.04000 4.823
89.06000 8.010
89.08000 3.611
89.10000 2.020
89.12000 -0.870
89.14000 0.484
89.16000 3.449
89.18000 6.826
89.20000 6.551
89.22000 4.441
89.24000 5.673
89.26000 5.772
89.28000 4.742
89.30000 1.794
89.32000 0.567
89.34000 3.129
89.36000 6.164
89.38000 0.347
89.40000 0.066
89.42000 -0.506
89.44000 -2.102
89.46000 2.246
89.48000 0.335
89.50000 0.747
89.52000 5.886
89.54000 3.758
89.56000 8.713
89.58000 7.955
89.60000 1.756
89.62000 5.715
89.64000 7.614
89.66000 3.316
89.68000 2.322
89.70000 0.387
89.72000 0.587
89.74000 3.618
89.76000 5.094
89.78000 4.703
89.80000 4.355
89.82000 3.594
89.84000 5.344
89.86000 3.243
89.88000 0.444
89.90000 2.556
89.92000 2.846
89.94000 1.241
89.96000 1.426
89.98000 6.732
90.00000 8.009
90.02000 3.204
90.04000 2.464
90.06000 6.806
90.08000 8.694
90.10000 2.717
90.12000 0.359
90.14000 0.931
90.16000 3.329
90.18000 2.271
90.20000 2.368
90.22000 5.525
90.24000 8.419
90.26000 2.656
90.28000 0.905
90.30000 -2.128
90.32000 -0.554
90.34000 2.582
90.36000 4.150
90.38000 5.055
90.40000 3.216
90.42000 1.748
90.44000 1.267
90.46000 -0.288
90.48000 0.261
90.50000 -0.511
90.52000 0.612
90.54000 3.344
90.56000 1.210
90.58000 1.075
90.60000 4.485
90.62000 4.963
90.64000 3.717
90.66000 1.980
90.68000 1.667
90.70000 0.431
90.72000 0.556
90.74000 2.038
90.76000 1.190
90.78000 0.753
90.80000 1.068
90.82000 -1.684
90.84000 -1.846
90.86000 1.896
90.88000 2.336
90.90000 2.076
90.92000 -2.133
90.94000 -2.076
90.96000 2.786
90.98000 4.191
91.00000 0.532
91.02000 -1.617
91.04000 -0.522
91.06000 1.512
91.08000 0.724
91.10000 4.408
91.12000 3.226
91.14000 1.750
91.16000 -1.442
91.18000 2.729
91.20000 4.768
91.22000 2.561
91.24000 -2.125
91.26000 -1.341
91.28000 -1.662
91.30000 5.239
91.32000 5.047
91.34000 3.979
91.36000 5.712
91.38000 3.624
91.40000 2.726
91.42000 2.432
91.44000 1.879
91.46000 5.118
91.48000 4.522
91.50000 2.823
91.52000 1.766
91.54000 2.895
91.56000 3.313
91.58000 1.257
91.60000 0.938
91.62000 3.324
91.64000 3.482
91.66000 0.848
91.68000 0.539
91.70000 1.882
91.72000 -1.172
91.74000 -2.112
91.76000 0.893
91.78000 1.834
91.80000 3.409
91.82000 5.211
91.84000 9.244
91.86000 4.112
91.88000 4.516
91.90000 2.670
91.92000 2.127
91.94000 6.659
91.96000 5.239
91.98000 -0.111
92.00000 -1.532
92.02000 1.777
92.04000 1.121
92.06000 -0.391
92.08000 -0.341
92.10000 0.337
92.12000 -0.387
92.14000 4.342
92.16000 4.885
92.18000 2.159
92.20000 5.382
92.22000 5.308
92.24000 1.779
92.26000 -0.789
92.28000 -0.117
92.30000 0.660
92.32000 -2.082
92.34000 0.877
92.36000 2.994
92.38000 5.264
92.40000 2.458
92.42000 2.445
92.44000 1.990
92.46000 6.248
92.48000 4.282
92.50000 7.029
92.52000 10.037
92.54000 7.477
92.56000 3.956
92.58000 1.947
92.60000 0.550
92.62000 0.217
92.64000 4.175
92.66000 7.601
92.68000 7.529
92.70000 5.139
92.72000 0.110
92.74000 4.097
92.76000 7.179
92.78000 8.388
92.80000 6.792
92.82000 2.867
92.84000 0.788
92.86000 2.269
92.88000 1.184
92.90000 -0.052
92.92000 -0.992
92.94000 -2.087
92.96000 5.135
92.98000 6.310
93.00000 2.225
93.02000 2.139
93.04000 2.479
93.06000 1.703
93.08000 2.540
93.10000 3.511
93.12000 -0.307
93.14000 0.086
93.16000 4.446
93.18000 2.209
93.20000 2.438
93.22000 3.030
93.24000 6.524
93.26000 3.107
93.28000 2.389
93.30000 2.725
93.32000 6.442
93.34000 5.423
93.36000 2.919
93.38000 4.461
93.40000 9.142
93.42000 8.261
93.44000 5.063
93.46000 3.215
93.48000 3.093
93.50000 2.055
93.52000 5.821
93.54000 5.143
93.56000 6.585
93.58000 3.903
93.60000 -0.625
93.62000 0.728
93.64000 3.356
93.66000 6.638
93.68000 4.776
93.70000 3.317
93.72000 2.490
93.74000 4.427
93.76000 1.256
93.78000 0.851
93.80000 3.293
93.82000 0.697
93.84000 1.331
93.86000 2.985
93.88000 0.255
93.90000 -0.167
93.92000 1.725
93.94000 5.350
93.96000 2.540
93.98000 0.962
94.00000 4.015
94.02000 3.470
94.04000 -0.529
94.06000 2.455
94.08000 6.515
94.10000 5.550
94.12000 7.812
94.14000 6.115
94.16000 4.237
94.18000 -2.093
94.20000 2.050
94.22000 6.671
94.24000 6.411
94.26000 -0.594
94.28000 0.159
94.30000 3.985
94.32000 0.681
94.34000 3.615
94.36000 1.699
94.38000 -1.496
94.40000 2.143
94.42000 4.520
94.44000 5.406
94.46000 9.333
94.48000 5.656
94.50000 4.723
94.52000 4.210
94.54000 1.701
94.56000 3.050
94.58000 3.562
94.60000 2.650
94.62000 5.806
94.64000 5.583
94.66000 3.761
94.68000 6.997
94.70000 5.960
94.72000 4.886
94.74000 5.994
94.76000 4.433
94.78000 5.132
94.80000 5.106
94.82000 2.631
94.84000 2.158
94.86000 4.123
94.88000 3.639
94.90000 2.557
94.92000 2.800
94.94000 1.708
94.96000 0.456
94.98000 2.829
95.00000 1.220
95.02000 5.776
95.04000 3.244
95.06000 2.236
95.08000 -0.064
95.10000 0.564
95.12000 4.488
95.14000 4.226
95.16000 6.392
95.18000 3.881
95.20000 1.971
95.22000 1.135
95.24000 5.578
95.26000 3.477
95.28000 5.065
95.30000 3.422
95.32000 5.679
95.34000 5.677
95.36000 1.169
95.38000 3.404
95.40000 4.771
95.42000 5.151
95.44000 5.085
95.46000 4.206
95.48000 5.994
95.50000 1.954
95.52000 -0.079
95.54000 2.528
95.56000 5.442
95.58000 9.832
95.60000 5.441
95.62000 6.120
95.64000 0.858
95.66000 5.046
95.68000 9.162
95.70000 6.596
95.72000 0.453
95.74000 -2.031
95.76000 -2.093
95.78000 1.433
95.80000 6.869
95.82000 10.321
95.84000 6.073
95.86000 8.904
95.88000 4.336
95.90000 2.081
95.92000 4.567
95.94000 2.701
95.96000 2.243
95.98000 8.927
96.00000 8.261
96.02000 9.101
96.04000 7.393
96.06000 -2.013
96.08000 -0.412
96.10000 4.275
96.12000 3.121
96.14000 2.330
96.16000 7.253
96.18000 2.989
96.20000 5.841
96.22000 10.881
96.24000 13.340
96.26000 4.286
96.28000 3.365
96.30000 3.606
96.32000 3.048
96.34000 3.142
96.36000 6.347
96.38000 9.488
96.40000 6.182
96.42000 3.270
96.44000 3.450
96.46000 4.206
96.48000 7.435
96.50000 4.363
96.52000 5.119
96.54000 9.760
96.56000 11.955
96.58000 3.878
96.60000 -2.061
96.62000 -0.993
96.64000 -0.112
96.66000 -0.103
96.68000 2.079
96.70000 2.616
96.72000 7.101
96.74000 9.908
96.76000 8.980
96.78000 1.012
96.80000 1.394
96.82000 3.813
96.84000 3.186
96.86000 1.859
96.88000 2.791
96.90000 1.251
96.92000 5.812
96.94000 8.623
96.96000 8.043
96.98000 5.702
97.00000 5.033
97.02000 1.442
97.04000 1.215
97.06000 1.563
97.08000 4.057
97.10000 -0.909
97.12000 7.049
97.14000 8.579
97.16000 5.482
97.18000 4.785
97.20000 6.552
97.22000 6.950
97.24000 6.057
97.26000 6.956
97.28000 4.910
97.30000 7.221
97.32000 3.878
97.34000 7.911
97.36000 8.502
97.38000 5.271
97.40000 8.251
97.42000 7.646
97.44000 4.024
97.46000 0.620
97.48000 4.687
97.50000 6.349
97.52000 12.477
97.54000 10.338
97.56000 9.353
97.58000 4.663
97.60000 3.539
97.62000 3.990
97.64000 6.964
97.66000 8.904
97.68000 -1.324
97.70000 6.308
97.72000 5.003
97.74000 7.926
97.76000 5.782
97.78000 3.868
97.80000 5.732
97.82000 9.528
97.84000 9.448
97.86000 6.474
97.88000 1.894
97.90000 1.745
97.92000 7.398
97.94000 4.872
97.96000 8.603
97.98000 6.012
98.00000 7.016
98.02000 10.644
98.04000 7.069
98.06000 2.384
98.08000 1.985
98.10000 5.415
98.12000 4.585
98.14000 6.701
98.16000 4.533
98.18000 -0.773
98.20000 7.383
98.22000 8.596
98.24000 9.958
98.26000 5.425
98.28000 0.471
98.30000 2.862
98.32000 12.346
98.34000 12.642
98.36000 10.129
98.38000 5.553
98.40000 3.622
98.42000 -2.035
98.44000 2.460
98.46000 5.337
98.48000 3.620
98.50000 3.293
98.52000 9.814
98.54000 8.748
98.56000 0.423
98.58000 -0.101
98.60000 7.008
98.62000 4.993
98.64000 6.411
98.66000 10.859
98.68000 10.187
98.70000 6.188
98.72000 3.933
98.74000 9.072
98.76000 9.210
98.78000 3.533
98.80000 5.043
98.82000 8.689
98.84000 10.949
98.86000 4.640
98.88000 3.124
98.90000 1.035
98.92000 5.313
98.94000 9.200
98.96000 -0.647
98.98000 3.400
99.00000 4.149
99.02000 9.359
99.04000 12.942
99.06000 8.027
99.08000 8.746
99.10000 7.805
99.12000 4.007
99.14000 6.759
99.16000 -1.617
99.18000 2.591
99.20000 -1.231
99.22000 5.863
99.24000 10.050
99.26000 13.730
99.28000 7.615
99.30000 3.056
99.32000 8.462
99.34000 10.085
99.36000 7.502
99.38000 7.351
99.40000 -0.036
99.42000 3.704
99.44000 -2.015
99.46000 4.904
99.48000 8.780
99.50000 10.637
99.52000 22.116
99.54000 13.094
99.56000 7.358
99.58000 -1.683
99.60000 -0.008
99.62000 5.647
99.64000 6.368
99.66000 16.455
99.68000 4.852
99.70000 4.434
99.72000 5.432
99.74000 9.034
99.76000 10.335
99.78000 1.552
99.80000 4.213
99.82000 0.263
99.84000 -2.100
99.86000 4.790
99.88000 3.233
99.90000 8.126
99.92000 1.116
99.94000 -2.226
99.96000 -0.178
99.98000 0.000
