'Id: "0011388" Comment: "Integrate frame 0011388_Au-Ir-Rh_Rh-rich_XRD-Mapping-201-0000.gfrmwith cursor Wedge Cursor #5" Operator: "B?rgel" Anode: "Cu" Wavelength: "1.5406" Scantype: "2Theta (TwoTheta)" TimePerStep: "1" X: "-36" Y: "9" Z: "5.95" 
10.00000 0.000
10.02000 7.024
10.04000 -4.545
10.06000 2.214
10.08000 5.968
10.10000 7.716
10.12000 14.475
10.14000 2.024
10.16000 -0.018
10.18000 18.275
10.20000 10.101
10.22000 7.182
10.24000 9.939
10.26000 -1.318
10.28000 13.692
10.30000 13.309
10.32000 8.659
10.34000 16.975
10.36000 6.706
10.38000 6.530
10.40000 10.066
10.42000 8.390
10.44000 4.420
10.46000 3.508
10.48000 13.764
10.50000 16.138
10.52000 4.698
10.54000 7.374
10.56000 15.622
10.58000 5.907
10.60000 6.699
10.62000 -0.198
10.64000 8.052
10.66000 7.764
10.68000 4.137
10.70000 -1.481
10.72000 0.933
10.74000 7.279
10.76000 8.916
10.78000 13.378
10.80000 7.114
10.82000 21.864
10.84000 27.976
10.86000 21.502
10.88000 23.599
10.90000 9.915
10.92000 17.029
10.94000 14.520
10.96000 2.924
10.98000 0.490
11.00000 11.283
11.02000 15.010
11.04000 18.166
11.06000 23.466
11.08000 21.123
11.10000 -1.450
11.12000 3.031
11.14000 -0.683
11.16000 2.784
11.18000 8.010
11.20000 21.034
11.22000 18.974
11.24000 16.290
11.26000 11.539
11.28000 -1.506
11.30000 -4.478
11.32000 -0.030
11.34000 4.955
11.36000 21.626
11.38000 19.587
11.40000 21.899
11.42000 8.759
11.44000 13.074
11.46000 16.359
11.48000 8.159
11.50000 0.272
11.52000 -0.508
11.54000 8.829
11.56000 15.041
11.58000 23.688
11.60000 3.524
11.62000 -1.536
11.64000 -0.955
11.66000 5.767
11.68000 16.039
11.70000 8.690
11.72000 12.308
11.74000 15.166
11.76000 19.920
11.78000 13.047
11.80000 19.074
11.82000 6.130
11.84000 3.681
11.86000 13.305
11.88000 12.124
11.90000 16.002
11.92000 18.557
11.94000 8.369
11.96000 4.767
11.98000 8.518
12.00000 12.490
12.02000 13.451
12.04000 21.417
12.06000 15.187
12.08000 12.735
12.10000 15.141
12.12000 10.488
12.14000 10.519
12.16000 9.001
12.18000 4.466
12.20000 1.610
12.22000 11.268
12.24000 7.926
12.26000 0.094
12.28000 16.259
12.30000 18.062
12.32000 8.439
12.34000 3.519
12.36000 -0.938
12.38000 1.906
12.40000 9.238
12.42000 6.131
12.44000 1.119
12.46000 5.254
12.48000 2.797
12.50000 9.232
12.52000 11.909
12.54000 13.714
12.56000 9.273
12.58000 9.358
12.60000 8.836
12.62000 4.262
12.64000 10.336
12.66000 8.433
12.68000 4.310
12.70000 9.219
12.72000 15.964
12.74000 6.212
12.76000 4.817
12.78000 7.155
12.80000 -2.814
12.82000 -2.992
12.84000 13.763
12.86000 14.815
12.88000 15.884
12.90000 12.102
12.92000 2.087
12.94000 9.086
12.96000 15.006
12.98000 10.178
13.00000 6.192
13.02000 3.062
13.04000 1.421
13.06000 -4.278
13.08000 -1.040
13.10000 -2.533
13.12000 5.224
13.14000 18.481
13.16000 15.978
13.18000 20.046
13.20000 13.508
13.22000 7.509
13.24000 3.788
13.26000 14.142
13.28000 7.232
13.30000 6.245
13.32000 7.895
13.34000 8.441
13.36000 6.835
13.38000 8.202
13.40000 2.748
13.42000 7.488
13.44000 -4.286
13.46000 -1.867
13.48000 2.926
13.50000 6.018
13.52000 6.359
13.54000 12.385
13.56000 14.310
13.58000 4.790
13.60000 -2.220
13.62000 -4.501
13.64000 1.369
13.66000 -0.329
13.68000 11.266
13.70000 19.718
13.72000 12.239
13.74000 10.958
13.76000 2.089
13.78000 1.202
13.80000 1.106
13.82000 -4.111
13.84000 3.957
13.86000 10.547
13.88000 7.361
13.90000 2.005
13.92000 5.511
13.94000 7.743
13.96000 8.143
13.98000 11.455
14.00000 8.559
14.02000 11.222
14.04000 13.499
14.06000 14.439
14.08000 14.557
14.10000 10.987
14.12000 4.372
14.14000 0.994
14.16000 8.632
14.18000 0.355
14.20000 3.380
14.22000 8.721
14.24000 10.441
14.26000 -1.840
14.28000 5.116
14.30000 14.170
14.32000 11.946
14.34000 4.896
14.36000 3.149
14.38000 4.785
14.40000 11.264
14.42000 7.184
14.44000 7.751
14.46000 8.612
14.48000 5.360
14.50000 12.210
14.52000 14.662
14.54000 8.939
14.56000 9.665
14.58000 18.496
14.60000 11.334
14.62000 8.890
14.64000 8.818
14.66000 7.678
14.68000 7.482
14.70000 5.314
14.72000 8.619
14.74000 6.362
14.76000 5.675
14.78000 5.543
14.80000 10.886
14.82000 14.008
14.84000 7.063
14.86000 11.017
14.88000 8.916
14.90000 5.086
14.92000 17.412
14.94000 10.449
14.96000 4.935
14.98000 -4.469
15.00000 3.788
15.02000 17.584
15.04000 14.288
15.06000 4.442
15.08000 9.258
15.10000 8.289
15.12000 10.191
15.14000 2.631
15.16000 4.209
15.18000 0.333
15.20000 9.496
15.22000 8.891
15.24000 5.279
15.26000 8.310
15.28000 4.123
15.30000 6.811
15.32000 5.500
15.34000 0.544
15.36000 2.918
15.38000 -3.719
15.40000 0.856
15.42000 4.040
15.44000 8.325
15.46000 -1.139
15.48000 3.763
15.50000 6.469
15.52000 7.296
15.54000 9.764
15.56000 8.085
15.58000 10.471
15.60000 8.891
15.62000 8.439
15.64000 8.164
15.66000 11.460
15.68000 17.684
15.70000 12.539
15.72000 10.418
15.74000 11.879
15.76000 9.187
15.78000 9.880
15.80000 7.347
15.82000 -4.433
15.84000 -1.166
15.86000 4.056
15.88000 6.435
15.90000 14.135
15.92000 13.490
15.94000 2.588
15.96000 -3.939
15.98000 4.001
16.00000 12.425
16.02000 15.440
16.04000 13.265
16.06000 9.856
16.08000 7.865
16.10000 12.892
16.12000 11.430
16.14000 10.671
16.16000 5.395
16.18000 2.481
16.20000 11.625
16.22000 11.026
16.24000 4.203
16.26000 2.335
16.28000 3.570
16.30000 8.030
16.32000 4.065
16.34000 12.211
16.36000 8.775
16.38000 8.887
16.40000 7.680
16.42000 4.736
16.44000 4.170
16.46000 8.183
16.48000 10.170
16.50000 14.626
16.52000 2.245
16.54000 5.151
16.56000 0.934
16.58000 -1.887
16.60000 -2.568
16.62000 -4.399
16.64000 3.901
16.66000 4.222
16.68000 8.661
16.70000 15.476
16.72000 15.240
16.74000 19.474
16.76000 9.892
16.78000 8.814
16.80000 3.724
16.82000 4.931
16.84000 0.171
16.86000 0.363
16.88000 12.486
16.90000 11.113
16.92000 14.729
16.94000 15.593
16.96000 5.211
16.98000 0.651
17.00000 11.113
17.02000 15.014
17.04000 7.418
17.06000 6.514
17.08000 11.433
17.10000 4.444
17.12000 0.855
17.14000 1.797
17.16000 3.549
17.18000 9.109
17.20000 8.146
17.22000 5.188
17.24000 -3.370
17.26000 -4.357
17.28000 0.318
17.30000 -0.348
17.32000 3.385
17.34000 8.072
17.36000 10.934
17.38000 8.571
17.40000 5.971
17.42000 3.613
17.44000 1.413
17.46000 -4.351
17.48000 2.508
17.50000 7.637
17.52000 5.151
17.54000 6.011
17.56000 7.309
17.58000 12.078
17.60000 9.174
17.62000 6.318
17.64000 4.534
17.66000 7.260
17.68000 7.011
17.70000 8.781
17.72000 9.763
17.74000 4.397
17.76000 1.054
17.78000 6.507
17.80000 11.354
17.82000 15.031
17.84000 12.008
17.86000 6.511
17.88000 1.110
17.90000 0.921
17.92000 1.673
17.94000 5.453
17.96000 9.524
17.98000 6.023
18.00000 8.741
18.02000 6.293
18.04000 9.352
18.06000 8.039
18.08000 1.693
18.10000 2.171
18.12000 0.920
18.14000 4.609
18.16000 4.727
18.18000 5.604
18.20000 7.165
18.22000 6.514
18.24000 4.002
18.26000 9.951
18.28000 9.215
18.30000 6.563
18.32000 8.742
18.34000 4.584
18.36000 8.720
18.38000 8.287
18.40000 10.284
18.42000 4.027
18.44000 5.805
18.46000 3.371
18.48000 11.519
18.50000 6.860
18.52000 5.288
18.54000 0.344
18.56000 10.204
18.58000 10.519
18.60000 2.050
18.62000 6.861
18.64000 7.491
18.66000 6.650
18.68000 4.069
18.70000 1.344
18.72000 -3.274
18.74000 -2.595
18.76000 0.833
18.78000 -2.205
18.80000 -0.382
18.82000 -0.704
18.84000 5.308
18.86000 4.759
18.88000 8.154
18.90000 4.273
18.92000 -4.166
18.94000 -4.303
18.96000 0.123
18.98000 -1.661
19.00000 6.131
19.02000 6.804
19.04000 -1.369
19.06000 7.972
19.08000 9.747
19.10000 12.159
19.12000 6.915
19.14000 7.101
19.16000 5.277
19.18000 3.272
19.20000 2.432
19.22000 2.504
19.24000 4.733
19.26000 5.294
19.28000 4.560
19.30000 1.663
19.32000 4.498
19.34000 8.262
19.36000 6.406
19.38000 5.013
19.40000 4.159
19.42000 4.840
19.44000 -4.274
19.46000 0.271
19.48000 2.864
19.50000 5.026
19.52000 2.987
19.54000 3.282
19.56000 7.787
19.58000 7.030
19.60000 8.030
19.62000 9.310
19.64000 5.698
19.66000 4.437
19.68000 -2.596
19.70000 1.004
19.72000 2.164
19.74000 5.827
19.76000 2.780
19.78000 4.197
19.80000 4.982
19.82000 -0.425
19.84000 -0.317
19.86000 -3.798
19.88000 2.522
19.90000 7.329
19.92000 2.963
19.94000 3.442
19.96000 -1.784
19.98000 0.347
20.00000 2.083
20.02000 3.657
20.04000 1.798
20.06000 2.499
20.08000 0.130
20.10000 -0.348
20.12000 -1.182
20.14000 -2.049
20.16000 1.760
20.18000 4.180
20.20000 -1.012
20.22000 -4.241
20.24000 -1.557
20.26000 0.573
20.28000 5.557
20.30000 7.633
20.32000 2.457
20.34000 3.978
20.36000 1.975
20.38000 4.611
20.40000 -0.590
20.42000 -2.616
20.44000 3.528
20.46000 6.197
20.48000 6.272
20.50000 9.991
20.52000 3.059
20.54000 0.180
20.56000 -2.801
20.58000 -1.207
20.60000 4.907
20.62000 0.981
20.64000 3.083
20.66000 5.717
20.68000 2.846
20.70000 3.240
20.72000 9.886
20.74000 7.826
20.76000 2.411
20.78000 -2.903
20.80000 -0.243
20.82000 3.092
20.84000 9.263
20.86000 10.050
20.88000 5.621
20.90000 5.597
20.92000 8.711
20.94000 -0.968
20.96000 -1.565
20.98000 0.677
21.00000 2.460
21.02000 5.207
21.04000 4.101
21.06000 5.017
21.08000 0.235
21.10000 -2.242
21.12000 -1.495
21.14000 -4.181
21.16000 1.424
21.18000 0.115
21.20000 7.393
21.22000 6.993
21.24000 8.681
21.26000 6.793
21.28000 11.654
21.30000 11.166
21.32000 5.800
21.34000 5.006
21.36000 3.808
21.38000 5.201
21.40000 -1.367
21.42000 -2.094
21.44000 1.518
21.46000 4.267
21.48000 5.821
21.50000 -2.043
21.52000 0.188
21.54000 0.937
21.56000 -0.628
21.58000 2.955
21.60000 -2.142
21.62000 -1.940
21.64000 -0.792
21.66000 5.158
21.68000 2.743
21.70000 -0.078
21.72000 3.454
21.74000 6.618
21.76000 2.154
21.78000 2.335
21.80000 3.464
21.82000 1.961
21.84000 -3.965
21.86000 -4.151
21.88000 -3.892
21.90000 -3.502
21.92000 1.125
21.94000 7.336
21.96000 1.618
21.98000 2.232
22.00000 1.126
22.02000 1.385
22.04000 -1.075
22.06000 2.341
22.08000 4.947
22.10000 6.315
22.12000 4.425
22.14000 1.338
22.16000 0.479
22.18000 0.204
22.20000 1.651
22.22000 2.552
22.24000 3.499
22.26000 1.617
22.28000 3.707
22.30000 6.787
22.32000 2.114
22.34000 2.490
22.36000 0.363
22.38000 -0.030
22.40000 4.111
22.42000 6.282
22.44000 3.273
22.46000 5.850
22.48000 4.643
22.50000 -1.999
22.52000 -1.995
22.54000 0.151
22.56000 6.542
22.58000 4.656
22.60000 8.352
22.62000 3.429
22.64000 8.334
22.66000 11.121
22.68000 10.634
22.70000 3.082
22.72000 11.645
22.74000 16.581
22.76000 6.511
22.78000 -4.080
22.80000 1.815
22.82000 6.365
22.84000 5.845
22.86000 0.936
22.88000 2.112
22.90000 6.227
22.92000 5.224
22.94000 2.288
22.96000 3.191
22.98000 5.323
23.00000 -0.671
23.02000 -3.217
23.04000 4.334
23.06000 8.320
23.08000 3.183
23.10000 6.605
23.12000 9.655
23.14000 1.421
23.16000 -0.924
23.18000 -0.555
23.20000 -0.531
23.22000 1.853
23.24000 -0.359
23.26000 3.872
23.28000 -2.574
23.30000 1.421
23.32000 6.254
23.34000 6.249
23.36000 1.228
23.38000 -2.366
23.40000 -1.378
23.42000 0.760
23.44000 0.212
23.46000 0.631
23.48000 2.398
23.50000 5.325
23.52000 2.752
23.54000 4.285
23.56000 5.165
23.58000 6.503
23.60000 1.574
23.62000 0.232
23.64000 1.720
23.66000 6.984
23.68000 6.467
23.70000 6.059
23.72000 2.325
23.74000 1.087
23.76000 6.499
23.78000 -0.983
23.80000 0.833
23.82000 6.255
23.84000 1.714
23.86000 -1.527
23.88000 -3.209
23.90000 -4.024
23.92000 -0.591
23.94000 8.460
23.96000 10.020
23.98000 3.440
24.00000 -0.151
24.02000 2.596
24.04000 5.294
24.06000 1.986
24.08000 3.291
24.10000 10.164
24.12000 8.482
24.14000 3.085
24.16000 3.415
24.18000 2.196
24.20000 5.811
24.22000 3.041
24.24000 -0.292
24.26000 1.842
24.28000 4.113
24.30000 3.943
24.32000 6.952
24.34000 5.003
24.36000 4.125
24.38000 5.685
24.40000 3.270
24.42000 5.744
24.44000 7.059
24.46000 4.424
24.48000 4.009
24.50000 3.825
24.52000 8.400
24.54000 3.000
24.56000 3.089
24.58000 3.891
24.60000 2.819
24.62000 1.817
24.64000 7.862
24.66000 6.247
24.68000 6.556
24.70000 6.855
24.72000 5.712
24.74000 6.003
24.76000 2.542
24.78000 1.041
24.80000 3.177
24.82000 6.882
24.84000 5.909
24.86000 -0.036
24.88000 -1.759
24.90000 0.167
24.92000 -3.309
24.94000 -0.073
24.96000 5.501
24.98000 6.894
25.00000 3.722
25.02000 3.046
25.04000 5.196
25.06000 -0.687
25.08000 1.633
25.10000 2.776
25.12000 1.598
25.14000 4.862
25.16000 2.463
25.18000 1.570
25.20000 1.251
25.22000 5.042
25.24000 6.500
25.26000 2.925
25.28000 1.786
25.30000 2.339
25.32000 2.146
25.34000 -3.942
25.36000 0.085
25.38000 4.387
25.40000 -0.690
25.42000 -0.947
25.44000 0.202
25.46000 0.819
25.48000 0.807
25.50000 0.147
25.52000 4.427
25.54000 3.490
25.56000 4.651
25.58000 3.085
25.60000 -2.612
25.62000 0.724
25.64000 4.363
25.66000 2.073
25.68000 -0.972
25.70000 -2.074
25.72000 3.351
25.74000 4.361
25.76000 1.938
25.78000 5.427
25.80000 5.465
25.82000 4.353
25.84000 4.021
25.86000 1.441
25.88000 -3.255
25.90000 3.478
25.92000 7.703
25.94000 4.712
25.96000 -3.010
25.98000 0.865
26.00000 6.205
26.02000 4.230
26.04000 0.306
26.06000 -0.995
26.08000 -3.918
26.10000 1.477
26.12000 1.035
26.14000 6.896
26.16000 6.008
26.18000 1.281
26.20000 -1.396
26.22000 -1.629
26.24000 0.778
26.26000 0.501
26.28000 -1.010
26.30000 -0.113
26.32000 0.382
26.34000 0.750
26.36000 -0.531
26.38000 -3.686
26.40000 -1.268
26.42000 6.656
26.44000 4.196
26.46000 -2.401
26.48000 -0.524
26.50000 -3.898
26.52000 -2.103
26.54000 7.662
26.56000 6.660
26.58000 2.255
26.60000 -3.892
26.62000 -3.203
26.64000 3.719
26.66000 4.578
26.68000 -3.201
26.70000 -1.690
26.72000 2.610
26.74000 1.500
26.76000 -1.564
26.78000 -1.058
26.80000 -2.603
26.82000 -2.286
26.84000 3.505
26.86000 5.497
26.88000 2.408
26.90000 1.366
26.92000 -3.712
26.94000 -1.301
26.96000 3.724
26.98000 5.012
27.00000 3.174
27.02000 5.784
27.04000 5.265
27.06000 3.206
27.08000 0.627
27.10000 3.300
27.12000 1.081
27.14000 6.962
27.16000 7.560
27.18000 5.411
27.20000 7.474
27.22000 0.833
27.24000 1.403
27.26000 1.902
27.28000 2.071
27.30000 2.705
27.32000 3.419
27.34000 0.067
27.36000 1.987
27.38000 3.622
27.40000 -1.306
27.42000 -3.829
27.44000 3.141
27.46000 2.083
27.48000 0.870
27.50000 5.638
27.52000 3.492
27.54000 3.324
27.56000 1.418
27.58000 4.820
27.60000 7.186
27.62000 5.514
27.64000 4.085
27.66000 1.199
27.68000 5.946
27.70000 7.403
27.72000 4.919
27.74000 1.576
27.76000 2.882
27.78000 4.867
27.80000 3.687
27.82000 2.025
27.84000 0.009
27.86000 -2.593
27.88000 1.368
27.90000 4.173
27.92000 3.707
27.94000 -3.163
27.96000 -3.791
27.98000 1.811
28.00000 6.017
28.02000 5.790
28.04000 0.124
28.06000 -1.152
28.08000 2.104
28.10000 7.383
28.12000 3.358
28.14000 -1.445
28.16000 4.167
28.18000 3.782
28.20000 4.920
28.22000 -1.765
28.24000 -1.752
28.26000 0.934
28.28000 0.639
28.30000 -3.784
28.32000 2.946
28.34000 9.122
28.36000 5.612
28.38000 2.909
28.40000 0.728
28.42000 3.527
28.44000 8.680
28.46000 6.693
28.48000 -0.454
28.50000 -3.374
28.52000 -2.120
28.54000 6.713
28.56000 3.547
28.58000 5.358
28.60000 4.205
28.62000 5.004
28.64000 8.832
28.66000 10.221
28.68000 7.416
28.70000 -0.874
28.72000 2.563
28.74000 7.233
28.76000 1.925
28.78000 -1.211
28.80000 2.729
28.82000 4.040
28.84000 -0.744
28.86000 3.286
28.88000 4.258
28.90000 2.328
28.92000 2.483
28.94000 4.495
28.96000 2.812
28.98000 -0.178
29.00000 1.933
29.02000 3.094
29.04000 -2.142
29.06000 1.735
29.08000 3.936
29.10000 8.057
29.12000 5.722
29.14000 1.481
29.16000 3.908
29.18000 2.146
29.20000 -1.309
29.22000 1.817
29.24000 3.411
29.26000 2.562
29.28000 -0.531
29.30000 -0.503
29.32000 3.324
29.34000 2.287
29.36000 -0.115
29.38000 -1.675
29.40000 -0.596
29.42000 1.990
29.44000 0.027
29.46000 -1.606
29.48000 -0.450
29.50000 -2.169
29.52000 -3.736
29.54000 -1.651
29.56000 4.503
29.58000 4.538
29.60000 -2.247
29.62000 0.671
29.64000 -3.727
29.66000 -1.524
29.68000 4.680
29.70000 11.609
29.72000 4.288
29.74000 0.916
29.76000 5.670
29.78000 5.658
29.80000 7.349
29.82000 3.260
29.84000 2.985
29.86000 3.736
29.88000 2.513
29.90000 3.272
29.92000 2.423
29.94000 0.848
29.96000 -1.132
29.98000 0.812
30.00000 6.783
30.02000 3.670
30.04000 4.266
30.06000 -0.396
30.08000 1.075
30.10000 0.794
30.12000 5.986
30.14000 5.946
30.16000 3.204
30.18000 3.648
30.20000 6.769
30.22000 2.692
30.24000 1.175
30.26000 1.962
30.28000 -0.620
30.30000 -2.117
30.32000 4.603
30.34000 5.762
30.36000 3.588
30.38000 2.615
30.40000 2.469
30.42000 1.368
30.44000 -1.367
30.46000 1.085
30.48000 -2.438
30.50000 -3.688
30.52000 1.802
30.54000 3.258
30.56000 3.336
30.58000 2.035
30.60000 3.143
30.62000 -0.026
30.64000 -0.662
30.66000 0.353
30.68000 -2.747
30.70000 1.728
30.72000 2.113
30.74000 1.746
30.76000 -0.487
30.78000 -3.677
30.80000 -1.636
30.82000 0.285
30.84000 1.039
30.86000 3.516
30.88000 5.867
30.90000 6.237
30.92000 -0.322
30.94000 -0.322
30.96000 3.386
30.98000 0.674
31.00000 0.503
31.02000 4.798
31.04000 6.665
31.06000 -1.163
31.08000 -1.372
31.10000 -0.386
31.12000 -2.060
31.14000 -3.272
31.16000 1.560
31.18000 -1.139
31.20000 2.096
31.22000 6.999
31.24000 6.222
31.26000 0.681
31.28000 -3.658
31.30000 0.073
31.32000 0.507
31.34000 1.780
31.36000 2.143
31.38000 -0.728
31.40000 -0.499
31.42000 3.901
31.44000 2.847
31.46000 4.854
31.48000 2.524
31.50000 5.594
31.52000 3.534
31.54000 1.604
31.56000 3.937
31.58000 5.318
31.60000 2.033
31.62000 1.047
31.64000 4.768
31.66000 2.065
31.68000 3.234
31.70000 1.930
31.72000 2.739
31.74000 4.210
31.76000 6.110
31.78000 5.359
31.80000 4.690
31.82000 3.815
31.84000 4.267
31.86000 3.459
31.88000 -0.243
31.90000 4.889
31.92000 7.102
31.94000 6.536
31.96000 6.123
31.98000 -1.577
32.00000 -0.847
32.02000 1.955
32.04000 1.427
32.06000 -1.004
32.08000 3.231
32.10000 4.877
32.12000 0.907
32.14000 -0.222
32.16000 3.130
32.18000 2.905
32.20000 3.220
32.22000 0.749
32.24000 -0.466
32.26000 3.467
32.28000 4.573
32.30000 0.599
32.32000 5.630
32.34000 1.338
32.36000 -0.063
32.38000 -3.608
32.40000 -0.847
32.42000 0.150
32.44000 1.245
32.46000 3.435
32.48000 3.153
32.50000 -0.055
32.52000 1.858
32.54000 6.303
32.56000 3.528
32.58000 5.043
32.60000 1.019
32.62000 -3.478
32.64000 -1.493
32.66000 2.522
32.68000 2.535
32.70000 7.081
32.72000 4.825
32.74000 2.134
32.76000 0.014
32.78000 2.228
32.80000 4.128
32.82000 4.551
32.84000 4.072
32.86000 4.032
32.88000 2.031
32.90000 1.524
32.92000 -3.587
32.94000 -0.751
32.96000 1.567
32.98000 -0.987
33.00000 3.479
33.02000 3.692
33.04000 7.163
33.06000 9.228
33.08000 3.479
33.10000 4.251
33.12000 5.596
33.14000 4.510
33.16000 2.822
33.18000 4.512
33.20000 4.267
33.22000 2.755
33.24000 5.490
33.26000 3.478
33.28000 4.394
33.30000 2.331
33.32000 1.088
33.34000 -1.494
33.36000 -1.642
33.38000 1.106
33.40000 4.170
33.42000 2.055
33.44000 2.163
33.46000 2.898
33.48000 1.930
33.50000 4.014
33.52000 2.207
33.54000 8.744
33.56000 7.594
33.58000 1.100
33.60000 4.855
33.62000 3.701
33.64000 3.813
33.66000 0.629
33.68000 -3.572
33.70000 -1.306
33.72000 4.584
33.74000 6.846
33.76000 8.624
33.78000 11.072
33.80000 7.744
33.82000 4.357
33.84000 4.005
33.86000 5.048
33.88000 1.260
33.90000 -1.633
33.92000 2.316
33.94000 9.294
33.96000 7.476
33.98000 7.271
34.00000 6.090
34.02000 7.067
34.04000 4.116
34.06000 -2.349
34.08000 2.332
34.10000 7.611
34.12000 5.113
34.14000 6.371
34.16000 5.975
34.18000 5.434
34.20000 6.482
34.22000 -0.057
34.24000 -0.716
34.26000 1.898
34.28000 0.163
34.30000 2.491
34.32000 8.185
34.34000 9.430
34.36000 4.090
34.38000 2.472
34.40000 -2.480
34.42000 2.389
34.44000 2.668
34.46000 2.444
34.48000 2.987
34.50000 3.039
34.52000 5.226
34.54000 2.857
34.56000 2.852
34.58000 0.312
34.60000 -0.483
34.62000 4.249
34.64000 0.520
34.66000 2.146
34.68000 5.551
34.70000 2.379
34.72000 3.195
34.74000 2.197
34.76000 3.550
34.78000 5.001
34.80000 4.430
34.82000 9.218
34.84000 3.898
34.86000 0.845
34.88000 1.724
34.90000 -1.249
34.92000 0.250
34.94000 6.124
34.96000 4.892
34.98000 -1.223
35.00000 -3.530
35.02000 3.259
35.04000 8.787
35.06000 4.514
35.08000 5.357
35.10000 0.087
35.12000 -1.190
35.14000 6.386
35.16000 3.523
35.18000 5.348
35.20000 8.178
35.22000 -2.045
35.24000 2.146
35.26000 1.717
35.28000 -1.645
35.30000 0.549
35.32000 -0.218
35.34000 1.222
35.36000 2.024
35.38000 4.131
35.40000 -2.558
35.42000 -0.938
35.44000 -0.059
35.46000 -3.384
35.48000 -0.524
35.50000 0.465
35.52000 3.204
35.54000 6.177
35.56000 3.152
35.58000 1.257
35.60000 3.488
35.62000 4.605
35.64000 4.060
35.66000 -0.049
35.68000 1.478
35.70000 -0.952
35.72000 -1.105
35.74000 4.952
35.76000 2.911
35.78000 -3.100
35.80000 -3.553
35.82000 2.390
35.84000 1.441
35.86000 -1.880
35.88000 -1.180
35.90000 3.543
35.92000 3.180
35.94000 -2.940
35.96000 -0.153
35.98000 3.353
36.00000 1.349
36.02000 2.733
36.04000 6.674
36.06000 3.994
36.08000 0.398
36.10000 2.963
36.12000 6.301
36.14000 3.267
36.16000 0.535
36.18000 3.066
36.20000 1.885
36.22000 2.678
36.24000 3.619
36.26000 5.763
36.28000 5.351
36.30000 1.339
36.32000 -1.619
36.34000 -1.801
36.36000 -2.983
36.38000 2.952
36.40000 8.354
36.42000 4.477
36.44000 3.306
36.46000 4.061
36.48000 6.967
36.50000 8.597
36.52000 -1.928
36.54000 0.078
36.56000 5.133
36.58000 2.736
36.60000 1.380
36.62000 1.210
36.64000 3.168
36.66000 4.142
36.68000 3.810
36.70000 4.651
36.72000 0.233
36.74000 1.672
36.76000 3.217
36.78000 4.335
36.80000 1.400
36.82000 -3.577
36.84000 1.193
36.86000 0.339
36.88000 -1.483
36.90000 -2.481
36.92000 -0.729
36.94000 0.058
36.96000 2.118
36.98000 1.227
37.00000 0.645
37.02000 3.546
37.04000 0.570
37.06000 1.040
37.08000 1.637
37.10000 0.075
37.12000 3.832
37.14000 2.405
37.16000 0.640
37.18000 -1.702
37.20000 -0.894
37.22000 3.249
37.24000 2.109
37.26000 -0.665
37.28000 2.132
37.30000 3.612
37.32000 4.113
37.34000 3.736
37.36000 -1.182
37.38000 -2.688
37.40000 -3.323
37.42000 0.019
37.44000 2.225
37.46000 8.665
37.48000 13.628
37.50000 8.517
37.52000 4.619
37.54000 1.541
37.56000 3.538
37.58000 2.039
37.60000 2.673
37.62000 4.005
37.64000 7.684
37.66000 5.846
37.68000 5.585
37.70000 3.858
37.72000 10.707
37.74000 8.708
37.76000 4.503
37.78000 3.736
37.80000 4.666
37.82000 9.144
37.84000 6.547
37.86000 6.135
37.88000 6.761
37.90000 8.228
37.92000 10.261
37.94000 7.462
37.96000 10.580
37.98000 14.073
38.00000 11.480
38.02000 9.429
38.04000 7.324
38.06000 11.557
38.08000 11.596
38.10000 9.478
38.12000 12.364
38.14000 12.156
38.16000 14.827
38.18000 13.897
38.20000 18.492
38.22000 23.036
38.24000 20.043
38.26000 18.904
38.28000 18.317
38.30000 21.214
38.32000 22.325
38.34000 21.533
38.36000 25.985
38.38000 24.060
38.40000 27.224
38.42000 27.129
38.44000 28.059
38.46000 24.485
38.48000 23.372
38.50000 23.260
38.52000 26.709
38.54000 36.170
38.56000 36.278
38.58000 35.532
38.60000 37.727
38.62000 38.895
38.64000 42.225
38.66000 41.388
38.68000 41.340
38.70000 39.513
38.72000 41.509
38.74000 38.040
38.76000 32.742
38.78000 40.930
38.80000 48.466
38.82000 45.139
38.84000 51.814
38.86000 55.597
38.88000 54.704
38.90000 57.870
38.92000 58.801
38.94000 69.723
38.96000 70.747
38.98000 68.207
39.00000 69.381
39.02000 74.795
39.04000 74.830
39.06000 73.553
39.08000 73.666
39.10000 82.745
39.12000 89.708
39.14000 92.697
39.16000 101.065
39.18000 102.539
39.20000 105.085
39.22000 110.260
39.24000 118.181
39.26000 124.963
39.28000 133.182
39.30000 135.661
39.32000 140.580
39.34000 136.581
39.36000 148.016
39.38000 161.275
39.40000 167.633
39.42000 173.091
39.44000 185.322
39.46000 193.734
39.48000 206.705
39.50000 211.711
39.52000 217.505
39.54000 226.886
39.56000 231.474
39.58000 251.488
39.60000 269.911
39.62000 285.037
39.64000 297.704
39.66000 301.866
39.68000 316.727
39.70000 335.702
39.72000 349.813
39.74000 365.769
39.76000 378.632
39.78000 393.414
39.80000 412.222
39.82000 433.523
39.84000 448.576
39.86000 468.651
39.88000 486.385
39.90000 497.743
39.92000 518.086
39.94000 544.572
39.96000 556.110
39.98000 573.153
40.00000 587.815
40.02000 597.930
40.04000 608.193
40.06000 617.599
40.08000 630.512
40.10000 637.481
40.12000 654.618
40.14000 653.508
40.16000 645.504
40.18000 646.811
40.20000 646.192
40.22000 654.647
40.24000 657.537
40.26000 651.276
40.28000 647.282
40.30000 629.968
40.32000 615.233
40.34000 609.409
40.36000 606.727
40.38000 580.548
40.40000 562.420
40.42000 554.942
40.44000 538.947
40.46000 509.404
40.48000 488.954
40.50000 478.586
40.52000 462.639
40.54000 434.147
40.56000 411.343
40.58000 406.972
40.60000 385.337
40.62000 365.271
40.64000 346.150
40.66000 324.291
40.68000 316.543
40.70000 303.272
40.72000 290.868
40.74000 267.542
40.76000 247.841
40.78000 237.239
40.80000 228.653
40.82000 216.802
40.84000 203.583
40.86000 193.492
40.88000 179.289
40.90000 171.733
40.92000 164.840
40.94000 156.181
40.96000 151.202
40.98000 142.424
41.00000 137.833
41.02000 121.687
41.04000 113.277
41.06000 108.388
41.08000 105.684
41.10000 98.647
41.12000 91.201
41.14000 83.762
41.16000 77.172
41.18000 76.275
41.20000 73.939
41.22000 67.733
41.24000 65.215
41.26000 63.367
41.28000 61.921
41.30000 60.253
41.32000 52.664
41.34000 51.506
41.36000 50.888
41.38000 44.827
41.40000 40.065
41.42000 38.900
41.44000 40.982
41.46000 37.938
41.48000 34.576
41.50000 31.750
41.52000 29.648
41.54000 25.922
41.56000 21.607
41.58000 24.405
41.60000 25.476
41.62000 21.434
41.64000 23.446
41.66000 23.154
41.68000 24.800
41.70000 20.573
41.72000 15.746
41.74000 18.364
41.76000 17.154
41.78000 13.968
41.80000 16.327
41.82000 14.118
41.84000 14.040
41.86000 18.233
41.88000 13.973
41.90000 11.113
41.92000 11.502
41.94000 8.628
41.96000 11.540
41.98000 12.896
42.00000 13.377
42.02000 11.534
42.04000 8.114
42.06000 8.305
42.08000 4.453
42.10000 5.868
42.12000 5.855
42.14000 4.717
42.16000 7.915
42.18000 8.476
42.20000 2.736
42.22000 2.263
42.24000 2.084
42.26000 3.449
42.28000 3.237
42.30000 2.907
42.32000 3.756
42.34000 3.563
42.36000 4.164
42.38000 5.957
42.40000 5.057
42.42000 1.102
42.44000 1.095
42.46000 1.240
42.48000 1.970
42.50000 0.975
42.52000 0.030
42.54000 3.809
42.56000 0.905
42.58000 -1.534
42.60000 -0.843
42.62000 3.386
42.64000 1.586
42.66000 7.136
42.68000 5.267
42.70000 -0.478
42.72000 -1.920
42.74000 0.991
42.76000 3.916
42.78000 4.397
42.80000 3.357
42.82000 -1.250
42.84000 -3.538
42.86000 -1.193
42.88000 3.476
42.90000 5.492
42.92000 3.444
42.94000 6.328
42.96000 2.274
42.98000 0.549
43.00000 5.576
43.02000 0.917
43.04000 -0.215
43.06000 1.858
43.08000 1.500
43.10000 -0.440
43.12000 0.459
43.14000 -0.393
43.16000 -1.464
43.18000 0.980
43.20000 5.045
43.22000 4.645
43.24000 2.612
43.26000 1.483
43.28000 2.976
43.30000 4.391
43.32000 2.746
43.34000 0.589
43.36000 1.357
43.38000 -0.264
43.40000 1.681
43.42000 3.976
43.44000 8.671
43.46000 2.799
43.48000 1.863
43.50000 9.928
43.52000 6.675
43.54000 5.033
43.56000 0.932
43.58000 2.368
43.60000 5.428
43.62000 7.431
43.64000 3.956
43.66000 -3.429
43.68000 -3.346
43.70000 4.146
43.72000 9.263
43.74000 3.785
43.76000 4.433
43.78000 5.973
43.80000 7.083
43.82000 9.711
43.84000 4.538
43.86000 9.533
43.88000 11.858
43.90000 4.787
43.92000 5.276
43.94000 1.754
43.96000 3.889
43.98000 5.553
44.00000 3.158
44.02000 3.763
44.04000 6.175
44.06000 1.669
44.08000 3.666
44.10000 3.694
44.12000 4.357
44.14000 3.339
44.16000 1.765
44.18000 2.420
44.20000 2.954
44.22000 4.706
44.24000 8.677
44.26000 2.031
44.28000 1.025
44.30000 0.687
44.32000 1.090
44.34000 3.193
44.36000 5.555
44.38000 3.389
44.40000 5.229
44.42000 2.217
44.44000 -0.259
44.46000 -2.482
44.48000 3.078
44.50000 8.490
44.52000 4.563
44.54000 7.810
44.56000 6.905
44.58000 2.570
44.60000 3.887
44.62000 2.496
44.64000 1.830
44.66000 -0.655
44.68000 -0.441
44.70000 8.854
44.72000 7.019
44.74000 2.522
44.76000 1.046
44.78000 6.151
44.80000 8.422
44.82000 13.833
44.84000 9.779
44.86000 4.572
44.88000 3.861
44.90000 4.195
44.92000 6.434
44.94000 6.167
44.96000 1.726
44.98000 8.485
45.00000 9.868
45.02000 5.532
45.04000 6.553
45.06000 10.220
45.08000 9.401
45.10000 15.456
45.12000 13.390
45.14000 9.263
45.16000 11.712
45.18000 15.234
45.20000 7.727
45.22000 15.013
45.24000 11.435
45.26000 10.889
45.28000 13.020
45.30000 13.336
45.32000 15.908
45.34000 14.471
45.36000 15.820
45.38000 19.800
45.40000 19.592
45.42000 19.565
45.44000 18.533
45.46000 18.598
45.48000 16.848
45.50000 19.029
45.52000 20.148
45.54000 15.971
45.56000 18.053
45.58000 22.315
45.60000 22.434
45.62000 23.600
45.64000 22.739
45.66000 22.521
45.68000 25.393
45.70000 26.038
45.72000 31.667
45.74000 33.198
45.76000 36.370
45.78000 36.484
45.80000 31.484
45.82000 35.525
45.84000 36.138
45.86000 38.283
45.88000 36.510
45.90000 32.737
45.92000 36.574
45.94000 36.869
45.96000 40.115
45.98000 43.401
46.00000 46.982
46.02000 47.810
46.04000 43.376
46.06000 48.629
46.08000 55.567
46.10000 55.826
46.12000 50.213
46.14000 55.491
46.16000 60.049
46.18000 55.361
46.20000 57.720
46.22000 63.866
46.24000 62.838
46.26000 67.078
46.28000 67.509
46.30000 66.164
46.32000 66.810
46.34000 69.247
46.36000 74.407
46.38000 72.616
46.40000 70.555
46.42000 74.231
46.44000 77.188
46.46000 70.299
46.48000 71.832
46.50000 75.641
46.52000 76.298
46.54000 77.485
46.56000 74.865
46.58000 80.661
46.60000 84.977
46.62000 80.985
46.64000 72.461
46.66000 86.468
46.68000 88.846
46.70000 86.585
46.72000 80.986
46.74000 86.883
46.76000 88.359
46.78000 82.085
46.80000 90.351
46.82000 88.880
46.84000 85.500
46.86000 89.286
46.88000 85.764
46.90000 82.214
46.92000 84.422
46.94000 79.965
46.96000 81.553
46.98000 87.554
47.00000 85.729
47.02000 89.270
47.04000 81.053
47.06000 75.661
47.08000 74.248
47.10000 73.196
47.12000 70.751
47.14000 67.859
47.16000 72.472
47.18000 69.093
47.20000 66.933
47.22000 64.752
47.24000 61.108
47.26000 54.017
47.28000 59.232
47.30000 57.575
47.32000 55.222
47.34000 50.347
47.36000 50.628
47.38000 53.891
47.40000 55.940
47.42000 49.175
47.44000 40.417
47.46000 38.200
47.48000 35.744
47.50000 38.191
47.52000 43.523
47.54000 41.901
47.56000 39.530
47.58000 29.390
47.60000 35.611
47.62000 41.495
47.64000 37.088
47.66000 32.680
47.68000 32.021
47.70000 30.286
47.72000 28.081
47.74000 23.791
47.76000 20.365
47.78000 19.661
47.80000 21.561
47.82000 22.382
47.84000 20.426
47.86000 19.409
47.88000 20.961
47.90000 23.541
47.92000 19.048
47.94000 14.078
47.96000 11.098
47.98000 13.301
48.00000 15.561
48.02000 14.163
48.04000 15.226
48.06000 12.725
48.08000 14.575
48.10000 14.105
48.12000 15.403
48.14000 12.567
48.16000 12.884
48.18000 11.399
48.20000 7.437
48.22000 8.527
48.24000 10.445
48.26000 8.466
48.28000 6.870
48.30000 4.239
48.32000 5.466
48.34000 3.598
48.36000 2.813
48.38000 -0.754
48.40000 6.119
48.42000 10.695
48.44000 8.121
48.46000 2.938
48.48000 6.143
48.50000 1.997
48.52000 8.240
48.54000 10.596
48.56000 0.476
48.58000 -3.180
48.60000 1.333
48.62000 3.945
48.64000 1.447
48.66000 1.312
48.68000 -0.160
48.70000 2.298
48.72000 -1.053
48.74000 0.004
48.76000 5.578
48.78000 1.224
48.80000 -0.483
48.82000 5.436
48.84000 5.563
48.86000 6.062
48.88000 2.226
48.90000 2.959
48.92000 2.341
48.94000 5.507
48.96000 6.776
48.98000 5.203
49.00000 1.119
49.02000 1.256
49.04000 2.996
49.06000 1.560
49.08000 3.965
49.10000 6.905
49.12000 3.967
49.14000 3.522
49.16000 8.467
49.18000 1.641
49.20000 1.148
49.22000 2.770
49.24000 0.324
49.26000 0.040
49.28000 3.676
49.30000 2.793
49.32000 -1.672
49.34000 -2.269
49.36000 -3.079
49.38000 3.059
49.40000 0.759
49.42000 2.217
49.44000 -0.946
49.46000 -1.256
49.48000 1.351
49.50000 1.145
49.52000 2.730
49.54000 4.844
49.56000 0.948
49.58000 0.733
49.60000 0.099
49.62000 4.908
49.64000 5.361
49.66000 3.137
49.68000 6.332
49.70000 6.635
49.72000 2.787
49.74000 6.905
49.76000 2.844
49.78000 -0.527
49.80000 0.513
49.82000 1.402
49.84000 -2.633
49.86000 -1.672
49.88000 1.363
49.90000 0.853
49.92000 0.202
49.94000 2.634
49.96000 -3.046
49.98000 -1.362
50.00000 -2.301
50.02000 4.248
50.04000 -0.268
50.06000 -2.274
50.08000 -0.193
50.10000 3.033
50.12000 2.201
50.14000 3.466
50.16000 -1.059
50.18000 -2.425
50.20000 1.467
50.22000 3.206
50.24000 1.390
50.26000 -1.579
50.28000 -0.634
50.30000 2.290
50.32000 3.199
50.34000 0.211
50.36000 1.309
50.38000 -0.331
50.40000 0.723
50.42000 1.607
50.44000 -1.425
50.46000 -1.044
50.48000 3.414
50.50000 0.113
50.52000 -1.076
50.54000 -1.121
50.56000 1.981
50.58000 2.135
50.60000 -1.633
50.62000 2.704
50.64000 1.709
50.66000 -0.402
50.68000 -2.413
50.70000 -0.057
50.72000 5.084
50.74000 4.814
50.76000 1.885
50.78000 0.064
50.80000 1.807
50.82000 -1.491
50.84000 1.907
50.86000 6.393
50.88000 5.274
50.90000 7.429
50.92000 4.375
50.94000 5.004
50.96000 8.459
50.98000 1.862
51.00000 2.022
51.02000 3.613
51.04000 -2.949
51.06000 -1.341
51.08000 0.569
51.10000 -0.242
51.12000 -0.658
51.14000 5.566
51.16000 7.341
51.18000 5.305
51.20000 -0.048
51.22000 1.263
51.24000 4.913
51.26000 3.316
51.28000 7.654
51.30000 6.284
51.32000 -0.092
51.34000 -2.293
51.36000 5.366
51.38000 6.656
51.40000 2.818
51.42000 2.739
51.44000 5.819
51.46000 6.777
51.48000 6.155
51.50000 4.039
51.52000 4.994
51.54000 6.667
51.56000 6.145
51.58000 2.846
51.60000 6.647
51.62000 8.325
51.64000 7.249
51.66000 9.596
51.68000 1.954
51.70000 -2.760
51.72000 -0.055
51.74000 6.197
51.76000 8.757
51.78000 5.476
51.80000 4.421
51.82000 3.616
51.84000 5.311
51.86000 5.840
51.88000 8.127
51.90000 3.118
51.92000 3.759
51.94000 4.641
51.96000 5.337
51.98000 5.111
52.00000 6.052
52.02000 8.078
52.04000 2.755
52.06000 -1.255
52.08000 -2.589
52.10000 -2.904
52.12000 2.547
52.14000 5.309
52.16000 8.069
52.18000 2.707
52.20000 1.815
52.22000 4.271
52.24000 2.736
52.26000 0.017
52.28000 2.026
52.30000 4.105
52.32000 5.152
52.34000 8.775
52.36000 8.835
52.38000 3.809
52.40000 2.818
52.42000 2.574
52.44000 3.283
52.46000 2.198
52.48000 5.987
52.50000 7.175
52.52000 7.878
52.54000 6.745
52.56000 4.650
52.58000 8.226
52.60000 4.965
52.62000 -2.884
52.64000 1.338
52.66000 4.282
52.68000 7.213
52.70000 5.400
52.72000 3.290
52.74000 4.311
52.76000 5.926
52.78000 4.468
52.80000 4.241
52.82000 -1.507
52.84000 -1.283
52.86000 -2.623
52.88000 2.199
52.90000 2.868
52.92000 6.262
52.94000 8.936
52.96000 8.573
52.98000 4.772
53.00000 2.210
53.02000 1.409
53.04000 7.448
53.06000 6.454
53.08000 1.270
53.10000 3.163
53.12000 4.762
53.14000 7.035
53.16000 10.253
53.18000 4.846
53.20000 1.641
53.22000 0.935
53.24000 4.270
53.26000 8.040
53.28000 2.299
53.30000 -0.867
53.32000 3.059
53.34000 4.596
53.36000 6.397
53.38000 1.703
53.40000 2.171
53.42000 2.112
53.44000 4.689
53.46000 4.336
53.48000 1.599
53.50000 2.857
53.52000 2.649
53.54000 5.009
53.56000 1.243
53.58000 2.384
53.60000 6.807
53.62000 10.125
53.64000 0.373
53.66000 1.760
53.68000 0.025
53.70000 0.624
53.72000 -0.732
53.74000 0.672
53.76000 -2.206
53.78000 3.084
53.80000 4.590
53.82000 0.035
53.84000 5.917
53.86000 4.673
53.88000 1.637
53.90000 -0.404
53.92000 5.407
53.94000 5.210
53.96000 5.035
53.98000 4.186
54.00000 -1.766
54.02000 0.910
54.04000 1.027
54.06000 0.199
54.08000 1.463
54.10000 3.123
54.12000 0.103
54.14000 2.496
54.16000 2.670
54.18000 3.128
54.20000 2.607
54.22000 4.306
54.24000 3.120
54.26000 0.484
54.28000 1.261
54.30000 3.123
54.32000 4.587
54.34000 3.905
54.36000 1.186
54.38000 5.943
54.40000 7.733
54.42000 2.208
54.44000 0.925
54.46000 -2.567
54.48000 -2.112
54.50000 -2.531
54.52000 -2.847
54.54000 0.165
54.56000 1.308
54.58000 2.371
54.60000 3.056
54.62000 2.542
54.64000 1.474
54.66000 -0.600
54.68000 2.019
54.70000 2.240
54.72000 4.045
54.74000 6.921
54.76000 2.605
54.78000 4.364
54.80000 4.936
54.82000 -0.162
54.84000 -0.960
54.86000 4.667
54.88000 6.486
54.90000 8.802
54.92000 4.113
54.94000 3.554
54.96000 -0.161
54.98000 0.910
55.00000 2.264
55.02000 4.439
55.04000 4.023
55.06000 3.471
55.08000 6.043
55.10000 6.414
55.12000 0.787
55.14000 -2.794
55.16000 1.342
55.18000 4.276
55.20000 8.051
55.22000 11.508
55.24000 10.882
55.26000 8.494
55.28000 2.874
55.30000 3.489
55.32000 8.730
55.34000 9.852
55.36000 7.897
55.38000 7.259
55.40000 7.911
55.42000 5.631
55.44000 6.552
55.46000 4.882
55.48000 10.150
55.50000 8.936
55.52000 3.644
55.54000 6.589
55.56000 5.977
55.58000 2.646
55.60000 5.724
55.62000 8.554
55.64000 2.572
55.66000 0.876
55.68000 7.113
55.70000 3.647
55.72000 5.673
55.74000 5.190
55.76000 5.244
55.78000 10.898
55.80000 2.348
55.82000 -0.153
55.84000 6.594
55.86000 7.379
55.88000 9.023
55.90000 2.541
55.92000 -0.218
55.94000 3.572
55.96000 7.307
55.98000 7.876
56.00000 5.093
56.02000 1.281
56.04000 0.817
56.06000 -2.758
56.08000 2.950
56.10000 6.911
56.12000 7.747
56.14000 4.909
56.16000 2.057
56.18000 2.693
56.20000 5.517
56.22000 10.944
56.24000 13.202
56.26000 6.709
56.28000 4.203
56.30000 9.109
56.32000 8.667
56.34000 5.300
56.36000 4.348
56.38000 6.500
56.40000 2.790
56.42000 6.023
56.44000 3.807
56.46000 4.226
56.48000 4.227
56.50000 4.651
56.52000 5.705
56.54000 5.171
56.56000 2.311
56.58000 1.639
56.60000 4.091
56.62000 6.487
56.64000 3.587
56.66000 1.276
56.68000 0.406
56.70000 6.995
56.72000 3.630
56.74000 2.889
56.76000 8.634
56.78000 3.654
56.80000 1.455
56.82000 4.649
56.84000 6.604
56.86000 3.705
56.88000 4.353
56.90000 2.536
56.92000 -2.721
56.94000 -1.435
56.96000 6.816
56.98000 4.114
57.00000 4.727
57.02000 0.862
57.04000 3.659
57.06000 3.528
57.08000 5.003
57.10000 10.323
57.12000 7.077
57.14000 1.650
57.16000 2.262
57.18000 2.854
57.20000 3.079
57.22000 -1.289
57.24000 5.273
57.26000 6.816
57.28000 1.788
57.30000 5.980
57.32000 3.024
57.34000 -2.498
57.36000 -2.452
57.38000 4.867
57.40000 4.699
57.42000 4.439
57.44000 3.723
57.46000 3.811
57.48000 2.296
57.50000 2.292
57.52000 1.839
57.54000 1.850
57.56000 4.145
57.58000 6.297
57.60000 5.349
57.62000 4.217
57.64000 3.031
57.66000 3.448
57.68000 3.231
57.70000 4.006
57.72000 4.648
57.74000 3.205
57.76000 4.345
57.78000 2.218
57.80000 0.689
57.82000 3.109
57.84000 6.800
57.86000 -0.323
57.88000 2.510
57.90000 6.263
57.92000 7.327
57.94000 2.431
57.96000 3.030
57.98000 -0.066
58.00000 0.047
58.02000 -0.599
58.04000 1.507
58.06000 4.525
58.08000 2.790
58.10000 -0.139
58.12000 -1.277
58.14000 -2.738
58.16000 0.227
58.18000 2.585
58.20000 3.542
58.22000 -0.507
58.24000 2.522
58.26000 4.336
58.28000 4.607
58.30000 4.383
58.32000 3.723
58.34000 -1.654
58.36000 -0.924
58.38000 -0.414
58.40000 -0.384
58.42000 4.898
58.44000 4.617
58.46000 -1.161
58.48000 -2.294
58.50000 -1.687
58.52000 -0.840
58.54000 0.437
58.56000 1.655
58.58000 2.104
58.60000 5.218
58.62000 3.310
58.64000 -1.491
58.66000 0.530
58.68000 1.582
58.70000 -1.954
58.72000 -0.324
58.74000 1.139
58.76000 1.101
58.78000 -0.496
58.80000 1.462
58.82000 3.321
58.84000 0.176
58.86000 3.496
58.88000 -0.205
58.90000 -1.187
58.92000 -0.321
58.94000 0.488
58.96000 5.563
58.98000 4.786
59.00000 2.098
59.02000 -2.718
59.04000 0.285
59.06000 2.102
59.08000 1.405
59.10000 3.155
59.12000 3.862
59.14000 3.419
59.16000 4.169
59.18000 2.718
59.20000 0.570
59.22000 0.531
59.24000 -0.875
59.26000 2.092
59.28000 4.872
59.30000 4.137
59.32000 1.814
59.34000 -2.306
59.36000 0.207
59.38000 4.540
59.40000 3.505
59.42000 -0.077
59.44000 2.726
59.46000 8.266
59.48000 2.959
59.50000 3.217
59.52000 4.239
59.54000 2.838
59.56000 -0.598
59.58000 0.486
59.60000 1.822
59.62000 3.000
59.64000 3.634
59.66000 1.830
59.68000 1.911
59.70000 1.751
59.72000 6.452
59.74000 9.434
59.76000 4.459
59.78000 -1.397
59.80000 0.965
59.82000 3.088
59.84000 6.921
59.86000 2.363
59.88000 -1.507
59.90000 -2.673
59.92000 -0.335
59.94000 1.644
59.96000 2.962
59.98000 4.105
60.00000 8.013
60.02000 4.332
60.04000 1.615
60.06000 -2.066
60.08000 4.474
60.10000 6.439
60.12000 6.557
60.14000 3.416
60.16000 2.980
60.18000 0.718
60.20000 -0.708
60.22000 1.085
60.24000 2.008
60.26000 3.364
60.28000 2.823
60.30000 5.449
60.32000 3.390
60.34000 6.118
60.36000 0.890
60.38000 1.319
60.40000 2.245
60.42000 2.111
60.44000 2.470
60.46000 1.401
60.48000 -0.928
60.50000 1.932
60.52000 3.210
60.54000 3.200
60.56000 6.913
60.58000 5.319
60.60000 2.695
60.62000 3.394
60.64000 3.132
60.66000 -0.321
60.68000 -2.632
60.70000 -0.628
60.72000 -1.215
60.74000 1.606
60.76000 5.696
60.78000 5.265
60.80000 4.368
60.82000 1.834
60.84000 1.279
60.86000 3.119
60.88000 4.192
60.90000 4.079
60.92000 2.346
60.94000 1.140
60.96000 0.830
60.98000 0.771
61.00000 0.892
61.02000 6.585
61.04000 11.422
61.06000 8.534
61.08000 4.729
61.10000 3.321
61.12000 7.143
61.14000 5.228
61.16000 0.377
61.18000 3.705
61.20000 3.388
61.22000 5.496
61.24000 0.379
61.26000 -0.294
61.28000 -2.621
61.30000 2.191
61.32000 4.602
61.34000 2.448
61.36000 1.708
61.38000 1.456
61.40000 4.005
61.42000 4.071
61.44000 5.132
61.46000 5.351
61.48000 3.505
61.50000 0.265
61.52000 -0.951
61.54000 4.461
61.56000 2.638
61.58000 3.719
61.60000 2.057
61.62000 3.192
61.64000 3.945
61.66000 6.772
61.68000 3.092
61.70000 1.487
61.72000 2.141
61.74000 4.384
61.76000 5.408
61.78000 1.464
61.80000 0.248
61.82000 -2.620
61.84000 1.885
61.86000 2.512
61.88000 0.578
61.90000 2.652
61.92000 2.416
61.94000 6.060
61.96000 5.151
61.98000 1.969
62.00000 6.288
62.02000 3.278
62.04000 0.335
62.06000 2.817
62.08000 2.079
62.10000 0.222
62.12000 0.102
62.14000 1.556
62.16000 2.534
62.18000 1.679
62.20000 0.355
62.22000 1.781
62.24000 -0.340
62.26000 -0.566
62.28000 1.179
62.30000 0.207
62.32000 1.041
62.34000 2.357
62.36000 0.983
62.38000 1.613
62.40000 -1.851
62.42000 1.887
62.44000 3.949
62.46000 2.959
62.48000 0.390
62.50000 2.568
62.52000 3.289
62.54000 2.420
62.56000 4.465
62.58000 3.415
62.60000 2.452
62.62000 5.700
62.64000 1.835
62.66000 2.903
62.68000 8.691
62.70000 6.891
62.72000 4.488
62.74000 1.146
62.76000 2.111
62.78000 3.697
62.80000 2.572
62.82000 -2.617
62.84000 0.432
62.86000 1.912
62.88000 -0.312
62.90000 -1.744
62.92000 4.265
62.94000 4.767
62.96000 3.067
62.98000 2.592
63.00000 -0.017
63.02000 -1.182
63.04000 -1.272
63.06000 2.915
63.08000 4.323
63.10000 2.063
63.12000 1.533
63.14000 0.216
63.16000 0.115
63.18000 2.478
63.20000 6.043
63.22000 5.113
63.24000 4.869
63.26000 4.833
63.28000 5.817
63.30000 0.174
63.32000 -0.211
63.34000 0.445
63.36000 5.414
63.38000 2.537
63.40000 -1.165
63.42000 4.004
63.44000 1.083
63.46000 -2.602
63.48000 1.824
63.50000 3.261
63.52000 2.002
63.54000 -0.612
63.56000 -0.916
63.58000 1.531
63.60000 2.357
63.62000 5.205
63.64000 4.772
63.66000 -0.540
63.68000 -1.301
63.70000 3.597
63.72000 0.205
63.74000 0.018
63.76000 1.512
63.78000 0.580
63.80000 0.021
63.82000 2.095
63.84000 6.817
63.86000 5.661
63.88000 3.259
63.90000 0.602
63.92000 3.461
63.94000 0.235
63.96000 1.098
63.98000 1.342
64.00000 -1.060
64.02000 -0.812
64.04000 2.159
64.06000 6.428
64.08000 4.058
64.10000 -0.057
64.12000 0.589
64.14000 3.931
64.16000 4.032
64.18000 -0.891
64.20000 -2.007
64.22000 -0.947
64.24000 -0.275
64.26000 -0.084
64.28000 -0.432
64.30000 1.885
64.32000 0.414
64.34000 2.566
64.36000 2.984
64.38000 1.337
64.40000 1.492
64.42000 -0.154
64.44000 0.282
64.46000 3.231
64.48000 0.376
64.50000 2.448
64.52000 2.053
64.54000 1.177
64.56000 0.126
64.58000 2.925
64.60000 -1.076
64.62000 -0.050
64.64000 3.396
64.66000 -0.466
64.68000 4.669
64.70000 4.743
64.72000 0.074
64.74000 2.605
64.76000 5.777
64.78000 2.827
64.80000 0.428
64.82000 1.530
64.84000 3.199
64.86000 4.632
64.88000 3.877
64.90000 1.806
64.92000 2.910
64.94000 3.778
64.96000 3.258
64.98000 6.191
65.00000 -1.475
65.02000 -2.628
65.04000 1.039
65.06000 0.775
65.08000 -1.148
65.10000 2.291
65.12000 1.450
65.14000 1.668
65.16000 -1.730
65.18000 -0.068
65.20000 1.606
65.22000 2.428
65.24000 2.433
65.26000 2.076
65.28000 4.126
65.30000 0.669
65.32000 -2.218
65.34000 -0.617
65.36000 0.469
65.38000 2.886
65.40000 4.112
65.42000 0.587
65.44000 2.495
65.46000 3.052
65.48000 -0.701
65.50000 2.115
65.52000 3.695
65.54000 0.821
65.56000 -0.532
65.58000 3.418
65.60000 5.815
65.62000 1.211
65.64000 4.987
65.66000 0.984
65.68000 -0.331
65.70000 4.350
65.72000 5.899
65.74000 1.571
65.76000 1.459
65.78000 0.711
65.80000 1.798
65.82000 5.641
65.84000 5.989
65.86000 5.470
65.88000 0.853
65.90000 -0.723
65.92000 1.424
65.94000 5.425
65.96000 1.913
65.98000 -2.101
66.00000 1.184
66.02000 5.399
66.04000 6.309
66.06000 2.654
66.08000 -2.657
66.10000 -0.186
66.12000 2.909
66.14000 2.705
66.16000 1.757
66.18000 0.178
66.20000 2.529
66.22000 7.892
66.24000 2.807
66.26000 0.754
66.28000 0.216
66.30000 2.636
66.32000 3.074
66.34000 0.480
66.36000 4.116
66.38000 2.453
66.40000 -1.238
66.42000 1.169
66.44000 2.395
66.46000 6.150
66.48000 4.519
66.50000 6.145
66.52000 6.348
66.54000 3.894
66.56000 8.778
66.58000 4.813
66.60000 2.060
66.62000 -0.318
66.64000 0.873
66.66000 3.070
66.68000 5.580
66.70000 3.803
66.72000 1.882
66.74000 3.092
66.76000 -0.118
66.78000 1.612
66.80000 2.269
66.82000 2.908
66.84000 5.565
66.86000 6.894
66.88000 7.365
66.90000 9.642
66.92000 7.520
66.94000 3.970
66.96000 2.361
66.98000 7.514
67.00000 7.222
67.02000 7.590
67.04000 11.236
67.06000 8.687
67.08000 4.510
67.10000 1.957
67.12000 5.290
67.14000 7.155
67.16000 5.973
67.18000 6.093
67.20000 9.572
67.22000 9.227
67.24000 7.488
67.26000 5.632
67.28000 3.552
67.30000 2.052
67.32000 2.970
67.34000 10.182
67.36000 8.656
67.38000 11.293
67.40000 9.542
67.42000 2.696
67.44000 4.850
67.46000 5.231
67.48000 11.800
67.50000 14.748
67.52000 10.092
67.54000 10.599
67.56000 9.152
67.58000 12.688
67.60000 13.405
67.62000 14.705
67.64000 14.087
67.66000 13.036
67.68000 12.495
67.70000 10.100
67.72000 13.109
67.74000 13.509
67.76000 15.485
67.78000 13.122
67.80000 15.155
67.82000 11.945
67.84000 16.064
67.86000 17.543
67.88000 19.415
67.90000 19.271
67.92000 18.240
67.94000 16.516
67.96000 19.245
67.98000 20.809
68.00000 20.994
68.02000 20.120
68.04000 23.679
68.06000 21.944
68.08000 22.173
68.10000 19.832
68.12000 21.443
68.14000 21.272
68.16000 21.370
68.18000 20.321
68.20000 20.586
68.22000 18.166
68.24000 19.911
68.26000 23.101
68.28000 22.369
68.30000 26.384
68.32000 21.210
68.34000 16.684
68.36000 19.666
68.38000 19.968
68.40000 22.828
68.42000 20.850
68.44000 21.587
68.46000 23.543
68.48000 20.476
68.50000 20.020
68.52000 16.333
68.54000 17.912
68.56000 20.941
68.58000 21.547
68.60000 20.613
68.62000 19.609
68.64000 13.460
68.66000 14.589
68.68000 16.180
68.70000 17.233
68.72000 16.136
68.74000 15.543
68.76000 15.579
68.78000 12.641
68.80000 18.044
68.82000 16.135
68.84000 13.572
68.86000 9.474
68.88000 10.194
68.90000 10.440
68.92000 12.826
68.94000 13.256
68.96000 14.305
68.98000 11.604
69.00000 13.196
69.02000 11.121
69.04000 11.143
69.06000 10.326
69.08000 8.118
69.10000 7.987
69.12000 10.181
69.14000 9.299
69.16000 5.068
69.18000 6.203
69.20000 3.649
69.22000 0.336
69.24000 3.101
69.26000 8.984
69.28000 5.107
69.30000 5.574
69.32000 8.945
69.34000 7.021
69.36000 1.430
69.38000 3.064
69.40000 3.145
69.42000 3.876
69.44000 1.027
69.46000 2.036
69.48000 0.378
69.50000 -1.346
69.52000 -1.629
69.54000 4.487
69.56000 3.885
69.58000 2.850
69.60000 5.839
69.62000 5.514
69.64000 2.634
69.66000 1.037
69.68000 -2.613
69.70000 -2.607
69.72000 2.553
69.74000 3.952
69.76000 5.583
69.78000 4.736
69.80000 3.392
69.82000 6.669
69.84000 6.919
69.86000 1.808
69.88000 1.500
69.90000 -1.735
69.92000 2.934
69.94000 4.811
69.96000 0.827
69.98000 3.413
70.00000 -1.291
70.02000 1.326
70.04000 2.145
70.06000 0.892
70.08000 0.795
70.10000 4.015
70.12000 3.280
70.14000 0.606
70.16000 1.743
70.18000 5.524
70.20000 0.938
70.22000 2.507
70.24000 1.778
70.26000 3.643
70.28000 3.531
70.30000 2.694
70.32000 -2.530
70.34000 -2.527
70.36000 2.370
70.38000 4.298
70.40000 1.732
70.42000 1.941
70.44000 -0.135
70.46000 -0.014
70.48000 3.184
70.50000 3.550
70.52000 2.205
70.54000 4.446
70.56000 2.759
70.58000 2.674
70.60000 2.361
70.62000 2.073
70.64000 3.122
70.66000 -0.458
70.68000 0.775
70.70000 0.283
70.72000 0.563
70.74000 3.912
70.76000 2.886
70.78000 6.637
70.80000 3.714
70.82000 2.421
70.84000 -0.524
70.86000 1.164
70.88000 1.871
70.90000 3.290
70.92000 4.143
70.94000 3.499
70.96000 3.034
70.98000 3.691
71.00000 4.144
71.02000 1.797
71.04000 3.848
71.06000 0.732
71.08000 -2.497
71.10000 -2.357
71.12000 0.697
71.14000 1.587
71.16000 2.968
71.18000 6.413
71.20000 7.439
71.22000 8.895
71.24000 3.795
71.26000 2.493
71.28000 5.937
71.30000 2.995
71.32000 6.109
71.34000 7.316
71.36000 6.144
71.38000 -0.442
71.40000 1.579
71.42000 8.635
71.44000 7.752
71.46000 2.930
71.48000 2.939
71.50000 2.957
71.52000 0.761
71.54000 0.060
71.56000 2.131
71.58000 3.580
71.60000 5.536
71.62000 3.164
71.64000 -0.201
71.66000 2.573
71.68000 5.402
71.70000 5.090
71.72000 3.654
71.74000 4.998
71.76000 5.648
71.78000 6.867
71.80000 4.567
71.82000 8.344
71.84000 6.998
71.86000 1.472
71.88000 -0.236
71.90000 -2.186
71.92000 3.694
71.94000 5.599
71.96000 5.123
71.98000 3.467
72.00000 4.370
72.02000 4.233
72.04000 3.769
72.06000 4.423
72.08000 1.232
72.10000 5.647
72.12000 0.665
72.14000 -2.401
72.16000 4.681
72.18000 8.628
72.20000 9.269
72.22000 8.695
72.24000 5.025
72.26000 4.765
72.28000 2.204
72.30000 3.794
72.32000 4.002
72.34000 9.088
72.36000 6.901
72.38000 4.846
72.40000 2.569
72.42000 7.411
72.44000 8.411
72.46000 7.090
72.48000 6.074
72.50000 5.536
72.52000 1.362
72.54000 6.468
72.56000 4.903
72.58000 2.813
72.60000 2.797
72.62000 7.868
72.64000 4.867
72.66000 6.822
72.68000 5.440
72.70000 8.055
72.72000 0.477
72.74000 1.274
72.76000 2.381
72.78000 3.946
72.80000 -0.889
72.82000 3.251
72.84000 11.126
72.86000 8.317
72.88000 7.341
72.90000 6.861
72.92000 1.416
72.94000 -2.387
72.96000 -1.308
72.98000 3.272
73.00000 7.775
73.02000 4.432
73.04000 3.143
73.06000 4.350
73.08000 3.499
73.10000 3.870
73.12000 1.148
73.14000 5.579
73.16000 11.932
73.18000 7.828
73.20000 6.144
73.22000 7.190
73.24000 8.476
73.26000 5.223
73.28000 3.944
73.30000 3.751
73.32000 4.664
73.34000 7.222
73.36000 4.179
73.38000 4.047
73.40000 2.419
73.42000 3.962
73.44000 0.398
73.46000 2.824
73.48000 -0.459
73.50000 -2.407
73.52000 1.212
73.54000 1.124
73.56000 4.516
73.58000 2.144
73.60000 1.092
73.62000 1.602
73.64000 1.690
73.66000 5.526
73.68000 1.985
73.70000 0.673
73.72000 1.779
73.74000 -2.361
73.76000 -1.715
73.78000 0.446
73.80000 4.202
73.82000 4.541
73.84000 4.382
73.86000 2.172
73.88000 0.740
73.90000 2.688
73.92000 2.496
73.94000 1.976
73.96000 5.564
73.98000 3.210
74.00000 5.096
74.02000 7.216
74.04000 6.879
74.06000 8.708
74.08000 1.512
74.10000 1.049
74.12000 5.376
74.14000 4.363
74.16000 2.837
74.18000 1.569
74.20000 0.406
74.22000 5.385
74.24000 6.381
74.26000 3.405
74.28000 2.182
74.30000 4.574
74.32000 -0.176
74.34000 -0.417
74.36000 1.192
74.38000 11.629
74.40000 10.612
74.42000 2.037
74.44000 0.212
74.46000 0.621
74.48000 3.701
74.50000 3.700
74.52000 2.956
74.54000 8.280
74.56000 7.207
74.58000 5.113
74.60000 3.235
74.62000 4.213
74.64000 5.618
74.66000 3.391
74.68000 0.254
74.70000 0.688
74.72000 1.343
74.74000 0.007
74.76000 2.171
74.78000 2.354
74.80000 3.124
74.82000 0.368
74.84000 -2.173
74.86000 -2.422
74.88000 -2.155
74.90000 1.930
74.92000 5.729
74.94000 8.288
74.96000 6.927
74.98000 2.186
75.00000 6.473
75.02000 5.166
75.04000 1.482
75.06000 -1.327
75.08000 5.447
75.10000 5.831
75.12000 0.805
75.14000 0.033
75.16000 2.146
75.18000 3.262
75.20000 5.008
75.22000 1.308
75.24000 7.925
75.26000 3.546
75.28000 1.844
75.30000 4.751
75.32000 -1.915
75.34000 1.817
75.36000 7.447
75.38000 8.482
75.40000 5.961
75.42000 4.320
75.44000 4.634
75.46000 3.142
75.48000 2.620
75.50000 2.795
75.52000 1.795
75.54000 1.360
75.56000 -2.389
75.58000 2.871
75.60000 8.331
75.62000 7.488
75.64000 4.158
75.66000 3.002
75.68000 3.415
75.70000 8.520
75.72000 11.005
75.74000 7.289
75.76000 6.844
75.78000 5.784
75.80000 4.635
75.82000 4.532
75.84000 4.685
75.86000 8.751
75.88000 6.336
75.90000 6.544
75.92000 5.163
75.94000 4.934
75.96000 2.427
75.98000 2.305
76.00000 2.892
76.02000 3.120
76.04000 2.430
76.06000 4.963
76.08000 4.218
76.10000 6.888
76.12000 8.640
76.14000 4.461
76.16000 3.597
76.18000 4.715
76.20000 2.165
76.22000 2.213
76.24000 -2.065
76.26000 -1.064
76.28000 4.703
76.30000 4.801
76.32000 4.545
76.34000 6.447
76.36000 10.164
76.38000 7.206
76.40000 5.896
76.42000 3.457
76.44000 3.339
76.46000 1.915
76.48000 3.401
76.50000 1.091
76.52000 2.006
76.54000 6.260
76.56000 9.222
76.58000 5.291
76.60000 3.415
76.62000 0.059
76.64000 2.388
76.66000 -2.380
76.68000 -0.157
76.70000 2.649
76.72000 3.545
76.74000 3.276
76.76000 3.037
76.78000 5.962
76.80000 5.923
76.82000 8.178
76.84000 12.817
76.86000 10.051
76.88000 8.762
76.90000 3.510
76.92000 0.969
76.94000 6.995
76.96000 5.350
76.98000 6.258
77.00000 4.597
77.02000 0.989
77.04000 4.069
77.06000 -0.499
77.08000 -1.402
77.10000 3.524
77.12000 4.564
77.14000 4.110
77.16000 1.924
77.18000 2.036
77.20000 -0.871
77.22000 1.769
77.24000 6.882
77.26000 7.999
77.28000 4.170
77.30000 3.033
77.32000 2.181
77.34000 2.584
77.36000 8.788
77.38000 5.001
77.40000 8.382
77.42000 8.168
77.44000 6.986
77.46000 6.276
77.48000 1.528
77.50000 2.466
77.52000 2.500
77.54000 5.055
77.56000 3.007
77.58000 3.249
77.60000 4.859
77.62000 3.036
77.64000 3.852
77.66000 8.950
77.68000 4.938
77.70000 5.552
77.72000 10.639
77.74000 10.803
77.76000 5.071
77.78000 1.982
77.80000 3.360
77.82000 -0.508
77.84000 0.830
77.86000 7.125
77.88000 4.257
77.90000 8.634
77.92000 5.813
77.94000 1.124
77.96000 1.867
77.98000 7.226
78.00000 4.964
78.02000 7.787
78.04000 9.436
78.06000 6.735
78.08000 0.616
78.10000 4.714
78.12000 2.841
78.14000 -2.430
78.16000 0.969
78.18000 6.387
78.20000 0.045
78.22000 1.261
78.24000 8.647
78.26000 8.072
78.28000 7.988
78.30000 8.438
78.32000 5.196
78.34000 5.721
78.36000 4.499
78.38000 2.266
78.40000 -2.429
78.42000 5.046
78.44000 8.532
78.46000 7.856
78.48000 4.388
78.50000 5.461
78.52000 7.606
78.54000 8.511
78.56000 9.059
78.58000 3.735
78.60000 9.316
78.62000 11.648
78.64000 10.609
78.66000 10.185
78.68000 6.953
78.70000 6.625
78.72000 3.263
78.74000 0.551
78.76000 2.584
78.78000 2.852
78.80000 1.375
78.82000 2.429
78.84000 2.167
78.86000 3.581
78.88000 2.324
78.90000 4.352
78.92000 7.897
78.94000 0.470
78.96000 -0.085
78.98000 3.396
79.00000 6.807
79.02000 4.841
79.04000 1.302
79.06000 7.098
79.08000 8.510
79.10000 8.729
79.12000 3.040
79.14000 2.343
79.16000 5.153
79.18000 1.781
79.20000 0.523
79.22000 1.442
79.24000 1.315
79.26000 5.973
79.28000 4.317
79.30000 -1.801
79.32000 -2.487
79.34000 1.415
79.36000 5.800
79.38000 5.031
79.40000 4.461
79.42000 6.322
79.44000 4.064
79.46000 1.856
79.48000 3.476
79.50000 7.599
79.52000 10.054
79.54000 6.221
79.56000 3.894
79.58000 2.418
79.60000 4.318
79.62000 1.220
79.64000 2.738
79.66000 3.385
79.68000 2.628
79.70000 5.045
79.72000 5.599
79.74000 3.362
79.76000 6.649
79.78000 8.514
79.80000 3.720
79.82000 3.823
79.84000 3.175
79.86000 4.412
79.88000 3.649
79.90000 5.565
79.92000 -0.605
79.94000 -2.383
79.96000 -0.464
79.98000 3.847
80.00000 10.663
80.02000 13.286
80.04000 12.443
80.06000 12.579
80.08000 12.595
80.10000 9.121
80.12000 5.092
80.14000 7.576
80.16000 6.030
80.18000 5.150
80.20000 10.674
80.22000 8.027
80.24000 3.727
80.26000 -2.538
80.28000 6.281
80.30000 9.225
80.32000 1.768
80.34000 -0.786
80.36000 0.712
80.38000 -0.343
80.40000 3.066
80.42000 6.054
80.44000 10.797
80.46000 6.842
80.48000 7.963
80.50000 11.588
80.52000 3.897
80.54000 8.138
80.56000 3.705
80.58000 5.482
80.60000 11.871
80.62000 9.090
80.64000 7.428
80.66000 9.488
80.68000 9.085
80.70000 7.144
80.72000 10.507
80.74000 6.941
80.76000 2.563
80.78000 1.211
80.80000 3.926
80.82000 6.786
80.84000 4.949
80.86000 10.473
80.88000 7.536
80.90000 1.474
80.92000 6.052
80.94000 14.078
80.96000 13.263
80.98000 11.269
81.00000 8.380
81.02000 6.825
81.04000 4.375
81.06000 13.116
81.08000 13.239
81.10000 14.672
81.12000 11.303
81.14000 5.374
81.16000 12.067
81.18000 14.761
81.20000 8.908
81.22000 10.354
81.24000 8.278
81.26000 4.510
81.28000 12.448
81.30000 18.178
81.32000 13.809
81.34000 13.231
81.36000 15.095
81.38000 10.695
81.40000 10.072
81.42000 14.208
81.44000 20.800
81.46000 21.520
81.48000 21.427
81.50000 23.761
81.52000 28.335
81.54000 26.769
81.56000 18.219
81.58000 12.658
81.60000 14.018
81.62000 16.930
81.64000 12.603
81.66000 20.444
81.68000 23.528
81.70000 20.067
81.72000 21.314
81.74000 19.583
81.76000 13.392
81.78000 14.915
81.80000 9.757
81.82000 14.008
81.84000 14.740
81.86000 22.330
81.88000 20.598
81.90000 24.839
81.92000 27.790
81.94000 24.706
81.96000 22.976
81.98000 21.276
82.00000 20.002
82.02000 19.397
82.04000 23.562
82.06000 26.845
82.08000 26.077
82.10000 24.665
82.12000 21.306
82.14000 26.220
82.16000 23.384
82.18000 25.031
82.20000 26.336
82.22000 18.752
82.24000 23.180
82.26000 27.107
82.28000 28.911
82.30000 25.087
82.32000 26.589
82.34000 26.843
82.36000 25.068
82.38000 33.055
82.40000 27.321
82.42000 25.247
82.44000 28.251
82.46000 27.994
82.48000 27.836
82.50000 25.659
82.52000 27.884
82.54000 26.756
82.56000 24.025
82.58000 26.986
82.60000 25.253
82.62000 26.699
82.64000 25.570
82.66000 22.360
82.68000 17.920
82.70000 17.660
82.72000 24.592
82.74000 21.544
82.76000 19.147
82.78000 22.955
82.80000 22.161
82.82000 19.262
82.84000 19.661
82.86000 18.512
82.88000 15.708
82.90000 14.916
82.92000 18.024
82.94000 20.506
82.96000 22.176
82.98000 19.101
83.00000 14.103
83.02000 18.136
83.04000 17.961
83.06000 13.572
83.08000 18.658
83.10000 17.638
83.12000 11.585
83.14000 11.533
83.16000 8.824
83.18000 16.046
83.20000 19.139
83.22000 12.794
83.24000 11.107
83.26000 7.790
83.28000 10.647
83.30000 13.008
83.32000 11.929
83.34000 10.451
83.36000 12.114
83.38000 10.952
83.40000 6.590
83.42000 4.173
83.44000 11.046
83.46000 13.249
83.48000 10.200
83.50000 5.742
83.52000 5.738
83.54000 7.640
83.56000 7.926
83.58000 11.314
83.60000 9.287
83.62000 4.475
83.64000 6.203
83.66000 4.934
83.68000 2.672
83.70000 8.898
83.72000 6.956
83.74000 5.653
83.76000 4.880
83.78000 2.206
83.80000 6.674
83.82000 5.759
83.84000 2.499
83.86000 4.118
83.88000 9.825
83.90000 4.543
83.92000 2.190
83.94000 -2.615
83.96000 3.532
83.98000 6.245
84.00000 4.914
84.02000 7.372
84.04000 -1.531
84.06000 1.482
84.08000 0.517
84.10000 0.173
84.12000 2.313
84.14000 6.174
84.16000 5.205
84.18000 8.212
84.20000 7.222
84.22000 4.968
84.24000 5.443
84.26000 3.053
84.28000 2.503
84.30000 -1.336
84.32000 4.126
84.34000 4.851
84.36000 7.813
84.38000 4.653
84.40000 7.220
84.42000 5.509
84.44000 7.633
84.46000 3.240
84.48000 2.260
84.50000 -2.372
84.52000 -2.583
84.54000 2.415
84.56000 0.542
84.58000 2.853
84.60000 4.460
84.62000 3.023
84.64000 -1.504
84.66000 -1.147
84.68000 2.719
84.70000 -0.718
84.72000 1.764
84.74000 3.182
84.76000 1.877
84.78000 -1.165
84.80000 3.590
84.82000 1.510
84.84000 0.085
84.86000 -2.570
84.88000 3.403
84.90000 5.785
84.92000 4.898
84.94000 0.460
84.96000 2.200
84.98000 2.950
85.00000 7.544
85.02000 2.118
85.04000 1.403
85.06000 4.049
85.08000 5.441
85.10000 8.585
85.12000 1.804
85.14000 -0.257
85.16000 2.385
85.18000 1.773
85.20000 4.684
85.22000 7.559
85.24000 8.107
85.26000 1.786
85.28000 2.169
85.30000 6.794
85.32000 8.884
85.34000 8.384
85.36000 7.414
85.38000 6.923
85.40000 7.998
85.42000 7.026
85.44000 1.988
85.46000 5.103
85.48000 8.672
85.50000 11.035
85.52000 12.746
85.54000 2.696
85.56000 -2.565
85.58000 0.449
85.60000 5.618
85.62000 7.270
85.64000 6.819
85.66000 11.480
85.68000 12.521
85.70000 9.633
85.72000 6.677
85.74000 6.825
85.76000 11.811
85.78000 9.624
85.80000 10.959
85.82000 12.336
85.84000 11.275
85.86000 13.975
85.88000 13.809
85.90000 14.365
85.92000 13.859
85.94000 10.721
85.96000 10.349
85.98000 7.478
86.00000 9.555
86.02000 9.183
86.04000 16.302
86.06000 15.247
86.08000 17.560
86.10000 16.744
86.12000 24.324
86.14000 24.955
86.16000 19.896
86.18000 18.578
86.20000 26.684
86.22000 29.401
86.24000 21.438
86.26000 21.362
86.28000 21.045
86.30000 26.941
86.32000 26.516
86.34000 23.698
86.36000 21.244
86.38000 24.214
86.40000 23.346
86.42000 28.302
86.44000 28.135
86.46000 30.271
86.48000 26.383
86.50000 26.883
86.52000 30.294
86.54000 30.256
86.56000 27.595
86.58000 28.314
86.60000 32.126
86.62000 32.554
86.64000 33.648
86.66000 30.311
86.68000 29.811
86.70000 29.330
86.72000 27.968
86.74000 27.587
86.76000 25.554
86.78000 25.575
86.80000 25.184
86.82000 28.968
86.84000 25.257
86.86000 26.597
86.88000 25.328
86.90000 22.713
86.92000 27.722
86.94000 30.080
86.96000 27.854
86.98000 24.501
87.00000 28.587
87.02000 25.874
87.04000 23.855
87.06000 24.194
87.08000 29.322
87.10000 32.424
87.12000 22.684
87.14000 18.732
87.16000 25.283
87.18000 19.155
87.20000 20.542
87.22000 23.049
87.24000 23.335
87.26000 21.977
87.28000 23.390
87.30000 20.178
87.32000 21.722
87.34000 21.610
87.36000 21.014
87.38000 20.313
87.40000 21.947
87.42000 14.553
87.44000 9.503
87.46000 9.843
87.48000 9.872
87.50000 13.263
87.52000 14.830
87.54000 10.293
87.56000 10.303
87.58000 12.528
87.60000 9.132
87.62000 11.552
87.64000 13.504
87.66000 8.480
87.68000 12.358
87.70000 4.197
87.72000 5.255
87.74000 9.611
87.76000 12.498
87.78000 8.371
87.80000 7.807
87.82000 5.067
87.84000 7.858
87.86000 9.748
87.88000 7.383
87.90000 2.622
87.92000 4.431
87.94000 6.043
87.96000 5.668
87.98000 1.326
88.00000 3.168
88.02000 3.439
88.04000 8.453
88.06000 5.048
88.08000 8.236
88.10000 3.276
88.12000 -0.956
88.14000 0.155
88.16000 4.600
88.18000 0.901
88.20000 3.062
88.22000 5.570
88.24000 9.474
88.26000 8.628
88.28000 5.151
88.30000 3.115
88.32000 4.255
88.34000 3.815
88.36000 3.334
88.38000 4.829
88.40000 4.393
88.42000 2.316
88.44000 5.349
88.46000 2.306
88.48000 2.791
88.50000 7.983
88.52000 6.549
88.54000 4.630
88.56000 0.998
88.58000 -1.292
88.60000 -0.983
88.62000 -0.301
88.64000 3.270
88.66000 4.621
88.68000 3.819
88.70000 3.862
88.72000 0.070
88.74000 1.235
88.76000 2.869
88.78000 1.720
88.80000 -0.798
88.82000 2.037
88.84000 2.697
88.86000 8.390
88.88000 2.891
88.90000 6.570
88.92000 6.463
88.94000 3.392
88.96000 -2.322
88.98000 5.459
89.00000 10.008
89.02000 7.139
89.04000 5.223
89.06000 6.753
89.08000 8.124
89.10000 0.384
89.12000 4.266
89.14000 6.699
89.16000 7.783
89.18000 5.479
89.20000 3.051
89.22000 3.003
89.24000 3.177
89.26000 1.817
89.28000 3.594
89.30000 4.528
89.32000 3.014
89.34000 1.540
89.36000 0.928
89.38000 0.272
89.40000 1.537
89.42000 -0.524
89.44000 -0.527
89.46000 2.850
89.48000 0.457
89.50000 -1.168
89.52000 2.988
89.54000 3.333
89.56000 1.668
89.58000 2.260
89.60000 -1.819
89.62000 -1.815
89.64000 0.388
89.66000 3.023
89.68000 2.993
89.70000 0.842
89.72000 3.409
89.74000 0.874
89.76000 3.394
89.78000 -0.946
89.80000 1.417
89.82000 3.186
89.84000 2.208
89.86000 2.647
89.88000 -0.284
89.90000 2.362
89.92000 -0.038
89.94000 -2.143
89.96000 -2.318
89.98000 1.410
90.00000 3.882
90.02000 2.617
90.04000 1.382
90.06000 0.846
90.08000 -1.324
90.10000 0.357
90.12000 3.182
90.14000 5.630
90.16000 3.205
90.18000 4.423
90.20000 1.399
90.22000 5.629
90.24000 2.927
90.26000 2.015
90.28000 2.763
90.30000 1.060
90.32000 1.738
90.34000 4.105
90.36000 4.424
90.38000 2.793
90.40000 0.950
90.42000 -2.315
90.44000 -1.994
90.46000 1.432
90.48000 1.175
90.50000 3.054
90.52000 -1.481
90.54000 -1.294
90.56000 -1.389
90.58000 2.715
90.60000 4.999
90.62000 5.250
90.64000 1.446
90.66000 -1.927
90.68000 1.266
90.70000 3.571
90.72000 -0.832
90.74000 0.150
90.76000 0.981
90.78000 1.763
90.80000 4.162
90.82000 4.109
90.84000 0.327
90.86000 3.668
90.88000 4.016
90.90000 3.220
90.92000 6.377
90.94000 1.588
90.96000 1.069
90.98000 -0.595
91.00000 4.960
91.02000 4.340
91.04000 5.900
91.06000 7.094
91.08000 7.011
91.10000 3.563
91.12000 4.048
91.14000 3.481
91.16000 2.385
91.18000 -0.604
91.20000 -2.284
91.22000 0.589
91.24000 3.930
91.26000 4.991
91.28000 5.334
91.30000 7.143
91.32000 5.757
91.34000 5.868
91.36000 4.838
91.38000 2.239
91.40000 5.006
91.42000 5.915
91.44000 4.548
91.46000 1.964
91.48000 1.863
91.50000 6.257
91.52000 7.745
91.54000 3.643
91.56000 -0.856
91.58000 4.055
91.60000 -1.028
91.62000 4.583
91.64000 3.876
91.66000 8.304
91.68000 6.235
91.70000 1.943
91.72000 4.138
91.74000 -0.020
91.76000 0.164
91.78000 4.284
91.80000 6.496
91.82000 3.195
91.84000 6.345
91.86000 2.044
91.88000 1.417
91.90000 2.829
91.92000 0.851
91.94000 4.033
91.96000 7.707
91.98000 5.698
92.00000 5.884
92.02000 4.649
92.04000 10.378
92.06000 7.288
92.08000 1.868
92.10000 0.432
92.12000 -2.318
92.14000 0.519
92.16000 1.067
92.18000 1.032
92.20000 2.062
92.22000 5.018
92.24000 3.106
92.26000 2.642
92.28000 -0.137
92.30000 -0.845
92.32000 3.829
92.34000 4.336
92.36000 7.144
92.38000 3.365
92.40000 -0.846
92.42000 3.172
92.44000 0.587
92.46000 -1.639
92.48000 2.303
92.50000 7.561
92.52000 -0.230
92.54000 -1.517
92.56000 2.140
92.58000 8.818
92.60000 5.500
92.62000 2.695
92.64000 4.983
92.66000 1.203
92.68000 2.170
92.70000 0.692
92.72000 4.356
92.74000 6.259
92.76000 5.335
92.78000 1.124
92.80000 2.744
92.82000 7.279
92.84000 2.776
92.86000 3.509
92.88000 2.460
92.90000 0.956
92.92000 2.257
92.94000 1.048
92.96000 -2.297
92.98000 -0.047
93.00000 3.162
93.02000 3.003
93.04000 3.651
93.06000 3.651
93.08000 1.032
93.10000 3.073
93.12000 1.646
93.14000 4.252
93.16000 0.997
93.18000 0.648
93.20000 -0.123
93.22000 1.301
93.24000 13.546
93.26000 6.919
93.28000 -0.361
93.30000 -2.285
93.32000 -0.865
93.34000 5.524
93.36000 5.658
93.38000 4.976
93.40000 4.050
93.42000 6.156
93.44000 2.638
93.46000 4.984
93.48000 9.009
93.50000 6.014
93.52000 6.704
93.54000 -0.272
93.56000 0.939
93.58000 0.605
93.60000 -0.078
93.62000 2.848
93.64000 8.507
93.66000 4.528
93.68000 2.111
93.70000 6.137
93.72000 3.849
93.74000 -0.759
93.76000 0.225
93.78000 8.425
93.80000 4.573
93.82000 2.774
93.84000 5.480
93.86000 2.424
93.88000 3.429
93.90000 4.345
93.92000 2.305
93.94000 8.744
93.96000 -0.473
93.98000 0.726
94.00000 -1.553
94.02000 5.440
94.04000 8.729
94.06000 4.695
94.08000 2.801
94.10000 0.253
94.12000 3.556
94.14000 2.838
94.16000 2.334
94.18000 6.560
94.20000 3.656
94.22000 -0.471
94.24000 -2.302
94.26000 3.468
94.28000 7.124
94.30000 7.123
94.32000 9.096
94.34000 5.854
94.36000 5.714
94.38000 4.361
94.40000 1.539
94.42000 3.318
94.44000 0.677
94.46000 1.950
94.48000 2.394
94.50000 1.009
94.52000 0.632
94.54000 0.782
94.56000 7.503
94.58000 5.956
94.60000 3.287
94.62000 0.123
94.64000 3.820
94.66000 9.157
94.68000 6.771
94.70000 4.872
94.72000 4.278
94.74000 3.499
94.76000 3.057
94.78000 4.984
94.80000 9.465
94.82000 8.053
94.84000 -0.475
94.86000 0.270
94.88000 3.493
94.90000 6.923
94.92000 3.786
94.94000 3.992
94.96000 4.686
94.98000 5.843
95.00000 0.370
95.02000 0.122
95.04000 -2.314
95.06000 2.668
95.08000 8.613
95.10000 4.362
95.12000 7.579
95.14000 6.210
95.16000 2.897
95.18000 1.902
95.20000 3.904
95.22000 5.980
95.24000 2.159
95.26000 1.806
95.28000 6.229
95.30000 8.666
95.32000 9.554
95.34000 8.266
95.36000 3.322
95.38000 3.710
95.40000 7.559
95.42000 4.488
95.44000 6.135
95.46000 6.153
95.48000 4.627
95.50000 -0.714
95.52000 -0.179
95.54000 8.513
95.56000 9.497
95.58000 7.875
95.60000 12.484
95.62000 4.744
95.64000 4.845
95.66000 6.116
95.68000 6.649
95.70000 10.087
95.72000 9.912
95.74000 8.690
95.76000 13.361
95.78000 8.174
95.80000 3.536
95.82000 1.883
95.84000 1.933
95.86000 5.560
95.88000 9.686
95.90000 7.596
95.92000 4.115
95.94000 1.351
95.96000 5.138
95.98000 2.904
96.00000 8.939
96.02000 13.396
96.04000 8.987
96.06000 5.491
96.08000 5.613
96.10000 7.953
96.12000 7.305
96.14000 3.088
96.16000 9.887
96.18000 7.366
96.20000 8.153
96.22000 4.292
96.24000 4.075
96.26000 8.935
96.28000 8.239
96.30000 6.200
96.32000 2.657
96.34000 6.598
96.36000 1.185
96.38000 -2.257
96.40000 3.393
96.42000 3.497
96.44000 5.196
96.46000 9.118
96.48000 6.284
96.50000 9.219
96.52000 7.909
96.54000 10.152
96.56000 9.804
96.58000 8.782
96.60000 5.427
96.62000 -0.063
96.64000 2.823
96.66000 7.956
96.68000 5.061
96.70000 5.478
96.72000 8.461
96.74000 9.826
96.76000 10.643
96.78000 2.089
96.80000 1.933
96.82000 4.461
96.84000 2.098
96.86000 7.265
96.88000 4.982
96.90000 3.010
96.92000 3.356
96.94000 2.720
96.96000 1.896
96.98000 7.954
97.00000 2.695
97.02000 1.356
97.04000 10.129
97.06000 12.137
97.08000 3.689
97.10000 3.278
97.12000 8.769
97.14000 12.093
97.16000 10.072
97.18000 11.746
97.20000 9.443
97.22000 6.333
97.24000 10.246
97.26000 6.527
97.28000 5.304
97.30000 0.890
97.32000 6.029
97.34000 4.026
97.36000 7.676
97.38000 10.539
97.40000 11.275
97.42000 10.478
97.44000 2.748
97.46000 0.662
97.48000 -0.026
97.50000 2.390
97.52000 4.476
97.54000 2.163
97.56000 3.595
97.58000 7.758
97.60000 13.501
97.62000 9.016
97.64000 0.902
97.66000 0.221
97.68000 -0.106
97.70000 8.132
97.72000 6.735
97.74000 7.919
97.76000 4.438
97.78000 6.668
97.80000 4.147
97.82000 4.490
97.84000 9.634
97.86000 8.964
97.88000 11.588
97.90000 9.425
97.92000 4.425
97.94000 2.214
97.96000 9.344
97.98000 16.280
98.00000 17.620
98.02000 8.020
98.04000 8.587
98.06000 7.697
98.08000 4.921
98.10000 5.758
98.12000 0.622
98.14000 0.689
98.16000 9.155
98.18000 2.387
98.20000 0.891
98.22000 6.145
98.24000 6.622
98.26000 3.986
98.28000 -2.495
98.30000 7.319
98.32000 9.901
98.34000 12.943
98.36000 13.407
98.38000 4.134
98.40000 3.980
98.42000 0.550
98.44000 0.905
98.46000 6.770
98.48000 1.389
98.50000 4.624
98.52000 4.435
98.54000 2.688
98.56000 4.516
98.58000 6.089
98.60000 10.656
98.62000 10.091
98.64000 10.500
98.66000 7.125
98.68000 8.758
98.70000 4.753
98.72000 2.716
98.74000 4.914
98.76000 8.673
98.78000 3.251
98.80000 0.428
98.82000 5.948
98.84000 9.664
98.86000 11.444
98.88000 8.185
98.90000 1.391
98.92000 5.783
98.94000 9.997
98.96000 2.243
98.98000 8.327
99.00000 -1.890
99.02000 5.597
99.04000 11.049
99.06000 13.224
99.08000 12.102
99.10000 4.912
99.12000 1.295
99.14000 15.173
99.16000 10.283
99.18000 2.683
99.20000 3.274
99.22000 4.710
99.24000 -0.664
99.26000 -2.171
99.28000 0.991
99.30000 -2.236
99.32000 7.321
99.34000 12.737
99.36000 15.127
99.38000 5.208
99.40000 12.652
99.42000 11.306
99.44000 9.852
99.46000 10.386
99.48000 8.340
99.50000 4.432
99.52000 8.999
99.54000 11.282
99.56000 10.295
99.58000 10.461
99.60000 12.918
99.62000 13.170
99.64000 11.423
99.66000 9.083
99.68000 3.415
99.70000 2.757
99.72000 -2.216
99.74000 6.771
99.76000 9.680
99.78000 8.876
99.80000 21.579
99.82000 23.949
99.84000 5.925
99.86000 12.781
99.88000 17.985
99.90000 19.429
99.92000 10.185
99.94000 6.517
99.96000 12.764
99.98000 0.000
