'Id: "0011389" Comment: "Integrate frame 0011389_Au-Ir-Rh_Au-Rich_XRD_Mapping-036-0000.gfrmwith cursor Wedge Cursor #5" Operator: "B?rgel" Anode: "Cu" Wavelength: "1.5406" Scantype: "2Theta (TwoTheta)" TimePerStep: "1" X: "22.5" Y: "-31.5" Z: "5.95" 
10.00000 0.000
10.02000 9.269
10.04000 12.593
10.06000 -2.815
10.08000 -3.866
10.10000 -0.799
10.12000 12.282
10.14000 15.000
10.16000 13.632
10.18000 22.542
10.20000 9.002
10.22000 3.201
10.24000 4.486
10.26000 14.482
10.28000 16.540
10.30000 21.111
10.32000 -3.558
10.34000 3.156
10.36000 -1.070
10.38000 -2.501
10.40000 3.111
10.42000 10.305
10.44000 12.598
10.46000 25.134
10.48000 27.697
10.50000 19.938
10.52000 1.488
10.54000 15.780
10.56000 9.435
10.58000 2.252
10.60000 15.489
10.62000 18.949
10.64000 18.398
10.66000 7.770
10.68000 11.686
10.70000 11.904
10.72000 3.906
10.74000 21.382
10.76000 7.265
10.78000 9.526
10.80000 21.685
10.82000 22.776
10.84000 5.707
10.86000 -4.016
10.88000 -1.157
10.90000 19.032
10.92000 26.921
10.94000 20.683
10.96000 14.126
10.98000 14.806
11.00000 15.476
11.02000 18.744
11.04000 12.587
11.06000 6.941
11.08000 21.546
11.10000 24.584
11.12000 21.610
11.14000 21.021
11.16000 20.316
11.18000 19.319
11.20000 24.360
11.22000 17.946
11.24000 11.802
11.26000 3.145
11.28000 0.038
11.30000 5.480
11.32000 7.003
11.34000 -0.227
11.36000 16.934
11.38000 17.242
11.40000 11.797
11.42000 8.829
11.44000 1.826
11.46000 6.307
11.48000 11.152
11.50000 16.276
11.52000 17.622
11.54000 16.858
11.56000 22.312
11.58000 23.841
11.60000 19.838
11.62000 20.109
11.64000 14.153
11.66000 6.307
11.68000 -2.339
11.70000 5.309
11.72000 22.533
11.74000 27.290
11.76000 17.145
11.78000 15.278
11.80000 26.130
11.82000 30.145
11.84000 20.728
11.86000 17.058
11.88000 16.381
11.90000 18.510
11.92000 16.662
11.94000 23.784
11.96000 26.831
11.98000 31.810
12.00000 25.222
12.02000 20.931
12.04000 31.714
12.06000 26.748
12.08000 19.183
12.10000 20.494
12.12000 25.913
12.14000 25.147
12.16000 29.110
12.18000 16.604
12.20000 11.874
12.22000 15.162
12.24000 1.986
12.26000 6.538
12.28000 13.564
12.30000 24.048
12.32000 14.198
12.34000 6.199
12.36000 9.972
12.38000 4.465
12.40000 10.815
12.42000 14.702
12.44000 14.490
12.46000 14.711
12.48000 23.039
12.50000 18.237
12.52000 14.132
12.54000 13.223
12.56000 16.839
12.58000 20.699
12.60000 13.565
12.62000 11.611
12.64000 20.996
12.66000 29.239
12.68000 23.510
12.70000 20.676
12.72000 22.583
12.74000 22.368
12.76000 12.336
12.78000 19.395
12.80000 22.932
12.82000 23.774
12.84000 21.581
12.86000 23.910
12.88000 20.532
12.90000 14.993
12.92000 27.657
12.94000 22.238
12.96000 20.113
12.98000 18.113
13.00000 25.827
13.02000 23.683
13.04000 24.928
13.06000 24.859
13.08000 7.204
13.10000 8.660
13.12000 10.715
13.14000 18.996
13.16000 17.263
13.18000 17.101
13.20000 16.911
13.22000 11.549
13.24000 21.502
13.26000 17.723
13.28000 21.646
13.30000 28.952
13.32000 21.863
13.34000 19.991
13.36000 23.826
13.38000 18.780
13.40000 20.976
13.42000 17.180
13.44000 12.068
13.46000 22.534
13.48000 23.646
13.50000 22.395
13.52000 11.939
13.54000 28.074
13.56000 20.013
13.58000 14.009
13.60000 12.036
13.62000 3.792
13.64000 11.595
13.66000 14.913
13.68000 11.350
13.70000 7.514
13.72000 19.345
13.74000 23.700
13.76000 21.399
13.78000 14.994
13.80000 16.080
13.82000 19.483
13.84000 17.007
13.86000 15.058
13.88000 17.538
13.90000 20.908
13.92000 20.869
13.94000 15.922
13.96000 16.116
13.98000 10.070
14.00000 12.251
14.02000 20.415
14.04000 14.974
14.06000 5.430
14.08000 16.563
14.10000 24.863
14.12000 16.555
14.14000 7.902
14.16000 11.443
14.18000 15.214
14.20000 15.977
14.22000 20.684
14.24000 20.247
14.26000 16.345
14.28000 14.827
14.30000 11.886
14.32000 12.937
14.34000 11.412
14.36000 16.595
14.38000 10.191
14.40000 13.099
14.42000 21.155
14.44000 23.685
14.46000 23.985
14.48000 12.774
14.50000 8.923
14.52000 10.870
14.54000 16.934
14.56000 12.231
14.58000 14.687
14.60000 25.011
14.62000 7.463
14.64000 5.973
14.66000 15.350
14.68000 23.427
14.70000 24.118
14.72000 13.960
14.74000 10.015
14.76000 12.925
14.78000 9.501
14.80000 6.461
14.82000 15.136
14.84000 17.510
14.86000 14.611
14.88000 14.316
14.90000 15.200
14.92000 17.903
14.94000 13.258
14.96000 13.943
14.98000 12.348
15.00000 11.124
15.02000 12.341
15.04000 13.044
15.06000 13.644
15.08000 8.108
15.10000 15.965
15.12000 16.912
15.14000 6.170
15.16000 7.288
15.18000 17.408
15.20000 19.262
15.22000 10.647
15.24000 6.237
15.26000 0.924
15.28000 5.816
15.30000 6.346
15.32000 11.071
15.34000 8.030
15.36000 11.978
15.38000 14.357
15.40000 13.946
15.42000 15.696
15.44000 23.780
15.46000 18.767
15.48000 17.821
15.50000 17.260
15.52000 16.688
15.54000 21.757
15.56000 16.525
15.58000 14.794
15.60000 12.615
15.62000 8.424
15.64000 2.891
15.66000 11.721
15.68000 12.784
15.70000 11.658
15.72000 17.731
15.74000 8.229
15.76000 3.708
15.78000 1.769
15.80000 4.880
15.82000 8.776
15.84000 13.046
15.86000 13.663
15.88000 9.579
15.90000 13.003
15.92000 17.610
15.94000 6.984
15.96000 9.920
15.98000 17.849
16.00000 8.895
16.02000 5.197
16.04000 8.799
16.06000 5.973
16.08000 8.972
16.10000 13.951
16.12000 10.230
16.14000 8.549
16.16000 16.186
16.18000 15.455
16.20000 14.761
16.22000 4.489
16.24000 6.385
16.26000 9.292
16.28000 3.373
16.30000 5.058
16.32000 7.601
16.34000 4.182
16.36000 -0.559
16.38000 10.438
16.40000 19.294
16.42000 9.748
16.44000 5.130
16.46000 15.948
16.48000 17.158
16.50000 8.618
16.52000 7.128
16.54000 1.405
16.56000 10.950
16.58000 11.608
16.60000 10.017
16.62000 12.955
16.64000 10.622
16.66000 9.362
16.68000 17.090
16.70000 6.796
16.72000 1.106
16.74000 4.664
16.76000 2.793
16.78000 5.846
16.80000 6.101
16.82000 6.212
16.84000 6.531
16.86000 9.345
16.88000 15.751
16.90000 17.221
16.92000 9.871
16.94000 10.349
16.96000 10.897
16.98000 12.201
17.00000 14.807
17.02000 16.208
17.04000 19.675
17.06000 11.650
17.08000 14.264
17.10000 10.824
17.12000 14.959
17.14000 17.403
17.16000 20.995
17.18000 20.588
17.20000 15.171
17.22000 12.402
17.24000 12.563
17.26000 15.547
17.28000 15.926
17.30000 12.118
17.32000 15.015
17.34000 15.722
17.36000 12.627
17.38000 5.335
17.40000 -4.289
17.42000 3.001
17.44000 11.055
17.46000 15.560
17.48000 20.546
17.50000 19.059
17.52000 13.426
17.54000 13.388
17.56000 14.929
17.58000 10.547
17.60000 5.014
17.62000 6.532
17.64000 5.980
17.66000 14.059
17.68000 15.860
17.70000 7.869
17.72000 11.965
17.74000 12.795
17.76000 8.156
17.78000 7.056
17.80000 4.827
17.82000 1.657
17.84000 -0.194
17.86000 -0.361
17.88000 5.228
17.90000 7.626
17.92000 6.243
17.94000 11.594
17.96000 13.079
17.98000 7.433
18.00000 7.482
18.02000 7.916
18.04000 5.690
18.06000 3.518
18.08000 7.871
18.10000 5.190
18.12000 5.913
18.14000 2.609
18.16000 5.129
18.18000 2.072
18.20000 5.638
18.22000 17.213
18.24000 11.604
18.26000 5.215
18.28000 7.792
18.30000 8.405
18.32000 12.015
18.34000 6.372
18.36000 11.258
18.38000 6.285
18.40000 1.021
18.42000 2.299
18.44000 7.451
18.46000 8.616
18.48000 6.861
18.50000 7.668
18.52000 5.711
18.54000 6.029
18.56000 2.335
18.58000 11.605
18.60000 13.304
18.62000 10.569
18.64000 9.003
18.66000 8.897
18.68000 12.444
18.70000 5.390
18.72000 0.518
18.74000 0.833
18.76000 4.355
18.78000 4.605
18.80000 4.576
18.82000 4.133
18.84000 6.227
18.86000 2.258
18.88000 3.567
18.90000 0.054
18.92000 0.220
18.94000 8.113
18.96000 12.266
18.98000 4.308
19.00000 3.453
19.02000 7.903
19.04000 3.519
19.06000 1.631
19.08000 4.250
19.10000 0.413
19.12000 1.730
19.14000 7.259
19.16000 11.768
19.18000 1.196
19.20000 3.930
19.22000 5.020
19.24000 9.745
19.26000 3.109
19.28000 7.941
19.30000 10.496
19.32000 3.707
19.34000 0.636
19.36000 1.326
19.38000 8.572
19.40000 7.868
19.42000 5.632
19.44000 -0.068
19.46000 -2.950
19.48000 -4.247
19.50000 -1.253
19.52000 3.571
19.54000 1.756
19.56000 3.449
19.58000 1.501
19.60000 3.280
19.62000 10.045
19.64000 11.096
19.66000 9.603
19.68000 5.019
19.70000 2.406
19.72000 6.904
19.74000 1.104
19.76000 0.279
19.78000 -0.659
19.80000 1.509
19.82000 0.900
19.84000 13.116
19.86000 5.251
19.88000 1.733
19.90000 5.176
19.92000 6.186
19.94000 9.480
19.96000 4.627
19.98000 2.478
20.00000 1.347
20.02000 3.279
20.04000 1.608
20.06000 -2.100
20.08000 -3.109
20.10000 0.734
20.12000 2.043
20.14000 4.831
20.16000 5.812
20.18000 4.913
20.20000 3.258
20.22000 -1.160
20.24000 3.901
20.26000 6.614
20.28000 2.390
20.30000 3.985
20.32000 8.916
20.34000 5.456
20.36000 10.560
20.38000 8.500
20.40000 -2.654
20.42000 -4.171
20.44000 2.570
20.46000 5.382
20.48000 4.888
20.50000 7.416
20.52000 13.691
20.54000 9.186
20.56000 4.734
20.58000 4.832
20.60000 4.029
20.62000 8.766
20.64000 1.689
20.66000 5.219
20.68000 0.973
20.70000 -0.224
20.72000 13.270
20.74000 8.643
20.76000 4.232
20.78000 5.305
20.80000 8.965
20.82000 3.219
20.84000 5.278
20.86000 6.523
20.88000 6.559
20.90000 8.631
20.92000 3.911
20.94000 7.777
20.96000 7.412
20.98000 7.088
21.00000 0.647
21.02000 1.811
21.04000 5.923
21.06000 -1.734
21.08000 2.176
21.10000 2.026
21.12000 -1.078
21.14000 5.226
21.16000 2.694
21.18000 7.874
21.20000 10.590
21.22000 6.607
21.24000 9.256
21.26000 9.994
21.28000 1.473
21.30000 0.628
21.32000 1.336
21.34000 5.569
21.36000 3.418
21.38000 3.916
21.40000 9.300
21.42000 9.659
21.44000 3.327
21.46000 0.985
21.48000 -0.384
21.50000 -4.098
21.52000 -2.700
21.54000 2.563
21.56000 5.984
21.58000 -0.540
21.60000 4.365
21.62000 7.651
21.64000 7.622
21.66000 9.547
21.68000 12.043
21.70000 5.819
21.72000 1.767
21.74000 3.332
21.76000 4.502
21.78000 4.981
21.80000 3.883
21.82000 4.534
21.84000 2.372
21.86000 3.155
21.88000 9.446
21.90000 8.410
21.92000 6.149
21.94000 12.083
21.96000 8.313
21.98000 8.669
22.00000 8.984
22.02000 5.420
22.04000 4.720
22.06000 8.804
22.08000 15.308
22.10000 6.633
22.12000 -2.907
22.14000 3.789
22.16000 1.210
22.18000 -0.595
22.20000 6.915
22.22000 6.433
22.24000 2.858
22.26000 4.126
22.28000 4.794
22.30000 5.113
22.32000 5.957
22.34000 7.352
22.36000 8.234
22.38000 12.054
22.40000 4.738
22.42000 2.652
22.44000 4.851
22.46000 4.576
22.48000 3.688
22.50000 3.895
22.52000 6.874
22.54000 6.681
22.56000 -1.025
22.58000 2.229
22.60000 8.853
22.62000 7.078
22.64000 5.002
22.66000 8.189
22.68000 7.095
22.70000 3.831
22.72000 6.409
22.74000 8.899
22.76000 7.340
22.78000 11.937
22.80000 5.127
22.82000 5.596
22.84000 2.099
22.86000 3.668
22.88000 0.491
22.90000 -4.025
22.92000 3.386
22.94000 12.040
22.96000 6.652
22.98000 6.982
23.00000 8.330
23.02000 8.722
23.04000 8.558
23.06000 7.071
23.08000 7.409
23.10000 10.039
23.12000 10.127
23.14000 13.008
23.16000 5.090
23.18000 -2.723
23.20000 -2.059
23.22000 3.599
23.24000 6.767
23.26000 3.007
23.28000 6.408
23.30000 6.671
23.32000 10.591
23.34000 -0.231
23.36000 -0.896
23.38000 4.909
23.40000 1.228
23.42000 -3.517
23.44000 0.342
23.46000 1.150
23.48000 -3.981
23.50000 1.435
23.52000 4.386
23.54000 6.812
23.56000 -0.395
23.58000 1.682
23.60000 5.131
23.62000 10.339
23.64000 9.430
23.66000 10.584
23.68000 6.273
23.70000 6.516
23.72000 4.861
23.74000 6.693
23.76000 3.128
23.78000 3.258
23.80000 7.725
23.82000 4.452
23.84000 0.185
23.86000 2.501
23.88000 0.585
23.90000 0.746
23.92000 0.108
23.94000 5.669
23.96000 8.315
23.98000 5.414
24.00000 5.459
24.02000 4.941
24.04000 5.332
24.06000 8.249
24.08000 3.118
24.10000 2.204
24.12000 7.821
24.14000 11.039
24.16000 10.867
24.18000 2.531
24.20000 3.695
24.22000 3.466
24.24000 8.911
24.26000 8.287
24.28000 4.341
24.30000 -0.911
24.32000 -0.806
24.34000 0.583
24.36000 4.676
24.38000 2.372
24.40000 0.837
24.42000 -3.495
24.44000 -1.051
24.46000 -0.655
24.48000 4.924
24.50000 6.507
24.52000 2.965
24.54000 3.090
24.56000 2.778
24.58000 4.485
24.60000 3.171
24.62000 1.914
24.64000 2.971
24.66000 2.563
24.68000 -0.718
24.70000 2.032
24.72000 2.652
24.74000 10.645
24.76000 6.913
24.78000 4.059
24.80000 4.752
24.82000 1.354
24.84000 6.149
24.86000 4.508
24.88000 8.346
24.90000 3.861
24.92000 2.682
24.94000 2.686
24.96000 -0.579
24.98000 -2.392
25.00000 -2.386
25.02000 -1.924
25.04000 -3.928
25.06000 2.358
25.08000 2.284
25.10000 1.855
25.12000 1.445
25.14000 7.345
25.16000 2.041
25.18000 3.948
25.20000 -0.765
25.22000 -1.781
25.24000 -2.502
25.26000 5.032
25.28000 8.109
25.30000 6.278
25.32000 3.359
25.34000 7.879
25.36000 8.483
25.38000 2.946
25.40000 4.658
25.42000 3.003
25.44000 6.450
25.46000 6.586
25.48000 1.203
25.50000 3.049
25.52000 5.699
25.54000 2.190
25.56000 0.523
25.58000 0.288
25.60000 -0.536
25.62000 2.265
25.64000 10.567
25.66000 10.911
25.68000 7.601
25.70000 1.741
25.72000 2.002
25.74000 3.357
25.76000 3.876
25.78000 3.875
25.80000 4.665
25.82000 5.093
25.84000 2.348
25.86000 2.263
25.88000 -0.896
25.90000 1.788
25.92000 -3.876
25.94000 -0.465
25.96000 6.277
25.98000 2.014
26.00000 4.864
26.02000 8.328
26.04000 7.526
26.06000 7.006
26.08000 5.559
26.10000 2.422
26.12000 0.936
26.14000 0.802
26.16000 0.324
26.18000 2.806
26.20000 6.756
26.22000 2.072
26.24000 2.152
26.26000 3.176
26.28000 2.454
26.30000 4.522
26.32000 6.396
26.34000 3.506
26.36000 4.569
26.38000 6.113
26.40000 3.255
26.42000 4.444
26.44000 2.894
26.46000 -0.489
26.48000 2.168
26.50000 5.869
26.52000 6.630
26.54000 2.613
26.56000 2.106
26.58000 1.705
26.60000 -0.273
26.62000 2.809
26.64000 5.902
26.66000 4.240
26.68000 7.281
26.70000 11.980
26.72000 9.364
26.74000 4.562
26.76000 2.601
26.78000 0.677
26.80000 4.060
26.82000 8.633
26.84000 5.374
26.86000 3.332
26.88000 -1.974
26.90000 -2.823
26.92000 4.607
26.94000 5.585
26.96000 5.975
26.98000 0.696
27.00000 2.195
27.02000 -3.805
27.04000 -2.497
27.06000 2.558
27.08000 5.635
27.10000 9.477
27.12000 6.812
27.14000 2.468
27.16000 0.080
27.18000 3.385
27.20000 7.744
27.22000 3.950
27.24000 3.823
27.26000 2.859
27.28000 3.200
27.30000 5.999
27.32000 7.015
27.34000 11.022
27.36000 3.508
27.38000 6.135
27.40000 7.972
27.42000 7.215
27.44000 0.891
27.46000 -3.350
27.48000 0.128
27.50000 3.097
27.52000 3.297
27.54000 -0.395
27.56000 0.064
27.58000 0.229
27.60000 2.298
27.62000 5.605
27.64000 5.918
27.66000 7.709
27.68000 6.133
27.70000 6.195
27.72000 8.243
27.74000 8.384
27.76000 3.905
27.78000 3.939
27.80000 3.005
27.82000 4.397
27.84000 6.093
27.86000 3.880
27.88000 3.165
27.90000 6.977
27.92000 7.425
27.94000 2.800
27.96000 -1.017
27.98000 3.378
28.00000 1.855
28.02000 -2.380
28.04000 5.824
28.06000 5.080
28.08000 4.817
28.10000 7.828
28.12000 7.542
28.14000 5.728
28.16000 -1.059
28.18000 -3.743
28.20000 -1.977
28.22000 4.129
28.24000 10.578
28.26000 5.209
28.28000 5.581
28.30000 6.927
28.32000 5.159
28.34000 5.649
28.36000 4.045
28.38000 3.714
28.40000 5.777
28.42000 6.448
28.44000 10.676
28.46000 8.950
28.48000 2.498
28.50000 3.517
28.52000 5.276
28.54000 1.342
28.56000 0.210
28.58000 -0.236
28.60000 0.398
28.62000 3.428
28.64000 1.414
28.66000 -3.699
28.68000 3.123
28.70000 2.865
28.72000 -1.302
28.74000 5.432
28.76000 6.125
28.78000 -1.598
28.80000 2.028
28.82000 3.787
28.84000 2.084
28.86000 1.471
28.88000 3.262
28.90000 -0.031
28.92000 -2.588
28.94000 3.276
28.96000 3.604
28.98000 -2.046
29.00000 -3.316
29.02000 3.627
29.04000 7.401
29.06000 8.128
29.08000 4.578
29.10000 -0.023
29.12000 -0.282
29.14000 -0.203
29.16000 1.210
29.18000 4.757
29.20000 3.185
29.22000 1.764
29.24000 -0.727
29.26000 1.654
29.28000 0.604
29.30000 4.042
29.32000 2.598
29.34000 1.665
29.36000 2.848
29.38000 -3.394
29.40000 2.400
29.42000 0.775
29.44000 -0.090
29.46000 1.066
29.48000 -3.705
29.50000 0.166
29.52000 -1.511
29.54000 -0.638
29.56000 3.082
29.58000 2.921
29.60000 4.088
29.62000 7.056
29.64000 5.045
29.66000 1.598
29.68000 -1.689
29.70000 2.004
29.72000 5.188
29.74000 3.529
29.76000 0.108
29.78000 -2.555
29.80000 1.617
29.82000 3.274
29.84000 4.831
29.86000 3.492
29.88000 1.909
29.90000 0.904
29.92000 1.873
29.94000 3.177
29.96000 6.386
29.98000 6.049
30.00000 5.828
30.02000 1.385
30.04000 1.584
30.06000 0.526
30.08000 4.240
30.10000 2.977
30.12000 2.826
30.14000 -3.191
30.16000 -3.525
30.18000 -0.247
30.20000 -1.952
30.22000 -0.850
30.24000 3.063
30.26000 -0.777
30.28000 -2.761
30.30000 0.949
30.32000 3.030
30.34000 4.694
30.36000 9.531
30.38000 6.870
30.40000 5.209
30.42000 3.698
30.44000 2.717
30.46000 9.755
30.48000 6.382
30.50000 0.137
30.52000 2.262
30.54000 7.458
30.56000 5.504
30.58000 5.162
30.60000 10.359
30.62000 6.639
30.64000 4.728
30.66000 0.913
30.68000 -3.634
30.70000 2.223
30.72000 0.292
30.74000 0.253
30.76000 1.741
30.78000 -0.440
30.80000 5.218
30.82000 7.707
30.84000 2.531
30.86000 1.488
30.88000 5.527
30.90000 3.971
30.92000 0.675
30.94000 5.452
30.96000 7.163
30.98000 1.705
31.00000 1.305
31.02000 -0.764
31.04000 -1.188
31.06000 0.649
31.08000 3.138
31.10000 3.039
31.12000 1.095
31.14000 -0.102
31.16000 -1.128
31.18000 4.455
31.20000 1.352
31.22000 3.419
31.24000 4.801
31.26000 2.519
31.28000 4.193
31.30000 4.208
31.32000 0.531
31.34000 1.289
31.36000 1.952
31.38000 2.518
31.40000 0.672
31.42000 6.796
31.44000 6.650
31.46000 6.869
31.48000 4.324
31.50000 -0.887
31.52000 0.570
31.54000 1.472
31.56000 6.603
31.58000 2.506
31.60000 -0.242
31.62000 2.039
31.64000 0.690
31.66000 2.630
31.68000 5.726
31.70000 3.565
31.72000 0.907
31.74000 -0.976
31.76000 3.112
31.78000 1.230
31.80000 -2.072
31.82000 3.526
31.84000 1.869
31.86000 1.391
31.88000 2.638
31.90000 4.874
31.92000 8.718
31.94000 5.380
31.96000 -2.093
31.98000 -3.572
32.00000 5.092
32.02000 3.993
32.04000 2.988
32.06000 -0.399
32.08000 0.515
32.10000 5.260
32.12000 3.936
32.14000 5.965
32.16000 5.197
32.18000 5.670
32.20000 7.531
32.22000 10.807
32.24000 8.995
32.26000 5.393
32.28000 5.635
32.30000 4.994
32.32000 4.678
32.34000 6.890
32.36000 3.694
32.38000 0.069
32.40000 1.138
32.42000 4.341
32.44000 3.994
32.46000 2.925
32.48000 3.101
32.50000 3.168
32.52000 6.049
32.54000 3.815
32.56000 3.245
32.58000 4.052
32.60000 -0.334
32.62000 1.307
32.64000 -0.706
32.66000 2.152
32.68000 7.555
32.70000 7.285
32.72000 5.205
32.74000 -2.959
32.76000 -2.435
32.78000 -3.564
32.80000 1.008
32.82000 3.031
32.84000 5.354
32.86000 4.874
32.88000 2.979
32.90000 1.186
32.92000 2.235
32.94000 3.467
32.96000 6.343
32.98000 6.351
33.00000 2.720
33.02000 3.595
33.04000 3.754
33.06000 0.299
33.08000 -1.005
33.10000 3.682
33.12000 -0.712
33.14000 0.193
33.16000 4.855
33.18000 0.885
33.20000 -1.422
33.22000 0.057
33.24000 -0.449
33.26000 0.709
33.28000 2.764
33.30000 6.510
33.32000 3.687
33.34000 3.003
33.36000 1.564
33.38000 1.999
33.40000 1.597
33.42000 -1.635
33.44000 1.090
33.46000 7.301
33.48000 4.727
33.50000 6.008
33.52000 7.692
33.54000 4.475
33.56000 -2.389
33.58000 0.755
33.60000 2.534
33.62000 0.000
33.64000 1.695
33.66000 2.082
33.68000 2.963
33.70000 5.675
33.72000 2.663
33.74000 -0.269
33.76000 0.922
33.78000 1.818
33.80000 1.718
33.82000 -0.028
33.84000 -0.518
33.86000 -0.841
33.88000 2.241
33.90000 3.348
33.92000 -0.220
33.94000 2.385
33.96000 9.651
33.98000 4.515
34.00000 -1.519
34.02000 -2.279
34.04000 -0.043
34.06000 2.097
34.08000 4.707
34.10000 1.873
34.12000 1.990
34.14000 2.678
34.16000 2.040
34.18000 -2.317
34.20000 -0.957
34.22000 -2.286
34.24000 1.493
34.26000 3.694
34.28000 3.737
34.30000 3.207
34.32000 2.049
34.34000 7.473
34.36000 7.883
34.38000 2.236
34.40000 0.122
34.42000 -0.421
34.44000 1.649
34.46000 5.424
34.48000 3.086
34.50000 0.172
34.52000 2.055
34.54000 -1.051
34.56000 -3.564
34.58000 1.139
34.60000 3.287
34.62000 0.698
34.64000 -1.798
34.66000 -0.266
34.68000 0.256
34.70000 -1.679
34.72000 -3.177
34.74000 -1.625
34.76000 1.739
34.78000 2.342
34.80000 3.575
34.82000 -0.002
34.84000 2.105
34.86000 2.464
34.88000 2.511
34.90000 1.120
34.92000 -1.357
34.94000 0.675
34.96000 5.498
34.98000 2.136
35.00000 0.334
35.02000 4.512
35.04000 1.369
35.06000 -2.527
35.08000 -1.407
35.10000 2.036
35.12000 2.001
35.14000 -3.431
35.16000 2.515
35.18000 8.271
35.20000 2.920
35.22000 -3.536
35.24000 0.099
35.26000 3.222
35.28000 -1.747
35.30000 -0.471
35.32000 -0.011
35.34000 -1.407
35.36000 0.267
35.38000 1.518
35.40000 -0.556
35.42000 3.856
35.44000 0.119
35.46000 -0.825
35.48000 2.570
35.50000 0.036
35.52000 -1.683
35.54000 -1.027
35.56000 -0.883
35.58000 -0.185
35.60000 -1.920
35.62000 -2.770
35.64000 1.309
35.66000 2.390
35.68000 -1.014
35.70000 1.533
35.72000 0.572
35.74000 1.221
35.76000 0.448
35.78000 2.058
35.80000 -0.721
35.82000 3.312
35.84000 -1.077
35.86000 -1.541
35.88000 2.623
35.90000 0.817
35.92000 4.898
35.94000 5.016
35.96000 5.597
35.98000 3.568
36.00000 -0.259
36.02000 6.304
36.04000 4.152
36.06000 3.943
36.08000 -0.894
36.10000 -0.680
36.12000 6.786
36.14000 8.721
36.16000 6.472
36.18000 3.778
36.20000 0.784
36.22000 2.757
36.24000 1.370
36.26000 -2.520
36.28000 -0.407
36.30000 -0.527
36.32000 2.651
36.34000 -1.501
36.36000 -3.550
36.38000 0.686
36.40000 1.649
36.42000 0.466
36.44000 1.442
36.46000 -0.299
36.48000 0.591
36.50000 2.978
36.52000 3.484
36.54000 2.084
36.56000 1.038
36.58000 -1.740
36.60000 -0.738
36.62000 -3.264
36.64000 5.168
36.66000 3.931
36.68000 2.232
36.70000 1.541
36.72000 2.403
36.74000 2.062
36.76000 2.873
36.78000 0.407
36.80000 4.749
36.82000 5.152
36.84000 4.331
36.86000 6.224
36.88000 3.819
36.90000 5.582
36.92000 3.917
36.94000 1.967
36.96000 1.156
36.98000 2.710
37.00000 3.622
37.02000 -0.565
37.04000 -3.560
37.06000 0.637
37.08000 1.634
37.10000 1.485
37.12000 0.549
37.14000 5.336
37.16000 3.068
37.18000 3.559
37.20000 0.083
37.22000 0.739
37.24000 0.099
37.26000 -2.158
37.28000 -0.071
37.30000 5.375
37.32000 3.800
37.34000 3.218
37.36000 1.744
37.38000 2.563
37.40000 5.684
37.42000 5.523
37.44000 1.996
37.46000 6.272
37.48000 9.882
37.50000 4.943
37.52000 3.664
37.54000 1.477
37.56000 -0.201
37.58000 5.110
37.60000 9.448
37.62000 7.792
37.64000 8.254
37.66000 5.514
37.68000 10.010
37.70000 10.153
37.72000 11.070
37.74000 10.507
37.76000 12.738
37.78000 9.825
37.80000 9.660
37.82000 15.916
37.84000 14.326
37.86000 12.107
37.88000 10.660
37.90000 10.820
37.92000 12.790
37.94000 11.206
37.96000 13.225
37.98000 16.812
38.00000 12.872
38.02000 8.296
38.04000 9.021
38.06000 12.949
38.08000 16.642
38.10000 15.713
38.12000 20.605
38.14000 24.605
38.16000 17.620
38.18000 20.209
38.20000 18.795
38.22000 23.632
38.24000 25.664
38.26000 21.944
38.28000 21.537
38.30000 25.446
38.32000 27.172
38.34000 25.051
38.36000 24.213
38.38000 29.487
38.40000 31.741
38.42000 34.374
38.44000 34.385
38.46000 33.181
38.48000 34.190
38.50000 35.340
38.52000 36.141
38.54000 39.075
38.56000 37.664
38.58000 38.454
38.60000 35.502
38.62000 43.620
38.64000 40.821
38.66000 42.778
38.68000 51.944
38.70000 51.806
38.72000 42.564
38.74000 43.499
38.76000 48.376
38.78000 55.165
38.80000 61.708
38.82000 60.245
38.84000 65.647
38.86000 64.768
38.88000 67.693
38.90000 70.013
38.92000 70.521
38.94000 75.946
38.96000 75.224
38.98000 79.473
39.00000 82.441
39.02000 87.577
39.04000 91.579
39.06000 95.635
39.08000 96.367
39.10000 100.190
39.12000 107.670
39.14000 112.252
39.16000 118.532
39.18000 124.261
39.20000 134.009
39.22000 136.153
39.24000 141.887
39.26000 154.028
39.28000 164.613
39.30000 170.784
39.32000 174.699
39.34000 196.253
39.36000 206.890
39.38000 212.026
39.40000 223.963
39.42000 234.186
39.44000 249.593
39.46000 260.667
39.48000 277.280
39.50000 290.647
39.52000 309.730
39.54000 328.038
39.56000 339.008
39.58000 368.657
39.60000 382.673
39.62000 394.499
39.64000 414.330
39.66000 438.649
39.68000 452.537
39.70000 472.029
39.72000 485.841
39.74000 508.462
39.76000 529.648
39.78000 538.941
39.80000 557.851
39.82000 574.855
39.84000 579.500
39.86000 596.352
39.88000 605.618
39.90000 611.941
39.92000 614.864
39.94000 621.292
39.96000 615.904
39.98000 612.646
40.00000 613.182
40.02000 603.901
40.04000 611.891
40.06000 599.094
40.08000 599.597
40.10000 587.442
40.12000 566.975
40.14000 547.877
40.16000 528.352
40.18000 512.094
40.20000 491.233
40.22000 479.653
40.24000 472.721
40.26000 450.720
40.28000 423.415
40.30000 400.000
40.32000 372.369
40.34000 360.246
40.36000 340.656
40.38000 322.150
40.40000 314.737
40.42000 298.437
40.44000 279.032
40.46000 270.965
40.48000 253.600
40.50000 239.021
40.52000 217.901
40.54000 208.839
40.56000 190.422
40.58000 175.665
40.60000 170.359
40.62000 164.197
40.64000 148.414
40.66000 136.167
40.68000 127.974
40.70000 124.272
40.72000 112.937
40.74000 103.972
40.76000 103.894
40.78000 101.797
40.80000 90.141
40.82000 83.198
40.84000 83.672
40.86000 77.637
40.88000 66.625
40.90000 70.430
40.92000 67.333
40.94000 61.339
40.96000 54.017
40.98000 51.902
41.00000 51.232
41.02000 49.706
41.04000 52.851
41.06000 47.328
41.08000 41.546
41.10000 45.061
41.12000 39.943
41.14000 31.829
41.16000 31.413
41.18000 31.874
41.20000 25.806
41.22000 26.136
41.24000 26.822
41.26000 25.190
41.28000 26.459
41.30000 19.468
41.32000 18.023
41.34000 22.153
41.36000 19.334
41.38000 19.216
41.40000 22.358
41.42000 22.843
41.44000 18.161
41.46000 16.639
41.48000 14.664
41.50000 19.481
41.52000 24.030
41.54000 15.734
41.56000 10.560
41.58000 10.642
41.60000 10.178
41.62000 9.919
41.64000 12.354
41.66000 14.011
41.68000 11.467
41.70000 8.104
41.72000 3.145
41.74000 3.254
41.76000 3.960
41.78000 5.201
41.80000 3.523
41.82000 12.463
41.84000 7.225
41.86000 3.990
41.88000 2.583
41.90000 2.758
41.92000 4.677
41.94000 4.904
41.96000 7.277
41.98000 6.081
42.00000 5.039
42.02000 0.430
42.04000 2.929
42.06000 1.440
42.08000 -0.470
42.10000 -1.676
42.12000 -1.480
42.14000 0.485
42.16000 1.193
42.18000 -2.748
42.20000 -3.415
42.22000 -0.582
42.24000 -1.254
42.26000 -1.211
42.28000 -0.098
42.30000 2.473
42.32000 1.448
42.34000 1.622
42.36000 3.512
42.38000 3.934
42.40000 8.432
42.42000 6.614
42.44000 1.504
42.46000 -3.373
42.48000 1.415
42.50000 1.168
42.52000 -1.407
42.54000 -2.318
42.56000 0.309
42.58000 -0.616
42.60000 0.435
42.62000 0.987
42.64000 1.250
42.66000 2.439
42.68000 2.519
42.70000 2.757
42.72000 2.019
42.74000 -1.684
42.76000 -1.295
42.78000 -1.131
42.80000 2.307
42.82000 -1.106
42.84000 -0.578
42.86000 2.158
42.88000 -1.581
42.90000 -1.142
42.92000 -1.036
42.94000 -0.652
42.96000 1.395
42.98000 -1.628
43.00000 -0.377
43.02000 0.345
43.04000 -3.264
43.06000 0.863
43.08000 4.550
43.10000 2.491
43.12000 5.360
43.14000 3.705
43.16000 3.068
43.18000 3.722
43.20000 3.261
43.22000 1.254
43.24000 2.656
43.26000 -3.245
43.28000 2.190
43.30000 2.081
43.32000 -0.297
43.34000 2.443
43.36000 3.051
43.38000 2.086
43.40000 2.500
43.42000 2.018
43.44000 1.186
43.46000 1.525
43.48000 4.389
43.50000 2.824
43.52000 2.559
43.54000 6.148
43.56000 4.003
43.58000 2.939
43.60000 0.012
43.62000 -0.635
43.64000 0.246
43.66000 2.298
43.68000 0.712
43.70000 1.159
43.72000 3.470
43.74000 -0.028
43.76000 1.000
43.78000 0.200
43.80000 -3.206
43.82000 -2.638
43.84000 0.118
43.86000 -1.208
43.88000 1.449
43.90000 -0.298
43.92000 -0.025
43.94000 1.642
43.96000 -0.451
43.98000 -0.149
44.00000 2.830
44.02000 0.367
44.04000 0.652
44.06000 5.104
44.08000 7.274
44.10000 4.675
44.12000 2.363
44.14000 3.838
44.16000 4.014
44.18000 2.212
44.20000 3.041
44.22000 3.067
44.24000 4.842
44.26000 0.093
44.28000 -1.286
44.30000 -0.550
44.32000 1.014
44.34000 4.896
44.36000 3.768
44.38000 4.001
44.40000 5.065
44.42000 2.222
44.44000 1.840
44.46000 5.699
44.48000 6.784
44.50000 4.906
44.52000 3.620
44.54000 -0.916
44.56000 -3.161
44.58000 0.221
44.60000 3.064
44.62000 5.527
44.64000 7.939
44.66000 4.218
44.68000 2.185
44.70000 1.396
44.72000 6.741
44.74000 2.444
44.76000 1.047
44.78000 2.218
44.80000 2.708
44.82000 3.656
44.84000 2.502
44.86000 4.324
44.88000 0.904
44.90000 -1.325
44.92000 3.669
44.94000 3.240
44.96000 2.235
44.98000 -1.711
45.00000 2.685
45.02000 7.004
45.04000 5.657
45.06000 5.306
45.08000 3.085
45.10000 3.956
45.12000 5.766
45.14000 5.372
45.16000 4.983
45.18000 2.626
45.20000 3.562
45.22000 7.830
45.24000 6.677
45.26000 2.168
45.28000 7.029
45.30000 7.429
45.32000 10.965
45.34000 9.834
45.36000 4.834
45.38000 8.932
45.40000 10.393
45.42000 8.675
45.44000 3.401
45.46000 6.637
45.48000 12.036
45.50000 15.227
45.52000 15.073
45.54000 14.076
45.56000 13.368
45.58000 16.957
45.60000 16.304
45.62000 15.727
45.64000 15.910
45.66000 13.795
45.68000 17.814
45.70000 18.942
45.72000 14.620
45.74000 18.334
45.76000 27.557
45.78000 27.499
45.80000 19.772
45.82000 22.690
45.84000 21.496
45.86000 26.632
45.88000 29.045
45.90000 26.680
45.92000 28.829
45.94000 26.825
45.96000 27.887
45.98000 32.947
46.00000 39.248
46.02000 39.097
46.04000 40.624
46.06000 43.556
46.08000 42.462
46.10000 42.039
46.12000 39.294
46.14000 38.645
46.16000 43.919
46.18000 48.055
46.20000 55.088
46.22000 53.969
46.24000 48.354
46.26000 48.221
46.28000 48.102
46.30000 49.474
46.32000 56.070
46.34000 58.089
46.36000 56.656
46.38000 59.555
46.40000 63.330
46.42000 65.365
46.44000 61.797
46.46000 62.558
46.48000 62.916
46.50000 66.831
46.52000 70.010
46.54000 67.675
46.56000 71.828
46.58000 71.877
46.60000 70.625
46.62000 65.238
46.64000 70.893
46.66000 67.106
46.68000 64.158
46.70000 67.122
46.72000 70.324
46.74000 72.197
46.76000 67.988
46.78000 65.452
46.80000 67.900
46.82000 62.375
46.84000 59.253
46.86000 63.065
46.88000 60.874
46.90000 55.466
46.92000 56.802
46.94000 52.047
46.96000 49.068
46.98000 48.665
47.00000 49.816
47.02000 41.850
47.04000 44.362
47.06000 44.972
47.08000 44.181
47.10000 39.763
47.12000 36.741
47.14000 35.068
47.16000 35.214
47.18000 31.907
47.20000 26.441
47.22000 31.975
47.24000 29.600
47.26000 28.451
47.28000 27.087
47.30000 28.653
47.32000 25.996
47.34000 24.249
47.36000 20.997
47.38000 21.878
47.40000 24.592
47.42000 16.663
47.44000 14.016
47.46000 20.104
47.48000 16.426
47.50000 13.975
47.52000 10.678
47.54000 14.453
47.56000 15.794
47.58000 9.992
47.60000 14.354
47.62000 11.597
47.64000 12.311
47.66000 8.943
47.68000 7.329
47.70000 7.896
47.72000 6.564
47.74000 5.118
47.76000 2.292
47.78000 4.975
47.80000 6.658
47.82000 4.538
47.84000 5.272
47.86000 2.021
47.88000 0.762
47.90000 -1.823
47.92000 -0.854
47.94000 0.583
47.96000 2.376
47.98000 4.955
48.00000 5.097
48.02000 3.439
48.04000 3.772
48.06000 1.063
48.08000 4.327
48.10000 -0.307
48.12000 -2.507
48.14000 1.582
48.16000 0.385
48.18000 -1.711
48.20000 -2.018
48.22000 -1.141
48.24000 0.689
48.26000 7.473
48.28000 4.476
48.30000 2.323
48.32000 4.222
48.34000 -0.923
48.36000 -2.843
48.38000 0.830
48.40000 2.566
48.42000 2.843
48.44000 -0.344
48.46000 3.371
48.48000 3.636
48.50000 1.785
48.52000 0.528
48.54000 2.431
48.56000 2.309
48.58000 0.006
48.60000 0.741
48.62000 -0.138
48.64000 -0.780
48.66000 1.242
48.68000 -0.726
48.70000 0.198
48.72000 0.350
48.74000 -0.175
48.76000 1.719
48.78000 5.091
48.80000 4.501
48.82000 2.449
48.84000 -1.027
48.86000 -0.513
48.88000 -2.766
48.90000 -2.257
48.92000 3.834
48.94000 2.647
48.96000 4.521
48.98000 5.462
49.00000 3.422
49.02000 -2.500
49.04000 2.463
49.06000 4.735
49.08000 2.860
49.10000 2.060
49.12000 1.772
49.14000 1.599
49.16000 5.728
49.18000 6.528
49.20000 1.369
49.22000 -2.718
49.24000 0.293
49.26000 -1.149
49.28000 4.021
49.30000 2.548
49.32000 1.921
49.34000 6.772
49.36000 3.186
49.38000 1.884
49.40000 3.969
49.42000 -0.153
49.44000 1.944
49.46000 1.018
49.48000 -2.423
49.50000 -0.602
49.52000 -2.688
49.54000 -1.803
49.56000 2.572
49.58000 3.445
49.60000 2.640
49.62000 5.760
49.64000 4.261
49.66000 0.895
49.68000 2.648
49.70000 2.722
49.72000 5.574
49.74000 3.888
49.76000 2.162
49.78000 3.047
49.80000 5.707
49.82000 5.361
49.84000 7.946
49.86000 6.369
49.88000 2.131
49.90000 3.549
49.92000 2.510
49.94000 1.487
49.96000 2.743
49.98000 3.041
50.00000 1.223
50.02000 0.465
50.04000 2.929
50.06000 2.150
50.08000 2.190
50.10000 1.443
50.12000 2.100
50.14000 5.551
50.16000 8.067
50.18000 5.674
50.20000 0.710
50.22000 -0.636
50.24000 2.407
50.26000 4.860
50.28000 1.630
50.30000 2.492
50.32000 5.407
50.34000 -1.032
50.36000 -0.843
50.38000 2.292
50.40000 1.624
50.42000 0.743
50.44000 0.804
50.46000 1.332
50.48000 3.209
50.50000 5.069
50.52000 0.392
50.54000 -0.488
50.56000 0.201
50.58000 0.756
50.60000 3.094
50.62000 2.739
50.64000 1.258
50.66000 0.964
50.68000 1.842
50.70000 6.400
50.72000 6.704
50.74000 7.142
50.76000 3.194
50.78000 0.796
50.80000 -1.724
50.82000 -1.260
50.84000 -0.637
50.86000 2.617
50.88000 4.301
50.90000 4.504
50.92000 4.585
50.94000 1.935
50.96000 -2.625
50.98000 2.028
51.00000 4.412
51.02000 0.704
51.04000 0.750
51.06000 3.706
51.08000 0.551
51.10000 -0.987
51.12000 -0.423
51.14000 -0.619
51.16000 -2.473
51.18000 0.608
51.20000 1.869
51.22000 3.701
51.24000 5.664
51.26000 1.851
51.28000 2.352
51.30000 2.217
51.32000 2.609
51.34000 3.658
51.36000 2.436
51.38000 4.354
51.40000 1.287
51.42000 2.037
51.44000 2.420
51.46000 1.807
51.48000 -1.942
51.50000 1.680
51.52000 1.939
51.54000 2.304
51.56000 6.670
51.58000 5.983
51.60000 4.272
51.62000 3.375
51.64000 3.063
51.66000 1.561
51.68000 0.411
51.70000 5.233
51.72000 3.801
51.74000 0.232
51.76000 -2.583
51.78000 2.685
51.80000 2.516
51.82000 5.060
51.84000 3.618
51.86000 2.669
51.88000 2.008
51.90000 1.709
51.92000 4.321
51.94000 7.809
51.96000 6.836
51.98000 3.354
52.00000 5.084
52.02000 5.076
52.04000 2.417
52.06000 -2.584
52.08000 -1.053
52.10000 1.396
52.12000 1.739
52.14000 5.384
52.16000 3.443
52.18000 -2.182
52.20000 3.745
52.22000 0.770
52.24000 2.934
52.26000 5.088
52.28000 3.702
52.30000 3.069
52.32000 4.805
52.34000 0.102
52.36000 -2.290
52.38000 2.642
52.40000 3.771
52.42000 4.006
52.44000 3.744
52.46000 3.167
52.48000 -2.150
52.50000 2.261
52.52000 3.820
52.54000 0.436
52.56000 -2.575
52.58000 -0.341
52.60000 0.965
52.62000 2.819
52.64000 7.566
52.66000 6.198
52.68000 0.910
52.70000 1.801
52.72000 6.110
52.74000 4.424
52.76000 2.562
52.78000 1.730
52.80000 1.758
52.82000 4.696
52.84000 3.045
52.86000 3.284
52.88000 7.623
52.90000 2.390
52.92000 3.650
52.94000 2.408
52.96000 1.850
52.98000 1.255
53.00000 5.412
53.02000 0.788
53.04000 1.249
53.06000 2.723
53.08000 2.317
53.10000 4.660
53.12000 3.268
53.14000 6.509
53.16000 4.910
53.18000 3.165
53.20000 -0.318
53.22000 -2.300
53.24000 -0.253
53.26000 -0.610
53.28000 -0.213
53.30000 -1.721
53.32000 0.200
53.34000 3.058
53.36000 2.534
53.38000 1.771
53.40000 0.367
53.42000 2.174
53.44000 4.684
53.46000 5.232
53.48000 4.439
53.50000 3.257
53.52000 1.064
53.54000 7.951
53.56000 4.535
53.58000 4.140
53.60000 2.385
53.62000 -0.123
53.64000 -0.179
53.66000 -1.287
53.68000 0.279
53.70000 0.244
53.72000 2.026
53.74000 1.449
53.76000 5.391
53.78000 3.285
53.80000 0.882
53.82000 1.347
53.84000 5.058
53.86000 3.070
53.88000 5.328
53.90000 3.615
53.92000 -0.432
53.94000 -0.740
53.96000 -0.162
53.98000 -0.377
54.00000 0.365
54.02000 -1.284
54.04000 2.809
54.06000 3.766
54.08000 -0.216
54.10000 3.708
54.12000 3.107
54.14000 -2.101
54.16000 0.059
54.18000 1.453
54.20000 0.867
54.22000 -0.242
54.24000 4.511
54.26000 3.181
54.28000 1.325
54.30000 -0.186
54.32000 -0.759
54.34000 5.997
54.36000 5.061
54.38000 1.511
54.40000 1.684
54.42000 3.486
54.44000 -0.885
54.46000 -2.539
54.48000 -0.543
54.50000 1.826
54.52000 3.794
54.54000 0.999
54.56000 2.745
54.58000 0.241
54.60000 1.312
54.62000 2.750
54.64000 0.611
54.66000 1.069
54.68000 2.594
54.70000 3.024
54.72000 4.386
54.74000 8.421
54.76000 3.919
54.78000 0.607
54.80000 3.558
54.82000 1.664
54.84000 5.224
54.86000 4.928
54.88000 1.279
54.90000 -0.673
54.92000 -1.774
54.94000 -0.548
54.96000 -1.492
54.98000 1.853
55.00000 3.544
55.02000 7.089
55.04000 1.656
55.06000 3.643
55.08000 2.972
55.10000 -0.223
55.12000 3.233
55.14000 3.254
55.16000 2.826
55.18000 1.753
55.20000 1.382
55.22000 0.770
55.24000 1.559
55.26000 0.172
55.28000 0.469
55.30000 1.822
55.32000 0.284
55.34000 3.644
55.36000 6.256
55.38000 3.822
55.40000 3.505
55.42000 2.231
55.44000 1.380
55.46000 -0.020
55.48000 2.385
55.50000 3.704
55.52000 -0.165
55.54000 2.467
55.56000 2.622
55.58000 -1.681
55.60000 0.222
55.62000 0.240
55.64000 2.593
55.66000 4.568
55.68000 8.360
55.70000 6.813
55.72000 5.337
55.74000 0.827
55.76000 3.505
55.78000 1.575
55.80000 0.275
55.82000 5.708
55.84000 3.523
55.86000 -2.494
55.88000 -0.342
55.90000 1.495
55.92000 2.678
55.94000 4.827
55.96000 0.754
55.98000 2.419
56.00000 -1.280
56.02000 0.549
56.04000 3.994
56.06000 4.381
56.08000 -0.143
56.10000 1.448
56.12000 1.126
56.14000 -0.324
56.16000 1.403
56.18000 4.928
56.20000 1.137
56.22000 1.831
56.24000 2.578
56.26000 1.313
56.28000 0.353
56.30000 -1.194
56.32000 -0.509
56.34000 -0.383
56.36000 1.649
56.38000 3.216
56.40000 1.926
56.42000 -2.109
56.44000 -1.465
56.46000 0.471
56.48000 2.851
56.50000 1.321
56.52000 -1.567
56.54000 -2.119
56.56000 2.339
56.58000 4.031
56.60000 2.860
56.62000 4.683
56.64000 4.366
56.66000 1.627
56.68000 1.011
56.70000 2.702
56.72000 2.652
56.74000 3.522
56.76000 -0.772
56.78000 2.304
56.80000 7.453
56.82000 3.765
56.84000 -0.179
56.86000 -2.493
56.88000 1.743
56.90000 4.528
56.92000 3.041
56.94000 2.075
56.96000 -1.062
56.98000 -2.296
57.00000 -2.184
57.02000 -2.118
57.04000 -0.328
57.06000 -1.452
57.08000 -0.136
57.10000 -0.617
57.12000 1.650
57.14000 -0.241
57.16000 1.638
57.18000 -0.584
57.20000 -1.422
57.22000 -0.620
57.24000 1.588
57.26000 2.458
57.28000 0.009
57.30000 0.407
57.32000 -0.585
57.34000 -0.664
57.36000 2.412
57.38000 -0.053
57.40000 -2.479
57.42000 -0.264
57.44000 2.809
57.46000 0.359
57.48000 2.475
57.50000 -0.984
57.52000 0.811
57.54000 -0.431
57.56000 1.169
57.58000 2.741
57.60000 1.630
57.62000 2.912
57.64000 4.164
57.66000 2.999
57.68000 1.450
57.70000 1.293
57.72000 1.045
57.74000 2.828
57.76000 1.734
57.78000 -1.360
57.80000 -0.951
57.82000 1.618
57.84000 2.295
57.86000 3.541
57.88000 -0.026
57.90000 -0.752
57.92000 -1.011
57.94000 -0.427
57.96000 -2.406
57.98000 -1.245
58.00000 -1.714
58.02000 1.842
58.04000 3.700
58.06000 2.800
58.08000 4.528
58.10000 0.592
58.12000 -0.641
58.14000 -1.884
58.16000 -2.242
58.18000 -1.752
58.20000 -0.728
58.22000 2.295
58.24000 4.116
58.26000 1.538
58.28000 -1.084
58.30000 1.911
58.32000 2.130
58.34000 1.863
58.36000 1.734
58.38000 4.183
58.40000 1.919
58.42000 3.641
58.44000 4.029
58.46000 4.172
58.48000 2.534
58.50000 5.842
58.52000 6.507
58.54000 2.621
58.56000 3.355
58.58000 5.423
58.60000 6.048
58.62000 5.752
58.64000 3.459
58.66000 2.865
58.68000 3.569
58.70000 3.159
58.72000 1.319
58.74000 3.454
58.76000 7.063
58.78000 6.280
58.80000 4.167
58.82000 5.872
58.84000 4.011
58.86000 3.938
58.88000 4.749
58.90000 5.833
58.92000 7.009
58.94000 4.646
58.96000 5.487
58.98000 2.329
59.00000 -2.353
59.02000 -2.352
59.04000 -0.115
59.06000 2.445
59.08000 2.448
59.10000 3.677
59.12000 3.511
59.14000 9.253
59.16000 6.793
59.18000 4.785
59.20000 1.524
59.22000 3.317
59.24000 6.467
59.26000 5.876
59.28000 5.812
59.30000 6.025
59.32000 6.808
59.34000 3.950
59.36000 4.319
59.38000 3.615
59.40000 2.610
59.42000 5.343
59.44000 4.359
59.46000 6.702
59.48000 4.253
59.50000 3.458
59.52000 2.882
59.54000 3.746
59.56000 4.269
59.58000 5.224
59.60000 3.622
59.62000 6.103
59.64000 1.742
59.66000 0.048
59.68000 1.716
59.70000 2.876
59.72000 2.842
59.74000 5.519
59.76000 2.893
59.78000 1.913
59.80000 5.593
59.82000 5.064
59.84000 3.566
59.86000 4.537
59.88000 2.742
59.90000 4.281
59.92000 3.233
59.94000 2.522
59.96000 2.040
59.98000 0.206
60.00000 2.886
60.02000 5.444
60.04000 3.865
60.06000 2.475
60.08000 3.077
60.10000 2.906
60.12000 2.056
60.14000 1.597
60.16000 3.982
60.18000 1.827
60.20000 2.002
60.22000 3.416
60.24000 4.478
60.26000 4.155
60.28000 2.870
60.30000 3.100
60.32000 5.198
60.34000 2.907
60.36000 1.057
60.38000 4.836
60.40000 3.320
60.42000 1.567
60.44000 1.334
60.46000 3.588
60.48000 2.342
60.50000 2.838
60.52000 4.866
60.54000 5.112
60.56000 4.352
60.58000 0.911
60.60000 1.920
60.62000 4.104
60.64000 -2.327
60.66000 -0.130
60.68000 1.993
60.70000 3.732
60.72000 6.573
60.74000 4.711
60.76000 4.892
60.78000 3.039
60.80000 1.508
60.82000 1.700
60.84000 -1.222
60.86000 1.590
60.88000 2.656
60.90000 4.106
60.92000 5.201
60.94000 4.199
60.96000 1.785
60.98000 2.452
61.00000 3.140
61.02000 3.952
61.04000 2.707
61.06000 0.271
61.08000 -1.411
61.10000 0.658
61.12000 1.126
61.14000 0.068
61.16000 3.590
61.18000 3.028
61.20000 -0.139
61.22000 -0.891
61.24000 -1.413
61.26000 1.908
61.28000 -0.910
61.30000 -0.751
61.32000 0.461
61.34000 -0.641
61.36000 1.397
61.38000 -0.016
61.40000 1.756
61.42000 0.459
61.44000 0.691
61.46000 2.777
61.48000 0.901
61.50000 0.206
61.52000 1.677
61.54000 1.483
61.56000 -2.347
61.58000 -1.113
61.60000 -2.038
61.62000 -0.275
61.64000 -2.199
61.66000 -0.282
61.68000 -0.192
61.70000 0.025
61.72000 2.574
61.74000 3.295
61.76000 1.555
61.78000 0.433
61.80000 2.811
61.82000 2.689
61.84000 2.344
61.86000 2.949
61.88000 0.939
61.90000 4.948
61.92000 3.185
61.94000 2.321
61.96000 -0.137
61.98000 2.229
62.00000 2.422
62.02000 1.936
62.04000 1.543
62.06000 1.759
62.08000 3.401
62.10000 -1.583
62.12000 -1.722
62.14000 -1.102
62.16000 0.033
62.18000 -0.722
62.20000 0.496
62.22000 0.419
62.24000 1.756
62.26000 0.525
62.28000 0.037
62.30000 1.861
62.32000 2.876
62.34000 3.278
62.36000 3.321
62.38000 0.229
62.40000 1.196
62.42000 -0.517
62.44000 1.600
62.46000 2.611
62.48000 3.448
62.50000 3.824
62.52000 3.270
62.54000 1.805
62.56000 2.683
62.58000 1.118
62.60000 0.998
62.62000 -1.813
62.64000 -2.315
62.66000 0.610
62.68000 0.110
62.70000 3.566
62.72000 2.232
62.74000 0.533
62.76000 2.093
62.78000 3.838
62.80000 2.178
62.82000 2.694
62.84000 3.831
62.86000 -0.559
62.88000 1.090
62.90000 0.382
62.92000 -0.183
62.94000 0.886
62.96000 1.208
62.98000 2.148
63.00000 -2.331
63.02000 -1.646
63.04000 1.570
63.06000 2.554
63.08000 0.192
63.10000 3.203
63.12000 0.813
63.14000 -1.912
63.16000 -0.909
63.18000 1.663
63.20000 4.958
63.22000 3.417
63.24000 2.513
63.26000 -1.815
63.28000 -1.465
63.30000 1.236
63.32000 -0.039
63.34000 1.819
63.36000 -1.243
63.38000 0.152
63.40000 0.106
63.42000 -1.262
63.44000 -1.322
63.46000 0.682
63.48000 1.189
63.50000 2.561
63.52000 0.050
63.54000 2.078
63.56000 1.740
63.58000 -0.104
63.60000 -0.541
63.62000 1.920
63.64000 0.229
63.66000 0.739
63.68000 0.857
63.70000 1.135
63.72000 -0.581
63.74000 -1.697
63.76000 -1.026
63.78000 -0.134
63.80000 -0.936
63.82000 -0.871
63.84000 0.504
63.86000 0.709
63.88000 -0.540
63.90000 3.378
63.92000 0.640
63.94000 -0.844
63.96000 -0.645
63.98000 -0.708
64.00000 3.058
64.02000 1.223
64.04000 -0.785
64.06000 -0.928
64.08000 -1.953
64.10000 0.056
64.12000 1.852
64.14000 1.619
64.16000 0.797
64.18000 0.243
64.20000 1.857
64.22000 3.467
64.24000 -1.071
64.26000 -2.361
64.28000 -1.320
64.30000 -0.487
64.32000 1.744
64.34000 -1.168
64.36000 -0.202
64.38000 2.947
64.40000 1.797
64.42000 2.519
64.44000 -0.628
64.46000 -1.005
64.48000 0.469
64.50000 -0.590
64.52000 0.008
64.54000 3.644
64.56000 2.084
64.58000 1.576
64.60000 -2.180
64.62000 -2.349
64.64000 -0.218
64.66000 0.861
64.68000 -0.615
64.70000 -1.353
64.72000 -0.338
64.74000 2.057
64.76000 0.580
64.78000 5.031
64.80000 8.267
64.82000 5.870
64.84000 -1.425
64.86000 -1.518
64.88000 0.461
64.90000 0.643
64.92000 1.747
64.94000 1.087
64.96000 0.905
64.98000 1.123
65.00000 0.997
65.02000 2.279
65.04000 -0.253
65.06000 -1.912
65.08000 1.364
65.10000 3.681
65.12000 3.842
65.14000 0.786
65.16000 1.256
65.18000 0.649
65.20000 0.141
65.22000 4.100
65.24000 1.939
65.26000 1.866
65.28000 -2.344
65.30000 0.499
65.32000 3.016
65.34000 3.097
65.36000 3.687
65.38000 4.649
65.40000 2.263
65.42000 1.131
65.44000 0.943
65.46000 1.776
65.48000 4.857
65.50000 3.084
65.52000 5.785
65.54000 4.727
65.56000 2.809
65.58000 0.859
65.60000 0.523
65.62000 -1.392
65.64000 -1.699
65.66000 0.761
65.68000 0.060
65.70000 -2.357
65.72000 1.130
65.74000 4.531
65.76000 1.234
65.78000 -0.539
65.80000 0.734
65.82000 0.573
65.84000 2.357
65.86000 1.930
65.88000 0.385
65.90000 -0.746
65.92000 0.718
65.94000 2.720
65.96000 3.282
65.98000 0.447
66.00000 -2.368
66.02000 1.067
66.04000 1.770
66.06000 1.224
66.08000 -1.349
66.10000 1.475
66.12000 1.789
66.14000 -0.637
66.16000 1.963
66.18000 1.076
66.20000 0.066
66.22000 -1.055
66.24000 -2.382
66.26000 -0.224
66.28000 0.679
66.30000 3.332
66.32000 4.819
66.34000 2.443
66.36000 1.299
66.38000 3.886
66.40000 0.864
66.42000 2.316
66.44000 1.931
66.46000 3.165
66.48000 -0.362
66.50000 0.565
66.52000 -0.444
66.54000 0.026
66.56000 0.748
66.58000 0.340
66.60000 0.351
66.62000 1.875
66.64000 -0.736
66.66000 -2.403
66.68000 3.297
66.70000 0.386
66.72000 -0.235
66.74000 2.399
66.76000 1.503
66.78000 3.820
66.80000 3.629
66.82000 0.803
66.84000 -1.154
66.86000 2.853
66.88000 2.555
66.90000 2.094
66.92000 3.696
66.94000 1.789
66.96000 2.007
66.98000 3.335
67.00000 4.158
67.02000 6.213
67.04000 4.276
67.06000 2.943
67.08000 5.011
67.10000 3.445
67.12000 5.741
67.14000 5.611
67.16000 6.522
67.18000 6.288
67.20000 4.185
67.22000 5.093
67.24000 7.232
67.26000 7.501
67.28000 4.398
67.30000 6.868
67.32000 8.192
67.34000 9.895
67.36000 13.901
67.38000 14.236
67.40000 10.784
67.42000 8.958
67.44000 9.034
67.46000 9.675
67.48000 11.433
67.50000 13.217
67.52000 13.914
67.54000 13.041
67.56000 11.927
67.58000 15.990
67.60000 15.880
67.62000 14.375
67.64000 13.847
67.66000 13.541
67.68000 14.251
67.70000 14.564
67.72000 14.543
67.74000 15.098
67.76000 16.517
67.78000 14.601
67.80000 14.797
67.82000 18.572
67.84000 18.064
67.86000 18.582
67.88000 17.045
67.90000 13.757
67.92000 15.628
67.94000 16.278
67.96000 16.618
67.98000 18.276
68.00000 16.017
68.02000 16.001
68.04000 18.890
68.06000 18.433
68.08000 15.391
68.10000 16.873
68.12000 15.817
68.14000 16.258
68.16000 14.915
68.18000 15.640
68.20000 17.897
68.22000 15.127
68.24000 13.268
68.26000 14.264
68.28000 14.269
68.30000 12.551
68.32000 13.189
68.34000 13.698
68.36000 14.433
68.38000 12.216
68.40000 12.770
68.42000 10.259
68.44000 12.485
68.46000 11.277
68.48000 10.077
68.50000 7.231
68.52000 5.875
68.54000 7.346
68.56000 5.592
68.58000 2.618
68.60000 4.604
68.62000 3.935
68.64000 2.668
68.66000 2.898
68.68000 3.914
68.70000 7.475
68.72000 6.723
68.74000 6.008
68.76000 4.957
68.78000 3.787
68.80000 4.293
68.82000 2.910
68.84000 1.217
68.86000 -0.651
68.88000 1.690
68.90000 -0.740
68.92000 1.076
68.94000 1.726
68.96000 0.525
68.98000 2.184
69.00000 0.056
69.02000 -2.109
69.04000 -0.102
69.06000 3.197
69.08000 -2.061
69.10000 -0.811
69.12000 0.111
69.14000 -0.475
69.16000 1.090
69.18000 -0.485
69.20000 -0.515
69.22000 2.042
69.24000 1.935
69.26000 0.684
69.28000 0.855
69.30000 2.605
69.32000 1.448
69.34000 1.696
69.36000 -0.283
69.38000 -0.968
69.40000 -1.406
69.42000 -2.074
69.44000 3.272
69.46000 2.694
69.48000 1.248
69.50000 -0.205
69.52000 1.132
69.54000 1.230
69.56000 0.089
69.58000 2.444
69.60000 -0.761
69.62000 1.183
69.64000 3.723
69.66000 2.702
69.68000 1.759
69.70000 0.989
69.72000 -2.274
69.74000 -1.820
69.76000 0.959
69.78000 1.786
69.80000 1.582
69.82000 2.560
69.84000 0.087
69.86000 1.661
69.88000 2.279
69.90000 2.605
69.92000 1.603
69.94000 0.548
69.96000 -1.703
69.98000 -1.490
70.00000 1.291
70.02000 0.409
70.04000 -0.856
70.06000 -0.200
70.08000 1.375
70.10000 4.898
70.12000 1.477
70.14000 0.412
70.16000 0.591
70.18000 2.288
70.20000 -0.168
70.22000 -0.557
70.24000 -2.267
70.26000 0.863
70.28000 0.669
70.30000 -0.390
70.32000 2.438
70.34000 0.430
70.36000 1.985
70.38000 -0.475
70.40000 1.569
70.42000 0.187
70.44000 2.718
70.46000 1.642
70.48000 1.429
70.50000 0.020
70.52000 -1.363
70.54000 -1.472
70.56000 -1.554
70.58000 2.579
70.60000 2.405
70.62000 2.031
70.64000 0.079
70.66000 -0.410
70.68000 0.856
70.70000 0.318
70.72000 1.034
70.74000 4.618
70.76000 2.837
70.78000 -0.431
70.80000 -1.130
70.82000 1.175
70.84000 2.001
70.86000 2.055
70.88000 1.981
70.90000 1.097
70.92000 4.483
70.94000 1.793
70.96000 -0.785
70.98000 1.398
71.00000 2.281
71.02000 4.132
71.04000 5.215
71.06000 2.295
71.08000 -2.239
71.10000 -0.326
71.12000 -0.380
71.14000 -1.204
71.16000 -1.700
71.18000 -0.911
71.20000 -0.802
71.22000 1.706
71.24000 1.352
71.26000 1.942
71.28000 1.873
71.30000 -0.721
71.32000 -0.056
71.34000 -1.403
71.36000 -0.697
71.38000 -0.570
71.40000 -0.129
71.42000 -1.945
71.44000 -1.970
71.46000 1.630
71.48000 2.646
71.50000 0.896
71.52000 1.937
71.54000 -1.060
71.56000 -2.203
71.58000 1.074
71.60000 1.558
71.62000 0.429
71.64000 -0.280
71.66000 2.307
71.68000 3.304
71.70000 4.297
71.72000 2.629
71.74000 0.463
71.76000 4.996
71.78000 3.786
71.80000 1.217
71.82000 4.096
71.84000 3.865
71.86000 0.982
71.88000 5.318
71.90000 5.375
71.92000 4.608
71.94000 1.434
71.96000 -0.365
71.98000 1.042
72.00000 1.994
72.02000 5.266
72.04000 2.819
72.06000 4.535
72.08000 2.089
72.10000 1.844
72.12000 1.240
72.14000 -1.440
72.16000 4.473
72.18000 5.024
72.20000 4.730
72.22000 5.114
72.24000 4.482
72.26000 3.848
72.28000 3.296
72.30000 0.542
72.32000 -1.901
72.34000 -1.525
72.36000 6.599
72.38000 9.170
72.40000 3.483
72.42000 5.897
72.44000 -0.580
72.46000 -2.123
72.48000 -0.778
72.50000 3.083
72.52000 2.307
72.54000 6.252
72.56000 8.276
72.58000 7.761
72.60000 5.762
72.62000 5.396
72.64000 8.080
72.66000 5.849
72.68000 2.835
72.70000 2.993
72.72000 2.404
72.74000 2.848
72.76000 3.456
72.78000 0.448
72.80000 1.533
72.82000 4.899
72.84000 4.519
72.86000 7.690
72.88000 4.618
72.90000 2.384
72.92000 4.866
72.94000 2.357
72.96000 2.046
72.98000 4.394
73.00000 4.546
73.02000 3.268
73.04000 2.913
73.06000 1.916
73.08000 1.334
73.10000 -0.837
73.12000 2.590
73.14000 2.871
73.16000 2.957
73.18000 3.164
73.20000 2.271
73.22000 0.398
73.24000 -1.250
73.26000 0.703
73.28000 2.335
73.30000 4.485
73.32000 1.643
73.34000 1.879
73.36000 1.859
73.38000 1.390
73.40000 -0.681
73.42000 2.123
73.44000 2.449
73.46000 3.167
73.48000 3.516
73.50000 2.749
73.52000 3.130
73.54000 4.525
73.56000 4.145
73.58000 0.083
73.60000 1.280
73.62000 4.204
73.64000 6.148
73.66000 2.520
73.68000 1.019
73.70000 0.926
73.72000 -1.244
73.74000 -2.150
73.76000 1.519
73.78000 2.027
73.80000 1.346
73.82000 0.141
73.84000 0.576
73.86000 -1.745
73.88000 -1.045
73.90000 0.733
73.92000 3.308
73.94000 1.976
73.96000 2.275
73.98000 2.024
74.00000 4.394
74.02000 3.903
74.04000 1.804
74.06000 -0.184
74.08000 1.512
74.10000 -1.244
74.12000 0.086
74.14000 1.342
74.16000 1.829
74.18000 0.404
74.20000 0.617
74.22000 2.082
74.24000 3.028
74.26000 -0.448
74.28000 -2.159
74.30000 -0.793
74.32000 -0.367
74.34000 4.044
74.36000 1.026
74.38000 1.565
74.40000 3.558
74.42000 4.094
74.44000 3.426
74.46000 3.015
74.48000 -0.799
74.50000 0.484
74.52000 3.410
74.54000 5.942
74.56000 3.024
74.58000 0.449
74.60000 -0.268
74.62000 -0.495
74.64000 4.269
74.66000 3.573
74.68000 1.771
74.70000 -0.614
74.72000 1.297
74.74000 -0.966
74.76000 0.063
74.78000 2.544
74.80000 3.145
74.82000 4.120
74.84000 4.167
74.86000 3.232
74.88000 0.301
74.90000 3.405
74.92000 2.661
74.94000 1.389
74.96000 -0.175
74.98000 -2.153
75.00000 -0.794
75.02000 1.093
75.04000 3.949
75.06000 3.959
75.08000 1.613
75.10000 1.104
75.12000 2.328
75.14000 -0.127
75.16000 1.581
75.18000 3.057
75.20000 3.287
75.22000 6.363
75.24000 5.227
75.26000 -0.768
75.28000 4.049
75.30000 2.007
75.32000 0.401
75.34000 -0.749
75.36000 1.034
75.38000 2.993
75.40000 3.130
75.42000 2.113
75.44000 3.908
75.46000 1.754
75.48000 -0.038
75.50000 0.251
75.52000 -0.551
75.54000 0.558
75.56000 5.915
75.58000 4.764
75.60000 3.071
75.62000 1.788
75.64000 1.070
75.66000 0.385
75.68000 -0.441
75.70000 4.680
75.72000 2.779
75.74000 4.906
75.76000 -0.308
75.78000 1.237
75.80000 3.163
75.82000 2.975
75.84000 3.760
75.86000 -0.072
75.88000 -0.315
75.90000 -1.889
75.92000 1.718
75.94000 1.420
75.96000 4.907
75.98000 4.459
76.00000 3.089
76.02000 3.540
76.04000 1.971
76.06000 -2.143
76.08000 1.066
76.10000 2.413
76.12000 3.723
76.14000 -0.588
76.16000 -0.234
76.18000 2.673
76.20000 3.255
76.22000 3.453
76.24000 3.708
76.26000 4.685
76.28000 0.883
76.30000 1.609
76.32000 1.463
76.34000 -0.397
76.36000 0.031
76.38000 0.483
76.40000 -0.469
76.42000 0.194
76.44000 5.842
76.46000 2.182
76.48000 4.960
76.50000 4.461
76.52000 1.886
76.54000 2.408
76.56000 4.532
76.58000 3.163
76.60000 3.970
76.62000 0.992
76.64000 -0.625
76.66000 -0.849
76.68000 2.945
76.70000 2.466
76.72000 2.779
76.74000 -0.358
76.76000 0.500
76.78000 -2.170
76.80000 -0.054
76.82000 -1.156
76.84000 0.906
76.86000 0.098
76.88000 4.498
76.90000 2.945
76.92000 2.253
76.94000 3.024
76.96000 -0.162
76.98000 0.274
77.00000 3.437
77.02000 4.263
77.04000 2.268
77.06000 5.028
77.08000 1.027
77.10000 2.794
77.12000 1.930
77.14000 1.256
77.16000 3.855
77.18000 5.288
77.20000 3.068
77.22000 -0.830
77.24000 2.318
77.26000 3.708
77.28000 -0.111
77.30000 0.091
77.32000 -1.923
77.34000 -2.188
77.36000 4.396
77.38000 3.611
77.40000 2.668
77.42000 -0.094
77.44000 0.745
77.46000 0.262
77.48000 1.404
77.50000 -1.983
77.52000 -0.332
77.54000 -0.886
77.56000 -0.306
77.58000 1.842
77.60000 2.181
77.62000 -1.562
77.64000 -1.365
77.66000 0.710
77.68000 2.190
77.70000 3.285
77.72000 3.686
77.74000 -0.700
77.76000 -2.206
77.78000 2.586
77.80000 1.566
77.82000 3.133
77.84000 0.140
77.86000 -1.536
77.88000 4.342
77.90000 7.704
77.92000 7.419
77.94000 4.768
77.96000 1.782
77.98000 -0.017
78.00000 0.998
78.02000 3.879
78.04000 4.427
78.06000 1.700
78.08000 4.716
78.10000 5.814
78.12000 5.980
78.14000 2.121
78.16000 2.564
78.18000 3.007
78.20000 -0.998
78.22000 -2.197
78.24000 -1.147
78.26000 0.319
78.28000 1.962
78.30000 0.451
78.32000 0.338
78.34000 -0.194
78.36000 0.398
78.38000 5.127
78.40000 3.620
78.42000 2.808
78.44000 3.665
78.46000 3.342
78.48000 1.649
78.50000 -0.438
78.52000 0.059
78.54000 -0.413
78.56000 -2.192
78.58000 1.793
78.60000 2.447
78.62000 1.054
78.64000 1.325
78.66000 0.035
78.68000 -1.189
78.70000 1.247
78.72000 2.190
78.74000 0.627
78.76000 1.163
78.78000 3.699
78.80000 3.788
78.82000 0.151
78.84000 -1.020
78.86000 -1.413
78.88000 2.388
78.90000 4.540
78.92000 2.415
78.94000 2.086
78.96000 -0.728
78.98000 -0.056
79.00000 2.978
79.02000 1.770
79.04000 1.495
79.06000 -0.685
79.08000 2.213
79.10000 0.976
79.12000 -0.840
79.14000 -1.590
79.16000 -0.465
79.18000 1.268
79.20000 2.186
79.22000 -1.200
79.24000 0.757
79.26000 3.402
79.28000 4.437
79.30000 3.540
79.32000 0.172
79.34000 -1.057
79.36000 1.728
79.38000 -1.171
79.40000 1.681
79.42000 2.329
79.44000 3.482
79.46000 0.248
79.48000 0.239
79.50000 -1.080
79.52000 -1.729
79.54000 1.259
79.56000 2.859
79.58000 2.535
79.60000 2.888
79.62000 -0.275
79.64000 -2.265
79.66000 -0.077
79.68000 2.679
79.70000 2.285
79.72000 1.534
79.74000 1.376
79.76000 1.984
79.78000 2.438
79.80000 0.832
79.82000 0.893
79.84000 1.932
79.86000 1.017
79.88000 -0.151
79.90000 1.999
79.92000 3.380
79.94000 2.180
79.96000 2.469
79.98000 1.441
80.00000 -1.528
80.02000 -0.922
80.04000 0.776
80.06000 0.356
80.08000 3.867
80.10000 2.661
80.12000 4.462
80.14000 4.221
80.16000 3.933
80.18000 6.163
80.20000 4.122
80.22000 5.284
80.24000 1.188
80.26000 1.534
80.28000 -0.343
80.30000 2.206
80.32000 -2.299
80.34000 -0.380
80.36000 2.133
80.38000 -0.537
80.40000 3.494
80.42000 1.618
80.44000 -0.869
80.46000 1.072
80.48000 4.182
80.50000 4.255
80.52000 2.101
80.54000 1.997
80.56000 5.540
80.58000 5.390
80.60000 2.729
80.62000 4.685
80.64000 8.356
80.66000 9.667
80.68000 8.251
80.70000 5.564
80.72000 2.666
80.74000 3.039
80.76000 5.641
80.78000 6.135
80.80000 9.586
80.82000 8.967
80.84000 6.053
80.86000 3.474
80.88000 1.921
80.90000 5.663
80.92000 6.458
80.94000 6.708
80.96000 7.547
80.98000 10.772
81.00000 9.340
81.02000 9.808
81.04000 12.999
81.06000 14.267
81.08000 14.677
81.10000 10.548
81.12000 9.413
81.14000 6.271
81.16000 11.597
81.18000 13.487
81.20000 11.301
81.22000 10.991
81.24000 11.462
81.26000 15.847
81.28000 13.669
81.30000 14.991
81.32000 14.933
81.34000 12.498
81.36000 11.928
81.38000 12.944
81.40000 9.846
81.42000 11.855
81.44000 13.464
81.46000 14.773
81.48000 17.045
81.50000 21.984
81.52000 19.413
81.54000 16.067
81.56000 21.318
81.58000 19.252
81.60000 17.482
81.62000 22.602
81.64000 20.599
81.66000 15.559
81.68000 20.401
81.70000 25.559
81.72000 24.551
81.74000 20.671
81.76000 20.434
81.78000 21.775
81.80000 19.009
81.82000 24.781
81.84000 28.019
81.86000 27.549
81.88000 23.424
81.90000 24.331
81.92000 26.364
81.94000 27.708
81.96000 21.658
81.98000 20.234
82.00000 22.019
82.02000 22.437
82.04000 25.827
82.06000 27.975
82.08000 26.200
82.10000 28.784
82.12000 28.654
82.14000 26.983
82.16000 22.611
82.18000 24.225
82.20000 25.201
82.22000 25.130
82.24000 23.274
82.26000 22.568
82.28000 26.176
82.30000 19.793
82.32000 16.668
82.34000 22.126
82.36000 20.589
82.38000 19.699
82.40000 20.985
82.42000 23.602
82.44000 17.906
82.46000 21.838
82.48000 21.386
82.50000 23.672
82.52000 20.210
82.54000 13.868
82.56000 14.086
82.58000 17.535
82.60000 12.844
82.62000 14.906
82.64000 15.216
82.66000 14.459
82.68000 14.170
82.70000 13.340
82.72000 10.476
82.74000 12.294
82.76000 17.415
82.78000 15.116
82.80000 11.364
82.82000 10.791
82.84000 11.782
82.86000 9.487
82.88000 5.689
82.90000 7.590
82.92000 6.998
82.94000 9.260
82.96000 10.212
82.98000 7.547
83.00000 10.488
83.02000 8.138
83.04000 4.182
83.06000 1.493
83.08000 6.524
83.10000 6.222
83.12000 7.284
83.14000 12.885
83.16000 12.595
83.18000 4.487
83.20000 1.714
83.22000 3.487
83.24000 6.146
83.26000 5.722
83.28000 6.103
83.30000 3.857
83.32000 2.603
83.34000 1.510
83.36000 2.842
83.38000 4.538
83.40000 4.324
83.42000 3.584
83.44000 3.536
83.46000 6.009
83.48000 7.196
83.50000 4.426
83.52000 2.800
83.54000 2.676
83.56000 0.270
83.58000 2.027
83.60000 -2.231
83.62000 -2.302
83.64000 -0.063
83.66000 3.380
83.68000 3.356
83.70000 1.078
83.72000 1.781
83.74000 2.316
83.76000 5.551
83.78000 1.992
83.80000 4.694
83.82000 3.747
83.84000 2.185
83.86000 2.780
83.88000 -1.062
83.90000 -1.328
83.92000 -0.697
83.94000 -0.282
83.96000 -0.922
83.98000 0.383
84.00000 1.310
84.02000 -0.849
84.04000 1.238
84.06000 3.898
84.08000 4.153
84.10000 3.452
84.12000 5.649
84.14000 3.564
84.16000 3.984
84.18000 -2.061
84.20000 -2.243
84.22000 1.165
84.24000 0.830
84.26000 -0.043
84.28000 0.031
84.30000 -1.404
84.32000 0.328
84.34000 3.172
84.36000 3.651
84.38000 3.672
84.40000 1.613
84.42000 -0.134
84.44000 -1.335
84.46000 0.981
84.48000 2.504
84.50000 -1.600
84.52000 0.585
84.54000 1.626
84.56000 7.039
84.58000 5.046
84.60000 2.316
84.62000 4.474
84.64000 3.622
84.66000 -1.288
84.68000 -1.865
84.70000 0.174
84.72000 -1.636
84.74000 0.328
84.76000 3.170
84.78000 2.785
84.80000 2.530
84.82000 6.563
84.84000 6.398
84.86000 6.285
84.88000 4.457
84.90000 -0.066
84.92000 -2.264
84.94000 -0.619
84.96000 0.897
84.98000 3.598
85.00000 5.383
85.02000 2.468
85.04000 7.909
85.06000 10.888
85.08000 10.338
85.10000 4.739
85.12000 0.601
85.14000 6.333
85.16000 7.069
85.18000 5.199
85.20000 7.322
85.22000 9.406
85.24000 6.792
85.26000 5.923
85.28000 4.671
85.30000 6.500
85.32000 6.974
85.34000 4.031
85.36000 8.570
85.38000 8.380
85.40000 10.906
85.42000 10.308
85.44000 9.717
85.46000 9.014
85.48000 12.399
85.50000 10.468
85.52000 10.048
85.54000 6.843
85.56000 11.963
85.58000 10.895
85.60000 11.745
85.62000 8.408
85.64000 10.511
85.66000 13.448
85.68000 9.518
85.70000 10.372
85.72000 15.530
85.74000 12.226
85.76000 13.935
85.78000 15.863
85.80000 15.595
85.82000 16.894
85.84000 19.402
85.86000 18.414
85.88000 15.711
85.90000 16.982
85.92000 16.583
85.94000 16.183
85.96000 16.200
85.98000 16.274
86.00000 15.493
86.02000 18.751
86.04000 22.314
86.06000 23.891
86.08000 20.646
86.10000 17.032
86.12000 14.567
86.14000 16.907
86.16000 13.726
86.18000 17.652
86.20000 20.497
86.22000 18.948
86.24000 19.967
86.26000 17.984
86.28000 17.643
86.30000 18.116
86.32000 18.557
86.34000 20.411
86.36000 20.733
86.38000 23.268
86.40000 19.651
86.42000 17.088
86.44000 18.852
86.46000 19.720
86.48000 22.142
86.50000 19.538
86.52000 16.610
86.54000 18.383
86.56000 18.175
86.58000 17.518
86.60000 16.636
86.62000 14.013
86.64000 10.364
86.66000 9.862
86.68000 12.886
86.70000 9.038
86.72000 8.266
86.74000 10.445
86.76000 9.188
86.78000 12.634
86.80000 14.268
86.82000 8.216
86.84000 6.471
86.86000 6.242
86.88000 8.387
86.90000 9.643
86.92000 9.497
86.94000 7.837
86.96000 10.141
86.98000 9.974
87.00000 11.637
87.02000 7.485
87.04000 1.090
87.06000 0.069
87.08000 3.915
87.10000 5.965
87.12000 7.248
87.14000 6.004
87.16000 4.711
87.18000 5.045
87.20000 7.738
87.22000 7.681
87.24000 1.151
87.26000 4.724
87.28000 0.115
87.30000 -0.359
87.32000 4.073
87.34000 4.854
87.36000 2.421
87.38000 0.735
87.40000 0.617
87.42000 5.275
87.44000 5.295
87.46000 4.444
87.48000 0.499
87.50000 1.170
87.52000 4.624
87.54000 5.745
87.56000 2.817
87.58000 0.046
87.60000 1.301
87.62000 4.044
87.64000 3.139
87.66000 2.020
87.68000 -0.302
87.70000 -1.172
87.72000 2.873
87.74000 2.844
87.76000 4.837
87.78000 3.529
87.80000 -0.208
87.82000 1.599
87.84000 1.721
87.86000 2.598
87.88000 3.695
87.90000 2.873
87.92000 4.448
87.94000 3.090
87.96000 3.421
87.98000 -0.202
88.00000 -2.052
88.02000 1.363
88.04000 3.495
88.06000 0.773
88.08000 2.509
88.10000 3.481
88.12000 5.920
88.14000 8.007
88.16000 2.913
88.18000 3.251
88.20000 4.228
88.22000 3.263
88.24000 3.649
88.26000 3.454
88.28000 1.732
88.30000 -2.041
88.32000 -0.380
88.34000 3.673
88.36000 4.807
88.38000 5.492
88.40000 4.440
88.42000 6.708
88.44000 3.685
88.46000 3.597
88.48000 1.691
88.50000 -2.044
88.52000 -1.603
88.54000 1.378
88.56000 2.489
88.58000 2.743
88.60000 4.138
88.62000 7.403
88.64000 6.339
88.66000 4.766
88.68000 12.166
88.70000 5.022
88.72000 1.453
88.74000 0.670
88.76000 -2.045
88.78000 -0.233
88.80000 1.480
88.82000 2.981
88.84000 6.746
88.86000 2.562
88.88000 1.421
88.90000 3.230
88.92000 2.084
88.94000 2.688
88.96000 1.362
88.98000 3.242
89.00000 4.093
89.02000 2.513
89.04000 1.045
89.06000 4.187
89.08000 0.272
89.10000 -0.339
89.12000 0.998
89.14000 -0.271
89.16000 1.742
89.18000 2.633
89.20000 3.922
89.22000 -0.652
89.24000 -1.876
89.26000 -1.915
89.28000 1.982
89.30000 2.695
89.32000 5.751
89.34000 1.060
89.36000 3.040
89.38000 6.129
89.40000 4.424
89.42000 5.082
89.44000 4.435
89.46000 3.181
89.48000 2.010
89.50000 3.951
89.52000 4.805
89.54000 5.059
89.56000 4.159
89.58000 0.990
89.60000 0.653
89.62000 3.601
89.64000 5.175
89.66000 1.585
89.68000 0.708
89.70000 -1.033
89.72000 -0.494
89.74000 2.066
89.76000 1.416
89.78000 5.229
89.80000 3.336
89.82000 5.448
89.84000 6.928
89.86000 3.219
89.88000 0.014
89.90000 -1.988
89.92000 1.992
89.94000 3.798
89.96000 2.757
89.98000 3.254
90.00000 3.293
90.02000 3.232
90.04000 4.683
90.06000 3.683
90.08000 3.226
90.10000 2.447
90.12000 -1.665
90.14000 -1.235
90.16000 0.798
90.18000 0.360
90.20000 -1.211
90.22000 2.099
90.24000 5.168
90.26000 6.046
90.28000 2.778
90.30000 -0.274
90.32000 -1.103
90.34000 -0.192
90.36000 0.405
90.38000 3.664
90.40000 5.438
90.42000 3.974
90.44000 4.598
90.46000 8.451
90.48000 7.075
90.50000 0.423
90.52000 -0.535
90.54000 1.606
90.56000 0.084
90.58000 -0.040
90.60000 -1.643
90.62000 -0.309
90.64000 0.478
90.66000 6.266
90.68000 6.889
90.70000 8.551
90.72000 4.710
90.74000 2.583
90.76000 2.593
90.78000 2.961
90.80000 3.066
90.82000 -0.988
90.84000 1.240
90.86000 2.723
90.88000 0.686
90.90000 1.438
90.92000 -0.586
90.94000 -2.035
90.96000 0.687
90.98000 2.990
91.00000 1.605
91.02000 0.488
91.04000 0.977
91.06000 -1.966
91.08000 1.881
91.10000 -0.656
91.12000 -1.517
91.14000 2.000
91.16000 1.755
91.18000 0.480
91.20000 5.242
91.22000 -0.849
91.24000 2.122
91.26000 4.149
91.28000 5.178
91.30000 2.246
91.32000 1.709
91.34000 4.561
91.36000 2.714
91.38000 -0.041
91.40000 1.626
91.42000 4.417
91.44000 6.640
91.46000 1.490
91.48000 1.545
91.50000 2.938
91.52000 9.940
91.54000 2.768
91.56000 2.158
91.58000 4.446
91.60000 -1.838
91.62000 -2.039
91.64000 1.330
91.66000 2.499
91.68000 4.427
91.70000 3.187
91.72000 3.746
91.74000 1.994
91.76000 0.442
91.78000 -2.036
91.80000 -1.424
91.82000 1.725
91.84000 0.698
91.86000 3.236
91.88000 0.385
91.90000 0.873
91.92000 3.504
91.94000 3.868
91.96000 5.681
91.98000 3.546
92.00000 2.578
92.02000 -1.642
92.04000 -0.124
92.06000 2.799
92.08000 1.271
92.10000 2.089
92.12000 -0.673
92.14000 4.203
92.16000 3.504
92.18000 0.617
92.20000 1.551
92.22000 0.048
92.24000 4.226
92.26000 4.936
92.28000 2.553
92.30000 2.396
92.32000 2.792
92.34000 5.103
92.36000 2.525
92.38000 2.702
92.40000 5.133
92.42000 2.064
92.44000 -0.234
92.46000 3.692
92.48000 4.529
92.50000 2.813
92.52000 3.232
92.54000 2.148
92.56000 2.162
92.58000 1.710
92.60000 1.884
92.62000 -1.912
92.64000 -2.048
92.66000 -0.027
92.68000 1.067
92.70000 4.395
92.72000 3.391
92.74000 3.638
92.76000 4.012
92.78000 2.462
92.80000 2.354
92.82000 0.305
92.84000 -0.631
92.86000 -0.534
92.88000 2.304
92.90000 3.839
92.92000 1.720
92.94000 2.250
92.96000 2.705
92.98000 -0.400
93.00000 4.175
93.02000 6.577
93.04000 4.693
93.06000 1.839
93.08000 2.140
93.10000 0.391
93.12000 0.190
93.14000 -0.147
93.16000 3.238
93.18000 1.016
93.20000 -0.433
93.22000 0.923
93.24000 2.316
93.26000 -0.492
93.28000 4.847
93.30000 7.030
93.32000 5.236
93.34000 3.957
93.36000 2.873
93.38000 -0.761
93.40000 4.699
93.42000 8.259
93.44000 4.078
93.46000 1.347
93.48000 -1.574
93.50000 4.768
93.52000 6.473
93.54000 4.504
93.56000 3.618
93.58000 -0.717
93.60000 0.746
93.62000 3.470
93.64000 7.131
93.66000 6.528
93.68000 7.579
93.70000 8.277
93.72000 8.838
93.74000 12.594
93.76000 4.093
93.78000 -2.026
93.80000 4.799
93.82000 4.853
93.84000 2.604
93.86000 -0.001
93.88000 1.016
93.90000 2.854
93.92000 2.683
93.94000 5.313
93.96000 3.113
93.98000 3.387
94.00000 2.179
94.02000 0.404
94.04000 3.030
94.06000 5.099
94.08000 3.952
94.10000 1.197
94.12000 -0.044
94.14000 4.672
94.16000 5.750
94.18000 -0.203
94.20000 4.332
94.22000 5.551
94.24000 5.360
94.26000 6.689
94.28000 2.725
94.30000 -1.363
94.32000 1.301
94.34000 1.429
94.36000 0.967
94.38000 1.319
94.40000 5.011
94.42000 1.074
94.44000 -0.294
94.46000 1.419
94.48000 4.118
94.50000 2.609
94.52000 -0.779
94.54000 1.503
94.56000 2.993
94.58000 -2.060
94.60000 1.970
94.62000 3.512
94.64000 3.474
94.66000 7.199
94.68000 1.876
94.70000 -1.577
94.72000 3.510
94.74000 2.781
94.76000 4.002
94.78000 1.474
94.80000 3.374
94.82000 4.166
94.84000 3.643
94.86000 4.424
94.88000 3.989
94.90000 3.631
94.92000 3.870
94.94000 3.069
94.96000 6.805
94.98000 5.295
95.00000 7.284
95.02000 6.920
95.04000 1.958
95.06000 0.458
95.08000 3.787
95.10000 6.618
95.12000 6.446
95.14000 3.285
95.16000 -1.451
95.18000 0.949
95.20000 5.172
95.22000 -0.533
95.24000 -1.228
95.26000 3.339
95.28000 1.768
95.30000 4.310
95.32000 1.489
95.34000 0.989
95.36000 3.904
95.38000 4.236
95.40000 5.330
95.42000 -0.063
95.44000 -1.602
95.46000 1.331
95.48000 0.478
95.50000 -1.612
95.52000 -0.258
95.54000 -0.706
95.56000 1.397
95.58000 2.714
95.60000 2.580
95.62000 2.496
95.64000 2.125
95.66000 4.261
95.68000 6.048
95.70000 2.947
95.72000 -0.232
95.74000 0.057
95.76000 -1.385
95.78000 0.258
95.80000 4.066
95.82000 -0.189
95.84000 2.777
95.86000 7.173
95.88000 6.546
95.90000 7.436
95.92000 1.933
95.94000 4.206
95.96000 7.310
95.98000 1.472
96.00000 -2.056
96.02000 0.853
96.04000 2.522
96.06000 5.228
96.08000 2.037
96.10000 3.004
96.12000 4.780
96.14000 4.244
96.16000 0.216
96.18000 2.889
96.20000 2.562
96.22000 7.968
96.24000 7.059
96.26000 4.577
96.28000 2.262
96.30000 -0.631
96.32000 -1.820
96.34000 4.500
96.36000 4.626
96.38000 7.397
96.40000 8.923
96.42000 2.605
96.44000 7.370
96.46000 8.768
96.48000 7.935
96.50000 6.179
96.52000 3.291
96.54000 6.799
96.56000 8.353
96.58000 1.917
96.60000 2.875
96.62000 3.599
96.64000 5.644
96.66000 3.589
96.68000 3.333
96.70000 6.255
96.72000 7.138
96.74000 8.088
96.76000 9.051
96.78000 2.366
96.80000 -0.595
96.82000 4.422
96.84000 12.809
96.86000 10.085
96.88000 1.286
96.90000 -2.026
96.92000 -0.238
96.94000 0.703
96.96000 2.916
96.98000 5.174
97.00000 0.233
97.02000 3.947
97.04000 5.210
97.06000 1.619
97.08000 -0.854
97.10000 -1.290
97.12000 2.452
97.14000 -1.779
97.16000 -1.366
97.18000 0.858
97.20000 1.653
97.22000 4.394
97.24000 2.600
97.26000 4.310
97.28000 4.321
97.30000 1.218
97.32000 5.002
97.34000 1.348
97.36000 4.340
97.38000 5.217
97.40000 1.320
97.42000 4.410
97.44000 4.794
97.46000 2.302
97.48000 1.824
97.50000 4.878
97.52000 4.059
97.54000 4.228
97.56000 3.250
97.58000 3.087
97.60000 -0.521
97.62000 1.257
97.64000 1.158
97.66000 1.698
97.68000 -0.332
97.70000 2.085
97.72000 6.993
97.74000 4.190
97.76000 0.482
97.78000 0.952
97.80000 5.718
97.82000 3.611
97.84000 2.517
97.86000 5.209
97.88000 3.288
97.90000 0.284
97.92000 -0.482
97.94000 -2.050
97.96000 0.980
97.98000 0.743
98.00000 4.481
98.02000 2.310
98.04000 1.010
98.06000 -1.296
98.08000 -1.768
98.10000 3.165
98.12000 7.722
98.14000 5.436
98.16000 7.536
98.18000 3.197
98.20000 2.657
98.22000 -0.926
98.24000 0.464
98.26000 -0.027
98.28000 3.315
98.30000 5.407
98.32000 2.206
98.34000 -0.956
98.36000 -1.776
98.38000 6.322
98.40000 5.501
98.42000 7.691
98.44000 5.640
98.46000 11.007
98.48000 1.389
98.50000 -2.039
98.52000 -0.582
98.54000 7.920
98.56000 -1.628
98.58000 1.166
98.60000 3.861
98.62000 4.037
98.64000 4.466
98.66000 0.451
98.68000 0.877
98.70000 0.529
98.72000 -0.732
98.74000 -0.478
98.76000 9.793
98.78000 5.419
98.80000 5.165
98.82000 8.093
98.84000 4.735
98.86000 2.935
98.88000 3.865
98.90000 6.612
98.92000 9.651
98.94000 3.709
98.96000 -0.982
98.98000 3.008
99.00000 8.261
99.02000 11.900
99.04000 10.726
99.06000 -0.730
99.08000 1.510
99.10000 3.844
99.12000 8.108
99.14000 10.810
99.16000 0.547
99.18000 9.362
99.20000 8.281
99.22000 -0.824
99.24000 -1.984
99.26000 6.881
99.28000 3.533
99.30000 5.286
99.32000 5.978
99.34000 12.198
99.36000 1.076
99.38000 4.682
99.40000 -0.597
99.42000 3.501
99.44000 -0.735
99.46000 4.332
99.48000 -2.027
99.50000 3.633
99.52000 5.183
99.54000 3.593
99.56000 8.093
99.58000 4.681
99.60000 3.350
99.62000 1.100
99.64000 11.192
99.66000 1.524
99.68000 7.760
99.70000 10.977
99.72000 3.641
99.74000 4.234
99.76000 11.169
99.78000 1.190
99.80000 -2.077
99.82000 0.934
99.84000 2.415
99.86000 3.588
99.88000 4.464
99.90000 5.378
99.92000 2.731
99.94000 7.707
99.96000 -2.398
99.98000 0.000
