'Id: "0011387" Comment: "Integrate frame 0011387_Au-Ir-Rh_Rh-rich_XRD-Mapping-198-0000.gfrmwith cursor Wedge Cursor #5" Operator: "B?rgel" Anode: "Cu" Wavelength: "1.5406" Scantype: "2Theta (TwoTheta)" TimePerStep: "1" X: "45" Y: "4.5" Z: "5.95" 
10.00000 0.000
10.02000 -2.703
10.04000 -1.039
10.06000 -2.639
10.08000 7.975
10.10000 10.329
10.12000 2.275
10.14000 6.392
10.16000 7.978
10.18000 10.978
10.20000 16.892
10.22000 5.452
10.24000 8.034
10.26000 17.166
10.28000 16.911
10.30000 14.780
10.32000 12.055
10.34000 20.215
10.36000 30.440
10.38000 25.251
10.40000 13.090
10.42000 22.656
10.44000 21.298
10.46000 23.858
10.48000 18.149
10.50000 19.173
10.52000 23.360
10.54000 15.610
10.56000 19.209
10.58000 25.921
10.60000 25.131
10.62000 29.918
10.64000 22.196
10.66000 18.218
10.68000 17.959
10.70000 26.093
10.72000 24.755
10.74000 25.590
10.76000 24.695
10.78000 21.083
10.80000 26.764
10.82000 29.218
10.84000 25.268
10.86000 38.168
10.88000 35.232
10.90000 29.542
10.92000 27.094
10.94000 29.000
10.96000 38.339
10.98000 37.181
11.00000 33.126
11.02000 34.689
11.04000 34.905
11.06000 39.803
11.08000 45.989
11.10000 41.651
11.12000 40.821
11.14000 38.978
11.16000 40.231
11.18000 43.511
11.20000 45.743
11.22000 48.463
11.24000 54.067
11.26000 51.323
11.28000 47.266
11.30000 47.324
11.32000 53.146
11.34000 40.256
11.36000 37.851
11.38000 49.187
11.40000 59.067
11.42000 51.387
11.44000 51.804
11.46000 49.497
11.48000 47.746
11.50000 46.051
11.52000 45.773
11.54000 48.161
11.56000 45.069
11.58000 49.797
11.60000 45.683
11.62000 51.481
11.64000 54.028
11.66000 48.605
11.68000 47.699
11.70000 41.132
11.72000 57.595
11.74000 57.732
11.76000 50.636
11.78000 52.288
11.80000 54.743
11.82000 51.541
11.84000 54.275
11.86000 56.132
11.88000 55.538
11.90000 60.786
11.92000 57.792
11.94000 63.538
11.96000 56.328
11.98000 60.091
12.00000 63.265
12.02000 61.185
12.04000 54.847
12.06000 48.015
12.08000 52.221
12.10000 56.140
12.12000 67.260
12.14000 64.265
12.16000 64.496
12.18000 61.689
12.20000 61.460
12.22000 65.630
12.24000 70.703
12.26000 59.545
12.28000 62.040
12.30000 65.401
12.32000 62.368
12.34000 68.647
12.36000 59.448
12.38000 60.047
12.40000 69.271
12.42000 67.205
12.44000 63.165
12.46000 52.374
12.48000 60.839
12.50000 61.748
12.52000 66.154
12.54000 64.124
12.56000 66.260
12.58000 68.154
12.60000 62.316
12.62000 59.536
12.64000 63.193
12.66000 60.244
12.68000 63.304
12.70000 59.132
12.72000 65.885
12.74000 71.328
12.76000 71.173
12.78000 76.967
12.80000 74.925
12.82000 70.074
12.84000 68.187
12.86000 64.262
12.88000 54.705
12.90000 67.763
12.92000 65.067
12.94000 57.234
12.96000 64.697
12.98000 72.136
13.00000 73.380
13.02000 69.945
13.04000 71.416
13.06000 61.344
13.08000 58.225
13.10000 59.480
13.12000 60.048
13.14000 65.453
13.16000 66.336
13.18000 66.436
13.20000 67.505
13.22000 74.062
13.24000 66.636
13.26000 59.563
13.28000 65.424
13.30000 62.937
13.32000 59.234
13.34000 57.919
13.36000 63.053
13.38000 66.603
13.40000 67.028
13.42000 70.988
13.44000 65.354
13.46000 66.619
13.48000 73.175
13.50000 67.613
13.52000 57.660
13.54000 68.758
13.56000 66.028
13.58000 51.764
13.60000 53.630
13.62000 60.109
13.64000 62.784
13.66000 68.655
13.68000 67.854
13.70000 64.382
13.72000 64.766
13.74000 63.906
13.76000 65.721
13.78000 69.468
13.80000 66.105
13.82000 60.330
13.84000 55.856
13.86000 65.816
13.88000 61.003
13.90000 57.196
13.92000 56.281
13.94000 61.314
13.96000 62.913
13.98000 67.617
14.00000 56.153
14.02000 51.764
14.04000 46.060
14.06000 45.787
14.08000 54.538
14.10000 54.570
14.12000 49.052
14.14000 43.698
14.16000 48.633
14.18000 67.807
14.20000 61.053
14.22000 53.367
14.24000 57.699
14.26000 59.189
14.28000 65.205
14.30000 63.681
14.32000 51.436
14.34000 57.738
14.36000 51.809
14.38000 55.813
14.40000 54.210
14.42000 52.353
14.44000 47.579
14.46000 46.159
14.48000 43.583
14.50000 41.723
14.52000 54.952
14.54000 60.766
14.56000 44.739
14.58000 40.464
14.60000 42.664
14.62000 45.789
14.64000 45.824
14.66000 49.574
14.68000 47.609
14.70000 44.987
14.72000 44.887
14.74000 42.506
14.76000 47.893
14.78000 47.910
14.80000 45.605
14.82000 43.616
14.84000 47.620
14.86000 44.957
14.88000 44.155
14.90000 51.823
14.92000 47.353
14.94000 44.249
14.96000 45.660
14.98000 50.434
15.00000 46.561
15.02000 42.480
15.04000 43.415
15.06000 45.167
15.08000 46.186
15.10000 46.018
15.12000 39.598
15.14000 40.219
15.16000 40.780
15.18000 37.722
15.20000 35.683
15.22000 42.601
15.24000 44.101
15.26000 49.867
15.28000 46.863
15.30000 39.386
15.32000 41.639
15.34000 47.097
15.36000 40.843
15.38000 32.570
15.40000 31.525
15.42000 37.995
15.44000 38.885
15.46000 36.085
15.48000 41.286
15.50000 42.696
15.52000 34.879
15.54000 30.728
15.56000 43.155
15.58000 39.834
15.60000 35.167
15.62000 31.375
15.64000 33.701
15.66000 31.007
15.68000 41.197
15.70000 36.132
15.72000 36.051
15.74000 39.072
15.76000 38.246
15.78000 40.807
15.80000 36.809
15.82000 33.351
15.84000 48.470
15.86000 45.993
15.88000 39.000
15.90000 33.339
15.92000 28.969
15.94000 35.456
15.96000 35.585
15.98000 35.016
16.00000 32.638
16.02000 31.600
16.04000 35.396
16.06000 29.374
16.08000 29.243
16.10000 31.527
16.12000 31.643
16.14000 26.795
16.16000 27.526
16.18000 30.014
16.20000 33.944
16.22000 27.565
16.24000 21.398
16.26000 17.006
16.28000 15.599
16.30000 27.257
16.32000 25.695
16.34000 20.018
16.36000 32.020
16.38000 35.882
16.40000 40.740
16.42000 36.829
16.44000 23.670
16.46000 20.846
16.48000 29.159
16.50000 28.402
16.52000 28.864
16.54000 35.782
16.56000 32.259
16.58000 20.411
16.60000 22.808
16.62000 25.325
16.64000 22.536
16.66000 27.471
16.68000 30.207
16.70000 24.967
16.72000 28.629
16.74000 22.016
16.76000 18.313
16.78000 18.516
16.80000 31.603
16.82000 25.611
16.84000 21.739
16.86000 29.897
16.88000 25.404
16.90000 26.090
16.92000 23.980
16.94000 21.361
16.96000 17.783
16.98000 21.664
17.00000 22.298
17.02000 21.747
17.04000 21.403
17.06000 21.793
17.08000 20.485
17.10000 23.787
17.12000 29.321
17.14000 25.879
17.16000 22.457
17.18000 21.324
17.20000 23.255
17.22000 27.068
17.24000 26.695
17.26000 26.857
17.28000 23.577
17.30000 22.945
17.32000 22.317
17.34000 29.813
17.36000 29.300
17.38000 20.125
17.40000 17.597
17.42000 23.844
17.44000 16.410
17.46000 16.384
17.48000 18.927
17.50000 16.058
17.52000 22.851
17.54000 18.921
17.56000 19.532
17.58000 19.536
17.60000 11.260
17.62000 12.941
17.64000 20.473
17.66000 18.399
17.68000 19.026
17.70000 20.840
17.72000 22.048
17.74000 13.072
17.76000 11.454
17.78000 20.716
17.80000 14.185
17.82000 14.551
17.84000 13.418
17.86000 5.678
17.88000 13.270
17.90000 26.657
17.92000 27.598
17.94000 23.756
17.96000 16.032
17.98000 11.221
18.00000 2.125
18.02000 5.453
18.04000 10.937
18.06000 15.414
18.08000 10.418
18.10000 6.433
18.12000 6.321
18.14000 5.417
18.16000 8.646
18.18000 14.179
18.20000 10.694
18.22000 2.314
18.24000 6.600
18.26000 17.987
18.28000 19.341
18.30000 8.158
18.32000 1.032
18.34000 2.962
18.36000 10.943
18.38000 9.238
18.40000 6.416
18.42000 5.877
18.44000 14.269
18.46000 11.999
18.48000 15.786
18.50000 11.834
18.52000 3.295
18.54000 -0.765
18.56000 8.574
18.58000 13.456
18.60000 6.751
18.62000 10.792
18.64000 14.749
18.66000 6.487
18.68000 5.376
18.70000 11.025
18.72000 8.246
18.74000 5.374
18.76000 8.831
18.78000 11.359
18.80000 9.104
18.82000 12.124
18.84000 6.742
18.86000 8.942
18.88000 0.914
18.90000 -4.261
18.92000 3.150
18.94000 1.407
18.96000 10.176
18.98000 9.502
19.00000 6.267
19.02000 4.407
19.04000 3.548
19.06000 8.921
19.08000 8.722
19.10000 6.027
19.12000 8.488
19.14000 3.177
19.16000 1.936
19.18000 6.274
19.20000 10.998
19.22000 11.891
19.24000 9.369
19.26000 9.882
19.28000 8.566
19.30000 2.969
19.32000 7.457
19.34000 7.782
19.36000 11.584
19.38000 5.290
19.40000 10.044
19.42000 7.090
19.44000 8.590
19.46000 2.106
19.48000 -1.566
19.50000 2.683
19.52000 6.082
19.54000 13.036
19.56000 12.589
19.58000 5.041
19.60000 4.096
19.62000 4.619
19.64000 5.857
19.66000 6.390
19.68000 -3.061
19.70000 0.564
19.72000 11.211
19.74000 8.699
19.76000 8.305
19.78000 7.383
19.80000 11.403
19.82000 9.191
19.84000 5.428
19.86000 2.602
19.88000 4.460
19.90000 6.323
19.92000 8.940
19.94000 9.183
19.96000 8.910
19.98000 5.678
20.00000 11.929
20.02000 7.618
20.04000 6.259
20.06000 2.370
20.08000 0.334
20.10000 3.424
20.12000 -2.734
20.14000 -3.882
20.16000 5.979
20.18000 3.464
20.20000 1.185
20.22000 3.647
20.24000 -0.437
20.26000 2.448
20.28000 3.608
20.30000 6.466
20.32000 3.993
20.34000 -0.796
20.36000 3.181
20.38000 7.696
20.40000 4.606
20.42000 1.424
20.44000 4.231
20.46000 -0.760
20.48000 4.571
20.50000 11.780
20.52000 14.097
20.54000 3.408
20.56000 7.617
20.58000 15.281
20.60000 3.595
20.62000 -1.406
20.64000 6.711
20.66000 8.792
20.68000 1.324
20.70000 -1.836
20.72000 0.033
20.74000 3.539
20.76000 6.721
20.78000 4.877
20.80000 7.001
20.82000 4.187
20.84000 0.453
20.86000 -2.616
20.88000 0.133
20.90000 1.939
20.92000 2.108
20.94000 0.999
20.96000 -0.858
20.98000 0.654
21.00000 -1.259
21.02000 0.662
21.04000 1.587
21.06000 1.188
21.08000 5.690
21.10000 2.089
21.12000 -4.184
21.14000 0.261
21.16000 1.845
21.18000 7.802
21.20000 7.081
21.22000 9.392
21.24000 9.935
21.26000 4.532
21.28000 1.641
21.30000 6.733
21.32000 6.572
21.34000 5.790
21.36000 3.659
21.38000 6.664
21.40000 6.621
21.42000 6.762
21.44000 6.492
21.46000 6.080
21.48000 4.189
21.50000 -0.768
21.52000 2.588
21.54000 10.167
21.56000 4.355
21.58000 -4.159
21.60000 -0.936
21.62000 3.798
21.64000 4.597
21.66000 2.736
21.68000 -0.896
21.70000 -1.772
21.72000 -2.177
21.74000 6.445
21.76000 4.976
21.78000 1.555
21.80000 2.821
21.82000 -0.378
21.84000 4.197
21.86000 1.191
21.88000 -1.634
21.90000 -0.832
21.92000 2.094
21.94000 5.641
21.96000 9.808
21.98000 5.722
22.00000 3.167
22.02000 5.029
22.04000 6.236
22.06000 3.814
22.08000 1.605
22.10000 2.889
22.12000 2.538
22.14000 2.970
22.16000 1.924
22.18000 0.968
22.20000 5.984
22.22000 7.583
22.24000 11.957
22.26000 7.254
22.28000 1.956
22.30000 1.401
22.32000 2.326
22.34000 4.357
22.36000 2.586
22.38000 3.051
22.40000 -2.029
22.42000 5.555
22.44000 2.154
22.46000 1.580
22.48000 2.251
22.50000 1.813
22.52000 1.048
22.54000 5.997
22.56000 9.176
22.58000 4.553
22.60000 2.853
22.62000 -1.523
22.64000 0.512
22.66000 0.868
22.68000 3.840
22.70000 0.512
22.72000 -1.931
22.74000 2.441
22.76000 0.508
22.78000 2.603
22.80000 5.822
22.82000 1.514
22.84000 4.022
22.86000 3.579
22.88000 6.538
22.90000 5.386
22.92000 6.458
22.94000 -4.023
22.96000 -3.663
22.98000 4.376
23.00000 7.211
23.02000 8.827
23.04000 7.121
23.06000 7.010
23.08000 6.292
23.10000 2.526
23.12000 1.985
23.14000 0.609
23.16000 -3.284
23.18000 0.748
23.20000 -0.256
23.22000 3.577
23.24000 6.880
23.26000 4.687
23.28000 1.338
23.30000 -3.627
23.32000 0.688
23.34000 -0.504
23.36000 0.524
23.38000 0.917
23.40000 0.208
23.42000 6.225
23.44000 3.980
23.46000 -4.044
23.48000 0.801
23.50000 5.872
23.52000 4.009
23.54000 4.567
23.56000 3.215
23.58000 3.182
23.60000 1.999
23.62000 3.793
23.64000 4.477
23.66000 6.186
23.68000 2.427
23.70000 5.976
23.72000 5.310
23.74000 2.444
23.76000 0.198
23.78000 3.740
23.80000 7.483
23.82000 12.385
23.84000 3.759
23.86000 -2.148
23.88000 -0.100
23.90000 -1.239
23.92000 -1.805
23.94000 7.576
23.96000 15.927
23.98000 7.884
24.00000 4.192
24.02000 5.585
24.04000 2.562
24.06000 -0.487
24.08000 9.024
24.10000 4.475
24.12000 -1.373
24.14000 -1.504
24.16000 3.491
24.18000 1.292
24.20000 3.823
24.22000 9.059
24.24000 4.364
24.26000 -0.034
24.28000 2.930
24.30000 1.290
24.32000 -2.147
24.34000 6.333
24.36000 2.922
24.38000 5.850
24.40000 4.413
24.42000 2.879
24.44000 4.800
24.46000 3.912
24.48000 -1.983
24.50000 -3.829
24.52000 0.829
24.54000 5.227
24.56000 8.086
24.58000 2.816
24.60000 3.780
24.62000 5.311
24.64000 9.242
24.66000 8.297
24.68000 2.446
24.70000 -1.850
24.72000 -2.885
24.74000 3.271
24.76000 5.482
24.78000 4.976
24.80000 3.321
24.82000 6.495
24.84000 10.472
24.86000 7.818
24.88000 4.684
24.90000 6.134
24.92000 2.191
24.94000 2.357
24.96000 1.836
24.98000 4.042
25.00000 2.007
25.02000 0.581
25.04000 -3.958
25.06000 -3.591
25.08000 -3.567
25.10000 -0.456
25.12000 6.800
25.14000 4.597
25.16000 2.655
25.18000 -0.708
25.20000 1.372
25.22000 2.664
25.24000 3.983
25.26000 9.161
25.28000 6.292
25.30000 1.272
25.32000 0.919
25.34000 4.722
25.36000 4.220
25.38000 -1.108
25.40000 -2.663
25.42000 -0.422
25.44000 2.762
25.46000 10.095
25.48000 7.346
25.50000 1.145
25.52000 -1.993
25.54000 -0.311
25.56000 8.025
25.58000 4.106
25.60000 3.687
25.62000 2.756
25.64000 0.817
25.66000 -1.726
25.68000 3.271
25.70000 1.534
25.72000 -1.890
25.74000 1.775
25.76000 2.956
25.78000 2.196
25.80000 5.786
25.82000 7.583
25.84000 7.546
25.86000 -0.006
25.88000 -1.395
25.90000 -0.026
25.92000 3.272
25.94000 0.467
25.96000 0.373
25.98000 4.464
26.00000 3.420
26.02000 4.058
26.04000 6.484
26.06000 6.668
26.08000 2.625
26.10000 3.173
26.12000 5.530
26.14000 5.267
26.16000 2.917
26.18000 -2.965
26.20000 -1.250
26.22000 4.336
26.24000 4.170
26.26000 0.643
26.28000 3.973
26.30000 1.920
26.32000 -2.478
26.34000 -3.316
26.36000 -0.648
26.38000 -2.366
26.40000 1.048
26.42000 1.970
26.44000 2.318
26.46000 1.046
26.48000 0.503
26.50000 3.590
26.52000 -2.191
26.54000 -3.888
26.56000 3.219
26.58000 4.640
26.60000 2.327
26.62000 5.322
26.64000 5.440
26.66000 1.352
26.68000 4.059
26.70000 6.771
26.72000 2.686
26.74000 1.944
26.76000 5.342
26.78000 6.284
26.80000 3.633
26.82000 2.337
26.84000 4.594
26.86000 1.237
26.88000 0.002
26.90000 10.775
26.92000 10.922
26.94000 5.829
26.96000 3.148
26.98000 2.363
27.00000 6.118
27.02000 2.866
27.04000 2.818
27.06000 -0.290
27.08000 2.254
27.10000 -3.336
27.12000 1.936
27.14000 3.945
27.16000 4.109
27.18000 1.030
27.20000 3.678
27.22000 6.741
27.24000 6.531
27.26000 1.885
27.28000 1.418
27.30000 4.235
27.32000 -0.444
27.34000 -2.221
27.36000 -3.825
27.38000 1.681
27.40000 7.443
27.42000 2.507
27.44000 2.716
27.46000 0.154
27.48000 6.964
27.50000 5.749
27.52000 3.263
27.54000 4.159
27.56000 3.377
27.58000 6.000
27.60000 1.526
27.62000 1.572
27.64000 0.753
27.66000 6.238
27.68000 3.423
27.70000 2.116
27.72000 6.066
27.74000 5.175
27.76000 5.043
27.78000 0.383
27.80000 -3.794
27.82000 -1.908
27.84000 5.557
27.86000 4.120
27.88000 2.957
27.90000 3.121
27.92000 3.513
27.94000 5.309
27.96000 3.976
27.98000 5.495
28.00000 3.823
28.02000 0.082
28.04000 4.252
28.06000 8.526
28.08000 5.092
28.10000 -0.851
28.12000 -1.637
28.14000 0.157
28.16000 1.298
28.18000 6.310
28.20000 5.310
28.22000 6.866
28.24000 9.816
28.26000 9.100
28.28000 3.595
28.30000 6.388
28.32000 7.065
28.34000 6.908
28.36000 3.485
28.38000 3.352
28.40000 5.388
28.42000 4.416
28.44000 -0.737
28.46000 -0.569
28.48000 3.206
28.50000 2.475
28.52000 3.905
28.54000 4.451
28.56000 2.372
28.58000 1.161
28.60000 5.349
28.62000 8.092
28.64000 2.346
28.66000 1.170
28.68000 -1.389
28.70000 -1.581
28.72000 2.882
28.74000 0.288
28.76000 1.906
28.78000 3.208
28.80000 2.434
28.82000 6.530
28.84000 3.586
28.86000 -0.910
28.88000 -3.607
28.90000 -2.164
28.92000 1.877
28.94000 -2.812
28.96000 2.403
28.98000 6.244
29.00000 0.583
29.02000 -2.588
29.04000 2.531
29.06000 8.023
29.08000 7.689
29.10000 5.415
29.12000 7.303
29.14000 8.278
29.16000 5.815
29.18000 2.379
29.20000 4.974
29.22000 4.279
29.24000 -1.560
29.26000 0.422
29.28000 0.786
29.30000 7.407
29.32000 5.237
29.34000 2.692
29.36000 3.374
29.38000 4.226
29.40000 1.142
29.42000 -1.767
29.44000 -2.883
29.46000 0.185
29.48000 7.239
29.50000 3.914
29.52000 -1.231
29.54000 -3.016
29.56000 -0.381
29.58000 -2.806
29.60000 1.089
29.62000 0.308
29.64000 1.400
29.66000 -3.724
29.68000 2.897
29.70000 2.729
29.72000 5.165
29.74000 4.203
29.76000 0.530
29.78000 1.361
29.80000 4.750
29.82000 2.753
29.84000 1.632
29.86000 -3.709
29.88000 1.251
29.90000 -0.025
29.92000 -0.460
29.94000 -0.215
29.96000 -0.016
29.98000 -1.168
30.00000 0.804
30.02000 -1.301
30.04000 5.147
30.06000 3.149
30.08000 1.130
30.10000 3.368
30.12000 5.366
30.14000 0.767
30.16000 1.348
30.18000 1.983
30.20000 1.343
30.22000 3.930
30.24000 8.329
30.26000 5.654
30.28000 3.228
30.30000 0.731
30.32000 0.398
30.34000 -0.365
30.36000 -1.101
30.38000 3.055
30.40000 -1.514
30.42000 1.491
30.44000 1.823
30.46000 2.072
30.48000 2.231
30.50000 0.409
30.52000 -0.326
30.54000 3.453
30.56000 1.339
30.58000 3.916
30.60000 4.792
30.62000 4.965
30.64000 4.120
30.66000 4.338
30.68000 6.408
30.70000 9.089
30.72000 4.284
30.74000 4.000
30.76000 4.573
30.78000 3.636
30.80000 8.336
30.82000 10.549
30.84000 5.995
30.86000 2.409
30.88000 3.571
30.90000 6.144
30.92000 0.847
30.94000 2.153
30.96000 5.095
30.98000 2.437
31.00000 6.354
31.02000 1.991
31.04000 2.686
31.06000 3.841
31.08000 8.996
31.10000 0.372
31.12000 -1.361
31.14000 5.529
31.16000 7.210
31.18000 2.644
31.20000 2.327
31.22000 3.298
31.24000 4.823
31.26000 -0.156
31.28000 3.589
31.30000 2.091
31.32000 0.274
31.34000 0.145
31.36000 3.707
31.38000 6.198
31.40000 5.388
31.42000 4.462
31.44000 2.153
31.46000 1.952
31.48000 3.110
31.50000 3.957
31.52000 3.589
31.54000 2.594
31.56000 5.008
31.58000 2.082
31.60000 4.226
31.62000 10.510
31.64000 8.761
31.66000 -3.603
31.68000 -1.679
31.70000 3.691
31.72000 4.101
31.74000 6.780
31.76000 9.757
31.78000 4.611
31.80000 0.294
31.82000 -1.755
31.84000 -0.533
31.86000 -1.996
31.88000 -0.512
31.90000 3.229
31.92000 3.554
31.94000 2.796
31.96000 5.188
31.98000 -0.176
32.00000 1.493
32.02000 5.276
32.04000 2.997
32.06000 2.540
32.08000 9.530
32.10000 9.093
32.12000 8.163
32.14000 6.099
32.16000 6.024
32.18000 8.291
32.20000 5.184
32.22000 2.020
32.24000 -3.589
32.26000 0.944
32.28000 0.010
32.30000 5.504
32.32000 7.520
32.34000 5.157
32.36000 2.071
32.38000 4.082
32.40000 0.820
32.42000 2.697
32.44000 -1.519
32.46000 1.266
32.48000 4.109
32.50000 6.570
32.52000 6.018
32.54000 7.565
32.56000 0.670
32.58000 1.307
32.60000 2.094
32.62000 -0.108
32.64000 4.185
32.66000 2.312
32.68000 3.612
32.70000 5.984
32.72000 6.517
32.74000 -0.331
32.76000 -1.031
32.78000 3.700
32.80000 2.504
32.82000 -0.110
32.84000 -1.064
32.86000 4.331
32.88000 3.481
32.90000 1.460
32.92000 -2.523
32.94000 -0.297
32.96000 -0.242
32.98000 1.117
33.00000 1.435
33.02000 1.014
33.04000 -0.073
33.06000 0.062
33.08000 6.251
33.10000 1.208
33.12000 2.121
33.14000 3.560
33.16000 4.604
33.18000 -2.430
33.20000 -3.389
33.22000 -0.688
33.24000 2.835
33.26000 4.220
33.28000 1.211
33.30000 -1.084
33.32000 2.110
33.34000 4.221
33.36000 1.147
33.38000 -0.535
33.40000 3.148
33.42000 4.970
33.44000 -0.501
33.46000 2.463
33.48000 1.686
33.50000 3.946
33.52000 3.988
33.54000 0.567
33.56000 1.142
33.58000 0.448
33.60000 -1.950
33.62000 2.155
33.64000 7.441
33.66000 6.104
33.68000 4.668
33.70000 2.871
33.72000 4.139
33.74000 6.020
33.76000 5.152
33.78000 2.241
33.80000 -1.286
33.82000 -0.656
33.84000 5.232
33.86000 0.872
33.88000 -3.568
33.90000 0.828
33.92000 4.111
33.94000 6.154
33.96000 3.256
33.98000 1.082
34.00000 0.532
34.02000 -0.351
34.04000 2.467
34.06000 -0.517
34.08000 -0.053
34.10000 4.301
34.12000 0.738
34.14000 6.019
34.16000 6.869
34.18000 0.818
34.20000 0.677
34.22000 5.352
34.24000 -0.063
34.26000 0.924
34.28000 4.318
34.30000 5.974
34.32000 1.625
34.34000 1.447
34.36000 9.668
34.38000 9.235
34.40000 6.980
34.42000 6.361
34.44000 9.801
34.46000 9.073
34.48000 5.414
34.50000 7.351
34.52000 4.092
34.54000 -2.052
34.56000 1.202
34.58000 6.857
34.60000 4.825
34.62000 3.550
34.64000 5.554
34.66000 10.066
34.68000 6.417
34.70000 1.678
34.72000 4.234
34.74000 10.477
34.76000 6.433
34.78000 3.918
34.80000 0.482
34.82000 0.466
34.84000 5.410
34.86000 6.951
34.88000 5.389
34.90000 2.107
34.92000 4.834
34.94000 -1.599
34.96000 -3.489
34.98000 -2.286
35.00000 7.290
35.02000 8.956
35.04000 6.301
35.06000 6.043
35.08000 -0.114
35.10000 -1.470
35.12000 1.425
35.14000 2.209
35.16000 4.770
35.18000 1.981
35.20000 4.414
35.22000 1.492
35.24000 -0.401
35.26000 2.468
35.28000 -0.329
35.30000 -1.286
35.32000 -0.631
35.34000 2.876
35.36000 2.401
35.38000 2.696
35.40000 3.284
35.42000 6.168
35.44000 8.896
35.46000 7.093
35.48000 5.240
35.50000 4.007
35.52000 -1.603
35.54000 -0.833
35.56000 0.341
35.58000 2.870
35.60000 -0.501
35.62000 7.393
35.64000 6.344
35.66000 2.206
35.68000 4.076
35.70000 0.935
35.72000 1.903
35.74000 7.600
35.76000 7.969
35.78000 -0.914
35.80000 0.639
35.82000 5.531
35.84000 4.800
35.86000 5.363
35.88000 6.421
35.90000 4.150
35.92000 1.736
35.94000 8.048
35.96000 5.086
35.98000 1.811
36.00000 -1.182
36.02000 1.203
36.04000 3.745
36.06000 0.181
36.08000 4.210
36.10000 6.085
36.12000 6.721
36.14000 5.728
36.16000 6.224
36.18000 3.010
36.20000 -0.317
36.22000 0.477
36.24000 2.096
36.26000 2.345
36.28000 0.428
36.30000 -2.832
36.32000 -2.336
36.34000 1.145
36.36000 2.641
36.38000 -0.971
36.40000 2.409
36.42000 6.299
36.44000 3.463
36.46000 0.369
36.48000 0.508
36.50000 -0.653
36.52000 2.078
36.54000 0.938
36.56000 0.614
36.58000 2.284
36.60000 2.795
36.62000 4.366
36.64000 1.936
36.66000 2.249
36.68000 0.368
36.70000 4.079
36.72000 4.350
36.74000 0.247
36.76000 -3.507
36.78000 2.804
36.80000 3.525
36.82000 4.350
36.84000 4.199
36.86000 5.067
36.88000 2.138
36.90000 3.913
36.92000 4.431
36.94000 6.035
36.96000 5.309
36.98000 4.371
37.00000 -0.616
37.02000 1.849
37.04000 5.035
37.06000 6.351
37.08000 2.451
37.10000 2.137
37.12000 3.031
37.14000 7.080
37.16000 8.726
37.18000 2.141
37.20000 -3.529
37.22000 -1.186
37.24000 1.234
37.26000 -0.167
37.28000 0.486
37.30000 3.146
37.32000 -0.182
37.34000 3.129
37.36000 0.228
37.38000 1.723
37.40000 3.698
37.42000 4.967
37.44000 3.529
37.46000 6.038
37.48000 -1.829
37.50000 -1.877
37.52000 3.143
37.54000 0.973
37.56000 -2.312
37.58000 -0.989
37.60000 0.624
37.62000 -0.199
37.64000 4.636
37.66000 3.973
37.68000 3.309
37.70000 5.090
37.72000 8.490
37.74000 7.070
37.76000 -0.897
37.78000 -2.834
37.80000 -1.826
37.82000 5.062
37.84000 7.483
37.86000 5.900
37.88000 3.646
37.90000 6.354
37.92000 2.920
37.94000 1.149
37.96000 4.977
37.98000 10.771
38.00000 8.181
38.02000 2.067
38.04000 6.319
38.06000 5.923
38.08000 5.179
38.10000 4.692
38.12000 6.773
38.14000 4.111
38.16000 8.193
38.18000 10.623
38.20000 10.518
38.22000 8.448
38.24000 13.250
38.26000 12.133
38.28000 12.962
38.30000 14.360
38.32000 12.976
38.34000 14.876
38.36000 13.240
38.38000 11.298
38.40000 13.861
38.42000 11.555
38.44000 12.233
38.46000 12.904
38.48000 12.548
38.50000 8.547
38.52000 14.807
38.54000 15.483
38.56000 11.712
38.58000 17.625
38.60000 14.493
38.62000 10.619
38.64000 10.965
38.66000 15.436
38.68000 12.882
38.70000 18.613
38.72000 14.610
38.74000 17.561
38.76000 20.237
38.78000 16.387
38.80000 16.154
38.82000 19.041
38.84000 23.195
38.86000 26.191
38.88000 23.224
38.90000 19.263
38.92000 19.351
38.94000 21.087
38.96000 25.292
38.98000 26.646
39.00000 26.579
39.02000 30.206
39.04000 32.145
39.06000 32.885
39.08000 31.736
39.10000 32.056
39.12000 33.618
39.14000 28.851
39.16000 31.420
39.18000 35.624
39.20000 37.898
39.22000 42.847
39.24000 45.439
39.26000 46.285
39.28000 47.565
39.30000 45.765
39.32000 47.941
39.34000 50.888
39.36000 51.939
39.38000 56.737
39.40000 59.470
39.42000 58.000
39.44000 62.293
39.46000 61.952
39.48000 66.166
39.50000 71.850
39.52000 74.538
39.54000 74.667
39.56000 81.512
39.58000 86.877
39.60000 96.519
39.62000 93.582
39.64000 90.163
39.66000 95.041
39.68000 98.912
39.70000 110.122
39.72000 121.702
39.74000 126.874
39.76000 126.467
39.78000 130.177
39.80000 140.923
39.82000 152.134
39.84000 155.822
39.86000 162.431
39.88000 182.849
39.90000 189.262
39.92000 194.523
39.94000 205.700
39.96000 216.865
39.98000 227.066
40.00000 239.968
40.02000 248.279
40.04000 262.217
40.06000 281.960
40.08000 294.032
40.10000 306.719
40.12000 323.738
40.14000 336.101
40.16000 353.729
40.18000 367.650
40.20000 375.758
40.22000 391.083
40.24000 414.966
40.26000 424.407
40.28000 428.105
40.30000 444.778
40.32000 461.592
40.34000 478.838
40.36000 488.843
40.38000 501.202
40.40000 508.032
40.42000 517.480
40.44000 525.836
40.46000 525.601
40.48000 529.862
40.50000 540.560
40.52000 545.470
40.54000 533.524
40.56000 531.443
40.58000 525.770
40.60000 508.125
40.62000 498.580
40.64000 497.362
40.66000 492.181
40.68000 478.293
40.70000 455.359
40.72000 449.903
40.74000 440.885
40.76000 424.668
40.78000 406.446
40.80000 390.343
40.82000 372.984
40.84000 365.934
40.86000 353.984
40.88000 335.243
40.90000 329.559
40.92000 310.435
40.94000 291.336
40.96000 282.607
40.98000 272.939
41.00000 270.065
41.02000 248.682
41.04000 228.253
41.06000 213.927
41.08000 207.638
41.10000 203.003
41.12000 188.755
41.14000 176.950
41.16000 164.740
41.18000 158.923
41.20000 150.717
41.22000 145.913
41.24000 142.896
41.26000 132.929
41.28000 123.426
41.30000 120.338
41.32000 118.961
41.34000 114.207
41.36000 104.774
41.38000 91.415
41.40000 85.812
41.42000 86.862
41.44000 84.571
41.46000 80.315
41.48000 76.577
41.50000 70.771
41.52000 67.294
41.54000 61.673
41.56000 55.620
41.58000 60.302
41.60000 59.729
41.62000 53.907
41.64000 48.378
41.66000 49.188
41.68000 49.028
41.70000 43.142
41.72000 37.300
41.74000 35.122
41.76000 37.368
41.78000 35.380
41.80000 33.872
41.82000 33.235
41.84000 30.962
41.86000 29.917
41.88000 27.234
41.90000 29.274
41.92000 27.302
41.94000 24.569
41.96000 21.882
41.98000 21.811
42.00000 21.085
42.02000 28.736
42.04000 21.846
42.06000 22.409
42.08000 18.262
42.10000 15.724
42.12000 13.060
42.14000 10.791
42.16000 15.943
42.18000 18.632
42.20000 16.281
42.22000 14.958
42.24000 12.077
42.26000 11.363
42.28000 13.899
42.30000 13.046
42.32000 8.488
42.34000 6.816
42.36000 5.471
42.38000 4.050
42.40000 6.815
42.42000 6.013
42.44000 5.814
42.46000 6.187
42.48000 6.774
42.50000 4.647
42.52000 6.286
42.54000 8.249
42.56000 9.472
42.58000 5.905
42.60000 3.483
42.62000 -1.997
42.64000 -0.493
42.66000 2.483
42.68000 1.059
42.70000 1.725
42.72000 2.097
42.74000 3.471
42.76000 4.156
42.78000 0.763
42.80000 -0.249
42.82000 -0.628
42.84000 2.270
42.86000 1.848
42.88000 6.721
42.90000 1.787
42.92000 1.607
42.94000 3.906
42.96000 1.862
42.98000 -2.590
43.00000 0.606
43.02000 1.554
43.04000 0.021
43.06000 3.922
43.08000 0.026
43.10000 4.001
43.12000 1.882
43.14000 3.190
43.16000 1.759
43.18000 1.113
43.20000 2.505
43.22000 4.285
43.24000 2.865
43.26000 1.101
43.28000 -3.436
43.30000 -1.892
43.32000 -2.804
43.34000 0.433
43.36000 -1.135
43.38000 -0.639
43.40000 5.706
43.42000 3.315
43.44000 1.752
43.46000 3.686
43.48000 2.725
43.50000 0.524
43.52000 3.140
43.54000 0.220
43.56000 1.028
43.58000 6.331
43.60000 2.267
43.62000 0.412
43.64000 -0.322
43.66000 -1.835
43.68000 3.799
43.70000 4.324
43.72000 0.569
43.74000 -2.702
43.76000 4.239
43.78000 4.903
43.80000 0.493
43.82000 -2.276
43.84000 -0.712
43.86000 -0.847
43.88000 -0.341
43.90000 -0.772
43.92000 8.383
43.94000 3.291
43.96000 4.404
43.98000 4.815
44.00000 2.637
44.02000 0.772
44.04000 0.393
44.06000 6.029
44.08000 3.924
44.10000 2.555
44.12000 2.667
44.14000 2.097
44.16000 -0.522
44.18000 0.418
44.20000 1.871
44.22000 5.040
44.24000 -0.082
44.26000 -2.738
44.28000 -3.342
44.30000 1.536
44.32000 -2.481
44.34000 -1.056
44.36000 3.691
44.38000 1.770
44.40000 -0.953
44.42000 1.142
44.44000 1.320
44.46000 1.099
44.48000 1.527
44.50000 2.032
44.52000 2.307
44.54000 -0.632
44.56000 -3.343
44.58000 0.047
44.60000 0.652
44.62000 2.345
44.64000 2.672
44.66000 4.365
44.68000 -0.315
44.70000 -0.274
44.72000 2.590
44.74000 2.014
44.76000 1.706
44.78000 4.568
44.80000 0.204
44.82000 1.212
44.84000 1.950
44.86000 6.511
44.88000 4.667
44.90000 3.356
44.92000 2.696
44.94000 3.015
44.96000 -2.212
44.98000 1.262
45.00000 0.945
45.02000 2.485
45.04000 1.791
45.06000 0.695
45.08000 0.549
45.10000 4.873
45.12000 3.820
45.14000 2.534
45.16000 2.600
45.18000 2.807
45.20000 -0.234
45.22000 -1.105
45.24000 -3.349
45.26000 2.225
45.28000 2.706
45.30000 2.600
45.32000 5.354
45.34000 5.559
45.36000 4.347
45.38000 3.661
45.40000 3.128
45.42000 5.406
45.44000 9.495
45.46000 4.331
45.48000 5.194
45.50000 6.870
45.52000 9.214
45.54000 3.153
45.56000 2.090
45.58000 2.496
45.60000 1.569
45.62000 5.894
45.64000 9.474
45.66000 4.632
45.68000 7.334
45.70000 6.627
45.72000 7.887
45.74000 13.755
45.76000 9.998
45.78000 7.589
45.80000 12.402
45.82000 11.145
45.84000 15.159
45.86000 17.573
45.88000 15.740
45.90000 9.469
45.92000 14.269
45.94000 15.964
45.96000 15.283
45.98000 19.390
46.00000 20.500
46.02000 16.807
46.04000 15.461
46.06000 19.229
46.08000 27.802
46.10000 27.619
46.12000 18.547
46.14000 19.772
46.16000 25.840
46.18000 24.619
46.20000 19.714
46.22000 25.585
46.24000 25.303
46.26000 31.108
46.28000 28.894
46.30000 29.333
46.32000 30.661
46.34000 29.726
46.36000 32.480
46.38000 33.557
46.40000 39.688
46.42000 40.951
46.44000 41.698
46.46000 40.622
46.48000 43.858
46.50000 46.024
46.52000 43.866
46.54000 45.824
46.56000 47.642
46.58000 46.427
46.60000 49.783
46.62000 49.519
46.64000 55.183
46.66000 53.900
46.68000 54.429
46.70000 58.177
46.72000 64.022
46.74000 57.509
46.76000 58.220
46.78000 63.372
46.80000 59.580
46.82000 62.836
46.84000 71.182
46.86000 70.705
46.88000 68.783
46.90000 66.013
46.92000 71.746
46.94000 76.173
46.96000 73.720
46.98000 71.408
47.00000 71.948
47.02000 72.466
47.04000 72.753
47.06000 71.975
47.08000 69.977
47.10000 70.567
47.12000 70.236
47.14000 71.925
47.16000 74.458
47.18000 80.389
47.20000 80.034
47.22000 74.520
47.24000 74.512
47.26000 76.077
47.28000 75.631
47.30000 74.908
47.32000 68.054
47.34000 66.164
47.36000 65.144
47.38000 71.541
47.40000 66.603
47.42000 58.410
47.44000 60.202
47.46000 57.309
47.48000 57.363
47.50000 62.263
47.52000 59.101
47.54000 60.231
47.56000 59.321
47.58000 55.472
47.60000 53.353
47.62000 54.733
47.64000 53.621
47.66000 55.905
47.68000 52.006
47.70000 47.560
47.72000 44.102
47.74000 37.406
47.76000 38.143
47.78000 38.120
47.80000 38.491
47.82000 35.243
47.84000 35.124
47.86000 34.575
47.88000 30.627
47.90000 28.707
47.92000 32.756
47.94000 31.198
47.96000 29.937
47.98000 28.849
48.00000 24.409
48.02000 21.834
48.04000 22.726
48.06000 24.913
48.08000 17.738
48.10000 20.595
48.12000 20.994
48.14000 15.379
48.16000 15.150
48.18000 16.509
48.20000 12.063
48.22000 9.893
48.24000 12.352
48.26000 15.022
48.28000 13.782
48.30000 12.463
48.32000 11.756
48.34000 11.808
48.36000 12.980
48.38000 9.566
48.40000 9.550
48.42000 11.895
48.44000 10.843
48.46000 7.596
48.48000 11.333
48.50000 8.616
48.52000 6.322
48.54000 4.413
48.56000 5.171
48.58000 3.606
48.60000 -3.031
48.62000 4.129
48.64000 7.054
48.66000 4.802
48.68000 2.797
48.70000 8.118
48.72000 4.706
48.74000 -1.912
48.76000 -2.853
48.78000 2.421
48.80000 0.701
48.82000 2.641
48.84000 -0.175
48.86000 2.443
48.88000 6.793
48.90000 4.220
48.92000 9.575
48.94000 5.672
48.96000 0.429
48.98000 2.586
49.00000 1.742
49.02000 1.079
49.04000 7.487
49.06000 4.829
49.08000 0.617
49.10000 1.863
49.12000 3.529
49.14000 1.345
49.16000 -0.696
49.18000 -2.948
49.20000 1.251
49.22000 4.340
49.24000 3.016
49.26000 1.753
49.28000 3.184
49.30000 4.491
49.32000 2.127
49.34000 4.649
49.36000 -0.165
49.38000 1.331
49.40000 2.276
49.42000 3.430
49.44000 3.000
49.46000 2.501
49.48000 4.197
49.50000 5.038
49.52000 2.458
49.54000 3.004
49.56000 3.420
49.58000 4.590
49.60000 3.617
49.62000 0.460
49.64000 -0.621
49.66000 -2.491
49.68000 1.214
49.70000 3.903
49.72000 3.736
49.74000 4.632
49.76000 3.881
49.78000 1.037
49.80000 2.912
49.82000 2.146
49.84000 -2.860
49.86000 -1.246
49.88000 3.060
49.90000 3.989
49.92000 1.239
49.94000 1.274
49.96000 -2.842
49.98000 -2.242
50.00000 -2.687
50.02000 -1.832
50.04000 -0.935
50.06000 2.730
50.08000 4.348
50.10000 2.193
50.12000 -1.199
50.14000 -1.140
50.16000 3.000
50.18000 3.987
50.20000 3.986
50.22000 4.937
50.24000 2.860
50.26000 2.920
50.28000 2.143
50.30000 0.892
50.32000 0.054
50.34000 -2.806
50.36000 -1.846
50.38000 0.812
50.40000 2.768
50.42000 0.528
50.44000 0.860
50.46000 3.024
50.48000 3.154
50.50000 2.680
50.52000 4.282
50.54000 -1.066
50.56000 -0.217
50.58000 1.329
50.60000 3.312
50.62000 5.078
50.64000 4.960
50.66000 2.133
50.68000 6.099
50.70000 0.823
50.72000 1.022
50.74000 5.810
50.76000 1.453
50.78000 1.186
50.80000 1.068
50.82000 -1.487
50.84000 0.601
50.86000 4.511
50.88000 4.554
50.90000 0.708
50.92000 3.045
50.94000 2.938
50.96000 1.519
50.98000 7.177
51.00000 7.666
51.02000 5.177
51.04000 5.119
51.06000 1.323
51.08000 2.019
51.10000 6.894
51.12000 6.855
51.14000 3.615
51.16000 5.938
51.18000 -0.362
51.20000 -2.740
51.22000 -0.935
51.24000 3.126
51.26000 4.200
51.28000 2.014
51.30000 1.650
51.32000 -0.762
51.34000 1.652
51.36000 3.047
51.38000 5.072
51.40000 5.266
51.42000 2.627
51.44000 2.011
51.46000 1.846
51.48000 2.119
51.50000 2.963
51.52000 4.972
51.54000 5.837
51.56000 -2.741
51.58000 0.814
51.60000 3.017
51.62000 -0.554
51.64000 1.158
51.66000 3.024
51.68000 6.997
51.70000 8.909
51.72000 4.610
51.74000 4.229
51.76000 5.090
51.78000 4.213
51.80000 2.268
51.82000 2.706
51.84000 4.517
51.86000 6.289
51.88000 2.408
51.90000 0.028
51.92000 4.491
51.94000 3.435
51.96000 -1.476
51.98000 1.318
52.00000 6.685
52.02000 3.898
52.04000 4.157
52.06000 2.997
52.08000 2.866
52.10000 1.567
52.12000 0.293
52.14000 2.310
52.16000 1.944
52.18000 2.610
52.20000 3.685
52.22000 3.481
52.24000 -0.837
52.26000 2.602
52.28000 0.430
52.30000 -2.350
52.32000 -1.935
52.34000 5.749
52.36000 4.962
52.38000 4.120
52.40000 3.435
52.42000 3.323
52.44000 3.202
52.46000 4.719
52.48000 3.647
52.50000 2.084
52.52000 0.595
52.54000 2.877
52.56000 -0.319
52.58000 0.945
52.60000 0.464
52.62000 -0.963
52.64000 1.405
52.66000 -2.706
52.68000 -0.763
52.70000 3.331
52.72000 7.994
52.74000 3.366
52.76000 1.428
52.78000 5.343
52.80000 2.044
52.82000 3.901
52.84000 3.616
52.86000 3.891
52.88000 3.699
52.90000 2.041
52.92000 0.076
52.94000 -0.263
52.96000 3.045
52.98000 0.243
53.00000 1.714
53.02000 2.333
53.04000 -0.889
53.06000 0.268
53.08000 2.188
53.10000 -0.942
53.12000 0.796
53.14000 3.373
53.16000 1.972
53.18000 2.139
53.20000 1.451
53.22000 -0.336
53.24000 0.203
53.26000 0.102
53.28000 1.845
53.30000 0.977
53.32000 5.606
53.34000 4.761
53.36000 1.844
53.38000 1.899
53.40000 3.057
53.42000 1.742
53.44000 1.318
53.46000 0.747
53.48000 2.094
53.50000 -0.377
53.52000 1.538
53.54000 4.428
53.56000 2.304
53.58000 0.465
53.60000 -0.275
53.62000 -2.539
53.64000 3.994
53.66000 5.322
53.68000 4.118
53.70000 8.192
53.72000 4.876
53.74000 1.393
53.76000 1.001
53.78000 0.583
53.80000 1.564
53.82000 3.148
53.84000 1.049
53.86000 3.020
53.88000 2.653
53.90000 -0.454
53.92000 0.467
53.94000 -0.717
53.96000 6.774
53.98000 4.187
54.00000 2.572
54.02000 1.041
54.04000 1.180
54.06000 -2.635
54.08000 -0.535
54.10000 4.572
54.12000 4.880
54.14000 4.850
54.16000 0.977
54.18000 2.339
54.20000 1.662
54.22000 4.106
54.24000 4.346
54.26000 4.418
54.28000 4.878
54.30000 4.709
54.32000 2.123
54.34000 0.927
54.36000 3.375
54.38000 5.167
54.40000 4.102
54.42000 4.275
54.44000 3.675
54.46000 5.568
54.48000 3.201
54.50000 1.956
54.52000 3.480
54.54000 7.119
54.56000 5.959
54.58000 -0.008
54.60000 2.691
54.62000 1.363
54.64000 1.433
54.66000 -2.629
54.68000 2.461
54.70000 4.527
54.72000 3.619
54.74000 3.702
54.76000 3.341
54.78000 0.605
54.80000 3.245
54.82000 9.778
54.84000 3.516
54.86000 1.174
54.88000 1.047
54.90000 4.390
54.92000 6.981
54.94000 2.477
54.96000 5.530
54.98000 5.010
55.00000 4.748
55.02000 1.857
55.04000 3.693
55.06000 1.899
55.08000 1.611
55.10000 -0.127
55.12000 3.543
55.14000 6.727
55.16000 3.491
55.18000 0.086
55.20000 -0.623
55.22000 2.687
55.24000 1.202
55.26000 2.041
55.28000 4.049
55.30000 0.799
55.32000 -0.399
55.34000 1.019
55.36000 3.878
55.38000 5.403
55.40000 1.382
55.42000 -0.787
55.44000 2.978
55.46000 6.583
55.48000 4.283
55.50000 0.220
55.52000 1.940
55.54000 1.745
55.56000 -0.426
55.58000 4.720
55.60000 2.983
55.62000 2.115
55.64000 1.593
55.66000 0.750
55.68000 1.640
55.70000 -1.223
55.72000 -2.635
55.74000 -1.592
55.76000 -1.894
55.78000 -1.033
55.80000 -0.984
55.82000 0.716
55.84000 1.846
55.86000 1.335
55.88000 2.046
55.90000 -0.893
55.92000 2.340
55.94000 6.646
55.96000 1.547
55.98000 -2.501
56.00000 0.114
56.02000 1.971
56.04000 2.276
56.06000 4.026
56.08000 3.647
56.10000 2.737
56.12000 2.567
56.14000 -1.133
56.16000 -1.868
56.18000 1.847
56.20000 0.085
56.22000 2.208
56.24000 2.861
56.26000 2.176
56.28000 -1.183
56.30000 -1.451
56.32000 2.706
56.34000 4.304
56.36000 4.003
56.38000 2.046
56.40000 0.788
56.42000 3.830
56.44000 -0.553
56.46000 -1.143
56.48000 0.075
56.50000 1.022
56.52000 2.026
56.54000 1.858
56.56000 2.702
56.58000 2.902
56.60000 5.584
56.62000 0.123
56.64000 2.428
56.66000 -0.246
56.68000 -1.125
56.70000 3.525
56.72000 4.624
56.74000 6.878
56.76000 5.744
56.78000 2.381
56.80000 2.662
56.82000 1.858
56.84000 2.552
56.86000 3.603
56.88000 5.543
56.90000 2.145
56.92000 -2.561
56.94000 1.131
56.96000 1.949
56.98000 -2.214
57.00000 -2.517
57.02000 1.368
57.04000 4.462
57.06000 1.189
57.08000 3.150
57.10000 2.641
57.12000 2.943
57.14000 2.803
57.16000 2.913
57.18000 7.049
57.20000 7.266
57.22000 2.547
57.24000 -2.523
57.26000 2.358
57.28000 5.505
57.30000 6.289
57.32000 3.015
57.34000 5.118
57.36000 3.858
57.38000 -1.100
57.40000 0.376
57.42000 1.766
57.44000 0.195
57.46000 -0.344
57.48000 4.789
57.50000 3.617
57.52000 -0.223
57.54000 1.747
57.56000 5.925
57.58000 1.992
57.60000 2.884
57.62000 3.330
57.64000 3.987
57.66000 2.438
57.68000 6.906
57.70000 6.112
57.72000 3.687
57.74000 6.458
57.76000 6.896
57.78000 2.761
57.80000 2.979
57.82000 4.009
57.84000 3.082
57.86000 3.511
57.88000 7.439
57.90000 6.008
57.92000 3.658
57.94000 4.398
57.96000 5.634
57.98000 2.418
58.00000 -0.144
58.02000 2.142
58.04000 2.668
58.06000 1.978
58.08000 3.342
58.10000 2.909
58.12000 3.864
58.14000 5.117
58.16000 6.050
58.18000 3.542
58.20000 -0.069
58.22000 -2.486
58.24000 2.243
58.26000 2.336
58.28000 0.814
58.30000 3.458
58.32000 3.238
58.34000 6.064
58.36000 5.562
58.38000 3.415
58.40000 4.122
58.42000 3.191
58.44000 3.592
58.46000 2.531
58.48000 6.099
58.50000 4.758
58.52000 3.334
58.54000 6.092
58.56000 6.214
58.58000 4.779
58.60000 0.702
58.62000 0.526
58.64000 4.674
58.66000 6.793
58.68000 6.759
58.70000 1.906
58.72000 0.774
58.74000 0.035
58.76000 0.392
58.78000 5.093
58.80000 7.646
58.82000 6.551
58.84000 2.927
58.86000 5.767
58.88000 4.621
58.90000 4.161
58.92000 2.303
58.94000 1.792
58.96000 3.635
58.98000 5.737
59.00000 5.620
59.02000 1.710
59.04000 0.341
59.06000 -0.718
59.08000 0.617
59.10000 1.864
59.12000 3.616
59.14000 1.782
59.16000 0.862
59.18000 0.126
59.20000 0.635
59.22000 3.351
59.24000 -0.577
59.26000 0.378
59.28000 -0.013
59.30000 4.579
59.32000 6.327
59.34000 7.266
59.36000 1.961
59.38000 0.315
59.40000 -0.020
59.42000 -0.562
59.44000 -0.236
59.46000 4.343
59.48000 2.643
59.50000 0.569
59.52000 2.053
59.54000 3.698
59.56000 0.452
59.58000 1.476
59.60000 -0.128
59.62000 -1.153
59.64000 1.387
59.66000 1.791
59.68000 1.990
59.70000 -0.201
59.72000 -0.893
59.74000 4.266
59.76000 3.422
59.78000 -0.095
59.80000 0.341
59.82000 -1.751
59.84000 -2.192
59.86000 -1.758
59.88000 -0.269
59.90000 5.139
59.92000 2.634
59.94000 -0.444
59.96000 0.126
59.98000 0.475
60.00000 3.724
60.02000 -0.195
60.04000 -1.284
60.06000 -2.475
60.08000 -1.053
60.10000 1.107
60.12000 -0.145
60.14000 3.576
60.16000 3.340
60.18000 1.418
60.20000 -2.467
60.22000 -0.130
60.24000 3.441
60.26000 7.512
60.28000 3.381
60.30000 5.823
60.32000 4.178
60.34000 2.516
60.36000 4.440
60.38000 5.597
60.40000 1.357
60.42000 0.706
60.44000 0.872
60.46000 1.691
60.48000 -0.633
60.50000 2.732
60.52000 4.394
60.54000 3.417
60.56000 2.436
60.58000 1.895
60.60000 0.874
60.62000 -1.079
60.64000 -0.307
60.66000 -0.847
60.68000 1.799
60.70000 5.062
60.72000 5.838
60.74000 3.289
60.76000 2.566
60.78000 -0.493
60.80000 -0.618
60.82000 0.903
60.84000 -0.950
60.86000 1.060
60.88000 2.595
60.90000 1.324
60.92000 1.118
60.94000 2.257
60.96000 3.589
60.98000 5.080
61.00000 3.700
61.02000 -2.000
61.04000 -0.018
61.06000 0.955
61.08000 -0.055
61.10000 0.979
61.12000 2.543
61.14000 1.255
61.16000 0.808
61.18000 4.380
61.20000 2.699
61.22000 2.370
61.24000 3.064
61.26000 2.338
61.28000 -0.506
61.30000 -0.199
61.32000 0.086
61.34000 -0.750
61.36000 1.989
61.38000 1.862
61.40000 2.263
61.42000 1.083
61.44000 1.783
61.46000 1.331
61.48000 3.392
61.50000 5.081
61.52000 2.633
61.54000 4.656
61.56000 6.039
61.58000 4.581
61.60000 8.775
61.62000 4.992
61.64000 1.643
61.66000 1.430
61.68000 1.580
61.70000 2.384
61.72000 2.035
61.74000 -2.411
61.76000 1.266
61.78000 1.709
61.80000 1.749
61.82000 4.927
61.84000 4.387
61.86000 4.718
61.88000 3.924
61.90000 1.306
61.92000 3.449
61.94000 5.125
61.96000 4.124
61.98000 3.897
62.00000 4.419
62.02000 2.518
62.04000 2.978
62.06000 1.566
62.08000 4.738
62.10000 5.899
62.12000 3.754
62.14000 1.370
62.16000 5.590
62.18000 1.860
62.20000 0.272
62.22000 3.869
62.24000 3.480
62.26000 2.446
62.28000 0.489
62.30000 -0.806
62.32000 0.040
62.34000 1.468
62.36000 4.401
62.38000 5.373
62.40000 4.666
62.42000 3.432
62.44000 1.131
62.46000 1.381
62.48000 -0.425
62.50000 -1.178
62.52000 0.912
62.54000 3.055
62.56000 2.545
62.58000 3.158
62.60000 6.435
62.62000 4.997
62.64000 3.366
62.66000 2.194
62.68000 0.417
62.70000 -1.595
62.72000 1.625
62.74000 1.632
62.76000 0.826
62.78000 -1.756
62.80000 -1.374
62.82000 -1.148
62.84000 -0.246
62.86000 -1.227
62.88000 -1.877
62.90000 1.344
62.92000 1.749
62.94000 2.730
62.96000 5.248
62.98000 1.777
63.00000 1.627
63.02000 0.556
63.04000 1.128
63.06000 0.464
63.08000 3.137
63.10000 5.023
63.12000 0.794
63.14000 0.179
63.16000 0.894
63.18000 3.815
63.20000 1.344
63.22000 -0.691
63.24000 -2.043
63.26000 0.393
63.28000 0.399
63.30000 3.833
63.32000 2.593
63.34000 -1.219
63.36000 0.114
63.38000 -1.760
63.40000 -2.410
63.42000 0.396
63.44000 4.181
63.46000 4.116
63.48000 2.503
63.50000 0.940
63.52000 -0.808
63.54000 -1.831
63.56000 -1.509
63.58000 -1.002
63.60000 1.885
63.62000 2.582
63.64000 -0.611
63.66000 0.259
63.68000 -1.179
63.70000 1.590
63.72000 3.658
63.74000 0.830
63.76000 0.039
63.78000 -1.484
63.80000 0.491
63.82000 2.212
63.84000 0.942
63.86000 2.176
63.88000 0.538
63.90000 -0.928
63.92000 -0.338
63.94000 1.913
63.96000 2.449
63.98000 0.096
64.00000 1.301
64.02000 4.327
64.04000 2.220
64.06000 0.942
64.08000 0.324
64.10000 0.066
64.12000 1.000
64.14000 1.716
64.16000 0.922
64.18000 3.164
64.20000 3.524
64.22000 4.631
64.24000 2.497
64.26000 3.335
64.28000 5.659
64.30000 6.488
64.32000 5.853
64.34000 4.318
64.36000 3.362
64.38000 1.455
64.40000 3.674
64.42000 4.287
64.44000 3.717
64.46000 4.374
64.48000 0.159
64.50000 -0.395
64.52000 2.169
64.54000 -0.377
64.56000 0.835
64.58000 5.304
64.60000 2.986
64.62000 6.038
64.64000 7.625
64.66000 6.338
64.68000 3.123
64.70000 6.225
64.72000 2.463
64.74000 2.159
64.76000 3.950
64.78000 1.014
64.80000 -2.379
64.82000 3.159
64.84000 6.652
64.86000 4.965
64.88000 1.627
64.90000 3.936
64.92000 4.416
64.94000 2.750
64.96000 1.632
64.98000 3.500
65.00000 3.100
65.02000 6.234
65.04000 3.120
65.06000 -0.751
65.08000 3.265
65.10000 1.742
65.12000 5.482
65.14000 6.082
65.16000 3.080
65.18000 2.971
65.20000 4.422
65.22000 3.756
65.24000 0.680
65.26000 0.690
65.28000 3.388
65.30000 2.238
65.32000 0.015
65.34000 2.354
65.36000 3.535
65.38000 2.190
65.40000 1.517
65.42000 1.548
65.44000 1.551
65.46000 3.920
65.48000 4.137
65.50000 2.018
65.52000 -0.802
65.54000 0.026
65.56000 1.556
65.58000 3.116
65.60000 0.973
65.62000 -2.431
65.64000 -0.760
65.66000 0.413
65.68000 1.590
65.70000 0.235
65.72000 0.818
65.74000 -0.198
65.76000 0.259
65.78000 0.819
65.80000 0.910
65.82000 1.720
65.84000 2.331
65.86000 2.869
65.88000 2.827
65.90000 2.658
65.92000 1.167
65.94000 1.757
65.96000 0.393
65.98000 -2.144
66.00000 -0.485
66.02000 0.019
66.04000 -1.025
66.06000 -2.443
66.08000 0.926
66.10000 0.658
66.12000 -0.687
66.14000 -2.119
66.16000 0.837
66.18000 0.002
66.20000 0.220
66.22000 0.189
66.24000 1.757
66.26000 1.105
66.28000 -0.218
66.30000 0.742
66.32000 1.179
66.34000 0.785
66.36000 -0.260
66.38000 0.241
66.40000 3.893
66.42000 3.579
66.44000 3.188
66.46000 -1.442
66.48000 -2.352
66.50000 -2.302
66.52000 0.410
66.54000 0.262
66.56000 1.323
66.58000 2.770
66.60000 3.626
66.62000 1.378
66.64000 -2.468
66.66000 -0.334
66.68000 0.597
66.70000 1.566
66.72000 1.833
66.74000 1.151
66.76000 1.806
66.78000 1.230
66.80000 -0.439
66.82000 -0.441
66.84000 -2.370
66.86000 -1.249
66.88000 -0.083
66.90000 1.083
66.92000 1.956
66.94000 -0.857
66.96000 -1.020
66.98000 -0.310
67.00000 0.909
67.02000 0.471
67.04000 0.393
67.06000 1.134
67.08000 -0.052
67.10000 -1.549
67.12000 1.055
67.14000 -0.410
67.16000 -1.416
67.18000 -0.520
67.20000 -0.829
67.22000 -1.001
67.24000 1.445
67.26000 1.708
67.28000 2.395
67.30000 -2.293
67.32000 -2.314
67.34000 -1.364
67.36000 0.294
67.38000 -0.573
67.40000 -2.489
67.42000 -2.034
67.44000 0.931
67.46000 1.569
67.48000 1.037
67.50000 0.318
67.52000 -1.083
67.54000 2.485
67.56000 5.078
67.58000 4.012
67.60000 2.561
67.62000 -0.289
67.64000 2.660
67.66000 2.519
67.68000 -0.149
67.70000 0.031
67.72000 2.779
67.74000 8.530
67.76000 10.586
67.78000 5.116
67.80000 5.756
67.82000 2.526
67.84000 3.460
67.86000 1.857
67.88000 3.779
67.90000 5.360
67.92000 8.328
67.94000 7.755
67.96000 4.640
67.98000 3.657
68.00000 6.031
68.02000 5.146
68.04000 5.870
68.06000 5.118
68.08000 7.952
68.10000 8.196
68.12000 6.155
68.14000 8.343
68.16000 9.005
68.18000 7.807
68.20000 6.640
68.22000 7.814
68.24000 7.924
68.26000 8.398
68.28000 9.569
68.30000 13.114
68.32000 12.667
68.34000 16.919
68.36000 11.212
68.38000 13.104
68.40000 11.503
68.42000 7.981
68.44000 13.915
68.46000 15.143
68.48000 16.447
68.50000 17.009
68.52000 17.253
68.54000 16.103
68.56000 17.207
68.58000 17.261
68.60000 18.185
68.62000 19.957
68.64000 19.000
68.66000 18.752
68.68000 17.376
68.70000 16.385
68.72000 16.927
68.74000 16.619
68.76000 19.142
68.78000 18.221
68.80000 21.661
68.82000 24.049
68.84000 26.144
68.86000 23.515
68.88000 20.019
68.90000 21.112
68.92000 19.345
68.94000 17.149
68.96000 21.550
68.98000 21.541
69.00000 21.469
69.02000 22.110
69.04000 22.169
69.06000 21.994
69.08000 20.348
69.10000 20.281
69.12000 18.714
69.14000 17.405
69.16000 19.490
69.18000 17.473
69.20000 20.487
69.22000 22.573
69.24000 16.306
69.26000 14.693
69.28000 19.309
69.30000 16.836
69.32000 11.965
69.34000 12.939
69.36000 15.580
69.38000 13.623
69.40000 13.490
69.42000 11.882
69.44000 10.002
69.46000 7.688
69.48000 11.634
69.50000 14.543
69.52000 13.055
69.54000 9.453
69.56000 9.057
69.58000 9.747
69.60000 7.217
69.62000 9.181
69.64000 10.472
69.66000 7.604
69.68000 6.438
69.70000 7.981
69.72000 2.270
69.74000 2.177
69.76000 4.449
69.78000 5.479
69.80000 4.166
69.82000 3.066
69.84000 3.935
69.86000 2.472
69.88000 5.883
69.90000 8.816
69.92000 5.957
69.94000 4.927
69.96000 6.900
69.98000 7.489
70.00000 2.461
70.02000 2.385
70.04000 2.834
70.06000 5.329
70.08000 5.869
70.10000 4.471
70.12000 2.119
70.14000 3.812
70.16000 3.669
70.18000 -0.516
70.20000 0.045
70.22000 3.713
70.24000 3.490
70.26000 3.541
70.28000 0.825
70.30000 2.117
70.32000 -2.408
70.34000 1.360
70.36000 1.375
70.38000 2.920
70.40000 6.122
70.42000 -0.029
70.44000 -1.405
70.46000 0.723
70.48000 1.201
70.50000 0.089
70.52000 -0.379
70.54000 -0.695
70.56000 2.430
70.58000 1.047
70.60000 -0.758
70.62000 1.255
70.64000 2.313
70.66000 3.906
70.68000 3.847
70.70000 3.114
70.72000 2.488
70.74000 3.168
70.76000 1.701
70.78000 6.951
70.80000 3.854
70.82000 4.125
70.84000 5.737
70.86000 6.167
70.88000 2.593
70.90000 0.051
70.92000 -1.209
70.94000 -2.320
70.96000 1.214
70.98000 4.907
71.00000 9.366
71.02000 4.980
71.04000 4.376
71.06000 4.073
71.08000 5.505
71.10000 7.016
71.12000 4.711
71.14000 1.278
71.16000 -1.042
71.18000 0.299
71.20000 1.643
71.22000 2.870
71.24000 4.251
71.26000 5.450
71.28000 4.548
71.30000 2.004
71.32000 5.242
71.34000 5.310
71.36000 7.017
71.38000 6.287
71.40000 0.338
71.42000 1.559
71.44000 4.298
71.46000 5.779
71.48000 3.593
71.50000 3.133
71.52000 2.155
71.54000 1.181
71.56000 5.016
71.58000 0.713
71.60000 1.426
71.62000 5.481
71.64000 3.162
71.66000 -1.274
71.68000 -0.806
71.70000 0.143
71.72000 3.453
71.74000 6.645
71.76000 6.671
71.78000 4.303
71.80000 4.108
71.82000 4.601
71.84000 3.849
71.86000 4.146
71.88000 0.636
71.90000 -0.918
71.92000 1.517
71.94000 1.247
71.96000 -0.385
71.98000 -2.229
72.00000 0.454
72.02000 -0.903
72.04000 3.802
72.06000 4.012
72.08000 0.492
72.10000 1.771
72.12000 -0.189
72.14000 -0.546
72.16000 3.684
72.18000 4.797
72.20000 4.379
72.22000 5.714
72.24000 4.977
72.26000 -0.317
72.28000 -2.282
72.30000 -0.142
72.32000 2.945
72.34000 3.431
72.36000 5.139
72.38000 3.585
72.40000 -0.763
72.42000 0.032
72.44000 4.868
72.46000 5.307
72.48000 5.516
72.50000 7.812
72.52000 2.545
72.54000 2.577
72.56000 2.035
72.58000 0.563
72.60000 2.012
72.62000 4.568
72.64000 2.902
72.66000 4.182
72.68000 2.942
72.70000 -0.878
72.72000 -1.216
72.74000 2.821
72.76000 2.184
72.78000 -1.925
72.80000 0.758
72.82000 2.914
72.84000 2.204
72.86000 0.784
72.88000 1.320
72.90000 0.539
72.92000 4.456
72.94000 6.280
72.96000 3.561
72.98000 4.169
73.00000 1.689
73.02000 2.616
73.04000 6.703
73.06000 5.988
73.08000 4.790
73.10000 1.848
73.12000 4.478
73.14000 1.922
73.16000 -2.238
73.18000 3.143
73.20000 1.078
73.22000 2.671
73.24000 6.700
73.26000 6.213
73.28000 2.652
73.30000 4.653
73.32000 5.190
73.34000 5.001
73.36000 0.502
73.38000 2.038
73.40000 3.484
73.42000 4.028
73.44000 5.919
73.46000 5.213
73.48000 3.598
73.50000 5.254
73.52000 3.534
73.54000 1.048
73.56000 2.597
73.58000 5.473
73.60000 7.264
73.62000 7.451
73.64000 3.878
73.66000 5.507
73.68000 4.473
73.70000 -2.198
73.72000 3.774
73.74000 7.064
73.76000 6.710
73.78000 6.431
73.80000 7.783
73.82000 7.490
73.84000 2.571
73.86000 2.343
73.88000 9.056
73.90000 4.044
73.92000 3.169
73.94000 4.877
73.96000 3.636
73.98000 5.645
74.00000 8.499
74.02000 3.242
74.04000 0.832
74.06000 2.240
74.08000 3.382
74.10000 3.701
74.12000 2.745
74.14000 1.730
74.16000 5.068
74.18000 4.163
74.20000 1.316
74.22000 -0.560
74.24000 -2.224
74.26000 2.349
74.28000 3.576
74.30000 -0.101
74.32000 2.136
74.34000 0.430
74.36000 0.537
74.38000 5.800
74.40000 6.138
74.42000 1.198
74.44000 -1.577
74.46000 -0.253
74.48000 0.796
74.50000 5.301
74.52000 8.161
74.54000 2.548
74.56000 3.288
74.58000 5.762
74.60000 6.449
74.62000 3.444
74.64000 0.513
74.66000 0.889
74.68000 -1.063
74.70000 -2.232
74.72000 -0.599
74.74000 3.342
74.76000 4.272
74.78000 5.269
74.80000 1.634
74.82000 2.606
74.84000 1.102
74.86000 0.444
74.88000 0.673
74.90000 3.568
74.92000 5.888
74.94000 6.774
74.96000 2.622
74.98000 3.748
75.00000 2.125
75.02000 4.049
75.04000 1.028
75.06000 1.642
75.08000 6.437
75.10000 1.269
75.12000 2.952
75.14000 6.649
75.16000 7.310
75.18000 5.650
75.20000 2.585
75.22000 0.236
75.24000 -1.237
75.26000 1.006
75.28000 3.132
75.30000 5.196
75.32000 3.660
75.34000 1.150
75.36000 0.754
75.38000 3.193
75.40000 3.704
75.42000 0.476
75.44000 1.905
75.46000 5.520
75.48000 2.824
75.50000 -2.218
75.52000 0.294
75.54000 5.197
75.56000 2.074
75.58000 3.230
75.60000 5.146
75.62000 5.391
75.64000 5.446
75.66000 6.859
75.68000 3.951
75.70000 -0.063
75.72000 1.026
75.74000 8.531
75.76000 2.089
75.78000 3.435
75.80000 3.126
75.82000 3.556
75.84000 2.131
75.86000 2.840
75.88000 1.539
75.90000 0.603
75.92000 2.538
75.94000 -0.725
75.96000 -0.599
75.98000 -0.670
76.00000 0.555
76.02000 0.040
76.04000 0.138
76.06000 1.827
76.08000 8.034
76.10000 7.037
76.12000 5.042
76.14000 3.487
76.16000 5.538
76.18000 4.956
76.20000 2.940
76.22000 2.502
76.24000 5.841
76.26000 4.968
76.28000 2.252
76.30000 0.679
76.32000 1.015
76.34000 0.771
76.36000 3.313
76.38000 6.483
76.40000 5.300
76.42000 5.819
76.44000 0.952
76.46000 2.298
76.48000 0.548
76.50000 -1.095
76.52000 3.196
76.54000 7.632
76.56000 11.243
76.58000 9.799
76.60000 6.190
76.62000 4.269
76.64000 3.108
76.66000 1.875
76.68000 1.095
76.70000 1.660
76.72000 1.768
76.74000 0.743
76.76000 -0.191
76.78000 4.998
76.80000 4.658
76.82000 3.863
76.84000 5.643
76.86000 6.427
76.88000 3.581
76.90000 2.706
76.92000 7.921
76.94000 4.861
76.96000 4.173
76.98000 3.797
77.00000 -1.058
77.02000 -2.222
77.04000 -1.764
77.06000 -0.163
77.08000 3.921
77.10000 4.044
77.12000 4.887
77.14000 0.263
77.16000 0.343
77.18000 3.243
77.20000 2.046
77.22000 2.321
77.24000 6.638
77.26000 7.435
77.28000 9.825
77.30000 4.246
77.32000 0.461
77.34000 2.825
77.36000 3.709
77.38000 10.962
77.40000 7.269
77.42000 1.229
77.44000 1.883
77.46000 1.845
77.48000 3.534
77.50000 0.111
77.52000 0.545
77.54000 2.151
77.56000 1.641
77.58000 1.527
77.60000 4.065
77.62000 2.101
77.64000 1.045
77.66000 0.644
77.68000 3.333
77.70000 5.380
77.72000 7.630
77.74000 3.024
77.76000 3.525
77.78000 3.942
77.80000 2.070
77.82000 4.748
77.84000 1.356
77.86000 1.824
77.88000 0.542
77.90000 0.135
77.92000 0.013
77.94000 1.882
77.96000 6.549
77.98000 4.604
78.00000 5.086
78.02000 3.888
78.04000 2.520
78.06000 1.226
78.08000 3.281
78.10000 5.070
78.12000 -0.925
78.14000 -1.177
78.16000 6.363
78.18000 5.875
78.20000 2.041
78.22000 2.492
78.24000 6.774
78.26000 4.995
78.28000 5.065
78.30000 2.693
78.32000 2.919
78.34000 3.232
78.36000 3.633
78.38000 3.711
78.40000 1.581
78.42000 3.431
78.44000 6.464
78.46000 6.204
78.48000 6.793
78.50000 5.266
78.52000 6.798
78.54000 4.685
78.56000 0.514
78.58000 0.177
78.60000 0.990
78.62000 6.340
78.64000 11.634
78.66000 5.091
78.68000 5.236
78.70000 8.115
78.72000 7.608
78.74000 6.861
78.76000 5.105
78.78000 2.995
78.80000 -2.227
78.82000 -0.420
78.84000 0.877
78.86000 6.947
78.88000 6.541
78.90000 4.817
78.92000 6.045
78.94000 3.745
78.96000 3.286
78.98000 6.891
79.00000 8.357
79.02000 7.053
79.04000 7.791
79.06000 2.947
79.08000 5.833
79.10000 7.970
79.12000 6.790
79.14000 -0.328
79.16000 2.790
79.18000 5.996
79.20000 5.481
79.22000 7.969
79.24000 1.256
79.26000 0.676
79.28000 1.991
79.30000 6.224
79.32000 6.355
79.34000 4.042
79.36000 1.361
79.38000 -2.264
79.40000 0.994
79.42000 3.595
79.44000 1.969
79.46000 4.964
79.48000 5.976
79.50000 2.906
79.52000 6.935
79.54000 7.111
79.56000 4.479
79.58000 2.770
79.60000 2.174
79.62000 2.940
79.64000 1.643
79.66000 0.996
79.68000 3.118
79.70000 5.297
79.72000 6.294
79.74000 3.389
79.76000 -0.709
79.78000 1.592
79.80000 5.573
79.82000 2.060
79.84000 1.469
79.86000 2.711
79.88000 1.005
79.90000 5.425
79.92000 4.871
79.94000 8.244
79.96000 6.134
79.98000 3.335
80.00000 3.247
80.02000 5.324
80.04000 2.979
80.06000 2.755
80.08000 -2.106
80.10000 0.415
80.12000 3.367
80.14000 3.892
80.16000 0.873
80.18000 -2.280
80.20000 0.586
80.22000 0.016
80.24000 1.558
80.26000 3.165
80.28000 6.240
80.30000 4.031
80.32000 1.892
80.34000 6.405
80.36000 5.774
80.38000 3.582
80.40000 1.396
80.42000 4.267
80.44000 4.041
80.46000 3.050
80.48000 -0.438
80.50000 -2.303
80.52000 0.548
80.54000 1.529
80.56000 1.974
80.58000 0.120
80.60000 1.373
80.62000 4.591
80.64000 4.647
80.66000 5.032
80.68000 6.112
80.70000 6.131
80.72000 5.790
80.74000 1.000
80.76000 2.651
80.78000 0.705
80.80000 0.765
80.82000 0.589
80.84000 2.479
80.86000 2.702
80.88000 4.813
80.90000 2.663
80.92000 -2.326
80.94000 0.576
80.96000 5.468
80.98000 7.118
81.00000 1.467
81.02000 0.258
81.04000 2.119
81.06000 8.397
81.08000 6.430
81.10000 6.799
81.12000 4.264
81.14000 3.061
81.16000 2.944
81.18000 1.358
81.20000 0.204
81.22000 3.112
81.24000 1.647
81.26000 -0.355
81.28000 0.367
81.30000 0.744
81.32000 5.420
81.34000 8.967
81.36000 0.152
81.38000 0.639
81.40000 3.828
81.42000 7.601
81.44000 8.209
81.46000 7.929
81.48000 6.692
81.50000 4.328
81.52000 4.270
81.54000 7.162
81.56000 9.253
81.58000 7.929
81.60000 3.549
81.62000 4.260
81.64000 4.679
81.66000 3.610
81.68000 -0.992
81.70000 -0.966
81.72000 -0.213
81.74000 0.095
81.76000 6.144
81.78000 6.374
81.80000 6.108
81.82000 3.475
81.84000 7.393
81.86000 10.849
81.88000 10.865
81.90000 8.913
81.92000 3.000
81.94000 4.188
81.96000 7.461
81.98000 6.712
82.00000 5.709
82.02000 8.130
82.04000 9.435
82.06000 6.356
82.08000 10.399
82.10000 9.579
82.12000 10.284
82.14000 9.357
82.16000 6.506
82.18000 4.376
82.20000 8.081
82.22000 9.169
82.24000 13.308
82.26000 15.814
82.28000 12.250
82.30000 7.718
82.32000 8.081
82.34000 12.943
82.36000 12.903
82.38000 13.173
82.40000 12.403
82.42000 10.315
82.44000 11.393
82.46000 15.005
82.48000 15.085
82.50000 14.621
82.52000 18.453
82.54000 20.128
82.56000 16.486
82.58000 15.138
82.60000 18.601
82.62000 16.719
82.64000 18.386
82.66000 17.757
82.68000 21.863
82.70000 20.377
82.72000 16.460
82.74000 18.415
82.76000 19.687
82.78000 21.079
82.80000 23.538
82.82000 24.656
82.84000 22.738
82.86000 20.784
82.88000 27.142
82.90000 26.732
82.92000 27.566
82.94000 26.029
82.96000 25.392
82.98000 25.274
83.00000 25.890
83.02000 27.352
83.04000 30.927
83.06000 31.590
83.08000 30.022
83.10000 33.378
83.12000 32.228
83.14000 30.388
83.16000 25.616
83.18000 23.146
83.20000 22.888
83.22000 21.415
83.24000 20.361
83.26000 25.096
83.28000 26.529
83.30000 25.663
83.32000 21.621
83.34000 22.482
83.36000 25.170
83.38000 23.768
83.40000 22.336
83.42000 19.491
83.44000 21.129
83.46000 24.934
83.48000 23.196
83.50000 22.518
83.52000 21.655
83.54000 22.779
83.56000 17.806
83.58000 20.824
83.60000 21.806
83.62000 20.904
83.64000 22.104
83.66000 19.093
83.68000 16.120
83.70000 15.669
83.72000 14.774
83.74000 14.869
83.76000 17.991
83.78000 17.183
83.80000 16.269
83.82000 17.372
83.84000 15.041
83.86000 13.876
83.88000 16.415
83.90000 17.178
83.92000 13.390
83.94000 12.148
83.96000 14.414
83.98000 13.255
84.00000 16.919
84.02000 15.022
84.04000 10.998
84.06000 8.193
84.08000 12.120
84.10000 13.171
84.12000 8.097
84.14000 9.320
84.16000 9.950
84.18000 6.469
84.20000 7.084
84.22000 7.230
84.24000 5.774
84.26000 8.159
84.28000 12.010
84.30000 8.564
84.32000 11.251
84.34000 9.069
84.36000 8.150
84.38000 0.701
84.40000 1.744
84.42000 7.361
84.44000 4.227
84.46000 7.367
84.48000 3.826
84.50000 1.834
84.52000 3.864
84.54000 5.573
84.56000 8.894
84.58000 7.594
84.60000 2.379
84.62000 -0.908
84.64000 -0.191
84.66000 -0.332
84.68000 -1.753
84.70000 0.922
84.72000 1.931
84.74000 5.951
84.76000 7.290
84.78000 5.489
84.80000 -0.588
84.82000 4.449
84.84000 5.215
84.86000 3.848
84.88000 4.638
84.90000 7.070
84.92000 3.648
84.94000 2.797
84.96000 -0.066
84.98000 0.374
85.00000 4.779
85.02000 0.940
85.04000 -0.552
85.06000 1.406
85.08000 1.436
85.10000 1.333
85.12000 0.646
85.14000 0.963
85.16000 1.754
85.18000 1.074
85.20000 3.277
85.22000 3.082
85.24000 -2.175
85.26000 0.066
85.28000 2.031
85.30000 1.223
85.32000 2.100
85.34000 0.559
85.36000 -0.072
85.38000 -1.491
85.40000 -2.313
85.42000 0.517
85.44000 0.951
85.46000 2.290
85.48000 6.615
85.50000 6.016
85.52000 2.383
85.54000 -0.881
85.56000 1.327
85.58000 3.405
85.60000 7.200
85.62000 3.384
85.64000 2.488
85.66000 3.399
85.68000 -2.306
85.70000 0.124
85.72000 1.578
85.74000 0.225
85.76000 3.843
85.78000 2.268
85.80000 2.338
85.82000 4.259
85.84000 0.925
85.86000 1.515
85.88000 2.553
85.90000 2.513
85.92000 -2.313
85.94000 -1.774
85.96000 0.020
85.98000 0.346
86.00000 0.365
86.02000 0.738
86.04000 5.300
86.06000 6.220
86.08000 2.104
86.10000 -0.744
86.12000 0.400
86.14000 0.886
86.16000 5.000
86.18000 4.951
86.20000 4.340
86.22000 1.223
86.24000 1.854
86.26000 -1.414
86.28000 -0.716
86.30000 1.512
86.32000 0.946
86.34000 4.201
86.36000 3.216
86.38000 0.930
86.40000 3.308
86.42000 5.288
86.44000 4.378
86.46000 1.897
86.48000 4.729
86.50000 3.816
86.52000 0.982
86.54000 1.098
86.56000 2.911
86.58000 0.692
86.60000 0.577
86.62000 1.148
86.64000 2.663
86.66000 0.581
86.68000 5.297
86.70000 7.292
86.72000 1.898
86.74000 1.125
86.76000 5.324
86.78000 3.751
86.80000 4.786
86.82000 1.768
86.84000 1.491
86.86000 2.312
86.88000 4.998
86.90000 0.757
86.92000 1.615
86.94000 7.900
86.96000 9.073
86.98000 8.459
87.00000 6.782
87.02000 8.826
87.04000 4.448
87.06000 4.408
87.08000 10.982
87.10000 15.563
87.12000 15.442
87.14000 14.014
87.16000 10.339
87.18000 4.532
87.20000 9.722
87.22000 11.485
87.24000 12.481
87.26000 12.688
87.28000 8.087
87.30000 9.757
87.32000 8.386
87.34000 8.110
87.36000 9.149
87.38000 11.873
87.40000 12.409
87.42000 14.719
87.44000 17.258
87.46000 15.552
87.48000 15.822
87.50000 17.085
87.52000 19.269
87.54000 21.186
87.56000 15.974
87.58000 13.607
87.60000 11.854
87.62000 16.843
87.64000 17.319
87.66000 19.773
87.68000 14.327
87.70000 14.799
87.72000 9.583
87.74000 12.405
87.76000 23.586
87.78000 21.221
87.80000 15.787
87.82000 15.503
87.84000 16.880
87.86000 14.062
87.88000 14.457
87.90000 17.997
87.92000 14.950
87.94000 12.862
87.96000 13.290
87.98000 15.149
88.00000 12.188
88.02000 13.718
88.04000 13.890
88.06000 14.021
88.08000 13.439
88.10000 12.449
88.12000 12.495
88.14000 13.022
88.16000 13.341
88.18000 12.351
88.20000 10.966
88.22000 14.398
88.24000 16.378
88.26000 9.519
88.28000 10.588
88.30000 9.509
88.32000 11.538
88.34000 13.348
88.36000 9.249
88.38000 5.992
88.40000 4.895
88.42000 4.878
88.44000 6.979
88.46000 8.437
88.48000 8.087
88.50000 4.847
88.52000 2.571
88.54000 6.835
88.56000 3.772
88.58000 2.198
88.60000 2.142
88.62000 4.182
88.64000 2.635
88.66000 3.540
88.68000 2.818
88.70000 1.410
88.72000 4.328
88.74000 2.788
88.76000 -0.810
88.78000 1.731
88.80000 -0.186
88.82000 1.211
88.84000 -0.227
88.86000 1.161
88.88000 2.447
88.90000 2.018
88.92000 -2.256
88.94000 0.208
88.96000 1.831
88.98000 2.400
89.00000 2.925
89.02000 5.036
89.04000 1.483
89.06000 3.650
89.08000 3.840
89.10000 5.366
89.12000 1.211
89.14000 1.222
89.16000 -1.255
89.18000 -0.336
89.20000 2.485
89.22000 5.898
89.24000 6.878
89.26000 3.833
89.28000 -1.132
89.30000 -1.824
89.32000 3.808
89.34000 5.099
89.36000 2.668
89.38000 4.133
89.40000 3.612
89.42000 1.965
89.44000 1.706
89.46000 3.228
89.48000 0.592
89.50000 -2.192
89.52000 -0.196
89.54000 -0.170
89.56000 -1.880
89.58000 2.456
89.60000 1.653
89.62000 -1.234
89.64000 0.632
89.66000 2.217
89.68000 -0.928
89.70000 2.964
89.72000 4.448
89.74000 3.028
89.76000 2.801
89.78000 0.523
89.80000 1.993
89.82000 -0.217
89.84000 2.528
89.86000 2.908
89.88000 2.916
89.90000 1.272
89.92000 0.550
89.94000 1.533
89.96000 2.952
89.98000 4.299
90.00000 1.651
90.02000 -2.152
90.04000 -1.830
90.06000 -1.498
90.08000 -0.057
90.10000 3.516
90.12000 0.365
90.14000 5.085
90.16000 7.474
90.18000 3.805
90.20000 5.623
90.22000 3.261
90.24000 1.075
90.26000 -0.354
90.28000 0.996
90.30000 2.678
90.32000 0.927
90.34000 5.670
90.36000 4.565
90.38000 6.288
90.40000 4.452
90.42000 6.330
90.44000 7.426
90.46000 3.518
90.48000 3.221
90.50000 6.100
90.52000 3.118
90.54000 3.782
90.56000 5.004
90.58000 6.250
90.60000 3.558
90.62000 0.663
90.64000 1.447
90.66000 0.093
90.68000 0.829
90.70000 -2.089
90.72000 2.676
90.74000 6.188
90.76000 6.587
90.78000 3.722
90.80000 3.636
90.82000 5.857
90.84000 6.483
90.86000 3.720
90.88000 3.527
90.90000 1.392
90.92000 1.417
90.94000 1.221
90.96000 2.050
90.98000 3.873
91.00000 5.526
91.02000 5.894
91.04000 8.304
91.06000 4.322
91.08000 1.485
91.10000 4.557
91.12000 6.848
91.14000 5.671
91.16000 9.583
91.18000 6.991
91.20000 5.733
91.22000 5.969
91.24000 6.506
91.26000 6.881
91.28000 2.967
91.30000 0.394
91.32000 2.209
91.34000 6.340
91.36000 6.542
91.38000 6.845
91.40000 5.400
91.42000 2.160
91.44000 3.656
91.46000 3.854
91.48000 1.684
91.50000 0.633
91.52000 -0.407
91.54000 2.851
91.56000 2.246
91.58000 3.381
91.60000 4.454
91.62000 1.532
91.64000 2.866
91.66000 4.406
91.68000 8.155
91.70000 6.334
91.72000 2.663
91.74000 2.861
91.76000 7.142
91.78000 7.789
91.80000 4.909
91.82000 2.437
91.84000 11.132
91.86000 11.195
91.88000 6.011
91.90000 7.258
91.92000 5.949
91.94000 5.630
91.96000 10.338
91.98000 8.486
92.00000 3.665
92.02000 4.817
92.04000 3.047
92.06000 3.603
92.08000 6.959
92.10000 6.236
92.12000 8.101
92.14000 4.998
92.16000 2.893
92.18000 2.758
92.20000 5.051
92.22000 7.336
92.24000 7.888
92.26000 6.756
92.28000 6.073
92.30000 -0.568
92.32000 2.255
92.34000 6.789
92.36000 7.645
92.38000 9.599
92.40000 7.312
92.42000 9.987
92.44000 4.915
92.46000 4.721
92.48000 -2.070
92.50000 1.811
92.52000 3.148
92.54000 5.106
92.56000 4.012
92.58000 0.832
92.60000 3.726
92.62000 5.527
92.64000 4.850
92.66000 0.540
92.68000 3.235
92.70000 4.641
92.72000 3.991
92.74000 3.915
92.76000 9.659
92.78000 9.594
92.80000 4.292
92.82000 3.741
92.84000 8.507
92.86000 5.833
92.88000 2.293
92.90000 5.054
92.92000 8.798
92.94000 7.879
92.96000 7.714
92.98000 2.971
93.00000 1.890
93.02000 2.698
93.04000 7.545
93.06000 4.869
93.08000 5.858
93.10000 4.679
93.12000 5.947
93.14000 7.338
93.16000 7.036
93.18000 6.285
93.20000 2.137
93.22000 -2.116
93.24000 -1.220
93.26000 -0.938
93.28000 0.705
93.30000 0.187
93.32000 4.822
93.34000 6.091
93.36000 4.601
93.38000 0.101
93.40000 2.084
93.42000 7.074
93.44000 6.581
93.46000 6.687
93.48000 4.121
93.50000 2.888
93.52000 0.430
93.54000 0.474
93.56000 1.651
93.58000 1.836
93.60000 2.463
93.62000 5.290
93.64000 3.322
93.66000 4.593
93.68000 8.087
93.70000 7.048
93.72000 7.489
93.74000 2.571
93.76000 -1.171
93.78000 0.677
93.80000 3.348
93.82000 2.289
93.84000 3.363
93.86000 6.096
93.88000 -0.066
93.90000 2.599
93.92000 4.026
93.94000 1.800
93.96000 4.530
93.98000 6.916
94.00000 0.645
94.02000 -1.162
94.04000 -2.150
94.06000 2.897
94.08000 6.641
94.10000 1.109
94.12000 2.157
94.14000 3.141
94.16000 3.193
94.18000 2.057
94.20000 1.067
94.22000 -0.142
94.24000 3.450
94.26000 2.009
94.28000 3.888
94.30000 9.147
94.32000 6.188
94.34000 4.477
94.36000 6.387
94.38000 6.334
94.40000 4.741
94.42000 5.965
94.44000 3.859
94.46000 3.379
94.48000 7.371
94.50000 3.428
94.52000 -1.264
94.54000 2.054
94.56000 4.642
94.58000 5.200
94.60000 4.093
94.62000 -0.668
94.64000 1.326
94.66000 7.503
94.68000 3.983
94.70000 4.585
94.72000 0.733
94.74000 -0.890
94.76000 3.048
94.78000 4.524
94.80000 3.778
94.82000 1.571
94.84000 0.205
94.86000 3.125
94.88000 2.548
94.90000 3.673
94.92000 4.224
94.94000 0.714
94.96000 -2.159
94.98000 -0.049
95.00000 2.856
95.02000 1.027
95.04000 7.430
95.06000 4.729
95.08000 3.096
95.10000 4.487
95.12000 -0.135
95.14000 4.513
95.16000 3.619
95.18000 -0.579
95.20000 0.640
95.22000 4.904
95.24000 4.054
95.26000 4.403
95.28000 1.918
95.30000 7.613
95.32000 4.538
95.34000 2.906
95.36000 5.931
95.38000 2.972
95.40000 4.046
95.42000 4.082
95.44000 4.532
95.46000 -0.159
95.48000 -2.147
95.50000 4.239
95.52000 7.542
95.54000 3.358
95.56000 2.384
95.58000 0.148
95.60000 1.430
95.62000 3.181
95.64000 3.636
95.66000 7.620
95.68000 4.637
95.70000 4.017
95.72000 7.466
95.74000 2.576
95.76000 1.763
95.78000 0.584
95.80000 1.954
95.82000 5.986
95.84000 4.460
95.86000 7.195
95.88000 2.913
95.90000 -0.500
95.92000 -0.318
95.94000 4.039
95.96000 5.677
95.98000 -1.264
96.00000 2.234
96.02000 3.600
96.04000 0.879
96.06000 -0.534
96.08000 0.233
96.10000 3.891
96.12000 3.132
96.14000 1.605
96.16000 8.768
96.18000 11.375
96.20000 7.167
96.22000 2.465
96.24000 1.292
96.26000 0.524
96.28000 -2.151
96.30000 0.010
96.32000 6.121
96.34000 6.360
96.36000 4.746
96.38000 -1.851
96.40000 5.079
96.42000 5.472
96.44000 4.758
96.46000 6.493
96.48000 3.866
96.50000 2.147
96.52000 1.456
96.54000 0.796
96.56000 1.580
96.58000 3.043
96.60000 5.803
96.62000 4.134
96.64000 3.253
96.66000 -0.427
96.68000 -1.586
96.70000 2.419
96.72000 7.331
96.74000 5.390
96.76000 3.786
96.78000 5.667
96.80000 4.685
96.82000 5.556
96.84000 3.682
96.86000 5.212
96.88000 5.924
96.90000 8.625
96.92000 9.192
96.94000 8.378
96.96000 3.117
96.98000 3.960
97.00000 5.586
97.02000 8.540
97.04000 4.879
97.06000 8.323
97.08000 7.511
97.10000 5.735
97.12000 4.807
97.14000 6.447
97.16000 11.405
97.18000 4.892
97.20000 9.857
97.22000 8.352
97.24000 1.671
97.26000 -2.095
97.28000 1.586
97.30000 4.221
97.32000 6.119
97.34000 7.614
97.36000 9.369
97.38000 15.020
97.40000 15.421
97.42000 12.046
97.44000 6.743
97.46000 2.494
97.48000 0.897
97.50000 3.598
97.52000 9.851
97.54000 9.009
97.56000 6.531
97.58000 1.146
97.60000 -1.921
97.62000 4.430
97.64000 7.938
97.66000 7.242
97.68000 8.560
97.70000 6.749
97.72000 7.470
97.74000 3.831
97.76000 3.480
97.78000 7.470
97.80000 3.230
97.82000 2.348
97.84000 3.187
97.86000 6.244
97.88000 6.017
97.90000 3.917
97.92000 1.064
97.94000 6.111
97.96000 3.753
97.98000 0.357
98.00000 8.859
98.02000 10.510
98.04000 6.628
98.06000 5.858
98.08000 -2.252
98.10000 7.111
98.12000 9.749
98.14000 6.670
98.16000 6.455
98.18000 3.345
98.20000 5.712
98.22000 5.892
98.24000 2.528
98.26000 -1.430
98.28000 1.971
98.30000 10.560
98.32000 11.145
98.34000 4.403
98.36000 4.342
98.38000 10.667
98.40000 7.311
98.42000 6.455
98.44000 6.514
98.46000 6.976
98.48000 5.646
98.50000 7.166
98.52000 8.346
98.54000 4.338
98.56000 5.834
98.58000 9.403
98.60000 10.870
98.62000 8.413
98.64000 7.693
98.66000 8.070
98.68000 3.869
98.70000 11.251
98.72000 5.893
98.74000 9.348
98.76000 11.797
98.78000 -0.081
98.80000 -0.970
98.82000 6.920
98.84000 1.308
98.86000 3.390
98.88000 -0.427
98.90000 -2.031
98.92000 5.010
98.94000 5.225
98.96000 2.722
98.98000 1.709
99.00000 4.915
99.02000 11.599
99.04000 8.907
99.06000 -0.687
99.08000 -1.563
99.10000 5.737
99.12000 2.172
99.14000 3.193
99.16000 0.258
99.18000 6.601
99.20000 17.904
99.22000 12.778
99.24000 8.965
99.26000 5.156
99.28000 4.687
99.30000 7.602
99.32000 4.324
99.34000 -2.080
99.36000 -1.761
99.38000 7.590
99.40000 4.952
99.42000 -1.450
99.44000 -0.931
99.46000 3.573
99.48000 5.015
99.50000 2.898
99.52000 0.290
99.54000 -2.104
99.56000 2.918
99.58000 -1.858
99.60000 -0.321
99.62000 6.736
99.64000 5.727
99.66000 6.368
99.68000 5.677
99.70000 7.041
99.72000 5.168
99.74000 2.243
99.76000 7.841
99.78000 10.767
99.80000 9.179
99.82000 12.996
99.84000 8.490
99.86000 5.972
99.88000 2.698
99.90000 2.586
99.92000 4.557
99.94000 -4.540
99.96000 0.534
99.98000 0.000
