'Id: "0011389" Comment: "Integrate frame 0011389_Au-Ir-Rh_Au-Rich_XRD_Mapping-299-0000.gfrmwith cursor Wedge Cursor #5" Operator: "B?rgel" Anode: "Cu" Wavelength: "1.5406" Scantype: "2Theta (TwoTheta)" TimePerStep: "1" X: "-18" Y: "31.5" Z: "5.95" 
10.00000 0.000
10.02000 -4.557
10.04000 2.690
10.06000 11.305
10.08000 4.484
10.10000 20.905
10.12000 18.444
10.14000 6.033
10.16000 6.623
10.18000 -4.517
10.20000 -1.132
10.22000 3.275
10.24000 8.860
10.26000 29.115
10.28000 29.163
10.30000 25.466
10.32000 10.898
10.34000 12.198
10.36000 21.356
10.38000 21.575
10.40000 20.602
10.42000 22.776
10.44000 15.122
10.46000 21.173
10.48000 24.133
10.50000 12.044
10.52000 12.518
10.54000 12.462
10.56000 8.841
10.58000 9.859
10.60000 11.081
10.62000 6.723
10.64000 18.324
10.66000 22.333
10.68000 18.784
10.70000 7.072
10.72000 18.543
10.74000 25.351
10.76000 -2.589
10.78000 7.539
10.80000 3.034
10.82000 7.888
10.84000 13.605
10.86000 20.578
10.88000 14.837
10.90000 22.782
10.92000 20.459
10.94000 30.972
10.96000 8.378
10.98000 -4.482
11.00000 1.270
11.02000 11.435
11.04000 13.890
11.06000 21.927
11.08000 26.089
11.10000 8.507
11.12000 7.178
11.14000 7.638
11.16000 11.722
11.18000 8.824
11.20000 15.527
11.22000 6.635
11.24000 12.333
11.26000 23.214
11.28000 15.849
11.30000 12.681
11.32000 26.951
11.34000 11.522
11.36000 15.052
11.38000 18.831
11.40000 20.561
11.42000 13.858
11.44000 11.597
11.46000 10.577
11.48000 2.307
11.50000 10.116
11.52000 23.981
11.54000 14.420
11.56000 8.526
11.58000 21.955
11.60000 17.363
11.62000 24.456
11.64000 11.269
11.66000 13.436
11.68000 16.988
11.70000 24.432
11.72000 21.097
11.74000 5.856
11.76000 9.986
11.78000 17.722
11.80000 19.846
11.82000 12.100
11.84000 11.342
11.86000 3.328
11.88000 6.218
11.90000 4.311
11.92000 14.835
11.94000 11.640
11.96000 0.404
11.98000 8.591
12.00000 12.485
12.02000 8.303
12.04000 4.539
12.06000 -1.999
12.08000 8.228
12.10000 18.751
12.12000 13.954
12.14000 3.826
12.16000 6.415
12.18000 11.685
12.20000 10.818
12.22000 13.823
12.24000 8.551
12.26000 8.343
12.28000 14.872
12.30000 14.021
12.32000 0.273
12.34000 9.384
12.36000 15.761
12.38000 11.275
12.40000 9.746
12.42000 16.348
12.44000 26.865
12.46000 17.165
12.48000 19.493
12.50000 17.503
12.52000 9.293
12.54000 17.615
12.56000 15.360
12.58000 12.641
12.60000 16.945
12.62000 14.651
12.64000 11.529
12.66000 17.084
12.68000 11.145
12.70000 5.112
12.72000 8.121
12.74000 13.518
12.76000 9.735
12.78000 10.026
12.80000 16.855
12.82000 18.709
12.84000 7.724
12.86000 6.117
12.88000 12.245
12.90000 13.099
12.92000 10.596
12.94000 2.621
12.96000 7.340
12.98000 20.092
13.00000 22.175
13.02000 4.748
13.04000 1.326
13.06000 6.420
13.08000 6.535
13.10000 0.736
13.12000 1.210
13.14000 12.176
13.16000 16.814
13.18000 13.534
13.20000 13.829
13.22000 12.719
13.24000 17.036
13.26000 18.615
13.28000 11.209
13.30000 7.497
13.32000 12.498
13.34000 22.629
13.36000 21.152
13.38000 11.940
13.40000 14.077
13.42000 24.628
13.44000 16.774
13.46000 17.621
13.48000 17.799
13.50000 20.926
13.52000 19.898
13.54000 20.003
13.56000 14.962
13.58000 18.141
13.60000 9.174
13.62000 7.068
13.64000 8.490
13.66000 14.584
13.68000 12.608
13.70000 3.796
13.72000 18.096
13.74000 22.777
13.76000 10.299
13.78000 11.059
13.80000 11.043
13.82000 2.641
13.84000 14.212
13.86000 11.565
13.88000 9.147
13.90000 15.688
13.92000 15.780
13.94000 6.281
13.96000 8.228
13.98000 3.453
14.00000 17.885
14.02000 12.781
14.04000 10.673
14.06000 20.036
14.08000 16.796
14.10000 2.612
14.12000 6.232
14.14000 11.023
14.16000 8.807
14.18000 13.926
14.20000 10.211
14.22000 4.294
14.24000 7.563
14.26000 9.557
14.28000 11.122
14.30000 8.612
14.32000 4.519
14.34000 9.433
14.36000 11.469
14.38000 6.958
14.40000 1.878
14.42000 6.186
14.44000 -1.456
14.46000 4.175
14.48000 9.513
14.50000 4.238
14.52000 15.964
14.54000 21.039
14.56000 3.110
14.58000 11.625
14.60000 9.400
14.62000 7.585
14.64000 10.004
14.66000 17.308
14.68000 19.076
14.70000 15.395
14.72000 6.061
14.74000 5.627
14.76000 5.429
14.78000 6.399
14.80000 -4.502
14.82000 6.687
14.84000 6.807
14.86000 10.892
14.88000 11.600
14.90000 9.837
14.92000 9.724
14.94000 17.082
14.96000 26.525
14.98000 14.543
15.00000 8.065
15.02000 18.557
15.04000 15.643
15.06000 14.438
15.08000 4.448
15.10000 5.862
15.12000 12.645
15.14000 19.073
15.16000 13.996
15.18000 22.313
15.20000 15.617
15.22000 9.984
15.24000 10.214
15.26000 2.770
15.28000 2.701
15.30000 5.613
15.32000 11.109
15.34000 7.961
15.36000 15.182
15.38000 17.570
15.40000 12.078
15.42000 14.470
15.44000 10.912
15.46000 -2.734
15.48000 3.888
15.50000 7.109
15.52000 3.617
15.54000 -4.468
15.56000 17.484
15.58000 20.586
15.60000 11.638
15.62000 9.000
15.64000 10.564
15.66000 18.616
15.68000 13.445
15.70000 8.838
15.72000 9.233
15.74000 7.642
15.76000 6.970
15.78000 8.183
15.80000 18.270
15.82000 10.750
15.84000 3.507
15.86000 7.394
15.88000 11.348
15.90000 9.143
15.92000 9.455
15.94000 9.200
15.96000 14.681
15.98000 17.760
16.00000 1.548
16.02000 3.813
16.04000 11.389
16.06000 5.989
16.08000 0.025
16.10000 7.448
16.12000 7.228
16.14000 9.500
16.16000 10.216
16.18000 -2.506
16.20000 1.433
16.22000 11.302
16.24000 9.168
16.26000 8.425
16.28000 12.685
16.30000 17.270
16.32000 16.444
16.34000 6.761
16.36000 5.405
16.38000 3.148
16.40000 0.360
16.42000 8.352
16.44000 2.357
16.46000 -0.527
16.48000 1.767
16.50000 8.399
16.52000 6.339
16.54000 7.251
16.56000 12.238
16.58000 6.469
16.60000 4.334
16.62000 4.180
16.64000 8.813
16.66000 10.003
16.68000 9.030
16.70000 13.699
16.72000 8.390
16.74000 8.993
16.76000 6.710
16.78000 11.598
16.80000 11.627
16.82000 5.463
16.84000 1.652
16.86000 8.121
16.88000 6.193
16.90000 4.387
16.92000 5.329
16.94000 5.641
16.96000 2.665
16.98000 3.071
17.00000 -0.529
17.02000 7.444
17.04000 6.299
17.06000 7.955
17.08000 8.065
17.10000 4.721
17.12000 7.619
17.14000 8.532
17.16000 2.432
17.18000 5.850
17.20000 7.185
17.22000 6.120
17.24000 3.399
17.26000 8.610
17.28000 5.253
17.30000 -1.089
17.32000 0.895
17.34000 5.789
17.36000 4.163
17.38000 -0.553
17.40000 0.593
17.42000 -2.596
17.44000 1.077
17.46000 2.704
17.48000 3.488
17.50000 4.209
17.52000 1.497
17.54000 3.568
17.56000 -3.063
17.58000 0.601
17.60000 5.891
17.62000 7.520
17.64000 9.212
17.66000 5.267
17.68000 4.079
17.70000 8.903
17.72000 -0.798
17.74000 -3.934
17.76000 6.328
17.78000 7.712
17.80000 8.671
17.82000 -1.013
17.84000 -0.676
17.86000 -1.124
17.88000 1.767
17.90000 1.966
17.92000 0.207
17.94000 4.901
17.96000 7.942
17.98000 5.563
18.00000 6.211
18.02000 4.502
18.04000 11.449
18.06000 3.382
18.08000 4.858
18.10000 -0.194
18.12000 4.415
18.14000 10.135
18.16000 4.754
18.18000 7.791
18.20000 7.553
18.22000 2.400
18.24000 -2.682
18.26000 -0.185
18.28000 -2.176
18.30000 0.982
18.32000 1.969
18.34000 6.496
18.36000 0.754
18.38000 -2.877
18.40000 0.097
18.42000 -4.361
18.44000 3.982
18.46000 5.921
18.48000 10.606
18.50000 6.688
18.52000 2.879
18.54000 4.434
18.56000 -0.303
18.58000 3.826
18.60000 2.543
18.62000 5.913
18.64000 4.901
18.66000 0.343
18.68000 -1.532
18.70000 3.190
18.72000 6.189
18.74000 3.828
18.76000 2.219
18.78000 5.135
18.80000 4.526
18.82000 -0.309
18.84000 1.903
18.86000 6.492
18.88000 8.699
18.90000 13.687
18.92000 -1.690
18.94000 -3.401
18.96000 0.991
18.98000 4.361
19.00000 4.016
19.02000 -2.192
19.04000 0.375
19.06000 7.278
19.08000 6.418
19.10000 2.588
19.12000 5.394
19.14000 3.769
19.16000 5.185
19.18000 3.697
19.20000 2.589
19.22000 8.222
19.24000 5.983
19.26000 3.664
19.28000 6.802
19.30000 8.770
19.32000 6.564
19.34000 4.732
19.36000 5.837
19.38000 2.304
19.40000 -0.359
19.42000 -0.345
19.44000 1.795
19.46000 -1.433
19.48000 3.251
19.50000 4.687
19.52000 1.932
19.54000 5.921
19.56000 5.437
19.58000 8.755
19.60000 4.567
19.62000 6.614
19.64000 8.554
19.66000 10.027
19.68000 10.768
19.70000 5.439
19.72000 10.701
19.74000 5.949
19.76000 -4.234
19.78000 -0.818
19.80000 7.930
19.82000 7.326
19.84000 2.480
19.86000 0.095
19.88000 6.753
19.90000 12.015
19.92000 11.889
19.94000 13.831
19.96000 10.302
19.98000 3.811
20.00000 2.087
20.02000 2.411
20.04000 9.917
20.06000 5.906
20.08000 0.345
20.10000 0.049
20.12000 3.687
20.14000 4.487
20.16000 0.908
20.18000 3.754
20.20000 8.767
20.22000 13.709
20.24000 11.404
20.26000 8.518
20.28000 6.779
20.30000 7.165
20.32000 12.005
20.34000 6.859
20.36000 5.261
20.38000 -0.625
20.40000 1.933
20.42000 7.666
20.44000 4.273
20.46000 6.066
20.48000 12.532
20.50000 6.020
20.52000 4.834
20.54000 11.017
20.56000 9.336
20.58000 7.340
20.60000 7.463
20.62000 3.882
20.64000 1.330
20.66000 10.768
20.68000 7.096
20.70000 1.346
20.72000 7.101
20.74000 13.655
20.76000 14.050
20.78000 8.968
20.80000 2.086
20.82000 5.040
20.84000 6.704
20.86000 3.906
20.88000 5.403
20.90000 9.192
20.92000 6.972
20.94000 4.055
20.96000 3.575
20.98000 5.457
21.00000 0.610
21.02000 6.955
21.04000 7.742
21.06000 -0.671
21.08000 0.011
21.10000 1.239
21.12000 2.451
21.14000 2.123
21.16000 5.599
21.18000 6.576
21.20000 4.431
21.22000 10.028
21.24000 11.081
21.26000 5.108
21.28000 5.976
21.30000 8.581
21.32000 -0.246
21.34000 -3.648
21.36000 0.501
21.38000 2.319
21.40000 6.916
21.42000 11.230
21.44000 5.956
21.46000 -4.152
21.48000 0.532
21.50000 -1.568
21.52000 4.022
21.54000 1.309
21.56000 2.940
21.58000 4.429
21.60000 3.012
21.62000 5.228
21.64000 6.466
21.66000 7.650
21.68000 5.863
21.70000 10.450
21.72000 10.364
21.74000 2.250
21.76000 7.711
21.78000 4.688
21.80000 0.198
21.82000 3.128
21.84000 -2.755
21.86000 5.526
21.88000 7.394
21.90000 5.366
21.92000 8.595
21.94000 7.921
21.96000 7.344
21.98000 3.633
22.00000 7.007
22.02000 0.964
22.04000 -1.297
22.06000 3.949
22.08000 9.495
22.10000 9.797
22.12000 1.104
22.14000 0.467
22.16000 2.258
22.18000 4.696
22.20000 7.579
22.22000 7.883
22.24000 9.679
22.26000 5.596
22.28000 8.037
22.30000 6.367
22.32000 7.139
22.34000 0.474
22.36000 -1.959
22.38000 3.164
22.40000 6.084
22.42000 4.419
22.44000 0.175
22.46000 -1.717
22.48000 1.585
22.50000 5.609
22.52000 3.778
22.54000 2.058
22.56000 2.205
22.58000 0.398
22.60000 4.884
22.62000 7.933
22.64000 0.345
22.66000 -4.107
22.68000 -0.452
22.70000 0.151
22.72000 -1.576
22.74000 3.521
22.76000 4.672
22.78000 5.570
22.80000 3.685
22.82000 1.970
22.84000 -0.421
22.86000 3.750
22.88000 8.099
22.90000 3.490
22.92000 6.023
22.94000 3.583
22.96000 2.467
22.98000 5.091
23.00000 11.116
23.02000 7.272
23.04000 3.209
23.06000 4.084
23.08000 2.847
23.10000 -0.731
23.12000 -2.774
23.14000 2.110
23.16000 4.102
23.18000 7.683
23.20000 -0.591
23.22000 -3.914
23.24000 5.652
23.26000 7.993
23.28000 8.723
23.30000 6.630
23.32000 5.594
23.34000 5.592
23.36000 -4.064
23.38000 -2.175
23.40000 5.084
23.42000 6.431
23.44000 9.410
23.46000 10.240
23.48000 6.087
23.50000 5.214
23.52000 5.467
23.54000 0.187
23.56000 0.784
23.58000 9.313
23.60000 6.993
23.62000 3.240
23.64000 0.150
23.66000 4.379
23.68000 -0.226
23.70000 -0.980
23.72000 2.252
23.74000 12.858
23.76000 11.209
23.78000 2.200
23.80000 1.830
23.82000 3.375
23.84000 1.787
23.86000 -0.370
23.88000 2.870
23.90000 4.458
23.92000 -0.306
23.94000 3.350
23.96000 0.228
23.98000 4.649
24.00000 9.136
24.02000 10.547
24.04000 9.794
24.06000 4.339
24.08000 1.269
24.10000 -0.328
24.12000 3.966
24.14000 2.642
24.16000 5.851
24.18000 3.294
24.20000 2.610
24.22000 1.883
24.24000 -1.430
24.26000 0.875
24.28000 0.850
24.30000 -4.019
24.32000 2.611
24.34000 4.349
24.36000 4.367
24.38000 1.692
24.40000 7.734
24.42000 8.528
24.44000 3.213
24.46000 -0.071
24.48000 4.331
24.50000 3.025
24.52000 3.430
24.54000 1.847
24.56000 3.560
24.58000 4.236
24.60000 5.328
24.62000 -1.201
24.64000 -1.424
24.66000 -1.721
24.68000 1.989
24.70000 0.537
24.72000 2.250
24.74000 6.324
24.76000 -1.062
24.78000 0.671
24.80000 2.998
24.82000 -0.945
24.84000 4.320
24.86000 8.046
24.88000 4.409
24.90000 4.889
24.92000 10.084
24.94000 10.157
24.96000 7.898
24.98000 0.072
25.00000 -0.432
25.02000 -1.042
25.04000 -0.602
25.06000 4.022
25.08000 3.230
25.10000 0.880
25.12000 -0.385
25.14000 8.570
25.16000 14.029
25.18000 9.436
25.20000 4.284
25.22000 0.153
25.24000 0.815
25.26000 -0.298
25.28000 2.717
25.30000 9.275
25.32000 8.796
25.34000 3.723
25.36000 7.753
25.38000 7.757
25.40000 8.279
25.42000 4.353
25.44000 2.308
25.46000 1.908
25.48000 8.242
25.50000 3.169
25.52000 3.960
25.54000 1.710
25.56000 5.579
25.58000 6.559
25.60000 11.249
25.62000 10.408
25.64000 9.765
25.66000 5.308
25.68000 -3.935
25.70000 -0.514
25.72000 -2.230
25.74000 0.389
25.76000 1.268
25.78000 0.674
25.80000 7.713
25.82000 10.031
25.84000 6.720
25.86000 3.854
25.88000 6.203
25.90000 -0.723
25.92000 1.049
25.94000 0.840
25.96000 3.097
25.98000 4.347
26.00000 5.853
26.02000 9.016
26.04000 8.471
26.06000 3.714
26.08000 1.245
26.10000 -0.716
26.12000 -3.130
26.14000 1.184
26.16000 2.246
26.18000 4.036
26.20000 6.898
26.22000 1.124
26.24000 2.031
26.26000 2.540
26.28000 -2.606
26.30000 1.856
26.32000 1.278
26.34000 1.416
26.36000 2.248
26.38000 0.671
26.40000 2.656
26.42000 4.954
26.44000 5.766
26.46000 1.084
26.48000 0.622
26.50000 1.234
26.52000 2.938
26.54000 1.396
26.56000 0.086
26.58000 8.732
26.60000 8.738
26.62000 8.796
26.64000 7.118
26.66000 8.918
26.68000 3.931
26.70000 2.756
26.72000 3.637
26.74000 4.359
26.76000 6.747
26.78000 5.136
26.80000 2.573
26.82000 0.666
26.84000 -0.431
26.86000 4.686
26.88000 4.288
26.90000 2.995
26.92000 2.113
26.94000 0.316
26.96000 1.573
26.98000 2.149
27.00000 3.531
27.02000 4.545
27.04000 3.624
27.06000 3.868
27.08000 5.583
27.10000 -0.960
27.12000 -1.168
27.14000 -0.361
27.16000 3.400
27.18000 -3.886
27.20000 -3.347
27.22000 0.424
27.24000 4.381
27.26000 2.196
27.28000 5.278
27.30000 4.780
27.32000 5.286
27.34000 9.374
27.36000 8.428
27.38000 5.074
27.40000 3.272
27.42000 -3.110
27.44000 -3.873
27.46000 2.704
27.48000 5.151
27.50000 5.336
27.52000 0.759
27.54000 3.228
27.56000 2.449
27.58000 1.927
27.60000 6.776
27.62000 0.483
27.64000 1.783
27.66000 4.283
27.68000 0.971
27.70000 0.256
27.72000 -0.408
27.74000 5.671
27.76000 2.487
27.78000 4.066
27.80000 0.884
27.82000 4.304
27.84000 6.041
27.86000 6.126
27.88000 -0.477
27.90000 1.774
27.92000 7.228
27.94000 3.635
27.96000 5.139
27.98000 3.985
28.00000 1.469
28.02000 3.640
28.04000 2.962
28.06000 2.553
28.08000 0.731
28.10000 -0.741
28.12000 -2.495
28.14000 2.858
28.16000 4.536
28.18000 0.213
28.20000 2.710
28.22000 4.297
28.24000 -1.236
28.26000 -2.195
28.28000 -3.454
28.30000 -2.283
28.32000 2.469
28.34000 3.073
28.36000 3.189
28.38000 0.565
28.40000 -0.590
28.42000 2.350
28.44000 2.534
28.46000 5.478
28.48000 -0.400
28.50000 -3.818
28.52000 0.050
28.54000 3.869
28.56000 -0.205
28.58000 2.525
28.60000 5.173
28.62000 6.365
28.64000 5.112
28.66000 0.377
28.68000 0.632
28.70000 -2.844
28.72000 1.130
28.74000 1.715
28.76000 0.626
28.78000 -3.338
28.80000 -1.837
28.82000 4.327
28.84000 7.594
28.86000 6.556
28.88000 2.883
28.90000 1.795
28.92000 -0.014
28.94000 -0.511
28.96000 1.851
28.98000 -3.608
29.00000 -2.945
29.02000 2.085
29.04000 2.830
29.06000 1.959
29.08000 0.374
29.10000 4.197
29.12000 -0.910
29.14000 -1.668
29.16000 0.821
29.18000 3.703
29.20000 5.825
29.22000 4.546
29.24000 6.208
29.26000 5.707
29.28000 0.027
29.30000 -0.047
29.32000 -0.824
29.34000 6.330
29.36000 5.012
29.38000 6.111
29.40000 5.603
29.42000 1.334
29.44000 1.034
29.46000 4.782
29.48000 -1.404
29.50000 -0.696
29.52000 3.298
29.54000 2.270
29.56000 -0.388
29.58000 -0.820
29.60000 0.585
29.62000 -1.315
29.64000 5.357
29.66000 5.657
29.68000 -3.762
29.70000 0.749
29.72000 2.960
29.74000 0.323
29.76000 -1.681
29.78000 -3.577
29.80000 0.881
29.82000 5.834
29.84000 1.835
29.86000 -2.699
29.88000 1.256
29.90000 7.474
29.92000 3.933
29.94000 0.509
29.96000 -2.791
29.98000 -0.297
30.00000 -0.256
30.02000 -1.617
30.04000 -2.817
30.06000 2.955
30.08000 5.896
30.10000 -0.225
30.12000 2.723
30.14000 2.537
30.16000 0.622
30.18000 0.928
30.20000 1.688
30.22000 -1.053
30.24000 0.060
30.26000 0.687
30.28000 -1.042
30.30000 1.399
30.32000 4.498
30.34000 5.538
30.36000 2.653
30.38000 -2.491
30.40000 -0.476
30.42000 0.356
30.44000 1.710
30.46000 0.539
30.48000 1.281
30.50000 2.894
30.52000 -3.645
30.54000 -0.190
30.56000 -1.067
30.58000 -2.357
30.60000 0.936
30.62000 0.172
30.64000 0.339
30.66000 0.829
30.68000 0.814
30.70000 5.234
30.72000 3.151
30.74000 -0.362
30.76000 -1.849
30.78000 2.484
30.80000 3.522
30.82000 -0.526
30.84000 -0.128
30.86000 -0.501
30.88000 2.750
30.90000 4.590
30.92000 -0.889
30.94000 -1.612
30.96000 1.518
30.98000 -1.284
31.00000 5.771
31.02000 5.900
31.04000 3.651
31.06000 5.867
31.08000 3.145
31.10000 3.904
31.12000 3.764
31.14000 5.354
31.16000 5.150
31.18000 1.117
31.20000 2.791
31.22000 0.683
31.24000 -3.688
31.26000 -1.558
31.28000 1.115
31.30000 1.781
31.32000 -0.186
31.34000 2.016
31.36000 1.696
31.38000 2.336
31.40000 0.350
31.42000 -0.689
31.44000 -1.546
31.46000 1.278
31.48000 7.100
31.50000 8.055
31.52000 1.291
31.54000 -0.103
31.56000 2.504
31.58000 1.791
31.60000 2.268
31.62000 2.378
31.64000 5.345
31.66000 5.209
31.68000 0.620
31.70000 -1.066
31.72000 6.869
31.74000 9.715
31.76000 7.571
31.78000 4.497
31.80000 2.521
31.82000 -0.329
31.84000 1.556
31.86000 0.357
31.88000 0.358
31.90000 3.067
31.92000 7.418
31.94000 3.122
31.96000 1.138
31.98000 -1.967
32.00000 0.097
32.02000 -0.220
32.04000 0.336
32.06000 1.464
32.08000 -1.426
32.10000 1.606
32.12000 2.650
32.14000 0.238
32.16000 -3.041
32.18000 -2.745
32.20000 -2.106
32.22000 -0.792
32.24000 -2.814
32.26000 -1.163
32.28000 3.513
32.30000 4.688
32.32000 3.668
32.34000 -1.819
32.36000 -1.103
32.38000 2.225
32.40000 2.733
32.42000 3.788
32.44000 2.076
32.46000 7.121
32.48000 6.935
32.50000 0.294
32.52000 -0.900
32.54000 4.608
32.56000 3.493
32.58000 1.979
32.60000 0.696
32.62000 2.297
32.64000 0.976
32.66000 1.016
32.68000 -3.615
32.70000 -1.011
32.72000 2.747
32.74000 5.930
32.76000 7.649
32.78000 11.669
32.80000 7.132
32.82000 0.906
32.84000 -0.204
32.86000 3.660
32.88000 1.208
32.90000 2.403
32.92000 7.672
32.94000 5.138
32.96000 5.953
32.98000 3.680
33.00000 3.250
33.02000 7.768
33.04000 2.979
33.06000 -1.593
33.08000 0.143
33.10000 2.163
33.12000 6.862
33.14000 3.958
33.16000 3.307
33.18000 1.874
33.20000 -2.811
33.22000 -0.606
33.24000 1.591
33.26000 3.396
33.28000 1.401
33.30000 3.841
33.32000 1.847
33.34000 3.674
33.36000 3.513
33.38000 -3.445
33.40000 2.408
33.42000 5.807
33.44000 8.029
33.46000 10.346
33.48000 5.627
33.50000 1.087
33.52000 -1.748
33.54000 0.879
33.56000 6.324
33.58000 7.062
33.60000 12.079
33.62000 4.436
33.64000 -3.429
33.66000 -1.937
33.68000 5.077
33.70000 6.985
33.72000 2.495
33.74000 2.303
33.76000 5.509
33.78000 6.306
33.80000 3.580
33.82000 -1.725
33.84000 0.253
33.86000 4.211
33.88000 4.324
33.90000 2.806
33.92000 3.397
33.94000 1.178
33.96000 1.681
33.98000 4.120
34.00000 5.619
34.02000 3.881
34.04000 5.593
34.06000 -1.276
34.08000 1.439
34.10000 5.179
34.12000 7.363
34.14000 8.928
34.16000 5.307
34.18000 3.469
34.20000 4.978
34.22000 5.342
34.24000 1.365
34.26000 -0.741
34.28000 -3.643
34.30000 -1.269
34.32000 0.775
34.34000 -1.191
34.36000 0.656
34.38000 -0.890
34.40000 0.644
34.42000 5.581
34.44000 9.044
34.46000 6.439
34.48000 0.946
34.50000 1.017
34.52000 1.298
34.54000 -0.939
34.56000 4.067
34.58000 4.574
34.60000 2.406
34.62000 1.786
34.64000 0.420
34.66000 -1.085
34.68000 -0.385
34.70000 0.893
34.72000 -3.179
34.74000 -1.703
34.76000 1.811
34.78000 3.550
34.80000 2.200
34.82000 1.065
34.84000 -0.103
34.86000 -0.713
34.88000 1.348
34.90000 1.667
34.92000 -3.630
34.94000 0.412
34.96000 -2.522
34.98000 0.857
35.00000 0.305
35.02000 1.995
35.04000 5.246
35.06000 2.019
35.08000 5.263
35.10000 6.154
35.12000 0.699
35.14000 -3.002
35.16000 1.604
35.18000 -2.392
35.20000 -2.073
35.22000 -1.146
35.24000 -0.455
35.26000 0.601
35.28000 6.110
35.30000 5.055
35.32000 1.714
35.34000 -1.944
35.36000 -3.249
35.38000 -3.325
35.40000 0.824
35.42000 6.256
35.44000 0.590
35.46000 -3.648
35.48000 -2.229
35.50000 -2.464
35.52000 -2.772
35.54000 -0.652
35.56000 -2.494
35.58000 -3.548
35.60000 -1.190
35.62000 -1.777
35.64000 1.091
35.66000 2.751
35.68000 3.150
35.70000 -1.231
35.72000 0.016
35.74000 4.979
35.76000 4.936
35.78000 -0.046
35.80000 5.251
35.82000 4.868
35.84000 1.678
35.86000 5.249
35.88000 4.472
35.90000 4.765
35.92000 4.143
35.94000 4.254
35.96000 3.533
35.98000 1.932
36.00000 2.288
36.02000 2.304
36.04000 5.387
36.06000 4.212
36.08000 2.176
36.10000 4.112
36.12000 4.613
36.14000 2.028
36.16000 3.060
36.18000 5.486
36.20000 3.299
36.22000 5.764
36.24000 5.851
36.26000 2.996
36.28000 -3.436
36.30000 -2.196
36.32000 -3.688
36.34000 3.689
36.36000 6.156
36.38000 7.946
36.40000 6.654
36.42000 4.325
36.44000 4.294
36.46000 1.978
36.48000 0.205
36.50000 7.298
36.52000 5.621
36.54000 4.026
36.56000 3.360
36.58000 0.666
36.60000 2.968
36.62000 7.022
36.64000 14.103
36.66000 12.744
36.68000 9.061
36.70000 7.898
36.72000 7.410
36.74000 7.333
36.76000 4.336
36.78000 8.852
36.80000 11.844
36.82000 9.189
36.84000 8.396
36.86000 9.646
36.88000 5.404
36.90000 8.976
36.92000 8.895
36.94000 9.535
36.96000 10.979
36.98000 1.539
37.00000 0.362
37.02000 11.537
37.04000 11.777
37.06000 17.037
37.08000 15.834
37.10000 8.784
37.12000 10.326
37.14000 7.729
37.16000 12.196
37.18000 18.418
37.20000 14.232
37.22000 13.085
37.24000 13.370
37.26000 14.296
37.28000 19.068
37.30000 21.116
37.32000 18.502
37.34000 21.466
37.36000 20.573
37.38000 21.009
37.40000 20.999
37.42000 16.668
37.44000 17.657
37.46000 18.597
37.48000 21.202
37.50000 24.646
37.52000 21.946
37.54000 25.266
37.56000 27.467
37.58000 27.112
37.60000 34.387
37.62000 33.668
37.64000 31.454
37.66000 33.614
37.68000 30.999
37.70000 27.554
37.72000 27.103
37.74000 29.139
37.76000 31.859
37.78000 30.149
37.80000 32.256
37.82000 33.791
37.84000 34.564
37.86000 38.761
37.88000 39.461
37.90000 41.285
37.92000 45.545
37.94000 44.275
37.96000 43.222
37.98000 52.170
38.00000 52.173
38.02000 48.730
38.04000 52.845
38.06000 56.678
38.08000 56.407
38.10000 60.267
38.12000 61.812
38.14000 68.527
38.16000 67.182
38.18000 69.214
38.20000 76.237
38.22000 82.449
38.24000 80.569
38.26000 86.615
38.28000 85.845
38.30000 89.918
38.32000 99.833
38.34000 106.512
38.36000 109.951
38.38000 116.141
38.40000 121.481
38.42000 129.353
38.44000 138.924
38.46000 148.798
38.48000 151.558
38.50000 161.968
38.52000 170.758
38.54000 180.917
38.56000 193.536
38.58000 207.500
38.60000 213.480
38.62000 221.933
38.64000 238.873
38.66000 254.068
38.68000 261.150
38.70000 261.638
38.72000 272.924
38.74000 280.956
38.76000 283.973
38.78000 287.615
38.80000 284.319
38.82000 299.226
38.84000 297.250
38.86000 297.904
38.88000 299.986
38.90000 301.699
38.92000 295.086
38.94000 281.521
38.96000 271.668
38.98000 261.381
39.00000 260.961
39.02000 248.095
39.04000 243.489
39.06000 227.826
39.08000 212.065
39.10000 204.046
39.12000 199.536
39.14000 186.800
39.16000 173.469
39.18000 167.001
39.20000 161.795
39.22000 150.632
39.24000 145.637
39.26000 137.570
39.28000 127.438
39.30000 116.201
39.32000 109.794
39.34000 100.144
39.36000 92.227
39.38000 95.933
39.40000 94.666
39.42000 81.326
39.44000 77.823
39.46000 76.263
39.48000 70.661
39.50000 71.957
39.52000 71.550
39.54000 61.019
39.56000 60.944
39.58000 62.926
39.60000 55.088
39.62000 51.636
39.64000 46.453
39.66000 42.480
39.68000 46.367
39.70000 42.428
39.72000 40.719
39.74000 39.140
39.76000 37.828
39.78000 39.032
39.80000 40.100
39.82000 40.202
39.84000 33.107
39.86000 36.200
39.88000 37.070
39.90000 32.013
39.92000 31.036
39.94000 24.310
39.96000 19.325
39.98000 22.072
40.00000 19.403
40.02000 15.901
40.04000 18.503
40.06000 24.033
40.08000 23.775
40.10000 27.519
40.12000 28.308
40.14000 30.541
40.16000 26.727
40.18000 16.959
40.20000 13.413
40.22000 13.976
40.24000 15.928
40.26000 13.088
40.28000 15.277
40.30000 12.606
40.32000 15.557
40.34000 17.185
40.36000 17.068
40.38000 15.124
40.40000 11.662
40.42000 12.616
40.44000 11.544
40.46000 11.918
40.48000 11.748
40.50000 13.922
40.52000 14.132
40.54000 13.829
40.56000 11.795
40.58000 10.148
40.60000 12.244
40.62000 14.617
40.64000 13.488
40.66000 7.605
40.68000 5.900
40.70000 10.766
40.72000 8.565
40.74000 11.869
40.76000 8.724
40.78000 7.516
40.80000 9.289
40.82000 10.392
40.84000 6.962
40.86000 11.971
40.88000 11.721
40.90000 8.779
40.92000 6.202
40.94000 5.365
40.96000 8.005
40.98000 9.565
41.00000 4.842
41.02000 8.385
41.04000 9.183
41.06000 6.154
41.08000 3.605
41.10000 4.770
41.12000 7.088
41.14000 7.137
41.16000 8.207
41.18000 6.467
41.20000 8.738
41.22000 6.708
41.24000 1.781
41.26000 2.602
41.28000 4.231
41.30000 1.299
41.32000 1.928
41.34000 3.522
41.36000 8.273
41.38000 6.124
41.40000 4.882
41.42000 -1.610
41.44000 -3.480
41.46000 -0.290
41.48000 0.054
41.50000 4.262
41.52000 3.547
41.54000 5.479
41.56000 3.459
41.58000 5.710
41.60000 5.138
41.62000 5.929
41.64000 6.558
41.66000 3.604
41.68000 3.219
41.70000 4.439
41.72000 2.302
41.74000 -0.703
41.76000 0.691
41.78000 2.441
41.80000 -0.191
41.82000 0.099
41.84000 2.330
41.86000 1.504
41.88000 1.878
41.90000 1.035
41.92000 0.476
41.94000 0.381
41.96000 1.358
41.98000 0.237
42.00000 1.943
42.02000 2.970
42.04000 0.169
42.06000 -0.242
42.08000 2.070
42.10000 -1.504
42.12000 0.893
42.14000 3.280
42.16000 3.924
42.18000 4.503
42.20000 -0.046
42.22000 2.720
42.24000 0.191
42.26000 -3.354
42.28000 0.289
42.30000 6.576
42.32000 3.214
42.34000 -0.905
42.36000 2.883
42.38000 -2.140
42.40000 -2.240
42.42000 1.097
42.44000 1.853
42.46000 3.467
42.48000 4.670
42.50000 3.044
42.52000 0.742
42.54000 1.738
42.56000 2.847
42.58000 1.195
42.60000 2.964
42.62000 3.596
42.64000 0.766
42.66000 0.844
42.68000 0.988
42.70000 -0.531
42.72000 2.433
42.74000 0.216
42.76000 -1.746
42.78000 -0.074
42.80000 -1.087
42.82000 1.289
42.84000 1.027
42.86000 1.019
42.88000 0.107
42.90000 2.735
42.92000 0.195
42.94000 2.349
42.96000 3.583
42.98000 -1.323
43.00000 -3.310
43.02000 2.711
43.04000 -2.047
43.06000 -3.303
43.08000 -1.199
43.10000 0.247
43.12000 3.854
43.14000 6.314
43.16000 4.308
43.18000 2.369
43.20000 3.588
43.22000 -0.338
43.24000 2.787
43.26000 4.600
43.28000 0.877
43.30000 0.536
43.32000 1.418
43.34000 3.932
43.36000 -0.419
43.38000 1.234
43.40000 -1.557
43.42000 -0.809
43.44000 0.328
43.46000 2.580
43.48000 3.621
43.50000 3.830
43.52000 1.786
43.54000 -1.636
43.56000 3.697
43.58000 4.499
43.60000 2.644
43.62000 0.364
43.64000 1.560
43.66000 2.072
43.68000 6.381
43.70000 5.266
43.72000 1.252
43.74000 3.956
43.76000 4.925
43.78000 5.753
43.80000 3.417
43.82000 0.342
43.84000 1.269
43.86000 1.787
43.88000 0.456
43.90000 2.797
43.92000 5.323
43.94000 3.637
43.96000 4.584
43.98000 5.767
44.00000 6.872
44.02000 8.175
44.04000 6.779
44.06000 7.849
44.08000 5.680
44.10000 4.228
44.12000 5.581
44.14000 8.833
44.16000 10.851
44.18000 8.226
44.20000 8.833
44.22000 11.637
44.24000 7.173
44.26000 7.888
44.28000 10.192
44.30000 13.493
44.32000 11.386
44.34000 9.820
44.36000 13.926
44.38000 13.608
44.40000 16.594
44.42000 24.532
44.44000 23.722
44.46000 20.002
44.48000 21.092
44.50000 24.174
44.52000 29.150
44.54000 27.251
44.56000 31.562
44.58000 30.959
44.60000 33.477
44.62000 31.687
44.64000 38.854
44.66000 40.278
44.68000 39.073
44.70000 39.932
44.72000 43.893
44.74000 49.094
44.76000 52.480
44.78000 58.392
44.80000 58.929
44.82000 60.343
44.84000 64.862
44.86000 67.363
44.88000 70.485
44.90000 74.226
44.92000 81.478
44.94000 82.024
44.96000 81.366
44.98000 85.151
45.00000 86.613
45.02000 95.088
45.04000 101.695
45.06000 103.809
45.08000 109.762
45.10000 111.546
45.12000 107.769
45.14000 107.199
45.16000 106.833
45.18000 106.908
45.20000 114.711
45.22000 120.148
45.24000 117.587
45.26000 117.325
45.28000 114.221
45.30000 111.082
45.32000 112.129
45.34000 107.209
45.36000 104.615
45.38000 103.009
45.40000 98.944
45.42000 94.839
45.44000 94.294
45.46000 91.949
45.48000 85.612
45.50000 84.171
45.52000 80.181
45.54000 80.521
45.56000 75.085
45.58000 69.632
45.60000 66.821
45.62000 63.183
45.64000 66.360
45.66000 58.200
45.68000 54.789
45.70000 51.759
45.72000 44.036
45.74000 43.528
45.76000 40.824
45.78000 40.498
45.80000 40.806
45.82000 39.773
45.84000 34.100
45.86000 28.637
45.88000 28.715
45.90000 25.478
45.92000 19.285
45.94000 20.201
45.96000 18.290
45.98000 23.105
46.00000 21.376
46.02000 18.770
46.04000 16.781
46.06000 13.616
46.08000 13.038
46.10000 12.970
46.12000 15.139
46.14000 12.110
46.16000 8.536
46.18000 10.248
46.20000 10.918
46.22000 9.194
46.24000 6.447
46.26000 4.634
46.28000 5.344
46.30000 6.580
46.32000 5.420
46.34000 6.596
46.36000 6.277
46.38000 2.972
46.40000 5.466
46.42000 5.155
46.44000 1.040
46.46000 1.893
46.48000 4.395
46.50000 6.398
46.52000 6.293
46.54000 6.001
46.56000 4.938
46.58000 0.243
46.60000 6.320
46.62000 4.360
46.64000 9.667
46.66000 7.209
46.68000 5.785
46.70000 -1.613
46.72000 0.353
46.74000 5.161
46.76000 3.840
46.78000 -0.960
46.80000 -0.251
46.82000 1.638
46.84000 4.759
46.86000 5.647
46.88000 7.386
46.90000 7.362
46.92000 8.729
46.94000 5.538
46.96000 3.024
46.98000 3.370
47.00000 4.313
47.02000 -0.760
47.04000 -1.256
47.06000 -2.180
47.08000 1.607
47.10000 2.407
47.12000 0.230
47.14000 -2.877
47.16000 -2.025
47.18000 -0.108
47.20000 1.468
47.22000 3.847
47.24000 0.647
47.26000 3.357
47.28000 1.336
47.30000 -0.001
47.32000 1.107
47.34000 2.310
47.36000 4.014
47.38000 5.272
47.40000 2.812
47.42000 4.306
47.44000 8.897
47.46000 11.890
47.48000 7.806
47.50000 3.227
47.52000 4.038
47.54000 3.313
47.56000 -0.115
47.58000 -0.334
47.60000 -2.834
47.62000 -0.531
47.64000 1.239
47.66000 -1.258
47.68000 4.285
47.70000 4.778
47.72000 0.846
47.74000 0.959
47.76000 3.720
47.78000 0.512
47.80000 -0.143
47.82000 2.272
47.84000 2.947
47.86000 5.404
47.88000 1.949
47.90000 7.694
47.92000 6.856
47.94000 3.175
47.96000 4.988
47.98000 4.281
48.00000 -0.736
48.02000 1.399
48.04000 4.011
48.06000 6.168
48.08000 1.934
48.10000 0.762
48.12000 3.869
48.14000 10.015
48.16000 5.296
48.18000 0.087
48.20000 0.389
48.22000 1.313
48.24000 1.520
48.26000 -1.438
48.28000 2.255
48.30000 1.954
48.32000 1.360
48.34000 4.118
48.36000 4.431
48.38000 3.500
48.40000 2.914
48.42000 0.821
48.44000 -2.767
48.46000 0.263
48.48000 6.917
48.50000 8.172
48.52000 5.683
48.54000 1.808
48.56000 4.706
48.58000 6.330
48.60000 5.944
48.62000 4.230
48.64000 2.485
48.66000 4.190
48.68000 4.399
48.70000 5.215
48.72000 3.452
48.74000 3.501
48.76000 2.226
48.78000 1.108
48.80000 1.475
48.82000 2.379
48.84000 5.016
48.86000 2.145
48.88000 3.510
48.90000 5.727
48.92000 4.196
48.94000 7.414
48.96000 4.114
48.98000 3.853
49.00000 0.922
49.02000 -0.242
49.04000 1.227
49.06000 3.629
49.08000 5.231
49.10000 7.355
49.12000 5.463
49.14000 4.902
49.16000 0.497
49.18000 -2.731
49.20000 -1.406
49.22000 3.328
49.24000 0.446
49.26000 1.216
49.28000 2.164
49.30000 3.234
49.32000 0.982
49.34000 0.851
49.36000 -0.020
49.38000 2.631
49.40000 4.906
49.42000 0.556
49.44000 6.358
49.46000 6.470
49.48000 0.905
49.50000 -0.886
49.52000 0.387
49.54000 1.387
49.56000 2.184
49.58000 -0.616
49.60000 0.523
49.62000 0.916
49.64000 1.985
49.66000 2.223
49.68000 0.093
49.70000 2.653
49.72000 2.833
49.74000 3.202
49.76000 1.404
49.78000 0.878
49.80000 3.905
49.82000 4.762
49.84000 4.848
49.86000 5.479
49.88000 3.856
49.90000 1.528
49.92000 1.039
49.94000 1.770
49.96000 0.522
49.98000 3.154
50.00000 1.144
50.02000 2.293
50.04000 2.401
50.06000 2.006
50.08000 5.044
50.10000 6.241
50.12000 5.193
50.14000 2.285
50.16000 3.841
50.18000 1.879
50.20000 0.655
50.22000 -2.675
50.24000 -2.240
50.26000 -0.277
50.28000 -0.250
50.30000 0.038
50.32000 2.751
50.34000 4.306
50.36000 5.994
50.38000 3.027
50.40000 0.166
50.42000 6.993
50.44000 8.920
50.46000 3.443
50.48000 -0.039
50.50000 3.500
50.52000 1.392
50.54000 1.607
50.56000 1.275
50.58000 -0.648
50.60000 -1.550
50.62000 0.028
50.64000 3.809
50.66000 5.480
50.68000 5.192
50.70000 3.558
50.72000 -0.025
50.74000 -0.979
50.76000 -0.251
50.78000 2.269
50.80000 5.324
50.82000 4.029
50.84000 2.127
50.86000 3.649
50.88000 0.801
50.90000 -2.640
50.92000 2.161
50.94000 2.332
50.96000 4.683
50.98000 3.527
51.00000 6.824
51.02000 4.286
51.04000 5.837
51.06000 4.040
51.08000 1.863
51.10000 4.193
51.12000 7.167
51.14000 8.747
51.16000 7.781
51.18000 2.513
51.20000 0.381
51.22000 2.025
51.24000 0.938
51.26000 1.249
51.28000 2.111
51.30000 5.708
51.32000 6.048
51.34000 3.283
51.36000 7.377
51.38000 5.500
51.40000 2.532
51.42000 0.832
51.44000 1.667
51.46000 -1.335
51.48000 1.819
51.50000 6.626
51.52000 6.591
51.54000 7.395
51.56000 5.603
51.58000 -0.080
51.60000 -0.615
51.62000 0.003
51.64000 1.582
51.66000 2.878
51.68000 5.540
51.70000 8.187
51.72000 -0.111
51.74000 -1.222
51.76000 -1.482
51.78000 -1.561
51.80000 1.424
51.82000 4.983
51.84000 3.258
51.86000 4.500
51.88000 4.042
51.90000 -0.100
51.92000 -0.138
51.94000 4.906
51.96000 1.607
51.98000 0.594
52.00000 2.313
52.02000 2.885
52.04000 -2.461
52.06000 -2.640
52.08000 0.696
52.10000 1.937
52.12000 4.774
52.14000 3.212
52.16000 -0.753
52.18000 -2.516
52.20000 -0.618
52.22000 4.842
52.24000 8.214
52.26000 4.011
52.28000 3.798
52.30000 -0.745
52.32000 -0.157
52.34000 1.968
52.36000 1.695
52.38000 1.034
52.40000 2.347
52.42000 3.143
52.44000 4.840
52.46000 0.345
52.48000 0.219
52.50000 -1.551
52.52000 -0.560
52.54000 0.360
52.56000 5.221
52.58000 5.494
52.60000 3.647
52.62000 1.079
52.64000 2.444
52.66000 5.581
52.68000 3.315
52.70000 5.107
52.72000 3.650
52.74000 -1.080
52.76000 1.268
52.78000 2.528
52.80000 1.656
52.82000 5.156
52.84000 6.147
52.86000 1.173
52.88000 -2.604
52.90000 0.309
52.92000 2.376
52.94000 -0.030
52.96000 2.339
52.98000 3.010
53.00000 4.205
53.02000 3.689
53.04000 4.558
53.06000 5.452
53.08000 5.739
53.10000 1.027
53.12000 -1.813
53.14000 -1.489
53.16000 4.728
53.18000 4.639
53.20000 2.623
53.22000 2.273
53.24000 1.903
53.26000 1.310
53.28000 1.947
53.30000 5.753
53.32000 5.586
53.34000 4.174
53.36000 1.125
53.38000 2.193
53.40000 2.356
53.42000 1.087
53.44000 -2.582
53.46000 -2.312
53.48000 5.430
53.50000 7.981
53.52000 4.430
53.54000 5.660
53.56000 4.598
53.58000 1.290
53.60000 1.297
53.62000 2.728
53.64000 0.120
53.66000 -2.264
53.68000 -0.788
53.70000 1.030
53.72000 -1.853
53.74000 0.631
53.76000 1.233
53.78000 0.910
53.80000 6.090
53.82000 4.357
53.84000 8.407
53.86000 5.495
53.88000 0.728
53.90000 1.561
53.92000 0.887
53.94000 3.032
53.96000 2.311
53.98000 3.856
54.00000 2.449
54.02000 6.325
54.04000 5.224
54.06000 3.956
54.08000 3.078
54.10000 4.276
54.12000 2.863
54.14000 0.168
54.16000 -0.071
54.18000 3.948
54.20000 3.951
54.22000 1.669
54.24000 1.402
54.26000 0.197
54.28000 3.148
54.30000 2.907
54.32000 2.885
54.34000 5.251
54.36000 2.853
54.38000 2.543
54.40000 -0.051
54.42000 0.355
54.44000 -1.142
54.46000 2.424
54.48000 2.655
54.50000 3.283
54.52000 6.484
54.54000 2.699
54.56000 5.484
54.58000 2.146
54.60000 2.139
54.62000 4.644
54.64000 3.775
54.66000 4.538
54.68000 5.341
54.70000 3.933
54.72000 0.197
54.74000 2.826
54.76000 3.575
54.78000 -0.966
54.80000 0.320
54.82000 0.849
54.84000 -2.554
54.86000 1.729
54.88000 1.759
54.90000 3.207
54.92000 6.431
54.94000 3.800
54.96000 2.655
54.98000 4.367
55.00000 2.234
55.02000 -0.863
55.04000 1.283
55.06000 -0.610
55.08000 1.758
55.10000 2.618
55.12000 -1.221
55.14000 -0.132
55.16000 4.128
55.18000 4.029
55.20000 2.788
55.22000 2.710
55.24000 3.961
55.26000 4.425
55.28000 6.134
55.30000 5.753
55.32000 8.750
55.34000 9.917
55.36000 9.332
55.38000 5.130
55.40000 4.778
55.42000 4.109
55.44000 0.417
55.46000 1.000
55.48000 1.747
55.50000 4.669
55.52000 3.033
55.54000 4.815
55.56000 4.480
55.58000 3.955
55.60000 1.887
55.62000 1.491
55.64000 0.702
55.66000 -0.249
55.68000 0.268
55.70000 1.891
55.72000 4.605
55.74000 -0.367
55.76000 -2.544
55.78000 3.490
55.80000 5.277
55.82000 4.051
55.84000 0.578
55.86000 -1.322
55.88000 3.983
55.90000 2.207
55.92000 -0.157
55.94000 2.399
55.96000 0.746
55.98000 2.198
56.00000 5.044
56.02000 3.724
56.04000 4.858
56.06000 6.230
56.08000 -0.671
56.10000 1.333
56.12000 2.835
56.14000 -1.362
56.16000 0.374
56.18000 0.460
56.20000 2.479
56.22000 1.017
56.24000 4.607
56.26000 2.152
56.28000 5.132
56.30000 6.657
56.32000 5.845
56.34000 3.429
56.36000 -2.517
56.38000 -1.048
56.40000 -0.682
56.42000 0.352
56.44000 1.399
56.46000 0.692
56.48000 0.079
56.50000 5.298
56.52000 1.246
56.54000 1.869
56.56000 3.084
56.58000 3.899
56.60000 0.454
56.62000 1.290
56.64000 1.328
56.66000 0.722
56.68000 0.135
56.70000 4.278
56.72000 4.290
56.74000 1.939
56.76000 0.820
56.78000 4.733
56.80000 5.963
56.82000 3.041
56.84000 6.809
56.86000 7.046
56.88000 4.725
56.90000 5.316
56.92000 3.899
56.94000 4.525
56.96000 3.831
56.98000 3.316
57.00000 0.246
57.02000 1.265
57.04000 4.393
57.06000 2.703
57.08000 3.261
57.10000 2.755
57.12000 2.426
57.14000 3.388
57.16000 2.571
57.18000 1.475
57.20000 0.513
57.22000 -2.500
57.24000 -0.427
57.26000 0.959
57.28000 3.533
57.30000 2.381
57.32000 -0.018
57.34000 3.956
57.36000 2.445
57.38000 3.110
57.40000 2.796
57.42000 0.889
57.44000 1.487
57.46000 0.362
57.48000 -0.177
57.50000 0.754
57.52000 -1.418
57.54000 0.234
57.56000 3.855
57.58000 3.061
57.60000 -0.658
57.62000 -0.205
57.64000 3.768
57.66000 2.788
57.68000 -0.263
57.70000 -0.408
57.72000 -0.357
57.74000 -1.411
57.76000 -0.422
57.78000 2.093
57.80000 2.199
57.82000 2.375
57.84000 -2.472
57.86000 3.442
57.88000 4.577
57.90000 3.077
57.92000 5.307
57.94000 5.873
57.96000 1.269
57.98000 1.132
58.00000 1.009
58.02000 -0.220
58.04000 1.916
58.06000 3.147
58.08000 4.803
58.10000 4.645
58.12000 1.522
58.14000 3.148
58.16000 1.506
58.18000 0.913
58.20000 0.738
58.22000 1.586
58.24000 3.569
58.26000 2.939
58.28000 4.809
58.30000 5.202
58.32000 0.266
58.34000 -0.088
58.36000 -0.368
58.38000 1.140
58.40000 0.320
58.42000 -0.073
58.44000 2.964
58.46000 -1.202
58.48000 -0.030
58.50000 2.322
58.52000 3.778
58.54000 1.000
58.56000 0.780
58.58000 0.307
58.60000 -0.981
58.62000 0.060
58.64000 3.190
58.66000 1.723
58.68000 -0.903
58.70000 0.247
58.72000 3.223
58.74000 1.124
58.76000 -1.805
58.78000 1.577
58.80000 2.528
58.82000 2.820
58.84000 -2.168
58.86000 -0.595
58.88000 2.643
58.90000 2.065
58.92000 2.506
58.94000 1.350
58.96000 0.342
58.98000 1.878
59.00000 0.913
59.02000 2.418
59.04000 3.690
59.06000 0.757
59.08000 0.612
59.10000 0.858
59.12000 1.522
59.14000 -0.643
59.16000 -1.973
59.18000 -0.577
59.20000 -2.448
59.22000 -0.839
59.24000 -1.870
59.26000 -0.956
59.28000 0.162
59.30000 1.237
59.32000 0.202
59.34000 4.408
59.36000 -0.226
59.38000 1.299
59.40000 2.197
59.42000 2.479
59.44000 -0.177
59.46000 -0.280
59.48000 -1.621
59.50000 -0.099
59.52000 0.477
59.54000 1.776
59.56000 0.958
59.58000 0.435
59.60000 2.964
59.62000 -2.030
59.64000 0.400
59.66000 3.773
59.68000 3.032
59.70000 0.779
59.72000 0.073
59.74000 0.622
59.76000 2.434
59.78000 6.174
59.80000 1.455
59.82000 0.150
59.84000 4.660
59.86000 2.742
59.88000 2.871
59.90000 0.766
59.92000 2.296
59.94000 3.338
59.96000 0.680
59.98000 2.845
60.00000 5.870
60.02000 1.624
60.04000 1.031
60.06000 0.906
60.08000 1.158
60.10000 3.447
60.12000 3.084
60.14000 2.063
60.16000 3.148
60.18000 1.939
60.20000 -0.391
60.22000 5.147
60.24000 8.170
60.26000 2.660
60.28000 -0.537
60.30000 3.726
60.32000 6.024
60.34000 2.660
60.36000 2.750
60.38000 1.356
60.40000 3.155
60.42000 0.680
60.44000 1.187
60.46000 -2.360
60.48000 -1.085
60.50000 1.969
60.52000 1.567
60.54000 0.767
60.56000 2.289
60.58000 6.948
60.60000 10.551
60.62000 4.342
60.64000 0.164
60.66000 2.945
60.68000 3.098
60.70000 0.813
60.72000 2.052
60.74000 5.658
60.76000 6.937
60.78000 2.359
60.80000 2.309
60.82000 0.373
60.84000 1.751
60.86000 3.578
60.88000 2.362
60.90000 3.608
60.92000 2.258
60.94000 0.922
60.96000 1.135
60.98000 1.345
61.00000 -1.481
61.02000 0.070
61.04000 1.118
61.06000 1.194
61.08000 3.916
61.10000 2.656
61.12000 1.605
61.14000 0.193
61.16000 2.607
61.18000 1.145
61.20000 3.824
61.22000 3.274
61.24000 2.701
61.26000 1.329
61.28000 2.683
61.30000 8.234
61.32000 8.536
61.34000 4.277
61.36000 3.318
61.38000 -2.347
61.40000 -2.194
61.42000 -0.338
61.44000 -0.521
61.46000 0.687
61.48000 4.332
61.50000 2.803
61.52000 0.355
61.54000 1.955
61.56000 0.528
61.58000 1.851
61.60000 3.930
61.62000 2.595
61.64000 1.986
61.66000 4.076
61.68000 2.473
61.70000 2.097
61.72000 1.959
61.74000 2.661
61.76000 -2.348
61.78000 -0.730
61.80000 2.121
61.82000 0.692
61.84000 -0.084
61.86000 0.997
61.88000 -1.376
61.90000 -2.349
61.92000 0.888
61.94000 0.248
61.96000 2.568
61.98000 5.225
62.00000 4.290
62.02000 1.558
62.04000 0.940
62.06000 -0.040
62.08000 3.044
62.10000 3.500
62.12000 2.866
62.14000 4.376
62.16000 2.788
62.18000 4.031
62.20000 0.631
62.22000 0.485
62.24000 1.644
62.26000 0.075
62.28000 2.699
62.30000 2.396
62.32000 0.087
62.34000 -0.165
62.36000 -2.351
62.38000 -0.303
62.40000 -0.310
62.42000 1.644
62.44000 0.602
62.46000 1.054
62.48000 1.901
62.50000 -0.471
62.52000 0.138
62.54000 0.320
62.56000 1.553
62.58000 1.174
62.60000 0.719
62.62000 4.287
62.64000 1.476
62.66000 -0.353
62.68000 2.246
62.70000 2.954
62.72000 -1.754
62.74000 -2.351
62.76000 1.051
62.78000 -0.037
62.80000 0.242
62.82000 0.016
62.84000 -0.346
62.86000 1.166
62.88000 0.768
62.90000 3.853
62.92000 -0.117
62.94000 2.007
62.96000 1.391
62.98000 -0.083
63.00000 0.944
63.02000 0.758
63.04000 2.605
63.06000 1.731
63.08000 -0.098
63.10000 -0.901
63.12000 1.826
63.14000 1.496
63.16000 -0.754
63.18000 -1.052
63.20000 -2.214
63.22000 -0.899
63.24000 0.436
63.26000 0.280
63.28000 1.312
63.30000 -0.875
63.32000 0.011
63.34000 0.685
63.36000 2.230
63.38000 0.153
63.40000 -1.471
63.42000 -1.226
63.44000 2.222
63.46000 -0.069
63.48000 0.120
63.50000 2.789
63.52000 1.177
63.54000 1.599
63.56000 2.155
63.58000 1.441
63.60000 -2.343
63.62000 -0.382
63.64000 -1.548
63.66000 1.929
63.68000 0.240
63.70000 -1.478
63.72000 0.744
63.74000 0.437
63.76000 0.421
63.78000 1.442
63.80000 -1.199
63.82000 1.364
63.84000 6.573
63.86000 3.512
63.88000 4.081
63.90000 1.031
63.92000 -0.049
63.94000 0.277
63.96000 0.079
63.98000 1.240
64.00000 2.818
64.02000 2.224
64.04000 3.930
64.06000 3.351
64.08000 4.152
64.10000 4.372
64.12000 2.787
64.14000 1.897
64.16000 3.635
64.18000 6.139
64.20000 4.555
64.22000 3.394
64.24000 0.060
64.26000 3.594
64.28000 1.542
64.30000 3.062
64.32000 2.429
64.34000 2.774
64.36000 3.085
64.38000 4.215
64.40000 2.346
64.42000 1.314
64.44000 2.789
64.46000 3.488
64.48000 2.601
64.50000 -2.288
64.52000 1.534
64.54000 2.825
64.56000 4.077
64.58000 4.382
64.60000 4.794
64.62000 2.972
64.64000 2.006
64.66000 1.839
64.68000 3.031
64.70000 3.261
64.72000 2.616
64.74000 3.033
64.76000 2.521
64.78000 -1.001
64.80000 3.099
64.82000 3.021
64.84000 3.243
64.86000 3.581
64.88000 4.095
64.90000 3.864
64.92000 3.522
64.94000 3.132
64.96000 3.156
64.98000 4.265
65.00000 5.841
65.02000 3.719
65.04000 4.708
65.06000 5.114
65.08000 4.255
65.10000 1.976
65.12000 1.595
65.14000 2.427
65.16000 1.089
65.18000 0.688
65.20000 3.070
65.22000 5.532
65.24000 3.561
65.26000 2.905
65.28000 4.226
65.30000 6.699
65.32000 7.413
65.34000 4.776
65.36000 5.240
65.38000 5.624
65.40000 3.719
65.42000 4.724
65.44000 6.922
65.46000 5.487
65.48000 3.273
65.50000 2.655
65.52000 4.928
65.54000 5.654
65.56000 3.298
65.58000 2.051
65.60000 6.021
65.62000 6.904
65.64000 7.943
65.66000 3.137
65.68000 6.214
65.70000 7.797
65.72000 7.927
65.74000 8.160
65.76000 8.515
65.78000 10.720
65.80000 6.760
65.82000 8.326
65.84000 4.891
65.86000 4.073
65.88000 5.785
65.90000 5.869
65.92000 3.537
65.94000 4.206
65.96000 8.084
65.98000 8.755
66.00000 6.986
66.02000 4.820
66.04000 4.199
66.06000 2.682
66.08000 3.900
66.10000 5.498
66.12000 6.567
66.14000 4.770
66.16000 4.418
66.18000 3.246
66.20000 2.568
66.22000 4.868
66.24000 7.872
66.26000 3.952
66.28000 3.338
66.30000 3.769
66.32000 2.070
66.34000 4.232
66.36000 5.308
66.38000 2.652
66.40000 -2.315
66.42000 -0.658
66.44000 0.809
66.46000 3.986
66.48000 4.027
66.50000 1.313
66.52000 1.142
66.54000 -1.353
66.56000 -2.288
66.58000 -0.552
66.60000 1.203
66.62000 0.741
66.64000 2.702
66.66000 1.934
66.68000 -1.073
66.70000 -0.228
66.72000 1.709
66.74000 3.721
66.76000 -0.073
66.78000 0.201
66.80000 0.134
66.82000 -0.171
66.84000 1.453
66.86000 -0.802
66.88000 -2.293
66.90000 -0.581
66.92000 -1.295
66.94000 -0.062
66.96000 0.670
66.98000 1.711
67.00000 2.147
67.02000 -0.375
67.04000 -1.943
67.06000 0.827
67.08000 2.209
67.10000 -0.609
67.12000 -1.469
67.14000 -0.831
67.16000 0.661
67.18000 3.592
67.20000 3.418
67.22000 1.880
67.24000 -1.245
67.26000 -2.268
67.28000 -0.077
67.30000 0.132
67.32000 -0.729
67.34000 -1.180
67.36000 1.855
67.38000 0.491
67.40000 1.330
67.42000 0.085
67.44000 -0.234
67.46000 0.705
67.48000 -0.590
67.50000 0.779
67.52000 0.288
67.54000 -1.200
67.56000 0.351
67.58000 -1.477
67.60000 -0.816
67.62000 0.934
67.64000 2.032
67.66000 0.110
67.68000 0.938
67.70000 -2.196
67.72000 -0.410
67.74000 -0.039
67.76000 -2.098
67.78000 -0.967
67.80000 0.036
67.82000 -1.313
67.84000 -0.422
67.86000 -0.364
67.88000 -0.252
67.90000 0.586
67.92000 -0.600
67.94000 -2.242
67.96000 -1.961
67.98000 0.150
68.00000 2.916
68.02000 2.304
68.04000 -0.792
68.06000 -1.798
68.08000 -0.613
68.10000 1.273
68.12000 1.400
68.14000 -1.945
68.16000 0.366
68.18000 0.820
68.20000 -1.737
68.22000 -1.266
68.24000 -0.777
68.26000 0.744
68.28000 0.307
68.30000 2.153
68.32000 1.595
68.34000 0.610
68.36000 -2.022
68.38000 -0.864
68.40000 -0.831
68.42000 -1.383
68.44000 -1.636
68.46000 -0.300
68.48000 0.443
68.50000 -0.558
68.52000 1.034
68.54000 0.788
68.56000 -1.084
68.58000 1.624
68.60000 4.482
68.62000 3.487
68.64000 2.569
68.66000 -0.228
68.68000 -1.701
68.70000 -0.725
68.72000 2.021
68.74000 1.260
68.76000 1.550
68.78000 2.297
68.80000 1.794
68.82000 1.304
68.84000 1.502
68.86000 2.036
68.88000 2.108
68.90000 1.842
68.92000 2.791
68.94000 -0.235
68.96000 -0.298
68.98000 -0.974
69.00000 -0.108
69.02000 0.280
69.04000 0.596
69.06000 -2.162
69.08000 1.838
69.10000 4.947
69.12000 4.245
69.14000 1.772
69.16000 0.505
69.18000 0.126
69.20000 5.120
69.22000 4.827
69.24000 3.146
69.26000 1.607
69.28000 2.033
69.30000 0.667
69.32000 0.876
69.34000 0.280
69.36000 -2.154
69.38000 -1.870
69.40000 -1.835
69.42000 0.245
69.44000 1.614
69.46000 3.486
69.48000 2.457
69.50000 0.367
69.52000 0.603
69.54000 3.434
69.56000 3.378
69.58000 1.885
69.60000 1.897
69.62000 0.187
69.64000 2.540
69.66000 2.930
69.68000 2.507
69.70000 2.453
69.72000 -1.172
69.74000 0.425
69.76000 1.444
69.78000 2.631
69.80000 3.268
69.82000 0.667
69.84000 3.000
69.86000 5.644
69.88000 5.557
69.90000 4.359
69.92000 3.302
69.94000 1.997
69.96000 2.626
69.98000 2.721
70.00000 -0.053
70.02000 0.957
70.04000 -0.623
70.06000 0.636
70.08000 3.824
70.10000 2.816
70.12000 2.664
70.14000 2.781
70.16000 2.939
70.18000 3.594
70.20000 2.607
70.22000 2.558
70.24000 4.789
70.26000 0.800
70.28000 2.385
70.30000 3.149
70.32000 3.514
70.34000 1.279
70.36000 2.675
70.38000 -1.591
70.40000 -2.087
70.42000 -1.305
70.44000 1.616
70.46000 6.709
70.48000 8.005
70.50000 5.418
70.52000 7.406
70.54000 7.946
70.56000 2.865
70.58000 1.374
70.60000 2.341
70.62000 5.091
70.64000 4.227
70.66000 2.666
70.68000 2.366
70.70000 2.669
70.72000 5.315
70.74000 7.425
70.76000 5.581
70.78000 3.581
70.80000 5.661
70.82000 7.054
70.84000 8.108
70.86000 3.214
70.88000 0.888
70.90000 1.204
70.92000 1.192
70.94000 3.201
70.96000 3.827
70.98000 -2.021
71.00000 0.190
71.02000 2.225
71.04000 0.332
71.06000 -2.088
71.08000 1.012
71.10000 2.563
71.12000 0.054
71.14000 0.354
71.16000 1.706
71.18000 0.706
71.20000 2.929
71.22000 0.141
71.24000 -0.872
71.26000 0.850
71.28000 3.310
71.30000 2.926
71.32000 1.777
71.34000 0.367
71.36000 2.205
71.38000 2.619
71.40000 2.586
71.42000 3.190
71.44000 1.129
71.46000 1.537
71.48000 2.300
71.50000 1.827
71.52000 0.713
71.54000 0.211
71.56000 1.975
71.58000 3.971
71.60000 4.268
71.62000 5.047
71.64000 -0.558
71.66000 1.065
71.68000 0.169
71.70000 1.518
71.72000 1.653
71.74000 0.818
71.76000 0.580
71.78000 -1.391
71.80000 1.324
71.82000 1.474
71.84000 4.681
71.86000 2.677
71.88000 3.264
71.90000 2.827
71.92000 1.327
71.94000 -0.130
71.96000 2.157
71.98000 0.505
72.00000 -0.026
72.02000 3.733
72.04000 2.277
72.06000 2.832
72.08000 1.622
72.10000 0.375
72.12000 -0.568
72.14000 -1.361
72.16000 -2.063
72.18000 -0.823
72.20000 -0.891
72.22000 1.600
72.24000 3.243
72.26000 3.466
72.28000 0.986
72.30000 0.707
72.32000 0.165
72.34000 2.277
72.36000 2.198
72.38000 0.009
72.40000 -1.323
72.42000 -0.846
72.44000 0.788
72.46000 2.075
72.48000 -0.734
72.50000 -2.013
72.52000 3.179
72.54000 -0.184
72.56000 0.144
72.58000 -0.262
72.60000 -0.152
72.62000 -0.856
72.64000 -2.072
72.66000 -1.046
72.68000 -0.772
72.70000 1.292
72.72000 0.738
72.74000 -0.989
72.76000 -1.562
72.78000 1.677
72.80000 4.529
72.82000 1.691
72.84000 2.030
72.86000 1.028
72.88000 1.331
72.90000 4.664
72.92000 3.668
72.94000 2.432
72.96000 2.471
72.98000 0.299
73.00000 1.993
73.02000 1.826
73.04000 -1.467
73.06000 0.556
73.08000 3.023
73.10000 2.730
73.12000 -0.142
73.14000 1.138
73.16000 0.203
73.18000 -1.423
73.20000 1.077
73.22000 3.178
73.24000 1.386
73.26000 0.084
73.28000 0.957
73.30000 1.695
73.32000 -0.201
73.34000 -0.938
73.36000 1.944
73.38000 2.735
73.40000 2.168
73.42000 -0.132
73.44000 1.341
73.46000 3.811
73.48000 0.252
73.50000 1.014
73.52000 1.454
73.54000 0.018
73.56000 0.622
73.58000 -1.538
73.60000 1.329
73.62000 3.831
73.64000 0.584
73.66000 2.887
73.68000 1.366
73.70000 1.660
73.72000 4.146
73.74000 3.928
73.76000 4.014
73.78000 0.930
73.80000 -0.708
73.82000 0.819
73.84000 1.858
73.86000 1.734
73.88000 2.211
73.90000 4.144
73.92000 3.141
73.94000 2.150
73.96000 0.998
73.98000 2.307
74.00000 3.966
74.02000 1.479
74.04000 1.487
74.06000 4.832
74.08000 6.310
74.10000 5.259
74.12000 2.860
74.14000 2.086
74.16000 3.337
74.18000 1.796
74.20000 1.883
74.22000 3.366
74.24000 0.571
74.26000 -1.992
74.28000 3.325
74.30000 5.428
74.32000 5.525
74.34000 5.812
74.36000 1.509
74.38000 2.263
74.40000 1.948
74.42000 3.049
74.44000 1.949
74.46000 3.865
74.48000 6.823
74.50000 4.820
74.52000 3.794
74.54000 2.128
74.56000 1.813
74.58000 0.594
74.60000 1.806
74.62000 3.551
74.64000 3.968
74.66000 1.310
74.68000 2.423
74.70000 2.113
74.72000 0.433
74.74000 2.439
74.76000 3.331
74.78000 1.630
74.80000 0.561
74.82000 -2.019
74.84000 -0.527
74.86000 2.683
74.88000 6.146
74.90000 6.607
74.92000 2.872
74.94000 0.977
74.96000 2.291
74.98000 5.299
75.00000 2.454
75.02000 -1.157
75.04000 0.604
75.06000 2.325
75.08000 0.178
75.10000 -0.649
75.12000 2.001
75.14000 2.574
75.16000 4.071
75.18000 4.072
75.20000 2.523
75.22000 3.479
75.24000 -0.517
75.26000 -1.227
75.28000 0.328
75.30000 2.920
75.32000 2.548
75.34000 -0.021
75.36000 0.185
75.38000 2.209
75.40000 4.274
75.42000 2.332
75.44000 0.739
75.46000 2.483
75.48000 2.429
75.50000 1.839
75.52000 0.596
75.54000 0.836
75.56000 2.943
75.58000 3.213
75.60000 0.128
75.62000 1.816
75.64000 3.501
75.66000 0.152
75.68000 -2.072
75.70000 -0.512
75.72000 4.191
75.74000 4.589
75.76000 1.674
75.78000 4.813
75.80000 4.783
75.82000 3.499
75.84000 0.695
75.86000 3.555
75.88000 6.066
75.90000 2.456
75.92000 -0.463
75.94000 -1.256
75.96000 2.949
75.98000 4.139
76.00000 0.020
76.02000 1.960
76.04000 3.466
76.06000 -1.071
76.08000 0.419
76.10000 0.915
76.12000 1.142
76.14000 -0.046
76.16000 -0.966
76.18000 2.269
76.20000 0.897
76.22000 -0.780
76.24000 -0.448
76.26000 1.977
76.28000 1.963
76.30000 1.266
76.32000 -0.725
76.34000 0.435
76.36000 0.598
76.38000 0.470
76.40000 -0.844
76.42000 1.490
76.44000 -0.413
76.46000 -2.096
76.48000 1.042
76.50000 -1.079
76.52000 1.606
76.54000 0.082
76.56000 -0.131
76.58000 3.469
76.60000 1.713
76.62000 1.127
76.64000 1.579
76.66000 1.688
76.68000 0.074
76.70000 -1.670
76.72000 0.121
76.74000 2.523
76.76000 1.185
76.78000 0.582
76.80000 0.256
76.82000 0.913
76.84000 1.348
76.86000 2.247
76.88000 -0.261
76.90000 0.231
76.92000 1.595
76.94000 0.565
76.96000 1.471
76.98000 -0.443
77.00000 2.117
77.02000 -0.744
77.04000 -0.092
77.06000 0.949
77.08000 -1.026
77.10000 -0.919
77.12000 0.481
77.14000 0.579
77.16000 0.967
77.18000 1.863
77.20000 4.129
77.22000 0.198
77.24000 -0.621
77.26000 3.678
77.28000 1.333
77.30000 1.761
77.32000 2.120
77.34000 0.947
77.36000 3.867
77.38000 3.100
77.40000 1.382
77.42000 -0.107
77.44000 2.997
77.46000 2.896
77.48000 1.613
77.50000 -0.637
77.52000 1.041
77.54000 4.067
77.56000 4.761
77.58000 2.051
77.60000 3.852
77.62000 3.209
77.64000 -0.398
77.66000 1.618
77.68000 7.090
77.70000 4.434
77.72000 0.548
77.74000 2.640
77.76000 2.058
77.78000 1.028
77.80000 -2.171
77.82000 -0.639
77.84000 2.278
77.86000 7.153
77.88000 1.464
77.90000 0.893
77.92000 3.635
77.94000 4.320
77.96000 4.253
77.98000 1.560
78.00000 2.121
78.02000 1.049
78.04000 5.049
78.06000 8.293
78.08000 1.129
78.10000 3.026
78.12000 4.822
78.14000 8.354
78.16000 3.690
78.18000 2.226
78.20000 5.449
78.22000 5.059
78.24000 5.478
78.26000 5.393
78.28000 5.245
78.30000 6.966
78.32000 9.937
78.34000 9.866
78.36000 6.620
78.38000 1.844
78.40000 6.224
78.42000 7.767
78.44000 9.331
78.46000 12.818
78.48000 11.854
78.50000 10.271
78.52000 15.062
78.54000 11.634
78.56000 10.255
78.58000 10.246
78.60000 12.776
78.62000 12.980
78.64000 16.865
78.66000 18.260
78.68000 16.340
78.70000 15.062
78.72000 16.047
78.74000 17.404
78.76000 16.365
78.78000 18.529
78.80000 19.643
78.82000 21.646
78.84000 21.220
78.86000 25.974
78.88000 24.944
78.90000 22.207
78.92000 27.388
78.94000 28.635
78.96000 26.463
78.98000 26.944
79.00000 26.722
79.02000 29.404
79.04000 29.019
79.06000 30.160
79.08000 28.743
79.10000 28.638
79.12000 29.173
79.14000 24.755
79.16000 24.783
79.18000 24.080
79.20000 29.907
79.22000 26.763
79.24000 29.410
79.26000 29.144
79.28000 27.524
79.30000 25.769
79.32000 28.503
79.34000 29.623
79.36000 26.187
79.38000 23.224
79.40000 25.679
79.42000 23.220
79.44000 22.106
79.46000 22.190
79.48000 22.841
79.50000 21.474
79.52000 20.175
79.54000 19.793
79.56000 19.475
79.58000 16.990
79.60000 16.494
79.62000 15.540
79.64000 16.395
79.66000 12.922
79.68000 14.754
79.70000 10.881
79.72000 10.224
79.74000 12.500
79.76000 11.049
79.78000 5.652
79.80000 6.501
79.82000 6.745
79.84000 8.755
79.86000 10.010
79.88000 8.517
79.90000 10.091
79.92000 12.867
79.94000 9.633
79.96000 6.016
79.98000 5.227
80.00000 4.871
80.02000 7.950
80.04000 7.156
80.06000 5.446
80.08000 3.508
80.10000 4.036
80.12000 2.550
80.14000 0.438
80.16000 2.625
80.18000 2.317
80.20000 3.463
80.22000 3.060
80.24000 -0.921
80.26000 5.186
80.28000 3.878
80.30000 -1.538
80.32000 -1.224
80.34000 1.350
80.36000 -0.788
80.38000 -0.541
80.40000 1.112
80.42000 -2.320
80.44000 -1.891
80.46000 0.990
80.48000 1.915
80.50000 -0.260
80.52000 1.463
80.54000 2.630
80.56000 2.424
80.58000 2.808
80.60000 1.103
80.62000 0.712
80.64000 2.275
80.66000 4.150
80.68000 3.466
80.70000 1.152
80.72000 4.365
80.74000 0.026
80.76000 -0.694
80.78000 6.093
80.80000 2.967
80.82000 -2.347
80.84000 -1.967
80.86000 -0.033
80.88000 -0.052
80.90000 3.045
80.92000 1.588
80.94000 -0.752
80.96000 -0.243
80.98000 0.726
81.00000 2.670
81.02000 4.837
81.04000 0.233
81.06000 -2.348
81.08000 -1.317
81.10000 1.763
81.12000 -0.484
81.14000 0.679
81.16000 0.880
81.18000 3.151
81.20000 3.859
81.22000 2.682
81.24000 1.536
81.26000 2.314
81.28000 2.058
81.30000 3.078
81.32000 4.564
81.34000 2.908
81.36000 0.878
81.38000 0.561
81.40000 4.073
81.42000 0.461
81.44000 2.185
81.46000 5.236
81.48000 3.137
81.50000 2.644
81.52000 4.823
81.54000 4.832
81.56000 6.517
81.58000 8.967
81.60000 5.661
81.62000 3.626
81.64000 -0.725
81.66000 0.660
81.68000 8.930
81.70000 6.045
81.72000 6.263
81.74000 4.344
81.76000 4.180
81.78000 4.650
81.80000 4.756
81.82000 4.786
81.84000 4.124
81.86000 6.833
81.88000 4.036
81.90000 4.929
81.92000 9.154
81.94000 7.421
81.96000 5.390
81.98000 2.134
82.00000 8.943
82.02000 10.689
82.04000 9.134
82.06000 8.875
82.08000 8.911
82.10000 9.741
82.12000 8.810
82.14000 8.235
82.16000 9.307
82.18000 13.530
82.20000 14.278
82.22000 14.708
82.24000 14.060
82.26000 15.889
82.28000 14.980
82.30000 14.594
82.32000 16.050
82.34000 16.676
82.36000 19.267
82.38000 15.479
82.40000 12.522
82.42000 17.994
82.44000 23.141
82.46000 22.700
82.48000 19.228
82.50000 19.822
82.52000 23.787
82.54000 25.552
82.56000 25.839
82.58000 25.090
82.60000 27.193
82.62000 29.860
82.64000 31.750
82.66000 32.638
82.68000 36.712
82.70000 37.197
82.72000 35.381
82.74000 39.246
82.76000 42.082
82.78000 44.160
82.80000 40.432
82.82000 42.647
82.84000 41.414
82.86000 47.927
82.88000 48.598
82.90000 47.502
82.92000 48.695
82.94000 54.312
82.96000 62.449
82.98000 66.800
83.00000 63.110
83.02000 60.147
83.04000 63.862
83.06000 68.071
83.08000 68.213
83.10000 64.672
83.12000 66.828
83.14000 78.007
83.16000 77.308
83.18000 82.031
83.20000 76.798
83.22000 74.683
83.24000 79.859
83.26000 81.272
83.28000 78.919
83.30000 75.364
83.32000 81.100
83.34000 79.904
83.36000 76.958
83.38000 77.737
83.40000 77.780
83.42000 70.553
83.44000 72.165
83.46000 69.950
83.48000 71.336
83.50000 66.558
83.52000 63.369
83.54000 63.144
83.56000 62.575
83.58000 63.947
83.60000 59.865
83.62000 51.677
83.64000 51.941
83.66000 53.364
83.68000 51.728
83.70000 53.240
83.72000 50.790
83.74000 45.008
83.76000 41.529
83.78000 40.670
83.80000 42.248
83.82000 40.830
83.84000 37.966
83.86000 33.974
83.88000 34.625
83.90000 31.413
83.92000 26.206
83.94000 27.892
83.96000 22.970
83.98000 24.186
84.00000 20.071
84.02000 20.050
84.04000 19.980
84.06000 16.382
84.08000 16.638
84.10000 14.023
84.12000 13.792
84.14000 14.436
84.16000 15.210
84.18000 15.439
84.20000 10.553
84.22000 9.326
84.24000 10.554
84.26000 8.823
84.28000 7.075
84.30000 7.271
84.32000 7.275
84.34000 5.582
84.36000 6.004
84.38000 5.169
84.40000 7.325
84.42000 4.537
84.44000 5.918
84.46000 9.258
84.48000 5.877
84.50000 5.049
84.52000 7.078
84.54000 6.135
84.56000 4.178
84.58000 3.040
84.60000 3.256
84.62000 3.169
84.64000 3.071
84.66000 2.146
84.68000 3.592
84.70000 8.000
84.72000 3.541
84.74000 2.939
84.76000 2.671
84.78000 2.983
84.80000 3.168
84.82000 4.659
84.84000 4.245
84.86000 4.590
84.88000 2.853
84.90000 2.699
84.92000 0.471
84.94000 2.432
84.96000 5.655
84.98000 4.533
85.00000 0.171
85.02000 -0.617
85.04000 2.025
85.06000 4.125
85.08000 -2.082
85.10000 -1.874
85.12000 0.841
85.14000 0.242
85.16000 0.391
85.18000 -0.258
85.20000 -0.970
85.22000 -1.332
85.24000 4.008
85.26000 4.889
85.28000 2.120
85.30000 1.214
85.32000 2.558
85.34000 1.245
85.36000 1.855
85.38000 2.905
85.40000 1.537
85.42000 2.548
85.44000 3.284
85.46000 2.875
85.48000 5.438
85.50000 3.288
85.52000 1.604
85.54000 -2.036
85.56000 -1.163
85.58000 3.002
85.60000 2.914
85.62000 3.927
85.64000 5.970
85.66000 4.373
85.68000 3.119
85.70000 2.379
85.72000 1.715
85.74000 3.814
85.76000 -1.543
85.78000 0.836
85.80000 -0.023
85.82000 2.229
85.84000 2.873
85.86000 2.325
85.88000 1.807
85.90000 2.015
85.92000 2.934
85.94000 2.033
85.96000 -0.886
85.98000 1.416
86.00000 2.057
86.02000 1.436
86.04000 -1.322
86.06000 -0.515
86.08000 0.855
86.10000 0.333
86.12000 -2.013
86.14000 -0.200
86.16000 2.082
86.18000 0.902
86.20000 -1.586
86.22000 -1.589
86.24000 0.583
86.26000 -0.655
86.28000 -1.098
86.30000 -0.646
86.32000 0.356
86.34000 -0.141
86.36000 0.209
86.38000 1.603
86.40000 -2.002
86.42000 -1.045
86.44000 0.727
86.46000 3.326
86.48000 3.024
86.50000 3.497
86.52000 -0.565
86.54000 2.048
86.56000 0.029
86.58000 1.277
86.60000 3.957
86.62000 2.457
86.64000 1.630
86.66000 -0.646
86.68000 3.946
86.70000 4.650
86.72000 4.007
86.74000 2.032
86.76000 2.851
86.78000 0.903
86.80000 1.036
86.82000 1.331
86.84000 -0.209
86.86000 -1.503
86.88000 -0.578
86.90000 2.796
86.92000 4.386
86.94000 5.762
86.96000 0.770
86.98000 -1.967
87.00000 0.675
87.02000 4.123
87.04000 0.493
87.06000 0.252
87.08000 0.919
87.10000 4.679
87.12000 2.488
87.14000 1.958
87.16000 3.676
87.18000 2.393
87.20000 0.855
87.22000 1.475
87.24000 0.594
87.26000 1.860
87.28000 0.925
87.30000 -0.103
87.32000 0.766
87.34000 -1.261
87.36000 0.521
87.38000 1.304
87.40000 3.004
87.42000 0.677
87.44000 -0.858
87.46000 -0.714
87.48000 2.888
87.50000 4.295
87.52000 1.676
87.54000 0.680
87.56000 0.552
87.58000 1.351
87.60000 2.742
87.62000 2.200
87.64000 0.919
87.66000 0.770
87.68000 3.195
87.70000 0.170
87.72000 1.599
87.74000 2.363
87.76000 2.027
87.78000 1.553
87.80000 -1.919
87.82000 -1.437
87.84000 4.785
87.86000 5.415
87.88000 2.447
87.90000 -1.618
87.92000 0.963
87.94000 1.637
87.96000 1.571
87.98000 3.582
88.00000 1.356
88.02000 2.538
88.04000 1.631
88.06000 -1.008
88.08000 -1.495
88.10000 0.311
88.12000 0.798
88.14000 3.248
88.16000 3.711
88.18000 1.607
88.20000 1.655
88.22000 -0.615
88.24000 -1.068
88.26000 1.071
88.28000 0.994
88.30000 -0.966
88.32000 -0.603
88.34000 -0.016
88.36000 2.345
88.38000 5.100
88.40000 2.491
88.42000 3.422
88.44000 0.922
88.46000 0.838
88.48000 1.751
88.50000 1.755
88.52000 0.118
88.54000 0.889
88.56000 4.808
88.58000 3.277
88.60000 2.723
88.62000 0.584
88.64000 0.904
88.66000 -0.144
88.68000 3.668
88.70000 0.986
88.72000 0.913
88.74000 0.528
88.76000 -1.896
88.78000 -1.580
88.80000 0.051
88.82000 0.093
88.84000 2.317
88.86000 2.750
88.88000 6.232
88.90000 6.540
88.92000 0.213
88.94000 1.628
88.96000 5.213
88.98000 3.340
89.00000 -0.793
89.02000 1.066
89.04000 1.668
89.06000 2.742
89.08000 0.881
89.10000 3.678
89.12000 1.934
89.14000 -0.517
89.16000 3.149
89.18000 4.297
89.20000 3.399
89.22000 3.853
89.24000 4.889
89.26000 1.547
89.28000 0.807
89.30000 0.637
89.32000 3.314
89.34000 4.538
89.36000 1.127
89.38000 -0.902
89.40000 -1.880
89.42000 0.858
89.44000 1.944
89.46000 2.567
89.48000 2.324
89.50000 3.442
89.52000 4.401
89.54000 4.486
89.56000 3.413
89.58000 3.043
89.60000 -1.361
89.62000 2.300
89.64000 2.506
89.66000 2.816
89.68000 -0.388
89.70000 -0.658
89.72000 4.026
89.74000 3.272
89.76000 1.925
89.78000 0.393
89.80000 -1.155
89.82000 0.612
89.84000 2.633
89.86000 4.079
89.88000 2.012
89.90000 2.821
89.92000 2.813
89.94000 3.244
89.96000 2.993
89.98000 -0.545
90.00000 -1.767
90.02000 1.016
90.04000 0.852
90.06000 -0.117
90.08000 1.170
90.10000 3.148
90.12000 3.928
90.14000 2.293
90.16000 0.880
90.18000 1.986
90.20000 -0.013
90.22000 2.250
90.24000 -0.238
90.26000 0.639
90.28000 0.489
90.30000 2.420
90.32000 3.079
90.34000 2.840
90.36000 0.281
90.38000 -1.880
90.40000 0.882
90.42000 2.262
90.44000 0.440
90.46000 1.141
90.48000 1.705
90.50000 0.044
90.52000 3.051
90.54000 4.230
90.56000 0.343
90.58000 1.071
90.60000 4.161
90.62000 3.382
90.64000 0.660
90.66000 4.023
90.68000 2.086
90.70000 0.572
90.72000 1.217
90.74000 5.726
90.76000 3.455
90.78000 2.587
90.80000 -0.105
90.82000 -0.070
90.84000 1.218
90.86000 3.573
90.88000 3.070
90.90000 4.143
90.92000 3.058
90.94000 1.338
90.96000 1.025
90.98000 4.006
91.00000 4.962
91.02000 0.632
91.04000 -0.874
91.06000 2.757
91.08000 2.306
91.10000 2.117
91.12000 0.903
91.14000 2.705
91.16000 1.591
91.18000 2.659
91.20000 -1.063
91.22000 -1.921
91.24000 -1.078
91.26000 -0.306
91.28000 0.753
91.30000 1.567
91.32000 4.172
91.34000 1.817
91.36000 -0.034
91.38000 1.591
91.40000 0.091
91.42000 0.227
91.44000 1.509
91.46000 -0.119
91.48000 -0.256
91.50000 1.973
91.52000 2.182
91.54000 1.908
91.56000 1.081
91.58000 2.004
91.60000 -0.410
91.62000 2.881
91.64000 2.497
91.66000 1.238
91.68000 0.868
91.70000 -0.699
91.72000 1.622
91.74000 1.286
91.76000 2.190
91.78000 1.105
91.80000 2.846
91.82000 4.110
91.84000 5.904
91.86000 3.370
91.88000 -0.893
91.90000 -1.864
91.92000 1.145
91.94000 4.678
91.96000 4.854
91.98000 2.146
92.00000 2.304
92.02000 2.637
92.04000 -1.748
92.06000 2.377
92.08000 3.292
92.10000 0.142
92.12000 0.135
92.14000 -0.264
92.16000 -0.012
92.18000 0.839
92.20000 1.446
92.22000 1.456
92.24000 3.286
92.26000 3.561
92.28000 3.981
92.30000 1.481
92.32000 1.874
92.34000 2.465
92.36000 1.489
92.38000 1.706
92.40000 5.986
92.42000 4.016
92.44000 0.896
92.46000 -1.917
92.48000 -0.266
92.50000 2.348
92.52000 3.007
92.54000 3.855
92.56000 4.555
92.58000 5.094
92.60000 6.838
92.62000 2.751
92.64000 -0.564
92.66000 -1.918
92.68000 -1.904
92.70000 5.585
92.72000 3.518
92.74000 1.450
92.76000 2.562
92.78000 1.855
92.80000 0.020
92.82000 0.383
92.84000 -0.928
92.86000 -0.596
92.88000 1.562
92.90000 2.855
92.92000 -0.440
92.94000 1.243
92.96000 1.805
92.98000 4.233
93.00000 1.679
93.02000 1.832
93.04000 2.475
93.06000 -0.068
93.08000 0.836
93.10000 -0.007
93.12000 -0.486
93.14000 -1.360
93.16000 -1.534
93.18000 -1.441
93.20000 1.403
93.22000 4.723
93.24000 6.762
93.26000 6.062
93.28000 2.647
93.30000 -0.004
93.32000 -1.004
93.34000 -0.490
93.36000 -1.043
93.38000 -0.191
93.40000 2.980
93.42000 3.961
93.44000 5.280
93.46000 6.023
93.48000 2.780
93.50000 5.602
93.52000 3.441
93.54000 4.134
93.56000 3.790
93.58000 0.277
93.60000 3.104
93.62000 2.482
93.64000 2.681
93.66000 2.371
93.68000 2.621
93.70000 5.012
93.72000 3.289
93.74000 1.571
93.76000 2.435
93.78000 -0.303
93.80000 1.004
93.82000 2.943
93.84000 6.177
93.86000 2.228
93.88000 -1.905
93.90000 0.902
93.92000 3.513
93.94000 1.782
93.96000 0.758
93.98000 4.272
94.00000 4.428
94.02000 5.931
94.04000 4.004
94.06000 3.073
94.08000 2.126
94.10000 2.649
94.12000 5.097
94.14000 3.198
94.16000 3.133
94.18000 2.455
94.20000 4.049
94.22000 4.478
94.24000 -0.551
94.26000 2.769
94.28000 5.706
94.30000 8.525
94.32000 6.155
94.34000 7.325
94.36000 4.337
94.38000 4.669
94.40000 5.067
94.42000 11.483
94.44000 7.491
94.46000 3.313
94.48000 3.954
94.50000 6.333
94.52000 2.991
94.54000 2.711
94.56000 5.709
94.58000 6.262
94.60000 5.670
94.62000 6.871
94.64000 8.756
94.66000 8.198
94.68000 5.710
94.70000 7.428
94.72000 5.231
94.74000 4.330
94.76000 7.033
94.78000 7.216
94.80000 8.146
94.82000 5.626
94.84000 6.159
94.86000 6.287
94.88000 4.594
94.90000 1.304
94.92000 -1.823
94.94000 2.320
94.96000 6.456
94.98000 7.469
95.00000 7.419
95.02000 8.349
95.04000 9.663
95.06000 11.354
95.08000 9.663
95.10000 8.356
95.12000 7.753
95.14000 10.013
95.16000 7.283
95.18000 5.804
95.20000 5.988
95.22000 2.677
95.24000 4.292
95.26000 6.258
95.28000 5.226
95.30000 6.047
95.32000 6.712
95.34000 7.529
95.36000 2.907
95.38000 3.957
95.40000 5.455
95.42000 2.561
95.44000 3.400
95.46000 5.083
95.48000 6.126
95.50000 7.331
95.52000 9.592
95.54000 9.446
95.56000 6.429
95.58000 5.081
95.60000 6.514
95.62000 6.953
95.64000 7.665
95.66000 5.419
95.68000 3.958
95.70000 3.857
95.72000 1.182
95.74000 2.186
95.76000 5.890
95.78000 4.317
95.80000 3.008
95.82000 1.926
95.84000 0.963
95.86000 6.364
95.88000 6.197
95.90000 5.147
95.92000 3.481
95.94000 4.998
95.96000 6.694
95.98000 3.979
96.00000 6.651
96.02000 5.077
96.04000 1.031
96.06000 3.389
96.08000 4.144
96.10000 5.479
96.12000 7.312
96.14000 7.235
96.16000 2.483
96.18000 2.317
96.20000 3.819
96.22000 6.446
96.24000 8.061
96.26000 5.657
96.28000 5.795
96.30000 3.913
96.32000 4.059
96.34000 4.239
96.36000 5.089
96.38000 -0.647
96.40000 2.125
96.42000 6.675
96.44000 10.318
96.46000 8.148
96.48000 6.685
96.50000 6.967
96.52000 8.619
96.54000 5.956
96.56000 7.610
96.58000 10.115
96.60000 7.303
96.62000 6.996
96.64000 1.109
96.66000 7.761
96.68000 6.662
96.70000 4.653
96.72000 2.237
96.74000 3.782
96.76000 3.567
96.78000 4.297
96.80000 6.437
96.82000 4.217
96.84000 2.812
96.86000 3.149
96.88000 7.657
96.90000 8.793
96.92000 6.617
96.94000 7.952
96.96000 4.903
96.98000 4.960
97.00000 2.111
97.02000 5.391
97.04000 5.934
97.06000 6.281
97.08000 4.990
97.10000 7.815
97.12000 2.040
97.14000 -0.881
97.16000 1.629
97.18000 4.901
97.20000 -2.550
97.22000 4.826
97.24000 9.386
97.26000 5.166
97.28000 7.282
97.30000 2.398
97.32000 1.952
97.34000 6.158
97.36000 6.120
97.38000 7.331
97.40000 8.659
97.42000 4.349
97.44000 0.796
97.46000 6.948
97.48000 6.820
97.50000 2.944
97.52000 10.892
97.54000 10.326
97.56000 8.057
97.58000 5.300
97.60000 7.130
97.62000 7.011
97.64000 2.823
97.66000 -1.847
97.68000 1.405
97.70000 13.030
97.72000 10.878
97.74000 6.073
97.76000 3.884
97.78000 2.182
97.80000 3.236
97.82000 5.551
97.84000 8.304
97.86000 8.914
97.88000 5.378
97.90000 7.589
97.92000 11.206
97.94000 8.327
97.96000 -0.777
97.98000 1.257
98.00000 1.616
98.02000 8.056
98.04000 6.273
98.06000 6.069
98.08000 6.438
98.10000 2.949
98.12000 -1.363
98.14000 4.758
98.16000 7.680
98.18000 8.528
98.20000 4.542
98.22000 7.984
98.24000 4.449
98.26000 0.774
98.28000 7.773
98.30000 4.942
98.32000 8.674
98.34000 10.246
98.36000 6.330
98.38000 2.789
98.40000 1.244
98.42000 4.442
98.44000 3.307
98.46000 1.954
98.48000 8.807
98.50000 6.620
98.52000 4.494
98.54000 4.396
98.56000 3.811
98.58000 1.235
98.60000 2.114
98.62000 5.624
98.64000 9.599
98.66000 3.622
98.68000 3.118
98.70000 4.224
98.72000 8.283
98.74000 5.187
98.76000 12.564
98.78000 8.610
98.80000 11.590
98.82000 15.162
98.84000 9.468
98.86000 4.637
98.88000 7.344
98.90000 6.766
98.92000 6.426
98.94000 4.675
98.96000 3.848
98.98000 8.175
99.00000 13.742
99.02000 10.960
99.04000 8.505
99.06000 3.129
99.08000 -1.764
99.10000 4.631
99.12000 10.489
99.14000 3.900
99.16000 5.594
99.18000 6.563
99.20000 4.640
99.22000 5.305
99.24000 9.741
99.26000 5.549
99.28000 9.502
99.30000 8.917
99.32000 11.880
99.34000 9.809
99.36000 8.218
99.38000 9.849
99.40000 9.866
99.42000 6.508
99.44000 12.344
99.46000 9.579
99.48000 6.957
99.50000 6.454
99.52000 3.805
99.54000 0.820
99.56000 1.594
99.58000 12.920
99.60000 12.221
99.62000 6.207
99.64000 9.314
99.66000 13.915
99.68000 8.198
99.70000 3.310
99.72000 9.430
99.74000 11.383
99.76000 8.292
99.78000 9.251
99.80000 8.030
99.82000 9.989
99.84000 9.957
99.86000 10.449
99.88000 7.335
99.90000 9.409
99.92000 11.340
99.94000 11.517
99.96000 2.420
99.98000 0.000
