'Id: "0011387" Comment: "Integrate frame 0011387_Au-Ir-Rh_Rh-rich_XRD-Mapping-123-0000.gfrmwith cursor Wedge Cursor #5" Operator: "B?rgel" Anode: "Cu" Wavelength: "1.5406" Scantype: "2Theta (TwoTheta)" TimePerStep: "1" X: "-9" Y: "-9" Z: "5.95" 
10.00000 0.000
10.02000 17.035
10.04000 8.970
10.06000 7.267
10.08000 9.956
10.10000 15.250
10.12000 2.893
10.14000 10.074
10.16000 -0.464
10.18000 9.584
10.20000 2.603
10.22000 -4.242
10.24000 -2.860
10.26000 4.466
10.28000 12.047
10.30000 11.868
10.32000 7.554
10.34000 24.922
10.36000 20.375
10.38000 6.274
10.40000 10.223
10.42000 8.348
10.44000 9.017
10.46000 8.959
10.48000 15.147
10.50000 1.438
10.52000 11.673
10.54000 29.498
10.56000 26.130
10.58000 15.500
10.60000 9.133
10.62000 9.356
10.64000 11.815
10.66000 10.694
10.68000 12.289
10.70000 13.538
10.72000 -4.264
10.74000 1.776
10.76000 13.895
10.78000 16.897
10.80000 22.535
10.82000 26.689
10.84000 18.226
10.86000 19.831
10.88000 21.149
10.90000 19.501
10.92000 18.127
10.94000 23.558
10.96000 17.310
10.98000 13.410
11.00000 7.206
11.02000 6.113
11.04000 12.828
11.06000 7.626
11.08000 15.282
11.10000 17.714
11.12000 26.556
11.14000 16.924
11.16000 20.357
11.18000 26.472
11.20000 34.354
11.22000 24.831
11.24000 18.349
11.26000 9.303
11.28000 3.151
11.30000 15.259
11.32000 11.482
11.34000 -4.087
11.36000 4.848
11.38000 15.097
11.40000 15.193
11.42000 11.642
11.44000 -0.370
11.46000 11.321
11.48000 8.482
11.50000 3.568
11.52000 3.937
11.54000 7.330
11.56000 13.312
11.58000 14.870
11.60000 17.901
11.62000 22.765
11.64000 20.415
11.66000 9.299
11.68000 -4.347
11.70000 -1.129
11.72000 10.913
11.74000 19.025
11.76000 14.414
11.78000 14.180
11.80000 7.696
11.82000 15.574
11.84000 14.561
11.86000 3.825
11.88000 4.305
11.90000 9.768
11.92000 27.005
11.94000 21.110
11.96000 10.424
11.98000 8.546
12.00000 5.975
12.02000 6.560
12.04000 13.642
12.06000 9.872
12.08000 19.313
12.10000 23.435
12.12000 12.105
12.14000 10.892
12.16000 20.202
12.18000 9.153
12.20000 -1.057
12.22000 8.302
12.24000 15.844
12.26000 8.893
12.28000 22.084
12.30000 23.268
12.32000 12.145
12.34000 4.778
12.36000 -2.455
12.38000 2.904
12.40000 2.107
12.42000 11.936
12.44000 11.939
12.46000 15.801
12.48000 10.039
12.50000 12.914
12.52000 3.925
12.54000 3.786
12.56000 4.723
12.58000 1.860
12.60000 14.752
12.62000 17.017
12.64000 10.897
12.66000 6.063
12.68000 -4.425
12.70000 -0.329
12.72000 -0.768
12.74000 0.758
12.76000 7.815
12.78000 17.280
12.80000 15.116
12.82000 8.040
12.84000 4.491
12.86000 4.286
12.88000 0.870
12.90000 6.627
12.92000 10.874
12.94000 18.018
12.96000 12.959
12.98000 11.583
13.00000 4.647
13.02000 10.066
13.04000 12.769
13.06000 11.866
13.08000 12.754
13.10000 13.289
13.12000 10.441
13.14000 10.401
13.16000 5.073
13.18000 7.565
13.20000 6.009
13.22000 1.383
13.24000 -1.777
13.26000 8.393
13.28000 11.356
13.30000 10.224
13.32000 10.139
13.34000 9.075
13.36000 16.769
13.38000 21.883
13.40000 17.253
13.42000 8.226
13.44000 2.862
13.46000 1.456
13.48000 -2.848
13.50000 4.039
13.52000 14.166
13.54000 4.981
13.56000 5.185
13.58000 9.549
13.60000 8.066
13.62000 8.183
13.64000 7.655
13.66000 4.464
13.68000 8.001
13.70000 0.853
13.72000 -3.749
13.74000 5.948
13.76000 15.907
13.78000 10.443
13.80000 6.685
13.82000 5.285
13.84000 8.865
13.86000 7.111
13.88000 2.590
13.90000 6.275
13.92000 4.361
13.94000 12.104
13.96000 10.326
13.98000 8.759
14.00000 12.908
14.02000 6.039
14.04000 13.040
14.06000 9.634
14.08000 19.013
14.10000 16.520
14.12000 10.361
14.14000 1.645
14.16000 0.126
14.18000 0.006
14.20000 9.593
14.22000 12.209
14.24000 10.906
14.26000 5.727
14.28000 5.483
14.30000 4.306
14.32000 11.013
14.34000 16.767
14.36000 8.779
14.38000 2.898
14.40000 5.316
14.42000 19.977
14.44000 8.201
14.46000 9.383
14.48000 9.093
14.50000 -0.490
14.52000 6.867
14.54000 10.887
14.56000 13.365
14.58000 10.237
14.60000 16.763
14.62000 24.056
14.64000 18.666
14.66000 9.162
14.68000 14.140
14.70000 7.815
14.72000 3.702
14.74000 3.945
14.76000 10.418
14.78000 7.680
14.80000 12.510
14.82000 10.851
14.84000 10.230
14.86000 9.624
14.88000 16.344
14.90000 10.505
14.92000 11.090
14.94000 15.743
14.96000 11.484
14.98000 4.024
15.00000 4.550
15.02000 4.183
15.04000 -1.481
15.06000 4.763
15.08000 11.014
15.10000 7.911
15.12000 2.875
15.14000 3.538
15.16000 2.113
15.18000 8.256
15.20000 8.611
15.22000 4.548
15.24000 1.786
15.26000 4.179
15.28000 11.137
15.30000 1.530
15.32000 1.433
15.34000 7.934
15.36000 5.677
15.38000 5.568
15.40000 8.297
15.42000 8.695
15.44000 4.395
15.46000 8.282
15.48000 15.246
15.50000 8.851
15.52000 -1.116
15.54000 3.359
15.56000 6.114
15.58000 6.791
15.60000 14.779
15.62000 19.886
15.64000 9.734
15.66000 4.871
15.68000 2.338
15.70000 7.405
15.72000 10.151
15.74000 11.304
15.76000 5.740
15.78000 8.549
15.80000 12.117
15.82000 17.459
15.84000 19.425
15.86000 14.919
15.88000 11.482
15.90000 8.360
15.92000 8.119
15.94000 10.467
15.96000 9.786
15.98000 14.364
16.00000 11.250
16.02000 18.147
16.04000 19.894
16.06000 11.560
16.08000 7.238
16.10000 7.551
16.12000 14.810
16.14000 12.476
16.16000 9.793
16.18000 4.531
16.20000 5.954
16.22000 14.193
16.24000 9.816
16.26000 0.847
16.28000 -4.335
16.30000 -1.951
16.32000 10.974
16.34000 13.761
16.36000 4.673
16.38000 5.440
16.40000 6.188
16.42000 14.811
16.44000 12.687
16.46000 15.607
16.48000 14.803
16.50000 9.918
16.52000 9.531
16.54000 14.287
16.56000 12.904
16.58000 20.215
16.60000 14.460
16.62000 4.480
16.64000 13.301
16.66000 11.402
16.68000 4.756
16.70000 3.468
16.72000 5.893
16.74000 12.285
16.76000 19.942
16.78000 13.038
16.80000 9.429
16.82000 5.939
16.84000 5.136
16.86000 7.179
16.88000 13.198
16.90000 7.661
16.92000 1.365
16.94000 4.511
16.96000 -3.987
16.98000 3.417
17.00000 16.694
17.02000 16.662
17.04000 7.050
17.06000 -2.158
17.08000 1.494
17.10000 1.436
17.12000 2.507
17.14000 4.435
17.16000 4.656
17.18000 6.098
17.20000 5.363
17.22000 10.470
17.24000 16.636
17.26000 7.277
17.28000 6.212
17.30000 6.055
17.32000 9.926
17.34000 7.122
17.36000 11.984
17.38000 5.357
17.40000 -0.815
17.42000 2.982
17.44000 5.101
17.46000 2.786
17.48000 0.944
17.50000 16.086
17.52000 19.669
17.54000 12.664
17.56000 10.089
17.58000 6.530
17.60000 7.882
17.62000 4.639
17.64000 7.864
17.66000 7.813
17.68000 -1.645
17.70000 -3.414
17.72000 7.470
17.74000 4.161
17.76000 -0.596
17.78000 -0.693
17.80000 1.853
17.82000 0.801
17.84000 1.132
17.86000 6.501
17.88000 9.798
17.90000 7.149
17.92000 2.580
17.94000 3.329
17.96000 6.840
17.98000 8.137
18.00000 8.711
18.02000 2.570
18.04000 0.371
18.06000 3.680
18.08000 3.479
18.10000 3.035
18.12000 2.395
18.14000 2.870
18.16000 0.621
18.18000 1.714
18.20000 5.308
18.22000 2.765
18.24000 1.623
18.26000 -0.947
18.28000 -0.225
18.30000 1.859
18.32000 3.918
18.34000 2.195
18.36000 -1.434
18.38000 -2.102
18.40000 -4.320
18.42000 -2.616
18.44000 1.931
18.46000 2.490
18.48000 2.866
18.50000 3.517
18.52000 2.544
18.54000 0.706
18.56000 3.142
18.58000 -4.242
18.60000 0.877
18.62000 -1.769
18.64000 0.071
18.66000 0.642
18.68000 2.422
18.70000 4.942
18.72000 2.591
18.74000 2.981
18.76000 -3.990
18.78000 -2.755
18.80000 4.624
18.82000 13.540
18.84000 8.149
18.86000 5.990
18.88000 9.543
18.90000 6.249
18.92000 -0.446
18.94000 5.343
18.96000 9.607
18.98000 4.726
19.00000 4.962
19.02000 2.626
19.04000 6.719
19.06000 7.520
19.08000 3.204
19.10000 2.087
19.12000 3.924
19.14000 1.910
19.16000 -0.215
19.18000 8.713
19.20000 12.765
19.22000 8.756
19.24000 4.184
19.26000 6.401
19.28000 3.121
19.30000 -1.078
19.32000 2.031
19.34000 13.458
19.36000 8.426
19.38000 5.648
19.40000 5.673
19.42000 11.409
19.44000 6.739
19.46000 -4.231
19.48000 -1.907
19.50000 5.135
19.52000 7.252
19.54000 12.704
19.56000 3.639
19.58000 3.238
19.60000 8.237
19.62000 11.819
19.64000 10.225
19.66000 6.391
19.68000 -0.387
19.70000 6.152
19.72000 10.122
19.74000 9.423
19.76000 10.829
19.78000 15.243
19.80000 13.477
19.82000 6.648
19.84000 4.621
19.86000 4.042
19.88000 9.166
19.90000 16.015
19.92000 11.419
19.94000 6.617
19.96000 7.247
19.98000 8.605
20.00000 3.087
20.02000 1.741
20.04000 11.037
20.06000 9.955
20.08000 7.777
20.10000 3.361
20.12000 6.353
20.14000 2.096
20.16000 -4.144
20.18000 4.984
20.20000 3.658
20.22000 11.776
20.24000 19.255
20.26000 17.781
20.28000 2.530
20.30000 4.452
20.32000 2.486
20.34000 10.409
20.36000 12.845
20.38000 5.143
20.40000 3.769
20.42000 7.259
20.44000 12.786
20.46000 7.289
20.48000 4.032
20.50000 8.921
20.52000 6.548
20.54000 5.421
20.56000 7.781
20.58000 7.983
20.60000 2.069
20.62000 1.656
20.64000 3.658
20.66000 3.673
20.68000 8.503
20.70000 9.925
20.72000 9.477
20.74000 3.881
20.76000 1.689
20.78000 9.247
20.80000 5.628
20.82000 2.240
20.84000 0.548
20.86000 -1.269
20.88000 0.552
20.90000 5.743
20.92000 4.067
20.94000 10.647
20.96000 10.670
20.98000 11.027
21.00000 9.052
21.02000 12.572
21.04000 16.511
21.06000 13.054
21.08000 8.642
21.10000 5.232
21.12000 5.310
21.14000 -0.798
21.16000 4.290
21.18000 5.529
21.20000 -0.657
21.22000 -4.095
21.24000 4.725
21.26000 3.736
21.28000 -0.239
21.30000 8.354
21.32000 14.321
21.34000 11.306
21.36000 8.453
21.38000 2.714
21.40000 9.042
21.42000 10.644
21.44000 10.331
21.46000 6.379
21.48000 1.448
21.50000 5.625
21.52000 6.947
21.54000 3.916
21.56000 1.790
21.58000 2.498
21.60000 6.326
21.62000 2.494
21.64000 1.084
21.66000 3.546
21.68000 0.661
21.70000 1.371
21.72000 6.448
21.74000 6.825
21.76000 8.965
21.78000 5.026
21.80000 5.935
21.82000 5.659
21.84000 8.168
21.86000 9.429
21.88000 6.333
21.90000 7.476
21.92000 6.321
21.94000 9.558
21.96000 7.289
21.98000 5.948
22.00000 4.156
22.02000 5.177
22.04000 6.413
22.06000 10.244
22.08000 1.838
22.10000 4.680
22.12000 5.327
22.14000 8.014
22.16000 15.488
22.18000 13.312
22.20000 7.376
22.22000 11.191
22.24000 4.619
22.26000 -0.264
22.28000 -2.785
22.30000 -2.438
22.32000 -1.587
22.34000 -1.998
22.36000 8.767
22.38000 12.879
22.40000 11.345
22.42000 2.509
22.44000 0.065
22.46000 -0.206
22.48000 1.008
22.50000 1.441
22.52000 -4.063
22.54000 -3.543
22.56000 5.970
22.58000 4.473
22.60000 1.564
22.62000 3.424
22.64000 4.802
22.66000 1.461
22.68000 4.210
22.70000 7.093
22.72000 13.153
22.74000 5.671
22.76000 9.805
22.78000 10.529
22.80000 3.189
22.82000 0.142
22.84000 0.125
22.86000 0.296
22.88000 1.082
22.90000 -0.620
22.92000 2.153
22.94000 -0.052
22.96000 -3.273
22.98000 0.428
23.00000 -0.165
23.02000 5.114
23.04000 4.988
23.06000 4.651
23.08000 7.797
23.10000 -0.256
23.12000 1.165
23.14000 0.296
23.16000 4.623
23.18000 3.705
23.20000 0.118
23.22000 -0.282
23.24000 -4.032
23.26000 -3.599
23.28000 0.798
23.30000 -0.257
23.32000 3.926
23.34000 4.116
23.36000 5.446
23.38000 0.413
23.40000 -1.483
23.42000 0.734
23.44000 2.126
23.46000 4.940
23.48000 6.879
23.50000 1.939
23.52000 2.782
23.54000 0.061
23.56000 3.402
23.58000 4.333
23.60000 1.649
23.62000 -3.103
23.64000 -0.578
23.66000 -2.138
23.68000 -0.172
23.70000 1.973
23.72000 7.072
23.74000 4.446
23.76000 3.148
23.78000 5.555
23.80000 4.317
23.82000 5.455
23.84000 4.806
23.86000 7.321
23.88000 5.373
23.90000 5.332
23.92000 5.740
23.94000 6.199
23.96000 5.088
23.98000 4.981
24.00000 6.608
24.02000 1.552
24.04000 -0.651
24.06000 2.985
24.08000 4.645
24.10000 5.017
24.12000 7.241
24.14000 7.973
24.16000 8.935
24.18000 -1.747
24.20000 2.585
24.22000 6.381
24.24000 2.897
24.26000 4.466
24.28000 6.183
24.30000 -0.555
24.32000 -3.944
24.34000 0.229
24.36000 2.361
24.38000 4.045
24.40000 7.319
24.42000 5.028
24.44000 7.343
24.46000 7.736
24.48000 2.444
24.50000 7.765
24.52000 7.768
24.54000 5.762
24.56000 11.857
24.58000 13.530
24.60000 13.625
24.62000 6.866
24.64000 1.776
24.66000 0.965
24.68000 1.591
24.70000 4.057
24.72000 2.016
24.74000 1.478
24.76000 0.081
24.78000 -2.189
24.80000 -3.920
24.82000 2.149
24.84000 3.588
24.86000 4.190
24.88000 2.627
24.90000 5.912
24.92000 3.752
24.94000 5.354
24.96000 9.574
24.98000 7.248
25.00000 5.447
25.02000 7.190
25.04000 6.509
25.06000 7.008
25.08000 0.660
25.10000 -0.489
25.12000 2.750
25.14000 5.043
25.16000 -0.553
25.18000 -0.334
25.20000 2.846
25.22000 3.718
25.24000 5.324
25.26000 7.912
25.28000 3.969
25.30000 -2.296
25.32000 0.444
25.34000 3.556
25.36000 4.134
25.38000 6.688
25.40000 4.207
25.42000 6.927
25.44000 8.181
25.46000 9.100
25.48000 3.613
25.50000 3.431
25.52000 0.355
25.54000 2.569
25.56000 2.974
25.58000 -3.889
25.60000 0.519
25.62000 2.647
25.64000 4.471
25.66000 4.688
25.68000 4.424
25.70000 4.355
25.72000 2.264
25.74000 5.815
25.76000 5.101
25.78000 7.932
25.80000 6.560
25.82000 2.864
25.84000 -0.841
25.86000 2.621
25.88000 6.955
25.90000 7.526
25.92000 4.815
25.94000 4.312
25.96000 1.204
25.98000 1.546
26.00000 1.715
26.02000 4.046
26.04000 3.324
26.06000 -1.802
26.08000 1.136
26.10000 3.696
26.12000 0.145
26.14000 3.483
26.16000 4.637
26.18000 3.162
26.20000 -0.390
26.22000 2.720
26.24000 0.552
26.26000 2.162
26.28000 -1.619
26.30000 -0.030
26.32000 2.312
26.34000 1.667
26.36000 -3.876
26.38000 -2.543
26.40000 1.320
26.42000 2.388
26.44000 1.675
26.46000 4.254
26.48000 2.803
26.50000 0.849
26.52000 -0.504
26.54000 -0.270
26.56000 -2.104
26.58000 0.178
26.60000 -0.023
26.62000 -1.542
26.64000 1.468
26.66000 5.954
26.68000 5.703
26.70000 2.701
26.72000 -1.831
26.74000 0.626
26.76000 -2.084
26.78000 -1.153
26.80000 1.777
26.82000 4.293
26.84000 0.617
26.86000 1.507
26.88000 -3.856
26.90000 -1.784
26.92000 -0.131
26.94000 -0.298
26.96000 -3.523
26.98000 -3.169
27.00000 5.955
27.02000 5.737
27.04000 0.809
27.06000 -3.757
27.08000 -0.655
27.10000 2.149
27.12000 0.304
27.14000 -1.160
27.16000 -2.867
27.18000 -3.481
27.20000 -0.768
27.22000 4.802
27.24000 3.699
27.26000 4.376
27.28000 -3.236
27.30000 -2.195
27.32000 -3.522
27.34000 -0.877
27.36000 2.976
27.38000 3.475
27.40000 3.251
27.42000 4.789
27.44000 -0.875
27.46000 -1.041
27.48000 2.677
27.50000 5.939
27.52000 -0.652
27.54000 -1.314
27.56000 -1.361
27.58000 -1.797
27.60000 -1.172
27.62000 1.804
27.64000 3.569
27.66000 3.429
27.68000 2.883
27.70000 2.972
27.72000 -2.692
27.74000 -2.831
27.76000 1.319
27.78000 4.000
27.80000 4.297
27.82000 2.451
27.84000 0.982
27.86000 -1.675
27.88000 -2.552
27.90000 -3.230
27.92000 -1.468
27.94000 0.169
27.96000 7.304
27.98000 7.918
28.00000 2.480
28.02000 -3.761
28.04000 -1.204
28.06000 2.932
28.08000 3.373
28.10000 1.169
28.12000 1.102
28.14000 5.154
28.16000 4.307
28.18000 0.933
28.20000 0.580
28.22000 6.838
28.24000 10.159
28.26000 4.957
28.28000 2.132
28.30000 7.040
28.32000 8.233
28.34000 8.728
28.36000 5.208
28.38000 6.674
28.40000 1.767
28.42000 -3.732
28.44000 3.488
28.46000 2.168
28.48000 3.134
28.50000 0.020
28.52000 -2.011
28.54000 5.711
28.56000 0.767
28.58000 3.531
28.60000 2.929
28.62000 3.050
28.64000 3.236
28.66000 1.254
28.68000 1.577
28.70000 3.187
28.72000 -0.749
28.74000 2.864
28.76000 4.717
28.78000 6.912
28.80000 6.422
28.82000 6.437
28.84000 3.584
28.86000 0.845
28.88000 -3.573
28.90000 2.359
28.92000 0.766
28.94000 -1.799
28.96000 0.908
28.98000 4.141
29.00000 5.962
29.02000 7.658
29.04000 2.485
29.06000 -2.045
29.08000 0.426
29.10000 3.390
29.12000 4.614
29.14000 5.255
29.16000 8.535
29.18000 8.874
29.20000 4.540
29.22000 4.327
29.24000 3.785
29.26000 6.417
29.28000 4.930
29.30000 5.309
29.32000 1.774
29.34000 -0.994
29.36000 0.211
29.38000 5.621
29.40000 8.841
29.42000 6.258
29.44000 -0.032
29.46000 3.577
29.48000 6.388
29.50000 4.502
29.52000 4.850
29.54000 2.816
29.56000 -2.177
29.58000 4.789
29.60000 8.029
29.62000 3.478
29.64000 1.551
29.66000 1.397
29.68000 6.249
29.70000 3.855
29.72000 2.260
29.74000 -3.649
29.76000 -2.459
29.78000 7.492
29.80000 7.203
29.82000 6.052
29.84000 3.445
29.86000 4.174
29.88000 7.302
29.90000 8.088
29.92000 5.835
29.94000 6.644
29.96000 10.124
29.98000 5.704
30.00000 0.690
30.02000 6.996
30.04000 5.824
30.06000 4.520
30.08000 3.410
30.10000 1.455
30.12000 2.007
30.14000 0.363
30.16000 1.969
30.18000 7.887
30.20000 3.440
30.22000 4.101
30.24000 5.221
30.26000 0.861
30.28000 0.940
30.30000 3.936
30.32000 5.546
30.34000 3.591
30.36000 3.945
30.38000 3.198
30.40000 6.032
30.42000 8.119
30.44000 5.513
30.46000 1.064
30.48000 -2.107
30.50000 6.422
30.52000 6.625
30.54000 5.454
30.56000 2.159
30.58000 3.358
30.60000 1.444
30.62000 1.478
30.64000 4.447
30.66000 0.654
30.68000 7.066
30.70000 3.285
30.72000 3.143
30.74000 10.343
30.76000 5.945
30.78000 4.512
30.80000 2.407
30.82000 -3.616
30.84000 2.702
30.86000 6.097
30.88000 5.274
30.90000 2.073
30.92000 1.818
30.94000 3.102
30.96000 4.063
30.98000 3.812
31.00000 1.093
31.02000 2.874
31.04000 2.391
31.06000 7.780
31.08000 9.506
31.10000 6.381
31.12000 0.267
31.14000 0.852
31.16000 2.678
31.18000 0.885
31.20000 -1.436
31.22000 -0.295
31.24000 2.043
31.26000 -2.980
31.28000 0.130
31.30000 0.616
31.32000 2.703
31.34000 1.774
31.36000 -2.422
31.38000 -1.462
31.40000 5.104
31.42000 6.992
31.44000 9.105
31.46000 4.669
31.48000 4.353
31.50000 5.667
31.52000 2.778
31.54000 5.807
31.56000 3.823
31.58000 0.890
31.60000 1.444
31.62000 2.162
31.64000 3.044
31.66000 1.174
31.68000 0.918
31.70000 5.108
31.72000 4.787
31.74000 -0.313
31.76000 4.295
31.78000 2.260
31.80000 -0.193
31.82000 3.686
31.84000 4.574
31.86000 3.210
31.88000 0.995
31.90000 0.196
31.92000 -1.568
31.94000 2.848
31.96000 -0.364
31.98000 -3.570
32.00000 0.893
32.02000 3.023
32.04000 2.225
32.06000 4.859
32.08000 4.362
32.10000 0.544
32.12000 -0.983
32.14000 -2.453
32.16000 -0.323
32.18000 3.050
32.20000 3.215
32.22000 5.294
32.24000 0.730
32.26000 5.203
32.28000 4.217
32.30000 2.825
32.32000 7.281
32.34000 4.557
32.36000 -1.498
32.38000 1.038
32.40000 -1.097
32.42000 1.058
32.44000 4.926
32.46000 9.121
32.48000 5.628
32.50000 -0.581
32.52000 4.618
32.54000 6.474
32.56000 1.574
32.58000 1.333
32.60000 1.058
32.62000 1.618
32.64000 2.028
32.66000 -0.181
32.68000 -0.754
32.70000 1.248
32.72000 2.950
32.74000 5.524
32.76000 6.895
32.78000 2.750
32.80000 3.376
32.82000 8.400
32.84000 4.411
32.86000 6.242
32.88000 6.783
32.90000 1.996
32.92000 0.345
32.94000 3.143
32.96000 4.271
32.98000 2.121
33.00000 1.207
33.02000 2.544
33.04000 -1.182
33.06000 -3.519
33.08000 3.321
33.10000 5.749
33.12000 6.252
33.14000 7.316
33.16000 3.254
33.18000 3.423
33.20000 4.308
33.22000 0.602
33.24000 8.969
33.26000 9.286
33.28000 6.726
33.30000 2.407
33.32000 1.479
33.34000 0.307
33.36000 1.475
33.38000 0.690
33.40000 -1.835
33.42000 4.298
33.44000 10.768
33.46000 5.301
33.48000 7.298
33.50000 3.813
33.52000 2.696
33.54000 2.542
33.56000 -2.561
33.58000 5.531
33.60000 7.084
33.62000 9.176
33.64000 2.483
33.66000 3.019
33.68000 0.573
33.70000 -0.685
33.72000 4.447
33.74000 5.819
33.76000 0.937
33.78000 3.112
33.80000 5.169
33.82000 5.006
33.84000 5.351
33.86000 3.790
33.88000 -3.519
33.90000 -2.598
33.92000 0.893
33.94000 5.472
33.96000 5.498
33.98000 4.791
34.00000 0.649
34.02000 -1.865
34.04000 3.983
34.06000 5.504
34.08000 4.791
34.10000 4.168
34.12000 4.045
34.14000 1.047
34.16000 1.455
34.18000 7.893
34.20000 4.057
34.22000 5.830
34.24000 4.772
34.26000 0.869
34.28000 1.442
34.30000 -0.015
34.32000 0.456
34.34000 2.945
34.36000 5.174
34.38000 5.946
34.40000 1.149
34.42000 -2.174
34.44000 -0.996
34.46000 -0.903
34.48000 -2.618
34.50000 -1.114
34.52000 -3.506
34.54000 -1.855
34.56000 -1.470
34.58000 -1.153
34.60000 -1.352
34.62000 3.258
34.64000 4.342
34.66000 2.216
34.68000 -2.189
34.70000 -2.590
34.72000 0.503
34.74000 3.358
34.76000 2.031
34.78000 2.265
34.80000 4.190
34.82000 1.583
34.84000 3.273
34.86000 -2.791
34.88000 -1.039
34.90000 -0.532
34.92000 -1.208
34.94000 0.604
34.96000 4.906
34.98000 2.145
35.00000 0.143
35.02000 0.188
35.04000 -0.339
35.06000 -1.989
35.08000 0.372
35.10000 -0.638
35.12000 3.218
35.14000 3.836
35.16000 2.846
35.18000 -2.093
35.20000 -3.502
35.22000 -0.831
35.24000 -0.011
35.26000 -0.452
35.28000 -0.635
35.30000 4.439
35.32000 5.565
35.34000 1.598
35.36000 -0.430
35.38000 -0.210
35.40000 5.466
35.42000 -1.705
35.44000 -1.214
35.46000 1.159
35.48000 -0.235
35.50000 1.325
35.52000 -0.829
35.54000 1.603
35.56000 5.573
35.58000 6.069
35.60000 1.234
35.62000 1.030
35.64000 0.929
35.66000 4.102
35.68000 -2.724
35.70000 -1.473
35.72000 1.245
35.74000 1.498
35.76000 -3.486
35.78000 0.643
35.80000 3.184
35.82000 1.275
35.84000 0.450
35.86000 1.952
35.88000 -3.436
35.90000 -1.107
35.92000 3.261
35.94000 4.708
35.96000 2.883
35.98000 0.246
36.00000 -1.325
36.02000 -0.971
36.04000 4.262
36.06000 3.705
36.08000 -1.427
36.10000 0.592
36.12000 2.290
36.14000 2.994
36.16000 3.596
36.18000 0.725
36.20000 2.971
36.22000 3.497
36.24000 0.772
36.26000 -3.185
36.28000 -2.336
36.30000 -1.370
36.32000 -3.501
36.34000 -1.049
36.36000 0.437
36.38000 3.109
36.40000 0.250
36.42000 1.819
36.44000 1.636
36.46000 3.960
36.48000 1.980
36.50000 4.299
36.52000 4.298
36.54000 3.470
36.56000 0.728
36.58000 3.210
36.60000 9.018
36.62000 5.681
36.64000 -0.241
36.66000 -1.252
36.68000 0.750
36.70000 1.100
36.72000 0.546
36.74000 2.517
36.76000 4.750
36.78000 1.059
36.80000 -2.552
36.82000 1.700
36.84000 3.700
36.86000 2.770
36.88000 -2.146
36.90000 -2.302
36.92000 0.881
36.94000 4.677
36.96000 3.189
36.98000 -1.247
37.00000 2.199
37.02000 1.023
37.04000 -1.477
37.06000 -3.503
37.08000 -2.957
37.10000 -1.472
37.12000 -0.801
37.14000 -1.332
37.16000 -0.626
37.18000 -0.623
37.20000 0.225
37.22000 -2.070
37.24000 -0.378
37.26000 -3.527
37.28000 -1.606
37.30000 1.266
37.32000 1.237
37.34000 2.826
37.36000 0.034
37.38000 -1.225
37.40000 1.078
37.42000 -0.575
37.44000 1.543
37.46000 -0.874
37.48000 -3.246
37.50000 0.784
37.52000 -0.762
37.54000 0.017
37.56000 2.332
37.58000 0.787
37.60000 0.587
37.62000 0.980
37.64000 1.262
37.66000 1.158
37.68000 3.701
37.70000 0.427
37.72000 0.551
37.74000 0.666
37.76000 2.749
37.78000 2.445
37.80000 -0.368
37.82000 -0.568
37.84000 0.476
37.86000 -2.100
37.88000 0.388
37.90000 -0.390
37.92000 0.962
37.94000 4.101
37.96000 7.888
37.98000 4.550
38.00000 2.392
38.02000 6.402
38.04000 7.092
38.06000 6.611
38.08000 7.660
38.10000 5.848
38.12000 2.395
38.14000 6.840
38.16000 10.192
38.18000 7.604
38.20000 10.231
38.22000 13.701
38.24000 11.724
38.26000 11.455
38.28000 11.627
38.30000 7.680
38.32000 7.755
38.34000 13.208
38.36000 13.807
38.38000 13.183
38.40000 15.530
38.42000 15.269
38.44000 14.234
38.46000 17.613
38.48000 19.745
38.50000 17.775
38.52000 13.952
38.54000 19.660
38.56000 17.866
38.58000 17.090
38.60000 18.489
38.62000 17.993
38.64000 18.029
38.66000 18.306
38.68000 21.159
38.70000 22.154
38.72000 16.023
38.74000 22.524
38.76000 26.298
38.78000 26.645
38.80000 24.084
38.82000 19.776
38.84000 25.957
38.86000 23.340
38.88000 23.677
38.90000 27.405
38.92000 35.212
38.94000 30.361
38.96000 26.098
38.98000 29.249
39.00000 30.602
39.02000 35.209
39.04000 35.355
39.06000 35.142
39.08000 41.572
39.10000 39.307
39.12000 40.322
39.14000 44.386
39.16000 46.933
39.18000 44.437
39.20000 46.035
39.22000 52.472
39.24000 53.700
39.26000 57.670
39.28000 55.417
39.30000 61.030
39.32000 59.723
39.34000 61.896
39.36000 70.752
39.38000 72.871
39.40000 75.537
39.42000 76.890
39.44000 79.561
39.46000 81.860
39.48000 85.984
39.50000 93.774
39.52000 104.584
39.54000 110.210
39.56000 105.962
39.58000 108.456
39.60000 115.117
39.62000 120.524
39.64000 135.170
39.66000 143.244
39.68000 151.565
39.70000 160.163
39.72000 168.296
39.74000 174.330
39.76000 182.332
39.78000 194.567
39.80000 208.711
39.82000 220.551
39.84000 237.203
39.86000 245.875
39.88000 267.677
39.90000 283.203
39.92000 305.789
39.94000 330.359
39.96000 345.890
39.98000 368.510
40.00000 392.987
40.02000 429.148
40.04000 449.781
40.06000 473.264
40.08000 502.040
40.10000 541.484
40.12000 579.454
40.14000 599.228
40.16000 622.618
40.18000 654.473
40.20000 698.408
40.22000 735.552
40.24000 769.481
40.26000 796.200
40.28000 825.464
40.30000 853.662
40.32000 872.914
40.34000 892.090
40.36000 902.690
40.38000 926.845
40.40000 937.809
40.42000 944.149
40.44000 956.805
40.46000 955.785
40.48000 942.776
40.50000 930.156
40.52000 914.337
40.54000 897.108
40.56000 872.272
40.58000 860.129
40.60000 841.242
40.62000 840.684
40.64000 820.189
40.66000 797.199
40.68000 753.188
40.70000 723.449
40.72000 697.664
40.74000 671.022
40.76000 633.823
40.78000 626.046
40.80000 586.839
40.82000 547.361
40.84000 527.430
40.86000 508.538
40.88000 486.771
40.90000 459.124
40.92000 430.187
40.94000 408.763
40.96000 388.380
40.98000 363.800
41.00000 349.137
41.02000 327.012
41.04000 303.704
41.06000 282.574
41.08000 272.495
41.10000 257.883
41.12000 239.850
41.14000 234.112
41.16000 224.552
41.18000 203.092
41.20000 186.195
41.22000 178.681
41.24000 173.049
41.26000 163.242
41.28000 158.418
41.30000 149.704
41.32000 144.494
41.34000 133.837
41.36000 129.655
41.38000 125.656
41.40000 109.304
41.42000 102.223
41.44000 105.195
41.46000 104.744
41.48000 100.085
41.50000 91.753
41.52000 85.755
41.54000 86.066
41.56000 78.180
41.58000 66.274
41.60000 61.077
41.62000 60.108
41.64000 56.111
41.66000 58.903
41.68000 54.857
41.70000 53.497
41.72000 51.150
41.74000 49.890
41.76000 47.561
41.78000 40.778
41.80000 43.352
41.82000 46.223
41.84000 42.982
41.86000 41.886
41.88000 36.755
41.90000 32.450
41.92000 31.102
41.94000 29.347
41.96000 26.991
41.98000 29.976
42.00000 31.942
42.02000 30.355
42.04000 31.095
42.06000 26.682
42.08000 23.681
42.10000 23.174
42.12000 17.412
42.14000 20.305
42.16000 21.218
42.18000 20.407
42.20000 19.529
42.22000 18.469
42.24000 15.348
42.26000 13.975
42.28000 16.027
42.30000 17.809
42.32000 15.747
42.34000 13.570
42.36000 9.830
42.38000 12.842
42.40000 11.303
42.42000 12.193
42.44000 10.701
42.46000 10.821
42.48000 6.439
42.50000 5.905
42.52000 8.421
42.54000 5.377
42.56000 6.940
42.58000 10.097
42.60000 6.784
42.62000 1.965
42.64000 2.485
42.66000 6.412
42.68000 5.993
42.70000 2.254
42.72000 1.509
42.74000 2.771
42.76000 5.578
42.78000 2.775
42.80000 4.226
42.82000 1.532
42.84000 2.772
42.86000 5.752
42.88000 -1.329
42.90000 -2.216
42.92000 -0.168
42.94000 3.289
42.96000 7.983
42.98000 1.221
43.00000 0.927
43.02000 -1.805
43.04000 0.287
43.06000 4.137
43.08000 5.080
43.10000 2.071
43.12000 0.471
43.14000 2.317
43.16000 3.391
43.18000 1.812
43.20000 0.913
43.22000 -1.068
43.24000 2.288
43.26000 1.268
43.28000 0.250
43.30000 1.385
43.32000 3.327
43.34000 4.945
43.36000 5.828
43.38000 -0.938
43.40000 -3.423
43.42000 1.216
43.44000 1.763
43.46000 1.619
43.48000 2.184
43.50000 -0.417
43.52000 1.316
43.54000 -1.833
43.56000 0.522
43.58000 1.194
43.60000 0.506
43.62000 -0.879
43.64000 3.154
43.66000 0.281
43.68000 -2.169
43.70000 1.238
43.72000 1.236
43.74000 3.208
43.76000 2.847
43.78000 2.953
43.80000 3.273
43.82000 2.406
43.84000 0.076
43.86000 -2.436
43.88000 -2.884
43.90000 -3.359
43.92000 0.188
43.94000 -0.449
43.96000 1.044
43.98000 -3.209
44.00000 -3.055
44.02000 2.247
44.04000 3.691
44.06000 -0.099
44.08000 0.403
44.10000 3.333
44.12000 3.803
44.14000 2.383
44.16000 -1.013
44.18000 0.958
44.20000 3.394
44.22000 -2.987
44.24000 -0.936
44.26000 0.941
44.28000 -0.046
44.30000 -3.312
44.32000 -2.366
44.34000 0.806
44.36000 3.067
44.38000 3.099
44.40000 -1.705
44.42000 0.900
44.44000 2.238
44.46000 1.564
44.48000 4.208
44.50000 4.110
44.52000 -1.296
44.54000 -3.290
44.56000 -0.611
44.58000 3.227
44.60000 5.689
44.62000 2.516
44.64000 1.088
44.66000 0.966
44.68000 2.400
44.70000 5.130
44.72000 3.850
44.74000 -3.292
44.76000 -2.382
44.78000 -0.500
44.80000 1.597
44.82000 0.864
44.84000 1.471
44.86000 4.550
44.88000 2.757
44.90000 -0.380
44.92000 1.191
44.94000 -0.151
44.96000 -1.445
44.98000 2.248
45.00000 8.113
45.02000 6.248
45.04000 4.699
45.06000 2.092
45.08000 4.476
45.10000 3.058
45.12000 0.596
45.14000 0.058
45.16000 2.864
45.18000 3.223
45.20000 3.429
45.22000 2.184
45.24000 0.600
45.26000 5.944
45.28000 5.471
45.30000 4.760
45.32000 4.114
45.34000 8.672
45.36000 10.797
45.38000 5.237
45.40000 3.964
45.42000 4.356
45.44000 4.954
45.46000 8.155
45.48000 9.073
45.50000 6.717
45.52000 6.772
45.54000 1.972
45.56000 7.999
45.58000 13.786
45.60000 6.788
45.62000 6.147
45.64000 11.927
45.66000 11.510
45.68000 10.600
45.70000 7.564
45.72000 13.305
45.74000 15.303
45.76000 20.396
45.78000 17.951
45.80000 12.634
45.82000 14.519
45.84000 13.367
45.86000 16.976
45.88000 17.009
45.90000 14.616
45.92000 12.442
45.94000 17.472
45.96000 19.790
45.98000 16.116
46.00000 16.272
46.02000 23.256
46.04000 21.673
46.06000 20.183
46.08000 25.004
46.10000 26.025
46.12000 24.566
46.14000 29.484
46.16000 33.798
46.18000 39.680
46.20000 41.195
46.22000 45.842
46.24000 46.480
46.26000 44.302
46.28000 45.104
46.30000 43.129
46.32000 46.345
46.34000 47.407
46.36000 55.027
46.38000 57.069
46.40000 56.715
46.42000 64.366
46.44000 59.162
46.46000 59.272
46.48000 68.227
46.50000 67.712
46.52000 70.790
46.54000 81.080
46.56000 82.977
46.58000 78.295
46.60000 86.097
46.62000 88.794
46.64000 90.793
46.66000 94.704
46.68000 102.013
46.70000 111.966
46.72000 116.827
46.74000 112.953
46.76000 114.178
46.78000 122.035
46.80000 130.029
46.82000 130.218
46.84000 135.925
46.86000 147.085
46.88000 137.012
46.90000 138.039
46.92000 151.065
46.94000 151.258
46.96000 154.213
46.98000 154.905
47.00000 156.955
47.02000 163.305
47.04000 167.332
47.06000 160.626
47.08000 153.731
47.10000 150.965
47.12000 157.509
47.14000 158.657
47.16000 152.840
47.18000 149.087
47.20000 146.025
47.22000 146.306
47.24000 141.107
47.26000 138.580
47.28000 130.740
47.30000 128.912
47.32000 125.177
47.34000 120.807
47.36000 121.687
47.38000 118.411
47.40000 116.204
47.42000 109.449
47.44000 100.031
47.46000 98.117
47.48000 89.671
47.50000 87.426
47.52000 84.812
47.54000 82.679
47.56000 79.887
47.58000 77.456
47.60000 70.018
47.62000 67.676
47.64000 69.622
47.66000 64.406
47.68000 62.694
47.70000 61.868
47.72000 57.244
47.74000 51.764
47.76000 49.982
47.78000 46.267
47.80000 41.661
47.82000 38.290
47.84000 35.622
47.86000 33.238
47.88000 32.477
47.90000 28.563
47.92000 32.554
47.94000 31.196
47.96000 25.884
47.98000 21.842
48.00000 22.957
48.02000 24.388
48.04000 23.293
48.06000 17.341
48.08000 14.136
48.10000 16.087
48.12000 15.262
48.14000 16.191
48.16000 16.919
48.18000 9.332
48.20000 11.400
48.22000 11.499
48.24000 9.307
48.26000 11.946
48.28000 12.860
48.30000 10.701
48.32000 7.086
48.34000 4.973
48.36000 5.572
48.38000 7.879
48.40000 3.903
48.42000 1.358
48.44000 2.729
48.46000 5.094
48.48000 -0.631
48.50000 0.738
48.52000 5.837
48.54000 3.489
48.56000 1.393
48.58000 3.926
48.60000 8.264
48.62000 8.607
48.64000 6.733
48.66000 6.484
48.68000 6.255
48.70000 3.963
48.72000 2.482
48.74000 -1.124
48.76000 -2.140
48.78000 5.999
48.80000 2.746
48.82000 2.244
48.84000 5.586
48.86000 2.771
48.88000 0.410
48.90000 2.722
48.92000 5.367
48.94000 4.422
48.96000 2.354
48.98000 1.321
49.00000 -2.484
49.02000 -2.837
49.04000 3.189
49.06000 1.576
49.08000 3.556
49.10000 4.499
49.12000 2.591
49.14000 5.263
49.16000 6.948
49.18000 -1.625
49.20000 -2.682
49.22000 -2.745
49.24000 1.222
49.26000 3.346
49.28000 5.108
49.30000 1.363
49.32000 2.406
49.34000 6.755
49.36000 8.823
49.38000 4.689
49.40000 1.038
49.42000 4.396
49.44000 -1.173
49.46000 -2.719
49.48000 2.428
49.50000 6.337
49.52000 4.679
49.54000 5.369
49.56000 4.940
49.58000 4.741
49.60000 3.134
49.62000 4.893
49.64000 5.341
49.66000 4.651
49.68000 6.677
49.70000 5.322
49.72000 5.473
49.74000 3.195
49.76000 3.098
49.78000 4.598
49.80000 6.320
49.82000 3.091
49.84000 1.693
49.86000 9.248
49.88000 9.304
49.90000 4.067
49.92000 -0.742
49.94000 2.699
49.96000 3.965
49.98000 0.318
50.00000 2.420
50.02000 5.009
50.04000 3.508
50.06000 1.532
50.08000 2.643
50.10000 2.517
50.12000 0.079
50.14000 0.151
50.16000 0.614
50.18000 4.342
50.20000 5.800
50.22000 5.013
50.24000 7.944
50.26000 6.084
50.28000 4.635
50.30000 2.428
50.32000 0.527
50.34000 2.102
50.36000 2.516
50.38000 0.616
50.40000 0.669
50.42000 0.367
50.44000 -0.173
50.46000 6.351
50.48000 4.223
50.50000 2.616
50.52000 7.742
50.54000 4.180
50.56000 0.696
50.58000 -2.609
50.60000 -1.056
50.62000 -1.079
50.64000 7.613
50.66000 9.061
50.68000 7.973
50.70000 5.493
50.72000 7.281
50.74000 10.955
50.76000 7.453
50.78000 6.136
50.80000 3.564
50.82000 5.037
50.84000 4.004
50.86000 4.256
50.88000 0.894
50.90000 0.239
50.92000 -2.582
50.94000 1.662
50.96000 3.982
50.98000 5.881
51.00000 5.734
51.02000 3.035
51.04000 6.672
51.06000 2.707
51.08000 2.589
51.10000 5.030
51.12000 3.535
51.14000 4.712
51.16000 7.698
51.18000 6.425
51.20000 8.365
51.22000 10.114
51.24000 8.881
51.26000 2.905
51.28000 2.673
51.30000 3.560
51.32000 5.374
51.34000 4.359
51.36000 2.634
51.38000 4.151
51.40000 3.904
51.42000 1.865
51.44000 2.436
51.46000 1.929
51.48000 4.995
51.50000 4.879
51.52000 4.647
51.54000 7.703
51.56000 6.795
51.58000 6.339
51.60000 8.105
51.62000 4.541
51.64000 4.957
51.66000 8.767
51.68000 5.781
51.70000 3.335
51.72000 1.081
51.74000 2.450
51.76000 5.485
51.78000 1.615
51.80000 -2.538
51.82000 1.273
51.84000 7.330
51.86000 9.475
51.88000 6.232
51.90000 4.353
51.92000 5.101
51.94000 8.304
51.96000 5.895
51.98000 -0.828
52.00000 1.292
52.02000 6.170
52.04000 6.928
52.06000 3.270
52.08000 1.535
52.10000 1.780
52.12000 3.225
52.14000 5.675
52.16000 7.287
52.18000 5.550
52.20000 1.975
52.22000 -2.048
52.24000 -0.481
52.26000 3.067
52.28000 3.508
52.30000 -0.649
52.32000 0.062
52.34000 3.069
52.36000 1.890
52.38000 -0.736
52.40000 4.233
52.42000 3.063
52.44000 4.364
52.46000 1.133
52.48000 4.134
52.50000 3.549
52.52000 1.593
52.54000 3.719
52.56000 0.428
52.58000 2.869
52.60000 1.080
52.62000 1.641
52.64000 0.255
52.66000 -0.330
52.68000 -0.547
52.70000 0.664
52.72000 1.027
52.74000 1.455
52.76000 4.759
52.78000 2.135
52.80000 1.210
52.82000 1.311
52.84000 1.800
52.86000 0.686
52.88000 3.423
52.90000 4.387
52.92000 4.717
52.94000 1.145
52.96000 1.636
52.98000 2.419
53.00000 0.809
53.02000 0.806
53.04000 -1.838
53.06000 -1.509
53.08000 -1.711
53.10000 1.793
53.12000 4.414
53.14000 2.257
53.16000 2.095
53.18000 1.575
53.20000 4.641
53.22000 4.012
53.24000 1.794
53.26000 -1.771
53.28000 -0.150
53.30000 5.125
53.32000 3.015
53.34000 4.683
53.36000 2.179
53.38000 2.286
53.40000 -0.339
53.42000 0.544
53.44000 0.649
53.46000 2.294
53.48000 0.285
53.50000 -1.940
53.52000 -0.329
53.54000 3.198
53.56000 2.745
53.58000 3.885
53.60000 3.795
53.62000 3.201
53.64000 2.166
53.66000 4.184
53.68000 0.809
53.70000 0.207
53.72000 -0.487
53.74000 -2.360
53.76000 3.152
53.78000 4.989
53.80000 4.672
53.82000 3.341
53.84000 3.318
53.86000 -2.526
53.88000 0.390
53.90000 0.835
53.92000 1.099
53.94000 0.551
53.96000 2.941
53.98000 2.734
54.00000 2.307
54.02000 -1.087
54.04000 2.152
54.06000 2.052
54.08000 0.554
54.10000 -0.753
54.12000 4.680
54.14000 5.850
54.16000 0.708
54.18000 1.916
54.20000 5.368
54.22000 5.186
54.24000 3.101
54.26000 4.364
54.28000 3.326
54.30000 4.204
54.32000 8.767
54.34000 6.931
54.36000 1.137
54.38000 0.742
54.40000 4.441
54.42000 7.417
54.44000 3.502
54.46000 -2.462
54.48000 -0.644
54.50000 0.224
54.52000 2.904
54.54000 5.366
54.56000 10.024
54.58000 6.897
54.60000 3.245
54.62000 4.808
54.64000 2.811
54.66000 2.295
54.68000 4.172
54.70000 4.255
54.72000 3.869
54.74000 4.950
54.76000 2.016
54.78000 2.936
54.80000 5.763
54.82000 6.173
54.84000 5.949
54.86000 7.704
54.88000 4.861
54.90000 2.384
54.92000 3.511
54.94000 3.520
54.96000 5.963
54.98000 4.236
55.00000 6.848
55.02000 10.837
55.04000 8.950
55.06000 4.598
55.08000 -2.427
55.10000 -1.597
55.12000 1.278
55.14000 1.265
55.16000 0.243
55.18000 4.574
55.20000 4.437
55.22000 3.208
55.24000 0.995
55.26000 1.839
55.28000 4.150
55.30000 3.755
55.32000 5.084
55.34000 6.542
55.36000 4.365
55.38000 3.818
55.40000 8.684
55.42000 7.026
55.44000 1.545
55.46000 4.745
55.48000 1.443
55.50000 3.633
55.52000 3.549
55.54000 5.672
55.56000 7.465
55.58000 6.470
55.60000 5.650
55.62000 4.432
55.64000 3.175
55.66000 2.397
55.68000 4.202
55.70000 1.595
55.72000 3.452
55.74000 0.133
55.76000 -0.873
55.78000 0.740
55.80000 0.869
55.82000 0.327
55.84000 1.347
55.86000 -0.012
55.88000 1.397
55.90000 -1.211
55.92000 3.252
55.94000 4.386
55.96000 8.834
55.98000 6.620
56.00000 1.496
56.02000 1.601
56.04000 1.886
56.06000 3.081
56.08000 5.295
56.10000 2.270
56.12000 1.430
56.14000 3.218
56.16000 1.553
56.18000 -0.311
56.20000 2.305
56.22000 -0.485
56.24000 0.515
56.26000 1.206
56.28000 0.023
56.30000 1.496
56.32000 0.898
56.34000 -1.466
56.36000 -2.463
56.38000 0.342
56.40000 1.968
56.42000 1.034
56.44000 0.764
56.46000 1.703
56.48000 -0.388
56.50000 0.344
56.52000 2.131
56.54000 6.177
56.56000 -0.025
56.58000 -0.228
56.60000 -2.405
56.62000 -1.880
56.64000 1.843
56.66000 5.964
56.68000 3.414
56.70000 4.087
56.72000 2.629
56.74000 3.116
56.76000 3.040
56.78000 1.885
56.80000 1.519
56.82000 0.119
56.84000 1.048
56.86000 3.571
56.88000 4.597
56.90000 5.306
56.92000 3.107
56.94000 2.212
56.96000 1.081
56.98000 2.562
57.00000 4.331
57.02000 2.939
57.04000 0.739
57.06000 0.324
57.08000 1.768
57.10000 1.828
57.12000 4.464
57.14000 1.284
57.16000 1.624
57.18000 0.946
57.20000 0.878
57.22000 2.676
57.24000 6.293
57.26000 4.259
57.28000 2.313
57.30000 0.469
57.32000 -2.138
57.34000 -2.423
57.36000 1.079
57.38000 3.495
57.40000 2.258
57.42000 1.010
57.44000 2.521
57.46000 3.871
57.48000 -0.003
57.50000 2.773
57.52000 2.802
57.54000 1.712
57.56000 1.594
57.58000 1.745
57.60000 1.738
57.62000 0.003
57.64000 4.000
57.66000 4.479
57.68000 4.667
57.70000 2.578
57.72000 -0.456
57.74000 0.080
57.76000 1.844
57.78000 -0.166
57.80000 0.739
57.82000 1.428
57.84000 2.484
57.86000 2.223
57.88000 0.342
57.90000 1.234
57.92000 -2.418
57.94000 -1.109
57.96000 3.568
57.98000 3.783
58.00000 1.236
58.02000 0.073
58.04000 0.488
58.06000 -0.870
58.08000 0.716
58.10000 1.472
58.12000 4.694
58.14000 5.468
58.16000 3.205
58.18000 1.811
58.20000 2.234
58.22000 5.097
58.24000 5.686
58.26000 2.223
58.28000 1.769
58.30000 2.257
58.32000 2.365
58.34000 0.238
58.36000 1.395
58.38000 1.808
58.40000 0.683
58.42000 -2.406
58.44000 1.586
58.46000 -0.194
58.48000 6.678
58.50000 2.979
58.52000 -0.094
58.54000 -0.278
58.56000 2.575
58.58000 1.391
58.60000 5.063
58.62000 5.813
58.64000 3.019
58.66000 5.789
58.68000 1.905
58.70000 -0.948
58.72000 0.920
58.74000 1.420
58.76000 3.661
58.78000 4.003
58.80000 5.300
58.82000 6.063
58.84000 2.741
58.86000 0.787
58.88000 -0.028
58.90000 3.384
58.92000 3.531
58.94000 1.837
58.96000 2.843
58.98000 5.007
59.00000 1.169
59.02000 -0.050
59.04000 -0.873
59.06000 3.299
59.08000 1.426
59.10000 0.303
59.12000 -1.775
59.14000 3.248
59.16000 3.182
59.18000 1.196
59.20000 0.380
59.22000 2.894
59.24000 2.919
59.26000 2.771
59.28000 3.023
59.30000 2.293
59.32000 0.327
59.34000 -0.180
59.36000 -2.349
59.38000 -1.528
59.40000 -0.520
59.42000 2.833
59.44000 5.713
59.46000 3.967
59.48000 0.530
59.50000 0.460
59.52000 4.320
59.54000 4.771
59.56000 3.225
59.58000 3.423
59.60000 5.899
59.62000 4.702
59.64000 2.366
59.66000 4.027
59.68000 0.625
59.70000 -1.730
59.72000 -0.569
59.74000 1.462
59.76000 1.952
59.78000 4.011
59.80000 1.443
59.82000 -0.175
59.84000 2.347
59.86000 3.032
59.88000 2.792
59.90000 0.209
59.92000 4.043
59.94000 4.116
59.96000 4.445
59.98000 6.119
60.00000 8.767
60.02000 4.802
60.04000 3.218
60.06000 4.443
60.08000 4.443
60.10000 3.684
60.12000 2.324
60.14000 1.583
60.16000 1.524
60.18000 2.027
60.20000 1.199
60.22000 -2.318
60.24000 3.885
60.26000 5.885
60.28000 5.733
60.30000 2.041
60.32000 3.238
60.34000 1.726
60.36000 -0.793
60.38000 1.992
60.40000 5.004
60.42000 5.014
60.44000 3.437
60.46000 2.030
60.48000 0.294
60.50000 2.057
60.52000 4.139
60.54000 3.405
60.56000 5.278
60.58000 3.088
60.60000 -2.317
60.62000 -0.208
60.64000 3.775
60.66000 1.438
60.68000 5.707
60.70000 3.883
60.72000 1.848
60.74000 -0.118
60.76000 2.580
60.78000 3.491
60.80000 3.681
60.82000 5.937
60.84000 6.153
60.86000 4.032
60.88000 4.049
60.90000 4.815
60.92000 0.512
60.94000 0.199
60.96000 -0.469
60.98000 1.930
61.00000 1.584
61.02000 2.427
61.04000 0.559
61.06000 -2.321
61.08000 1.493
61.10000 0.806
61.12000 3.875
61.14000 1.443
61.16000 -0.699
61.18000 1.027
61.20000 1.264
61.22000 1.447
61.24000 0.101
61.26000 0.656
61.28000 1.366
61.30000 2.695
61.32000 0.925
61.34000 -0.778
61.36000 -0.472
61.38000 -0.853
61.40000 0.317
61.42000 0.046
61.44000 0.193
61.46000 -0.921
61.48000 -1.478
61.50000 -2.322
61.52000 -0.309
61.54000 0.951
61.56000 0.702
61.58000 1.434
61.60000 -1.699
61.62000 0.700
61.64000 0.562
61.66000 -1.175
61.68000 -1.498
61.70000 2.196
61.72000 2.477
61.74000 1.878
61.76000 2.032
61.78000 5.857
61.80000 3.632
61.82000 1.833
61.84000 2.283
61.86000 1.114
61.88000 0.425
61.90000 -0.041
61.92000 1.560
61.94000 -0.162
61.96000 1.763
61.98000 1.458
62.00000 1.813
62.02000 2.227
62.04000 4.996
62.06000 3.698
62.08000 -1.099
62.10000 -2.313
62.12000 -0.007
62.14000 3.029
62.16000 1.043
62.18000 2.325
62.20000 2.047
62.22000 0.645
62.24000 1.971
62.26000 4.453
62.28000 3.631
62.30000 -1.306
62.32000 2.171
62.34000 3.103
62.36000 2.331
62.38000 1.863
62.40000 3.223
62.42000 1.088
62.44000 -1.955
62.46000 -1.448
62.48000 -0.607
62.50000 0.414
62.52000 -0.584
62.54000 1.172
62.56000 -2.299
62.58000 3.958
62.60000 1.613
62.62000 -0.053
62.64000 -0.249
62.66000 1.565
62.68000 1.751
62.70000 -0.441
62.72000 -1.655
62.74000 1.295
62.76000 4.551
62.78000 0.160
62.80000 4.217
62.82000 4.799
62.84000 2.590
62.86000 2.425
62.88000 0.914
62.90000 1.938
62.92000 1.944
62.94000 0.248
62.96000 0.894
62.98000 2.111
63.00000 2.203
63.02000 0.392
63.04000 -2.280
63.06000 1.734
63.08000 1.587
63.10000 -0.307
63.12000 1.863
63.14000 0.872
63.16000 -0.221
63.18000 1.535
63.20000 0.022
63.22000 0.302
63.24000 3.500
63.26000 3.337
63.28000 0.512
63.30000 -0.235
63.32000 1.366
63.34000 1.952
63.36000 0.153
63.38000 4.400
63.40000 3.617
63.42000 3.692
63.44000 1.945
63.46000 3.179
63.48000 2.259
63.50000 0.644
63.52000 0.427
63.54000 -1.385
63.56000 0.624
63.58000 0.181
63.60000 2.896
63.62000 2.698
63.64000 4.986
63.66000 0.896
63.68000 -0.869
63.70000 1.917
63.72000 0.948
63.74000 2.900
63.76000 3.283
63.78000 0.303
63.80000 0.057
63.82000 -2.032
63.84000 0.152
63.86000 3.904
63.88000 5.781
63.90000 3.041
63.92000 0.121
63.94000 -0.939
63.96000 1.044
63.98000 2.208
64.00000 1.184
64.02000 2.873
64.04000 3.276
64.06000 1.496
64.08000 -2.284
64.10000 -1.245
64.12000 1.679
64.14000 3.994
64.16000 1.863
64.18000 2.947
64.20000 3.592
64.22000 5.731
64.24000 2.479
64.26000 1.588
64.28000 4.366
64.30000 2.180
64.32000 2.773
64.34000 1.570
64.36000 -1.313
64.38000 -1.698
64.40000 -1.119
64.42000 3.955
64.44000 2.908
64.46000 0.812
64.48000 1.284
64.50000 -0.112
64.52000 -1.247
64.54000 -0.117
64.56000 4.108
64.58000 5.315
64.60000 5.119
64.62000 2.286
64.64000 0.140
64.66000 -0.865
64.68000 1.805
64.70000 4.107
64.72000 5.040
64.74000 3.590
64.76000 3.808
64.78000 3.106
64.80000 5.451
64.82000 4.031
64.84000 1.871
64.86000 3.874
64.88000 4.200
64.90000 3.787
64.92000 2.979
64.94000 1.910
64.96000 0.166
64.98000 2.423
65.00000 0.579
65.02000 0.822
65.04000 1.434
65.06000 -0.905
65.08000 -1.107
65.10000 1.023
65.12000 3.011
65.14000 2.241
65.16000 -2.272
65.18000 1.906
65.20000 3.151
65.22000 1.538
65.24000 0.887
65.26000 4.695
65.28000 3.545
65.30000 3.092
65.32000 2.286
65.34000 2.081
65.36000 1.367
65.38000 -1.370
65.40000 1.311
65.42000 7.389
65.44000 7.281
65.46000 3.648
65.48000 3.268
65.50000 2.010
65.52000 2.012
65.54000 2.542
65.56000 1.634
65.58000 0.330
65.60000 2.361
65.62000 2.785
65.64000 1.079
65.66000 2.847
65.68000 5.786
65.70000 3.125
65.72000 4.415
65.74000 5.501
65.76000 5.381
65.78000 4.387
65.80000 1.909
65.82000 5.448
65.84000 3.600
65.86000 3.603
65.88000 6.454
65.90000 1.839
65.92000 -1.262
65.94000 -2.259
65.96000 -1.518
65.98000 1.756
66.00000 -0.601
66.02000 1.472
66.04000 6.428
66.06000 4.933
66.08000 2.832
66.10000 3.121
66.12000 5.781
66.14000 6.262
66.16000 5.043
66.18000 0.635
66.20000 -1.443
66.22000 1.257
66.24000 4.379
66.26000 3.125
66.28000 3.121
66.30000 7.406
66.32000 5.676
66.34000 1.253
66.36000 3.426
66.38000 2.643
66.40000 2.981
66.42000 2.087
66.44000 3.713
66.46000 0.883
66.48000 -0.297
66.50000 0.611
66.52000 1.499
66.54000 -0.498
66.56000 2.298
66.58000 1.098
66.60000 -2.297
66.62000 2.788
66.64000 1.727
66.66000 1.488
66.68000 1.838
66.70000 1.738
66.72000 1.330
66.74000 2.283
66.76000 0.148
66.78000 -0.281
66.80000 -0.393
66.82000 1.160
66.84000 -0.168
66.86000 0.819
66.88000 0.401
66.90000 0.323
66.92000 0.855
66.94000 0.654
66.96000 3.623
66.98000 0.623
67.00000 -2.322
67.02000 -0.476
67.04000 0.879
67.06000 0.991
67.08000 2.953
67.10000 4.311
67.12000 2.704
67.14000 1.382
67.16000 2.234
67.18000 1.428
67.20000 0.025
67.22000 3.455
67.24000 0.763
67.26000 0.624
67.28000 0.119
67.30000 1.630
67.32000 4.222
67.34000 2.141
67.36000 1.344
67.38000 -0.220
67.40000 2.065
67.42000 3.064
67.44000 0.963
67.46000 -0.257
67.48000 -1.255
67.50000 1.607
67.52000 0.180
67.54000 2.424
67.56000 0.184
67.58000 0.789
67.60000 0.321
67.62000 1.890
67.64000 1.793
67.66000 6.252
67.68000 3.082
67.70000 2.604
67.72000 7.349
67.74000 8.529
67.76000 5.247
67.78000 4.647
67.80000 6.216
67.82000 5.207
67.84000 1.578
67.86000 3.252
67.88000 4.830
67.90000 5.883
67.92000 3.349
67.94000 5.698
67.96000 6.404
67.98000 7.475
68.00000 5.650
68.02000 9.700
68.04000 12.739
68.06000 13.433
68.08000 10.307
68.10000 11.019
68.12000 11.313
68.14000 12.737
68.16000 14.061
68.18000 13.249
68.20000 13.759
68.22000 16.482
68.24000 17.690
68.26000 18.215
68.28000 20.426
68.30000 22.553
68.32000 22.545
68.34000 21.191
68.36000 24.852
68.38000 22.843
68.40000 24.941
68.42000 27.172
68.44000 25.689
68.46000 26.459
68.48000 29.675
68.50000 28.654
68.52000 28.602
68.54000 30.955
68.56000 33.683
68.58000 31.842
68.60000 30.710
68.62000 33.726
68.64000 35.142
68.66000 39.479
68.68000 40.067
68.70000 38.192
68.72000 33.972
68.74000 35.354
68.76000 37.642
68.78000 37.583
68.80000 38.878
68.82000 37.831
68.84000 39.064
68.86000 41.740
68.88000 35.959
68.90000 34.189
68.92000 35.037
68.94000 34.080
68.96000 33.077
68.98000 33.213
69.00000 30.264
69.02000 32.342
69.04000 32.964
69.06000 29.815
69.08000 26.202
69.10000 28.463
69.12000 27.107
69.14000 27.537
69.16000 24.916
69.18000 24.113
69.20000 24.356
69.22000 25.856
69.24000 23.013
69.26000 20.444
69.28000 19.569
69.30000 17.940
69.32000 18.007
69.34000 17.577
69.36000 16.466
69.38000 13.505
69.40000 15.214
69.42000 16.461
69.44000 14.482
69.46000 12.843
69.48000 10.594
69.50000 9.028
69.52000 7.961
69.54000 11.635
69.56000 10.409
69.58000 8.982
69.60000 7.804
69.62000 5.252
69.64000 8.652
69.66000 9.089
69.68000 7.677
69.70000 7.623
69.72000 6.455
69.74000 4.498
69.76000 3.697
69.78000 1.828
69.80000 2.864
69.82000 4.986
69.84000 2.881
69.86000 0.612
69.88000 3.446
69.90000 1.788
69.92000 -0.809
69.94000 1.453
69.96000 5.797
69.98000 5.194
70.00000 1.938
70.02000 0.105
70.04000 0.131
70.06000 -1.738
70.08000 0.210
70.10000 2.890
70.12000 2.779
70.14000 4.422
70.16000 5.522
70.18000 4.176
70.20000 3.583
70.22000 6.138
70.24000 7.860
70.26000 2.715
70.28000 -2.293
70.30000 -1.863
70.32000 -0.784
70.34000 0.040
70.36000 0.047
70.38000 0.185
70.40000 -0.218
70.42000 -0.389
70.44000 4.854
70.46000 4.464
70.48000 -1.129
70.50000 2.767
70.52000 5.636
70.54000 1.877
70.56000 0.229
70.58000 0.219
70.60000 2.288
70.62000 1.284
70.64000 1.763
70.66000 2.344
70.68000 2.766
70.70000 5.029
70.72000 4.009
70.74000 4.061
70.76000 5.405
70.78000 1.298
70.80000 0.627
70.82000 2.477
70.84000 2.557
70.86000 4.433
70.88000 4.254
70.90000 1.361
70.92000 0.042
70.94000 0.143
70.96000 -0.931
70.98000 0.314
71.00000 -1.057
71.02000 -2.214
71.04000 -0.658
71.06000 1.348
71.08000 -1.307
71.10000 -0.005
71.12000 0.284
71.14000 2.170
71.16000 4.943
71.18000 3.732
71.20000 0.084
71.22000 0.085
71.24000 -0.065
71.26000 1.292
71.28000 2.226
71.30000 0.708
71.32000 0.022
71.34000 1.323
71.36000 2.923
71.38000 -0.620
71.40000 -2.177
71.42000 -0.684
71.44000 1.969
71.46000 1.797
71.48000 2.942
71.50000 1.695
71.52000 0.430
71.54000 -0.639
71.56000 1.212
71.58000 2.073
71.60000 1.566
71.62000 2.357
71.64000 4.552
71.66000 3.863
71.68000 3.412
71.70000 1.924
71.72000 0.095
71.74000 3.326
71.76000 7.283
71.78000 4.715
71.80000 -1.334
71.82000 -1.551
71.84000 1.889
71.86000 3.413
71.88000 2.010
71.90000 0.152
71.92000 1.828
71.94000 2.841
71.96000 1.719
71.98000 0.816
72.00000 -1.264
72.02000 -1.769
72.04000 3.669
72.06000 4.316
72.08000 1.765
72.10000 -0.120
72.12000 0.500
72.14000 1.311
72.16000 2.356
72.18000 2.318
72.20000 4.339
72.22000 3.805
72.24000 1.873
72.26000 0.235
72.28000 0.338
72.30000 1.107
72.32000 2.028
72.34000 -1.895
72.36000 1.827
72.38000 3.314
72.40000 1.170
72.42000 3.483
72.44000 2.251
72.46000 2.726
72.48000 5.791
72.50000 6.898
72.52000 -1.557
72.54000 -1.149
72.56000 4.661
72.58000 6.323
72.60000 1.207
72.62000 2.612
72.64000 1.168
72.66000 0.532
72.68000 -1.000
72.70000 -0.766
72.72000 -2.129
72.74000 -0.367
72.76000 1.960
72.78000 2.402
72.80000 4.988
72.82000 -0.986
72.84000 -0.924
72.86000 4.964
72.88000 6.591
72.90000 -0.733
72.92000 -0.970
72.94000 4.904
72.96000 4.268
72.98000 3.929
73.00000 1.023
73.02000 0.143
73.04000 0.888
73.06000 2.851
73.08000 4.426
73.10000 1.402
73.12000 3.145
73.14000 4.042
73.16000 6.758
73.18000 5.517
73.20000 3.951
73.22000 3.421
73.24000 1.356
73.26000 4.085
73.28000 -0.768
73.30000 0.823
73.32000 -0.145
73.34000 2.700
73.36000 3.161
73.38000 4.344
73.40000 3.317
73.42000 2.884
73.44000 -1.299
73.46000 -1.210
73.48000 0.327
73.50000 0.569
73.52000 4.209
73.54000 4.212
73.56000 0.762
73.58000 2.935
73.60000 1.461
73.62000 0.287
73.64000 0.569
73.66000 0.629
73.68000 -1.881
73.70000 -2.123
73.72000 0.796
73.74000 -0.135
73.76000 -0.759
73.78000 2.750
73.80000 1.892
73.82000 1.583
73.84000 0.397
73.86000 -0.560
73.88000 -1.783
73.90000 2.837
73.92000 1.447
73.94000 -0.189
73.96000 -1.660
73.98000 -0.248
74.00000 3.497
74.02000 3.273
74.04000 1.079
74.06000 2.835
74.08000 2.524
74.10000 2.164
74.12000 -0.387
74.14000 0.969
74.16000 3.434
74.18000 -0.085
74.20000 0.617
74.22000 3.262
74.24000 -0.275
74.26000 1.652
74.28000 0.315
74.30000 0.657
74.32000 0.304
74.34000 0.204
74.36000 1.104
74.38000 -0.273
74.40000 0.717
74.42000 0.316
74.44000 -0.672
74.46000 0.124
74.48000 -2.139
74.50000 -0.506
74.52000 -0.058
74.54000 2.763
74.56000 2.790
74.58000 2.092
74.60000 2.009
74.62000 2.638
74.64000 5.696
74.66000 3.255
74.68000 3.186
74.70000 1.313
74.72000 2.231
74.74000 1.845
74.76000 -0.794
74.78000 -2.135
74.80000 -2.107
74.82000 1.117
74.84000 3.701
74.86000 1.906
74.88000 0.239
74.90000 2.217
74.92000 2.582
74.94000 4.028
74.96000 0.189
74.98000 -1.332
75.00000 0.784
75.02000 0.627
75.04000 0.810
75.06000 1.609
75.08000 0.204
75.10000 -1.636
75.12000 -2.127
75.14000 1.898
75.16000 4.859
75.18000 2.329
75.20000 -0.261
75.22000 1.581
75.24000 2.207
75.26000 1.145
75.28000 2.463
75.30000 4.180
75.32000 0.691
75.34000 -0.723
75.36000 0.322
75.38000 1.519
75.40000 1.308
75.42000 -2.013
75.44000 -2.113
75.46000 1.990
75.48000 0.517
75.50000 1.716
75.52000 -0.722
75.54000 1.131
75.56000 3.067
75.58000 3.685
75.60000 1.096
75.62000 -2.115
75.64000 0.307
75.66000 2.227
75.68000 2.989
75.70000 2.279
75.72000 3.771
75.74000 -0.917
75.76000 1.298
75.78000 2.260
75.80000 3.653
75.82000 5.199
75.84000 5.213
75.86000 2.495
75.88000 0.302
75.90000 0.499
75.92000 2.281
75.94000 4.535
75.96000 4.867
75.98000 3.210
76.00000 0.993
76.02000 2.234
76.04000 2.778
76.06000 5.289
76.08000 6.256
76.10000 1.368
76.12000 -2.087
76.14000 0.532
76.16000 -0.686
76.18000 0.356
76.20000 2.999
76.22000 1.969
76.24000 4.131
76.26000 2.900
76.28000 2.729
76.30000 2.560
76.32000 0.945
76.34000 -0.209
76.36000 -0.750
76.38000 -1.043
76.40000 -0.888
76.42000 -0.069
76.44000 0.939
76.46000 0.798
76.48000 3.501
76.50000 -0.999
76.52000 -1.251
76.54000 2.445
76.56000 3.853
76.58000 2.432
76.60000 4.565
76.62000 2.236
76.64000 1.916
76.66000 2.101
76.68000 2.896
76.70000 0.375
76.72000 0.211
76.74000 0.994
76.76000 2.496
76.78000 2.826
76.80000 2.715
76.82000 1.940
76.84000 1.714
76.86000 2.648
76.88000 0.061
76.90000 2.096
76.92000 3.997
76.94000 4.511
76.96000 1.701
76.98000 -0.077
77.00000 0.850
77.02000 5.019
77.04000 6.124
77.06000 3.862
77.08000 4.833
77.10000 4.287
77.12000 1.126
77.14000 1.857
77.16000 1.969
77.18000 1.447
77.20000 3.022
77.22000 3.955
77.24000 4.068
77.26000 4.622
77.28000 2.689
77.30000 2.627
77.32000 2.484
77.34000 2.864
77.36000 3.184
77.38000 0.908
77.40000 -0.186
77.42000 -1.841
77.44000 -2.108
77.46000 1.229
77.48000 6.848
77.50000 5.078
77.52000 5.531
77.54000 4.152
77.56000 0.187
77.58000 2.709
77.60000 4.379
77.62000 1.895
77.64000 3.279
77.66000 3.404
77.68000 1.426
77.70000 4.544
77.72000 1.565
77.74000 5.500
77.76000 2.687
77.78000 4.021
77.80000 4.416
77.82000 -2.100
77.84000 3.584
77.86000 3.283
77.88000 1.213
77.90000 5.959
77.92000 6.233
77.94000 3.522
77.96000 4.582
77.98000 3.549
78.00000 2.653
78.02000 4.357
78.04000 7.861
78.06000 4.756
78.08000 4.567
78.10000 3.024
78.12000 3.724
78.14000 5.933
78.16000 3.016
78.18000 2.926
78.20000 5.494
78.22000 6.744
78.24000 7.213
78.26000 9.395
78.28000 4.429
78.30000 5.502
78.32000 0.926
78.34000 2.675
78.36000 0.560
78.38000 0.144
78.40000 6.340
78.42000 6.208
78.44000 5.130
78.46000 1.035
78.48000 2.816
78.50000 0.572
78.52000 0.500
78.54000 -1.967
78.56000 -1.424
78.58000 1.242
78.60000 -0.333
78.62000 0.809
78.64000 0.119
78.66000 3.499
78.68000 5.388
78.70000 -0.725
78.72000 1.065
78.74000 1.130
78.76000 0.174
78.78000 -0.009
78.80000 1.803
78.82000 3.026
78.84000 2.004
78.86000 1.162
78.88000 1.289
78.90000 3.161
78.92000 4.325
78.94000 3.057
78.96000 2.072
78.98000 1.755
79.00000 -0.186
79.02000 2.042
79.04000 1.832
79.06000 2.159
79.08000 1.964
79.10000 -0.891
79.12000 1.098
79.14000 1.302
79.16000 2.267
79.18000 3.076
79.20000 0.841
79.22000 -2.173
79.24000 -0.012
79.26000 1.178
79.28000 1.745
79.30000 0.842
79.32000 3.886
79.34000 4.630
79.36000 -0.431
79.38000 0.581
79.40000 1.992
79.42000 1.700
79.44000 3.743
79.46000 7.642
79.48000 4.619
79.50000 3.640
79.52000 2.957
79.54000 -0.344
79.56000 2.157
79.58000 1.549
79.60000 1.776
79.62000 1.275
79.64000 0.421
79.66000 3.530
79.68000 4.460
79.70000 3.310
79.72000 1.671
79.74000 0.975
79.76000 3.184
79.78000 9.044
79.80000 3.294
79.82000 1.543
79.84000 -0.796
79.86000 -2.157
79.88000 0.014
79.90000 2.967
79.92000 3.528
79.94000 4.592
79.96000 2.193
79.98000 1.819
80.00000 2.126
80.02000 3.202
80.04000 6.010
80.06000 2.275
80.08000 2.580
80.10000 4.845
80.12000 -0.220
80.14000 2.534
80.16000 4.761
80.18000 2.514
80.20000 0.257
80.22000 1.825
80.24000 3.593
80.26000 3.427
80.28000 1.506
80.30000 2.020
80.32000 2.868
80.34000 2.547
80.36000 4.272
80.38000 2.372
80.40000 -0.318
80.42000 -1.573
80.44000 -1.968
80.46000 -0.825
80.48000 1.532
80.50000 3.274
80.52000 4.387
80.54000 3.068
80.56000 0.830
80.58000 -1.837
80.60000 -0.473
80.62000 2.905
80.64000 0.914
80.66000 2.980
80.68000 2.499
80.70000 -1.617
80.72000 0.813
80.74000 4.288
80.76000 2.490
80.78000 0.838
80.80000 1.655
80.82000 -1.164
80.84000 -0.737
80.86000 2.006
80.88000 -0.652
80.90000 -0.563
80.92000 -0.931
80.94000 0.150
80.96000 1.879
80.98000 -0.185
81.00000 2.311
81.02000 -0.574
81.04000 -0.808
81.06000 -2.286
81.08000 0.034
81.10000 -0.296
81.12000 -0.842
81.14000 -2.299
81.16000 1.073
81.18000 3.020
81.20000 4.543
81.22000 2.583
81.24000 -0.229
81.26000 1.974
81.28000 0.297
81.30000 -0.801
81.32000 1.350
81.34000 1.381
81.36000 -1.685
81.38000 -1.021
81.40000 0.226
81.42000 -0.519
81.44000 -0.930
81.46000 0.133
81.48000 2.059
81.50000 2.792
81.52000 4.209
81.54000 4.141
81.56000 5.927
81.58000 8.171
81.60000 5.678
81.62000 5.144
81.64000 6.370
81.66000 3.709
81.68000 2.406
81.70000 7.644
81.72000 5.905
81.74000 4.453
81.76000 4.015
81.78000 5.700
81.80000 6.117
81.82000 5.614
81.84000 7.126
81.86000 4.462
81.88000 3.369
81.90000 5.754
81.92000 7.512
81.94000 3.872
81.96000 3.633
81.98000 5.775
82.00000 7.681
82.02000 9.155
82.04000 8.987
82.06000 10.898
82.08000 13.533
82.10000 17.853
82.12000 16.242
82.14000 10.397
82.16000 6.857
82.18000 13.623
82.20000 19.345
82.22000 18.521
82.24000 21.208
82.26000 18.860
82.28000 20.772
82.30000 21.139
82.32000 21.236
82.34000 21.254
82.36000 21.172
82.38000 21.576
82.40000 21.237
82.42000 22.957
82.44000 25.139
82.46000 26.543
82.48000 25.838
82.50000 22.767
82.52000 28.927
82.54000 31.241
82.56000 32.641
82.58000 40.543
82.60000 39.092
82.62000 37.879
82.64000 44.464
82.66000 43.769
82.68000 39.034
82.70000 46.723
82.72000 45.513
82.74000 40.780
82.76000 46.518
82.78000 50.382
82.80000 49.608
82.82000 48.631
82.84000 51.602
82.86000 53.206
82.88000 51.576
82.90000 55.324
82.92000 51.422
82.94000 50.426
82.96000 55.515
82.98000 56.480
83.00000 54.743
83.02000 54.530
83.04000 56.168
83.06000 53.423
83.08000 50.750
83.10000 49.222
83.12000 53.693
83.14000 52.467
83.16000 54.610
83.18000 55.877
83.20000 55.901
83.22000 52.401
83.24000 49.341
83.26000 48.803
83.28000 46.602
83.30000 43.967
83.32000 44.556
83.34000 41.900
83.36000 42.977
83.38000 41.571
83.40000 38.725
83.42000 37.744
83.44000 34.948
83.46000 37.580
83.48000 36.170
83.50000 35.023
83.52000 39.101
83.54000 38.189
83.56000 30.455
83.58000 27.946
83.60000 23.727
83.62000 29.314
83.64000 30.198
83.66000 25.477
83.68000 23.362
83.70000 21.623
83.72000 22.967
83.74000 22.695
83.76000 22.840
83.78000 24.931
83.80000 18.515
83.82000 13.695
83.84000 15.162
83.86000 18.360
83.88000 18.422
83.90000 14.313
83.92000 16.347
83.94000 15.933
83.96000 17.239
83.98000 11.559
84.00000 7.827
84.02000 8.009
84.04000 8.053
84.06000 8.111
84.08000 8.662
84.10000 12.334
84.12000 12.542
84.14000 9.724
84.16000 8.163
84.18000 10.136
84.20000 10.219
84.22000 5.098
84.24000 4.106
84.26000 4.449
84.28000 7.663
84.30000 3.799
84.32000 5.837
84.34000 6.296
84.36000 3.887
84.38000 -1.176
84.40000 -1.998
84.42000 2.167
84.44000 3.935
84.46000 2.997
84.48000 1.713
84.50000 3.084
84.52000 5.319
84.54000 4.720
84.56000 4.662
84.58000 4.218
84.60000 6.640
84.62000 5.504
84.64000 7.437
84.66000 3.193
84.68000 -0.471
84.70000 -0.528
84.72000 1.450
84.74000 2.785
84.76000 1.197
84.78000 -2.301
84.80000 -0.169
84.82000 0.792
84.84000 0.295
84.86000 -0.347
84.88000 2.499
84.90000 3.541
84.92000 3.749
84.94000 0.440
84.96000 -1.127
84.98000 0.741
85.00000 1.549
85.02000 3.461
85.04000 5.311
85.06000 3.863
85.08000 3.086
85.10000 3.155
85.12000 -1.071
85.14000 -0.684
85.16000 0.528
85.18000 -2.034
85.20000 0.215
85.22000 0.823
85.24000 0.772
85.26000 1.511
85.28000 -0.261
85.30000 -2.248
85.32000 3.411
85.34000 -0.162
85.36000 -0.102
85.38000 1.307
85.40000 3.579
85.42000 6.483
85.44000 4.795
85.46000 1.400
85.48000 2.731
85.50000 1.474
85.52000 2.382
85.54000 0.629
85.56000 3.584
85.58000 5.825
85.60000 1.856
85.62000 3.796
85.64000 1.498
85.66000 1.805
85.68000 1.065
85.70000 0.722
85.72000 2.541
85.74000 -2.022
85.76000 -2.182
85.78000 -0.296
85.80000 0.830
85.82000 -1.558
85.84000 3.020
85.86000 6.041
85.88000 6.259
85.90000 3.372
85.92000 1.462
85.94000 1.805
85.96000 4.439
85.98000 4.927
86.00000 4.834
86.02000 0.686
86.04000 -0.272
86.06000 -1.293
86.08000 3.119
86.10000 0.730
86.12000 1.924
86.14000 2.906
86.16000 6.561
86.18000 5.979
86.20000 5.377
86.22000 4.736
86.24000 5.612
86.26000 1.643
86.28000 0.875
86.30000 2.997
86.32000 -0.002
86.34000 0.717
86.36000 3.861
86.38000 4.001
86.40000 2.661
86.42000 5.965
86.44000 6.127
86.46000 2.729
86.48000 1.710
86.50000 3.491
86.52000 6.947
86.54000 8.387
86.56000 3.008
86.58000 6.046
86.60000 6.878
86.62000 5.039
86.64000 7.752
86.66000 9.926
86.68000 9.688
86.70000 8.552
86.72000 7.137
86.74000 8.157
86.76000 8.821
86.78000 7.980
86.80000 9.395
86.82000 12.378
86.84000 11.959
86.86000 15.270
86.88000 18.287
86.90000 16.462
86.92000 12.584
86.94000 18.966
86.96000 20.237
86.98000 19.984
87.00000 17.695
87.02000 16.328
87.04000 20.569
87.06000 16.174
87.08000 19.319
87.10000 23.142
87.12000 22.028
87.14000 21.312
87.16000 20.790
87.18000 23.798
87.20000 22.761
87.22000 25.259
87.24000 26.063
87.26000 25.330
87.28000 31.071
87.30000 25.695
87.32000 28.090
87.34000 28.819
87.36000 27.191
87.38000 30.689
87.40000 29.119
87.42000 22.831
87.44000 26.201
87.46000 30.706
87.48000 31.119
87.50000 30.609
87.52000 33.343
87.54000 35.152
87.56000 29.598
87.58000 30.928
87.60000 33.319
87.62000 24.839
87.64000 23.289
87.66000 25.262
87.68000 31.210
87.70000 32.429
87.72000 30.617
87.74000 26.416
87.76000 22.858
87.78000 22.779
87.80000 26.308
87.82000 26.231
87.84000 23.580
87.86000 18.927
87.88000 19.930
87.90000 16.016
87.92000 12.224
87.94000 18.097
87.96000 17.363
87.98000 14.224
88.00000 13.345
88.02000 12.822
88.04000 16.237
88.06000 15.264
88.08000 14.318
88.10000 10.298
88.12000 7.314
88.14000 6.890
88.16000 12.168
88.18000 13.470
88.20000 12.684
88.22000 11.509
88.24000 12.728
88.26000 10.851
88.28000 10.135
88.30000 7.480
88.32000 6.414
88.34000 4.912
88.36000 2.606
88.38000 3.042
88.40000 7.045
88.42000 7.485
88.44000 9.290
88.46000 6.668
88.48000 6.362
88.50000 7.201
88.52000 6.115
88.54000 3.268
88.56000 4.943
88.58000 9.614
88.60000 2.630
88.62000 2.921
88.64000 0.983
88.66000 1.583
88.68000 0.918
88.70000 1.917
88.72000 -0.832
88.74000 1.784
88.76000 4.104
88.78000 2.603
88.80000 -1.523
88.82000 2.203
88.84000 2.961
88.86000 0.982
88.88000 5.587
88.90000 6.736
88.92000 1.417
88.94000 -0.041
88.96000 -1.293
88.98000 0.633
89.00000 -0.653
89.02000 -0.905
89.04000 1.122
89.06000 2.466
89.08000 3.477
89.10000 3.017
89.12000 1.615
89.14000 3.684
89.16000 0.943
89.18000 -2.107
89.20000 -1.683
89.22000 0.848
89.24000 1.494
89.26000 -0.896
89.28000 0.985
89.30000 4.036
89.32000 0.482
89.34000 -1.056
89.36000 2.838
89.38000 -0.513
89.40000 3.155
89.42000 4.062
89.44000 3.501
89.46000 -0.228
89.48000 1.562
89.50000 2.282
89.52000 2.756
89.54000 2.991
89.56000 4.944
89.58000 4.502
89.60000 0.725
89.62000 0.545
89.64000 3.246
89.66000 3.622
89.68000 -0.188
89.70000 -0.908
89.72000 1.870
89.74000 2.035
89.76000 0.677
89.78000 1.437
89.80000 3.907
89.82000 2.071
89.84000 0.945
89.86000 3.055
89.88000 5.842
89.90000 8.398
89.92000 2.702
89.94000 1.931
89.96000 2.383
89.98000 1.623
90.00000 3.559
90.02000 2.523
90.04000 -2.022
90.06000 0.849
90.08000 2.320
90.10000 4.057
90.12000 6.606
90.14000 1.550
90.16000 0.496
90.18000 2.877
90.20000 6.078
90.22000 4.222
90.24000 4.119
90.26000 4.044
90.28000 4.162
90.30000 2.621
90.32000 -0.383
90.34000 -1.980
90.36000 1.214
90.38000 3.673
90.40000 8.005
90.42000 7.195
90.44000 8.381
90.46000 7.334
90.48000 3.153
90.50000 3.172
90.52000 4.586
90.54000 4.162
90.56000 -1.973
90.58000 -0.008
90.60000 1.724
90.62000 -0.433
90.64000 -0.863
90.66000 6.245
90.68000 8.387
90.70000 5.555
90.72000 6.480
90.74000 4.378
90.76000 2.399
90.78000 4.332
90.80000 7.031
90.82000 4.451
90.84000 4.749
90.86000 3.267
90.88000 2.813
90.90000 1.333
90.92000 3.409
90.94000 1.377
90.96000 0.134
90.98000 3.209
91.00000 5.225
91.02000 4.110
91.04000 3.184
91.06000 3.609
91.08000 3.789
91.10000 3.420
91.12000 2.926
91.14000 4.545
91.16000 6.552
91.18000 7.135
91.20000 3.197
91.22000 1.354
91.24000 6.172
91.26000 3.395
91.28000 0.383
91.30000 -0.021
91.32000 2.786
91.34000 4.106
91.36000 -0.293
91.38000 -0.165
91.40000 1.129
91.42000 1.003
91.44000 0.680
91.46000 1.502
91.48000 0.483
91.50000 0.971
91.52000 1.152
91.54000 -1.042
91.56000 2.043
91.58000 -0.233
91.60000 3.854
91.62000 6.122
91.64000 4.559
91.66000 3.250
91.68000 0.849
91.70000 -2.032
91.72000 0.143
91.74000 2.192
91.76000 2.760
91.78000 0.516
91.80000 4.764
91.82000 1.757
91.84000 -0.170
91.86000 -0.066
91.88000 1.751
91.90000 0.966
91.92000 5.660
91.94000 6.681
91.96000 3.742
91.98000 -0.753
92.00000 0.466
92.02000 1.914
92.04000 -0.495
92.06000 4.062
92.08000 3.197
92.10000 1.847
92.12000 2.071
92.14000 3.725
92.16000 5.150
92.18000 4.259
92.20000 6.095
92.22000 7.385
92.24000 4.513
92.26000 6.618
92.28000 5.443
92.30000 0.547
92.32000 1.061
92.34000 1.651
92.36000 -0.751
92.38000 4.155
92.40000 8.024
92.42000 5.861
92.44000 0.389
92.46000 -2.009
92.48000 -1.177
92.50000 -0.907
92.52000 0.606
92.54000 -0.077
92.56000 5.248
92.58000 6.465
92.60000 3.334
92.62000 -0.741
92.64000 -0.729
92.66000 0.045
92.68000 -1.079
92.70000 0.960
92.72000 4.144
92.74000 4.243
92.76000 8.021
92.78000 3.939
92.80000 2.550
92.82000 4.099
92.84000 2.695
92.86000 5.935
92.88000 6.451
92.90000 2.178
92.92000 -0.545
92.94000 -0.012
92.96000 2.300
92.98000 1.427
93.00000 -2.008
93.02000 4.524
93.04000 4.636
93.06000 1.619
93.08000 6.725
93.10000 7.528
93.12000 5.829
93.14000 3.780
93.16000 3.570
93.18000 2.482
93.20000 2.717
93.22000 1.784
93.24000 1.743
93.26000 4.962
93.28000 7.131
93.30000 3.429
93.32000 4.295
93.34000 0.482
93.36000 2.448
93.38000 4.090
93.40000 0.478
93.42000 3.358
93.44000 1.602
93.46000 0.708
93.48000 3.309
93.50000 3.945
93.52000 5.075
93.54000 2.219
93.56000 3.040
93.58000 5.996
93.60000 3.898
93.62000 1.691
93.64000 -1.246
93.66000 0.824
93.68000 -0.440
93.70000 1.008
93.72000 -0.172
93.74000 4.166
93.76000 7.858
93.78000 2.317
93.80000 2.519
93.82000 2.896
93.84000 0.874
93.86000 -0.024
93.88000 -1.031
93.90000 1.330
93.92000 0.808
93.94000 1.074
93.96000 2.763
93.98000 3.194
94.00000 -0.680
94.02000 0.830
94.04000 5.276
94.06000 4.253
94.08000 0.030
94.10000 3.032
94.12000 2.598
94.14000 3.456
94.16000 3.457
94.18000 2.518
94.20000 2.098
94.22000 4.083
94.24000 4.454
94.26000 6.772
94.28000 5.046
94.30000 1.004
94.32000 -2.015
94.34000 -1.806
94.36000 2.568
94.38000 5.273
94.40000 6.493
94.42000 6.826
94.44000 3.788
94.46000 3.121
94.48000 4.370
94.50000 2.009
94.52000 2.920
94.54000 3.503
94.56000 3.875
94.58000 5.955
94.60000 3.955
94.62000 1.718
94.64000 2.352
94.66000 1.158
94.68000 0.621
94.70000 2.211
94.72000 2.600
94.74000 5.056
94.76000 4.402
94.78000 5.436
94.80000 4.155
94.82000 2.696
94.84000 3.937
94.86000 4.387
94.88000 5.688
94.90000 4.140
94.92000 3.796
94.94000 3.411
94.96000 -0.478
94.98000 2.236
95.00000 3.835
95.02000 4.632
95.04000 6.366
95.06000 5.471
95.08000 -2.025
95.10000 -1.349
95.12000 -0.569
95.14000 3.459
95.16000 0.876
95.18000 -0.992
95.20000 3.666
95.22000 6.809
95.24000 5.397
95.26000 4.114
95.28000 6.445
95.30000 2.604
95.32000 2.304
95.34000 7.983
95.36000 8.376
95.38000 7.264
95.40000 6.166
95.42000 7.758
95.44000 6.283
95.46000 3.816
95.48000 1.290
95.50000 1.255
95.52000 -0.100
95.54000 -1.413
95.56000 1.220
95.58000 2.344
95.60000 4.659
95.62000 2.483
95.64000 1.533
95.66000 2.474
95.68000 1.846
95.70000 3.044
95.72000 3.922
95.74000 6.602
95.76000 5.340
95.78000 1.473
95.80000 2.566
95.82000 0.575
95.84000 2.132
95.86000 2.699
95.88000 3.903
95.90000 6.770
95.92000 2.248
95.94000 0.307
95.96000 -0.282
95.98000 4.786
96.00000 8.196
96.02000 4.420
96.04000 2.387
96.06000 3.864
96.08000 2.996
96.10000 4.312
96.12000 -1.085
96.14000 -2.006
96.16000 2.916
96.18000 5.282
96.20000 9.531
96.22000 7.980
96.24000 1.484
96.26000 -0.278
96.28000 1.178
96.30000 2.315
96.32000 1.773
96.34000 0.348
96.36000 -1.110
96.38000 1.057
96.40000 1.034
96.42000 1.913
96.44000 2.786
96.46000 4.481
96.48000 -2.024
96.50000 1.856
96.52000 0.269
96.54000 2.105
96.56000 3.198
96.58000 2.944
96.60000 0.097
96.62000 2.197
96.64000 -1.291
96.66000 -1.538
96.68000 2.683
96.70000 3.978
96.72000 2.536
96.74000 3.017
96.76000 -0.676
96.78000 3.419
96.80000 2.306
96.82000 4.663
96.84000 4.913
96.86000 4.898
96.88000 3.632
96.90000 3.206
96.92000 0.114
96.94000 0.025
96.96000 -0.379
96.98000 1.510
97.00000 -1.185
97.02000 1.707
97.04000 1.149
97.06000 -0.258
97.08000 1.651
97.10000 2.063
97.12000 0.976
97.14000 2.491
97.16000 3.034
97.18000 1.323
97.20000 2.458
97.22000 2.411
97.24000 3.322
97.26000 9.140
97.28000 6.921
97.30000 7.080
97.32000 1.546
97.34000 2.456
97.36000 6.815
97.38000 8.366
97.40000 5.709
97.42000 6.211
97.44000 7.594
97.46000 0.067
97.48000 -1.126
97.50000 2.003
97.52000 3.743
97.54000 4.751
97.56000 6.292
97.58000 4.753
97.60000 3.908
97.62000 6.862
97.64000 -0.181
97.66000 3.703
97.68000 3.053
97.70000 2.892
97.72000 10.542
97.74000 10.741
97.76000 7.644
97.78000 3.260
97.80000 3.068
97.82000 1.180
97.84000 1.566
97.86000 9.762
97.88000 9.621
97.90000 7.372
97.92000 6.004
97.94000 4.193
97.96000 -1.969
97.98000 0.888
98.00000 4.601
98.02000 10.185
98.04000 8.249
98.06000 7.009
98.08000 0.353
98.10000 -1.649
98.12000 1.045
98.14000 2.418
98.16000 4.053
98.18000 2.799
98.20000 9.689
98.22000 5.531
98.24000 6.013
98.26000 6.723
98.28000 2.989
98.30000 2.697
98.32000 2.516
98.34000 6.705
98.36000 9.322
98.38000 10.932
98.40000 4.671
98.42000 8.085
98.44000 4.928
98.46000 -0.307
98.48000 4.827
98.50000 4.996
98.52000 7.207
98.54000 4.906
98.56000 7.821
98.58000 5.592
98.60000 10.077
98.62000 6.814
98.64000 -1.879
98.66000 -0.157
98.68000 8.916
98.70000 2.773
98.72000 11.034
98.74000 8.564
98.76000 3.333
98.78000 2.602
98.80000 6.346
98.82000 3.247
98.84000 3.032
98.86000 1.861
98.88000 1.112
98.90000 2.058
98.92000 4.357
98.94000 1.017
98.96000 3.982
98.98000 1.786
99.00000 8.409
99.02000 6.545
99.04000 -1.531
99.06000 2.788
99.08000 6.734
99.10000 1.425
99.12000 2.011
99.14000 1.186
99.16000 3.917
99.18000 3.542
99.20000 6.006
99.22000 5.838
99.24000 -1.946
99.26000 -1.653
99.28000 5.261
99.30000 10.010
99.32000 5.682
99.34000 7.101
99.36000 4.108
99.38000 6.809
99.40000 8.849
99.42000 7.389
99.44000 7.360
99.46000 6.780
99.48000 3.921
99.50000 3.767
99.52000 8.925
99.54000 7.829
99.56000 7.863
99.58000 4.480
99.60000 5.840
99.62000 3.382
99.64000 2.858
99.66000 5.433
99.68000 7.417
99.70000 -1.155
99.72000 6.220
99.74000 3.070
99.76000 -2.004
99.78000 4.695
99.80000 0.371
99.82000 12.256
99.84000 4.543
99.86000 15.483
99.88000 0.092
99.90000 2.381
99.92000 -2.019
99.94000 -2.049
99.96000 3.138
99.98000 0.000
