'Id: "0011389" Comment: "Integrate frame 0011389_Au-Ir-Rh_Au-Rich_XRD_Mapping-272-0000.gfrmwith cursor Wedge Cursor #5" Operator: "B?rgel" Anode: "Cu" Wavelength: "1.5406" Scantype: "2Theta (TwoTheta)" TimePerStep: "1" X: "13.5" Y: "22.5" Z: "5.95" 
10.00000 0.000
10.02000 8.780
10.04000 -1.950
10.06000 -2.710
10.08000 -4.007
10.10000 2.257
10.12000 8.928
10.14000 3.332
10.16000 8.630
10.18000 6.457
10.20000 12.731
10.22000 20.049
10.24000 8.805
10.26000 -3.962
10.28000 -3.348
10.30000 0.186
10.32000 -0.587
10.34000 -0.555
10.36000 18.044
10.38000 6.338
10.40000 12.749
10.42000 30.605
10.44000 15.245
10.46000 19.926
10.48000 15.593
10.50000 16.832
10.52000 17.528
10.54000 6.209
10.56000 7.291
10.58000 27.565
10.60000 25.924
10.62000 15.319
10.64000 16.192
10.66000 27.532
10.68000 27.212
10.70000 6.758
10.72000 12.782
10.74000 19.445
10.76000 3.958
10.78000 16.556
10.80000 5.501
10.82000 2.846
10.84000 12.007
10.86000 7.501
10.88000 16.928
10.90000 9.365
10.92000 20.563
10.94000 19.363
10.96000 10.397
10.98000 23.335
11.00000 29.017
11.02000 18.778
11.04000 6.630
11.06000 23.177
11.08000 21.251
11.10000 23.451
11.12000 19.355
11.14000 19.652
11.16000 17.739
11.18000 18.535
11.20000 19.822
11.22000 11.790
11.24000 -4.253
11.26000 8.799
11.28000 6.355
11.30000 6.123
11.32000 7.468
11.34000 -0.914
11.36000 16.318
11.38000 16.775
11.40000 14.147
11.42000 21.676
11.44000 22.534
11.46000 13.751
11.48000 13.752
11.50000 15.145
11.52000 18.091
11.54000 3.722
11.56000 14.337
11.58000 29.900
11.60000 23.645
11.62000 21.848
11.64000 15.021
11.66000 21.164
11.68000 25.548
11.70000 16.715
11.72000 16.079
11.74000 19.172
11.76000 24.750
11.78000 22.302
11.80000 18.557
11.82000 14.198
11.84000 8.321
11.86000 0.285
11.88000 6.407
11.90000 28.814
11.92000 24.196
11.94000 19.463
11.96000 23.372
11.98000 25.862
12.00000 33.029
12.02000 24.722
12.04000 30.198
12.06000 30.204
12.08000 29.362
12.10000 36.016
12.12000 22.715
12.14000 26.222
12.16000 27.597
12.18000 18.225
12.20000 20.859
12.22000 26.488
12.24000 29.577
12.26000 17.106
12.28000 13.433
12.30000 11.710
12.32000 18.908
12.34000 13.365
12.36000 19.568
12.38000 22.026
12.40000 15.593
12.42000 18.858
12.44000 20.772
12.46000 21.371
12.48000 21.727
12.50000 19.481
12.52000 18.946
12.54000 32.016
12.56000 28.860
12.58000 29.395
12.60000 26.383
12.62000 25.996
12.64000 23.534
12.66000 21.359
12.68000 21.546
12.70000 16.912
12.72000 21.036
12.74000 23.169
12.76000 23.325
12.78000 27.539
12.80000 26.582
12.82000 19.038
12.84000 23.729
12.86000 21.943
12.88000 16.073
12.90000 13.374
12.92000 18.000
12.94000 20.366
12.96000 21.912
12.98000 20.522
13.00000 19.152
13.02000 19.195
13.04000 18.169
13.06000 20.878
13.08000 24.502
13.10000 21.619
13.12000 13.138
13.14000 13.314
13.16000 24.282
13.18000 33.241
13.20000 29.435
13.22000 22.434
13.24000 12.653
13.26000 16.092
13.28000 21.368
13.30000 32.780
13.32000 29.151
13.34000 21.170
13.36000 16.713
13.38000 12.268
13.40000 16.038
13.42000 22.056
13.44000 15.890
13.46000 24.602
13.48000 33.509
13.50000 20.119
13.52000 12.752
13.54000 21.360
13.56000 33.783
13.58000 16.310
13.60000 6.135
13.62000 13.312
13.64000 21.970
13.66000 28.822
13.68000 23.179
13.70000 24.450
13.72000 18.084
13.74000 16.742
13.76000 19.040
13.78000 27.287
13.80000 21.317
13.82000 12.674
13.84000 21.540
13.86000 24.478
13.88000 19.928
13.90000 15.919
13.92000 16.192
13.94000 15.788
13.96000 25.954
13.98000 23.095
14.00000 20.599
14.02000 23.530
14.04000 17.065
14.06000 16.698
14.08000 26.038
14.10000 28.807
14.12000 21.984
14.14000 21.233
14.16000 16.080
14.18000 16.054
14.20000 8.765
14.22000 12.942
14.24000 25.719
14.26000 31.212
14.28000 23.864
14.30000 13.590
14.32000 11.629
14.34000 14.098
14.36000 8.204
14.38000 8.849
14.40000 23.395
14.42000 27.204
14.44000 20.896
14.46000 17.529
14.48000 22.210
14.50000 13.173
14.52000 13.572
14.54000 16.472
14.56000 18.862
14.58000 12.585
14.60000 9.507
14.62000 11.731
14.64000 12.595
14.66000 17.497
14.68000 23.589
14.70000 11.829
14.72000 9.074
14.74000 10.469
14.76000 9.731
14.78000 11.034
14.80000 18.525
14.82000 16.283
14.84000 12.405
14.86000 9.018
14.88000 0.271
14.90000 3.573
14.92000 10.264
14.94000 12.130
14.96000 9.578
14.98000 3.531
15.00000 1.883
15.02000 11.187
15.04000 10.149
15.06000 10.839
15.08000 2.969
15.10000 5.930
15.12000 20.471
15.14000 13.309
15.16000 18.065
15.18000 10.768
15.20000 9.602
15.22000 17.581
15.24000 18.376
15.26000 17.265
15.28000 20.601
15.30000 16.951
15.32000 6.526
15.34000 7.358
15.36000 10.785
15.38000 12.370
15.40000 15.692
15.42000 10.447
15.44000 8.984
15.46000 9.227
15.48000 6.816
15.50000 -0.458
15.52000 11.457
15.54000 18.324
15.56000 23.711
15.58000 16.246
15.60000 16.734
15.62000 15.059
15.64000 12.637
15.66000 12.338
15.68000 10.317
15.70000 13.749
15.72000 8.954
15.74000 3.699
15.76000 5.292
15.78000 12.027
15.80000 19.460
15.82000 16.441
15.84000 9.924
15.86000 4.365
15.88000 4.987
15.90000 13.285
15.92000 8.492
15.94000 5.539
15.96000 -0.673
15.98000 4.543
16.00000 2.314
16.02000 8.325
16.04000 5.983
16.06000 6.898
16.08000 4.953
16.10000 9.370
16.12000 7.199
16.14000 0.398
16.16000 5.561
16.18000 14.759
16.20000 16.035
16.22000 15.728
16.24000 14.634
16.26000 7.535
16.28000 9.818
16.30000 3.870
16.32000 12.187
16.34000 12.655
16.36000 7.483
16.38000 8.406
16.40000 7.662
16.42000 15.476
16.44000 10.870
16.46000 10.165
16.48000 17.211
16.50000 8.936
16.52000 5.763
16.54000 9.304
16.56000 2.746
16.58000 9.666
16.60000 10.693
16.62000 10.180
16.64000 23.593
16.66000 16.122
16.68000 8.205
16.70000 5.939
16.72000 9.175
16.74000 10.682
16.76000 13.517
16.78000 13.575
16.80000 13.878
16.82000 7.509
16.84000 0.001
16.86000 13.088
16.88000 18.586
16.90000 16.881
16.92000 15.135
16.94000 4.478
16.96000 1.675
16.98000 2.899
17.00000 6.172
17.02000 10.371
17.04000 7.654
17.06000 6.068
17.08000 4.414
17.10000 9.173
17.12000 14.717
17.14000 8.217
17.16000 2.857
17.18000 6.335
17.20000 15.350
17.22000 15.851
17.24000 8.121
17.26000 9.553
17.28000 7.089
17.30000 6.992
17.32000 5.996
17.34000 -4.373
17.36000 -3.422
17.38000 3.378
17.40000 5.434
17.42000 12.262
17.44000 9.482
17.46000 6.778
17.48000 9.714
17.50000 7.873
17.52000 13.052
17.54000 16.097
17.56000 10.546
17.58000 12.458
17.60000 16.800
17.62000 20.007
17.64000 18.435
17.66000 9.570
17.68000 5.731
17.70000 3.918
17.72000 3.595
17.74000 13.372
17.76000 8.864
17.78000 6.230
17.80000 2.368
17.82000 3.398
17.84000 9.799
17.86000 9.366
17.88000 10.215
17.90000 10.623
17.92000 16.223
17.94000 15.155
17.96000 12.910
17.98000 9.653
18.00000 4.446
18.02000 -1.696
18.04000 -0.290
18.06000 5.194
18.08000 10.185
18.10000 2.062
18.12000 0.640
18.14000 4.549
18.16000 7.023
18.18000 12.729
18.20000 11.499
18.22000 11.133
18.24000 14.755
18.26000 12.601
18.28000 13.879
18.30000 7.963
18.32000 13.425
18.34000 16.285
18.36000 11.952
18.38000 5.636
18.40000 0.498
18.42000 -1.007
18.44000 -0.379
18.46000 6.640
18.48000 7.469
18.50000 6.519
18.52000 10.337
18.54000 16.544
18.56000 7.960
18.58000 4.458
18.60000 15.714
18.62000 9.027
18.64000 4.638
18.66000 1.616
18.68000 7.854
18.70000 12.140
18.72000 9.268
18.74000 4.297
18.76000 7.315
18.78000 11.189
18.80000 12.744
18.82000 3.760
18.84000 4.203
18.86000 15.694
18.88000 17.218
18.90000 -1.715
18.92000 -1.588
18.94000 4.963
18.96000 3.557
18.98000 7.952
19.00000 4.842
19.02000 1.587
19.04000 4.744
19.06000 5.253
19.08000 1.849
19.10000 4.179
19.12000 4.440
19.14000 -0.376
19.16000 5.804
19.18000 12.065
19.20000 18.361
19.22000 11.204
19.24000 8.719
19.26000 13.680
19.28000 8.466
19.30000 0.961
19.32000 1.945
19.34000 10.777
19.36000 7.791
19.38000 5.315
19.40000 0.612
19.42000 7.770
19.44000 6.245
19.46000 -4.274
19.48000 -2.363
19.50000 4.734
19.52000 8.908
19.54000 12.102
19.56000 10.493
19.58000 7.412
19.60000 4.248
19.62000 6.152
19.64000 5.698
19.66000 9.150
19.68000 11.656
19.70000 4.213
19.72000 6.330
19.74000 7.808
19.76000 10.501
19.78000 0.782
19.80000 1.402
19.82000 6.734
19.84000 4.155
19.86000 3.241
19.88000 3.336
19.90000 15.616
19.92000 7.002
19.94000 0.654
19.96000 -2.049
19.98000 2.233
20.00000 8.090
20.02000 -0.323
20.04000 1.802
20.06000 5.177
20.08000 5.697
20.10000 4.587
20.12000 7.501
20.14000 5.957
20.16000 4.701
20.18000 3.499
20.20000 7.375
20.22000 10.120
20.24000 2.787
20.26000 -0.154
20.28000 1.225
20.30000 4.535
20.32000 6.664
20.34000 1.587
20.36000 2.294
20.38000 6.093
20.40000 1.141
20.42000 4.730
20.44000 4.001
20.46000 3.356
20.48000 1.531
20.50000 4.664
20.52000 0.238
20.54000 4.491
20.56000 5.457
20.58000 4.199
20.60000 2.847
20.62000 1.317
20.64000 -0.818
20.66000 0.361
20.68000 3.668
20.70000 -0.598
20.72000 0.870
20.74000 6.179
20.76000 -0.923
20.78000 -3.218
20.80000 5.246
20.82000 5.370
20.84000 -2.123
20.86000 -1.129
20.88000 1.661
20.90000 8.416
20.92000 0.456
20.94000 3.998
20.96000 7.037
20.98000 1.655
21.00000 -1.408
21.02000 0.537
21.04000 0.884
21.06000 -0.813
21.08000 5.000
21.10000 1.754
21.12000 3.679
21.14000 1.336
21.16000 4.973
21.18000 2.553
21.20000 9.834
21.22000 9.321
21.24000 5.641
21.26000 5.119
21.28000 8.993
21.30000 10.159
21.32000 15.306
21.34000 6.097
21.36000 -0.640
21.38000 -3.737
21.40000 -2.239
21.42000 -4.196
21.44000 -1.899
21.46000 -2.070
21.48000 5.516
21.50000 6.599
21.52000 7.419
21.54000 7.747
21.56000 6.330
21.58000 5.003
21.60000 6.104
21.62000 4.588
21.64000 -2.785
21.66000 -2.542
21.68000 0.543
21.70000 1.750
21.72000 3.434
21.74000 -1.572
21.76000 -1.403
21.78000 9.673
21.80000 6.211
21.82000 1.118
21.84000 0.362
21.86000 10.128
21.88000 5.828
21.90000 0.845
21.92000 1.139
21.94000 -3.200
21.96000 0.926
21.98000 1.933
22.00000 -4.154
22.02000 -0.125
22.04000 2.971
22.06000 6.176
22.08000 7.602
22.10000 2.949
22.12000 -2.907
22.14000 -2.635
22.16000 -1.203
22.18000 -2.254
22.20000 2.629
22.22000 3.541
22.24000 5.734
22.26000 5.710
22.28000 3.086
22.30000 3.403
22.32000 7.758
22.34000 4.680
22.36000 4.436
22.38000 0.833
22.40000 0.429
22.42000 -0.880
22.44000 1.131
22.46000 5.876
22.48000 6.652
22.50000 1.021
22.52000 1.173
22.54000 1.341
22.56000 5.431
22.58000 7.537
22.60000 1.755
22.62000 -0.360
22.64000 2.938
22.66000 1.283
22.68000 -0.930
22.70000 5.196
22.72000 6.911
22.74000 -1.439
22.76000 1.106
22.78000 4.393
22.80000 0.385
22.82000 3.272
22.84000 -1.507
22.86000 3.804
22.88000 6.477
22.90000 -0.195
22.92000 6.294
22.94000 10.876
22.96000 7.386
22.98000 6.179
23.00000 8.909
23.02000 5.929
23.04000 11.039
23.06000 11.258
23.08000 3.157
23.10000 3.330
23.12000 2.923
23.14000 3.020
23.16000 0.585
23.18000 0.838
23.20000 -0.600
23.22000 -1.175
23.24000 3.975
23.26000 2.981
23.28000 3.850
23.30000 4.809
23.32000 4.481
23.34000 -3.302
23.36000 -3.410
23.38000 -1.137
23.40000 2.598
23.42000 3.732
23.44000 5.103
23.46000 7.594
23.48000 6.722
23.50000 1.763
23.52000 -3.781
23.54000 -4.091
23.56000 2.947
23.58000 2.963
23.60000 0.446
23.62000 -0.567
23.64000 -0.881
23.66000 1.533
23.68000 2.183
23.70000 1.724
23.72000 -3.119
23.74000 -2.588
23.76000 0.901
23.78000 3.780
23.80000 5.185
23.82000 3.534
23.84000 4.481
23.86000 2.330
23.88000 2.780
23.90000 2.984
23.92000 8.960
23.94000 6.076
23.96000 -1.411
23.98000 2.397
24.00000 2.940
24.02000 0.897
24.04000 1.582
24.06000 -4.020
24.08000 -2.547
24.10000 2.172
24.12000 -0.705
24.14000 -2.578
24.16000 0.136
24.18000 6.139
24.20000 5.548
24.22000 4.550
24.24000 -2.908
24.26000 0.589
24.28000 7.312
24.30000 8.904
24.32000 3.047
24.34000 -0.481
24.36000 -4.025
24.38000 0.267
24.40000 5.695
24.42000 2.995
24.44000 -1.006
24.46000 3.125
24.48000 7.637
24.50000 3.641
24.52000 4.462
24.54000 1.834
24.56000 0.900
24.58000 -0.082
24.60000 -3.784
24.62000 -0.098
24.64000 4.565
24.66000 -0.441
24.68000 -1.283
24.70000 3.967
24.72000 7.751
24.74000 5.245
24.76000 6.738
24.78000 0.991
24.80000 0.982
24.82000 3.998
24.84000 6.437
24.86000 3.349
24.88000 -1.634
24.90000 5.376
24.92000 -2.094
24.94000 -2.852
24.96000 -1.982
24.98000 -1.079
25.00000 1.235
25.02000 -0.802
25.04000 -0.726
25.06000 2.076
25.08000 -1.271
25.10000 0.531
25.12000 2.565
25.14000 2.681
25.16000 3.196
25.18000 -0.839
25.20000 -3.981
25.22000 -3.242
25.24000 -1.338
25.26000 2.723
25.28000 4.124
25.30000 2.527
25.32000 2.343
25.34000 0.913
25.36000 2.945
25.38000 6.199
25.40000 5.830
25.42000 2.994
25.44000 2.522
25.46000 0.794
25.48000 -0.009
25.50000 0.683
25.52000 0.412
25.54000 5.322
25.56000 5.222
25.58000 4.917
25.60000 9.024
25.62000 4.103
25.64000 -1.155
25.66000 -1.634
25.68000 2.724
25.70000 3.761
25.72000 2.489
25.74000 -1.110
25.76000 3.758
25.78000 6.877
25.80000 7.735
25.82000 6.916
25.84000 4.643
25.86000 7.688
25.88000 4.686
25.90000 3.749
25.92000 4.840
25.94000 4.208
25.96000 2.220
25.98000 3.473
26.00000 4.289
26.02000 1.374
26.04000 -3.124
26.06000 -1.153
26.08000 6.718
26.10000 2.442
26.12000 -3.924
26.14000 -1.422
26.16000 -0.156
26.18000 1.000
26.20000 3.903
26.22000 7.992
26.24000 4.727
26.26000 2.895
26.28000 2.825
26.30000 4.393
26.32000 3.550
26.34000 3.437
26.36000 5.248
26.38000 1.604
26.40000 3.609
26.42000 2.155
26.44000 0.823
26.46000 1.742
26.48000 1.705
26.50000 5.893
26.52000 1.843
26.54000 0.690
26.56000 1.596
26.58000 1.620
26.60000 2.318
26.62000 2.038
26.64000 1.487
26.66000 6.686
26.68000 5.167
26.70000 -1.506
26.72000 -1.735
26.74000 1.166
26.76000 0.831
26.78000 4.387
26.80000 4.451
26.82000 6.287
26.84000 10.510
26.86000 7.982
26.88000 -0.230
26.90000 7.342
26.92000 7.623
26.94000 1.736
26.96000 2.404
26.98000 2.917
27.00000 2.704
27.02000 2.605
27.04000 0.417
27.06000 7.137
27.08000 7.634
27.10000 3.322
27.12000 1.118
27.14000 3.437
27.16000 3.982
27.18000 2.919
27.20000 4.788
27.22000 5.452
27.24000 0.011
27.26000 -3.885
27.28000 0.448
27.30000 7.169
27.32000 3.588
27.34000 0.501
27.36000 2.214
27.38000 2.658
27.40000 3.572
27.42000 3.693
27.44000 0.665
27.46000 -1.206
27.48000 5.923
27.50000 5.242
27.52000 0.384
27.54000 1.213
27.56000 9.444
27.58000 4.067
27.60000 6.209
27.62000 0.945
27.64000 -0.224
27.66000 -3.745
27.68000 2.413
27.70000 6.846
27.72000 3.479
27.74000 -0.795
27.76000 0.225
27.78000 5.352
27.80000 5.887
27.82000 4.896
27.84000 4.517
27.86000 9.225
27.88000 6.539
27.90000 5.130
27.92000 4.592
27.94000 0.898
27.96000 3.535
27.98000 -0.116
28.00000 -0.495
28.02000 0.190
28.04000 0.214
28.06000 -0.508
28.08000 2.475
28.10000 6.162
28.12000 5.989
28.14000 1.773
28.16000 0.573
28.18000 1.970
28.20000 5.016
28.22000 6.667
28.24000 1.646
28.26000 1.036
28.28000 -1.840
28.30000 -0.491
28.32000 3.021
28.34000 6.366
28.36000 6.805
28.38000 2.210
28.40000 3.115
28.42000 7.034
28.44000 3.066
28.46000 3.002
28.48000 3.480
28.50000 0.275
28.52000 2.168
28.54000 0.310
28.56000 -0.210
28.58000 2.975
28.60000 1.696
28.62000 0.814
28.64000 2.695
28.66000 -1.352
28.68000 0.001
28.70000 -3.798
28.72000 -1.525
28.74000 0.903
28.76000 -0.274
28.78000 3.026
28.80000 3.867
28.82000 0.113
28.84000 7.385
28.86000 8.612
28.88000 0.439
28.90000 3.824
28.92000 6.879
28.94000 5.208
28.96000 1.801
28.98000 2.269
29.00000 3.448
29.02000 6.715
29.04000 12.392
29.06000 9.813
29.08000 1.277
29.10000 1.579
29.12000 6.717
29.14000 6.856
29.16000 5.139
29.18000 3.931
29.20000 0.683
29.22000 -2.111
29.24000 2.519
29.26000 0.678
29.28000 3.382
29.30000 7.227
29.32000 6.266
29.34000 8.522
29.36000 4.760
29.38000 0.293
29.40000 2.842
29.42000 4.808
29.44000 2.729
29.46000 -1.858
29.48000 -2.268
29.50000 5.945
29.52000 -1.159
29.54000 0.434
29.56000 0.267
29.58000 -1.182
29.60000 4.235
29.62000 2.763
29.64000 3.511
29.66000 5.224
29.68000 5.617
29.70000 8.788
29.72000 8.666
29.74000 5.509
29.76000 8.811
29.78000 0.382
29.80000 -3.750
29.82000 -0.883
29.84000 0.957
29.86000 7.067
29.88000 5.213
29.90000 1.537
29.92000 0.455
29.94000 0.798
29.96000 -2.385
29.98000 1.002
30.00000 3.088
30.02000 3.697
30.04000 0.737
30.06000 -0.173
30.08000 -0.227
30.10000 -0.877
30.12000 -3.735
30.14000 1.106
30.16000 1.564
30.18000 4.498
30.20000 5.752
30.22000 4.637
30.24000 9.755
30.26000 3.954
30.28000 2.518
30.30000 2.523
30.32000 6.982
30.34000 5.484
30.36000 2.229
30.38000 0.587
30.40000 4.217
30.42000 4.201
30.44000 3.599
30.46000 4.102
30.48000 2.319
30.50000 1.381
30.52000 3.926
30.54000 1.311
30.56000 0.707
30.58000 0.932
30.60000 4.560
30.62000 8.149
30.64000 5.993
30.66000 0.656
30.68000 -0.949
30.70000 -1.432
30.72000 1.955
30.74000 0.416
30.76000 0.000
30.78000 1.866
30.80000 3.389
30.82000 -0.844
30.84000 -1.524
30.86000 0.339
30.88000 6.106
30.90000 1.611
30.92000 3.964
30.94000 6.004
30.96000 4.639
30.98000 0.130
31.00000 -3.722
31.02000 -0.407
31.04000 1.781
31.06000 3.892
31.08000 2.393
31.10000 4.284
31.12000 1.644
31.14000 1.833
31.16000 3.948
31.18000 4.115
31.20000 -0.238
31.22000 3.188
31.24000 3.805
31.26000 -0.590
31.28000 -1.491
31.30000 -1.700
31.32000 -0.765
31.34000 0.636
31.36000 0.265
31.38000 1.284
31.40000 2.450
31.42000 0.661
31.44000 -1.891
31.46000 0.129
31.48000 0.570
31.50000 1.474
31.52000 2.430
31.54000 2.696
31.56000 1.648
31.58000 5.918
31.60000 -0.222
31.62000 1.985
31.64000 6.991
31.66000 4.833
31.68000 6.149
31.70000 5.597
31.72000 3.597
31.74000 6.869
31.76000 6.746
31.78000 4.071
31.80000 1.623
31.82000 -3.697
31.84000 -2.030
31.86000 0.955
31.88000 4.149
31.90000 3.360
31.92000 4.037
31.94000 2.845
31.96000 4.665
31.98000 1.642
32.00000 -1.826
32.02000 -0.267
32.04000 1.260
32.06000 2.142
32.08000 2.891
32.10000 -1.623
32.12000 -0.913
32.14000 2.875
32.16000 2.841
32.18000 4.769
32.20000 4.685
32.22000 1.584
32.24000 2.570
32.26000 2.851
32.28000 1.733
32.30000 6.378
32.32000 2.031
32.34000 -3.676
32.36000 -2.670
32.38000 0.876
32.40000 -0.388
32.42000 0.223
32.44000 3.672
32.46000 4.495
32.48000 -0.760
32.50000 0.217
32.52000 1.329
32.54000 -2.560
32.56000 0.019
32.58000 -0.405
32.60000 -3.674
32.62000 -2.276
32.64000 1.644
32.66000 9.050
32.68000 6.357
32.70000 1.983
32.72000 -1.381
32.74000 1.945
32.76000 0.429
32.78000 0.037
32.80000 0.184
32.82000 6.973
32.84000 5.154
32.86000 2.812
32.88000 5.167
32.90000 2.163
32.92000 0.819
32.94000 -2.566
32.96000 0.814
32.98000 1.160
33.00000 -1.651
33.02000 -1.788
33.04000 0.524
33.06000 4.471
33.08000 0.812
33.10000 1.243
33.12000 -0.267
33.14000 6.501
33.16000 5.404
33.18000 5.806
33.20000 1.233
33.22000 1.998
33.24000 0.718
33.26000 -1.069
33.28000 -3.663
33.30000 2.237
33.32000 5.931
33.34000 4.507
33.36000 4.276
33.38000 2.435
33.40000 2.000
33.42000 5.000
33.44000 10.073
33.46000 5.178
33.48000 2.000
33.50000 2.435
33.52000 0.758
33.54000 0.489
33.56000 1.074
33.58000 4.028
33.60000 4.024
33.62000 6.059
33.64000 0.090
33.66000 3.929
33.68000 1.160
33.70000 -1.804
33.72000 -0.366
33.74000 -0.828
33.76000 3.913
33.78000 6.697
33.80000 4.384
33.82000 -0.050
33.84000 3.823
33.86000 3.181
33.88000 3.595
33.90000 5.102
33.92000 3.792
33.94000 5.931
33.96000 4.173
33.98000 1.191
34.00000 6.645
34.02000 4.684
34.04000 4.222
34.06000 0.954
34.08000 2.694
34.10000 4.350
34.12000 2.503
34.14000 2.773
34.16000 3.886
34.18000 6.594
34.20000 7.737
34.22000 5.223
34.24000 -0.789
34.26000 4.780
34.28000 6.201
34.30000 -1.904
34.32000 -0.060
34.34000 1.955
34.36000 3.956
34.38000 2.245
34.40000 2.797
34.42000 6.996
34.44000 5.701
34.46000 6.204
34.48000 6.012
34.50000 3.515
34.52000 7.462
34.54000 4.747
34.56000 1.551
34.58000 7.873
34.60000 4.115
34.62000 0.822
34.64000 3.366
34.66000 2.002
34.68000 -1.286
34.70000 5.549
34.72000 8.336
34.74000 5.387
34.76000 6.679
34.78000 5.125
34.80000 1.774
34.82000 3.042
34.84000 4.319
34.86000 6.516
34.88000 4.147
34.90000 -3.602
34.92000 4.459
34.94000 5.778
34.96000 7.724
34.98000 4.163
35.00000 3.713
35.02000 7.141
35.04000 8.851
35.06000 2.294
35.08000 -3.613
35.10000 -0.188
35.12000 1.498
35.14000 6.473
35.16000 4.956
35.18000 5.391
35.20000 1.489
35.22000 -0.799
35.24000 -1.791
35.26000 -0.912
35.28000 5.078
35.30000 3.146
35.32000 3.345
35.34000 1.629
35.36000 0.483
35.38000 -2.607
35.40000 0.032
35.42000 2.052
35.44000 1.782
35.46000 1.231
35.48000 5.964
35.50000 4.129
35.52000 0.737
35.54000 0.540
35.56000 -1.133
35.58000 -2.212
35.60000 0.624
35.62000 -2.054
35.64000 3.009
35.66000 0.393
35.68000 -0.247
35.70000 2.098
35.72000 2.223
35.74000 3.260
35.76000 2.350
35.78000 1.754
35.80000 0.573
35.82000 0.612
35.84000 3.960
35.86000 3.668
35.88000 1.910
35.90000 5.017
35.92000 3.154
35.94000 3.190
35.96000 5.294
35.98000 3.743
36.00000 4.810
36.02000 3.611
36.04000 0.039
36.06000 -2.294
36.08000 -2.269
36.10000 -0.276
36.12000 -2.096
36.14000 4.563
36.16000 0.147
36.18000 0.369
36.20000 3.110
36.22000 5.015
36.24000 1.666
36.26000 -0.920
36.28000 -0.022
36.30000 3.052
36.32000 2.340
36.34000 -2.841
36.36000 1.937
36.38000 8.591
36.40000 4.672
36.42000 4.365
36.44000 0.009
36.46000 1.598
36.48000 0.357
36.50000 -3.110
36.52000 -3.690
36.54000 -0.538
36.56000 1.377
36.58000 3.098
36.60000 7.772
36.62000 7.568
36.64000 2.715
36.66000 2.743
36.68000 5.122
36.70000 7.250
36.72000 6.743
36.74000 7.540
36.76000 1.872
36.78000 2.551
36.80000 -1.941
36.82000 4.217
36.84000 8.952
36.86000 5.866
36.88000 3.990
36.90000 1.273
36.92000 1.437
36.94000 5.317
36.96000 7.232
36.98000 6.829
37.00000 3.158
37.02000 2.010
37.04000 4.935
37.06000 4.155
37.08000 6.210
37.10000 5.550
37.12000 5.116
37.14000 6.048
37.16000 11.204
37.18000 8.660
37.20000 5.566
37.22000 9.862
37.24000 10.596
37.26000 8.726
37.28000 8.479
37.30000 6.049
37.32000 4.800
37.34000 3.214
37.36000 5.782
37.38000 13.986
37.40000 16.409
37.42000 15.644
37.44000 14.067
37.46000 13.916
37.48000 15.078
37.50000 11.341
37.52000 14.535
37.54000 17.321
37.56000 15.213
37.58000 16.656
37.60000 18.103
37.62000 20.394
37.64000 20.026
37.66000 23.112
37.68000 15.694
37.70000 18.338
37.72000 18.916
37.74000 24.421
37.76000 15.386
37.78000 19.473
37.80000 21.548
37.82000 24.897
37.84000 26.793
37.86000 26.054
37.88000 26.883
37.90000 29.175
37.92000 28.943
37.94000 29.009
37.96000 28.756
37.98000 28.871
38.00000 29.503
38.02000 29.529
38.04000 29.230
38.06000 34.526
38.08000 34.431
38.10000 32.510
38.12000 36.738
38.14000 42.472
38.16000 42.829
38.18000 43.579
38.20000 49.848
38.22000 53.374
38.24000 53.654
38.26000 53.926
38.28000 46.564
38.30000 53.835
38.32000 54.876
38.34000 61.238
38.36000 64.637
38.38000 65.952
38.40000 67.321
38.42000 67.144
38.44000 74.298
38.46000 80.700
38.48000 79.902
38.50000 78.315
38.52000 83.366
38.54000 91.114
38.56000 92.734
38.58000 96.360
38.60000 105.566
38.62000 112.474
38.64000 113.147
38.66000 120.086
38.68000 124.617
38.70000 130.996
38.72000 141.573
38.74000 154.543
38.76000 158.583
38.78000 165.953
38.80000 173.922
38.82000 179.963
38.84000 192.006
38.86000 205.321
38.88000 223.642
38.90000 236.304
38.92000 246.331
38.94000 261.030
38.96000 276.278
38.98000 279.693
39.00000 301.123
39.02000 310.514
39.04000 326.089
39.06000 341.315
39.08000 358.755
39.10000 366.895
39.12000 373.671
39.14000 387.531
39.16000 386.807
39.18000 395.424
39.20000 405.529
39.22000 410.527
39.24000 411.518
39.26000 401.133
39.28000 393.827
39.30000 396.407
39.32000 388.875
39.34000 382.303
39.36000 376.957
39.38000 365.387
39.40000 349.195
39.42000 337.282
39.44000 332.880
39.46000 319.220
39.48000 294.908
39.50000 277.459
39.52000 268.854
39.54000 259.303
39.56000 249.387
39.58000 231.358
39.60000 219.238
39.62000 204.665
39.64000 191.811
39.66000 177.395
39.68000 162.610
39.70000 155.071
39.72000 150.799
39.74000 144.556
39.76000 131.412
39.78000 127.547
39.80000 119.786
39.82000 110.169
39.84000 101.383
39.86000 97.930
39.88000 97.332
39.90000 94.895
39.92000 82.183
39.94000 73.105
39.96000 70.459
39.98000 65.896
40.00000 61.979
40.02000 59.107
40.04000 56.412
40.06000 52.670
40.08000 45.872
40.10000 48.382
40.12000 47.659
40.14000 43.560
40.16000 34.515
40.18000 34.772
40.20000 35.747
40.22000 33.846
40.24000 34.274
40.26000 30.316
40.28000 27.878
40.30000 29.032
40.32000 28.180
40.34000 25.067
40.36000 23.453
40.38000 23.353
40.40000 24.941
40.42000 23.641
40.44000 18.688
40.46000 21.326
40.48000 23.721
40.50000 20.303
40.52000 16.681
40.54000 14.999
40.56000 16.293
40.58000 16.769
40.60000 15.168
40.62000 13.729
40.64000 14.117
40.66000 11.848
40.68000 11.917
40.70000 9.122
40.72000 10.918
40.74000 9.536
40.76000 9.849
40.78000 7.910
40.80000 8.593
40.82000 9.822
40.84000 6.565
40.86000 3.599
40.88000 3.303
40.90000 6.653
40.92000 4.727
40.94000 5.722
40.96000 7.010
40.98000 5.867
41.00000 8.197
41.02000 9.260
41.04000 6.231
41.06000 3.240
41.08000 2.620
41.10000 3.916
41.12000 1.903
41.14000 -0.300
41.16000 2.388
41.18000 4.556
41.20000 3.251
41.22000 1.623
41.24000 -0.487
41.26000 0.625
41.28000 3.844
41.30000 3.982
41.32000 2.647
41.34000 5.013
41.36000 6.785
41.38000 4.158
41.40000 2.357
41.42000 2.210
41.44000 6.492
41.46000 7.726
41.48000 5.824
41.50000 2.443
41.52000 2.888
41.54000 0.540
41.56000 0.635
41.58000 0.646
41.60000 1.109
41.62000 -1.590
41.64000 1.854
41.66000 2.205
41.68000 0.339
41.70000 4.497
41.72000 3.303
41.74000 1.543
41.76000 -2.321
41.78000 -1.768
41.80000 -1.447
41.82000 -3.337
41.84000 1.525
41.86000 2.458
41.88000 3.831
41.90000 2.389
41.92000 2.838
41.94000 0.565
41.96000 1.226
41.98000 1.388
42.00000 1.351
42.02000 -0.044
42.04000 -0.047
42.06000 -0.254
42.08000 -0.772
42.10000 -0.055
42.12000 3.479
42.14000 3.595
42.16000 2.310
42.18000 -1.409
42.20000 -0.877
42.22000 1.450
42.24000 3.085
42.26000 1.741
42.28000 1.992
42.30000 2.708
42.32000 -3.313
42.34000 -2.932
42.36000 0.493
42.38000 4.606
42.40000 7.124
42.42000 5.701
42.44000 0.048
42.46000 -1.417
42.48000 2.206
42.50000 3.211
42.52000 2.390
42.54000 -0.023
42.56000 1.834
42.58000 0.311
42.60000 1.131
42.62000 3.728
42.64000 4.048
42.66000 -0.896
42.68000 2.359
42.70000 2.931
42.72000 4.556
42.74000 3.401
42.76000 5.043
42.78000 6.502
42.80000 2.864
42.82000 2.172
42.84000 2.226
42.86000 2.891
42.88000 2.876
42.90000 4.151
42.92000 1.908
42.94000 -3.234
42.96000 -0.929
42.98000 1.632
43.00000 2.453
43.02000 2.895
43.04000 4.941
43.06000 2.487
43.08000 0.847
43.10000 6.400
43.12000 6.350
43.14000 4.345
43.16000 4.073
43.18000 3.475
43.20000 2.347
43.22000 1.145
43.24000 1.492
43.26000 1.615
43.28000 3.493
43.30000 2.338
43.32000 4.282
43.34000 5.144
43.36000 5.493
43.38000 5.729
43.40000 0.058
43.42000 0.164
43.44000 3.438
43.46000 3.880
43.48000 4.046
43.50000 0.791
43.52000 -1.522
43.54000 -3.188
43.56000 -0.487
43.58000 0.748
43.60000 2.000
43.62000 -0.704
43.64000 1.870
43.66000 3.907
43.68000 4.256
43.70000 4.575
43.72000 0.883
43.74000 0.922
43.76000 2.148
43.78000 1.204
43.80000 2.608
43.82000 1.214
43.84000 2.659
43.86000 4.715
43.88000 4.963
43.90000 2.037
43.92000 1.314
43.94000 1.504
43.96000 0.995
43.98000 3.719
44.00000 5.396
44.02000 2.722
44.04000 1.810
44.06000 1.588
44.08000 5.295
44.10000 5.645
44.12000 4.702
44.14000 4.338
44.16000 3.562
44.18000 0.209
44.20000 0.735
44.22000 -1.328
44.24000 -1.524
44.26000 0.504
44.28000 0.792
44.30000 -0.717
44.32000 -0.716
44.34000 3.182
44.36000 1.617
44.38000 4.525
44.40000 4.463
44.42000 3.439
44.44000 2.553
44.46000 3.242
44.48000 5.342
44.50000 11.995
44.52000 8.579
44.54000 7.727
44.56000 8.053
44.58000 3.134
44.60000 5.432
44.62000 9.350
44.64000 10.691
44.66000 4.022
44.68000 8.082
44.70000 11.023
44.72000 10.991
44.74000 9.695
44.76000 7.049
44.78000 5.083
44.80000 6.618
44.82000 10.842
44.84000 14.539
44.86000 15.594
44.88000 12.988
44.90000 12.100
44.92000 14.562
44.94000 17.254
44.96000 21.541
44.98000 23.738
45.00000 23.398
45.02000 25.825
45.04000 24.001
45.06000 23.619
45.08000 24.147
45.10000 24.107
45.12000 25.304
45.14000 25.848
45.16000 29.536
45.18000 34.295
45.20000 35.201
45.22000 29.824
45.24000 32.132
45.26000 38.517
45.28000 40.778
45.30000 41.513
45.32000 39.804
45.34000 43.169
45.36000 47.957
45.38000 48.404
45.40000 53.185
45.42000 51.938
45.44000 52.722
45.46000 51.467
45.48000 55.655
45.50000 54.733
45.52000 61.204
45.54000 65.109
45.56000 64.158
45.58000 65.879
45.60000 68.014
45.62000 70.968
45.64000 75.419
45.66000 76.024
45.68000 74.832
45.70000 72.241
45.72000 75.800
45.74000 81.351
45.76000 82.277
45.78000 78.023
45.80000 76.925
45.82000 77.723
45.84000 79.626
45.86000 83.942
45.88000 82.932
45.90000 78.811
45.92000 77.958
45.94000 77.753
45.96000 79.498
45.98000 76.618
46.00000 76.287
46.02000 73.789
46.04000 71.511
46.06000 69.693
46.08000 70.530
46.10000 69.421
46.12000 66.908
46.14000 64.696
46.16000 65.949
46.18000 61.433
46.20000 58.407
46.22000 58.485
46.24000 57.014
46.26000 54.701
46.28000 49.282
46.30000 52.177
46.32000 48.158
46.34000 45.789
46.36000 41.998
46.38000 40.257
46.40000 37.534
46.42000 36.235
46.44000 31.624
46.46000 31.691
46.48000 34.353
46.50000 27.580
46.52000 22.910
46.54000 19.120
46.56000 19.097
46.58000 19.823
46.60000 19.070
46.62000 17.621
46.64000 16.119
46.66000 18.803
46.68000 16.735
46.70000 14.920
46.72000 12.319
46.74000 10.775
46.76000 12.469
46.78000 17.420
46.80000 11.007
46.82000 9.517
46.84000 13.961
46.86000 10.352
46.88000 5.483
46.90000 3.130
46.92000 3.849
46.94000 0.785
46.96000 3.626
46.98000 5.604
47.00000 4.256
47.02000 -1.976
47.04000 1.017
47.06000 1.429
47.08000 1.344
47.10000 2.042
47.12000 4.189
47.14000 3.096
47.16000 2.887
47.18000 5.454
47.20000 -0.319
47.22000 -2.164
47.24000 2.453
47.26000 -0.600
47.28000 -2.810
47.30000 -2.553
47.32000 -0.794
47.34000 4.963
47.36000 5.883
47.38000 2.756
47.40000 5.727
47.42000 2.253
47.44000 3.436
47.46000 0.403
47.48000 3.984
47.50000 4.141
47.52000 6.064
47.54000 6.088
47.56000 4.254
47.58000 0.999
47.60000 2.152
47.62000 2.586
47.64000 1.872
47.66000 2.163
47.68000 3.059
47.70000 -2.576
47.72000 -1.834
47.74000 1.717
47.76000 3.323
47.78000 2.571
47.80000 2.663
47.82000 0.012
47.84000 -0.337
47.86000 4.434
47.88000 3.022
47.90000 2.921
47.92000 3.814
47.94000 4.113
47.96000 4.287
47.98000 0.705
48.00000 -0.715
48.02000 -0.489
48.04000 2.392
48.06000 2.686
48.08000 0.030
48.10000 -2.156
48.12000 0.473
48.14000 -0.883
48.16000 -2.688
48.18000 -0.488
48.20000 -0.797
48.22000 1.073
48.24000 0.518
48.26000 4.153
48.28000 4.189
48.30000 4.261
48.32000 3.510
48.34000 2.763
48.36000 -1.170
48.38000 -0.748
48.40000 4.289
48.42000 6.293
48.44000 4.271
48.46000 1.280
48.48000 -2.093
48.50000 1.379
48.52000 3.037
48.54000 4.692
48.56000 3.981
48.58000 4.933
48.60000 3.773
48.62000 5.349
48.64000 2.975
48.66000 3.155
48.68000 2.586
48.70000 5.023
48.72000 2.771
48.74000 -1.897
48.76000 0.375
48.78000 4.793
48.80000 5.359
48.82000 1.896
48.84000 3.010
48.86000 2.571
48.88000 -0.212
48.90000 1.732
48.92000 3.534
48.94000 3.252
48.96000 0.572
48.98000 0.888
49.00000 2.015
49.02000 -2.600
49.04000 -0.311
49.06000 3.849
49.08000 5.703
49.10000 6.789
49.12000 4.302
49.14000 3.176
49.16000 2.811
49.18000 3.328
49.20000 2.464
49.22000 2.173
49.24000 3.576
49.26000 0.188
49.28000 2.988
49.30000 4.646
49.32000 4.012
49.34000 3.768
49.36000 0.320
49.38000 3.161
49.40000 4.350
49.42000 5.032
49.44000 6.862
49.46000 5.830
49.48000 1.283
49.50000 0.336
49.52000 3.092
49.54000 2.629
49.56000 5.365
49.58000 3.965
49.60000 3.500
49.62000 1.217
49.64000 3.797
49.66000 2.026
49.68000 4.740
49.70000 8.809
49.72000 2.689
49.74000 1.887
49.76000 6.490
49.78000 4.109
49.80000 3.406
49.82000 7.279
49.84000 5.077
49.86000 5.153
49.88000 5.033
49.90000 5.457
49.92000 0.594
49.94000 -2.562
49.96000 -0.130
49.98000 0.813
50.00000 4.518
50.02000 7.265
50.04000 5.566
50.06000 3.353
50.08000 0.532
50.10000 0.824
50.12000 1.011
50.14000 -0.119
50.16000 0.044
50.18000 2.318
50.20000 1.956
50.22000 4.439
50.24000 7.424
50.26000 2.630
50.28000 -2.560
50.30000 -0.917
50.32000 -0.881
50.34000 0.054
50.36000 -0.912
50.38000 3.384
50.40000 4.686
50.42000 3.908
50.44000 0.384
50.46000 1.679
50.48000 0.616
50.50000 2.663
50.52000 0.457
50.54000 0.062
50.56000 0.732
50.58000 1.055
50.60000 3.909
50.62000 3.087
50.64000 1.457
50.66000 0.632
50.68000 0.572
50.70000 1.996
50.72000 -2.556
50.74000 -0.645
50.76000 3.865
50.78000 4.161
50.80000 -0.633
50.82000 -2.556
50.84000 -1.090
50.86000 2.472
50.88000 1.694
50.90000 -0.777
50.92000 1.198
50.94000 1.264
50.96000 3.604
50.98000 2.483
51.00000 2.392
51.02000 0.042
51.04000 -1.688
51.06000 0.213
51.08000 0.873
51.10000 1.816
51.12000 4.523
51.14000 0.927
51.16000 1.993
51.18000 3.446
51.20000 2.776
51.22000 -0.146
51.24000 1.315
51.26000 0.034
51.28000 -1.337
51.30000 2.796
51.32000 3.602
51.34000 0.400
51.36000 -0.433
51.38000 4.191
51.40000 4.930
51.42000 2.418
51.44000 2.126
51.46000 0.643
51.48000 -1.217
51.50000 -0.918
51.52000 0.646
51.54000 -1.039
51.56000 2.393
51.58000 -0.183
51.60000 1.775
51.62000 -1.227
51.64000 -1.028
51.66000 1.553
51.68000 1.932
51.70000 -0.634
51.72000 1.007
51.74000 0.009
51.76000 -1.831
51.78000 0.032
51.80000 4.005
51.82000 3.289
51.84000 2.001
51.86000 3.119
51.88000 3.242
51.90000 3.529
51.92000 1.952
51.94000 -0.990
51.96000 -2.528
51.98000 5.467
52.00000 3.887
52.02000 3.946
52.04000 2.648
52.06000 3.515
52.08000 1.693
52.10000 -0.030
52.12000 0.266
52.14000 2.228
52.16000 1.089
52.18000 3.046
52.20000 -0.470
52.22000 1.389
52.24000 1.763
52.26000 -0.833
52.28000 -0.434
52.30000 -0.316
52.32000 1.763
52.34000 2.462
52.36000 1.506
52.38000 1.649
52.40000 2.033
52.42000 -0.302
52.44000 -0.176
52.46000 0.376
52.48000 0.325
52.50000 3.997
52.52000 5.504
52.54000 5.423
52.56000 2.107
52.58000 1.436
52.60000 3.520
52.62000 2.696
52.64000 -0.119
52.66000 -2.164
52.68000 -2.500
52.70000 -1.660
52.72000 3.266
52.74000 4.349
52.76000 4.065
52.78000 2.277
52.80000 2.802
52.82000 3.514
52.84000 5.023
52.86000 4.681
52.88000 -0.496
52.90000 -0.993
52.92000 3.072
52.94000 2.364
52.96000 0.256
52.98000 3.114
53.00000 4.147
53.02000 4.488
53.04000 6.524
53.06000 4.431
53.08000 -0.654
53.10000 1.206
53.12000 2.385
53.14000 5.552
53.16000 7.284
53.18000 5.485
53.20000 -1.285
53.22000 -0.288
53.24000 -2.319
53.26000 -1.619
53.28000 0.579
53.30000 -0.128
53.32000 -0.913
53.34000 -1.940
53.36000 -1.338
53.38000 -2.132
53.40000 -1.975
53.42000 2.069
53.44000 2.281
53.46000 -0.433
53.48000 4.181
53.50000 3.453
53.52000 0.817
53.54000 1.635
53.56000 -0.979
53.58000 2.481
53.60000 4.973
53.62000 4.487
53.64000 2.950
53.66000 1.075
53.68000 1.270
53.70000 1.715
53.72000 2.853
53.74000 0.928
53.76000 0.056
53.78000 3.058
53.80000 5.531
53.82000 3.783
53.84000 6.736
53.86000 7.009
53.88000 6.639
53.90000 1.668
53.92000 -2.474
53.94000 -0.889
53.96000 0.497
53.98000 1.273
54.00000 2.022
54.02000 1.622
54.04000 1.508
54.06000 3.110
54.08000 0.170
54.10000 -1.372
54.12000 3.279
54.14000 4.158
54.16000 -0.336
54.18000 -2.460
54.20000 0.261
54.22000 3.836
54.24000 4.059
54.26000 3.042
54.28000 7.571
54.30000 3.985
54.32000 2.469
54.34000 5.277
54.36000 4.312
54.38000 3.794
54.40000 2.594
54.42000 1.140
54.44000 1.179
54.46000 0.660
54.48000 -0.480
54.50000 2.709
54.52000 1.302
54.54000 0.811
54.56000 3.511
54.58000 6.249
54.60000 2.472
54.62000 -0.403
54.64000 3.372
54.66000 4.273
54.68000 3.785
54.70000 3.569
54.72000 1.964
54.74000 4.038
54.76000 7.073
54.78000 5.981
54.80000 7.203
54.82000 7.917
54.84000 4.382
54.86000 0.649
54.88000 -0.769
54.90000 0.164
54.92000 2.031
54.94000 4.610
54.96000 -1.814
54.98000 -0.633
55.00000 2.085
55.02000 3.591
55.04000 4.062
55.06000 4.323
55.08000 -0.217
55.10000 4.232
55.12000 1.007
55.14000 1.422
55.16000 1.756
55.18000 2.584
55.20000 0.351
55.22000 4.733
55.24000 2.616
55.26000 -0.856
55.28000 0.743
55.30000 -0.119
55.32000 -1.174
55.34000 -2.434
55.36000 1.355
55.38000 1.178
55.40000 3.340
55.42000 1.379
55.44000 1.778
55.46000 3.237
55.48000 1.298
55.50000 2.545
55.52000 1.442
55.54000 4.416
55.56000 3.341
55.58000 1.619
55.60000 1.477
55.62000 1.394
55.64000 -1.538
55.66000 -0.272
55.68000 2.878
55.70000 2.611
55.72000 3.351
55.74000 4.257
55.76000 1.333
55.78000 1.586
55.80000 2.156
55.82000 2.248
55.84000 1.658
55.86000 4.169
55.88000 0.146
55.90000 2.419
55.92000 4.244
55.94000 1.800
55.96000 0.473
55.98000 5.007
56.00000 2.728
56.02000 3.167
56.04000 4.793
56.06000 3.531
56.08000 0.003
56.10000 1.016
56.12000 0.429
56.14000 3.781
56.16000 1.634
56.18000 6.865
56.20000 3.903
56.22000 3.972
56.24000 2.001
56.26000 -0.379
56.28000 0.573
56.30000 8.127
56.32000 7.214
56.34000 2.494
56.36000 2.903
56.38000 2.337
56.40000 -1.957
56.42000 2.578
56.44000 0.627
56.46000 -2.405
56.48000 -1.722
56.50000 3.391
56.52000 3.201
56.54000 1.933
56.56000 8.979
56.58000 5.330
56.60000 4.975
56.62000 4.729
56.64000 1.845
56.66000 -0.046
56.68000 2.316
56.70000 3.767
56.72000 3.866
56.74000 1.734
56.76000 4.278
56.78000 2.204
56.80000 5.001
56.82000 3.540
56.84000 2.568
56.86000 2.073
56.88000 5.003
56.90000 1.464
56.92000 3.171
56.94000 1.676
56.96000 2.588
56.98000 0.126
57.00000 1.887
57.02000 3.137
57.04000 1.480
57.06000 2.533
57.08000 2.799
57.10000 2.608
57.12000 4.602
57.14000 1.695
57.16000 1.286
57.18000 -2.389
57.20000 -1.276
57.22000 -2.269
57.24000 0.857
57.26000 2.720
57.28000 2.588
57.30000 -1.006
57.32000 0.944
57.34000 5.922
57.36000 3.554
57.38000 6.897
57.40000 4.339
57.42000 0.576
57.44000 2.124
57.46000 4.088
57.48000 -1.462
57.50000 3.346
57.52000 4.987
57.54000 2.102
57.56000 -0.053
57.58000 1.974
57.60000 3.510
57.62000 4.321
57.64000 1.355
57.66000 0.482
57.68000 1.521
57.70000 3.369
57.72000 2.213
57.74000 0.143
57.76000 0.715
57.78000 -0.138
57.80000 1.119
57.82000 1.642
57.84000 0.569
57.86000 1.468
57.88000 2.566
57.90000 0.999
57.92000 5.092
57.94000 1.994
57.96000 2.210
57.98000 -0.559
58.00000 2.699
58.02000 2.248
58.04000 0.820
58.06000 2.883
58.08000 2.039
58.10000 -0.546
58.12000 0.758
58.14000 -0.850
58.16000 0.487
58.18000 -0.284
58.20000 1.628
58.22000 1.472
58.24000 5.587
58.26000 7.491
58.28000 3.199
58.30000 1.292
58.32000 1.319
58.34000 1.289
58.36000 -0.411
58.38000 0.429
58.40000 0.594
58.42000 -2.337
58.44000 3.028
58.46000 8.290
58.48000 6.670
58.50000 2.889
58.52000 2.972
58.54000 5.263
58.56000 2.671
58.58000 1.682
58.60000 -0.732
58.62000 -0.783
58.64000 0.800
58.66000 0.937
58.68000 -0.668
58.70000 -0.770
58.72000 3.781
58.74000 1.953
58.76000 2.832
58.78000 1.312
58.80000 -0.372
58.82000 1.518
58.84000 2.157
58.86000 1.447
58.88000 0.198
58.90000 -1.880
58.92000 1.704
58.94000 2.017
58.96000 1.554
58.98000 1.417
59.00000 2.312
59.02000 3.733
59.04000 2.692
59.06000 3.293
59.08000 5.125
59.10000 0.664
59.12000 -2.238
59.14000 -1.508
59.16000 -0.049
59.18000 1.089
59.20000 -0.965
59.22000 -0.316
59.24000 1.964
59.26000 2.476
59.28000 0.278
59.30000 0.106
59.32000 -0.266
59.34000 -0.093
59.36000 1.338
59.38000 3.977
59.40000 1.989
59.42000 1.079
59.44000 0.211
59.46000 1.398
59.48000 1.022
59.50000 0.801
59.52000 0.514
59.54000 2.443
59.56000 2.343
59.58000 1.292
59.60000 0.901
59.62000 -0.289
59.64000 1.221
59.66000 3.061
59.68000 2.727
59.70000 3.085
59.72000 2.110
59.74000 -0.333
59.76000 -0.374
59.78000 0.220
59.80000 -0.167
59.82000 0.847
59.84000 -1.345
59.86000 -1.884
59.88000 0.295
59.90000 -0.564
59.92000 -2.327
59.94000 0.092
59.96000 5.508
59.98000 5.917
60.00000 3.014
60.02000 1.297
60.04000 0.939
60.06000 1.929
60.08000 1.522
60.10000 1.522
60.12000 1.946
60.14000 1.343
60.16000 2.090
60.18000 4.352
60.20000 6.280
60.22000 4.528
60.24000 2.735
60.26000 3.588
60.28000 1.346
60.30000 0.983
60.32000 2.890
60.34000 2.280
60.36000 2.543
60.38000 0.527
60.40000 1.009
60.42000 3.534
60.44000 2.534
60.46000 0.940
60.48000 -1.286
60.50000 0.850
60.52000 0.751
60.54000 0.382
60.56000 1.374
60.58000 2.829
60.60000 3.501
60.62000 2.022
60.64000 0.809
60.66000 1.646
60.68000 0.892
60.70000 -2.285
60.72000 -1.199
60.74000 -0.263
60.76000 -0.621
60.78000 1.856
60.80000 1.100
60.82000 -2.278
60.84000 2.566
60.86000 2.062
60.88000 2.161
60.90000 2.115
60.92000 3.162
60.94000 4.294
60.96000 6.575
60.98000 4.659
61.00000 3.896
61.02000 4.360
61.04000 1.590
61.06000 -0.102
61.08000 -2.270
61.10000 -0.595
61.12000 -0.988
61.14000 -1.667
61.16000 -1.517
61.18000 2.628
61.20000 4.194
61.22000 1.063
61.24000 1.820
61.26000 1.374
61.28000 0.953
61.30000 0.184
61.32000 0.837
61.34000 -0.404
61.36000 -1.092
61.38000 -2.267
61.40000 1.264
61.42000 2.629
61.44000 4.700
61.46000 6.098
61.48000 4.570
61.50000 -0.357
61.52000 1.950
61.54000 -1.614
61.56000 -0.084
61.58000 2.569
61.60000 2.276
61.62000 4.645
61.64000 0.316
61.66000 2.308
61.68000 0.484
61.70000 1.447
61.72000 0.434
61.74000 -0.372
61.76000 1.108
61.78000 0.547
61.80000 0.872
61.82000 1.150
61.84000 -1.263
61.86000 -1.956
61.88000 1.477
61.90000 -0.072
61.92000 1.091
61.94000 1.594
61.96000 0.742
61.98000 3.860
62.00000 2.946
62.02000 0.550
62.04000 0.693
62.06000 -0.237
62.08000 1.959
62.10000 6.114
62.12000 1.584
62.14000 1.430
62.16000 -0.119
62.18000 2.222
62.20000 6.156
62.22000 4.099
62.24000 1.387
62.26000 -2.238
62.28000 -0.156
62.30000 5.428
62.32000 7.879
62.34000 0.163
62.36000 -2.232
62.38000 0.208
62.40000 1.832
62.42000 2.532
62.44000 2.567
62.46000 2.131
62.48000 0.923
62.50000 0.669
62.52000 0.939
62.54000 1.205
62.56000 0.494
62.58000 0.533
62.60000 6.532
62.62000 3.343
62.64000 0.413
62.66000 2.599
62.68000 1.729
62.70000 4.861
62.72000 3.483
62.74000 3.111
62.76000 0.196
62.78000 -0.894
62.80000 -2.202
62.82000 0.907
62.84000 3.552
62.86000 7.324
62.88000 4.267
62.90000 3.561
62.92000 3.215
62.94000 1.857
62.96000 2.221
62.98000 3.822
63.00000 2.824
63.02000 3.134
63.04000 3.075
63.06000 0.961
63.08000 1.944
63.10000 2.003
63.12000 0.426
63.14000 0.528
63.16000 -1.006
63.18000 -0.020
63.20000 -0.634
63.22000 1.196
63.24000 0.658
63.26000 1.114
63.28000 2.014
63.30000 1.473
63.32000 -0.202
63.34000 -1.202
63.36000 -0.217
63.38000 -0.043
63.40000 4.664
63.42000 0.911
63.44000 -1.018
63.46000 4.695
63.48000 1.519
63.50000 -0.072
63.52000 0.002
63.54000 2.227
63.56000 2.165
63.58000 -1.232
63.60000 -0.643
63.62000 0.850
63.64000 -1.249
63.66000 0.291
63.68000 0.980
63.70000 -1.167
63.72000 -1.884
63.74000 1.967
63.76000 4.142
63.78000 3.894
63.80000 1.103
63.82000 0.019
63.84000 -1.114
63.86000 -2.231
63.88000 0.602
63.90000 -1.720
63.92000 -1.141
63.94000 -0.269
63.96000 0.329
63.98000 -0.861
64.00000 1.493
64.02000 1.858
64.04000 1.325
64.06000 2.319
64.08000 0.574
64.10000 -1.876
64.12000 0.619
64.14000 0.887
64.16000 -1.055
64.18000 -1.077
64.20000 -0.410
64.22000 3.034
64.24000 6.049
64.26000 4.115
64.28000 5.906
64.30000 2.994
64.32000 1.548
64.34000 1.407
64.36000 -2.228
64.38000 -1.074
64.40000 1.028
64.42000 1.327
64.44000 1.020
64.46000 1.626
64.48000 2.032
64.50000 0.450
64.52000 1.539
64.54000 -0.909
64.56000 1.363
64.58000 -0.099
64.60000 2.557
64.62000 1.622
64.64000 1.122
64.66000 -1.199
64.68000 -1.583
64.70000 -0.081
64.72000 1.673
64.74000 0.693
64.76000 0.899
64.78000 2.078
64.80000 3.385
64.82000 1.724
64.84000 -2.232
64.86000 1.395
64.88000 2.218
64.90000 1.392
64.92000 0.709
64.94000 -1.516
64.96000 -0.790
64.98000 1.611
65.00000 2.633
65.02000 3.670
65.04000 4.705
65.06000 2.893
65.08000 0.772
65.10000 1.340
65.12000 3.155
65.14000 0.411
65.16000 2.380
65.18000 0.932
65.20000 1.485
65.22000 5.954
65.24000 1.364
65.26000 -0.296
65.28000 -0.502
65.30000 -1.181
65.32000 -0.896
65.34000 0.183
65.36000 3.408
65.38000 1.712
65.40000 0.041
65.42000 1.530
65.44000 0.102
65.46000 0.054
65.48000 1.993
65.50000 -0.559
65.52000 -2.243
65.54000 0.543
65.56000 -0.576
65.58000 0.131
65.60000 0.860
65.62000 3.703
65.64000 2.646
65.66000 0.497
65.68000 0.740
65.70000 0.316
65.72000 0.021
65.74000 3.100
65.76000 3.310
65.78000 1.347
65.80000 0.619
65.82000 -0.366
65.84000 0.969
65.86000 0.589
65.88000 1.328
65.90000 0.410
65.92000 -0.760
65.94000 3.782
65.96000 3.914
65.98000 4.329
66.00000 6.014
66.02000 4.708
66.04000 1.748
66.06000 0.500
66.08000 0.753
66.10000 3.679
66.12000 4.551
66.14000 4.974
66.16000 3.469
66.18000 1.325
66.20000 3.238
66.22000 5.470
66.24000 4.559
66.26000 2.594
66.28000 3.195
66.30000 3.818
66.32000 4.398
66.34000 7.066
66.36000 6.141
66.38000 7.006
66.40000 6.955
66.42000 6.785
66.44000 6.564
66.46000 6.137
66.48000 3.990
66.50000 3.135
66.52000 2.826
66.54000 3.488
66.56000 4.423
66.58000 8.289
66.60000 8.817
66.62000 8.929
66.64000 8.793
66.66000 8.944
66.68000 6.251
66.70000 7.564
66.72000 7.398
66.74000 9.352
66.76000 9.988
66.78000 8.088
66.80000 7.210
66.82000 9.695
66.84000 7.081
66.86000 4.424
66.88000 5.176
66.90000 3.915
66.92000 4.997
66.94000 5.795
66.96000 1.745
66.98000 5.556
67.00000 5.863
67.02000 8.229
67.04000 7.681
67.06000 4.976
67.08000 4.741
67.10000 6.804
67.12000 4.650
67.14000 7.710
67.16000 7.195
67.18000 4.992
67.20000 1.935
67.22000 1.363
67.24000 4.068
67.26000 2.052
67.28000 0.483
67.30000 -0.085
67.32000 1.331
67.34000 2.330
67.36000 1.342
67.38000 1.604
67.40000 0.741
67.42000 2.653
67.44000 2.422
67.46000 0.627
67.48000 -0.170
67.50000 2.098
67.52000 1.353
67.54000 2.710
67.56000 -0.172
67.58000 1.534
67.60000 3.305
67.62000 0.036
67.64000 -0.496
67.66000 2.067
67.68000 2.635
67.70000 0.029
67.72000 -0.439
67.74000 1.176
67.76000 2.544
67.78000 1.204
67.80000 -0.743
67.82000 -0.003
67.84000 0.410
67.86000 0.811
67.88000 -0.211
67.90000 0.666
67.92000 0.823
67.94000 2.539
67.96000 4.885
67.98000 1.786
68.00000 2.683
68.02000 2.183
68.04000 0.837
68.06000 3.777
68.08000 1.173
68.10000 -0.171
68.12000 0.013
68.14000 0.503
68.16000 1.105
68.18000 -0.743
68.20000 -2.100
68.22000 0.872
68.24000 -0.231
68.26000 1.662
68.28000 0.235
68.30000 0.150
68.32000 2.601
68.34000 2.088
68.36000 1.565
68.38000 0.897
68.40000 0.627
68.42000 3.280
68.44000 2.756
68.46000 1.916
68.48000 0.821
68.50000 -0.293
68.52000 -0.483
68.54000 1.610
68.56000 3.081
68.58000 0.251
68.60000 0.835
68.62000 2.661
68.64000 3.130
68.66000 2.619
68.68000 1.997
68.70000 3.671
68.72000 3.160
68.74000 2.520
68.76000 0.769
68.78000 0.097
68.80000 0.470
68.82000 1.536
68.84000 1.603
68.86000 2.127
68.88000 1.207
68.90000 1.435
68.92000 3.953
68.94000 1.598
68.96000 1.487
68.98000 0.584
69.00000 3.053
69.02000 1.921
69.04000 1.387
69.06000 1.517
69.08000 0.602
69.10000 -0.981
69.12000 -0.972
69.14000 1.808
69.16000 2.880
69.18000 2.257
69.20000 -0.240
69.22000 -0.462
69.24000 1.726
69.26000 0.710
69.28000 -2.065
69.30000 -0.932
69.32000 0.149
69.34000 1.781
69.36000 1.230
69.38000 1.535
69.40000 0.449
69.42000 0.899
69.44000 -0.472
69.46000 -0.496
69.48000 -1.571
69.50000 1.334
69.52000 1.499
69.54000 0.559
69.56000 3.447
69.58000 1.482
69.60000 1.413
69.62000 1.041
69.64000 2.340
69.66000 -0.103
69.68000 -1.805
69.70000 -0.757
69.72000 -1.998
69.74000 -0.237
69.76000 -0.556
69.78000 0.471
69.80000 1.592
69.82000 2.284
69.84000 2.824
69.86000 1.991
69.88000 3.157
69.90000 1.989
69.92000 -0.118
69.94000 2.105
69.96000 3.379
69.98000 4.449
70.00000 2.072
70.02000 0.240
70.04000 1.518
70.06000 2.693
70.08000 3.752
70.10000 1.955
70.12000 1.114
70.14000 2.084
70.16000 0.554
70.18000 -0.664
70.20000 0.368
70.22000 -1.575
70.24000 -0.672
70.26000 -0.884
70.28000 -1.887
70.30000 2.475
70.32000 0.072
70.34000 0.714
70.36000 3.217
70.38000 1.138
70.40000 0.927
70.42000 -0.512
70.44000 2.037
70.46000 2.895
70.48000 1.555
70.50000 1.351
70.52000 -0.132
70.54000 -0.410
70.56000 -1.991
70.58000 -0.770
70.60000 0.029
70.62000 -0.255
70.64000 0.188
70.66000 3.101
70.68000 2.134
70.70000 2.103
70.72000 2.390
70.74000 2.119
70.76000 3.515
70.78000 2.088
70.80000 1.985
70.82000 2.142
70.84000 0.445
70.86000 1.009
70.88000 1.989
70.90000 3.638
70.92000 3.367
70.94000 2.064
70.96000 1.181
70.98000 0.804
71.00000 2.866
71.02000 4.176
71.04000 1.341
71.06000 1.588
71.08000 -0.230
71.10000 -1.100
71.12000 2.805
71.14000 2.421
71.16000 1.830
71.18000 2.233
71.20000 3.282
71.22000 2.826
71.24000 0.873
71.26000 2.389
71.28000 3.721
71.30000 3.044
71.32000 3.155
71.34000 1.786
71.36000 0.205
71.38000 0.852
71.40000 1.168
71.42000 1.434
71.44000 0.525
71.46000 -0.436
71.48000 2.904
71.50000 1.972
71.52000 1.032
71.54000 -1.980
71.56000 1.577
71.58000 0.818
71.60000 -0.345
71.62000 0.708
71.64000 2.806
71.66000 2.217
71.68000 3.007
71.70000 2.281
71.72000 1.214
71.74000 1.134
71.76000 1.117
71.78000 1.356
71.80000 2.677
71.82000 2.437
71.84000 1.106
71.86000 1.206
71.88000 -0.143
71.90000 -0.620
71.92000 2.144
71.94000 1.277
71.96000 1.555
71.98000 0.944
72.00000 3.291
72.02000 2.649
72.04000 2.821
72.06000 1.464
72.08000 0.491
72.10000 1.835
72.12000 3.451
72.14000 5.549
72.16000 4.242
72.18000 3.788
72.20000 1.601
72.22000 -0.881
72.24000 0.026
72.26000 0.904
72.28000 1.403
72.30000 1.954
72.32000 2.398
72.34000 1.614
72.36000 1.193
72.38000 4.317
72.40000 1.660
72.42000 1.382
72.44000 0.652
72.46000 0.370
72.48000 2.658
72.50000 2.780
72.52000 1.712
72.54000 3.353
72.56000 2.750
72.58000 1.561
72.60000 -0.348
72.62000 -1.917
72.64000 -0.504
72.66000 2.871
72.68000 4.597
72.70000 6.484
72.72000 3.532
72.74000 1.270
72.76000 0.838
72.78000 -0.110
72.80000 -0.465
72.82000 4.568
72.84000 5.676
72.86000 5.484
72.88000 4.301
72.90000 3.074
72.92000 0.996
72.94000 1.490
72.96000 0.261
72.98000 1.268
73.00000 1.439
73.02000 1.286
73.04000 2.187
73.06000 2.829
73.08000 4.147
73.10000 4.280
73.12000 0.650
73.14000 1.342
73.16000 0.727
73.18000 -0.194
73.20000 2.364
73.22000 2.680
73.24000 2.428
73.26000 2.558
73.28000 5.137
73.30000 1.929
73.32000 1.279
73.34000 2.187
73.36000 2.174
73.38000 0.377
73.40000 0.505
73.42000 1.214
73.44000 2.490
73.46000 2.002
73.48000 1.246
73.50000 4.680
73.52000 6.064
73.54000 3.513
73.56000 0.906
73.58000 -0.240
73.60000 -1.175
73.62000 0.859
73.64000 1.544
73.66000 5.279
73.68000 3.405
73.70000 2.135
73.72000 1.232
73.74000 2.100
73.76000 1.081
73.78000 -0.802
73.80000 -0.147
73.82000 1.192
73.84000 2.253
73.86000 1.229
73.88000 3.197
73.90000 3.728
73.92000 1.740
73.94000 2.953
73.96000 5.655
73.98000 2.343
74.00000 2.292
74.02000 0.027
74.04000 0.331
74.06000 2.567
74.08000 2.605
74.10000 0.794
74.12000 1.268
74.14000 1.773
74.16000 1.888
74.18000 0.572
74.20000 2.002
74.22000 3.184
74.24000 0.203
74.26000 -0.488
74.28000 0.249
74.30000 1.627
74.32000 3.956
74.34000 3.056
74.36000 3.270
74.38000 4.209
74.40000 3.721
74.42000 2.932
74.44000 3.793
74.46000 2.466
74.48000 3.793
74.50000 5.176
74.52000 4.647
74.54000 1.998
74.56000 5.408
74.58000 4.765
74.60000 5.281
74.62000 3.488
74.64000 3.865
74.66000 1.868
74.68000 7.302
74.70000 6.099
74.72000 6.290
74.74000 5.401
74.76000 5.031
74.78000 4.494
74.80000 2.599
74.82000 0.915
74.84000 -1.860
74.86000 3.475
74.88000 3.055
74.90000 2.893
74.92000 4.726
74.94000 7.043
74.96000 3.618
74.98000 3.469
75.00000 5.877
75.02000 6.613
75.04000 3.558
75.06000 -0.821
75.08000 2.248
75.10000 4.003
75.12000 3.505
75.14000 3.361
75.16000 3.921
75.18000 3.331
75.20000 5.398
75.22000 2.671
75.24000 3.563
75.26000 1.529
75.28000 1.381
75.30000 3.223
75.32000 5.527
75.34000 4.543
75.36000 4.881
75.38000 3.449
75.40000 0.774
75.42000 2.190
75.44000 0.849
75.46000 3.323
75.48000 1.896
75.50000 1.190
75.52000 1.744
75.54000 3.569
75.56000 2.478
75.58000 3.716
75.60000 1.475
75.62000 -0.486
75.64000 2.912
75.66000 5.210
75.68000 2.728
75.70000 3.125
75.72000 0.298
75.74000 2.702
75.76000 3.515
75.78000 2.318
75.80000 0.355
75.82000 3.058
75.84000 1.332
75.86000 -0.141
75.88000 1.215
75.90000 1.733
75.92000 3.203
75.94000 3.296
75.96000 1.350
75.98000 4.092
76.00000 6.488
76.02000 2.668
76.04000 0.746
76.06000 1.655
76.08000 1.872
76.10000 -0.590
76.12000 1.412
76.14000 4.452
76.16000 1.497
76.18000 -1.370
76.20000 0.869
76.22000 2.307
76.24000 3.790
76.26000 2.296
76.28000 3.820
76.30000 4.897
76.32000 5.083
76.34000 1.738
76.36000 2.562
76.38000 1.593
76.40000 1.749
76.42000 2.886
76.44000 3.124
76.46000 3.181
76.48000 0.606
76.50000 1.506
76.52000 1.036
76.54000 2.569
76.56000 2.037
76.58000 2.793
76.60000 1.349
76.62000 1.457
76.64000 0.597
76.66000 1.322
76.68000 0.704
76.70000 0.344
76.72000 1.899
76.74000 -0.277
76.76000 -1.969
76.78000 -1.791
76.80000 3.027
76.82000 2.161
76.84000 0.958
76.86000 0.396
76.88000 3.283
76.90000 2.837
76.92000 0.428
76.94000 0.079
76.96000 0.796
76.98000 2.238
77.00000 3.347
77.02000 2.559
77.04000 4.306
77.06000 2.598
77.08000 0.804
77.10000 1.011
77.12000 -0.707
77.14000 3.369
77.16000 3.338
77.18000 2.008
77.20000 1.560
77.22000 3.564
77.24000 2.685
77.26000 -0.050
77.28000 0.200
77.30000 1.434
77.32000 -0.821
77.34000 1.649
77.36000 2.622
77.38000 3.875
77.40000 0.909
77.42000 2.631
77.44000 1.721
77.46000 0.537
77.48000 2.949
77.50000 0.783
77.52000 -2.001
77.54000 0.887
77.56000 2.573
77.58000 0.738
77.60000 1.403
77.62000 1.117
77.64000 2.704
77.66000 1.859
77.68000 1.608
77.70000 0.982
77.72000 -0.976
77.74000 -1.057
77.76000 -0.731
77.78000 0.459
77.80000 -1.548
77.82000 -0.585
77.84000 0.813
77.86000 0.774
77.88000 0.382
77.90000 -0.657
77.92000 0.970
77.94000 1.132
77.96000 -2.029
77.98000 1.206
78.00000 1.379
78.02000 3.289
78.04000 1.027
78.06000 1.546
78.08000 0.282
78.10000 1.057
78.12000 1.735
78.14000 4.346
78.16000 2.011
78.18000 1.121
78.20000 1.447
78.22000 -0.045
78.24000 -0.738
78.26000 -0.629
78.28000 0.964
78.30000 1.399
78.32000 -0.486
78.34000 -0.652
78.36000 1.240
78.38000 1.620
78.40000 1.345
78.42000 0.252
78.44000 0.529
78.46000 -0.762
78.48000 -1.219
78.50000 -0.467
78.52000 1.275
78.54000 0.667
78.56000 4.721
78.58000 0.902
78.60000 -2.079
78.62000 -2.007
78.64000 0.115
78.66000 2.272
78.68000 2.860
78.70000 2.330
78.72000 6.890
78.74000 5.525
78.76000 2.017
78.78000 -0.447
78.80000 3.228
78.82000 1.047
78.84000 0.547
78.86000 1.337
78.88000 1.472
78.90000 3.556
78.92000 -2.118
78.94000 -1.896
78.96000 -0.568
78.98000 -1.472
79.00000 -0.409
79.02000 1.148
79.04000 1.630
79.06000 3.372
79.08000 1.838
79.10000 2.833
79.12000 3.144
79.14000 4.385
79.16000 1.766
79.18000 2.910
79.20000 1.555
79.22000 4.366
79.24000 1.961
79.26000 5.858
79.28000 4.802
79.30000 2.893
79.32000 -0.290
79.34000 3.002
79.36000 3.873
79.38000 6.133
79.40000 5.600
79.42000 4.033
79.44000 4.473
79.46000 4.670
79.48000 5.674
79.50000 4.368
79.52000 5.411
79.54000 2.321
79.56000 4.304
79.58000 4.371
79.60000 5.250
79.62000 4.001
79.64000 6.793
79.66000 9.172
79.68000 11.675
79.70000 11.527
79.72000 14.847
79.74000 14.883
79.76000 13.096
79.78000 11.252
79.80000 9.096
79.82000 9.479
79.84000 11.839
79.86000 15.015
79.88000 17.366
79.90000 15.681
79.92000 14.704
79.94000 13.796
79.96000 15.284
79.98000 15.219
80.00000 15.820
80.02000 13.228
80.04000 14.142
80.06000 19.564
80.08000 20.285
80.10000 18.566
80.12000 20.369
80.14000 21.533
80.16000 21.588
80.18000 17.899
80.20000 16.952
80.22000 20.656
80.24000 22.355
80.26000 20.591
80.28000 21.209
80.30000 22.989
80.32000 21.604
80.34000 23.344
80.36000 24.014
80.38000 22.469
80.40000 19.250
80.42000 19.713
80.44000 20.295
80.46000 24.633
80.48000 23.823
80.50000 20.868
80.52000 18.377
80.54000 20.435
80.56000 23.368
80.58000 22.417
80.60000 22.737
80.62000 21.283
80.64000 21.010
80.66000 19.817
80.68000 23.626
80.70000 23.414
80.72000 17.813
80.74000 21.047
80.76000 23.170
80.78000 18.766
80.80000 17.456
80.82000 18.232
80.84000 16.840
80.86000 19.032
80.88000 15.457
80.90000 9.792
80.92000 12.649
80.94000 12.880
80.96000 14.194
80.98000 12.711
81.00000 16.792
81.02000 14.221
81.04000 9.523
81.06000 7.794
81.08000 10.689
81.10000 13.358
81.12000 13.298
81.14000 14.564
81.16000 14.668
81.18000 12.073
81.20000 11.198
81.22000 10.531
81.24000 10.251
81.26000 10.296
81.28000 4.968
81.30000 5.291
81.32000 5.864
81.34000 9.272
81.36000 7.602
81.38000 3.473
81.40000 2.759
81.42000 2.980
81.44000 3.094
81.46000 6.225
81.48000 7.423
81.50000 7.832
81.52000 6.996
81.54000 6.885
81.56000 3.257
81.58000 0.457
81.60000 3.254
81.62000 2.114
81.64000 3.827
81.66000 4.688
81.68000 2.473
81.70000 1.102
81.72000 -1.278
81.74000 -1.517
81.76000 -2.165
81.78000 1.960
81.80000 5.283
81.82000 3.717
81.84000 3.164
81.86000 4.039
81.88000 4.661
81.90000 2.070
81.92000 -0.904
81.94000 0.073
81.96000 3.028
81.98000 4.197
82.00000 4.540
82.02000 4.475
82.04000 1.350
82.06000 3.171
82.08000 3.662
82.10000 1.341
82.12000 -0.435
82.14000 1.816
82.16000 -0.560
82.18000 -1.101
82.20000 -1.084
82.22000 4.273
82.24000 -0.113
82.26000 1.457
82.28000 3.478
82.30000 4.164
82.32000 1.230
82.34000 0.032
82.36000 -1.658
82.38000 -2.074
82.40000 -1.124
82.42000 -1.475
82.44000 -0.435
82.46000 -1.063
82.48000 -1.357
82.50000 1.113
82.52000 3.060
82.54000 1.405
82.56000 -0.174
82.58000 -0.564
82.60000 -1.271
82.62000 2.243
82.64000 5.193
82.66000 2.960
82.68000 2.333
82.70000 2.729
82.72000 1.132
82.74000 0.063
82.76000 0.286
82.78000 1.783
82.80000 1.799
82.82000 3.470
82.84000 1.381
82.86000 2.913
82.88000 1.786
82.90000 2.925
82.92000 1.342
82.94000 0.053
82.96000 -2.184
82.98000 -0.689
83.00000 2.550
83.02000 3.799
83.04000 2.618
83.06000 1.727
83.08000 2.639
83.10000 2.640
83.12000 5.227
83.14000 5.906
83.16000 4.983
83.18000 5.354
83.20000 4.342
83.22000 1.236
83.24000 6.383
83.26000 5.290
83.28000 3.776
83.30000 6.356
83.32000 5.612
83.34000 6.330
83.36000 7.366
83.38000 8.006
83.40000 6.380
83.42000 5.598
83.44000 7.957
83.46000 6.476
83.48000 5.787
83.50000 7.451
83.52000 7.836
83.54000 7.894
83.56000 9.707
83.58000 12.742
83.60000 13.076
83.62000 13.182
83.64000 12.687
83.66000 15.136
83.68000 13.326
83.70000 12.565
83.72000 13.588
83.74000 13.861
83.76000 13.936
83.78000 13.901
83.80000 12.731
83.82000 16.281
83.84000 14.300
83.86000 17.117
83.88000 17.905
83.90000 18.682
83.92000 19.113
83.94000 21.576
83.96000 21.146
83.98000 24.083
84.00000 26.289
84.02000 26.422
84.04000 27.746
84.06000 25.970
84.08000 24.653
84.10000 26.035
84.12000 21.956
84.14000 22.704
84.16000 23.245
84.18000 27.025
84.20000 29.622
84.22000 30.742
84.24000 28.042
84.26000 24.851
84.28000 23.593
84.30000 24.349
84.32000 24.221
84.34000 25.342
84.36000 23.869
84.38000 28.719
84.40000 27.620
84.42000 25.868
84.44000 23.899
84.46000 21.826
84.48000 22.466
84.50000 21.889
84.52000 24.134
84.54000 24.047
84.56000 20.475
84.58000 20.085
84.60000 22.363
84.62000 21.937
84.64000 20.320
84.66000 19.576
84.68000 22.763
84.70000 18.213
84.72000 21.028
84.74000 19.030
84.76000 16.104
84.78000 16.585
84.80000 15.235
84.82000 15.339
84.84000 14.591
84.86000 11.830
84.88000 10.807
84.90000 11.613
84.92000 10.091
84.94000 12.996
84.96000 11.323
84.98000 12.310
85.00000 8.966
85.02000 10.829
85.04000 7.063
85.06000 6.551
85.08000 8.968
85.10000 6.766
85.12000 9.572
85.14000 7.712
85.16000 5.181
85.18000 7.991
85.20000 10.165
85.22000 7.712
85.24000 4.551
85.26000 5.426
85.28000 3.199
85.30000 5.379
85.32000 2.554
85.34000 1.135
85.36000 4.433
85.38000 3.810
85.40000 -0.875
85.42000 -1.595
85.44000 0.502
85.46000 -0.107
85.48000 1.049
85.50000 -0.720
85.52000 -0.525
85.54000 0.833
85.56000 0.079
85.58000 -0.512
85.60000 -0.890
85.62000 -1.040
85.64000 0.189
85.66000 -0.051
85.68000 2.375
85.70000 1.839
85.72000 -1.650
85.74000 -0.853
85.76000 1.635
85.78000 0.758
85.80000 0.354
85.82000 -1.356
85.84000 -0.629
85.86000 3.526
85.88000 3.293
85.90000 0.852
85.92000 0.926
85.94000 1.605
85.96000 1.303
85.98000 1.825
86.00000 1.034
86.02000 1.120
86.04000 1.425
86.06000 0.099
86.08000 0.730
86.10000 1.365
86.12000 -1.243
86.14000 -0.128
86.16000 2.851
86.18000 2.507
86.20000 2.224
86.22000 1.009
86.24000 -0.530
86.26000 2.177
86.28000 1.360
86.30000 -1.872
86.32000 -1.698
86.34000 -0.168
86.36000 3.199
86.38000 4.457
86.40000 4.080
86.42000 4.216
86.44000 4.802
86.46000 1.229
86.48000 3.922
86.50000 1.820
86.52000 2.268
86.54000 3.728
86.56000 3.852
86.58000 4.187
86.60000 3.195
86.62000 2.356
86.64000 1.099
86.66000 2.252
86.68000 3.553
86.70000 3.865
86.72000 3.716
86.74000 5.039
86.76000 3.421
86.78000 4.440
86.80000 1.164
86.82000 -1.643
86.84000 -1.417
86.86000 1.723
86.88000 1.030
86.90000 1.044
86.92000 2.062
86.94000 1.503
86.96000 2.729
86.98000 2.897
87.00000 1.556
87.02000 -1.821
87.04000 0.369
87.06000 2.734
87.08000 2.313
87.10000 -1.063
87.12000 1.392
87.14000 0.714
87.16000 -1.819
87.18000 2.215
87.20000 2.897
87.22000 3.265
87.24000 1.571
87.26000 4.415
87.28000 5.228
87.30000 1.588
87.32000 2.917
87.34000 1.427
87.36000 1.388
87.38000 2.049
87.40000 3.761
87.42000 2.031
87.44000 0.386
87.46000 -1.826
87.48000 -1.041
87.50000 -0.716
87.52000 2.517
87.54000 4.007
87.56000 6.917
87.58000 5.699
87.60000 2.226
87.62000 -0.221
87.64000 -0.093
87.66000 -0.404
87.68000 -0.531
87.70000 -0.841
87.72000 2.942
87.74000 2.571
87.76000 0.908
87.78000 2.105
87.80000 4.314
87.82000 4.330
87.84000 2.695
87.86000 0.965
87.88000 0.242
87.90000 1.306
87.92000 1.026
87.94000 4.853
87.96000 2.505
87.98000 0.911
88.00000 -1.821
88.02000 -0.479
88.04000 -0.402
88.06000 1.647
88.08000 -1.387
88.10000 1.214
88.12000 2.549
88.14000 -0.153
88.16000 -0.137
88.18000 -0.562
88.20000 -0.029
88.22000 1.742
88.24000 2.523
88.26000 1.505
88.28000 1.585
88.30000 -0.652
88.32000 -1.736
88.34000 -0.100
88.36000 1.808
88.38000 -0.118
88.40000 1.376
88.42000 -0.194
88.44000 -0.249
88.46000 1.681
88.48000 3.368
88.50000 1.068
88.52000 1.763
88.54000 1.750
88.56000 3.738
88.58000 1.324
88.60000 1.924
88.62000 1.950
88.64000 2.592
88.66000 3.164
88.68000 2.507
88.70000 0.810
88.72000 0.165
88.74000 0.598
88.76000 -0.147
88.78000 0.521
88.80000 0.170
88.82000 -0.985
88.84000 1.003
88.86000 3.547
88.88000 -1.805
88.90000 1.422
88.92000 1.314
88.94000 0.094
88.96000 -1.344
88.98000 -1.652
89.00000 0.922
89.02000 0.509
89.04000 -1.090
89.06000 -1.811
89.08000 -0.063
89.10000 1.298
89.12000 3.950
89.14000 2.849
89.16000 4.835
89.18000 4.759
89.20000 1.418
89.22000 0.305
89.24000 -1.240
89.26000 -0.416
89.28000 2.454
89.30000 -0.945
89.32000 -0.449
89.34000 -0.882
89.36000 -1.413
89.38000 0.999
89.40000 2.520
89.42000 2.587
89.44000 3.574
89.46000 1.274
89.48000 0.011
89.50000 -1.408
89.52000 -0.696
89.54000 -1.818
89.56000 -1.093
89.58000 1.065
89.60000 1.747
89.62000 2.346
89.64000 0.420
89.66000 1.713
89.68000 0.333
89.70000 -0.610
89.72000 1.250
89.74000 -0.210
89.76000 1.410
89.78000 -1.762
89.80000 0.830
89.82000 -0.339
89.84000 0.693
89.86000 0.256
89.88000 1.298
89.90000 0.719
89.92000 3.393
89.94000 3.107
89.96000 2.274
89.98000 1.342
90.00000 1.503
90.02000 2.297
90.04000 1.438
90.06000 1.247
90.08000 2.032
90.10000 -0.396
90.12000 2.748
90.14000 3.230
90.16000 4.381
90.18000 -0.012
90.20000 -0.143
90.22000 1.579
90.24000 2.504
90.26000 3.608
90.28000 4.058
90.30000 5.166
90.32000 4.602
90.34000 3.131
90.36000 2.779
90.38000 0.962
90.40000 2.119
90.42000 -1.787
90.44000 -0.376
90.46000 3.440
90.48000 3.465
90.50000 1.959
90.52000 1.965
90.54000 1.071
90.56000 3.485
90.58000 2.376
90.60000 -0.525
90.62000 -0.109
90.64000 -1.182
90.66000 -0.399
90.68000 0.581
90.70000 0.617
90.72000 0.402
90.74000 0.985
90.76000 1.323
90.78000 1.308
90.80000 2.636
90.82000 2.657
90.84000 3.246
90.86000 2.942
90.88000 1.029
90.90000 0.019
90.92000 3.000
90.94000 4.903
90.96000 1.555
90.98000 2.856
91.00000 1.337
91.02000 2.045
91.04000 2.791
91.06000 3.306
91.08000 1.061
91.10000 2.123
91.12000 2.647
91.14000 1.208
91.16000 1.487
91.18000 2.456
91.20000 2.383
91.22000 0.148
91.24000 1.315
91.26000 1.348
91.28000 1.115
91.30000 0.806
91.32000 1.934
91.34000 2.933
91.36000 1.770
91.38000 1.368
91.40000 3.480
91.42000 2.344
91.44000 1.786
91.46000 2.903
91.48000 6.344
91.50000 5.210
91.52000 4.833
91.54000 3.012
91.56000 -1.088
91.58000 -1.781
91.60000 0.549
91.62000 2.938
91.64000 3.269
91.66000 2.614
91.68000 0.402
91.70000 1.839
91.72000 0.867
91.74000 1.293
91.76000 3.313
91.78000 2.031
91.80000 1.608
91.82000 1.741
91.84000 2.116
91.86000 5.580
91.88000 6.338
91.90000 3.447
91.92000 0.596
91.94000 2.204
91.96000 2.215
91.98000 1.635
92.00000 1.238
92.02000 1.831
92.04000 3.983
92.06000 1.755
92.08000 1.333
92.10000 1.392
92.12000 0.585
92.14000 1.119
92.16000 1.347
92.18000 4.452
92.20000 3.493
92.22000 1.505
92.24000 -0.732
92.26000 -1.789
92.28000 1.955
92.30000 3.814
92.32000 4.509
92.34000 6.980
92.36000 2.662
92.38000 0.182
92.40000 1.252
92.42000 2.966
92.44000 4.620
92.46000 0.112
92.48000 0.409
92.50000 -0.159
92.52000 0.357
92.54000 4.622
92.56000 5.185
92.58000 5.719
92.60000 4.255
92.62000 0.785
92.64000 0.174
92.66000 3.238
92.68000 3.946
92.70000 0.847
92.72000 3.178
92.74000 3.745
92.76000 4.305
92.78000 2.644
92.80000 4.878
92.82000 2.939
92.84000 5.764
92.86000 4.966
92.88000 2.308
92.90000 2.599
92.92000 2.020
92.94000 3.549
92.96000 2.960
92.98000 3.213
93.00000 2.198
93.02000 3.797
93.04000 2.905
93.06000 0.091
93.08000 -0.046
93.10000 3.267
93.12000 2.537
93.14000 -0.542
93.16000 1.887
93.18000 3.900
93.20000 2.098
93.22000 -0.567
93.24000 1.227
93.26000 2.293
93.28000 1.449
93.30000 1.225
93.32000 3.510
93.34000 -0.682
93.36000 -0.159
93.38000 0.408
93.40000 0.305
93.42000 3.458
93.44000 1.822
93.46000 1.596
93.48000 2.850
93.50000 3.403
93.52000 1.676
93.54000 0.309
93.56000 3.202
93.58000 2.248
93.60000 2.327
93.62000 2.667
93.64000 0.503
93.66000 -0.074
93.68000 2.206
93.70000 1.246
93.72000 1.129
93.74000 2.244
93.76000 3.295
93.78000 1.482
93.80000 3.003
93.82000 3.403
93.84000 2.338
93.86000 2.686
93.88000 4.054
93.90000 2.776
93.92000 1.890
93.94000 2.106
93.96000 0.867
93.98000 1.268
94.00000 0.845
94.02000 -0.488
94.04000 -1.814
94.06000 1.296
94.08000 3.386
94.10000 5.275
94.12000 5.124
94.14000 6.175
94.16000 2.400
94.18000 0.562
94.20000 -0.215
94.22000 -0.374
94.24000 1.430
94.26000 2.097
94.28000 2.548
94.30000 2.695
94.32000 1.439
94.34000 0.651
94.36000 2.837
94.38000 3.088
94.40000 1.104
94.42000 4.003
94.44000 4.845
94.46000 3.173
94.48000 1.495
94.50000 1.993
94.52000 1.605
94.54000 1.929
94.56000 -0.005
94.58000 2.237
94.60000 -0.180
94.62000 2.541
94.64000 4.033
94.66000 2.082
94.68000 4.265
94.70000 4.449
94.72000 2.859
94.74000 0.381
94.76000 0.098
94.78000 -1.853
94.80000 0.493
94.82000 1.682
94.84000 2.855
94.86000 1.134
94.88000 0.834
94.90000 2.707
94.92000 1.657
94.94000 1.953
94.96000 0.421
94.98000 1.734
95.00000 1.048
95.02000 1.742
95.04000 2.881
95.06000 3.100
95.08000 1.423
95.10000 2.487
95.12000 4.223
95.14000 2.357
95.16000 2.997
95.18000 1.728
95.20000 -1.345
95.22000 0.850
95.24000 0.513
95.26000 1.976
95.28000 5.424
95.30000 6.040
95.32000 3.769
95.34000 2.748
95.36000 -0.328
95.38000 0.581
95.40000 1.467
95.42000 2.104
95.44000 4.647
95.46000 2.847
95.48000 0.606
95.50000 3.599
95.52000 2.734
95.54000 1.371
95.56000 -0.107
95.58000 1.301
95.60000 2.207
95.62000 4.036
95.64000 0.789
95.66000 -1.294
95.68000 1.415
95.70000 1.470
95.72000 0.991
95.74000 0.137
95.76000 2.076
95.78000 5.880
95.80000 3.538
95.82000 3.702
95.84000 3.856
95.86000 4.243
95.88000 1.191
95.90000 4.870
95.92000 4.564
95.94000 2.316
95.96000 0.738
95.98000 1.140
96.00000 1.938
96.02000 -0.071
96.04000 -1.856
96.06000 -0.789
96.08000 -0.365
96.10000 1.802
96.12000 1.003
96.14000 -0.448
96.16000 1.511
96.18000 6.080
96.20000 2.932
96.22000 2.904
96.24000 3.208
96.26000 5.927
96.28000 6.268
96.30000 0.214
96.32000 -1.641
96.34000 2.252
96.36000 1.756
96.38000 -0.693
96.40000 2.446
96.42000 1.345
96.44000 -1.119
96.46000 0.332
96.48000 1.095
96.50000 3.510
96.52000 0.083
96.54000 2.483
96.56000 8.039
96.58000 6.567
96.60000 2.832
96.62000 3.632
96.64000 3.794
96.66000 1.035
96.68000 -0.902
96.70000 2.745
96.72000 3.534
96.74000 1.728
96.76000 1.077
96.78000 2.378
96.80000 3.544
96.82000 5.271
96.84000 5.595
96.86000 1.963
96.88000 2.416
96.90000 5.155
96.92000 5.719
96.94000 5.273
96.96000 4.598
96.98000 5.132
97.00000 3.518
97.02000 3.312
97.04000 2.894
97.06000 8.021
97.08000 8.106
97.10000 2.172
97.12000 3.342
97.14000 1.871
97.16000 -0.921
97.18000 -1.803
97.20000 0.265
97.22000 6.140
97.24000 3.283
97.26000 3.395
97.28000 4.986
97.30000 8.505
97.32000 8.954
97.34000 7.810
97.36000 6.160
97.38000 2.595
97.40000 2.430
97.42000 3.200
97.44000 3.249
97.46000 4.872
97.48000 4.849
97.50000 3.100
97.52000 2.956
97.54000 3.769
97.56000 8.436
97.58000 10.524
97.60000 7.454
97.62000 2.658
97.64000 7.136
97.66000 8.102
97.68000 4.990
97.70000 7.308
97.72000 8.460
97.74000 5.102
97.76000 -1.108
97.78000 -1.754
97.80000 2.772
97.82000 2.528
97.84000 3.182
97.86000 7.008
97.88000 9.165
97.90000 8.340
97.92000 4.007
97.94000 5.360
97.96000 5.374
97.98000 8.864
98.00000 6.101
98.02000 4.560
98.04000 5.439
98.06000 5.168
98.08000 4.883
98.10000 2.791
98.12000 2.836
98.14000 3.129
98.16000 3.183
98.18000 5.340
98.20000 2.163
98.22000 0.209
98.24000 4.259
98.26000 -0.696
98.28000 2.074
98.30000 6.014
98.32000 4.854
98.34000 -0.235
98.36000 4.723
98.38000 6.403
98.40000 1.462
98.42000 2.822
98.44000 1.772
98.46000 3.622
98.48000 6.856
98.50000 6.391
98.52000 7.197
98.54000 3.391
98.56000 1.992
98.58000 0.083
98.60000 -0.320
98.62000 2.092
98.64000 8.113
98.66000 9.263
98.68000 4.850
98.70000 1.154
98.72000 2.232
98.74000 -1.310
98.76000 2.124
98.78000 6.300
98.80000 5.346
98.82000 2.120
98.84000 2.043
98.86000 2.236
98.88000 2.200
98.90000 2.234
98.92000 3.604
98.94000 2.437
98.96000 3.012
98.98000 4.269
99.00000 4.895
99.02000 4.643
99.04000 10.467
99.06000 3.401
99.08000 1.281
99.10000 8.461
99.12000 9.905
99.14000 11.489
99.16000 6.106
99.18000 1.114
99.20000 5.923
99.22000 4.511
99.24000 0.520
99.26000 0.563
99.28000 0.995
99.30000 4.689
99.32000 9.353
99.34000 8.041
99.36000 4.701
99.38000 4.735
99.40000 3.068
99.42000 2.971
99.44000 8.746
99.46000 8.294
99.48000 10.386
99.50000 10.868
99.52000 7.225
99.54000 5.476
99.56000 1.270
99.58000 1.859
99.60000 4.804
99.62000 5.821
99.64000 7.102
99.66000 3.764
99.68000 4.893
99.70000 -1.762
99.72000 1.915
99.74000 2.902
99.76000 7.325
99.78000 11.711
99.80000 9.236
99.82000 8.024
99.84000 10.903
99.86000 3.014
99.88000 0.180
99.90000 1.539
99.92000 -3.262
99.94000 6.447
99.96000 -1.911
99.98000 0.000
