'Id: "0011389" Comment: "Integrate frame 0011389_Au-Ir-Rh_Au-Rich_XRD_Mapping-016-0000.gfrmwith cursor Wedge Cursor #5" Operator: "B?rgel" Anode: "Cu" Wavelength: "1.5406" Scantype: "2Theta (TwoTheta)" TimePerStep: "1" X: "-4.5" Y: "-36" Z: "5.95" 
10.00000 0.000
10.02000 -4.411
10.04000 -3.473
10.06000 11.484
10.08000 0.057
10.10000 -3.000
10.12000 9.065
10.14000 5.657
10.16000 6.033
10.18000 0.243
10.20000 3.916
10.22000 10.644
10.24000 22.261
10.26000 21.592
10.28000 6.341
10.30000 16.087
10.32000 10.613
10.34000 6.377
10.36000 -5.335
10.38000 14.436
10.40000 19.267
10.42000 20.796
10.44000 11.601
10.46000 15.928
10.48000 6.770
10.50000 0.310
10.52000 11.494
10.54000 5.854
10.56000 0.003
10.58000 8.398
10.60000 16.224
10.62000 9.945
10.64000 -0.253
10.66000 2.795
10.68000 7.887
10.70000 7.310
10.72000 6.129
10.74000 -0.229
10.76000 -0.204
10.78000 2.469
10.80000 16.204
10.82000 1.740
10.84000 8.365
10.86000 11.844
10.88000 2.996
10.90000 10.223
10.92000 19.810
10.94000 15.175
10.96000 28.376
10.98000 27.208
11.00000 27.350
11.02000 9.174
11.04000 0.607
11.06000 10.138
11.08000 16.043
11.10000 19.283
11.12000 10.872
11.14000 9.444
11.16000 18.082
11.18000 19.579
11.20000 14.084
11.22000 12.149
11.24000 10.374
11.26000 14.289
11.28000 18.426
11.30000 27.066
11.32000 18.438
11.34000 5.270
11.36000 6.708
11.38000 7.737
11.40000 12.301
11.42000 14.555
11.44000 11.358
11.46000 10.760
11.48000 7.975
11.50000 8.517
11.52000 10.593
11.54000 -7.365
11.56000 10.578
11.58000 24.909
11.60000 20.820
11.62000 24.433
11.64000 24.570
11.66000 15.128
11.68000 17.326
11.70000 12.737
11.72000 19.861
11.74000 25.537
11.76000 21.193
11.78000 16.041
11.80000 13.720
11.82000 16.781
11.84000 10.363
11.86000 16.776
11.88000 19.061
11.90000 16.679
11.92000 23.134
11.94000 24.200
11.96000 20.113
11.98000 22.346
12.00000 12.091
12.02000 8.825
12.04000 13.395
12.06000 15.237
12.08000 10.304
12.10000 4.540
12.12000 12.022
12.14000 23.016
12.16000 8.860
12.18000 4.231
12.20000 8.292
12.22000 1.050
12.24000 12.863
12.26000 16.202
12.28000 23.635
12.30000 15.202
12.32000 5.231
12.34000 13.319
12.36000 21.410
12.38000 17.990
12.40000 18.334
12.42000 13.995
12.44000 12.468
12.46000 18.087
12.48000 20.098
12.50000 13.780
12.52000 11.525
12.54000 17.032
12.56000 13.788
12.58000 19.254
12.60000 17.681
12.62000 17.701
12.64000 7.079
12.66000 -1.226
12.68000 -1.181
12.70000 -4.426
12.72000 -1.053
12.74000 7.860
12.76000 12.387
12.78000 8.323
12.80000 5.735
12.82000 11.973
12.84000 13.639
12.86000 20.399
12.88000 7.190
12.90000 6.331
12.92000 0.788
12.94000 0.386
12.96000 6.671
12.98000 6.495
13.00000 6.225
13.02000 20.438
13.04000 16.956
13.06000 2.837
13.08000 4.966
13.10000 4.652
13.12000 10.273
13.14000 9.123
13.16000 9.194
13.18000 0.064
13.20000 7.659
13.22000 14.965
13.24000 8.514
13.26000 2.803
13.28000 5.857
13.30000 1.623
13.32000 -3.387
13.34000 7.001
13.36000 13.793
13.38000 14.172
13.40000 16.113
13.42000 12.559
13.44000 10.903
13.46000 9.707
13.48000 5.045
13.50000 12.264
13.52000 10.062
13.54000 6.655
13.56000 2.030
13.58000 11.132
13.60000 8.331
13.62000 -0.518
13.64000 3.288
13.66000 3.943
13.68000 5.036
13.70000 5.091
13.72000 11.879
13.74000 10.211
13.76000 4.908
13.78000 10.811
13.80000 10.830
13.82000 3.895
13.84000 4.465
13.86000 8.045
13.88000 7.062
13.90000 9.895
13.92000 8.002
13.94000 5.542
13.96000 15.098
13.98000 5.703
14.00000 3.610
14.02000 13.561
14.04000 4.324
14.06000 -1.058
14.08000 5.385
14.10000 8.158
14.12000 -0.159
14.14000 -4.159
14.16000 -1.081
14.18000 2.275
14.20000 -0.491
14.22000 8.045
14.24000 7.799
14.26000 7.924
14.28000 17.517
14.30000 15.065
14.32000 11.486
14.34000 13.661
14.36000 17.616
14.38000 8.481
14.40000 0.216
14.42000 1.747
14.44000 14.940
14.46000 11.118
14.48000 -4.440
14.50000 -0.352
14.52000 6.163
14.54000 5.645
14.56000 6.328
14.58000 8.632
14.60000 7.488
14.62000 14.811
14.64000 12.383
14.66000 2.978
14.68000 0.674
14.70000 5.534
14.72000 11.859
14.74000 3.168
14.76000 8.247
14.78000 7.587
14.80000 5.153
14.82000 11.445
14.84000 11.634
14.86000 7.172
14.88000 6.443
14.90000 -1.740
14.92000 -0.889
14.94000 7.669
14.96000 8.853
14.98000 6.662
15.00000 -0.536
15.02000 -2.730
15.04000 3.310
15.06000 0.356
15.08000 -1.094
15.10000 -0.461
15.12000 1.178
15.14000 3.134
15.16000 1.388
15.18000 3.512
15.20000 5.593
15.22000 8.403
15.24000 1.563
15.26000 9.885
15.28000 13.108
15.30000 15.454
15.32000 8.434
15.34000 -0.098
15.36000 -1.616
15.38000 0.517
15.40000 -0.032
15.42000 -0.134
15.44000 1.157
15.46000 7.011
15.48000 6.800
15.50000 -2.867
15.52000 6.805
15.54000 0.806
15.56000 4.288
15.58000 -0.940
15.60000 3.205
15.62000 2.034
15.64000 5.899
15.66000 10.146
15.68000 8.877
15.70000 9.912
15.72000 11.071
15.74000 4.335
15.76000 -0.304
15.78000 2.905
15.80000 6.827
15.82000 8.471
15.84000 8.026
15.86000 9.920
15.88000 7.566
15.90000 2.145
15.92000 3.529
15.94000 5.388
15.96000 1.818
15.98000 11.539
16.00000 7.813
16.02000 -2.154
16.04000 -4.381
16.06000 -1.208
16.08000 6.464
16.10000 3.935
16.12000 4.041
16.14000 5.214
16.16000 -0.798
16.18000 0.504
16.20000 10.506
16.22000 4.122
16.24000 5.490
16.26000 3.711
16.28000 7.196
16.30000 6.911
16.32000 3.814
16.34000 2.639
16.36000 0.185
16.38000 0.025
16.40000 3.552
16.42000 -0.062
16.44000 1.968
16.46000 5.185
16.48000 3.403
16.50000 -0.001
16.52000 7.319
16.54000 6.636
16.56000 4.271
16.58000 4.329
16.60000 9.359
16.62000 6.488
16.64000 11.125
16.66000 10.123
16.68000 4.752
16.70000 12.643
16.72000 13.042
16.74000 2.191
16.76000 2.435
16.78000 -4.356
16.80000 2.662
16.82000 8.165
16.84000 11.237
16.86000 10.546
16.88000 5.080
16.90000 -0.924
16.92000 5.606
16.94000 5.463
16.96000 4.268
16.98000 10.389
17.00000 6.467
17.02000 4.724
17.04000 -1.539
17.06000 2.427
17.08000 2.059
17.10000 4.015
17.12000 16.821
17.14000 11.844
17.16000 14.743
17.18000 14.854
17.20000 17.635
17.22000 13.984
17.24000 7.705
17.26000 3.236
17.28000 7.483
17.30000 12.678
17.32000 7.571
17.34000 3.743
17.36000 7.637
17.38000 14.509
17.40000 13.183
17.42000 10.122
17.44000 10.398
17.46000 10.920
17.48000 13.748
17.50000 12.946
17.52000 12.160
17.54000 2.990
17.56000 -1.035
17.58000 2.767
17.60000 9.135
17.62000 11.564
17.64000 13.460
17.66000 12.635
17.68000 2.306
17.70000 7.492
17.72000 4.456
17.74000 5.294
17.76000 7.613
17.78000 5.532
17.80000 5.695
17.82000 5.810
17.84000 4.892
17.86000 3.340
17.88000 6.649
17.90000 6.988
17.92000 11.480
17.94000 3.935
17.96000 6.942
17.98000 5.388
18.00000 3.972
18.02000 2.783
18.04000 6.963
18.06000 12.753
18.08000 11.482
18.10000 9.164
18.12000 11.321
18.14000 2.521
18.16000 -1.807
18.18000 -4.215
18.20000 -3.121
18.22000 2.362
18.24000 8.046
18.26000 7.838
18.28000 14.050
18.30000 14.720
18.32000 12.735
18.34000 8.445
18.36000 13.515
18.38000 14.547
18.40000 7.931
18.42000 8.159
18.44000 8.416
18.46000 5.415
18.48000 6.419
18.50000 5.606
18.52000 3.494
18.54000 5.875
18.56000 4.676
18.58000 2.081
18.60000 4.848
18.62000 8.902
18.64000 5.118
18.66000 6.427
18.68000 3.987
18.70000 6.394
18.72000 6.574
18.74000 9.530
18.76000 -1.649
18.78000 5.091
18.80000 7.721
18.82000 1.861
18.84000 1.487
18.86000 5.563
18.88000 2.498
18.90000 6.389
18.92000 14.670
18.94000 11.930
18.96000 4.817
18.98000 0.444
19.00000 11.733
19.02000 11.266
19.04000 2.553
19.06000 -2.123
19.08000 -2.163
19.10000 5.158
19.12000 9.777
19.14000 6.477
19.16000 2.828
19.18000 10.642
19.20000 10.298
19.22000 8.935
19.24000 8.997
19.26000 8.427
19.28000 4.937
19.30000 5.782
19.32000 9.530
19.34000 7.586
19.36000 9.919
19.38000 10.334
19.40000 9.897
19.42000 9.721
19.44000 2.616
19.46000 -1.877
19.48000 6.573
19.50000 7.855
19.52000 9.356
19.54000 14.646
19.56000 13.148
19.58000 7.160
19.60000 8.530
19.62000 -2.929
19.64000 -4.119
19.66000 2.985
19.68000 2.999
19.70000 10.999
19.72000 8.393
19.74000 2.406
19.76000 5.536
19.78000 10.278
19.80000 9.165
19.82000 0.926
19.84000 0.019
19.86000 5.396
19.88000 8.986
19.90000 3.079
19.92000 4.332
19.94000 -2.839
19.96000 -4.153
19.98000 4.258
20.00000 7.239
20.02000 5.320
20.04000 11.454
20.06000 15.182
20.08000 11.326
20.10000 4.158
20.12000 -0.074
20.14000 1.424
20.16000 8.084
20.18000 10.833
20.20000 13.145
20.22000 6.710
20.24000 5.044
20.26000 3.857
20.28000 7.513
20.30000 7.155
20.32000 7.428
20.34000 4.827
20.36000 4.935
20.38000 10.835
20.40000 7.050
20.42000 0.402
20.44000 -0.550
20.46000 3.934
20.48000 8.582
20.50000 5.012
20.52000 4.525
20.54000 6.960
20.56000 5.575
20.58000 -0.853
20.60000 1.552
20.62000 5.464
20.64000 4.460
20.66000 5.286
20.68000 6.219
20.70000 2.610
20.72000 1.883
20.74000 2.451
20.76000 9.267
20.78000 3.991
20.80000 5.331
20.82000 8.647
20.84000 4.117
20.86000 8.716
20.88000 8.088
20.90000 7.150
20.92000 3.600
20.94000 2.116
20.96000 6.106
20.98000 6.200
21.00000 0.194
21.02000 -1.203
21.04000 2.257
21.06000 6.510
21.08000 3.377
21.10000 5.180
21.12000 9.918
21.14000 9.899
21.16000 4.967
21.18000 5.021
21.20000 3.848
21.22000 0.751
21.24000 4.983
21.26000 5.309
21.28000 7.675
21.30000 13.848
21.32000 9.402
21.34000 6.286
21.36000 2.214
21.38000 3.146
21.40000 2.039
21.42000 2.662
21.44000 1.568
21.46000 0.381
21.48000 -4.059
21.50000 1.844
21.52000 6.740
21.54000 9.502
21.56000 8.913
21.58000 9.095
21.60000 5.205
21.62000 1.821
21.64000 3.459
21.66000 5.763
21.68000 -1.283
21.70000 1.622
21.72000 5.393
21.74000 8.048
21.76000 3.890
21.78000 -3.115
21.80000 -0.549
21.82000 -1.395
21.84000 4.449
21.86000 5.146
21.88000 2.285
21.90000 4.373
21.92000 4.976
21.94000 2.593
21.96000 0.177
21.98000 -4.059
22.00000 -2.004
22.02000 3.256
22.04000 8.837
22.06000 2.027
22.08000 6.248
22.10000 4.343
22.12000 1.196
22.14000 2.115
22.16000 4.332
22.18000 -0.138
22.20000 -3.329
22.22000 -1.922
22.24000 3.083
22.26000 5.643
22.28000 -2.854
22.30000 -1.620
22.32000 1.410
22.34000 0.029
22.36000 4.640
22.38000 7.006
22.40000 6.606
22.42000 4.923
22.44000 3.939
22.46000 1.666
22.48000 -2.807
22.50000 -1.258
22.52000 1.766
22.54000 -1.501
22.56000 -2.473
22.58000 3.180
22.60000 -1.453
22.62000 0.989
22.64000 2.295
22.66000 5.313
22.68000 4.233
22.70000 0.986
22.72000 -3.690
22.74000 0.498
22.76000 -0.256
22.78000 -3.561
22.80000 3.338
22.82000 2.898
22.84000 -1.061
22.86000 -2.118
22.88000 2.449
22.90000 4.761
22.92000 1.839
22.94000 -2.199
22.96000 3.956
22.98000 2.118
23.00000 5.788
23.02000 3.919
23.04000 0.594
23.06000 3.857
23.08000 -1.439
23.10000 -2.086
23.12000 -0.581
23.14000 2.605
23.16000 7.695
23.18000 4.468
23.20000 0.392
23.22000 -1.093
23.24000 -3.349
23.26000 1.010
23.28000 2.828
23.30000 -1.078
23.32000 -0.727
23.34000 -1.926
23.36000 -1.718
23.38000 -0.764
23.40000 2.437
23.42000 5.734
23.44000 6.177
23.46000 -0.425
23.48000 -2.250
23.50000 4.026
23.52000 -2.817
23.54000 -3.154
23.56000 -2.155
23.58000 -2.379
23.60000 0.513
23.62000 -2.409
23.64000 -3.038
23.66000 2.611
23.68000 -2.061
23.70000 -0.691
23.72000 -2.786
23.74000 -3.984
23.76000 1.094
23.78000 3.378
23.80000 1.347
23.82000 -0.709
23.84000 -2.872
23.86000 -2.200
23.88000 1.356
23.90000 -2.003
23.92000 -1.815
23.94000 0.207
23.96000 2.933
23.98000 -3.732
24.00000 -0.738
24.02000 1.877
24.04000 -0.230
24.06000 6.170
24.08000 7.032
24.10000 -1.991
24.12000 -1.330
24.14000 1.973
24.16000 0.653
24.18000 1.950
24.20000 1.321
24.22000 3.287
24.24000 5.973
24.26000 1.675
24.28000 -0.890
24.30000 0.077
24.32000 4.029
24.34000 6.394
24.36000 5.603
24.38000 2.058
24.40000 1.115
24.42000 1.067
24.44000 1.412
24.46000 -0.851
24.48000 4.402
24.50000 7.484
24.52000 4.709
24.54000 -3.924
24.56000 -2.177
24.58000 0.533
24.60000 -0.001
24.62000 3.003
24.64000 -2.682
24.66000 0.905
24.68000 10.739
24.70000 7.719
24.72000 7.539
24.74000 7.360
24.76000 9.683
24.78000 7.427
24.80000 -3.377
24.82000 0.648
24.84000 8.564
24.86000 13.466
24.88000 15.671
24.90000 6.488
24.92000 2.457
24.94000 6.551
24.96000 9.233
24.98000 4.712
25.00000 -0.441
25.02000 1.625
25.04000 3.820
25.06000 9.806
25.08000 6.188
25.10000 3.581
25.12000 1.116
25.14000 7.638
25.16000 10.754
25.18000 10.230
25.20000 3.630
25.22000 2.531
25.24000 1.564
25.26000 4.314
25.28000 5.918
25.30000 3.154
25.32000 6.021
25.34000 -0.377
25.36000 -1.530
25.38000 -3.845
25.40000 4.447
25.42000 4.392
25.44000 1.064
25.46000 4.079
25.48000 3.062
25.50000 3.907
25.52000 7.597
25.54000 4.766
25.56000 3.856
25.58000 7.903
25.60000 6.722
25.62000 10.656
25.64000 10.181
25.66000 9.097
25.68000 5.244
25.70000 2.223
25.72000 3.509
25.74000 4.474
25.76000 11.799
25.78000 6.304
25.80000 3.972
25.82000 6.948
25.84000 3.284
25.86000 -1.189
25.88000 1.278
25.90000 3.001
25.92000 0.717
25.94000 4.569
25.96000 4.393
25.98000 6.903
26.00000 6.210
26.02000 3.792
26.04000 2.630
26.06000 5.890
26.08000 9.364
26.10000 7.052
26.12000 4.757
26.14000 2.860
26.16000 4.440
26.18000 5.118
26.20000 7.694
26.22000 8.834
26.24000 4.661
26.26000 8.721
26.28000 9.052
26.30000 3.282
26.32000 2.275
26.34000 1.215
26.36000 4.702
26.38000 7.821
26.40000 4.976
26.42000 0.795
26.44000 4.233
26.46000 3.843
26.48000 0.945
26.50000 5.132
26.52000 4.686
26.54000 4.904
26.56000 6.156
26.58000 0.401
26.60000 -2.694
26.62000 2.091
26.64000 0.390
26.66000 1.377
26.68000 3.720
26.70000 4.624
26.72000 2.154
26.74000 -3.494
26.76000 -3.806
26.78000 0.893
26.80000 8.472
26.82000 10.898
26.84000 4.765
26.86000 4.036
26.88000 3.120
26.90000 3.775
26.92000 1.758
26.94000 -1.933
26.96000 6.159
26.98000 7.381
27.00000 6.150
27.02000 3.161
27.04000 13.160
27.06000 7.141
27.08000 6.731
27.10000 7.332
27.12000 4.389
27.14000 4.198
27.16000 4.214
27.18000 7.290
27.20000 8.319
27.22000 5.950
27.24000 0.415
27.26000 4.322
27.28000 5.436
27.30000 -1.277
27.32000 1.938
27.34000 6.541
27.36000 4.288
27.38000 -0.330
27.40000 0.373
27.42000 0.453
27.44000 -2.077
27.46000 2.124
27.48000 9.858
27.50000 3.072
27.52000 3.092
27.54000 3.089
27.56000 6.709
27.58000 5.110
27.60000 6.799
27.62000 -0.924
27.64000 -1.774
27.66000 -3.742
27.68000 1.813
27.70000 2.279
27.72000 -0.827
27.74000 -0.930
27.76000 -1.668
27.78000 0.584
27.80000 1.297
27.82000 3.772
27.84000 4.616
27.86000 6.876
27.88000 1.891
27.90000 3.518
27.92000 4.020
27.94000 8.494
27.96000 8.176
27.98000 9.573
28.00000 3.748
28.02000 1.577
28.04000 2.402
28.06000 4.850
28.08000 1.567
28.10000 3.529
28.12000 3.672
28.14000 0.397
28.16000 1.116
28.18000 -0.251
28.20000 1.211
28.22000 1.997
28.24000 0.065
28.26000 5.243
28.28000 3.847
28.30000 8.461
28.32000 5.421
28.34000 1.092
28.36000 3.236
28.38000 5.124
28.40000 6.888
28.42000 5.646
28.44000 6.108
28.46000 -0.711
28.48000 -0.877
28.50000 3.485
28.52000 2.049
28.54000 2.246
28.56000 0.365
28.58000 2.535
28.60000 4.439
28.62000 3.088
28.64000 3.763
28.66000 8.256
28.68000 9.586
28.70000 4.358
28.72000 5.302
28.74000 6.986
28.76000 1.253
28.78000 1.194
28.80000 7.310
28.82000 7.095
28.84000 4.605
28.86000 0.289
28.88000 -1.163
28.90000 -1.884
28.92000 0.160
28.94000 -0.385
28.96000 -1.074
28.98000 1.541
29.00000 3.118
29.02000 5.643
29.04000 5.117
29.06000 2.090
29.08000 -3.689
29.10000 0.288
29.12000 1.592
29.14000 3.814
29.16000 3.705
29.18000 5.043
29.20000 6.973
29.22000 9.428
29.24000 0.954
29.26000 -3.139
29.28000 2.942
29.30000 0.617
29.32000 4.128
29.34000 4.599
29.36000 13.889
29.38000 13.164
29.40000 8.305
29.42000 4.272
29.44000 3.554
29.46000 5.391
29.48000 2.636
29.50000 4.863
29.52000 -0.674
29.54000 2.931
29.56000 1.026
29.58000 6.733
29.60000 4.422
29.62000 3.802
29.64000 -0.986
29.66000 -0.646
29.68000 -0.459
29.70000 -0.449
29.72000 0.520
29.74000 -2.896
29.76000 0.799
29.78000 0.051
29.80000 -3.278
29.82000 1.704
29.84000 2.775
29.86000 -0.706
29.88000 0.058
29.90000 1.842
29.92000 2.879
29.94000 4.769
29.96000 1.789
29.98000 -1.243
30.00000 -1.660
30.02000 0.995
30.04000 1.685
30.06000 2.406
30.08000 -2.867
30.10000 1.043
30.12000 -1.572
30.14000 -3.653
30.16000 2.452
30.18000 0.974
30.20000 0.563
30.22000 1.912
30.24000 1.853
30.26000 0.154
30.28000 0.925
30.30000 -0.587
30.32000 5.055
30.34000 3.137
30.36000 -0.297
30.38000 -2.244
30.40000 -0.504
30.42000 0.715
30.44000 2.366
30.46000 1.048
30.48000 5.787
30.50000 1.425
30.52000 -2.186
30.54000 0.844
30.56000 -0.853
30.58000 1.033
30.60000 4.147
30.62000 -2.048
30.64000 -3.632
30.66000 2.710
30.68000 1.268
30.70000 -0.729
30.72000 1.635
30.74000 1.304
30.76000 6.149
30.78000 2.778
30.80000 -0.983
30.82000 1.299
30.84000 7.928
30.86000 4.645
30.88000 0.774
30.90000 2.082
30.92000 2.170
30.94000 0.819
30.96000 -2.255
30.98000 -0.532
31.00000 -2.785
31.02000 1.384
31.04000 -0.733
31.06000 0.410
31.08000 -2.172
31.10000 1.485
31.12000 1.995
31.14000 1.192
31.16000 2.480
31.18000 3.172
31.20000 0.821
31.22000 -1.471
31.24000 -3.603
31.26000 4.379
31.28000 4.605
31.30000 3.303
31.32000 0.454
31.34000 5.959
31.36000 1.951
31.38000 2.145
31.40000 4.087
31.42000 4.682
31.44000 3.459
31.46000 -1.426
31.48000 -0.637
31.50000 1.008
31.52000 -0.373
31.54000 1.524
31.56000 0.124
31.58000 3.612
31.60000 5.490
31.62000 1.042
31.64000 -1.511
31.66000 -0.485
31.68000 0.304
31.70000 -1.289
31.72000 1.278
31.74000 0.979
31.76000 3.428
31.78000 4.195
31.80000 1.031
31.82000 2.623
31.84000 5.274
31.86000 3.570
31.88000 -0.941
31.90000 -1.763
31.92000 1.264
31.94000 4.263
31.96000 1.240
31.98000 0.529
32.00000 5.166
32.02000 3.468
32.04000 4.173
32.06000 -1.651
32.08000 -1.727
32.10000 0.226
32.12000 -1.616
32.14000 -2.968
32.16000 -3.571
32.18000 0.604
32.20000 1.558
32.22000 3.320
32.24000 -3.062
32.26000 -2.946
32.28000 -1.466
32.30000 -3.230
32.32000 -2.210
32.34000 -0.059
32.36000 0.794
32.38000 3.541
32.40000 -2.047
32.42000 2.803
32.44000 4.744
32.46000 2.784
32.48000 -3.551
32.50000 0.782
32.52000 -0.880
32.54000 -0.279
32.56000 2.106
32.58000 4.812
32.60000 3.435
32.62000 2.939
32.64000 -2.735
32.66000 -3.397
32.68000 1.980
32.70000 1.527
32.72000 -0.997
32.74000 5.483
32.76000 5.993
32.78000 -1.799
32.80000 -3.548
32.82000 2.971
32.84000 -1.516
32.86000 -2.391
32.88000 2.731
32.90000 1.935
32.92000 3.952
32.94000 4.090
32.96000 4.078
32.98000 4.768
33.00000 0.310
33.02000 -1.419
33.04000 4.373
33.06000 -1.434
33.08000 -1.100
33.10000 -0.761
33.12000 -0.700
33.14000 -0.966
33.16000 0.807
33.18000 1.254
33.20000 1.700
33.22000 1.177
33.24000 -3.450
33.26000 -1.377
33.28000 6.544
33.30000 4.947
33.32000 4.820
33.34000 1.895
33.36000 -3.531
33.38000 -0.192
33.40000 6.864
33.42000 4.592
33.44000 4.840
33.46000 5.714
33.48000 4.856
33.50000 1.962
33.52000 2.117
33.54000 4.784
33.56000 3.475
33.58000 2.073
33.60000 4.698
33.62000 3.184
33.64000 1.835
33.66000 1.664
33.68000 3.130
33.70000 2.189
33.72000 0.741
33.74000 -0.898
33.76000 -1.495
33.78000 -0.180
33.80000 6.053
33.82000 3.541
33.84000 -2.010
33.86000 -0.013
33.88000 3.356
33.90000 4.918
33.92000 4.248
33.94000 3.278
33.96000 3.964
33.98000 -0.387
34.00000 3.392
34.02000 2.626
34.04000 3.112
34.06000 3.072
34.08000 3.021
34.10000 -0.148
34.12000 0.558
34.14000 3.352
34.16000 4.920
34.18000 7.442
34.20000 6.633
34.22000 6.052
34.24000 4.851
34.26000 3.180
34.28000 5.258
34.30000 1.464
34.32000 -2.372
34.34000 -1.964
34.36000 -0.692
34.38000 2.921
34.40000 1.974
34.42000 3.314
34.44000 2.883
34.46000 -0.251
34.48000 -0.847
34.50000 -1.085
34.52000 -1.307
34.54000 -0.240
34.56000 -0.242
34.58000 -0.519
34.60000 2.751
34.62000 2.585
34.64000 0.610
34.66000 1.034
34.68000 1.211
34.70000 -2.517
34.72000 2.099
34.74000 1.523
34.76000 3.076
34.78000 2.781
34.80000 -0.507
34.82000 1.862
34.84000 4.925
34.86000 4.689
34.88000 5.233
34.90000 5.078
34.92000 0.298
34.94000 0.892
34.96000 -1.266
34.98000 -2.052
35.00000 -0.305
35.02000 -2.554
35.04000 -3.506
35.06000 2.839
35.08000 0.227
35.10000 2.256
35.12000 -1.717
35.14000 -0.155
35.16000 0.919
35.18000 -0.717
35.20000 1.959
35.22000 2.053
35.24000 0.786
35.26000 0.842
35.28000 6.129
35.30000 4.703
35.32000 4.553
35.34000 7.679
35.36000 3.917
35.38000 4.033
35.40000 7.793
35.42000 1.956
35.44000 -1.201
35.46000 5.598
35.48000 3.630
35.50000 5.169
35.52000 2.548
35.54000 3.080
35.56000 6.000
35.58000 2.741
35.60000 3.255
35.62000 -2.151
35.64000 0.935
35.66000 -0.025
35.68000 4.543
35.70000 3.729
35.72000 8.225
35.74000 4.247
35.76000 2.034
35.78000 0.774
35.80000 2.568
35.82000 4.573
35.84000 4.135
35.86000 5.680
35.88000 8.890
35.90000 7.156
35.92000 5.996
35.94000 1.255
35.96000 -0.466
35.98000 -3.459
36.00000 0.306
36.02000 0.098
36.04000 4.557
36.06000 6.908
36.08000 7.143
36.10000 6.376
36.12000 3.942
36.14000 4.650
36.16000 3.536
36.18000 1.810
36.20000 4.332
36.22000 6.472
36.24000 6.006
36.26000 4.136
36.28000 2.638
36.30000 0.301
36.32000 -0.276
36.34000 -0.505
36.36000 4.380
36.38000 1.828
36.40000 1.130
36.42000 4.503
36.44000 4.336
36.46000 1.700
36.48000 3.533
36.50000 4.034
36.52000 8.074
36.54000 11.394
36.56000 5.973
36.58000 2.962
36.60000 9.160
36.62000 6.141
36.64000 7.065
36.66000 5.796
36.68000 -2.313
36.70000 -3.507
36.72000 5.943
36.74000 9.293
36.76000 5.228
36.78000 7.536
36.80000 10.554
36.82000 4.351
36.84000 5.046
36.86000 1.741
36.88000 -1.065
36.90000 4.387
36.92000 -1.329
36.94000 -2.463
36.96000 3.120
36.98000 0.098
37.00000 -3.535
37.02000 -2.762
37.04000 1.491
37.06000 2.071
37.08000 2.024
37.10000 1.728
37.12000 1.629
37.14000 0.492
37.16000 -0.371
37.18000 0.354
37.20000 4.794
37.22000 5.498
37.24000 1.991
37.26000 5.396
37.28000 6.015
37.30000 4.379
37.32000 9.629
37.34000 7.256
37.36000 5.581
37.38000 6.173
37.40000 5.875
37.42000 5.701
37.44000 6.199
37.46000 2.944
37.48000 4.085
37.50000 7.506
37.52000 8.249
37.54000 7.628
37.56000 10.147
37.58000 9.642
37.60000 3.689
37.62000 2.612
37.64000 4.959
37.66000 11.016
37.68000 11.655
37.70000 7.843
37.72000 7.021
37.74000 9.636
37.76000 12.630
37.78000 10.858
37.80000 12.299
37.82000 10.374
37.84000 9.962
37.86000 15.433
37.88000 14.417
37.90000 12.296
37.92000 11.196
37.94000 11.474
37.96000 12.999
37.98000 12.229
38.00000 13.362
38.02000 15.726
38.04000 17.339
38.06000 16.395
38.08000 22.447
38.10000 20.378
38.12000 21.133
38.14000 29.324
38.16000 24.113
38.18000 22.342
38.20000 25.856
38.22000 21.145
38.24000 24.072
38.26000 28.210
38.28000 22.240
38.30000 16.441
38.32000 22.697
38.34000 22.912
38.36000 24.047
38.38000 24.621
38.40000 27.733
38.42000 28.847
38.44000 30.442
38.46000 28.544
38.48000 36.416
38.50000 35.180
38.52000 32.833
38.54000 37.011
38.56000 36.012
38.58000 37.366
38.60000 40.985
38.62000 41.804
38.64000 45.842
38.66000 45.242
38.68000 56.496
38.70000 60.009
38.72000 54.637
38.74000 47.017
38.76000 52.258
38.78000 60.873
38.80000 56.011
38.82000 64.292
38.84000 63.946
38.86000 70.911
38.88000 66.295
38.90000 71.053
38.92000 77.937
38.94000 79.592
38.96000 85.709
38.98000 89.264
39.00000 93.121
39.02000 92.500
39.04000 98.313
39.06000 106.984
39.08000 111.810
39.10000 117.087
39.12000 121.059
39.14000 129.970
39.16000 133.500
39.18000 137.127
39.20000 154.618
39.22000 161.498
39.24000 171.473
39.26000 180.301
39.28000 188.671
39.30000 197.245
39.32000 211.362
39.34000 223.171
39.36000 236.829
39.38000 248.900
39.40000 268.177
39.42000 281.055
39.44000 297.327
39.46000 317.016
39.48000 336.713
39.50000 355.616
39.52000 377.619
39.54000 396.891
39.56000 419.941
39.58000 444.691
39.60000 474.965
39.62000 486.902
39.64000 514.562
39.66000 539.334
39.68000 565.486
39.70000 592.377
39.72000 614.631
39.74000 632.355
39.76000 651.773
39.78000 667.911
39.80000 691.767
39.82000 709.829
39.84000 718.381
39.86000 722.384
39.88000 743.318
39.90000 754.454
39.92000 747.743
39.94000 754.414
39.96000 745.288
39.98000 743.088
40.00000 725.636
40.02000 713.924
40.04000 707.469
40.06000 692.768
40.08000 671.946
40.10000 653.510
40.12000 639.683
40.14000 611.319
40.16000 586.182
40.18000 554.337
40.20000 541.145
40.22000 519.868
40.24000 500.589
40.26000 487.497
40.28000 466.351
40.30000 431.589
40.32000 421.018
40.34000 396.562
40.36000 368.637
40.38000 352.433
40.40000 322.919
40.42000 308.443
40.44000 293.061
40.46000 267.362
40.48000 247.001
40.50000 234.456
40.52000 219.062
40.54000 204.177
40.56000 194.699
40.58000 185.215
40.60000 177.202
40.62000 158.875
40.64000 150.241
40.66000 142.586
40.68000 134.036
40.70000 123.405
40.72000 115.573
40.74000 115.421
40.76000 111.404
40.78000 104.254
40.80000 100.368
40.82000 89.130
40.84000 80.471
40.86000 75.017
40.88000 70.293
40.90000 66.945
40.92000 63.380
40.94000 56.740
40.96000 53.342
40.98000 54.194
41.00000 52.027
41.02000 53.858
41.04000 48.250
41.06000 44.796
41.08000 43.982
41.10000 38.983
41.12000 39.632
41.14000 36.006
41.16000 32.966
41.18000 28.521
41.20000 31.446
41.22000 31.465
41.24000 27.637
41.26000 26.623
41.28000 24.873
41.30000 20.019
41.32000 17.422
41.34000 21.214
41.36000 22.683
41.38000 20.995
41.40000 16.909
41.42000 17.219
41.44000 20.141
41.46000 17.645
41.48000 14.998
41.50000 11.857
41.52000 10.501
41.54000 14.683
41.56000 14.864
41.58000 10.110
41.60000 10.610
41.62000 12.230
41.64000 15.855
41.66000 8.352
41.68000 10.976
41.70000 6.634
41.72000 6.068
41.74000 13.645
41.76000 8.661
41.78000 8.341
41.80000 10.619
41.82000 7.862
41.84000 6.006
41.86000 5.768
41.88000 7.041
41.90000 6.512
41.92000 10.077
41.94000 8.482
41.96000 4.908
41.98000 1.351
42.00000 4.228
42.02000 3.273
42.04000 3.873
42.06000 3.205
42.08000 1.112
42.10000 0.201
42.12000 1.442
42.14000 5.349
42.16000 3.605
42.18000 4.126
42.20000 0.950
42.22000 0.114
42.24000 4.579
42.26000 6.371
42.28000 2.815
42.30000 6.712
42.32000 5.130
42.34000 3.038
42.36000 4.523
42.38000 2.843
42.40000 2.886
42.42000 1.671
42.44000 3.162
42.46000 4.016
42.48000 7.596
42.50000 4.763
42.52000 5.376
42.54000 2.543
42.56000 2.660
42.58000 4.332
42.60000 0.774
42.62000 -1.030
42.64000 1.221
42.66000 1.698
42.68000 -3.300
42.70000 -0.650
42.72000 1.850
42.74000 2.618
42.76000 2.643
42.78000 2.720
42.80000 1.013
42.82000 3.882
42.84000 3.019
42.86000 2.889
42.88000 1.197
42.90000 2.855
42.92000 1.912
42.94000 -0.202
42.96000 -0.111
42.98000 -0.067
43.00000 0.642
43.02000 0.219
43.04000 0.525
43.06000 3.016
43.08000 2.190
43.10000 -0.019
43.12000 1.745
43.14000 0.632
43.16000 -0.208
43.18000 -2.419
43.20000 1.557
43.22000 -1.178
43.24000 0.537
43.26000 2.871
43.28000 3.154
43.30000 -0.605
43.32000 -0.753
43.34000 1.568
43.36000 2.576
43.38000 -3.220
43.40000 -1.415
43.42000 0.888
43.44000 0.211
43.46000 2.540
43.48000 1.275
43.50000 0.530
43.52000 1.876
43.54000 2.649
43.56000 6.547
43.58000 6.554
43.60000 0.666
43.62000 2.292
43.64000 2.195
43.66000 1.729
43.68000 -1.834
43.70000 -0.176
43.72000 2.726
43.74000 0.024
43.76000 1.129
43.78000 -0.512
43.80000 4.089
43.82000 3.519
43.84000 1.135
43.86000 -2.111
43.88000 -1.984
43.90000 -3.185
43.92000 -2.434
43.94000 -2.298
43.96000 -2.262
43.98000 0.356
44.00000 -0.579
44.02000 0.213
44.04000 0.430
44.06000 -3.172
44.08000 -0.319
44.10000 -0.816
44.12000 4.935
44.14000 1.314
44.16000 3.119
44.18000 1.407
44.20000 -0.415
44.22000 1.753
44.24000 1.422
44.26000 0.388
44.28000 2.079
44.30000 0.081
44.32000 3.289
44.34000 -1.163
44.36000 -0.302
44.38000 0.084
44.40000 -2.836
44.42000 -2.827
44.44000 0.607
44.46000 0.883
44.48000 0.418
44.50000 -1.671
44.52000 -1.397
44.54000 0.515
44.56000 0.300
44.58000 0.936
44.60000 2.956
44.62000 0.321
44.64000 -0.831
44.66000 -0.319
44.68000 2.791
44.70000 -0.997
44.72000 -2.239
44.74000 -2.054
44.76000 -0.610
44.78000 0.493
44.80000 -1.642
44.82000 -3.169
44.84000 -0.901
44.86000 1.498
44.88000 3.394
44.90000 -1.745
44.92000 -0.398
44.94000 1.380
44.96000 1.521
44.98000 1.748
45.00000 1.932
45.02000 0.340
45.04000 -0.365
45.06000 1.663
45.08000 0.266
45.10000 2.752
45.12000 3.027
45.14000 5.549
45.16000 1.361
45.18000 6.037
45.20000 5.992
45.22000 3.926
45.24000 6.536
45.26000 3.533
45.28000 10.154
45.30000 6.602
45.32000 2.106
45.34000 6.290
45.36000 7.201
45.38000 6.955
45.40000 3.564
45.42000 4.474
45.44000 6.127
45.46000 7.061
45.48000 9.588
45.50000 11.300
45.52000 11.996
45.54000 7.244
45.56000 8.926
45.58000 12.821
45.60000 12.964
45.62000 9.222
45.64000 12.949
45.66000 19.420
45.68000 12.675
45.70000 15.466
45.72000 14.602
45.74000 17.535
45.76000 16.078
45.78000 21.399
45.80000 23.937
45.82000 26.532
45.84000 22.157
45.86000 19.673
45.88000 20.850
45.90000 23.978
45.92000 23.597
45.94000 24.121
45.96000 24.725
45.98000 29.440
46.00000 31.062
46.02000 31.798
46.04000 37.207
46.06000 37.814
46.08000 44.238
46.10000 46.515
46.12000 43.397
46.14000 45.070
46.16000 46.858
46.18000 44.611
46.20000 49.808
46.22000 54.703
46.24000 55.618
46.26000 54.013
46.28000 57.190
46.30000 59.591
46.32000 63.726
46.34000 63.665
46.36000 67.978
46.38000 68.421
46.40000 72.634
46.42000 75.472
46.44000 72.703
46.46000 68.867
46.48000 72.334
46.50000 72.809
46.52000 72.321
46.54000 75.889
46.56000 75.278
46.58000 74.521
46.60000 77.074
46.62000 77.419
46.64000 79.711
46.66000 80.078
46.68000 77.951
46.70000 75.767
46.72000 76.170
46.74000 80.499
46.76000 77.384
46.78000 76.610
46.80000 76.091
46.82000 74.623
46.84000 72.028
46.86000 67.746
46.88000 66.092
46.90000 65.573
46.92000 61.826
46.94000 64.149
46.96000 61.382
46.98000 59.664
47.00000 57.058
47.02000 53.073
47.04000 56.148
47.06000 52.284
47.08000 48.839
47.10000 45.248
47.12000 43.341
47.14000 44.803
47.16000 42.969
47.18000 38.291
47.20000 36.908
47.22000 36.510
47.24000 31.019
47.26000 30.551
47.28000 26.217
47.30000 24.641
47.32000 24.659
47.34000 24.223
47.36000 22.594
47.38000 18.538
47.40000 17.250
47.42000 20.395
47.44000 16.927
47.46000 15.451
47.48000 15.721
47.50000 12.371
47.52000 12.840
47.54000 16.948
47.56000 11.141
47.58000 9.172
47.60000 4.963
47.62000 7.364
47.64000 8.822
47.66000 7.295
47.68000 2.823
47.70000 4.117
47.72000 4.291
47.74000 3.898
47.76000 5.534
47.78000 7.857
47.80000 4.833
47.82000 7.275
47.84000 3.606
47.86000 1.831
47.88000 3.703
47.90000 1.848
47.92000 2.650
47.94000 2.384
47.96000 3.095
47.98000 1.930
48.00000 2.662
48.02000 4.633
48.04000 3.607
48.06000 2.603
48.08000 3.265
48.10000 4.772
48.12000 1.961
48.14000 -1.686
48.16000 -2.686
48.18000 -1.640
48.20000 -1.077
48.22000 -0.579
48.24000 2.091
48.26000 -0.385
48.28000 -2.770
48.30000 -0.905
48.32000 1.136
48.34000 1.823
48.36000 1.714
48.38000 4.405
48.40000 3.568
48.42000 3.783
48.44000 3.762
48.46000 -2.735
48.48000 -1.530
48.50000 -1.485
48.52000 0.558
48.54000 2.134
48.56000 2.048
48.58000 -1.470
48.60000 -0.603
48.62000 1.880
48.64000 1.372
48.66000 1.482
48.68000 2.052
48.70000 3.534
48.72000 3.506
48.74000 1.490
48.76000 4.646
48.78000 0.830
48.80000 2.158
48.82000 3.594
48.84000 6.471
48.86000 2.834
48.88000 -2.648
48.90000 -1.147
48.92000 3.128
48.94000 4.098
48.96000 3.866
48.98000 3.217
49.00000 2.481
49.02000 2.295
49.04000 6.212
49.06000 3.893
49.08000 8.345
49.10000 4.895
49.12000 3.873
49.14000 1.766
49.16000 1.848
49.18000 5.126
49.20000 4.114
49.22000 1.711
49.24000 -1.009
49.26000 1.138
49.28000 4.568
49.30000 0.934
49.32000 -0.145
49.34000 -0.030
49.36000 1.666
49.38000 1.880
49.40000 6.111
49.42000 4.817
49.44000 4.243
49.46000 3.009
49.48000 3.209
49.50000 1.238
49.52000 -2.621
49.54000 2.144
49.56000 1.947
49.58000 3.357
49.60000 6.332
49.62000 3.881
49.64000 2.428
49.66000 1.841
49.68000 0.959
49.70000 -2.165
49.72000 1.205
49.74000 4.063
49.76000 5.939
49.78000 2.941
49.80000 0.803
49.82000 -0.132
49.84000 2.844
49.86000 7.562
49.88000 1.278
49.90000 3.174
49.92000 5.867
49.94000 7.844
49.96000 5.989
49.98000 5.097
50.00000 3.986
50.02000 3.149
50.04000 4.684
50.06000 1.127
50.08000 1.263
50.10000 2.808
50.12000 5.796
50.14000 3.817
50.16000 3.791
50.18000 5.958
50.20000 9.616
50.22000 1.979
50.24000 0.912
50.26000 4.311
50.28000 6.003
50.30000 4.754
50.32000 3.385
50.34000 1.334
50.36000 -2.559
50.38000 -0.653
50.40000 3.700
50.42000 5.902
50.44000 3.879
50.46000 5.299
50.48000 6.784
50.50000 2.861
50.52000 -0.047
50.54000 1.948
50.56000 4.126
50.58000 3.784
50.60000 2.630
50.62000 2.062
50.64000 -0.338
50.66000 0.820
50.68000 1.035
50.70000 4.367
50.72000 4.428
50.74000 1.980
50.76000 4.153
50.78000 6.925
50.80000 3.649
50.82000 7.191
50.84000 3.466
50.86000 -2.536
50.88000 1.689
50.90000 4.235
50.92000 5.223
50.94000 4.288
50.96000 3.586
50.98000 3.623
51.00000 1.432
51.02000 0.536
51.04000 -0.250
51.06000 3.657
51.08000 4.171
51.10000 4.183
51.12000 0.709
51.14000 3.100
51.16000 1.802
51.18000 1.991
51.20000 -1.670
51.22000 -1.196
51.24000 0.665
51.26000 2.476
51.28000 3.306
51.30000 4.589
51.32000 0.092
51.34000 1.199
51.36000 -2.041
51.38000 2.430
51.40000 3.053
51.42000 6.259
51.44000 4.292
51.46000 3.881
51.48000 1.461
51.50000 1.263
51.52000 1.913
51.54000 0.681
51.56000 -1.665
51.58000 0.089
51.60000 0.146
51.62000 3.307
51.64000 5.997
51.66000 5.238
51.68000 1.104
51.70000 -0.987
51.72000 0.583
51.74000 -1.260
51.76000 0.734
51.78000 0.955
51.80000 4.006
51.82000 3.708
51.84000 2.616
51.86000 5.468
51.88000 4.058
51.90000 3.879
51.92000 1.743
51.94000 1.350
51.96000 1.912
51.98000 1.563
52.00000 0.511
52.02000 -1.918
52.04000 2.745
52.06000 1.501
52.08000 -1.527
52.10000 -1.531
52.12000 1.376
52.14000 3.936
52.16000 -1.058
52.18000 1.010
52.20000 0.189
52.22000 -2.544
52.24000 0.391
52.26000 0.573
52.28000 0.797
52.30000 0.559
52.32000 2.872
52.34000 2.130
52.36000 2.467
52.38000 1.477
52.40000 3.391
52.42000 -0.308
52.44000 4.169
52.46000 5.999
52.48000 5.484
52.50000 3.696
52.52000 3.528
52.54000 4.160
52.56000 1.792
52.58000 1.923
52.60000 1.384
52.62000 0.497
52.64000 2.524
52.66000 3.229
52.68000 4.896
52.70000 5.287
52.72000 0.810
52.74000 0.148
52.76000 2.000
52.78000 -0.922
52.80000 -2.521
52.82000 -1.538
52.84000 -1.850
52.86000 -0.658
52.88000 0.660
52.90000 1.140
52.92000 0.223
52.94000 5.717
52.96000 4.324
52.98000 3.613
53.00000 1.798
53.02000 2.842
53.04000 1.881
53.06000 -1.848
53.08000 -2.509
53.10000 1.518
53.12000 1.096
53.14000 5.028
53.16000 2.120
53.18000 -0.578
53.20000 -0.390
53.22000 0.140
53.24000 3.315
53.26000 5.338
53.28000 1.800
53.30000 -0.399
53.32000 -0.015
53.34000 1.817
53.36000 2.128
53.38000 4.463
53.40000 2.930
53.42000 0.532
53.44000 -0.111
53.46000 3.279
53.48000 4.754
53.50000 1.196
53.52000 0.921
53.54000 3.919
53.56000 0.425
53.58000 -2.494
53.60000 0.791
53.62000 5.082
53.64000 5.098
53.66000 2.847
53.68000 2.381
53.70000 6.188
53.72000 4.280
53.74000 1.396
53.76000 -1.350
53.78000 1.768
53.80000 4.469
53.82000 2.282
53.84000 0.787
53.86000 -0.929
53.88000 0.881
53.90000 1.658
53.92000 3.043
53.94000 3.228
53.96000 -0.288
53.98000 -1.132
54.00000 2.992
54.02000 -0.389
54.04000 -0.761
54.06000 2.329
54.08000 -0.059
54.10000 3.236
54.12000 1.004
54.14000 -2.364
54.16000 1.611
54.18000 2.616
54.20000 1.684
54.22000 -0.667
54.24000 1.128
54.26000 3.922
54.28000 0.163
54.30000 -0.209
54.32000 -0.224
54.34000 1.365
54.36000 0.857
54.38000 -0.230
54.40000 3.777
54.42000 2.825
54.44000 -1.283
54.46000 -2.205
54.48000 2.839
54.50000 0.509
54.52000 2.609
54.54000 0.765
54.56000 -0.340
54.58000 3.990
54.60000 2.054
54.62000 4.435
54.64000 2.563
54.66000 3.263
54.68000 2.381
54.70000 -1.998
54.72000 -2.018
54.74000 -2.085
54.76000 -0.917
54.78000 1.644
54.80000 3.120
54.82000 2.517
54.84000 1.480
54.86000 -0.308
54.88000 -0.143
54.90000 3.005
54.92000 -0.502
54.94000 -2.473
54.96000 3.457
54.98000 2.887
55.00000 1.911
55.02000 4.419
55.04000 4.243
55.06000 2.592
55.08000 3.547
55.10000 1.491
55.12000 -1.668
55.14000 0.116
55.16000 1.975
55.18000 1.225
55.20000 0.477
55.22000 0.219
55.24000 1.419
55.26000 1.693
55.28000 -0.007
55.30000 -2.108
55.32000 1.266
55.34000 5.371
55.36000 0.851
55.38000 0.167
55.40000 1.163
55.42000 0.875
55.44000 -0.011
55.46000 1.634
55.48000 4.771
55.50000 2.301
55.52000 1.010
55.54000 4.214
55.56000 2.447
55.58000 1.129
55.60000 -1.829
55.62000 2.573
55.64000 2.625
55.66000 5.664
55.68000 1.489
55.70000 1.582
55.72000 -1.163
55.74000 1.640
55.76000 4.612
55.78000 3.833
55.80000 3.411
55.82000 3.572
55.84000 2.715
55.86000 1.080
55.88000 0.342
55.90000 1.831
55.92000 -1.864
55.94000 -1.369
55.96000 0.823
55.98000 0.103
56.00000 2.378
56.02000 3.166
56.04000 3.384
56.06000 6.764
56.08000 6.612
56.10000 4.422
56.12000 0.711
56.14000 2.026
56.16000 3.919
56.18000 3.696
56.20000 2.138
56.22000 3.863
56.24000 5.125
56.26000 3.788
56.28000 4.913
56.30000 1.719
56.32000 2.771
56.34000 2.438
56.36000 3.562
56.38000 3.568
56.40000 2.967
56.42000 -2.410
56.44000 -2.103
56.46000 3.442
56.48000 1.381
56.50000 0.863
56.52000 5.299
56.54000 6.153
56.56000 4.627
56.58000 0.184
56.60000 2.071
56.62000 3.130
56.64000 5.748
56.66000 2.002
56.68000 1.789
56.70000 -2.402
56.72000 -0.483
56.74000 0.773
56.76000 1.747
56.78000 0.941
56.80000 1.630
56.82000 -1.117
56.84000 2.743
56.86000 3.360
56.88000 1.990
56.90000 0.392
56.92000 -1.004
56.94000 -0.361
56.96000 1.509
56.98000 3.568
57.00000 0.952
57.02000 1.011
57.04000 5.065
57.06000 7.324
57.08000 2.812
57.10000 1.143
57.12000 2.074
57.14000 2.200
57.16000 -1.147
57.18000 0.940
57.20000 2.001
57.22000 0.615
57.24000 2.449
57.26000 3.337
57.28000 2.470
57.30000 2.966
57.32000 2.760
57.34000 0.097
57.36000 2.870
57.38000 4.051
57.40000 1.925
57.42000 1.430
57.44000 3.554
57.46000 0.131
57.48000 3.195
57.50000 5.698
57.52000 5.367
57.54000 2.106
57.56000 -0.501
57.58000 1.410
57.60000 3.041
57.62000 5.608
57.64000 3.979
57.66000 5.491
57.68000 4.058
57.70000 1.135
57.72000 3.030
57.74000 3.855
57.76000 4.729
57.78000 5.065
57.80000 3.687
57.82000 3.491
57.84000 1.879
57.86000 0.700
57.88000 2.451
57.90000 -0.729
57.92000 1.769
57.94000 1.487
57.96000 1.152
57.98000 4.431
58.00000 3.859
58.02000 2.177
58.04000 4.054
58.06000 2.652
58.08000 2.688
58.10000 1.813
58.12000 1.737
58.14000 5.021
58.16000 3.416
58.18000 1.756
58.20000 2.423
58.22000 0.182
58.24000 4.102
58.26000 4.524
58.28000 0.683
58.30000 -2.338
58.32000 -2.203
58.34000 -1.208
58.36000 1.062
58.38000 2.854
58.40000 3.535
58.42000 1.288
58.44000 -1.010
58.46000 1.029
58.48000 2.732
58.50000 1.992
58.52000 2.548
58.54000 2.022
58.56000 2.048
58.58000 5.098
58.60000 7.147
58.62000 6.119
58.64000 4.894
58.66000 2.254
58.68000 5.087
58.70000 3.550
58.72000 3.708
58.74000 3.888
58.76000 1.589
58.78000 0.442
58.80000 1.858
58.82000 -0.155
58.84000 2.978
58.86000 6.824
58.88000 5.199
58.90000 3.356
58.92000 7.498
58.94000 4.556
58.96000 5.473
58.98000 3.528
59.00000 -2.340
59.02000 -1.123
59.04000 2.621
59.06000 0.725
59.08000 0.323
59.10000 1.582
59.12000 1.955
59.14000 1.034
59.16000 3.168
59.18000 2.747
59.20000 -0.202
59.22000 3.373
59.24000 5.316
59.26000 3.745
59.28000 4.635
59.30000 6.912
59.32000 7.197
59.34000 0.590
59.36000 -0.761
59.38000 -0.063
59.40000 1.953
59.42000 5.333
59.44000 4.050
59.46000 2.535
59.48000 4.018
59.50000 6.915
59.52000 7.656
59.54000 2.325
59.56000 1.111
59.58000 -1.031
59.60000 -0.935
59.62000 1.694
59.64000 3.791
59.66000 2.021
59.68000 0.449
59.70000 1.009
59.72000 3.191
59.74000 5.884
59.76000 1.721
59.78000 3.164
59.80000 4.406
59.82000 4.588
59.84000 0.934
59.86000 2.526
59.88000 6.223
59.90000 3.387
59.92000 -0.059
59.94000 -2.316
59.96000 -0.635
59.98000 1.112
60.00000 0.923
60.02000 -2.060
60.04000 -2.310
60.06000 0.051
60.08000 1.736
60.10000 2.369
60.12000 4.285
60.14000 -0.039
60.16000 2.528
60.18000 5.218
60.20000 -0.215
60.22000 -0.424
60.24000 0.217
60.26000 0.740
60.28000 1.747
60.30000 0.711
60.32000 3.799
60.34000 2.379
60.36000 3.371
60.38000 2.684
60.40000 0.112
60.42000 2.741
60.44000 5.261
60.46000 3.123
60.48000 2.643
60.50000 0.353
60.52000 -2.294
60.54000 3.737
60.56000 3.650
60.58000 1.557
60.60000 1.730
60.62000 2.507
60.64000 1.387
60.66000 2.439
60.68000 4.078
60.70000 2.704
60.72000 3.364
60.74000 0.139
60.76000 -2.284
60.78000 0.613
60.80000 1.244
60.82000 1.749
60.84000 1.925
60.86000 1.885
60.88000 2.167
60.90000 0.665
60.92000 0.063
60.94000 2.531
60.96000 4.796
60.98000 3.951
61.00000 2.489
61.02000 -1.723
61.04000 0.741
61.06000 1.887
61.08000 2.276
61.10000 -0.400
61.12000 1.198
61.14000 3.462
61.16000 2.117
61.18000 1.550
61.20000 4.070
61.22000 4.104
61.24000 6.059
61.26000 3.312
61.28000 1.270
61.30000 -0.599
61.32000 -2.254
61.34000 4.577
61.36000 5.784
61.38000 0.410
61.40000 -1.495
61.42000 -0.600
61.44000 3.606
61.46000 4.679
61.48000 3.432
61.50000 0.548
61.52000 2.272
61.54000 3.152
61.56000 2.965
61.58000 2.580
61.60000 3.995
61.62000 4.109
61.64000 3.372
61.66000 2.120
61.68000 1.030
61.70000 2.406
61.72000 0.508
61.74000 2.319
61.76000 2.200
61.78000 2.960
61.80000 4.188
61.82000 6.716
61.84000 2.724
61.86000 -1.070
61.88000 1.996
61.90000 7.238
61.92000 4.498
61.94000 2.844
61.96000 1.997
61.98000 4.083
62.00000 2.537
62.02000 -2.246
62.04000 -0.498
62.06000 2.357
62.08000 2.400
62.10000 1.071
62.12000 2.149
62.14000 2.773
62.16000 3.829
62.18000 2.774
62.20000 -1.857
62.22000 -2.251
62.24000 -0.277
62.26000 0.171
62.28000 2.747
62.30000 0.685
62.32000 0.251
62.34000 4.167
62.36000 2.812
62.38000 2.555
62.40000 1.329
62.42000 4.265
62.44000 2.530
62.46000 0.224
62.48000 2.503
62.50000 3.094
62.52000 4.336
62.54000 3.391
62.56000 -1.410
62.58000 -0.958
62.60000 1.200
62.62000 1.381
62.64000 2.110
62.66000 1.784
62.68000 3.065
62.70000 3.156
62.72000 7.514
62.74000 2.162
62.76000 0.874
62.78000 2.193
62.80000 2.322
62.82000 -1.196
62.84000 -1.529
62.86000 0.812
62.88000 1.280
62.90000 1.172
62.92000 1.521
62.94000 -1.843
62.96000 -0.491
62.98000 2.556
63.00000 1.928
63.02000 0.763
63.04000 2.198
63.06000 1.929
63.08000 1.169
63.10000 1.342
63.12000 4.039
63.14000 -0.418
63.16000 -1.919
63.18000 -1.577
63.20000 0.644
63.22000 1.960
63.24000 4.461
63.26000 2.120
63.28000 2.914
63.30000 0.564
63.32000 -1.364
63.34000 -0.179
63.36000 0.457
63.38000 1.243
63.40000 -2.242
63.42000 -1.994
63.44000 -0.182
63.46000 -0.952
63.48000 0.401
63.50000 2.637
63.52000 -2.226
63.54000 1.029
63.56000 0.406
63.58000 3.430
63.60000 2.213
63.62000 1.444
63.64000 4.368
63.66000 4.045
63.68000 2.326
63.70000 0.482
63.72000 2.839
63.74000 2.250
63.76000 0.955
63.78000 1.104
63.80000 -0.691
63.82000 1.144
63.84000 1.733
63.86000 1.274
63.88000 1.379
63.90000 1.639
63.92000 0.772
63.94000 1.577
63.96000 0.078
63.98000 -0.448
64.00000 0.604
64.02000 0.093
64.04000 -2.248
64.06000 1.754
64.08000 0.626
64.10000 0.901
64.12000 2.638
64.14000 5.592
64.16000 9.692
64.18000 7.314
64.20000 5.060
64.22000 2.641
64.24000 2.252
64.26000 0.318
64.28000 1.563
64.30000 -1.166
64.32000 -1.185
64.34000 1.732
64.36000 3.902
64.38000 5.711
64.40000 5.180
64.42000 3.993
64.44000 3.138
64.46000 1.116
64.48000 -0.071
64.50000 -1.307
64.52000 1.963
64.54000 0.528
64.56000 3.979
64.58000 2.795
64.60000 3.761
64.62000 -1.103
64.64000 -1.815
64.66000 -0.455
64.68000 1.290
64.70000 2.624
64.72000 3.760
64.74000 2.181
64.76000 0.514
64.78000 0.899
64.80000 0.482
64.82000 1.295
64.84000 1.822
64.86000 4.237
64.88000 3.773
64.90000 3.788
64.92000 -0.160
64.94000 0.844
64.96000 2.761
64.98000 2.928
65.00000 -0.932
65.02000 -2.259
65.04000 -1.594
65.06000 3.630
65.08000 4.684
65.10000 1.925
65.12000 1.669
65.14000 4.113
65.16000 4.304
65.18000 1.283
65.20000 -1.094
65.22000 2.668
65.24000 2.419
65.26000 2.519
65.28000 2.325
65.30000 0.674
65.32000 1.239
65.34000 2.279
65.36000 1.725
65.38000 -0.149
65.40000 -0.491
65.42000 0.795
65.44000 1.014
65.46000 2.925
65.48000 1.591
65.50000 1.318
65.52000 3.101
65.54000 1.897
65.56000 1.090
65.58000 2.685
65.60000 -0.231
65.62000 -0.354
65.64000 0.336
65.66000 0.836
65.68000 0.447
65.70000 1.801
65.72000 0.371
65.74000 -0.113
65.76000 0.660
65.78000 -1.276
65.80000 -2.270
65.82000 0.513
65.84000 0.887
65.86000 5.991
65.88000 4.924
65.90000 0.644
65.92000 2.527
65.94000 2.348
65.96000 4.295
65.98000 4.608
66.00000 1.054
66.02000 1.475
66.04000 0.725
66.06000 -2.274
66.08000 -0.056
66.10000 2.355
66.12000 4.357
66.14000 4.155
66.16000 3.590
66.18000 4.642
66.20000 2.544
66.22000 1.319
66.24000 -0.083
66.26000 -0.598
66.28000 2.480
66.30000 2.918
66.32000 3.343
66.34000 1.311
66.36000 2.698
66.38000 2.530
66.40000 0.459
66.42000 2.492
66.44000 1.366
66.46000 1.130
66.48000 2.329
66.50000 2.566
66.52000 0.393
66.54000 0.893
66.56000 3.472
66.58000 5.499
66.60000 1.170
66.62000 0.768
66.64000 1.799
66.66000 1.381
66.68000 0.292
66.70000 -0.945
66.72000 1.086
66.74000 3.291
66.76000 3.618
66.78000 1.136
66.80000 -0.463
66.82000 3.214
66.84000 7.359
66.86000 6.396
66.88000 7.046
66.90000 3.709
66.92000 4.698
66.94000 4.664
66.96000 0.530
66.98000 -0.190
67.00000 0.471
67.02000 3.449
67.04000 4.744
67.06000 4.916
67.08000 7.327
67.10000 2.348
67.12000 2.387
67.14000 2.682
67.16000 1.644
67.18000 4.784
67.20000 4.339
67.22000 2.962
67.24000 3.247
67.26000 5.602
67.28000 5.333
67.30000 7.185
67.32000 11.649
67.34000 9.221
67.36000 5.619
67.38000 4.606
67.40000 10.045
67.42000 10.754
67.44000 11.170
67.46000 9.435
67.48000 11.975
67.50000 11.884
67.52000 10.388
67.54000 12.079
67.56000 12.041
67.58000 10.566
67.60000 8.698
67.62000 9.759
67.64000 13.559
67.66000 11.667
67.68000 14.354
67.70000 13.714
67.72000 15.144
67.74000 17.741
67.76000 16.087
67.78000 15.235
67.80000 14.536
67.82000 15.996
67.84000 17.759
67.86000 15.308
67.88000 15.031
67.90000 17.815
67.92000 21.409
67.94000 19.270
67.96000 17.762
67.98000 15.849
68.00000 17.300
68.02000 17.746
68.04000 19.384
68.06000 16.550
68.08000 19.906
68.10000 18.808
68.12000 17.693
68.14000 19.110
68.16000 20.343
68.18000 17.228
68.20000 16.566
68.22000 14.794
68.24000 15.224
68.26000 17.811
68.28000 15.736
68.30000 13.762
68.32000 13.670
68.34000 11.453
68.36000 12.559
68.38000 12.109
68.40000 10.843
68.42000 8.308
68.44000 8.632
68.46000 10.780
68.48000 6.881
68.50000 5.917
68.52000 7.484
68.54000 3.135
68.56000 1.576
68.58000 4.138
68.60000 5.609
68.62000 5.687
68.64000 6.517
68.66000 6.999
68.68000 4.417
68.70000 2.622
68.72000 4.061
68.74000 4.149
68.76000 3.170
68.78000 2.106
68.80000 2.110
68.82000 0.658
68.84000 0.731
68.86000 1.698
68.88000 2.593
68.90000 2.604
68.92000 0.337
68.94000 1.642
68.96000 1.246
68.98000 0.283
69.00000 2.081
69.02000 2.773
69.04000 -0.708
69.06000 0.230
69.08000 0.487
69.10000 -0.612
69.12000 0.430
69.14000 -0.633
69.16000 -1.386
69.18000 1.729
69.20000 4.053
69.22000 1.376
69.24000 0.605
69.26000 0.677
69.28000 -0.613
69.30000 -2.061
69.32000 -1.971
69.34000 -1.182
69.36000 3.769
69.38000 2.724
69.40000 1.519
69.42000 -0.051
69.44000 1.620
69.46000 3.105
69.48000 0.653
69.50000 -2.212
69.52000 0.044
69.54000 2.128
69.56000 1.473
69.58000 0.984
69.60000 1.687
69.62000 1.900
69.64000 1.409
69.66000 -0.318
69.68000 -1.646
69.70000 1.082
69.72000 3.203
69.74000 2.270
69.76000 1.799
69.78000 0.740
69.80000 -0.589
69.82000 2.352
69.84000 4.439
69.86000 4.210
69.88000 -1.154
69.90000 -2.192
69.92000 0.837
69.94000 0.941
69.96000 2.630
69.98000 0.870
70.00000 0.856
70.02000 -0.216
70.04000 -0.481
70.06000 1.704
70.08000 2.403
70.10000 1.485
70.12000 1.607
70.14000 2.251
70.16000 4.120
70.18000 6.468
70.20000 2.570
70.22000 2.852
70.24000 2.599
70.26000 4.909
70.28000 4.233
70.30000 -0.643
70.32000 0.500
70.34000 0.741
70.36000 -1.130
70.38000 -0.937
70.40000 -1.442
70.42000 -1.731
70.44000 -2.159
70.46000 -1.827
70.48000 -1.583
70.50000 1.874
70.52000 0.500
70.54000 1.085
70.56000 1.892
70.58000 1.666
70.60000 1.348
70.62000 0.956
70.64000 1.257
70.66000 2.967
70.68000 4.186
70.70000 2.727
70.72000 1.243
70.74000 1.276
70.76000 1.298
70.78000 0.314
70.80000 0.123
70.82000 1.942
70.84000 2.772
70.86000 3.110
70.88000 2.664
70.90000 3.901
70.92000 3.857
70.94000 3.217
70.96000 3.146
70.98000 2.418
71.00000 0.126
71.02000 0.117
71.04000 -0.126
71.06000 1.665
71.08000 0.227
71.10000 0.072
71.12000 2.552
71.14000 1.018
71.16000 -0.230
71.18000 -1.101
71.20000 2.550
71.22000 5.349
71.24000 4.111
71.26000 1.222
71.28000 -1.026
71.30000 -1.034
71.32000 -1.277
71.34000 0.195
71.36000 1.135
71.38000 2.191
71.40000 1.055
71.42000 3.956
71.44000 2.906
71.46000 -0.091
71.48000 2.423
71.50000 1.579
71.52000 2.537
71.54000 2.358
71.56000 -0.155
71.58000 -0.638
71.60000 -2.105
71.62000 -2.119
71.64000 2.314
71.66000 1.654
71.68000 0.913
71.70000 -0.288
71.72000 1.827
71.74000 -1.005
71.76000 -0.621
71.78000 0.877
71.80000 0.102
71.82000 1.236
71.84000 4.374
71.86000 6.941
71.88000 4.843
71.90000 1.062
71.92000 -0.109
71.94000 -1.335
71.96000 -0.710
71.98000 2.475
72.00000 1.550
72.02000 -0.127
72.04000 -0.942
72.06000 1.338
72.08000 3.258
72.10000 4.771
72.12000 7.926
72.14000 7.470
72.16000 3.204
72.18000 -1.104
72.20000 2.542
72.22000 4.461
72.24000 4.042
72.26000 5.920
72.28000 7.644
72.30000 5.707
72.32000 3.792
72.34000 1.394
72.36000 3.699
72.38000 0.695
72.40000 3.290
72.42000 2.953
72.44000 5.009
72.46000 4.007
72.48000 2.885
72.50000 2.233
72.52000 0.154
72.54000 4.497
72.56000 0.388
72.58000 -2.069
72.60000 2.578
72.62000 6.534
72.64000 5.532
72.66000 3.074
72.68000 2.833
72.70000 5.745
72.72000 5.512
72.74000 3.272
72.76000 2.630
72.78000 3.800
72.80000 2.050
72.82000 2.000
72.84000 4.737
72.86000 7.379
72.88000 5.422
72.90000 5.189
72.92000 3.396
72.94000 2.709
72.96000 3.603
72.98000 2.002
73.00000 2.345
73.02000 5.450
73.04000 3.375
73.06000 0.373
73.08000 0.837
73.10000 1.963
73.12000 4.105
73.14000 2.513
73.16000 1.277
73.18000 2.489
73.20000 4.701
73.22000 1.675
73.24000 -0.528
73.26000 3.097
73.28000 4.540
73.30000 3.581
73.32000 2.008
73.34000 -2.044
73.36000 0.868
73.38000 3.517
73.40000 4.313
73.42000 3.498
73.44000 3.898
73.46000 -1.388
73.48000 1.047
73.50000 4.979
73.52000 0.825
73.54000 3.028
73.56000 3.991
73.58000 4.063
73.60000 3.031
73.62000 2.152
73.64000 -0.710
73.66000 2.687
73.68000 0.980
73.70000 2.357
73.72000 3.238
73.74000 0.657
73.76000 -2.063
73.78000 1.129
73.80000 2.982
73.82000 3.300
73.84000 3.193
73.86000 3.275
73.88000 2.600
73.90000 1.292
73.92000 2.491
73.94000 0.968
73.96000 -1.389
73.98000 -1.074
74.00000 2.208
74.02000 1.020
74.04000 1.329
74.06000 2.171
74.08000 1.155
74.10000 -0.587
74.12000 0.747
74.14000 2.237
74.16000 -0.534
74.18000 -1.319
74.20000 0.106
74.22000 -1.293
74.24000 3.870
74.26000 6.993
74.28000 3.333
74.30000 0.074
74.32000 1.656
74.34000 3.552
74.36000 0.382
74.38000 2.021
74.40000 3.292
74.42000 3.409
74.44000 1.728
74.46000 2.120
74.48000 3.584
74.50000 3.323
74.52000 4.010
74.54000 -0.431
74.56000 0.158
74.58000 2.045
74.60000 2.269
74.62000 1.938
74.64000 1.067
74.66000 1.076
74.68000 -0.363
74.70000 2.382
74.72000 -0.133
74.74000 -2.074
74.76000 -1.225
74.78000 0.997
74.80000 1.898
74.82000 2.446
74.84000 4.805
74.86000 2.813
74.88000 -0.010
74.90000 1.930
74.92000 3.212
74.94000 2.882
74.96000 4.631
74.98000 3.132
75.00000 0.249
75.02000 3.389
75.04000 -0.480
75.06000 0.290
75.08000 1.107
75.10000 -0.131
75.12000 1.896
75.14000 1.687
75.16000 -1.299
75.18000 -0.949
75.20000 1.497
75.22000 0.531
75.24000 1.169
75.26000 1.412
75.28000 1.882
75.30000 2.575
75.32000 3.236
75.34000 1.567
75.36000 2.574
75.38000 0.628
75.40000 -2.092
75.42000 -0.833
75.44000 2.772
75.46000 3.998
75.48000 0.987
75.50000 1.045
75.52000 1.788
75.54000 0.645
75.56000 -0.848
75.58000 -0.625
75.60000 2.377
75.62000 2.064
75.64000 0.967
75.66000 0.272
75.68000 -1.084
75.70000 0.703
75.72000 0.919
75.74000 1.764
75.76000 2.226
75.78000 0.011
75.80000 -0.019
75.82000 3.021
75.84000 2.576
75.86000 -2.088
75.88000 -1.075
75.90000 5.310
75.92000 3.269
75.94000 2.903
75.96000 1.972
75.98000 -2.090
76.00000 -0.351
76.02000 1.337
76.04000 4.482
76.06000 3.081
76.08000 3.737
76.10000 1.643
76.12000 0.222
76.14000 -0.082
76.16000 0.084
76.18000 2.292
76.20000 2.673
76.22000 2.713
76.24000 0.756
76.26000 2.396
76.28000 3.643
76.30000 6.492
76.32000 6.444
76.34000 5.824
76.36000 4.537
76.38000 7.162
76.40000 4.005
76.42000 1.689
76.44000 1.319
76.46000 0.609
76.48000 -0.314
76.50000 -0.869
76.52000 0.001
76.54000 1.483
76.56000 2.368
76.58000 1.787
76.60000 2.425
76.62000 3.386
76.64000 1.596
76.66000 2.361
76.68000 1.124
76.70000 1.680
76.72000 -0.869
76.74000 0.853
76.76000 0.290
76.78000 1.108
76.80000 0.916
76.82000 1.519
76.84000 2.077
76.86000 3.091
76.88000 1.172
76.90000 0.593
76.92000 -0.801
76.94000 -0.492
76.96000 2.156
76.98000 5.116
77.00000 5.135
77.02000 1.243
77.04000 1.143
77.06000 1.238
77.08000 3.577
77.10000 -1.478
77.12000 -2.130
77.14000 0.485
77.16000 -0.941
77.18000 0.914
77.20000 2.171
77.22000 -0.364
77.24000 1.242
77.26000 2.966
77.28000 2.512
77.30000 4.222
77.32000 4.763
77.34000 3.842
77.36000 2.009
77.38000 -0.176
77.40000 0.518
77.42000 1.827
77.44000 0.153
77.46000 4.505
77.48000 4.789
77.50000 -0.039
77.52000 -0.693
77.54000 0.907
77.56000 0.749
77.58000 -1.373
77.60000 -0.734
77.62000 1.393
77.64000 -2.120
77.66000 0.360
77.68000 2.994
77.70000 2.998
77.72000 3.870
77.74000 3.904
77.76000 2.645
77.78000 4.525
77.80000 6.412
77.82000 0.566
77.84000 1.216
77.86000 4.424
77.88000 5.115
77.90000 0.971
77.92000 -1.388
77.94000 0.307
77.96000 0.970
77.98000 1.460
78.00000 7.060
78.02000 -0.287
78.04000 -0.435
78.06000 4.347
78.08000 5.255
78.10000 -1.004
78.12000 -2.118
78.14000 -1.357
78.16000 -0.841
78.18000 0.773
78.20000 2.656
78.22000 3.105
78.24000 -0.133
78.26000 -0.663
78.28000 4.123
78.30000 0.681
78.32000 -1.601
78.34000 -2.047
78.36000 1.937
78.38000 8.725
78.40000 7.688
78.42000 2.729
78.44000 1.997
78.46000 -0.374
78.48000 -1.954
78.50000 2.633
78.52000 2.131
78.54000 0.759
78.56000 -0.146
78.58000 0.664
78.60000 -1.265
78.62000 -0.792
78.64000 -2.165
78.66000 -0.283
78.68000 2.341
78.70000 2.667
78.72000 4.080
78.74000 3.648
78.76000 0.298
78.78000 2.534
78.80000 2.448
78.82000 1.445
78.84000 -1.457
78.86000 -1.227
78.88000 -0.058
78.90000 0.503
78.92000 -2.181
78.94000 1.053
78.96000 3.162
78.98000 1.817
79.00000 -0.857
79.02000 -1.494
79.04000 0.333
79.06000 -1.346
79.08000 -0.249
79.10000 0.661
79.12000 2.466
79.14000 0.791
79.16000 1.971
79.18000 1.088
79.20000 2.800
79.22000 -0.149
79.24000 -2.174
79.26000 -0.483
79.28000 -0.799
79.30000 -1.152
79.32000 -1.143
79.34000 -0.479
79.36000 -0.315
79.38000 10.037
79.40000 5.519
79.42000 5.361
79.44000 3.268
79.46000 2.758
79.48000 2.970
79.50000 1.618
79.52000 -0.803
79.54000 -0.820
79.56000 0.088
79.58000 2.443
79.60000 0.183
79.62000 -0.835
79.64000 2.039
79.66000 1.382
79.68000 1.598
79.70000 0.354
79.72000 -1.595
79.74000 0.936
79.76000 3.445
79.78000 -0.842
79.80000 1.131
79.82000 3.739
79.84000 4.120
79.86000 3.421
79.88000 1.602
79.90000 -2.185
79.92000 -0.075
79.94000 0.005
79.96000 0.898
79.98000 5.232
80.00000 7.695
80.02000 4.971
80.04000 5.212
80.06000 4.235
80.08000 3.007
80.10000 4.351
80.12000 4.765
80.14000 1.781
80.16000 3.953
80.18000 2.478
80.20000 -1.746
80.22000 1.845
80.24000 3.923
80.26000 3.286
80.28000 2.371
80.30000 4.015
80.32000 3.039
80.34000 2.940
80.36000 3.202
80.38000 5.232
80.40000 4.203
80.42000 2.249
80.44000 5.479
80.46000 4.490
80.48000 6.552
80.50000 8.274
80.52000 5.457
80.54000 2.270
80.56000 7.282
80.58000 8.409
80.60000 6.287
80.62000 2.501
80.64000 3.202
80.66000 3.801
80.68000 4.124
80.70000 6.955
80.72000 6.895
80.74000 4.300
80.76000 3.564
80.78000 3.753
80.80000 4.544
80.82000 9.068
80.84000 7.324
80.86000 6.335
80.88000 10.294
80.90000 11.207
80.92000 8.815
80.94000 8.538
80.96000 5.552
80.98000 3.464
81.00000 7.734
81.02000 13.081
81.04000 13.082
81.06000 12.695
81.08000 8.923
81.10000 9.098
81.12000 10.269
81.14000 9.846
81.16000 12.201
81.18000 12.022
81.20000 14.922
81.22000 17.096
81.24000 14.534
81.26000 14.407
81.28000 16.618
81.30000 13.259
81.32000 14.166
81.34000 13.919
81.36000 13.007
81.38000 16.675
81.40000 18.146
81.42000 20.294
81.44000 22.760
81.46000 21.658
81.48000 25.073
81.50000 23.902
81.52000 23.172
81.54000 21.308
81.56000 25.436
81.58000 31.881
81.60000 28.553
81.62000 25.833
81.64000 26.971
81.66000 25.740
81.68000 27.934
81.70000 26.784
81.72000 29.340
81.74000 31.239
81.76000 28.864
81.78000 31.729
81.80000 31.750
81.82000 32.619
81.84000 34.571
81.86000 34.179
81.88000 34.173
81.90000 31.489
81.92000 26.885
81.94000 30.997
81.96000 31.569
81.98000 30.230
82.00000 34.189
82.02000 29.664
82.04000 25.050
82.06000 28.105
82.08000 29.196
82.10000 29.498
82.12000 29.635
82.14000 30.828
82.16000 28.698
82.18000 22.915
82.20000 26.590
82.22000 30.448
82.24000 28.521
82.26000 25.996
82.28000 28.360
82.30000 24.754
82.32000 23.916
82.34000 25.515
82.36000 24.300
82.38000 25.829
82.40000 19.386
82.42000 18.766
82.44000 21.295
82.46000 20.261
82.48000 17.899
82.50000 19.621
82.52000 16.869
82.54000 17.829
82.56000 22.591
82.58000 24.021
82.60000 19.372
82.62000 15.290
82.64000 12.414
82.66000 13.370
82.68000 15.562
82.70000 15.489
82.72000 14.414
82.74000 10.491
82.76000 9.714
82.78000 12.354
82.80000 8.536
82.82000 7.179
82.84000 7.458
82.86000 9.058
82.88000 8.255
82.90000 7.753
82.92000 2.636
82.94000 3.833
82.96000 5.322
82.98000 8.985
83.00000 9.781
83.02000 9.983
83.04000 5.554
83.06000 9.281
83.08000 6.860
83.10000 2.462
83.12000 2.079
83.14000 2.043
83.16000 3.019
83.18000 3.485
83.20000 2.476
83.22000 3.052
83.24000 4.274
83.26000 1.604
83.28000 0.950
83.30000 0.529
83.32000 2.551
83.34000 4.957
83.36000 5.800
83.38000 5.841
83.40000 2.154
83.42000 3.478
83.44000 4.713
83.46000 2.255
83.48000 1.081
83.50000 1.070
83.52000 0.925
83.54000 3.838
83.56000 -0.063
83.58000 1.386
83.60000 2.326
83.62000 -0.508
83.64000 -2.263
83.66000 1.488
83.68000 2.200
83.70000 2.673
83.72000 0.409
83.74000 -1.732
83.76000 -1.478
83.78000 0.766
83.80000 2.398
83.82000 1.530
83.84000 1.296
83.86000 1.443
83.88000 1.562
83.90000 2.812
83.92000 -2.014
83.94000 -0.622
83.96000 0.484
83.98000 -0.453
84.00000 0.327
84.02000 0.762
84.04000 3.362
84.06000 0.181
84.08000 3.665
84.10000 2.327
84.12000 -2.241
84.14000 -1.098
84.16000 -0.866
84.18000 -0.450
84.20000 0.260
84.22000 0.474
84.24000 1.955
84.26000 4.648
84.28000 2.452
84.30000 0.027
84.32000 1.582
84.34000 -2.246
84.36000 3.422
84.38000 0.854
84.40000 1.697
84.42000 1.213
84.44000 2.631
84.46000 4.694
84.48000 1.277
84.50000 -1.919
84.52000 0.189
84.54000 0.519
84.56000 2.219
84.58000 6.228
84.60000 1.168
84.62000 -0.364
84.64000 2.397
84.66000 6.169
84.68000 5.881
84.70000 5.532
84.72000 4.042
84.74000 0.175
84.76000 -2.250
84.78000 0.529
84.80000 3.047
84.82000 4.473
84.84000 1.291
84.86000 0.646
84.88000 4.375
84.90000 1.428
84.92000 4.303
84.94000 8.552
84.96000 7.598
84.98000 1.874
85.00000 2.063
85.02000 4.383
85.04000 1.691
85.06000 5.005
85.08000 3.053
85.10000 3.992
85.12000 6.648
85.14000 5.292
85.16000 5.812
85.18000 4.088
85.20000 7.292
85.22000 9.791
85.24000 13.121
85.26000 12.855
85.28000 9.167
85.30000 10.766
85.32000 10.021
85.34000 10.815
85.36000 12.336
85.38000 14.296
85.40000 14.030
85.42000 13.989
85.44000 12.399
85.46000 12.614
85.48000 10.186
85.50000 11.589
85.52000 11.442
85.54000 13.211
85.56000 14.546
85.58000 17.036
85.60000 14.740
85.62000 20.357
85.64000 19.405
85.66000 17.972
85.68000 20.011
85.70000 18.932
85.72000 20.824
85.74000 21.545
85.76000 21.849
85.78000 19.697
85.80000 21.648
85.82000 25.440
85.84000 19.128
85.86000 20.236
85.88000 18.109
85.90000 24.411
85.92000 25.726
85.94000 25.736
85.96000 26.872
85.98000 22.475
86.00000 24.942
86.02000 27.842
86.04000 25.013
86.06000 22.570
86.08000 24.851
86.10000 26.397
86.12000 25.591
86.14000 26.923
86.16000 23.860
86.18000 25.312
86.20000 19.343
86.22000 19.185
86.24000 14.854
86.26000 20.811
86.28000 22.409
86.30000 27.079
86.32000 20.921
86.34000 18.542
86.36000 20.556
86.38000 21.629
86.40000 19.578
86.42000 15.566
86.44000 17.756
86.46000 17.939
86.48000 14.719
86.50000 15.675
86.52000 15.193
86.54000 15.856
86.56000 15.852
86.58000 16.006
86.60000 15.908
86.62000 19.232
86.64000 18.245
86.66000 13.929
86.68000 11.605
86.70000 11.635
86.72000 6.850
86.74000 7.390
86.76000 7.475
86.78000 8.797
86.80000 11.640
86.82000 12.425
86.84000 8.887
86.86000 6.983
86.88000 9.400
86.90000 4.917
86.92000 3.728
86.94000 7.247
86.96000 8.145
86.98000 7.672
87.00000 5.773
87.02000 5.601
87.04000 2.682
87.06000 2.368
87.08000 3.220
87.10000 0.375
87.12000 0.769
87.14000 -1.066
87.16000 -0.994
87.18000 2.018
87.20000 1.091
87.22000 1.536
87.24000 5.248
87.26000 3.950
87.28000 3.512
87.30000 0.920
87.32000 -0.406
87.34000 4.815
87.36000 2.915
87.38000 3.455
87.40000 2.532
87.42000 0.588
87.44000 1.643
87.46000 0.477
87.48000 2.175
87.50000 0.326
87.52000 0.476
87.54000 4.895
87.56000 6.031
87.58000 3.819
87.60000 3.038
87.62000 1.548
87.64000 0.262
87.66000 2.351
87.68000 5.817
87.70000 4.654
87.72000 3.118
87.74000 4.788
87.76000 5.502
87.78000 3.328
87.80000 -2.018
87.82000 1.013
87.84000 6.137
87.86000 5.945
87.88000 4.445
87.90000 1.683
87.92000 1.829
87.94000 5.093
87.96000 3.081
87.98000 2.736
88.00000 4.134
88.02000 2.441
88.04000 0.873
88.06000 -1.149
88.08000 -1.819
88.10000 -1.634
88.12000 -0.768
88.14000 3.700
88.16000 2.731
88.18000 1.691
88.20000 0.218
88.22000 1.290
88.24000 3.835
88.26000 5.205
88.28000 5.462
88.30000 5.529
88.32000 0.989
88.34000 0.981
88.36000 -0.989
88.38000 0.840
88.40000 0.439
88.42000 -0.314
88.44000 0.069
88.46000 2.362
88.48000 3.766
88.50000 3.990
88.52000 7.663
88.54000 -0.023
88.56000 0.021
88.58000 -0.592
88.60000 -1.864
88.62000 -1.076
88.64000 1.278
88.66000 3.368
88.68000 1.974
88.70000 5.123
88.72000 2.407
88.74000 -0.222
88.76000 0.349
88.78000 0.529
88.80000 2.461
88.82000 1.402
88.84000 0.251
88.86000 -1.148
88.88000 2.606
88.90000 5.666
88.92000 7.165
88.94000 6.328
88.96000 4.203
88.98000 3.570
89.00000 0.994
89.02000 -1.989
89.04000 1.760
89.06000 3.694
89.08000 0.777
89.10000 -1.983
89.12000 -1.443
89.14000 0.800
89.16000 -0.112
89.18000 1.446
89.20000 0.551
89.22000 1.368
89.24000 -0.448
89.26000 1.163
89.28000 2.889
89.30000 1.762
89.32000 -0.580
89.34000 0.454
89.36000 1.349
89.38000 1.621
89.40000 1.080
89.42000 -0.296
89.44000 2.388
89.46000 -1.981
89.48000 1.600
89.50000 2.377
89.52000 3.413
89.54000 -0.195
89.56000 1.097
89.58000 0.771
89.60000 -1.980
89.62000 1.151
89.64000 1.531
89.66000 3.298
89.68000 2.430
89.70000 3.563
89.72000 4.698
89.74000 2.307
89.76000 1.169
89.78000 1.043
89.80000 1.326
89.82000 -0.937
89.84000 4.804
89.86000 2.132
89.88000 2.309
89.90000 1.087
89.92000 0.775
89.94000 -0.302
89.96000 -1.833
89.98000 0.033
90.00000 2.626
90.02000 2.741
90.04000 3.618
90.06000 3.589
90.08000 2.581
90.10000 1.953
90.12000 3.933
90.14000 2.656
90.16000 1.677
90.18000 0.965
90.20000 -1.964
90.22000 -1.173
90.24000 1.598
90.26000 1.766
90.28000 4.499
90.30000 1.431
90.32000 1.703
90.34000 1.110
90.36000 -0.040
90.38000 2.978
90.40000 2.578
90.42000 5.263
90.44000 1.688
90.46000 0.614
90.48000 3.001
90.50000 -0.289
90.52000 -0.361
90.54000 -0.297
90.56000 2.396
90.58000 2.499
90.60000 4.621
90.62000 4.099
90.64000 2.754
90.66000 4.143
90.68000 5.680
90.70000 5.518
90.72000 4.004
90.74000 4.018
90.76000 2.951
90.78000 3.446
90.80000 2.863
90.82000 0.637
90.84000 4.902
90.86000 6.734
90.88000 5.901
90.90000 5.906
90.92000 1.076
90.94000 -0.340
90.96000 0.648
90.98000 5.307
91.00000 6.223
91.02000 5.554
91.04000 3.992
91.06000 6.426
91.08000 4.164
91.10000 3.208
91.12000 6.096
91.14000 6.058
91.16000 4.298
91.18000 2.320
91.20000 3.728
91.22000 6.533
91.24000 6.898
91.26000 2.018
91.28000 -1.938
91.30000 1.785
91.32000 4.694
91.34000 6.633
91.36000 2.832
91.38000 1.456
91.40000 0.625
91.42000 1.760
91.44000 5.068
91.46000 5.245
91.48000 5.795
91.50000 3.147
91.52000 3.482
91.54000 1.643
91.56000 1.991
91.58000 2.042
91.60000 0.733
91.62000 3.348
91.64000 3.235
91.66000 1.553
91.68000 6.286
91.70000 5.741
91.72000 4.383
91.74000 3.561
91.76000 2.091
91.78000 3.215
91.80000 2.786
91.82000 4.082
91.84000 8.705
91.86000 2.639
91.88000 -0.252
91.90000 2.306
91.92000 1.429
91.94000 1.552
91.96000 0.024
91.98000 2.642
92.00000 4.548
92.02000 4.187
92.04000 5.730
92.06000 4.887
92.08000 4.653
92.10000 4.096
92.12000 4.616
92.14000 5.956
92.16000 9.088
92.18000 4.929
92.20000 6.244
92.22000 9.537
92.24000 9.839
92.26000 7.745
92.28000 2.414
92.30000 -1.910
92.32000 2.114
92.34000 4.603
92.36000 5.173
92.38000 4.391
92.40000 1.847
92.42000 3.314
92.44000 0.774
92.46000 -1.314
92.48000 -1.636
92.50000 2.019
92.52000 10.498
92.54000 4.749
92.56000 7.319
92.58000 8.092
92.60000 5.892
92.62000 7.050
92.64000 5.567
92.66000 7.267
92.68000 6.932
92.70000 2.753
92.72000 3.339
92.74000 3.891
92.76000 5.341
92.78000 8.524
92.80000 5.470
92.82000 5.141
92.84000 8.949
92.86000 6.889
92.88000 9.442
92.90000 9.186
92.92000 5.130
92.94000 5.802
92.96000 6.655
92.98000 6.835
93.00000 2.414
93.02000 2.815
93.04000 6.754
93.06000 6.440
93.08000 4.147
93.10000 4.391
93.12000 0.456
93.14000 -0.088
93.16000 1.310
93.18000 5.445
93.20000 3.178
93.22000 3.388
93.24000 3.486
93.26000 1.069
93.28000 2.480
93.30000 3.373
93.32000 1.913
93.34000 1.636
93.36000 2.764
93.38000 3.790
93.40000 3.791
93.42000 3.118
93.44000 3.474
93.46000 3.287
93.48000 3.953
93.50000 4.866
93.52000 2.860
93.54000 -0.576
93.56000 4.646
93.58000 5.856
93.60000 3.710
93.62000 2.402
93.64000 3.927
93.66000 2.371
93.68000 1.575
93.70000 3.841
93.72000 1.823
93.74000 1.288
93.76000 4.770
93.78000 2.644
93.80000 3.073
93.82000 3.248
93.84000 2.533
93.86000 1.476
93.88000 6.042
93.90000 -0.777
93.92000 3.090
93.94000 1.222
93.96000 -1.706
93.98000 -1.988
94.00000 1.572
94.02000 0.376
94.04000 2.129
94.06000 2.030
94.08000 5.613
94.10000 7.518
94.12000 6.100
94.14000 4.568
94.16000 2.155
94.18000 1.398
94.20000 -0.070
94.22000 2.959
94.24000 0.942
94.26000 3.824
94.28000 5.967
94.30000 7.253
94.32000 11.655
94.34000 5.414
94.36000 1.852
94.38000 5.352
94.40000 2.900
94.42000 4.662
94.44000 0.759
94.46000 1.331
94.48000 1.384
94.50000 5.620
94.52000 1.979
94.54000 -1.389
94.56000 1.734
94.58000 7.562
94.60000 7.590
94.62000 4.975
94.64000 4.021
94.66000 2.901
94.68000 0.201
94.70000 0.247
94.72000 6.708
94.74000 3.036
94.76000 -0.922
94.78000 -0.041
94.80000 1.398
94.82000 2.110
94.84000 6.959
94.86000 11.216
94.88000 4.813
94.90000 -1.974
94.92000 0.898
94.94000 1.369
94.96000 0.024
94.98000 4.335
95.00000 6.693
95.02000 6.755
95.04000 9.543
95.06000 5.433
95.08000 2.284
95.10000 0.762
95.12000 0.057
95.14000 7.469
95.16000 5.310
95.18000 2.559
95.20000 4.191
95.22000 6.412
95.24000 5.198
95.26000 5.818
95.28000 5.672
95.30000 11.866
95.32000 7.243
95.34000 5.059
95.36000 5.317
95.38000 4.117
95.40000 2.108
95.42000 5.907
95.44000 7.393
95.46000 4.711
95.48000 6.717
95.50000 9.462
95.52000 8.320
95.54000 7.999
95.56000 6.965
95.58000 6.159
95.60000 3.439
95.62000 1.725
95.64000 -1.975
95.66000 0.752
95.68000 3.369
95.70000 4.126
95.72000 1.011
95.74000 1.398
95.76000 1.230
95.78000 -0.163
95.80000 0.688
95.82000 4.912
95.84000 3.685
95.86000 2.118
95.88000 4.540
95.90000 6.858
95.92000 7.471
95.94000 3.523
95.96000 3.351
95.98000 2.134
96.00000 3.809
96.02000 4.869
96.04000 8.128
96.06000 5.773
96.08000 5.490
96.10000 3.830
96.12000 3.305
96.14000 5.327
96.16000 3.785
96.18000 3.063
96.20000 4.145
96.22000 2.958
96.24000 2.030
96.26000 5.095
96.28000 5.892
96.30000 0.146
96.32000 1.633
96.34000 2.438
96.36000 3.692
96.38000 5.480
96.40000 6.705
96.42000 4.443
96.44000 2.477
96.46000 2.180
96.48000 1.272
96.50000 3.185
96.52000 5.745
96.54000 4.194
96.56000 1.651
96.58000 -0.265
96.60000 1.933
96.62000 4.855
96.64000 7.323
96.66000 5.218
96.68000 5.157
96.70000 6.329
96.72000 2.956
96.74000 3.578
96.76000 3.091
96.78000 0.414
96.80000 -1.562
96.82000 0.671
96.84000 5.106
96.86000 6.208
96.88000 5.435
96.90000 8.136
96.92000 7.614
96.94000 7.148
96.96000 3.496
96.98000 2.406
97.00000 0.457
97.02000 1.667
97.04000 7.273
97.06000 5.622
97.08000 4.815
97.10000 6.070
97.12000 4.879
97.14000 1.415
97.16000 -1.986
97.18000 0.494
97.20000 6.709
97.22000 7.092
97.24000 2.374
97.26000 6.639
97.28000 9.031
97.30000 4.656
97.32000 5.192
97.34000 3.290
97.36000 5.168
97.38000 2.073
97.40000 2.043
97.42000 5.011
97.44000 5.316
97.46000 5.357
97.48000 4.202
97.50000 6.147
97.52000 2.495
97.54000 3.508
97.56000 5.012
97.58000 -0.388
97.60000 5.288
97.62000 3.472
97.64000 -0.921
97.66000 4.327
97.68000 8.984
97.70000 5.675
97.72000 5.491
97.74000 4.535
97.76000 4.725
97.78000 0.105
97.80000 3.182
97.82000 3.853
97.84000 2.270
97.86000 -1.949
97.88000 1.708
97.90000 4.675
97.92000 3.734
97.94000 9.627
97.96000 5.969
97.98000 0.467
98.00000 4.163
98.02000 8.156
98.04000 6.067
98.06000 -1.325
98.08000 1.553
98.10000 7.382
98.12000 7.013
98.14000 7.087
98.16000 5.032
98.18000 2.388
98.20000 4.852
98.22000 3.558
98.24000 6.170
98.26000 5.915
98.28000 7.785
98.30000 6.230
98.32000 2.239
98.34000 -0.499
98.36000 1.577
98.38000 3.905
98.40000 1.919
98.42000 4.565
98.44000 -1.259
98.46000 2.141
98.48000 3.576
98.50000 0.245
98.52000 7.574
98.54000 3.207
98.56000 -1.958
98.58000 0.957
98.60000 0.951
98.62000 -0.069
98.64000 7.328
98.66000 7.597
98.68000 1.888
98.70000 -0.318
98.72000 0.731
98.74000 5.027
98.76000 4.452
98.78000 5.282
98.80000 4.406
98.82000 4.651
98.84000 1.883
98.86000 -0.800
98.88000 -0.645
98.90000 3.638
98.92000 6.101
98.94000 5.297
98.96000 7.465
98.98000 9.422
99.00000 6.278
99.02000 9.053
99.04000 0.443
99.06000 3.521
99.08000 3.768
99.10000 0.471
99.12000 9.538
99.14000 6.306
99.16000 -1.161
99.18000 2.972
99.20000 1.259
99.22000 2.395
99.24000 -0.606
99.26000 3.370
99.28000 2.194
99.30000 -0.234
99.32000 0.706
99.34000 -1.273
99.36000 0.878
99.38000 6.997
99.40000 8.977
99.42000 4.095
99.44000 1.712
99.46000 4.973
99.48000 7.254
99.50000 9.907
99.52000 5.188
99.54000 1.623
99.56000 8.297
99.58000 3.291
99.60000 -1.951
99.62000 5.028
99.64000 1.205
99.66000 -0.468
99.68000 6.222
99.70000 1.205
99.72000 5.456
99.74000 5.061
99.76000 2.040
99.78000 4.383
99.80000 2.717
99.82000 5.473
99.84000 -1.415
99.86000 1.751
99.88000 3.896
99.90000 2.459
99.92000 -2.138
99.94000 7.523
99.96000 6.550
99.98000 0.000
