'Id: "0011387" Comment: "Integrate frame 0011387_Au-Ir-Rh_Rh-rich_XRD-Mapping-154-0000.gfrmwith cursor Wedge Cursor #5" Operator: "B?rgel" Anode: "Cu" Wavelength: "1.5406" Scantype: "2Theta (TwoTheta)" TimePerStep: "1" X: "36" Y: "-4.5" Z: "5.95" 
10.00000 0.000
10.02000 1.634
10.04000 -3.154
10.06000 -2.946
10.08000 4.731
10.10000 15.507
10.12000 26.522
10.14000 13.045
10.16000 11.009
10.18000 1.473
10.20000 2.889
10.22000 9.005
10.24000 6.111
10.26000 10.967
10.28000 -1.646
10.30000 9.196
10.32000 13.624
10.34000 12.207
10.36000 12.400
10.38000 24.017
10.40000 10.652
10.42000 9.930
10.44000 6.585
10.46000 9.845
10.48000 5.050
10.50000 12.617
10.52000 14.736
10.54000 14.548
10.56000 4.947
10.58000 14.010
10.60000 16.007
10.62000 9.593
10.64000 19.679
10.66000 19.030
10.68000 16.159
10.70000 30.235
10.72000 23.804
10.74000 21.270
10.76000 17.134
10.78000 25.400
10.80000 26.831
10.82000 21.795
10.84000 20.182
10.86000 1.880
10.88000 14.260
10.90000 28.980
10.92000 19.094
10.94000 27.327
10.96000 25.579
10.98000 33.862
11.00000 24.215
11.02000 12.614
11.04000 13.047
11.06000 23.880
11.08000 21.434
11.10000 20.338
11.12000 17.242
11.14000 18.611
11.16000 24.272
11.18000 36.104
11.20000 38.766
11.22000 40.631
11.24000 39.332
11.26000 38.488
11.28000 34.002
11.30000 40.152
11.32000 36.507
11.34000 31.142
11.36000 20.588
11.38000 26.971
11.40000 30.224
11.42000 31.558
11.44000 20.571
11.46000 24.149
11.48000 25.944
11.50000 38.284
11.52000 34.273
11.54000 34.051
11.56000 39.234
11.58000 38.172
11.60000 26.434
11.62000 18.561
11.64000 29.560
11.66000 32.572
11.68000 30.924
11.70000 29.888
11.72000 33.085
11.74000 28.472
11.76000 33.474
11.78000 39.831
11.80000 47.692
11.82000 45.142
11.84000 33.082
11.86000 35.132
11.88000 31.737
11.90000 37.824
11.92000 41.613
11.94000 40.847
11.96000 40.251
11.98000 33.514
12.00000 28.823
12.02000 38.402
12.04000 41.268
12.06000 47.278
12.08000 50.881
12.10000 50.773
12.12000 37.037
12.14000 38.436
12.16000 41.598
12.18000 50.176
12.20000 52.035
12.22000 48.459
12.24000 55.179
12.26000 45.572
12.28000 33.913
12.30000 44.182
12.32000 51.591
12.34000 38.259
12.36000 43.978
12.38000 49.044
12.40000 50.937
12.42000 38.246
12.44000 45.693
12.46000 51.494
12.48000 54.815
12.50000 57.462
12.52000 49.360
12.54000 44.604
12.56000 49.729
12.58000 51.091
12.60000 51.091
12.62000 49.461
12.64000 46.809
12.66000 53.682
12.68000 44.891
12.70000 33.908
12.72000 37.167
12.74000 36.315
12.76000 42.225
12.78000 47.930
12.80000 45.481
12.82000 43.017
12.84000 45.013
12.86000 42.599
12.88000 47.681
12.90000 49.725
12.92000 49.507
12.94000 42.135
12.96000 39.430
12.98000 45.045
13.00000 57.834
13.02000 44.003
13.04000 32.976
13.06000 28.090
13.08000 40.621
13.10000 42.730
13.12000 43.856
13.14000 47.712
13.16000 48.841
13.18000 40.474
13.20000 34.312
13.22000 44.639
13.24000 48.416
13.26000 41.382
13.28000 44.164
13.30000 41.738
13.32000 49.245
13.34000 41.837
13.36000 44.342
13.38000 44.462
13.40000 31.389
13.42000 36.809
13.44000 44.404
13.46000 42.683
13.48000 39.165
13.50000 40.517
13.52000 43.174
13.54000 45.697
13.56000 49.938
13.58000 44.029
13.60000 41.544
13.62000 39.871
13.64000 37.784
13.66000 38.408
13.68000 41.769
13.70000 40.293
13.72000 32.707
13.74000 35.114
13.76000 35.574
13.78000 42.051
13.80000 39.906
13.82000 31.578
13.84000 26.796
13.86000 25.870
13.88000 38.829
13.90000 48.318
13.92000 49.980
13.94000 44.100
13.96000 41.302
13.98000 32.993
14.00000 24.096
14.02000 25.373
14.04000 46.206
14.06000 44.702
14.08000 37.675
14.10000 41.782
14.12000 31.435
14.14000 30.132
14.16000 35.432
14.18000 40.323
14.20000 32.035
14.22000 32.901
14.24000 49.174
14.26000 46.494
14.28000 47.140
14.30000 39.340
14.32000 34.088
14.34000 22.107
14.36000 25.521
14.38000 32.516
14.40000 31.946
14.42000 39.372
14.44000 31.555
14.46000 29.031
14.48000 41.382
14.50000 34.839
14.52000 34.333
14.54000 35.153
14.56000 29.558
14.58000 32.375
14.60000 34.140
14.62000 31.671
14.64000 33.054
14.66000 26.103
14.68000 24.231
14.70000 26.366
14.72000 26.133
14.74000 24.465
14.76000 21.112
14.78000 21.600
14.80000 26.611
14.82000 23.543
14.84000 31.528
14.86000 37.840
14.88000 32.475
14.90000 27.976
14.92000 33.947
14.94000 41.108
14.96000 32.352
14.98000 25.778
15.00000 21.736
15.02000 25.168
15.04000 25.347
15.06000 32.645
15.08000 33.485
15.10000 31.087
15.12000 27.321
15.14000 21.215
15.16000 28.718
15.18000 35.570
15.20000 35.756
15.22000 25.761
15.24000 23.294
15.26000 24.247
15.28000 15.061
15.30000 9.929
15.32000 26.303
15.34000 24.192
15.36000 24.039
15.38000 21.618
15.40000 22.462
15.42000 20.645
15.44000 24.631
15.46000 27.279
15.48000 26.743
15.50000 20.940
15.52000 24.043
15.54000 25.752
15.56000 29.832
15.58000 22.719
15.60000 20.032
15.62000 21.169
15.64000 17.598
15.66000 27.090
15.68000 19.778
15.70000 16.894
15.72000 15.251
15.74000 16.159
15.76000 26.281
15.78000 28.329
15.80000 23.207
15.82000 17.030
15.84000 20.827
15.86000 20.771
15.88000 20.197
15.90000 25.267
15.92000 23.121
15.94000 23.089
15.96000 20.688
15.98000 18.746
16.00000 17.433
16.02000 15.788
16.04000 20.480
16.06000 22.754
16.08000 18.515
16.10000 14.195
16.12000 16.564
16.14000 14.714
16.16000 15.881
16.18000 21.498
16.20000 15.157
16.22000 17.161
16.24000 21.797
16.26000 19.071
16.28000 15.599
16.30000 15.329
16.32000 20.209
16.34000 18.544
16.36000 12.917
16.38000 4.392
16.40000 5.957
16.42000 8.789
16.44000 13.015
16.46000 15.652
16.48000 18.607
16.50000 20.497
16.52000 17.259
16.54000 14.720
16.56000 24.943
16.58000 16.579
16.60000 19.416
16.62000 21.679
16.64000 14.779
16.66000 7.100
16.68000 2.535
16.70000 10.459
16.72000 20.670
16.74000 29.063
16.76000 23.345
16.78000 7.695
16.80000 10.334
16.82000 13.801
16.84000 20.222
16.86000 12.670
16.88000 6.972
16.90000 12.409
16.92000 18.152
16.94000 19.687
16.96000 14.819
16.98000 7.193
17.00000 5.058
17.02000 14.729
17.04000 7.612
17.06000 4.554
17.08000 10.171
17.10000 5.064
17.12000 9.472
17.14000 11.639
17.16000 7.598
17.18000 7.201
17.20000 10.365
17.22000 12.527
17.24000 12.378
17.26000 8.253
17.28000 0.990
17.30000 6.453
17.32000 2.409
17.34000 14.064
17.36000 22.792
17.38000 12.672
17.40000 3.540
17.42000 7.064
17.44000 4.857
17.46000 4.262
17.48000 4.583
17.50000 -0.526
17.52000 9.453
17.54000 16.481
17.56000 12.926
17.58000 9.964
17.60000 15.358
17.62000 20.190
17.64000 12.338
17.66000 14.876
17.68000 13.562
17.70000 7.804
17.72000 9.581
17.74000 10.665
17.76000 11.562
17.78000 2.837
17.80000 1.371
17.82000 5.217
17.84000 8.369
17.86000 11.667
17.88000 13.652
17.90000 12.333
17.92000 10.072
17.94000 13.264
17.96000 9.337
17.98000 13.185
18.00000 11.287
18.02000 5.668
18.04000 4.994
18.06000 8.031
18.08000 11.165
18.10000 10.471
18.12000 8.033
18.14000 10.280
18.16000 11.057
18.18000 8.707
18.20000 6.383
18.22000 5.246
18.24000 6.336
18.26000 8.256
18.28000 2.977
18.30000 1.529
18.32000 6.454
18.34000 10.525
18.36000 7.624
18.38000 6.288
18.40000 9.030
18.42000 10.100
18.44000 6.868
18.46000 2.636
18.48000 2.451
18.50000 4.243
18.52000 10.055
18.54000 7.480
18.56000 -1.358
18.58000 0.866
18.60000 6.893
18.62000 5.942
18.64000 3.385
18.66000 2.180
18.68000 1.190
18.70000 3.139
18.72000 15.895
18.74000 7.008
18.76000 6.981
18.78000 5.581
18.80000 8.222
18.82000 3.699
18.84000 7.533
18.86000 6.618
18.88000 -0.596
18.90000 2.873
18.92000 5.518
18.94000 2.833
18.96000 -2.295
18.98000 3.692
19.00000 4.696
19.02000 -4.258
19.04000 -2.930
19.06000 10.712
19.08000 17.448
19.10000 18.650
19.12000 12.538
19.14000 5.854
19.16000 4.014
19.18000 8.199
19.20000 4.115
19.22000 5.952
19.24000 10.225
19.26000 12.452
19.28000 6.599
19.30000 10.015
19.32000 10.712
19.34000 10.453
19.36000 12.108
19.38000 10.368
19.40000 11.626
19.42000 8.930
19.44000 6.661
19.46000 2.588
19.48000 -4.221
19.50000 3.915
19.52000 12.689
19.54000 14.756
19.56000 8.437
19.58000 5.535
19.60000 10.975
19.62000 7.730
19.64000 13.924
19.66000 13.420
19.68000 2.268
19.70000 -0.254
19.72000 5.329
19.74000 9.973
19.76000 7.145
19.78000 7.554
19.80000 5.439
19.82000 -1.231
19.84000 4.084
19.86000 2.773
19.88000 6.322
19.90000 4.976
19.92000 8.040
19.94000 5.096
19.96000 -1.278
19.98000 1.173
20.00000 3.348
20.02000 2.583
20.04000 4.568
20.06000 8.101
20.08000 1.857
20.10000 -0.579
20.12000 2.754
20.14000 3.951
20.16000 3.052
20.18000 2.776
20.20000 1.571
20.22000 5.876
20.24000 5.837
20.26000 1.808
20.28000 2.724
20.30000 1.383
20.32000 3.962
20.34000 6.957
20.36000 4.190
20.38000 4.200
20.40000 -1.402
20.42000 0.693
20.44000 -0.308
20.46000 5.942
20.48000 11.635
20.50000 7.538
20.52000 7.687
20.54000 4.755
20.56000 0.886
20.58000 1.129
20.60000 5.462
20.62000 5.011
20.64000 9.239
20.66000 8.597
20.68000 -1.670
20.70000 -1.529
20.72000 5.184
20.74000 10.365
20.76000 1.996
20.78000 4.135
20.80000 3.888
20.82000 7.858
20.84000 7.259
20.86000 6.418
20.88000 -1.754
20.90000 0.317
20.92000 0.495
20.94000 9.975
20.96000 12.647
20.98000 11.569
21.00000 4.509
21.02000 3.920
21.04000 1.885
21.06000 5.804
21.08000 4.923
21.10000 -4.144
21.12000 1.642
21.14000 4.404
21.16000 5.338
21.18000 1.218
21.20000 2.490
21.22000 3.945
21.24000 -1.043
21.26000 -1.906
21.28000 3.015
21.30000 3.041
21.32000 2.646
21.34000 1.005
21.36000 -1.747
21.38000 -2.763
21.40000 11.491
21.42000 12.075
21.44000 13.483
21.46000 14.753
21.48000 10.005
21.50000 10.507
21.52000 11.183
21.54000 5.871
21.56000 0.463
21.58000 7.385
21.60000 13.531
21.62000 9.291
21.64000 1.671
21.66000 2.742
21.68000 10.763
21.70000 10.806
21.72000 12.198
21.74000 8.136
21.76000 5.266
21.78000 3.304
21.80000 0.001
21.82000 0.611
21.84000 8.094
21.86000 7.562
21.88000 1.632
21.90000 1.085
21.92000 8.952
21.94000 5.285
21.96000 2.666
21.98000 0.018
22.00000 3.310
22.02000 1.583
22.04000 -2.213
22.06000 -0.919
22.08000 7.198
22.10000 4.952
22.12000 0.525
22.14000 0.636
22.16000 0.500
22.18000 0.752
22.20000 2.706
22.22000 3.109
22.24000 4.979
22.26000 0.350
22.28000 -0.005
22.30000 -2.516
22.32000 -4.091
22.34000 -3.334
22.36000 -0.171
22.38000 7.624
22.40000 -1.810
22.42000 -0.429
22.44000 4.109
22.46000 6.177
22.48000 8.649
22.50000 7.496
22.52000 3.964
22.54000 3.323
22.56000 -0.093
22.58000 2.852
22.60000 3.120
22.62000 -0.078
22.64000 5.839
22.66000 8.919
22.68000 8.425
22.70000 4.194
22.72000 1.158
22.74000 3.588
22.76000 4.668
22.78000 6.163
22.80000 7.417
22.82000 6.564
22.84000 3.927
22.86000 8.067
22.88000 11.216
22.90000 8.517
22.92000 11.424
22.94000 13.514
22.96000 8.858
22.98000 8.640
23.00000 4.509
23.02000 2.624
23.04000 7.620
23.06000 12.308
23.08000 6.294
23.10000 4.868
23.12000 -0.387
23.14000 4.232
23.16000 5.853
23.18000 11.508
23.20000 8.240
23.22000 9.215
23.24000 13.441
23.26000 11.188
23.28000 6.034
23.30000 2.915
23.32000 4.352
23.34000 5.906
23.36000 8.716
23.38000 6.900
23.40000 0.099
23.42000 -4.019
23.44000 -0.031
23.46000 8.819
23.48000 7.883
23.50000 7.043
23.52000 -0.354
23.54000 2.747
23.56000 5.795
23.58000 7.098
23.60000 5.684
23.62000 7.108
23.64000 7.119
23.66000 3.282
23.68000 -0.558
23.70000 2.385
23.72000 6.863
23.74000 5.819
23.76000 8.718
23.78000 12.202
23.80000 4.845
23.82000 3.917
23.84000 5.355
23.86000 6.899
23.88000 7.052
23.90000 6.217
23.92000 -2.065
23.94000 -2.990
23.96000 0.024
23.98000 5.269
24.00000 7.205
24.02000 7.444
24.04000 4.287
24.06000 -1.552
24.08000 2.709
24.10000 5.082
24.12000 -0.487
24.14000 -2.242
24.16000 2.796
24.18000 2.360
24.20000 3.584
24.22000 1.932
24.24000 -0.195
24.26000 0.198
24.28000 5.714
24.30000 6.605
24.32000 6.176
24.34000 8.566
24.36000 3.681
24.38000 3.429
24.40000 4.924
24.42000 7.171
24.44000 9.282
24.46000 5.757
24.48000 0.427
24.50000 -2.151
24.52000 0.482
24.54000 1.343
24.56000 3.106
24.58000 6.721
24.60000 6.200
24.62000 8.280
24.64000 8.271
24.66000 5.277
24.68000 4.750
24.70000 4.680
24.72000 8.249
24.74000 4.550
24.76000 3.004
24.78000 6.958
24.80000 6.321
24.82000 6.849
24.84000 3.882
24.86000 2.212
24.88000 8.236
24.90000 7.483
24.92000 5.781
24.94000 7.643
24.96000 13.237
24.98000 12.509
25.00000 8.167
25.02000 6.885
25.04000 4.212
25.06000 5.330
25.08000 9.413
25.10000 9.919
25.12000 6.043
25.14000 4.767
25.16000 11.556
25.18000 12.473
25.20000 5.687
25.22000 11.782
25.24000 7.042
25.26000 -3.891
25.28000 -1.591
25.30000 5.169
25.32000 8.682
25.34000 3.237
25.36000 3.940
25.38000 5.355
25.40000 14.306
25.42000 15.254
25.44000 9.158
25.46000 0.015
25.48000 -1.513
25.50000 4.005
25.52000 8.906
25.54000 11.682
25.56000 5.088
25.58000 2.782
25.60000 4.646
25.62000 8.506
25.64000 2.845
25.66000 6.563
25.68000 9.285
25.70000 8.168
25.72000 11.242
25.74000 5.967
25.76000 4.348
25.78000 7.632
25.80000 0.692
25.82000 -3.888
25.84000 -2.732
25.86000 0.533
25.88000 -1.559
25.90000 1.898
25.92000 7.867
25.94000 6.644
25.96000 2.188
25.98000 4.804
26.00000 9.731
26.02000 14.166
26.04000 13.708
26.06000 8.017
26.08000 5.940
26.10000 7.172
26.12000 11.983
26.14000 5.973
26.16000 7.525
26.18000 5.868
26.20000 2.496
26.22000 4.213
26.24000 6.671
26.26000 5.962
26.28000 3.054
26.30000 4.027
26.32000 6.930
26.34000 11.862
26.36000 8.632
26.38000 7.746
26.40000 4.509
26.42000 -1.484
26.44000 -1.266
26.46000 -2.277
26.48000 0.933
26.50000 4.385
26.52000 5.665
26.54000 4.649
26.56000 5.432
26.58000 5.761
26.60000 7.808
26.62000 6.045
26.64000 4.043
26.66000 2.997
26.68000 0.256
26.70000 2.691
26.72000 -0.190
26.74000 2.004
26.76000 5.571
26.78000 7.367
26.80000 4.079
26.82000 -2.355
26.84000 -3.854
26.86000 0.592
26.88000 1.167
26.90000 -2.847
26.92000 -1.427
26.94000 1.087
26.96000 -1.309
26.98000 -0.030
27.00000 0.580
27.02000 0.841
27.04000 0.755
27.06000 -2.173
27.08000 -2.160
27.10000 0.252
27.12000 2.044
27.14000 1.586
27.16000 0.389
27.18000 3.962
27.20000 1.529
27.22000 0.819
27.24000 3.658
27.26000 5.067
27.28000 2.801
27.30000 1.182
27.32000 5.364
27.34000 2.774
27.36000 5.043
27.38000 1.628
27.40000 0.231
27.42000 0.971
27.44000 2.584
27.46000 7.442
27.48000 5.387
27.50000 3.287
27.52000 5.347
27.54000 2.245
27.56000 5.467
27.58000 6.950
27.60000 7.479
27.62000 8.067
27.64000 9.433
27.66000 0.694
27.68000 -3.808
27.70000 -0.349
27.72000 2.660
27.74000 0.499
27.76000 -2.368
27.78000 0.714
27.80000 0.442
27.82000 2.871
27.84000 -2.593
27.86000 1.113
27.88000 -0.794
27.90000 0.834
27.92000 -3.018
27.94000 1.837
27.96000 3.669
27.98000 5.641
28.00000 6.830
28.02000 3.213
28.04000 0.208
28.06000 -2.694
28.08000 0.383
28.10000 2.945
28.12000 7.036
28.14000 5.002
28.16000 3.124
28.18000 6.872
28.20000 6.540
28.22000 4.082
28.24000 2.517
28.26000 -1.328
28.28000 5.635
28.30000 7.843
28.32000 4.036
28.34000 -0.320
28.36000 1.179
28.38000 9.117
28.40000 3.922
28.42000 5.384
28.44000 8.663
28.46000 3.358
28.48000 -1.661
28.50000 2.465
28.52000 6.163
28.54000 6.468
28.56000 1.402
28.58000 1.648
28.60000 3.505
28.62000 3.966
28.64000 2.025
28.66000 -0.469
28.68000 -3.722
28.70000 1.529
28.72000 -0.459
28.74000 -0.988
28.76000 2.513
28.78000 1.730
28.80000 2.884
28.82000 5.698
28.84000 3.721
28.86000 2.455
28.88000 4.221
28.90000 1.810
28.92000 3.834
28.94000 2.066
28.96000 2.606
28.98000 7.160
29.00000 7.979
29.02000 4.943
29.04000 0.329
29.06000 2.972
29.08000 2.041
29.10000 2.777
29.12000 6.680
29.14000 6.179
29.16000 8.564
29.18000 7.888
29.20000 3.739
29.22000 4.850
29.24000 6.620
29.26000 3.624
29.28000 -0.083
29.30000 4.139
29.32000 4.544
29.34000 3.946
29.36000 3.147
29.38000 0.833
29.40000 6.605
29.42000 5.643
29.44000 1.958
29.46000 -0.239
29.48000 0.397
29.50000 1.273
29.52000 2.624
29.54000 0.156
29.56000 7.214
29.58000 8.850
29.60000 6.539
29.62000 3.515
29.64000 4.148
29.66000 3.269
29.68000 5.938
29.70000 9.763
29.72000 13.604
29.74000 7.196
29.76000 3.968
29.78000 3.377
29.80000 -0.109
29.82000 -3.654
29.84000 1.305
29.86000 8.260
29.88000 7.678
29.90000 7.047
29.92000 4.487
29.94000 3.334
29.96000 1.560
29.98000 2.139
30.00000 2.473
30.02000 0.737
30.04000 -0.734
30.06000 -0.404
30.08000 6.270
30.10000 13.418
30.12000 7.219
30.14000 10.312
30.16000 13.347
30.18000 5.255
30.20000 -1.107
30.22000 2.858
30.24000 5.851
30.26000 7.227
30.28000 7.844
30.30000 7.283
30.32000 2.427
30.34000 4.363
30.36000 4.741
30.38000 2.435
30.40000 5.748
30.42000 11.393
30.44000 5.079
30.46000 3.319
30.48000 5.241
30.50000 9.241
30.52000 7.312
30.54000 7.738
30.56000 5.204
30.58000 5.236
30.60000 1.607
30.62000 -3.635
30.64000 4.144
30.66000 4.835
30.68000 0.465
30.70000 -1.319
30.72000 -1.041
30.74000 0.433
30.76000 4.192
30.78000 2.508
30.80000 0.107
30.82000 3.081
30.84000 3.440
30.86000 2.887
30.88000 2.405
30.90000 2.909
30.92000 1.370
30.94000 4.253
30.96000 3.675
30.98000 1.725
31.00000 7.138
31.02000 6.860
31.04000 8.073
31.06000 9.843
31.08000 3.827
31.10000 -2.734
31.12000 -1.874
31.14000 -2.831
31.16000 -3.455
31.18000 0.045
31.20000 4.166
31.22000 1.784
31.24000 -0.650
31.26000 -2.219
31.28000 -2.591
31.30000 5.338
31.32000 2.653
31.34000 2.277
31.36000 3.349
31.38000 2.351
31.40000 -1.786
31.42000 0.166
31.44000 1.437
31.46000 2.532
31.48000 2.280
31.50000 -2.380
31.52000 0.147
31.54000 -1.147
31.56000 2.697
31.58000 2.701
31.60000 -1.019
31.62000 2.988
31.64000 3.398
31.66000 3.083
31.68000 8.516
31.70000 7.075
31.72000 0.294
31.74000 0.717
31.76000 5.610
31.78000 2.153
31.80000 1.095
31.82000 3.375
31.84000 4.323
31.86000 -0.339
31.88000 -2.150
31.90000 4.611
31.92000 1.378
31.94000 0.367
31.96000 -1.404
31.98000 -1.227
32.00000 2.020
32.02000 -1.189
32.04000 -0.549
32.06000 -1.695
32.08000 -1.722
32.10000 6.122
32.12000 8.182
32.14000 5.985
32.16000 0.988
32.18000 2.788
32.20000 0.398
32.22000 -0.571
32.24000 3.974
32.26000 5.687
32.28000 4.410
32.30000 4.006
32.32000 2.460
32.34000 7.206
32.36000 1.550
32.38000 3.631
32.40000 2.257
32.42000 0.904
32.44000 3.103
32.46000 1.529
32.48000 0.122
32.50000 0.156
32.52000 -1.193
32.54000 1.401
32.56000 -1.305
32.58000 -0.035
32.60000 3.156
32.62000 4.551
32.64000 2.550
32.66000 6.496
32.68000 1.065
32.70000 -2.167
32.72000 0.879
32.74000 5.183
32.76000 5.612
32.78000 1.859
32.80000 4.299
32.82000 10.754
32.84000 6.122
32.86000 1.376
32.88000 2.062
32.90000 1.258
32.92000 2.617
32.94000 6.776
32.96000 5.886
32.98000 7.347
33.00000 4.480
33.02000 1.273
33.04000 -1.672
33.06000 -0.020
33.08000 2.423
33.10000 2.798
33.12000 3.803
33.14000 5.156
33.16000 3.193
33.18000 2.264
33.20000 4.378
33.22000 2.657
33.24000 3.969
33.26000 1.680
33.28000 -3.519
33.30000 5.028
33.32000 6.503
33.34000 6.319
33.36000 3.275
33.38000 8.391
33.40000 7.901
33.42000 9.272
33.44000 12.514
33.46000 10.745
33.48000 9.802
33.50000 7.690
33.52000 6.915
33.54000 8.534
33.56000 6.619
33.58000 3.311
33.60000 6.385
33.62000 6.170
33.64000 3.042
33.66000 3.610
33.68000 5.590
33.70000 5.193
33.72000 7.616
33.74000 4.821
33.76000 2.620
33.78000 0.122
33.80000 1.421
33.82000 5.096
33.84000 5.530
33.86000 5.831
33.88000 6.585
33.90000 5.184
33.92000 10.792
33.94000 11.426
33.96000 2.470
33.98000 1.019
34.00000 7.340
34.02000 5.139
34.04000 2.039
34.06000 -0.295
34.08000 6.155
34.10000 0.712
34.12000 2.821
34.14000 4.051
34.16000 6.865
34.18000 7.296
34.20000 4.660
34.22000 3.940
34.24000 2.146
34.26000 3.823
34.28000 6.253
34.30000 5.843
34.32000 4.604
34.34000 3.169
34.36000 3.456
34.38000 6.444
34.40000 8.961
34.42000 4.116
34.44000 5.715
34.46000 5.573
34.48000 5.467
34.50000 8.148
34.52000 4.003
34.54000 3.664
34.56000 -2.551
34.58000 -3.513
34.60000 0.682
34.62000 2.803
34.64000 3.700
34.66000 3.852
34.68000 4.813
34.70000 6.577
34.72000 4.458
34.74000 6.734
34.76000 1.794
34.78000 4.554
34.80000 7.252
34.82000 3.964
34.84000 6.667
34.86000 0.622
34.88000 0.263
34.90000 0.099
34.92000 0.641
34.94000 4.480
34.96000 -0.689
34.98000 -1.610
35.00000 -1.531
35.02000 0.251
35.04000 0.967
35.06000 0.973
35.08000 3.271
35.10000 1.406
35.12000 4.527
35.14000 4.669
35.16000 4.797
35.18000 4.527
35.20000 2.466
35.22000 0.275
35.24000 2.898
35.26000 2.461
35.28000 -0.321
35.30000 -0.676
35.32000 -2.833
35.34000 2.360
35.36000 1.931
35.38000 4.493
35.40000 4.744
35.42000 3.336
35.44000 2.661
35.46000 1.905
35.48000 3.402
35.50000 1.722
35.52000 3.291
35.54000 2.348
35.56000 2.243
35.58000 1.788
35.60000 3.436
35.62000 3.119
35.64000 4.212
35.66000 4.972
35.68000 -2.641
35.70000 -3.486
35.72000 -0.658
35.74000 3.849
35.76000 0.459
35.78000 6.855
35.80000 3.308
35.82000 2.349
35.84000 6.476
35.86000 4.394
35.88000 -3.476
35.90000 -0.023
35.92000 0.795
35.94000 0.980
35.96000 0.474
35.98000 5.691
36.00000 4.915
36.02000 -0.888
36.04000 1.180
36.06000 1.501
36.08000 -2.620
36.10000 -3.487
36.12000 -0.430
36.14000 3.284
36.16000 3.626
36.18000 -0.400
36.20000 0.412
36.22000 4.711
36.24000 2.567
36.26000 -0.635
36.28000 3.564
36.30000 -0.675
36.32000 -1.956
36.34000 0.774
36.36000 -0.129
36.38000 -0.627
36.40000 2.131
36.42000 4.503
36.44000 3.360
36.46000 1.395
36.48000 2.426
36.50000 1.321
36.52000 5.245
36.54000 6.955
36.56000 2.565
36.58000 5.403
36.60000 1.740
36.62000 -2.601
36.64000 -1.956
36.66000 -0.592
36.68000 -0.599
36.70000 0.567
36.72000 2.146
36.74000 4.381
36.76000 5.768
36.78000 1.262
36.80000 0.103
36.82000 2.036
36.84000 5.061
36.86000 1.037
36.88000 -3.022
36.90000 -1.370
36.92000 -2.275
36.94000 -0.393
36.96000 0.125
36.98000 3.464
37.00000 -1.996
37.02000 -1.143
37.04000 -2.286
37.06000 -3.418
37.08000 -2.855
37.10000 -1.685
37.12000 2.831
37.14000 -1.390
37.16000 -3.523
37.18000 1.221
37.20000 1.995
37.22000 1.460
37.24000 0.049
37.26000 -0.552
37.28000 -2.323
37.30000 -0.916
37.32000 -1.098
37.34000 2.320
37.36000 1.093
37.38000 -2.291
37.40000 0.404
37.42000 3.734
37.44000 0.849
37.46000 3.640
37.48000 3.560
37.50000 -1.681
37.52000 -3.562
37.54000 1.181
37.56000 1.252
37.58000 1.624
37.60000 0.353
37.62000 0.292
37.64000 1.654
37.66000 0.275
37.68000 -1.369
37.70000 -2.020
37.72000 0.445
37.74000 2.146
37.76000 0.387
37.78000 6.230
37.80000 9.108
37.82000 4.298
37.84000 4.094
37.86000 6.386
37.88000 1.954
37.90000 1.402
37.92000 -0.497
37.94000 -0.633
37.96000 -1.731
37.98000 2.482
38.00000 6.773
38.02000 7.661
38.04000 5.500
38.06000 5.669
38.08000 6.319
38.10000 7.795
38.12000 5.164
38.14000 7.763
38.16000 6.914
38.18000 10.071
38.20000 12.077
38.22000 7.197
38.24000 5.479
38.26000 9.593
38.28000 8.733
38.30000 10.653
38.32000 9.663
38.34000 12.199
38.36000 9.198
38.38000 7.710
38.40000 15.273
38.42000 16.666
38.44000 16.993
38.46000 12.447
38.48000 12.421
38.50000 8.845
38.52000 16.281
38.54000 13.584
38.56000 10.923
38.58000 15.469
38.60000 19.358
38.62000 17.514
38.64000 14.836
38.66000 15.225
38.68000 16.487
38.70000 18.751
38.72000 20.796
38.74000 18.233
38.76000 16.835
38.78000 17.938
38.80000 20.311
38.82000 22.067
38.84000 20.122
38.86000 26.743
38.88000 26.017
38.90000 22.067
38.92000 22.826
38.94000 25.547
38.96000 26.822
38.98000 23.025
39.00000 20.007
39.02000 23.449
39.04000 25.017
39.06000 29.203
39.08000 25.202
39.10000 26.876
39.12000 25.564
39.14000 29.129
39.16000 30.596
39.18000 30.081
39.20000 33.109
39.22000 36.178
39.24000 39.784
39.26000 38.091
39.28000 39.239
39.30000 44.519
39.32000 46.785
39.34000 47.354
39.36000 46.503
39.38000 49.367
39.40000 49.752
39.42000 50.471
39.44000 58.896
39.46000 62.244
39.48000 62.543
39.50000 66.846
39.52000 74.515
39.54000 78.409
39.56000 80.839
39.58000 85.099
39.60000 90.772
39.62000 92.235
39.64000 91.619
39.66000 100.766
39.68000 105.801
39.70000 113.258
39.72000 121.630
39.74000 124.871
39.76000 126.648
39.78000 134.097
39.80000 145.258
39.82000 147.093
39.84000 156.375
39.86000 160.332
39.88000 176.660
39.90000 192.223
39.92000 201.976
39.94000 211.466
39.96000 218.305
39.98000 233.934
40.00000 252.338
40.02000 264.734
40.04000 272.270
40.06000 287.310
40.08000 298.305
40.10000 323.754
40.12000 340.348
40.14000 360.254
40.16000 377.848
40.18000 397.421
40.20000 410.469
40.22000 428.282
40.24000 449.643
40.26000 470.129
40.28000 486.402
40.30000 497.922
40.32000 508.640
40.34000 517.214
40.36000 538.402
40.38000 566.239
40.40000 576.543
40.42000 584.207
40.44000 591.832
40.46000 594.788
40.48000 598.974
40.50000 603.511
40.52000 608.371
40.54000 599.379
40.56000 596.371
40.58000 596.590
40.60000 584.923
40.62000 581.525
40.64000 570.054
40.66000 551.484
40.68000 538.966
40.70000 527.830
40.72000 513.396
40.74000 497.761
40.76000 488.494
40.78000 470.865
40.80000 448.584
40.82000 430.871
40.84000 414.367
40.86000 400.407
40.88000 386.968
40.90000 370.441
40.92000 354.698
40.94000 334.987
40.96000 322.615
40.98000 304.171
41.00000 287.623
41.02000 272.889
41.04000 260.659
41.06000 248.212
41.08000 234.384
41.10000 222.420
41.12000 211.741
41.14000 199.603
41.16000 191.146
41.18000 186.321
41.20000 176.035
41.22000 161.236
41.24000 149.165
41.26000 138.310
41.28000 139.216
41.30000 133.060
41.32000 126.249
41.34000 120.577
41.36000 113.889
41.38000 102.669
41.40000 96.639
41.42000 95.431
41.44000 93.372
41.46000 87.623
41.48000 83.270
41.50000 77.635
41.52000 74.398
41.54000 70.273
41.56000 67.201
41.58000 64.450
41.60000 61.454
41.62000 58.471
41.64000 56.847
41.66000 51.771
41.68000 49.071
41.70000 45.997
41.72000 43.457
41.74000 39.538
41.76000 39.123
41.78000 42.036
41.80000 40.003
41.82000 35.189
41.84000 37.343
41.86000 34.891
41.88000 28.903
41.90000 27.903
41.92000 23.494
41.94000 25.967
41.96000 27.767
41.98000 23.836
42.00000 25.067
42.02000 26.817
42.04000 24.362
42.06000 22.581
42.08000 15.891
42.10000 16.429
42.12000 14.420
42.14000 11.841
42.16000 13.240
42.18000 16.075
42.20000 22.779
42.22000 18.143
42.24000 16.330
42.26000 12.863
42.28000 12.867
42.30000 14.031
42.32000 10.837
42.34000 9.716
42.36000 9.845
42.38000 7.217
42.40000 2.916
42.42000 6.968
42.44000 9.130
42.46000 6.762
42.48000 3.251
42.50000 8.048
42.52000 8.193
42.54000 7.524
42.56000 3.731
42.58000 1.325
42.60000 3.047
42.62000 2.039
42.64000 0.777
42.66000 0.560
42.68000 3.373
42.70000 -1.707
42.72000 0.298
42.74000 2.282
42.76000 2.686
42.78000 5.441
42.80000 5.086
42.82000 2.862
42.84000 0.651
42.86000 1.731
42.88000 4.081
42.90000 3.658
42.92000 1.972
42.94000 3.462
42.96000 -0.120
42.98000 2.281
43.00000 0.424
43.02000 0.409
43.04000 6.412
43.06000 2.545
43.08000 0.296
43.10000 3.989
43.12000 1.463
43.14000 4.296
43.16000 5.569
43.18000 1.274
43.20000 -2.410
43.22000 -2.427
43.24000 -3.453
43.26000 -1.111
43.28000 -0.244
43.30000 1.685
43.32000 -1.104
43.34000 -0.584
43.36000 1.107
43.38000 1.239
43.40000 2.622
43.42000 2.399
43.44000 3.469
43.46000 3.574
43.48000 1.852
43.50000 0.026
43.52000 1.865
43.54000 -0.524
43.56000 -2.974
43.58000 2.666
43.60000 -0.022
43.62000 -1.905
43.64000 -0.252
43.66000 1.336
43.68000 0.279
43.70000 -1.206
43.72000 2.119
43.74000 0.130
43.76000 -0.056
43.78000 0.073
43.80000 0.057
43.82000 -1.386
43.84000 0.538
43.86000 -1.421
43.88000 -3.373
43.90000 -2.698
43.92000 -2.046
43.94000 -3.193
43.96000 0.224
43.98000 0.775
44.00000 -0.581
44.02000 0.412
44.04000 0.737
44.06000 2.489
44.08000 3.274
44.10000 0.624
44.12000 -0.930
44.14000 0.203
44.16000 -1.279
44.18000 -3.350
44.20000 -3.077
44.22000 3.060
44.24000 5.575
44.26000 6.442
44.28000 3.881
44.30000 0.081
44.32000 -1.151
44.34000 0.337
44.36000 2.124
44.38000 1.848
44.40000 -0.726
44.42000 0.982
44.44000 -1.450
44.46000 1.752
44.48000 1.235
44.50000 0.263
44.52000 5.924
44.54000 2.738
44.56000 -3.328
44.58000 -3.110
44.60000 -1.353
44.62000 -1.909
44.64000 3.862
44.66000 3.138
44.68000 -1.390
44.70000 2.931
44.72000 1.378
44.74000 -2.160
44.76000 -2.117
44.78000 -3.313
44.80000 1.687
44.82000 3.993
44.84000 3.142
44.86000 7.629
44.88000 5.208
44.90000 3.602
44.92000 -2.028
44.94000 1.620
44.96000 5.306
44.98000 2.337
45.00000 2.224
45.02000 6.011
45.04000 4.002
45.06000 2.608
45.08000 0.441
45.10000 1.616
45.12000 -3.309
45.14000 -0.045
45.16000 2.282
45.18000 4.961
45.20000 4.967
45.22000 1.900
45.24000 2.859
45.26000 6.486
45.28000 6.342
45.30000 -0.009
45.32000 1.321
45.34000 1.131
45.36000 2.678
45.38000 3.420
45.40000 5.396
45.42000 7.044
45.44000 10.702
45.46000 5.571
45.48000 5.419
45.50000 6.311
45.52000 2.376
45.54000 4.622
45.56000 10.854
45.58000 11.206
45.60000 8.812
45.62000 12.988
45.64000 9.884
45.66000 4.267
45.68000 4.840
45.70000 8.365
45.72000 7.019
45.74000 9.534
45.76000 14.240
45.78000 14.875
45.80000 7.568
45.82000 7.274
45.84000 11.021
45.86000 14.289
45.88000 15.970
45.90000 16.110
45.92000 13.059
45.94000 12.284
45.96000 11.202
45.98000 15.947
46.00000 21.117
46.02000 18.624
46.04000 21.463
46.06000 22.280
46.08000 22.273
46.10000 19.755
46.12000 22.043
46.14000 25.234
46.16000 21.187
46.18000 27.000
46.20000 25.751
46.22000 25.143
46.24000 30.470
46.26000 31.158
46.28000 32.457
46.30000 33.702
46.32000 35.982
46.34000 36.755
46.36000 36.055
46.38000 40.587
46.40000 43.299
46.42000 44.523
46.44000 47.908
46.46000 44.861
46.48000 44.571
46.50000 49.490
46.52000 51.849
46.54000 50.738
46.56000 58.206
46.58000 56.950
46.60000 53.866
46.62000 60.923
46.64000 62.305
46.66000 65.096
46.68000 65.913
46.70000 64.718
46.72000 61.731
46.74000 56.804
46.76000 55.411
46.78000 61.886
46.80000 73.386
46.82000 81.029
46.84000 76.259
46.86000 86.395
46.88000 85.412
46.90000 84.261
46.92000 83.261
46.94000 84.621
46.96000 76.460
46.98000 87.463
47.00000 94.016
47.02000 93.773
47.04000 95.021
47.06000 98.263
47.08000 91.296
47.10000 91.344
47.12000 89.821
47.14000 93.383
47.16000 99.075
47.18000 92.246
47.20000 89.826
47.22000 82.792
47.24000 84.785
47.26000 87.445
47.28000 86.896
47.30000 88.333
47.32000 86.559
47.34000 85.866
47.36000 87.592
47.38000 82.184
47.40000 79.418
47.42000 74.559
47.44000 74.941
47.46000 75.814
47.48000 70.948
47.50000 69.221
47.52000 75.416
47.54000 60.104
47.56000 57.965
47.58000 55.003
47.60000 60.129
47.62000 57.144
47.64000 56.602
47.66000 57.777
47.68000 54.878
47.70000 53.819
47.72000 51.888
47.74000 44.754
47.76000 46.789
47.78000 40.764
47.80000 38.983
47.82000 36.976
47.84000 35.290
47.86000 38.004
47.88000 35.665
47.90000 38.611
47.92000 37.492
47.94000 28.933
47.96000 31.694
47.98000 28.570
48.00000 25.548
48.02000 23.556
48.04000 24.734
48.06000 22.971
48.08000 21.352
48.10000 19.215
48.12000 19.795
48.14000 20.654
48.16000 17.915
48.18000 19.470
48.20000 24.351
48.22000 24.059
48.24000 18.563
48.26000 16.786
48.28000 12.974
48.30000 11.900
48.32000 13.281
48.34000 7.674
48.36000 4.972
48.38000 7.710
48.40000 12.883
48.42000 12.639
48.44000 10.500
48.46000 10.853
48.48000 6.190
48.50000 10.196
48.52000 7.076
48.54000 5.615
48.56000 4.858
48.58000 7.174
48.60000 6.725
48.62000 9.596
48.64000 6.196
48.66000 5.725
48.68000 2.318
48.70000 1.882
48.72000 -2.522
48.74000 3.540
48.76000 1.285
48.78000 2.611
48.80000 0.624
48.82000 2.308
48.84000 2.508
48.86000 2.906
48.88000 3.730
48.90000 2.537
48.92000 4.773
48.94000 7.912
48.96000 8.871
48.98000 4.336
49.00000 3.356
49.02000 2.362
49.04000 -2.908
49.06000 -0.815
49.08000 1.725
49.10000 -1.637
49.12000 -0.506
49.14000 2.291
49.16000 1.925
49.18000 2.008
49.20000 4.783
49.22000 4.923
49.24000 2.095
49.26000 2.654
49.28000 1.315
49.30000 5.249
49.32000 -0.041
49.34000 0.269
49.36000 1.945
49.38000 -0.301
49.40000 1.519
49.42000 3.928
49.44000 0.338
49.46000 -0.156
49.48000 1.435
49.50000 2.373
49.52000 0.277
49.54000 0.592
49.56000 -0.089
49.58000 2.747
49.60000 4.186
49.62000 2.406
49.64000 0.302
49.66000 -2.082
49.68000 -2.837
49.70000 -1.812
49.72000 -1.288
49.74000 4.863
49.76000 -0.766
49.78000 -0.016
49.80000 -1.787
49.82000 1.937
49.84000 3.021
49.86000 3.096
49.88000 4.569
49.90000 4.769
49.92000 -0.171
49.94000 -2.800
49.96000 -0.931
49.98000 -0.481
50.00000 3.160
50.02000 8.537
50.04000 6.402
50.06000 3.819
50.08000 2.584
50.10000 6.844
50.12000 4.664
50.14000 -0.160
50.16000 -1.160
50.18000 1.966
50.20000 2.595
50.22000 6.660
50.24000 2.719
50.26000 3.103
50.28000 0.293
50.30000 3.675
50.32000 4.328
50.34000 0.489
50.36000 4.351
50.38000 0.324
50.40000 0.542
50.42000 -0.933
50.44000 -1.509
50.46000 -2.766
50.48000 -0.072
50.50000 4.557
50.52000 5.083
50.54000 4.622
50.56000 5.235
50.58000 1.862
50.60000 4.318
50.62000 5.258
50.64000 1.609
50.66000 1.222
50.68000 -0.486
50.70000 -0.443
50.72000 4.050
50.74000 4.751
50.76000 2.592
50.78000 1.957
50.80000 2.572
50.82000 1.635
50.84000 -2.745
50.86000 -0.529
50.88000 -2.743
50.90000 0.062
50.92000 3.656
50.94000 4.751
50.96000 2.561
50.98000 2.378
51.00000 5.709
51.02000 3.985
51.04000 3.831
51.06000 4.341
51.08000 4.087
51.10000 -0.892
51.12000 -0.922
51.14000 -0.779
51.16000 -0.078
51.18000 -1.489
51.20000 0.865
51.22000 4.479
51.24000 1.490
51.26000 2.679
51.28000 4.352
51.30000 2.930
51.32000 0.385
51.34000 3.402
51.36000 1.386
51.38000 -2.722
51.40000 -1.405
51.42000 -0.038
51.44000 0.654
51.46000 1.099
51.48000 4.187
51.50000 6.295
51.52000 4.581
51.54000 -1.209
51.56000 -1.848
51.58000 0.755
51.60000 5.775
51.62000 5.074
51.64000 -0.812
51.66000 -2.588
51.68000 -1.360
51.70000 -1.459
51.72000 -2.702
51.74000 2.350
51.76000 3.008
51.78000 5.307
51.80000 2.314
51.82000 4.066
51.84000 6.727
51.86000 2.437
51.88000 2.198
51.90000 2.688
51.92000 -1.217
51.94000 2.983
51.96000 1.992
51.98000 1.335
52.00000 -0.533
52.02000 4.594
52.04000 4.724
52.06000 3.404
52.08000 -0.937
52.10000 0.071
52.12000 0.917
52.14000 -2.142
52.16000 1.149
52.18000 1.237
52.20000 2.155
52.22000 3.963
52.24000 2.044
52.26000 4.561
52.28000 6.229
52.30000 1.729
52.32000 -1.786
52.34000 2.308
52.36000 1.829
52.38000 1.885
52.40000 3.139
52.42000 3.449
52.44000 4.827
52.46000 2.173
52.48000 -0.756
52.50000 2.479
52.52000 2.641
52.54000 3.387
52.56000 6.915
52.58000 5.018
52.60000 4.973
52.62000 3.254
52.64000 3.799
52.66000 -1.489
52.68000 -0.409
52.70000 -2.643
52.72000 -0.163
52.74000 -1.128
52.76000 3.663
52.78000 3.824
52.80000 3.620
52.82000 5.780
52.84000 5.390
52.86000 -0.366
52.88000 0.264
52.90000 2.074
52.92000 3.034
52.94000 6.025
52.96000 2.187
52.98000 -0.778
53.00000 3.443
53.02000 4.772
53.04000 1.540
53.06000 4.725
53.08000 2.392
53.10000 0.949
53.12000 4.612
53.14000 8.629
53.16000 6.731
53.18000 6.653
53.20000 1.740
53.22000 1.734
53.24000 0.798
53.26000 -0.025
53.28000 4.561
53.30000 3.951
53.32000 5.885
53.34000 1.105
53.36000 -1.379
53.38000 0.289
53.40000 7.763
53.42000 4.638
53.44000 4.155
53.46000 6.434
53.48000 4.432
53.50000 1.375
53.52000 -2.632
53.54000 -0.817
53.56000 2.801
53.58000 4.235
53.60000 2.903
53.62000 -0.614
53.64000 0.712
53.66000 1.192
53.68000 5.170
53.70000 4.475
53.72000 2.627
53.74000 2.523
53.76000 2.239
53.78000 -0.648
53.80000 0.813
53.82000 -0.836
53.84000 -0.309
53.86000 5.585
53.88000 5.132
53.90000 2.327
53.92000 -2.623
53.94000 1.874
53.96000 0.963
53.98000 -2.099
54.00000 0.510
54.02000 0.907
54.04000 0.544
54.06000 3.263
54.08000 5.599
54.10000 2.996
54.12000 1.718
54.14000 0.372
54.16000 -2.614
54.18000 0.056
54.20000 4.050
54.22000 5.448
54.24000 5.099
54.26000 3.736
54.28000 6.133
54.30000 3.296
54.32000 2.718
54.34000 1.819
54.36000 2.793
54.38000 0.893
54.40000 6.036
54.42000 3.395
54.44000 1.328
54.46000 1.961
54.48000 3.108
54.50000 5.547
54.52000 6.153
54.54000 2.667
54.56000 1.127
54.58000 1.429
54.60000 -0.923
54.62000 2.345
54.64000 -0.421
54.66000 -1.988
54.68000 -2.397
54.70000 -0.235
54.72000 0.858
54.74000 -1.684
54.76000 0.748
54.78000 -2.617
54.80000 1.823
54.82000 2.986
54.84000 2.807
54.86000 1.233
54.88000 4.463
54.90000 1.441
54.92000 0.462
54.94000 0.977
54.96000 0.263
54.98000 -1.477
55.00000 3.564
55.02000 4.428
55.04000 4.370
55.06000 0.972
55.08000 2.795
55.10000 5.510
55.12000 4.050
55.14000 -0.389
55.16000 0.980
55.18000 2.115
55.20000 1.425
55.22000 0.236
55.24000 3.004
55.26000 2.338
55.28000 3.005
55.30000 1.912
55.32000 2.988
55.34000 5.746
55.36000 3.677
55.38000 2.588
55.40000 0.849
55.42000 -0.051
55.44000 -1.322
55.46000 -0.100
55.48000 -0.110
55.50000 2.738
55.52000 3.884
55.54000 3.562
55.56000 2.380
55.58000 1.942
55.60000 -1.057
55.62000 0.037
55.64000 2.234
55.66000 3.116
55.68000 6.002
55.70000 3.472
55.72000 2.824
55.74000 -2.583
55.76000 -1.231
55.78000 4.929
55.80000 2.518
55.82000 3.510
55.84000 -2.578
55.86000 2.238
55.88000 2.046
55.90000 -1.348
55.92000 3.212
55.94000 3.692
55.96000 1.046
55.98000 -0.615
56.00000 1.866
56.02000 4.511
56.04000 0.896
56.06000 -0.091
56.08000 0.326
56.10000 -1.185
56.12000 0.569
56.14000 2.481
56.16000 0.891
56.18000 -2.575
56.20000 -0.746
56.22000 2.095
56.24000 4.228
56.26000 2.614
56.28000 2.675
56.30000 0.910
56.32000 3.069
56.34000 2.058
56.36000 -0.715
56.38000 1.523
56.40000 4.261
56.42000 4.465
56.44000 4.315
56.46000 0.475
56.48000 0.399
56.50000 2.618
56.52000 2.632
56.54000 -0.221
56.56000 0.044
56.58000 2.157
56.60000 0.084
56.62000 0.049
56.64000 4.528
56.66000 6.371
56.68000 3.568
56.70000 1.487
56.72000 1.567
56.74000 2.151
56.76000 3.889
56.78000 1.351
56.80000 1.564
56.82000 3.939
56.84000 1.268
56.86000 1.598
56.88000 3.436
56.90000 1.982
56.92000 -2.559
56.94000 0.663
56.96000 4.419
56.98000 1.464
57.00000 1.532
57.02000 0.090
57.04000 2.212
57.06000 1.673
57.08000 2.210
57.10000 -1.392
57.12000 -1.176
57.14000 -1.593
57.16000 0.134
57.18000 2.678
57.20000 2.280
57.22000 -0.341
57.24000 -0.388
57.26000 2.502
57.28000 0.472
57.30000 -0.715
57.32000 5.669
57.34000 4.069
57.36000 2.827
57.38000 2.591
57.40000 -0.027
57.42000 0.476
57.44000 2.042
57.46000 -1.077
57.48000 3.236
57.50000 3.064
57.52000 0.478
57.54000 1.765
57.56000 4.700
57.58000 5.775
57.60000 0.675
57.62000 2.902
57.64000 0.536
57.66000 -2.185
57.68000 2.924
57.70000 3.433
57.72000 0.704
57.74000 -0.922
57.76000 0.922
57.78000 0.693
57.80000 -1.726
57.82000 2.896
57.84000 2.320
57.86000 4.828
57.88000 0.782
57.90000 -0.173
57.92000 0.361
57.94000 5.137
57.96000 6.969
57.98000 1.522
58.00000 9.689
58.02000 4.769
58.04000 3.070
58.06000 0.424
58.08000 2.246
58.10000 3.077
58.12000 -2.284
58.14000 0.182
58.16000 1.637
58.18000 -0.425
58.20000 -2.485
58.22000 -0.946
58.24000 3.570
58.26000 4.100
58.28000 5.219
58.30000 2.654
58.32000 1.331
58.34000 6.106
58.36000 8.774
58.38000 3.824
58.40000 1.479
58.42000 1.045
58.44000 0.798
58.46000 3.296
58.48000 -2.176
58.50000 -0.773
58.52000 4.277
58.54000 1.350
58.56000 3.149
58.58000 2.161
58.60000 3.986
58.62000 2.380
58.64000 3.801
58.66000 -0.032
58.68000 -1.930
58.70000 1.739
58.72000 -0.079
58.74000 -1.371
58.76000 0.940
58.78000 1.221
58.80000 3.402
58.82000 0.988
58.84000 3.452
58.86000 3.316
58.88000 1.540
58.90000 5.312
58.92000 2.639
58.94000 -1.794
58.96000 -0.140
58.98000 0.911
59.00000 1.173
59.02000 0.548
59.04000 -0.411
59.06000 2.960
59.08000 3.954
59.10000 2.260
59.12000 0.687
59.14000 3.162
59.16000 3.333
59.18000 3.346
59.20000 2.468
59.22000 6.894
59.24000 6.856
59.26000 6.060
59.28000 1.797
59.30000 3.610
59.32000 3.369
59.34000 -0.039
59.36000 1.100
59.38000 3.788
59.40000 0.297
59.42000 -1.696
59.44000 4.369
59.46000 4.247
59.48000 4.419
59.50000 2.486
59.52000 2.655
59.54000 3.288
59.56000 2.349
59.58000 -0.292
59.60000 2.646
59.62000 1.487
59.64000 -0.040
59.66000 4.020
59.68000 1.568
59.70000 3.551
59.72000 8.207
59.74000 0.861
59.76000 -2.447
59.78000 -0.852
59.80000 2.625
59.82000 0.535
59.84000 -1.459
59.86000 -0.010
59.88000 3.590
59.90000 3.417
59.92000 -1.227
59.94000 -0.216
59.96000 2.084
59.98000 1.261
60.00000 0.511
60.02000 2.136
60.04000 2.639
60.06000 3.306
60.08000 3.050
60.10000 0.503
60.12000 -0.479
60.14000 2.872
60.16000 3.409
60.18000 5.362
60.20000 5.416
60.22000 2.313
60.24000 3.333
60.26000 2.279
60.28000 0.066
60.30000 3.263
60.32000 6.238
60.34000 5.588
60.36000 4.530
60.38000 0.967
60.40000 0.774
60.42000 1.941
60.44000 -1.147
60.46000 1.252
60.48000 1.456
60.50000 -0.192
60.52000 0.022
60.54000 -1.451
60.56000 0.195
60.58000 2.677
60.60000 4.077
60.62000 0.046
60.64000 1.439
60.66000 3.046
60.68000 2.724
60.70000 -0.882
60.72000 -2.407
60.74000 4.300
60.76000 6.045
60.78000 2.632
60.80000 4.538
60.82000 2.825
60.84000 2.783
60.86000 1.126
60.88000 1.040
60.90000 1.869
60.92000 7.691
60.94000 4.825
60.96000 7.299
60.98000 3.297
61.00000 3.622
61.02000 -2.407
61.04000 -1.484
61.06000 2.801
61.08000 5.350
61.10000 2.617
61.12000 3.713
61.14000 1.998
61.16000 1.160
61.18000 2.504
61.20000 0.492
61.22000 0.491
61.24000 1.416
61.26000 6.149
61.28000 3.052
61.30000 1.220
61.32000 0.034
61.34000 -0.579
61.36000 0.076
61.38000 -0.080
61.40000 -1.521
61.42000 -0.697
61.44000 2.808
61.46000 0.966
61.48000 -0.011
61.50000 2.386
61.52000 3.966
61.54000 1.084
61.56000 0.629
61.58000 -0.982
61.60000 0.264
61.62000 2.209
61.64000 0.345
61.66000 0.998
61.68000 -2.153
61.70000 0.643
61.72000 -1.405
61.74000 0.770
61.76000 5.856
61.78000 2.602
61.80000 0.263
61.82000 1.797
61.84000 4.759
61.86000 0.372
61.88000 0.522
61.90000 2.899
61.92000 2.962
61.94000 2.913
61.96000 2.226
61.98000 1.830
62.00000 -0.940
62.02000 1.712
62.04000 0.595
62.06000 -1.336
62.08000 -2.385
62.10000 -0.557
62.12000 1.047
62.14000 1.657
62.16000 2.937
62.18000 0.411
62.20000 -1.099
62.22000 0.310
62.24000 -0.847
62.26000 4.292
62.28000 2.506
62.30000 2.317
62.32000 3.725
62.34000 2.986
62.36000 2.620
62.38000 1.998
62.40000 0.408
62.42000 -0.620
62.44000 1.714
62.46000 3.720
62.48000 5.400
62.50000 0.322
62.52000 0.070
62.54000 3.884
62.56000 3.274
62.58000 3.249
62.60000 0.632
62.62000 0.117
62.64000 0.604
62.66000 3.879
62.68000 5.884
62.70000 4.839
62.72000 6.048
62.74000 6.924
62.76000 2.287
62.78000 1.067
62.80000 1.308
62.82000 1.827
62.84000 2.215
62.86000 0.152
62.88000 -0.504
62.90000 2.180
62.92000 1.082
62.94000 -0.874
62.96000 0.767
62.98000 1.648
63.00000 -1.783
63.02000 -0.824
63.04000 1.704
63.06000 6.127
63.08000 5.967
63.10000 3.285
63.12000 3.190
63.14000 5.828
63.16000 6.437
63.18000 6.422
63.20000 4.261
63.22000 2.879
63.24000 3.795
63.26000 2.488
63.28000 -0.525
63.30000 -2.357
63.32000 1.762
63.34000 2.997
63.36000 0.181
63.38000 4.689
63.40000 6.497
63.42000 2.073
63.44000 2.351
63.46000 0.905
63.48000 -0.881
63.50000 0.904
63.52000 2.130
63.54000 -1.698
63.56000 -0.731
63.58000 -0.391
63.60000 4.366
63.62000 -0.851
63.64000 0.269
63.66000 -0.916
63.68000 1.667
63.70000 1.367
63.72000 1.467
63.74000 -0.231
63.76000 2.571
63.78000 0.907
63.80000 2.770
63.82000 1.629
63.84000 4.140
63.86000 4.195
63.88000 0.272
63.90000 -2.325
63.92000 0.550
63.94000 2.256
63.96000 1.802
63.98000 3.438
64.00000 5.316
64.02000 5.702
64.04000 4.409
64.06000 0.375
64.08000 4.057
64.10000 2.255
64.12000 -2.371
64.14000 1.146
64.16000 2.912
64.18000 3.151
64.20000 2.596
64.22000 2.486
64.24000 0.998
64.26000 -0.414
64.28000 -1.160
64.30000 2.568
64.32000 1.120
64.34000 -0.576
64.36000 0.043
64.38000 1.671
64.40000 0.814
64.42000 0.801
64.44000 2.128
64.46000 0.861
64.48000 1.015
64.50000 -1.481
64.52000 2.193
64.54000 2.177
64.56000 1.856
64.58000 3.190
64.60000 5.059
64.62000 2.348
64.64000 -0.352
64.66000 0.973
64.68000 2.945
64.70000 -1.464
64.72000 0.424
64.74000 1.033
64.76000 1.068
64.78000 3.830
64.80000 -0.609
64.82000 -1.067
64.84000 0.733
64.86000 2.772
64.88000 2.503
64.90000 3.248
64.92000 2.923
64.94000 3.128
64.96000 1.377
64.98000 -1.165
65.00000 1.391
65.02000 -0.899
65.04000 0.434
65.06000 1.441
65.08000 -0.464
65.10000 -1.999
65.12000 -2.384
65.14000 -1.135
65.16000 -2.385
65.18000 -0.971
65.20000 1.359
65.22000 7.223
65.24000 5.119
65.26000 5.258
65.28000 1.558
65.30000 -0.677
65.32000 1.850
65.34000 2.766
65.36000 2.067
65.38000 1.880
65.40000 0.505
65.42000 3.852
65.44000 0.832
65.46000 0.604
65.48000 -0.630
65.50000 1.097
65.52000 0.412
65.54000 -0.268
65.56000 2.856
65.58000 2.766
65.60000 0.360
65.62000 4.762
65.64000 3.026
65.66000 2.327
65.68000 -0.744
65.70000 -2.179
65.72000 5.452
65.74000 3.385
65.76000 6.957
65.78000 5.849
65.80000 2.140
65.82000 2.923
65.84000 4.487
65.86000 3.313
65.88000 2.359
65.90000 0.709
65.92000 1.444
65.94000 2.539
65.96000 0.938
65.98000 2.075
66.00000 2.863
66.02000 2.567
66.04000 3.551
66.06000 3.108
66.08000 0.204
66.10000 3.650
66.12000 3.776
66.14000 -2.180
66.16000 -2.378
66.18000 -1.590
66.20000 3.353
66.22000 2.129
66.24000 1.462
66.26000 2.915
66.28000 1.402
66.30000 2.860
66.32000 2.080
66.34000 0.997
66.36000 0.858
66.38000 3.037
66.40000 0.342
66.42000 -0.640
66.44000 2.676
66.46000 2.351
66.48000 0.508
66.50000 -0.775
66.52000 3.554
66.54000 3.110
66.56000 -1.128
66.58000 -1.972
66.60000 0.009
66.62000 0.334
66.64000 1.617
66.66000 2.878
66.68000 1.700
66.70000 1.153
66.72000 -0.521
66.74000 0.867
66.76000 1.508
66.78000 2.660
66.80000 0.363
66.82000 1.770
66.84000 5.647
66.86000 1.770
66.88000 -0.957
66.90000 1.199
66.92000 0.828
66.94000 4.122
66.96000 4.388
66.98000 1.667
67.00000 2.835
67.02000 -0.918
67.04000 -0.917
67.06000 3.434
67.08000 3.010
67.10000 -0.470
67.12000 -0.043
67.14000 -1.833
67.16000 -0.355
67.18000 0.005
67.20000 -1.228
67.22000 0.775
67.24000 3.195
67.26000 2.244
67.28000 -1.393
67.30000 -0.275
67.32000 1.300
67.34000 0.319
67.36000 -2.447
67.38000 0.275
67.40000 1.440
67.42000 1.182
67.44000 3.410
67.46000 0.768
67.48000 1.936
67.50000 4.514
67.52000 7.158
67.54000 5.825
67.56000 1.436
67.58000 -0.535
67.60000 3.021
67.62000 3.870
67.64000 0.922
67.66000 1.025
67.68000 2.908
67.70000 4.131
67.72000 2.876
67.74000 2.826
67.76000 2.599
67.78000 3.820
67.80000 3.650
67.82000 6.269
67.84000 1.253
67.86000 -0.326
67.88000 1.647
67.90000 1.849
67.92000 3.124
67.94000 5.976
67.96000 5.792
67.98000 5.290
68.00000 3.631
68.02000 6.075
68.04000 3.583
68.06000 4.341
68.08000 7.681
68.10000 6.638
68.12000 7.828
68.14000 11.185
68.16000 7.034
68.18000 7.296
68.20000 5.612
68.22000 8.511
68.24000 11.066
68.26000 7.932
68.28000 5.727
68.30000 11.393
68.32000 13.715
68.34000 12.976
68.36000 10.858
68.38000 10.212
68.40000 12.736
68.42000 14.643
68.44000 15.710
68.46000 16.490
68.48000 17.685
68.50000 16.985
68.52000 19.608
68.54000 21.060
68.56000 18.194
68.58000 20.128
68.60000 19.808
68.62000 19.478
68.64000 19.358
68.66000 22.109
68.68000 23.003
68.70000 20.875
68.72000 23.140
68.74000 22.583
68.76000 23.252
68.78000 22.109
68.80000 20.849
68.82000 23.579
68.84000 28.997
68.86000 25.170
68.88000 23.086
68.90000 21.372
68.92000 22.770
68.94000 25.858
68.96000 25.010
68.98000 23.268
69.00000 24.183
69.02000 23.234
69.04000 21.957
69.06000 20.130
69.08000 20.655
69.10000 25.045
69.12000 21.442
69.14000 18.442
69.16000 19.285
69.18000 18.392
69.20000 17.288
69.22000 18.401
69.24000 18.172
69.26000 15.594
69.28000 17.077
69.30000 16.306
69.32000 19.341
69.34000 17.119
69.36000 24.202
69.38000 17.979
69.40000 11.541
69.42000 11.488
69.44000 10.240
69.46000 11.423
69.48000 11.610
69.50000 7.958
69.52000 8.766
69.54000 13.541
69.56000 11.307
69.58000 11.683
69.60000 8.353
69.62000 7.926
69.64000 10.687
69.66000 7.268
69.68000 6.825
69.70000 7.645
69.72000 7.122
69.74000 10.792
69.76000 8.137
69.78000 7.263
69.80000 3.782
69.82000 2.956
69.84000 -0.314
69.86000 2.396
69.88000 3.690
69.90000 3.536
69.92000 0.309
69.94000 3.979
69.96000 6.330
69.98000 7.935
70.00000 7.804
70.02000 5.434
70.04000 1.413
70.06000 -1.081
70.08000 1.320
70.10000 2.692
70.12000 2.604
70.14000 1.404
70.16000 -0.741
70.18000 -1.606
70.20000 4.268
70.22000 4.277
70.24000 0.656
70.26000 3.122
70.28000 1.071
70.30000 -1.999
70.32000 -1.187
70.34000 0.289
70.36000 0.919
70.38000 0.388
70.40000 1.665
70.42000 3.960
70.44000 2.107
70.46000 2.798
70.48000 6.830
70.50000 6.888
70.52000 4.644
70.54000 5.213
70.56000 2.043
70.58000 -0.110
70.60000 1.773
70.62000 0.929
70.64000 1.521
70.66000 -2.318
70.68000 0.847
70.70000 4.391
70.72000 5.964
70.74000 4.431
70.76000 4.144
70.78000 3.185
70.80000 2.340
70.82000 -0.391
70.84000 3.281
70.86000 2.219
70.88000 -1.277
70.90000 -2.291
70.92000 2.299
70.94000 1.335
70.96000 4.497
70.98000 1.367
71.00000 1.179
71.02000 -0.136
71.04000 4.458
71.06000 3.587
71.08000 -0.341
71.10000 -0.882
71.12000 1.313
71.14000 2.055
71.16000 2.391
71.18000 2.044
71.20000 3.237
71.22000 1.082
71.24000 1.981
71.26000 3.533
71.28000 1.129
71.30000 2.748
71.32000 4.064
71.34000 3.580
71.36000 -1.254
71.38000 -0.232
71.40000 2.156
71.42000 1.117
71.44000 4.095
71.46000 5.924
71.48000 0.355
71.50000 2.726
71.52000 2.616
71.54000 2.902
71.56000 6.280
71.58000 2.458
71.60000 2.061
71.62000 4.054
71.64000 2.993
71.66000 -0.440
71.68000 0.746
71.70000 0.405
71.72000 0.286
71.74000 0.299
71.76000 -2.273
71.78000 2.338
71.80000 -0.830
71.82000 -2.173
71.84000 1.706
71.86000 5.488
71.88000 7.718
71.90000 2.506
71.92000 -0.323
71.94000 -0.223
71.96000 1.781
71.98000 2.300
72.00000 2.421
72.02000 3.293
72.04000 4.209
72.06000 2.905
72.08000 2.758
72.10000 2.856
72.12000 2.919
72.14000 -0.493
72.16000 -1.507
72.18000 -0.538
72.20000 0.873
72.22000 2.865
72.24000 3.955
72.26000 1.664
72.28000 2.024
72.30000 3.644
72.32000 -0.307
72.34000 -2.146
72.36000 -2.022
72.38000 -0.287
72.40000 0.093
72.42000 2.386
72.44000 2.053
72.46000 -0.029
72.48000 2.316
72.50000 3.837
72.52000 3.220
72.54000 6.157
72.56000 3.163
72.58000 -0.760
72.60000 1.782
72.62000 2.895
72.64000 2.600
72.66000 -1.079
72.68000 2.633
72.70000 1.050
72.72000 2.767
72.74000 -1.950
72.76000 0.386
72.78000 2.137
72.80000 3.498
72.82000 -2.231
72.84000 -2.239
72.86000 0.766
72.88000 3.246
72.90000 3.081
72.92000 0.646
72.94000 1.738
72.96000 1.156
72.98000 -0.397
73.00000 -1.579
73.02000 1.010
73.04000 3.983
73.06000 5.912
73.08000 4.385
73.10000 4.392
73.12000 1.820
73.14000 2.101
73.16000 0.078
73.18000 -2.227
73.20000 -0.130
73.22000 4.301
73.24000 2.574
73.26000 1.273
73.28000 -0.314
73.30000 -0.003
73.32000 2.870
73.34000 2.226
73.36000 2.931
73.38000 -1.117
73.40000 1.174
73.42000 2.878
73.44000 0.568
73.46000 0.964
73.48000 1.321
73.50000 2.941
73.52000 0.255
73.54000 1.749
73.56000 1.466
73.58000 -0.105
73.60000 -1.928
73.62000 -2.225
73.64000 -0.857
73.66000 3.864
73.68000 5.951
73.70000 4.669
73.72000 4.264
73.74000 0.068
73.76000 -0.222
73.78000 0.079
73.80000 -0.203
73.82000 1.712
73.84000 0.362
73.86000 1.919
73.88000 4.480
73.90000 3.829
73.92000 3.373
73.94000 0.434
73.96000 -0.411
73.98000 1.385
74.00000 4.588
74.02000 2.264
74.04000 0.808
74.06000 0.448
74.08000 2.862
74.10000 1.479
74.12000 2.791
74.14000 1.903
74.16000 5.412
74.18000 3.641
74.20000 3.938
74.22000 4.948
74.24000 1.262
74.26000 0.656
74.28000 1.824
74.30000 0.677
74.32000 2.995
74.34000 3.116
74.36000 0.707
74.38000 0.769
74.40000 0.393
74.42000 2.232
74.44000 1.763
74.46000 2.618
74.48000 1.374
74.50000 1.620
74.52000 1.122
74.54000 -0.556
74.56000 0.935
74.58000 4.362
74.60000 1.071
74.62000 0.051
74.64000 3.758
74.66000 1.691
74.68000 -0.437
74.70000 0.398
74.72000 1.766
74.74000 -2.198
74.76000 5.682
74.78000 3.349
74.80000 -0.155
74.82000 4.293
74.84000 4.045
74.86000 0.819
74.88000 -1.965
74.90000 -2.124
74.92000 1.468
74.94000 2.494
74.96000 1.548
74.98000 1.912
75.00000 2.276
75.02000 2.122
75.04000 3.637
75.06000 5.142
75.08000 5.829
75.10000 3.131
75.12000 0.899
75.14000 1.541
75.16000 -0.751
75.18000 0.818
75.20000 2.214
75.22000 4.958
75.24000 3.122
75.26000 -0.960
75.28000 -0.937
75.30000 0.589
75.32000 0.396
75.34000 4.024
75.36000 -2.205
75.38000 -1.046
75.40000 2.738
75.42000 -0.386
75.44000 -1.620
75.46000 -1.498
75.48000 -1.010
75.50000 -2.207
75.52000 0.242
75.54000 3.658
75.56000 6.006
75.58000 4.221
75.60000 3.089
75.62000 5.313
75.64000 4.057
75.66000 3.074
75.68000 1.840
75.70000 3.753
75.72000 5.951
75.74000 3.544
75.76000 2.272
75.78000 3.240
75.80000 1.908
75.82000 -1.462
75.84000 2.604
75.86000 5.594
75.88000 2.828
75.90000 0.354
75.92000 1.208
75.94000 6.728
75.96000 2.658
75.98000 1.052
76.00000 -2.201
76.02000 -1.136
76.04000 2.441
76.06000 2.713
76.08000 0.248
76.10000 3.008
76.12000 0.327
76.14000 0.061
76.16000 1.541
76.18000 6.508
76.20000 6.064
76.22000 3.443
76.24000 0.222
76.26000 -1.475
76.28000 -0.404
76.30000 4.328
76.32000 3.222
76.34000 3.425
76.36000 2.615
76.38000 1.206
76.40000 1.375
76.42000 1.736
76.44000 1.456
76.46000 0.826
76.48000 2.248
76.50000 0.411
76.52000 4.037
76.54000 0.588
76.56000 0.570
76.58000 -1.263
76.60000 0.918
76.62000 -0.643
76.64000 -0.451
76.66000 1.149
76.68000 4.041
76.70000 2.438
76.72000 -1.254
76.74000 -2.213
76.76000 0.929
76.78000 -0.526
76.80000 1.373
76.82000 7.471
76.84000 1.120
76.86000 -0.357
76.88000 1.557
76.90000 5.543
76.92000 3.132
76.94000 1.998
76.96000 0.878
76.98000 2.410
77.00000 4.042
77.02000 3.857
77.04000 4.563
77.06000 0.352
77.08000 2.450
77.10000 2.136
77.12000 1.249
77.14000 1.901
77.16000 0.144
77.18000 4.918
77.20000 2.261
77.22000 3.612
77.24000 -0.787
77.26000 1.093
77.28000 1.884
77.30000 -0.537
77.32000 1.407
77.34000 -0.357
77.36000 -1.367
77.38000 1.048
77.40000 3.478
77.42000 4.474
77.44000 1.977
77.46000 2.989
77.48000 2.187
77.50000 1.706
77.52000 3.921
77.54000 5.420
77.56000 4.327
77.58000 1.187
77.60000 3.917
77.62000 3.878
77.64000 1.132
77.66000 1.636
77.68000 3.702
77.70000 3.291
77.72000 4.248
77.74000 4.335
77.76000 1.449
77.78000 1.769
77.80000 3.752
77.82000 6.382
77.84000 9.890
77.86000 4.343
77.88000 4.571
77.90000 7.768
77.92000 6.534
77.94000 5.902
77.96000 5.386
77.98000 5.463
78.00000 1.438
78.02000 1.614
78.04000 2.987
78.06000 5.512
78.08000 2.402
78.10000 1.662
78.12000 3.998
78.14000 4.618
78.16000 7.096
78.18000 9.053
78.20000 4.466
78.22000 4.315
78.24000 7.163
78.26000 8.534
78.28000 9.044
78.30000 7.771
78.32000 6.089
78.34000 3.764
78.36000 1.847
78.38000 -1.572
78.40000 -2.171
78.42000 3.924
78.44000 9.026
78.46000 6.753
78.48000 4.993
78.50000 5.322
78.52000 3.596
78.54000 2.980
78.56000 0.252
78.58000 2.642
78.60000 3.274
78.62000 -0.027
78.64000 2.025
78.66000 3.903
78.68000 4.618
78.70000 7.655
78.72000 4.591
78.74000 2.823
78.76000 1.712
78.78000 3.812
78.80000 5.104
78.82000 6.305
78.84000 7.017
78.86000 7.255
78.88000 5.431
78.90000 5.804
78.92000 3.589
78.94000 4.318
78.96000 4.177
78.98000 2.750
79.00000 4.042
79.02000 4.864
79.04000 4.682
79.06000 2.826
79.08000 6.814
79.10000 0.574
79.12000 1.572
79.14000 1.002
79.16000 -1.664
79.18000 -1.425
79.20000 0.318
79.22000 1.828
79.24000 -1.247
79.26000 3.136
79.28000 3.470
79.30000 4.154
79.32000 0.449
79.34000 -0.332
79.36000 -0.906
79.38000 2.248
79.40000 4.669
79.42000 1.846
79.44000 1.454
79.46000 -1.933
79.48000 -0.742
79.50000 3.506
79.52000 4.668
79.54000 6.139
79.56000 8.201
79.58000 2.755
79.60000 1.030
79.62000 2.938
79.64000 4.751
79.66000 4.487
79.68000 0.944
79.70000 0.450
79.72000 2.550
79.74000 2.232
79.76000 3.132
79.78000 4.930
79.80000 2.994
79.82000 -0.302
79.84000 -0.767
79.86000 5.293
79.88000 5.056
79.90000 5.073
79.92000 -1.660
79.94000 3.409
79.96000 3.585
79.98000 5.326
80.00000 6.031
80.02000 5.884
80.04000 -0.938
80.06000 3.486
80.08000 6.988
80.10000 0.825
80.12000 -0.699
80.14000 3.379
80.16000 2.468
80.18000 2.490
80.20000 0.698
80.22000 -2.264
80.24000 -1.933
80.26000 1.470
80.28000 3.591
80.30000 -0.129
80.32000 1.862
80.34000 1.565
80.36000 3.441
80.38000 4.962
80.40000 -0.568
80.42000 1.214
80.44000 2.346
80.46000 1.375
80.48000 2.920
80.50000 -0.623
80.52000 -0.056
80.54000 4.726
80.56000 6.680
80.58000 3.292
80.60000 3.057
80.62000 6.474
80.64000 4.527
80.66000 0.840
80.68000 -1.008
80.70000 -2.027
80.72000 0.966
80.74000 2.304
80.76000 5.368
80.78000 5.629
80.80000 4.369
80.82000 4.061
80.84000 4.234
80.86000 1.380
80.88000 -2.306
80.90000 -0.699
80.92000 0.334
80.94000 5.669
80.96000 1.249
80.98000 3.788
81.00000 4.204
81.02000 1.659
81.04000 0.518
81.06000 0.768
81.08000 6.599
81.10000 3.606
81.12000 -1.900
81.14000 -1.644
81.16000 -2.335
81.18000 1.346
81.20000 2.088
81.22000 -1.351
81.24000 1.498
81.26000 0.707
81.28000 2.183
81.30000 0.777
81.32000 2.956
81.34000 2.242
81.36000 3.729
81.38000 6.567
81.40000 7.600
81.42000 2.336
81.44000 -0.039
81.46000 1.932
81.48000 -0.999
81.50000 0.047
81.52000 6.038
81.54000 -1.554
81.56000 -0.299
81.58000 4.620
81.60000 6.547
81.62000 5.797
81.64000 3.795
81.66000 2.030
81.68000 1.683
81.70000 3.292
81.72000 5.673
81.74000 5.360
81.76000 0.794
81.78000 -0.357
81.80000 1.586
81.82000 -1.181
81.84000 3.072
81.86000 3.952
81.88000 -0.309
81.90000 3.835
81.92000 1.996
81.94000 2.551
81.96000 4.130
81.98000 5.747
82.00000 8.080
82.02000 9.559
82.04000 13.230
82.06000 9.281
82.08000 5.946
82.10000 6.982
82.12000 6.150
82.14000 6.238
82.16000 7.658
82.18000 7.102
82.20000 10.001
82.22000 10.832
82.24000 7.518
82.26000 6.315
82.28000 7.405
82.30000 7.118
82.32000 9.076
82.34000 7.088
82.36000 13.376
82.38000 12.620
82.40000 10.411
82.42000 7.933
82.44000 10.615
82.46000 13.424
82.48000 14.154
82.50000 14.566
82.52000 16.343
82.54000 20.609
82.56000 17.817
82.58000 15.184
82.60000 14.645
82.62000 23.769
82.64000 25.562
82.66000 25.181
82.68000 23.785
82.70000 25.306
82.72000 22.347
82.74000 23.717
82.76000 26.216
82.78000 24.108
82.80000 26.117
82.82000 28.307
82.84000 30.682
82.86000 31.069
82.88000 29.276
82.90000 29.910
82.92000 27.803
82.94000 24.298
82.96000 24.460
82.98000 31.010
83.00000 31.182
83.02000 33.712
83.04000 35.943
83.06000 33.247
83.08000 35.033
83.10000 30.968
83.12000 29.844
83.14000 34.297
83.16000 35.786
83.18000 33.310
83.20000 30.374
83.22000 31.356
83.24000 34.391
83.26000 32.696
83.28000 33.464
83.30000 30.889
83.32000 28.223
83.34000 31.979
83.36000 32.045
83.38000 31.301
83.40000 31.239
83.42000 35.647
83.44000 32.290
83.46000 32.718
83.48000 30.088
83.50000 28.629
83.52000 28.555
83.54000 28.673
83.56000 24.292
83.58000 25.137
83.60000 23.581
83.62000 22.933
83.64000 24.065
83.66000 27.344
83.68000 24.399
83.70000 25.026
83.72000 20.479
83.74000 21.938
83.76000 20.712
83.78000 18.646
83.80000 18.205
83.82000 19.941
83.84000 16.714
83.86000 14.998
83.88000 17.215
83.90000 16.063
83.92000 18.390
83.94000 17.536
83.96000 15.778
83.98000 10.101
84.00000 8.703
84.02000 13.928
84.04000 14.427
84.06000 14.717
84.08000 12.014
84.10000 14.678
84.12000 13.550
84.14000 6.001
84.16000 5.859
84.18000 6.619
84.20000 7.628
84.22000 7.213
84.24000 7.986
84.26000 8.925
84.28000 2.980
84.30000 6.523
84.32000 7.196
84.34000 5.616
84.36000 2.979
84.38000 4.429
84.40000 4.513
84.42000 8.365
84.44000 4.041
84.46000 4.822
84.48000 3.938
84.50000 5.296
84.52000 -0.097
84.54000 2.174
84.56000 2.785
84.58000 1.895
84.60000 6.937
84.62000 4.626
84.64000 2.491
84.66000 1.783
84.68000 3.998
84.70000 1.905
84.72000 2.747
84.74000 3.828
84.76000 5.313
84.78000 3.236
84.80000 6.371
84.82000 5.169
84.84000 6.718
84.86000 6.507
84.88000 4.631
84.90000 3.583
84.92000 2.949
84.94000 7.841
84.96000 6.675
84.98000 1.315
85.00000 -2.311
85.02000 3.749
85.04000 4.377
85.06000 2.739
85.08000 1.057
85.10000 4.879
85.12000 6.086
85.14000 8.836
85.16000 1.623
85.18000 -2.294
85.20000 0.902
85.22000 4.039
85.24000 3.004
85.26000 0.437
85.28000 1.697
85.30000 4.030
85.32000 -0.348
85.34000 1.067
85.36000 3.985
85.38000 7.414
85.40000 4.403
85.42000 0.516
85.44000 3.740
85.46000 2.125
85.48000 0.504
85.50000 -2.278
85.52000 4.060
85.54000 3.968
85.56000 5.978
85.58000 4.175
85.60000 6.229
85.62000 5.599
85.64000 2.465
85.66000 1.607
85.68000 2.367
85.70000 0.613
85.72000 0.489
85.74000 0.654
85.76000 -2.270
85.78000 -1.208
85.80000 1.846
85.82000 4.539
85.84000 4.035
85.86000 2.537
85.88000 3.092
85.90000 3.352
85.92000 4.265
85.94000 3.119
85.96000 -0.218
85.98000 2.568
86.00000 2.142
86.02000 4.425
86.04000 1.335
86.06000 -1.354
86.08000 1.258
86.10000 0.970
86.12000 1.243
86.14000 1.885
86.16000 5.099
86.18000 3.912
86.20000 -0.802
86.22000 0.194
86.24000 2.565
86.26000 3.680
86.28000 1.869
86.30000 1.962
86.32000 1.491
86.34000 2.480
86.36000 -0.846
86.38000 2.148
86.40000 3.569
86.42000 2.153
86.44000 -1.386
86.46000 1.502
86.48000 5.787
86.50000 -1.120
86.52000 -0.265
86.54000 3.449
86.56000 5.489
86.58000 4.938
86.60000 5.646
86.62000 7.305
86.64000 5.312
86.66000 0.648
86.68000 -2.102
86.70000 -0.404
86.72000 -1.423
86.74000 3.319
86.76000 5.426
86.78000 5.161
86.80000 5.148
86.82000 6.913
86.84000 5.688
86.86000 5.605
86.88000 2.321
86.90000 6.069
86.92000 5.688
86.94000 4.197
86.96000 3.358
86.98000 4.372
87.00000 8.844
87.02000 6.954
87.04000 6.748
87.06000 5.924
87.08000 9.223
87.10000 9.139
87.12000 6.307
87.14000 7.727
87.16000 12.745
87.18000 8.666
87.20000 9.018
87.22000 11.633
87.24000 11.655
87.26000 9.409
87.28000 17.882
87.30000 12.039
87.32000 16.068
87.34000 16.856
87.36000 14.289
87.38000 12.539
87.40000 15.817
87.42000 18.049
87.44000 18.376
87.46000 20.167
87.48000 21.591
87.50000 26.073
87.52000 23.200
87.54000 22.773
87.56000 19.205
87.58000 17.211
87.60000 17.647
87.62000 17.479
87.64000 19.289
87.66000 18.758
87.68000 19.948
87.70000 21.211
87.72000 23.749
87.74000 26.225
87.76000 18.870
87.78000 19.562
87.80000 17.152
87.82000 18.841
87.84000 21.936
87.86000 15.670
87.88000 16.105
87.90000 17.034
87.92000 16.831
87.94000 19.766
87.96000 15.860
87.98000 13.621
88.00000 15.289
88.02000 16.358
88.04000 14.250
88.06000 16.964
88.08000 19.112
88.10000 15.795
88.12000 13.686
88.14000 15.131
88.16000 10.526
88.18000 12.857
88.20000 15.057
88.22000 12.213
88.24000 8.953
88.26000 8.614
88.28000 8.615
88.30000 7.527
88.32000 7.480
88.34000 8.752
88.36000 9.027
88.38000 11.127
88.40000 9.828
88.42000 9.052
88.44000 10.586
88.46000 13.042
88.48000 12.949
88.50000 7.009
88.52000 11.211
88.54000 10.405
88.56000 8.851
88.58000 4.838
88.60000 4.809
88.62000 7.888
88.64000 0.723
88.66000 1.267
88.68000 4.225
88.70000 3.298
88.72000 3.747
88.74000 2.592
88.76000 3.202
88.78000 4.148
88.80000 4.511
88.82000 0.900
88.84000 6.445
88.86000 4.556
88.88000 8.621
88.90000 3.007
88.92000 1.564
88.94000 7.899
88.96000 6.049
88.98000 -2.194
89.00000 0.550
89.02000 1.881
89.04000 5.297
89.06000 4.017
89.08000 4.529
89.10000 2.403
89.12000 2.041
89.14000 3.716
89.16000 5.142
89.18000 6.214
89.20000 2.582
89.22000 2.263
89.24000 3.115
89.26000 4.008
89.28000 1.914
89.30000 0.920
89.32000 3.807
89.34000 1.671
89.36000 -0.620
89.38000 0.932
89.40000 1.232
89.42000 -0.099
89.44000 -0.638
89.46000 0.032
89.48000 -0.684
89.50000 -0.001
89.52000 1.214
89.54000 1.154
89.56000 5.640
89.58000 6.252
89.60000 3.685
89.62000 2.446
89.64000 0.092
89.66000 0.829
89.68000 1.762
89.70000 -1.430
89.72000 0.700
89.74000 0.341
89.76000 1.893
89.78000 2.855
89.80000 1.562
89.82000 4.300
89.84000 2.047
89.86000 3.624
89.88000 2.179
89.90000 2.495
89.92000 1.642
89.94000 1.669
89.96000 0.272
89.98000 -0.643
90.00000 1.248
90.02000 2.716
90.04000 1.597
90.06000 1.219
90.08000 -0.085
90.10000 -2.105
90.12000 4.477
90.14000 3.552
90.16000 -0.852
90.18000 2.284
90.20000 1.970
90.22000 3.361
90.24000 4.838
90.26000 5.985
90.28000 2.632
90.30000 3.956
90.32000 2.176
90.34000 1.681
90.36000 -2.086
90.38000 -1.167
90.40000 2.035
90.42000 3.051
90.44000 4.590
90.46000 1.508
90.48000 2.113
90.50000 5.611
90.52000 4.497
90.54000 4.070
90.56000 5.065
90.58000 3.345
90.60000 2.677
90.62000 0.360
90.64000 1.424
90.66000 1.305
90.68000 2.739
90.70000 2.348
90.72000 4.775
90.74000 4.383
90.76000 2.656
90.78000 -0.616
90.80000 -1.890
90.82000 1.496
90.84000 3.943
90.86000 -0.213
90.88000 3.702
90.90000 1.152
90.92000 -1.296
90.94000 3.803
90.96000 3.390
90.98000 3.963
91.00000 -1.316
91.02000 -2.099
91.04000 0.631
91.06000 3.107
91.08000 6.648
91.10000 5.242
91.12000 4.362
91.14000 2.973
91.16000 5.400
91.18000 3.657
91.20000 1.874
91.22000 0.697
91.24000 -0.349
91.26000 0.644
91.28000 1.190
91.30000 0.087
91.32000 1.599
91.34000 1.006
91.36000 1.208
91.38000 1.842
91.40000 2.905
91.42000 5.081
91.44000 4.951
91.46000 2.091
91.48000 -1.087
91.50000 -2.112
91.52000 0.582
91.54000 0.520
91.56000 1.629
91.58000 2.596
91.60000 1.487
91.62000 -1.239
91.64000 -2.091
91.66000 -0.150
91.68000 1.392
91.70000 5.445
91.72000 4.616
91.74000 4.246
91.76000 -1.463
91.78000 -1.134
91.80000 6.049
91.82000 0.553
91.84000 0.330
91.86000 0.513
91.88000 5.870
91.90000 3.792
91.92000 0.785
91.94000 5.493
91.96000 6.833
91.98000 3.946
92.00000 3.827
92.02000 3.477
92.04000 5.770
92.06000 1.579
92.08000 2.122
92.10000 3.663
92.12000 2.932
92.14000 6.202
92.16000 7.402
92.18000 5.482
92.20000 2.407
92.22000 3.815
92.24000 2.643
92.26000 2.104
92.28000 4.334
92.30000 0.888
92.32000 1.625
92.34000 0.943
92.36000 2.762
92.38000 5.144
92.40000 8.240
92.42000 4.464
92.44000 0.835
92.46000 -2.092
92.48000 4.675
92.50000 5.776
92.52000 4.821
92.54000 4.738
92.56000 4.655
92.58000 3.672
92.60000 6.339
92.62000 6.180
92.64000 -1.314
92.66000 3.134
92.68000 4.727
92.70000 1.004
92.72000 3.794
92.74000 2.466
92.76000 2.189
92.78000 1.785
92.80000 3.549
92.82000 2.672
92.84000 2.161
92.86000 3.487
92.88000 1.820
92.90000 4.439
92.92000 5.428
92.94000 6.001
92.96000 4.214
92.98000 1.407
93.00000 1.340
93.02000 6.466
93.04000 6.608
93.06000 5.884
93.08000 5.823
93.10000 2.108
93.12000 0.644
93.14000 -0.308
93.16000 -0.241
93.18000 -0.543
93.20000 -0.711
93.22000 -1.231
93.24000 -2.129
93.26000 -0.586
93.28000 0.613
93.30000 5.650
93.32000 0.566
93.34000 -0.518
93.36000 2.551
93.38000 2.185
93.40000 1.290
93.42000 2.983
93.44000 0.094
93.46000 2.169
93.48000 3.175
93.50000 3.833
93.52000 0.576
93.54000 0.566
93.56000 -0.616
93.58000 4.244
93.60000 7.098
93.62000 3.685
93.64000 3.036
93.66000 0.922
93.68000 0.815
93.70000 1.377
93.72000 -0.217
93.74000 2.179
93.76000 2.832
93.78000 2.523
93.80000 3.320
93.82000 2.506
93.84000 2.979
93.86000 1.096
93.88000 -1.881
93.90000 0.746
93.92000 4.652
93.94000 -0.315
93.96000 2.087
93.98000 3.449
94.00000 3.904
94.02000 2.993
94.04000 2.391
94.06000 1.458
94.08000 1.369
94.10000 4.302
94.12000 2.543
94.14000 -1.999
94.16000 -0.900
94.18000 2.813
94.20000 2.577
94.22000 4.615
94.24000 1.729
94.26000 4.030
94.28000 2.343
94.30000 3.329
94.32000 2.967
94.34000 5.640
94.36000 3.356
94.38000 4.462
94.40000 2.864
94.42000 1.320
94.44000 4.592
94.46000 5.273
94.48000 4.806
94.50000 2.178
94.52000 0.656
94.54000 0.247
94.56000 3.763
94.58000 3.514
94.60000 -2.096
94.62000 6.179
94.64000 7.750
94.66000 4.573
94.68000 4.413
94.70000 3.931
94.72000 9.015
94.74000 7.422
94.76000 9.465
94.78000 3.972
94.80000 8.302
94.82000 9.202
94.84000 11.456
94.86000 6.322
94.88000 2.454
94.90000 1.784
94.92000 3.688
94.94000 5.919
94.96000 4.523
94.98000 6.570
95.00000 6.460
95.02000 3.398
95.04000 7.120
95.06000 4.724
95.08000 3.803
95.10000 1.127
95.12000 -0.946
95.14000 -0.484
95.16000 0.418
95.18000 0.349
95.20000 4.097
95.22000 3.715
95.24000 2.127
95.26000 6.706
95.28000 5.335
95.30000 3.738
95.32000 2.166
95.34000 1.093
95.36000 3.044
95.38000 2.034
95.40000 2.885
95.42000 6.452
95.44000 5.483
95.46000 4.964
95.48000 5.673
95.50000 4.455
95.52000 4.771
95.54000 1.711
95.56000 1.364
95.58000 5.252
95.60000 8.152
95.62000 9.540
95.64000 4.301
95.66000 5.930
95.68000 7.343
95.70000 3.344
95.72000 -1.039
95.74000 -0.800
95.76000 -1.430
95.78000 1.652
95.80000 2.939
95.82000 4.519
95.84000 7.439
95.86000 5.349
95.88000 3.818
95.90000 5.371
95.92000 5.738
95.94000 8.060
95.96000 6.913
95.98000 4.046
96.00000 3.726
96.02000 1.649
96.04000 -2.061
96.06000 1.799
96.08000 7.895
96.10000 9.139
96.12000 6.833
96.14000 3.401
96.16000 9.307
96.18000 10.127
96.20000 3.068
96.22000 7.828
96.24000 7.498
96.26000 3.363
96.28000 6.587
96.30000 5.247
96.32000 0.232
96.34000 -2.047
96.36000 8.090
96.38000 11.753
96.40000 13.871
96.42000 10.637
96.44000 7.255
96.46000 7.856
96.48000 2.837
96.50000 7.969
96.52000 13.548
96.54000 7.348
96.56000 6.432
96.58000 4.185
96.60000 7.653
96.62000 5.675
96.64000 1.536
96.66000 6.036
96.68000 6.905
96.70000 1.811
96.72000 6.682
96.74000 1.910
96.76000 2.108
96.78000 5.084
96.80000 2.641
96.82000 -0.131
96.84000 1.051
96.86000 3.549
96.88000 4.712
96.90000 4.391
96.92000 5.461
96.94000 8.396
96.96000 4.466
96.98000 2.286
97.00000 1.844
97.02000 3.938
97.04000 2.978
97.06000 3.400
97.08000 7.726
97.10000 7.537
97.12000 6.726
97.14000 3.636
97.16000 0.127
97.18000 1.525
97.20000 4.602
97.22000 4.876
97.24000 4.253
97.26000 4.517
97.28000 1.075
97.30000 0.415
97.32000 3.881
97.34000 7.274
97.36000 2.292
97.38000 5.682
97.40000 6.420
97.42000 5.233
97.44000 4.059
97.46000 7.113
97.48000 8.841
97.50000 5.910
97.52000 1.273
97.54000 1.447
97.56000 2.777
97.58000 -0.582
97.60000 6.317
97.62000 10.104
97.64000 5.690
97.66000 6.301
97.68000 8.087
97.70000 9.174
97.72000 7.681
97.74000 6.077
97.76000 1.390
97.78000 -2.063
97.80000 1.992
97.82000 0.810
97.84000 3.269
97.86000 3.058
97.88000 0.879
97.90000 -0.468
97.92000 2.007
97.94000 -0.362
97.96000 1.826
97.98000 2.186
98.00000 9.940
98.02000 7.248
98.04000 9.352
98.06000 8.936
98.08000 2.172
98.10000 1.248
98.12000 0.290
98.14000 1.574
98.16000 7.333
98.18000 10.269
98.20000 1.939
98.22000 5.203
98.24000 7.945
98.26000 0.415
98.28000 3.817
98.30000 8.503
98.32000 6.458
98.34000 6.746
98.36000 8.473
98.38000 4.595
98.40000 1.314
98.42000 2.256
98.44000 8.034
98.46000 6.960
98.48000 3.761
98.50000 6.040
98.52000 8.444
98.54000 10.978
98.56000 -0.564
98.58000 5.818
98.60000 12.706
98.62000 6.169
98.64000 4.325
98.66000 6.879
98.68000 9.011
98.70000 6.022
98.72000 2.498
98.74000 1.585
98.76000 -0.926
98.78000 0.960
98.80000 5.527
98.82000 7.201
98.84000 1.841
98.86000 0.359
98.88000 4.296
98.90000 4.106
98.92000 5.979
98.94000 7.139
98.96000 1.243
98.98000 6.842
99.00000 5.453
99.02000 4.211
99.04000 6.492
99.06000 11.005
99.08000 10.029
99.10000 11.607
99.12000 13.957
99.14000 10.806
99.16000 4.948
99.18000 3.918
99.20000 4.296
99.22000 5.412
99.24000 6.670
99.26000 17.070
99.28000 5.073
99.30000 -0.882
99.32000 3.201
99.34000 -1.985
99.36000 0.351
99.38000 2.630
99.40000 3.346
99.42000 5.952
99.44000 7.721
99.46000 8.604
99.48000 6.387
99.50000 5.034
99.52000 13.459
99.54000 6.789
99.56000 5.843
99.58000 14.213
99.60000 14.866
99.62000 5.358
99.64000 3.806
99.66000 17.289
99.68000 9.963
99.70000 12.806
99.72000 6.661
99.74000 4.220
99.76000 4.439
99.78000 4.600
99.80000 10.957
99.82000 11.350
99.84000 2.894
99.86000 -2.028
99.88000 1.834
99.90000 11.616
99.92000 -2.041
99.94000 -2.049
99.96000 3.470
99.98000 0.000
