'Id: "0011387" Comment: "Integrate frame 0011387_Au-Ir-Rh_Rh-rich_XRD-Mapping-045-0000.gfrmwith cursor Wedge Cursor #5" Operator: "B?rgel" Anode: "Cu" Wavelength: "1.5406" Scantype: "2Theta (TwoTheta)" TimePerStep: "1" X: "-9" Y: "-27" Z: "5.95" 
10.00000 0.000
10.02000 -4.303
10.04000 5.299
10.06000 18.369
10.08000 19.692
10.10000 13.719
10.12000 32.572
10.14000 19.435
10.16000 20.374
10.18000 18.478
10.20000 19.489
10.22000 27.021
10.24000 4.933
10.26000 3.283
10.28000 4.722
10.30000 21.491
10.32000 25.469
10.34000 4.981
10.36000 8.971
10.38000 17.486
10.40000 8.679
10.42000 17.613
10.44000 -3.444
10.46000 -3.328
10.48000 7.337
10.50000 5.469
10.52000 29.820
10.54000 29.234
10.56000 24.331
10.58000 21.631
10.60000 20.148
10.62000 15.721
10.64000 14.362
10.66000 20.587
10.68000 25.679
10.70000 11.947
10.72000 0.357
10.74000 13.307
10.76000 30.306
10.78000 24.740
10.80000 17.731
10.82000 21.297
10.84000 20.904
10.86000 13.471
10.88000 19.543
10.90000 18.652
10.92000 25.950
10.94000 32.343
10.96000 32.480
10.98000 25.533
11.00000 29.588
11.02000 26.728
11.04000 13.332
11.06000 32.137
11.08000 27.871
11.10000 17.176
11.12000 8.973
11.14000 0.391
11.16000 -4.302
11.18000 4.977
11.20000 11.497
11.22000 17.721
11.24000 25.253
11.26000 20.598
11.28000 14.317
11.30000 16.661
11.32000 19.142
11.34000 15.422
11.36000 21.038
11.38000 17.247
11.40000 18.990
11.42000 13.551
11.44000 13.776
11.46000 23.694
11.48000 8.015
11.50000 2.645
11.52000 3.457
11.54000 3.694
11.56000 12.546
11.58000 11.676
11.60000 7.827
11.62000 18.001
11.64000 26.461
11.66000 26.005
11.68000 22.615
11.70000 10.630
11.72000 17.065
11.74000 32.198
11.76000 23.314
11.78000 13.742
11.80000 7.750
11.82000 18.526
11.84000 21.372
11.86000 36.060
11.88000 19.640
11.90000 5.726
11.92000 6.827
11.94000 21.820
11.96000 32.080
11.98000 25.932
12.00000 5.709
12.02000 7.784
12.04000 16.356
12.06000 23.494
12.08000 17.372
12.10000 12.282
12.12000 13.617
12.14000 13.797
12.16000 3.369
12.18000 2.565
12.20000 12.580
12.22000 12.061
12.24000 6.142
12.26000 15.839
12.28000 21.102
12.30000 11.247
12.32000 8.214
12.34000 13.007
12.36000 3.715
12.38000 -5.680
12.40000 19.496
12.42000 17.621
12.44000 14.242
12.46000 4.503
12.48000 7.050
12.50000 11.049
12.52000 5.092
12.54000 9.706
12.56000 13.054
12.58000 12.970
12.60000 12.217
12.62000 16.978
12.64000 7.594
12.66000 7.377
12.68000 7.155
12.70000 4.605
12.72000 9.137
12.74000 10.697
12.76000 16.823
12.78000 21.348
12.80000 22.812
12.82000 19.014
12.84000 22.494
12.86000 24.964
12.88000 18.066
12.90000 7.610
12.92000 14.632
12.94000 20.141
12.96000 14.526
12.98000 11.146
13.00000 13.922
13.02000 10.252
13.04000 -0.515
13.06000 2.066
13.08000 6.764
13.10000 11.946
13.12000 6.357
13.14000 21.687
13.16000 22.546
13.18000 12.779
13.20000 8.774
13.22000 8.312
13.24000 14.766
13.26000 12.819
13.28000 9.748
13.30000 11.386
13.32000 14.345
13.34000 11.065
13.36000 14.809
13.38000 17.037
13.40000 13.980
13.42000 12.055
13.44000 17.352
13.46000 10.237
13.48000 6.244
13.50000 11.377
13.52000 7.592
13.54000 18.773
13.56000 15.720
13.58000 12.133
13.60000 3.508
13.62000 -1.720
13.64000 4.888
13.66000 6.737
13.68000 12.130
13.70000 10.858
13.72000 7.471
13.74000 14.007
13.76000 13.775
13.78000 9.094
13.80000 12.355
13.82000 10.785
13.84000 12.265
13.86000 14.539
13.88000 13.614
13.90000 12.121
13.92000 15.209
13.94000 2.843
13.96000 2.519
13.98000 9.851
14.00000 11.766
14.02000 17.947
14.04000 17.122
14.06000 16.438
14.08000 8.065
14.10000 -2.302
14.12000 1.088
14.14000 9.256
14.16000 11.172
14.18000 5.547
14.20000 7.343
14.22000 7.996
14.24000 4.914
14.26000 11.498
14.28000 1.109
14.30000 -4.465
14.32000 3.351
14.34000 8.687
14.36000 13.568
14.38000 10.982
14.40000 6.377
14.42000 7.141
14.44000 15.363
14.46000 7.403
14.48000 9.431
14.50000 7.371
14.52000 5.220
14.54000 10.413
14.56000 5.513
14.58000 5.917
14.60000 -0.780
14.62000 -0.012
14.64000 15.138
14.66000 19.388
14.68000 14.005
14.70000 7.639
14.72000 8.806
14.74000 8.335
14.76000 15.826
14.78000 13.539
14.80000 4.598
14.82000 16.284
14.84000 10.874
14.86000 -1.420
14.88000 -3.114
14.90000 2.604
14.92000 2.275
14.94000 -2.826
14.96000 1.815
14.98000 5.692
15.00000 8.838
15.02000 10.670
15.04000 17.735
15.06000 9.567
15.08000 7.216
15.10000 12.148
15.12000 10.236
15.14000 7.921
15.16000 10.301
15.18000 4.598
15.20000 8.315
15.22000 13.846
15.24000 5.364
15.26000 11.251
15.28000 6.069
15.30000 9.852
15.32000 7.897
15.34000 -4.436
15.36000 -4.413
15.38000 7.618
15.40000 12.654
15.42000 6.377
15.44000 12.688
15.46000 16.691
15.48000 9.967
15.50000 0.413
15.52000 9.247
15.54000 10.266
15.56000 1.185
15.58000 6.576
15.60000 -4.426
15.62000 -0.461
15.64000 9.552
15.66000 9.711
15.68000 7.614
15.70000 6.200
15.72000 2.657
15.74000 5.861
15.76000 8.308
15.78000 7.220
15.80000 6.399
15.82000 7.410
15.84000 1.100
15.86000 -1.286
15.88000 -4.085
15.90000 1.950
15.92000 6.077
15.94000 -0.081
15.96000 -0.413
15.98000 -3.154
16.00000 -0.982
16.02000 3.079
16.04000 7.093
16.06000 4.163
16.08000 5.506
16.10000 2.913
16.12000 11.095
16.14000 16.596
16.16000 10.747
16.18000 4.557
16.20000 5.030
16.22000 -0.532
16.24000 -2.331
16.26000 3.265
16.28000 1.375
16.30000 -0.132
16.32000 3.377
16.34000 6.425
16.36000 5.904
16.38000 6.511
16.40000 14.610
16.42000 9.108
16.44000 5.886
16.46000 7.860
16.48000 11.751
16.50000 8.477
16.52000 8.749
16.54000 8.394
16.56000 -1.665
16.58000 -1.779
16.60000 1.133
16.62000 5.504
16.64000 -1.172
16.66000 2.728
16.68000 13.147
16.70000 12.388
16.72000 11.396
16.74000 9.672
16.76000 8.098
16.78000 9.416
16.80000 11.175
16.82000 4.622
16.84000 2.843
16.86000 4.791
16.88000 1.050
16.90000 0.418
16.92000 -0.478
16.94000 -3.756
16.96000 12.129
16.98000 12.802
17.00000 2.974
17.02000 11.785
17.04000 10.207
17.06000 11.533
17.08000 10.798
17.10000 10.076
17.12000 9.893
17.14000 3.357
17.16000 1.659
17.18000 3.419
17.20000 8.758
17.22000 -2.682
17.24000 4.947
17.26000 13.940
17.28000 9.507
17.30000 8.415
17.32000 6.610
17.34000 -2.837
17.36000 6.234
17.38000 9.012
17.40000 -3.686
17.42000 3.976
17.44000 8.387
17.46000 13.187
17.48000 8.895
17.50000 -1.380
17.52000 3.411
17.54000 0.715
17.56000 1.130
17.58000 8.998
17.60000 -4.344
17.62000 6.112
17.64000 7.373
17.66000 2.967
17.68000 8.445
17.70000 7.084
17.72000 10.695
17.74000 11.213
17.76000 3.894
17.78000 6.824
17.80000 2.261
17.82000 4.296
17.84000 3.753
17.86000 1.217
17.88000 2.595
17.90000 1.810
17.92000 5.874
17.94000 2.315
17.96000 -1.106
17.98000 2.495
18.00000 -2.575
18.02000 -3.115
18.04000 -0.512
18.06000 -4.265
18.08000 3.794
18.10000 4.642
18.12000 1.138
18.14000 -1.939
18.16000 2.524
18.18000 0.770
18.20000 -1.687
18.22000 -1.028
18.24000 3.258
18.26000 6.388
18.28000 6.232
18.30000 6.928
18.32000 3.179
18.34000 6.851
18.36000 10.230
18.38000 10.409
18.40000 9.711
18.42000 11.826
18.44000 7.605
18.46000 6.865
18.48000 -1.895
18.50000 -4.284
18.52000 0.714
18.54000 -1.318
18.56000 2.942
18.58000 11.301
18.60000 2.654
18.62000 -2.795
18.64000 -3.696
18.66000 -2.650
18.68000 5.241
18.70000 6.473
18.72000 11.713
18.74000 6.974
18.76000 4.171
18.78000 3.744
18.80000 6.161
18.82000 0.229
18.84000 -0.550
18.86000 3.437
18.88000 -3.313
18.90000 -4.262
18.92000 0.429
18.94000 5.743
18.96000 9.998
18.98000 4.709
19.00000 0.500
19.02000 4.074
19.04000 7.901
19.06000 3.839
19.08000 -2.986
19.10000 0.167
19.12000 -0.192
19.14000 2.473
19.16000 2.229
19.18000 4.942
19.20000 2.632
19.22000 2.546
19.24000 5.212
19.26000 6.462
19.28000 2.585
19.30000 2.567
19.32000 4.239
19.34000 10.486
19.36000 7.427
19.38000 -1.034
19.40000 2.466
19.42000 8.342
19.44000 4.999
19.46000 -1.516
19.48000 3.566
19.50000 5.329
19.52000 3.961
19.54000 -4.230
19.56000 2.503
19.58000 10.933
19.60000 5.016
19.62000 5.744
19.64000 2.164
19.66000 -0.545
19.68000 -4.223
19.70000 -2.570
19.72000 2.830
19.74000 3.977
19.76000 2.695
19.78000 4.844
19.80000 5.763
19.82000 11.330
19.84000 7.461
19.86000 7.747
19.88000 4.488
19.90000 7.155
19.92000 7.401
19.94000 7.420
19.96000 7.529
19.98000 11.797
20.00000 9.535
20.02000 7.077
20.04000 3.011
20.06000 0.299
20.08000 3.358
20.10000 10.748
20.12000 7.156
20.14000 11.256
20.16000 6.539
20.18000 -1.322
20.20000 2.807
20.22000 -0.492
20.24000 8.592
20.26000 10.976
20.28000 -0.664
20.30000 1.993
20.32000 -0.261
20.34000 -2.328
20.36000 8.271
20.38000 5.109
20.40000 8.969
20.42000 10.830
20.44000 8.615
20.46000 9.017
20.48000 5.659
20.50000 12.579
20.52000 11.377
20.54000 6.809
20.56000 11.660
20.58000 13.596
20.60000 14.871
20.62000 9.927
20.64000 5.265
20.66000 -2.000
20.68000 1.781
20.70000 3.663
20.72000 3.810
20.74000 10.032
20.76000 7.174
20.78000 3.045
20.80000 3.549
20.82000 1.180
20.84000 5.216
20.86000 8.540
20.88000 -4.138
20.90000 0.921
20.92000 2.028
20.94000 -0.238
20.96000 5.208
20.98000 8.379
21.00000 7.098
21.02000 6.038
21.04000 5.212
21.06000 1.764
21.08000 3.565
21.10000 2.744
21.12000 2.523
21.14000 2.292
21.16000 7.240
21.18000 7.649
21.20000 2.789
21.22000 4.720
21.24000 5.561
21.26000 3.787
21.28000 1.250
21.30000 9.452
21.32000 9.511
21.34000 6.800
21.36000 12.785
21.38000 12.067
21.40000 9.956
21.42000 6.951
21.44000 0.500
21.46000 -1.680
21.48000 4.908
21.50000 3.127
21.52000 4.874
21.54000 4.280
21.56000 3.296
21.58000 -0.829
21.60000 3.070
21.62000 9.762
21.64000 5.997
21.66000 3.216
21.68000 1.288
21.70000 4.762
21.72000 1.447
21.74000 1.893
21.76000 2.721
21.78000 -1.044
21.80000 5.496
21.82000 12.529
21.84000 11.603
21.86000 9.770
21.88000 1.604
21.90000 2.405
21.92000 8.428
21.94000 8.850
21.96000 1.733
21.98000 2.876
22.00000 2.250
22.02000 3.063
22.04000 -0.957
22.06000 2.031
22.08000 6.956
22.10000 4.282
22.12000 6.096
22.14000 4.753
22.16000 5.787
22.18000 3.301
22.20000 5.451
22.22000 4.285
22.24000 -0.549
22.26000 1.937
22.28000 7.907
22.30000 8.145
22.32000 2.977
22.34000 4.074
22.36000 2.016
22.38000 8.327
22.40000 7.820
22.42000 4.466
22.44000 0.023
22.46000 -2.683
22.48000 3.949
22.50000 4.419
22.52000 6.443
22.54000 4.565
22.56000 -3.068
22.58000 -2.570
22.60000 4.946
22.62000 9.486
22.64000 4.274
22.66000 -4.028
22.68000 -0.633
22.70000 4.535
22.72000 8.194
22.74000 4.252
22.76000 5.329
22.78000 2.443
22.80000 6.876
22.82000 11.611
22.84000 12.109
22.86000 10.038
22.88000 -0.386
22.90000 -0.194
22.92000 3.948
22.94000 5.459
22.96000 6.260
22.98000 10.446
23.00000 7.308
23.02000 4.248
23.04000 0.841
23.06000 6.613
23.08000 7.909
23.10000 3.191
23.12000 7.541
23.14000 4.955
23.16000 7.019
23.18000 7.194
23.20000 1.942
23.22000 2.343
23.24000 5.390
23.26000 6.717
23.28000 5.305
23.30000 9.136
23.32000 5.989
23.34000 3.981
23.36000 2.500
23.38000 6.945
23.40000 6.873
23.42000 9.715
23.44000 7.833
23.46000 7.408
23.48000 7.357
23.50000 4.166
23.52000 8.716
23.54000 5.617
23.56000 -1.417
23.58000 6.173
23.60000 7.224
23.62000 7.935
23.64000 5.540
23.66000 4.166
23.68000 8.519
23.70000 5.099
23.72000 6.164
23.74000 10.279
23.76000 9.390
23.78000 12.063
23.80000 12.970
23.82000 12.090
23.84000 13.396
23.86000 9.201
23.88000 0.360
23.90000 -3.941
23.92000 3.245
23.94000 13.148
23.96000 11.942
23.98000 7.243
24.00000 11.428
24.02000 8.484
24.04000 8.266
24.06000 9.947
24.08000 5.186
24.10000 -0.459
24.12000 -0.162
24.14000 3.295
24.16000 7.449
24.18000 6.806
24.20000 12.892
24.22000 8.590
24.24000 3.912
24.26000 3.016
24.28000 -0.786
24.30000 2.829
24.32000 4.142
24.34000 5.766
24.36000 14.206
24.38000 12.557
24.40000 3.033
24.42000 0.796
24.44000 -1.189
24.46000 -0.443
24.48000 4.345
24.50000 6.424
24.52000 1.580
24.54000 -1.281
24.56000 7.592
24.58000 7.025
24.60000 1.532
24.62000 3.197
24.64000 10.823
24.66000 5.745
24.68000 4.689
24.70000 4.216
24.72000 -2.985
24.74000 -0.471
24.76000 1.609
24.78000 2.648
24.80000 7.975
24.82000 11.352
24.84000 7.228
24.86000 2.240
24.88000 4.149
24.90000 1.824
24.92000 -0.021
24.94000 1.299
24.96000 3.156
24.98000 3.052
25.00000 3.343
25.02000 5.146
25.04000 3.411
25.06000 -0.960
25.08000 2.156
25.10000 2.701
25.12000 4.059
25.14000 1.731
25.16000 0.330
25.18000 -0.038
25.20000 -0.326
25.22000 1.806
25.24000 4.954
25.26000 7.403
25.28000 7.499
25.30000 2.792
25.32000 -0.386
25.34000 3.443
25.36000 1.877
25.38000 6.087
25.40000 5.688
25.42000 1.498
25.44000 2.658
25.46000 0.888
25.48000 9.192
25.50000 5.928
25.52000 -0.036
25.54000 -3.888
25.56000 2.734
25.58000 1.868
25.60000 4.469
25.62000 4.800
25.64000 6.056
25.66000 7.009
25.68000 1.643
25.70000 -0.811
25.72000 3.479
25.74000 2.639
25.76000 4.350
25.78000 -0.576
25.80000 1.892
25.82000 1.638
25.84000 0.528
25.86000 0.462
25.88000 -0.052
25.90000 2.402
25.92000 2.556
25.94000 2.064
25.96000 4.091
25.98000 10.393
26.00000 6.489
26.02000 2.455
26.04000 1.906
26.06000 2.904
26.08000 0.815
26.10000 5.092
26.12000 3.843
26.14000 2.484
26.16000 1.373
26.18000 0.324
26.20000 1.604
26.22000 4.583
26.24000 3.625
26.26000 1.298
26.28000 0.314
26.30000 0.867
26.32000 6.594
26.34000 10.540
26.36000 4.724
26.38000 1.663
26.40000 0.761
26.42000 -0.153
26.44000 2.202
26.46000 3.697
26.48000 1.948
26.50000 4.315
26.52000 4.909
26.54000 3.232
26.56000 6.070
26.58000 2.299
26.60000 -2.405
26.62000 -0.460
26.64000 -2.426
26.66000 1.528
26.68000 7.832
26.70000 11.545
26.72000 8.644
26.74000 6.824
26.76000 0.744
26.78000 1.511
26.80000 4.286
26.82000 4.801
26.84000 -3.842
26.86000 -1.792
26.88000 2.673
26.90000 -0.340
26.92000 1.172
26.94000 0.355
26.96000 0.405
26.98000 2.553
27.00000 -1.117
27.02000 -2.658
27.04000 0.860
27.06000 0.747
27.08000 1.847
27.10000 1.069
27.12000 1.587
27.14000 1.003
27.16000 2.524
27.18000 6.418
27.20000 3.227
27.22000 2.452
27.24000 2.164
27.26000 2.102
27.28000 0.925
27.30000 1.636
27.32000 4.301
27.34000 0.615
27.36000 -3.795
27.38000 -0.948
27.40000 3.276
27.42000 8.596
27.44000 7.026
27.46000 6.319
27.48000 1.194
27.50000 3.432
27.52000 7.327
27.54000 3.730
27.56000 6.572
27.58000 1.208
27.60000 -1.290
27.62000 0.549
27.64000 5.890
27.66000 3.456
27.68000 3.724
27.70000 6.482
27.72000 6.167
27.74000 8.477
27.76000 3.916
27.78000 3.962
27.80000 1.916
27.82000 6.515
27.84000 5.890
27.86000 8.179
27.88000 5.813
27.90000 4.436
27.92000 4.955
27.94000 -1.378
27.96000 -3.725
27.98000 0.659
28.00000 5.014
28.02000 1.549
28.04000 2.759
28.06000 -0.493
28.08000 9.587
28.10000 9.655
28.12000 5.945
28.14000 0.385
28.16000 -0.359
28.18000 -1.585
28.20000 1.624
28.22000 4.983
28.24000 2.148
28.26000 2.463
28.28000 0.358
28.30000 2.341
28.32000 6.153
28.34000 6.552
28.36000 3.443
28.38000 9.723
28.40000 8.980
28.42000 2.744
28.44000 0.369
28.46000 8.269
28.48000 4.181
28.50000 -2.872
28.52000 0.703
28.54000 3.343
28.56000 -1.402
28.58000 2.628
28.60000 1.919
28.62000 2.392
28.64000 1.390
28.66000 0.057
28.68000 1.841
28.70000 7.109
28.72000 6.111
28.74000 4.252
28.76000 -0.950
28.78000 -1.135
28.80000 1.886
28.82000 1.482
28.84000 1.029
28.86000 -0.032
28.88000 0.979
28.90000 0.592
28.92000 6.162
28.94000 4.820
28.96000 0.441
28.98000 2.647
29.00000 2.992
29.02000 -1.841
29.04000 -1.910
29.06000 -1.718
29.08000 0.794
29.10000 6.407
29.12000 2.803
29.14000 -0.028
29.16000 -2.084
29.18000 2.398
29.20000 4.376
29.22000 4.205
29.24000 4.854
29.26000 6.682
29.28000 2.363
29.30000 1.684
29.32000 -0.815
29.34000 -2.802
29.36000 2.311
29.38000 6.748
29.40000 6.837
29.42000 3.663
29.44000 2.347
29.46000 2.002
29.48000 2.019
29.50000 6.254
29.52000 3.746
29.54000 4.436
29.56000 4.306
29.58000 3.532
29.60000 -2.151
29.62000 -0.583
29.64000 1.582
29.66000 3.415
29.68000 2.781
29.70000 0.138
29.72000 0.190
29.74000 -3.677
29.76000 1.190
29.78000 6.508
29.80000 3.416
29.82000 -1.288
29.84000 2.194
29.86000 2.057
29.88000 -0.434
29.90000 -1.257
29.92000 -1.045
29.94000 3.718
29.96000 3.535
29.98000 6.060
30.00000 1.002
30.02000 0.476
30.04000 5.731
30.06000 4.317
30.08000 3.364
30.10000 7.322
30.12000 1.205
30.14000 2.292
30.16000 7.855
30.18000 7.945
30.20000 3.610
30.22000 1.988
30.24000 -0.279
30.26000 -0.217
30.28000 0.372
30.30000 -2.361
30.32000 0.381
30.34000 5.380
30.36000 -0.324
30.38000 -3.654
30.40000 4.499
30.42000 4.485
30.44000 0.326
30.46000 -1.626
30.48000 -2.194
30.50000 -3.552
30.52000 -0.040
30.54000 -1.261
30.56000 -1.832
30.58000 1.976
30.60000 3.636
30.62000 -0.999
30.64000 -2.600
30.66000 2.506
30.68000 -0.655
30.70000 -1.178
30.72000 1.256
30.74000 1.526
30.76000 1.676
30.78000 5.008
30.80000 4.782
30.82000 5.225
30.84000 6.389
30.86000 3.390
30.88000 3.244
30.90000 3.962
30.92000 0.227
30.94000 -0.178
30.96000 5.028
30.98000 6.312
31.00000 6.476
31.02000 7.041
31.04000 3.330
31.06000 4.527
31.08000 3.280
31.10000 -3.604
31.12000 0.243
31.14000 -0.986
31.16000 -1.215
31.18000 -0.943
31.20000 3.887
31.22000 5.029
31.24000 2.466
31.26000 0.476
31.28000 0.468
31.30000 2.106
31.32000 -0.189
31.34000 1.195
31.36000 -0.737
31.38000 2.503
31.40000 1.207
31.42000 0.931
31.44000 2.236
31.46000 7.514
31.48000 6.186
31.50000 2.775
31.52000 2.165
31.54000 2.056
31.56000 3.250
31.58000 4.674
31.60000 6.665
31.62000 0.913
31.64000 -0.037
31.66000 4.285
31.68000 6.986
31.70000 4.234
31.72000 4.659
31.74000 5.862
31.76000 4.102
31.78000 4.988
31.80000 5.506
31.82000 6.954
31.84000 7.592
31.86000 5.777
31.88000 3.933
31.90000 5.338
31.92000 8.463
31.94000 5.827
31.96000 4.641
31.98000 1.338
32.00000 4.260
32.02000 2.092
32.04000 4.029
32.06000 3.292
32.08000 7.085
32.10000 7.236
32.12000 4.819
32.14000 5.436
32.16000 3.980
32.18000 4.149
32.20000 5.282
32.22000 5.226
32.24000 1.828
32.26000 5.071
32.28000 2.179
32.30000 0.099
32.32000 -0.835
32.34000 -3.539
32.36000 2.106
32.38000 0.742
32.40000 2.388
32.42000 0.125
32.44000 1.878
32.46000 4.630
32.48000 5.635
32.50000 0.042
32.52000 -1.529
32.54000 2.369
32.56000 6.903
32.58000 3.096
32.60000 2.031
32.62000 6.485
32.64000 3.916
32.66000 5.575
32.68000 2.863
32.70000 3.099
32.72000 5.697
32.74000 -0.764
32.76000 -1.173
32.78000 1.807
32.80000 0.005
32.82000 -2.142
32.84000 0.669
32.86000 0.642
32.88000 3.103
32.90000 6.445
32.92000 3.704
32.94000 2.342
32.96000 -0.175
32.98000 -1.817
33.00000 -1.860
33.02000 1.996
33.04000 4.826
33.06000 1.643
33.08000 -2.243
33.10000 -0.987
33.12000 -1.517
33.14000 -3.015
33.16000 -1.986
33.18000 -0.526
33.20000 -0.126
33.22000 0.783
33.24000 1.046
33.26000 4.122
33.28000 3.904
33.30000 3.119
33.32000 3.501
33.34000 0.666
33.36000 -1.645
33.38000 2.983
33.40000 5.358
33.42000 3.802
33.44000 0.541
33.46000 5.386
33.48000 3.297
33.50000 2.622
33.52000 4.292
33.54000 5.271
33.56000 0.722
33.58000 2.790
33.60000 2.157
33.62000 4.393
33.64000 -0.462
33.66000 1.565
33.68000 1.685
33.70000 5.034
33.72000 6.107
33.74000 1.962
33.76000 2.956
33.78000 3.674
33.80000 6.520
33.82000 8.064
33.84000 3.470
33.86000 3.650
33.88000 4.907
33.90000 8.202
33.92000 1.719
33.94000 0.508
33.96000 1.624
33.98000 4.776
34.00000 5.657
34.02000 5.356
34.04000 6.667
34.06000 1.691
34.08000 -3.492
34.10000 -1.319
34.12000 0.981
34.14000 7.280
34.16000 3.122
34.18000 5.684
34.20000 5.601
34.22000 2.990
34.24000 2.227
34.26000 5.094
34.28000 6.120
34.30000 1.806
34.32000 1.267
34.34000 -0.226
34.36000 2.065
34.38000 1.592
34.40000 0.079
34.42000 -2.864
34.44000 2.704
34.46000 4.974
34.48000 3.483
34.50000 2.841
34.52000 3.699
34.54000 2.700
34.56000 5.463
34.58000 7.128
34.60000 6.324
34.62000 6.767
34.64000 4.671
34.66000 4.227
34.68000 7.659
34.70000 8.371
34.72000 6.941
34.74000 3.929
34.76000 5.400
34.78000 4.113
34.80000 6.380
34.82000 7.264
34.84000 4.797
34.86000 1.827
34.88000 2.166
34.90000 2.709
34.92000 4.138
34.94000 6.152
34.96000 4.186
34.98000 1.676
35.00000 -0.600
35.02000 6.669
35.04000 4.513
35.06000 -0.092
35.08000 0.292
35.10000 3.238
35.12000 2.712
35.14000 0.191
35.16000 1.851
35.18000 2.917
35.20000 8.067
35.22000 10.213
35.24000 7.752
35.26000 6.109
35.28000 -0.165
35.30000 4.205
35.32000 5.185
35.34000 7.465
35.36000 5.394
35.38000 4.174
35.40000 0.730
35.42000 0.310
35.44000 1.195
35.46000 3.624
35.48000 0.188
35.50000 -3.438
35.52000 0.099
35.54000 1.425
35.56000 5.531
35.58000 5.299
35.60000 4.604
35.62000 4.563
35.64000 3.796
35.66000 9.707
35.68000 5.084
35.70000 -3.431
35.72000 0.736
35.74000 4.462
35.76000 5.417
35.78000 4.015
35.80000 5.710
35.82000 5.009
35.84000 5.695
35.86000 4.574
35.88000 1.543
35.90000 -2.808
35.92000 2.434
35.94000 8.402
35.96000 9.001
35.98000 4.462
36.00000 0.535
36.02000 3.390
36.04000 2.490
36.06000 1.478
36.08000 3.082
36.10000 -0.151
36.12000 -0.121
36.14000 3.138
36.16000 6.865
36.18000 4.884
36.20000 1.987
36.22000 2.941
36.24000 -2.820
36.26000 0.320
36.28000 3.739
36.30000 -0.193
36.32000 0.289
36.34000 0.867
36.36000 2.379
36.38000 -1.263
36.40000 3.107
36.42000 5.935
36.44000 -2.143
36.46000 -3.464
36.48000 5.811
36.50000 1.313
36.52000 -1.378
36.54000 -0.268
36.56000 1.287
36.58000 0.936
36.60000 1.234
36.62000 6.493
36.64000 3.957
36.66000 1.403
36.68000 -0.303
36.70000 5.982
36.72000 4.468
36.74000 1.200
36.76000 3.154
36.78000 4.405
36.80000 0.246
36.82000 1.671
36.84000 7.588
36.86000 7.241
36.88000 4.125
36.90000 3.814
36.92000 5.009
36.94000 4.494
36.96000 0.118
36.98000 0.082
37.00000 1.926
37.02000 2.170
37.04000 0.230
37.06000 -3.476
37.08000 -0.375
37.10000 3.559
37.12000 0.309
37.14000 2.965
37.16000 5.749
37.18000 5.805
37.20000 6.800
37.22000 3.865
37.24000 1.528
37.26000 -1.042
37.28000 2.088
37.30000 1.236
37.32000 2.463
37.34000 0.967
37.36000 5.728
37.38000 4.699
37.40000 5.957
37.42000 2.816
37.44000 -0.698
37.46000 -3.499
37.48000 -2.008
37.50000 2.138
37.52000 5.250
37.54000 2.836
37.56000 0.597
37.58000 -1.018
37.60000 0.428
37.62000 2.317
37.64000 0.781
37.66000 3.686
37.68000 -0.217
37.70000 1.953
37.72000 4.123
37.74000 4.851
37.76000 7.183
37.78000 4.730
37.80000 0.463
37.82000 -1.548
37.84000 -0.312
37.86000 1.481
37.88000 4.703
37.90000 2.162
37.92000 0.712
37.94000 1.708
37.96000 0.286
37.98000 -0.363
38.00000 5.779
38.02000 8.386
38.04000 8.444
38.06000 4.778
38.08000 2.699
38.10000 3.254
38.12000 5.631
38.14000 7.282
38.16000 9.337
38.18000 12.798
38.20000 8.347
38.22000 10.665
38.24000 9.690
38.26000 4.081
38.28000 6.541
38.30000 6.921
38.32000 10.331
38.34000 14.966
38.36000 18.799
38.38000 21.033
38.40000 13.715
38.42000 11.147
38.44000 13.793
38.46000 16.169
38.48000 15.582
38.50000 15.372
38.52000 14.907
38.54000 12.929
38.56000 12.581
38.58000 17.740
38.60000 20.113
38.62000 19.316
38.64000 19.993
38.66000 17.535
38.68000 17.478
38.70000 19.628
38.72000 18.074
38.74000 18.724
38.76000 26.099
38.78000 31.144
38.80000 25.054
38.82000 23.973
38.84000 23.271
38.86000 20.722
38.88000 25.084
38.90000 26.668
38.92000 25.344
38.94000 26.999
38.96000 28.456
38.98000 24.609
39.00000 24.989
39.02000 26.618
39.04000 27.401
39.06000 31.373
39.08000 28.760
39.10000 32.214
39.12000 39.008
39.14000 36.739
39.16000 36.334
39.18000 34.889
39.20000 37.567
39.22000 45.385
39.24000 50.531
39.26000 46.626
39.28000 42.681
39.30000 46.283
39.32000 51.643
39.34000 55.118
39.36000 53.486
39.38000 59.753
39.40000 63.361
39.42000 63.531
39.44000 68.156
39.46000 72.649
39.48000 76.432
39.50000 79.082
39.52000 83.610
39.54000 87.565
39.56000 87.127
39.58000 93.355
39.60000 102.443
39.62000 111.138
39.64000 114.541
39.66000 115.088
39.68000 132.337
39.70000 137.030
39.72000 148.963
39.74000 155.497
39.76000 157.223
39.78000 166.686
39.80000 182.084
39.82000 194.101
39.84000 207.761
39.86000 224.927
39.88000 239.807
39.90000 257.468
39.92000 276.041
39.94000 295.858
39.96000 322.484
39.98000 343.415
40.00000 364.494
40.02000 393.637
40.04000 426.780
40.06000 451.772
40.08000 487.624
40.10000 523.700
40.12000 558.806
40.14000 597.010
40.16000 639.506
40.18000 682.039
40.20000 722.428
40.22000 760.546
40.24000 804.329
40.26000 855.083
40.28000 897.394
40.30000 931.475
40.32000 976.437
40.34000 1008.168
40.36000 1043.994
40.38000 1075.680
40.40000 1107.641
40.42000 1135.183
40.44000 1146.540
40.46000 1160.879
40.48000 1174.424
40.50000 1165.700
40.52000 1155.749
40.54000 1147.239
40.56000 1146.718
40.58000 1116.212
40.60000 1111.657
40.62000 1081.812
40.64000 1055.798
40.66000 1029.507
40.68000 995.539
40.70000 963.342
40.72000 932.176
40.74000 908.126
40.76000 876.527
40.78000 845.898
40.80000 805.126
40.82000 765.152
40.84000 737.534
40.86000 712.404
40.88000 672.942
40.90000 640.787
40.92000 600.951
40.94000 566.314
40.96000 538.812
40.98000 518.498
41.00000 494.724
41.02000 466.430
41.04000 429.994
41.06000 408.648
41.08000 393.709
41.10000 371.076
41.12000 348.396
41.14000 327.399
41.16000 306.867
41.18000 290.062
41.20000 273.690
41.22000 264.669
41.24000 247.635
41.26000 233.989
41.28000 216.699
41.30000 207.782
41.32000 199.150
41.34000 185.497
41.36000 168.480
41.38000 164.527
41.40000 159.339
41.42000 155.500
41.44000 140.967
41.46000 132.687
41.48000 128.235
41.50000 123.975
41.52000 117.200
41.54000 109.747
41.56000 102.319
41.58000 100.879
41.60000 100.833
41.62000 93.043
41.64000 93.524
41.66000 93.212
41.68000 81.750
41.70000 75.997
41.72000 73.773
41.74000 74.388
41.76000 69.300
41.78000 65.307
41.80000 60.525
41.82000 61.400
41.84000 60.885
41.86000 60.641
41.88000 58.345
41.90000 55.247
41.92000 48.743
41.94000 44.746
41.96000 43.404
41.98000 39.670
42.00000 43.238
42.02000 40.409
42.04000 34.678
42.06000 33.888
42.08000 37.611
42.10000 35.934
42.12000 30.439
42.14000 24.792
42.16000 27.376
42.18000 27.300
42.20000 27.075
42.22000 31.144
42.24000 24.898
42.26000 25.849
42.28000 27.060
42.30000 22.195
42.32000 17.777
42.34000 19.294
42.36000 16.154
42.38000 16.202
42.40000 20.690
42.42000 21.429
42.44000 17.959
42.46000 15.446
42.48000 17.608
42.50000 14.090
42.52000 11.904
42.54000 11.653
42.56000 13.299
42.58000 11.531
42.60000 7.196
42.62000 8.526
42.64000 9.174
42.66000 6.212
42.68000 9.557
42.70000 11.214
42.72000 12.751
42.74000 6.962
42.76000 4.372
42.78000 6.192
42.80000 5.933
42.82000 7.250
42.84000 7.920
42.86000 7.751
42.88000 7.681
42.90000 7.160
42.92000 7.329
42.94000 4.531
42.96000 3.714
42.98000 7.167
43.00000 4.477
43.02000 1.532
43.04000 2.659
43.06000 2.750
43.08000 2.461
43.10000 5.487
43.12000 5.210
43.14000 -3.442
43.16000 -1.913
43.18000 0.240
43.20000 4.283
43.22000 0.975
43.24000 1.078
43.26000 5.097
43.28000 4.567
43.30000 5.473
43.32000 3.592
43.34000 2.911
43.36000 -0.244
43.38000 0.447
43.40000 -0.341
43.42000 -0.887
43.44000 2.245
43.46000 1.384
43.48000 -2.079
43.50000 -3.389
43.52000 -2.574
43.54000 -3.137
43.56000 -0.140
43.58000 1.775
43.60000 -1.849
43.62000 -1.149
43.64000 0.176
43.66000 1.684
43.68000 0.887
43.70000 -0.104
43.72000 -2.740
43.74000 -2.145
43.76000 0.197
43.78000 0.748
43.80000 -2.007
43.82000 -2.979
43.84000 -0.609
43.86000 2.065
43.88000 2.983
43.90000 3.525
43.92000 1.441
43.94000 -2.412
43.96000 -3.191
43.98000 -3.221
44.00000 -1.191
44.02000 -3.284
44.04000 0.504
44.06000 0.786
44.08000 3.151
44.10000 -1.770
44.12000 -0.583
44.14000 0.436
44.16000 3.447
44.18000 3.572
44.20000 -0.175
44.22000 -0.389
44.24000 -3.271
44.26000 -0.229
44.28000 0.622
44.30000 2.217
44.32000 3.210
44.34000 2.215
44.36000 3.029
44.38000 4.113
44.40000 0.554
44.42000 1.025
44.44000 -0.067
44.46000 -1.154
44.48000 -2.601
44.50000 -0.128
44.52000 2.373
44.54000 1.132
44.56000 0.815
44.58000 0.229
44.60000 -1.450
44.62000 -1.303
44.64000 2.075
44.66000 5.245
44.68000 7.168
44.70000 3.234
44.72000 3.182
44.74000 4.242
44.76000 4.401
44.78000 3.137
44.80000 -0.969
44.82000 -3.204
44.84000 -1.565
44.86000 0.572
44.88000 1.305
44.90000 1.032
44.92000 2.375
44.94000 2.018
44.96000 -1.005
44.98000 1.199
45.00000 2.448
45.02000 0.702
45.04000 2.091
45.06000 4.184
45.08000 3.982
45.10000 1.733
45.12000 3.216
45.14000 0.237
45.16000 -1.023
45.18000 1.975
45.20000 2.964
45.22000 0.729
45.24000 0.304
45.26000 4.457
45.28000 7.471
45.30000 0.448
45.32000 -2.433
45.34000 -3.190
45.36000 2.433
45.38000 3.869
45.40000 0.122
45.42000 2.810
45.44000 5.018
45.46000 3.007
45.48000 3.615
45.50000 3.339
45.52000 2.575
45.54000 8.170
45.56000 7.479
45.58000 4.587
45.60000 4.583
45.62000 5.940
45.64000 6.863
45.66000 3.035
45.68000 5.536
45.70000 7.457
45.72000 7.284
45.74000 7.578
45.76000 8.830
45.78000 9.452
45.80000 7.422
45.82000 11.916
45.84000 7.202
45.86000 8.898
45.88000 8.168
45.90000 7.806
45.92000 11.173
45.94000 15.189
45.96000 14.355
45.98000 13.761
46.00000 16.238
46.02000 14.782
46.04000 20.328
46.06000 16.358
46.08000 18.688
46.10000 18.251
46.12000 20.503
46.14000 22.618
46.16000 21.030
46.18000 20.674
46.20000 18.104
46.22000 20.864
46.24000 25.106
46.26000 30.259
46.28000 31.390
46.30000 32.436
46.32000 30.274
46.34000 33.661
46.36000 34.167
46.38000 34.901
46.40000 34.530
46.42000 41.227
46.44000 45.244
46.46000 46.750
46.48000 51.115
46.50000 48.793
46.52000 48.267
46.54000 52.760
46.56000 52.648
46.58000 55.783
46.60000 57.175
46.62000 61.052
46.64000 65.827
46.66000 66.066
46.68000 75.209
46.70000 81.541
46.72000 83.329
46.74000 87.807
46.76000 91.958
46.78000 101.465
46.80000 96.919
46.82000 99.822
46.84000 102.241
46.86000 110.122
46.88000 107.647
46.90000 113.818
46.92000 118.954
46.94000 122.044
46.96000 124.738
46.98000 126.981
47.00000 133.137
47.02000 137.470
47.04000 142.660
47.06000 144.915
47.08000 144.606
47.10000 139.991
47.12000 145.415
47.14000 148.157
47.16000 149.652
47.18000 140.281
47.20000 143.505
47.22000 144.115
47.24000 140.500
47.26000 131.411
47.28000 127.424
47.30000 129.976
47.32000 125.636
47.34000 126.387
47.36000 123.783
47.38000 115.871
47.40000 107.631
47.42000 111.519
47.44000 109.840
47.46000 112.429
47.48000 102.430
47.50000 92.244
47.52000 84.845
47.54000 85.463
47.56000 87.632
47.58000 84.053
47.60000 77.163
47.62000 74.569
47.64000 67.012
47.66000 63.678
47.68000 61.448
47.70000 60.739
47.72000 55.698
47.74000 50.258
47.76000 49.228
47.78000 51.566
47.80000 46.911
47.82000 42.805
47.84000 43.622
47.86000 40.286
47.88000 36.773
47.90000 36.655
47.92000 31.319
47.94000 29.182
47.96000 29.911
47.98000 28.402
48.00000 25.692
48.02000 22.968
48.04000 29.764
48.06000 23.627
48.08000 16.303
48.10000 13.787
48.12000 18.055
48.14000 17.214
48.16000 15.229
48.18000 10.959
48.20000 13.544
48.22000 13.006
48.24000 13.910
48.26000 16.468
48.28000 10.651
48.30000 6.347
48.32000 8.057
48.34000 7.883
48.36000 7.587
48.38000 10.412
48.40000 6.709
48.42000 4.920
48.44000 4.899
48.46000 7.245
48.48000 7.636
48.50000 7.421
48.52000 6.481
48.54000 3.501
48.56000 5.491
48.58000 4.735
48.60000 3.561
48.62000 2.759
48.64000 1.845
48.66000 -2.477
48.68000 -0.361
48.70000 2.579
48.72000 4.166
48.74000 3.565
48.76000 2.465
48.78000 1.115
48.80000 -2.742
48.82000 0.241
48.84000 -0.101
48.86000 2.544
48.88000 1.394
48.90000 -2.717
48.92000 0.464
48.94000 3.652
48.96000 3.596
48.98000 3.239
49.00000 2.690
49.02000 2.497
49.04000 -0.619
49.06000 0.651
49.08000 0.045
49.10000 1.243
49.12000 6.020
49.14000 4.367
49.16000 0.711
49.18000 0.038
49.20000 -1.567
49.22000 0.692
49.24000 0.263
49.26000 -0.010
49.28000 -0.460
49.30000 -0.785
49.32000 1.391
49.34000 -1.164
49.36000 -0.069
49.38000 0.656
49.40000 1.278
49.42000 1.857
49.44000 1.084
49.46000 -0.163
49.48000 -2.338
49.50000 2.585
49.52000 2.119
49.54000 0.654
49.56000 2.117
49.58000 -1.392
49.60000 -2.615
49.62000 -0.682
49.64000 0.349
49.66000 1.139
49.68000 1.223
49.70000 0.929
49.72000 -1.801
49.74000 0.628
49.76000 7.155
49.78000 0.716
49.80000 -1.780
49.82000 1.884
49.84000 -0.271
49.86000 0.422
49.88000 -0.866
49.90000 1.958
49.92000 -1.460
49.94000 -2.019
49.96000 -0.373
49.98000 3.664
50.00000 0.171
50.02000 0.031
50.04000 1.806
50.06000 0.704
50.08000 -0.054
50.10000 -0.916
50.12000 0.099
50.14000 3.482
50.16000 3.031
50.18000 2.896
50.20000 2.157
50.22000 -0.079
50.24000 1.784
50.26000 0.338
50.28000 -1.805
50.30000 -2.562
50.32000 -2.447
50.34000 3.463
50.36000 2.265
50.38000 -1.572
50.40000 0.142
50.42000 1.269
50.44000 0.960
50.46000 0.190
50.48000 2.792
50.50000 -1.267
50.52000 -1.150
50.54000 -1.840
50.56000 -1.831
50.58000 -2.537
50.60000 -1.787
50.62000 -0.627
50.64000 -1.005
50.66000 1.296
50.68000 2.414
50.70000 1.805
50.72000 2.824
50.74000 1.876
50.76000 -1.008
50.78000 -0.343
50.80000 -1.308
50.82000 1.855
50.84000 2.494
50.86000 2.191
50.88000 -1.180
50.90000 0.464
50.92000 3.887
50.94000 3.158
50.96000 3.712
50.98000 3.303
51.00000 0.305
51.02000 -0.954
51.04000 2.018
51.06000 1.727
51.08000 1.416
51.10000 -1.140
51.12000 -0.759
51.14000 1.918
51.16000 0.971
51.18000 -2.472
51.20000 0.519
51.22000 1.010
51.24000 0.811
51.26000 1.557
51.28000 2.992
51.30000 -0.931
51.32000 -0.651
51.34000 0.069
51.36000 -0.969
51.38000 0.458
51.40000 3.040
51.42000 3.984
51.44000 3.434
51.46000 2.110
51.48000 1.458
51.50000 -1.149
51.52000 -1.855
51.54000 4.266
51.56000 4.788
51.58000 2.679
51.60000 1.024
51.62000 2.687
51.64000 2.844
51.66000 1.480
51.68000 2.715
51.70000 1.281
51.72000 -2.443
51.74000 0.206
51.76000 5.002
51.78000 3.606
51.80000 2.381
51.82000 8.223
51.84000 4.296
51.86000 1.825
51.88000 -0.755
51.90000 1.975
51.92000 3.942
51.94000 5.836
51.96000 2.414
51.98000 0.208
52.00000 1.065
52.02000 1.890
52.04000 2.738
52.06000 2.545
52.08000 4.448
52.10000 1.845
52.12000 2.202
52.14000 5.020
52.16000 2.838
52.18000 2.769
52.20000 1.594
52.22000 1.646
52.24000 0.453
52.26000 -2.422
52.28000 -0.410
52.30000 3.027
52.32000 3.071
52.34000 2.683
52.36000 1.775
52.38000 -0.209
52.40000 0.657
52.42000 -0.287
52.44000 1.494
52.46000 1.765
52.48000 -1.164
52.50000 1.022
52.52000 4.042
52.54000 1.993
52.56000 -1.349
52.58000 -1.380
52.60000 -0.814
52.62000 0.918
52.64000 1.256
52.66000 -1.140
52.68000 0.810
52.70000 3.279
52.72000 0.634
52.74000 4.578
52.76000 3.089
52.78000 4.087
52.80000 3.530
52.82000 3.425
52.84000 1.103
52.86000 4.008
52.88000 5.133
52.90000 3.111
52.92000 3.233
52.94000 3.197
52.96000 4.192
52.98000 3.398
53.00000 2.175
53.02000 -0.494
53.04000 0.832
53.06000 0.952
53.08000 0.747
53.10000 3.420
53.12000 2.502
53.14000 3.288
53.16000 3.684
53.18000 6.355
53.20000 5.284
53.22000 6.225
53.24000 1.609
53.26000 2.273
53.28000 3.896
53.30000 2.135
53.32000 0.172
53.34000 4.300
53.36000 4.323
53.38000 3.343
53.40000 3.081
53.42000 3.074
53.44000 5.685
53.46000 2.529
53.48000 0.202
53.50000 4.602
53.52000 5.421
53.54000 5.411
53.56000 3.177
53.58000 3.533
53.60000 5.833
53.62000 7.347
53.64000 6.101
53.66000 7.220
53.68000 4.729
53.70000 2.957
53.72000 1.982
53.74000 1.927
53.76000 -1.251
53.78000 -2.316
53.80000 1.742
53.82000 3.961
53.84000 4.651
53.86000 2.702
53.88000 5.367
53.90000 4.964
53.92000 2.045
53.94000 4.713
53.96000 6.491
53.98000 5.732
54.00000 2.658
54.02000 1.000
54.04000 2.655
54.06000 2.698
54.08000 4.755
54.10000 5.643
54.12000 7.024
54.14000 3.874
54.16000 3.288
54.18000 4.458
54.20000 2.517
54.22000 1.097
54.24000 -0.044
54.26000 -0.007
54.28000 0.763
54.30000 1.948
54.32000 2.455
54.34000 2.794
54.36000 2.036
54.38000 1.946
54.40000 0.900
54.42000 0.917
54.44000 3.499
54.46000 4.626
54.48000 2.878
54.50000 2.698
54.52000 0.598
54.54000 2.340
54.56000 6.170
54.58000 5.414
54.60000 6.423
54.62000 4.463
54.64000 4.254
54.66000 0.088
54.68000 0.046
54.70000 0.774
54.72000 1.254
54.74000 2.401
54.76000 4.792
54.78000 2.520
54.80000 3.014
54.82000 0.073
54.84000 1.254
54.86000 3.388
54.88000 5.440
54.90000 6.263
54.92000 2.249
54.94000 2.727
54.96000 -0.979
54.98000 -0.278
55.00000 2.008
55.02000 3.915
55.04000 2.426
55.06000 2.504
55.08000 2.585
55.10000 1.861
55.12000 3.331
55.14000 0.948
55.16000 0.143
55.18000 4.557
55.20000 6.460
55.22000 1.802
55.24000 1.978
55.26000 2.962
55.28000 2.716
55.30000 6.307
55.32000 6.199
55.34000 5.882
55.36000 5.639
55.38000 5.493
55.40000 3.142
55.42000 3.763
55.44000 4.612
55.46000 0.335
55.48000 0.951
55.50000 1.935
55.52000 2.344
55.54000 3.236
55.56000 -1.034
55.58000 0.334
55.60000 1.547
55.62000 0.376
55.64000 3.277
55.66000 3.279
55.68000 5.059
55.70000 5.011
55.72000 6.294
55.74000 6.286
55.76000 3.799
55.78000 4.805
55.80000 5.488
55.82000 3.290
55.84000 4.213
55.86000 3.277
55.88000 6.715
55.90000 2.942
55.92000 -2.282
55.94000 3.620
55.96000 7.469
55.98000 5.417
56.00000 3.805
56.02000 1.949
56.04000 4.596
56.06000 5.330
56.08000 1.735
56.10000 3.121
56.12000 3.919
56.14000 0.642
56.16000 1.202
56.18000 4.021
56.20000 -0.096
56.22000 -1.183
56.24000 0.298
56.26000 -0.326
56.28000 3.360
56.30000 3.658
56.32000 6.270
56.34000 6.253
56.36000 4.244
56.38000 2.107
56.40000 2.357
56.42000 1.247
56.44000 2.160
56.46000 5.734
56.48000 5.988
56.50000 2.760
56.52000 2.994
56.54000 -0.397
56.56000 0.259
56.58000 1.014
56.60000 1.938
56.62000 2.481
56.64000 0.525
56.66000 2.196
56.68000 2.517
56.70000 3.575
56.72000 2.558
56.74000 2.611
56.76000 0.313
56.78000 1.041
56.80000 3.058
56.82000 -1.003
56.84000 1.878
56.86000 3.506
56.88000 0.500
56.90000 0.856
56.92000 0.785
56.94000 1.072
56.96000 4.237
56.98000 1.991
57.00000 -1.435
57.02000 0.553
57.04000 1.069
57.06000 -2.302
57.08000 1.198
57.10000 1.250
57.12000 4.045
57.14000 7.247
57.16000 5.115
57.18000 3.677
57.20000 2.847
57.22000 3.535
57.24000 3.380
57.26000 5.725
57.28000 4.579
57.30000 8.223
57.32000 5.061
57.34000 1.018
57.36000 1.760
57.38000 1.021
57.40000 0.886
57.42000 0.951
57.44000 1.111
57.46000 -0.518
57.48000 -2.292
57.50000 -2.076
57.52000 0.349
57.54000 -0.013
57.56000 -2.292
57.58000 -1.198
57.60000 5.733
57.62000 3.254
57.64000 1.098
57.66000 4.707
57.68000 2.999
57.70000 0.203
57.72000 -1.865
57.74000 -0.410
57.76000 -2.293
57.78000 -1.051
57.80000 0.072
57.82000 -1.758
57.84000 -0.395
57.86000 1.375
57.88000 1.132
57.90000 0.072
57.92000 2.703
57.94000 0.987
57.96000 2.518
57.98000 3.356
58.00000 0.550
58.02000 3.767
58.04000 0.823
58.06000 -1.666
58.08000 -1.251
58.10000 0.499
58.12000 -0.417
58.14000 2.029
58.16000 4.581
58.18000 5.349
58.20000 3.899
58.22000 3.851
58.24000 1.058
58.26000 0.247
58.28000 -0.183
58.30000 2.036
58.32000 4.864
58.34000 2.542
58.36000 -1.330
58.38000 1.506
58.40000 4.783
58.42000 3.445
58.44000 1.161
58.46000 2.158
58.48000 1.885
58.50000 2.096
58.52000 -0.738
58.54000 0.345
58.56000 0.411
58.58000 0.224
58.60000 0.327
58.62000 -0.786
58.64000 0.793
58.66000 -0.199
58.68000 0.375
58.70000 2.814
58.72000 2.281
58.74000 3.212
58.76000 1.269
58.78000 5.738
58.80000 4.382
58.82000 1.762
58.84000 3.117
58.86000 2.482
58.88000 2.528
58.90000 2.768
58.92000 1.828
58.94000 0.177
58.96000 -2.240
58.98000 -0.211
59.00000 2.175
59.02000 1.537
59.04000 0.377
59.06000 0.732
59.08000 -0.454
59.10000 1.302
59.12000 1.368
59.14000 2.196
59.16000 3.970
59.18000 2.703
59.20000 3.006
59.22000 3.308
59.24000 0.453
59.26000 1.026
59.28000 0.711
59.30000 2.341
59.32000 1.509
59.34000 2.742
59.36000 5.037
59.38000 2.884
59.40000 0.342
59.42000 0.760
59.44000 1.766
59.46000 1.266
59.48000 3.406
59.50000 1.270
59.52000 -2.212
59.54000 1.244
59.56000 4.515
59.58000 6.441
59.60000 3.384
59.62000 1.144
59.64000 -0.856
59.66000 0.767
59.68000 1.483
59.70000 1.695
59.72000 -0.137
59.74000 1.763
59.76000 3.625
59.78000 0.626
59.80000 2.999
59.82000 5.756
59.84000 4.151
59.86000 2.759
59.88000 1.637
59.90000 -0.344
59.92000 0.508
59.94000 2.374
59.96000 -0.118
59.98000 -1.475
60.00000 3.398
60.02000 2.960
60.04000 2.109
60.06000 0.816
60.08000 2.231
60.10000 3.867
60.12000 2.070
60.14000 -0.064
60.16000 2.673
60.18000 0.886
60.20000 1.007
60.22000 3.244
60.24000 0.278
60.26000 1.722
60.28000 3.263
60.30000 3.848
60.32000 1.705
60.34000 1.272
60.36000 -1.358
60.38000 -2.204
60.40000 -1.411
60.42000 2.840
60.44000 0.607
60.46000 -0.280
60.48000 0.506
60.50000 1.670
60.52000 1.904
60.54000 -1.045
60.56000 -1.581
60.58000 2.378
60.60000 1.775
60.62000 1.230
60.64000 -0.464
60.66000 -0.137
60.68000 0.176
60.70000 -0.287
60.72000 -0.146
60.74000 1.265
60.76000 0.495
60.78000 1.283
60.80000 3.068
60.82000 1.574
60.84000 3.803
60.86000 1.175
60.88000 2.618
60.90000 2.092
60.92000 0.820
60.94000 1.573
60.96000 -1.890
60.98000 -1.758
61.00000 -1.074
61.02000 -1.225
61.04000 -0.432
61.06000 4.574
61.08000 2.411
61.10000 1.509
61.12000 3.168
61.14000 2.695
61.16000 -0.288
61.18000 -2.184
61.20000 0.751
61.22000 3.520
61.24000 2.498
61.26000 0.031
61.28000 1.617
61.30000 1.868
61.32000 1.775
61.34000 1.892
61.36000 1.218
61.38000 2.039
61.40000 2.850
61.42000 -0.477
61.44000 -1.793
61.46000 -2.172
61.48000 -0.179
61.50000 2.076
61.52000 1.478
61.54000 4.063
61.56000 4.276
61.58000 2.738
61.60000 1.995
61.62000 2.068
61.64000 0.308
61.66000 0.541
61.68000 2.194
61.70000 4.895
61.72000 3.090
61.74000 -1.979
61.76000 -0.549
61.78000 -0.076
61.80000 -0.687
61.82000 1.157
61.84000 2.232
61.86000 4.209
61.88000 2.451
61.90000 0.664
61.92000 1.111
61.94000 2.886
61.96000 1.810
61.98000 -0.942
62.00000 1.735
62.02000 3.974
62.04000 0.950
62.06000 2.575
62.08000 1.890
62.10000 -1.305
62.12000 -1.823
62.14000 2.091
62.16000 2.434
62.18000 1.549
62.20000 -2.149
62.22000 -2.148
62.24000 1.534
62.26000 2.238
62.28000 1.024
62.30000 1.967
62.32000 3.105
62.34000 1.824
62.36000 1.904
62.38000 1.233
62.40000 2.407
62.42000 2.775
62.44000 2.868
62.46000 1.635
62.48000 0.381
62.50000 0.482
62.52000 1.365
62.54000 1.497
62.56000 0.982
62.58000 2.143
62.60000 1.621
62.62000 -0.073
62.64000 -1.356
62.66000 0.728
62.68000 1.634
62.70000 2.554
62.72000 3.869
62.74000 1.502
62.76000 1.103
62.78000 0.299
62.80000 -2.132
62.82000 -1.900
62.84000 -0.931
62.86000 5.225
62.88000 5.397
62.90000 4.662
62.92000 2.523
62.94000 3.014
62.96000 4.004
62.98000 4.281
63.00000 4.632
63.02000 4.391
63.04000 3.481
63.06000 1.912
63.08000 0.435
63.10000 1.303
63.12000 2.908
63.14000 2.366
63.16000 -1.150
63.18000 1.840
63.20000 2.588
63.22000 4.607
63.24000 2.150
63.26000 -2.126
63.28000 -0.896
63.30000 -0.507
63.32000 -0.151
63.34000 -0.240
63.36000 0.381
63.38000 2.413
63.40000 2.018
63.42000 2.396
63.44000 2.542
63.46000 5.245
63.48000 4.743
63.50000 3.186
63.52000 0.440
63.54000 -1.725
63.56000 0.277
63.58000 -1.875
63.60000 0.248
63.62000 2.265
63.64000 0.685
63.66000 0.369
63.68000 1.860
63.70000 3.489
63.72000 3.905
63.74000 3.812
63.76000 3.462
63.78000 1.990
63.80000 2.250
63.82000 0.991
63.84000 0.540
63.86000 0.132
63.88000 -1.228
63.90000 -0.180
63.92000 -2.129
63.94000 -1.938
63.96000 -0.292
63.98000 0.294
64.00000 1.208
64.02000 1.930
64.04000 2.895
64.06000 2.116
64.08000 3.293
64.10000 4.131
64.12000 4.471
64.14000 1.031
64.16000 -0.956
64.18000 -1.119
64.20000 0.113
64.22000 1.466
64.24000 -0.500
64.26000 -2.070
64.28000 0.080
64.30000 1.480
64.32000 3.222
64.34000 0.879
64.36000 1.927
64.38000 3.241
64.40000 1.979
64.42000 0.533
64.44000 -0.215
64.46000 0.055
64.48000 -0.583
64.50000 -0.307
64.52000 -1.539
64.54000 -0.468
64.56000 -1.941
64.58000 0.178
64.60000 -1.194
64.62000 2.287
64.64000 2.399
64.66000 0.564
64.68000 -0.632
64.70000 -1.170
64.72000 1.179
64.74000 -1.619
64.76000 -2.124
64.78000 0.470
64.80000 0.802
64.82000 0.817
64.84000 1.087
64.86000 1.285
64.88000 -2.068
64.90000 0.162
64.92000 0.296
64.94000 -1.442
64.96000 -1.352
64.98000 1.518
65.00000 0.121
65.02000 -1.558
65.04000 -1.602
65.06000 -1.931
65.08000 1.026
65.10000 4.125
65.12000 4.162
65.14000 3.132
65.16000 2.305
65.18000 2.717
65.20000 0.132
65.22000 -2.108
65.24000 1.000
65.26000 2.867
65.28000 2.332
65.30000 2.430
65.32000 3.724
65.34000 0.707
65.36000 0.681
65.38000 0.105
65.40000 -0.877
65.42000 0.420
65.44000 1.452
65.46000 1.097
65.48000 -1.347
65.50000 -1.777
65.52000 2.226
65.54000 2.070
65.56000 2.035
65.58000 0.997
65.60000 0.407
65.62000 -0.382
65.64000 -0.193
65.66000 -1.520
65.68000 1.689
65.70000 1.953
65.72000 -0.600
65.74000 -1.518
65.76000 1.576
65.78000 2.380
65.80000 1.672
65.82000 0.654
65.84000 0.060
65.86000 1.649
65.88000 0.124
65.90000 0.059
65.92000 -2.079
65.94000 -1.797
65.96000 -1.482
65.98000 0.612
66.00000 -0.311
66.02000 -1.182
66.04000 1.689
66.06000 2.509
66.08000 0.993
66.10000 -0.592
66.12000 -0.021
66.14000 -1.260
66.16000 -1.282
66.18000 -1.647
66.20000 0.540
66.22000 1.141
66.24000 3.117
66.26000 1.225
66.28000 -1.543
66.30000 -0.348
66.32000 0.911
66.34000 -1.411
66.36000 -0.298
66.38000 -0.034
66.40000 -0.480
66.42000 -1.056
66.44000 -2.102
66.46000 -1.741
66.48000 0.020
66.50000 -0.551
66.52000 -1.376
66.54000 0.231
66.56000 -1.603
66.58000 -1.627
66.60000 -0.390
66.62000 0.785
66.64000 0.756
66.66000 1.221
66.68000 2.249
66.70000 2.338
66.72000 2.646
66.74000 0.206
66.76000 -0.048
66.78000 2.239
66.80000 2.178
66.82000 -0.042
66.84000 -1.125
66.86000 0.221
66.88000 0.826
66.90000 1.570
66.92000 0.637
66.94000 0.371
66.96000 0.263
66.98000 1.376
67.00000 -1.686
67.02000 -2.097
67.04000 0.693
67.06000 -0.333
67.08000 0.044
67.10000 -0.499
67.12000 -0.417
67.14000 -0.729
67.16000 -0.426
67.18000 0.875
67.20000 1.945
67.22000 -0.028
67.24000 -1.289
67.26000 -2.089
67.28000 0.211
67.30000 0.207
67.32000 -0.610
67.34000 -0.355
67.36000 -2.089
67.38000 -0.890
67.40000 0.737
67.42000 -0.523
67.44000 1.195
67.46000 0.790
67.48000 0.737
67.50000 0.702
67.52000 -0.734
67.54000 1.823
67.56000 1.221
67.58000 3.515
67.60000 1.720
67.62000 1.260
67.64000 1.503
67.66000 1.459
67.68000 1.208
67.70000 2.452
67.72000 1.607
67.74000 -1.772
67.76000 -1.959
67.78000 -1.349
67.80000 0.012
67.82000 0.501
67.84000 0.255
67.86000 1.457
67.88000 -0.133
67.90000 -1.659
67.92000 -1.475
67.94000 -0.137
67.96000 1.305
67.98000 1.338
68.00000 1.196
68.02000 1.686
68.04000 0.982
68.06000 1.671
68.08000 2.604
68.10000 0.909
68.12000 0.522
68.14000 2.663
68.16000 2.309
68.18000 3.506
68.20000 4.981
68.22000 3.486
68.24000 1.216
68.26000 3.744
68.28000 4.736
68.30000 4.603
68.32000 3.970
68.34000 4.390
68.36000 7.534
68.38000 6.628
68.40000 6.492
68.42000 6.777
68.44000 6.639
68.46000 10.037
68.48000 14.170
68.50000 14.381
68.52000 12.933
68.54000 15.924
68.56000 15.430
68.58000 13.577
68.60000 12.182
68.62000 14.519
68.64000 17.173
68.66000 20.806
68.68000 21.379
68.70000 18.403
68.72000 18.346
68.74000 21.509
68.76000 24.798
68.78000 24.186
68.80000 22.201
68.82000 22.898
68.84000 22.327
68.86000 23.194
68.88000 25.135
68.90000 28.264
68.92000 28.393
68.94000 28.637
68.96000 26.016
68.98000 23.927
69.00000 25.168
69.02000 27.360
69.04000 26.035
69.06000 23.647
69.08000 22.717
69.10000 22.784
69.12000 20.476
69.14000 20.251
69.16000 17.941
69.18000 17.110
69.20000 17.583
69.22000 17.689
69.24000 17.551
69.26000 18.680
69.28000 20.499
69.30000 18.661
69.32000 15.146
69.34000 12.407
69.36000 14.045
69.38000 14.618
69.40000 12.705
69.42000 12.117
69.44000 10.981
69.46000 11.406
69.48000 7.816
69.50000 8.465
69.52000 8.560
69.54000 6.660
69.56000 5.868
69.58000 7.393
69.60000 5.815
69.62000 5.085
69.64000 4.198
69.66000 6.624
69.68000 4.817
69.70000 4.036
69.72000 3.677
69.74000 2.449
69.76000 2.642
69.78000 4.844
69.80000 7.672
69.82000 3.374
69.84000 2.378
69.86000 2.016
69.88000 1.643
69.90000 0.550
69.92000 2.994
69.94000 3.480
69.96000 0.876
69.98000 1.008
70.00000 -0.202
70.02000 0.342
70.04000 -2.061
70.06000 -1.295
70.08000 -1.284
70.10000 0.077
70.12000 0.423
70.14000 0.458
70.16000 -0.578
70.18000 0.715
70.20000 2.152
70.22000 -0.048
70.24000 -0.618
70.26000 0.274
70.28000 0.621
70.30000 0.194
70.32000 2.722
70.34000 2.330
70.36000 0.770
70.38000 1.511
70.40000 0.182
70.42000 0.789
70.44000 -0.427
70.46000 -0.001
70.48000 1.429
70.50000 2.220
70.52000 0.679
70.54000 1.202
70.56000 -1.349
70.58000 1.134
70.60000 1.197
70.62000 -1.437
70.64000 -1.963
70.66000 0.908
70.68000 3.319
70.70000 1.596
70.72000 1.217
70.74000 2.090
70.76000 2.233
70.78000 1.685
70.80000 1.013
70.82000 0.472
70.84000 1.881
70.86000 1.879
70.88000 1.699
70.90000 1.088
70.92000 2.077
70.94000 -0.194
70.96000 -0.482
70.98000 2.807
71.00000 -0.417
71.02000 -1.042
71.04000 2.470
71.06000 3.985
71.08000 1.973
71.10000 3.725
71.12000 0.121
71.14000 -1.892
71.16000 3.147
71.18000 3.524
71.20000 4.599
71.22000 1.289
71.24000 1.648
71.26000 2.817
71.28000 2.225
71.30000 0.612
71.32000 1.398
71.34000 3.531
71.36000 2.056
71.38000 0.243
71.40000 1.180
71.42000 1.522
71.44000 1.291
71.46000 4.784
71.48000 1.937
71.50000 2.850
71.52000 0.286
71.54000 -0.488
71.56000 0.086
71.58000 1.874
71.60000 1.626
71.62000 -0.269
71.64000 -1.362
71.66000 0.928
71.68000 2.141
71.70000 1.689
71.72000 1.455
71.74000 1.529
71.76000 2.167
71.78000 3.864
71.80000 2.430
71.82000 0.870
71.84000 1.367
71.86000 0.617
71.88000 0.337
71.90000 0.505
71.92000 0.360
71.94000 -0.072
71.96000 1.664
71.98000 1.576
72.00000 0.074
72.02000 1.000
72.04000 2.034
72.06000 -0.378
72.08000 -0.524
72.10000 -0.159
72.12000 -0.115
72.14000 0.545
72.16000 0.517
72.18000 0.526
72.20000 -0.942
72.22000 0.869
72.24000 0.757
72.26000 0.360
72.28000 1.578
72.30000 0.506
72.32000 0.857
72.34000 0.660
72.36000 -1.858
72.38000 0.284
72.40000 4.109
72.42000 0.646
72.44000 1.596
72.46000 4.806
72.48000 3.324
72.50000 1.218
72.52000 0.644
72.54000 0.209
72.56000 1.512
72.58000 0.918
72.60000 1.560
72.62000 1.500
72.64000 0.619
72.66000 0.299
72.68000 -0.373
72.70000 1.399
72.72000 3.007
72.74000 0.319
72.76000 0.769
72.78000 0.045
72.80000 1.125
72.82000 -0.415
72.84000 -1.853
72.86000 0.142
72.88000 -0.230
72.90000 -1.113
72.92000 -0.733
72.94000 0.555
72.96000 -1.739
72.98000 1.817
73.00000 3.285
73.02000 -0.083
73.04000 -1.756
73.06000 -0.185
73.08000 2.517
73.10000 1.304
73.12000 0.422
73.14000 -1.160
73.16000 0.445
73.18000 -0.659
73.20000 1.094
73.22000 2.982
73.24000 1.272
73.26000 1.583
73.28000 2.362
73.30000 1.222
73.32000 -1.840
73.34000 0.712
73.36000 1.250
73.38000 0.181
73.40000 -0.949
73.42000 -1.128
73.44000 1.818
73.46000 2.638
73.48000 1.342
73.50000 -1.727
73.52000 -0.390
73.54000 -0.711
73.56000 0.177
73.58000 1.257
73.60000 0.720
73.62000 0.359
73.64000 1.297
73.66000 -1.118
73.68000 1.221
73.70000 1.176
73.72000 1.875
73.74000 0.377
73.76000 2.892
73.78000 4.777
73.80000 0.719
73.82000 -1.808
73.84000 1.031
73.86000 2.581
73.88000 3.779
73.90000 3.322
73.92000 1.610
73.94000 0.565
73.96000 1.163
73.98000 0.088
74.00000 0.448
74.02000 0.048
74.04000 1.858
74.06000 0.198
74.08000 0.953
74.10000 3.931
74.12000 3.562
74.14000 0.389
74.16000 1.344
74.18000 1.398
74.20000 2.300
74.22000 2.746
74.24000 -0.378
74.26000 -1.492
74.28000 -1.802
74.30000 1.031
74.32000 2.141
74.34000 1.250
74.36000 1.670
74.38000 2.793
74.40000 1.325
74.42000 1.275
74.44000 0.927
74.46000 1.821
74.48000 2.544
74.50000 3.114
74.52000 2.824
74.54000 -0.407
74.56000 3.659
74.58000 6.587
74.60000 6.584
74.62000 2.406
74.64000 0.079
74.66000 0.560
74.68000 0.092
74.70000 -0.735
74.72000 0.700
74.74000 1.890
74.76000 0.458
74.78000 -0.106
74.80000 0.941
74.82000 1.699
74.84000 3.084
74.86000 3.865
74.88000 1.052
74.90000 2.340
74.92000 2.447
74.94000 1.452
74.96000 1.204
74.98000 0.710
75.00000 1.077
75.02000 0.665
75.04000 -0.448
75.06000 1.577
75.08000 -0.587
75.10000 -1.804
75.12000 -0.070
75.14000 4.289
75.16000 5.950
75.18000 3.803
75.20000 2.795
75.22000 3.475
75.24000 -0.134
75.26000 0.718
75.28000 1.468
75.30000 2.510
75.32000 3.279
75.34000 3.180
75.36000 1.005
75.38000 4.128
75.40000 4.312
75.42000 1.368
75.44000 0.704
75.46000 2.537
75.48000 3.487
75.50000 1.717
75.52000 1.609
75.54000 -0.636
75.56000 1.559
75.58000 2.263
75.60000 3.538
75.62000 4.253
75.64000 2.026
75.66000 1.151
75.68000 -0.460
75.70000 0.939
75.72000 -1.765
75.74000 1.614
75.76000 2.181
75.78000 2.777
75.80000 0.957
75.82000 0.681
75.84000 -1.164
75.86000 -1.283
75.88000 -0.739
75.90000 0.899
75.92000 2.428
75.94000 2.794
75.96000 2.252
75.98000 2.769
76.00000 0.797
76.02000 1.652
76.04000 1.201
76.06000 0.600
76.08000 -0.438
76.10000 3.556
76.12000 6.070
76.14000 3.520
76.16000 1.800
76.18000 0.404
76.20000 1.206
76.22000 1.866
76.24000 1.467
76.26000 1.729
76.28000 -1.051
76.30000 1.918
76.32000 2.041
76.34000 0.063
76.36000 -0.982
76.38000 1.838
76.40000 0.290
76.42000 -1.566
76.44000 -0.276
76.46000 1.548
76.48000 1.623
76.50000 0.185
76.52000 1.934
76.54000 0.065
76.56000 -1.839
76.58000 0.213
76.60000 0.637
76.62000 0.842
76.64000 1.872
76.66000 2.535
76.68000 2.629
76.70000 0.424
76.72000 0.951
76.74000 0.335
76.76000 1.647
76.78000 3.192
76.80000 2.151
76.82000 4.554
76.84000 2.173
76.86000 1.494
76.88000 2.050
76.90000 1.115
76.92000 0.576
76.94000 0.190
76.96000 -1.211
76.98000 2.169
77.00000 0.778
77.02000 0.426
77.04000 -1.094
77.06000 -0.799
77.08000 -1.151
77.10000 -1.138
77.12000 -0.248
77.14000 0.181
77.16000 1.785
77.18000 3.158
77.20000 3.694
77.22000 2.448
77.24000 1.229
77.26000 0.705
77.28000 -0.552
77.30000 -1.510
77.32000 -1.839
77.34000 0.771
77.36000 0.749
77.38000 1.748
77.40000 0.476
77.42000 -0.203
77.44000 3.723
77.46000 1.330
77.48000 1.022
77.50000 2.210
77.52000 0.553
77.54000 1.312
77.56000 3.288
77.58000 3.446
77.60000 1.195
77.62000 1.073
77.64000 1.409
77.66000 -0.359
77.68000 0.740
77.70000 -0.931
77.72000 2.567
77.74000 2.436
77.76000 -0.184
77.78000 -1.842
77.80000 0.622
77.82000 -0.325
77.84000 0.774
77.86000 1.692
77.88000 0.056
77.90000 0.767
77.92000 3.507
77.94000 2.606
77.96000 2.367
77.98000 0.082
78.00000 0.049
78.02000 -0.200
78.04000 -0.649
78.06000 1.545
78.08000 0.968
78.10000 2.267
78.12000 1.393
78.14000 -0.805
78.16000 -0.148
78.18000 0.990
78.20000 3.090
78.22000 2.219
78.24000 0.225
78.26000 -0.051
78.28000 0.473
78.30000 2.842
78.32000 1.616
78.34000 0.678
78.36000 0.307
78.38000 0.413
78.40000 2.705
78.42000 0.548
78.44000 1.738
78.46000 0.707
78.48000 -1.441
78.50000 -1.576
78.52000 1.023
78.54000 -0.397
78.56000 0.801
78.58000 2.204
78.60000 2.838
78.62000 0.858
78.64000 2.261
78.66000 -1.853
78.68000 -0.520
78.70000 0.808
78.72000 4.597
78.74000 5.125
78.76000 1.612
78.78000 -1.270
78.80000 0.496
78.82000 1.197
78.84000 -0.261
78.86000 0.782
78.88000 1.424
78.90000 1.592
78.92000 -0.561
78.94000 0.101
78.96000 1.035
78.98000 3.959
79.00000 4.334
79.02000 1.754
79.04000 1.490
79.06000 4.923
79.08000 2.437
79.10000 -0.648
79.12000 -0.027
79.14000 2.764
79.16000 4.577
79.18000 1.578
79.20000 3.260
79.22000 1.642
79.24000 1.354
79.26000 3.364
79.28000 4.706
79.30000 0.998
79.32000 -1.859
79.34000 1.257
79.36000 1.973
79.38000 2.413
79.40000 -1.214
79.42000 1.608
79.44000 1.372
79.46000 1.480
79.48000 -0.809
79.50000 -1.857
79.52000 0.298
79.54000 1.490
79.56000 0.174
79.58000 1.353
79.60000 -0.122
79.62000 2.938
79.64000 4.022
79.66000 1.294
79.68000 0.186
79.70000 1.403
79.72000 1.874
79.74000 1.416
79.76000 -0.446
79.78000 1.200
79.80000 0.051
79.82000 1.656
79.84000 4.636
79.86000 -0.133
79.88000 2.724
79.90000 0.723
79.92000 2.315
79.94000 0.124
79.96000 1.147
79.98000 1.795
80.00000 -0.170
80.02000 -0.261
80.04000 0.995
80.06000 1.173
80.08000 1.124
80.10000 0.586
80.12000 0.114
80.14000 3.295
80.16000 4.002
80.18000 1.216
80.20000 2.000
80.22000 4.102
80.24000 3.255
80.26000 2.616
80.28000 2.552
80.30000 1.657
80.32000 1.129
80.34000 1.219
80.36000 0.611
80.38000 -0.326
80.40000 0.644
80.42000 2.240
80.44000 2.919
80.46000 4.532
80.48000 2.767
80.50000 1.251
80.52000 1.265
80.54000 2.441
80.56000 1.253
80.58000 2.558
80.60000 1.677
80.62000 1.247
80.64000 2.699
80.66000 3.255
80.68000 1.376
80.70000 2.053
80.72000 1.662
80.74000 3.688
80.76000 4.143
80.78000 3.790
80.80000 1.067
80.82000 0.054
80.84000 -1.888
80.86000 0.721
80.88000 2.225
80.90000 2.622
80.92000 0.891
80.94000 0.508
80.96000 1.615
80.98000 2.704
81.00000 2.998
81.02000 3.380
81.04000 2.509
81.06000 3.524
81.08000 2.975
81.10000 0.602
81.12000 -0.278
81.14000 0.886
81.16000 2.193
81.18000 5.021
81.20000 3.096
81.22000 0.119
81.24000 3.557
81.26000 4.711
81.28000 6.009
81.30000 0.162
81.32000 0.942
81.34000 5.636
81.36000 5.112
81.38000 1.794
81.40000 0.244
81.42000 -1.956
81.44000 0.843
81.46000 0.748
81.48000 1.434
81.50000 3.461
81.52000 3.843
81.54000 3.322
81.56000 5.197
81.58000 6.167
81.60000 3.070
81.62000 2.106
81.64000 0.044
81.66000 -0.104
81.68000 2.357
81.70000 3.838
81.72000 0.626
81.74000 2.405
81.76000 3.164
81.78000 2.427
81.80000 1.437
81.82000 3.210
81.84000 2.155
81.86000 1.714
81.88000 3.149
81.90000 3.328
81.92000 1.619
81.94000 2.260
81.96000 2.906
81.98000 4.510
82.00000 5.153
82.02000 3.685
82.04000 3.954
82.06000 4.898
82.08000 4.861
82.10000 2.387
82.12000 4.556
82.14000 6.986
82.16000 5.770
82.18000 5.847
82.20000 7.466
82.22000 5.502
82.24000 8.253
82.26000 7.915
82.28000 9.403
82.30000 8.890
82.32000 9.014
82.34000 9.319
82.36000 8.917
82.38000 9.352
82.40000 8.073
82.42000 11.533
82.44000 16.185
82.46000 14.578
82.48000 12.405
82.50000 13.186
82.52000 13.149
82.54000 15.978
82.56000 22.324
82.58000 22.785
82.60000 23.966
82.62000 23.755
82.64000 26.940
82.66000 28.153
82.68000 30.729
82.70000 27.223
82.72000 28.023
82.74000 31.261
82.76000 34.176
82.78000 36.604
82.80000 31.088
82.82000 32.573
82.84000 36.138
82.86000 39.151
82.88000 40.317
82.90000 39.759
82.92000 40.753
82.94000 42.242
82.96000 42.006
82.98000 40.703
83.00000 44.478
83.02000 44.473
83.04000 50.096
83.06000 46.507
83.08000 47.388
83.10000 47.852
83.12000 48.344
83.14000 47.267
83.16000 45.192
83.18000 41.687
83.20000 43.210
83.22000 44.666
83.24000 43.130
83.26000 44.009
83.28000 49.060
83.30000 48.858
83.32000 44.585
83.34000 44.224
83.36000 43.917
83.38000 40.862
83.40000 41.176
83.42000 40.106
83.44000 40.452
83.46000 35.403
83.48000 31.371
83.50000 36.993
83.52000 39.732
83.54000 37.714
83.56000 34.779
83.58000 30.750
83.60000 29.857
83.62000 31.491
83.64000 31.796
83.66000 25.745
83.68000 19.513
83.70000 22.939
83.72000 25.484
83.74000 26.465
83.76000 24.837
83.78000 19.458
83.80000 19.855
83.82000 20.171
83.84000 21.966
83.86000 21.015
83.88000 18.491
83.90000 13.353
83.92000 13.284
83.94000 13.169
83.96000 13.845
83.98000 12.053
84.00000 11.795
84.02000 9.763
84.04000 9.827
84.06000 8.385
84.08000 7.464
84.10000 9.718
84.12000 9.817
84.14000 7.471
84.16000 8.246
84.18000 6.129
84.20000 3.643
84.22000 6.115
84.24000 9.854
84.26000 8.963
84.28000 4.288
84.30000 5.650
84.32000 5.566
84.34000 5.208
84.36000 3.593
84.38000 6.253
84.40000 3.564
84.42000 2.481
84.44000 4.047
84.46000 4.435
84.48000 0.273
84.50000 2.550
84.52000 4.198
84.54000 3.931
84.56000 3.682
84.58000 1.078
84.60000 -0.423
84.62000 -1.467
84.64000 -1.104
84.66000 -0.873
84.68000 2.335
84.70000 0.580
84.72000 -0.513
84.74000 -1.733
84.76000 1.048
84.78000 -0.446
84.80000 2.770
84.82000 0.652
84.84000 1.096
84.86000 1.448
84.88000 1.333
84.90000 2.710
84.92000 5.183
84.94000 5.520
84.96000 4.640
84.98000 0.907
85.00000 0.325
85.02000 2.847
85.04000 1.334
85.06000 -0.758
85.08000 -1.881
85.10000 -0.571
85.12000 1.086
85.14000 -1.976
85.16000 -0.101
85.18000 1.687
85.20000 1.063
85.22000 -1.557
85.24000 2.336
85.26000 2.307
85.28000 -0.363
85.30000 1.090
85.32000 -0.663
85.34000 1.596
85.36000 1.996
85.38000 1.255
85.40000 0.897
85.42000 1.656
85.44000 3.051
85.46000 -1.282
85.48000 -0.289
85.50000 1.979
85.52000 2.800
85.54000 1.476
85.56000 2.284
85.58000 5.472
85.60000 1.376
85.62000 2.471
85.64000 -0.030
85.66000 -1.114
85.68000 0.726
85.70000 1.028
85.72000 -1.913
85.74000 -0.190
85.76000 0.538
85.78000 2.472
85.80000 3.146
85.82000 0.335
85.84000 -0.710
85.86000 0.974
85.88000 3.017
85.90000 2.753
85.92000 1.719
85.94000 2.567
85.96000 -1.887
85.98000 1.042
86.00000 3.657
86.02000 2.763
86.04000 0.989
86.06000 0.016
86.08000 1.648
86.10000 2.403
86.12000 1.904
86.14000 3.670
86.16000 3.047
86.18000 3.049
86.20000 4.319
86.22000 0.120
86.24000 1.111
86.26000 2.636
86.28000 1.707
86.30000 3.333
86.32000 2.469
86.34000 3.444
86.36000 1.744
86.38000 1.510
86.40000 1.069
86.42000 1.866
86.44000 1.592
86.46000 1.815
86.48000 2.910
86.50000 4.508
86.52000 3.564
86.54000 3.436
86.56000 1.111
86.58000 0.644
86.60000 1.799
86.62000 2.955
86.64000 0.901
86.66000 4.579
86.68000 5.493
86.70000 2.968
86.72000 6.653
86.74000 7.350
86.76000 5.942
86.78000 5.479
86.80000 5.863
86.82000 4.465
86.84000 4.083
86.86000 7.206
86.88000 7.470
86.90000 7.882
86.92000 10.660
86.94000 8.104
86.96000 6.710
86.98000 4.839
87.00000 7.912
87.02000 12.276
87.04000 9.657
87.06000 11.356
87.08000 14.794
87.10000 13.978
87.12000 15.973
87.14000 15.946
87.16000 16.575
87.18000 16.425
87.20000 17.548
87.22000 15.721
87.24000 16.896
87.26000 16.418
87.28000 18.897
87.30000 22.286
87.32000 20.854
87.34000 18.540
87.36000 21.025
87.38000 26.134
87.40000 28.016
87.42000 26.476
87.44000 24.885
87.46000 29.471
87.48000 24.961
87.50000 26.693
87.52000 29.236
87.54000 31.338
87.56000 26.141
87.58000 27.597
87.60000 25.615
87.62000 23.325
87.64000 24.849
87.66000 24.898
87.68000 24.746
87.70000 27.330
87.72000 25.363
87.74000 29.227
87.76000 28.359
87.78000 24.052
87.80000 22.265
87.82000 21.451
87.84000 26.538
87.86000 26.009
87.88000 23.937
87.90000 21.692
87.92000 20.369
87.94000 21.292
87.96000 18.442
87.98000 22.349
88.00000 20.027
88.02000 17.837
88.04000 17.473
88.06000 14.130
88.08000 17.352
88.10000 14.483
88.12000 15.095
88.14000 15.631
88.16000 11.943
88.18000 12.491
88.20000 14.427
88.22000 10.870
88.24000 9.955
88.26000 7.974
88.28000 9.098
88.30000 9.685
88.32000 6.772
88.34000 6.055
88.36000 9.678
88.38000 9.576
88.40000 6.747
88.42000 7.131
88.44000 5.274
88.46000 4.056
88.48000 4.279
88.50000 4.363
88.52000 5.693
88.54000 6.819
88.56000 5.224
88.58000 7.629
88.60000 4.859
88.62000 3.834
88.64000 5.018
88.66000 5.546
88.68000 4.087
88.70000 3.328
88.72000 3.101
88.74000 2.903
88.76000 0.397
88.78000 -0.325
88.80000 1.559
88.82000 0.901
88.84000 1.989
88.86000 1.083
88.88000 2.636
88.90000 -0.405
88.92000 3.173
88.94000 2.939
88.96000 1.765
88.98000 1.221
89.00000 0.904
89.02000 0.643
89.04000 4.749
89.06000 4.227
89.08000 1.185
89.10000 2.059
89.12000 0.130
89.14000 -1.781
89.16000 -1.859
89.18000 0.429
89.20000 3.113
89.22000 2.000
89.24000 0.220
89.26000 1.779
89.28000 1.375
89.30000 0.971
89.32000 -1.441
89.34000 -1.490
89.36000 3.678
89.38000 1.740
89.40000 1.523
89.42000 -1.803
89.44000 -1.411
89.46000 1.041
89.48000 -0.120
89.50000 0.378
89.52000 2.570
89.54000 1.371
89.56000 1.550
89.58000 0.312
89.60000 -0.038
89.62000 1.312
89.64000 4.273
89.66000 3.406
89.68000 0.975
89.70000 0.949
89.72000 3.552
89.74000 4.199
89.76000 0.358
89.78000 -0.360
89.80000 1.125
89.82000 3.284
89.84000 3.907
89.86000 0.533
89.88000 2.221
89.90000 2.290
89.92000 -0.404
89.94000 -1.160
89.96000 0.828
89.98000 2.076
90.00000 2.857
90.02000 3.723
90.04000 2.834
90.06000 2.071
90.08000 3.065
90.10000 1.220
90.12000 1.526
90.14000 -0.378
90.16000 0.030
90.18000 0.982
90.20000 2.650
90.22000 3.205
90.24000 1.017
90.26000 0.625
90.28000 -0.449
90.30000 0.084
90.32000 -1.733
90.34000 0.539
90.36000 2.941
90.38000 2.140
90.40000 4.695
90.42000 3.967
90.44000 4.663
90.46000 3.489
90.48000 -0.928
90.50000 2.432
90.52000 2.590
90.54000 3.984
90.56000 2.133
90.58000 0.828
90.60000 1.390
90.62000 0.911
90.64000 0.954
90.66000 1.039
90.68000 -0.311
90.70000 1.707
90.72000 -0.779
90.74000 2.239
90.76000 3.168
90.78000 1.612
90.80000 2.124
90.82000 2.161
90.84000 -0.341
90.86000 1.336
90.88000 1.951
90.90000 2.618
90.92000 1.143
90.94000 1.376
90.96000 -0.301
90.98000 2.264
91.00000 3.102
91.02000 1.924
91.04000 0.622
91.06000 0.126
91.08000 -0.338
91.10000 -0.357
91.12000 1.336
91.14000 4.187
91.16000 4.245
91.18000 4.058
91.20000 5.436
91.22000 4.221
91.24000 1.490
91.26000 2.510
91.28000 3.233
91.30000 2.749
91.32000 5.382
91.34000 3.213
91.36000 2.372
91.38000 3.138
91.40000 3.503
91.42000 1.595
91.44000 -1.698
91.46000 2.197
91.48000 3.561
91.50000 1.336
91.52000 0.408
91.54000 1.912
91.56000 2.204
91.58000 4.301
91.60000 -0.699
91.62000 0.332
91.64000 2.807
91.66000 2.530
91.68000 4.438
91.70000 4.113
91.72000 3.986
91.74000 2.022
91.76000 1.369
91.78000 1.161
91.80000 -0.776
91.82000 1.042
91.84000 4.958
91.86000 2.258
91.88000 0.023
91.90000 0.980
91.92000 2.057
91.94000 0.233
91.96000 1.249
91.98000 0.655
92.00000 1.818
92.02000 4.724
92.04000 2.407
92.06000 1.231
92.08000 4.430
92.10000 3.353
92.12000 2.135
92.14000 -0.301
92.16000 1.121
92.18000 2.026
92.20000 3.974
92.22000 3.211
92.24000 2.175
92.26000 1.499
92.28000 0.538
92.30000 0.522
92.32000 0.326
92.34000 -0.099
92.36000 -0.247
92.38000 1.103
92.40000 5.506
92.42000 2.324
92.44000 2.000
92.46000 3.697
92.48000 2.845
92.50000 1.640
92.52000 0.787
92.54000 0.175
92.56000 1.327
92.58000 1.778
92.60000 3.101
92.62000 1.689
92.64000 -0.427
92.66000 1.268
92.68000 3.230
92.70000 2.682
92.72000 4.438
92.74000 4.620
92.76000 3.602
92.78000 2.327
92.80000 4.389
92.82000 0.967
92.84000 -0.016
92.86000 1.211
92.88000 1.008
92.90000 0.350
92.92000 -0.676
92.94000 -1.728
92.96000 0.961
92.98000 -0.417
93.00000 1.134
93.02000 0.551
93.04000 4.405
93.06000 0.386
93.08000 0.641
93.10000 2.362
93.12000 6.270
93.14000 5.406
93.16000 2.907
93.18000 2.141
93.20000 1.249
93.22000 3.275
93.24000 5.412
93.26000 2.431
93.28000 2.033
93.30000 1.649
93.32000 -0.708
93.34000 1.149
93.36000 2.985
93.38000 5.044
93.40000 3.263
93.42000 4.953
93.44000 1.391
93.46000 1.228
93.48000 2.639
93.50000 0.926
93.52000 2.124
93.54000 3.254
93.56000 2.372
93.58000 1.651
93.60000 3.379
93.62000 1.123
93.64000 2.389
93.66000 2.722
93.68000 0.220
93.70000 0.457
93.72000 2.283
93.74000 3.484
93.76000 1.931
93.78000 2.850
93.80000 1.897
93.82000 -0.169
93.84000 -1.720
93.86000 1.010
93.88000 2.268
93.90000 2.344
93.92000 3.384
93.94000 1.319
93.96000 1.167
93.98000 3.463
94.00000 1.772
94.02000 1.454
94.04000 1.569
94.06000 0.578
94.08000 0.440
94.10000 4.033
94.12000 3.652
94.14000 2.068
94.16000 2.273
94.18000 -0.071
94.20000 3.012
94.22000 2.138
94.24000 2.776
94.26000 5.294
94.28000 4.885
94.30000 4.203
94.32000 3.335
94.34000 6.633
94.36000 2.241
94.38000 0.036
94.40000 -0.559
94.42000 -0.930
94.44000 1.512
94.46000 0.988
94.48000 3.374
94.50000 3.630
94.52000 3.495
94.54000 1.982
94.56000 1.063
94.58000 1.135
94.60000 1.652
94.62000 0.092
94.64000 1.928
94.66000 0.950
94.68000 2.751
94.70000 1.757
94.72000 -1.750
94.74000 -1.747
94.76000 0.614
94.78000 1.589
94.80000 1.541
94.82000 -0.237
94.84000 2.520
94.86000 1.286
94.88000 2.231
94.90000 1.806
94.92000 4.197
94.94000 3.101
94.96000 0.892
94.98000 1.582
95.00000 2.511
95.02000 1.855
95.04000 1.855
95.06000 0.302
95.08000 1.324
95.10000 3.026
95.12000 2.109
95.14000 0.101
95.16000 2.101
95.18000 1.957
95.20000 3.034
95.22000 1.423
95.24000 2.657
95.26000 -1.306
95.28000 -0.869
95.30000 1.844
95.32000 1.494
95.34000 0.426
95.36000 2.466
95.38000 4.945
95.40000 2.723
95.42000 2.006
95.44000 -1.762
95.46000 -0.272
95.48000 2.540
95.50000 4.111
95.52000 2.675
95.54000 1.937
95.56000 2.734
95.58000 -1.106
95.60000 1.088
95.62000 -0.545
95.64000 1.495
95.66000 1.241
95.68000 0.055
95.70000 0.508
95.72000 0.660
95.74000 3.233
95.76000 1.590
95.78000 -0.805
95.80000 -1.753
95.82000 2.232
95.84000 3.340
95.86000 2.429
95.88000 5.451
95.90000 3.389
95.92000 4.265
95.94000 1.332
95.96000 1.245
95.98000 0.483
96.00000 0.312
96.02000 5.646
96.04000 3.433
96.06000 2.602
96.08000 1.293
96.10000 0.862
96.12000 -0.879
96.14000 0.417
96.16000 3.020
96.18000 5.342
96.20000 3.960
96.22000 2.030
96.24000 2.354
96.26000 0.979
96.28000 1.051
96.30000 2.158
96.32000 2.387
96.34000 1.055
96.36000 0.196
96.38000 0.423
96.40000 0.027
96.42000 -0.215
96.44000 -1.291
96.46000 -0.834
96.48000 0.517
96.50000 2.261
96.52000 2.696
96.54000 1.617
96.56000 3.406
96.58000 3.366
96.60000 -0.909
96.62000 -1.774
96.64000 2.108
96.66000 -0.503
96.68000 3.528
96.70000 5.430
96.72000 3.803
96.74000 3.172
96.76000 1.597
96.78000 1.856
96.80000 1.528
96.82000 -0.131
96.84000 0.879
96.86000 0.534
96.88000 3.801
96.90000 4.063
96.92000 1.552
96.94000 -0.792
96.96000 -1.013
96.98000 1.296
97.00000 1.893
97.02000 2.401
97.04000 2.058
97.06000 4.769
97.08000 6.762
97.10000 3.437
97.12000 -0.029
97.14000 -1.674
97.16000 0.147
97.18000 0.179
97.20000 2.549
97.22000 3.382
97.24000 3.220
97.26000 0.896
97.28000 2.291
97.30000 0.942
97.32000 -1.734
97.34000 0.099
97.36000 0.202
97.38000 0.028
97.40000 0.291
97.42000 1.682
97.44000 3.596
97.46000 2.637
97.48000 -1.182
97.50000 0.511
97.52000 3.340
97.54000 2.874
97.56000 2.610
97.58000 3.130
97.60000 1.499
97.62000 3.066
97.64000 1.455
97.66000 1.029
97.68000 4.251
97.70000 -1.154
97.72000 -1.187
97.74000 1.481
97.76000 3.108
97.78000 3.053
97.80000 -0.541
97.82000 2.215
97.84000 1.108
97.86000 -0.101
97.88000 5.758
97.90000 6.745
97.92000 2.555
97.94000 -0.183
97.96000 -1.118
97.98000 5.918
98.00000 6.505
98.02000 6.034
98.04000 6.295
98.06000 1.908
98.08000 3.645
98.10000 4.885
98.12000 2.008
98.14000 -0.442
98.16000 2.773
98.18000 3.946
98.20000 6.794
98.22000 9.795
98.24000 7.018
98.26000 4.156
98.28000 4.827
98.30000 6.080
98.32000 6.398
98.34000 8.362
98.36000 0.960
98.38000 -1.664
98.40000 2.370
98.42000 2.043
98.44000 2.744
98.46000 1.880
98.48000 2.793
98.50000 1.957
98.52000 3.417
98.54000 -0.439
98.56000 2.672
98.58000 2.186
98.60000 1.716
98.62000 3.143
98.64000 2.534
98.66000 3.020
98.68000 11.251
98.70000 9.522
98.72000 3.705
98.74000 3.033
98.76000 1.099
98.78000 3.474
98.80000 4.985
98.82000 4.807
98.84000 2.719
98.86000 3.456
98.88000 3.498
98.90000 3.717
98.92000 7.797
98.94000 4.934
98.96000 4.325
98.98000 7.363
99.00000 3.374
99.02000 4.897
99.04000 2.575
99.06000 5.560
99.08000 4.056
99.10000 1.423
99.12000 3.163
99.14000 9.926
99.16000 7.876
99.18000 5.200
99.20000 7.748
99.22000 7.887
99.24000 6.314
99.26000 -1.294
99.28000 -0.419
99.30000 1.308
99.32000 2.176
99.34000 2.679
99.36000 3.733
99.38000 2.823
99.40000 9.161
99.42000 4.346
99.44000 -0.472
99.46000 2.495
99.48000 -1.064
99.50000 2.217
99.52000 3.358
99.54000 2.813
99.56000 3.603
99.58000 3.202
99.60000 0.896
99.62000 6.026
99.64000 5.288
99.66000 5.547
99.68000 4.652
99.70000 7.126
99.72000 3.982
99.74000 8.456
99.76000 11.067
99.78000 4.533
99.80000 3.628
99.82000 4.618
99.84000 2.173
99.86000 -1.699
99.88000 -0.294
99.90000 1.304
99.92000 -1.825
99.94000 0.676
99.96000 4.906
99.98000 0.000
