'Id: "0011389" Comment: "Integrate frame 0011389_Au-Ir-Rh_Au-Rich_XRD_Mapping-242-0000.gfrmwith cursor Wedge Cursor #5" Operator: "B?rgel" Anode: "Cu" Wavelength: "1.5406" Scantype: "2Theta (TwoTheta)" TimePerStep: "1" X: "-36" Y: "18" Z: "5.95" 
10.00000 0.000
10.02000 -4.898
10.04000 -4.786
10.06000 4.253
10.08000 13.432
10.10000 0.201
10.12000 4.248
10.14000 11.500
10.16000 10.494
10.18000 -4.634
10.20000 -0.755
10.22000 10.291
10.24000 12.880
10.26000 11.556
10.28000 7.949
10.30000 10.229
10.32000 11.416
10.34000 18.392
10.36000 32.959
10.38000 26.791
10.40000 12.927
10.42000 -7.825
10.44000 7.652
10.46000 22.195
10.48000 26.218
10.50000 13.665
10.52000 12.321
10.54000 10.605
10.56000 1.388
10.58000 18.832
10.60000 25.010
10.62000 16.995
10.64000 15.387
10.66000 16.104
10.68000 23.269
10.70000 32.050
10.72000 22.304
10.74000 30.322
10.76000 25.704
10.78000 9.528
10.80000 12.683
10.82000 16.817
10.84000 17.675
10.86000 16.950
10.88000 14.919
10.90000 20.217
10.92000 16.108
10.94000 16.545
10.96000 10.454
10.98000 10.251
11.00000 13.802
11.02000 29.019
11.04000 17.460
11.06000 24.733
11.08000 25.329
11.10000 17.157
11.12000 16.272
11.14000 16.179
11.16000 20.912
11.18000 13.263
11.20000 5.272
11.22000 7.780
11.24000 8.416
11.26000 31.846
11.28000 18.467
11.30000 19.924
11.32000 25.655
11.34000 17.633
11.36000 20.570
11.38000 17.096
11.40000 7.276
11.42000 8.370
11.44000 14.817
11.46000 12.126
11.48000 16.221
11.50000 11.784
11.52000 16.903
11.54000 12.088
11.56000 11.080
11.58000 8.493
11.60000 1.283
11.62000 6.936
11.64000 14.311
11.66000 9.838
11.68000 11.335
11.70000 10.800
11.72000 8.444
11.74000 13.689
11.76000 13.693
11.78000 9.927
11.80000 12.129
11.82000 20.881
11.84000 15.115
11.86000 10.798
11.88000 3.382
11.90000 3.866
11.92000 7.877
11.94000 11.889
11.96000 10.575
11.98000 8.774
12.00000 11.047
12.02000 16.881
12.04000 13.183
12.06000 17.304
12.08000 12.741
12.10000 19.078
12.12000 14.171
12.14000 4.404
12.16000 11.222
12.18000 2.149
12.20000 1.377
12.22000 13.232
12.24000 25.627
12.26000 11.595
12.28000 6.312
12.30000 11.738
12.32000 9.149
12.34000 7.703
12.36000 5.704
12.38000 9.429
12.40000 19.768
12.42000 2.767
12.44000 0.292
12.46000 15.595
12.48000 20.354
12.50000 8.936
12.52000 0.808
12.54000 9.531
12.56000 12.723
12.58000 11.234
12.60000 1.067
12.62000 4.753
12.64000 9.897
12.66000 0.645
12.68000 4.011
12.70000 6.734
12.72000 -2.357
12.74000 4.958
12.76000 9.316
12.78000 10.927
12.80000 5.335
12.82000 6.036
12.84000 9.507
12.86000 4.486
12.88000 4.837
12.90000 -2.240
12.92000 2.710
12.94000 8.027
12.96000 6.939
12.98000 10.524
13.00000 10.744
13.02000 9.757
13.04000 19.088
13.06000 18.696
13.08000 16.498
13.10000 18.802
13.12000 13.713
13.14000 1.211
13.16000 10.682
13.18000 23.064
13.20000 16.655
13.22000 6.173
13.24000 8.127
13.26000 12.969
13.28000 17.085
13.30000 2.412
13.32000 5.830
13.34000 1.987
13.36000 4.448
13.38000 2.240
13.40000 11.993
13.42000 5.009
13.44000 8.496
13.46000 -0.465
13.48000 2.859
13.50000 12.391
13.52000 11.587
13.54000 6.195
13.56000 8.452
13.58000 5.285
13.60000 15.314
13.62000 15.450
13.64000 -0.845
13.66000 -2.332
13.68000 6.171
13.70000 13.398
13.72000 16.144
13.74000 13.032
13.76000 7.717
13.78000 12.510
13.80000 17.279
13.82000 12.834
13.84000 4.282
13.86000 1.208
13.88000 5.491
13.90000 3.145
13.92000 1.440
13.94000 8.661
13.96000 11.868
13.98000 7.056
14.00000 10.149
14.02000 6.734
14.04000 4.462
14.06000 18.427
14.08000 13.544
14.10000 19.543
14.12000 18.276
14.14000 16.442
14.16000 15.617
14.18000 13.455
14.20000 13.245
14.22000 5.708
14.24000 1.868
14.26000 14.517
14.28000 15.086
14.30000 6.443
14.32000 10.862
14.34000 7.572
14.36000 2.642
14.38000 -4.518
14.40000 5.212
14.42000 8.830
14.44000 5.067
14.46000 4.208
14.48000 7.417
14.50000 20.585
14.52000 15.853
14.54000 15.032
14.56000 15.733
14.58000 10.422
14.60000 3.309
14.62000 7.282
14.64000 7.693
14.66000 5.767
14.68000 16.019
14.70000 8.434
14.72000 8.599
14.74000 6.545
14.76000 2.699
14.78000 8.126
14.80000 18.000
14.82000 18.999
14.84000 11.506
14.86000 8.627
14.88000 7.991
14.90000 7.216
14.92000 11.346
14.94000 9.595
14.96000 12.184
14.98000 11.641
15.00000 10.056
15.02000 5.489
15.04000 6.320
15.06000 14.770
15.08000 12.059
15.10000 7.293
15.12000 5.980
15.14000 7.579
15.16000 9.002
15.18000 7.018
15.20000 8.542
15.22000 16.792
15.24000 12.779
15.26000 18.169
15.28000 8.979
15.30000 10.826
15.32000 0.253
15.34000 6.609
15.36000 29.702
15.38000 17.873
15.40000 5.379
15.42000 -0.128
15.44000 6.373
15.46000 3.035
15.48000 5.334
15.50000 5.614
15.52000 12.140
15.54000 22.829
15.56000 18.800
15.58000 21.546
15.60000 11.017
15.62000 14.036
15.64000 15.762
15.66000 15.667
15.68000 11.746
15.70000 9.764
15.72000 11.858
15.74000 12.469
15.76000 4.469
15.78000 4.513
15.80000 2.865
15.82000 2.827
15.84000 7.953
15.86000 13.140
15.88000 13.006
15.90000 11.341
15.92000 11.930
15.94000 5.214
15.96000 3.393
15.98000 1.341
16.00000 8.076
16.02000 17.552
16.04000 9.037
16.06000 9.377
16.08000 10.196
16.10000 15.956
16.12000 16.140
16.14000 10.077
16.16000 6.070
16.18000 9.462
16.20000 14.219
16.22000 5.331
16.24000 7.841
16.26000 11.009
16.28000 13.991
16.30000 12.916
16.32000 3.901
16.34000 -4.418
16.36000 8.606
16.38000 0.394
16.40000 2.466
16.42000 9.835
16.44000 10.795
16.46000 19.909
16.48000 6.217
16.50000 6.272
16.52000 11.017
16.54000 9.574
16.56000 8.572
16.58000 11.325
16.60000 9.182
16.62000 8.200
16.64000 8.272
16.66000 4.231
16.68000 1.326
16.70000 7.347
16.72000 1.515
16.74000 3.180
16.76000 10.741
16.78000 6.869
16.80000 9.655
16.82000 6.021
16.84000 6.733
16.86000 12.948
16.88000 14.669
16.90000 4.970
16.92000 8.953
16.94000 12.957
16.96000 13.389
16.98000 12.919
17.00000 3.691
17.02000 1.124
17.04000 9.709
17.06000 10.522
17.08000 3.961
17.10000 -4.394
17.12000 4.698
17.14000 8.909
17.16000 6.657
17.18000 3.341
17.20000 6.493
17.22000 13.452
17.24000 9.237
17.26000 0.402
17.28000 -2.040
17.30000 3.264
17.32000 8.984
17.34000 18.294
17.36000 9.816
17.38000 11.331
17.40000 7.937
17.42000 5.060
17.44000 3.128
17.46000 4.416
17.48000 9.043
17.50000 3.979
17.52000 4.772
17.54000 8.114
17.56000 9.267
17.58000 15.339
17.60000 11.227
17.62000 4.009
17.64000 6.834
17.66000 10.848
17.68000 7.982
17.70000 10.547
17.72000 16.354
17.74000 4.625
17.76000 9.567
17.78000 9.837
17.80000 6.136
17.82000 3.934
17.84000 6.082
17.86000 5.983
17.88000 4.324
17.90000 5.056
17.92000 12.857
17.94000 9.707
17.96000 -1.362
17.98000 1.922
18.00000 3.782
18.02000 5.328
18.04000 6.737
18.06000 8.048
18.08000 4.091
18.10000 10.062
18.12000 11.178
18.14000 11.093
18.16000 14.250
18.18000 8.889
18.20000 -1.728
18.22000 2.693
18.24000 4.365
18.26000 3.413
18.28000 7.515
18.30000 6.182
18.32000 10.579
18.34000 1.134
18.36000 1.147
18.38000 3.740
18.40000 5.923
18.42000 14.187
18.44000 7.414
18.46000 4.004
18.48000 0.266
18.50000 -4.339
18.52000 5.864
18.54000 6.606
18.56000 3.492
18.58000 1.769
18.60000 5.131
18.62000 5.691
18.64000 4.721
18.66000 -2.331
18.68000 -2.528
18.70000 6.950
18.72000 6.870
18.74000 1.981
18.76000 0.285
18.78000 7.620
18.80000 4.205
18.82000 4.223
18.84000 11.080
18.86000 5.620
18.88000 -0.111
18.90000 1.903
18.92000 1.295
18.94000 7.298
18.96000 6.480
18.98000 3.493
19.00000 2.788
19.02000 4.740
19.04000 4.841
19.06000 7.160
19.08000 2.023
19.10000 -4.307
19.12000 -0.455
19.14000 12.704
19.16000 13.069
19.18000 5.804
19.20000 2.035
19.22000 7.191
19.24000 1.981
19.26000 0.730
19.28000 -0.049
19.30000 2.630
19.32000 2.811
19.34000 6.381
19.36000 8.781
19.38000 10.417
19.40000 6.540
19.42000 2.812
19.44000 4.466
19.46000 8.549
19.48000 6.075
19.50000 10.936
19.52000 5.935
19.54000 2.344
19.56000 5.993
19.58000 4.283
19.60000 8.196
19.62000 -0.022
19.64000 -1.443
19.66000 1.571
19.68000 -1.235
19.70000 4.713
19.72000 14.721
19.74000 10.737
19.76000 5.795
19.78000 -0.437
19.80000 2.385
19.82000 2.246
19.84000 -2.202
19.86000 -2.976
19.88000 -4.255
19.90000 2.102
19.92000 4.740
19.94000 2.587
19.96000 5.264
19.98000 5.163
20.00000 6.669
20.02000 7.239
20.04000 5.298
20.06000 1.434
20.08000 4.620
20.10000 9.678
20.12000 9.742
20.14000 -1.721
20.16000 0.221
20.18000 0.610
20.20000 -4.236
20.22000 1.118
20.24000 -1.627
20.26000 4.618
20.28000 1.961
20.30000 1.806
20.32000 8.007
20.34000 5.726
20.36000 -0.736
20.38000 1.848
20.40000 5.276
20.42000 1.125
20.44000 2.530
20.46000 -1.600
20.48000 -2.128
20.50000 2.591
20.52000 1.933
20.54000 1.632
20.56000 0.176
20.58000 0.509
20.60000 4.835
20.62000 4.785
20.64000 7.807
20.66000 7.207
20.68000 5.800
20.70000 4.317
20.72000 4.493
20.74000 7.053
20.76000 5.943
20.78000 7.902
20.80000 4.632
20.82000 0.409
20.84000 0.802
20.86000 8.104
20.88000 5.759
20.90000 1.099
20.92000 9.656
20.94000 3.164
20.96000 2.237
20.98000 4.916
21.00000 9.638
21.02000 4.807
21.04000 4.970
21.06000 4.326
21.08000 2.080
21.10000 2.835
21.12000 2.354
21.14000 0.671
21.16000 3.826
21.18000 4.937
21.20000 0.703
21.22000 4.746
21.24000 4.567
21.26000 2.099
21.28000 3.791
21.30000 8.150
21.32000 6.625
21.34000 0.099
21.36000 7.168
21.38000 9.964
21.40000 10.846
21.42000 5.002
21.44000 2.467
21.46000 2.494
21.48000 4.151
21.50000 5.787
21.52000 9.614
21.54000 11.791
21.56000 14.271
21.58000 12.181
21.60000 8.066
21.62000 7.780
21.64000 10.783
21.66000 16.895
21.68000 16.825
21.70000 6.210
21.72000 3.598
21.74000 6.865
21.76000 8.751
21.78000 7.339
21.80000 4.903
21.82000 8.214
21.84000 7.123
21.86000 3.227
21.88000 -2.131
21.90000 -0.488
21.92000 2.899
21.94000 7.754
21.96000 10.084
21.98000 10.748
22.00000 5.484
22.02000 5.320
22.04000 7.825
22.06000 12.954
22.08000 13.629
22.10000 8.530
22.12000 12.581
22.14000 12.981
22.16000 16.021
22.18000 11.670
22.20000 7.453
22.22000 -4.065
22.24000 3.057
22.26000 8.689
22.28000 4.609
22.30000 0.027
22.32000 3.406
22.34000 3.282
22.36000 2.640
22.38000 8.573
22.40000 19.382
22.42000 15.766
22.44000 0.436
22.46000 9.608
22.48000 13.188
22.50000 9.773
22.52000 3.114
22.54000 6.395
22.56000 7.085
22.58000 3.862
22.60000 5.580
22.62000 12.001
22.64000 11.229
22.66000 7.351
22.68000 9.747
22.70000 1.306
22.72000 2.628
22.74000 0.345
22.76000 6.930
22.78000 8.584
22.80000 10.388
22.82000 9.006
22.84000 4.215
22.86000 8.478
22.88000 7.670
22.90000 10.706
22.92000 7.406
22.94000 7.138
22.96000 4.870
22.98000 9.916
23.00000 7.702
23.02000 11.554
23.04000 4.972
23.06000 6.400
23.08000 9.651
23.10000 7.241
23.12000 10.185
23.14000 8.315
23.16000 2.471
23.18000 5.870
23.20000 8.492
23.22000 1.643
23.24000 3.133
23.26000 9.132
23.28000 10.776
23.30000 9.877
23.32000 10.087
23.34000 13.504
23.36000 6.252
23.38000 0.870
23.40000 -1.965
23.42000 4.121
23.44000 11.914
23.46000 6.338
23.48000 1.565
23.50000 0.910
23.52000 3.939
23.54000 3.555
23.56000 5.773
23.58000 2.284
23.60000 4.741
23.62000 6.162
23.64000 3.646
23.66000 1.916
23.68000 -1.567
23.70000 3.792
23.72000 6.207
23.74000 2.973
23.76000 4.702
23.78000 6.530
23.80000 5.600
23.82000 3.077
23.84000 1.406
23.86000 -2.620
23.88000 -2.704
23.90000 5.165
23.92000 4.590
23.94000 5.380
23.96000 1.504
23.98000 2.531
24.00000 2.351
24.02000 4.155
24.04000 3.776
24.06000 -0.680
24.08000 2.739
24.10000 2.177
24.12000 7.210
24.14000 8.826
24.16000 2.540
24.18000 3.420
24.20000 1.544
24.22000 1.895
24.24000 -0.754
24.26000 -2.133
24.28000 0.697
24.30000 5.132
24.32000 5.416
24.34000 7.680
24.36000 4.124
24.38000 4.906
24.40000 5.856
24.42000 2.222
24.44000 0.547
24.46000 4.420
24.48000 13.360
24.50000 6.949
24.52000 0.924
24.54000 0.890
24.56000 3.838
24.58000 0.706
24.60000 5.790
24.62000 -0.859
24.64000 -3.766
24.66000 1.332
24.68000 2.000
24.70000 -0.089
24.72000 2.499
24.74000 5.142
24.76000 7.073
24.78000 -0.588
24.80000 8.309
24.82000 10.167
24.84000 9.268
24.86000 2.667
24.88000 3.815
24.90000 0.956
24.92000 3.215
24.94000 0.574
24.96000 0.669
24.98000 0.577
25.00000 2.684
25.02000 -0.325
25.04000 -1.832
25.06000 4.062
25.08000 5.481
25.10000 2.800
25.12000 -1.554
25.14000 3.374
25.16000 7.159
25.18000 5.223
25.20000 6.799
25.22000 0.536
25.24000 0.220
25.26000 3.070
25.28000 2.344
25.30000 2.197
25.32000 -3.942
25.34000 3.591
25.36000 10.253
25.38000 3.592
25.40000 2.442
25.42000 4.043
25.44000 3.389
25.46000 0.819
25.48000 3.596
25.50000 -0.992
25.52000 -3.177
25.54000 2.042
25.56000 6.237
25.58000 8.180
25.60000 2.337
25.62000 3.283
25.64000 6.951
25.66000 6.946
25.68000 3.325
25.70000 7.369
25.72000 7.557
25.74000 4.476
25.76000 7.517
25.78000 5.093
25.80000 4.074
25.82000 7.744
25.84000 5.915
25.86000 6.065
25.88000 8.131
25.90000 5.085
25.92000 2.952
25.94000 -1.734
25.96000 -0.263
25.98000 -3.918
26.00000 5.622
26.02000 6.089
26.04000 0.266
26.06000 1.472
26.08000 3.805
26.10000 2.943
26.12000 2.703
26.14000 2.710
26.16000 3.550
26.18000 2.478
26.20000 6.013
26.22000 3.867
26.24000 2.808
26.26000 1.822
26.28000 2.588
26.30000 5.340
26.32000 4.592
26.34000 5.818
26.36000 5.724
26.38000 4.489
26.40000 2.807
26.42000 1.766
26.44000 1.880
26.46000 1.370
26.48000 5.680
26.50000 3.994
26.52000 1.486
26.54000 0.557
26.56000 0.018
26.58000 3.086
26.60000 2.891
26.62000 2.777
26.64000 4.160
26.66000 8.227
26.68000 4.185
26.70000 6.681
26.72000 5.867
26.74000 5.808
26.76000 6.369
26.78000 4.735
26.80000 5.363
26.82000 5.912
26.84000 9.302
26.86000 10.289
26.88000 10.251
26.90000 12.277
26.92000 8.488
26.94000 4.239
26.96000 -0.114
26.98000 3.142
27.00000 4.647
27.02000 4.598
27.04000 6.497
27.06000 8.526
27.08000 7.087
27.10000 3.427
27.12000 2.533
27.14000 6.302
27.16000 6.630
27.18000 -0.247
27.20000 8.213
27.22000 10.838
27.24000 11.579
27.26000 10.957
27.28000 3.171
27.30000 7.398
27.32000 6.608
27.34000 1.677
27.36000 0.530
27.38000 -3.830
27.40000 0.723
27.42000 4.998
27.44000 5.921
27.46000 2.586
27.48000 2.466
27.50000 3.674
27.52000 -0.231
27.54000 5.838
27.56000 3.104
27.58000 1.732
27.60000 5.709
27.62000 7.852
27.64000 10.208
27.66000 1.758
27.68000 -3.388
27.70000 3.780
27.72000 5.282
27.74000 1.428
27.76000 3.696
27.78000 4.799
27.80000 4.817
27.82000 7.782
27.84000 5.333
27.86000 1.080
27.88000 -1.888
27.90000 1.583
27.92000 5.394
27.94000 0.668
27.96000 0.026
27.98000 2.965
28.00000 -0.662
28.02000 -0.513
28.04000 3.607
28.06000 0.124
28.08000 0.861
28.10000 2.867
28.12000 2.171
28.14000 1.800
28.16000 4.062
28.18000 5.959
28.20000 6.466
28.22000 3.285
28.24000 -0.090
28.26000 0.351
28.28000 5.579
28.30000 5.996
28.32000 1.736
28.34000 0.997
28.36000 -0.714
28.38000 -0.693
28.40000 2.531
28.42000 -2.998
28.44000 0.080
28.46000 7.940
28.48000 6.694
28.50000 3.656
28.52000 3.239
28.54000 1.142
28.56000 1.417
28.58000 1.365
28.60000 1.219
28.62000 10.094
28.64000 4.061
28.66000 1.725
28.68000 2.910
28.70000 -3.623
28.72000 0.887
28.74000 5.008
28.76000 5.969
28.78000 2.900
28.80000 2.620
28.82000 1.334
28.84000 0.799
28.86000 -0.743
28.88000 -2.642
28.90000 -0.681
28.92000 7.143
28.94000 7.463
28.96000 4.653
28.98000 3.194
29.00000 4.021
29.02000 0.388
29.04000 1.436
29.06000 2.603
29.08000 0.500
29.10000 5.867
29.12000 7.302
29.14000 3.873
29.16000 -1.394
29.18000 2.876
29.20000 3.131
29.22000 5.573
29.24000 8.103
29.26000 0.596
29.28000 1.757
29.30000 -1.377
29.32000 0.840
29.34000 6.880
29.36000 2.336
29.38000 1.095
29.40000 4.849
29.42000 4.627
29.44000 1.309
29.46000 3.312
29.48000 0.290
29.50000 3.043
29.52000 5.225
29.54000 -3.731
29.56000 -1.382
29.58000 5.581
29.60000 7.306
29.62000 1.685
29.64000 -1.417
29.66000 3.133
29.68000 3.000
29.70000 6.065
29.72000 3.100
29.74000 2.808
29.76000 3.520
29.78000 3.341
29.80000 1.862
29.82000 0.074
29.84000 4.515
29.86000 0.736
29.88000 1.973
29.90000 5.633
29.92000 2.666
29.94000 -0.019
29.96000 1.084
29.98000 0.310
30.00000 2.575
30.02000 3.278
30.04000 -1.158
30.06000 -1.959
30.08000 -2.041
30.10000 -3.723
30.12000 -1.081
30.14000 -0.946
30.16000 0.353
30.18000 -0.501
30.20000 2.488
30.22000 2.722
30.24000 3.105
30.26000 7.015
30.28000 6.591
30.30000 6.561
30.32000 0.698
30.34000 -1.236
30.36000 1.927
30.38000 -1.673
30.40000 -2.156
30.42000 2.345
30.44000 4.321
30.46000 1.426
30.48000 1.098
30.50000 -1.401
30.52000 0.301
30.54000 -2.649
30.56000 0.550
30.58000 3.267
30.60000 -2.120
30.62000 1.769
30.64000 0.627
30.66000 0.773
30.68000 2.199
30.70000 3.278
30.72000 -0.839
30.74000 3.935
30.76000 3.490
30.78000 0.620
30.80000 0.733
30.82000 0.495
30.84000 1.968
30.86000 -1.355
30.88000 -0.018
30.90000 1.032
30.92000 -2.383
30.94000 -2.160
30.96000 -2.633
30.98000 -1.320
31.00000 1.234
31.02000 -2.377
31.04000 -1.875
31.06000 -1.393
31.08000 2.940
31.10000 2.139
31.12000 2.330
31.14000 4.419
31.16000 1.312
31.18000 5.150
31.20000 4.544
31.22000 3.998
31.24000 0.318
31.26000 -3.261
31.28000 0.799
31.30000 0.369
31.32000 -1.453
31.34000 2.095
31.36000 -0.979
31.38000 -0.913
31.40000 -0.773
31.42000 5.432
31.44000 8.539
31.46000 5.174
31.48000 -0.523
31.50000 1.284
31.52000 10.689
31.54000 7.468
31.56000 -1.121
31.58000 -3.134
31.60000 7.036
31.62000 7.223
31.64000 0.688
31.66000 0.904
31.68000 -1.957
31.70000 2.940
31.72000 1.764
31.74000 -3.662
31.76000 -2.949
31.78000 3.321
31.80000 -0.736
31.82000 -3.526
31.84000 -2.894
31.86000 1.624
31.88000 -2.172
31.90000 1.679
31.92000 6.477
31.94000 10.062
31.96000 7.507
31.98000 2.792
32.00000 -1.644
32.02000 -1.349
32.04000 5.474
32.06000 4.285
32.08000 -1.119
32.10000 -1.227
32.12000 0.830
32.14000 -1.896
32.16000 -3.650
32.18000 0.628
32.20000 -2.546
32.22000 0.326
32.24000 4.398
32.26000 1.484
32.28000 1.556
32.30000 2.776
32.32000 2.595
32.34000 0.276
32.36000 1.534
32.38000 2.941
32.40000 1.698
32.42000 1.484
32.44000 -3.646
32.46000 0.795
32.48000 1.732
32.50000 -0.206
32.52000 1.038
32.54000 1.979
32.56000 -0.038
32.58000 0.009
32.60000 -1.034
32.62000 -0.571
32.64000 4.663
32.66000 4.322
32.68000 2.764
32.70000 0.571
32.72000 1.708
32.74000 5.223
32.76000 3.315
32.78000 5.164
32.80000 0.350
32.82000 -0.009
32.84000 -2.212
32.86000 -0.091
32.88000 3.327
32.90000 0.555
32.92000 -1.711
32.94000 0.571
32.96000 1.382
32.98000 -1.595
33.00000 -0.644
33.02000 -2.948
33.04000 -3.638
33.06000 -0.558
33.08000 1.856
33.10000 2.809
33.12000 3.448
33.14000 4.372
33.16000 -2.159
33.18000 -1.649
33.20000 -0.784
33.22000 3.284
33.24000 0.402
33.26000 3.265
33.28000 3.322
33.30000 4.360
33.32000 2.791
33.34000 5.814
33.36000 0.618
33.38000 2.739
33.40000 4.025
33.42000 2.180
33.44000 5.584
33.46000 4.164
33.48000 6.263
33.50000 5.596
33.52000 4.062
33.54000 1.266
33.56000 -3.627
33.58000 -0.286
33.60000 -0.113
33.62000 -0.913
33.64000 1.955
33.66000 1.035
33.68000 2.562
33.70000 9.699
33.72000 7.632
33.74000 2.383
33.76000 0.297
33.78000 4.846
33.80000 3.788
33.82000 1.123
33.84000 2.627
33.86000 4.309
33.88000 5.862
33.90000 4.133
33.92000 5.031
33.94000 2.099
33.96000 2.376
33.98000 3.239
34.00000 0.993
34.02000 -0.885
34.04000 1.827
34.06000 4.855
34.08000 3.255
34.10000 4.734
34.12000 3.126
34.14000 -0.300
34.16000 0.176
34.18000 0.505
34.20000 4.372
34.22000 3.016
34.24000 0.583
34.26000 0.670
34.28000 3.654
34.30000 1.618
34.32000 5.762
34.34000 10.675
34.36000 4.252
34.38000 4.164
34.40000 1.097
34.42000 -0.113
34.44000 3.449
34.46000 1.386
34.48000 1.420
34.50000 -1.865
34.52000 -0.164
34.54000 4.435
34.56000 5.491
34.58000 2.873
34.60000 2.821
34.62000 1.460
34.64000 1.973
34.66000 5.368
34.68000 5.211
34.70000 5.324
34.72000 7.765
34.74000 6.845
34.76000 2.041
34.78000 1.138
34.80000 -0.262
34.82000 -0.896
34.84000 4.352
34.86000 8.674
34.88000 2.600
34.90000 1.570
34.92000 4.513
34.94000 -0.782
34.96000 -1.320
34.98000 -1.551
35.00000 1.226
35.02000 1.608
35.04000 -0.002
35.06000 2.801
35.08000 -0.017
35.10000 0.619
35.12000 -0.321
35.14000 -3.595
35.16000 2.150
35.18000 2.034
35.20000 1.282
35.22000 2.354
35.24000 6.662
35.26000 4.498
35.28000 3.214
35.30000 4.883
35.32000 4.850
35.34000 5.465
35.36000 1.702
35.38000 1.722
35.40000 0.163
35.42000 2.005
35.44000 5.267
35.46000 -1.045
35.48000 -1.993
35.50000 3.476
35.52000 0.766
35.54000 2.147
35.56000 1.699
35.58000 5.072
35.60000 6.286
35.62000 1.876
35.64000 1.185
35.66000 7.000
35.68000 7.998
35.70000 1.715
35.72000 4.727
35.74000 4.650
35.76000 6.353
35.78000 7.083
35.80000 6.542
35.82000 3.830
35.84000 4.877
35.86000 6.404
35.88000 1.647
35.90000 -3.626
35.92000 -0.095
35.94000 4.451
35.96000 0.378
35.98000 3.734
36.00000 4.372
36.02000 4.371
36.04000 1.182
36.06000 10.980
36.08000 6.903
36.10000 6.938
36.12000 4.096
36.14000 5.117
36.16000 3.842
36.18000 3.157
36.20000 0.493
36.22000 -0.409
36.24000 -0.310
36.26000 3.506
36.28000 1.690
36.30000 4.022
36.32000 4.161
36.34000 5.004
36.36000 0.954
36.38000 1.564
36.40000 -0.672
36.42000 -2.393
36.44000 6.984
36.46000 7.504
36.48000 3.512
36.50000 5.210
36.52000 7.343
36.54000 5.887
36.56000 7.861
36.58000 7.664
36.60000 1.573
36.62000 1.630
36.64000 6.854
36.66000 3.610
36.68000 5.621
36.70000 6.807
36.72000 11.097
36.74000 7.611
36.76000 6.129
36.78000 11.558
36.80000 16.286
36.82000 9.427
36.84000 11.693
36.86000 10.390
36.88000 12.351
36.90000 13.115
36.92000 7.644
36.94000 4.640
36.96000 7.007
36.98000 9.094
37.00000 8.127
37.02000 7.623
37.04000 11.729
37.06000 15.799
37.08000 5.804
37.10000 9.601
37.12000 13.347
37.14000 11.306
37.16000 17.171
37.18000 17.979
37.20000 19.040
37.22000 19.704
37.24000 16.696
37.26000 12.472
37.28000 17.624
37.30000 17.915
37.32000 18.779
37.34000 19.567
37.36000 14.513
37.38000 21.609
37.40000 20.489
37.42000 21.205
37.44000 19.252
37.46000 19.439
37.48000 19.843
37.50000 25.864
37.52000 24.447
37.54000 22.516
37.56000 24.510
37.58000 29.425
37.60000 31.777
37.62000 28.970
37.64000 31.209
37.66000 33.371
37.68000 28.931
37.70000 28.678
37.72000 33.528
37.74000 38.331
37.76000 36.315
37.78000 35.656
37.80000 34.982
37.82000 38.175
37.84000 39.848
37.86000 43.107
37.88000 43.579
37.90000 43.779
37.92000 42.187
37.94000 39.924
37.96000 45.398
37.98000 50.884
38.00000 52.582
38.02000 51.810
38.04000 52.587
38.06000 55.148
38.08000 59.075
38.10000 62.579
38.12000 61.839
38.14000 63.981
38.16000 67.372
38.18000 70.838
38.20000 75.717
38.22000 79.387
38.24000 83.433
38.26000 87.051
38.28000 89.704
38.30000 93.072
38.32000 98.863
38.34000 111.642
38.36000 112.663
38.38000 120.031
38.40000 121.071
38.42000 125.683
38.44000 134.272
38.46000 146.580
38.48000 156.671
38.50000 165.029
38.52000 168.808
38.54000 182.903
38.56000 198.081
38.58000 208.739
38.60000 218.157
38.62000 234.561
38.64000 256.917
38.66000 259.822
38.68000 270.801
38.70000 290.610
38.72000 300.653
38.74000 308.455
38.76000 320.079
38.78000 324.872
38.80000 332.107
38.82000 338.717
38.84000 349.331
38.86000 350.376
38.88000 358.519
38.90000 353.675
38.92000 344.155
38.94000 339.500
38.96000 339.552
38.98000 329.145
39.00000 327.756
39.02000 321.196
39.04000 316.330
39.06000 300.402
39.08000 281.884
39.10000 266.186
39.12000 267.497
39.14000 258.298
39.16000 239.555
39.18000 220.503
39.20000 210.802
39.22000 203.291
39.24000 185.249
39.26000 178.201
39.28000 175.099
39.30000 162.377
39.32000 149.759
39.34000 134.701
39.36000 129.652
39.38000 122.527
39.40000 113.826
39.42000 108.687
39.44000 100.163
39.46000 90.593
39.48000 85.637
39.50000 81.838
39.52000 73.760
39.54000 76.279
39.56000 75.880
39.58000 71.831
39.60000 70.494
39.62000 59.908
39.64000 59.472
39.66000 52.864
39.68000 48.752
39.70000 48.166
39.72000 56.666
39.74000 51.639
39.76000 46.285
39.78000 51.000
39.80000 44.559
39.82000 38.791
39.84000 37.764
39.86000 38.329
39.88000 40.127
39.90000 36.601
39.92000 34.016
39.94000 35.580
39.96000 34.034
39.98000 27.684
40.00000 24.674
40.02000 25.184
40.04000 28.280
40.06000 26.950
40.08000 25.480
40.10000 22.755
40.12000 23.790
40.14000 24.551
40.16000 22.481
40.18000 23.123
40.20000 22.041
40.22000 20.250
40.24000 18.716
40.26000 21.245
40.28000 21.461
40.30000 20.799
40.32000 22.146
40.34000 16.979
40.36000 20.211
40.38000 19.352
40.40000 18.206
40.42000 16.701
40.44000 17.094
40.46000 17.366
40.48000 16.939
40.50000 11.621
40.52000 13.280
40.54000 11.213
40.56000 13.334
40.58000 11.964
40.60000 9.631
40.62000 10.415
40.64000 11.528
40.66000 10.827
40.68000 6.300
40.70000 7.135
40.72000 7.690
40.74000 9.160
40.76000 8.905
40.78000 9.189
40.80000 10.353
40.82000 6.155
40.84000 5.433
40.86000 7.117
40.88000 6.544
40.90000 3.702
40.92000 7.520
40.94000 10.095
40.96000 7.701
40.98000 11.053
41.00000 7.695
41.02000 6.217
41.04000 0.360
41.06000 7.837
41.08000 12.741
41.10000 7.054
41.12000 3.631
41.14000 7.148
41.16000 10.306
41.18000 4.942
41.20000 2.372
41.22000 2.481
41.24000 5.026
41.26000 4.005
41.28000 2.006
41.30000 0.508
41.32000 0.121
41.34000 -0.575
41.36000 -0.307
41.38000 -1.001
41.40000 4.122
41.42000 10.136
41.44000 5.680
41.46000 5.149
41.48000 1.162
41.50000 3.475
41.52000 3.784
41.54000 2.128
41.56000 1.421
41.58000 2.855
41.60000 3.891
41.62000 -1.255
41.64000 1.860
41.66000 3.644
41.68000 1.580
41.70000 0.818
41.72000 1.253
41.74000 2.238
41.76000 4.709
41.78000 4.662
41.80000 6.287
41.82000 2.498
41.84000 -3.443
41.86000 -2.634
41.88000 3.021
41.90000 1.759
41.92000 2.943
41.94000 2.884
41.96000 5.012
41.98000 6.385
42.00000 2.481
42.02000 -2.808
42.04000 -0.929
42.06000 5.460
42.08000 9.296
42.10000 4.442
42.12000 0.872
42.14000 1.156
42.16000 -3.380
42.18000 -3.395
42.20000 2.458
42.22000 4.164
42.24000 5.165
42.26000 4.718
42.28000 0.799
42.30000 3.481
42.32000 4.330
42.34000 0.525
42.36000 0.402
42.38000 4.560
42.40000 5.035
42.42000 1.073
42.44000 0.615
42.46000 0.141
42.48000 -0.654
42.50000 1.465
42.52000 3.408
42.54000 4.279
42.56000 2.557
42.58000 4.823
42.60000 3.901
42.62000 2.263
42.64000 3.491
42.66000 -0.430
42.68000 -0.794
42.70000 -0.521
42.72000 1.053
42.74000 2.312
42.76000 0.361
42.78000 3.244
42.80000 1.215
42.82000 2.658
42.84000 3.082
42.86000 2.613
42.88000 5.615
42.90000 4.367
42.92000 2.297
42.94000 1.175
42.96000 1.405
42.98000 7.693
43.00000 -0.038
43.02000 -0.818
43.04000 -1.504
43.06000 0.590
43.08000 1.924
43.10000 3.150
43.12000 2.228
43.14000 6.163
43.16000 6.984
43.18000 2.245
43.20000 3.341
43.22000 -1.863
43.24000 1.232
43.26000 9.281
43.28000 3.038
43.30000 -1.418
43.32000 -3.284
43.34000 1.223
43.36000 1.442
43.38000 1.227
43.40000 2.476
43.42000 3.015
43.44000 2.007
43.46000 2.460
43.48000 4.743
43.50000 6.982
43.52000 2.072
43.54000 -0.049
43.56000 0.068
43.58000 2.069
43.60000 3.218
43.62000 -0.150
43.64000 1.061
43.66000 2.605
43.68000 4.520
43.70000 6.445
43.72000 1.228
43.74000 -1.409
43.76000 -0.205
43.78000 1.284
43.80000 5.128
43.82000 5.783
43.84000 2.523
43.86000 0.930
43.88000 0.278
43.90000 4.799
43.92000 4.481
43.94000 2.745
43.96000 2.928
43.98000 6.699
44.00000 6.898
44.02000 3.888
44.04000 2.397
44.06000 4.847
44.08000 7.724
44.10000 4.140
44.12000 5.132
44.14000 7.289
44.16000 4.664
44.18000 6.932
44.20000 10.843
44.22000 15.874
44.24000 13.629
44.26000 12.282
44.28000 11.732
44.30000 15.712
44.32000 11.996
44.34000 6.723
44.36000 13.767
44.38000 14.909
44.40000 11.801
44.42000 13.093
44.44000 19.812
44.46000 21.851
44.48000 18.584
44.50000 19.325
44.52000 16.416
44.54000 20.317
44.56000 25.048
44.58000 25.749
44.60000 26.980
44.62000 29.664
44.64000 32.046
44.66000 32.310
44.68000 34.359
44.70000 35.829
44.72000 39.107
44.74000 41.883
44.76000 43.930
44.78000 44.514
44.80000 44.715
44.82000 49.564
44.84000 51.416
44.86000 48.526
44.88000 52.996
44.90000 57.167
44.92000 56.432
44.94000 58.263
44.96000 65.367
44.98000 69.171
45.00000 73.118
45.02000 71.622
45.04000 74.021
45.06000 80.437
45.08000 86.458
45.10000 82.883
45.12000 85.078
45.14000 88.741
45.16000 90.234
45.18000 90.848
45.20000 93.951
45.22000 96.102
45.24000 92.986
45.26000 92.719
45.28000 91.711
45.30000 94.857
45.32000 97.428
45.34000 96.477
45.36000 98.728
45.38000 96.452
45.40000 90.904
45.42000 90.253
45.44000 89.704
45.46000 87.050
45.48000 80.695
45.50000 79.706
45.52000 79.273
45.54000 75.893
45.56000 71.100
45.58000 72.068
45.60000 68.230
45.62000 62.109
45.64000 60.029
45.66000 59.448
45.68000 53.637
45.70000 54.114
45.72000 49.487
45.74000 45.086
45.76000 43.202
45.78000 42.481
45.80000 41.853
45.82000 39.580
45.84000 38.817
45.86000 30.037
45.88000 26.794
45.90000 25.331
45.92000 24.062
45.94000 24.532
45.96000 21.580
45.98000 18.911
46.00000 19.267
46.02000 20.616
46.04000 20.400
46.06000 12.613
46.08000 14.273
46.10000 19.232
46.12000 13.516
46.14000 17.198
46.16000 16.550
46.18000 15.436
46.20000 11.779
46.22000 11.002
46.24000 9.712
46.26000 5.936
46.28000 3.945
46.30000 5.499
46.32000 8.185
46.34000 5.250
46.36000 6.687
46.38000 9.048
46.40000 5.294
46.42000 6.646
46.44000 4.895
46.46000 6.785
46.48000 7.077
46.50000 5.906
46.52000 1.675
46.54000 2.179
46.56000 7.139
46.58000 7.104
46.60000 7.085
46.62000 0.979
46.64000 -1.197
46.66000 2.650
46.68000 3.788
46.70000 4.467
46.72000 6.310
46.74000 -1.047
46.76000 -2.933
46.78000 0.323
46.80000 4.320
46.82000 2.010
46.84000 2.392
46.86000 7.559
46.88000 5.072
46.90000 -0.717
46.92000 -2.574
46.94000 1.868
46.96000 6.245
46.98000 1.552
47.00000 -1.523
47.02000 3.144
47.04000 2.721
47.06000 2.402
47.08000 5.980
47.10000 1.485
47.12000 4.631
47.14000 8.575
47.16000 2.977
47.18000 0.810
47.20000 4.873
47.22000 0.634
47.24000 -1.890
47.26000 1.564
47.28000 1.920
47.30000 2.813
47.32000 1.223
47.34000 -0.937
47.36000 -2.882
47.38000 0.108
47.40000 1.295
47.42000 4.855
47.44000 7.883
47.46000 1.967
47.48000 -1.211
47.50000 1.017
47.52000 3.281
47.54000 2.321
47.56000 1.488
47.58000 0.909
47.60000 0.645
47.62000 1.492
47.64000 3.178
47.66000 0.505
47.68000 2.201
47.70000 -1.106
47.72000 2.979
47.74000 4.180
47.76000 1.773
47.78000 1.237
47.80000 -0.464
47.82000 -0.491
47.84000 3.822
47.86000 4.083
47.88000 1.391
47.90000 -2.619
47.92000 -0.843
47.94000 -2.827
47.96000 1.202
47.98000 1.821
48.00000 2.321
48.02000 1.518
48.04000 0.668
48.06000 -0.661
48.08000 4.677
48.10000 5.584
48.12000 3.062
48.14000 3.912
48.16000 8.220
48.18000 5.064
48.20000 4.677
48.22000 5.095
48.24000 1.657
48.26000 0.411
48.28000 2.271
48.30000 6.805
48.32000 2.197
48.34000 4.699
48.36000 6.380
48.38000 3.528
48.40000 1.579
48.42000 0.835
48.44000 4.479
48.46000 2.681
48.48000 4.035
48.50000 1.439
48.52000 2.121
48.54000 1.360
48.56000 5.932
48.58000 5.774
48.60000 5.183
48.62000 2.176
48.64000 -2.747
48.66000 -0.061
48.68000 6.091
48.70000 6.520
48.72000 5.889
48.74000 6.877
48.76000 10.444
48.78000 3.217
48.80000 -1.182
48.82000 -0.890
48.84000 0.431
48.86000 2.782
48.88000 2.115
48.90000 0.374
48.92000 6.142
48.94000 8.384
48.96000 3.225
48.98000 -2.517
49.00000 -1.142
49.02000 -0.904
49.04000 4.967
49.06000 2.821
49.08000 -0.419
49.10000 4.286
49.12000 5.787
49.14000 0.740
49.16000 -0.264
49.18000 -1.075
49.20000 5.093
49.22000 1.281
49.24000 -1.347
49.26000 2.331
49.28000 0.526
49.30000 1.332
49.32000 4.816
49.34000 9.207
49.36000 7.286
49.38000 0.727
49.40000 0.886
49.42000 3.429
49.44000 2.879
49.46000 3.468
49.48000 2.195
49.50000 1.894
49.52000 5.642
49.54000 6.121
49.56000 4.240
49.58000 2.064
49.60000 0.378
49.62000 0.684
49.64000 2.646
49.66000 6.532
49.68000 7.919
49.70000 7.664
49.72000 1.722
49.74000 0.350
49.76000 -2.693
49.78000 -0.644
49.80000 5.119
49.82000 5.968
49.84000 7.840
49.86000 8.983
49.88000 6.659
49.90000 0.316
49.92000 4.055
49.94000 2.653
49.96000 -0.441
49.98000 3.547
50.00000 6.309
50.02000 6.612
50.04000 3.389
50.06000 3.290
50.08000 3.694
50.10000 1.170
50.12000 5.886
50.14000 6.509
50.16000 3.072
50.18000 2.529
50.20000 5.416
50.22000 4.036
50.24000 0.933
50.26000 3.733
50.28000 2.753
50.30000 3.632
50.32000 3.805
50.34000 0.968
50.36000 3.573
50.38000 6.581
50.40000 1.922
50.42000 4.517
50.44000 9.876
50.46000 4.274
50.48000 1.543
50.50000 3.876
50.52000 4.219
50.54000 4.341
50.56000 2.939
50.58000 4.250
50.60000 3.557
50.62000 6.990
50.64000 5.389
50.66000 2.133
50.68000 2.647
50.70000 4.483
50.72000 5.041
50.74000 5.454
50.76000 2.932
50.78000 2.008
50.80000 2.956
50.82000 -2.631
50.84000 2.305
50.86000 3.634
50.88000 1.278
50.90000 2.819
50.92000 3.995
50.94000 1.140
50.96000 1.189
50.98000 1.430
51.00000 0.407
51.02000 1.926
51.04000 3.701
51.06000 2.992
51.08000 7.312
51.10000 3.847
51.12000 0.185
51.14000 -0.195
51.16000 -2.108
51.18000 2.572
51.20000 3.213
51.22000 4.934
51.24000 8.142
51.26000 7.320
51.28000 5.642
51.30000 -2.138
51.32000 -2.560
51.34000 0.094
51.36000 -2.348
51.38000 3.131
51.40000 7.341
51.42000 2.929
51.44000 1.182
51.46000 4.017
51.48000 3.251
51.50000 6.056
51.52000 6.697
51.54000 1.796
51.56000 2.400
51.58000 4.213
51.60000 3.110
51.62000 3.605
51.64000 7.031
51.66000 4.328
51.68000 4.693
51.70000 6.052
51.72000 5.714
51.74000 6.082
51.76000 1.652
51.78000 4.971
51.80000 5.831
51.82000 5.218
51.84000 2.070
51.86000 5.408
51.88000 5.014
51.90000 6.799
51.92000 5.701
51.94000 3.360
51.96000 1.692
51.98000 6.120
52.00000 6.801
52.02000 4.470
52.04000 4.818
52.06000 3.809
52.08000 3.151
52.10000 3.508
52.12000 -2.606
52.14000 -0.059
52.16000 2.200
52.18000 4.027
52.20000 7.335
52.22000 6.203
52.24000 1.599
52.26000 4.218
52.28000 3.682
52.30000 1.972
52.32000 5.675
52.34000 6.275
52.36000 3.155
52.38000 2.948
52.40000 2.164
52.42000 2.357
52.44000 2.612
52.46000 1.696
52.48000 0.250
52.50000 1.441
52.52000 1.679
52.54000 2.050
52.56000 1.239
52.58000 1.766
52.60000 4.075
52.62000 4.906
52.64000 2.457
52.66000 2.501
52.68000 3.405
52.70000 2.358
52.72000 -1.687
52.74000 -2.608
52.76000 1.801
52.78000 7.006
52.80000 3.213
52.82000 4.873
52.84000 5.315
52.86000 3.983
52.88000 3.266
52.90000 4.001
52.92000 5.671
52.94000 1.598
52.96000 -2.604
52.98000 -0.650
53.00000 5.143
53.02000 4.746
53.04000 3.676
53.06000 -0.148
53.08000 1.806
53.10000 3.731
53.12000 3.699
53.14000 2.174
53.16000 5.769
53.18000 3.792
53.20000 2.623
53.22000 0.490
53.24000 2.179
53.26000 3.636
53.28000 0.985
53.30000 -2.496
53.32000 -0.375
53.34000 4.969
53.36000 2.545
53.38000 -0.626
53.40000 -0.745
53.42000 -0.410
53.44000 -2.521
53.46000 2.383
53.48000 3.052
53.50000 1.057
53.52000 -0.356
53.54000 1.192
53.56000 2.569
53.58000 3.677
53.60000 3.550
53.62000 1.310
53.64000 2.128
53.66000 1.642
53.68000 0.077
53.70000 0.423
53.72000 1.596
53.74000 1.551
53.76000 1.184
53.78000 3.011
53.80000 2.227
53.82000 -1.960
53.84000 3.401
53.86000 2.098
53.88000 -1.649
53.90000 0.875
53.92000 1.661
53.94000 3.008
53.96000 3.845
53.98000 2.388
54.00000 1.758
54.02000 1.070
54.04000 0.683
54.06000 0.041
54.08000 0.706
54.10000 -1.784
54.12000 -0.211
54.14000 0.216
54.16000 1.799
54.18000 3.624
54.20000 1.094
54.22000 2.791
54.24000 1.961
54.26000 2.407
54.28000 1.669
54.30000 0.752
54.32000 1.242
54.34000 3.056
54.36000 -0.429
54.38000 -0.330
54.40000 1.605
54.42000 0.396
54.44000 -2.571
54.46000 1.458
54.48000 2.656
54.50000 4.484
54.52000 4.175
54.54000 3.674
54.56000 2.165
54.58000 7.201
54.60000 1.072
54.62000 0.902
54.64000 2.602
54.66000 2.774
54.68000 6.483
54.70000 7.812
54.72000 8.397
54.74000 5.440
54.76000 6.239
54.78000 2.183
54.80000 -0.975
54.82000 0.382
54.84000 1.922
54.86000 3.981
54.88000 2.685
54.90000 2.839
54.92000 3.140
54.94000 1.455
54.96000 -1.719
54.98000 3.728
55.00000 2.167
55.02000 -0.371
55.04000 -0.227
55.06000 -0.878
55.08000 1.249
55.10000 4.555
55.12000 8.842
55.14000 4.860
55.16000 2.660
55.18000 3.164
55.20000 3.483
55.22000 4.918
55.24000 3.237
55.26000 4.403
55.28000 6.685
55.30000 3.533
55.32000 -2.565
55.34000 4.134
55.36000 3.080
55.38000 2.185
55.40000 4.259
55.42000 -0.140
55.44000 -0.025
55.46000 0.407
55.48000 3.631
55.50000 3.128
55.52000 3.637
55.54000 4.043
55.56000 7.393
55.58000 7.775
55.60000 6.215
55.62000 5.011
55.64000 5.356
55.66000 1.445
55.68000 -0.827
55.70000 0.349
55.72000 -1.292
55.74000 1.275
55.76000 4.450
55.78000 4.516
55.80000 5.398
55.82000 5.566
55.84000 1.860
55.86000 1.535
55.88000 0.990
55.90000 4.811
55.92000 5.804
55.94000 4.346
55.96000 0.971
55.98000 -0.143
56.00000 -2.068
56.02000 -2.532
56.04000 0.286
56.06000 6.396
56.08000 8.462
56.10000 4.865
56.12000 4.344
56.14000 3.597
56.16000 5.679
56.18000 0.458
56.20000 1.899
56.22000 2.332
56.24000 4.130
56.26000 3.456
56.28000 4.567
56.30000 4.168
56.32000 0.765
56.34000 4.232
56.36000 2.320
56.38000 3.749
56.40000 2.357
56.42000 2.489
56.44000 4.387
56.46000 6.269
56.48000 2.665
56.50000 1.680
56.52000 2.993
56.54000 1.024
56.56000 3.032
56.58000 -0.613
56.60000 1.973
56.62000 1.248
56.64000 -1.317
56.66000 2.714
56.68000 1.932
56.70000 -2.520
56.72000 -1.264
56.74000 0.550
56.76000 1.376
56.78000 2.847
56.80000 0.944
56.82000 0.068
56.84000 1.334
56.86000 -0.647
56.88000 -1.331
56.90000 0.996
56.92000 2.854
56.94000 7.786
56.96000 3.252
56.98000 4.584
57.00000 1.083
57.02000 0.653
57.04000 0.954
57.06000 0.448
57.08000 0.596
57.10000 -0.902
57.12000 -1.732
57.14000 3.445
57.16000 1.376
57.18000 0.357
57.20000 2.638
57.22000 3.689
57.24000 1.891
57.26000 1.401
57.28000 2.808
57.30000 6.378
57.32000 3.717
57.34000 4.322
57.36000 4.489
57.38000 4.903
57.40000 2.870
57.42000 3.656
57.44000 -0.530
57.46000 3.548
57.48000 4.708
57.50000 4.061
57.52000 1.750
57.54000 1.479
57.56000 0.007
57.58000 4.569
57.60000 5.880
57.62000 3.718
57.64000 1.168
57.66000 -2.462
57.68000 2.738
57.70000 6.669
57.72000 3.254
57.74000 4.024
57.76000 0.614
57.78000 1.172
57.80000 4.905
57.82000 7.139
57.84000 5.683
57.86000 4.268
57.88000 5.325
57.90000 4.356
57.92000 4.809
57.94000 4.065
57.96000 2.446
57.98000 5.823
58.00000 4.718
58.02000 0.894
58.04000 6.508
58.06000 2.372
58.08000 5.011
58.10000 5.320
58.12000 5.513
58.14000 2.693
58.16000 6.371
58.18000 10.783
58.20000 11.480
58.22000 5.480
58.24000 2.179
58.26000 1.581
58.28000 1.877
58.30000 3.979
58.32000 3.758
58.34000 4.594
58.36000 8.517
58.38000 8.070
58.40000 4.800
58.42000 6.007
58.44000 3.808
58.46000 5.617
58.48000 7.219
58.50000 3.561
58.52000 5.474
58.54000 3.703
58.56000 3.321
58.58000 4.224
58.60000 2.241
58.62000 -2.423
58.64000 0.579
58.66000 4.711
58.68000 3.491
58.70000 4.280
58.72000 2.650
58.74000 2.563
58.76000 6.210
58.78000 6.034
58.80000 2.318
58.82000 -2.265
58.84000 -0.332
58.86000 -1.136
58.88000 1.361
58.90000 4.825
58.92000 2.128
58.94000 1.939
58.96000 4.952
58.98000 3.483
59.00000 3.287
59.02000 2.284
59.04000 2.543
59.06000 2.603
59.08000 2.376
59.10000 2.686
59.12000 1.348
59.14000 0.513
59.16000 2.615
59.18000 1.726
59.20000 1.601
59.22000 0.565
59.24000 1.358
59.26000 -0.157
59.28000 2.312
59.30000 -0.123
59.32000 0.996
59.34000 0.493
59.36000 1.364
59.38000 3.682
59.40000 3.858
59.42000 -1.055
59.44000 -2.423
59.46000 0.736
59.48000 0.406
59.50000 0.925
59.52000 1.691
59.54000 2.346
59.56000 3.819
59.58000 0.725
59.60000 -1.420
59.62000 -0.375
59.64000 -0.511
59.66000 2.138
59.68000 4.465
59.70000 3.878
59.72000 -1.308
59.74000 0.251
59.76000 4.262
59.78000 0.189
59.80000 1.260
59.82000 0.851
59.84000 1.117
59.86000 1.725
59.88000 -1.243
59.90000 1.529
59.92000 6.107
59.94000 5.709
59.96000 3.079
59.98000 1.432
60.00000 0.724
60.02000 0.646
60.04000 0.356
60.06000 -0.182
60.08000 1.612
60.10000 3.111
60.12000 3.315
60.14000 -0.207
60.16000 1.894
60.18000 2.146
60.20000 -2.432
60.22000 -1.135
60.24000 -1.209
60.26000 -0.331
60.28000 1.872
60.30000 0.076
60.32000 -0.116
60.34000 -0.636
60.36000 0.770
60.38000 0.772
60.40000 -0.658
60.42000 0.220
60.44000 2.323
60.46000 2.733
60.48000 1.609
60.50000 0.543
60.52000 2.525
60.54000 3.095
60.56000 1.794
60.58000 1.935
60.60000 3.443
60.62000 0.459
60.64000 -1.238
60.66000 -0.499
60.68000 1.082
60.70000 1.063
60.72000 3.660
60.74000 -1.405
60.76000 -1.201
60.78000 -1.597
60.80000 -0.819
60.82000 -2.413
60.84000 -0.264
60.86000 0.895
60.88000 1.191
60.90000 -1.148
60.92000 2.440
60.94000 1.815
60.96000 2.054
60.98000 2.107
61.00000 -1.906
61.02000 -0.224
61.04000 1.298
61.06000 1.787
61.08000 -0.154
61.10000 -0.225
61.12000 0.264
61.14000 1.548
61.16000 1.143
61.18000 -0.653
61.20000 2.983
61.22000 4.520
61.24000 3.327
61.26000 6.078
61.28000 2.493
61.30000 -2.296
61.32000 -2.394
61.34000 1.173
61.36000 6.666
61.38000 2.278
61.40000 1.209
61.42000 1.470
61.44000 5.172
61.46000 4.182
61.48000 -0.738
61.50000 -2.221
61.52000 0.152
61.54000 -2.208
61.56000 -1.278
61.58000 0.386
61.60000 -0.278
61.62000 2.755
61.64000 0.824
61.66000 -1.999
61.68000 1.346
61.70000 1.088
61.72000 1.555
61.74000 2.310
61.76000 2.093
61.78000 0.730
61.80000 1.162
61.82000 -2.375
61.84000 0.678
61.86000 4.561
61.88000 1.386
61.90000 -2.049
61.92000 -0.299
61.94000 0.368
61.96000 -1.065
61.98000 -1.109
62.00000 -2.367
62.02000 -2.074
62.04000 -0.618
62.06000 -0.429
62.08000 0.807
62.10000 4.118
62.12000 1.325
62.14000 -1.829
62.16000 -1.852
62.18000 -1.401
62.20000 0.012
62.22000 1.756
62.24000 1.152
62.26000 2.823
62.28000 2.743
62.30000 0.723
62.32000 3.832
62.34000 3.363
62.36000 2.018
62.38000 -1.078
62.40000 -2.081
62.42000 -0.667
62.44000 1.574
62.46000 -2.359
62.48000 0.838
62.50000 1.428
62.52000 -0.228
62.54000 1.380
62.56000 2.436
62.58000 3.536
62.60000 4.940
62.62000 4.811
62.64000 -0.058
62.66000 -0.235
62.68000 -0.799
62.70000 0.949
62.72000 0.545
62.74000 1.616
62.76000 -0.304
62.78000 -1.857
62.80000 0.588
62.82000 3.230
62.84000 3.777
62.86000 3.650
62.88000 2.168
62.90000 4.229
62.92000 4.166
62.94000 1.011
62.96000 1.184
62.98000 1.182
63.00000 0.803
63.02000 2.489
63.04000 2.298
63.06000 1.943
63.08000 3.525
63.10000 3.653
63.12000 2.584
63.14000 -0.604
63.16000 -0.801
63.18000 -2.327
63.20000 -0.026
63.22000 -0.449
63.24000 -0.981
63.26000 -2.323
63.28000 0.020
63.30000 0.838
63.32000 -1.563
63.34000 -0.095
63.36000 1.823
63.38000 -0.473
63.40000 0.602
63.42000 0.776
63.44000 0.744
63.46000 1.265
63.48000 3.250
63.50000 2.953
63.52000 6.324
63.54000 5.254
63.56000 2.303
63.58000 1.321
63.60000 4.392
63.62000 -0.683
63.64000 -2.306
63.66000 0.985
63.68000 5.111
63.70000 6.630
63.72000 4.738
63.74000 1.611
63.76000 5.079
63.78000 3.408
63.80000 5.261
63.82000 4.428
63.84000 2.648
63.86000 3.961
63.88000 2.967
63.90000 2.449
63.92000 2.990
63.94000 6.850
63.96000 5.414
63.98000 2.275
64.00000 3.075
64.02000 0.273
64.04000 -1.370
64.06000 1.445
64.08000 -1.647
64.10000 -1.695
64.12000 5.574
64.14000 7.748
64.16000 2.632
64.18000 1.217
64.20000 2.361
64.22000 2.025
64.24000 2.710
64.26000 3.280
64.28000 2.577
64.30000 2.951
64.32000 2.737
64.34000 3.876
64.36000 5.101
64.38000 4.294
64.40000 -0.131
64.42000 1.273
64.44000 2.710
64.46000 1.412
64.48000 0.328
64.50000 2.970
64.52000 2.765
64.54000 3.210
64.56000 -0.488
64.58000 -2.339
64.60000 0.779
64.62000 2.283
64.64000 0.090
64.66000 0.266
64.68000 1.221
64.70000 1.865
64.72000 1.915
64.74000 2.251
64.76000 4.756
64.78000 4.687
64.80000 6.551
64.82000 3.236
64.84000 0.202
64.86000 0.205
64.88000 1.442
64.90000 -0.812
64.92000 -1.642
64.94000 1.163
64.96000 -0.228
64.98000 1.401
65.00000 0.764
65.02000 1.574
65.04000 1.251
65.06000 3.223
65.08000 2.521
65.10000 1.184
65.12000 -1.173
65.14000 -2.339
65.16000 -0.946
65.18000 2.195
65.20000 0.657
65.22000 1.152
65.24000 6.058
65.26000 6.119
65.28000 4.016
65.30000 0.034
65.32000 4.426
65.34000 1.404
65.36000 -0.026
65.38000 -0.974
65.40000 0.452
65.42000 -0.281
65.44000 3.888
65.46000 3.751
65.48000 3.882
65.50000 2.925
65.52000 1.478
65.54000 3.676
65.56000 2.786
65.58000 5.118
65.60000 5.523
65.62000 4.343
65.64000 5.935
65.66000 3.101
65.68000 1.756
65.70000 3.292
65.72000 4.844
65.74000 6.413
65.76000 7.453
65.78000 8.437
65.80000 5.185
65.82000 3.093
65.84000 4.030
65.86000 5.930
65.88000 3.143
65.90000 -0.349
65.92000 3.526
65.94000 6.267
65.96000 4.160
65.98000 6.414
66.00000 7.550
66.02000 9.260
66.04000 3.898
66.06000 1.665
66.08000 1.889
66.10000 4.335
66.12000 5.449
66.14000 8.469
66.16000 5.894
66.18000 2.165
66.20000 1.594
66.22000 0.972
66.24000 2.213
66.26000 0.936
66.28000 3.712
66.30000 5.632
66.32000 6.546
66.34000 1.426
66.36000 5.616
66.38000 3.754
66.40000 1.381
66.42000 4.978
66.44000 5.098
66.46000 4.735
66.48000 2.422
66.50000 5.140
66.52000 5.079
66.54000 4.671
66.56000 2.629
66.58000 2.287
66.60000 0.853
66.62000 1.010
66.64000 3.285
66.66000 1.445
66.68000 0.247
66.70000 -1.005
66.72000 -2.120
66.74000 0.423
66.76000 2.789
66.78000 0.749
66.80000 -2.257
66.82000 1.425
66.84000 3.945
66.86000 2.712
66.88000 0.972
66.90000 0.856
66.92000 2.589
66.94000 3.355
66.96000 0.181
66.98000 0.151
67.00000 2.968
67.02000 4.832
67.04000 5.315
67.06000 4.243
67.08000 2.284
67.10000 -0.057
67.12000 -0.007
67.14000 1.871
67.16000 3.552
67.18000 3.775
67.20000 1.529
67.22000 3.874
67.24000 3.151
67.26000 4.948
67.28000 2.819
67.30000 3.300
67.32000 2.356
67.34000 2.199
67.36000 2.909
67.38000 3.581
67.40000 2.961
67.42000 -1.173
67.44000 -0.768
67.46000 2.755
67.48000 1.342
67.50000 2.653
67.52000 0.507
67.54000 -1.171
67.56000 1.624
67.58000 1.649
67.60000 2.880
67.62000 1.913
67.64000 1.665
67.66000 0.897
67.68000 1.737
67.70000 2.931
67.72000 -0.112
67.74000 1.338
67.76000 0.428
67.78000 1.852
67.80000 -0.819
67.82000 -1.017
67.84000 2.532
67.86000 3.237
67.88000 4.962
67.90000 5.018
67.92000 2.945
67.94000 -0.041
67.96000 1.800
67.98000 3.991
68.00000 0.080
68.02000 -2.206
68.04000 -0.460
68.06000 2.923
68.08000 4.163
68.10000 4.190
68.12000 3.531
68.14000 1.365
68.16000 0.406
68.18000 1.989
68.20000 1.378
68.22000 2.569
68.24000 2.694
68.26000 2.904
68.28000 1.344
68.30000 2.091
68.32000 -0.404
68.34000 -1.601
68.36000 -0.576
68.38000 0.357
68.40000 4.319
68.42000 1.819
68.44000 -1.111
68.46000 2.002
68.48000 2.219
68.50000 0.492
68.52000 2.248
68.54000 2.565
68.56000 4.374
68.58000 1.697
68.60000 0.822
68.62000 -0.974
68.64000 -1.148
68.66000 -0.624
68.68000 -0.715
68.70000 -0.220
68.72000 0.412
68.74000 0.028
68.76000 -1.307
68.78000 2.336
68.80000 4.388
68.82000 3.060
68.84000 0.389
68.86000 1.807
68.88000 -0.960
68.90000 0.541
68.92000 -0.623
68.94000 2.369
68.96000 4.159
68.98000 0.368
69.00000 2.143
69.02000 0.135
69.04000 0.491
69.06000 0.157
69.08000 2.477
69.10000 0.879
69.12000 2.033
69.14000 1.766
69.16000 0.356
69.18000 0.528
69.20000 -0.903
69.22000 0.945
69.24000 2.150
69.26000 2.013
69.28000 -2.162
69.30000 2.243
69.32000 3.038
69.34000 0.611
69.36000 0.371
69.38000 3.246
69.40000 3.917
69.42000 3.879
69.44000 1.707
69.46000 -0.330
69.48000 1.663
69.50000 0.024
69.52000 -0.010
69.54000 0.547
69.56000 0.583
69.58000 3.304
69.60000 1.286
69.62000 1.446
69.64000 0.787
69.66000 1.496
69.68000 -1.331
69.70000 -2.153
69.72000 -0.376
69.74000 -0.101
69.76000 -0.957
69.78000 0.419
69.80000 2.489
69.82000 4.450
69.84000 2.310
69.86000 0.824
69.88000 2.350
69.90000 1.425
69.92000 -0.672
69.94000 -0.847
69.96000 -0.828
69.98000 1.293
70.00000 4.825
70.02000 2.276
70.04000 -1.397
70.06000 1.672
70.08000 2.554
70.10000 1.498
70.12000 2.863
70.14000 2.863
70.16000 4.400
70.18000 4.254
70.20000 2.969
70.22000 2.607
70.24000 -1.680
70.26000 -2.135
70.28000 0.340
70.30000 0.911
70.32000 0.892
70.34000 1.550
70.36000 0.831
70.38000 0.702
70.40000 0.466
70.42000 0.690
70.44000 0.947
70.46000 2.357
70.48000 2.084
70.50000 2.208
70.52000 0.032
70.54000 1.261
70.56000 4.492
70.58000 1.258
70.60000 -0.951
70.62000 3.028
70.64000 2.573
70.66000 4.154
70.68000 3.804
70.70000 2.341
70.72000 -1.351
70.74000 -2.112
70.76000 -1.349
70.78000 -1.240
70.80000 0.208
70.82000 1.677
70.84000 4.985
70.86000 4.953
70.88000 2.257
70.90000 1.695
70.92000 1.948
70.94000 -1.518
70.96000 0.222
70.98000 0.077
71.00000 -0.460
71.02000 -0.372
71.04000 2.942
71.06000 1.799
71.08000 1.220
71.10000 -1.495
71.12000 -0.453
71.14000 4.482
71.16000 3.745
71.18000 2.125
71.20000 3.642
71.22000 2.781
71.24000 3.821
71.26000 3.424
71.28000 3.930
71.30000 2.078
71.32000 -0.649
71.34000 0.770
71.36000 1.367
71.38000 -0.492
71.40000 -1.082
71.42000 0.431
71.44000 0.222
71.46000 -1.513
71.48000 -1.340
71.50000 0.163
71.52000 0.398
71.54000 1.299
71.56000 -0.408
71.58000 0.804
71.60000 0.430
71.62000 3.067
71.64000 3.820
71.66000 1.766
71.68000 0.904
71.70000 2.212
71.72000 2.675
71.74000 1.945
71.76000 0.210
71.78000 -0.110
71.80000 1.299
71.82000 -0.851
71.84000 0.169
71.86000 1.231
71.88000 -0.051
71.90000 1.955
71.92000 4.337
71.94000 2.625
71.96000 -0.749
71.98000 -2.101
72.00000 -0.343
72.02000 1.048
72.04000 0.727
72.06000 -0.431
72.08000 -0.800
72.10000 1.452
72.12000 4.657
72.14000 1.802
72.16000 0.723
72.18000 -0.530
72.20000 3.455
72.22000 2.574
72.24000 2.783
72.26000 2.088
72.28000 0.716
72.30000 0.961
72.32000 2.178
72.34000 2.545
72.36000 -0.229
72.38000 1.368
72.40000 1.801
72.42000 -0.165
72.44000 -0.796
72.46000 -0.684
72.48000 -1.113
72.50000 -0.940
72.52000 1.548
72.54000 1.813
72.56000 4.955
72.58000 2.352
72.60000 -1.131
72.62000 2.887
72.64000 0.519
72.66000 0.106
72.68000 1.599
72.70000 2.418
72.72000 1.055
72.74000 1.127
72.76000 1.987
72.78000 -0.687
72.80000 -1.130
72.82000 -0.554
72.84000 1.229
72.86000 1.794
72.88000 -0.538
72.90000 -1.638
72.92000 -0.728
72.94000 -1.545
72.96000 -2.049
72.98000 -0.660
73.00000 4.922
73.02000 0.223
73.04000 0.750
73.06000 0.148
73.08000 2.032
73.10000 -0.851
73.12000 1.439
73.14000 -0.832
73.16000 -1.452
73.18000 1.217
73.20000 1.403
73.22000 0.189
73.24000 1.610
73.26000 1.001
73.28000 -0.345
73.30000 1.463
73.32000 3.690
73.34000 1.794
73.36000 1.855
73.38000 5.328
73.40000 5.183
73.42000 1.111
73.44000 4.359
73.46000 1.030
73.48000 -1.422
73.50000 1.160
73.52000 2.018
73.54000 2.685
73.56000 0.676
73.58000 -0.080
73.60000 -0.011
73.62000 0.990
73.64000 -1.121
73.66000 -0.719
73.68000 -0.318
73.70000 3.275
73.72000 3.284
73.74000 3.671
73.76000 1.447
73.78000 -2.016
73.80000 1.265
73.82000 2.847
73.84000 0.917
73.86000 1.452
73.88000 3.484
73.90000 1.703
73.92000 4.688
73.94000 3.816
73.96000 2.410
73.98000 3.894
74.00000 4.695
74.02000 3.459
74.04000 2.775
74.06000 1.741
74.08000 5.163
74.10000 2.891
74.12000 1.696
74.14000 0.658
74.16000 3.806
74.18000 1.019
74.20000 -0.379
74.22000 3.080
74.24000 1.520
74.26000 0.337
74.28000 0.595
74.30000 2.234
74.32000 1.900
74.34000 2.515
74.36000 0.954
74.38000 2.076
74.40000 -2.043
74.42000 -0.070
74.44000 -0.176
74.46000 0.572
74.48000 2.061
74.50000 3.468
74.52000 1.940
74.54000 1.077
74.56000 0.698
74.58000 2.490
74.60000 1.101
74.62000 2.664
74.64000 3.266
74.66000 0.319
74.68000 0.196
74.70000 2.967
74.72000 3.447
74.74000 5.382
74.76000 4.801
74.78000 -0.098
74.80000 3.923
74.82000 2.201
74.84000 0.607
74.86000 0.356
74.88000 1.690
74.90000 0.969
74.92000 0.246
74.94000 0.889
74.96000 -0.908
74.98000 -0.543
75.00000 -0.082
75.02000 -1.855
75.04000 -0.956
75.06000 0.837
75.08000 0.488
75.10000 1.722
75.12000 0.116
75.14000 -0.704
75.16000 -0.709
75.18000 -1.461
75.20000 -1.620
75.22000 -0.528
75.24000 3.234
75.26000 3.360
75.28000 1.109
75.30000 3.426
75.32000 2.109
75.34000 3.409
75.36000 3.601
75.38000 4.482
75.40000 4.172
75.42000 3.904
75.44000 2.965
75.46000 -0.183
75.48000 -1.864
75.50000 1.369
75.52000 3.311
75.54000 -0.485
75.56000 3.727
75.58000 5.198
75.60000 1.861
75.62000 -2.056
75.64000 -0.549
75.66000 0.417
75.68000 5.119
75.70000 5.579
75.72000 3.835
75.74000 4.133
75.76000 4.488
75.78000 3.982
75.80000 3.403
75.82000 1.556
75.84000 4.169
75.86000 5.186
75.88000 3.910
75.90000 2.579
75.92000 4.614
75.94000 4.277
75.96000 4.584
75.98000 3.022
76.00000 1.808
76.02000 2.495
76.04000 2.566
76.06000 4.219
76.08000 3.721
76.10000 1.276
76.12000 0.618
76.14000 7.222
76.16000 4.070
76.18000 2.883
76.20000 4.642
76.22000 4.022
76.24000 4.909
76.26000 3.486
76.28000 3.546
76.30000 2.339
76.32000 1.531
76.34000 1.165
76.36000 2.293
76.38000 0.072
76.40000 2.256
76.42000 3.517
76.44000 4.272
76.46000 3.238
76.48000 1.353
76.50000 0.691
76.52000 4.354
76.54000 2.638
76.56000 0.397
76.58000 1.034
76.60000 4.258
76.62000 6.452
76.64000 5.438
76.66000 3.597
76.68000 2.927
76.70000 4.905
76.72000 3.942
76.74000 4.039
76.76000 4.734
76.78000 3.045
76.80000 2.063
76.82000 5.296
76.84000 7.517
76.86000 7.889
76.88000 6.991
76.90000 1.185
76.92000 -2.048
76.94000 2.629
76.96000 2.753
76.98000 6.149
77.00000 8.871
77.02000 7.057
77.04000 2.541
77.06000 4.203
77.08000 3.100
77.10000 1.168
77.12000 2.345
77.14000 2.046
77.16000 0.768
77.18000 4.998
77.20000 3.817
77.22000 3.827
77.24000 5.916
77.26000 2.555
77.28000 -0.237
77.30000 1.091
77.32000 4.059
77.34000 5.813
77.36000 2.046
77.38000 3.423
77.40000 3.280
77.42000 3.839
77.44000 4.013
77.46000 5.069
77.48000 0.473
77.50000 2.682
77.52000 4.677
77.54000 2.804
77.56000 -0.037
77.58000 -0.227
77.60000 -2.141
77.62000 1.467
77.64000 3.733
77.66000 -0.624
77.68000 1.169
77.70000 1.083
77.72000 2.409
77.74000 -0.661
77.76000 -1.688
77.78000 3.635
77.80000 1.769
77.82000 4.103
77.84000 2.122
77.86000 1.037
77.88000 3.872
77.90000 3.821
77.92000 6.094
77.94000 5.188
77.96000 4.275
77.98000 0.317
78.00000 0.180
78.02000 -2.183
78.04000 0.556
78.06000 0.837
78.08000 3.837
78.10000 1.895
78.12000 0.409
78.14000 0.888
78.16000 1.088
78.18000 3.473
78.20000 1.839
78.22000 3.804
78.24000 4.911
78.26000 4.602
78.28000 2.207
78.30000 1.612
78.32000 3.470
78.34000 3.252
78.36000 1.895
78.38000 4.640
78.40000 6.236
78.42000 8.296
78.44000 8.099
78.46000 4.805
78.48000 5.474
78.50000 4.548
78.52000 5.470
78.54000 10.600
78.56000 7.007
78.58000 6.671
78.60000 11.038
78.62000 8.990
78.64000 12.311
78.66000 13.304
78.68000 12.772
78.70000 11.690
78.72000 10.592
78.74000 15.528
78.76000 10.681
78.78000 12.364
78.80000 18.170
78.82000 16.756
78.84000 13.923
78.86000 12.349
78.88000 14.618
78.90000 20.001
78.92000 19.789
78.94000 15.029
78.96000 20.316
78.98000 17.955
79.00000 22.722
79.02000 23.208
79.04000 24.355
79.06000 21.439
79.08000 24.618
79.10000 24.181
79.12000 24.409
79.14000 22.668
79.16000 20.267
79.18000 22.912
79.20000 22.662
79.22000 24.790
79.24000 22.887
79.26000 24.695
79.28000 27.864
79.30000 25.622
79.32000 24.328
79.34000 22.376
79.36000 23.079
79.38000 21.830
79.40000 17.457
79.42000 20.645
79.44000 18.576
79.46000 23.237
79.48000 20.382
79.50000 13.615
79.52000 10.897
79.54000 17.490
79.56000 17.394
79.58000 19.171
79.60000 14.030
79.62000 15.613
79.64000 18.917
79.66000 16.202
79.68000 15.057
79.70000 11.790
79.72000 9.314
79.74000 12.625
79.76000 15.855
79.78000 9.558
79.80000 8.873
79.82000 6.614
79.84000 7.447
79.86000 10.048
79.88000 12.325
79.90000 11.155
79.92000 11.728
79.94000 9.044
79.96000 5.165
79.98000 5.396
80.00000 7.125
80.02000 4.993
80.04000 7.308
80.06000 5.263
80.08000 2.938
80.10000 3.541
80.12000 6.341
80.14000 5.263
80.16000 4.470
80.18000 1.383
80.20000 4.621
80.22000 3.164
80.24000 4.176
80.26000 5.216
80.28000 2.522
80.30000 0.030
80.32000 2.121
80.34000 -2.341
80.36000 2.489
80.38000 -1.518
80.40000 1.174
80.42000 4.103
80.44000 2.706
80.46000 1.373
80.48000 1.817
80.50000 -0.463
80.52000 -0.097
80.54000 -0.641
80.56000 0.370
80.58000 -0.050
80.60000 1.419
80.62000 -0.252
80.64000 -2.271
80.66000 1.343
80.68000 4.089
80.70000 0.836
80.72000 3.205
80.74000 2.844
80.76000 1.592
80.78000 -0.558
80.80000 0.145
80.82000 1.238
80.84000 2.217
80.86000 3.858
80.88000 1.698
80.90000 3.768
80.92000 -2.272
80.94000 0.181
80.96000 5.407
80.98000 1.082
81.00000 -2.347
81.02000 -0.226
81.04000 -0.357
81.06000 -0.494
81.08000 0.832
81.10000 2.764
81.12000 3.680
81.14000 2.627
81.16000 7.274
81.18000 4.333
81.20000 3.035
81.22000 6.361
81.24000 3.474
81.26000 4.528
81.28000 1.055
81.30000 -2.359
81.32000 0.333
81.34000 0.469
81.36000 2.104
81.38000 3.360
81.40000 3.884
81.42000 2.904
81.44000 3.322
81.46000 0.790
81.48000 5.140
81.50000 5.619
81.52000 3.503
81.54000 4.064
81.56000 1.333
81.58000 4.202
81.60000 3.936
81.62000 2.430
81.64000 2.456
81.66000 1.644
81.68000 4.363
81.70000 4.587
81.72000 1.793
81.74000 4.395
81.76000 3.694
81.78000 6.107
81.80000 3.715
81.82000 3.680
81.84000 5.438
81.86000 3.631
81.88000 6.683
81.90000 6.278
81.92000 8.051
81.94000 6.313
81.96000 6.830
81.98000 9.067
82.00000 12.091
82.02000 9.007
82.04000 7.704
82.06000 9.273
82.08000 12.160
82.10000 11.802
82.12000 9.650
82.14000 9.039
82.16000 11.571
82.18000 9.246
82.20000 9.598
82.22000 12.205
82.24000 14.500
82.26000 12.998
82.28000 10.338
82.30000 13.878
82.32000 13.910
82.34000 15.553
82.36000 17.891
82.38000 17.073
82.40000 15.225
82.42000 16.845
82.44000 17.767
82.46000 18.134
82.48000 17.651
82.50000 17.200
82.52000 17.495
82.54000 18.577
82.56000 25.900
82.58000 27.685
82.60000 28.963
82.62000 31.928
82.64000 31.298
82.66000 27.855
82.68000 29.413
82.70000 32.436
82.72000 34.197
82.74000 38.476
82.76000 39.888
82.78000 39.770
82.80000 40.857
82.82000 45.558
82.84000 44.542
82.86000 43.228
82.88000 49.110
82.90000 52.900
82.92000 55.485
82.94000 57.371
82.96000 57.963
82.98000 60.589
83.00000 64.834
83.02000 64.955
83.04000 64.846
83.06000 68.016
83.08000 64.563
83.10000 64.890
83.12000 73.836
83.14000 79.526
83.16000 77.760
83.18000 77.926
83.20000 78.650
83.22000 79.955
83.24000 83.056
83.26000 82.849
83.28000 86.315
83.30000 83.284
83.32000 83.790
83.34000 85.365
83.36000 81.493
83.38000 81.661
83.40000 76.229
83.42000 76.494
83.44000 77.764
83.46000 80.701
83.48000 80.973
83.50000 77.153
83.52000 73.560
83.54000 76.703
83.56000 72.507
83.58000 72.247
83.60000 63.047
83.62000 63.740
83.64000 66.089
83.66000 65.487
83.68000 62.270
83.70000 60.318
83.72000 50.020
83.74000 50.106
83.76000 43.848
83.78000 44.300
83.80000 42.019
83.82000 42.247
83.84000 43.051
83.86000 43.337
83.88000 43.751
83.90000 38.168
83.92000 30.312
83.94000 29.165
83.96000 27.160
83.98000 28.259
84.00000 23.994
84.02000 23.244
84.04000 21.264
84.06000 21.211
84.08000 25.262
84.10000 23.548
84.12000 15.617
84.14000 16.513
84.16000 20.598
84.18000 16.940
84.20000 14.613
84.22000 14.605
84.24000 13.639
84.26000 9.671
84.28000 7.983
84.30000 10.154
84.32000 9.801
84.34000 9.545
84.36000 7.979
84.38000 6.003
84.40000 5.454
84.42000 4.935
84.44000 4.319
84.46000 0.727
84.48000 4.108
84.50000 1.150
84.52000 -0.386
84.54000 0.411
84.56000 5.329
84.58000 2.568
84.60000 2.834
84.62000 4.801
84.64000 3.660
84.66000 1.523
84.68000 -0.150
84.70000 0.327
84.72000 -1.400
84.74000 -0.085
84.76000 0.728
84.78000 4.807
84.80000 3.231
84.82000 0.724
84.84000 3.559
84.86000 2.956
84.88000 5.718
84.90000 6.215
84.92000 2.358
84.94000 -2.173
84.96000 0.074
84.98000 0.780
85.00000 -0.478
85.02000 -1.546
85.04000 -1.456
85.06000 -0.724
85.08000 -2.033
85.10000 -1.624
85.12000 -1.876
85.14000 -0.029
85.16000 0.799
85.18000 1.753
85.20000 -0.881
85.22000 -1.413
85.24000 0.402
85.26000 -0.123
85.28000 0.401
85.30000 -0.256
85.32000 -0.548
85.34000 -2.118
85.36000 -1.376
85.38000 -0.894
85.40000 4.670
85.42000 1.635
85.44000 1.321
85.46000 4.305
85.48000 1.754
85.50000 -0.793
85.52000 -1.875
85.54000 0.344
85.56000 1.402
85.58000 4.280
85.60000 2.060
85.62000 2.213
85.64000 0.069
85.66000 1.187
85.68000 2.147
85.70000 0.334
85.72000 1.547
85.74000 1.029
85.76000 -1.561
85.78000 3.003
85.80000 2.166
85.82000 3.063
85.84000 3.724
85.86000 3.357
85.88000 2.047
85.90000 4.806
85.92000 6.741
85.94000 0.320
85.96000 0.016
85.98000 0.292
86.00000 0.766
86.02000 1.815
86.04000 -1.995
86.06000 -0.743
86.08000 3.307
86.10000 4.261
86.12000 3.219
86.14000 3.861
86.16000 2.627
86.18000 0.258
86.20000 1.831
86.22000 3.089
86.24000 2.457
86.26000 0.114
86.28000 -0.069
86.30000 1.699
86.32000 4.161
86.34000 3.604
86.36000 2.768
86.38000 0.882
86.40000 2.325
86.42000 1.797
86.44000 -0.075
86.46000 -0.706
86.48000 -1.096
86.50000 -0.460
86.52000 0.166
86.54000 0.682
86.56000 1.739
86.58000 0.258
86.60000 -0.427
86.62000 0.124
86.64000 0.729
86.66000 0.950
86.68000 0.374
86.70000 -1.318
86.72000 0.556
86.74000 1.263
86.76000 3.534
86.78000 0.629
86.80000 1.754
86.82000 2.126
86.84000 2.015
86.86000 1.509
86.88000 -1.240
86.90000 0.763
86.92000 2.106
86.94000 3.934
86.96000 4.290
86.98000 -0.850
87.00000 0.491
87.02000 2.165
87.04000 1.961
87.06000 0.849
87.08000 -1.607
87.10000 0.678
87.12000 4.879
87.14000 3.725
87.16000 3.835
87.18000 1.474
87.20000 -0.769
87.22000 -0.693
87.24000 1.725
87.26000 -0.931
87.28000 -1.770
87.30000 -1.221
87.32000 -0.469
87.34000 -0.106
87.36000 1.855
87.38000 -0.148
87.40000 -1.951
87.42000 0.771
87.44000 4.789
87.46000 -0.122
87.48000 -1.701
87.50000 1.219
87.52000 2.047
87.54000 2.912
87.56000 3.976
87.58000 2.922
87.60000 1.637
87.62000 3.266
87.64000 5.731
87.66000 1.354
87.68000 -0.478
87.70000 1.041
87.72000 1.280
87.74000 0.989
87.76000 0.548
87.78000 1.827
87.80000 1.959
87.82000 -0.949
87.84000 1.516
87.86000 5.662
87.88000 1.978
87.90000 2.942
87.92000 2.209
87.94000 0.801
87.96000 0.637
87.98000 3.925
88.00000 7.838
88.02000 5.901
88.04000 5.612
88.06000 3.624
88.08000 1.645
88.10000 3.283
88.12000 3.930
88.14000 0.976
88.16000 -1.918
88.18000 -0.012
88.20000 3.027
88.22000 3.664
88.24000 -0.300
88.26000 -0.671
88.28000 4.425
88.30000 2.026
88.32000 0.053
88.34000 -0.108
88.36000 2.673
88.38000 1.154
88.40000 -0.441
88.42000 1.686
88.44000 3.067
88.46000 5.120
88.48000 0.335
88.50000 0.612
88.52000 0.955
88.54000 1.343
88.56000 3.559
88.58000 2.996
88.60000 6.371
88.62000 1.442
88.64000 -1.191
88.66000 -0.015
88.68000 2.734
88.70000 1.380
88.72000 -0.084
88.74000 -1.084
88.76000 2.084
88.78000 3.590
88.80000 0.792
88.82000 0.784
88.84000 3.036
88.86000 6.455
88.88000 6.732
88.90000 1.574
88.92000 0.688
88.94000 4.242
88.96000 5.489
88.98000 2.152
89.00000 1.008
89.02000 1.742
89.04000 1.302
89.06000 0.999
89.08000 4.515
89.10000 7.094
89.12000 3.629
89.14000 5.218
89.16000 4.476
89.18000 5.853
89.20000 6.619
89.22000 5.717
89.24000 1.156
89.26000 0.312
89.28000 1.547
89.30000 4.519
89.32000 2.852
89.34000 5.379
89.36000 0.627
89.38000 3.533
89.40000 3.084
89.42000 2.248
89.44000 2.572
89.46000 -0.768
89.48000 0.742
89.50000 3.738
89.52000 1.036
89.54000 -1.851
89.56000 2.377
89.58000 3.459
89.60000 5.341
89.62000 2.289
89.64000 3.496
89.66000 6.153
89.68000 4.490
89.70000 2.952
89.72000 4.189
89.74000 5.572
89.76000 3.315
89.78000 2.960
89.80000 2.744
89.82000 2.859
89.84000 1.890
89.86000 5.063
89.88000 1.496
89.90000 1.745
89.92000 3.515
89.94000 5.679
89.96000 2.578
89.98000 -1.124
90.00000 -0.002
90.02000 2.203
90.04000 1.955
90.06000 3.208
90.08000 3.701
90.10000 4.698
90.12000 4.069
90.14000 1.134
90.16000 1.931
90.18000 1.861
90.20000 1.537
90.22000 1.285
90.24000 0.838
90.26000 3.961
90.28000 4.122
90.30000 3.035
90.32000 3.198
90.34000 5.950
90.36000 5.358
90.38000 2.149
90.40000 2.775
90.42000 1.993
90.44000 3.166
90.46000 2.623
90.48000 3.476
90.50000 4.925
90.52000 1.813
90.54000 2.443
90.56000 1.312
90.58000 -1.889
90.60000 0.957
90.62000 2.437
90.64000 2.686
90.66000 0.069
90.68000 1.075
90.70000 -1.216
90.72000 3.960
90.74000 5.141
90.76000 4.263
90.78000 1.817
90.80000 2.290
90.82000 3.316
90.84000 0.978
90.86000 2.076
90.88000 1.670
90.90000 3.393
90.92000 4.714
90.94000 5.505
90.96000 5.347
90.98000 4.911
91.00000 2.863
91.02000 1.540
91.04000 0.032
91.06000 1.189
91.08000 2.091
91.10000 3.656
91.12000 1.638
91.14000 -1.092
91.16000 -1.877
91.18000 2.557
91.20000 7.422
91.22000 7.070
91.24000 6.235
91.26000 3.981
91.28000 3.505
91.30000 5.654
91.32000 5.107
91.34000 0.444
91.36000 1.936
91.38000 3.846
91.40000 4.001
91.42000 4.932
91.44000 3.049
91.46000 0.974
91.48000 1.061
91.50000 5.065
91.52000 5.320
91.54000 5.048
91.56000 5.207
91.58000 5.610
91.60000 2.213
91.62000 0.858
91.64000 1.776
91.66000 5.787
91.68000 3.140
91.70000 6.197
91.72000 6.446
91.74000 4.494
91.76000 3.858
91.78000 8.809
91.80000 8.148
91.82000 11.884
91.84000 8.527
91.86000 5.259
91.88000 3.474
91.90000 4.553
91.92000 5.768
91.94000 4.704
91.96000 2.604
91.98000 3.167
92.00000 4.372
92.02000 1.822
92.04000 -0.431
92.06000 2.416
92.08000 2.086
92.10000 -1.840
92.12000 0.843
92.14000 5.073
92.16000 3.974
92.18000 3.359
92.20000 4.438
92.22000 6.408
92.24000 7.626
92.26000 7.762
92.28000 4.489
92.30000 4.158
92.32000 1.830
92.34000 2.994
92.36000 3.682
92.38000 4.169
92.40000 3.968
92.42000 3.980
92.44000 3.636
92.46000 -0.495
92.48000 2.493
92.50000 4.506
92.52000 6.162
92.54000 7.299
92.56000 3.596
92.58000 3.234
92.60000 3.402
92.62000 3.665
92.64000 3.738
92.66000 2.857
92.68000 4.146
92.70000 3.953
92.72000 6.822
92.74000 3.320
92.76000 2.733
92.78000 1.265
92.80000 2.446
92.82000 4.721
92.84000 4.201
92.86000 6.966
92.88000 4.522
92.90000 2.819
92.92000 5.561
92.94000 5.757
92.96000 5.269
92.98000 1.855
93.00000 3.181
93.02000 5.797
93.04000 4.163
93.06000 2.548
93.08000 2.343
93.10000 4.649
93.12000 0.908
93.14000 0.536
93.16000 3.851
93.18000 2.916
93.20000 3.341
93.22000 3.118
93.24000 3.560
93.26000 2.584
93.28000 3.453
93.30000 5.283
93.32000 6.618
93.34000 5.244
93.36000 1.935
93.38000 3.512
93.40000 6.529
93.42000 3.272
93.44000 3.965
93.46000 3.044
93.48000 4.966
93.50000 4.230
93.52000 2.312
93.54000 2.111
93.56000 2.027
93.58000 2.712
93.60000 4.496
93.62000 5.817
93.64000 6.245
93.66000 8.206
93.68000 6.319
93.70000 5.867
93.72000 5.781
93.74000 0.577
93.76000 1.344
93.78000 4.617
93.80000 4.020
93.82000 5.657
93.84000 5.418
93.86000 1.607
93.88000 3.169
93.90000 3.753
93.92000 2.657
93.94000 1.781
93.96000 5.072
93.98000 7.161
94.00000 1.385
94.02000 1.356
94.04000 0.922
94.06000 -0.132
94.08000 -1.870
94.10000 1.276
94.12000 4.299
94.14000 6.408
94.16000 5.536
94.18000 4.467
94.20000 3.077
94.22000 1.303
94.24000 2.914
94.26000 3.003
94.28000 4.194
94.30000 4.496
94.32000 2.236
94.34000 1.791
94.36000 3.537
94.38000 6.670
94.40000 5.960
94.42000 3.766
94.44000 5.330
94.46000 8.122
94.48000 5.105
94.50000 7.463
94.52000 2.644
94.54000 2.142
94.56000 3.825
94.58000 2.046
94.60000 0.999
94.62000 2.137
94.64000 3.395
94.66000 2.245
94.68000 -1.672
94.70000 0.589
94.72000 1.949
94.74000 5.690
94.76000 2.684
94.78000 3.898
94.80000 6.380
94.82000 5.610
94.84000 1.112
94.86000 -1.430
94.88000 2.295
94.90000 5.956
94.92000 7.326
94.94000 6.342
94.96000 3.731
94.98000 3.349
95.00000 4.733
95.02000 5.522
95.04000 5.652
95.06000 4.421
95.08000 -1.355
95.10000 -1.913
95.12000 -0.860
95.14000 4.799
95.16000 5.294
95.18000 2.325
95.20000 -0.137
95.22000 4.420
95.24000 2.137
95.26000 1.751
95.28000 -0.898
95.30000 0.648
95.32000 4.341
95.34000 9.169
95.36000 6.740
95.38000 4.633
95.40000 3.745
95.42000 2.520
95.44000 4.184
95.46000 5.185
95.48000 3.132
95.50000 3.304
95.52000 1.657
95.54000 3.412
95.56000 5.934
95.58000 7.756
95.60000 6.974
95.62000 3.420
95.64000 -0.864
95.66000 2.873
95.68000 1.851
95.70000 6.339
95.72000 3.803
95.74000 -0.159
95.76000 4.191
95.78000 2.995
95.80000 0.382
95.82000 4.048
95.84000 0.410
95.86000 0.277
95.88000 1.229
95.90000 1.429
95.92000 3.497
95.94000 3.685
95.96000 5.793
95.98000 7.151
96.00000 5.436
96.02000 2.142
96.04000 3.580
96.06000 5.125
96.08000 5.275
96.10000 6.033
96.12000 5.580
96.14000 7.300
96.16000 1.704
96.18000 0.295
96.20000 0.409
96.22000 5.217
96.24000 9.096
96.26000 7.329
96.28000 0.416
96.30000 -0.621
96.32000 3.050
96.34000 5.540
96.36000 3.784
96.38000 0.921
96.40000 2.570
96.42000 5.018
96.44000 8.732
96.46000 9.526
96.48000 4.182
96.50000 -1.899
96.52000 2.978
96.54000 3.269
96.56000 2.550
96.58000 4.884
96.60000 3.416
96.62000 4.212
96.64000 4.127
96.66000 3.915
96.68000 3.028
96.70000 3.486
96.72000 4.681
96.74000 5.597
96.76000 5.292
96.78000 3.616
96.80000 4.910
96.82000 -1.236
96.84000 0.446
96.86000 4.002
96.88000 7.195
96.90000 2.753
96.92000 1.665
96.94000 -0.139
96.96000 3.907
96.98000 4.737
97.00000 3.300
97.02000 5.608
97.04000 5.726
97.06000 -0.034
97.08000 4.460
97.10000 4.982
97.12000 2.676
97.14000 4.269
97.16000 4.010
97.18000 -0.460
97.20000 2.631
97.22000 1.003
97.24000 2.852
97.26000 3.928
97.28000 2.182
97.30000 0.052
97.32000 2.958
97.34000 2.151
97.36000 2.375
97.38000 2.793
97.40000 5.086
97.42000 6.234
97.44000 3.602
97.46000 4.153
97.48000 1.198
97.50000 5.134
97.52000 3.928
97.54000 2.352
97.56000 4.585
97.58000 7.034
97.60000 4.609
97.62000 0.553
97.64000 3.551
97.66000 5.180
97.68000 6.680
97.70000 8.717
97.72000 3.289
97.74000 3.019
97.76000 7.779
97.78000 7.265
97.80000 -1.894
97.82000 2.025
97.84000 6.086
97.86000 8.763
97.88000 5.996
97.90000 1.602
97.92000 -0.642
97.94000 -0.826
97.96000 2.688
97.98000 -0.402
98.00000 3.606
98.02000 10.702
98.04000 4.908
98.06000 3.149
98.08000 1.284
98.10000 2.112
98.12000 4.088
98.14000 5.416
98.16000 7.459
98.18000 5.088
98.20000 7.900
98.22000 6.147
98.24000 0.590
98.26000 1.998
98.28000 0.634
98.30000 2.212
98.32000 3.224
98.34000 6.889
98.36000 3.810
98.38000 3.510
98.40000 4.457
98.42000 3.275
98.44000 1.064
98.46000 0.144
98.48000 -0.202
98.50000 3.007
98.52000 2.658
98.54000 4.645
98.56000 4.006
98.58000 5.891
98.60000 8.242
98.62000 4.544
98.64000 5.388
98.66000 6.145
98.68000 0.808
98.70000 -0.768
98.72000 -0.893
98.74000 0.775
98.76000 4.574
98.78000 4.810
98.80000 2.303
98.82000 1.527
98.84000 2.911
98.86000 3.206
98.88000 3.998
98.90000 3.228
98.92000 5.170
98.94000 9.756
98.96000 7.870
98.98000 9.631
99.00000 9.065
99.02000 5.088
99.04000 4.041
99.06000 9.216
99.08000 9.748
99.10000 8.068
99.12000 8.502
99.14000 6.272
99.16000 6.945
99.18000 4.796
99.20000 8.748
99.22000 8.675
99.24000 12.025
99.26000 10.200
99.28000 6.988
99.30000 9.631
99.32000 2.735
99.34000 -0.206
99.36000 0.571
99.38000 3.539
99.40000 2.506
99.42000 7.017
99.44000 2.311
99.46000 2.347
99.48000 6.230
99.50000 9.611
99.52000 7.484
99.54000 7.169
99.56000 17.444
99.58000 13.584
99.60000 11.209
99.62000 13.296
99.64000 13.091
99.66000 11.662
99.68000 0.766
99.70000 -1.804
99.72000 2.233
99.74000 8.878
99.76000 10.471
99.78000 11.281
99.80000 9.223
99.82000 2.501
99.84000 3.465
99.86000 6.071
99.88000 -2.038
99.90000 0.020
99.92000 1.503
99.94000 1.199
99.96000 6.342
99.98000 0.000
