'Id: "0011388" Comment: "Integrate frame 0011388_Au-Ir-Rh_Rh-rich_XRD-Mapping-124-0000.gfrmwith cursor Wedge Cursor #5" Operator: "B?rgel" Anode: "Cu" Wavelength: "1.5406" Scantype: "2Theta (TwoTheta)" TimePerStep: "1" X: "-4.5" Y: "-9" Z: "5.95" 
10.00000 0.000
10.02000 2.743
10.04000 6.372
10.06000 12.140
10.08000 11.685
10.10000 24.725
10.12000 28.572
10.14000 25.365
10.16000 14.726
10.18000 12.550
10.20000 22.132
10.22000 27.650
10.24000 16.703
10.26000 15.459
10.28000 21.383
10.30000 23.206
10.32000 14.804
10.34000 23.629
10.36000 20.554
10.38000 14.964
10.40000 5.606
10.42000 22.625
10.44000 23.397
10.46000 26.717
10.48000 28.059
10.50000 18.760
10.52000 29.007
10.54000 23.420
10.56000 18.910
10.58000 13.540
10.60000 13.945
10.62000 20.237
10.64000 16.699
10.66000 27.158
10.68000 22.421
10.70000 10.792
10.72000 -0.275
10.74000 15.949
10.76000 17.971
10.78000 11.894
10.80000 19.589
10.82000 26.438
10.84000 10.431
10.86000 11.629
10.88000 31.577
10.90000 21.566
10.92000 10.638
10.94000 13.421
10.96000 16.735
10.98000 12.748
11.00000 13.916
11.02000 12.684
11.04000 17.254
11.06000 17.643
11.08000 8.272
11.10000 13.710
11.12000 11.259
11.14000 9.080
11.16000 24.308
11.18000 6.457
11.20000 4.756
11.22000 9.358
11.24000 5.854
11.26000 9.915
11.28000 16.042
11.30000 9.827
11.32000 17.651
11.34000 19.584
11.36000 24.128
11.38000 14.263
11.40000 14.140
11.42000 7.709
11.44000 11.464
11.46000 22.428
11.48000 23.282
11.50000 11.071
11.52000 9.367
11.54000 8.599
11.56000 10.248
11.58000 14.718
11.60000 10.774
11.62000 9.472
11.64000 20.331
11.66000 19.575
11.68000 13.148
11.70000 12.950
11.72000 15.291
11.74000 22.777
11.76000 10.602
11.78000 2.617
11.80000 13.116
11.82000 18.411
11.84000 16.241
11.86000 14.332
11.88000 14.883
11.90000 22.051
11.92000 13.772
11.94000 15.390
11.96000 18.006
11.98000 20.044
12.00000 9.634
12.02000 9.538
12.04000 8.232
12.06000 13.915
12.08000 13.935
12.10000 11.933
12.12000 14.387
12.14000 15.544
12.16000 10.165
12.18000 4.988
12.20000 11.530
12.22000 14.709
12.24000 10.675
12.26000 10.452
12.28000 16.298
12.30000 11.479
12.32000 10.501
12.34000 14.098
12.36000 20.569
12.38000 24.525
12.40000 20.266
12.42000 26.674
12.44000 23.732
12.46000 12.387
12.48000 3.539
12.50000 13.983
12.52000 22.520
12.54000 12.714
12.56000 5.938
12.58000 4.789
12.60000 -0.957
12.62000 14.303
12.64000 24.243
12.66000 17.535
12.68000 18.174
12.70000 17.339
12.72000 14.813
12.74000 13.939
12.76000 15.353
12.78000 16.322
12.80000 12.235
12.82000 12.060
12.84000 16.104
12.86000 21.059
12.88000 14.718
12.90000 10.889
12.92000 11.063
12.94000 10.052
12.96000 12.601
12.98000 16.812
13.00000 18.700
13.02000 22.958
13.04000 23.096
13.06000 21.402
13.08000 17.755
13.10000 8.776
13.12000 8.541
13.14000 7.263
13.16000 3.436
13.18000 13.976
13.20000 22.187
13.22000 10.951
13.24000 8.575
13.26000 8.729
13.28000 8.066
13.30000 8.356
13.32000 9.012
13.34000 9.544
13.36000 10.585
13.38000 12.622
13.40000 11.552
13.42000 11.647
13.44000 19.262
13.46000 6.160
13.48000 8.566
13.50000 17.905
13.52000 19.502
13.54000 21.109
13.56000 18.219
13.58000 22.550
13.60000 16.109
13.62000 13.289
13.64000 12.890
13.66000 8.618
13.68000 9.923
13.70000 16.607
13.72000 12.726
13.74000 18.588
13.76000 13.554
13.78000 6.750
13.80000 9.325
13.82000 14.856
13.84000 2.992
13.86000 -0.819
13.88000 7.224
13.90000 10.999
13.92000 14.577
13.94000 12.740
13.96000 10.343
13.98000 23.750
14.00000 12.514
14.02000 5.513
14.04000 1.973
14.06000 4.209
14.08000 14.370
14.10000 11.339
14.12000 8.000
14.14000 13.215
14.16000 14.097
14.18000 10.431
14.20000 12.972
14.22000 12.675
14.24000 8.929
14.26000 12.534
14.28000 16.491
14.30000 16.207
14.32000 14.050
14.34000 19.235
14.36000 22.773
14.38000 18.739
14.40000 14.959
14.42000 7.006
14.44000 4.121
14.46000 10.312
14.48000 7.039
14.50000 9.988
14.52000 10.126
14.54000 9.322
14.56000 10.420
14.58000 13.168
14.60000 16.445
14.62000 16.844
14.64000 8.100
14.66000 9.161
14.68000 8.511
14.70000 7.900
14.72000 12.568
14.74000 4.315
14.76000 -4.426
14.78000 1.752
14.80000 12.875
14.82000 18.696
14.84000 12.405
14.86000 8.812
14.88000 5.032
14.90000 9.274
14.92000 15.153
14.94000 9.060
14.96000 7.101
14.98000 7.412
15.00000 4.626
15.02000 4.895
15.04000 12.418
15.06000 10.296
15.08000 11.002
15.10000 7.886
15.12000 0.028
15.14000 2.103
15.16000 16.320
15.18000 19.632
15.20000 7.396
15.22000 5.132
15.24000 7.790
15.26000 7.883
15.28000 12.762
15.30000 17.247
15.32000 13.558
15.34000 3.651
15.36000 12.513
15.38000 10.724
15.40000 0.988
15.42000 2.470
15.44000 8.463
15.46000 14.594
15.48000 14.032
15.50000 6.387
15.52000 8.663
15.54000 6.065
15.56000 7.445
15.58000 -4.399
15.60000 1.337
15.62000 7.984
15.64000 9.826
15.66000 14.599
15.68000 20.773
15.70000 11.188
15.72000 9.455
15.74000 6.887
15.76000 7.870
15.78000 -2.583
15.80000 13.820
15.82000 21.797
15.84000 12.761
15.86000 8.288
15.88000 10.735
15.90000 10.450
15.92000 15.287
15.94000 9.732
15.96000 6.450
15.98000 9.785
16.00000 8.936
16.02000 5.043
16.04000 -1.737
16.06000 0.878
16.08000 6.478
16.10000 11.695
16.12000 10.802
16.14000 11.012
16.16000 4.487
16.18000 4.357
16.20000 3.870
16.22000 6.216
16.24000 0.388
16.26000 -3.851
16.28000 -1.587
16.30000 3.725
16.32000 10.489
16.34000 11.807
16.36000 7.749
16.38000 11.204
16.40000 7.203
16.42000 5.386
16.44000 9.434
16.46000 6.232
16.48000 3.973
16.50000 7.542
16.52000 15.942
16.54000 9.180
16.56000 4.227
16.58000 4.376
16.60000 7.762
16.62000 12.301
16.64000 15.058
16.66000 11.687
16.68000 13.838
16.70000 14.662
16.72000 3.830
16.74000 2.163
16.76000 5.302
16.78000 0.838
16.80000 -3.751
16.82000 -1.865
16.84000 1.026
16.86000 2.558
16.88000 5.866
16.90000 13.646
16.92000 7.892
16.94000 1.695
16.96000 8.117
16.98000 5.907
17.00000 8.837
17.02000 3.699
17.04000 -1.093
17.06000 4.655
17.08000 5.322
17.10000 8.085
17.12000 13.728
17.14000 4.599
17.16000 4.959
17.18000 10.587
17.20000 14.991
17.22000 11.015
17.24000 11.813
17.26000 9.861
17.28000 5.400
17.30000 -0.732
17.32000 7.567
17.34000 6.275
17.36000 7.222
17.38000 3.139
17.40000 2.283
17.42000 5.285
17.44000 4.886
17.46000 2.049
17.48000 1.755
17.50000 0.969
17.52000 2.565
17.54000 -0.030
17.56000 6.064
17.58000 7.151
17.60000 9.854
17.62000 7.612
17.64000 -2.298
17.66000 -4.331
17.68000 7.589
17.70000 10.156
17.72000 10.429
17.74000 6.100
17.76000 7.444
17.78000 8.119
17.80000 9.730
17.82000 8.077
17.84000 9.435
17.86000 6.898
17.88000 4.820
17.90000 5.387
17.92000 9.392
17.94000 5.923
17.96000 3.863
17.98000 8.083
18.00000 14.071
18.02000 16.756
18.04000 11.073
18.06000 4.574
18.08000 6.351
18.10000 -0.221
18.12000 -4.311
18.14000 -2.270
18.16000 -2.255
18.18000 2.824
18.20000 13.232
18.22000 13.164
18.24000 2.514
18.26000 3.114
18.28000 5.484
18.30000 2.156
18.32000 0.456
18.34000 -3.260
18.36000 2.770
18.38000 8.600
18.40000 4.050
18.42000 2.107
18.44000 5.090
18.46000 4.717
18.48000 9.425
18.50000 14.118
18.52000 10.789
18.54000 3.481
18.56000 0.472
18.58000 0.228
18.60000 9.971
18.62000 4.401
18.64000 -0.726
18.66000 -2.293
18.68000 -1.749
18.70000 3.887
18.72000 6.030
18.74000 4.543
18.76000 7.052
18.78000 6.551
18.80000 1.552
18.82000 4.791
18.84000 6.895
18.86000 4.754
18.88000 8.064
18.90000 6.208
18.92000 7.900
18.94000 11.693
18.96000 5.825
18.98000 -2.064
19.00000 -0.199
19.02000 1.483
19.04000 8.658
19.06000 6.140
19.08000 5.365
19.10000 3.118
19.12000 2.191
19.14000 2.920
19.16000 7.074
19.18000 8.326
19.20000 10.453
19.22000 6.648
19.24000 0.897
19.26000 2.357
19.28000 3.352
19.30000 3.558
19.32000 2.969
19.34000 3.637
19.36000 2.583
19.38000 -0.672
19.40000 3.537
19.42000 0.302
19.44000 3.875
19.46000 9.086
19.48000 5.766
19.50000 4.816
19.52000 4.730
19.54000 2.302
19.56000 -2.235
19.58000 -2.397
19.60000 3.518
19.62000 5.983
19.64000 5.432
19.66000 5.693
19.68000 7.865
19.70000 10.484
19.72000 1.840
19.74000 6.321
19.76000 9.986
19.78000 9.550
19.80000 1.838
19.82000 -2.704
19.84000 1.338
19.86000 5.524
19.88000 2.895
19.90000 6.592
19.92000 10.094
19.94000 6.904
19.96000 3.579
19.98000 3.172
20.00000 2.857
20.02000 -4.222
20.04000 0.385
20.06000 1.751
20.08000 4.675
20.10000 5.882
20.12000 -1.019
20.14000 4.173
20.16000 8.301
20.18000 2.307
20.20000 8.560
20.22000 4.886
20.24000 -3.978
20.26000 1.815
20.28000 5.356
20.30000 6.487
20.32000 7.230
20.34000 12.187
20.36000 5.027
20.38000 1.878
20.40000 3.331
20.42000 1.367
20.44000 2.879
20.46000 9.440
20.48000 9.473
20.50000 5.831
20.52000 3.226
20.54000 2.407
20.56000 2.473
20.58000 0.434
20.60000 3.951
20.62000 4.636
20.64000 6.801
20.66000 7.201
20.68000 2.105
20.70000 2.336
20.72000 3.063
20.74000 7.658
20.76000 2.949
20.78000 -0.105
20.80000 4.315
20.82000 6.417
20.84000 1.797
20.86000 5.394
20.88000 4.755
20.90000 -1.650
20.92000 -2.235
20.94000 5.505
20.96000 2.784
20.98000 -1.156
21.00000 -0.427
21.02000 8.214
21.04000 2.293
21.06000 -2.293
21.08000 5.070
21.10000 5.346
21.12000 -0.802
21.14000 -4.169
21.16000 -3.917
21.18000 -4.081
21.20000 -2.356
21.22000 0.833
21.24000 -0.095
21.26000 -2.262
21.28000 -0.286
21.30000 0.917
21.32000 -0.217
21.34000 -0.239
21.36000 3.694
21.38000 3.535
21.40000 4.099
21.42000 1.760
21.44000 9.235
21.46000 7.376
21.48000 6.390
21.50000 -0.753
21.52000 -2.636
21.54000 -3.790
21.56000 0.119
21.58000 7.092
21.60000 15.427
21.62000 4.204
21.64000 -0.272
21.66000 4.451
21.68000 3.846
21.70000 2.644
21.72000 3.334
21.74000 1.222
21.76000 8.440
21.78000 6.422
21.80000 -0.051
21.82000 3.526
21.84000 -2.374
21.86000 5.452
21.88000 10.471
21.90000 9.765
21.92000 1.112
21.94000 -1.282
21.96000 -4.128
21.98000 -2.303
22.00000 1.048
22.02000 5.952
22.04000 0.660
22.06000 5.250
22.08000 7.418
22.10000 1.356
22.12000 1.429
22.14000 3.658
22.16000 3.831
22.18000 5.811
22.20000 9.117
22.22000 8.940
22.24000 0.592
22.26000 0.520
22.28000 2.642
22.30000 8.089
22.32000 5.079
22.34000 4.589
22.36000 6.727
22.38000 5.474
22.40000 0.882
22.42000 -0.391
22.44000 0.690
22.46000 0.145
22.48000 7.244
22.50000 7.643
22.52000 10.019
22.54000 6.351
22.56000 0.083
22.58000 0.266
22.60000 4.031
22.62000 4.128
22.64000 -0.283
22.66000 2.948
22.68000 0.932
22.70000 2.187
22.72000 0.369
22.74000 3.322
22.76000 9.241
22.78000 -0.302
22.80000 0.021
22.82000 4.876
22.84000 2.118
22.86000 3.074
22.88000 5.282
22.90000 3.099
22.92000 6.642
22.94000 2.979
22.96000 3.420
22.98000 8.469
23.00000 8.915
23.02000 6.334
23.04000 7.577
23.06000 1.400
23.08000 1.497
23.10000 4.736
23.12000 5.255
23.14000 1.160
23.16000 0.599
23.18000 2.580
23.20000 0.627
23.22000 1.652
23.24000 8.564
23.26000 3.589
23.28000 5.677
23.30000 6.458
23.32000 3.698
23.34000 -4.043
23.36000 -3.260
23.38000 0.241
23.40000 3.963
23.42000 5.959
23.44000 6.967
23.46000 4.955
23.48000 7.186
23.50000 0.167
23.52000 -2.223
23.54000 -2.672
23.56000 1.333
23.58000 3.961
23.60000 8.978
23.62000 6.632
23.64000 1.519
23.66000 2.005
23.68000 0.843
23.70000 3.497
23.72000 8.189
23.74000 9.037
23.76000 7.300
23.78000 -4.027
23.80000 1.041
23.82000 -0.338
23.84000 1.009
23.86000 7.070
23.88000 -0.406
23.90000 -1.803
23.92000 -3.980
23.94000 1.427
23.96000 7.089
23.98000 4.325
24.00000 6.714
24.02000 7.018
24.04000 5.544
24.06000 3.460
24.08000 0.881
24.10000 -2.219
24.12000 1.482
24.14000 7.111
24.16000 -0.584
24.18000 5.236
24.20000 6.872
24.22000 1.936
24.24000 -0.476
24.26000 0.952
24.28000 1.608
24.30000 3.468
24.32000 2.196
24.34000 1.891
24.36000 5.053
24.38000 1.694
24.40000 -0.887
24.42000 1.962
24.44000 4.058
24.46000 1.061
24.48000 2.729
24.50000 0.877
24.52000 10.303
24.54000 8.968
24.56000 4.523
24.58000 2.621
24.60000 1.085
24.62000 7.340
24.64000 0.419
24.66000 -0.865
24.68000 1.086
24.70000 -0.685
24.72000 -1.980
24.74000 2.854
24.76000 0.637
24.78000 -0.276
24.80000 -3.088
24.82000 -0.688
24.84000 7.696
24.86000 3.753
24.88000 1.217
24.90000 5.234
24.92000 2.295
24.94000 3.565
24.96000 2.928
24.98000 1.027
25.00000 2.307
25.02000 7.051
25.04000 3.963
25.06000 -1.026
25.08000 0.245
25.10000 2.634
25.12000 -1.672
25.14000 -2.452
25.16000 1.008
25.18000 2.108
25.20000 3.048
25.22000 0.161
25.24000 2.128
25.26000 2.124
25.28000 4.415
25.30000 0.528
25.32000 -1.318
25.34000 5.860
25.36000 3.532
25.38000 4.716
25.40000 3.242
25.42000 -3.949
25.44000 2.162
25.46000 5.499
25.48000 2.412
25.50000 2.596
25.52000 8.009
25.54000 9.421
25.56000 6.262
25.58000 0.713
25.60000 1.091
25.62000 5.915
25.64000 9.396
25.66000 0.110
25.68000 2.832
25.70000 6.835
25.72000 5.638
25.74000 -1.006
25.76000 3.332
25.78000 7.757
25.80000 1.373
25.82000 -2.722
25.84000 -1.043
25.86000 -1.199
25.88000 1.708
25.90000 3.889
25.92000 2.259
25.94000 1.054
25.96000 2.442
25.98000 8.546
26.00000 1.356
26.02000 -3.904
26.04000 0.213
26.06000 1.858
26.08000 1.400
26.10000 -3.118
26.12000 1.557
26.14000 2.932
26.16000 1.995
26.18000 6.905
26.20000 4.999
26.22000 -0.125
26.24000 -0.556
26.26000 3.806
26.28000 3.724
26.30000 3.009
26.32000 2.149
26.34000 0.403
26.36000 5.375
26.38000 3.677
26.40000 2.385
26.42000 0.245
26.44000 -1.735
26.46000 -2.024
26.48000 5.900
26.50000 2.428
26.52000 4.462
26.54000 9.405
26.56000 5.085
26.58000 2.284
26.60000 9.647
26.62000 6.206
26.64000 -0.727
26.66000 3.713
26.68000 1.913
26.70000 1.012
26.72000 3.061
26.74000 3.287
26.76000 3.294
26.78000 2.354
26.80000 2.933
26.82000 1.188
26.84000 2.135
26.86000 4.790
26.88000 0.865
26.90000 1.190
26.92000 3.455
26.94000 5.592
26.96000 2.424
26.98000 -3.823
27.00000 -2.168
27.02000 2.615
27.04000 4.700
27.06000 7.607
27.08000 -0.698
27.10000 1.844
27.12000 4.660
27.14000 0.264
27.16000 3.319
27.18000 9.276
27.20000 7.428
27.22000 8.362
27.24000 6.772
27.26000 1.489
27.28000 -0.366
27.30000 4.340
27.32000 2.759
27.34000 6.523
27.36000 10.075
27.38000 6.276
27.40000 4.833
27.42000 0.910
27.44000 -1.363
27.46000 1.207
27.48000 3.475
27.50000 2.574
27.52000 3.061
27.54000 7.108
27.56000 5.445
27.58000 5.379
27.60000 -0.068
27.62000 1.648
27.64000 3.482
27.66000 1.832
27.68000 -1.371
27.70000 1.315
27.72000 0.019
27.74000 2.249
27.76000 10.226
27.78000 7.247
27.80000 3.212
27.82000 2.339
27.84000 0.637
27.86000 3.102
27.88000 5.659
27.90000 -0.199
27.92000 0.066
27.94000 3.602
27.96000 1.218
27.98000 0.823
28.00000 3.909
28.02000 1.187
28.04000 3.494
28.06000 0.465
28.08000 0.849
28.10000 -0.856
28.12000 2.015
28.14000 2.456
28.16000 4.177
28.18000 4.025
28.20000 4.805
28.22000 0.978
28.24000 1.988
28.26000 1.994
28.28000 3.070
28.30000 -0.970
28.32000 0.994
28.34000 2.323
28.36000 -0.792
28.38000 -2.981
28.40000 -3.778
28.42000 -1.609
28.44000 -2.386
28.46000 3.083
28.48000 5.735
28.50000 6.681
28.52000 4.302
28.54000 1.599
28.56000 -0.975
28.58000 -1.097
28.60000 2.117
28.62000 -1.327
28.64000 -1.159
28.66000 2.259
28.68000 4.272
28.70000 8.650
28.72000 1.568
28.74000 1.362
28.76000 4.977
28.78000 2.312
28.80000 5.846
28.82000 4.611
28.84000 7.315
28.86000 5.886
28.88000 1.053
28.90000 2.276
28.92000 7.743
28.94000 1.034
28.96000 -3.619
28.98000 0.923
29.00000 6.374
29.02000 5.598
29.04000 4.539
29.06000 0.332
29.08000 3.744
29.10000 4.067
29.12000 4.000
29.14000 7.904
29.16000 7.078
29.18000 3.594
29.20000 3.054
29.22000 4.873
29.24000 0.498
29.26000 0.896
29.28000 5.017
29.30000 8.947
29.32000 5.403
29.34000 5.258
29.36000 7.916
29.38000 5.973
29.40000 0.132
29.42000 1.437
29.44000 4.001
29.46000 9.065
29.48000 9.457
29.50000 6.559
29.52000 -0.871
29.54000 -3.686
29.56000 0.983
29.58000 3.452
29.60000 8.882
29.62000 3.312
29.64000 0.315
29.66000 1.603
29.68000 7.188
29.70000 5.211
29.72000 -0.506
29.74000 -0.386
29.76000 3.262
29.78000 6.507
29.80000 1.958
29.82000 2.614
29.84000 1.257
29.86000 3.502
29.88000 -1.537
29.90000 0.000
29.92000 4.042
29.94000 5.053
29.96000 3.582
29.98000 -0.357
30.00000 1.395
30.02000 -0.106
30.04000 0.104
30.06000 -0.562
30.08000 0.780
30.10000 1.096
30.12000 -0.355
30.14000 2.182
30.16000 5.704
30.18000 3.227
30.20000 1.291
30.22000 3.708
30.24000 9.132
30.26000 3.436
30.28000 -0.952
30.30000 -0.424
30.32000 1.740
30.34000 -0.751
30.36000 -0.294
30.38000 4.616
30.40000 4.159
30.42000 0.557
30.44000 4.764
30.46000 5.620
30.48000 4.499
30.50000 0.348
30.52000 0.485
30.54000 5.001
30.56000 4.609
30.58000 4.214
30.60000 4.007
30.62000 4.228
30.64000 6.340
30.66000 4.368
30.68000 4.430
30.70000 4.083
30.72000 6.057
30.74000 2.501
30.76000 1.111
30.78000 4.020
30.80000 2.800
30.82000 2.232
30.84000 1.627
30.86000 -1.237
30.88000 2.039
30.90000 0.693
30.92000 -3.086
30.94000 1.317
30.96000 8.032
30.98000 1.190
31.00000 1.039
31.02000 -1.710
31.04000 -3.662
31.06000 -0.990
31.08000 3.517
31.10000 1.638
31.12000 0.238
31.14000 -0.563
31.16000 -3.533
31.18000 0.664
31.20000 3.343
31.22000 0.158
31.24000 3.453
31.26000 5.244
31.28000 -1.431
31.30000 -0.026
31.32000 0.109
31.34000 3.050
31.36000 2.432
31.38000 3.366
31.40000 -1.237
31.42000 0.872
31.44000 1.723
31.46000 1.515
31.48000 1.920
31.50000 3.025
31.52000 2.427
31.54000 -2.611
31.56000 -0.076
31.58000 1.639
31.60000 1.989
31.62000 5.399
31.64000 2.125
31.66000 -1.703
31.68000 1.768
31.70000 2.636
31.72000 3.337
31.74000 3.493
31.76000 2.852
31.78000 2.948
31.80000 1.743
31.82000 1.523
31.84000 0.017
31.86000 -0.744
31.88000 2.241
31.90000 8.289
31.92000 8.970
31.94000 9.267
31.96000 6.186
31.98000 9.341
32.00000 5.432
32.02000 5.482
32.04000 4.913
32.06000 1.989
32.08000 -0.411
32.10000 -3.595
32.12000 -0.608
32.14000 -0.758
32.16000 1.582
32.18000 0.383
32.20000 0.610
32.22000 4.665
32.24000 4.479
32.26000 1.666
32.28000 -2.189
32.30000 2.207
32.32000 5.830
32.34000 3.851
32.36000 -2.029
32.38000 -2.090
32.40000 2.781
32.42000 3.329
32.44000 -1.423
32.46000 -2.304
32.48000 -1.125
32.50000 1.314
32.52000 -3.581
32.54000 -0.694
32.56000 6.092
32.58000 9.608
32.60000 5.550
32.62000 5.262
32.64000 4.882
32.66000 2.873
32.68000 -1.759
32.70000 4.992
32.72000 7.918
32.74000 10.810
32.76000 5.708
32.78000 8.125
32.80000 8.111
32.82000 0.726
32.84000 3.367
32.86000 2.896
32.88000 5.549
32.90000 -0.521
32.92000 8.104
32.94000 10.569
32.96000 8.875
32.98000 5.948
33.00000 3.418
33.02000 5.972
33.04000 5.319
33.06000 1.618
33.08000 -0.952
33.10000 4.564
33.12000 2.547
33.14000 1.547
33.16000 5.098
33.18000 10.567
33.20000 7.255
33.22000 5.266
33.24000 7.748
33.26000 4.551
33.28000 -1.874
33.30000 -3.552
33.32000 1.718
33.34000 2.447
33.36000 4.657
33.38000 6.456
33.40000 3.972
33.42000 6.226
33.44000 2.639
33.46000 1.264
33.48000 5.659
33.50000 4.328
33.52000 4.559
33.54000 5.681
33.56000 2.859
33.58000 3.783
33.60000 5.451
33.62000 6.123
33.64000 4.214
33.66000 0.661
33.68000 5.501
33.70000 4.924
33.72000 2.747
33.74000 3.544
33.76000 6.754
33.78000 5.045
33.80000 1.786
33.82000 1.730
33.84000 6.598
33.86000 9.650
33.88000 9.909
33.90000 10.931
33.92000 10.192
33.94000 8.090
33.96000 8.123
33.98000 4.776
34.00000 3.811
34.02000 7.750
34.04000 1.959
34.06000 0.531
34.08000 0.062
34.10000 1.403
34.12000 1.460
34.14000 1.121
34.16000 5.438
34.18000 6.300
34.20000 2.706
34.22000 6.437
34.24000 5.725
34.26000 1.731
34.28000 0.579
34.30000 4.800
34.32000 7.155
34.34000 6.723
34.36000 4.243
34.38000 -2.084
34.40000 3.299
34.42000 3.786
34.44000 5.797
34.46000 6.347
34.48000 11.278
34.50000 10.890
34.52000 9.023
34.54000 4.579
34.56000 -0.230
34.58000 -1.587
34.60000 0.317
34.62000 2.745
34.64000 1.960
34.66000 0.660
34.68000 2.270
34.70000 4.232
34.72000 2.812
34.74000 5.587
34.76000 4.392
34.78000 3.394
34.80000 4.970
34.82000 4.619
34.84000 5.495
34.86000 5.058
34.88000 5.882
34.90000 7.826
34.92000 9.521
34.94000 8.189
34.96000 4.814
34.98000 10.816
35.00000 6.728
35.02000 0.312
35.04000 3.322
35.06000 1.693
35.08000 4.440
35.10000 5.767
35.12000 8.612
35.14000 8.086
35.16000 4.112
35.18000 -3.488
35.20000 -0.110
35.22000 6.623
35.24000 2.271
35.26000 -0.791
35.28000 -2.069
35.30000 4.226
35.32000 6.074
35.34000 4.960
35.36000 8.104
35.38000 11.050
35.40000 7.653
35.42000 3.777
35.44000 3.264
35.46000 2.645
35.48000 -1.709
35.50000 1.604
35.52000 3.261
35.54000 3.518
35.56000 1.447
35.58000 0.295
35.60000 4.437
35.62000 4.285
35.64000 3.034
35.66000 3.591
35.68000 -0.750
35.70000 3.409
35.72000 2.631
35.74000 2.647
35.76000 4.916
35.78000 4.130
35.80000 -0.410
35.82000 -2.197
35.84000 -0.769
35.86000 3.378
35.88000 3.417
35.90000 -0.062
35.92000 -2.668
35.94000 -0.331
35.96000 0.735
35.98000 1.895
36.00000 1.144
36.02000 -2.218
36.04000 4.842
36.06000 7.923
36.08000 3.337
36.10000 4.360
36.12000 -1.408
36.14000 -3.514
36.16000 -0.538
36.18000 1.230
36.20000 4.534
36.22000 8.179
36.24000 6.250
36.26000 -1.331
36.28000 1.798
36.30000 5.220
36.32000 1.327
36.34000 -1.609
36.36000 4.529
36.38000 7.768
36.40000 3.270
36.42000 2.634
36.44000 4.023
36.46000 -0.856
36.48000 -2.137
36.50000 -3.154
36.52000 -2.526
36.54000 -2.430
36.56000 3.294
36.58000 3.614
36.60000 0.060
36.62000 2.782
36.64000 -0.039
36.66000 4.217
36.68000 0.258
36.70000 3.206
36.72000 2.677
36.74000 0.212
36.76000 -1.909
36.78000 2.688
36.80000 3.867
36.82000 3.099
36.84000 0.655
36.86000 0.385
36.88000 2.144
36.90000 0.016
36.92000 2.390
36.94000 3.659
36.96000 -2.284
36.98000 -3.533
37.00000 0.285
37.02000 2.149
37.04000 0.642
37.06000 1.902
37.08000 4.633
37.10000 3.058
37.12000 3.840
37.14000 -0.729
37.16000 0.049
37.18000 4.926
37.20000 5.511
37.22000 3.230
37.24000 5.389
37.26000 3.657
37.28000 1.853
37.30000 3.205
37.32000 2.583
37.34000 6.048
37.36000 1.341
37.38000 -1.104
37.40000 0.259
37.42000 -0.751
37.44000 -2.163
37.46000 -0.772
37.48000 -2.568
37.50000 -1.778
37.52000 -2.873
37.54000 2.760
37.56000 2.907
37.58000 -0.638
37.60000 0.450
37.62000 0.798
37.64000 -3.598
37.66000 0.190
37.68000 1.131
37.70000 1.933
37.72000 -0.292
37.74000 5.518
37.76000 7.751
37.78000 7.890
37.80000 4.563
37.82000 -1.043
37.84000 -0.330
37.86000 2.540
37.88000 4.933
37.90000 5.032
37.92000 3.176
37.94000 1.864
37.96000 4.373
37.98000 8.588
38.00000 8.022
38.02000 11.884
38.04000 13.189
38.06000 10.364
38.08000 7.525
38.10000 9.725
38.12000 6.129
38.14000 1.788
38.16000 10.442
38.18000 7.587
38.20000 13.289
38.22000 12.023
38.24000 11.953
38.26000 10.949
38.28000 11.286
38.30000 9.220
38.32000 7.386
38.34000 4.822
38.36000 7.710
38.38000 10.343
38.40000 13.725
38.42000 8.697
38.44000 7.156
38.46000 9.660
38.48000 14.278
38.50000 19.312
38.52000 16.010
38.54000 10.263
38.56000 13.456
38.58000 13.583
38.60000 13.460
38.62000 14.311
38.64000 15.980
38.66000 15.816
38.68000 12.580
38.70000 11.084
38.72000 14.774
38.74000 17.731
38.76000 16.922
38.78000 23.047
38.80000 25.308
38.82000 23.819
38.84000 19.118
38.86000 21.062
38.88000 24.948
38.90000 27.574
38.92000 24.346
38.94000 25.255
38.96000 24.149
38.98000 26.613
39.00000 30.059
39.02000 29.268
39.04000 26.187
39.06000 29.115
39.08000 33.482
39.10000 34.888
39.12000 37.151
39.14000 38.074
39.16000 46.826
39.18000 43.457
39.20000 42.838
39.22000 41.759
39.24000 46.340
39.26000 49.647
39.28000 50.289
39.30000 50.741
39.32000 53.902
39.34000 52.615
39.36000 56.630
39.38000 58.937
39.40000 62.968
39.42000 70.728
39.44000 74.761
39.46000 77.025
39.48000 77.576
39.50000 81.662
39.52000 82.688
39.54000 85.442
39.56000 88.938
39.58000 96.786
39.60000 100.179
39.62000 103.223
39.64000 106.061
39.66000 113.518
39.68000 126.866
39.70000 130.765
39.72000 134.891
39.74000 138.773
39.76000 141.624
39.78000 151.121
39.80000 156.462
39.82000 165.388
39.84000 174.555
39.86000 188.391
39.88000 200.490
39.90000 203.876
39.92000 217.781
39.94000 226.340
39.96000 233.144
39.98000 240.914
40.00000 252.356
40.02000 260.907
40.04000 273.886
40.06000 292.384
40.08000 308.770
40.10000 319.108
40.12000 325.904
40.14000 340.125
40.16000 355.180
40.18000 367.915
40.20000 377.891
40.22000 399.636
40.24000 418.379
40.26000 436.281
40.28000 440.994
40.30000 443.251
40.32000 459.703
40.34000 476.598
40.36000 487.248
40.38000 493.506
40.40000 497.404
40.42000 510.516
40.44000 518.326
40.46000 514.383
40.48000 515.030
40.50000 523.508
40.52000 528.759
40.54000 521.801
40.56000 518.396
40.58000 521.668
40.60000 522.234
40.62000 513.232
40.64000 502.637
40.66000 499.562
40.68000 488.984
40.70000 477.305
40.72000 467.895
40.74000 444.960
40.76000 441.573
40.78000 438.505
40.80000 420.127
40.82000 401.035
40.84000 391.258
40.86000 375.892
40.88000 360.218
40.90000 350.953
40.92000 334.032
40.94000 322.823
40.96000 308.395
40.98000 298.007
41.00000 283.473
41.02000 273.838
41.04000 262.235
41.06000 244.333
41.08000 233.231
41.10000 222.988
41.12000 209.225
41.14000 198.516
41.16000 187.813
41.18000 178.323
41.20000 173.768
41.22000 167.746
41.24000 156.360
41.26000 153.437
41.28000 144.602
41.30000 130.583
41.32000 123.006
41.34000 117.526
41.36000 109.136
41.38000 111.454
41.40000 101.767
41.42000 88.621
41.44000 89.897
41.46000 91.589
41.48000 90.137
41.50000 77.334
41.52000 73.045
41.54000 69.073
41.56000 67.775
41.58000 63.667
41.60000 61.272
41.62000 54.116
41.64000 52.079
41.66000 57.348
41.68000 54.235
41.70000 50.106
41.72000 47.366
41.74000 43.776
41.76000 39.226
41.78000 41.633
41.80000 37.712
41.82000 37.498
41.84000 36.584
41.86000 32.789
41.88000 29.621
41.90000 29.453
41.92000 27.595
41.94000 25.073
41.96000 25.677
41.98000 22.144
42.00000 21.289
42.02000 21.124
42.04000 20.706
42.06000 21.885
42.08000 22.886
42.10000 19.366
42.12000 18.307
42.14000 20.365
42.16000 15.448
42.18000 15.945
42.20000 21.293
42.22000 20.627
42.24000 16.045
42.26000 11.115
42.28000 12.003
42.30000 15.572
42.32000 9.707
42.34000 10.029
42.36000 12.353
42.38000 9.257
42.40000 7.107
42.42000 8.122
42.44000 11.455
42.46000 10.549
42.48000 11.381
42.50000 11.558
42.52000 11.870
42.54000 6.723
42.56000 3.690
42.58000 3.245
42.60000 2.984
42.62000 7.300
42.64000 6.792
42.66000 5.657
42.68000 5.474
42.70000 8.954
42.72000 6.722
42.74000 4.982
42.76000 5.224
42.78000 -1.739
42.80000 1.021
42.82000 2.524
42.84000 3.779
42.86000 1.733
42.88000 2.555
42.90000 3.676
42.92000 2.757
42.94000 0.015
42.96000 2.348
42.98000 -0.347
43.00000 -0.225
43.02000 4.528
43.04000 1.638
43.06000 2.880
43.08000 4.206
43.10000 2.847
43.12000 2.867
43.14000 1.272
43.16000 3.354
43.18000 2.661
43.20000 4.498
43.22000 4.826
43.24000 5.258
43.26000 4.821
43.28000 -3.484
43.30000 -2.604
43.32000 0.362
43.34000 -1.757
43.36000 -1.106
43.38000 2.128
43.40000 1.049
43.42000 -0.419
43.44000 3.580
43.46000 2.328
43.48000 0.987
43.50000 2.736
43.52000 -0.826
43.54000 -2.154
43.56000 -1.353
43.58000 3.424
43.60000 2.017
43.62000 1.132
43.64000 1.368
43.66000 2.987
43.68000 -1.380
43.70000 -0.601
43.72000 -1.468
43.74000 -2.821
43.76000 -1.678
43.78000 -0.783
43.80000 -3.232
43.82000 1.368
43.84000 1.912
43.86000 2.713
43.88000 2.977
43.90000 0.763
43.92000 -2.917
43.94000 -3.462
43.96000 -2.357
43.98000 -0.978
44.00000 -0.659
44.02000 -3.074
44.04000 -2.415
44.06000 0.180
44.08000 -0.780
44.10000 0.717
44.12000 0.770
44.14000 -0.564
44.16000 -1.977
44.18000 -1.017
44.20000 -3.457
44.22000 -1.562
44.24000 1.148
44.26000 -1.552
44.28000 -3.069
44.30000 -2.517
44.32000 -3.405
44.34000 -1.568
44.36000 -3.184
44.38000 -1.607
44.40000 -0.910
44.42000 -3.049
44.44000 -1.364
44.46000 -0.511
44.48000 0.776
44.50000 4.017
44.52000 1.709
44.54000 0.945
44.56000 1.618
44.58000 2.493
44.60000 1.500
44.62000 -1.218
44.64000 -1.821
44.66000 2.268
44.68000 5.349
44.70000 6.423
44.72000 5.035
44.74000 -3.441
44.76000 -1.741
44.78000 1.447
44.80000 -0.293
44.82000 -0.504
44.84000 4.761
44.86000 4.912
44.88000 4.734
44.90000 2.959
44.92000 4.186
44.94000 5.027
44.96000 2.453
44.98000 1.785
45.00000 1.161
45.02000 3.481
45.04000 2.743
45.06000 4.698
45.08000 4.861
45.10000 2.993
45.12000 2.552
45.14000 3.636
45.16000 5.121
45.18000 5.452
45.20000 3.324
45.22000 2.381
45.24000 4.180
45.26000 4.027
45.28000 1.633
45.30000 4.918
45.32000 6.712
45.34000 7.487
45.36000 10.132
45.38000 9.300
45.40000 2.675
45.42000 7.669
45.44000 10.555
45.46000 7.645
45.48000 13.201
45.50000 16.498
45.52000 16.240
45.54000 9.587
45.56000 6.442
45.58000 9.898
45.60000 12.854
45.62000 12.026
45.64000 13.739
45.66000 17.367
45.68000 17.260
45.70000 22.464
45.72000 16.332
45.74000 13.301
45.76000 14.127
45.78000 17.815
45.80000 15.571
45.82000 15.201
45.84000 16.132
45.86000 20.309
45.88000 24.157
45.90000 24.523
45.92000 17.265
45.94000 21.954
45.96000 21.761
45.98000 27.910
46.00000 26.553
46.02000 27.024
46.04000 23.831
46.06000 26.171
46.08000 27.928
46.10000 30.051
46.12000 29.380
46.14000 29.395
46.16000 35.063
46.18000 35.326
46.20000 37.982
46.22000 36.932
46.24000 32.711
46.26000 29.792
46.28000 34.825
46.30000 43.215
46.32000 46.675
46.34000 35.770
46.36000 35.978
46.38000 46.092
46.40000 49.009
46.42000 45.070
46.44000 42.298
46.46000 45.558
46.48000 49.974
46.50000 52.739
46.52000 54.491
46.54000 57.265
46.56000 62.498
46.58000 56.273
46.60000 63.231
46.62000 66.741
46.64000 68.923
46.66000 68.221
46.68000 58.619
46.70000 55.524
46.72000 69.807
46.74000 74.987
46.76000 75.860
46.78000 70.115
46.80000 69.549
46.82000 68.061
46.84000 69.768
46.86000 75.812
46.88000 76.467
46.90000 73.900
46.92000 74.706
46.94000 78.287
46.96000 79.507
46.98000 78.140
47.00000 85.182
47.02000 84.859
47.04000 80.674
47.06000 76.494
47.08000 82.169
47.10000 83.974
47.12000 80.723
47.14000 73.500
47.16000 82.634
47.18000 83.226
47.20000 83.335
47.22000 76.495
47.24000 77.543
47.26000 81.115
47.28000 70.696
47.30000 68.829
47.32000 68.372
47.34000 69.814
47.36000 71.413
47.38000 72.963
47.40000 69.673
47.42000 64.072
47.44000 65.333
47.46000 61.255
47.48000 61.073
47.50000 61.972
47.52000 60.364
47.54000 67.479
47.56000 70.134
47.58000 67.664
47.60000 64.660
47.62000 57.418
47.64000 59.863
47.66000 55.529
47.68000 50.615
47.70000 46.655
47.72000 43.565
47.74000 40.270
47.76000 37.055
47.78000 47.928
47.80000 44.264
47.82000 37.780
47.84000 34.572
47.86000 39.268
47.88000 38.877
47.90000 30.270
47.92000 34.165
47.94000 38.348
47.96000 28.811
47.98000 31.215
48.00000 29.135
48.02000 24.947
48.04000 20.344
48.06000 22.980
48.08000 22.917
48.10000 24.319
48.12000 18.956
48.14000 21.201
48.16000 19.022
48.18000 16.192
48.20000 12.175
48.22000 15.955
48.24000 12.560
48.26000 15.361
48.28000 16.043
48.30000 13.887
48.32000 13.443
48.34000 10.358
48.36000 9.442
48.38000 9.101
48.40000 5.434
48.42000 7.712
48.44000 16.560
48.46000 13.311
48.48000 9.779
48.50000 10.547
48.52000 5.528
48.54000 5.749
48.56000 5.476
48.58000 10.030
48.60000 11.293
48.62000 7.277
48.64000 1.205
48.66000 -1.382
48.68000 0.440
48.70000 -0.297
48.72000 6.482
48.74000 7.404
48.76000 4.702
48.78000 5.318
48.80000 2.366
48.82000 1.248
48.84000 2.264
48.86000 2.365
48.88000 3.762
48.90000 7.240
48.92000 9.522
48.94000 5.518
48.96000 4.410
48.98000 5.619
49.00000 3.711
49.02000 1.827
49.04000 3.875
49.06000 1.753
49.08000 3.922
49.10000 3.960
49.12000 0.406
49.14000 -2.195
49.16000 0.904
49.18000 4.068
49.20000 7.407
49.22000 2.914
49.24000 2.076
49.26000 3.251
49.28000 6.377
49.30000 8.480
49.32000 5.806
49.34000 3.718
49.36000 4.242
49.38000 0.958
49.40000 1.490
49.42000 7.704
49.44000 3.825
49.46000 0.671
49.48000 0.824
49.50000 4.823
49.52000 2.270
49.54000 -3.011
49.56000 3.005
49.58000 6.599
49.60000 6.793
49.62000 3.754
49.64000 4.040
49.66000 8.698
49.68000 7.926
49.70000 8.633
49.72000 5.400
49.74000 1.860
49.76000 3.275
49.78000 2.852
49.80000 4.630
49.82000 2.838
49.84000 1.460
49.86000 5.587
49.88000 1.149
49.90000 -2.349
49.92000 -2.327
49.94000 2.059
49.96000 3.286
49.98000 3.086
50.00000 4.063
50.02000 5.602
50.04000 4.197
50.06000 4.675
50.08000 -0.972
50.10000 4.395
50.12000 3.403
50.14000 0.452
50.16000 1.107
50.18000 1.633
50.20000 3.116
50.22000 4.127
50.24000 1.283
50.26000 6.138
50.28000 4.496
50.30000 0.006
50.32000 4.784
50.34000 2.741
50.36000 4.466
50.38000 -0.608
50.40000 3.534
50.42000 -0.453
50.44000 2.062
50.46000 8.398
50.48000 5.457
50.50000 0.794
50.52000 1.266
50.54000 5.270
50.56000 4.951
50.58000 8.028
50.60000 4.113
50.62000 -2.936
50.64000 -1.428
50.66000 -1.419
50.68000 1.493
50.70000 -1.423
50.72000 0.354
50.74000 1.511
50.76000 5.266
50.78000 3.001
50.80000 4.780
50.82000 6.948
50.84000 0.977
50.86000 -1.287
50.88000 2.035
50.90000 -1.025
50.92000 -0.549
50.94000 -0.554
50.96000 0.420
50.98000 4.497
51.00000 1.834
51.02000 2.011
51.04000 5.932
51.06000 1.490
51.08000 -2.912
51.10000 -0.449
51.12000 -1.132
51.14000 -1.488
51.16000 -1.675
51.18000 -0.582
51.20000 -2.694
51.22000 -0.076
51.24000 3.579
51.26000 0.549
51.28000 2.245
51.30000 -1.582
51.32000 2.963
51.34000 1.547
51.36000 -0.717
51.38000 -0.889
51.40000 6.240
51.42000 3.278
51.44000 -0.975
51.46000 3.581
51.48000 5.442
51.50000 -1.537
51.52000 -0.119
51.54000 2.294
51.56000 2.386
51.58000 -1.672
51.60000 0.634
51.62000 -0.906
51.64000 -1.262
51.66000 5.798
51.68000 3.244
51.70000 3.001
51.72000 2.017
51.74000 0.925
51.76000 4.539
51.78000 3.959
51.80000 0.442
51.82000 -0.709
51.84000 0.617
51.86000 0.645
51.88000 2.138
51.90000 3.746
51.92000 1.821
51.94000 3.287
51.96000 2.062
51.98000 5.341
52.00000 5.291
52.02000 2.006
52.04000 1.010
52.06000 2.933
52.08000 4.291
52.10000 6.271
52.12000 2.014
52.14000 -0.025
52.16000 0.084
52.18000 5.059
52.20000 4.110
52.22000 3.143
52.24000 6.253
52.26000 4.762
52.28000 4.407
52.30000 2.068
52.32000 0.841
52.34000 -0.284
52.36000 6.599
52.38000 7.363
52.40000 8.461
52.42000 1.637
52.44000 1.977
52.46000 7.738
52.48000 6.164
52.50000 3.705
52.52000 7.495
52.54000 8.242
52.56000 2.318
52.58000 3.659
52.60000 5.585
52.62000 5.996
52.64000 7.610
52.66000 7.829
52.68000 5.589
52.70000 2.988
52.72000 4.526
52.74000 1.641
52.76000 -0.146
52.78000 5.083
52.80000 -0.196
52.82000 1.420
52.84000 4.964
52.86000 3.964
52.88000 4.499
52.90000 2.300
52.92000 5.431
52.94000 2.371
52.96000 -2.796
52.98000 3.607
53.00000 9.149
53.02000 7.173
53.04000 1.506
53.06000 7.157
53.08000 3.794
53.10000 3.382
53.12000 5.992
53.14000 1.312
53.16000 4.056
53.18000 6.832
53.20000 6.586
53.22000 4.872
53.24000 -0.479
53.26000 7.544
53.28000 6.244
53.30000 4.226
53.32000 -0.638
53.34000 0.425
53.36000 -0.686
53.38000 -0.309
53.40000 3.535
53.42000 4.206
53.44000 1.044
53.46000 2.982
53.48000 3.381
53.50000 2.641
53.52000 0.889
53.54000 1.964
53.56000 2.167
53.58000 -2.433
53.60000 5.418
53.62000 5.276
53.64000 1.828
53.66000 -1.272
53.68000 0.328
53.70000 3.069
53.72000 3.843
53.74000 6.392
53.76000 2.852
53.78000 3.207
53.80000 1.926
53.82000 -0.612
53.84000 0.012
53.86000 1.019
53.88000 3.690
53.90000 4.213
53.92000 0.836
53.94000 3.387
53.96000 1.805
53.98000 3.902
54.00000 3.262
54.02000 8.214
54.04000 4.888
54.06000 3.133
54.08000 5.923
54.10000 3.224
54.12000 4.080
54.14000 4.161
54.16000 5.872
54.18000 5.158
54.20000 8.269
54.22000 6.197
54.24000 2.942
54.26000 0.806
54.28000 2.022
54.30000 1.134
54.32000 -2.637
54.34000 -1.664
54.36000 2.884
54.38000 0.144
54.40000 -0.965
54.42000 0.432
54.44000 2.453
54.46000 8.122
54.48000 6.366
54.50000 3.164
54.52000 -1.807
54.54000 3.188
54.56000 4.313
54.58000 6.023
54.60000 7.104
54.62000 6.426
54.64000 5.921
54.66000 5.179
54.68000 0.894
54.70000 4.623
54.72000 11.994
54.74000 12.352
54.76000 7.306
54.78000 5.722
54.80000 0.972
54.82000 0.518
54.84000 0.354
54.86000 -2.752
54.88000 1.540
54.90000 4.199
54.92000 6.025
54.94000 9.153
54.96000 9.767
54.98000 4.833
55.00000 6.613
55.02000 5.501
55.04000 6.378
55.06000 0.635
55.08000 0.434
55.10000 5.252
55.12000 5.316
55.14000 7.896
55.16000 9.238
55.18000 8.671
55.20000 1.745
55.22000 2.186
55.24000 7.418
55.26000 7.086
55.28000 8.385
55.30000 10.367
55.32000 4.414
55.34000 1.747
55.36000 5.843
55.38000 3.414
55.40000 4.427
55.42000 3.545
55.44000 5.944
55.46000 8.814
55.48000 8.800
55.50000 5.578
55.52000 1.549
55.54000 3.022
55.56000 3.040
55.58000 2.503
55.60000 7.556
55.62000 7.922
55.64000 4.319
55.66000 9.613
55.68000 5.513
55.70000 8.474
55.72000 10.365
55.74000 10.325
55.76000 4.365
55.78000 5.318
55.80000 3.857
55.82000 4.966
55.84000 8.350
55.86000 6.012
55.88000 -0.629
55.90000 -2.711
55.92000 5.914
55.94000 7.088
55.96000 5.956
55.98000 6.462
56.00000 7.958
56.02000 3.326
56.04000 5.303
56.06000 5.327
56.08000 0.892
56.10000 -1.199
56.12000 0.482
56.14000 1.052
56.16000 5.225
56.18000 7.294
56.20000 6.921
56.22000 8.700
56.24000 5.136
56.26000 9.254
56.28000 11.096
56.30000 7.224
56.32000 1.438
56.34000 2.118
56.36000 3.208
56.38000 6.191
56.40000 4.754
56.42000 6.020
56.44000 2.451
56.46000 5.672
56.48000 4.991
56.50000 5.078
56.52000 3.438
56.54000 3.501
56.56000 1.315
56.58000 4.378
56.60000 8.476
56.62000 3.851
56.64000 8.545
56.66000 6.031
56.68000 4.851
56.70000 7.011
56.72000 4.174
56.74000 4.284
56.76000 2.069
56.78000 2.692
56.80000 4.696
56.82000 5.633
56.84000 5.915
56.86000 5.397
56.88000 3.459
56.90000 2.849
56.92000 5.806
56.94000 7.687
56.96000 -0.014
56.98000 2.244
57.00000 0.405
57.02000 -1.723
57.04000 2.002
57.06000 4.538
57.08000 8.190
57.10000 3.678
57.12000 4.106
57.14000 8.337
57.16000 8.688
57.18000 7.402
57.20000 4.238
57.22000 2.581
57.24000 7.931
57.26000 6.573
57.28000 6.645
57.30000 2.379
57.32000 5.121
57.34000 7.335
57.36000 6.883
57.38000 5.150
57.40000 7.385
57.42000 11.164
57.44000 4.355
57.46000 3.545
57.48000 0.100
57.50000 -2.670
57.52000 0.215
57.54000 2.777
57.56000 6.123
57.58000 7.116
57.60000 6.200
57.62000 6.859
57.64000 5.732
57.66000 5.110
57.68000 9.454
57.70000 8.173
57.72000 5.723
57.74000 2.706
57.76000 2.952
57.78000 3.948
57.80000 4.612
57.82000 1.063
57.84000 -1.109
57.86000 2.359
57.88000 2.179
57.90000 3.432
57.92000 4.743
57.94000 4.820
57.96000 2.306
57.98000 4.947
58.00000 4.886
58.02000 3.582
58.04000 0.973
58.06000 2.380
58.08000 6.313
58.10000 2.068
58.12000 1.198
58.14000 2.977
58.16000 0.644
58.18000 2.723
58.20000 5.599
58.22000 6.333
58.24000 6.339
58.26000 0.912
58.28000 4.827
58.30000 4.961
58.32000 2.225
58.34000 5.256
58.36000 4.715
58.38000 3.906
58.40000 -0.047
58.42000 1.339
58.44000 3.877
58.46000 3.669
58.48000 0.060
58.50000 -1.361
58.52000 -1.253
58.54000 0.165
58.56000 3.505
58.58000 6.937
58.60000 3.362
58.62000 1.345
58.64000 1.490
58.66000 0.635
58.68000 6.925
58.70000 7.178
58.72000 6.542
58.74000 2.063
58.76000 -1.471
58.78000 -0.525
58.80000 0.717
58.82000 2.339
58.84000 2.901
58.86000 5.132
58.88000 5.949
58.90000 5.979
58.92000 3.292
58.94000 6.628
58.96000 3.859
58.98000 2.544
59.00000 1.530
59.02000 2.892
59.04000 4.978
59.06000 3.960
59.08000 2.784
59.10000 3.356
59.12000 1.945
59.14000 4.895
59.16000 3.228
59.18000 3.972
59.20000 7.844
59.22000 5.716
59.24000 0.935
59.26000 2.135
59.28000 2.431
59.30000 4.087
59.32000 2.525
59.34000 0.889
59.36000 -2.622
59.38000 1.657
59.40000 1.438
59.42000 -1.319
59.44000 1.030
59.46000 0.415
59.48000 0.112
59.50000 1.134
59.52000 2.602
59.54000 3.878
59.56000 2.119
59.58000 -0.759
59.60000 2.401
59.62000 1.142
59.64000 4.137
59.66000 7.454
59.68000 3.935
59.70000 7.804
59.72000 4.097
59.74000 0.148
59.76000 -0.025
59.78000 1.128
59.80000 1.967
59.82000 6.330
59.84000 7.581
59.86000 4.369
59.88000 2.428
59.90000 11.560
59.92000 10.395
59.94000 4.410
59.96000 1.720
59.98000 -1.522
60.00000 -2.593
60.02000 5.243
60.04000 4.434
60.06000 2.638
60.08000 2.441
60.10000 4.419
60.12000 4.349
60.14000 6.279
60.16000 8.962
60.18000 10.554
60.20000 6.321
60.22000 2.110
60.24000 1.509
60.26000 -1.371
60.28000 1.724
60.30000 3.133
60.32000 2.873
60.34000 8.062
60.36000 7.837
60.38000 5.923
60.40000 2.918
60.42000 3.753
60.44000 3.597
60.46000 6.541
60.48000 7.005
60.50000 5.676
60.52000 4.882
60.54000 -0.392
60.56000 -0.065
60.58000 4.453
60.60000 3.831
60.62000 6.097
60.64000 5.937
60.66000 6.077
60.68000 8.269
60.70000 5.696
60.72000 7.802
60.74000 6.204
60.76000 3.127
60.78000 3.173
60.80000 8.189
60.82000 6.238
60.84000 4.356
60.86000 4.539
60.88000 2.786
60.90000 0.499
60.92000 0.140
60.94000 0.984
60.96000 -0.547
60.98000 -2.553
61.00000 6.346
61.02000 9.819
61.04000 5.043
61.06000 3.865
61.08000 3.013
61.10000 5.559
61.12000 3.415
61.14000 4.191
61.16000 0.908
61.18000 0.587
61.20000 3.535
61.22000 1.166
61.24000 7.246
61.26000 1.614
61.28000 4.499
61.30000 5.390
61.32000 4.349
61.34000 4.294
61.36000 1.422
61.38000 3.940
61.40000 -0.372
61.42000 2.149
61.44000 7.490
61.46000 2.683
61.48000 0.200
61.50000 2.657
61.52000 3.024
61.54000 0.771
61.56000 3.121
61.58000 -2.028
61.60000 0.705
61.62000 -0.302
61.64000 0.860
61.66000 3.347
61.68000 4.732
61.70000 4.914
61.72000 3.568
61.74000 4.804
61.76000 3.626
61.78000 6.614
61.80000 5.844
61.82000 0.852
61.84000 3.301
61.86000 4.858
61.88000 2.711
61.90000 5.934
61.92000 2.818
61.94000 0.088
61.96000 -0.773
61.98000 1.733
62.00000 0.934
62.02000 -2.551
62.04000 -2.046
62.06000 0.351
62.08000 4.461
62.10000 6.915
62.12000 3.484
62.14000 3.119
62.16000 3.046
62.18000 3.557
62.20000 7.116
62.22000 8.478
62.24000 3.014
62.26000 4.002
62.28000 2.327
62.30000 3.456
62.32000 3.503
62.34000 -2.156
62.36000 0.566
62.38000 2.225
62.40000 -0.115
62.42000 2.105
62.44000 0.744
62.46000 7.500
62.48000 5.294
62.50000 0.651
62.52000 0.149
62.54000 5.027
62.56000 4.149
62.58000 4.833
62.60000 5.713
62.62000 6.517
62.64000 7.175
62.66000 4.648
62.68000 7.785
62.70000 4.359
62.72000 2.341
62.74000 2.718
62.76000 0.365
62.78000 -2.521
62.80000 4.736
62.82000 11.052
62.84000 7.960
62.86000 5.632
62.88000 8.330
62.90000 7.317
62.92000 3.017
62.94000 4.849
62.96000 3.289
62.98000 4.591
63.00000 4.471
63.02000 2.017
63.04000 0.829
63.06000 3.898
63.08000 4.745
63.10000 2.944
63.12000 1.499
63.14000 1.412
63.16000 7.254
63.18000 7.537
63.20000 0.814
63.22000 3.367
63.24000 3.755
63.26000 -0.161
63.28000 4.104
63.30000 1.211
63.32000 2.617
63.34000 2.030
63.36000 1.226
63.38000 4.598
63.40000 6.067
63.42000 4.580
63.44000 1.587
63.46000 0.801
63.48000 1.627
63.50000 4.366
63.52000 -0.024
63.54000 3.443
63.56000 0.017
63.58000 -1.928
63.60000 1.418
63.62000 5.332
63.64000 4.079
63.66000 1.643
63.68000 4.126
63.70000 1.617
63.72000 -1.854
63.74000 3.093
63.76000 0.716
63.78000 1.216
63.80000 5.002
63.82000 3.324
63.84000 -0.603
63.86000 -1.118
63.88000 -1.603
63.90000 1.036
63.92000 4.307
63.94000 3.599
63.96000 3.146
63.98000 3.897
64.00000 5.844
64.02000 4.970
64.04000 3.383
64.06000 5.097
64.08000 3.531
64.10000 3.188
64.12000 3.749
64.14000 4.095
64.16000 2.968
64.18000 -0.515
64.20000 -2.539
64.22000 3.418
64.24000 2.183
64.26000 2.277
64.28000 1.851
64.30000 3.109
64.32000 4.999
64.34000 1.302
64.36000 0.393
64.38000 1.773
64.40000 1.273
64.42000 1.908
64.44000 2.576
64.46000 6.278
64.48000 5.576
64.50000 4.268
64.52000 2.922
64.54000 3.388
64.56000 6.111
64.58000 2.784
64.60000 0.812
64.62000 2.508
64.64000 4.393
64.66000 0.847
64.68000 4.981
64.70000 6.367
64.72000 3.524
64.74000 0.784
64.76000 0.618
64.78000 0.614
64.80000 3.467
64.82000 0.639
64.84000 -2.406
64.86000 -0.744
64.88000 -1.218
64.90000 2.398
64.92000 3.819
64.94000 3.234
64.96000 -0.417
64.98000 1.771
65.00000 3.530
65.02000 3.853
65.04000 3.434
65.06000 1.111
65.08000 1.508
65.10000 1.431
65.12000 3.034
65.14000 5.207
65.16000 2.231
65.18000 1.292
65.20000 1.024
65.22000 -0.365
65.24000 5.267
65.26000 0.754
65.28000 1.036
65.30000 2.911
65.32000 2.663
65.34000 1.077
65.36000 1.866
65.38000 2.629
65.40000 -0.184
65.42000 0.436
65.44000 3.337
65.46000 2.373
65.48000 0.516
65.50000 -0.851
65.52000 -0.447
65.54000 -0.045
65.56000 3.781
65.58000 5.163
65.60000 4.592
65.62000 9.124
65.64000 9.376
65.66000 3.892
65.68000 4.491
65.70000 5.679
65.72000 2.910
65.74000 8.616
65.76000 6.723
65.78000 3.448
65.80000 2.666
65.82000 2.877
65.84000 -2.553
65.86000 0.498
65.88000 1.964
65.90000 7.066
65.92000 7.688
65.94000 3.725
65.96000 2.095
65.98000 1.199
66.00000 2.388
66.02000 4.520
66.04000 2.627
66.06000 -0.628
66.08000 -0.185
66.10000 2.781
66.12000 3.296
66.14000 3.304
66.16000 1.920
66.18000 -1.279
66.20000 -1.010
66.22000 0.379
66.24000 2.094
66.26000 1.051
66.28000 2.373
66.30000 5.054
66.32000 2.426
66.34000 -0.060
66.36000 -0.941
66.38000 1.902
66.40000 3.831
66.42000 3.508
66.44000 3.271
66.46000 0.822
66.48000 1.177
66.50000 3.933
66.52000 1.478
66.54000 -0.611
66.56000 1.452
66.58000 2.212
66.60000 -2.019
66.62000 1.163
66.64000 2.489
66.66000 1.088
66.68000 -2.622
66.70000 0.782
66.72000 -0.928
66.74000 0.575
66.76000 0.059
66.78000 3.163
66.80000 3.054
66.82000 4.998
66.84000 2.284
66.86000 0.060
66.88000 0.669
66.90000 2.304
66.92000 2.991
66.94000 4.941
66.96000 2.657
66.98000 -0.199
67.00000 0.470
67.02000 1.565
67.04000 0.522
67.06000 -0.040
67.08000 1.370
67.10000 2.481
67.12000 -0.210
67.14000 2.081
67.16000 0.343
67.18000 -1.007
67.20000 -1.540
67.22000 -0.551
67.24000 -0.133
67.26000 1.179
67.28000 0.868
67.30000 0.214
67.32000 0.409
67.34000 0.056
67.36000 3.459
67.38000 3.192
67.40000 0.852
67.42000 -0.261
67.44000 2.152
67.46000 1.967
67.48000 4.351
67.50000 6.124
67.52000 5.087
67.54000 5.505
67.56000 2.607
67.58000 0.954
67.60000 6.935
67.62000 9.440
67.64000 9.383
67.66000 5.300
67.68000 2.843
67.70000 4.577
67.72000 5.517
67.74000 6.518
67.76000 3.377
67.78000 2.470
67.80000 5.418
67.82000 7.226
67.84000 11.260
67.86000 11.153
67.88000 11.717
67.90000 7.914
67.92000 5.140
67.94000 1.942
67.96000 5.293
67.98000 9.178
68.00000 11.434
68.02000 11.783
68.04000 9.582
68.06000 11.659
68.08000 9.391
68.10000 8.005
68.12000 10.199
68.14000 12.969
68.16000 12.694
68.18000 14.744
68.20000 12.143
68.22000 11.640
68.24000 17.921
68.26000 15.493
68.28000 18.172
68.30000 15.881
68.32000 16.597
68.34000 15.762
68.36000 13.841
68.38000 13.083
68.40000 14.500
68.42000 18.701
68.44000 20.769
68.46000 19.289
68.48000 21.061
68.50000 22.107
68.52000 18.910
68.54000 22.874
68.56000 20.454
68.58000 18.768
68.60000 20.635
68.62000 21.026
68.64000 21.429
68.66000 24.950
68.68000 21.886
68.70000 17.962
68.72000 16.880
68.74000 21.969
68.76000 21.519
68.78000 19.111
68.80000 20.286
68.82000 22.101
68.84000 23.880
68.86000 23.742
68.88000 20.416
68.90000 22.719
68.92000 23.553
68.94000 23.794
68.96000 26.569
68.98000 22.543
69.00000 26.093
69.02000 25.334
69.04000 24.137
69.06000 22.677
69.08000 18.967
69.10000 18.429
69.12000 18.872
69.14000 23.012
69.16000 23.086
69.18000 23.586
69.20000 20.981
69.22000 16.820
69.24000 20.729
69.26000 20.309
69.28000 21.218
69.30000 18.263
69.32000 15.126
69.34000 15.433
69.36000 15.628
69.38000 15.980
69.40000 16.055
69.42000 11.501
69.44000 7.093
69.46000 10.960
69.48000 10.951
69.50000 10.845
69.52000 15.038
69.54000 14.315
69.56000 8.890
69.58000 10.018
69.60000 11.830
69.62000 11.989
69.64000 9.848
69.66000 5.531
69.68000 3.180
69.70000 2.582
69.72000 5.418
69.74000 7.742
69.76000 6.309
69.78000 4.010
69.80000 2.678
69.82000 2.010
69.84000 3.369
69.86000 3.859
69.88000 0.724
69.90000 5.592
69.92000 4.631
69.94000 4.204
69.96000 8.257
69.98000 6.530
70.00000 6.200
70.02000 3.186
70.04000 3.246
70.06000 8.012
70.08000 7.267
70.10000 4.065
70.12000 2.220
70.14000 2.950
70.16000 2.854
70.18000 3.174
70.20000 1.428
70.22000 -2.574
70.24000 1.632
70.26000 1.038
70.28000 7.005
70.30000 8.471
70.32000 5.653
70.34000 2.119
70.36000 4.479
70.38000 3.295
70.40000 1.255
70.42000 1.993
70.44000 0.128
70.46000 2.572
70.48000 2.116
70.50000 8.345
70.52000 7.369
70.54000 5.025
70.56000 -2.250
70.58000 -0.043
70.60000 2.964
70.62000 0.959
70.64000 2.941
70.66000 2.843
70.68000 0.200
70.70000 0.817
70.72000 -0.795
70.74000 -1.560
70.76000 0.977
70.78000 2.523
70.80000 2.355
70.82000 -0.182
70.84000 1.186
70.86000 5.221
70.88000 4.077
70.90000 2.837
70.92000 -1.431
70.94000 1.455
70.96000 4.063
70.98000 2.263
71.00000 3.886
71.02000 3.455
71.04000 5.253
71.06000 5.834
71.08000 1.853
71.10000 2.999
71.12000 7.362
71.14000 0.620
71.16000 -2.437
71.18000 2.463
71.20000 2.724
71.22000 -1.199
71.24000 -0.506
71.26000 0.132
71.28000 1.752
71.30000 3.026
71.32000 1.124
71.34000 5.543
71.36000 3.196
71.38000 2.977
71.40000 0.987
71.42000 1.565
71.44000 3.322
71.46000 -0.099
71.48000 0.582
71.50000 0.422
71.52000 1.267
71.54000 -0.450
71.56000 1.251
71.58000 3.315
71.60000 6.237
71.62000 6.765
71.64000 3.265
71.66000 3.990
71.68000 3.239
71.70000 1.308
71.72000 4.773
71.74000 3.278
71.76000 3.103
71.78000 1.910
71.80000 -0.469
71.82000 -0.586
71.84000 4.872
71.86000 6.468
71.88000 0.412
71.90000 -0.197
71.92000 0.436
71.94000 -0.555
71.96000 1.845
71.98000 5.852
72.00000 1.678
72.02000 2.382
72.04000 2.487
72.06000 -0.972
72.08000 -0.603
72.10000 -0.854
72.12000 -2.378
72.14000 -0.247
72.16000 4.810
72.18000 5.845
72.20000 3.350
72.22000 5.249
72.24000 6.367
72.26000 4.583
72.28000 0.489
72.30000 -1.046
72.32000 -0.246
72.34000 -0.819
72.36000 -1.418
72.38000 3.815
72.40000 6.052
72.42000 6.046
72.44000 8.100
72.46000 8.539
72.48000 2.569
72.50000 5.302
72.52000 1.149
72.54000 0.285
72.56000 5.638
72.58000 3.021
72.60000 0.760
72.62000 -2.408
72.64000 4.920
72.66000 0.468
72.68000 4.654
72.70000 1.534
72.72000 -1.244
72.74000 3.841
72.76000 3.425
72.78000 3.628
72.80000 2.883
72.82000 0.567
72.84000 0.379
72.86000 0.019
72.88000 0.131
72.90000 5.147
72.92000 2.096
72.94000 6.613
72.96000 8.065
72.98000 3.698
73.00000 3.326
73.02000 3.367
73.04000 5.892
73.06000 0.916
73.08000 0.210
73.10000 -1.414
73.12000 1.156
73.14000 -2.372
73.16000 1.472
73.18000 2.165
73.20000 5.001
73.22000 7.732
73.24000 5.577
73.26000 1.071
73.28000 4.598
73.30000 4.833
73.32000 2.326
73.34000 1.817
73.36000 -0.318
73.38000 1.753
73.40000 6.403
73.42000 8.739
73.44000 4.727
73.46000 4.812
73.48000 1.736
73.50000 2.010
73.52000 3.296
73.54000 12.605
73.56000 6.203
73.58000 0.737
73.60000 4.039
73.62000 5.670
73.64000 7.142
73.66000 6.585
73.68000 3.641
73.70000 3.057
73.72000 1.566
73.74000 0.325
73.76000 -0.289
73.78000 2.137
73.80000 3.958
73.82000 3.460
73.84000 3.478
73.86000 3.044
73.88000 2.095
73.90000 4.537
73.92000 2.808
73.94000 -0.341
73.96000 -2.332
73.98000 2.724
74.00000 0.338
74.02000 2.645
74.04000 4.256
74.06000 3.258
74.08000 5.559
74.10000 2.583
74.12000 2.433
74.14000 2.684
74.16000 3.462
74.18000 4.124
74.20000 4.249
74.22000 3.394
74.24000 2.685
74.26000 5.515
74.28000 3.190
74.30000 7.198
74.32000 8.818
74.34000 1.048
74.36000 -1.585
74.38000 0.766
74.40000 5.146
74.42000 3.726
74.44000 1.971
74.46000 6.670
74.48000 4.737
74.50000 8.378
74.52000 9.211
74.54000 2.965
74.56000 1.551
74.58000 3.295
74.60000 5.063
74.62000 7.042
74.64000 6.102
74.66000 1.889
74.68000 1.442
74.70000 -2.371
74.72000 0.256
74.74000 0.583
74.76000 0.637
74.78000 -0.572
74.80000 0.738
74.82000 2.831
74.84000 1.383
74.86000 3.695
74.88000 4.588
74.90000 4.310
74.92000 -0.918
74.94000 3.632
74.96000 0.560
74.98000 1.010
75.00000 3.954
75.02000 2.021
75.04000 2.294
75.06000 6.349
75.08000 6.841
75.10000 3.031
75.12000 1.437
75.14000 2.683
75.16000 -0.023
75.18000 0.295
75.20000 0.408
75.22000 2.067
75.24000 3.597
75.26000 0.667
75.28000 -0.702
75.30000 -2.375
75.32000 3.334
75.34000 3.413
75.36000 2.555
75.38000 -0.888
75.40000 2.656
75.42000 1.372
75.44000 0.464
75.46000 4.869
75.48000 2.980
75.50000 2.768
75.52000 2.251
75.54000 1.116
75.56000 4.469
75.58000 7.680
75.60000 6.766
75.62000 4.288
75.64000 5.936
75.66000 3.294
75.68000 4.314
75.70000 0.376
75.72000 5.685
75.74000 5.700
75.76000 7.263
75.78000 4.602
75.80000 5.375
75.82000 -0.369
75.84000 -1.207
75.86000 -2.363
75.88000 1.726
75.90000 2.844
75.92000 1.129
75.94000 -0.424
75.96000 0.459
75.98000 -0.320
76.00000 -0.144
76.02000 2.492
76.04000 6.054
76.06000 0.046
76.08000 0.453
76.10000 2.779
76.12000 8.884
76.14000 3.237
76.16000 0.722
76.18000 1.362
76.20000 5.431
76.22000 4.007
76.24000 7.009
76.26000 8.798
76.28000 6.232
76.30000 4.760
76.32000 3.472
76.34000 5.145
76.36000 3.476
76.38000 4.643
76.40000 5.025
76.42000 4.274
76.44000 -0.263
76.46000 2.464
76.48000 4.652
76.50000 8.093
76.52000 3.733
76.54000 0.793
76.56000 -0.825
76.58000 0.953
76.60000 6.926
76.62000 2.802
76.64000 2.759
76.66000 0.336
76.68000 0.947
76.70000 -2.381
76.72000 0.045
76.74000 -1.026
76.76000 0.771
76.78000 0.334
76.80000 -0.189
76.82000 2.745
76.84000 3.199
76.86000 5.015
76.88000 4.736
76.90000 -0.027
76.92000 3.433
76.94000 0.514
76.96000 3.350
76.98000 2.876
77.00000 -1.582
77.02000 -0.671
77.04000 0.883
77.06000 8.120
77.08000 4.014
77.10000 1.907
77.12000 1.475
77.14000 2.425
77.16000 3.961
77.18000 5.184
77.20000 7.991
77.22000 7.957
77.24000 5.908
77.26000 -2.394
77.28000 -0.657
77.30000 4.152
77.32000 6.804
77.34000 3.089
77.36000 -0.792
77.38000 1.102
77.40000 0.721
77.42000 7.377
77.44000 2.340
77.46000 1.886
77.48000 4.164
77.50000 3.230
77.52000 7.814
77.54000 4.624
77.56000 2.859
77.58000 -2.401
77.60000 -1.141
77.62000 1.782
77.64000 3.572
77.66000 5.218
77.68000 3.487
77.70000 3.207
77.72000 4.797
77.74000 2.170
77.76000 8.611
77.78000 5.214
77.80000 3.947
77.82000 4.633
77.84000 1.102
77.86000 2.045
77.88000 2.591
77.90000 4.024
77.92000 1.605
77.94000 3.511
77.96000 2.745
77.98000 -0.145
78.00000 4.530
78.02000 4.594
78.04000 3.156
78.06000 1.887
78.08000 3.041
78.10000 8.899
78.12000 4.878
78.14000 4.013
78.16000 1.666
78.18000 -1.006
78.20000 -0.376
78.22000 1.529
78.24000 7.309
78.26000 5.256
78.28000 1.751
78.30000 4.466
78.32000 3.544
78.34000 5.266
78.36000 4.660
78.38000 8.681
78.40000 7.352
78.42000 8.690
78.44000 6.127
78.46000 5.120
78.48000 0.832
78.50000 1.710
78.52000 7.457
78.54000 1.756
78.56000 3.687
78.58000 4.155
78.60000 5.383
78.62000 2.935
78.64000 4.220
78.66000 7.436
78.68000 5.989
78.70000 2.149
78.72000 8.263
78.74000 8.671
78.76000 10.356
78.78000 7.615
78.80000 6.986
78.82000 4.498
78.84000 5.504
78.86000 5.092
78.88000 5.513
78.90000 -1.290
78.92000 5.002
78.94000 -0.226
78.96000 -2.386
78.98000 -1.814
79.00000 0.239
79.02000 7.353
79.04000 8.218
79.06000 4.058
79.08000 7.025
79.10000 7.410
79.12000 10.733
79.14000 3.453
79.16000 4.748
79.18000 5.436
79.20000 4.332
79.22000 1.452
79.24000 5.194
79.26000 0.483
79.28000 -0.709
79.30000 0.045
79.32000 5.506
79.34000 6.343
79.36000 1.404
79.38000 7.779
79.40000 5.343
79.42000 5.522
79.44000 7.171
79.46000 9.249
79.48000 8.983
79.50000 8.590
79.52000 5.341
79.54000 10.356
79.56000 7.191
79.58000 1.342
79.60000 2.912
79.62000 7.272
79.64000 1.673
79.66000 5.955
79.68000 10.005
79.70000 3.360
79.72000 0.450
79.74000 1.891
79.76000 0.820
79.78000 -0.229
79.80000 4.215
79.82000 1.559
79.84000 4.383
79.86000 5.705
79.88000 1.613
79.90000 8.513
79.92000 4.503
79.94000 1.686
79.96000 -1.299
79.98000 3.477
80.00000 4.890
80.02000 8.779
80.04000 8.847
80.06000 4.915
80.08000 -2.419
80.10000 2.051
80.12000 2.987
80.14000 9.404
80.16000 9.484
80.18000 9.181
80.20000 3.550
80.22000 6.411
80.24000 4.268
80.26000 3.517
80.28000 5.669
80.30000 8.266
80.32000 9.628
80.34000 5.738
80.36000 8.753
80.38000 5.558
80.40000 3.518
80.42000 1.944
80.44000 2.726
80.46000 0.534
80.48000 0.531
80.50000 3.115
80.52000 2.611
80.54000 2.625
80.56000 0.694
80.58000 -1.187
80.60000 -2.028
80.62000 -2.493
80.64000 3.183
80.66000 -1.822
80.68000 -1.064
80.70000 4.644
80.72000 2.505
80.74000 -0.210
80.76000 -1.609
80.78000 -0.768
80.80000 -1.979
80.82000 0.480
80.84000 3.315
80.86000 1.142
80.88000 3.894
80.90000 -0.337
80.92000 0.987
80.94000 -0.235
80.96000 -0.216
80.98000 1.628
81.00000 0.668
81.02000 6.052
81.04000 6.787
81.06000 4.153
81.08000 3.789
81.10000 4.109
81.12000 6.973
81.14000 7.705
81.16000 3.824
81.18000 1.032
81.20000 0.994
81.22000 1.036
81.24000 0.098
81.26000 2.076
81.28000 2.577
81.30000 1.705
81.32000 1.822
81.34000 0.483
81.36000 -0.122
81.38000 3.337
81.40000 6.273
81.42000 5.161
81.44000 3.255
81.46000 0.241
81.48000 3.977
81.50000 3.555
81.52000 0.178
81.54000 7.070
81.56000 10.291
81.58000 8.057
81.60000 6.858
81.62000 0.501
81.64000 3.667
81.66000 7.464
81.68000 6.799
81.70000 4.019
81.72000 5.961
81.74000 5.524
81.76000 1.685
81.78000 4.065
81.80000 4.697
81.82000 0.066
81.84000 5.379
81.86000 11.115
81.88000 13.178
81.90000 12.804
81.92000 7.014
81.94000 5.179
81.96000 6.361
81.98000 6.728
82.00000 10.424
82.02000 6.215
82.04000 6.747
82.06000 5.603
82.08000 8.501
82.10000 16.950
82.12000 12.766
82.14000 11.567
82.16000 10.452
82.18000 8.901
82.20000 7.185
82.22000 11.283
82.24000 13.697
82.26000 15.155
82.28000 15.889
82.30000 13.143
82.32000 16.614
82.34000 18.941
82.36000 17.992
82.38000 14.838
82.40000 18.184
82.42000 14.196
82.44000 15.861
82.46000 16.044
82.48000 15.665
82.50000 21.795
82.52000 18.454
82.54000 16.731
82.56000 27.494
82.58000 16.483
82.60000 20.235
82.62000 19.256
82.64000 19.403
82.66000 23.612
82.68000 25.569
82.70000 27.105
82.72000 24.009
82.74000 20.207
82.76000 19.567
82.78000 23.827
82.80000 21.276
82.82000 20.519
82.84000 22.151
82.86000 20.082
82.88000 24.963
82.90000 23.677
82.92000 23.035
82.94000 23.361
82.96000 21.250
82.98000 24.566
83.00000 24.023
83.02000 26.240
83.04000 25.302
83.06000 24.588
83.08000 24.127
83.10000 23.354
83.12000 20.245
83.14000 21.512
83.16000 19.550
83.18000 19.841
83.20000 22.595
83.22000 26.502
83.24000 24.087
83.26000 23.679
83.28000 19.240
83.30000 19.786
83.32000 20.326
83.34000 16.178
83.36000 22.827
83.38000 19.208
83.40000 21.577
83.42000 20.898
83.44000 20.425
83.46000 19.046
83.48000 21.389
83.50000 20.625
83.52000 14.589
83.54000 21.933
83.56000 18.856
83.58000 18.428
83.60000 20.146
83.62000 17.146
83.64000 16.620
83.66000 13.105
83.68000 14.341
83.70000 20.581
83.72000 22.153
83.74000 16.617
83.76000 17.007
83.78000 17.415
83.80000 13.986
83.82000 15.657
83.84000 16.409
83.86000 17.863
83.88000 16.487
83.90000 20.470
83.92000 16.656
83.94000 15.778
83.96000 14.673
83.98000 13.604
84.00000 7.292
84.02000 10.051
84.04000 14.912
84.06000 12.869
84.08000 9.385
84.10000 10.790
84.12000 10.304
84.14000 10.067
84.16000 10.442
84.18000 5.443
84.20000 7.340
84.22000 9.950
84.24000 8.667
84.26000 4.927
84.28000 0.145
84.30000 8.623
84.32000 7.057
84.34000 2.582
84.36000 5.963
84.38000 9.271
84.40000 12.619
84.42000 4.906
84.44000 1.410
84.46000 0.280
84.48000 2.845
84.50000 5.270
84.52000 4.713
84.54000 5.410
84.56000 5.799
84.58000 2.918
84.60000 4.665
84.62000 5.177
84.64000 4.489
84.66000 3.712
84.68000 3.917
84.70000 3.532
84.72000 1.120
84.74000 -2.402
84.76000 0.279
84.78000 4.448
84.80000 2.441
84.82000 2.030
84.84000 5.463
84.86000 7.297
84.88000 6.576
84.90000 1.858
84.92000 2.518
84.94000 4.719
84.96000 -2.505
84.98000 0.495
85.00000 3.630
85.02000 2.609
85.04000 3.565
85.06000 3.240
85.08000 2.397
85.10000 -0.237
85.12000 -0.342
85.14000 5.939
85.16000 1.715
85.18000 -0.415
85.20000 1.085
85.22000 2.742
85.24000 2.469
85.26000 -0.617
85.28000 3.375
85.30000 3.398
85.32000 2.763
85.34000 -0.680
85.36000 -1.378
85.38000 1.432
85.40000 2.512
85.42000 -0.441
85.44000 -0.512
85.46000 -1.318
85.48000 -0.135
85.50000 4.391
85.52000 3.110
85.54000 4.041
85.56000 2.916
85.58000 -0.178
85.60000 3.769
85.62000 5.368
85.64000 5.537
85.66000 7.085
85.68000 0.860
85.70000 -2.176
85.72000 -2.459
85.74000 -2.078
85.76000 1.361
85.78000 -2.347
85.80000 0.561
85.82000 -2.278
85.84000 0.558
85.86000 0.314
85.88000 0.873
85.90000 0.361
85.92000 1.790
85.94000 -0.137
85.96000 1.215
85.98000 0.047
86.00000 -0.892
86.02000 -1.925
86.04000 2.077
86.06000 3.482
86.08000 2.993
86.10000 -2.453
86.12000 -1.623
86.14000 -2.198
86.16000 5.433
86.18000 3.912
86.20000 3.900
86.22000 0.147
86.24000 2.291
86.26000 5.687
86.28000 3.256
86.30000 -2.460
86.32000 -2.307
86.34000 2.160
86.36000 4.203
86.38000 -0.279
86.40000 2.082
86.42000 4.721
86.44000 1.148
86.46000 0.777
86.48000 6.535
86.50000 4.102
86.52000 4.446
86.54000 4.404
86.56000 6.188
86.58000 5.002
86.60000 6.697
86.62000 3.170
86.64000 8.000
86.66000 7.201
86.68000 9.385
86.70000 7.476
86.72000 4.312
86.74000 5.424
86.76000 7.892
86.78000 13.134
86.80000 11.962
86.82000 5.707
86.84000 5.632
86.86000 9.684
86.88000 8.567
86.90000 6.221
86.92000 7.659
86.94000 10.160
86.96000 11.335
86.98000 12.518
87.00000 11.170
87.02000 7.280
87.04000 11.468
87.06000 13.056
87.08000 14.946
87.10000 11.818
87.12000 17.967
87.14000 18.956
87.16000 12.923
87.18000 12.577
87.20000 12.916
87.22000 11.835
87.24000 7.777
87.26000 14.739
87.28000 22.073
87.30000 20.779
87.32000 20.197
87.34000 20.066
87.36000 23.354
87.38000 24.917
87.40000 18.691
87.42000 14.727
87.44000 16.526
87.46000 18.469
87.48000 20.956
87.50000 25.285
87.52000 16.947
87.54000 14.018
87.56000 11.268
87.58000 14.705
87.60000 18.641
87.62000 21.671
87.64000 18.857
87.66000 21.437
87.68000 13.575
87.70000 14.789
87.72000 18.200
87.74000 16.849
87.76000 11.898
87.78000 11.939
87.80000 14.331
87.82000 17.637
87.84000 12.365
87.86000 9.514
87.88000 20.615
87.90000 17.834
87.92000 14.614
87.94000 13.706
87.96000 12.405
87.98000 11.358
88.00000 15.753
88.02000 12.321
88.04000 13.214
88.06000 15.039
88.08000 11.977
88.10000 13.471
88.12000 10.435
88.14000 9.716
88.16000 13.610
88.18000 11.707
88.20000 6.847
88.22000 8.283
88.24000 7.433
88.26000 9.602
88.28000 10.829
88.30000 14.785
88.32000 11.381
88.34000 10.795
88.36000 11.332
88.38000 7.870
88.40000 7.930
88.42000 3.509
88.44000 7.307
88.46000 2.926
88.48000 3.284
88.50000 6.479
88.52000 1.851
88.54000 4.419
88.56000 7.800
88.58000 9.350
88.60000 5.496
88.62000 2.101
88.64000 3.635
88.66000 7.299
88.68000 7.545
88.70000 3.010
88.72000 8.194
88.74000 4.667
88.76000 0.522
88.78000 -1.450
88.80000 2.278
88.82000 2.611
88.84000 7.245
88.86000 1.567
88.88000 -2.420
88.90000 1.947
88.92000 3.365
88.94000 2.487
88.96000 4.770
88.98000 4.839
89.00000 2.780
89.02000 -1.349
89.04000 -1.021
89.06000 0.231
89.08000 1.873
89.10000 0.950
89.12000 0.226
89.14000 0.023
89.16000 -1.823
89.18000 -0.003
89.20000 4.230
89.22000 2.846
89.24000 -0.297
89.26000 0.802
89.28000 -0.567
89.30000 -1.854
89.32000 1.086
89.34000 3.964
89.36000 5.007
89.38000 -1.428
89.40000 0.785
89.42000 -0.767
89.44000 -0.832
89.46000 -1.037
89.48000 -0.227
89.50000 2.070
89.52000 1.002
89.54000 2.839
89.56000 1.848
89.58000 -1.868
89.60000 1.273
89.62000 1.688
89.64000 -2.327
89.66000 6.324
89.68000 8.316
89.70000 1.756
89.72000 -0.982
89.74000 2.169
89.76000 2.945
89.78000 0.970
89.80000 1.918
89.82000 5.116
89.84000 0.713
89.86000 0.825
89.88000 1.410
89.90000 3.538
89.92000 3.460
89.94000 2.037
89.96000 6.269
89.98000 7.547
90.00000 3.749
90.02000 0.505
90.04000 0.356
90.06000 1.516
90.08000 -1.810
90.10000 0.142
90.12000 3.854
90.14000 -2.289
90.16000 -1.765
90.18000 3.025
90.20000 3.836
90.22000 0.750
90.24000 -1.146
90.26000 -0.998
90.28000 2.476
90.30000 5.318
90.32000 3.999
90.34000 2.790
90.36000 -1.611
90.38000 2.708
90.40000 1.446
90.42000 4.265
90.44000 2.009
90.46000 2.929
90.48000 2.545
90.50000 -0.270
90.52000 -1.903
90.54000 2.274
90.56000 2.947
90.58000 5.281
90.60000 8.384
90.62000 6.027
90.64000 1.986
90.66000 0.425
90.68000 1.502
90.70000 0.746
90.72000 3.621
90.74000 2.330
90.76000 2.194
90.78000 1.129
90.80000 -0.566
90.82000 -1.989
90.84000 0.241
90.86000 2.589
90.88000 -0.131
90.90000 -0.111
90.92000 3.442
90.94000 3.241
90.96000 2.294
90.98000 2.740
91.00000 5.339
91.02000 6.452
91.04000 5.472
91.06000 1.347
91.08000 -1.805
91.10000 7.179
91.12000 9.448
91.14000 9.206
91.16000 3.012
91.18000 0.234
91.20000 1.587
91.22000 4.136
91.24000 5.980
91.26000 9.796
91.28000 6.951
91.30000 8.894
91.32000 14.999
91.34000 9.567
91.36000 -2.258
91.38000 0.927
91.40000 -1.903
91.42000 3.357
91.44000 3.501
91.46000 -0.102
91.48000 -2.256
91.50000 3.556
91.52000 1.493
91.54000 4.608
91.56000 0.070
91.58000 3.827
91.60000 6.960
91.62000 5.038
91.64000 5.186
91.66000 8.440
91.68000 5.624
91.70000 -1.004
91.72000 2.532
91.74000 1.014
91.76000 1.494
91.78000 3.929
91.80000 10.262
91.82000 9.065
91.84000 3.652
91.86000 2.836
91.88000 0.548
91.90000 3.536
91.92000 7.813
91.94000 4.662
91.96000 7.553
91.98000 5.867
92.00000 2.272
92.02000 0.472
92.04000 2.370
92.06000 9.323
92.08000 4.819
92.10000 3.829
92.12000 -0.511
92.14000 -0.309
92.16000 -0.513
92.18000 -0.189
92.20000 1.603
92.22000 4.424
92.24000 2.476
92.26000 2.907
92.28000 3.411
92.30000 2.852
92.32000 -1.003
92.34000 -2.273
92.36000 1.670
92.38000 2.111
92.40000 3.068
92.42000 4.008
92.44000 5.481
92.46000 0.463
92.48000 4.055
92.50000 5.540
92.52000 2.964
92.54000 2.993
92.56000 3.870
92.58000 3.916
92.60000 2.704
92.62000 3.805
92.64000 4.685
92.66000 2.762
92.68000 1.548
92.70000 2.775
92.72000 1.792
92.74000 -0.312
92.76000 1.986
92.78000 1.785
92.80000 -2.293
92.82000 -1.888
92.84000 -2.154
92.86000 -1.362
92.88000 4.512
92.90000 5.593
92.92000 3.083
92.94000 1.379
92.96000 -1.422
92.98000 2.658
93.00000 8.082
93.02000 5.505
93.04000 0.175
93.06000 1.427
93.08000 0.968
93.10000 -1.506
93.12000 1.412
93.14000 -0.098
93.16000 -1.396
93.18000 -1.154
93.20000 0.427
93.22000 -0.385
93.24000 5.818
93.26000 6.504
93.28000 7.317
93.30000 1.809
93.32000 1.157
93.34000 5.322
93.36000 4.409
93.38000 -0.446
93.40000 0.117
93.42000 4.074
93.44000 6.792
93.46000 4.923
93.48000 6.819
93.50000 1.931
93.52000 5.030
93.54000 0.456
93.56000 -1.881
93.58000 1.738
93.60000 1.115
93.62000 3.857
93.64000 3.911
93.66000 6.353
93.68000 6.783
93.70000 2.594
93.72000 3.842
93.74000 5.590
93.76000 6.248
93.78000 3.768
93.80000 0.848
93.82000 5.621
93.84000 4.338
93.86000 -2.203
93.88000 1.944
93.90000 6.739
93.92000 7.724
93.94000 2.860
93.96000 0.990
93.98000 2.580
94.00000 -0.800
94.02000 2.508
94.04000 4.670
94.06000 4.572
94.08000 0.329
94.10000 -0.858
94.12000 0.623
94.14000 -2.280
94.16000 0.095
94.18000 2.323
94.20000 4.228
94.22000 6.196
94.24000 8.506
94.26000 6.092
94.28000 1.492
94.30000 5.835
94.32000 5.182
94.34000 5.571
94.36000 4.492
94.38000 5.384
94.40000 4.212
94.42000 4.075
94.44000 0.712
94.46000 -1.527
94.48000 -1.676
94.50000 1.410
94.52000 6.754
94.54000 6.673
94.56000 3.688
94.58000 0.000
94.60000 -0.304
94.62000 -1.705
94.64000 5.557
94.66000 6.800
94.68000 6.625
94.70000 4.925
94.72000 6.169
94.74000 7.270
94.76000 2.624
94.78000 2.230
94.80000 6.679
94.82000 10.389
94.84000 7.157
94.86000 4.201
94.88000 7.743
94.90000 8.793
94.92000 6.353
94.94000 4.671
94.96000 3.179
94.98000 4.002
95.00000 3.940
95.02000 1.649
95.04000 2.011
95.06000 1.963
95.08000 4.662
95.10000 1.947
95.12000 1.742
95.14000 5.954
95.16000 4.224
95.18000 2.872
95.20000 11.276
95.22000 11.361
95.24000 3.633
95.26000 1.167
95.28000 -0.847
95.30000 4.741
95.32000 5.043
95.34000 6.731
95.36000 6.309
95.38000 2.060
95.40000 0.892
95.42000 1.946
95.44000 2.690
95.46000 3.831
95.48000 2.513
95.50000 4.655
95.52000 6.312
95.54000 3.457
95.56000 0.411
95.58000 3.556
95.60000 8.756
95.62000 13.436
95.64000 8.191
95.66000 7.945
95.68000 6.552
95.70000 3.531
95.72000 3.246
95.74000 7.558
95.76000 7.468
95.78000 2.067
95.80000 1.690
95.82000 1.898
95.84000 0.978
95.86000 6.592
95.88000 5.095
95.90000 9.184
95.92000 11.675
95.94000 6.268
95.96000 7.112
95.98000 9.260
96.00000 9.440
96.02000 1.228
96.04000 8.147
96.06000 10.965
96.08000 6.901
96.10000 0.388
96.12000 -2.195
96.14000 4.509
96.16000 5.732
96.18000 1.994
96.20000 4.179
96.22000 3.365
96.24000 6.547
96.26000 7.650
96.28000 10.390
96.30000 6.212
96.32000 11.914
96.34000 8.776
96.36000 4.192
96.38000 3.769
96.40000 6.707
96.42000 9.594
96.44000 3.982
96.46000 4.730
96.48000 3.653
96.50000 0.734
96.52000 5.426
96.54000 2.945
96.56000 4.934
96.58000 4.778
96.60000 3.820
96.62000 6.033
96.64000 9.607
96.66000 7.862
96.68000 4.658
96.70000 7.283
96.72000 7.497
96.74000 11.380
96.76000 6.781
96.78000 5.170
96.80000 7.322
96.82000 3.533
96.84000 0.614
96.86000 -1.715
96.88000 6.048
96.90000 4.085
96.92000 4.998
96.94000 6.950
96.96000 0.390
96.98000 1.432
97.00000 0.555
97.02000 1.287
97.04000 3.515
97.06000 13.658
97.08000 14.033
97.10000 9.956
97.12000 6.213
97.14000 5.689
97.16000 4.030
97.18000 7.536
97.20000 4.076
97.22000 7.477
97.24000 4.575
97.26000 10.368
97.28000 8.164
97.30000 11.084
97.32000 10.482
97.34000 6.875
97.36000 3.358
97.38000 3.631
97.40000 3.647
97.42000 7.277
97.44000 2.757
97.46000 1.246
97.48000 -2.241
97.50000 1.879
97.52000 6.055
97.54000 8.666
97.56000 3.094
97.58000 1.910
97.60000 5.185
97.62000 5.517
97.64000 9.824
97.66000 12.726
97.68000 7.522
97.70000 6.458
97.72000 10.778
97.74000 7.686
97.76000 9.740
97.78000 8.161
97.80000 4.507
97.82000 5.189
97.84000 3.116
97.86000 7.103
97.88000 7.329
97.90000 7.589
97.92000 4.366
97.94000 2.661
97.96000 0.527
97.98000 0.847
98.00000 2.463
98.02000 6.209
98.04000 11.427
98.06000 5.129
98.08000 -2.224
98.10000 -0.749
98.12000 1.215
98.14000 4.116
98.16000 6.188
98.18000 3.850
98.20000 5.661
98.22000 7.736
98.24000 3.523
98.26000 -0.438
98.28000 10.875
98.30000 6.410
98.32000 10.588
98.34000 4.138
98.36000 -1.058
98.38000 3.083
98.40000 5.704
98.42000 1.919
98.44000 5.104
98.46000 0.937
98.48000 0.523
98.50000 -2.204
98.52000 0.143
98.54000 0.459
98.56000 7.088
98.58000 15.862
98.60000 7.724
98.62000 9.388
98.64000 5.084
98.66000 10.194
98.68000 3.240
98.70000 3.758
98.72000 0.145
98.74000 -1.932
98.76000 3.356
98.78000 3.912
98.80000 7.136
98.82000 12.718
98.84000 15.156
98.86000 11.137
98.88000 9.925
98.90000 8.230
98.92000 4.112
98.94000 8.670
98.96000 6.824
98.98000 13.912
99.00000 5.028
99.02000 3.207
99.04000 5.057
99.06000 3.542
99.08000 4.397
99.10000 9.524
99.12000 6.460
99.14000 0.811
99.16000 3.856
99.18000 2.785
99.20000 4.606
99.22000 0.525
99.24000 1.000
99.26000 8.426
99.28000 8.805
99.30000 6.291
99.32000 13.050
99.34000 15.282
99.36000 10.349
99.38000 11.195
99.40000 11.937
99.42000 3.038
99.44000 6.165
99.46000 8.422
99.48000 12.455
99.50000 10.594
99.52000 10.258
99.54000 20.187
99.56000 13.503
99.58000 0.709
99.60000 -2.151
99.62000 5.937
99.64000 3.493
99.66000 3.080
99.68000 21.119
99.70000 10.539
99.72000 6.010
99.74000 11.047
99.76000 14.294
99.78000 16.733
99.80000 12.012
99.82000 9.574
99.84000 13.155
99.86000 3.674
99.88000 -2.141
99.90000 -2.149
99.92000 -1.439
99.94000 0.163
99.96000 3.172
99.98000 0.000
