'Id: "0011389" Comment: "Integrate frame 0011389_Au-Ir-Rh_Au-Rich_XRD_Mapping-252-0000.gfrmwith cursor Wedge Cursor #5" Operator: "B?rgel" Anode: "Cu" Wavelength: "1.5406" Scantype: "2Theta (TwoTheta)" TimePerStep: "1" X: "9" Y: "18" Z: "5.95" 
10.00000 0.000
10.02000 -4.162
10.04000 -4.070
10.06000 10.061
10.08000 18.319
10.10000 17.096
10.12000 19.989
10.14000 5.893
10.16000 9.388
10.18000 -1.554
10.20000 0.718
10.22000 -0.784
10.24000 4.875
10.26000 9.445
10.28000 14.174
10.30000 12.782
10.32000 18.056
10.34000 12.328
10.36000 5.868
10.38000 15.913
10.40000 5.024
10.42000 3.158
10.44000 19.257
10.46000 17.960
10.48000 11.571
10.50000 18.745
10.52000 20.937
10.54000 -7.041
10.56000 4.364
10.58000 16.725
10.60000 11.727
10.62000 0.981
10.64000 -4.139
10.66000 -2.583
10.68000 3.470
10.70000 13.256
10.72000 9.279
10.74000 8.503
10.76000 16.507
10.78000 20.386
10.80000 11.341
10.82000 6.908
10.84000 17.869
10.86000 18.334
10.88000 11.311
10.90000 9.432
10.92000 0.358
10.94000 -1.176
10.96000 10.605
10.98000 13.486
11.00000 6.931
11.02000 11.391
11.04000 9.701
11.06000 4.639
11.08000 5.438
11.10000 4.318
11.12000 7.606
11.14000 17.446
11.16000 -2.517
11.18000 -1.673
11.20000 2.774
11.22000 9.078
11.24000 8.195
11.26000 22.235
11.28000 10.286
11.30000 0.713
11.32000 13.996
11.34000 15.268
11.36000 8.227
11.38000 23.162
11.40000 13.845
11.42000 10.199
11.44000 12.537
11.46000 27.036
11.48000 28.410
11.50000 15.310
11.52000 16.677
11.54000 17.019
11.56000 14.079
11.58000 19.459
11.60000 18.290
11.62000 19.344
11.64000 12.974
11.66000 12.139
11.68000 7.880
11.70000 11.673
11.72000 19.136
11.74000 22.506
11.76000 24.864
11.78000 16.877
11.80000 18.127
11.82000 12.337
11.84000 13.962
11.86000 20.666
11.88000 6.631
11.90000 14.414
11.92000 18.717
11.94000 16.699
11.96000 7.392
11.98000 15.515
12.00000 12.366
12.02000 17.861
12.04000 36.594
12.06000 35.515
12.08000 21.870
12.10000 24.112
12.12000 27.365
12.14000 25.370
12.16000 11.435
12.18000 13.670
12.20000 13.887
12.22000 13.332
12.24000 14.693
12.26000 15.495
12.28000 26.163
12.30000 25.027
12.32000 19.204
12.34000 23.339
12.36000 26.100
12.38000 11.225
12.40000 14.439
12.42000 5.603
12.44000 16.616
12.46000 20.182
12.48000 9.284
12.50000 15.907
12.52000 21.979
12.54000 11.815
12.56000 3.738
12.58000 4.716
12.60000 22.282
12.62000 31.896
12.64000 31.087
12.66000 34.269
12.68000 24.171
12.70000 22.809
12.72000 18.665
12.74000 25.087
12.76000 17.450
12.78000 17.240
12.80000 15.244
12.82000 13.224
12.84000 16.102
12.86000 15.410
12.88000 10.023
12.90000 9.999
12.92000 13.735
12.94000 14.383
12.96000 15.209
12.98000 28.743
13.00000 26.669
13.02000 18.633
13.04000 13.783
13.06000 18.122
13.08000 15.716
13.10000 9.933
13.12000 2.749
13.14000 14.067
13.16000 10.800
13.18000 11.863
13.20000 22.168
13.22000 20.635
13.24000 23.128
13.26000 11.714
13.28000 3.314
13.30000 5.781
13.32000 14.260
13.34000 23.147
13.36000 27.941
13.38000 20.999
13.40000 16.542
13.42000 14.347
13.44000 8.564
13.46000 12.573
13.48000 7.707
13.50000 10.684
13.52000 22.700
13.54000 25.817
13.56000 20.842
13.58000 19.446
13.60000 15.480
13.62000 11.585
13.64000 9.288
13.66000 14.114
13.68000 15.864
13.70000 21.694
13.72000 17.604
13.74000 21.038
13.76000 22.469
13.78000 11.369
13.80000 2.303
13.82000 11.501
13.84000 9.536
13.86000 3.734
13.88000 14.719
13.90000 23.855
13.92000 24.161
13.94000 13.836
13.96000 14.852
13.98000 19.739
14.00000 9.246
14.02000 14.125
14.04000 18.361
14.06000 3.136
14.08000 4.664
14.10000 7.509
14.12000 13.992
14.14000 25.018
14.16000 18.678
14.18000 18.182
14.20000 14.549
14.22000 8.918
14.24000 12.979
14.26000 10.988
14.28000 -0.367
14.30000 5.989
14.32000 10.272
14.34000 17.878
14.36000 7.582
14.38000 8.521
14.40000 10.850
14.42000 11.754
14.44000 12.880
14.46000 12.889
14.48000 6.998
14.50000 9.200
14.52000 12.284
14.54000 8.355
14.56000 16.475
14.58000 19.862
14.60000 13.084
14.62000 9.560
14.64000 5.768
14.66000 14.557
14.68000 11.595
14.70000 8.828
14.72000 3.419
14.74000 5.721
14.76000 11.521
14.78000 10.299
14.80000 7.464
14.82000 14.103
14.84000 7.426
14.86000 -1.233
14.88000 4.690
14.90000 10.149
14.92000 12.427
14.94000 11.774
14.96000 10.221
14.98000 12.418
15.00000 16.744
15.02000 8.998
15.04000 10.931
15.06000 6.834
15.08000 10.801
15.10000 3.324
15.12000 11.446
15.14000 12.705
15.16000 2.835
15.18000 6.019
15.20000 3.745
15.22000 -1.728
15.24000 4.024
15.26000 8.066
15.28000 18.889
15.30000 11.105
15.32000 8.857
15.34000 12.245
15.36000 18.108
15.38000 20.378
15.40000 22.230
15.42000 22.135
15.44000 15.283
15.46000 12.884
15.48000 12.287
15.50000 15.882
15.52000 18.895
15.54000 8.325
15.56000 4.987
15.58000 4.256
15.60000 8.120
15.62000 4.252
15.64000 10.018
15.66000 4.800
15.68000 4.510
15.70000 6.422
15.72000 8.890
15.74000 11.510
15.76000 6.504
15.78000 3.760
15.80000 1.759
15.82000 1.513
15.84000 8.181
15.86000 18.167
15.88000 11.447
15.90000 4.590
15.92000 10.058
15.94000 18.542
15.96000 12.377
15.98000 15.882
16.00000 7.661
16.02000 8.752
16.04000 5.947
16.06000 -3.559
16.08000 -0.367
16.10000 4.332
16.12000 6.344
16.14000 2.649
16.16000 8.714
16.18000 7.669
16.20000 17.531
16.22000 21.940
16.24000 22.531
16.26000 13.568
16.28000 6.709
16.30000 3.258
16.32000 4.195
16.34000 6.575
16.36000 5.677
16.38000 4.663
16.40000 3.316
16.42000 5.432
16.44000 9.772
16.46000 5.356
16.48000 2.148
16.50000 2.228
16.52000 9.812
16.54000 10.704
16.56000 6.798
16.58000 8.624
16.60000 5.915
16.62000 0.895
16.64000 4.719
16.66000 4.896
16.68000 5.160
16.70000 8.117
16.72000 10.415
16.74000 6.525
16.76000 -1.013
16.78000 5.835
16.80000 6.763
16.82000 6.152
16.84000 8.589
16.86000 11.950
16.88000 9.212
16.90000 6.172
16.92000 10.000
16.94000 9.825
16.96000 5.579
16.98000 9.256
17.00000 17.443
17.02000 14.601
17.04000 8.166
17.06000 10.163
17.08000 8.376
17.10000 2.066
17.12000 4.076
17.14000 11.315
17.16000 13.134
17.18000 12.751
17.20000 8.675
17.22000 9.294
17.24000 13.892
17.26000 13.855
17.28000 9.963
17.30000 3.305
17.32000 7.671
17.34000 12.459
17.36000 7.962
17.38000 4.666
17.40000 -0.813
17.42000 0.416
17.44000 1.391
17.46000 7.023
17.48000 14.893
17.50000 8.847
17.52000 3.525
17.54000 6.756
17.56000 8.311
17.58000 8.037
17.60000 5.357
17.62000 8.751
17.64000 11.223
17.66000 11.351
17.68000 11.854
17.70000 11.379
17.72000 13.584
17.74000 9.164
17.76000 7.520
17.78000 0.692
17.80000 -4.340
17.82000 3.304
17.84000 14.998
17.86000 13.671
17.88000 23.299
17.90000 23.152
17.92000 14.099
17.94000 9.907
17.96000 9.419
17.98000 10.890
18.00000 10.382
18.02000 8.383
18.04000 -0.221
18.06000 -0.159
18.08000 7.340
18.10000 2.052
18.12000 1.730
18.14000 9.451
18.16000 11.197
18.18000 12.765
18.20000 14.540
18.22000 20.164
18.24000 14.930
18.26000 15.315
18.28000 12.944
18.30000 8.921
18.32000 1.155
18.34000 -3.120
18.36000 5.649
18.38000 10.973
18.40000 11.126
18.42000 13.966
18.44000 18.323
18.46000 12.721
18.48000 12.483
18.50000 12.690
18.52000 10.194
18.54000 9.232
18.56000 8.627
18.58000 15.041
18.60000 10.677
18.62000 8.491
18.64000 6.245
18.66000 3.072
18.68000 1.562
18.70000 5.773
18.72000 10.296
18.74000 6.478
18.76000 3.988
18.78000 4.356
18.80000 8.304
18.82000 9.612
18.84000 7.169
18.86000 7.341
18.88000 10.619
18.90000 6.826
18.92000 9.254
18.94000 12.687
18.96000 3.550
18.98000 6.386
19.00000 10.353
19.02000 5.331
19.04000 4.271
19.06000 6.982
19.08000 8.454
19.10000 10.401
19.12000 4.995
19.14000 5.250
19.16000 3.496
19.18000 0.909
19.20000 -4.124
19.22000 -0.980
19.24000 4.550
19.26000 7.212
19.28000 13.380
19.30000 12.464
19.32000 10.538
19.34000 11.956
19.36000 8.615
19.38000 10.229
19.40000 5.803
19.42000 3.579
19.44000 4.720
19.46000 7.320
19.48000 7.800
19.50000 8.494
19.52000 11.398
19.54000 8.989
19.56000 -0.381
19.58000 -4.253
19.60000 4.799
19.62000 7.140
19.64000 0.982
19.66000 -0.409
19.68000 7.225
19.70000 -0.635
19.72000 0.881
19.74000 2.369
19.76000 1.964
19.78000 8.347
19.80000 8.727
19.82000 8.812
19.84000 6.310
19.86000 5.043
19.88000 1.703
19.90000 7.482
19.92000 12.004
19.94000 7.262
19.96000 7.410
19.98000 11.278
20.00000 15.008
20.02000 10.400
20.04000 10.204
20.06000 4.416
20.08000 5.275
20.10000 1.908
20.12000 0.120
20.14000 5.380
20.16000 8.033
20.18000 11.049
20.20000 7.907
20.22000 -0.191
20.24000 5.181
20.26000 9.445
20.28000 3.851
20.30000 2.109
20.32000 -1.280
20.34000 3.332
20.36000 7.135
20.38000 6.410
20.40000 9.873
20.42000 6.476
20.44000 -1.123
20.46000 0.916
20.48000 3.775
20.50000 3.687
20.52000 6.809
20.54000 5.278
20.56000 2.843
20.58000 3.950
20.60000 1.954
20.62000 9.802
20.64000 8.151
20.66000 5.613
20.68000 13.630
20.70000 11.684
20.72000 4.111
20.74000 10.783
20.76000 8.408
20.78000 -0.578
20.80000 0.352
20.82000 3.863
20.84000 5.729
20.86000 6.602
20.88000 5.672
20.90000 -1.858
20.92000 -1.750
20.94000 -3.503
20.96000 -4.196
20.98000 1.768
21.00000 12.131
21.02000 9.567
21.04000 11.372
21.06000 7.502
21.08000 3.044
21.10000 4.224
21.12000 10.176
21.14000 14.255
21.16000 9.154
21.18000 5.446
21.20000 6.080
21.22000 -0.239
21.24000 -0.453
21.26000 0.471
21.28000 4.174
21.30000 1.188
21.32000 -3.791
21.34000 -4.174
21.36000 2.896
21.38000 6.731
21.40000 11.351
21.42000 13.305
21.44000 11.157
21.46000 1.407
21.48000 2.090
21.50000 6.127
21.52000 14.033
21.54000 12.324
21.56000 8.606
21.58000 5.003
21.60000 7.085
21.62000 10.314
21.64000 14.680
21.66000 7.689
21.68000 -0.164
21.70000 5.117
21.72000 10.714
21.74000 7.136
21.76000 8.618
21.78000 10.353
21.80000 4.327
21.82000 -4.146
21.84000 1.317
21.86000 4.955
21.88000 3.125
21.90000 -3.433
21.92000 0.824
21.94000 4.162
21.96000 10.546
21.98000 10.306
22.00000 3.419
22.02000 11.437
22.04000 9.547
22.06000 0.834
22.08000 3.073
22.10000 1.186
22.12000 0.666
22.14000 2.089
22.16000 1.094
22.18000 0.159
22.20000 6.442
22.22000 7.603
22.24000 1.463
22.26000 -0.867
22.28000 1.365
22.30000 2.720
22.32000 1.104
22.34000 1.354
22.36000 1.074
22.38000 -2.754
22.40000 1.110
22.42000 -0.294
22.44000 3.498
22.46000 9.227
22.48000 10.701
22.50000 7.194
22.52000 7.052
22.54000 9.962
22.56000 3.962
22.58000 -2.366
22.60000 2.325
22.62000 4.685
22.64000 2.110
22.66000 4.378
22.68000 4.521
22.70000 1.937
22.72000 5.762
22.74000 4.934
22.76000 0.960
22.78000 -0.240
22.80000 9.302
22.82000 9.738
22.84000 5.544
22.86000 7.888
22.88000 7.825
22.90000 5.395
22.92000 3.664
22.94000 -0.420
22.96000 7.733
22.98000 9.559
23.00000 6.806
23.02000 6.167
23.04000 3.110
23.06000 8.850
23.08000 9.150
23.10000 8.808
23.12000 6.562
23.14000 4.707
23.16000 4.847
23.18000 1.306
23.20000 1.574
23.22000 5.183
23.24000 7.965
23.26000 6.062
23.28000 9.662
23.30000 7.811
23.32000 6.534
23.34000 9.539
23.36000 8.434
23.38000 1.800
23.40000 2.491
23.42000 7.804
23.44000 11.098
23.46000 13.345
23.48000 8.349
23.50000 10.135
23.52000 11.136
23.54000 10.607
23.56000 8.197
23.58000 0.073
23.60000 2.335
23.62000 8.719
23.64000 12.067
23.66000 8.052
23.68000 11.489
23.70000 9.731
23.72000 15.208
23.74000 14.090
23.76000 10.482
23.78000 3.569
23.80000 -0.595
23.82000 -4.011
23.84000 -0.430
23.86000 6.839
23.88000 12.017
23.90000 8.949
23.92000 2.232
23.94000 5.947
23.96000 1.940
23.98000 7.588
24.00000 10.997
24.02000 7.890
24.04000 3.751
24.06000 5.926
24.08000 8.201
24.10000 10.193
24.12000 8.715
24.14000 6.200
24.16000 2.621
24.18000 -0.893
24.20000 -0.479
24.22000 -3.437
24.24000 0.183
24.26000 4.777
24.28000 3.629
24.30000 7.982
24.32000 2.262
24.34000 -2.127
24.36000 1.823
24.38000 7.530
24.40000 2.739
24.42000 2.735
24.44000 9.184
24.46000 12.851
24.48000 7.533
24.50000 5.643
24.52000 5.925
24.54000 6.073
24.56000 4.296
24.58000 4.143
24.60000 2.614
24.62000 3.765
24.64000 7.720
24.66000 3.631
24.68000 0.819
24.70000 -2.421
24.72000 4.352
24.74000 8.162
24.76000 2.346
24.78000 4.573
24.80000 3.152
24.82000 -1.833
24.84000 -0.156
24.86000 0.224
24.88000 4.621
24.90000 6.390
24.92000 7.137
24.94000 7.222
24.96000 6.766
24.98000 4.429
25.00000 4.866
25.02000 6.132
25.04000 3.399
25.06000 2.523
25.08000 3.487
25.10000 3.246
25.12000 7.107
25.14000 6.299
25.16000 6.321
25.18000 3.609
25.20000 8.022
25.22000 4.449
25.24000 3.167
25.26000 -0.041
25.28000 -1.430
25.30000 0.278
25.32000 3.254
25.34000 6.986
25.36000 7.860
25.38000 4.635
25.40000 6.672
25.42000 13.910
25.44000 11.079
25.46000 11.064
25.48000 4.299
25.50000 3.318
25.52000 7.995
25.54000 3.164
25.56000 8.505
25.58000 11.058
25.60000 9.449
25.62000 7.681
25.64000 5.143
25.66000 8.727
25.68000 7.626
25.70000 7.814
25.72000 7.147
25.74000 1.172
25.76000 2.617
25.78000 8.683
25.80000 5.949
25.82000 5.348
25.84000 8.416
25.86000 8.747
25.88000 4.051
25.90000 7.769
25.92000 11.163
25.94000 12.584
25.96000 6.284
25.98000 0.256
26.00000 -3.902
26.02000 -3.813
26.04000 2.367
26.06000 6.824
26.08000 10.587
26.10000 12.661
26.12000 2.764
26.14000 0.674
26.16000 4.297
26.18000 4.281
26.20000 5.781
26.22000 5.021
26.24000 3.575
26.26000 5.473
26.28000 6.143
26.30000 6.844
26.32000 3.500
26.34000 5.236
26.36000 6.428
26.38000 11.066
26.40000 3.666
26.42000 -0.951
26.44000 6.880
26.46000 10.729
26.48000 8.235
26.50000 6.863
26.52000 4.949
26.54000 5.171
26.56000 5.479
26.58000 3.401
26.60000 7.732
26.62000 10.149
26.64000 10.225
26.66000 7.011
26.68000 2.896
26.70000 5.456
26.72000 5.989
26.74000 9.378
26.76000 7.852
26.78000 5.691
26.80000 8.409
26.82000 6.878
26.84000 7.514
26.86000 6.115
26.88000 0.885
26.90000 7.021
26.92000 3.979
26.94000 7.598
26.96000 6.548
26.98000 5.155
27.00000 -0.122
27.02000 -2.278
27.04000 -2.140
27.06000 1.754
27.08000 6.212
27.10000 1.824
27.12000 3.623
27.14000 7.578
27.16000 7.769
27.18000 4.174
27.20000 5.610
27.22000 5.568
27.24000 5.036
27.26000 3.476
27.28000 1.323
27.30000 2.709
27.32000 5.053
27.34000 8.490
27.36000 6.610
27.38000 3.700
27.40000 0.722
27.42000 1.531
27.44000 3.047
27.46000 7.738
27.48000 9.895
27.50000 5.782
27.52000 3.426
27.54000 6.789
27.56000 6.692
27.58000 4.874
27.60000 5.222
27.62000 0.473
27.64000 2.399
27.66000 6.737
27.68000 4.947
27.70000 5.705
27.72000 7.815
27.74000 14.029
27.76000 9.248
27.78000 12.742
27.80000 3.506
27.82000 -0.493
27.84000 5.021
27.86000 7.146
27.88000 7.385
27.90000 7.434
27.92000 12.020
27.94000 11.284
27.96000 5.011
27.98000 1.287
28.00000 3.774
28.02000 4.806
28.04000 4.286
28.06000 0.127
28.08000 -3.802
28.10000 3.327
28.12000 6.139
28.14000 5.038
28.16000 -3.243
28.18000 1.544
28.20000 6.173
28.22000 5.412
28.24000 3.775
28.26000 -3.789
28.28000 4.359
28.30000 9.597
28.32000 9.034
28.34000 9.519
28.36000 11.377
28.38000 10.708
28.40000 4.560
28.42000 7.647
28.44000 5.943
28.46000 2.600
28.48000 8.061
28.50000 10.685
28.52000 5.538
28.54000 2.023
28.56000 -0.274
28.58000 8.898
28.60000 8.512
28.62000 2.913
28.64000 3.283
28.66000 5.292
28.68000 4.941
28.70000 1.411
28.72000 3.114
28.74000 6.569
28.76000 5.318
28.78000 2.826
28.80000 3.026
28.82000 4.361
28.84000 4.867
28.86000 7.202
28.88000 2.513
28.90000 7.049
28.92000 6.140
28.94000 4.942
28.96000 5.717
28.98000 4.154
29.00000 8.559
29.02000 2.379
29.04000 3.773
29.06000 4.746
29.08000 5.855
29.10000 5.918
29.12000 5.356
29.14000 -0.760
29.16000 -1.837
29.18000 4.610
29.20000 3.043
29.22000 3.690
29.24000 0.714
29.26000 -2.794
29.28000 4.503
29.30000 3.646
29.32000 4.148
29.34000 2.341
29.36000 0.092
29.38000 -1.106
29.40000 2.590
29.42000 0.867
29.44000 0.323
29.46000 -2.101
29.48000 1.421
29.50000 0.579
29.52000 2.184
29.54000 3.655
29.56000 3.240
29.58000 3.830
29.60000 -2.297
29.62000 -2.300
29.64000 0.563
29.66000 3.614
29.68000 3.016
29.70000 4.439
29.72000 2.035
29.74000 -0.551
29.76000 -0.479
29.78000 3.514
29.80000 4.129
29.82000 4.422
29.84000 4.344
29.86000 7.921
29.88000 0.550
29.90000 -1.986
29.92000 3.081
29.94000 2.299
29.96000 -0.215
29.98000 1.956
30.00000 3.487
30.02000 0.911
30.04000 2.657
30.06000 -0.574
30.08000 1.003
30.10000 2.092
30.12000 1.680
30.14000 9.648
30.16000 5.324
30.18000 5.581
30.20000 2.455
30.22000 -0.517
30.24000 -3.737
30.26000 -0.805
30.28000 4.028
30.30000 2.248
30.32000 0.549
30.34000 3.744
30.36000 1.497
30.38000 -2.087
30.40000 5.254
30.42000 3.127
30.44000 2.163
30.46000 5.286
30.48000 4.748
30.50000 2.620
30.52000 2.929
30.54000 1.056
30.56000 -0.004
30.58000 -0.767
30.60000 0.338
30.62000 1.082
30.64000 4.066
30.66000 2.040
30.68000 -0.031
30.70000 -2.642
30.72000 1.300
30.74000 5.160
30.76000 8.431
30.78000 3.152
30.80000 3.953
30.82000 -1.266
30.84000 -2.057
30.86000 2.671
30.88000 4.139
30.90000 3.912
30.92000 3.751
30.94000 -1.705
30.96000 2.359
30.98000 2.108
31.00000 -2.269
31.02000 -3.692
31.04000 -0.115
31.06000 8.203
31.08000 8.213
31.10000 3.053
31.12000 2.906
31.14000 6.619
31.16000 1.261
31.18000 0.343
31.20000 -1.308
31.22000 3.389
31.24000 7.228
31.26000 2.454
31.28000 -1.071
31.30000 1.045
31.32000 2.200
31.34000 1.014
31.36000 3.485
31.38000 -0.022
31.40000 0.636
31.42000 1.185
31.44000 2.100
31.46000 3.000
31.48000 3.999
31.50000 3.120
31.52000 4.896
31.54000 4.538
31.56000 2.689
31.58000 0.538
31.60000 3.078
31.62000 5.485
31.64000 2.577
31.66000 0.866
31.68000 -2.671
31.70000 -3.674
31.72000 1.974
31.74000 2.505
31.76000 0.135
31.78000 1.392
31.80000 3.614
31.82000 -0.553
31.84000 3.660
31.86000 3.037
31.88000 -0.158
31.90000 1.881
31.92000 -0.891
31.94000 1.798
31.96000 0.383
31.98000 1.402
32.00000 1.167
32.02000 -2.577
32.04000 -1.927
32.06000 3.277
32.08000 2.385
32.10000 3.065
32.12000 1.381
32.14000 -0.077
32.16000 0.167
32.18000 -1.107
32.20000 -0.861
32.22000 0.053
32.24000 0.700
32.26000 2.941
32.28000 2.096
32.30000 2.631
32.32000 -2.420
32.34000 0.438
32.36000 5.753
32.38000 0.834
32.40000 4.079
32.42000 2.849
32.44000 1.578
32.46000 5.020
32.48000 3.444
32.50000 -3.194
32.52000 1.269
32.54000 5.041
32.56000 3.220
32.58000 7.954
32.60000 2.095
32.62000 0.984
32.64000 2.556
32.66000 6.075
32.68000 4.964
32.70000 -3.647
32.72000 -0.508
32.74000 2.762
32.76000 -0.230
32.78000 1.985
32.80000 1.423
32.82000 0.824
32.84000 -2.696
32.86000 -1.269
32.88000 -3.444
32.90000 1.642
32.92000 0.761
32.94000 -1.871
32.96000 0.266
32.98000 -1.421
33.00000 0.239
33.02000 3.746
33.04000 6.334
33.06000 3.182
33.08000 3.833
33.10000 3.179
33.12000 1.119
33.14000 -0.591
33.16000 -1.281
33.18000 4.298
33.20000 3.798
33.22000 3.094
33.24000 0.881
33.26000 5.230
33.28000 5.741
33.30000 3.442
33.32000 1.146
33.34000 -1.500
33.36000 0.237
33.38000 0.814
33.40000 2.528
33.42000 2.568
33.44000 4.973
33.46000 4.461
33.48000 2.019
33.50000 -1.084
33.52000 3.241
33.54000 2.923
33.56000 3.059
33.58000 1.607
33.60000 2.289
33.62000 2.496
33.64000 3.401
33.66000 2.649
33.68000 0.059
33.70000 1.028
33.72000 4.835
33.74000 2.065
33.76000 7.887
33.78000 9.284
33.80000 7.799
33.82000 7.691
33.84000 3.843
33.86000 2.420
33.88000 5.897
33.90000 6.256
33.92000 3.597
33.94000 2.485
33.96000 4.758
33.98000 2.449
34.00000 2.788
34.02000 7.462
34.04000 2.888
34.06000 3.855
34.08000 6.218
34.10000 0.117
34.12000 1.847
34.14000 5.226
34.16000 2.229
34.18000 3.259
34.20000 5.978
34.22000 6.005
34.24000 4.828
34.26000 4.434
34.28000 3.562
34.30000 6.181
34.32000 4.303
34.34000 3.621
34.36000 2.647
34.38000 7.543
34.40000 7.444
34.42000 4.464
34.44000 1.371
34.46000 0.467
34.48000 -3.615
34.50000 -0.192
34.52000 4.484
34.54000 3.737
34.56000 3.856
34.58000 -0.626
34.60000 -1.832
34.62000 -0.845
34.64000 6.663
34.66000 6.900
34.68000 5.422
34.70000 6.177
34.72000 -0.104
34.74000 0.054
34.76000 2.209
34.78000 0.891
34.80000 7.258
34.82000 10.318
34.84000 -0.728
34.86000 -0.329
34.88000 6.454
34.90000 2.820
34.92000 -1.618
34.94000 0.659
34.96000 0.076
34.98000 -0.381
35.00000 3.150
35.02000 0.424
35.04000 2.916
35.06000 1.186
35.08000 1.493
35.10000 0.478
35.12000 -0.215
35.14000 -2.053
35.16000 2.283
35.18000 4.683
35.20000 0.854
35.22000 -2.459
35.24000 1.428
35.26000 0.245
35.28000 -0.838
35.30000 -1.302
35.32000 -0.191
35.34000 -2.825
35.36000 -2.538
35.38000 5.630
35.40000 4.042
35.42000 -0.301
35.44000 -0.577
35.46000 -3.635
35.48000 -0.787
35.50000 2.909
35.52000 7.030
35.54000 5.655
35.56000 0.724
35.58000 2.068
35.60000 1.760
35.62000 3.894
35.64000 4.719
35.66000 2.419
35.68000 3.376
35.70000 0.199
35.72000 3.235
35.74000 7.174
35.76000 3.561
35.78000 7.644
35.80000 5.865
35.82000 1.439
35.84000 7.227
35.86000 -0.090
35.88000 3.748
35.90000 3.232
35.92000 2.538
35.94000 9.590
35.96000 7.397
35.98000 10.986
36.00000 3.835
36.02000 -0.466
36.04000 -3.632
36.06000 1.622
36.08000 3.438
36.10000 -1.817
36.12000 1.023
36.14000 6.345
36.16000 4.140
36.18000 2.701
36.20000 5.650
36.22000 8.553
36.24000 1.075
36.26000 2.553
36.28000 5.780
36.30000 3.470
36.32000 3.214
36.34000 3.072
36.36000 3.276
36.38000 5.900
36.40000 4.712
36.42000 0.346
36.44000 6.230
36.46000 7.202
36.48000 1.241
36.50000 0.056
36.52000 1.897
36.54000 5.920
36.56000 3.618
36.58000 2.848
36.60000 2.674
36.62000 2.707
36.64000 8.431
36.66000 4.327
36.68000 1.943
36.70000 3.198
36.72000 3.829
36.74000 3.625
36.76000 4.976
36.78000 5.903
36.80000 10.957
36.82000 8.403
36.84000 10.764
36.86000 6.910
36.88000 3.495
36.90000 6.268
36.92000 7.526
36.94000 3.903
36.96000 2.932
36.98000 5.883
37.00000 9.792
37.02000 9.486
37.04000 7.764
37.06000 9.875
37.08000 5.354
37.10000 8.504
37.12000 6.659
37.14000 9.136
37.16000 7.568
37.18000 13.468
37.20000 11.441
37.22000 12.649
37.24000 13.202
37.26000 9.701
37.28000 8.006
37.30000 13.166
37.32000 7.259
37.34000 7.884
37.36000 13.472
37.38000 18.321
37.40000 13.137
37.42000 11.506
37.44000 12.194
37.46000 11.091
37.48000 14.946
37.50000 12.381
37.52000 14.040
37.54000 19.878
37.56000 18.966
37.58000 17.313
37.60000 20.798
37.62000 17.469
37.64000 14.554
37.66000 19.104
37.68000 21.490
37.70000 20.937
37.72000 21.929
37.74000 21.347
37.76000 21.973
37.78000 27.098
37.80000 25.893
37.82000 24.504
37.84000 23.619
37.86000 24.577
37.88000 30.340
37.90000 31.114
37.92000 30.270
37.94000 31.765
37.96000 30.607
37.98000 33.667
38.00000 36.174
38.02000 36.866
38.04000 36.163
38.06000 35.967
38.08000 39.605
38.10000 43.961
38.12000 38.501
38.14000 42.407
38.16000 45.903
38.18000 46.639
38.20000 47.915
38.22000 47.327
38.24000 53.884
38.26000 57.303
38.28000 55.943
38.30000 50.471
38.32000 52.181
38.34000 56.577
38.36000 66.399
38.38000 70.352
38.40000 74.217
38.42000 75.597
38.44000 78.926
38.46000 75.416
38.48000 79.455
38.50000 81.888
38.52000 88.456
38.54000 102.180
38.56000 102.907
38.58000 104.891
38.60000 110.672
38.62000 113.317
38.64000 123.616
38.66000 133.209
38.68000 138.159
38.70000 148.163
38.72000 155.057
38.74000 159.302
38.76000 169.338
38.78000 174.031
38.80000 184.538
38.82000 194.356
38.84000 214.704
38.86000 228.244
38.88000 249.774
38.90000 257.180
38.92000 273.648
38.94000 284.677
38.96000 293.696
38.98000 307.979
39.00000 329.283
39.02000 343.001
39.04000 360.308
39.06000 374.430
39.08000 382.858
39.10000 398.326
39.12000 407.148
39.14000 413.999
39.16000 420.620
39.18000 424.839
39.20000 431.351
39.22000 431.748
39.24000 428.771
39.26000 424.595
39.28000 427.596
39.30000 420.027
39.32000 405.623
39.34000 396.261
39.36000 394.234
39.38000 383.088
39.40000 370.901
39.42000 350.756
39.44000 338.944
39.46000 329.119
39.48000 317.821
39.50000 306.715
39.52000 283.884
39.54000 271.405
39.56000 266.018
39.58000 243.496
39.60000 223.114
39.62000 211.021
39.64000 191.130
39.66000 179.505
39.68000 181.808
39.70000 173.006
39.72000 160.902
39.74000 144.418
39.76000 136.997
39.78000 134.836
39.80000 124.953
39.82000 112.024
39.84000 107.389
39.86000 103.418
39.88000 95.365
39.90000 92.376
39.92000 84.328
39.94000 73.838
39.96000 67.945
39.98000 65.643
40.00000 67.264
40.02000 60.886
40.04000 59.111
40.06000 58.857
40.08000 57.877
40.10000 57.198
40.12000 48.222
40.14000 48.127
40.16000 46.027
40.18000 43.264
40.20000 43.536
40.22000 39.737
40.24000 36.311
40.26000 36.378
40.28000 30.400
40.30000 30.415
40.32000 27.784
40.34000 29.180
40.36000 33.729
40.38000 27.245
40.40000 25.360
40.42000 21.379
40.44000 19.670
40.46000 21.683
40.48000 18.208
40.50000 17.780
40.52000 15.844
40.54000 16.367
40.56000 19.256
40.58000 17.663
40.60000 17.957
40.62000 18.570
40.64000 16.299
40.66000 13.798
40.68000 9.770
40.70000 7.523
40.72000 8.355
40.74000 6.040
40.76000 9.502
40.78000 10.394
40.80000 11.563
40.82000 14.204
40.84000 12.599
40.86000 9.813
40.88000 8.572
40.90000 7.844
40.92000 4.630
40.94000 7.476
40.96000 6.613
40.98000 4.606
41.00000 6.479
41.02000 7.853
41.04000 6.051
41.06000 3.740
41.08000 3.177
41.10000 3.323
41.12000 2.841
41.14000 3.090
41.16000 0.743
41.18000 -2.094
41.20000 -0.866
41.22000 1.802
41.24000 3.473
41.26000 4.263
41.28000 4.343
41.30000 5.093
41.32000 5.406
41.34000 3.252
41.36000 4.357
41.38000 3.826
41.40000 3.289
41.42000 1.980
41.44000 4.021
41.46000 4.051
41.48000 7.017
41.50000 3.870
41.52000 0.520
41.54000 0.147
41.56000 1.847
41.58000 3.153
41.60000 1.422
41.62000 1.813
41.64000 0.696
41.66000 -0.639
41.68000 -1.038
41.70000 1.854
41.72000 -0.391
41.74000 1.482
41.76000 4.444
41.78000 2.918
41.80000 0.538
41.82000 -0.587
41.84000 0.711
41.86000 0.899
41.88000 -1.057
41.90000 -0.100
41.92000 -1.961
41.94000 0.026
41.96000 -0.942
41.98000 2.058
42.00000 3.014
42.02000 1.364
42.04000 -3.359
42.06000 2.326
42.08000 3.492
42.10000 4.865
42.12000 -0.718
42.14000 -2.649
42.16000 1.146
42.18000 4.164
42.20000 4.105
42.22000 4.164
42.24000 4.394
42.26000 0.611
42.28000 -0.079
42.30000 2.103
42.32000 2.571
42.34000 0.288
42.36000 -1.915
42.38000 -0.556
42.40000 1.617
42.42000 3.833
42.44000 2.844
42.46000 2.832
42.48000 0.894
42.50000 2.704
42.52000 1.569
42.54000 3.434
42.56000 1.245
42.58000 1.809
42.60000 1.860
42.62000 -0.015
42.64000 -0.459
42.66000 1.699
42.68000 -0.937
42.70000 2.359
42.72000 3.734
42.74000 2.814
42.76000 4.342
42.78000 9.707
42.80000 7.221
42.82000 4.622
42.84000 2.709
42.86000 -3.239
42.88000 0.993
42.90000 1.323
42.92000 1.835
42.94000 1.360
42.96000 -0.889
42.98000 2.869
43.00000 4.494
43.02000 2.021
43.04000 2.532
43.06000 1.295
43.08000 4.739
43.10000 4.674
43.12000 4.689
43.14000 1.165
43.16000 4.456
43.18000 0.998
43.20000 -0.794
43.22000 -0.309
43.24000 -1.001
43.26000 -2.255
43.28000 1.907
43.30000 3.180
43.32000 0.606
43.34000 1.352
43.36000 2.937
43.38000 -0.302
43.40000 -0.007
43.42000 2.597
43.44000 2.345
43.46000 -1.712
43.48000 -0.908
43.50000 1.626
43.52000 0.694
43.54000 -3.201
43.56000 -1.933
43.58000 -0.939
43.60000 -0.739
43.62000 2.966
43.64000 2.328
43.66000 2.687
43.68000 5.342
43.70000 2.371
43.72000 1.860
43.74000 1.300
43.76000 1.167
43.78000 -0.057
43.80000 -2.469
43.82000 -1.799
43.84000 -0.356
43.86000 3.095
43.88000 -1.736
43.90000 -0.572
43.92000 -0.131
43.94000 1.054
43.96000 1.838
43.98000 2.321
44.00000 -2.066
44.02000 -0.289
44.04000 -0.263
44.06000 2.086
44.08000 2.818
44.10000 3.292
44.12000 1.768
44.14000 2.573
44.16000 0.579
44.18000 3.303
44.20000 4.479
44.22000 4.761
44.24000 3.054
44.26000 0.162
44.28000 1.264
44.30000 0.153
44.32000 -0.711
44.34000 1.297
44.36000 1.248
44.38000 0.129
44.40000 2.232
44.42000 3.458
44.44000 1.738
44.46000 4.626
44.48000 4.720
44.50000 5.334
44.52000 4.609
44.54000 3.866
44.56000 6.073
44.58000 14.177
44.60000 11.407
44.62000 6.795
44.64000 8.272
44.66000 4.229
44.68000 3.229
44.70000 8.791
44.72000 10.827
44.74000 12.079
44.76000 8.891
44.78000 10.947
44.80000 14.072
44.82000 9.282
44.84000 9.051
44.86000 10.394
44.88000 13.840
44.90000 16.294
44.92000 13.400
44.94000 9.318
44.96000 14.486
44.98000 14.839
45.00000 16.249
45.02000 16.760
45.04000 21.113
45.06000 24.869
45.08000 23.662
45.10000 26.694
45.12000 23.131
45.14000 27.535
45.16000 28.299
45.18000 29.774
45.20000 31.628
45.22000 27.601
45.24000 29.558
45.26000 36.447
45.28000 39.751
45.30000 37.933
45.32000 41.024
45.34000 39.515
45.36000 41.253
45.38000 47.087
45.40000 50.586
45.42000 51.454
45.44000 49.424
45.46000 50.778
45.48000 56.299
45.50000 55.437
45.52000 57.480
45.54000 58.852
45.56000 63.862
45.58000 65.754
45.60000 62.683
45.62000 66.526
45.64000 70.333
45.66000 71.465
45.68000 71.838
45.70000 71.641
45.72000 76.263
45.74000 74.474
45.76000 76.900
45.78000 77.011
45.80000 77.771
45.82000 81.376
45.84000 79.629
45.86000 80.246
45.88000 80.990
45.90000 80.099
45.92000 83.048
45.94000 83.641
45.96000 79.868
45.98000 78.386
46.00000 74.406
46.02000 72.821
46.04000 74.451
46.06000 71.485
46.08000 66.673
46.10000 64.184
46.12000 60.781
46.14000 58.697
46.16000 54.861
46.18000 60.140
46.20000 54.775
46.22000 54.873
46.24000 54.293
46.26000 53.051
46.28000 48.252
46.30000 41.672
46.32000 40.398
46.34000 40.413
46.36000 37.674
46.38000 35.806
46.40000 36.233
46.42000 32.206
46.44000 28.514
46.46000 31.064
46.48000 28.328
46.50000 27.349
46.52000 25.562
46.54000 19.102
46.56000 23.800
46.58000 22.259
46.60000 19.299
46.62000 12.542
46.64000 11.881
46.66000 16.923
46.68000 13.476
46.70000 11.079
46.72000 13.037
46.74000 9.282
46.76000 5.961
46.78000 7.605
46.80000 11.042
46.82000 13.636
46.84000 12.093
46.86000 6.909
46.88000 2.953
46.90000 6.072
46.92000 7.410
46.94000 9.420
46.96000 8.212
46.98000 4.010
47.00000 0.122
47.02000 2.020
47.04000 7.225
47.06000 6.935
47.08000 5.897
47.10000 3.764
47.12000 3.952
47.14000 0.671
47.16000 0.666
47.18000 3.928
47.20000 4.507
47.22000 6.102
47.24000 2.296
47.26000 -1.276
47.28000 0.583
47.30000 5.968
47.32000 4.031
47.34000 3.559
47.36000 4.538
47.38000 6.615
47.40000 3.860
47.42000 4.315
47.44000 1.375
47.46000 3.456
47.48000 5.594
47.50000 3.283
47.52000 0.636
47.54000 -2.751
47.56000 -0.457
47.58000 2.876
47.60000 4.963
47.62000 4.930
47.64000 1.825
47.66000 1.123
47.68000 2.627
47.70000 4.328
47.72000 0.847
47.74000 -0.273
47.76000 2.709
47.78000 3.714
47.80000 3.031
47.82000 0.612
47.84000 2.425
47.86000 -1.281
47.88000 3.954
47.90000 2.975
47.92000 4.454
47.94000 6.380
47.96000 2.284
47.98000 1.802
48.00000 2.311
48.02000 0.510
48.04000 0.013
48.06000 -0.124
48.08000 1.718
48.10000 5.613
48.12000 2.379
48.14000 -0.267
48.16000 2.233
48.18000 6.214
48.20000 5.670
48.22000 0.193
48.24000 -1.225
48.26000 -2.670
48.28000 -0.643
48.30000 2.858
48.32000 0.089
48.34000 -0.568
48.36000 4.669
48.38000 3.210
48.40000 3.766
48.42000 5.760
48.44000 0.448
48.46000 -2.415
48.48000 1.532
48.50000 -1.674
48.52000 -1.847
48.54000 -1.376
48.56000 -1.877
48.58000 -2.609
48.60000 -1.907
48.62000 -1.167
48.64000 0.691
48.66000 0.678
48.68000 -0.136
48.70000 -1.541
48.72000 -1.776
48.74000 -1.712
48.76000 -2.073
48.78000 -2.279
48.80000 -1.441
48.82000 -1.713
48.84000 -0.787
48.86000 0.125
48.88000 -1.949
48.90000 -0.755
48.92000 2.274
48.94000 0.781
48.96000 0.963
48.98000 -0.873
49.00000 -1.177
49.02000 0.460
49.04000 0.369
49.06000 -0.290
49.08000 -0.407
49.10000 1.124
49.12000 0.010
49.14000 -1.512
49.16000 -0.449
49.18000 -0.907
49.20000 0.423
49.22000 2.898
49.24000 1.449
49.26000 0.582
49.28000 0.590
49.30000 -0.805
49.32000 2.348
49.34000 0.645
49.36000 -1.009
49.38000 -2.519
49.40000 0.880
49.42000 1.632
49.44000 2.315
49.46000 4.947
49.48000 6.157
49.50000 1.712
49.52000 1.191
49.54000 2.027
49.56000 -2.625
49.58000 -1.269
49.60000 1.620
49.62000 2.738
49.64000 1.201
49.66000 -0.537
49.68000 -0.571
49.70000 1.631
49.72000 0.714
49.74000 1.915
49.76000 -0.847
49.78000 -1.734
49.80000 0.522
49.82000 0.533
49.84000 -1.850
49.86000 1.753
49.88000 5.929
49.90000 6.391
49.92000 1.809
49.94000 0.526
49.96000 3.930
49.98000 3.765
50.00000 2.422
50.02000 2.275
50.04000 0.487
50.06000 -0.008
50.08000 -1.756
50.10000 -0.590
50.12000 -1.926
50.14000 5.341
50.16000 5.627
50.18000 3.658
50.20000 2.916
50.22000 1.382
50.24000 0.445
50.26000 1.632
50.28000 -2.561
50.30000 1.832
50.32000 -1.146
50.34000 0.272
50.36000 2.790
50.38000 2.043
50.40000 2.341
50.42000 1.142
50.44000 4.046
50.46000 1.577
50.48000 2.391
50.50000 2.042
50.52000 4.379
50.54000 3.878
50.56000 2.444
50.58000 -1.248
50.60000 3.193
50.62000 4.406
50.64000 2.752
50.66000 -2.523
50.68000 -1.591
50.70000 1.669
50.72000 -0.528
50.74000 1.916
50.76000 4.327
50.78000 3.585
50.80000 4.616
50.82000 1.976
50.84000 0.835
50.86000 2.510
50.88000 3.708
50.90000 0.619
50.92000 5.205
50.94000 8.966
50.96000 3.181
50.98000 0.600
51.00000 0.358
51.02000 1.010
51.04000 3.020
51.06000 2.372
51.08000 2.174
51.10000 -0.168
51.12000 4.355
51.14000 6.478
51.16000 3.707
51.18000 1.773
51.20000 5.682
51.22000 3.986
51.24000 -1.074
51.26000 -0.756
51.28000 1.906
51.30000 2.677
51.32000 0.470
51.34000 -2.522
51.36000 0.711
51.38000 0.476
51.40000 0.972
51.42000 -2.504
51.44000 -2.488
51.46000 -0.194
51.48000 0.393
51.50000 0.815
51.52000 2.356
51.54000 4.502
51.56000 4.716
51.58000 2.369
51.60000 0.893
51.62000 1.142
51.64000 5.086
51.66000 2.526
51.68000 0.520
51.70000 1.662
51.72000 0.738
51.74000 1.865
51.76000 1.617
51.78000 3.402
51.80000 1.217
51.82000 -0.731
51.84000 0.471
51.86000 6.812
51.88000 5.656
51.90000 6.761
51.92000 -0.010
51.94000 -0.728
51.96000 6.322
51.98000 10.806
52.00000 7.086
52.02000 1.342
52.04000 2.366
52.06000 4.296
52.08000 0.635
52.10000 1.072
52.12000 2.744
52.14000 4.434
52.16000 2.451
52.18000 1.809
52.20000 -1.022
52.22000 0.915
52.24000 2.829
52.26000 2.354
52.28000 2.088
52.30000 -2.189
52.32000 -2.454
52.34000 -0.128
52.36000 -2.399
52.38000 0.057
52.40000 2.224
52.42000 2.340
52.44000 2.009
52.46000 0.348
52.48000 -1.246
52.50000 -0.115
52.52000 3.986
52.54000 4.329
52.56000 2.097
52.58000 1.250
52.60000 3.388
52.62000 6.539
52.64000 5.525
52.66000 3.787
52.68000 6.804
52.70000 3.458
52.72000 1.561
52.74000 -1.759
52.76000 -1.351
52.78000 -1.222
52.80000 1.006
52.82000 2.866
52.84000 1.642
52.86000 -0.760
52.88000 2.351
52.90000 5.028
52.92000 5.065
52.94000 0.424
52.96000 0.887
52.98000 0.904
53.00000 3.028
53.02000 5.120
53.04000 3.853
53.06000 2.116
53.08000 2.665
53.10000 -2.473
53.12000 -1.724
53.14000 1.197
53.16000 1.789
53.18000 2.533
53.20000 4.409
53.22000 3.824
53.24000 1.296
53.26000 0.915
53.28000 1.715
53.30000 6.284
53.32000 2.828
53.34000 2.921
53.36000 1.794
53.38000 3.276
53.40000 3.860
53.42000 0.926
53.44000 -1.133
53.46000 -0.596
53.48000 -0.145
53.50000 0.737
53.52000 4.337
53.54000 3.805
53.56000 1.032
53.58000 2.244
53.60000 5.439
53.62000 2.849
53.64000 1.620
53.66000 2.151
53.68000 1.793
53.70000 0.512
53.72000 4.855
53.74000 5.897
53.76000 1.464
53.78000 -2.373
53.80000 -0.762
53.82000 0.084
53.84000 3.079
53.86000 2.925
53.88000 0.897
53.90000 -0.174
53.92000 -1.074
53.94000 0.348
53.96000 -2.472
53.98000 -1.351
54.00000 -0.690
54.02000 2.276
54.04000 1.184
54.06000 3.125
54.08000 3.613
54.10000 6.446
54.12000 6.765
54.14000 2.586
54.16000 0.886
54.18000 1.978
54.20000 0.235
54.22000 4.492
54.24000 2.428
54.26000 1.796
54.28000 -0.948
54.30000 1.643
54.32000 -1.292
54.34000 -0.302
54.36000 -0.531
54.38000 -2.460
54.40000 0.436
54.42000 3.949
54.44000 3.527
54.46000 1.461
54.48000 0.855
54.50000 6.099
54.52000 2.373
54.54000 0.844
54.56000 3.803
54.58000 2.405
54.60000 5.898
54.62000 4.513
54.64000 1.681
54.66000 -1.870
54.68000 -2.192
54.70000 -1.710
54.72000 2.202
54.74000 3.076
54.76000 1.677
54.78000 0.396
54.80000 0.833
54.82000 3.532
54.84000 0.805
54.86000 4.142
54.88000 3.166
54.90000 1.742
54.92000 1.547
54.94000 -2.440
54.96000 1.826
54.98000 6.387
55.00000 6.146
55.02000 2.042
55.04000 0.472
55.06000 0.446
55.08000 3.255
55.10000 4.513
55.12000 4.599
55.14000 -1.588
55.16000 3.407
55.18000 4.110
55.20000 5.679
55.22000 3.318
55.24000 2.111
55.26000 1.158
55.28000 0.076
55.30000 -1.061
55.32000 3.488
55.34000 2.315
55.36000 2.326
55.38000 0.180
55.40000 0.442
55.42000 2.383
55.44000 2.761
55.46000 2.830
55.48000 2.972
55.50000 3.467
55.52000 3.862
55.54000 6.254
55.56000 5.607
55.58000 5.879
55.60000 7.167
55.62000 5.002
55.64000 4.075
55.66000 3.731
55.68000 2.616
55.70000 3.636
55.72000 5.162
55.74000 3.266
55.76000 2.818
55.78000 7.102
55.80000 7.913
55.82000 8.332
55.84000 5.769
55.86000 3.572
55.88000 2.356
55.90000 -2.399
55.92000 -2.097
55.94000 0.492
55.96000 0.070
55.98000 3.355
56.00000 4.862
56.02000 5.353
56.04000 4.113
56.06000 3.553
56.08000 0.593
56.10000 -0.837
56.12000 1.168
56.14000 2.638
56.16000 1.448
56.18000 1.475
56.20000 2.413
56.22000 1.081
56.24000 1.005
56.26000 2.939
56.28000 5.581
56.30000 5.083
56.32000 2.894
56.34000 3.978
56.36000 3.646
56.38000 2.488
56.40000 3.902
56.42000 3.414
56.44000 2.310
56.46000 1.050
56.48000 -0.037
56.50000 2.049
56.52000 -0.313
56.54000 -0.315
56.56000 0.375
56.58000 3.586
56.60000 6.713
56.62000 7.579
56.64000 0.284
56.66000 -1.257
56.68000 0.350
56.70000 4.380
56.72000 5.055
56.74000 2.189
56.76000 1.740
56.78000 -1.524
56.80000 -0.342
56.82000 1.737
56.84000 3.096
56.86000 4.660
56.88000 2.353
56.90000 1.977
56.92000 4.602
56.94000 1.405
56.96000 1.057
56.98000 3.125
57.00000 2.227
57.02000 -0.314
57.04000 0.628
57.06000 2.929
57.08000 1.968
57.10000 -1.633
57.12000 -0.686
57.14000 0.992
57.16000 4.210
57.18000 3.790
57.20000 4.846
57.22000 4.614
57.24000 4.189
57.26000 1.245
57.28000 3.354
57.30000 2.629
57.32000 3.512
57.34000 2.032
57.36000 3.749
57.38000 4.291
57.40000 1.965
57.42000 2.920
57.44000 1.247
57.46000 3.603
57.48000 5.969
57.50000 1.027
57.52000 -2.358
57.54000 0.095
57.56000 2.785
57.58000 2.557
57.60000 -2.357
57.62000 -1.019
57.64000 1.790
57.66000 0.580
57.68000 0.882
57.70000 2.199
57.72000 3.034
57.74000 5.437
57.76000 1.625
57.78000 0.222
57.80000 3.654
57.82000 2.519
57.84000 -2.352
57.86000 -2.084
57.88000 -0.756
57.90000 -1.048
57.92000 0.231
57.94000 3.169
57.96000 2.112
57.98000 3.527
58.00000 3.632
58.02000 0.309
58.04000 0.651
58.06000 3.090
58.08000 3.529
58.10000 3.906
58.12000 1.741
58.14000 2.474
58.16000 0.786
58.18000 1.732
58.20000 5.146
58.22000 5.822
58.24000 3.719
58.26000 3.366
58.28000 4.175
58.30000 5.396
58.32000 5.768
58.34000 4.371
58.36000 0.375
58.38000 0.774
58.40000 0.136
58.42000 0.135
58.44000 1.846
58.46000 5.941
58.48000 1.041
58.50000 3.749
58.52000 5.417
58.54000 2.090
58.56000 2.296
58.58000 -0.113
58.60000 5.118
58.62000 2.166
58.64000 2.388
58.66000 2.477
58.68000 0.835
58.70000 1.158
58.72000 2.874
58.74000 3.280
58.76000 2.317
58.78000 4.545
58.80000 4.625
58.82000 0.377
58.84000 0.271
58.86000 -0.938
58.88000 2.635
58.90000 3.485
58.92000 0.460
58.94000 2.230
58.96000 2.528
58.98000 2.466
59.00000 4.197
59.02000 2.827
59.04000 2.980
59.06000 1.618
59.08000 1.033
59.10000 2.811
59.12000 3.612
59.14000 2.152
59.16000 1.612
59.18000 2.184
59.20000 2.486
59.22000 3.719
59.24000 3.332
59.26000 1.145
59.28000 -2.299
59.30000 -1.398
59.32000 -1.247
59.34000 2.424
59.36000 3.774
59.38000 0.286
59.40000 0.657
59.42000 3.135
59.44000 5.991
59.46000 5.353
59.48000 6.203
59.50000 3.258
59.52000 -2.208
59.54000 -0.051
59.56000 2.091
59.58000 2.577
59.60000 2.976
59.62000 2.853
59.64000 2.168
59.66000 0.804
59.68000 2.601
59.70000 0.331
59.72000 1.814
59.74000 2.556
59.76000 2.059
59.78000 2.303
59.80000 2.828
59.82000 3.649
59.84000 2.302
59.86000 2.853
59.88000 2.820
59.90000 1.595
59.92000 3.999
59.94000 5.265
59.96000 5.504
59.98000 3.489
60.00000 1.068
60.02000 0.523
60.04000 0.324
60.06000 0.180
60.08000 0.895
60.10000 4.353
60.12000 3.058
60.14000 -0.108
60.16000 0.520
60.18000 0.972
60.20000 1.719
60.22000 0.696
60.24000 0.717
60.26000 1.695
60.28000 4.543
60.30000 4.091
60.32000 2.156
60.34000 3.803
60.36000 7.255
60.38000 2.825
60.40000 -0.536
60.42000 2.697
60.44000 4.620
60.46000 6.277
60.48000 2.761
60.50000 2.216
60.52000 -0.221
60.54000 -2.276
60.56000 -0.049
60.58000 -0.778
60.60000 1.425
60.62000 1.925
60.64000 2.857
60.66000 -0.128
60.68000 1.872
60.70000 1.132
60.72000 2.660
60.74000 1.528
60.76000 0.797
60.78000 1.008
60.80000 -1.159
60.82000 -0.256
60.84000 0.865
60.86000 0.370
60.88000 -0.887
60.90000 -1.816
60.92000 -1.639
60.94000 0.360
60.96000 2.484
60.98000 1.394
61.00000 1.962
61.02000 3.212
61.04000 3.641
61.06000 4.751
61.08000 5.528
61.10000 2.213
61.12000 3.056
61.14000 4.555
61.16000 2.310
61.18000 1.222
61.20000 2.659
61.22000 1.578
61.24000 0.988
61.26000 -2.127
61.28000 -1.236
61.30000 1.484
61.32000 0.173
61.34000 2.717
61.36000 2.631
61.38000 3.718
61.40000 3.581
61.42000 2.809
61.44000 2.644
61.46000 1.226
61.48000 -0.303
61.50000 0.947
61.52000 3.483
61.54000 4.823
61.56000 -0.406
61.58000 -2.264
61.60000 2.732
61.62000 0.635
61.64000 -1.479
61.66000 2.328
61.68000 0.132
61.70000 0.377
61.72000 3.877
61.74000 4.097
61.76000 -0.172
61.78000 -0.076
61.80000 -0.199
61.82000 1.379
61.84000 4.359
61.86000 2.264
61.88000 2.470
61.90000 1.747
61.92000 -0.190
61.94000 -1.506
61.96000 1.281
61.98000 -0.874
62.00000 1.054
62.02000 2.631
62.04000 -0.220
62.06000 1.282
62.08000 3.283
62.10000 3.494
62.12000 7.189
62.14000 5.375
62.16000 1.063
62.18000 -0.443
62.20000 -0.839
62.22000 2.288
62.24000 4.151
62.26000 3.046
62.28000 2.600
62.30000 3.429
62.32000 3.732
62.34000 3.350
62.36000 0.513
62.38000 2.514
62.40000 0.793
62.42000 -0.083
62.44000 0.440
62.46000 0.953
62.48000 2.742
62.50000 0.918
62.52000 -0.780
62.54000 1.611
62.56000 4.359
62.58000 2.195
62.60000 -2.209
62.62000 -0.042
62.64000 2.542
62.66000 3.321
62.68000 3.595
62.70000 2.017
62.72000 2.079
62.74000 3.640
62.76000 2.796
62.78000 3.072
62.80000 0.785
62.82000 2.378
62.84000 3.053
62.86000 3.731
62.88000 3.398
62.90000 5.528
62.92000 0.374
62.94000 1.349
62.96000 1.538
62.98000 0.009
63.00000 1.525
63.02000 2.608
63.04000 1.400
63.06000 -0.008
63.08000 0.497
63.10000 1.555
63.12000 1.159
63.14000 0.246
63.16000 -0.179
63.18000 -0.534
63.20000 0.714
63.22000 -1.271
63.24000 -1.312
63.26000 3.458
63.28000 2.673
63.30000 1.884
63.32000 3.323
63.34000 4.874
63.36000 1.846
63.38000 0.354
63.40000 -2.228
63.42000 -2.100
63.44000 1.397
63.46000 2.444
63.48000 2.133
63.50000 3.850
63.52000 -1.366
63.54000 -1.361
63.56000 2.614
63.58000 2.486
63.60000 0.843
63.62000 3.300
63.64000 1.581
63.66000 2.983
63.68000 -0.237
63.70000 -0.323
63.72000 1.428
63.74000 0.343
63.76000 -2.232
63.78000 -2.125
63.80000 0.141
63.82000 -1.321
63.84000 -1.695
63.86000 1.023
63.88000 1.514
63.90000 0.106
63.92000 1.072
63.94000 -0.638
63.96000 -0.982
63.98000 -0.390
64.00000 -0.433
64.02000 0.388
64.04000 2.875
64.06000 1.885
64.08000 0.760
64.10000 1.099
64.12000 -1.520
64.14000 3.203
64.16000 3.499
64.18000 -0.743
64.20000 -1.454
64.22000 -0.801
64.24000 1.443
64.26000 0.962
64.28000 2.124
64.30000 3.375
64.32000 -0.015
64.34000 4.336
64.36000 0.614
64.38000 -0.840
64.40000 2.439
64.42000 3.159
64.44000 1.656
64.46000 1.224
64.48000 -0.610
64.50000 2.167
64.52000 4.075
64.54000 2.520
64.56000 -0.182
64.58000 -0.875
64.60000 1.138
64.62000 0.285
64.64000 2.368
64.66000 0.778
64.68000 -1.801
64.70000 -0.025
64.72000 2.951
64.74000 3.026
64.76000 1.925
64.78000 0.159
64.80000 0.760
64.82000 -0.681
64.84000 1.200
64.86000 1.333
64.88000 0.695
64.90000 1.759
64.92000 3.463
64.94000 3.857
64.96000 0.219
64.98000 1.422
65.00000 0.347
65.02000 3.942
65.04000 1.197
65.06000 1.192
65.08000 0.256
65.10000 0.564
65.12000 -0.553
65.14000 -2.222
65.16000 -0.002
65.18000 0.136
65.20000 -0.007
65.22000 1.348
65.24000 0.592
65.26000 -1.505
65.28000 0.052
65.30000 -0.439
65.32000 2.323
65.34000 0.774
65.36000 1.722
65.38000 -2.226
65.40000 -1.802
65.42000 -1.513
65.44000 -1.780
65.46000 -1.058
65.48000 -0.886
65.50000 1.327
65.52000 0.966
65.54000 3.298
65.56000 2.573
65.58000 4.526
65.60000 6.688
65.62000 4.932
65.64000 6.079
65.66000 -0.925
65.68000 -0.289
65.70000 0.192
65.72000 -0.598
65.74000 -2.231
65.76000 -0.012
65.78000 1.197
65.80000 2.670
65.82000 2.356
65.84000 1.456
65.86000 1.820
65.88000 0.907
65.90000 1.938
65.92000 0.540
65.94000 3.442
65.96000 1.702
65.98000 2.230
66.00000 2.974
66.02000 1.510
66.04000 3.390
66.06000 5.728
66.08000 6.108
66.10000 4.218
66.12000 1.378
66.14000 2.089
66.16000 5.183
66.18000 2.871
66.20000 3.505
66.22000 2.339
66.24000 1.745
66.26000 4.918
66.28000 4.021
66.30000 3.471
66.32000 3.722
66.34000 4.947
66.36000 5.422
66.38000 6.962
66.40000 7.106
66.42000 9.733
66.44000 5.637
66.46000 4.135
66.48000 7.208
66.50000 7.702
66.52000 4.851
66.54000 7.282
66.56000 9.814
66.58000 5.445
66.60000 5.731
66.62000 7.281
66.64000 5.867
66.66000 5.586
66.68000 6.931
66.70000 7.654
66.72000 7.612
66.74000 7.411
66.76000 8.697
66.78000 8.125
66.80000 5.716
66.82000 3.637
66.84000 3.410
66.86000 5.593
66.88000 6.313
66.90000 7.099
66.92000 4.248
66.94000 3.547
66.96000 5.844
66.98000 5.793
67.00000 6.146
67.02000 5.927
67.04000 5.524
67.06000 6.020
67.08000 6.290
67.10000 7.266
67.12000 4.893
67.14000 5.449
67.16000 3.950
67.18000 5.013
67.20000 3.231
67.22000 4.149
67.24000 3.992
67.26000 3.391
67.28000 2.512
67.30000 2.480
67.32000 1.616
67.34000 -0.457
67.36000 -0.016
67.38000 2.273
67.40000 1.593
67.42000 1.068
67.44000 3.462
67.46000 1.721
67.48000 0.352
67.50000 1.142
67.52000 0.128
67.54000 2.177
67.56000 0.390
67.58000 1.481
67.60000 1.787
67.62000 -1.902
67.64000 0.862
67.66000 1.325
67.68000 0.871
67.70000 0.689
67.72000 -0.658
67.74000 1.629
67.76000 0.514
67.78000 0.903
67.80000 -1.171
67.82000 -0.021
67.84000 1.004
67.86000 2.137
67.88000 3.160
67.90000 1.514
67.92000 1.161
67.94000 -2.155
67.96000 1.650
67.98000 2.763
68.00000 1.095
68.02000 1.199
68.04000 -0.092
68.06000 -0.607
68.08000 2.384
68.10000 3.649
68.12000 3.749
68.14000 2.383
68.16000 0.560
68.18000 -1.138
68.20000 0.681
68.22000 2.476
68.24000 0.999
68.26000 4.258
68.28000 1.471
68.30000 -0.629
68.32000 -0.206
68.34000 1.658
68.36000 1.134
68.38000 -0.236
68.40000 1.233
68.42000 1.330
68.44000 1.191
68.46000 -0.591
68.48000 -2.107
68.50000 0.908
68.52000 0.844
68.54000 2.841
68.56000 3.716
68.58000 2.057
68.60000 -0.040
68.62000 -0.922
68.64000 0.331
68.66000 0.618
68.68000 2.655
68.70000 2.240
68.72000 2.271
68.74000 3.941
68.76000 2.664
68.78000 1.916
68.80000 1.295
68.82000 -0.150
68.84000 -0.864
68.86000 0.773
68.88000 2.177
68.90000 1.751
68.92000 1.733
68.94000 0.137
68.96000 -2.085
68.98000 -1.102
69.00000 -0.904
69.02000 0.654
69.04000 -0.088
69.06000 0.079
69.08000 3.518
69.10000 5.006
69.12000 3.035
69.14000 2.959
69.16000 -0.054
69.18000 1.790
69.20000 3.308
69.22000 1.084
69.24000 2.008
69.26000 1.426
69.28000 1.478
69.30000 -0.108
69.32000 0.022
69.34000 0.245
69.36000 0.788
69.38000 0.775
69.40000 3.338
69.42000 2.363
69.44000 1.275
69.46000 2.695
69.48000 2.184
69.50000 3.388
69.52000 2.942
69.54000 2.599
69.56000 -0.375
69.58000 -2.032
69.60000 2.511
69.62000 3.140
69.64000 3.656
69.66000 3.963
69.68000 2.884
69.70000 2.217
69.72000 1.509
69.74000 2.143
69.76000 1.601
69.78000 3.602
69.80000 3.194
69.82000 1.728
69.84000 -1.800
69.86000 -1.554
69.88000 1.687
69.90000 0.632
69.92000 -0.604
69.94000 2.324
69.96000 2.488
69.98000 3.921
70.00000 2.782
70.02000 0.023
70.04000 1.599
70.06000 0.125
70.08000 -0.517
70.10000 -1.837
70.12000 -2.030
70.14000 1.570
70.16000 1.487
70.18000 2.090
70.20000 0.167
70.22000 0.849
70.24000 2.011
70.26000 0.429
70.28000 1.694
70.30000 2.440
70.32000 0.818
70.34000 0.014
70.36000 1.272
70.38000 2.215
70.40000 2.470
70.42000 4.768
70.44000 3.935
70.46000 2.835
70.48000 2.261
70.50000 1.209
70.52000 1.880
70.54000 1.292
70.56000 3.017
70.58000 1.920
70.60000 2.723
70.62000 0.828
70.64000 1.630
70.66000 2.860
70.68000 1.789
70.70000 2.852
70.72000 3.626
70.74000 1.095
70.76000 -0.081
70.78000 -0.412
70.80000 0.203
70.82000 0.121
70.84000 0.954
70.86000 0.732
70.88000 -1.097
70.90000 -2.002
70.92000 -0.035
70.94000 0.883
70.96000 1.208
70.98000 2.050
71.00000 3.246
71.02000 1.948
71.04000 2.384
71.06000 1.394
71.08000 1.763
71.10000 0.219
71.12000 2.983
71.14000 0.020
71.16000 0.024
71.18000 1.195
71.20000 2.872
71.22000 4.303
71.24000 4.005
71.26000 1.615
71.28000 1.798
71.30000 0.750
71.32000 1.922
71.34000 2.842
71.36000 1.684
71.38000 4.382
71.40000 1.394
71.42000 2.318
71.44000 2.915
71.46000 5.332
71.48000 2.963
71.50000 1.428
71.52000 0.733
71.54000 -1.599
71.56000 -1.494
71.58000 -0.395
71.60000 0.443
71.62000 3.457
71.64000 2.215
71.66000 0.717
71.68000 1.300
71.70000 0.247
71.72000 -1.310
71.74000 0.654
71.76000 2.556
71.78000 3.347
71.80000 3.586
71.82000 0.464
71.84000 -1.985
71.86000 0.970
71.88000 -0.422
71.90000 -0.834
71.92000 -1.202
71.94000 2.536
71.96000 2.807
71.98000 2.131
72.00000 1.187
72.02000 -0.763
72.04000 1.797
72.06000 2.002
72.08000 1.070
72.10000 0.158
72.12000 -1.972
72.14000 1.415
72.16000 3.112
72.18000 0.489
72.20000 1.356
72.22000 0.374
72.24000 1.408
72.26000 1.128
72.28000 -1.457
72.30000 0.221
72.32000 1.915
72.34000 1.704
72.36000 1.348
72.38000 0.101
72.40000 -1.287
72.42000 -0.439
72.44000 1.386
72.46000 0.418
72.48000 1.227
72.50000 -0.888
72.52000 -0.921
72.54000 -1.232
72.56000 1.926
72.58000 1.614
72.60000 0.891
72.62000 1.706
72.64000 0.827
72.66000 -0.987
72.68000 -1.123
72.70000 0.248
72.72000 1.324
72.74000 4.398
72.76000 2.090
72.78000 -0.424
72.80000 -0.321
72.82000 -0.921
72.84000 -0.399
72.86000 2.254
72.88000 1.672
72.90000 -0.297
72.92000 1.319
72.94000 2.677
72.96000 0.420
72.98000 0.024
73.00000 -1.431
73.02000 0.601
73.04000 2.596
73.06000 3.598
73.08000 3.222
73.10000 2.733
73.12000 3.897
73.14000 4.424
73.16000 4.912
73.18000 2.664
73.20000 2.018
73.22000 1.240
73.24000 0.306
73.26000 -0.134
73.28000 -1.927
73.30000 -1.444
73.32000 -0.236
73.34000 2.601
73.36000 1.488
73.38000 3.451
73.40000 1.909
73.42000 2.376
73.44000 3.426
73.46000 5.547
73.48000 2.337
73.50000 1.363
73.52000 2.790
73.54000 1.259
73.56000 -1.932
73.58000 -1.315
73.60000 0.225
73.62000 3.226
73.64000 1.122
73.66000 1.813
73.68000 -1.059
73.70000 -0.697
73.72000 -0.347
73.74000 0.641
73.76000 -1.824
73.78000 -1.263
73.80000 1.176
73.82000 2.058
73.84000 3.686
73.86000 2.144
73.88000 0.988
73.90000 0.121
73.92000 1.210
73.94000 0.312
73.96000 -1.254
73.98000 -1.115
74.00000 -0.544
74.02000 0.780
74.04000 2.732
74.06000 1.400
74.08000 2.822
74.10000 0.850
74.12000 2.557
74.14000 1.585
74.16000 2.044
74.18000 2.539
74.20000 2.286
74.22000 2.948
74.24000 -0.123
74.26000 0.615
74.28000 1.097
74.30000 1.714
74.32000 0.638
74.34000 -1.915
74.36000 -0.676
74.38000 -0.325
74.40000 2.258
74.42000 -1.190
74.44000 -1.218
74.46000 2.575
74.48000 4.036
74.50000 2.080
74.52000 2.540
74.54000 5.249
74.56000 3.954
74.58000 1.963
74.60000 0.265
74.62000 0.562
74.64000 1.829
74.66000 1.663
74.68000 3.600
74.70000 1.259
74.72000 4.500
74.74000 4.444
74.76000 4.917
74.78000 3.447
74.80000 3.995
74.82000 0.825
74.84000 0.670
74.86000 1.507
74.88000 2.709
74.90000 1.709
74.92000 0.139
74.94000 -1.923
74.96000 -0.003
74.98000 2.938
75.00000 2.302
75.02000 3.959
75.04000 2.427
75.06000 1.730
75.08000 0.895
75.10000 0.097
75.12000 0.057
75.14000 1.515
75.16000 2.059
75.18000 2.665
75.20000 -0.756
75.22000 1.606
75.24000 5.542
75.26000 2.634
75.28000 4.262
75.30000 0.385
75.32000 1.204
75.34000 2.013
75.36000 4.601
75.38000 4.820
75.40000 3.023
75.42000 1.784
75.44000 3.072
75.46000 1.280
75.48000 1.704
75.50000 0.825
75.52000 -0.166
75.54000 1.257
75.56000 2.825
75.58000 2.450
75.60000 4.522
75.62000 4.817
75.64000 5.228
75.66000 4.825
75.68000 2.795
75.70000 1.501
75.72000 1.614
75.74000 1.270
75.76000 1.945
75.78000 2.748
75.80000 0.962
75.82000 1.464
75.84000 1.108
75.86000 2.378
75.88000 2.707
75.90000 4.411
75.92000 2.185
75.94000 3.438
75.96000 1.002
75.98000 2.478
76.00000 0.266
76.02000 -1.915
76.04000 0.211
76.06000 2.864
76.08000 3.069
76.10000 0.443
76.12000 -0.115
76.14000 2.545
76.16000 6.496
76.18000 2.558
76.20000 0.394
76.22000 0.048
76.24000 2.993
76.26000 2.907
76.28000 4.389
76.30000 0.679
76.32000 4.350
76.34000 2.415
76.36000 1.996
76.38000 1.751
76.40000 2.049
76.42000 -0.187
76.44000 1.548
76.46000 3.453
76.48000 4.086
76.50000 2.619
76.52000 2.119
76.54000 0.584
76.56000 0.271
76.58000 2.232
76.60000 2.202
76.62000 2.460
76.64000 0.239
76.66000 1.198
76.68000 2.053
76.70000 2.825
76.72000 0.227
76.74000 -0.733
76.76000 2.051
76.78000 -1.555
76.80000 -0.576
76.82000 2.830
76.84000 1.048
76.86000 -0.712
76.88000 0.712
76.90000 2.949
76.92000 2.047
76.94000 4.842
76.96000 2.289
76.98000 3.030
77.00000 1.685
77.02000 4.159
77.04000 2.118
77.06000 1.459
77.08000 0.253
77.10000 -0.669
77.12000 -1.430
77.14000 -1.987
77.16000 0.305
77.18000 1.334
77.20000 1.900
77.22000 2.344
77.24000 0.098
77.26000 -1.993
77.28000 3.390
77.30000 5.159
77.32000 5.675
77.34000 4.412
77.36000 4.599
77.38000 3.097
77.40000 3.448
77.42000 3.815
77.44000 3.191
77.46000 0.284
77.48000 1.448
77.50000 2.585
77.52000 2.458
77.54000 1.538
77.56000 1.748
77.58000 -0.117
77.60000 -1.838
77.62000 -0.362
77.64000 0.426
77.66000 2.658
77.68000 1.614
77.70000 0.676
77.72000 1.659
77.74000 1.362
77.76000 3.445
77.78000 -0.143
77.80000 0.109
77.82000 -0.516
77.84000 2.541
77.86000 1.538
77.88000 1.344
77.90000 1.423
77.92000 1.816
77.94000 2.185
77.96000 -0.996
77.98000 -0.109
78.00000 -0.831
78.02000 0.722
78.04000 1.223
78.06000 2.487
78.08000 2.663
78.10000 1.249
78.12000 0.487
78.14000 -1.163
78.16000 -2.047
78.18000 1.378
78.20000 2.598
78.22000 1.452
78.24000 1.708
78.26000 0.539
78.28000 0.013
78.30000 1.199
78.32000 2.346
78.34000 1.027
78.36000 0.245
78.38000 1.653
78.40000 3.042
78.42000 2.174
78.44000 2.988
78.46000 0.405
78.48000 1.140
78.50000 -0.234
78.52000 0.838
78.54000 -1.072
78.56000 -2.068
78.58000 1.978
78.60000 2.054
78.62000 1.013
78.64000 1.398
78.66000 0.492
78.68000 0.851
78.70000 0.580
78.72000 1.776
78.74000 2.323
78.76000 1.004
78.78000 0.145
78.80000 3.365
78.82000 4.228
78.84000 3.026
78.86000 1.436
78.88000 3.395
78.90000 1.876
78.92000 1.876
78.94000 3.762
78.96000 1.832
78.98000 0.201
79.00000 -0.018
79.02000 -2.120
79.04000 -0.779
79.06000 4.119
79.08000 2.541
79.10000 1.385
79.12000 2.089
79.14000 3.314
79.16000 2.556
79.18000 2.191
79.20000 1.680
79.22000 4.205
79.24000 4.523
79.26000 5.496
79.28000 3.431
79.30000 2.700
79.32000 1.838
79.34000 2.652
79.36000 3.706
79.38000 4.937
79.40000 3.980
79.42000 6.021
79.44000 4.732
79.46000 4.779
79.48000 4.946
79.50000 4.530
79.52000 1.845
79.54000 5.811
79.56000 5.321
79.58000 5.562
79.60000 3.715
79.62000 6.208
79.64000 7.429
79.66000 8.096
79.68000 9.075
79.70000 10.477
79.72000 12.470
79.74000 6.007
79.76000 7.493
79.78000 6.674
79.80000 8.546
79.82000 7.300
79.84000 11.958
79.86000 15.168
79.88000 15.147
79.90000 17.942
79.92000 12.564
79.94000 15.463
79.96000 17.226
79.98000 19.803
80.00000 18.300
80.02000 13.252
80.04000 15.016
80.06000 17.626
80.08000 19.115
80.10000 20.485
80.12000 24.391
80.14000 21.980
80.16000 22.082
80.18000 22.717
80.20000 19.470
80.22000 18.090
80.24000 21.115
80.26000 22.477
80.28000 19.280
80.30000 19.916
80.32000 19.545
80.34000 18.316
80.36000 22.250
80.38000 19.967
80.40000 21.218
80.42000 21.263
80.44000 20.722
80.46000 20.780
80.48000 22.933
80.50000 21.869
80.52000 22.361
80.54000 21.057
80.56000 23.677
80.58000 20.806
80.60000 20.694
80.62000 22.751
80.64000 19.870
80.66000 19.447
80.68000 20.637
80.70000 22.654
80.72000 19.972
80.74000 16.554
80.76000 14.155
80.78000 15.152
80.80000 16.099
80.82000 15.063
80.84000 14.075
80.86000 14.314
80.88000 14.475
80.90000 11.863
80.92000 13.785
80.94000 14.567
80.96000 15.026
80.98000 12.647
81.00000 9.570
81.02000 9.563
81.04000 7.715
81.06000 11.425
81.08000 13.473
81.10000 11.174
81.12000 9.213
81.14000 10.266
81.16000 5.273
81.18000 3.878
81.20000 3.051
81.22000 7.354
81.24000 8.724
81.26000 10.694
81.28000 8.936
81.30000 6.985
81.32000 7.843
81.34000 5.141
81.36000 4.768
81.38000 4.647
81.40000 3.085
81.42000 1.084
81.44000 0.716
81.46000 0.893
81.48000 1.210
81.50000 4.329
81.52000 2.040
81.54000 -0.738
81.56000 -0.895
81.58000 -0.694
81.60000 1.258
81.62000 2.072
81.64000 3.063
81.66000 1.063
81.68000 1.081
81.70000 -2.201
81.72000 -2.046
81.74000 -0.242
81.76000 -1.673
81.78000 -0.408
81.80000 1.751
81.82000 0.862
81.84000 1.250
81.86000 3.427
81.88000 0.125
81.90000 2.007
81.92000 3.095
81.94000 1.712
81.96000 -1.092
81.98000 -1.539
82.00000 -0.105
82.02000 1.248
82.04000 -1.215
82.06000 2.016
82.08000 4.289
82.10000 1.704
82.12000 0.063
82.14000 -0.553
82.16000 0.103
82.18000 3.954
82.20000 0.563
82.22000 -0.158
82.24000 1.004
82.26000 1.815
82.28000 1.820
82.30000 2.305
82.32000 -0.974
82.34000 0.371
82.36000 -1.471
82.38000 1.578
82.40000 1.308
82.42000 0.033
82.44000 1.769
82.46000 1.091
82.48000 -2.141
82.50000 -1.613
82.52000 0.479
82.54000 0.849
82.56000 0.310
82.58000 0.348
82.60000 4.225
82.62000 2.789
82.64000 1.194
82.66000 2.103
82.68000 3.221
82.70000 2.513
82.72000 1.897
82.74000 1.358
82.76000 1.829
82.78000 3.074
82.80000 0.612
82.82000 2.907
82.84000 0.852
82.86000 0.458
82.88000 2.030
82.90000 4.816
82.92000 3.900
82.94000 1.644
82.96000 3.742
82.98000 0.085
83.00000 2.506
83.02000 5.314
83.04000 2.840
83.06000 3.623
83.08000 4.078
83.10000 1.477
83.12000 4.841
83.14000 5.414
83.16000 7.198
83.18000 9.529
83.20000 6.691
83.22000 5.163
83.24000 4.208
83.26000 5.895
83.28000 7.370
83.30000 -0.196
83.32000 4.401
83.34000 8.513
83.36000 10.467
83.38000 7.757
83.40000 5.988
83.42000 7.387
83.44000 7.082
83.46000 8.263
83.48000 8.307
83.50000 11.913
83.52000 9.085
83.54000 5.738
83.56000 7.789
83.58000 10.168
83.60000 10.816
83.62000 10.304
83.64000 14.905
83.66000 15.042
83.68000 14.811
83.70000 17.432
83.72000 18.573
83.74000 19.884
83.76000 16.479
83.78000 16.526
83.80000 21.249
83.82000 24.457
83.84000 21.216
83.86000 17.428
83.88000 16.573
83.90000 18.059
83.92000 22.711
83.94000 25.545
83.96000 24.401
83.98000 18.461
84.00000 23.722
84.02000 25.743
84.04000 26.655
84.06000 25.528
84.08000 25.049
84.10000 28.697
84.12000 25.553
84.14000 27.904
84.16000 29.170
84.18000 29.930
84.20000 28.550
84.22000 24.783
84.24000 27.896
84.26000 28.643
84.28000 30.161
84.30000 28.653
84.32000 26.283
84.34000 30.239
84.36000 32.356
84.38000 26.964
84.40000 27.815
84.42000 25.988
84.44000 26.641
84.46000 26.073
84.48000 24.239
84.50000 24.564
84.52000 24.045
84.54000 26.740
84.56000 26.761
84.58000 24.845
84.60000 23.578
84.62000 25.383
84.64000 22.868
84.66000 19.061
84.68000 18.211
84.70000 18.568
84.72000 18.006
84.74000 17.154
84.76000 15.259
84.78000 15.992
84.80000 13.923
84.82000 12.135
84.84000 11.339
84.86000 12.475
84.88000 12.755
84.90000 12.567
84.92000 14.583
84.94000 14.513
84.96000 11.829
84.98000 8.732
85.00000 8.232
85.02000 9.553
85.04000 7.989
85.06000 7.203
85.08000 7.793
85.10000 11.410
85.12000 9.025
85.14000 10.138
85.16000 4.330
85.18000 3.436
85.20000 6.634
85.22000 1.778
85.24000 0.916
85.26000 0.887
85.28000 3.342
85.30000 3.157
85.32000 1.985
85.34000 1.984
85.36000 0.953
85.38000 0.755
85.40000 0.339
85.42000 1.750
85.44000 2.332
85.46000 0.272
85.48000 -0.160
85.50000 2.522
85.52000 0.439
85.54000 -1.424
85.56000 2.841
85.58000 2.944
85.60000 0.548
85.62000 2.192
85.64000 1.037
85.66000 0.847
85.68000 1.048
85.70000 -0.216
85.72000 0.753
85.74000 0.486
85.76000 2.481
85.78000 -0.190
85.80000 -1.301
85.82000 0.969
85.84000 0.231
85.86000 -1.781
85.88000 0.697
85.90000 1.879
85.92000 0.783
85.94000 -0.555
85.96000 3.321
85.98000 1.782
86.00000 -0.419
86.02000 0.594
86.04000 1.773
86.06000 -0.709
86.08000 2.625
86.10000 6.801
86.12000 4.528
86.14000 -1.916
86.16000 -1.852
86.18000 2.007
86.20000 3.840
86.22000 3.347
86.24000 2.467
86.26000 -0.123
86.28000 1.570
86.30000 -0.105
86.32000 -0.473
86.34000 1.142
86.36000 1.785
86.38000 -1.897
86.40000 1.460
86.42000 2.112
86.44000 -0.094
86.46000 0.652
86.48000 1.008
86.50000 3.800
86.52000 3.529
86.54000 2.978
86.56000 4.311
86.58000 3.235
86.60000 1.178
86.62000 1.774
86.64000 1.998
86.66000 1.693
86.68000 0.953
86.70000 1.502
86.72000 1.774
86.74000 4.528
86.76000 1.215
86.78000 1.654
86.80000 2.919
86.82000 4.067
86.84000 2.276
86.86000 0.958
86.88000 1.267
86.90000 -0.207
86.92000 -0.676
86.94000 2.112
86.96000 5.487
86.98000 8.496
87.00000 5.321
87.02000 3.491
87.04000 0.086
87.06000 1.079
87.08000 -0.047
87.10000 1.786
87.12000 1.433
87.14000 -1.823
87.16000 -1.366
87.18000 0.294
87.20000 0.187
87.22000 3.095
87.24000 5.601
87.26000 3.041
87.28000 2.601
87.30000 1.642
87.32000 2.524
87.34000 1.872
87.36000 1.874
87.38000 0.718
87.40000 2.578
87.42000 0.007
87.44000 -1.823
87.46000 -0.023
87.48000 1.958
87.50000 -0.663
87.52000 1.162
87.54000 2.230
87.56000 2.337
87.58000 2.055
87.60000 0.804
87.62000 -1.827
87.64000 -0.259
87.66000 3.282
87.68000 4.147
87.70000 3.693
87.72000 2.971
87.74000 1.047
87.76000 1.113
87.78000 -0.705
87.80000 0.106
87.82000 2.447
87.84000 2.859
87.86000 1.651
87.88000 1.159
87.90000 1.271
87.92000 5.813
87.94000 3.069
87.96000 2.255
87.98000 1.992
88.00000 0.930
88.02000 2.312
88.04000 2.152
88.06000 -0.957
88.08000 -1.346
88.10000 -1.214
88.12000 3.220
88.14000 -0.196
88.16000 -0.733
88.18000 1.035
88.20000 2.855
88.22000 3.848
88.24000 3.006
88.26000 -1.359
88.28000 -1.820
88.30000 0.724
88.32000 1.228
88.34000 0.620
88.36000 1.057
88.38000 0.691
88.40000 0.341
88.42000 -1.513
88.44000 0.365
88.46000 -0.676
88.48000 -1.641
88.50000 -0.398
88.52000 1.479
88.54000 -0.110
88.56000 1.050
88.58000 0.455
88.60000 -1.609
88.62000 -0.608
88.64000 1.525
88.66000 -0.936
88.68000 0.292
88.70000 3.990
88.72000 3.004
88.74000 0.135
88.76000 0.525
88.78000 -0.002
88.80000 0.053
88.82000 0.769
88.84000 0.194
88.86000 3.893
88.88000 2.207
88.90000 0.741
88.92000 0.233
88.94000 0.003
88.96000 1.555
88.98000 2.434
89.00000 3.740
89.02000 -0.315
89.04000 0.556
89.06000 2.988
89.08000 1.531
89.10000 2.993
89.12000 0.186
89.14000 0.682
89.16000 -1.234
89.18000 2.799
89.20000 3.096
89.22000 2.430
89.24000 2.156
89.26000 2.057
89.28000 1.641
89.30000 1.195
89.32000 3.838
89.34000 0.669
89.36000 -0.236
89.38000 1.784
89.40000 1.043
89.42000 0.413
89.44000 0.983
89.46000 0.843
89.48000 -1.451
89.50000 -1.051
89.52000 -0.027
89.54000 -0.383
89.56000 -1.739
89.58000 2.625
89.60000 1.829
89.62000 -1.790
89.64000 -0.454
89.66000 1.732
89.68000 1.761
89.70000 2.093
89.72000 3.142
89.74000 5.740
89.76000 1.903
89.78000 1.158
89.80000 3.470
89.82000 2.602
89.84000 1.622
89.86000 0.342
89.88000 1.545
89.90000 -1.167
89.92000 -0.462
89.94000 1.655
89.96000 4.912
89.98000 2.673
90.00000 0.166
90.02000 1.755
90.04000 1.167
90.06000 -0.908
90.08000 0.407
90.10000 2.387
90.12000 4.308
90.14000 2.482
90.16000 1.223
90.18000 5.081
90.20000 2.529
90.22000 1.097
90.24000 4.178
90.26000 1.090
90.28000 0.510
90.30000 2.881
90.32000 6.201
90.34000 2.680
90.36000 0.955
90.38000 -1.791
90.40000 -0.975
90.42000 0.512
90.44000 -1.589
90.46000 0.529
90.48000 1.245
90.50000 1.540
90.52000 -0.665
90.54000 1.817
90.56000 2.774
90.58000 1.269
90.60000 -0.583
90.62000 -1.749
90.64000 1.576
90.66000 -0.055
90.68000 1.060
90.70000 2.171
90.72000 -1.803
90.74000 0.623
90.76000 2.032
90.78000 0.898
90.80000 2.127
90.82000 2.656
90.84000 0.059
90.86000 2.369
90.88000 1.767
90.90000 2.388
90.92000 0.730
90.94000 0.814
90.96000 3.549
90.98000 2.726
91.00000 3.890
91.02000 1.100
91.04000 0.138
91.06000 1.157
91.08000 -0.291
91.10000 0.117
91.12000 -0.197
91.14000 0.675
91.16000 2.648
91.18000 2.016
91.20000 2.984
91.22000 2.820
91.24000 3.766
91.26000 2.953
91.28000 -0.057
91.30000 0.676
91.32000 4.169
91.34000 2.418
91.36000 0.853
91.38000 1.597
91.40000 1.745
91.42000 2.314
91.44000 1.095
91.46000 -0.403
91.48000 0.916
91.50000 1.737
91.52000 0.842
91.54000 1.288
91.56000 4.867
91.58000 1.859
91.60000 -0.174
91.62000 -0.763
91.64000 1.691
91.66000 3.491
91.68000 3.037
91.70000 0.654
91.72000 -0.085
91.74000 2.831
91.76000 2.268
91.78000 -1.367
91.80000 1.416
91.82000 3.441
91.84000 3.992
91.86000 0.905
91.88000 1.407
91.90000 2.730
91.92000 0.192
91.94000 1.161
91.96000 5.393
91.98000 1.837
92.00000 -1.058
92.02000 -0.618
92.04000 -1.782
92.06000 1.191
92.08000 1.059
92.10000 1.198
92.12000 2.343
92.14000 3.807
92.16000 4.956
92.18000 3.962
92.20000 1.747
92.22000 -0.283
92.24000 0.748
92.26000 1.047
92.28000 -1.702
92.30000 -0.512
92.32000 0.349
92.34000 1.237
92.36000 -0.772
92.38000 -0.785
92.40000 2.282
92.42000 2.346
92.44000 2.075
92.46000 0.211
92.48000 4.128
92.50000 6.859
92.52000 3.240
92.54000 3.210
92.56000 4.229
92.58000 4.691
92.60000 3.592
92.62000 4.690
92.64000 4.205
92.66000 2.723
92.68000 1.464
92.70000 -0.004
92.72000 1.611
92.74000 4.210
92.76000 7.873
92.78000 3.845
92.80000 3.796
92.82000 3.533
92.84000 2.312
92.86000 -1.782
92.88000 0.253
92.90000 1.976
92.92000 2.451
92.94000 2.604
92.96000 2.678
92.98000 2.279
93.00000 2.430
93.02000 2.379
93.04000 6.010
93.06000 2.295
93.08000 0.172
93.10000 0.188
93.12000 1.422
93.14000 2.593
93.16000 6.826
93.18000 6.588
93.20000 3.285
93.22000 5.216
93.24000 4.262
93.26000 5.694
93.28000 3.471
93.30000 1.467
93.32000 -1.784
93.34000 -1.771
93.36000 -1.655
93.38000 0.070
93.40000 2.789
93.42000 2.524
93.44000 2.231
93.46000 3.212
93.48000 2.147
93.50000 1.047
93.52000 -0.481
93.54000 0.786
93.56000 -0.636
93.58000 -0.480
93.60000 5.516
93.62000 1.477
93.64000 1.007
93.66000 4.664
93.68000 1.734
93.70000 -0.795
93.72000 1.358
93.74000 2.002
93.76000 1.933
93.78000 4.010
93.80000 3.819
93.82000 3.843
93.84000 3.727
93.86000 1.788
93.88000 3.762
93.90000 2.706
93.92000 0.876
93.94000 4.746
93.96000 5.804
93.98000 0.894
94.00000 2.500
94.02000 3.072
94.04000 3.562
94.06000 2.769
94.08000 1.478
94.10000 2.860
94.12000 1.257
94.14000 1.568
94.16000 1.149
94.18000 1.665
94.20000 2.129
94.22000 1.968
94.24000 1.337
94.26000 2.331
94.28000 -0.057
94.30000 -1.225
94.32000 -1.842
94.34000 0.894
94.36000 1.854
94.38000 2.686
94.40000 3.369
94.42000 0.265
94.44000 1.641
94.46000 2.608
94.48000 0.448
94.50000 1.775
94.52000 -0.356
94.54000 0.481
94.56000 -0.542
94.58000 -0.090
94.60000 1.592
94.62000 1.400
94.64000 -1.845
94.66000 0.678
94.68000 1.887
94.70000 2.203
94.72000 5.221
94.74000 5.034
94.76000 2.124
94.78000 -1.843
94.80000 -0.277
94.82000 2.909
94.84000 3.282
94.86000 2.586
94.88000 2.304
94.90000 1.607
94.92000 1.582
94.94000 -0.663
94.96000 1.752
94.98000 4.631
95.00000 2.988
95.02000 3.272
95.04000 2.009
95.06000 0.941
95.08000 2.350
95.10000 0.978
95.12000 -0.327
95.14000 2.752
95.16000 3.239
95.18000 4.992
95.20000 -1.409
95.22000 -1.870
95.24000 -1.780
95.26000 0.705
95.28000 0.990
95.30000 3.568
95.32000 3.872
95.34000 2.627
95.36000 1.463
95.38000 1.915
95.40000 0.751
95.42000 0.620
95.44000 0.528
95.46000 -0.162
95.48000 -1.036
95.50000 1.645
95.52000 3.717
95.54000 0.288
95.56000 1.050
95.58000 -1.628
95.60000 1.346
95.62000 0.316
95.64000 1.670
95.66000 1.503
95.68000 1.931
95.70000 -0.646
95.72000 -1.091
95.74000 1.179
95.76000 1.985
95.78000 -0.419
95.80000 -0.704
95.82000 0.632
95.84000 2.143
95.86000 -0.367
95.88000 -0.358
95.90000 0.862
95.92000 0.742
95.94000 1.945
95.96000 3.397
95.98000 -0.678
96.00000 -0.765
96.02000 -0.555
96.04000 -1.539
96.06000 1.323
96.08000 5.585
96.10000 4.175
96.12000 5.883
96.14000 2.603
96.16000 0.658
96.18000 -1.446
96.20000 1.152
96.22000 2.308
96.24000 -1.049
96.26000 2.741
96.28000 2.204
96.30000 -0.171
96.32000 -0.596
96.34000 2.143
96.36000 -1.346
96.38000 2.880
96.40000 3.459
96.42000 -0.475
96.44000 4.416
96.46000 3.391
96.48000 -0.288
96.50000 3.542
96.52000 4.446
96.54000 2.304
96.56000 -1.860
96.58000 -1.512
96.60000 0.432
96.62000 3.276
96.64000 2.857
96.66000 1.383
96.68000 1.098
96.70000 3.333
96.72000 1.637
96.74000 4.463
96.76000 1.157
96.78000 3.887
96.80000 3.994
96.82000 2.788
96.84000 1.219
96.86000 -1.850
96.88000 -0.384
96.90000 -0.937
96.92000 3.928
96.94000 1.434
96.96000 0.182
96.98000 3.206
97.00000 4.456
97.02000 7.102
97.04000 0.594
97.06000 -0.475
97.08000 -0.179
97.10000 0.126
97.12000 1.436
97.14000 0.906
97.16000 2.945
97.18000 0.284
97.20000 0.780
97.22000 2.031
97.24000 5.993
97.26000 5.439
97.28000 1.579
97.30000 2.663
97.32000 1.336
97.34000 -1.829
97.36000 1.342
97.38000 2.732
97.40000 4.648
97.42000 1.643
97.44000 0.372
97.46000 2.739
97.48000 0.842
97.50000 1.954
97.52000 3.770
97.54000 3.712
97.56000 2.234
97.58000 3.391
97.60000 1.735
97.62000 -1.818
97.64000 1.048
97.66000 1.920
97.68000 4.586
97.70000 8.967
97.72000 6.891
97.74000 2.855
97.76000 1.532
97.78000 4.349
97.80000 2.886
97.82000 1.869
97.84000 1.216
97.86000 0.115
97.88000 6.197
97.90000 5.691
97.92000 3.834
97.94000 7.420
97.96000 8.316
97.98000 3.406
98.00000 3.008
98.02000 4.588
98.04000 4.812
98.06000 8.325
98.08000 7.628
98.10000 6.078
98.12000 4.032
98.14000 6.014
98.16000 -1.781
98.18000 1.692
98.20000 3.348
98.22000 1.305
98.24000 1.598
98.26000 2.345
98.28000 2.445
98.30000 4.394
98.32000 8.285
98.34000 6.073
98.36000 1.912
98.38000 1.831
98.40000 2.076
98.42000 -0.079
98.44000 -0.348
98.46000 5.719
98.48000 5.180
98.50000 6.860
98.52000 13.670
98.54000 4.040
98.56000 1.835
98.58000 4.426
98.60000 9.892
98.62000 7.835
98.64000 7.801
98.66000 7.066
98.68000 6.254
98.70000 1.583
98.72000 -1.387
98.74000 3.166
98.76000 5.935
98.78000 6.476
98.80000 5.099
98.82000 -0.195
98.84000 4.301
98.86000 5.174
98.88000 4.154
98.90000 3.656
98.92000 3.971
98.94000 2.556
98.96000 -0.389
98.98000 1.626
99.00000 4.067
99.02000 2.022
99.04000 3.171
99.06000 4.476
99.08000 2.596
99.10000 -1.788
99.12000 6.026
99.14000 7.807
99.16000 4.257
99.18000 3.156
99.20000 0.824
99.22000 -0.523
99.24000 1.750
99.26000 3.221
99.28000 2.111
99.30000 2.919
99.32000 8.529
99.34000 -0.377
99.36000 -0.897
99.38000 0.404
99.40000 2.664
99.42000 4.633
99.44000 7.161
99.46000 2.958
99.48000 5.027
99.50000 9.720
99.52000 11.908
99.54000 4.216
99.56000 -1.776
99.58000 -1.452
99.60000 8.750
99.62000 17.359
99.64000 18.580
99.66000 9.618
99.68000 3.456
99.70000 3.076
99.72000 5.583
99.74000 5.717
99.76000 10.056
99.78000 13.929
99.80000 12.435
99.82000 8.272
99.84000 1.469
99.86000 8.915
99.88000 13.486
99.90000 3.808
99.92000 5.636
99.94000 3.376
99.96000 4.612
99.98000 0.000
