'Id: "0011387" Comment: "Integrate frame 0011387_Au-Ir-Rh_Rh-rich_XRD-Mapping-239-0000.gfrmwith cursor Wedge Cursor #5" Operator: "B?rgel" Anode: "Cu" Wavelength: "1.5406" Scantype: "2Theta (TwoTheta)" TimePerStep: "1" X: "40.5" Y: "13.5" Z: "5.95" 
10.00000 0.000
10.02000 -3.034
10.04000 0.564
10.06000 -0.618
10.08000 9.474
10.10000 5.935
10.12000 5.111
10.14000 -3.062
10.16000 -0.247
10.18000 9.667
10.20000 0.590
10.22000 15.011
10.24000 15.457
10.26000 8.321
10.28000 3.810
10.30000 6.972
10.32000 6.929
10.34000 3.464
10.36000 18.923
10.38000 24.842
10.40000 20.467
10.42000 6.117
10.44000 8.449
10.46000 15.847
10.48000 14.926
10.50000 11.816
10.52000 13.458
10.54000 20.984
10.56000 26.368
10.58000 40.446
10.60000 31.028
10.62000 22.811
10.64000 14.386
10.66000 10.408
10.68000 21.879
10.70000 27.026
10.72000 17.190
10.74000 26.993
10.76000 29.616
10.78000 33.979
10.80000 34.390
10.82000 37.231
10.84000 30.178
10.86000 26.208
10.88000 29.699
10.90000 34.632
10.92000 34.613
10.94000 31.273
10.96000 25.436
10.98000 17.171
11.00000 28.179
11.02000 37.198
11.04000 38.332
11.06000 31.362
11.08000 29.814
11.10000 29.561
11.12000 28.427
11.14000 34.712
11.16000 36.108
11.18000 34.825
11.20000 38.679
11.22000 31.553
11.24000 44.301
11.26000 40.392
11.28000 43.222
11.30000 39.277
11.32000 30.889
11.34000 30.977
11.36000 27.709
11.38000 21.929
11.40000 25.745
11.42000 35.788
11.44000 37.799
11.46000 31.649
11.48000 34.516
11.50000 37.502
11.52000 38.439
11.54000 33.804
11.56000 44.033
11.58000 37.915
11.60000 39.863
11.62000 46.401
11.64000 32.457
11.66000 40.209
11.68000 46.089
11.70000 37.088
11.72000 41.218
11.74000 41.584
11.76000 41.249
11.78000 47.493
11.80000 34.925
11.82000 25.613
11.84000 34.823
11.86000 33.793
11.88000 35.364
11.90000 42.787
11.92000 45.081
11.94000 33.406
11.96000 36.059
11.98000 39.752
12.00000 40.709
12.02000 44.211
12.04000 49.127
12.06000 50.500
12.08000 41.032
12.10000 43.121
12.12000 54.179
12.14000 55.052
12.16000 59.017
12.18000 55.806
12.20000 43.179
12.22000 39.678
12.24000 36.336
12.26000 47.118
12.28000 51.013
12.30000 47.092
12.32000 50.641
12.34000 50.231
12.36000 43.562
12.38000 49.766
12.40000 55.026
12.42000 54.964
12.44000 51.942
12.46000 48.503
12.48000 54.153
12.50000 53.684
12.52000 52.098
12.54000 48.567
12.56000 49.788
12.58000 56.323
12.60000 62.870
12.62000 56.968
12.64000 52.775
12.66000 50.629
12.68000 43.149
12.70000 40.728
12.72000 45.443
12.74000 48.160
12.76000 54.076
12.78000 49.391
12.80000 53.647
12.82000 49.004
12.84000 45.850
12.86000 50.010
12.88000 53.925
12.90000 54.727
12.92000 52.843
12.94000 50.887
12.96000 50.683
12.98000 53.199
13.00000 55.480
13.02000 54.156
13.04000 50.031
13.06000 48.258
13.08000 55.946
13.10000 51.121
13.12000 46.418
13.14000 49.334
13.16000 45.905
13.18000 47.752
13.20000 45.390
13.22000 43.513
13.24000 42.739
13.26000 51.594
13.28000 55.753
13.30000 52.763
13.32000 49.155
13.34000 51.531
13.36000 61.693
13.38000 53.424
13.40000 47.300
13.42000 50.180
13.44000 50.368
13.46000 50.293
13.48000 50.455
13.50000 49.429
13.52000 52.446
13.54000 48.688
13.56000 49.341
13.58000 43.867
13.60000 49.526
13.62000 49.844
13.64000 48.251
13.66000 45.786
13.68000 56.725
13.70000 56.311
13.72000 45.348
13.74000 47.115
13.76000 49.901
13.78000 46.707
13.80000 47.962
13.82000 45.233
13.84000 43.351
13.86000 53.000
13.88000 57.053
13.90000 39.683
13.92000 43.897
13.94000 41.811
13.96000 40.363
13.98000 47.240
14.00000 47.765
14.02000 41.350
14.04000 45.402
14.06000 50.813
14.08000 48.688
14.10000 43.037
14.12000 42.068
14.14000 39.853
14.16000 39.039
14.18000 31.023
14.20000 36.717
14.22000 41.460
14.24000 47.524
14.26000 53.687
14.28000 55.734
14.30000 50.102
14.32000 48.270
14.34000 40.274
14.36000 30.487
14.38000 30.655
14.40000 29.222
14.42000 35.727
14.44000 39.653
14.46000 37.345
14.48000 38.399
14.50000 39.174
14.52000 39.590
14.54000 36.540
14.56000 35.354
14.58000 35.604
14.60000 31.890
14.62000 37.910
14.64000 35.953
14.66000 26.183
14.68000 34.279
14.70000 35.860
14.72000 28.672
14.74000 34.221
14.76000 30.620
14.78000 33.507
14.80000 40.671
14.82000 39.008
14.84000 35.599
14.86000 31.470
14.88000 31.592
14.90000 25.770
14.92000 21.706
14.94000 29.921
14.96000 40.266
14.98000 37.593
15.00000 34.096
15.02000 31.154
15.04000 28.427
15.06000 25.576
15.08000 23.370
15.10000 25.568
15.12000 25.664
15.14000 33.827
15.16000 35.467
15.18000 27.440
15.20000 35.993
15.22000 33.323
15.24000 28.024
15.26000 35.259
15.28000 33.640
15.30000 26.387
15.32000 27.219
15.34000 33.557
15.36000 37.655
15.38000 37.008
15.40000 27.693
15.42000 20.639
15.44000 26.053
15.46000 34.023
15.48000 26.245
15.50000 28.541
15.52000 28.000
15.54000 29.845
15.56000 18.128
15.58000 20.660
15.60000 25.374
15.62000 22.446
15.64000 22.740
15.66000 28.921
15.68000 33.303
15.70000 34.685
15.72000 28.917
15.74000 25.849
15.76000 28.763
15.78000 34.350
15.80000 31.053
15.82000 27.371
15.84000 24.822
15.86000 23.235
15.88000 21.570
15.90000 22.868
15.92000 21.846
15.94000 19.312
15.96000 16.656
15.98000 26.572
16.00000 26.475
16.02000 23.084
16.04000 27.330
16.06000 21.985
16.08000 20.521
16.10000 20.778
16.12000 19.979
16.14000 15.233
16.16000 18.986
16.18000 26.560
16.20000 20.707
16.22000 16.820
16.24000 17.082
16.26000 17.299
16.28000 16.109
16.30000 16.292
16.32000 16.785
16.34000 16.097
16.36000 19.723
16.38000 19.250
16.40000 17.164
16.42000 16.286
16.44000 15.437
16.46000 12.983
16.48000 20.518
16.50000 18.920
16.52000 19.716
16.54000 21.153
16.56000 12.289
16.58000 16.081
16.60000 20.561
16.62000 20.286
16.64000 22.295
16.66000 20.978
16.68000 19.128
16.70000 9.256
16.72000 17.201
16.74000 22.790
16.76000 13.437
16.78000 14.439
16.80000 18.588
16.82000 17.977
16.84000 15.780
16.86000 15.740
16.88000 16.414
16.90000 24.436
16.92000 22.913
16.94000 22.837
16.96000 13.285
16.98000 7.705
17.00000 12.063
17.02000 16.159
17.04000 18.397
17.06000 13.880
17.08000 12.874
17.10000 21.978
17.12000 18.544
17.14000 10.458
17.16000 11.391
17.18000 9.048
17.20000 12.558
17.22000 12.313
17.24000 9.689
17.26000 7.172
17.28000 12.705
17.30000 13.155
17.32000 17.791
17.34000 11.932
17.36000 13.001
17.38000 16.360
17.40000 15.281
17.42000 16.516
17.44000 11.880
17.46000 18.794
17.48000 15.291
17.50000 12.849
17.52000 14.078
17.54000 16.019
17.56000 13.610
17.58000 11.438
17.60000 18.842
17.62000 14.698
17.64000 10.435
17.66000 17.463
17.68000 9.163
17.70000 3.638
17.72000 5.934
17.74000 6.377
17.76000 7.618
17.78000 10.104
17.80000 12.906
17.82000 10.124
17.84000 8.203
17.86000 8.725
17.88000 10.503
17.90000 16.416
17.92000 7.793
17.94000 17.495
17.96000 11.832
17.98000 7.301
18.00000 2.309
18.02000 5.423
18.04000 6.468
18.06000 2.047
18.08000 3.648
18.10000 5.763
18.12000 0.325
18.14000 1.521
18.16000 7.302
18.18000 8.981
18.20000 8.405
18.22000 7.515
18.24000 7.822
18.26000 2.380
18.28000 2.527
18.30000 7.726
18.32000 1.830
18.34000 4.554
18.36000 8.163
18.38000 1.917
18.40000 9.849
18.42000 7.182
18.44000 5.256
18.46000 -2.907
18.48000 3.084
18.50000 10.059
18.52000 13.280
18.54000 12.370
18.56000 11.470
18.58000 14.481
18.60000 8.071
18.62000 8.484
18.64000 5.894
18.66000 5.175
18.68000 0.482
18.70000 4.664
18.72000 6.365
18.74000 -3.733
18.76000 -1.743
18.78000 4.114
18.80000 -0.590
18.82000 2.026
18.84000 6.486
18.86000 3.186
18.88000 -1.480
18.90000 3.933
18.92000 7.697
18.94000 8.840
18.96000 3.015
18.98000 -4.295
19.00000 1.055
19.02000 9.673
19.04000 9.636
19.06000 6.941
19.08000 4.602
19.10000 2.356
19.12000 -1.323
19.14000 -1.300
19.16000 3.712
19.18000 5.553
19.20000 6.088
19.22000 3.780
19.24000 5.630
19.26000 3.023
19.28000 -0.290
19.30000 8.055
19.32000 13.766
19.34000 9.362
19.36000 7.518
19.38000 3.734
19.40000 5.105
19.42000 0.771
19.44000 -1.739
19.46000 0.509
19.48000 9.871
19.50000 9.392
19.52000 0.109
19.54000 -0.693
19.56000 -0.039
19.58000 6.589
19.60000 3.258
19.62000 0.170
19.64000 5.752
19.66000 3.327
19.68000 -0.230
19.70000 3.151
19.72000 2.839
19.74000 0.807
19.76000 5.540
19.78000 4.836
19.80000 7.846
19.82000 0.852
19.84000 4.688
19.86000 6.377
19.88000 2.754
19.90000 2.833
19.92000 6.732
19.94000 0.904
19.96000 0.778
19.98000 -4.243
20.00000 0.402
20.02000 8.615
20.04000 6.129
20.06000 5.901
20.08000 4.270
20.10000 2.759
20.12000 5.788
20.14000 2.909
20.16000 4.803
20.18000 3.827
20.20000 2.492
20.22000 9.443
20.24000 4.723
20.26000 2.203
20.28000 3.600
20.30000 5.259
20.32000 9.421
20.34000 4.675
20.36000 1.597
20.38000 5.756
20.40000 5.994
20.42000 4.821
20.44000 4.443
20.46000 3.819
20.48000 -2.212
20.50000 -2.348
20.52000 6.681
20.54000 1.906
20.56000 4.383
20.58000 8.622
20.60000 8.326
20.62000 10.983
20.64000 7.874
20.66000 3.750
20.68000 3.184
20.70000 6.513
20.72000 9.744
20.74000 5.585
20.76000 2.388
20.78000 -4.198
20.80000 4.047
20.82000 5.503
20.84000 2.885
20.86000 2.823
20.88000 4.201
20.90000 7.013
20.92000 13.510
20.94000 12.351
20.96000 1.229
20.98000 -2.960
21.00000 6.004
21.02000 -1.329
21.04000 5.135
21.06000 5.385
21.08000 4.647
21.10000 7.912
21.12000 8.835
21.14000 -0.915
21.16000 1.015
21.18000 2.274
21.20000 -1.371
21.22000 3.908
21.24000 8.250
21.26000 0.723
21.28000 -3.394
21.30000 -3.870
21.32000 -3.898
21.34000 -2.102
21.36000 5.829
21.38000 3.692
21.40000 5.100
21.42000 6.747
21.44000 -0.241
21.46000 4.420
21.48000 5.902
21.50000 8.517
21.52000 8.992
21.54000 6.572
21.56000 -3.071
21.58000 1.093
21.60000 3.065
21.62000 0.679
21.64000 4.309
21.66000 4.835
21.68000 4.350
21.70000 9.195
21.72000 7.189
21.74000 9.607
21.76000 6.212
21.78000 0.319
21.80000 4.664
21.82000 4.646
21.84000 2.516
21.86000 3.444
21.88000 8.500
21.90000 3.052
21.92000 -0.117
21.94000 7.932
21.96000 7.137
21.98000 0.998
22.00000 3.752
22.02000 3.182
22.04000 8.475
22.06000 14.107
22.08000 11.962
22.10000 6.699
22.12000 3.612
22.14000 5.602
22.16000 3.399
22.18000 10.562
22.20000 16.175
22.22000 6.611
22.24000 7.554
22.26000 6.652
22.28000 3.700
22.30000 1.178
22.32000 7.030
22.34000 9.033
22.36000 4.504
22.38000 8.954
22.40000 11.743
22.42000 -2.214
22.44000 -4.058
22.46000 11.497
22.48000 11.522
22.50000 5.154
22.52000 3.405
22.54000 4.448
22.56000 6.457
22.58000 3.246
22.60000 0.467
22.62000 5.059
22.64000 9.980
22.66000 7.361
22.68000 10.322
22.70000 5.367
22.72000 2.284
22.74000 0.509
22.76000 10.037
22.78000 8.904
22.80000 7.685
22.82000 12.089
22.84000 7.611
22.86000 4.448
22.88000 4.489
22.90000 4.271
22.92000 0.343
22.94000 5.503
22.96000 7.367
22.98000 2.187
23.00000 -1.236
23.02000 9.727
23.04000 12.032
23.06000 2.681
23.08000 7.304
23.10000 11.938
23.12000 7.928
23.14000 -0.320
23.16000 4.759
23.18000 6.327
23.20000 5.585
23.22000 5.395
23.24000 9.419
23.26000 7.398
23.28000 12.075
23.30000 11.983
23.32000 8.415
23.34000 4.484
23.36000 1.837
23.38000 4.479
23.40000 6.505
23.42000 6.666
23.44000 6.189
23.46000 3.655
23.48000 -2.031
23.50000 1.873
23.52000 -3.047
23.54000 -0.608
23.56000 -0.551
23.58000 -0.265
23.60000 4.872
23.62000 4.069
23.64000 4.196
23.66000 1.178
23.68000 1.769
23.70000 10.062
23.72000 4.944
23.74000 0.820
23.76000 6.399
23.78000 7.628
23.80000 5.350
23.82000 7.399
23.84000 -0.321
23.86000 1.695
23.88000 -0.293
23.90000 -0.951
23.92000 2.225
23.94000 0.932
23.96000 5.170
23.98000 4.851
24.00000 -1.892
24.02000 -0.931
24.04000 0.524
24.06000 5.781
24.08000 9.900
24.10000 6.762
24.12000 2.607
24.14000 3.209
24.16000 -0.097
24.18000 5.491
24.20000 8.678
24.22000 3.674
24.24000 2.612
24.26000 -1.502
24.28000 0.068
24.30000 -1.713
24.32000 1.609
24.34000 -2.768
24.36000 -3.516
24.38000 -0.965
24.40000 1.093
24.42000 0.073
24.44000 4.974
24.46000 7.899
24.48000 4.763
24.50000 -1.294
24.52000 -0.974
24.54000 2.166
24.56000 1.398
24.58000 -3.283
24.60000 0.234
24.62000 4.268
24.64000 1.023
24.66000 -3.998
24.68000 1.944
24.70000 0.496
24.72000 1.890
24.74000 9.035
24.76000 4.663
24.78000 4.235
24.80000 3.553
24.82000 -3.418
24.84000 -2.525
24.86000 2.109
24.88000 5.679
24.90000 4.703
24.92000 3.630
24.94000 2.616
24.96000 1.368
24.98000 2.753
25.00000 2.914
25.02000 -0.964
25.04000 5.670
25.06000 3.748
25.08000 3.876
25.10000 4.085
25.12000 1.614
25.14000 -0.805
25.16000 2.041
25.18000 1.400
25.20000 -3.957
25.22000 1.858
25.24000 2.997
25.26000 2.818
25.28000 2.041
25.30000 0.670
25.32000 1.537
25.34000 0.894
25.36000 2.909
25.38000 2.992
25.40000 6.831
25.42000 4.089
25.44000 3.331
25.46000 10.392
25.48000 12.359
25.50000 2.758
25.52000 3.026
25.54000 -0.054
25.56000 -1.523
25.58000 -1.142
25.60000 3.259
25.62000 3.630
25.64000 -3.725
25.66000 1.493
25.68000 9.846
25.70000 6.693
25.72000 -1.067
25.74000 -2.287
25.76000 0.987
25.78000 4.249
25.80000 2.276
25.82000 -1.414
25.84000 3.993
25.86000 4.162
25.88000 2.330
25.90000 3.303
25.92000 2.746
25.94000 -1.545
25.96000 0.442
25.98000 0.591
26.00000 -3.922
26.02000 -2.667
26.04000 0.257
26.06000 5.543
26.08000 7.254
26.10000 5.519
26.12000 -0.836
26.14000 -3.914
26.16000 0.646
26.18000 3.124
26.20000 6.537
26.22000 5.395
26.24000 1.088
26.26000 -1.046
26.28000 0.038
26.30000 0.635
26.32000 -1.107
26.34000 -1.175
26.36000 -1.437
26.38000 1.844
26.40000 2.332
26.42000 1.865
26.44000 6.254
26.46000 6.831
26.48000 -2.569
26.50000 1.943
26.52000 5.843
26.54000 5.309
26.56000 4.604
26.58000 5.158
26.60000 7.808
26.62000 7.740
26.64000 5.552
26.66000 3.465
26.68000 1.962
26.70000 3.121
26.72000 5.952
26.74000 5.841
26.76000 -3.873
26.78000 -0.602
26.80000 3.719
26.82000 6.281
26.84000 1.903
26.86000 0.469
26.88000 4.452
26.90000 3.287
26.92000 -3.343
26.94000 1.361
26.96000 1.440
26.98000 -2.957
27.00000 -1.044
27.02000 0.963
27.04000 6.363
27.06000 3.160
27.08000 0.486
27.10000 5.521
27.12000 1.228
27.14000 -0.891
27.16000 -0.734
27.18000 0.073
27.20000 0.840
27.22000 1.306
27.24000 4.766
27.26000 5.406
27.28000 1.459
27.30000 -3.836
27.32000 3.419
27.34000 7.840
27.36000 8.931
27.38000 9.150
27.40000 8.854
27.42000 8.673
27.44000 6.008
27.46000 7.543
27.48000 3.694
27.50000 2.162
27.52000 3.781
27.54000 6.455
27.56000 8.533
27.58000 7.236
27.60000 0.619
27.62000 3.349
27.64000 5.728
27.66000 6.296
27.68000 4.345
27.70000 5.390
27.72000 7.429
27.74000 4.179
27.76000 3.206
27.78000 5.854
27.80000 0.689
27.82000 3.101
27.84000 3.938
27.86000 5.321
27.88000 5.948
27.90000 2.574
27.92000 7.416
27.94000 5.134
27.96000 1.487
27.98000 -3.793
28.00000 -3.255
28.02000 -2.075
28.04000 2.820
28.06000 2.620
28.08000 0.514
28.10000 5.103
28.12000 7.453
28.14000 5.055
28.16000 1.172
28.18000 8.074
28.20000 6.213
28.22000 7.312
28.24000 7.670
28.26000 3.812
28.28000 3.740
28.30000 0.397
28.32000 4.503
28.34000 3.840
28.36000 2.532
28.38000 2.056
28.40000 1.238
28.42000 -1.307
28.44000 4.340
28.46000 6.760
28.48000 4.011
28.50000 4.247
28.52000 0.613
28.54000 3.810
28.56000 7.149
28.58000 8.278
28.60000 0.391
28.62000 2.227
28.64000 -0.437
28.66000 5.736
28.68000 7.343
28.70000 1.029
28.72000 -0.288
28.74000 1.228
28.76000 -0.115
28.78000 0.696
28.80000 2.481
28.82000 2.164
28.84000 0.777
28.86000 1.468
28.88000 1.349
28.90000 -2.301
28.92000 0.995
28.94000 6.058
28.96000 8.072
28.98000 0.078
29.00000 -0.928
29.02000 3.114
29.04000 1.711
29.06000 -0.404
29.08000 1.337
29.10000 4.289
29.12000 2.390
29.14000 1.457
29.16000 1.574
29.18000 5.851
29.20000 0.397
29.22000 -2.102
29.24000 4.026
29.26000 3.751
29.28000 2.120
29.30000 2.700
29.32000 5.365
29.34000 7.415
29.36000 2.178
29.38000 -1.351
29.40000 5.459
29.42000 9.213
29.44000 7.753
29.46000 2.987
29.48000 4.073
29.50000 3.278
29.52000 -3.723
29.54000 -0.706
29.56000 1.467
29.58000 5.793
29.60000 2.248
29.62000 0.619
29.64000 2.591
29.66000 4.405
29.68000 1.909
29.70000 1.748
29.72000 2.326
29.74000 1.395
29.76000 3.177
29.78000 -0.569
29.80000 0.078
29.82000 -2.895
29.84000 1.704
29.86000 4.262
29.88000 4.138
29.90000 4.266
29.92000 0.062
29.94000 -2.115
29.96000 -0.748
29.98000 2.496
30.00000 3.514
30.02000 2.827
30.04000 -1.326
30.06000 1.287
30.08000 0.221
30.10000 5.737
30.12000 6.622
30.14000 1.399
30.16000 -1.098
30.18000 1.799
30.20000 1.229
30.22000 -1.830
30.24000 -0.594
30.26000 0.312
30.28000 1.700
30.30000 0.624
30.32000 2.099
30.34000 -0.474
30.36000 -2.019
30.38000 4.570
30.40000 7.363
30.42000 1.614
30.44000 -1.180
30.46000 0.697
30.48000 1.482
30.50000 4.930
30.52000 0.774
30.54000 -0.827
30.56000 -1.075
30.58000 2.711
30.60000 5.306
30.62000 3.172
30.64000 4.319
30.66000 -3.346
30.68000 -1.299
30.70000 8.009
30.72000 9.512
30.74000 7.435
30.76000 5.232
30.78000 3.050
30.80000 -0.659
30.82000 2.797
30.84000 3.420
30.86000 5.665
30.88000 5.030
30.90000 -0.419
30.92000 -1.998
30.94000 0.928
30.96000 8.587
30.98000 11.130
31.00000 9.398
31.02000 6.535
31.04000 2.957
31.06000 1.790
31.08000 4.328
31.10000 2.844
31.12000 0.508
31.14000 -0.848
31.16000 0.278
31.18000 4.421
31.20000 4.434
31.22000 5.044
31.24000 2.198
31.26000 4.232
31.28000 -3.629
31.30000 -3.629
31.32000 -2.160
31.34000 -2.617
31.36000 1.536
31.38000 4.294
31.40000 3.103
31.42000 2.125
31.44000 -1.441
31.46000 4.870
31.48000 2.949
31.50000 5.251
31.52000 3.238
31.54000 0.760
31.56000 2.976
31.58000 0.073
31.60000 2.892
31.62000 3.142
31.64000 3.504
31.66000 4.637
31.68000 5.897
31.70000 6.249
31.72000 7.850
31.74000 8.433
31.76000 3.647
31.78000 1.097
31.80000 0.504
31.82000 0.850
31.84000 5.584
31.86000 -1.160
31.88000 -2.079
31.90000 -1.708
31.92000 1.207
31.94000 0.392
31.96000 -0.184
31.98000 2.797
32.00000 4.066
32.02000 0.810
32.04000 0.287
32.06000 -2.015
32.08000 -0.520
32.10000 4.153
32.12000 2.323
32.14000 6.017
32.16000 2.556
32.18000 -1.079
32.20000 3.173
32.22000 2.155
32.24000 3.825
32.26000 3.690
32.28000 4.997
32.30000 1.326
32.32000 2.194
32.34000 4.976
32.36000 6.145
32.38000 2.939
32.40000 5.457
32.42000 5.400
32.44000 2.696
32.46000 5.523
32.48000 6.260
32.50000 3.239
32.52000 -3.593
32.54000 -2.004
32.56000 4.045
32.58000 3.686
32.60000 -1.466
32.62000 -0.214
32.64000 5.009
32.66000 6.017
32.68000 2.342
32.70000 3.331
32.72000 5.078
32.74000 8.680
32.76000 5.972
32.78000 5.633
32.80000 1.895
32.82000 -0.197
32.84000 2.146
32.86000 5.003
32.88000 -1.298
32.90000 -2.480
32.92000 4.068
32.94000 2.401
32.96000 2.787
32.98000 -0.307
33.00000 -3.042
33.02000 -3.593
33.04000 -1.494
33.06000 2.758
33.08000 1.499
33.10000 2.868
33.12000 5.116
33.14000 3.782
33.16000 0.672
33.18000 4.590
33.20000 5.895
33.22000 2.723
33.24000 5.124
33.26000 3.702
33.28000 2.372
33.30000 5.169
33.32000 6.637
33.34000 2.455
33.36000 0.528
33.38000 4.319
33.40000 1.196
33.42000 1.666
33.44000 3.546
33.46000 9.281
33.48000 10.079
33.50000 6.960
33.52000 4.502
33.54000 5.046
33.56000 8.196
33.58000 9.939
33.60000 2.833
33.62000 3.156
33.64000 1.936
33.66000 3.593
33.68000 1.907
33.70000 3.345
33.72000 6.412
33.74000 2.081
33.76000 -2.194
33.78000 -1.940
33.80000 5.053
33.82000 2.540
33.84000 2.377
33.86000 2.554
33.88000 4.304
33.90000 0.578
33.92000 5.093
33.94000 4.914
33.96000 2.975
33.98000 0.381
34.00000 1.210
34.02000 2.071
34.04000 4.375
34.06000 4.730
34.08000 5.735
34.10000 2.925
34.12000 1.774
34.14000 5.024
34.16000 11.651
34.18000 5.789
34.20000 0.596
34.22000 -0.325
34.24000 -0.820
34.26000 5.391
34.28000 3.096
34.30000 1.327
34.32000 1.800
34.34000 5.149
34.36000 2.842
34.38000 1.512
34.40000 1.972
34.42000 4.378
34.44000 4.896
34.46000 7.705
34.48000 6.972
34.50000 -0.543
34.52000 1.748
34.54000 0.448
34.56000 -3.554
34.58000 -2.761
34.60000 0.312
34.62000 3.711
34.64000 1.562
34.66000 2.521
34.68000 4.984
34.70000 3.614
34.72000 6.047
34.74000 7.489
34.76000 6.045
34.78000 5.845
34.80000 7.974
34.82000 6.483
34.84000 2.035
34.86000 1.724
34.88000 1.379
34.90000 -0.497
34.92000 3.539
34.94000 1.086
34.96000 1.248
34.98000 6.245
35.00000 2.753
35.02000 3.603
35.04000 2.433
35.06000 3.441
35.08000 2.397
35.10000 1.792
35.12000 7.190
35.14000 7.414
35.16000 2.875
35.18000 1.510
35.20000 4.383
35.22000 4.741
35.24000 1.239
35.26000 0.971
35.28000 5.353
35.30000 10.288
35.32000 3.291
35.34000 -2.480
35.36000 -0.115
35.38000 4.309
35.40000 4.579
35.42000 6.458
35.44000 6.174
35.46000 0.695
35.48000 0.107
35.50000 0.299
35.52000 -3.511
35.54000 0.846
35.56000 -0.249
35.58000 1.920
35.60000 1.493
35.62000 1.287
35.64000 6.250
35.66000 8.798
35.68000 2.123
35.70000 -1.213
35.72000 4.686
35.74000 3.533
35.76000 6.055
35.78000 7.575
35.80000 5.649
35.82000 0.138
35.84000 -2.559
35.86000 -3.053
35.88000 2.009
35.90000 1.958
35.92000 8.752
35.94000 4.004
35.96000 -2.176
35.98000 0.780
36.00000 3.632
36.02000 -0.299
36.04000 1.206
36.06000 1.808
36.08000 -1.857
36.10000 -3.276
36.12000 0.599
36.14000 2.033
36.16000 0.410
36.18000 2.796
36.20000 0.655
36.22000 -0.812
36.24000 3.868
36.26000 3.393
36.28000 1.480
36.30000 -2.132
36.32000 0.752
36.34000 -1.406
36.36000 -0.555
36.38000 2.516
36.40000 2.295
36.42000 -1.627
36.44000 0.960
36.46000 0.028
36.48000 -0.942
36.50000 -1.188
36.52000 0.116
36.54000 0.819
36.56000 1.846
36.58000 -0.877
36.60000 3.524
36.62000 1.963
36.64000 3.077
36.66000 1.692
36.68000 0.423
36.70000 0.138
36.72000 -0.679
36.74000 0.786
36.76000 -0.049
36.78000 2.092
36.80000 3.124
36.82000 2.526
36.84000 4.483
36.86000 4.379
36.88000 1.336
36.90000 2.701
36.92000 -3.528
36.94000 -0.099
36.96000 0.905
36.98000 2.730
37.00000 3.176
37.02000 3.570
37.04000 3.901
37.06000 0.646
37.08000 -1.036
37.10000 5.074
37.12000 1.522
37.14000 -0.396
37.16000 0.571
37.18000 3.068
37.20000 4.074
37.22000 3.533
37.24000 3.307
37.26000 -1.022
37.28000 -0.186
37.30000 2.346
37.32000 2.220
37.34000 2.727
37.36000 -0.985
37.38000 -0.768
37.40000 0.001
37.42000 3.449
37.44000 1.283
37.46000 -0.369
37.48000 1.332
37.50000 2.481
37.52000 2.341
37.54000 -0.169
37.56000 -0.191
37.58000 2.877
37.60000 3.052
37.62000 2.688
37.64000 7.024
37.66000 2.883
37.68000 -2.953
37.70000 -2.649
37.72000 -1.803
37.74000 2.429
37.76000 5.671
37.78000 0.576
37.80000 -0.831
37.82000 1.763
37.84000 5.027
37.86000 2.089
37.88000 9.680
37.90000 5.196
37.92000 4.682
37.94000 8.036
37.96000 7.889
37.98000 2.329
38.00000 3.144
38.02000 0.518
38.04000 3.248
38.06000 4.655
38.08000 2.889
38.10000 5.750
38.12000 3.760
38.14000 4.088
38.16000 8.512
38.18000 13.653
38.20000 15.210
38.22000 8.256
38.24000 8.611
38.26000 9.009
38.28000 11.042
38.30000 11.353
38.32000 11.237
38.34000 12.356
38.36000 7.527
38.38000 10.449
38.40000 12.352
38.42000 16.065
38.44000 12.164
38.46000 15.732
38.48000 18.266
38.50000 19.294
38.52000 20.436
38.54000 16.628
38.56000 13.051
38.58000 15.673
38.60000 14.392
38.62000 18.624
38.64000 15.846
38.66000 17.760
38.68000 15.734
38.70000 15.649
38.72000 17.869
38.74000 21.726
38.76000 24.027
38.78000 20.827
38.80000 22.992
38.82000 25.633
38.84000 28.260
38.86000 26.324
38.88000 26.429
38.90000 25.889
38.92000 25.566
38.94000 30.690
38.96000 32.579
38.98000 29.375
39.00000 35.297
39.02000 34.112
39.04000 28.516
39.06000 29.872
39.08000 38.186
39.10000 33.870
39.12000 32.691
39.14000 36.646
39.16000 45.458
39.18000 42.991
39.20000 38.883
39.22000 47.629
39.24000 50.570
39.26000 56.906
39.28000 58.868
39.30000 57.548
39.32000 58.657
39.34000 60.976
39.36000 61.912
39.38000 62.747
39.40000 65.363
39.42000 63.898
39.44000 72.705
39.46000 77.133
39.48000 84.123
39.50000 88.308
39.52000 92.842
39.54000 92.025
39.56000 94.523
39.58000 95.897
39.60000 105.077
39.62000 111.560
39.64000 114.800
39.66000 126.949
39.68000 132.744
39.70000 137.921
39.72000 148.840
39.74000 154.252
39.76000 158.995
39.78000 167.483
39.80000 173.445
39.82000 184.179
39.84000 205.542
39.86000 216.650
39.88000 221.129
39.90000 229.188
39.92000 240.439
39.94000 256.630
39.96000 264.790
39.98000 278.671
40.00000 289.863
40.02000 303.545
40.04000 326.772
40.06000 334.989
40.08000 354.756
40.10000 362.642
40.12000 375.485
40.14000 391.829
40.16000 408.602
40.18000 429.998
40.20000 439.375
40.22000 455.643
40.24000 467.049
40.26000 477.649
40.28000 487.158
40.30000 495.622
40.32000 503.342
40.34000 504.359
40.36000 505.591
40.38000 518.560
40.40000 518.508
40.42000 525.261
40.44000 516.509
40.46000 519.690
40.48000 523.792
40.50000 506.614
40.52000 499.809
40.54000 489.160
40.56000 480.640
40.58000 480.297
40.60000 474.377
40.62000 460.292
40.64000 451.667
40.66000 445.922
40.68000 418.898
40.70000 404.074
40.72000 391.008
40.74000 374.388
40.76000 363.994
40.78000 353.918
40.80000 333.009
40.82000 312.449
40.84000 302.399
40.86000 292.954
40.88000 284.563
40.90000 266.917
40.92000 260.789
40.94000 242.269
40.96000 232.061
40.98000 226.520
41.00000 211.846
41.02000 201.513
41.04000 182.016
41.06000 173.933
41.08000 166.191
41.10000 164.027
41.12000 154.697
41.14000 150.125
41.16000 144.563
41.18000 131.209
41.20000 125.609
41.22000 116.158
41.24000 113.556
41.26000 112.803
41.28000 104.411
41.30000 90.483
41.32000 89.728
41.34000 89.905
41.36000 84.156
41.38000 77.132
41.40000 74.815
41.42000 69.234
41.44000 69.172
41.46000 64.485
41.48000 60.271
41.50000 63.062
41.52000 56.032
41.54000 53.091
41.56000 51.151
41.58000 45.715
41.60000 44.742
41.62000 41.814
41.64000 41.312
41.66000 39.841
41.68000 38.594
41.70000 36.046
41.72000 30.409
41.74000 25.276
41.76000 22.546
41.78000 25.417
41.80000 24.078
41.82000 29.072
41.84000 31.216
41.86000 21.150
41.88000 19.703
41.90000 21.776
41.92000 20.918
41.94000 20.518
41.96000 20.905
41.98000 15.863
42.00000 14.411
42.02000 13.294
42.04000 14.665
42.06000 14.396
42.08000 9.385
42.10000 11.539
42.12000 15.335
42.14000 12.729
42.16000 11.821
42.18000 8.072
42.20000 6.101
42.22000 7.767
42.24000 9.882
42.26000 9.691
42.28000 4.874
42.30000 3.576
42.32000 6.579
42.34000 5.919
42.36000 6.394
42.38000 5.692
42.40000 3.169
42.42000 3.968
42.44000 5.696
42.46000 2.497
42.48000 5.222
42.50000 5.450
42.52000 2.429
42.54000 0.083
42.56000 -3.182
42.58000 3.851
42.60000 4.471
42.62000 3.902
42.64000 3.553
42.66000 4.811
42.68000 0.028
42.70000 3.450
42.72000 4.850
42.74000 5.624
42.76000 -0.541
42.78000 3.214
42.80000 4.359
42.82000 3.083
42.84000 3.162
42.86000 5.058
42.88000 1.075
42.90000 -1.334
42.92000 -1.028
42.94000 0.711
42.96000 0.429
42.98000 2.970
43.00000 2.037
43.02000 -3.403
43.04000 -1.588
43.06000 0.150
43.08000 3.616
43.10000 2.927
43.12000 0.748
43.14000 -1.215
43.16000 1.121
43.18000 -0.854
43.20000 -2.763
43.22000 3.155
43.24000 1.175
43.26000 -1.170
43.28000 3.831
43.30000 5.171
43.32000 5.244
43.34000 4.036
43.36000 -3.415
43.38000 -2.511
43.40000 -0.009
43.42000 3.485
43.44000 2.821
43.46000 7.719
43.48000 6.836
43.50000 4.514
43.52000 4.317
43.54000 -1.614
43.56000 -0.176
43.58000 0.031
43.60000 1.728
43.62000 0.179
43.64000 2.751
43.66000 8.156
43.68000 3.619
43.70000 0.328
43.72000 1.677
43.74000 4.624
43.76000 1.535
43.78000 -1.172
43.80000 -0.226
43.82000 1.829
43.84000 -0.958
43.86000 -3.368
43.88000 -2.307
43.90000 -2.876
43.92000 2.829
43.94000 0.967
43.96000 -0.257
43.98000 2.193
44.00000 2.515
44.02000 1.145
44.04000 1.501
44.06000 2.254
44.08000 4.702
44.10000 4.693
44.12000 -0.057
44.14000 0.534
44.16000 2.115
44.18000 -1.527
44.20000 0.377
44.22000 -0.418
44.24000 -1.580
44.26000 -3.356
44.28000 -0.104
44.30000 -0.307
44.32000 -0.115
44.34000 -1.372
44.36000 -1.379
44.38000 3.180
44.40000 1.493
44.42000 0.305
44.44000 -0.965
44.46000 1.537
44.48000 1.965
44.50000 3.590
44.52000 -0.574
44.54000 -0.510
44.56000 -1.934
44.58000 -0.992
44.60000 0.749
44.62000 -1.124
44.64000 0.303
44.66000 1.430
44.68000 1.512
44.70000 5.208
44.72000 5.453
44.74000 1.218
44.76000 2.684
44.78000 -1.464
44.80000 -2.505
44.82000 2.251
44.84000 2.393
44.86000 4.377
44.88000 5.316
44.90000 2.874
44.92000 -0.515
44.94000 0.106
44.96000 4.115
44.98000 3.074
45.00000 3.621
45.02000 7.757
45.04000 8.805
45.06000 3.241
45.08000 5.157
45.10000 3.829
45.12000 -3.328
45.14000 -1.977
45.16000 0.277
45.18000 6.359
45.20000 5.713
45.22000 3.272
45.24000 3.357
45.26000 0.974
45.28000 1.547
45.30000 1.795
45.32000 8.997
45.34000 7.449
45.36000 7.321
45.38000 3.573
45.40000 5.801
45.42000 6.631
45.44000 3.029
45.46000 2.126
45.48000 8.844
45.50000 10.855
45.52000 9.593
45.54000 6.201
45.56000 1.937
45.58000 2.767
45.60000 3.544
45.62000 9.360
45.64000 9.898
45.66000 10.432
45.68000 7.852
45.70000 7.294
45.72000 12.391
45.74000 16.363
45.76000 22.023
45.78000 19.986
45.80000 14.145
45.82000 15.560
45.84000 15.218
45.86000 19.148
45.88000 17.983
45.90000 18.069
45.92000 15.776
45.94000 17.717
45.96000 18.773
45.98000 23.250
46.00000 28.824
46.02000 24.350
46.04000 23.327
46.06000 27.401
46.08000 27.422
46.10000 27.405
46.12000 28.372
46.14000 31.776
46.16000 32.183
46.18000 31.721
46.20000 35.343
46.22000 39.481
46.24000 35.298
46.26000 36.264
46.28000 42.885
46.30000 42.026
46.32000 45.596
46.34000 39.816
46.36000 41.516
46.38000 47.041
46.40000 45.601
46.42000 47.160
46.44000 49.066
46.46000 50.593
46.48000 53.640
46.50000 51.779
46.52000 51.378
46.54000 47.615
46.56000 51.517
46.58000 57.579
46.60000 58.039
46.62000 61.543
46.64000 61.481
46.66000 62.825
46.68000 64.670
46.70000 61.944
46.72000 66.608
46.74000 67.109
46.76000 67.542
46.78000 68.523
46.80000 65.180
46.82000 69.807
46.84000 71.395
46.86000 70.280
46.88000 76.323
46.90000 77.530
46.92000 75.514
46.94000 73.924
46.96000 75.287
46.98000 76.700
47.00000 70.166
47.02000 77.913
47.04000 78.839
47.06000 77.941
47.08000 79.145
47.10000 76.413
47.12000 75.755
47.14000 73.261
47.16000 78.768
47.18000 83.041
47.20000 75.737
47.22000 69.637
47.24000 72.873
47.26000 74.501
47.28000 72.643
47.30000 74.802
47.32000 75.001
47.34000 65.620
47.36000 62.259
47.38000 63.605
47.40000 66.246
47.42000 60.421
47.44000 61.678
47.46000 65.641
47.48000 63.828
47.50000 56.424
47.52000 60.197
47.54000 53.184
47.56000 50.887
47.58000 50.848
47.60000 51.704
47.62000 50.737
47.64000 46.512
47.66000 47.982
47.68000 45.731
47.70000 42.752
47.72000 45.430
47.74000 40.922
47.76000 35.958
47.78000 33.372
47.80000 29.187
47.82000 32.683
47.84000 32.405
47.86000 29.945
47.88000 31.136
47.90000 31.060
47.92000 32.674
47.94000 28.616
47.96000 32.602
47.98000 28.417
48.00000 26.437
48.02000 23.584
48.04000 18.906
48.06000 20.825
48.08000 18.766
48.10000 21.353
48.12000 23.501
48.14000 20.252
48.16000 15.976
48.18000 14.498
48.20000 9.933
48.22000 10.065
48.24000 13.452
48.26000 16.970
48.28000 14.126
48.30000 12.458
48.32000 13.631
48.34000 9.758
48.36000 9.747
48.38000 11.405
48.40000 8.659
48.42000 6.292
48.44000 5.886
48.46000 8.256
48.48000 8.702
48.50000 8.971
48.52000 6.405
48.54000 5.709
48.56000 3.829
48.58000 5.917
48.60000 5.257
48.62000 -0.012
48.64000 -1.089
48.66000 1.599
48.68000 5.791
48.70000 4.983
48.72000 6.262
48.74000 6.647
48.76000 6.991
48.78000 3.683
48.80000 1.528
48.82000 0.756
48.84000 6.870
48.86000 2.278
48.88000 2.553
48.90000 1.702
48.92000 4.828
48.94000 4.953
48.96000 -0.595
48.98000 3.218
49.00000 1.212
49.02000 2.343
49.04000 5.272
49.06000 2.890
49.08000 6.134
49.10000 2.061
49.12000 1.350
49.14000 0.432
49.16000 4.172
49.18000 4.590
49.20000 -2.933
49.22000 -0.102
49.24000 -0.938
49.26000 0.182
49.28000 0.805
49.30000 6.498
49.32000 1.274
49.34000 -1.749
49.36000 -2.550
49.38000 -1.758
49.40000 2.733
49.42000 3.351
49.44000 3.741
49.46000 0.324
49.48000 -0.410
49.50000 -2.894
49.52000 0.538
49.54000 0.921
49.56000 1.699
49.58000 1.760
49.60000 3.939
49.62000 4.182
49.64000 3.102
49.66000 1.940
49.68000 -0.199
49.70000 0.841
49.72000 0.827
49.74000 2.570
49.76000 1.391
49.78000 -0.239
49.80000 1.927
49.82000 3.295
49.84000 4.082
49.86000 1.884
49.88000 3.541
49.90000 3.632
49.92000 3.408
49.94000 5.140
49.96000 3.426
49.98000 5.215
50.00000 6.203
50.02000 2.704
50.04000 3.486
50.06000 -1.993
50.08000 -2.732
50.10000 2.846
50.12000 9.267
50.14000 9.299
50.16000 2.430
50.18000 6.704
50.20000 5.794
50.22000 0.457
50.24000 3.363
50.26000 1.448
50.28000 3.473
50.30000 4.192
50.32000 4.829
50.34000 2.584
50.36000 2.561
50.38000 6.179
50.40000 7.879
50.42000 1.300
50.44000 -2.809
50.46000 3.091
50.48000 6.285
50.50000 8.898
50.52000 6.340
50.54000 1.482
50.56000 1.337
50.58000 3.092
50.60000 4.617
50.62000 4.491
50.64000 4.757
50.66000 2.343
50.68000 0.904
50.70000 3.625
50.72000 2.552
50.74000 -2.787
50.76000 1.897
50.78000 3.715
50.80000 5.663
50.82000 10.717
50.84000 4.935
50.86000 4.389
50.88000 7.900
50.90000 3.002
50.92000 4.365
50.94000 -0.101
50.96000 2.625
50.98000 6.989
51.00000 5.369
51.02000 5.291
51.04000 3.083
51.06000 1.021
51.08000 3.791
51.10000 2.645
51.12000 -1.329
51.14000 -2.759
51.16000 0.632
51.18000 -1.231
51.20000 5.658
51.22000 1.940
51.24000 4.284
51.26000 4.689
51.28000 3.628
51.30000 0.086
51.32000 -0.763
51.34000 0.564
51.36000 4.762
51.38000 8.357
51.40000 6.322
51.42000 4.237
51.44000 2.741
51.46000 1.702
51.48000 4.786
51.50000 0.952
51.52000 5.336
51.54000 6.372
51.56000 1.705
51.58000 1.025
51.60000 -0.885
51.62000 1.773
51.64000 7.493
51.66000 7.350
51.68000 5.042
51.70000 4.641
51.72000 5.274
51.74000 -0.222
51.76000 0.014
51.78000 2.096
51.80000 4.170
51.82000 6.726
51.84000 10.094
51.86000 9.133
51.88000 4.572
51.90000 6.928
51.92000 6.888
51.94000 3.801
51.96000 0.975
51.98000 -0.701
52.00000 2.526
52.02000 5.096
52.04000 4.066
52.06000 4.256
52.08000 5.103
52.10000 0.725
52.12000 4.174
52.14000 8.070
52.16000 5.934
52.18000 4.126
52.20000 6.935
52.22000 6.397
52.24000 7.398
52.26000 6.225
52.28000 3.530
52.30000 2.174
52.32000 5.473
52.34000 1.043
52.36000 -2.441
52.38000 0.091
52.40000 7.206
52.42000 7.921
52.44000 -0.333
52.46000 -2.684
52.48000 -2.547
52.50000 5.329
52.52000 3.508
52.54000 6.651
52.56000 4.486
52.58000 2.473
52.60000 4.533
52.62000 3.495
52.64000 6.449
52.66000 5.524
52.68000 2.132
52.70000 -2.661
52.72000 0.719
52.74000 0.623
52.76000 4.013
52.78000 7.097
52.80000 3.572
52.82000 3.819
52.84000 6.143
52.86000 5.669
52.88000 4.209
52.90000 4.961
52.92000 2.539
52.94000 6.105
52.96000 7.922
52.98000 7.275
53.00000 12.044
53.02000 7.157
53.04000 8.192
53.06000 6.485
53.08000 4.236
53.10000 4.848
53.12000 5.837
53.14000 8.706
53.16000 11.673
53.18000 8.784
53.20000 4.848
53.22000 5.135
53.24000 2.138
53.26000 -0.632
53.28000 1.477
53.30000 8.396
53.32000 6.053
53.34000 5.600
53.36000 6.194
53.38000 4.302
53.40000 5.183
53.42000 5.775
53.44000 3.992
53.46000 5.469
53.48000 2.481
53.50000 7.949
53.52000 8.986
53.54000 5.372
53.56000 2.145
53.58000 2.809
53.60000 1.374
53.62000 4.313
53.64000 6.676
53.66000 8.918
53.68000 6.182
53.70000 4.765
53.72000 3.413
53.74000 4.886
53.76000 5.604
53.78000 6.135
53.80000 5.388
53.82000 4.689
53.84000 6.092
53.86000 8.551
53.88000 5.622
53.90000 5.522
53.92000 6.280
53.94000 6.426
53.96000 1.357
53.98000 3.881
54.00000 6.394
54.02000 7.078
54.04000 5.512
54.06000 6.330
54.08000 4.713
54.10000 6.321
54.12000 6.334
54.14000 4.073
54.16000 -2.619
54.18000 0.386
54.20000 4.975
54.22000 6.783
54.24000 5.040
54.26000 5.252
54.28000 3.200
54.30000 4.676
54.32000 6.281
54.34000 4.442
54.36000 6.764
54.38000 6.226
54.40000 4.228
54.42000 2.585
54.44000 7.146
54.46000 6.409
54.48000 4.578
54.50000 1.187
54.52000 4.064
54.54000 6.641
54.56000 5.174
54.58000 4.715
54.60000 9.343
54.62000 5.412
54.64000 3.665
54.66000 4.553
54.68000 5.169
54.70000 1.679
54.72000 1.222
54.74000 -0.010
54.76000 -2.053
54.78000 6.813
54.80000 8.226
54.82000 2.672
54.84000 1.060
54.86000 -1.066
54.88000 1.063
54.90000 4.562
54.92000 -0.726
54.94000 0.492
54.96000 1.365
54.98000 2.111
55.00000 1.755
55.02000 2.065
55.04000 5.966
55.06000 7.671
55.08000 4.632
55.10000 1.362
55.12000 2.356
55.14000 5.642
55.16000 0.092
55.18000 -1.081
55.20000 1.211
55.22000 -0.579
55.24000 0.508
55.26000 -1.062
55.28000 3.754
55.30000 5.628
55.32000 5.176
55.34000 6.468
55.36000 2.493
55.38000 2.187
55.40000 0.253
55.42000 -1.218
55.44000 2.528
55.46000 1.772
55.48000 3.663
55.50000 2.657
55.52000 2.589
55.54000 -0.780
55.56000 -0.228
55.58000 7.451
55.60000 3.648
55.62000 3.811
55.64000 6.549
55.66000 6.541
55.68000 5.826
55.70000 3.443
55.72000 1.270
55.74000 2.472
55.76000 4.527
55.78000 7.430
55.80000 6.834
55.82000 1.791
55.84000 0.242
55.86000 4.961
55.88000 2.649
55.90000 0.954
55.92000 4.362
55.94000 4.531
55.96000 5.479
55.98000 7.204
56.00000 2.836
56.02000 -2.602
56.04000 -1.145
56.06000 -0.951
56.08000 -0.868
56.10000 -0.363
56.12000 0.793
56.14000 1.838
56.16000 3.364
56.18000 5.415
56.20000 3.612
56.22000 7.512
56.24000 3.708
56.26000 2.872
56.28000 3.756
56.30000 3.026
56.32000 1.812
56.34000 5.220
56.36000 4.264
56.38000 5.320
56.40000 1.787
56.42000 1.323
56.44000 5.140
56.46000 4.637
56.48000 2.409
56.50000 5.816
56.52000 9.570
56.54000 8.708
56.56000 3.972
56.58000 3.389
56.60000 7.169
56.62000 4.815
56.64000 1.691
56.66000 3.207
56.68000 2.849
56.70000 -0.248
56.72000 -2.563
56.74000 4.853
56.76000 4.796
56.78000 4.683
56.80000 2.046
56.82000 3.379
56.84000 5.901
56.86000 7.807
56.88000 10.238
56.90000 7.101
56.92000 3.358
56.94000 7.311
56.96000 5.528
56.98000 2.266
57.00000 3.899
57.02000 -1.446
57.04000 1.075
57.06000 4.700
57.08000 5.870
57.10000 7.279
57.12000 4.180
57.14000 1.568
57.16000 1.650
57.18000 -0.962
57.20000 3.837
57.22000 -0.546
57.24000 1.124
57.26000 5.935
57.28000 8.585
57.30000 7.877
57.32000 5.147
57.34000 6.044
57.36000 4.872
57.38000 3.135
57.40000 3.055
57.42000 -2.577
57.44000 -1.766
57.46000 -2.292
57.48000 2.830
57.50000 -1.406
57.52000 1.316
57.54000 -0.395
57.56000 2.650
57.58000 3.906
57.60000 4.145
57.62000 4.538
57.64000 1.817
57.66000 2.370
57.68000 0.753
57.70000 2.136
57.72000 4.361
57.74000 2.127
57.76000 1.963
57.78000 1.429
57.80000 0.738
57.82000 3.932
57.84000 2.302
57.86000 -0.316
57.88000 0.832
57.90000 3.907
57.92000 1.710
57.94000 2.009
57.96000 2.644
57.98000 1.809
58.00000 -0.008
58.02000 -2.050
58.04000 0.959
58.06000 -2.107
58.08000 -0.348
58.10000 5.327
58.12000 0.597
58.14000 0.484
58.16000 1.892
58.18000 -1.942
58.20000 -0.182
58.22000 3.299
58.24000 0.875
58.26000 0.625
58.28000 -2.560
58.30000 1.414
58.32000 1.128
58.34000 2.563
58.36000 6.655
58.38000 4.340
58.40000 -2.058
58.42000 0.185
58.44000 2.809
58.46000 3.862
58.48000 1.726
58.50000 2.119
58.52000 1.414
58.54000 3.988
58.56000 7.344
58.58000 3.293
58.60000 2.494
58.62000 -0.345
58.64000 3.863
58.66000 2.961
58.68000 0.991
58.70000 -1.732
58.72000 -0.511
58.74000 2.852
58.76000 2.474
58.78000 0.241
58.80000 0.658
58.82000 2.425
58.84000 2.865
58.86000 1.115
58.88000 -2.162
58.90000 -1.711
58.92000 0.664
58.94000 7.032
58.96000 7.743
58.98000 6.079
59.00000 1.386
59.02000 0.178
59.04000 2.845
59.06000 2.994
59.08000 5.365
59.10000 3.692
59.12000 4.871
59.14000 1.407
59.16000 3.663
59.18000 7.637
59.20000 8.911
59.22000 5.470
59.24000 3.939
59.26000 4.401
59.28000 1.919
59.30000 1.465
59.32000 2.753
59.34000 -2.527
59.36000 0.818
59.38000 4.888
59.40000 4.715
59.42000 5.633
59.44000 5.409
59.46000 4.668
59.48000 2.215
59.50000 4.783
59.52000 6.386
59.54000 7.095
59.56000 1.583
59.58000 -1.737
59.60000 1.264
59.62000 5.070
59.64000 8.436
59.66000 4.641
59.68000 7.774
59.70000 4.989
59.72000 3.237
59.74000 1.696
59.76000 1.443
59.78000 0.257
59.80000 0.304
59.82000 0.000
59.84000 6.610
59.86000 5.883
59.88000 2.014
59.90000 2.710
59.92000 3.514
59.94000 7.727
59.96000 8.291
59.98000 3.634
60.00000 -2.492
60.02000 3.197
60.04000 3.024
60.06000 6.319
60.08000 4.197
60.10000 5.128
60.12000 8.230
60.14000 5.930
60.16000 4.763
60.18000 1.448
60.20000 0.705
60.22000 4.427
60.24000 3.736
60.26000 3.589
60.28000 5.417
60.30000 3.143
60.32000 5.643
60.34000 4.450
60.36000 3.147
60.38000 1.605
60.40000 5.421
60.42000 5.336
60.44000 3.405
60.46000 3.276
60.48000 7.165
60.50000 6.742
60.52000 4.012
60.54000 4.504
60.56000 4.334
60.58000 5.720
60.60000 1.706
60.62000 -0.282
60.64000 2.242
60.66000 5.962
60.68000 4.959
60.70000 -2.013
60.72000 -2.434
60.74000 2.013
60.76000 5.218
60.78000 5.946
60.80000 7.412
60.82000 2.250
60.84000 2.214
60.86000 6.420
60.88000 6.377
60.90000 2.687
60.92000 1.729
60.94000 -1.328
60.96000 1.983
60.98000 0.481
61.00000 2.934
61.02000 2.889
61.04000 1.241
61.06000 4.074
61.08000 1.238
61.10000 2.290
61.12000 4.731
61.14000 4.433
61.16000 1.019
61.18000 -2.447
61.20000 1.272
61.22000 5.078
61.24000 1.025
61.26000 -2.147
61.28000 0.351
61.30000 4.330
61.32000 2.842
61.34000 0.649
61.36000 1.692
61.38000 3.131
61.40000 1.799
61.42000 2.103
61.44000 5.261
61.46000 4.794
61.48000 2.554
61.50000 3.805
61.52000 1.509
61.54000 -0.506
61.56000 0.944
61.58000 2.723
61.60000 4.615
61.62000 0.028
61.64000 3.121
61.66000 3.922
61.68000 1.004
61.70000 -1.982
61.72000 -0.899
61.74000 3.585
61.76000 4.301
61.78000 5.891
61.80000 5.209
61.82000 2.082
61.84000 1.657
61.86000 2.518
61.88000 3.229
61.90000 2.105
61.92000 4.489
61.94000 2.479
61.96000 4.191
61.98000 1.777
62.00000 -0.348
62.02000 -2.092
62.04000 -2.407
62.06000 3.598
62.08000 1.848
62.10000 -0.587
62.12000 -1.056
62.14000 0.828
62.16000 -0.611
62.18000 0.111
62.20000 2.527
62.22000 4.463
62.24000 6.372
62.26000 5.209
62.28000 2.333
62.30000 3.795
62.32000 2.125
62.34000 3.468
62.36000 2.797
62.38000 2.803
62.40000 0.888
62.42000 1.344
62.44000 6.785
62.46000 4.371
62.48000 1.582
62.50000 0.613
62.52000 2.946
62.54000 2.498
62.56000 0.842
62.58000 0.422
62.60000 0.666
62.62000 3.128
62.64000 3.482
62.66000 -0.318
62.68000 3.126
62.70000 1.440
62.72000 1.669
62.74000 3.252
62.76000 6.950
62.78000 3.144
62.80000 2.038
62.82000 -0.952
62.84000 -2.429
62.86000 -1.171
62.88000 0.481
62.90000 2.769
62.92000 1.055
62.94000 1.344
62.96000 1.804
62.98000 3.568
63.00000 3.891
63.02000 1.103
63.04000 4.064
63.06000 3.251
63.08000 -0.467
63.10000 -0.455
63.12000 -2.425
63.14000 1.754
63.16000 0.583
63.18000 5.091
63.20000 7.340
63.22000 1.606
63.24000 0.165
63.26000 -0.138
63.28000 -0.011
63.30000 -0.484
63.32000 4.686
63.34000 3.301
63.36000 2.550
63.38000 3.466
63.40000 2.844
63.42000 2.487
63.44000 -0.594
63.46000 -0.383
63.48000 3.236
63.50000 3.522
63.52000 5.853
63.54000 3.742
63.56000 -0.320
63.58000 -1.451
63.60000 1.177
63.62000 2.244
63.64000 -1.489
63.66000 0.473
63.68000 -0.343
63.70000 0.533
63.72000 4.448
63.74000 1.547
63.76000 0.511
63.78000 3.927
63.80000 1.291
63.82000 -0.389
63.84000 2.837
63.86000 1.752
63.88000 -1.691
63.90000 -1.129
63.92000 2.086
63.94000 3.525
63.96000 -1.300
63.98000 -1.992
64.00000 -2.435
64.02000 1.033
64.04000 2.446
64.06000 -0.111
64.08000 3.620
64.10000 2.501
64.12000 -0.502
64.14000 2.290
64.16000 1.499
64.18000 2.389
64.20000 2.041
64.22000 0.427
64.24000 0.298
64.26000 -2.057
64.28000 1.901
64.30000 5.777
64.32000 4.929
64.34000 3.429
64.36000 -0.930
64.38000 1.504
64.40000 3.653
64.42000 1.829
64.44000 0.065
64.46000 0.993
64.48000 0.969
64.50000 2.253
64.52000 -1.655
64.54000 0.142
64.56000 5.251
64.58000 2.829
64.60000 -0.314
64.62000 -0.462
64.64000 1.314
64.66000 2.885
64.68000 0.413
64.70000 0.312
64.72000 4.626
64.74000 0.581
64.76000 -1.475
64.78000 -0.595
64.80000 0.780
64.82000 2.094
64.84000 6.341
64.86000 1.908
64.88000 -0.996
64.90000 2.307
64.92000 0.369
64.94000 -1.761
64.96000 0.711
64.98000 0.818
65.00000 1.651
65.02000 1.417
65.04000 0.212
65.06000 0.659
65.08000 0.095
65.10000 -1.309
65.12000 -2.245
65.14000 0.333
65.16000 1.402
65.18000 1.719
65.20000 1.979
65.22000 -1.979
65.24000 3.800
65.26000 3.207
65.28000 0.389
65.30000 4.530
65.32000 0.535
65.34000 -1.963
65.36000 1.550
65.38000 -1.362
65.40000 -2.464
65.42000 -1.476
65.44000 0.178
65.46000 1.992
65.48000 0.180
65.50000 1.405
65.52000 0.251
65.54000 0.137
65.56000 0.217
65.58000 -0.461
65.60000 -1.402
65.62000 3.180
65.64000 1.402
65.66000 -1.004
65.68000 -0.242
65.70000 -0.503
65.72000 1.838
65.74000 0.769
65.76000 2.401
65.78000 2.346
65.80000 -0.437
65.82000 -0.567
65.84000 -2.474
65.86000 -2.473
65.88000 0.744
65.90000 1.400
65.92000 1.455
65.94000 0.503
65.96000 -0.808
65.98000 1.443
66.00000 -0.286
66.02000 0.042
66.04000 2.534
66.06000 1.797
66.08000 2.018
66.10000 2.571
66.12000 2.734
66.14000 -0.863
66.16000 -2.306
66.18000 0.233
66.20000 2.811
66.22000 0.151
66.24000 -1.543
66.26000 -0.520
66.28000 -1.490
66.30000 -0.081
66.32000 1.935
66.34000 3.404
66.36000 3.028
66.38000 0.196
66.40000 1.660
66.42000 0.875
66.44000 -1.154
66.46000 -1.146
66.48000 4.102
66.50000 0.770
66.52000 -1.221
66.54000 0.539
66.56000 3.145
66.58000 0.577
66.60000 1.427
66.62000 2.530
66.64000 1.539
66.66000 -1.264
66.68000 1.080
66.70000 0.479
66.72000 -2.476
66.74000 -0.581
66.76000 0.906
66.78000 -1.271
66.80000 -1.858
66.82000 1.703
66.84000 1.446
66.86000 0.192
66.88000 0.607
66.90000 -0.082
66.92000 -1.536
66.94000 -2.502
66.96000 1.464
66.98000 3.568
67.00000 3.291
67.02000 0.284
67.04000 0.635
67.06000 1.929
67.08000 -0.285
67.10000 1.481
67.12000 0.793
67.14000 3.170
67.16000 6.347
67.18000 5.548
67.20000 1.606
67.22000 2.479
67.24000 3.977
67.26000 4.432
67.28000 3.733
67.30000 2.116
67.32000 3.754
67.34000 6.182
67.36000 4.327
67.38000 5.133
67.40000 -0.071
67.42000 -2.500
67.44000 1.086
67.46000 3.747
67.48000 2.300
67.50000 3.490
67.52000 2.447
67.54000 4.611
67.56000 6.332
67.58000 5.509
67.60000 3.604
67.62000 9.903
67.64000 14.978
67.66000 10.846
67.68000 7.846
67.70000 7.168
67.72000 5.275
67.74000 6.448
67.76000 7.264
67.78000 10.236
67.80000 6.755
67.82000 8.372
67.84000 9.393
67.86000 8.486
67.88000 9.144
67.90000 8.076
67.92000 10.505
67.94000 8.648
67.96000 8.787
67.98000 7.011
68.00000 7.486
68.02000 10.192
68.04000 12.548
68.06000 12.729
68.08000 12.782
68.10000 13.729
68.12000 13.723
68.14000 14.263
68.16000 11.702
68.18000 12.718
68.20000 14.899
68.22000 16.108
68.24000 16.938
68.26000 16.492
68.28000 14.821
68.30000 13.611
68.32000 18.088
68.34000 14.977
68.36000 12.912
68.38000 18.150
68.40000 20.754
68.42000 15.430
68.44000 18.274
68.46000 23.672
68.48000 20.878
68.50000 20.975
68.52000 22.091
68.54000 19.706
68.56000 22.422
68.58000 23.987
68.60000 22.976
68.62000 21.142
68.64000 19.428
68.66000 19.797
68.68000 24.734
68.70000 25.045
68.72000 22.314
68.74000 21.935
68.76000 18.713
68.78000 22.492
68.80000 24.382
68.82000 23.566
68.84000 25.454
68.86000 28.088
68.88000 27.757
68.90000 24.732
68.92000 21.746
68.94000 23.064
68.96000 17.980
68.98000 18.673
69.00000 20.411
69.02000 17.953
69.04000 20.523
69.06000 19.091
69.08000 20.250
69.10000 19.618
69.12000 17.879
69.14000 18.848
69.16000 19.452
69.18000 18.031
69.20000 13.524
69.22000 11.167
69.24000 13.617
69.26000 13.928
69.28000 12.105
69.30000 12.420
69.32000 12.760
69.34000 11.121
69.36000 12.166
69.38000 11.682
69.40000 11.282
69.42000 15.158
69.44000 15.227
69.46000 12.404
69.48000 10.398
69.50000 14.131
69.52000 13.433
69.54000 11.372
69.56000 11.232
69.58000 7.637
69.60000 8.924
69.62000 9.384
69.64000 7.001
69.66000 7.076
69.68000 5.608
69.70000 4.787
69.72000 4.461
69.74000 6.974
69.76000 5.631
69.78000 3.544
69.80000 5.110
69.82000 3.922
69.84000 3.396
69.86000 4.564
69.88000 3.832
69.90000 6.340
69.92000 3.349
69.94000 5.995
69.96000 8.989
69.98000 4.296
70.00000 2.261
70.02000 2.044
70.04000 1.094
70.06000 1.910
70.08000 2.143
70.10000 1.828
70.12000 0.600
70.14000 0.397
70.16000 -2.431
70.18000 -0.114
70.20000 4.423
70.22000 3.116
70.24000 4.252
70.26000 0.566
70.28000 2.486
70.30000 6.541
70.32000 3.155
70.34000 -0.605
70.36000 1.524
70.38000 0.486
70.40000 -0.896
70.42000 1.210
70.44000 0.738
70.46000 1.132
70.48000 1.148
70.50000 5.135
70.52000 4.244
70.54000 1.219
70.56000 1.970
70.58000 1.298
70.60000 4.457
70.62000 4.032
70.64000 6.489
70.66000 4.677
70.68000 1.922
70.70000 2.787
70.72000 6.233
70.74000 -0.205
70.76000 -0.753
70.78000 3.416
70.80000 2.281
70.82000 -1.938
70.84000 2.292
70.86000 1.561
70.88000 -2.382
70.90000 -1.618
70.92000 5.405
70.94000 6.171
70.96000 2.221
70.98000 1.035
71.00000 3.559
71.02000 1.422
71.04000 -0.670
71.06000 -2.375
71.08000 -0.728
71.10000 0.377
71.12000 0.339
71.14000 1.392
71.16000 -0.135
71.18000 4.215
71.20000 4.522
71.22000 2.885
71.24000 0.561
71.26000 -0.669
71.28000 1.583
71.30000 1.884
71.32000 1.739
71.34000 -0.190
71.36000 -1.631
71.38000 2.238
71.40000 0.740
71.42000 -1.243
71.44000 1.212
71.46000 4.089
71.48000 4.245
71.50000 4.038
71.52000 3.747
71.54000 0.630
71.56000 3.032
71.58000 2.722
71.60000 5.927
71.62000 4.428
71.64000 0.553
71.66000 -0.375
71.68000 -1.218
71.70000 3.370
71.72000 3.254
71.74000 -0.607
71.76000 2.514
71.78000 1.172
71.80000 -0.326
71.82000 3.274
71.84000 0.076
71.86000 0.771
71.88000 4.879
71.90000 2.035
71.92000 2.224
71.94000 3.906
71.96000 5.052
71.98000 5.226
72.00000 3.265
72.02000 4.625
72.04000 -1.477
72.06000 0.813
72.08000 4.702
72.10000 3.229
72.12000 3.293
72.14000 0.350
72.16000 -0.216
72.18000 2.753
72.20000 3.854
72.22000 4.418
72.24000 4.573
72.26000 2.882
72.28000 0.572
72.30000 1.399
72.32000 0.381
72.34000 0.987
72.36000 2.678
72.38000 2.611
72.40000 3.547
72.42000 4.495
72.44000 6.808
72.46000 6.912
72.48000 6.596
72.50000 1.711
72.52000 -2.269
72.54000 5.138
72.56000 4.409
72.58000 5.921
72.60000 1.547
72.62000 1.660
72.64000 3.611
72.66000 3.189
72.68000 3.961
72.70000 6.541
72.72000 3.107
72.74000 4.290
72.76000 6.548
72.78000 0.658
72.80000 -0.203
72.82000 -1.224
72.84000 3.609
72.86000 6.014
72.88000 2.565
72.90000 -0.286
72.92000 1.278
72.94000 1.940
72.96000 5.086
72.98000 3.495
73.00000 -2.257
73.02000 -0.448
73.04000 -0.891
73.06000 5.729
73.08000 7.210
73.10000 4.836
73.12000 7.326
73.14000 6.268
73.16000 6.966
73.18000 3.148
73.20000 3.676
73.22000 4.583
73.24000 5.047
73.26000 7.692
73.28000 5.460
73.30000 1.875
73.32000 -1.756
73.34000 0.386
73.36000 4.659
73.38000 3.726
73.40000 -0.034
73.42000 1.828
73.44000 4.396
73.46000 8.466
73.48000 5.448
73.50000 2.835
73.52000 0.409
73.54000 1.816
73.56000 1.929
73.58000 6.095
73.60000 4.771
73.62000 -1.731
73.64000 -2.124
73.66000 -0.432
73.68000 0.576
73.70000 1.740
73.72000 4.361
73.74000 3.722
73.76000 3.374
73.78000 5.940
73.80000 7.274
73.82000 4.890
73.84000 0.773
73.86000 4.618
73.88000 3.644
73.90000 6.521
73.92000 6.003
73.94000 4.630
73.96000 3.784
73.98000 3.839
74.00000 4.363
74.02000 1.700
74.04000 2.213
74.06000 3.076
74.08000 4.124
74.10000 5.424
74.12000 2.881
74.14000 5.107
74.16000 7.671
74.18000 2.631
74.20000 2.584
74.22000 2.050
74.24000 1.931
74.26000 -2.194
74.28000 3.684
74.30000 4.885
74.32000 9.132
74.34000 5.859
74.36000 4.898
74.38000 7.324
74.40000 6.391
74.42000 4.250
74.44000 3.599
74.46000 8.607
74.48000 4.555
74.50000 3.158
74.52000 5.410
74.54000 5.871
74.56000 3.485
74.58000 1.459
74.60000 6.133
74.62000 5.652
74.64000 7.557
74.66000 4.164
74.68000 3.385
74.70000 5.514
74.72000 3.821
74.74000 6.788
74.76000 6.943
74.78000 4.768
74.80000 4.830
74.82000 5.224
74.84000 5.584
74.86000 5.090
74.88000 3.992
74.90000 4.291
74.92000 6.751
74.94000 2.032
74.96000 4.460
74.98000 7.993
75.00000 3.014
75.02000 6.611
75.04000 6.344
75.06000 1.619
75.08000 1.814
75.10000 1.745
75.12000 1.922
75.14000 0.538
75.16000 2.953
75.18000 5.044
75.20000 4.582
75.22000 1.639
75.24000 0.233
75.26000 3.492
75.28000 2.849
75.30000 4.146
75.32000 3.047
75.34000 0.862
75.36000 -0.059
75.38000 2.543
75.40000 3.990
75.42000 4.823
75.44000 5.344
75.46000 2.710
75.48000 2.915
75.50000 1.302
75.52000 5.636
75.54000 3.223
75.56000 -0.721
75.58000 1.292
75.60000 1.197
75.62000 6.954
75.64000 2.879
75.66000 -0.300
75.68000 -1.291
75.70000 -2.275
75.72000 2.569
75.74000 5.971
75.76000 5.778
75.78000 2.215
75.80000 2.115
75.82000 3.541
75.84000 0.483
75.86000 1.699
75.88000 2.082
75.90000 3.284
75.92000 4.192
75.94000 3.325
75.96000 2.459
75.98000 -1.543
76.00000 0.429
76.02000 -0.064
76.04000 0.329
76.06000 0.989
76.08000 5.185
76.10000 6.104
76.12000 7.559
76.14000 4.588
76.16000 1.432
76.18000 -0.748
76.20000 0.794
76.22000 1.462
76.24000 1.774
76.26000 0.670
76.28000 0.670
76.30000 3.772
76.32000 2.019
76.34000 4.010
76.36000 3.415
76.38000 1.402
76.40000 1.238
76.42000 2.258
76.44000 6.675
76.46000 5.314
76.48000 3.846
76.50000 0.789
76.52000 -0.271
76.54000 2.530
76.56000 3.442
76.58000 3.126
76.60000 1.213
76.62000 0.982
76.64000 0.886
76.66000 3.466
76.68000 2.402
76.70000 4.261
76.72000 3.763
76.74000 4.067
76.76000 4.482
76.78000 3.788
76.80000 3.127
76.82000 2.905
76.84000 1.990
76.86000 3.145
76.88000 3.752
76.90000 -1.274
76.92000 -2.212
76.94000 3.504
76.96000 3.862
76.98000 6.834
77.00000 4.320
77.02000 4.163
77.04000 5.657
77.06000 0.401
77.08000 -2.247
77.10000 2.953
77.12000 5.693
77.14000 9.323
77.16000 7.188
77.18000 5.300
77.20000 5.092
77.22000 7.599
77.24000 5.209
77.26000 4.247
77.28000 2.220
77.30000 2.822
77.32000 7.589
77.34000 8.780
77.36000 5.655
77.38000 1.094
77.40000 0.185
77.42000 2.050
77.44000 2.502
77.46000 1.125
77.48000 -1.115
77.50000 2.714
77.52000 3.687
77.54000 2.348
77.56000 2.367
77.58000 -1.025
77.60000 -0.047
77.62000 1.751
77.64000 -0.261
77.66000 2.518
77.68000 1.226
77.70000 1.740
77.72000 2.121
77.74000 0.048
77.76000 2.850
77.78000 5.420
77.80000 4.298
77.82000 4.808
77.84000 2.946
77.86000 4.740
77.88000 3.527
77.90000 6.797
77.92000 5.517
77.94000 1.573
77.96000 6.796
77.98000 7.136
78.00000 1.505
78.02000 1.328
78.04000 0.776
78.06000 2.936
78.08000 -1.302
78.10000 1.593
78.12000 5.950
78.14000 7.843
78.16000 5.961
78.18000 4.945
78.20000 -0.408
78.22000 -0.753
78.24000 0.896
78.26000 5.198
78.28000 2.599
78.30000 3.069
78.32000 1.959
78.34000 2.279
78.36000 5.723
78.38000 5.014
78.40000 5.842
78.42000 6.498
78.44000 4.077
78.46000 4.346
78.48000 3.312
78.50000 2.572
78.52000 3.565
78.54000 3.909
78.56000 6.878
78.58000 7.485
78.60000 2.336
78.62000 -2.264
78.64000 2.601
78.66000 2.300
78.68000 -0.887
78.70000 2.388
78.72000 7.691
78.74000 8.359
78.76000 7.275
78.78000 6.684
78.80000 3.048
78.82000 4.284
78.84000 3.630
78.86000 5.833
78.88000 7.917
78.90000 5.049
78.92000 4.942
78.94000 7.145
78.96000 6.531
78.98000 5.384
79.00000 0.744
79.02000 1.505
79.04000 -1.595
79.06000 1.014
79.08000 -0.742
79.10000 0.708
79.12000 7.834
79.14000 2.131
79.16000 4.309
79.18000 3.968
79.20000 0.291
79.22000 -2.297
79.24000 3.098
79.26000 5.624
79.28000 5.783
79.30000 5.690
79.32000 2.291
79.34000 0.498
79.36000 2.930
79.38000 3.187
79.40000 -0.857
79.42000 0.005
79.44000 -0.012
79.46000 1.798
79.48000 0.122
79.50000 -0.447
79.52000 -1.277
79.54000 1.551
79.56000 2.907
79.58000 5.699
79.60000 8.249
79.62000 5.716
79.64000 2.461
79.66000 2.847
79.68000 2.023
79.70000 3.271
79.72000 -0.308
79.74000 -1.384
79.76000 1.139
79.78000 1.150
79.80000 1.839
79.82000 2.737
79.84000 4.287
79.86000 4.033
79.88000 3.172
79.90000 6.215
79.92000 2.779
79.94000 1.760
79.96000 1.861
79.98000 0.629
80.00000 4.623
80.02000 3.587
80.04000 0.574
80.06000 -1.987
80.08000 -1.290
80.10000 1.588
80.12000 0.035
80.14000 -2.356
80.16000 2.270
80.18000 5.405
80.20000 8.071
80.22000 1.836
80.24000 6.442
80.26000 7.927
80.28000 1.418
80.30000 3.452
80.32000 2.305
80.34000 0.239
80.36000 1.852
80.38000 2.478
80.40000 3.385
80.42000 4.129
80.44000 3.084
80.46000 3.725
80.48000 4.863
80.50000 1.104
80.52000 2.483
80.54000 2.420
80.56000 5.125
80.58000 4.816
80.60000 7.582
80.62000 2.578
80.64000 -1.461
80.66000 1.336
80.68000 2.547
80.70000 4.345
80.72000 3.759
80.74000 4.347
80.76000 3.184
80.78000 -0.110
80.80000 -0.312
80.82000 0.956
80.84000 3.549
80.86000 3.589
80.88000 5.605
80.90000 8.142
80.92000 7.043
80.94000 5.760
80.96000 3.791
80.98000 6.286
81.00000 1.071
81.02000 -2.394
81.04000 -0.694
81.06000 3.590
81.08000 5.188
81.10000 2.039
81.12000 1.350
81.14000 2.910
81.16000 1.972
81.18000 6.412
81.20000 4.890
81.22000 1.871
81.24000 -0.157
81.26000 -0.367
81.28000 3.391
81.30000 6.692
81.32000 6.544
81.34000 0.326
81.36000 7.822
81.38000 7.293
81.40000 6.543
81.42000 8.150
81.44000 5.739
81.46000 3.131
81.48000 4.469
81.50000 5.122
81.52000 4.792
81.54000 3.095
81.56000 5.990
81.58000 6.215
81.60000 5.751
81.62000 6.747
81.64000 6.187
81.66000 4.509
81.68000 6.957
81.70000 5.157
81.72000 9.210
81.74000 8.074
81.76000 8.274
81.78000 7.282
81.80000 6.395
81.82000 11.786
81.84000 13.805
81.86000 7.324
81.88000 9.890
81.90000 7.561
81.92000 5.585
81.94000 7.200
81.96000 6.559
81.98000 11.269
82.00000 13.044
82.02000 13.301
82.04000 9.823
82.06000 10.330
82.08000 13.051
82.10000 16.078
82.12000 15.605
82.14000 19.270
82.16000 20.140
82.18000 19.144
82.20000 16.951
82.22000 17.071
82.24000 16.716
82.26000 12.559
82.28000 10.463
82.30000 12.613
82.32000 13.357
82.34000 17.024
82.36000 16.025
82.38000 16.926
82.40000 17.702
82.42000 15.350
82.44000 17.198
82.46000 16.450
82.48000 18.636
82.50000 20.142
82.52000 22.497
82.54000 19.832
82.56000 17.562
82.58000 19.106
82.60000 18.824
82.62000 19.069
82.64000 26.026
82.66000 22.071
82.68000 17.224
82.70000 23.605
82.72000 25.510
82.74000 24.314
82.76000 22.202
82.78000 23.950
82.80000 26.024
82.82000 23.679
82.84000 23.499
82.86000 27.407
82.88000 29.136
82.90000 27.028
82.92000 27.463
82.94000 25.529
82.96000 21.022
82.98000 25.365
83.00000 31.083
83.02000 35.761
83.04000 31.760
83.06000 25.588
83.08000 29.241
83.10000 27.801
83.12000 29.238
83.14000 23.595
83.16000 21.834
83.18000 29.692
83.20000 34.814
83.22000 28.127
83.24000 26.199
83.26000 24.077
83.28000 22.637
83.30000 25.419
83.32000 24.365
83.34000 18.974
83.36000 14.035
83.38000 17.113
83.40000 21.600
83.42000 20.832
83.44000 21.228
83.46000 22.902
83.48000 21.773
83.50000 19.258
83.52000 19.699
83.54000 16.397
83.56000 17.500
83.58000 20.692
83.60000 17.065
83.62000 11.876
83.64000 10.343
83.66000 15.616
83.68000 17.876
83.70000 17.775
83.72000 17.037
83.74000 17.368
83.76000 17.804
83.78000 14.417
83.80000 9.805
83.82000 9.373
83.84000 8.516
83.86000 8.167
83.88000 6.935
83.90000 9.448
83.92000 13.424
83.94000 15.123
83.96000 13.906
83.98000 9.326
84.00000 8.565
84.02000 3.802
84.04000 7.149
84.06000 9.724
84.08000 9.277
84.10000 6.004
84.12000 7.512
84.14000 8.653
84.16000 7.502
84.18000 7.681
84.20000 5.058
84.22000 3.991
84.24000 6.514
84.26000 2.164
84.28000 5.481
84.30000 2.538
84.32000 3.290
84.34000 0.638
84.36000 1.843
84.38000 2.099
84.40000 4.017
84.42000 2.444
84.44000 0.748
84.46000 0.411
84.48000 -0.048
84.50000 2.542
84.52000 1.681
84.54000 -2.015
84.56000 -2.436
84.58000 -0.722
84.60000 -0.746
84.62000 -0.001
84.64000 -1.059
84.66000 -1.862
84.68000 1.581
84.70000 -1.448
84.72000 1.792
84.74000 -0.790
84.76000 -0.887
84.78000 -2.413
84.80000 -1.611
84.82000 2.948
84.84000 3.565
84.86000 -0.278
84.88000 0.759
84.90000 4.059
84.92000 1.491
84.94000 1.704
84.96000 1.588
84.98000 0.038
85.00000 0.231
85.02000 2.782
85.04000 1.564
85.06000 2.262
85.08000 3.903
85.10000 4.619
85.12000 1.033
85.14000 -0.972
85.16000 -2.378
85.18000 0.164
85.20000 -0.066
85.22000 0.449
85.24000 -0.158
85.26000 2.356
85.28000 0.932
85.30000 2.721
85.32000 2.100
85.34000 -0.421
85.36000 1.099
85.38000 0.777
85.40000 2.123
85.42000 2.177
85.44000 1.899
85.46000 0.568
85.48000 2.682
85.50000 2.207
85.52000 -1.091
85.54000 -2.341
85.56000 1.525
85.58000 3.013
85.60000 -0.534
85.62000 -1.308
85.64000 -2.337
85.66000 -0.437
85.68000 3.458
85.70000 2.149
85.72000 3.879
85.74000 -2.193
85.76000 -0.167
85.78000 1.929
85.80000 2.866
85.82000 1.716
85.84000 0.260
85.86000 2.323
85.88000 -1.082
85.90000 0.487
85.92000 -1.790
85.94000 -1.700
85.96000 -2.338
85.98000 -1.332
86.00000 -2.093
86.02000 3.937
86.04000 5.017
86.06000 7.456
86.08000 7.788
86.10000 4.805
86.12000 2.016
86.14000 2.769
86.16000 4.716
86.18000 3.021
86.20000 2.233
86.22000 3.587
86.24000 5.198
86.26000 4.095
86.28000 1.391
86.30000 2.577
86.32000 2.271
86.34000 4.307
86.36000 1.195
86.38000 4.052
86.40000 2.624
86.42000 2.003
86.44000 0.891
86.46000 4.294
86.48000 5.046
86.50000 4.185
86.52000 2.855
86.54000 8.229
86.56000 8.119
86.58000 7.379
86.60000 6.569
86.62000 3.147
86.64000 7.203
86.66000 8.055
86.68000 8.439
86.70000 6.745
86.72000 7.239
86.74000 10.725
86.76000 10.414
86.78000 11.385
86.80000 13.068
86.82000 7.533
86.84000 6.624
86.86000 6.370
86.88000 8.385
86.90000 9.204
86.92000 9.551
86.94000 12.868
86.96000 9.689
86.98000 12.662
87.00000 7.562
87.02000 3.898
87.04000 10.243
87.06000 5.543
87.08000 12.152
87.10000 12.941
87.12000 18.352
87.14000 22.818
87.16000 21.223
87.18000 18.662
87.20000 17.696
87.22000 14.614
87.24000 12.621
87.26000 13.402
87.28000 9.870
87.30000 9.751
87.32000 13.948
87.34000 14.112
87.36000 18.532
87.38000 17.000
87.40000 18.745
87.42000 17.877
87.44000 18.492
87.46000 15.834
87.48000 15.963
87.50000 17.172
87.52000 24.811
87.54000 21.112
87.56000 18.841
87.58000 19.981
87.60000 17.222
87.62000 21.917
87.64000 21.521
87.66000 17.429
87.68000 12.701
87.70000 15.665
87.72000 16.092
87.74000 14.215
87.76000 12.803
87.78000 13.407
87.80000 13.894
87.82000 14.132
87.84000 12.857
87.86000 9.759
87.88000 9.257
87.90000 11.756
87.92000 13.812
87.94000 12.152
87.96000 13.323
87.98000 11.317
88.00000 9.443
88.02000 8.944
88.04000 8.337
88.06000 7.316
88.08000 8.705
88.10000 9.239
88.12000 7.205
88.14000 5.464
88.16000 4.431
88.18000 6.268
88.20000 7.615
88.22000 6.105
88.24000 3.068
88.26000 6.729
88.28000 6.781
88.30000 6.407
88.32000 0.960
88.34000 6.659
88.36000 6.787
88.38000 5.848
88.40000 6.101
88.42000 4.144
88.44000 1.757
88.46000 0.460
88.48000 3.741
88.50000 4.813
88.52000 6.150
88.54000 3.346
88.56000 2.043
88.58000 3.726
88.60000 6.438
88.62000 3.269
88.64000 0.327
88.66000 -0.279
88.68000 5.592
88.70000 2.863
88.72000 3.588
88.74000 2.652
88.76000 1.526
88.78000 4.662
88.80000 -0.350
88.82000 5.576
88.84000 -2.254
88.86000 -1.092
88.88000 0.714
88.90000 3.925
88.92000 5.210
88.94000 3.063
88.96000 1.102
88.98000 4.697
89.00000 4.573
89.02000 0.981
89.04000 1.041
89.06000 1.976
89.08000 -1.532
89.10000 2.790
89.12000 2.430
89.14000 4.193
89.16000 3.596
89.18000 2.631
89.20000 0.973
89.22000 0.531
89.24000 1.915
89.26000 3.029
89.28000 0.586
89.30000 1.524
89.32000 1.258
89.34000 -0.561
89.36000 1.240
89.38000 3.994
89.40000 3.720
89.42000 5.140
89.44000 5.833
89.46000 1.156
89.48000 4.244
89.50000 3.116
89.52000 2.619
89.54000 2.091
89.56000 -1.698
89.58000 0.015
89.60000 0.421
89.62000 2.708
89.64000 6.374
89.66000 6.027
89.68000 3.937
89.70000 4.589
89.72000 7.145
89.74000 7.191
89.76000 5.055
89.78000 0.859
89.80000 -2.133
89.82000 1.303
89.84000 7.488
89.86000 8.415
89.88000 4.394
89.90000 2.924
89.92000 4.179
89.94000 4.972
89.96000 4.747
89.98000 4.707
90.00000 4.119
90.02000 2.818
90.04000 5.171
90.06000 7.655
90.08000 5.917
90.10000 5.205
90.12000 3.463
90.14000 1.527
90.16000 6.387
90.18000 2.942
90.20000 2.459
90.22000 3.991
90.24000 2.134
90.26000 2.845
90.28000 0.233
90.30000 0.722
90.32000 2.678
90.34000 3.658
90.36000 4.012
90.38000 5.898
90.40000 3.389
90.42000 4.155
90.44000 7.368
90.46000 5.868
90.48000 -1.402
90.50000 -2.124
90.52000 1.663
90.54000 5.733
90.56000 5.851
90.58000 6.251
90.60000 3.648
90.62000 1.726
90.64000 3.407
90.66000 1.318
90.68000 1.370
90.70000 2.010
90.72000 -0.106
90.74000 2.826
90.76000 6.184
90.78000 1.981
90.80000 -1.437
90.82000 1.371
90.84000 1.587
90.86000 3.988
90.88000 2.717
90.90000 4.334
90.92000 5.127
90.94000 2.847
90.96000 4.561
90.98000 5.535
91.00000 -1.008
91.02000 1.328
91.04000 5.687
91.06000 6.776
91.08000 3.304
91.10000 -2.133
91.12000 -1.303
91.14000 4.207
91.16000 5.949
91.18000 0.350
91.20000 1.598
91.22000 -0.464
91.24000 1.855
91.26000 -1.892
91.28000 2.209
91.30000 7.033
91.32000 6.982
91.34000 4.702
91.36000 2.129
91.38000 5.450
91.40000 6.964
91.42000 5.941
91.44000 8.031
91.46000 4.721
91.48000 7.316
91.50000 3.905
91.52000 1.596
91.54000 2.997
91.56000 3.924
91.58000 7.984
91.60000 3.838
91.62000 1.740
91.64000 3.068
91.66000 4.118
91.68000 4.611
91.70000 3.948
91.72000 1.432
91.74000 3.401
91.76000 6.573
91.78000 5.315
91.80000 5.441
91.82000 1.818
91.84000 6.313
91.86000 5.013
91.88000 6.864
91.90000 4.473
91.92000 -0.971
91.94000 -2.115
91.96000 3.492
91.98000 6.816
92.00000 5.265
92.02000 7.482
92.04000 5.438
92.06000 5.082
92.08000 2.098
92.10000 8.392
92.12000 7.925
92.14000 -0.538
92.16000 5.853
92.18000 8.091
92.20000 4.929
92.22000 4.732
92.24000 6.625
92.26000 2.789
92.28000 0.531
92.30000 7.773
92.32000 7.780
92.34000 5.447
92.36000 5.114
92.38000 9.452
92.40000 6.891
92.42000 4.908
92.44000 4.221
92.46000 2.110
92.48000 5.120
92.50000 4.019
92.52000 2.974
92.54000 6.830
92.56000 8.342
92.58000 8.616
92.60000 6.035
92.62000 5.072
92.64000 1.830
92.66000 2.218
92.68000 3.929
92.70000 0.394
92.72000 3.011
92.74000 1.812
92.76000 3.963
92.78000 5.354
92.80000 6.533
92.82000 4.734
92.84000 1.665
92.86000 4.081
92.88000 6.655
92.90000 7.862
92.92000 8.020
92.94000 9.603
92.96000 5.605
92.98000 4.150
93.00000 4.263
93.02000 7.067
93.04000 7.412
93.06000 3.849
93.08000 4.673
93.10000 6.710
93.12000 1.704
93.14000 -2.107
93.16000 6.998
93.18000 8.121
93.20000 7.109
93.22000 8.850
93.24000 7.165
93.26000 7.753
93.28000 9.541
93.30000 7.495
93.32000 6.704
93.34000 4.091
93.36000 5.772
93.38000 3.125
93.40000 3.613
93.42000 5.380
93.44000 2.700
93.46000 4.176
93.48000 3.032
93.50000 0.861
93.52000 -1.570
93.54000 1.079
93.56000 2.767
93.58000 4.007
93.60000 8.326
93.62000 6.782
93.64000 9.036
93.66000 8.854
93.68000 3.998
93.70000 1.630
93.72000 2.541
93.74000 2.464
93.76000 -0.261
93.78000 0.747
93.80000 5.116
93.82000 4.443
93.84000 -1.535
93.86000 0.240
93.88000 1.068
93.90000 -2.145
93.92000 3.042
93.94000 4.763
93.96000 3.030
93.98000 5.621
94.00000 7.034
94.02000 5.026
94.04000 4.435
94.06000 1.113
94.08000 0.641
94.10000 2.365
94.12000 5.394
94.14000 5.489
94.16000 1.043
94.18000 1.256
94.20000 1.716
94.22000 6.264
94.24000 2.810
94.26000 2.628
94.28000 3.717
94.30000 3.904
94.32000 4.119
94.34000 0.330
94.36000 3.061
94.38000 4.673
94.40000 3.306
94.42000 3.699
94.44000 -0.397
94.46000 3.606
94.48000 3.769
94.50000 3.843
94.52000 6.371
94.54000 4.153
94.56000 -0.616
94.58000 -0.498
94.60000 0.079
94.62000 -1.995
94.64000 0.129
94.66000 0.253
94.68000 7.635
94.70000 6.364
94.72000 1.668
94.74000 0.496
94.76000 7.756
94.78000 4.300
94.80000 2.472
94.82000 6.283
94.84000 1.243
94.86000 3.088
94.88000 3.649
94.90000 3.612
94.92000 1.213
94.94000 0.865
94.96000 2.991
94.98000 4.477
95.00000 2.150
95.02000 -0.834
95.04000 -2.186
95.06000 0.040
95.08000 1.169
95.10000 0.622
95.12000 2.322
95.14000 2.979
95.16000 -0.518
95.18000 2.855
95.20000 4.821
95.22000 7.024
95.24000 8.343
95.26000 -0.210
95.28000 -1.387
95.30000 2.221
95.32000 -0.042
95.34000 -0.504
95.36000 2.694
95.38000 -0.099
95.40000 -1.587
95.42000 -2.190
95.44000 3.906
95.46000 7.265
95.48000 7.620
95.50000 4.263
95.52000 3.409
95.54000 3.331
95.56000 1.786
95.58000 -1.049
95.60000 -1.229
95.62000 -0.315
95.64000 2.044
95.66000 2.532
95.68000 0.238
95.70000 9.082
95.72000 5.729
95.74000 3.831
95.76000 4.103
95.78000 -0.044
95.80000 1.686
95.82000 0.680
95.84000 2.732
95.86000 1.286
95.88000 4.132
95.90000 4.641
95.92000 3.891
95.94000 3.785
95.96000 2.901
95.98000 -0.466
96.00000 4.668
96.02000 4.877
96.04000 9.338
96.06000 4.697
96.08000 4.117
96.10000 2.785
96.12000 1.709
96.14000 0.956
96.16000 1.578
96.18000 1.954
96.20000 2.614
96.22000 -0.010
96.24000 8.184
96.26000 2.748
96.28000 6.841
96.30000 2.062
96.32000 -1.385
96.34000 -0.784
96.36000 0.728
96.38000 2.935
96.40000 0.800
96.42000 3.317
96.44000 5.142
96.46000 6.039
96.48000 7.225
96.50000 2.809
96.52000 2.706
96.54000 0.892
96.56000 6.366
96.58000 7.429
96.60000 4.575
96.62000 5.844
96.64000 5.938
96.66000 2.384
96.68000 0.630
96.70000 9.586
96.72000 6.674
96.74000 -2.156
96.76000 4.169
96.78000 7.632
96.80000 7.411
96.82000 4.935
96.84000 2.632
96.86000 0.917
96.88000 -0.344
96.90000 8.494
96.92000 8.473
96.94000 4.981
96.96000 -0.632
96.98000 2.584
97.00000 5.390
97.02000 3.436
97.04000 2.018
97.06000 3.178
97.08000 -1.321
97.10000 3.130
97.12000 7.895
97.14000 1.999
97.16000 3.617
97.18000 1.856
97.20000 4.337
97.22000 3.798
97.24000 3.892
97.26000 5.490
97.28000 3.098
97.30000 -2.080
97.32000 1.020
97.34000 3.400
97.36000 3.790
97.38000 4.318
97.40000 2.907
97.42000 3.750
97.44000 7.913
97.46000 3.144
97.48000 2.460
97.50000 1.417
97.52000 1.293
97.54000 0.793
97.56000 6.522
97.58000 3.168
97.60000 2.376
97.62000 -0.277
97.64000 2.064
97.66000 3.800
97.68000 5.844
97.70000 8.146
97.72000 3.754
97.74000 5.308
97.76000 7.352
97.78000 3.397
97.80000 0.535
97.82000 1.408
97.84000 4.711
97.86000 7.114
97.88000 7.525
97.90000 7.160
97.92000 7.683
97.94000 -2.130
97.96000 1.512
97.98000 7.691
98.00000 0.211
98.02000 3.106
98.04000 6.844
98.06000 7.062
98.08000 4.140
98.10000 4.237
98.12000 9.506
98.14000 7.393
98.16000 7.481
98.18000 8.682
98.20000 6.973
98.22000 1.440
98.24000 -0.420
98.26000 5.152
98.28000 2.417
98.30000 2.856
98.32000 6.436
98.34000 7.719
98.36000 10.159
98.38000 8.315
98.40000 8.855
98.42000 7.615
98.44000 5.743
98.46000 4.482
98.48000 3.575
98.50000 2.995
98.52000 5.119
98.54000 7.869
98.56000 4.836
98.58000 3.224
98.60000 -2.089
98.62000 7.017
98.64000 8.995
98.66000 11.949
98.68000 0.097
98.70000 1.288
98.72000 6.214
98.74000 7.238
98.76000 0.884
98.78000 2.686
98.80000 9.311
98.82000 3.053
98.84000 1.533
98.86000 0.483
98.88000 5.156
98.90000 12.097
98.92000 4.957
98.94000 12.413
98.96000 14.649
98.98000 7.315
99.00000 7.986
99.02000 9.277
99.04000 6.123
99.06000 2.097
99.08000 6.005
99.10000 11.659
99.12000 10.377
99.14000 8.912
99.16000 8.171
99.18000 -0.245
99.20000 5.327
99.22000 9.782
99.24000 4.799
99.26000 2.765
99.28000 1.245
99.30000 9.065
99.32000 5.749
99.34000 11.389
99.36000 7.025
99.38000 9.714
99.40000 8.213
99.42000 11.189
99.44000 12.625
99.46000 12.327
99.48000 3.331
99.50000 1.269
99.52000 7.720
99.54000 7.554
99.56000 6.803
99.58000 9.196
99.60000 5.440
99.62000 -0.942
99.64000 3.322
99.66000 6.721
99.68000 6.882
99.70000 -2.117
99.72000 1.764
99.74000 9.425
99.76000 14.304
99.78000 12.657
99.80000 5.146
99.82000 4.094
99.84000 5.705
99.86000 9.742
99.88000 10.633
99.90000 6.567
99.92000 8.850
99.94000 13.426
99.96000 7.209
99.98000 0.000
