'Id: "0011387" Comment: "Integrate frame 0011387_Au-Ir-Rh_Rh-rich_XRD-Mapping-152-0000.gfrmwith cursor Wedge Cursor #5" Operator: "B?rgel" Anode: "Cu" Wavelength: "1.5406" Scantype: "2Theta (TwoTheta)" TimePerStep: "1" X: "27" Y: "-4.5" Z: "5.95" 
10.00000 0.000
10.02000 -3.581
10.04000 -3.295
10.06000 -1.992
10.08000 -3.235
10.10000 0.505
10.12000 7.979
10.14000 8.097
10.16000 5.886
10.18000 7.378
10.20000 6.339
10.22000 1.973
10.24000 -2.245
10.26000 5.673
10.28000 11.986
10.30000 -1.085
10.32000 9.426
10.34000 7.298
10.36000 5.769
10.38000 19.535
10.40000 19.498
10.42000 1.425
10.44000 -3.623
10.46000 2.430
10.48000 7.487
10.50000 13.560
10.52000 13.827
10.54000 0.635
10.56000 -0.129
10.58000 2.216
10.60000 9.317
10.62000 22.597
10.64000 16.500
10.66000 7.300
10.68000 -0.013
10.70000 3.325
10.72000 11.557
10.74000 15.034
10.76000 10.311
10.78000 13.014
10.80000 20.063
10.82000 21.097
10.84000 18.151
10.86000 16.043
10.88000 7.139
10.90000 10.340
10.92000 13.283
10.94000 13.768
10.96000 18.813
10.98000 13.019
11.00000 27.352
11.02000 25.854
11.04000 19.761
11.06000 13.785
11.08000 14.118
11.10000 15.389
11.12000 20.260
11.14000 19.827
11.16000 26.071
11.18000 24.720
11.20000 13.511
11.22000 6.922
11.24000 13.383
11.26000 17.137
11.28000 18.136
11.30000 31.457
11.32000 27.757
11.34000 18.058
11.36000 11.709
11.38000 16.321
11.40000 12.262
11.42000 19.175
11.44000 32.091
11.46000 20.538
11.48000 13.793
11.50000 10.724
11.52000 23.431
11.54000 35.263
11.56000 28.010
11.58000 23.490
11.60000 20.073
11.62000 23.857
11.64000 30.760
11.66000 33.157
11.68000 24.729
11.70000 12.354
11.72000 23.305
11.74000 25.545
11.76000 24.345
11.78000 27.654
11.80000 31.909
11.82000 26.843
11.84000 24.971
11.86000 25.232
11.88000 26.438
11.90000 24.684
11.92000 26.572
11.94000 21.180
11.96000 24.197
11.98000 24.430
12.00000 25.450
12.02000 28.358
12.04000 30.691
12.06000 27.605
12.08000 21.320
12.10000 23.705
12.12000 13.032
12.14000 21.990
12.16000 17.911
12.18000 17.864
12.20000 25.047
12.22000 28.434
12.24000 14.223
12.26000 21.189
12.28000 39.884
12.30000 28.566
12.32000 18.554
12.34000 17.993
12.36000 19.696
12.38000 31.063
12.40000 36.199
12.42000 30.929
12.44000 23.642
12.46000 27.048
12.48000 45.096
12.50000 41.699
12.52000 37.131
12.54000 27.035
12.56000 22.254
12.58000 24.441
12.60000 22.840
12.62000 26.332
12.64000 29.117
12.66000 24.728
12.68000 23.758
12.70000 25.517
12.72000 28.458
12.74000 19.349
12.76000 22.344
12.78000 28.788
12.80000 30.778
12.82000 34.310
12.84000 37.702
12.86000 37.462
12.88000 40.336
12.90000 40.853
12.92000 26.198
12.94000 21.743
12.96000 30.497
12.98000 33.861
13.00000 25.778
13.02000 22.874
13.04000 19.151
13.06000 22.543
13.08000 26.747
13.10000 20.958
13.12000 21.453
13.14000 22.810
13.16000 23.180
13.18000 22.702
13.20000 25.097
13.22000 34.995
13.24000 25.969
13.26000 26.434
13.28000 26.989
13.30000 34.426
13.32000 25.468
13.34000 26.167
13.36000 20.485
13.38000 24.877
13.40000 23.107
13.42000 14.215
13.44000 21.078
13.46000 18.595
13.48000 17.628
13.50000 27.722
13.52000 29.717
13.54000 27.620
13.56000 30.733
13.58000 32.900
13.60000 28.841
13.62000 28.311
13.64000 28.875
13.66000 32.574
13.68000 32.788
13.70000 31.445
13.72000 26.571
13.74000 24.370
13.76000 29.869
13.78000 30.804
13.80000 30.521
13.82000 31.231
13.84000 32.390
13.86000 28.228
13.88000 22.178
13.90000 23.236
13.92000 18.744
13.94000 19.065
13.96000 31.160
13.98000 22.371
14.00000 21.020
14.02000 19.120
14.04000 22.468
14.06000 20.493
14.08000 23.412
14.10000 21.848
14.12000 19.151
14.14000 14.758
14.16000 23.065
14.18000 17.204
14.20000 11.268
14.22000 16.025
14.24000 24.219
14.26000 21.290
14.28000 27.341
14.30000 25.573
14.32000 18.985
14.34000 9.472
14.36000 15.685
14.38000 14.672
14.40000 16.776
14.42000 16.588
14.44000 18.096
14.46000 20.464
14.48000 26.704
14.50000 23.993
14.52000 17.517
14.54000 20.228
14.56000 22.487
14.58000 20.724
14.60000 21.393
14.62000 15.890
14.64000 8.912
14.66000 18.498
14.68000 17.309
14.70000 17.121
14.72000 10.869
14.74000 9.643
14.76000 17.356
14.78000 13.360
14.80000 11.593
14.82000 11.725
14.84000 17.622
14.86000 23.687
14.88000 15.588
14.90000 11.729
14.92000 11.405
14.94000 18.877
14.96000 16.501
14.98000 16.127
15.00000 22.770
15.02000 12.817
15.04000 9.021
15.06000 14.481
15.08000 13.526
15.10000 10.381
15.12000 14.042
15.14000 12.923
15.16000 2.926
15.18000 5.722
15.20000 14.862
15.22000 8.813
15.24000 4.528
15.26000 15.494
15.28000 18.374
15.30000 13.017
15.32000 17.315
15.34000 14.963
15.36000 8.070
15.38000 8.603
15.40000 15.155
15.42000 7.469
15.44000 9.977
15.46000 9.303
15.48000 12.776
15.50000 14.326
15.52000 9.142
15.54000 0.322
15.56000 1.594
15.58000 7.686
15.60000 10.583
15.62000 14.933
15.64000 9.847
15.66000 12.622
15.68000 19.426
15.70000 11.169
15.72000 9.700
15.74000 11.942
15.76000 10.317
15.78000 6.286
15.80000 5.468
15.82000 9.930
15.84000 8.804
15.86000 10.333
15.88000 3.650
15.90000 10.244
15.92000 9.067
15.94000 8.714
15.96000 10.883
15.98000 12.541
16.00000 1.727
16.02000 5.526
16.04000 7.170
16.06000 1.190
16.08000 4.688
16.10000 6.561
16.12000 10.593
16.14000 11.130
16.16000 11.979
16.18000 6.121
16.20000 4.950
16.22000 2.293
16.24000 5.248
16.26000 7.444
16.28000 11.260
16.30000 13.676
16.32000 5.680
16.34000 2.913
16.36000 2.247
16.38000 9.968
16.40000 5.499
16.42000 8.410
16.44000 13.568
16.46000 16.702
16.48000 5.421
16.50000 1.716
16.52000 -2.752
16.54000 -0.101
16.56000 4.150
16.58000 7.212
16.60000 4.347
16.62000 1.365
16.64000 -1.278
16.66000 3.151
16.68000 4.927
16.70000 5.126
16.72000 8.109
16.74000 -1.993
16.76000 -3.020
16.78000 3.687
16.80000 -2.847
16.82000 0.902
16.84000 4.311
16.86000 0.458
16.88000 -2.420
16.90000 1.468
16.92000 0.978
16.94000 4.241
16.96000 3.971
16.98000 3.038
17.00000 1.398
17.02000 8.401
17.04000 3.934
17.06000 8.462
17.08000 3.422
17.10000 9.559
17.12000 14.746
17.14000 18.232
17.16000 8.850
17.18000 -2.951
17.20000 -2.048
17.22000 1.834
17.24000 5.984
17.26000 5.505
17.28000 10.020
17.30000 13.795
17.32000 8.165
17.34000 3.946
17.36000 9.494
17.38000 5.061
17.40000 3.652
17.42000 9.179
17.44000 6.258
17.46000 -3.763
17.48000 -2.885
17.50000 -2.507
17.52000 10.786
17.54000 10.709
17.56000 5.582
17.58000 9.463
17.60000 11.025
17.62000 3.651
17.64000 9.899
17.66000 13.396
17.68000 12.115
17.70000 5.162
17.72000 1.994
17.74000 0.743
17.76000 0.243
17.78000 0.618
17.80000 -0.725
17.82000 0.829
17.84000 7.375
17.86000 9.644
17.88000 9.814
17.90000 12.118
17.92000 5.834
17.94000 4.597
17.96000 4.370
17.98000 3.179
18.00000 4.378
18.02000 0.246
18.04000 1.336
18.06000 1.034
18.08000 2.915
18.10000 11.927
18.12000 11.027
18.14000 10.278
18.16000 1.441
18.18000 -0.009
18.20000 6.486
18.22000 2.660
18.24000 -2.762
18.26000 -1.959
18.28000 3.047
18.30000 6.658
18.32000 3.672
18.34000 6.562
18.36000 6.332
18.38000 7.700
18.40000 7.345
18.42000 5.056
18.44000 1.056
18.46000 0.239
18.48000 3.195
18.50000 6.465
18.52000 2.989
18.54000 2.561
18.56000 2.118
18.58000 0.501
18.60000 1.457
18.62000 -4.311
18.64000 0.733
18.66000 7.104
18.68000 5.896
18.70000 2.913
18.72000 8.480
18.74000 3.839
18.76000 -3.635
18.78000 -0.433
18.80000 -3.613
18.82000 -1.223
18.84000 0.336
18.86000 -2.808
18.88000 1.626
18.90000 0.439
18.92000 5.123
18.94000 1.130
18.96000 2.309
18.98000 -0.424
19.00000 2.073
19.02000 3.006
19.04000 3.568
19.06000 4.577
19.08000 2.908
19.10000 0.077
19.12000 5.827
19.14000 3.265
19.16000 3.239
19.18000 4.565
19.20000 4.304
19.22000 9.589
19.24000 11.564
19.26000 9.549
19.28000 7.333
19.30000 4.273
19.32000 7.865
19.34000 8.242
19.36000 11.376
19.38000 10.528
19.40000 3.368
19.42000 -1.537
19.44000 8.089
19.46000 5.684
19.48000 0.633
19.50000 -4.216
19.52000 -1.260
19.54000 5.940
19.56000 11.197
19.58000 6.759
19.60000 12.186
19.62000 10.039
19.64000 7.579
19.66000 12.102
19.68000 13.935
19.70000 13.731
19.72000 12.790
19.74000 6.535
19.76000 0.513
19.78000 0.568
19.80000 1.522
19.82000 3.330
19.84000 0.729
19.86000 0.903
19.88000 1.702
19.90000 5.537
19.92000 3.045
19.94000 9.687
19.96000 14.175
19.98000 0.877
20.00000 5.882
20.02000 7.893
20.04000 9.014
20.06000 4.396
20.08000 5.243
20.10000 9.865
20.12000 -0.209
20.14000 5.537
20.16000 10.175
20.18000 11.804
20.20000 6.992
20.22000 11.104
20.24000 9.537
20.26000 4.289
20.28000 8.835
20.30000 4.143
20.32000 3.679
20.34000 3.105
20.36000 5.001
20.38000 2.916
20.40000 3.973
20.42000 -0.921
20.44000 7.852
20.46000 6.852
20.48000 5.220
20.50000 7.315
20.52000 7.874
20.54000 4.991
20.56000 5.359
20.58000 11.475
20.60000 4.357
20.62000 0.938
20.64000 8.160
20.66000 8.598
20.68000 7.091
20.70000 1.334
20.72000 4.267
20.74000 6.840
20.76000 8.922
20.78000 8.919
20.80000 6.085
20.82000 6.701
20.84000 2.831
20.86000 3.124
20.88000 5.841
20.90000 5.912
20.92000 2.589
20.94000 6.574
20.96000 9.294
20.98000 13.001
21.00000 9.034
21.02000 -4.120
21.04000 -2.140
21.06000 5.437
21.08000 12.085
21.10000 7.838
21.12000 -0.086
21.14000 -0.932
21.16000 1.802
21.18000 9.096
21.20000 9.939
21.22000 5.197
21.24000 12.992
21.26000 5.726
21.28000 4.843
21.30000 10.323
21.32000 10.062
21.34000 2.364
21.36000 2.988
21.38000 1.922
21.40000 6.205
21.42000 9.331
21.44000 7.895
21.46000 4.482
21.48000 6.225
21.50000 7.749
21.52000 7.332
21.54000 0.193
21.56000 5.899
21.58000 3.598
21.60000 0.825
21.62000 2.655
21.64000 3.407
21.66000 7.075
21.68000 9.423
21.70000 1.619
21.72000 3.509
21.74000 3.144
21.76000 -2.885
21.78000 4.673
21.80000 10.666
21.82000 11.844
21.84000 5.576
21.86000 7.095
21.88000 9.317
21.90000 5.304
21.92000 -0.054
21.94000 3.479
21.96000 7.857
21.98000 7.328
22.00000 4.493
22.02000 8.278
22.04000 0.263
22.06000 5.514
22.08000 5.568
22.10000 4.254
22.12000 5.436
22.14000 1.499
22.16000 2.995
22.18000 6.086
22.20000 5.140
22.22000 10.640
22.24000 9.540
22.26000 5.952
22.28000 7.583
22.30000 0.449
22.32000 -0.928
22.34000 0.615
22.36000 1.092
22.38000 -0.216
22.40000 1.829
22.42000 6.165
22.44000 3.420
22.46000 4.928
22.48000 3.763
22.50000 2.026
22.52000 1.749
22.54000 -1.771
22.56000 0.303
22.58000 3.199
22.60000 1.687
22.62000 1.902
22.64000 -4.068
22.66000 -2.311
22.68000 1.671
22.70000 4.144
22.72000 1.751
22.74000 0.155
22.76000 -3.328
22.78000 -2.742
22.80000 6.804
22.82000 9.569
22.84000 2.659
22.86000 2.297
22.88000 3.259
22.90000 3.672
22.92000 -0.345
22.94000 4.759
22.96000 6.198
22.98000 5.360
23.00000 12.532
23.02000 11.868
23.04000 11.640
23.06000 15.492
23.08000 12.039
23.10000 6.165
23.12000 7.282
23.14000 7.565
23.16000 6.450
23.18000 2.234
23.20000 9.304
23.22000 12.624
23.24000 3.957
23.26000 6.205
23.28000 6.388
23.30000 5.330
23.32000 7.613
23.34000 5.939
23.36000 9.511
23.38000 5.687
23.40000 -1.387
23.42000 2.991
23.44000 2.063
23.46000 8.861
23.48000 9.965
23.50000 7.136
23.52000 11.164
23.54000 3.736
23.56000 4.898
23.58000 8.032
23.60000 11.488
23.62000 11.673
23.64000 2.047
23.66000 -3.977
23.68000 2.348
23.70000 6.744
23.72000 7.255
23.74000 4.594
23.76000 6.576
23.78000 6.552
23.80000 7.823
23.82000 5.037
23.84000 11.184
23.86000 11.144
23.88000 6.897
23.90000 6.806
23.92000 2.950
23.94000 5.910
23.96000 7.726
23.98000 4.656
24.00000 8.455
24.02000 8.727
24.04000 7.486
24.06000 3.011
24.08000 3.467
24.10000 4.642
24.12000 4.488
24.14000 0.557
24.16000 0.329
24.18000 5.240
24.20000 6.587
24.22000 8.442
24.24000 8.350
24.26000 9.001
24.28000 9.544
24.30000 5.718
24.32000 7.007
24.34000 4.001
24.36000 8.559
24.38000 5.395
24.40000 2.283
24.42000 1.106
24.44000 1.123
24.46000 7.972
24.48000 5.659
24.50000 -1.112
24.52000 -3.331
24.54000 1.479
24.56000 4.455
24.58000 2.542
24.60000 4.673
24.62000 3.536
24.64000 6.135
24.66000 4.723
24.68000 3.073
24.70000 4.637
24.72000 -0.573
24.74000 0.562
24.76000 5.620
24.78000 -0.403
24.80000 -1.709
24.82000 0.040
24.84000 2.410
24.86000 4.025
24.88000 4.044
24.90000 1.929
24.92000 0.388
24.94000 3.105
24.96000 2.176
24.98000 3.464
25.00000 3.910
25.02000 6.318
25.04000 8.447
25.06000 7.079
25.08000 5.993
25.10000 3.745
25.12000 1.405
25.14000 6.681
25.16000 8.340
25.18000 5.508
25.20000 4.197
25.22000 -0.034
25.24000 1.625
25.26000 1.636
25.28000 1.262
25.30000 2.233
25.32000 6.231
25.34000 4.621
25.36000 1.704
25.38000 4.203
25.40000 0.945
25.42000 -1.133
25.44000 8.609
25.46000 11.773
25.48000 9.241
25.50000 4.058
25.52000 2.987
25.54000 0.954
25.56000 -0.077
25.58000 -0.607
25.60000 1.445
25.62000 -2.422
25.64000 -0.922
25.66000 6.280
25.68000 1.525
25.70000 -2.756
25.72000 3.326
25.74000 0.320
25.76000 -1.528
25.78000 -3.880
25.80000 0.383
25.82000 6.582
25.84000 7.054
25.86000 1.195
25.88000 1.559
25.90000 9.071
25.92000 6.482
25.94000 5.302
25.96000 9.328
25.98000 11.926
26.00000 5.659
26.02000 2.376
26.04000 7.202
26.06000 1.247
26.08000 0.029
26.10000 1.691
26.12000 -0.520
26.14000 -2.614
26.16000 4.244
26.18000 3.256
26.20000 5.407
26.22000 8.577
26.24000 7.702
26.26000 8.941
26.28000 9.656
26.30000 6.564
26.32000 4.819
26.34000 4.860
26.36000 2.939
26.38000 -1.238
26.40000 1.102
26.42000 3.972
26.44000 -1.531
26.46000 -0.989
26.48000 7.981
26.50000 9.111
26.52000 9.796
26.54000 -0.597
26.56000 -0.369
26.58000 6.050
26.60000 5.791
26.62000 4.607
26.64000 7.938
26.66000 2.533
26.68000 -3.827
26.70000 4.063
26.72000 2.359
26.74000 7.427
26.76000 7.659
26.78000 5.034
26.80000 4.900
26.82000 8.968
26.84000 8.075
26.86000 3.226
26.88000 1.029
26.90000 -1.621
26.92000 1.629
26.94000 6.448
26.96000 5.515
26.98000 -0.960
27.00000 0.962
27.02000 -0.066
27.04000 7.586
27.06000 11.308
27.08000 4.289
27.10000 2.359
27.12000 -0.877
27.14000 1.704
27.16000 9.487
27.18000 4.760
27.20000 0.668
27.22000 -0.509
27.24000 2.753
27.26000 1.611
27.28000 0.976
27.30000 -1.154
27.32000 1.816
27.34000 4.905
27.36000 3.928
27.38000 4.931
27.40000 1.264
27.42000 2.012
27.44000 1.471
27.46000 -3.820
27.48000 0.660
27.50000 2.853
27.52000 1.048
27.54000 2.339
27.56000 7.989
27.58000 1.335
27.60000 2.433
27.62000 0.097
27.64000 0.735
27.66000 -0.649
27.68000 0.763
27.70000 2.794
27.72000 4.350
27.74000 3.141
27.76000 5.712
27.78000 3.889
27.80000 0.709
27.82000 1.659
27.84000 0.599
27.86000 0.503
27.88000 2.824
27.90000 0.220
27.92000 2.017
27.94000 -0.020
27.96000 0.652
27.98000 1.145
28.00000 2.037
28.02000 3.993
28.04000 2.987
28.06000 0.510
28.08000 0.409
28.10000 1.858
28.12000 0.513
28.14000 1.421
28.16000 7.856
28.18000 5.279
28.20000 0.535
28.22000 4.095
28.24000 5.768
28.26000 -1.958
28.28000 -3.784
28.30000 3.528
28.32000 5.649
28.34000 9.092
28.36000 3.894
28.38000 3.071
28.40000 1.497
28.42000 1.002
28.44000 -0.686
28.46000 3.634
28.48000 1.481
28.50000 0.583
28.52000 3.070
28.54000 -0.773
28.56000 0.233
28.58000 -2.183
28.60000 -3.081
28.62000 0.830
28.64000 -1.906
28.66000 1.721
28.68000 7.198
28.70000 2.897
28.72000 -0.665
28.74000 2.048
28.76000 5.004
28.78000 5.659
28.80000 4.311
28.82000 2.750
28.84000 1.645
28.86000 0.161
28.88000 -0.322
28.90000 -3.074
28.92000 3.419
28.94000 4.677
28.96000 3.883
28.98000 4.204
29.00000 2.186
29.02000 0.492
29.04000 -1.334
29.06000 3.771
29.08000 12.893
29.10000 7.639
29.12000 7.389
29.14000 6.349
29.16000 -3.725
29.18000 0.618
29.20000 7.559
29.22000 1.359
29.24000 -3.297
29.26000 -0.088
29.28000 7.755
29.30000 9.314
29.32000 4.758
29.34000 -1.787
29.36000 2.698
29.38000 6.928
29.40000 6.170
29.42000 4.870
29.44000 3.435
29.46000 1.468
29.48000 6.295
29.50000 5.486
29.52000 10.364
29.54000 6.392
29.56000 -2.999
29.58000 6.100
29.60000 2.113
29.62000 -1.676
29.64000 0.754
29.66000 0.475
29.68000 0.254
29.70000 2.882
29.72000 2.180
29.74000 4.214
29.76000 4.319
29.78000 2.047
29.80000 -3.123
29.82000 -0.386
29.84000 1.839
29.86000 3.937
29.88000 4.292
29.90000 3.381
29.92000 0.023
29.94000 -1.185
29.96000 -0.642
29.98000 6.333
30.00000 6.106
30.02000 5.094
30.04000 -0.385
30.06000 -0.352
30.08000 1.203
30.10000 5.898
30.12000 4.730
30.14000 5.538
30.16000 2.232
30.18000 8.422
30.20000 6.026
30.22000 3.397
30.24000 3.467
30.26000 2.032
30.28000 1.445
30.30000 -3.650
30.32000 -1.421
30.34000 7.181
30.36000 5.271
30.38000 6.179
30.40000 1.654
30.42000 1.759
30.44000 -2.067
30.46000 -2.812
30.48000 3.684
30.50000 4.291
30.52000 9.348
30.54000 6.195
30.56000 6.717
30.58000 3.220
30.60000 -3.638
30.62000 0.596
30.64000 1.840
30.66000 6.810
30.68000 5.147
30.70000 3.322
30.72000 5.329
30.74000 1.562
30.76000 1.811
30.78000 2.186
30.80000 -0.463
30.82000 -1.369
30.84000 0.171
30.86000 2.350
30.88000 2.050
30.90000 1.044
30.92000 0.858
30.94000 3.548
30.96000 4.959
30.98000 3.222
31.00000 -1.175
31.02000 -0.908
31.04000 -1.395
31.06000 -1.027
31.08000 5.256
31.10000 9.048
31.12000 2.064
31.14000 -1.602
31.16000 -2.139
31.18000 0.499
31.20000 2.959
31.22000 1.085
31.24000 1.375
31.26000 -0.680
31.28000 -0.746
31.30000 4.122
31.32000 5.188
31.34000 -0.694
31.36000 -0.510
31.38000 -2.386
31.40000 -1.492
31.42000 2.701
31.44000 2.948
31.46000 1.540
31.48000 5.738
31.50000 4.017
31.52000 6.146
31.54000 4.981
31.56000 3.152
31.58000 1.431
31.60000 2.235
31.62000 5.609
31.64000 3.409
31.66000 5.711
31.68000 6.801
31.70000 1.142
31.72000 -2.979
31.74000 -0.022
31.76000 1.567
31.78000 1.042
31.80000 -0.260
31.82000 0.135
31.84000 3.857
31.86000 1.746
31.88000 -0.195
31.90000 -3.609
31.92000 0.875
31.94000 6.428
31.96000 6.626
31.98000 -1.300
32.00000 1.910
32.02000 0.389
32.04000 2.594
32.06000 2.442
32.08000 2.592
32.10000 2.917
32.12000 1.298
32.14000 -0.677
32.16000 2.469
32.18000 0.929
32.20000 1.002
32.22000 3.859
32.24000 -2.719
32.26000 -0.483
32.28000 5.931
32.30000 3.918
32.32000 -1.067
32.34000 6.444
32.36000 3.279
32.38000 3.887
32.40000 2.701
32.42000 4.102
32.44000 4.652
32.46000 3.321
32.48000 -0.624
32.50000 -3.588
32.52000 -0.657
32.54000 3.162
32.56000 -0.469
32.58000 2.043
32.60000 1.166
32.62000 2.988
32.64000 0.079
32.66000 4.086
32.68000 -0.058
32.70000 0.910
32.72000 -0.210
32.74000 2.221
32.76000 1.393
32.78000 0.973
32.80000 -1.840
32.82000 -3.588
32.84000 2.270
32.86000 -1.055
32.88000 -0.066
32.90000 -1.271
32.92000 -0.979
32.94000 -1.351
32.96000 0.625
32.98000 4.376
33.00000 7.069
33.02000 0.491
33.04000 -1.480
33.06000 0.395
33.08000 5.267
33.10000 4.467
33.12000 2.472
33.14000 -0.857
33.16000 0.453
33.18000 5.712
33.20000 5.619
33.22000 -0.773
33.24000 -1.481
33.26000 -0.939
33.28000 0.975
33.30000 0.875
33.32000 5.733
33.34000 5.207
33.36000 -0.381
33.38000 3.446
33.40000 -0.806
33.42000 3.923
33.44000 6.664
33.46000 4.359
33.48000 1.329
33.50000 -0.051
33.52000 0.123
33.54000 -0.160
33.56000 5.701
33.58000 3.745
33.60000 1.870
33.62000 0.571
33.64000 2.820
33.66000 4.629
33.68000 8.388
33.70000 1.985
33.72000 5.190
33.74000 3.899
33.76000 3.282
33.78000 3.389
33.80000 4.338
33.82000 3.298
33.84000 2.334
33.86000 4.660
33.88000 5.159
33.90000 3.632
33.92000 1.565
33.94000 -0.969
33.96000 -3.544
33.98000 -1.560
34.00000 -0.286
34.02000 4.095
34.04000 4.517
34.06000 2.267
34.08000 2.938
34.10000 2.907
34.12000 5.199
34.14000 7.171
34.16000 4.065
34.18000 1.082
34.20000 3.064
34.22000 4.727
34.24000 3.127
34.26000 2.046
34.28000 2.678
34.30000 6.791
34.32000 6.590
34.34000 1.655
34.36000 1.415
34.38000 5.656
34.40000 -1.180
34.42000 -3.536
34.44000 3.401
34.46000 0.632
34.48000 -1.339
34.50000 2.605
34.52000 -0.872
34.54000 -1.670
34.56000 -2.376
34.58000 -0.217
34.60000 0.585
34.62000 -1.598
34.64000 -1.802
34.66000 0.862
34.68000 2.950
34.70000 6.784
34.72000 3.802
34.74000 3.632
34.76000 3.192
34.78000 1.693
34.80000 3.276
34.82000 2.829
34.84000 2.223
34.86000 3.289
34.88000 -1.088
34.90000 1.403
34.92000 3.580
34.94000 3.226
34.96000 3.001
34.98000 0.226
35.00000 2.425
35.02000 1.458
35.04000 0.529
35.06000 3.056
35.08000 1.453
35.10000 1.099
35.12000 0.043
35.14000 -1.471
35.16000 0.031
35.18000 1.328
35.20000 3.347
35.22000 2.110
35.24000 3.696
35.26000 3.660
35.28000 3.336
35.30000 -1.041
35.32000 -1.756
35.34000 2.703
35.36000 2.598
35.38000 4.444
35.40000 6.641
35.42000 4.283
35.44000 -2.533
35.46000 -1.652
35.48000 -0.524
35.50000 -1.023
35.52000 1.715
35.54000 0.919
35.56000 -0.169
35.58000 -1.443
35.60000 -2.247
35.62000 -3.488
35.64000 -1.683
35.66000 4.696
35.68000 -0.581
35.70000 -0.975
35.72000 -0.441
35.74000 3.749
35.76000 7.311
35.78000 7.570
35.80000 7.668
35.82000 -0.331
35.84000 1.068
35.86000 6.230
35.88000 4.446
35.90000 -0.308
35.92000 2.391
35.94000 3.443
35.96000 0.445
35.98000 -3.483
36.00000 -2.683
36.02000 2.797
36.04000 4.359
36.06000 -0.719
36.08000 -3.484
36.10000 0.379
36.12000 2.628
36.14000 2.947
36.16000 0.391
36.18000 2.996
36.20000 1.948
36.22000 -2.189
36.24000 -1.061
36.26000 -0.856
36.28000 -1.639
36.30000 4.349
36.32000 4.601
36.34000 2.266
36.36000 0.061
36.38000 4.769
36.40000 5.396
36.42000 2.949
36.44000 4.084
36.46000 4.481
36.48000 2.082
36.50000 1.849
36.52000 4.730
36.54000 6.904
36.56000 4.432
36.58000 5.171
36.60000 3.628
36.62000 -1.404
36.64000 -1.310
36.66000 1.828
36.68000 -3.502
36.70000 -1.721
36.72000 0.770
36.74000 5.536
36.76000 6.380
36.78000 8.215
36.80000 -0.663
36.82000 5.987
36.84000 8.694
36.86000 6.959
36.88000 4.433
36.90000 5.226
36.92000 -0.566
36.94000 -0.498
36.96000 5.685
36.98000 6.749
37.00000 4.208
37.02000 5.296
37.04000 7.017
37.06000 3.145
37.08000 5.563
37.10000 3.592
37.12000 0.146
37.14000 0.118
37.16000 0.965
37.18000 0.891
37.20000 1.278
37.22000 2.683
37.24000 2.170
37.26000 1.422
37.28000 1.949
37.30000 2.921
37.32000 2.227
37.34000 1.781
37.36000 4.971
37.38000 3.395
37.40000 -3.531
37.42000 -1.709
37.44000 5.527
37.46000 -0.489
37.48000 -0.911
37.50000 1.636
37.52000 0.641
37.54000 5.447
37.56000 -3.512
37.58000 -3.549
37.60000 -0.741
37.62000 -1.551
37.64000 4.328
37.66000 6.159
37.68000 3.601
37.70000 0.743
37.72000 4.179
37.74000 3.304
37.76000 3.994
37.78000 3.962
37.80000 6.606
37.82000 3.364
37.84000 0.190
37.86000 3.394
37.88000 4.389
37.90000 4.136
37.92000 3.952
37.94000 9.623
37.96000 8.350
37.98000 7.973
38.00000 3.365
38.02000 0.014
38.04000 5.689
38.06000 9.925
38.08000 10.800
38.10000 9.521
38.12000 7.743
38.14000 7.321
38.16000 8.608
38.18000 11.596
38.20000 12.045
38.22000 9.939
38.24000 14.338
38.26000 12.200
38.28000 12.009
38.30000 13.460
38.32000 10.828
38.34000 11.992
38.36000 13.724
38.38000 14.391
38.40000 15.765
38.42000 10.381
38.44000 11.055
38.46000 14.109
38.48000 17.774
38.50000 21.123
38.52000 21.981
38.54000 19.501
38.56000 18.719
38.58000 18.842
38.60000 18.505
38.62000 18.403
38.64000 19.680
38.66000 23.884
38.68000 23.031
38.70000 22.387
38.72000 22.694
38.74000 20.824
38.76000 24.343
38.78000 25.805
38.80000 23.612
38.82000 22.918
38.84000 21.800
38.86000 19.053
38.88000 21.839
38.90000 26.189
38.92000 30.172
38.94000 27.874
38.96000 21.544
38.98000 24.273
39.00000 28.248
39.02000 31.751
39.04000 31.627
39.06000 28.390
39.08000 29.583
39.10000 33.325
39.12000 35.003
39.14000 41.166
39.16000 38.893
39.18000 37.163
39.20000 40.093
39.22000 42.304
39.24000 39.984
39.26000 43.316
39.28000 52.318
39.30000 50.721
39.32000 55.813
39.34000 56.622
39.36000 55.060
39.38000 55.069
39.40000 53.148
39.42000 61.169
39.44000 66.969
39.46000 68.541
39.48000 74.796
39.50000 79.389
39.52000 83.866
39.54000 85.319
39.56000 82.439
39.58000 83.716
39.60000 97.681
39.62000 106.266
39.64000 106.156
39.66000 112.703
39.68000 124.122
39.70000 123.820
39.72000 133.014
39.74000 135.866
39.76000 149.022
39.78000 156.062
39.80000 158.136
39.82000 167.593
39.84000 178.540
39.86000 187.168
39.88000 205.038
39.90000 219.622
39.92000 223.418
39.94000 235.633
39.96000 245.698
39.98000 263.737
40.00000 278.450
40.02000 301.171
40.04000 312.641
40.06000 337.392
40.08000 355.777
40.10000 366.429
40.12000 385.846
40.14000 406.729
40.16000 432.183
40.18000 448.585
40.20000 470.502
40.22000 479.492
40.24000 500.523
40.26000 532.815
40.28000 549.035
40.30000 558.113
40.32000 572.619
40.34000 587.746
40.36000 601.682
40.38000 618.577
40.40000 621.520
40.42000 634.842
40.44000 647.829
40.46000 646.535
40.48000 650.790
40.50000 646.082
40.52000 639.698
40.54000 634.651
40.56000 623.795
40.58000 627.474
40.60000 620.818
40.62000 606.971
40.64000 594.434
40.66000 567.105
40.68000 553.656
40.70000 541.363
40.72000 535.457
40.74000 518.306
40.76000 485.547
40.78000 468.363
40.80000 459.768
40.82000 438.593
40.84000 420.605
40.86000 402.529
40.88000 386.583
40.90000 371.599
40.92000 352.525
40.94000 332.076
40.96000 319.397
40.98000 304.359
41.00000 284.529
41.02000 270.451
41.04000 253.580
41.06000 238.329
41.08000 223.426
41.10000 214.971
41.12000 209.401
41.14000 202.982
41.16000 191.892
41.18000 178.466
41.20000 168.019
41.22000 156.157
41.24000 145.718
41.26000 135.453
41.28000 131.986
41.30000 132.310
41.32000 123.573
41.34000 112.373
41.36000 109.925
41.38000 106.707
41.40000 97.772
41.42000 86.678
41.44000 85.114
41.46000 83.876
41.48000 77.698
41.50000 75.416
41.52000 68.696
41.54000 67.253
41.56000 58.768
41.58000 61.758
41.60000 59.940
41.62000 55.429
41.64000 51.621
41.66000 49.649
41.68000 46.677
41.70000 47.960
41.72000 41.976
41.74000 40.085
41.76000 43.703
41.78000 37.052
41.80000 33.856
41.82000 29.972
41.84000 33.836
41.86000 32.763
41.88000 34.017
41.90000 34.677
41.92000 35.805
41.94000 34.336
41.96000 28.068
41.98000 20.019
42.00000 19.928
42.02000 21.926
42.04000 21.260
42.06000 18.440
42.08000 20.568
42.10000 18.141
42.12000 12.921
42.14000 13.816
42.16000 12.506
42.18000 9.421
42.20000 10.746
42.22000 12.372
42.24000 12.299
42.26000 12.340
42.28000 13.078
42.30000 10.121
42.32000 8.951
42.34000 7.742
42.36000 11.706
42.38000 10.103
42.40000 3.052
42.42000 5.610
42.44000 6.221
42.46000 6.583
42.48000 9.240
42.50000 7.752
42.52000 5.933
42.54000 4.400
42.56000 2.442
42.58000 5.814
42.60000 5.236
42.62000 2.617
42.64000 0.865
42.66000 4.934
42.68000 0.475
42.70000 -0.072
42.72000 -0.044
42.74000 1.691
42.76000 1.222
42.78000 1.445
42.80000 0.840
42.82000 3.948
42.84000 5.726
42.86000 -0.968
42.88000 -3.452
42.90000 2.167
42.92000 1.662
42.94000 0.245
42.96000 3.688
42.98000 1.059
43.00000 0.216
43.02000 0.067
43.04000 -2.089
43.06000 -1.888
43.08000 -0.137
43.10000 -0.375
43.12000 1.625
43.14000 2.736
43.16000 -1.425
43.18000 -0.562
43.20000 -2.707
43.22000 -0.163
43.24000 -2.436
43.26000 -3.465
43.28000 1.414
43.30000 1.640
43.32000 -2.060
43.34000 -0.506
43.36000 2.146
43.38000 3.745
43.40000 1.819
43.42000 2.328
43.44000 -1.965
43.46000 -1.761
43.48000 -2.889
43.50000 -0.953
43.52000 -0.695
43.54000 -0.464
43.56000 -3.415
43.58000 -1.142
43.60000 -1.487
43.62000 0.554
43.64000 4.625
43.66000 0.320
43.68000 -2.298
43.70000 -0.304
43.72000 1.009
43.74000 -2.001
43.76000 -0.728
43.78000 0.797
43.80000 0.152
43.82000 2.620
43.84000 0.738
43.86000 0.390
43.88000 3.012
43.90000 3.121
43.92000 1.645
43.94000 -1.998
43.96000 -2.807
43.98000 -2.337
44.00000 -0.607
44.02000 3.202
44.04000 1.358
44.06000 0.157
44.08000 -2.636
44.10000 -1.131
44.12000 -1.304
44.14000 -1.222
44.16000 -0.317
44.18000 -0.162
44.20000 2.233
44.22000 1.710
44.24000 2.530
44.26000 4.309
44.28000 5.090
44.30000 3.996
44.32000 4.775
44.34000 -0.638
44.36000 -0.300
44.38000 3.440
44.40000 4.689
44.42000 3.687
44.44000 4.185
44.46000 5.391
44.48000 4.861
44.50000 3.801
44.52000 -0.889
44.54000 -1.418
44.56000 0.931
44.58000 1.411
44.60000 -3.294
44.62000 -0.041
44.64000 3.441
44.66000 3.032
44.68000 3.323
44.70000 3.864
44.72000 1.318
44.74000 0.285
44.76000 -0.567
44.78000 -1.133
44.80000 -0.778
44.82000 1.683
44.84000 4.538
44.86000 -2.004
44.88000 1.724
44.90000 5.621
44.92000 5.001
44.94000 1.550
44.96000 1.127
44.98000 6.893
45.00000 4.992
45.02000 5.275
45.04000 3.751
45.06000 0.551
45.08000 0.086
45.10000 1.036
45.12000 1.980
45.14000 6.662
45.16000 6.640
45.18000 9.540
45.20000 4.078
45.22000 4.683
45.24000 3.416
45.26000 4.411
45.28000 2.348
45.30000 2.941
45.32000 7.055
45.34000 7.172
45.36000 6.442
45.38000 -3.293
45.40000 -1.605
45.42000 1.953
45.44000 6.822
45.46000 10.773
45.48000 6.949
45.50000 5.538
45.52000 8.251
45.54000 8.803
45.56000 5.460
45.58000 5.857
45.60000 12.585
45.62000 9.515
45.64000 5.419
45.66000 8.738
45.68000 10.367
45.70000 9.752
45.72000 11.393
45.74000 14.734
45.76000 17.407
45.78000 17.005
45.80000 14.923
45.82000 16.037
45.84000 15.046
45.86000 18.812
45.88000 15.787
45.90000 14.817
45.92000 13.193
45.94000 18.064
45.96000 18.989
45.98000 21.739
46.00000 24.895
46.02000 25.690
46.04000 22.358
46.06000 22.987
46.08000 23.399
46.10000 27.143
46.12000 28.668
46.14000 29.070
46.16000 33.089
46.18000 30.615
46.20000 31.201
46.22000 31.141
46.24000 32.624
46.26000 32.784
46.28000 29.758
46.30000 38.360
46.32000 44.536
46.34000 40.217
46.36000 43.367
46.38000 40.793
46.40000 42.285
46.42000 45.377
46.44000 47.511
46.46000 50.748
46.48000 53.046
46.50000 49.129
46.52000 53.441
46.54000 61.002
46.56000 64.723
46.58000 69.590
46.60000 63.429
46.62000 63.537
46.64000 67.638
46.66000 69.894
46.68000 69.398
46.70000 76.122
46.72000 80.432
46.74000 78.751
46.76000 83.711
46.78000 84.162
46.80000 82.992
46.82000 88.118
46.84000 84.730
46.86000 87.107
46.88000 92.925
46.90000 93.640
46.92000 92.686
46.94000 93.842
46.96000 102.786
46.98000 102.076
47.00000 102.487
47.02000 105.441
47.04000 106.522
47.06000 104.673
47.08000 106.276
47.10000 107.245
47.12000 110.450
47.14000 110.761
47.16000 102.184
47.18000 100.876
47.20000 102.725
47.22000 103.625
47.24000 101.476
47.26000 95.260
47.28000 94.015
47.30000 93.710
47.32000 98.506
47.34000 99.526
47.36000 95.160
47.38000 83.986
47.40000 90.475
47.42000 87.355
47.44000 88.058
47.46000 80.733
47.48000 75.201
47.50000 73.057
47.52000 76.357
47.54000 74.752
47.56000 71.572
47.58000 64.580
47.60000 62.914
47.62000 57.371
47.64000 55.645
47.66000 59.202
47.68000 51.564
47.70000 42.628
47.72000 43.827
47.74000 49.294
47.76000 48.759
47.78000 50.445
47.80000 42.712
47.82000 46.188
47.84000 40.861
47.86000 36.595
47.88000 34.064
47.90000 29.428
47.92000 30.018
47.94000 30.349
47.96000 27.628
47.98000 24.883
48.00000 22.498
48.02000 24.501
48.04000 25.091
48.06000 27.646
48.08000 18.598
48.10000 12.689
48.12000 11.163
48.14000 17.988
48.16000 17.441
48.18000 11.756
48.20000 12.910
48.22000 15.366
48.24000 15.143
48.26000 13.476
48.28000 14.358
48.30000 12.001
48.32000 11.278
48.34000 6.822
48.36000 6.381
48.38000 5.229
48.40000 7.758
48.42000 12.211
48.44000 7.838
48.46000 4.790
48.48000 3.319
48.50000 2.120
48.52000 9.367
48.54000 3.322
48.56000 2.689
48.58000 4.304
48.60000 0.813
48.62000 -0.546
48.64000 -0.067
48.66000 -1.617
48.68000 4.188
48.70000 7.861
48.72000 5.986
48.74000 -2.105
48.76000 0.373
48.78000 2.682
48.80000 4.996
48.82000 6.792
48.84000 1.171
48.86000 -2.230
48.88000 -2.969
48.90000 0.640
48.92000 3.897
48.94000 2.449
48.96000 1.429
48.98000 2.631
49.00000 5.237
49.02000 1.958
49.04000 4.306
49.06000 4.367
49.08000 2.634
49.10000 0.480
49.12000 0.280
49.14000 -0.301
49.16000 0.859
49.18000 2.022
49.20000 1.130
49.22000 2.782
49.24000 -1.404
49.26000 -0.817
49.28000 5.540
49.30000 5.161
49.32000 -1.134
49.34000 -0.101
49.36000 -2.267
49.38000 0.052
49.40000 1.524
49.42000 -0.676
49.44000 2.941
49.46000 0.833
49.48000 -0.572
49.50000 -2.854
49.52000 -2.852
49.54000 1.280
49.56000 2.499
49.58000 -0.056
49.60000 -2.204
49.62000 3.796
49.64000 1.114
49.66000 0.716
49.68000 6.372
49.70000 6.208
49.72000 2.620
49.74000 2.496
49.76000 0.311
49.78000 -0.888
49.80000 -2.586
49.82000 1.246
49.84000 1.035
49.86000 0.812
49.88000 -0.719
49.90000 -1.348
49.92000 1.283
49.94000 0.829
49.96000 2.082
49.98000 2.958
50.00000 1.316
50.02000 5.011
50.04000 2.639
50.06000 -0.136
50.08000 -2.379
50.10000 -2.785
50.12000 1.609
50.14000 1.856
50.16000 0.586
50.18000 2.268
50.20000 3.466
50.22000 2.925
50.24000 -1.179
50.26000 1.910
50.28000 1.629
50.30000 1.180
50.32000 0.347
50.34000 1.005
50.36000 3.219
50.38000 3.413
50.40000 6.132
50.42000 1.657
50.44000 -1.681
50.46000 5.957
50.48000 4.853
50.50000 3.636
50.52000 2.062
50.54000 0.348
50.56000 2.884
50.58000 3.636
50.60000 5.272
50.62000 5.074
50.64000 2.405
50.66000 -0.587
50.68000 -2.724
50.70000 -0.224
50.72000 4.855
50.74000 2.958
50.76000 4.723
50.78000 2.276
50.80000 1.670
50.82000 2.931
50.84000 -0.497
50.86000 -1.664
50.88000 3.866
50.90000 3.793
50.92000 2.425
50.94000 2.093
50.96000 1.888
50.98000 4.203
51.00000 2.167
51.02000 3.822
51.04000 4.423
51.06000 3.642
51.08000 7.314
51.10000 4.415
51.12000 2.557
51.14000 1.729
51.16000 5.216
51.18000 1.561
51.20000 -2.696
51.22000 -0.583
51.24000 0.119
51.26000 9.108
51.28000 6.361
51.30000 3.366
51.32000 1.519
51.34000 0.735
51.36000 2.170
51.38000 0.787
51.40000 3.342
51.42000 1.934
51.44000 2.267
51.46000 1.482
51.48000 0.459
51.50000 0.898
51.52000 1.238
51.54000 2.277
51.56000 1.753
51.58000 1.353
51.60000 4.083
51.62000 5.021
51.64000 -0.733
51.66000 1.245
51.68000 0.863
51.70000 1.536
51.72000 1.567
51.74000 5.019
51.76000 2.946
51.78000 3.828
51.80000 3.339
51.82000 4.449
51.84000 5.339
51.86000 4.212
51.88000 4.198
51.90000 1.397
51.92000 4.385
51.94000 4.381
51.96000 -1.295
51.98000 1.512
52.00000 2.768
52.02000 0.379
52.04000 4.128
52.06000 2.434
52.08000 1.165
52.10000 -1.254
52.12000 0.330
52.14000 1.236
52.16000 -0.612
52.18000 2.662
52.20000 3.904
52.22000 2.786
52.24000 0.652
52.26000 -0.059
52.28000 -1.796
52.30000 0.708
52.32000 -0.235
52.34000 2.090
52.36000 4.045
52.38000 4.425
52.40000 -0.332
52.42000 2.867
52.44000 6.787
52.46000 4.421
52.48000 4.014
52.50000 0.939
52.52000 5.262
52.54000 3.355
52.56000 2.050
52.58000 3.765
52.60000 6.359
52.62000 7.863
52.64000 5.798
52.66000 3.294
52.68000 5.215
52.70000 4.162
52.72000 1.510
52.74000 5.240
52.76000 4.742
52.78000 -1.186
52.80000 -2.602
52.82000 2.427
52.84000 4.687
52.86000 5.909
52.88000 8.713
52.90000 6.408
52.92000 3.986
52.94000 5.128
52.96000 4.780
52.98000 7.595
53.00000 6.336
53.02000 4.731
53.04000 4.303
53.06000 2.498
53.08000 4.500
53.10000 7.856
53.12000 10.065
53.14000 7.963
53.16000 3.329
53.18000 4.752
53.20000 1.841
53.22000 0.072
53.24000 1.502
53.26000 -1.915
53.28000 1.344
53.30000 3.239
53.32000 5.870
53.34000 5.395
53.36000 5.397
53.38000 7.035
53.40000 6.600
53.42000 7.656
53.44000 5.312
53.46000 2.660
53.48000 2.091
53.50000 1.194
53.52000 0.985
53.54000 1.304
53.56000 4.807
53.58000 2.873
53.60000 3.874
53.62000 4.153
53.64000 2.337
53.66000 -2.587
53.68000 2.200
53.70000 6.404
53.72000 8.184
53.74000 9.429
53.76000 7.413
53.78000 4.047
53.80000 5.987
53.82000 6.776
53.84000 1.008
53.86000 2.473
53.88000 2.283
53.90000 3.807
53.92000 7.547
53.94000 5.119
53.96000 3.222
53.98000 6.058
54.00000 6.220
54.02000 -0.393
54.04000 1.087
54.06000 1.969
54.08000 -0.315
54.10000 5.819
54.12000 3.729
54.14000 4.829
54.16000 6.184
54.18000 4.061
54.20000 0.020
54.22000 -1.429
54.24000 -1.951
54.26000 1.445
54.28000 -0.646
54.30000 4.018
54.32000 0.489
54.34000 0.099
54.36000 3.331
54.38000 4.430
54.40000 1.828
54.42000 1.542
54.44000 2.949
54.46000 0.083
54.48000 1.609
54.50000 -2.586
54.52000 -1.787
54.54000 1.367
54.56000 0.757
54.58000 3.392
54.60000 3.664
54.62000 7.915
54.64000 2.078
54.66000 0.747
54.68000 2.609
54.70000 5.151
54.72000 2.856
54.74000 2.627
54.76000 2.023
54.78000 3.804
54.80000 4.203
54.82000 -1.064
54.84000 0.060
54.86000 -0.255
54.88000 -1.436
54.90000 2.634
54.92000 4.192
54.94000 3.842
54.96000 3.082
54.98000 4.122
55.00000 1.949
55.02000 0.941
55.04000 1.334
55.06000 -0.658
55.08000 0.372
55.10000 2.071
55.12000 -2.075
55.14000 -2.577
55.16000 1.182
55.18000 2.855
55.20000 9.286
55.22000 5.646
55.24000 2.671
55.26000 -2.576
55.28000 0.184
55.30000 2.015
55.32000 2.757
55.34000 -1.710
55.36000 -0.285
55.38000 3.257
55.40000 4.341
55.42000 2.189
55.44000 -0.277
55.46000 3.814
55.48000 1.695
55.50000 4.859
55.52000 7.972
55.54000 5.387
55.56000 1.793
55.58000 -0.018
55.60000 0.454
55.62000 1.999
55.64000 2.633
55.66000 2.045
55.68000 1.124
55.70000 -1.011
55.72000 -0.448
55.74000 0.678
55.76000 3.083
55.78000 2.717
55.80000 2.061
55.82000 2.410
55.84000 1.423
55.86000 3.638
55.88000 3.038
55.90000 1.218
55.92000 0.730
55.94000 1.767
55.96000 2.203
55.98000 1.826
56.00000 1.013
56.02000 2.674
56.04000 5.009
56.06000 0.978
56.08000 1.860
56.10000 3.831
56.12000 3.159
56.14000 3.321
56.16000 1.025
56.18000 2.598
56.20000 5.759
56.22000 3.125
56.24000 -1.640
56.26000 3.580
56.28000 2.974
56.30000 0.000
56.32000 2.035
56.34000 3.362
56.36000 3.942
56.38000 4.700
56.40000 1.568
56.42000 4.267
56.44000 3.483
56.46000 3.492
56.48000 1.303
56.50000 2.913
56.52000 -2.515
56.54000 -0.790
56.56000 4.228
56.58000 4.256
56.60000 2.796
56.62000 5.160
56.64000 3.231
56.66000 1.567
56.68000 0.997
56.70000 1.287
56.72000 2.929
56.74000 3.515
56.76000 3.915
56.78000 4.698
56.80000 6.519
56.82000 6.002
56.84000 3.086
56.86000 1.203
56.88000 3.962
56.90000 4.162
56.92000 2.577
56.94000 2.773
56.96000 4.959
56.98000 5.319
57.00000 1.938
57.02000 2.258
57.04000 2.307
57.06000 0.306
57.08000 2.929
57.10000 2.599
57.12000 5.741
57.14000 7.965
57.16000 5.287
57.18000 -0.463
57.20000 0.399
57.22000 5.950
57.24000 7.420
57.26000 3.616
57.28000 1.598
57.30000 4.247
57.32000 4.694
57.34000 5.559
57.36000 7.355
57.38000 2.271
57.40000 4.355
57.42000 1.674
57.44000 0.974
57.46000 2.692
57.48000 0.253
57.50000 0.433
57.52000 2.806
57.54000 4.939
57.56000 3.047
57.58000 -1.345
57.60000 2.212
57.62000 3.757
57.64000 6.626
57.66000 5.866
57.68000 3.195
57.70000 3.260
57.72000 2.265
57.74000 2.466
57.76000 5.004
57.78000 6.915
57.80000 3.947
57.82000 2.904
57.84000 4.690
57.86000 5.145
57.88000 1.508
57.90000 3.226
57.92000 0.605
57.94000 2.482
57.96000 -0.217
57.98000 4.128
58.00000 3.894
58.02000 -0.105
58.04000 -2.442
58.06000 2.122
58.08000 5.093
58.10000 -0.696
58.12000 -2.145
58.14000 3.979
58.16000 5.731
58.18000 2.854
58.20000 3.741
58.22000 -0.045
58.24000 3.564
58.26000 5.641
58.28000 2.316
58.30000 4.545
58.32000 6.237
58.34000 2.086
58.36000 4.331
58.38000 5.467
58.40000 1.834
58.42000 2.615
58.44000 4.500
58.46000 4.518
58.48000 5.426
58.50000 5.788
58.52000 2.228
58.54000 1.968
58.56000 1.957
58.58000 2.746
58.60000 3.534
58.62000 4.459
58.64000 6.318
58.66000 4.602
58.68000 2.173
58.70000 1.393
58.72000 4.629
58.74000 7.699
58.76000 1.417
58.78000 3.933
58.80000 1.014
58.82000 3.250
58.84000 3.163
58.86000 0.433
58.88000 1.624
58.90000 2.494
58.92000 1.590
58.94000 3.441
58.96000 0.724
58.98000 0.752
59.00000 0.607
59.02000 0.263
59.04000 0.833
59.06000 -0.004
59.08000 0.096
59.10000 1.010
59.12000 1.679
59.14000 2.921
59.16000 3.323
59.18000 -1.164
59.20000 -1.638
59.22000 1.665
59.24000 4.707
59.26000 0.251
59.28000 1.196
59.30000 0.607
59.32000 0.112
59.34000 0.155
59.36000 5.792
59.38000 6.229
59.40000 3.793
59.42000 2.841
59.44000 -0.850
59.46000 -0.562
59.48000 -1.133
59.50000 0.058
59.52000 3.641
59.54000 6.892
59.56000 3.655
59.58000 -0.049
59.60000 -2.119
59.62000 -2.430
59.64000 -0.623
59.66000 1.361
59.68000 3.394
59.70000 0.319
59.72000 1.426
59.74000 4.174
59.76000 2.723
59.78000 4.534
59.80000 0.876
59.82000 -1.817
59.84000 0.163
59.86000 0.958
59.88000 0.768
59.90000 2.332
59.92000 1.424
59.94000 0.882
59.96000 1.193
59.98000 2.098
60.00000 4.993
60.02000 9.306
60.04000 5.129
60.06000 0.951
60.08000 3.147
60.10000 1.393
60.12000 0.217
60.14000 2.938
60.16000 4.855
60.18000 3.701
60.20000 4.919
60.22000 4.205
60.24000 2.005
60.26000 5.355
60.28000 4.822
60.30000 1.724
60.32000 0.803
60.34000 -2.386
60.36000 1.383
60.38000 -0.784
60.40000 -0.195
60.42000 4.570
60.44000 5.397
60.46000 1.372
60.48000 4.831
60.50000 2.023
60.52000 3.272
60.54000 1.076
60.56000 -0.654
60.58000 5.839
60.60000 7.260
60.62000 7.290
60.64000 5.435
60.66000 -2.377
60.68000 -1.403
60.70000 1.233
60.72000 5.889
60.74000 3.173
60.76000 3.079
60.78000 1.106
60.80000 2.414
60.82000 3.720
60.84000 1.518
60.86000 4.661
60.88000 6.158
60.90000 5.379
60.92000 6.361
60.94000 5.738
60.96000 6.043
60.98000 3.090
61.00000 5.315
61.02000 7.495
61.04000 7.971
61.06000 8.272
61.08000 6.021
61.10000 1.692
61.12000 3.614
61.14000 4.638
61.16000 2.363
61.18000 5.597
61.20000 1.996
61.22000 2.394
61.24000 6.555
61.26000 3.842
61.28000 2.237
61.30000 1.891
61.32000 0.697
61.34000 1.414
61.36000 1.795
61.38000 -2.374
61.40000 -1.775
61.42000 -0.556
61.44000 2.100
61.46000 3.847
61.48000 2.141
61.50000 2.924
61.52000 2.070
61.54000 0.905
61.56000 3.713
61.58000 5.292
61.60000 6.720
61.62000 2.303
61.64000 1.791
61.66000 1.319
61.68000 1.744
61.70000 0.546
61.72000 1.744
61.74000 5.143
61.76000 5.591
61.78000 5.209
61.80000 1.966
61.82000 -2.378
61.84000 0.070
61.86000 4.608
61.88000 2.048
61.90000 -0.784
61.92000 0.034
61.94000 3.311
61.96000 3.055
61.98000 0.716
62.00000 3.834
62.02000 5.821
62.04000 1.000
62.06000 2.351
62.08000 4.064
62.10000 1.294
62.12000 1.379
62.14000 -0.342
62.16000 -0.424
62.18000 -1.102
62.20000 -2.378
62.22000 -0.635
62.24000 -0.001
62.26000 4.066
62.28000 5.461
62.30000 3.728
62.32000 -0.389
62.34000 -1.623
62.36000 -0.816
62.38000 -0.986
62.40000 0.363
62.42000 1.650
62.44000 -1.480
62.46000 -0.141
62.48000 -1.890
62.50000 -0.039
62.52000 0.619
62.54000 0.011
62.56000 2.805
62.58000 1.930
62.60000 1.158
62.62000 0.305
62.64000 4.187
62.66000 1.587
62.68000 0.903
62.70000 1.628
62.72000 3.684
62.74000 0.845
62.76000 0.249
62.78000 -0.061
62.80000 1.359
62.82000 1.269
62.84000 4.245
62.86000 -2.097
62.88000 -2.386
62.90000 1.501
62.92000 1.134
62.94000 0.705
62.96000 3.027
62.98000 2.000
63.00000 0.715
63.02000 0.326
63.04000 -1.053
63.06000 -1.191
63.08000 4.902
63.10000 3.025
63.12000 -0.075
63.14000 -0.522
63.16000 -1.872
63.18000 0.709
63.20000 2.864
63.22000 0.303
63.24000 -0.787
63.26000 2.191
63.28000 0.561
63.30000 -0.647
63.32000 -1.058
63.34000 0.867
63.36000 1.542
63.38000 0.292
63.40000 2.387
63.42000 -0.388
63.44000 -1.889
63.46000 1.755
63.48000 -0.945
63.50000 -2.148
63.52000 -1.364
63.54000 0.305
63.56000 2.433
63.58000 2.964
63.60000 2.076
63.62000 1.397
63.64000 -1.721
63.66000 0.230
63.68000 2.622
63.70000 -2.356
63.72000 -1.188
63.74000 -1.110
63.76000 1.566
63.78000 2.642
63.80000 1.225
63.82000 -1.240
63.84000 -1.032
63.86000 -0.103
63.88000 -0.018
63.90000 1.481
63.92000 0.865
63.94000 3.481
63.96000 4.944
63.98000 0.983
64.00000 -0.363
64.02000 2.856
64.04000 0.805
64.06000 3.443
64.08000 4.254
64.10000 5.050
64.12000 2.185
64.14000 0.822
64.16000 4.609
64.18000 5.828
64.20000 3.614
64.22000 -0.063
64.24000 1.375
64.26000 3.396
64.28000 3.276
64.30000 1.803
64.32000 4.433
64.34000 4.209
64.36000 3.099
64.38000 1.058
64.40000 0.346
64.42000 -1.090
64.44000 1.365
64.46000 6.508
64.48000 1.538
64.50000 1.635
64.52000 3.209
64.54000 3.612
64.56000 0.928
64.58000 1.886
64.60000 0.842
64.62000 1.517
64.64000 2.338
64.66000 3.279
64.68000 4.408
64.70000 2.620
64.72000 2.301
64.74000 -0.666
64.76000 0.703
64.78000 1.290
64.80000 3.203
64.82000 0.184
64.84000 -2.352
64.86000 0.478
64.88000 0.167
64.90000 3.265
64.92000 4.831
64.94000 4.562
64.96000 3.484
64.98000 4.015
65.00000 4.560
65.02000 5.870
65.04000 1.628
65.06000 0.804
65.08000 1.022
65.10000 3.619
65.12000 2.197
65.14000 2.527
65.16000 3.418
65.18000 1.799
65.20000 2.375
65.22000 -0.636
65.24000 0.176
65.26000 2.630
65.28000 1.759
65.30000 3.091
65.32000 1.617
65.34000 1.887
65.36000 -2.355
65.38000 0.301
65.40000 3.110
65.42000 6.117
65.44000 3.157
65.46000 1.470
65.48000 -0.642
65.50000 -0.747
65.52000 -0.658
65.54000 0.900
65.56000 4.589
65.58000 3.068
65.60000 0.534
65.62000 2.998
65.64000 1.857
65.66000 1.480
65.68000 4.238
65.70000 0.936
65.72000 0.952
65.74000 0.971
65.76000 1.697
65.78000 2.833
65.80000 2.075
65.82000 -0.338
65.84000 -0.551
65.86000 -1.059
65.88000 -1.105
65.90000 0.908
65.92000 3.131
65.94000 2.802
65.96000 4.354
65.98000 1.429
66.00000 0.010
66.02000 -0.699
66.04000 -1.676
66.06000 -1.314
66.08000 1.331
66.10000 -0.092
66.12000 -0.714
66.14000 -1.234
66.16000 1.969
66.18000 1.170
66.20000 -1.289
66.22000 1.466
66.24000 2.501
66.26000 0.991
66.28000 3.272
66.30000 2.398
66.32000 1.587
66.34000 -1.570
66.36000 -2.411
66.38000 0.566
66.40000 0.665
66.42000 2.834
66.44000 2.778
66.46000 0.262
66.48000 1.382
66.50000 0.012
66.52000 1.471
66.54000 -0.109
66.56000 -0.885
66.58000 -1.398
66.60000 2.026
66.62000 1.902
66.64000 3.289
66.66000 4.195
66.68000 0.915
66.70000 0.071
66.72000 1.425
66.74000 3.302
66.76000 0.610
66.78000 1.132
66.80000 0.853
66.82000 0.850
66.84000 0.625
66.86000 -1.144
66.88000 -0.247
66.90000 0.364
66.92000 -2.419
66.94000 0.627
66.96000 4.802
66.98000 1.685
67.00000 4.467
67.02000 -0.310
67.04000 -2.424
67.06000 0.759
67.08000 3.397
67.10000 -2.032
67.12000 -0.165
67.14000 2.270
67.16000 2.534
67.18000 2.824
67.20000 1.789
67.22000 1.338
67.24000 0.352
67.26000 0.462
67.28000 -0.346
67.30000 -0.751
67.32000 1.375
67.34000 0.759
67.36000 2.514
67.38000 3.079
67.40000 1.048
67.42000 0.665
67.44000 0.550
67.46000 -1.123
67.48000 1.241
67.50000 2.768
67.52000 2.318
67.54000 1.293
67.56000 -1.500
67.58000 0.317
67.60000 4.243
67.62000 3.272
67.64000 4.491
67.66000 1.417
67.68000 0.720
67.70000 2.279
67.72000 1.534
67.74000 2.407
67.76000 4.237
67.78000 5.354
67.80000 2.943
67.82000 4.608
67.84000 6.762
67.86000 3.194
67.88000 3.369
67.90000 5.313
67.92000 6.224
67.94000 8.123
67.96000 5.598
67.98000 3.411
68.00000 3.038
68.02000 5.933
68.04000 11.321
68.06000 8.995
68.08000 8.175
68.10000 7.325
68.12000 6.120
68.14000 6.398
68.16000 9.744
68.18000 11.782
68.20000 11.932
68.22000 9.927
68.24000 9.480
68.26000 11.890
68.28000 10.936
68.30000 13.888
68.32000 17.799
68.34000 17.288
68.36000 16.642
68.38000 16.752
68.40000 19.420
68.42000 18.627
68.44000 17.061
68.46000 18.629
68.48000 16.208
68.50000 14.502
68.52000 17.943
68.54000 23.189
68.56000 21.363
68.58000 19.493
68.60000 18.038
68.62000 21.136
68.64000 20.731
68.66000 19.912
68.68000 21.556
68.70000 23.921
68.72000 24.802
68.74000 25.879
68.76000 27.820
68.78000 25.349
68.80000 23.627
68.82000 22.998
68.84000 23.632
68.86000 26.071
68.88000 25.680
68.90000 31.335
68.92000 26.982
68.94000 24.432
68.96000 26.352
68.98000 21.977
69.00000 18.752
69.02000 22.735
69.04000 26.091
69.06000 25.313
69.08000 26.367
69.10000 24.833
69.12000 18.574
69.14000 18.833
69.16000 18.607
69.18000 21.115
69.20000 20.010
69.22000 19.451
69.24000 19.042
69.26000 20.029
69.28000 16.412
69.30000 20.294
69.32000 17.147
69.34000 15.700
69.36000 14.888
69.38000 12.278
69.40000 11.806
69.42000 13.506
69.44000 10.268
69.46000 8.387
69.48000 10.676
69.50000 14.354
69.52000 10.167
69.54000 10.501
69.56000 10.354
69.58000 11.758
69.60000 8.612
69.62000 6.917
69.64000 9.995
69.66000 3.873
69.68000 2.223
69.70000 6.068
69.72000 9.317
69.74000 9.479
69.76000 2.768
69.78000 2.075
69.80000 1.854
69.82000 2.050
69.84000 3.713
69.86000 4.798
69.88000 4.694
69.90000 6.500
69.92000 5.072
69.94000 2.394
69.96000 4.516
69.98000 6.667
70.00000 1.979
70.02000 -1.376
70.04000 -0.876
70.06000 0.928
70.08000 2.705
70.10000 4.442
70.12000 2.516
70.14000 3.585
70.16000 1.907
70.18000 0.865
70.20000 2.923
70.22000 1.113
70.24000 1.245
70.26000 -1.199
70.28000 -2.003
70.30000 -2.380
70.32000 -0.663
70.34000 -0.876
70.36000 0.024
70.38000 -0.710
70.40000 0.045
70.42000 -1.607
70.44000 0.872
70.46000 -0.821
70.48000 -2.287
70.50000 -1.636
70.52000 2.701
70.54000 4.071
70.56000 1.876
70.58000 0.449
70.60000 -1.400
70.62000 2.011
70.64000 3.146
70.66000 4.306
70.68000 0.907
70.70000 -0.265
70.72000 -0.820
70.74000 1.388
70.76000 1.144
70.78000 1.524
70.80000 3.466
70.82000 1.121
70.84000 -0.612
70.86000 -1.251
70.88000 1.755
70.90000 4.055
70.92000 1.767
70.94000 2.892
70.96000 -0.687
70.98000 -1.306
71.00000 1.541
71.02000 0.740
71.04000 -0.852
71.06000 3.227
71.08000 -0.586
71.10000 2.920
71.12000 1.795
71.14000 -0.289
71.16000 -1.483
71.18000 1.562
71.20000 -0.061
71.22000 2.208
71.24000 7.104
71.26000 5.232
71.28000 -0.742
71.30000 0.101
71.32000 -0.327
71.34000 1.564
71.36000 3.005
71.38000 -0.516
71.40000 -0.576
71.42000 0.249
71.44000 -2.287
71.46000 1.335
71.48000 4.735
71.50000 -0.655
71.52000 -2.283
71.54000 1.841
71.56000 1.677
71.58000 -1.682
71.60000 2.730
71.62000 6.875
71.64000 6.083
71.66000 1.000
71.68000 1.516
71.70000 3.093
71.72000 -0.809
71.74000 -0.494
71.76000 0.094
71.78000 0.857
71.80000 1.758
71.82000 -0.501
71.84000 0.114
71.86000 1.965
71.88000 0.322
71.90000 0.910
71.92000 3.764
71.94000 3.312
71.96000 4.511
71.98000 1.094
72.00000 3.311
72.02000 2.705
72.04000 0.274
72.06000 4.606
72.08000 2.770
72.10000 2.002
72.12000 -0.049
72.14000 1.872
72.16000 3.108
72.18000 3.669
72.20000 2.970
72.22000 1.149
72.24000 5.887
72.26000 1.308
72.28000 2.969
72.30000 2.934
72.32000 3.338
72.34000 2.260
72.36000 0.159
72.38000 -2.210
72.40000 0.098
72.42000 1.967
72.44000 1.905
72.46000 2.899
72.48000 1.804
72.50000 1.444
72.52000 1.421
72.54000 0.900
72.56000 1.102
72.58000 -0.372
72.60000 1.039
72.62000 3.474
72.64000 2.763
72.66000 1.807
72.68000 1.143
72.70000 3.793
72.72000 0.845
72.74000 -0.961
72.76000 0.929
72.78000 2.508
72.80000 -1.206
72.82000 -1.628
72.84000 -0.908
72.86000 -2.214
72.88000 -0.889
72.90000 2.242
72.92000 3.341
72.94000 1.881
72.96000 3.485
72.98000 1.108
73.00000 3.527
73.02000 -0.863
73.04000 -0.545
73.06000 1.862
73.08000 3.673
73.10000 -0.515
73.12000 -1.978
73.14000 1.145
73.16000 2.519
73.18000 4.132
73.20000 4.487
73.22000 2.810
73.24000 2.575
73.26000 -0.326
73.28000 -2.026
73.30000 2.221
73.32000 3.347
73.34000 3.507
73.36000 5.368
73.38000 3.938
73.40000 0.961
73.42000 1.277
73.44000 4.598
73.46000 3.756
73.48000 3.092
73.50000 3.444
73.52000 0.796
73.54000 -1.693
73.56000 -1.210
73.58000 -1.318
73.60000 -0.406
73.62000 3.692
73.64000 6.098
73.66000 0.478
73.68000 2.780
73.70000 2.477
73.72000 2.200
73.74000 2.480
73.76000 0.206
73.78000 -0.124
73.80000 1.601
73.82000 -2.231
73.84000 -1.834
73.86000 2.988
73.88000 1.830
73.90000 2.092
73.92000 2.262
73.94000 1.229
73.96000 1.854
73.98000 4.681
74.00000 -0.986
74.02000 -0.177
74.04000 -0.321
74.06000 -1.470
74.08000 -0.873
74.10000 -1.943
74.12000 0.885
74.14000 -1.051
74.16000 -1.360
74.18000 -2.047
74.20000 -1.479
74.22000 0.297
74.24000 -0.593
74.26000 0.273
74.28000 1.313
74.30000 -0.530
74.32000 0.789
74.34000 4.396
74.36000 0.567
74.38000 1.600
74.40000 3.325
74.42000 3.730
74.44000 2.707
74.46000 2.233
74.48000 0.333
74.50000 -1.412
74.52000 0.467
74.54000 2.230
74.56000 1.116
74.58000 -2.185
74.60000 0.465
74.62000 -1.275
74.64000 1.047
74.66000 4.162
74.68000 2.270
74.70000 1.107
74.72000 1.559
74.74000 0.448
74.76000 -1.941
74.78000 -1.493
74.80000 -0.855
74.82000 -1.373
74.84000 3.843
74.86000 5.843
74.88000 2.633
74.90000 2.891
74.92000 1.619
74.94000 2.862
74.96000 4.465
74.98000 3.834
75.00000 2.299
75.02000 2.749
75.04000 3.722
75.06000 5.172
75.08000 6.741
75.10000 5.979
75.12000 2.982
75.14000 0.974
75.16000 -0.772
75.18000 1.613
75.20000 -1.144
75.22000 -0.380
75.24000 1.851
75.26000 -1.582
75.28000 0.226
75.30000 5.025
75.32000 2.621
75.34000 1.441
75.36000 4.916
75.38000 5.374
75.40000 6.503
75.42000 3.524
75.44000 3.155
75.46000 0.471
75.48000 -1.399
75.50000 0.747
75.52000 1.627
75.54000 1.269
75.56000 2.104
75.58000 3.871
75.60000 3.259
75.62000 0.784
75.64000 1.354
75.66000 0.278
75.68000 1.566
75.70000 2.879
75.72000 3.557
75.74000 4.449
75.76000 7.129
75.78000 6.718
75.80000 6.782
75.82000 4.999
75.84000 4.220
75.86000 1.545
75.88000 2.828
75.90000 4.435
75.92000 5.931
75.94000 4.410
75.96000 4.225
75.98000 4.880
76.00000 5.836
76.02000 5.120
76.04000 0.453
76.06000 0.940
76.08000 4.461
76.10000 2.052
76.12000 1.935
76.14000 2.142
76.16000 0.337
76.18000 1.041
76.20000 4.258
76.22000 -1.193
76.24000 -2.170
76.26000 3.784
76.28000 2.152
76.30000 2.911
76.32000 2.928
76.34000 0.332
76.36000 1.559
76.38000 3.526
76.40000 3.046
76.42000 2.391
76.44000 7.222
76.46000 6.722
76.48000 5.926
76.50000 3.080
76.52000 1.189
76.54000 -2.060
76.56000 -2.173
76.58000 0.583
76.60000 4.819
76.62000 3.527
76.64000 3.901
76.66000 2.625
76.68000 3.123
76.70000 -1.317
76.72000 2.609
76.74000 2.083
76.76000 -0.930
76.78000 0.888
76.80000 3.137
76.82000 4.559
76.84000 5.204
76.86000 4.894
76.88000 1.999
76.90000 0.862
76.92000 1.559
76.94000 4.821
76.96000 4.571
76.98000 4.419
77.00000 7.917
77.02000 6.575
77.04000 1.191
77.06000 1.600
77.08000 0.592
77.10000 1.015
77.12000 1.545
77.14000 2.586
77.16000 2.659
77.18000 8.444
77.20000 5.929
77.22000 1.939
77.24000 1.605
77.26000 -0.069
77.28000 2.509
77.30000 8.259
77.32000 6.084
77.34000 5.722
77.36000 5.878
77.38000 4.074
77.40000 3.914
77.42000 1.537
77.44000 2.413
77.46000 7.165
77.48000 5.967
77.50000 0.553
77.52000 -2.071
77.54000 0.365
77.56000 1.294
77.58000 3.242
77.60000 -0.704
77.62000 3.819
77.64000 0.876
77.66000 -0.779
77.68000 -1.154
77.70000 0.666
77.72000 2.753
77.74000 1.992
77.76000 0.368
77.78000 1.331
77.80000 2.227
77.82000 2.661
77.84000 3.530
77.86000 1.618
77.88000 4.276
77.90000 5.272
77.92000 5.549
77.94000 2.201
77.96000 0.957
77.98000 -0.689
78.00000 0.505
78.02000 -0.713
78.04000 2.518
78.06000 3.374
78.08000 5.255
78.10000 4.345
78.12000 5.253
78.14000 4.786
78.16000 2.262
78.18000 2.793
78.20000 3.162
78.22000 2.853
78.24000 1.717
78.26000 3.226
78.28000 -1.053
78.30000 -2.211
78.32000 2.646
78.34000 6.625
78.36000 4.370
78.38000 2.840
78.40000 2.027
78.42000 3.975
78.44000 0.363
78.46000 -2.045
78.48000 1.986
78.50000 4.262
78.52000 5.296
78.54000 5.379
78.56000 2.701
78.58000 2.619
78.60000 3.149
78.62000 3.988
78.64000 5.642
78.66000 1.823
78.68000 1.640
78.70000 3.849
78.72000 1.944
78.74000 0.372
78.76000 -1.640
78.78000 -0.025
78.80000 4.177
78.82000 -0.562
78.84000 0.849
78.86000 1.691
78.88000 1.309
78.90000 3.033
78.92000 3.932
78.94000 0.850
78.96000 -2.240
78.98000 1.007
79.00000 3.308
79.02000 1.107
79.04000 0.916
79.06000 2.264
79.08000 2.485
79.10000 3.449
79.12000 4.293
79.14000 3.799
79.16000 1.553
79.18000 1.104
79.20000 1.038
79.22000 0.663
79.24000 3.457
79.26000 6.055
79.28000 1.898
79.30000 3.379
79.32000 3.269
79.34000 1.626
79.36000 1.815
79.38000 2.943
79.40000 0.125
79.42000 2.372
79.44000 3.360
79.46000 -0.011
79.48000 -1.410
79.50000 2.366
79.52000 1.926
79.54000 0.151
79.56000 0.783
79.58000 3.004
79.60000 3.989
79.62000 -0.413
79.64000 1.169
79.66000 -1.273
79.68000 0.510
79.70000 0.369
79.72000 1.705
79.74000 1.015
79.76000 4.183
79.78000 8.508
79.80000 6.571
79.82000 4.896
79.84000 1.418
79.86000 5.105
79.88000 3.670
79.90000 2.750
79.92000 1.740
79.94000 1.282
79.96000 -1.233
79.98000 1.763
80.00000 4.519
80.02000 7.316
80.04000 4.801
80.06000 0.951
80.08000 3.944
80.10000 2.727
80.12000 6.369
80.14000 3.347
80.16000 2.902
80.18000 2.502
80.20000 -2.224
80.22000 2.038
80.24000 4.573
80.26000 4.098
80.28000 3.237
80.30000 3.714
80.32000 2.838
80.34000 1.460
80.36000 7.067
80.38000 5.689
80.40000 5.165
80.42000 6.315
80.44000 5.622
80.46000 7.559
80.48000 3.921
80.50000 -2.253
80.52000 2.070
80.54000 5.615
80.56000 8.318
80.58000 4.561
80.60000 4.192
80.62000 3.585
80.64000 4.536
80.66000 1.278
80.68000 1.295
80.70000 4.577
80.72000 2.739
80.74000 2.169
80.76000 2.548
80.78000 2.080
80.80000 3.656
80.82000 1.466
80.84000 0.533
80.86000 -2.306
80.88000 1.084
80.90000 0.240
80.92000 -0.778
80.94000 1.829
80.96000 5.988
80.98000 10.025
81.00000 3.195
81.02000 3.982
81.04000 1.946
81.06000 1.005
81.08000 2.624
81.10000 0.084
81.12000 -1.547
81.14000 1.297
81.16000 4.073
81.18000 0.672
81.20000 2.111
81.22000 3.795
81.24000 3.065
81.26000 2.406
81.28000 5.320
81.30000 3.557
81.32000 -0.539
81.34000 -2.213
81.36000 -2.080
81.38000 2.667
81.40000 1.818
81.42000 2.137
81.44000 -2.096
81.46000 0.948
81.48000 4.139
81.50000 2.645
81.52000 2.198
81.54000 3.733
81.56000 7.490
81.58000 4.209
81.60000 1.891
81.62000 5.013
81.64000 3.726
81.66000 3.768
81.68000 8.408
81.70000 7.960
81.72000 5.522
81.74000 5.852
81.76000 5.744
81.78000 6.195
81.80000 3.489
81.82000 5.422
81.84000 8.064
81.86000 4.314
81.88000 7.609
81.90000 4.123
81.92000 5.832
81.94000 8.435
81.96000 7.842
81.98000 9.393
82.00000 10.321
82.02000 6.280
82.04000 7.833
82.06000 9.144
82.08000 12.077
82.10000 15.641
82.12000 11.325
82.14000 8.864
82.16000 7.195
82.18000 6.960
82.20000 6.155
82.22000 7.520
82.24000 11.604
82.26000 14.585
82.28000 13.114
82.30000 17.030
82.32000 16.961
82.34000 19.447
82.36000 14.987
82.38000 11.266
82.40000 11.561
82.42000 14.746
82.44000 14.311
82.46000 15.195
82.48000 17.781
82.50000 20.910
82.52000 21.057
82.54000 18.473
82.56000 17.365
82.58000 19.069
82.60000 24.085
82.62000 24.193
82.64000 25.959
82.66000 27.433
82.68000 24.544
82.70000 26.086
82.72000 29.855
82.74000 28.205
82.76000 28.634
82.78000 27.790
82.80000 32.187
82.82000 33.964
82.84000 33.800
82.86000 33.732
82.88000 29.328
82.90000 32.719
82.92000 36.769
82.94000 32.211
82.96000 30.991
82.98000 34.593
83.00000 35.222
83.02000 32.080
83.04000 33.324
83.06000 34.719
83.08000 34.775
83.10000 32.751
83.12000 35.485
83.14000 36.232
83.16000 37.836
83.18000 37.716
83.20000 35.981
83.22000 33.480
83.24000 36.079
83.26000 32.853
83.28000 39.904
83.30000 39.910
83.32000 38.936
83.34000 38.849
83.36000 37.447
83.38000 32.949
83.40000 27.272
83.42000 27.003
83.44000 28.222
83.46000 28.518
83.48000 32.285
83.50000 35.182
83.52000 33.109
83.54000 28.238
83.56000 26.952
83.58000 28.796
83.60000 24.345
83.62000 22.630
83.64000 25.329
83.66000 26.092
83.68000 21.772
83.70000 21.633
83.72000 19.523
83.74000 21.641
83.76000 20.686
83.78000 18.149
83.80000 16.941
83.82000 17.410
83.84000 18.285
83.86000 19.868
83.88000 22.293
83.90000 19.420
83.92000 15.717
83.94000 13.834
83.96000 8.071
83.98000 10.034
84.00000 13.480
84.02000 12.961
84.04000 9.042
84.06000 10.691
84.08000 10.668
84.10000 11.590
84.12000 10.389
84.14000 10.801
84.16000 8.961
84.18000 9.486
84.20000 9.169
84.22000 5.683
84.24000 11.211
84.26000 6.459
84.28000 4.860
84.30000 9.497
84.32000 3.553
84.34000 0.702
84.36000 3.973
84.38000 4.518
84.40000 -0.207
84.42000 1.630
84.44000 7.822
84.46000 5.980
84.48000 5.172
84.50000 -0.618
84.52000 -0.215
84.54000 5.046
84.56000 6.094
84.58000 3.740
84.60000 5.054
84.62000 1.309
84.64000 -0.909
84.66000 -2.355
84.68000 -1.770
84.70000 -0.129
84.72000 1.026
84.74000 3.312
84.76000 1.724
84.78000 0.502
84.80000 -0.343
84.82000 1.834
84.84000 1.014
84.86000 -1.238
84.88000 3.773
84.90000 5.568
84.92000 2.106
84.94000 1.104
84.96000 0.181
84.98000 6.929
85.00000 4.388
85.02000 5.105
85.04000 2.050
85.06000 1.740
85.08000 3.412
85.10000 1.353
85.12000 0.442
85.14000 -1.132
85.16000 -0.264
85.18000 2.841
85.20000 6.170
85.22000 1.490
85.24000 -2.277
85.26000 6.100
85.28000 8.327
85.30000 5.358
85.32000 9.773
85.34000 7.925
85.36000 5.966
85.38000 1.974
85.40000 1.043
85.42000 3.616
85.44000 4.183
85.46000 6.472
85.48000 7.925
85.50000 3.838
85.52000 -0.889
85.54000 3.263
85.56000 7.174
85.58000 -0.063
85.60000 -0.217
85.62000 3.241
85.64000 3.727
85.66000 0.097
85.68000 -2.248
85.70000 0.405
85.72000 1.254
85.74000 -1.202
85.76000 -1.922
85.78000 -1.841
85.80000 2.932
85.82000 3.380
85.84000 6.076
85.86000 2.720
85.88000 4.924
85.90000 4.090
85.92000 2.359
85.94000 2.556
85.96000 0.985
85.98000 3.216
86.00000 3.535
86.02000 3.156
86.04000 5.257
86.06000 3.294
86.08000 1.962
86.10000 3.495
86.12000 6.723
86.14000 6.670
86.16000 3.668
86.18000 2.123
86.20000 2.988
86.22000 3.142
86.24000 3.789
86.26000 2.607
86.28000 3.424
86.30000 2.194
86.32000 2.420
86.34000 6.803
86.36000 4.057
86.38000 0.994
86.40000 0.340
86.42000 0.692
86.44000 0.772
86.46000 -2.285
86.48000 1.844
86.50000 6.795
86.52000 7.411
86.54000 4.744
86.56000 3.494
86.58000 3.115
86.60000 2.974
86.62000 4.978
86.64000 3.579
86.66000 -1.992
86.68000 -0.666
86.70000 2.078
86.72000 7.453
86.74000 10.276
86.76000 7.072
86.78000 5.758
86.80000 4.513
86.82000 8.190
86.84000 11.410
86.86000 8.172
86.88000 8.477
86.90000 8.325
86.92000 9.830
86.94000 10.134
86.96000 5.987
86.98000 7.678
87.00000 10.199
87.02000 8.903
87.04000 9.500
87.06000 9.296
87.08000 8.070
87.10000 13.144
87.12000 18.417
87.14000 18.786
87.16000 10.921
87.18000 12.215
87.20000 15.099
87.22000 16.987
87.24000 18.431
87.26000 19.218
87.28000 16.318
87.30000 18.540
87.32000 20.320
87.34000 20.214
87.36000 25.061
87.38000 22.488
87.40000 19.322
87.42000 22.998
87.44000 23.730
87.46000 25.811
87.48000 21.879
87.50000 15.710
87.52000 19.393
87.54000 19.411
87.56000 21.475
87.58000 17.163
87.60000 19.858
87.62000 20.859
87.64000 21.921
87.66000 20.479
87.68000 22.146
87.70000 21.451
87.72000 24.846
87.74000 20.121
87.76000 15.290
87.78000 15.691
87.80000 10.639
87.82000 19.542
87.84000 20.544
87.86000 17.241
87.88000 15.270
87.90000 17.348
87.92000 19.838
87.94000 15.369
87.96000 13.814
87.98000 14.917
88.00000 14.480
88.02000 14.197
88.04000 13.585
88.06000 14.725
88.08000 15.603
88.10000 14.869
88.12000 9.128
88.14000 11.679
88.16000 17.275
88.18000 14.848
88.20000 14.024
88.22000 13.094
88.24000 9.142
88.26000 9.550
88.28000 8.937
88.30000 8.372
88.32000 3.877
88.34000 3.203
88.36000 4.809
88.38000 4.473
88.40000 2.050
88.42000 6.773
88.44000 6.499
88.46000 4.940
88.48000 6.177
88.50000 5.381
88.52000 6.335
88.54000 6.414
88.56000 6.710
88.58000 5.275
88.60000 4.687
88.62000 1.577
88.64000 4.570
88.66000 2.746
88.68000 2.739
88.70000 3.588
88.72000 3.368
88.74000 2.971
88.76000 0.256
88.78000 1.532
88.80000 1.612
88.82000 1.049
88.84000 -1.202
88.86000 0.367
88.88000 1.596
88.90000 1.532
88.92000 6.081
88.94000 2.008
88.96000 3.355
88.98000 2.599
89.00000 2.417
89.02000 -0.393
89.04000 -2.004
89.06000 3.238
89.08000 6.361
89.10000 1.330
89.12000 0.690
89.14000 6.100
89.16000 -1.744
89.18000 -0.635
89.20000 1.436
89.22000 -0.218
89.24000 2.518
89.26000 1.481
89.28000 -2.149
89.30000 -1.188
89.32000 -0.521
89.34000 -0.405
89.36000 -1.647
89.38000 -1.416
89.40000 5.940
89.42000 7.452
89.44000 5.738
89.46000 3.907
89.48000 -0.661
89.50000 1.178
89.52000 2.653
89.54000 1.274
89.56000 2.162
89.58000 5.391
89.60000 0.068
89.62000 3.540
89.64000 1.043
89.66000 0.516
89.68000 4.698
89.70000 2.248
89.72000 1.625
89.74000 5.309
89.76000 4.190
89.78000 2.534
89.80000 2.914
89.82000 5.013
89.84000 1.346
89.86000 4.793
89.88000 2.155
89.90000 5.559
89.92000 4.641
89.94000 2.246
89.96000 4.026
89.98000 4.324
90.00000 2.820
90.02000 2.735
90.04000 2.037
90.06000 1.640
90.08000 -2.096
90.10000 -1.902
90.12000 1.740
90.14000 4.256
90.16000 4.296
90.18000 -0.082
90.20000 0.901
90.22000 -0.241
90.24000 0.089
90.26000 1.149
90.28000 3.008
90.30000 3.101
90.32000 1.849
90.34000 1.966
90.36000 3.534
90.38000 2.290
90.40000 5.351
90.42000 -1.177
90.44000 -0.849
90.46000 0.201
90.48000 2.052
90.50000 6.511
90.52000 3.980
90.54000 5.149
90.56000 5.091
90.58000 5.955
90.60000 6.111
90.62000 0.957
90.64000 -0.111
90.66000 4.562
90.68000 5.481
90.70000 5.327
90.72000 4.713
90.74000 4.783
90.76000 7.491
90.78000 9.719
90.80000 3.877
90.82000 0.752
90.84000 -1.656
90.86000 -2.084
90.88000 1.123
90.90000 -2.029
90.92000 1.310
90.94000 2.016
90.96000 5.974
90.98000 1.639
91.00000 1.491
91.02000 -0.732
91.04000 0.096
91.06000 4.490
91.08000 1.580
91.10000 1.087
91.12000 0.039
91.14000 2.261
91.16000 7.940
91.18000 4.776
91.20000 2.726
91.22000 -0.219
91.24000 3.174
91.26000 3.837
91.28000 4.089
91.30000 2.290
91.32000 4.749
91.34000 5.038
91.36000 3.333
91.38000 -0.135
91.40000 -2.081
91.42000 2.954
91.44000 4.792
91.46000 5.254
91.48000 3.493
91.50000 5.484
91.52000 0.397
91.54000 0.606
91.56000 3.785
91.58000 3.545
91.60000 0.744
91.62000 5.218
91.64000 4.131
91.66000 3.173
91.68000 2.665
91.70000 5.285
91.72000 2.529
91.74000 0.331
91.76000 1.758
91.78000 0.121
91.80000 -1.217
91.82000 -2.091
91.84000 1.428
91.86000 2.119
91.88000 2.121
91.90000 3.693
91.92000 2.677
91.94000 1.887
91.96000 2.584
91.98000 5.025
92.00000 2.077
92.02000 1.734
92.04000 -1.251
92.06000 -0.725
92.08000 6.223
92.10000 2.345
92.12000 3.026
92.14000 4.793
92.16000 3.902
92.18000 7.089
92.20000 2.718
92.22000 2.121
92.24000 1.180
92.26000 1.517
92.28000 0.097
92.30000 3.886
92.32000 -0.031
92.34000 0.619
92.36000 3.831
92.38000 7.258
92.40000 6.881
92.42000 3.331
92.44000 0.238
92.46000 2.574
92.48000 3.764
92.50000 6.488
92.52000 3.192
92.54000 2.179
92.56000 1.691
92.58000 3.316
92.60000 4.403
92.62000 3.675
92.64000 0.557
92.66000 -2.083
92.68000 1.868
92.70000 4.133
92.72000 4.241
92.74000 5.849
92.76000 4.445
92.78000 3.060
92.80000 -0.239
92.82000 1.468
92.84000 2.979
92.86000 1.506
92.88000 0.356
92.90000 2.759
92.92000 1.882
92.94000 -0.865
92.96000 0.763
92.98000 -0.734
93.00000 0.158
93.02000 2.374
93.04000 1.277
93.06000 3.251
93.08000 5.800
93.10000 2.695
93.12000 0.424
93.14000 2.865
93.16000 2.139
93.18000 2.637
93.20000 5.547
93.22000 4.756
93.24000 3.817
93.26000 5.239
93.28000 5.825
93.30000 6.464
93.32000 6.557
93.34000 4.011
93.36000 -2.097
93.38000 1.912
93.40000 1.621
93.42000 1.136
93.44000 3.392
93.46000 3.590
93.48000 2.350
93.50000 1.779
93.52000 -0.344
93.54000 0.131
93.56000 3.699
93.58000 3.711
93.60000 -2.096
93.62000 0.064
93.64000 2.308
93.66000 5.418
93.68000 2.928
93.70000 0.360
93.72000 2.211
93.74000 1.320
93.76000 0.979
93.78000 6.224
93.80000 6.040
93.82000 4.472
93.84000 6.297
93.86000 1.356
93.88000 2.693
93.90000 3.806
93.92000 2.457
93.94000 6.050
93.96000 4.714
93.98000 11.972
94.00000 7.871
94.02000 6.009
94.04000 3.201
94.06000 -1.477
94.08000 2.618
94.10000 2.761
94.12000 -2.093
94.14000 -0.097
94.16000 -1.301
94.18000 1.257
94.20000 0.351
94.22000 4.099
94.24000 5.961
94.26000 7.318
94.28000 4.030
94.30000 4.686
94.32000 0.395
94.34000 1.110
94.36000 3.778
94.38000 0.694
94.40000 4.550
94.42000 3.042
94.44000 4.109
94.46000 11.545
94.48000 7.684
94.50000 4.432
94.52000 8.798
94.54000 9.379
94.56000 5.256
94.58000 6.321
94.60000 4.439
94.62000 3.265
94.64000 0.472
94.66000 2.800
94.68000 3.295
94.70000 6.100
94.72000 1.553
94.74000 2.689
94.76000 4.039
94.78000 6.400
94.80000 4.026
94.82000 0.509
94.84000 -1.635
94.86000 -1.810
94.88000 -2.094
94.90000 0.394
94.92000 4.846
94.94000 4.884
94.96000 7.147
94.98000 3.327
95.00000 3.087
95.02000 1.673
95.04000 2.964
95.06000 3.486
95.08000 2.823
95.10000 5.434
95.12000 9.646
95.14000 7.020
95.16000 3.230
95.18000 6.345
95.20000 2.363
95.22000 2.675
95.24000 7.396
95.26000 11.671
95.28000 4.313
95.30000 5.944
95.32000 10.594
95.34000 8.870
95.36000 4.058
95.38000 3.283
95.40000 -1.307
95.42000 -2.078
95.44000 4.783
95.46000 6.624
95.48000 3.695
95.50000 2.647
95.52000 2.851
95.54000 1.820
95.56000 4.953
95.58000 3.557
95.60000 4.159
95.62000 0.967
95.64000 -1.922
95.66000 5.465
95.68000 4.035
95.70000 4.219
95.72000 5.545
95.74000 4.039
95.76000 4.322
95.78000 7.559
95.80000 5.520
95.82000 3.266
95.84000 1.756
95.86000 -0.128
95.88000 0.821
95.90000 4.881
95.92000 2.812
95.94000 1.704
95.96000 4.092
95.98000 11.135
96.00000 5.262
96.02000 -1.198
96.04000 4.622
96.06000 1.791
96.08000 5.716
96.10000 6.701
96.12000 4.994
96.14000 3.384
96.16000 0.660
96.18000 0.506
96.20000 -0.664
96.22000 0.881
96.24000 8.521
96.26000 3.733
96.28000 8.323
96.30000 1.346
96.32000 2.333
96.34000 3.216
96.36000 5.863
96.38000 -0.464
96.40000 5.965
96.42000 7.894
96.44000 1.813
96.46000 6.361
96.48000 9.228
96.50000 1.129
96.52000 2.552
96.54000 4.434
96.56000 4.390
96.58000 7.136
96.60000 5.360
96.62000 7.051
96.64000 5.426
96.66000 1.694
96.68000 3.542
96.70000 7.135
96.72000 6.094
96.74000 5.602
96.76000 2.079
96.78000 -2.093
96.80000 5.556
96.82000 4.214
96.84000 2.093
96.86000 1.845
96.88000 6.477
96.90000 5.159
96.92000 -1.490
96.94000 -0.282
96.96000 0.551
96.98000 2.578
97.00000 1.868
97.02000 3.714
97.04000 -1.290
97.06000 0.531
97.08000 2.234
97.10000 1.317
97.12000 -0.787
97.14000 0.978
97.16000 0.512
97.18000 5.605
97.20000 4.839
97.22000 6.871
97.24000 5.062
97.26000 2.496
97.28000 -1.245
97.30000 2.975
97.32000 1.567
97.34000 0.822
97.36000 -1.076
97.38000 5.869
97.40000 5.468
97.42000 -1.743
97.44000 2.454
97.46000 6.198
97.48000 4.053
97.50000 0.968
97.52000 0.389
97.54000 0.735
97.56000 2.634
97.58000 2.344
97.60000 -0.141
97.62000 3.598
97.64000 8.438
97.66000 11.163
97.68000 8.621
97.70000 7.117
97.72000 7.322
97.74000 7.351
97.76000 3.393
97.78000 1.410
97.80000 2.065
97.82000 3.568
97.84000 7.283
97.86000 7.434
97.88000 4.302
97.90000 4.154
97.92000 10.876
97.94000 8.326
97.96000 7.488
97.98000 8.151
98.00000 9.622
98.02000 7.344
98.04000 3.975
98.06000 6.478
98.08000 6.115
98.10000 1.134
98.12000 -0.554
98.14000 1.830
98.16000 12.491
98.18000 9.238
98.20000 8.444
98.22000 5.630
98.24000 2.631
98.26000 1.622
98.28000 1.687
98.30000 3.611
98.32000 5.765
98.34000 1.324
98.36000 1.500
98.38000 4.096
98.40000 -2.013
98.42000 1.589
98.44000 5.631
98.46000 3.849
98.48000 8.646
98.50000 10.285
98.52000 9.898
98.54000 9.047
98.56000 6.896
98.58000 6.870
98.60000 5.741
98.62000 -1.535
98.64000 3.106
98.66000 10.015
98.68000 5.476
98.70000 4.590
98.72000 4.133
98.74000 3.294
98.76000 8.785
98.78000 5.683
98.80000 1.131
98.82000 0.880
98.84000 2.688
98.86000 4.582
98.88000 6.505
98.90000 2.967
98.92000 3.927
98.94000 1.642
98.96000 4.047
98.98000 1.411
99.00000 8.360
99.02000 8.696
99.04000 9.593
99.06000 1.049
99.08000 6.609
99.10000 4.583
99.12000 -0.625
99.14000 -0.439
99.16000 -0.936
99.18000 6.274
99.20000 7.856
99.22000 6.947
99.24000 5.722
99.26000 12.326
99.28000 3.981
99.30000 12.366
99.32000 15.398
99.34000 5.590
99.36000 8.043
99.38000 6.187
99.40000 0.858
99.42000 0.098
99.44000 6.607
99.46000 7.770
99.48000 3.225
99.50000 8.074
99.52000 2.816
99.54000 1.230
99.56000 4.084
99.58000 -2.043
99.60000 4.435
99.62000 7.949
99.64000 14.751
99.66000 11.312
99.68000 6.053
99.70000 4.296
99.72000 6.244
99.74000 16.423
99.76000 11.459
99.78000 8.563
99.80000 14.245
99.82000 10.732
99.84000 -0.021
99.86000 -2.070
99.88000 7.666
99.90000 14.180
99.92000 9.152
99.94000 4.566
99.96000 11.562
99.98000 0.000
