'Id: "0011387" Comment: "Integrate frame 0011387_Au-Ir-Rh_Rh-rich_XRD-Mapping-304-0000.gfrmwith cursor Wedge Cursor #5" Operator: "B?rgel" Anode: "Cu" Wavelength: "1.5406" Scantype: "2Theta (TwoTheta)" TimePerStep: "1" X: "4.5" Y: "31.5" Z: "5.95" 
10.00000 0.000
10.02000 9.244
10.04000 6.733
10.06000 7.601
10.08000 -4.255
10.10000 0.090
10.12000 31.288
10.14000 29.979
10.16000 29.256
10.18000 14.448
10.20000 16.737
10.22000 16.395
10.24000 14.515
10.26000 16.220
10.28000 13.467
10.30000 31.795
10.32000 9.696
10.34000 0.564
10.36000 -4.233
10.38000 0.812
10.40000 17.821
10.42000 14.720
10.44000 7.649
10.46000 2.178
10.48000 6.629
10.50000 11.679
10.52000 13.354
10.54000 17.247
10.56000 17.042
10.58000 24.399
10.60000 21.424
10.62000 12.188
10.64000 0.135
10.66000 13.854
10.68000 5.979
10.70000 10.403
10.72000 0.876
10.74000 10.313
10.76000 8.850
10.78000 3.626
10.80000 13.492
10.82000 8.220
10.84000 0.478
10.86000 22.998
10.88000 4.489
10.90000 6.881
10.92000 15.508
10.94000 24.809
10.96000 18.764
10.98000 19.861
11.00000 20.966
11.02000 23.150
11.04000 25.468
11.06000 23.648
11.08000 31.217
11.10000 30.819
11.12000 26.118
11.14000 11.662
11.16000 13.966
11.18000 19.063
11.20000 16.721
11.22000 22.752
11.24000 31.134
11.26000 31.514
11.28000 22.067
11.30000 23.351
11.32000 28.913
11.34000 29.184
11.36000 7.616
11.38000 12.520
11.40000 18.487
11.42000 5.892
11.44000 -4.295
11.46000 2.752
11.48000 21.493
11.50000 18.136
11.52000 9.802
11.54000 11.764
11.56000 20.555
11.58000 22.786
11.60000 25.524
11.62000 17.000
11.64000 10.980
11.66000 4.831
11.68000 14.106
11.70000 26.253
11.72000 21.383
11.74000 11.245
11.76000 11.308
11.78000 15.407
11.80000 15.185
11.82000 21.351
11.84000 15.394
11.86000 5.843
11.88000 5.782
11.90000 11.288
11.92000 15.856
11.94000 16.298
11.96000 18.692
11.98000 11.241
12.00000 16.630
12.02000 11.659
12.04000 3.786
12.06000 15.564
12.08000 20.438
12.10000 22.300
12.12000 16.585
12.14000 20.904
12.16000 18.310
12.18000 14.100
12.20000 25.225
12.22000 20.475
12.24000 10.983
12.26000 7.094
12.28000 12.818
12.30000 25.535
12.32000 22.989
12.34000 26.578
12.36000 15.188
12.38000 10.025
12.40000 18.038
12.42000 15.915
12.44000 8.113
12.46000 23.746
12.48000 24.320
12.50000 15.172
12.52000 15.920
12.54000 16.373
12.56000 10.097
12.58000 8.514
12.60000 15.043
12.62000 17.708
12.64000 16.366
12.66000 27.387
12.68000 33.572
12.70000 28.714
12.72000 24.372
12.74000 18.760
12.76000 12.026
12.78000 15.522
12.80000 11.117
12.82000 6.523
12.84000 14.485
12.86000 18.354
12.88000 12.187
12.90000 21.582
12.92000 26.587
12.94000 10.902
12.96000 6.656
12.98000 11.707
13.00000 10.871
13.02000 6.638
13.04000 9.492
13.06000 20.387
13.08000 14.886
13.10000 10.476
13.12000 5.966
13.14000 12.143
13.16000 12.026
13.18000 17.183
13.20000 10.501
13.22000 16.206
13.24000 14.152
13.26000 12.945
13.28000 9.683
13.30000 12.572
13.32000 10.906
13.34000 13.751
13.36000 17.998
13.38000 18.305
13.40000 19.379
13.42000 6.309
13.44000 -1.622
13.46000 0.019
13.48000 8.845
13.50000 26.359
13.52000 22.946
13.54000 10.788
13.56000 10.412
13.58000 5.538
13.60000 -2.442
13.62000 6.921
13.64000 15.101
13.66000 16.210
13.68000 7.452
13.70000 10.129
13.72000 7.556
13.74000 13.278
13.76000 19.743
13.78000 19.470
13.80000 12.239
13.82000 10.236
13.84000 10.751
13.86000 1.722
13.88000 11.774
13.90000 19.233
13.92000 18.713
13.94000 9.143
13.96000 14.031
13.98000 15.571
14.00000 12.626
14.02000 9.918
14.04000 13.825
14.06000 12.069
14.08000 20.448
14.10000 13.614
14.12000 5.941
14.14000 11.981
14.16000 13.443
14.18000 5.404
14.20000 4.771
14.22000 13.391
14.24000 12.752
14.26000 13.380
14.28000 7.883
14.30000 6.247
14.32000 7.534
14.34000 10.262
14.36000 17.375
14.38000 21.422
14.40000 17.124
14.42000 21.421
14.44000 22.056
14.46000 24.553
14.48000 23.069
14.50000 18.731
14.52000 21.278
14.54000 10.539
14.56000 3.720
14.58000 -1.261
14.60000 6.794
14.62000 9.176
14.64000 11.036
14.66000 15.428
14.68000 16.853
14.70000 9.815
14.72000 11.694
14.74000 5.853
14.76000 9.973
14.78000 7.722
14.80000 5.471
14.82000 11.542
14.84000 8.481
14.86000 7.460
14.88000 5.766
14.90000 9.295
14.92000 10.421
14.94000 4.976
14.96000 6.834
14.98000 14.041
15.00000 27.832
15.02000 14.149
15.04000 6.545
15.06000 4.162
15.08000 12.307
15.10000 9.338
15.12000 9.293
15.14000 3.895
15.16000 3.921
15.18000 1.679
15.20000 8.508
15.22000 9.016
15.24000 9.636
15.26000 8.062
15.28000 0.853
15.30000 8.487
15.32000 14.457
15.34000 3.952
15.36000 4.984
15.38000 8.098
15.40000 4.506
15.42000 2.211
15.44000 12.709
15.46000 10.592
15.48000 8.111
15.50000 -0.351
15.52000 1.453
15.54000 -0.079
15.56000 10.085
15.58000 12.664
15.60000 18.359
15.62000 13.288
15.64000 11.462
15.66000 10.897
15.68000 4.525
15.70000 12.701
15.72000 11.816
15.74000 6.723
15.76000 12.613
15.78000 17.737
15.80000 20.286
15.82000 11.888
15.84000 14.077
15.86000 8.593
15.88000 7.667
15.90000 10.879
15.92000 9.315
15.94000 1.732
15.96000 0.348
15.98000 5.702
16.00000 6.888
16.02000 8.759
16.04000 6.773
16.06000 1.101
16.08000 4.147
16.10000 3.056
16.12000 4.931
16.14000 10.280
16.16000 -1.483
16.18000 -3.909
16.20000 1.459
16.22000 8.270
16.24000 5.712
16.26000 9.871
16.28000 5.448
16.30000 4.410
16.32000 8.602
16.34000 11.369
16.36000 12.512
16.38000 11.802
16.40000 10.938
16.42000 10.143
16.44000 8.553
16.46000 10.896
16.48000 10.287
16.50000 5.858
16.52000 15.698
16.54000 13.995
16.56000 5.355
16.58000 -4.382
16.60000 0.209
16.62000 4.889
16.64000 5.185
16.66000 9.075
16.68000 5.136
16.70000 0.055
16.72000 13.895
16.74000 13.204
16.76000 9.468
16.78000 6.153
16.80000 5.317
16.82000 8.431
16.84000 12.404
16.86000 12.907
16.88000 11.849
16.90000 9.410
16.92000 12.986
16.94000 15.287
16.96000 18.377
16.98000 13.824
17.00000 10.482
17.02000 7.165
17.04000 10.982
17.06000 18.375
17.08000 16.806
17.10000 5.004
17.12000 0.564
17.14000 7.041
17.16000 12.941
17.18000 16.441
17.20000 14.487
17.22000 7.836
17.24000 9.299
17.26000 14.898
17.28000 6.160
17.30000 7.214
17.32000 5.794
17.34000 12.328
17.36000 15.577
17.38000 8.585
17.40000 10.208
17.42000 5.579
17.44000 6.471
17.46000 12.549
17.48000 17.464
17.50000 14.354
17.52000 6.257
17.54000 1.206
17.56000 6.550
17.58000 14.731
17.60000 9.770
17.62000 9.921
17.64000 18.943
17.66000 20.245
17.68000 9.924
17.70000 5.305
17.72000 10.823
17.74000 12.972
17.76000 5.198
17.78000 3.711
17.80000 12.294
17.82000 13.374
17.84000 7.394
17.86000 4.372
17.88000 8.009
17.90000 8.361
17.92000 11.436
17.94000 5.657
17.96000 -4.311
17.98000 10.927
18.00000 18.764
18.02000 9.936
18.04000 5.415
18.06000 3.771
18.08000 2.054
18.10000 6.125
18.12000 6.535
18.14000 11.571
18.16000 14.429
18.18000 15.998
18.20000 9.981
18.22000 12.043
18.24000 5.423
18.26000 4.739
18.28000 7.942
18.30000 8.789
18.32000 11.580
18.34000 13.256
18.36000 12.399
18.38000 6.191
18.40000 5.945
18.42000 3.950
18.44000 -2.825
18.46000 -4.315
18.48000 4.391
18.50000 8.644
18.52000 9.147
18.54000 9.642
18.56000 3.588
18.58000 8.347
18.60000 2.898
18.62000 4.258
18.64000 8.047
18.66000 10.665
18.68000 12.176
18.70000 9.290
18.72000 6.683
18.74000 4.355
18.76000 4.876
18.78000 -0.148
18.80000 5.037
18.82000 0.481
18.84000 1.707
18.86000 3.379
18.88000 0.539
18.90000 1.833
18.92000 7.763
18.94000 5.158
18.96000 -2.003
18.98000 3.362
19.00000 6.289
19.02000 3.763
19.04000 6.623
19.06000 11.124
19.08000 6.628
19.10000 2.739
19.12000 3.678
19.14000 12.357
19.16000 8.672
19.18000 8.381
19.20000 2.381
19.22000 4.004
19.24000 5.022
19.26000 8.518
19.28000 7.306
19.30000 1.669
19.32000 5.712
19.34000 4.182
19.36000 2.184
19.38000 9.396
19.40000 7.009
19.42000 4.821
19.44000 3.432
19.46000 6.976
19.48000 4.756
19.50000 4.036
19.52000 9.823
19.54000 14.224
19.56000 19.036
19.58000 -2.724
19.60000 -2.393
19.62000 -0.922
19.64000 4.049
19.66000 0.258
19.68000 -2.852
19.70000 -4.282
19.72000 2.383
19.74000 1.009
19.76000 0.427
19.78000 9.239
19.80000 7.263
19.82000 7.806
19.84000 8.351
19.86000 7.368
19.88000 4.748
19.90000 4.118
19.92000 -0.805
19.94000 5.691
19.96000 10.742
19.98000 14.934
20.00000 8.950
20.02000 2.891
20.04000 2.199
20.06000 5.846
20.08000 0.207
20.10000 2.290
20.12000 4.335
20.14000 9.395
20.16000 8.990
20.18000 2.796
20.20000 5.340
20.22000 3.848
20.24000 -4.251
20.26000 -1.447
20.28000 2.661
20.30000 3.617
20.32000 -0.221
20.34000 -1.000
20.36000 -2.620
20.38000 -2.283
20.40000 4.228
20.42000 5.787
20.44000 4.006
20.46000 1.753
20.48000 2.462
20.50000 -1.525
20.52000 -4.069
20.54000 -1.250
20.56000 6.088
20.58000 3.682
20.60000 6.149
20.62000 5.531
20.64000 3.174
20.66000 6.429
20.68000 4.824
20.70000 4.875
20.72000 5.075
20.74000 3.834
20.76000 7.263
20.78000 7.735
20.80000 -2.838
20.82000 0.193
20.84000 1.845
20.86000 5.047
20.88000 1.301
20.90000 3.679
20.92000 4.232
20.94000 -1.074
20.96000 1.241
20.98000 2.907
21.00000 5.791
21.02000 8.953
21.04000 7.883
21.06000 0.866
21.08000 -1.307
21.10000 11.377
21.12000 8.339
21.14000 5.726
21.16000 5.099
21.18000 6.914
21.20000 8.437
21.22000 4.298
21.24000 -2.952
21.26000 -3.914
21.28000 2.283
21.30000 6.461
21.32000 3.487
21.34000 -4.179
21.36000 -2.304
21.38000 -3.720
21.40000 0.952
21.42000 4.444
21.44000 7.624
21.46000 5.233
21.48000 0.755
21.50000 6.527
21.52000 9.809
21.54000 2.131
21.56000 2.887
21.58000 3.306
21.60000 6.278
21.62000 3.834
21.64000 4.200
21.66000 6.779
21.68000 1.822
21.70000 0.223
21.72000 -0.236
21.74000 -4.152
21.76000 0.091
21.78000 6.120
21.80000 4.881
21.82000 12.118
21.84000 8.413
21.86000 8.583
21.88000 0.117
21.90000 -0.008
21.92000 2.885
21.94000 0.300
21.96000 -2.189
21.98000 -3.109
22.00000 2.393
22.02000 3.729
22.04000 1.383
22.06000 3.721
22.08000 1.302
22.10000 3.260
22.12000 3.361
22.14000 8.496
22.16000 6.705
22.18000 7.636
22.20000 6.897
22.22000 3.395
22.24000 8.547
22.26000 8.061
22.28000 2.249
22.30000 4.045
22.32000 7.507
22.34000 3.024
22.36000 4.005
22.38000 7.557
22.40000 11.857
22.42000 5.425
22.44000 -3.745
22.46000 7.597
22.48000 4.921
22.50000 3.988
22.52000 2.157
22.54000 -3.714
22.56000 1.726
22.58000 1.883
22.60000 1.836
22.62000 9.769
22.64000 3.213
22.66000 -1.522
22.68000 3.104
22.70000 6.731
22.72000 2.426
22.74000 4.296
22.76000 -0.144
22.78000 3.367
22.80000 -1.929
22.82000 0.070
22.84000 2.507
22.86000 3.886
22.88000 11.291
22.90000 8.856
22.92000 -4.090
22.94000 -1.389
22.96000 4.163
22.98000 3.005
23.00000 4.291
23.02000 7.160
23.04000 7.262
23.06000 6.701
23.08000 4.587
23.10000 -1.851
23.12000 4.264
23.14000 10.384
23.16000 7.925
23.18000 -1.674
23.20000 -3.244
23.22000 -0.022
23.24000 8.415
23.26000 8.517
23.28000 3.457
23.30000 4.597
23.32000 7.599
23.34000 9.244
23.36000 10.580
23.38000 12.260
23.40000 7.244
23.42000 0.460
23.44000 4.186
23.46000 5.892
23.48000 3.747
23.50000 0.781
23.52000 3.146
23.54000 -2.973
23.56000 -4.033
23.58000 -0.615
23.60000 7.500
23.62000 4.348
23.64000 6.976
23.66000 6.741
23.68000 12.366
23.70000 12.929
23.72000 9.620
23.74000 9.118
23.76000 12.837
23.78000 7.496
23.80000 8.042
23.82000 8.227
23.84000 11.319
23.86000 4.966
23.88000 7.460
23.90000 1.839
23.92000 0.265
23.94000 7.011
23.96000 10.761
23.98000 11.341
24.00000 8.968
24.02000 8.516
24.04000 5.609
24.06000 7.321
24.08000 4.441
24.10000 2.290
24.12000 2.229
24.14000 5.587
24.16000 0.601
24.18000 2.151
24.20000 5.150
24.22000 6.834
24.24000 8.473
24.26000 9.594
24.28000 5.050
24.30000 5.658
24.32000 5.063
24.34000 7.565
24.36000 6.980
24.38000 5.878
24.40000 5.033
24.42000 9.580
24.44000 5.951
24.46000 3.919
24.48000 1.655
24.50000 3.244
24.52000 -1.362
24.54000 0.209
24.56000 -1.953
24.58000 -1.806
24.60000 3.769
24.62000 2.699
24.64000 3.562
24.66000 6.282
24.68000 5.849
24.70000 3.085
24.72000 1.318
24.74000 10.901
24.76000 8.550
24.78000 5.285
24.80000 0.296
24.82000 -3.984
24.84000 7.177
24.86000 7.303
24.88000 9.588
24.90000 8.105
24.92000 8.498
24.94000 3.076
24.96000 4.172
24.98000 1.681
25.00000 2.197
25.02000 -1.439
25.04000 0.844
25.06000 -1.971
25.08000 5.477
25.10000 7.209
25.12000 7.005
25.14000 6.046
25.16000 4.023
25.18000 -1.646
25.20000 -1.426
25.22000 -3.972
25.24000 3.219
25.26000 3.914
25.28000 4.312
25.30000 3.540
25.32000 4.378
25.34000 5.191
25.36000 4.736
25.38000 1.648
25.40000 -1.775
25.42000 0.383
25.44000 -2.184
25.46000 -1.185
25.48000 0.073
25.50000 6.031
25.52000 0.788
25.54000 5.275
25.56000 2.848
25.58000 7.358
25.60000 4.809
25.62000 3.843
25.64000 4.911
25.66000 5.891
25.68000 4.655
25.70000 8.219
25.72000 6.142
25.74000 0.149
25.76000 -2.649
25.78000 -2.962
25.80000 -3.964
25.82000 -2.717
25.84000 1.891
25.86000 -0.055
25.88000 2.452
25.90000 3.287
25.92000 5.868
25.94000 0.559
25.96000 -2.950
25.98000 -2.362
26.00000 2.863
26.02000 5.612
26.04000 2.878
26.06000 -0.040
26.08000 0.553
26.10000 2.993
26.12000 6.175
26.14000 2.265
26.16000 0.165
26.18000 -0.064
26.20000 1.115
26.22000 -1.079
26.24000 2.365
26.26000 0.008
26.28000 0.752
26.30000 2.633
26.32000 0.418
26.34000 2.149
26.36000 0.540
26.38000 0.132
26.40000 2.224
26.42000 0.951
26.44000 4.361
26.46000 8.896
26.48000 0.462
26.50000 1.712
26.52000 2.686
26.54000 3.387
26.56000 3.734
26.58000 -0.163
26.60000 -3.482
26.62000 -3.931
26.64000 4.811
26.66000 1.503
26.68000 0.134
26.70000 -3.483
26.72000 -1.410
26.74000 2.661
26.76000 0.575
26.78000 3.312
26.80000 1.289
26.82000 6.360
26.84000 6.172
26.86000 2.631
26.88000 0.657
26.90000 3.170
26.92000 -1.351
26.94000 -2.181
26.96000 -1.523
26.98000 -1.936
27.00000 1.953
27.02000 4.274
27.04000 6.427
27.06000 -1.270
27.08000 -1.891
27.10000 2.601
27.12000 5.812
27.14000 6.649
27.16000 7.016
27.18000 5.872
27.20000 5.236
27.22000 5.228
27.24000 2.030
27.26000 -2.887
27.28000 1.242
27.30000 2.428
27.32000 4.832
27.34000 4.200
27.36000 2.820
27.38000 -0.988
27.40000 0.060
27.42000 2.872
27.44000 0.191
27.46000 1.082
27.48000 5.542
27.50000 9.676
27.52000 0.413
27.54000 -0.348
27.56000 -1.574
27.58000 -0.111
27.60000 -0.667
27.62000 -0.168
27.64000 1.342
27.66000 2.176
27.68000 -0.206
27.70000 3.640
27.72000 5.967
27.74000 2.681
27.76000 -0.703
27.78000 1.926
27.80000 4.112
27.82000 1.803
27.84000 4.203
27.86000 4.526
27.88000 6.052
27.90000 1.739
27.92000 1.072
27.94000 2.002
27.96000 -0.627
27.98000 2.486
28.00000 0.827
28.02000 -3.824
28.04000 -2.659
28.06000 5.391
28.08000 9.510
28.10000 5.288
28.12000 1.719
28.14000 3.391
28.16000 4.839
28.18000 2.532
28.20000 5.686
28.22000 5.773
28.24000 8.455
28.26000 8.612
28.28000 4.866
28.30000 4.224
28.32000 5.188
28.34000 6.372
28.36000 -2.119
28.38000 -2.813
28.40000 -0.147
28.42000 -2.186
28.44000 5.364
28.46000 3.026
28.48000 -0.257
28.50000 1.736
28.52000 -2.491
28.54000 -3.795
28.56000 0.833
28.58000 4.453
28.60000 3.793
28.62000 3.521
28.64000 0.484
28.66000 2.998
28.68000 7.095
28.70000 3.020
28.72000 4.584
28.74000 2.916
28.76000 2.132
28.78000 -1.593
28.80000 -2.427
28.82000 0.912
28.84000 2.971
28.86000 5.161
28.88000 5.677
28.90000 4.459
28.92000 0.170
28.94000 2.359
28.96000 1.262
28.98000 -2.234
29.00000 -1.132
29.02000 2.315
29.04000 5.709
29.06000 5.363
29.08000 1.120
29.10000 -0.197
29.12000 0.209
29.14000 2.349
29.16000 5.313
29.18000 4.616
29.20000 3.946
29.22000 5.196
29.24000 4.048
29.26000 3.623
29.28000 2.442
29.30000 1.098
29.32000 4.248
29.34000 3.918
29.36000 2.781
29.38000 3.236
29.40000 2.359
29.42000 -0.603
29.44000 -2.955
29.46000 -2.981
29.48000 4.358
29.50000 3.594
29.52000 -0.974
29.54000 1.742
29.56000 3.882
29.58000 3.162
29.60000 3.092
29.62000 6.552
29.64000 4.066
29.66000 2.315
29.68000 4.250
29.70000 5.752
29.72000 6.452
29.74000 2.673
29.76000 3.071
29.78000 2.568
29.80000 0.874
29.82000 4.725
29.84000 7.092
29.86000 2.922
29.88000 4.535
29.90000 0.263
29.92000 0.079
29.94000 -1.856
29.96000 2.097
29.98000 7.703
30.00000 12.062
30.02000 6.691
30.04000 2.512
30.06000 9.185
30.08000 -1.381
30.10000 -0.583
30.12000 0.996
30.14000 2.863
30.16000 1.824
30.18000 3.604
30.20000 2.972
30.22000 4.425
30.24000 8.236
30.26000 2.722
30.28000 -0.599
30.30000 -2.705
30.32000 -0.885
30.34000 2.136
30.36000 7.899
30.38000 3.965
30.40000 -0.544
30.42000 -1.166
30.44000 3.560
30.46000 3.790
30.48000 4.257
30.50000 3.390
30.52000 3.288
30.54000 3.024
30.56000 3.525
30.58000 2.580
30.60000 5.874
30.62000 8.680
30.64000 8.197
30.66000 3.825
30.68000 0.332
30.70000 -0.936
30.72000 -3.650
30.74000 0.245
30.76000 4.910
30.78000 3.464
30.80000 3.617
30.82000 4.901
30.84000 4.635
30.86000 3.912
30.88000 0.805
30.90000 -0.351
30.92000 4.320
30.94000 3.065
30.96000 4.849
30.98000 3.754
31.00000 6.231
31.02000 7.426
31.04000 7.258
31.06000 8.629
31.08000 5.408
31.10000 4.086
31.12000 6.913
31.14000 9.550
31.16000 5.827
31.18000 4.195
31.20000 0.703
31.22000 4.686
31.24000 -0.373
31.26000 0.609
31.28000 2.369
31.30000 4.079
31.32000 3.210
31.34000 4.801
31.36000 6.959
31.38000 4.863
31.40000 0.468
31.42000 2.822
31.44000 2.197
31.46000 -0.577
31.48000 6.265
31.50000 10.409
31.52000 8.823
31.54000 8.508
31.56000 6.273
31.58000 3.419
31.60000 2.818
31.62000 7.685
31.64000 3.461
31.66000 7.191
31.68000 6.438
31.70000 3.318
31.72000 7.229
31.74000 7.245
31.76000 4.399
31.78000 0.554
31.80000 5.449
31.82000 2.089
31.84000 -0.159
31.86000 6.131
31.88000 3.540
31.90000 0.965
31.92000 5.655
31.94000 3.312
31.96000 2.948
31.98000 6.444
32.00000 5.760
32.02000 6.611
32.04000 8.485
32.06000 9.698
32.08000 0.417
32.10000 4.187
32.12000 3.599
32.14000 3.333
32.16000 10.512
32.18000 6.136
32.20000 8.990
32.22000 8.480
32.24000 6.532
32.26000 4.323
32.28000 4.177
32.30000 7.305
32.32000 6.651
32.34000 5.268
32.36000 4.741
32.38000 4.527
32.40000 6.002
32.42000 5.159
32.44000 8.972
32.46000 7.122
32.48000 1.183
32.50000 1.063
32.52000 2.019
32.54000 -2.779
32.56000 -3.571
32.58000 3.406
32.60000 5.796
32.62000 7.404
32.64000 6.698
32.66000 8.936
32.68000 0.404
32.70000 1.831
32.72000 3.458
32.74000 5.579
32.76000 1.370
32.78000 5.414
32.80000 7.594
32.82000 6.009
32.84000 5.895
32.86000 6.843
32.88000 6.656
32.90000 8.223
32.92000 6.833
32.94000 3.026
32.96000 6.059
32.98000 3.760
33.00000 4.088
33.02000 3.119
33.04000 2.259
33.06000 2.480
33.08000 0.485
33.10000 3.000
33.12000 4.816
33.14000 2.569
33.16000 5.568
33.18000 4.859
33.20000 4.391
33.22000 0.532
33.24000 -0.085
33.26000 3.254
33.28000 4.622
33.30000 -0.042
33.32000 -0.469
33.34000 2.385
33.36000 4.401
33.38000 -0.216
33.40000 2.046
33.42000 1.449
33.44000 -0.152
33.46000 3.047
33.48000 8.957
33.50000 2.948
33.52000 -3.603
33.54000 2.718
33.56000 6.366
33.58000 4.471
33.60000 5.883
33.62000 7.014
33.64000 4.206
33.66000 2.527
33.68000 4.016
33.70000 -0.915
33.72000 -0.587
33.74000 4.895
33.76000 1.133
33.78000 1.737
33.80000 8.340
33.82000 8.681
33.84000 3.459
33.86000 0.238
33.88000 3.636
33.90000 2.642
33.92000 -0.631
33.94000 1.327
33.96000 -0.317
33.98000 -0.539
34.00000 0.724
34.02000 -0.109
34.04000 -0.473
34.06000 1.930
34.08000 9.258
34.10000 9.406
34.12000 0.930
34.14000 -0.594
34.16000 2.255
34.18000 3.744
34.20000 3.348
34.22000 -3.062
34.24000 0.190
34.26000 0.090
34.28000 -0.456
34.30000 -1.585
34.32000 1.643
34.34000 2.627
34.36000 -0.250
34.38000 -0.910
34.40000 -0.311
34.42000 -0.393
34.44000 0.574
34.46000 2.451
34.48000 0.299
34.50000 -1.702
34.52000 -1.930
34.54000 2.170
34.56000 5.097
34.58000 4.006
34.60000 -1.171
34.62000 -3.584
34.64000 1.929
34.66000 4.515
34.68000 7.674
34.70000 6.567
34.72000 2.345
34.74000 1.337
34.76000 1.179
34.78000 1.915
34.80000 -0.714
34.82000 1.673
34.84000 -1.725
34.86000 -0.685
34.88000 1.365
34.90000 1.001
34.92000 3.136
34.94000 5.909
34.96000 -0.292
34.98000 -2.064
35.00000 2.330
35.02000 7.847
35.04000 3.611
35.06000 2.856
35.08000 -0.500
35.10000 3.712
35.12000 6.657
35.14000 1.393
35.16000 1.759
35.18000 -1.530
35.20000 3.212
35.22000 4.126
35.24000 -0.971
35.26000 -1.579
35.28000 -1.334
35.30000 0.866
35.32000 4.150
35.34000 1.872
35.36000 -3.545
35.38000 -1.526
35.40000 -0.440
35.42000 0.007
35.44000 -1.328
35.46000 -0.624
35.48000 -1.933
35.50000 2.676
35.52000 4.184
35.54000 0.851
35.56000 3.546
35.58000 2.775
35.60000 -1.756
35.62000 3.888
35.64000 7.967
35.66000 3.403
35.68000 1.825
35.70000 0.707
35.72000 2.596
35.74000 3.121
35.76000 0.976
35.78000 11.179
35.80000 8.004
35.82000 8.877
35.84000 4.455
35.86000 -3.027
35.88000 -0.212
35.90000 1.494
35.92000 2.079
35.94000 5.171
35.96000 3.552
35.98000 5.701
36.00000 1.302
36.02000 -2.020
36.04000 -2.115
36.06000 0.307
36.08000 1.289
36.10000 -0.170
36.12000 1.793
36.14000 3.342
36.16000 3.827
36.18000 1.066
36.20000 -2.031
36.22000 -3.597
36.24000 0.009
36.26000 1.629
36.28000 1.422
36.30000 0.089
36.32000 2.428
36.34000 3.890
36.36000 6.671
36.38000 2.605
36.40000 0.403
36.42000 0.864
36.44000 -0.405
36.46000 3.240
36.48000 6.615
36.50000 1.681
36.52000 -1.355
36.54000 3.999
36.56000 4.524
36.58000 1.635
36.60000 -1.333
36.62000 2.742
36.64000 5.378
36.66000 5.517
36.68000 3.352
36.70000 2.822
36.72000 1.608
36.74000 -3.341
36.76000 0.876
36.78000 7.403
36.80000 5.929
36.82000 -1.649
36.84000 -3.626
36.86000 3.131
36.88000 7.649
36.90000 1.558
36.92000 0.150
36.94000 0.350
36.96000 3.482
36.98000 -0.181
37.00000 2.893
37.02000 4.609
37.04000 5.951
37.06000 4.163
37.08000 5.774
37.10000 6.905
37.12000 0.748
37.14000 2.508
37.16000 -3.638
37.18000 0.807
37.20000 0.411
37.22000 2.398
37.24000 2.735
37.26000 1.367
37.28000 2.085
37.30000 -0.266
37.32000 -2.145
37.34000 0.902
37.36000 3.227
37.38000 1.903
37.40000 -0.213
37.42000 3.237
37.44000 6.335
37.46000 8.119
37.48000 9.736
37.50000 7.279
37.52000 3.683
37.54000 7.418
37.56000 4.131
37.58000 2.772
37.60000 4.394
37.62000 3.375
37.64000 11.346
37.66000 12.157
37.68000 8.770
37.70000 3.463
37.72000 2.295
37.74000 6.473
37.76000 8.037
37.78000 9.031
37.80000 5.809
37.82000 6.850
37.84000 14.977
37.86000 11.935
37.88000 8.003
37.90000 9.272
37.92000 8.121
37.94000 7.152
37.96000 4.960
37.98000 7.351
38.00000 11.786
38.02000 14.107
38.04000 16.336
38.06000 11.232
38.08000 10.822
38.10000 13.801
38.12000 13.984
38.14000 17.913
38.16000 16.284
38.18000 19.710
38.20000 20.715
38.22000 15.684
38.24000 22.598
38.26000 21.522
38.28000 21.444
38.30000 20.675
38.32000 21.630
38.34000 26.744
38.36000 32.754
38.38000 32.833
38.40000 36.075
38.42000 32.400
38.44000 26.264
38.46000 29.124
38.48000 29.397
38.50000 32.976
38.52000 33.927
38.54000 34.776
38.56000 40.006
38.58000 39.424
38.60000 36.769
38.62000 39.433
38.64000 42.304
38.66000 42.936
38.68000 49.346
38.70000 49.836
38.72000 48.715
38.74000 47.990
38.76000 51.191
38.78000 53.923
38.80000 59.709
38.82000 65.333
38.84000 62.114
38.86000 60.587
38.88000 60.538
38.90000 67.024
38.92000 72.990
38.94000 71.026
38.96000 79.475
38.98000 87.284
39.00000 91.847
39.02000 86.985
39.04000 93.584
39.06000 96.863
39.08000 99.032
39.10000 102.591
39.12000 103.454
39.14000 107.781
39.16000 118.279
39.18000 128.419
39.20000 134.015
39.22000 141.579
39.24000 141.288
39.26000 148.337
39.28000 163.737
39.30000 169.947
39.32000 170.745
39.34000 174.892
39.36000 187.517
39.38000 193.960
39.40000 206.047
39.42000 216.068
39.44000 227.674
39.46000 243.299
39.48000 252.686
39.50000 257.971
39.52000 277.892
39.54000 297.191
39.56000 309.683
39.58000 320.105
39.60000 335.773
39.62000 350.525
39.64000 370.953
39.66000 390.628
39.68000 407.839
39.70000 436.246
39.72000 447.567
39.74000 465.387
39.76000 490.491
39.78000 501.450
39.80000 517.898
39.82000 521.476
39.84000 543.987
39.86000 568.495
39.88000 584.485
39.90000 596.836
39.92000 615.938
39.94000 634.309
39.96000 634.378
39.98000 641.027
40.00000 641.788
40.02000 653.882
40.04000 652.563
40.06000 645.254
40.08000 640.036
40.10000 648.491
40.12000 652.592
40.14000 642.020
40.16000 629.559
40.18000 613.389
40.20000 602.063
40.22000 586.608
40.24000 571.783
40.26000 559.340
40.28000 546.946
40.30000 536.435
40.32000 525.819
40.34000 507.617
40.36000 487.202
40.38000 465.214
40.40000 443.370
40.42000 426.506
40.44000 412.187
40.46000 386.465
40.48000 361.475
40.50000 343.639
40.52000 331.232
40.54000 312.591
40.56000 302.989
40.58000 298.873
40.60000 280.048
40.62000 262.501
40.64000 249.959
40.66000 235.437
40.68000 218.189
40.70000 207.041
40.72000 199.371
40.74000 182.009
40.76000 172.859
40.78000 166.550
40.80000 158.671
40.82000 148.550
40.84000 143.357
40.86000 130.606
40.88000 120.891
40.90000 119.029
40.92000 112.864
40.94000 103.028
40.96000 97.936
40.98000 102.686
41.00000 91.385
41.02000 84.583
41.04000 81.108
41.06000 75.046
41.08000 70.565
41.10000 63.187
41.12000 60.306
41.14000 57.368
41.16000 52.030
41.18000 50.888
41.20000 54.045
41.22000 49.511
41.24000 40.186
41.26000 43.235
41.28000 46.417
41.30000 44.889
41.32000 42.128
41.34000 36.664
41.36000 32.330
41.38000 29.257
41.40000 30.462
41.42000 26.253
41.44000 26.528
41.46000 25.452
41.48000 25.578
41.50000 26.401
41.52000 28.384
41.54000 25.721
41.56000 21.793
41.58000 22.185
41.60000 19.118
41.62000 18.138
41.64000 15.586
41.66000 16.970
41.68000 14.565
41.70000 11.884
41.72000 11.059
41.74000 11.676
41.76000 11.019
41.78000 12.145
41.80000 11.901
41.82000 9.655
41.84000 12.180
41.86000 13.968
41.88000 10.836
41.90000 9.192
41.92000 6.560
41.94000 6.963
41.96000 6.208
41.98000 6.411
42.00000 3.249
42.02000 3.482
42.04000 4.615
42.06000 5.422
42.08000 6.171
42.10000 7.994
42.12000 6.135
42.14000 3.329
42.16000 7.069
42.18000 8.808
42.20000 1.005
42.22000 -0.001
42.24000 2.601
42.26000 1.684
42.28000 1.749
42.30000 1.048
42.32000 1.806
42.34000 5.355
42.36000 1.658
42.38000 3.091
42.40000 5.648
42.42000 6.302
42.44000 2.824
42.46000 4.542
42.48000 2.653
42.50000 1.203
42.52000 7.303
42.54000 -0.287
42.56000 0.849
42.58000 2.152
42.60000 -1.929
42.62000 0.024
42.64000 -2.774
42.66000 -0.835
42.68000 3.879
42.70000 0.865
42.72000 4.575
42.74000 6.975
42.76000 8.054
42.78000 3.507
42.80000 2.223
42.82000 1.889
42.84000 3.928
42.86000 4.086
42.88000 2.322
42.90000 -1.842
42.92000 -3.427
42.94000 0.866
42.96000 3.358
42.98000 0.708
43.00000 1.411
43.02000 3.803
43.04000 4.366
43.06000 4.796
43.08000 4.484
43.10000 1.621
43.12000 -0.408
43.14000 1.639
43.16000 5.225
43.18000 3.713
43.20000 6.355
43.22000 2.741
43.24000 -0.702
43.26000 -0.525
43.28000 5.912
43.30000 3.545
43.32000 -1.256
43.34000 -0.601
43.36000 -0.074
43.38000 0.929
43.40000 4.154
43.42000 4.925
43.44000 1.449
43.46000 3.033
43.48000 3.340
43.50000 5.129
43.52000 2.974
43.54000 1.252
43.56000 0.206
43.58000 4.592
43.60000 2.019
43.62000 -2.335
43.64000 -1.579
43.66000 -2.121
43.68000 -2.277
43.70000 -3.361
43.72000 -3.001
43.74000 1.283
43.76000 1.991
43.78000 0.303
43.80000 5.288
43.82000 2.167
43.84000 -3.359
43.86000 -3.261
43.88000 0.330
43.90000 2.117
43.92000 2.435
43.94000 4.281
43.96000 3.831
43.98000 1.275
44.00000 0.717
44.02000 1.060
44.04000 0.305
44.06000 1.084
44.08000 -1.177
44.10000 -0.667
44.12000 1.815
44.14000 1.397
44.16000 2.444
44.18000 4.039
44.20000 4.009
44.22000 2.971
44.24000 2.286
44.26000 1.393
44.28000 -1.325
44.30000 -2.550
44.32000 -2.382
44.34000 1.961
44.36000 2.961
44.38000 1.367
44.40000 3.504
44.42000 1.316
44.44000 2.691
44.46000 -2.297
44.48000 -1.358
44.50000 -0.260
44.52000 1.591
44.54000 -2.916
44.56000 -2.052
44.58000 4.745
44.60000 0.501
44.62000 -0.085
44.64000 3.773
44.66000 0.661
44.68000 -0.659
44.70000 -0.032
44.72000 1.582
44.74000 2.623
44.76000 1.155
44.78000 3.502
44.80000 4.076
44.82000 6.250
44.84000 1.236
44.86000 7.199
44.88000 5.700
44.90000 6.330
44.92000 9.565
44.94000 9.617
44.96000 8.032
44.98000 7.302
45.00000 7.040
45.02000 2.566
45.04000 3.973
45.06000 6.621
45.08000 12.661
45.10000 9.368
45.12000 4.168
45.14000 10.688
45.16000 13.060
45.18000 10.298
45.20000 7.640
45.22000 9.451
45.24000 12.203
45.26000 11.753
45.28000 16.663
45.30000 12.901
45.32000 15.343
45.34000 19.478
45.36000 22.557
45.38000 18.259
45.40000 20.706
45.42000 17.911
45.44000 17.543
45.46000 18.357
45.48000 18.042
45.50000 21.337
45.52000 25.905
45.54000 25.552
45.56000 22.813
45.58000 26.620
45.60000 28.003
45.62000 29.888
45.64000 26.169
45.66000 26.279
45.68000 32.457
45.70000 31.677
45.72000 29.706
45.74000 29.304
45.76000 34.887
45.78000 35.951
45.80000 34.159
45.82000 37.409
45.84000 42.013
45.86000 41.405
45.88000 41.898
45.90000 41.875
45.92000 43.561
45.94000 46.844
45.96000 52.924
45.98000 51.467
46.00000 51.722
46.02000 51.855
46.04000 57.684
46.06000 57.982
46.08000 61.398
46.10000 60.096
46.12000 60.727
46.14000 65.735
46.16000 71.415
46.18000 74.396
46.20000 75.308
46.22000 74.994
46.24000 74.272
46.26000 76.543
46.28000 77.983
46.30000 80.411
46.32000 80.720
46.34000 85.344
46.36000 86.513
46.38000 92.930
46.40000 90.746
46.42000 92.808
46.44000 97.538
46.46000 102.496
46.48000 99.298
46.50000 96.134
46.52000 100.009
46.54000 106.165
46.56000 107.695
46.58000 104.269
46.60000 103.301
46.62000 109.374
46.64000 112.135
46.66000 109.829
46.68000 106.826
46.70000 106.416
46.72000 111.117
46.74000 117.095
46.76000 109.175
46.78000 106.474
46.80000 109.699
46.82000 106.332
46.84000 106.166
46.86000 105.543
46.88000 100.235
46.90000 103.331
46.92000 108.461
46.94000 101.218
46.96000 105.336
46.98000 100.052
47.00000 97.512
47.02000 97.064
47.04000 98.716
47.06000 90.279
47.08000 89.213
47.10000 81.127
47.12000 77.726
47.14000 77.876
47.16000 75.873
47.18000 73.985
47.20000 75.344
47.22000 76.411
47.24000 78.725
47.26000 69.681
47.28000 63.461
47.30000 61.918
47.32000 61.674
47.34000 59.227
47.36000 59.809
47.38000 55.924
47.40000 53.445
47.42000 51.425
47.44000 41.363
47.46000 34.920
47.48000 39.559
47.50000 39.287
47.52000 42.300
47.54000 41.442
47.56000 32.951
47.58000 29.219
47.60000 34.646
47.62000 30.338
47.64000 27.090
47.66000 24.723
47.68000 22.313
47.70000 20.191
47.72000 25.410
47.74000 24.149
47.76000 25.250
47.78000 20.002
47.80000 12.745
47.82000 11.609
47.84000 12.424
47.86000 14.163
47.88000 15.245
47.90000 12.170
47.92000 14.581
47.94000 12.286
47.96000 12.364
47.98000 12.088
48.00000 16.325
48.02000 14.025
48.04000 7.957
48.06000 7.420
48.08000 9.669
48.10000 5.947
48.12000 7.456
48.14000 10.044
48.16000 8.609
48.18000 6.649
48.20000 0.898
48.22000 -0.682
48.24000 4.045
48.26000 7.084
48.28000 3.311
48.30000 5.798
48.32000 6.211
48.34000 2.634
48.36000 2.234
48.38000 1.265
48.40000 -1.481
48.42000 2.069
48.44000 0.906
48.46000 -3.006
48.48000 -1.119
48.50000 -2.431
48.52000 -0.427
48.54000 2.029
48.56000 0.288
48.58000 1.816
48.60000 1.670
48.62000 0.880
48.64000 0.774
48.66000 2.582
48.68000 2.820
48.70000 2.610
48.72000 4.411
48.74000 6.358
48.76000 0.213
48.78000 1.455
48.80000 -1.412
48.82000 2.137
48.84000 1.617
48.86000 3.497
48.88000 0.178
48.90000 0.087
48.92000 0.988
48.94000 2.576
48.96000 -2.753
48.98000 2.156
49.00000 1.183
49.02000 -0.041
49.04000 -2.168
49.06000 1.762
49.08000 4.268
49.10000 1.935
49.12000 1.197
49.14000 -0.909
49.16000 2.028
49.18000 4.394
49.20000 2.876
49.22000 1.551
49.24000 2.836
49.26000 0.471
49.28000 5.980
49.30000 1.074
49.32000 -2.110
49.34000 2.129
49.36000 5.866
49.38000 2.767
49.40000 4.647
49.42000 4.012
49.44000 4.395
49.46000 3.801
49.48000 4.956
49.50000 1.887
49.52000 -1.658
49.54000 -2.819
49.56000 -1.581
49.58000 3.832
49.60000 2.611
49.62000 1.380
49.64000 5.470
49.66000 13.004
49.68000 11.389
49.70000 7.250
49.72000 8.349
49.74000 3.454
49.76000 2.897
49.78000 4.048
49.80000 2.372
49.82000 5.605
49.84000 2.850
49.86000 1.395
49.88000 6.470
49.90000 3.134
49.92000 -1.683
49.94000 4.215
49.96000 6.112
49.98000 1.251
50.00000 2.809
50.02000 6.555
50.04000 4.784
50.06000 3.892
50.08000 4.449
50.10000 5.604
50.12000 4.490
50.14000 4.090
50.16000 0.577
50.18000 0.035
50.20000 1.980
50.22000 4.771
50.24000 4.314
50.26000 1.182
50.28000 0.822
50.30000 -0.290
50.32000 -0.911
50.34000 1.995
50.36000 4.447
50.38000 9.164
50.40000 7.164
50.42000 -0.073
50.44000 0.756
50.46000 0.765
50.48000 2.256
50.50000 2.917
50.52000 -1.186
50.54000 2.280
50.56000 4.008
50.58000 2.229
50.60000 6.709
50.62000 2.639
50.64000 6.497
50.66000 10.732
50.68000 4.598
50.70000 5.598
50.72000 6.390
50.74000 3.576
50.76000 0.693
50.78000 1.895
50.80000 4.225
50.82000 4.724
50.84000 -0.828
50.86000 -0.638
50.88000 4.917
50.90000 1.535
50.92000 -2.351
50.94000 0.661
50.96000 -2.746
50.98000 3.438
51.00000 7.291
51.02000 5.265
51.04000 5.565
51.06000 4.698
51.08000 2.861
51.10000 0.820
51.12000 1.323
51.14000 -0.478
51.16000 2.187
51.18000 5.082
51.20000 2.756
51.22000 4.289
51.24000 3.413
51.26000 1.433
51.28000 4.328
51.30000 2.534
51.32000 0.890
51.34000 -0.432
51.36000 -0.307
51.38000 1.559
51.40000 2.700
51.42000 3.919
51.44000 0.745
51.46000 0.214
51.48000 4.780
51.50000 7.062
51.52000 2.163
51.54000 1.888
51.56000 1.114
51.58000 2.315
51.60000 4.510
51.62000 3.431
51.64000 -2.390
51.66000 -0.317
51.68000 1.575
51.70000 1.224
51.72000 -1.844
51.74000 -1.273
51.76000 3.971
51.78000 5.222
51.80000 4.383
51.82000 3.529
51.84000 5.056
51.86000 5.683
51.88000 -1.468
51.90000 -1.120
51.92000 0.192
51.94000 0.536
51.96000 0.126
51.98000 2.374
52.00000 5.815
52.02000 5.519
52.04000 6.150
52.06000 1.677
52.08000 0.087
52.10000 -2.329
52.12000 -2.716
52.14000 -0.478
52.16000 -0.807
52.18000 -0.109
52.20000 5.956
52.22000 3.393
52.24000 1.658
52.26000 -1.436
52.28000 4.508
52.30000 1.765
52.32000 1.525
52.34000 -0.699
52.36000 -1.198
52.38000 3.529
52.40000 7.212
52.42000 5.958
52.44000 4.720
52.46000 2.620
52.48000 5.269
52.50000 5.141
52.52000 4.158
52.54000 2.196
52.56000 4.608
52.58000 3.466
52.60000 4.169
52.62000 1.124
52.64000 1.592
52.66000 1.256
52.68000 -2.410
52.70000 -2.676
52.72000 3.749
52.74000 8.114
52.76000 4.502
52.78000 0.852
52.80000 2.000
52.82000 1.182
52.84000 0.559
52.86000 1.877
52.88000 3.355
52.90000 4.609
52.92000 2.183
52.94000 4.139
52.96000 2.475
52.98000 1.986
53.00000 3.194
53.02000 4.363
53.04000 0.302
53.06000 0.858
53.08000 3.892
53.10000 2.512
53.12000 -1.239
53.14000 2.312
53.16000 6.555
53.18000 2.335
53.20000 0.922
53.22000 0.701
53.24000 1.099
53.26000 1.101
53.28000 3.153
53.30000 -1.926
53.32000 2.632
53.34000 3.064
53.36000 1.699
53.38000 4.528
53.40000 2.935
53.42000 -0.319
53.44000 2.928
53.46000 1.836
53.48000 1.216
53.50000 2.267
53.52000 2.465
53.54000 1.074
53.56000 -0.242
53.58000 1.791
53.60000 2.024
53.62000 1.301
53.64000 -2.537
53.66000 3.247
53.68000 2.461
53.70000 2.918
53.72000 7.424
53.74000 3.578
53.76000 2.354
53.78000 6.649
53.80000 6.927
53.82000 4.156
53.84000 -0.189
53.86000 0.066
53.88000 -0.849
53.90000 0.270
53.92000 2.524
53.94000 1.894
53.96000 0.368
53.98000 4.141
54.00000 8.459
54.02000 9.217
54.04000 6.558
54.06000 4.388
54.08000 2.761
54.10000 0.220
54.12000 1.089
54.14000 -0.002
54.16000 0.545
54.18000 -2.644
54.20000 -1.430
54.22000 -0.753
54.24000 0.135
54.26000 0.647
54.28000 0.657
54.30000 5.759
54.32000 5.136
54.34000 4.754
54.36000 3.353
54.38000 5.101
54.40000 5.955
54.42000 -1.177
54.44000 3.557
54.46000 3.215
54.48000 4.019
54.50000 5.909
54.52000 4.903
54.54000 5.825
54.56000 1.060
54.58000 1.271
54.60000 -2.620
54.62000 0.377
54.64000 3.440
54.66000 6.454
54.68000 5.940
54.70000 6.578
54.72000 4.176
54.74000 4.735
54.76000 3.493
54.78000 4.359
54.80000 6.743
54.82000 7.675
54.84000 6.777
54.86000 4.453
54.88000 -0.896
54.90000 -1.052
54.92000 6.677
54.94000 2.764
54.96000 0.317
54.98000 2.784
55.00000 1.384
55.02000 4.373
55.04000 0.232
55.06000 -2.150
55.08000 3.477
55.10000 6.385
55.12000 7.543
55.14000 3.636
55.16000 3.612
55.18000 2.290
55.20000 2.760
55.22000 2.984
55.24000 3.887
55.26000 3.419
55.28000 1.016
55.30000 4.855
55.32000 2.278
55.34000 4.428
55.36000 1.811
55.38000 3.663
55.40000 8.253
55.42000 9.101
55.44000 4.535
55.46000 1.955
55.48000 3.208
55.50000 4.034
55.52000 3.861
55.54000 2.080
55.56000 -2.352
55.58000 -1.583
55.60000 1.758
55.62000 6.565
55.64000 3.478
55.66000 3.872
55.68000 4.026
55.70000 6.951
55.72000 2.899
55.74000 -1.008
55.76000 2.672
55.78000 0.820
55.80000 -2.583
55.82000 -1.022
55.84000 0.611
55.86000 -0.272
55.88000 3.968
55.90000 4.578
55.92000 5.593
55.94000 4.504
55.96000 5.642
55.98000 4.556
56.00000 3.028
56.02000 0.844
56.04000 2.011
56.06000 1.219
56.08000 8.585
56.10000 9.097
56.12000 6.015
56.14000 3.614
56.16000 5.010
56.18000 0.407
56.20000 0.154
56.22000 4.828
56.24000 5.869
56.26000 5.513
56.28000 2.690
56.30000 2.997
56.32000 -2.582
56.34000 -0.164
56.36000 0.754
56.38000 3.557
56.40000 5.098
56.42000 7.161
56.44000 7.454
56.46000 4.863
56.48000 5.202
56.50000 3.224
56.52000 -0.176
56.54000 -2.127
56.56000 -0.827
56.58000 1.928
56.60000 -0.545
56.62000 2.583
56.64000 2.087
56.66000 2.243
56.68000 -0.251
56.70000 2.917
56.72000 3.715
56.74000 -1.602
56.76000 -0.330
56.78000 -0.556
56.80000 1.022
56.82000 0.151
56.84000 0.935
56.86000 -0.434
56.88000 3.791
56.90000 4.226
56.92000 -0.813
56.94000 1.749
56.96000 6.559
56.98000 5.005
57.00000 0.646
57.02000 4.642
57.04000 5.821
57.06000 2.837
57.08000 -0.290
57.10000 -1.641
57.12000 2.305
57.14000 3.681
57.16000 5.237
57.18000 4.117
57.20000 0.751
57.22000 -0.184
57.24000 3.847
57.26000 -1.631
57.28000 -1.635
57.30000 -2.564
57.32000 1.145
57.34000 2.944
57.36000 2.347
57.38000 3.102
57.40000 7.062
57.42000 0.461
57.44000 3.039
57.46000 0.552
57.48000 -2.557
57.50000 1.399
57.52000 5.260
57.54000 3.473
57.56000 3.450
57.58000 3.492
57.60000 2.203
57.62000 0.929
57.64000 2.381
57.66000 4.565
57.68000 2.086
57.70000 2.851
57.72000 2.692
57.74000 1.764
57.76000 0.914
57.78000 0.310
57.80000 0.686
57.82000 2.566
57.84000 6.305
57.86000 6.528
57.88000 6.274
57.90000 3.785
57.92000 4.425
57.94000 0.755
57.96000 4.415
57.98000 5.282
58.00000 7.487
58.02000 5.468
58.04000 1.306
58.06000 1.603
58.08000 0.517
58.10000 2.307
58.12000 4.528
58.14000 1.614
58.16000 4.294
58.18000 3.055
58.20000 1.505
58.22000 4.378
58.24000 3.179
58.26000 3.042
58.28000 2.745
58.30000 1.429
58.32000 1.751
58.34000 3.479
58.36000 -0.133
58.38000 -0.931
58.40000 2.563
58.42000 0.521
58.44000 1.477
58.46000 5.023
58.48000 3.910
58.50000 1.708
58.52000 0.913
58.54000 -2.385
58.56000 0.476
58.58000 2.577
58.60000 3.367
58.62000 2.436
58.64000 3.161
58.66000 4.433
58.68000 3.120
58.70000 -1.581
58.72000 1.176
58.74000 4.660
58.76000 2.042
58.78000 -2.502
58.80000 1.963
58.82000 4.916
58.84000 4.078
58.86000 3.258
58.88000 3.252
58.90000 5.563
58.92000 3.691
58.94000 4.831
58.96000 5.274
58.98000 4.611
59.00000 2.474
59.02000 2.871
59.04000 1.210
59.06000 2.656
59.08000 1.476
59.10000 3.076
59.12000 -1.085
59.14000 0.422
59.16000 1.185
59.18000 3.422
59.20000 7.336
59.22000 4.900
59.24000 5.395
59.26000 6.060
59.28000 2.945
59.30000 1.098
59.32000 -1.154
59.34000 1.704
59.36000 1.047
59.38000 1.115
59.40000 2.235
59.42000 4.445
59.44000 3.286
59.46000 0.388
59.48000 1.748
59.50000 2.501
59.52000 3.669
59.54000 2.567
59.56000 5.080
59.58000 0.650
59.60000 1.186
59.62000 0.753
59.64000 3.830
59.66000 0.180
59.68000 2.822
59.70000 4.722
59.72000 2.078
59.74000 -0.334
59.76000 2.664
59.78000 3.626
59.80000 2.638
59.82000 5.287
59.84000 5.752
59.86000 1.738
59.88000 2.509
59.90000 3.314
59.92000 4.064
59.94000 5.695
59.96000 6.282
59.98000 1.487
60.00000 0.591
60.02000 1.301
60.04000 0.713
60.06000 -2.438
60.08000 0.351
60.10000 1.977
60.12000 4.728
60.14000 6.549
60.16000 1.668
60.18000 7.461
60.20000 5.403
60.22000 5.932
60.24000 5.409
60.26000 2.641
60.28000 4.773
60.30000 8.240
60.32000 4.632
60.34000 1.018
60.36000 1.785
60.38000 4.299
60.40000 3.860
60.42000 5.414
60.44000 2.811
60.46000 -2.442
60.48000 0.453
60.50000 2.040
60.52000 2.236
60.54000 5.297
60.56000 4.042
60.58000 6.768
60.60000 2.674
60.62000 0.816
60.64000 6.998
60.66000 8.870
60.68000 4.629
60.70000 -1.645
60.72000 3.692
60.74000 4.506
60.76000 4.133
60.78000 3.488
60.80000 3.471
60.82000 3.319
60.84000 0.194
60.86000 -2.322
60.88000 -2.452
60.90000 0.233
60.92000 0.394
60.94000 1.659
60.96000 4.598
60.98000 1.628
61.00000 -0.292
61.02000 4.370
61.04000 6.131
61.06000 3.842
61.08000 5.015
61.10000 5.210
61.12000 3.409
61.14000 0.380
61.16000 -0.091
61.18000 0.920
61.20000 0.934
61.22000 2.584
61.24000 1.916
61.26000 0.641
61.28000 1.757
61.30000 2.547
61.32000 3.863
61.34000 4.559
61.36000 1.999
61.38000 -2.215
61.40000 -0.257
61.42000 2.970
61.44000 0.046
61.46000 -2.449
61.48000 -1.672
61.50000 1.595
61.52000 2.580
61.54000 3.202
61.56000 4.640
61.58000 7.729
61.60000 5.717
61.62000 2.526
61.64000 4.011
61.66000 3.050
61.68000 -0.270
61.70000 -0.284
61.72000 1.134
61.74000 3.607
61.76000 4.348
61.78000 2.174
61.80000 1.345
61.82000 0.964
61.84000 0.447
61.86000 0.614
61.88000 -0.218
61.90000 1.234
61.92000 1.107
61.94000 -0.481
61.96000 1.244
61.98000 1.273
62.00000 -2.437
62.02000 2.035
62.04000 4.196
62.06000 5.101
62.08000 2.900
62.10000 4.060
62.12000 3.063
62.14000 3.287
62.16000 3.387
62.18000 3.406
62.20000 3.146
62.22000 -0.546
62.24000 -0.353
62.26000 -0.038
62.28000 1.193
62.30000 1.365
62.32000 0.633
62.34000 -2.344
62.36000 -2.422
62.38000 -1.555
62.40000 -0.880
62.42000 0.137
62.44000 1.992
62.46000 3.403
62.48000 5.453
62.50000 5.018
62.52000 3.006
62.54000 0.090
62.56000 0.504
62.58000 -2.174
62.60000 -0.073
62.62000 -0.837
62.64000 -0.097
62.66000 -0.578
62.68000 1.727
62.70000 -0.571
62.72000 -1.741
62.74000 0.025
62.76000 3.287
62.78000 5.244
62.80000 7.319
62.82000 4.252
62.84000 1.217
62.86000 2.402
62.88000 2.720
62.90000 3.690
62.92000 0.796
62.94000 0.844
62.96000 2.499
62.98000 4.199
63.00000 2.106
63.02000 2.171
63.04000 0.543
63.06000 3.662
63.08000 -0.569
63.10000 1.570
63.12000 1.094
63.14000 -1.935
63.16000 -1.428
63.18000 -2.441
63.20000 -2.427
63.22000 -2.171
63.24000 -0.002
63.26000 -2.013
63.28000 0.260
63.30000 0.681
63.32000 -1.257
63.34000 1.500
63.36000 -0.710
63.38000 2.025
63.40000 1.878
63.42000 1.586
63.44000 3.642
63.46000 2.196
63.48000 1.625
63.50000 1.928
63.52000 1.677
63.54000 5.408
63.56000 5.551
63.58000 4.439
63.60000 1.721
63.62000 1.562
63.64000 3.068
63.66000 0.695
63.68000 0.757
63.70000 1.657
63.72000 4.291
63.74000 1.089
63.76000 0.401
63.78000 1.432
63.80000 1.061
63.82000 0.308
63.84000 -2.423
63.86000 -0.314
63.88000 1.313
63.90000 1.104
63.92000 1.644
63.94000 7.206
63.96000 2.189
63.98000 0.799
64.00000 1.082
64.02000 3.707
64.04000 5.568
64.06000 2.458
64.08000 1.827
64.10000 1.599
64.12000 1.330
64.14000 3.736
64.16000 4.594
64.18000 2.324
64.20000 0.999
64.22000 3.463
64.24000 3.048
64.26000 4.240
64.28000 2.573
64.30000 2.746
64.32000 2.515
64.34000 4.008
64.36000 -0.789
64.38000 -1.095
64.40000 2.183
64.42000 4.110
64.44000 3.618
64.46000 3.865
64.48000 2.441
64.50000 -0.610
64.52000 -2.416
64.54000 0.539
64.56000 4.511
64.58000 3.030
64.60000 2.943
64.62000 0.053
64.64000 2.895
64.66000 3.577
64.68000 0.610
64.70000 1.762
64.72000 -0.361
64.74000 1.891
64.76000 2.852
64.78000 1.593
64.80000 2.144
64.82000 0.092
64.84000 0.686
64.86000 2.477
64.88000 0.681
64.90000 1.271
64.92000 1.949
64.94000 3.108
64.96000 2.102
64.98000 2.005
65.00000 3.054
65.02000 3.059
65.04000 3.251
65.06000 5.366
65.08000 0.595
65.10000 2.798
65.12000 5.388
65.14000 6.553
65.16000 4.064
65.18000 1.423
65.20000 -0.316
65.22000 3.459
65.24000 4.892
65.26000 1.778
65.28000 3.087
65.30000 2.190
65.32000 -0.242
65.34000 2.428
65.36000 3.325
65.38000 3.982
65.40000 3.046
65.42000 0.676
65.44000 2.068
65.46000 0.276
65.48000 -0.538
65.50000 2.594
65.52000 4.459
65.54000 5.657
65.56000 8.025
65.58000 4.610
65.60000 -2.419
65.62000 0.521
65.64000 8.953
65.66000 7.365
65.68000 4.605
65.70000 2.577
65.72000 1.016
65.74000 3.053
65.76000 -0.936
65.78000 -0.494
65.80000 1.832
65.82000 1.309
65.84000 1.364
65.86000 3.480
65.88000 1.709
65.90000 0.012
65.92000 3.964
65.94000 7.124
65.96000 4.285
65.98000 2.102
66.00000 0.889
66.02000 0.311
66.04000 -0.748
66.06000 2.053
66.08000 0.490
66.10000 -0.689
66.12000 0.663
66.14000 4.761
66.16000 6.283
66.18000 5.431
66.20000 3.411
66.22000 3.832
66.24000 4.449
66.26000 3.679
66.28000 -0.529
66.30000 0.039
66.32000 -0.860
66.34000 1.793
66.36000 2.574
66.38000 1.414
66.40000 1.280
66.42000 0.453
66.44000 2.794
66.46000 2.062
66.48000 0.055
66.50000 -0.207
66.52000 1.023
66.54000 3.023
66.56000 7.087
66.58000 2.297
66.60000 0.128
66.62000 1.669
66.64000 1.753
66.66000 3.586
66.68000 4.971
66.70000 3.213
66.72000 4.378
66.74000 6.058
66.76000 3.368
66.78000 5.843
66.80000 6.851
66.82000 4.542
66.84000 3.893
66.86000 4.993
66.88000 4.656
66.90000 4.614
66.92000 4.383
66.94000 5.994
66.96000 4.665
66.98000 3.372
67.00000 5.713
67.02000 5.565
67.04000 6.512
67.06000 6.734
67.08000 3.116
67.10000 3.081
67.12000 4.887
67.14000 4.452
67.16000 5.254
67.18000 5.678
67.20000 8.762
67.22000 8.612
67.24000 4.564
67.26000 5.610
67.28000 9.521
67.30000 7.725
67.32000 6.912
67.34000 8.909
67.36000 7.768
67.38000 7.369
67.40000 6.516
67.42000 5.269
67.44000 10.414
67.46000 14.678
67.48000 10.224
67.50000 10.128
67.52000 9.617
67.54000 8.949
67.56000 11.199
67.58000 12.974
67.60000 14.240
67.62000 12.308
67.64000 13.487
67.66000 16.276
67.68000 16.134
67.70000 18.177
67.72000 14.761
67.74000 16.047
67.76000 16.127
67.78000 17.282
67.80000 21.317
67.82000 22.436
67.84000 19.051
67.86000 18.516
67.88000 17.235
67.90000 23.736
67.92000 19.920
67.94000 16.923
67.96000 20.038
67.98000 22.658
68.00000 20.748
68.02000 19.682
68.04000 22.386
68.06000 20.878
68.08000 20.974
68.10000 24.364
68.12000 24.813
68.14000 21.581
68.16000 26.303
68.18000 24.113
68.20000 24.792
68.22000 26.078
68.24000 24.699
68.26000 27.207
68.28000 25.689
68.30000 27.227
68.32000 25.481
68.34000 22.840
68.36000 22.484
68.38000 21.725
68.40000 19.550
68.42000 20.348
68.44000 20.306
68.46000 21.447
68.48000 23.408
68.50000 21.024
68.52000 18.858
68.54000 19.386
68.56000 17.927
68.58000 14.757
68.60000 17.772
68.62000 20.569
68.64000 17.924
68.66000 17.422
68.68000 15.068
68.70000 14.242
68.72000 15.624
68.74000 14.296
68.76000 14.137
68.78000 11.013
68.80000 11.837
68.82000 13.934
68.84000 14.734
68.86000 14.099
68.88000 13.637
68.90000 7.828
68.92000 4.787
68.94000 10.375
68.96000 10.776
68.98000 6.687
69.00000 7.457
69.02000 7.841
69.04000 9.294
69.06000 7.228
69.08000 8.133
69.10000 8.365
69.12000 4.016
69.14000 2.216
69.16000 2.813
69.18000 6.082
69.20000 3.865
69.22000 2.661
69.24000 2.429
69.26000 2.115
69.28000 0.911
69.30000 2.402
69.32000 0.627
69.34000 2.027
69.36000 3.747
69.38000 2.309
69.40000 0.596
69.42000 2.545
69.44000 3.906
69.46000 2.408
69.48000 -0.432
69.50000 1.490
69.52000 2.740
69.54000 2.279
69.56000 -0.367
69.58000 -2.060
69.60000 -0.520
69.62000 2.110
69.64000 2.885
69.66000 1.689
69.68000 1.902
69.70000 0.149
69.72000 -2.438
69.74000 -1.387
69.76000 1.153
69.78000 0.696
69.80000 -2.178
69.82000 -1.368
69.84000 -0.084
69.86000 1.979
69.88000 1.136
69.90000 1.008
69.92000 1.878
69.94000 3.642
69.96000 2.206
69.98000 0.878
70.00000 2.727
70.02000 2.950
70.04000 3.037
70.06000 -0.902
70.08000 -2.047
70.10000 2.943
70.12000 0.198
70.14000 4.190
70.16000 4.066
70.18000 1.578
70.20000 -2.370
70.22000 1.738
70.24000 2.010
70.26000 1.385
70.28000 -0.225
70.30000 2.305
70.32000 2.393
70.34000 3.930
70.36000 2.064
70.38000 0.202
70.40000 1.854
70.42000 1.497
70.44000 1.158
70.46000 1.045
70.48000 5.778
70.50000 4.612
70.52000 -0.503
70.54000 -0.253
70.56000 4.159
70.58000 5.669
70.60000 2.468
70.62000 0.572
70.64000 2.582
70.66000 2.595
70.68000 4.233
70.70000 0.186
70.72000 -0.868
70.74000 2.894
70.76000 2.594
70.78000 3.186
70.80000 5.675
70.82000 0.939
70.84000 -2.347
70.86000 2.818
70.88000 0.812
70.90000 2.569
70.92000 2.789
70.94000 1.684
70.96000 6.654
70.98000 5.592
71.00000 1.133
71.02000 0.232
71.04000 3.373
71.06000 1.567
71.08000 3.909
71.10000 3.622
71.12000 2.746
71.14000 4.825
71.16000 3.959
71.18000 0.295
71.20000 -0.513
71.22000 2.559
71.24000 4.680
71.26000 2.905
71.28000 5.485
71.30000 2.204
71.32000 2.773
71.34000 2.578
71.36000 2.925
71.38000 2.287
71.40000 0.809
71.42000 1.529
71.44000 2.554
71.46000 2.689
71.48000 0.295
71.50000 0.549
71.52000 -0.002
71.54000 -0.735
71.56000 4.129
71.58000 1.342
71.60000 0.070
71.62000 4.448
71.64000 3.519
71.66000 0.583
71.68000 -2.302
71.70000 -1.220
71.72000 0.105
71.74000 2.201
71.76000 -0.529
71.78000 -1.026
71.80000 1.158
71.82000 2.409
71.84000 1.585
71.86000 6.643
71.88000 0.837
71.90000 4.874
71.92000 3.120
71.94000 2.773
71.96000 4.202
71.98000 0.888
72.00000 4.833
72.02000 11.746
72.04000 3.056
72.06000 3.511
72.08000 0.739
72.10000 -1.834
72.12000 -2.141
72.14000 1.604
72.16000 3.313
72.18000 -0.011
72.20000 0.223
72.22000 -0.828
72.24000 2.002
72.26000 5.628
72.28000 1.948
72.30000 3.678
72.32000 3.447
72.34000 3.989
72.36000 2.558
72.38000 2.855
72.40000 8.304
72.42000 6.417
72.44000 3.667
72.46000 0.523
72.48000 -2.281
72.50000 -1.292
72.52000 3.432
72.54000 3.138
72.56000 6.935
72.58000 0.537
72.60000 2.168
72.62000 5.220
72.64000 2.388
72.66000 1.914
72.68000 1.337
72.70000 1.109
72.72000 2.525
72.74000 1.370
72.76000 1.589
72.78000 3.347
72.80000 4.308
72.82000 1.534
72.84000 1.738
72.86000 1.132
72.88000 3.144
72.90000 0.321
72.92000 1.383
72.94000 2.769
72.96000 3.425
72.98000 -0.785
73.00000 -1.869
73.02000 -2.257
73.04000 1.412
73.06000 2.062
73.08000 6.064
73.10000 4.543
73.12000 0.724
73.14000 3.308
73.16000 0.654
73.18000 1.067
73.20000 2.660
73.22000 3.081
73.24000 6.165
73.26000 5.906
73.28000 7.437
73.30000 6.166
73.32000 0.954
73.34000 2.616
73.36000 1.307
73.38000 2.433
73.40000 2.347
73.42000 3.202
73.44000 0.221
73.46000 2.598
73.48000 1.003
73.50000 -2.255
73.52000 2.255
73.54000 5.439
73.56000 3.435
73.58000 5.242
73.60000 3.081
73.62000 0.365
73.64000 1.019
73.66000 1.408
73.68000 2.916
73.70000 2.044
73.72000 -0.169
73.74000 -1.490
73.76000 3.687
73.78000 2.679
73.80000 -2.265
73.82000 2.556
73.84000 1.707
73.86000 2.823
73.88000 2.209
73.90000 1.544
73.92000 4.685
73.94000 3.714
73.96000 -0.528
73.98000 -0.225
74.00000 0.739
74.02000 2.231
74.04000 -1.647
74.06000 0.078
74.08000 1.793
74.10000 5.095
74.12000 -2.167
74.14000 0.789
74.16000 3.807
74.18000 2.110
74.20000 4.143
74.22000 4.495
74.24000 4.304
74.26000 5.077
74.28000 1.589
74.30000 1.868
74.32000 -0.094
74.34000 -2.266
74.36000 0.940
74.38000 -1.532
74.40000 0.321
74.42000 3.483
74.44000 3.482
74.46000 1.868
74.48000 0.857
74.50000 -2.033
74.52000 2.594
74.54000 5.747
74.56000 1.097
74.58000 0.371
74.60000 1.718
74.62000 -1.989
74.64000 -1.625
74.66000 0.540
74.68000 4.793
74.70000 3.473
74.72000 -1.447
74.74000 -0.724
74.76000 0.900
74.78000 1.923
74.80000 -2.252
74.82000 3.862
74.84000 5.956
74.86000 2.238
74.88000 -0.709
74.90000 -0.052
74.92000 3.897
74.94000 3.601
74.96000 -0.491
74.98000 3.203
75.00000 2.337
75.02000 1.846
75.04000 2.573
75.06000 2.690
75.08000 1.099
75.10000 0.518
75.12000 1.784
75.14000 2.216
75.16000 1.933
75.18000 1.936
75.20000 4.107
75.22000 3.494
75.24000 3.756
75.26000 1.360
75.28000 3.536
75.30000 -0.887
75.32000 1.416
75.34000 2.558
75.36000 3.049
75.38000 7.153
75.40000 2.030
75.42000 1.387
75.44000 3.488
75.46000 1.624
75.48000 7.762
75.50000 1.264
75.52000 -2.144
75.54000 0.367
75.56000 2.179
75.58000 6.937
75.60000 3.392
75.62000 0.186
75.64000 -2.240
75.66000 -1.281
75.68000 4.472
75.70000 2.358
75.72000 3.635
75.74000 2.451
75.76000 1.803
75.78000 0.949
75.80000 4.055
75.82000 3.131
75.84000 -1.466
75.86000 -0.855
75.88000 1.828
75.90000 3.260
75.92000 7.064
75.94000 3.882
75.96000 1.463
75.98000 -0.843
76.00000 1.791
76.02000 1.682
76.04000 2.450
76.06000 3.991
76.08000 7.505
76.10000 5.490
76.12000 3.208
76.14000 3.740
76.16000 2.686
76.18000 0.909
76.20000 3.367
76.22000 0.408
76.24000 -1.716
76.26000 0.888
76.28000 0.953
76.30000 -0.843
76.32000 -0.271
76.34000 2.534
76.36000 0.447
76.38000 -1.814
76.40000 1.806
76.42000 3.904
76.44000 4.512
76.46000 5.714
76.48000 5.641
76.50000 2.807
76.52000 4.607
76.54000 2.154
76.56000 -1.275
76.58000 0.578
76.60000 2.736
76.62000 1.431
76.64000 2.005
76.66000 2.882
76.68000 6.951
76.70000 4.328
76.72000 -0.360
76.74000 2.050
76.76000 1.785
76.78000 0.364
76.80000 4.832
76.82000 -0.415
76.84000 0.203
76.86000 2.501
76.88000 1.953
76.90000 0.049
76.92000 2.187
76.94000 4.736
76.96000 2.683
76.98000 1.958
77.00000 0.891
77.02000 -2.261
77.04000 1.545
77.06000 4.030
77.08000 2.531
77.10000 -0.367
77.12000 2.679
77.14000 7.969
77.16000 7.547
77.18000 3.260
77.20000 4.697
77.22000 2.925
77.24000 -0.288
77.26000 0.319
77.28000 3.813
77.30000 0.881
77.32000 0.886
77.34000 2.394
77.36000 -1.046
77.38000 -0.934
77.40000 2.524
77.42000 -0.029
77.44000 -1.763
77.46000 2.971
77.48000 3.147
77.50000 6.592
77.52000 2.011
77.54000 0.631
77.56000 1.066
77.58000 2.881
77.60000 3.222
77.62000 5.938
77.64000 6.844
77.66000 5.250
77.68000 7.691
77.70000 6.077
77.72000 4.781
77.74000 7.790
77.76000 4.244
77.78000 -2.266
77.80000 -0.071
77.82000 0.741
77.84000 0.900
77.86000 -0.721
77.88000 -1.734
77.90000 -2.280
77.92000 1.106
77.94000 2.553
77.96000 6.242
77.98000 5.310
78.00000 3.520
78.02000 2.766
78.04000 5.309
78.06000 0.425
78.08000 1.265
78.10000 2.351
78.12000 2.511
78.14000 1.453
78.16000 1.360
78.18000 0.004
78.20000 -0.114
78.22000 -1.098
78.24000 2.356
78.26000 3.026
78.28000 1.685
78.30000 1.355
78.32000 1.011
78.34000 2.403
78.36000 4.290
78.38000 4.901
78.40000 5.587
78.42000 2.411
78.44000 2.110
78.46000 2.849
78.48000 -1.017
78.50000 0.083
78.52000 3.708
78.54000 4.881
78.56000 4.491
78.58000 4.718
78.60000 4.698
78.62000 1.785
78.64000 7.451
78.66000 3.804
78.68000 5.360
78.70000 1.491
78.72000 3.503
78.74000 5.028
78.76000 0.250
78.78000 1.127
78.80000 3.438
78.82000 4.890
78.84000 3.229
78.86000 1.080
78.88000 1.068
78.90000 1.596
78.92000 4.899
78.94000 4.868
78.96000 4.359
78.98000 5.691
79.00000 4.837
79.02000 9.302
79.04000 5.499
79.06000 3.658
79.08000 5.158
79.10000 5.211
79.12000 2.823
79.14000 2.515
79.16000 1.708
79.18000 4.297
79.20000 6.047
79.22000 6.173
79.24000 5.489
79.26000 6.469
79.28000 5.042
79.30000 3.507
79.32000 3.874
79.34000 4.003
79.36000 9.184
79.38000 9.324
79.40000 3.392
79.42000 -2.272
79.44000 3.437
79.46000 5.088
79.48000 8.153
79.50000 4.797
79.52000 3.002
79.54000 3.945
79.56000 6.842
79.58000 5.910
79.60000 8.314
79.62000 3.144
79.64000 2.203
79.66000 3.373
79.68000 2.674
79.70000 1.887
79.72000 2.550
79.74000 8.605
79.76000 5.389
79.78000 -0.307
79.80000 -0.186
79.82000 2.280
79.84000 6.490
79.86000 3.065
79.88000 2.285
79.90000 0.025
79.92000 -1.473
79.94000 -0.279
79.96000 2.819
79.98000 6.146
80.00000 6.231
80.02000 6.352
80.04000 2.593
80.06000 3.047
80.08000 1.758
80.10000 -0.045
80.12000 3.439
80.14000 4.967
80.16000 3.311
80.18000 3.243
80.20000 2.116
80.22000 6.353
80.24000 5.910
80.26000 7.410
80.28000 1.839
80.30000 4.216
80.32000 5.278
80.34000 2.822
80.36000 1.538
80.38000 4.216
80.40000 3.456
80.42000 3.298
80.44000 5.843
80.46000 3.921
80.48000 8.070
80.50000 5.190
80.52000 2.447
80.54000 3.032
80.56000 5.270
80.58000 7.782
80.60000 12.145
80.62000 9.356
80.64000 6.867
80.66000 11.408
80.68000 12.934
80.70000 9.683
80.72000 7.518
80.74000 8.757
80.76000 5.817
80.78000 6.189
80.80000 6.422
80.82000 5.425
80.84000 2.875
80.86000 5.882
80.88000 7.048
80.90000 7.669
80.92000 7.347
80.94000 8.708
80.96000 8.204
80.98000 4.162
81.00000 9.108
81.02000 6.334
81.04000 6.535
81.06000 6.984
81.08000 7.941
81.10000 10.079
81.12000 9.781
81.14000 15.282
81.16000 16.161
81.18000 15.697
81.20000 14.770
81.22000 16.616
81.24000 15.955
81.26000 17.973
81.28000 11.322
81.30000 6.646
81.32000 9.714
81.34000 12.039
81.36000 15.484
81.38000 12.081
81.40000 12.663
81.42000 14.703
81.44000 14.405
81.46000 19.887
81.48000 17.316
81.50000 15.353
81.52000 13.857
81.54000 20.163
81.56000 20.391
81.58000 19.449
81.60000 20.484
81.62000 26.553
81.64000 22.266
81.66000 20.583
81.68000 24.020
81.70000 23.935
81.72000 22.158
81.74000 20.899
81.76000 27.351
81.78000 27.079
81.80000 24.279
81.82000 24.988
81.84000 29.952
81.86000 27.783
81.88000 28.559
81.90000 28.077
81.92000 24.617
81.94000 21.569
81.96000 28.175
81.98000 30.689
82.00000 28.668
82.02000 24.658
82.04000 28.004
82.06000 27.946
82.08000 24.799
82.10000 32.921
82.12000 34.721
82.14000 29.783
82.16000 26.420
82.18000 26.996
82.20000 27.459
82.22000 27.007
82.24000 33.761
82.26000 28.983
82.28000 27.874
82.30000 31.786
82.32000 32.309
82.34000 34.397
82.36000 32.104
82.38000 35.375
82.40000 29.229
82.42000 27.521
82.44000 30.617
82.46000 29.803
82.48000 21.531
82.50000 25.370
82.52000 24.565
82.54000 25.051
82.56000 27.336
82.58000 27.780
82.60000 27.651
82.62000 26.284
82.64000 28.352
82.66000 27.832
82.68000 20.510
82.70000 26.960
82.72000 28.476
82.74000 24.722
82.76000 22.435
82.78000 25.143
82.80000 24.836
82.82000 20.599
82.84000 19.143
82.86000 20.483
82.88000 23.089
82.90000 20.454
82.92000 16.469
82.94000 17.886
82.96000 23.201
82.98000 19.278
83.00000 13.230
83.02000 11.215
83.04000 13.374
83.06000 11.689
83.08000 9.953
83.10000 14.344
83.12000 15.528
83.14000 15.887
83.16000 11.843
83.18000 14.083
83.20000 12.844
83.22000 13.564
83.24000 14.559
83.26000 8.150
83.28000 4.835
83.30000 7.426
83.32000 4.883
83.34000 5.684
83.36000 12.415
83.38000 12.811
83.40000 8.075
83.42000 8.941
83.44000 8.572
83.46000 5.667
83.48000 5.938
83.50000 8.715
83.52000 7.052
83.54000 8.332
83.56000 5.578
83.58000 2.028
83.60000 4.785
83.62000 9.603
83.64000 5.034
83.66000 0.958
83.68000 2.009
83.70000 3.115
83.72000 4.127
83.74000 7.056
83.76000 4.006
83.78000 5.015
83.80000 5.335
83.82000 3.629
83.84000 1.216
83.86000 5.467
83.88000 5.788
83.90000 4.840
83.92000 7.312
83.94000 5.015
83.96000 7.606
83.98000 8.935
84.00000 8.320
84.02000 3.798
84.04000 1.860
84.06000 3.893
84.08000 4.530
84.10000 3.630
84.12000 1.337
84.14000 5.254
84.16000 2.318
84.18000 1.778
84.20000 -2.366
84.22000 0.808
84.24000 1.622
84.26000 6.358
84.28000 3.258
84.30000 -0.338
84.32000 1.643
84.34000 4.972
84.36000 5.990
84.38000 4.032
84.40000 4.585
84.42000 2.234
84.44000 2.307
84.46000 1.885
84.48000 1.452
84.50000 0.611
84.52000 -0.341
84.54000 -0.746
84.56000 -0.887
84.58000 0.462
84.60000 -1.371
84.62000 0.589
84.64000 3.772
84.66000 0.657
84.68000 -1.130
84.70000 -2.218
84.72000 2.193
84.74000 -0.073
84.76000 0.971
84.78000 3.338
84.80000 0.433
84.82000 0.281
84.84000 2.635
84.86000 -1.907
84.88000 -2.394
84.90000 -1.934
84.92000 0.866
84.94000 1.864
84.96000 -0.183
84.98000 5.076
85.00000 3.215
85.02000 0.059
85.04000 -0.616
85.06000 0.527
85.08000 1.974
85.10000 0.636
85.12000 0.946
85.14000 0.610
85.16000 2.536
85.18000 4.543
85.20000 3.040
85.22000 -1.529
85.24000 0.741
85.26000 0.940
85.28000 0.564
85.30000 2.423
85.32000 3.202
85.34000 1.789
85.36000 6.048
85.38000 4.092
85.40000 6.774
85.42000 3.677
85.44000 -0.084
85.46000 6.226
85.48000 4.109
85.50000 2.906
85.52000 4.743
85.54000 6.027
85.56000 3.869
85.58000 3.814
85.60000 1.049
85.62000 0.070
85.64000 3.291
85.66000 7.511
85.68000 5.136
85.70000 4.049
85.72000 5.354
85.74000 1.876
85.76000 6.632
85.78000 5.275
85.80000 9.084
85.82000 12.621
85.84000 8.141
85.86000 8.895
85.88000 9.212
85.90000 12.068
85.92000 12.573
85.94000 14.023
85.96000 15.161
85.98000 14.640
86.00000 15.622
86.02000 12.748
86.04000 15.069
86.06000 13.381
86.08000 13.653
86.10000 17.799
86.12000 12.771
86.14000 8.139
86.16000 14.213
86.18000 13.699
86.20000 11.148
86.22000 12.058
86.24000 14.080
86.26000 17.799
86.28000 18.699
86.30000 22.008
86.32000 20.647
86.34000 20.739
86.36000 17.269
86.38000 16.592
86.40000 22.449
86.42000 17.983
86.44000 14.696
86.46000 17.802
86.48000 16.078
86.50000 14.074
86.52000 15.297
86.54000 11.918
86.56000 14.181
86.58000 19.655
86.60000 17.165
86.62000 14.040
86.64000 16.526
86.66000 20.523
86.68000 16.841
86.70000 20.104
86.72000 14.476
86.74000 11.777
86.76000 12.257
86.78000 16.299
86.80000 16.248
86.82000 19.019
86.84000 14.273
86.86000 14.310
86.88000 15.477
86.90000 11.952
86.92000 10.587
86.94000 10.866
86.96000 16.719
86.98000 11.682
87.00000 7.520
87.02000 10.943
87.04000 16.107
87.06000 14.488
87.08000 14.455
87.10000 10.981
87.12000 12.346
87.14000 9.636
87.16000 6.355
87.18000 8.368
87.20000 10.092
87.22000 10.790
87.24000 12.104
87.26000 13.638
87.28000 6.849
87.30000 4.351
87.32000 8.735
87.34000 11.784
87.36000 4.920
87.38000 2.117
87.40000 1.503
87.42000 5.802
87.44000 6.618
87.46000 5.992
87.48000 7.793
87.50000 6.202
87.52000 4.166
87.54000 0.088
87.56000 -1.923
87.58000 2.991
87.60000 1.293
87.62000 -0.685
87.64000 4.692
87.66000 7.557
87.68000 4.627
87.70000 5.141
87.72000 6.387
87.74000 2.527
87.76000 -0.795
87.78000 1.453
87.80000 3.120
87.82000 4.540
87.84000 4.721
87.86000 2.162
87.88000 5.091
87.90000 5.114
87.92000 6.002
87.94000 1.199
87.96000 5.725
87.98000 1.287
88.00000 -1.086
88.02000 2.302
88.04000 3.326
88.06000 1.882
88.08000 0.397
88.10000 -2.241
88.12000 2.811
88.14000 2.152
88.16000 0.421
88.18000 -0.190
88.20000 2.935
88.22000 2.260
88.24000 2.032
88.26000 -0.255
88.28000 3.377
88.30000 2.159
88.32000 0.826
88.34000 2.351
88.36000 2.919
88.38000 2.469
88.40000 0.217
88.42000 0.511
88.44000 -0.217
88.46000 2.648
88.48000 0.992
88.50000 3.458
88.52000 7.736
88.54000 0.429
88.56000 1.571
88.58000 2.302
88.60000 -0.901
88.62000 1.532
88.64000 4.642
88.66000 2.975
88.68000 6.716
88.70000 4.299
88.72000 0.719
88.74000 -0.088
88.76000 0.311
88.78000 -0.687
88.80000 3.016
88.82000 2.915
88.84000 3.253
88.86000 3.895
88.88000 2.908
88.90000 3.035
88.92000 7.719
88.94000 8.041
88.96000 4.166
88.98000 1.705
89.00000 -2.134
89.02000 -1.290
89.04000 -0.458
89.06000 2.380
89.08000 0.375
89.10000 0.672
89.12000 2.873
89.14000 2.564
89.16000 2.760
89.18000 2.907
89.20000 -0.277
89.22000 2.166
89.24000 4.593
89.26000 2.171
89.28000 0.392
89.30000 0.820
89.32000 3.626
89.34000 8.222
89.36000 4.083
89.38000 3.061
89.40000 3.375
89.42000 2.315
89.44000 3.969
89.46000 3.507
89.48000 4.329
89.50000 6.474
89.52000 3.028
89.54000 1.949
89.56000 0.508
89.58000 5.100
89.60000 1.294
89.62000 0.602
89.64000 0.148
89.66000 3.315
89.68000 1.684
89.70000 1.976
89.72000 -0.054
89.74000 0.550
89.76000 1.081
89.78000 -0.168
89.80000 -2.137
89.82000 -0.616
89.84000 9.061
89.86000 7.594
89.88000 4.254
89.90000 4.321
89.92000 1.847
89.94000 -0.652
89.96000 -1.241
89.98000 0.046
90.00000 1.101
90.02000 0.462
90.04000 0.951
90.06000 3.061
90.08000 4.682
90.10000 1.884
90.12000 -0.689
90.14000 0.758
90.16000 1.051
90.18000 2.192
90.20000 2.128
90.22000 3.851
90.24000 5.260
90.26000 4.112
90.28000 2.850
90.30000 0.680
90.32000 -2.036
90.34000 -1.302
90.36000 1.084
90.38000 3.660
90.40000 3.132
90.42000 1.945
90.44000 1.516
90.46000 2.199
90.48000 1.994
90.50000 3.603
90.52000 4.401
90.54000 2.894
90.56000 0.179
90.58000 0.160
90.60000 2.330
90.62000 -2.059
90.64000 -2.135
90.66000 1.483
90.68000 0.434
90.70000 -1.556
90.72000 -0.609
90.74000 1.762
90.76000 5.300
90.78000 9.006
90.80000 4.396
90.82000 3.934
90.84000 1.074
90.86000 2.473
90.88000 5.527
90.90000 1.355
90.92000 0.322
90.94000 4.553
90.96000 0.681
90.98000 0.428
91.00000 9.067
91.02000 8.072
91.04000 4.027
91.06000 5.013
91.08000 2.504
91.10000 2.347
91.12000 3.381
91.14000 5.582
91.16000 4.442
91.18000 4.310
91.20000 2.581
91.22000 0.377
91.24000 -0.722
91.26000 3.034
91.28000 3.141
91.30000 3.978
91.32000 7.407
91.34000 3.332
91.36000 5.658
91.38000 5.009
91.40000 2.445
91.42000 6.391
91.44000 5.080
91.46000 3.400
91.48000 2.185
91.50000 1.216
91.52000 6.143
91.54000 7.436
91.56000 6.415
91.58000 6.359
91.60000 2.108
91.62000 -2.059
91.64000 -1.778
91.66000 3.846
91.68000 9.098
91.70000 6.497
91.72000 5.252
91.74000 6.324
91.76000 6.809
91.78000 4.562
91.80000 2.232
91.82000 5.745
91.84000 5.041
91.86000 0.602
91.88000 2.796
91.90000 4.126
91.92000 5.283
91.94000 4.668
91.96000 6.450
91.98000 9.270
92.00000 7.387
92.02000 7.637
92.04000 6.459
92.06000 4.649
92.08000 4.514
92.10000 2.783
92.12000 -1.743
92.14000 -2.101
92.16000 2.082
92.18000 5.440
92.20000 2.720
92.22000 1.518
92.24000 4.990
92.26000 6.487
92.28000 4.882
92.30000 0.691
92.32000 0.185
92.34000 1.909
92.36000 4.094
92.38000 4.782
92.40000 4.424
92.42000 1.468
92.44000 4.482
92.46000 -0.765
92.48000 4.354
92.50000 1.920
92.52000 3.004
92.54000 0.252
92.56000 -0.953
92.58000 8.037
92.60000 6.328
92.62000 3.119
92.64000 0.142
92.66000 3.959
92.68000 -0.043
92.70000 -1.468
92.72000 -0.702
92.74000 1.453
92.76000 3.120
92.78000 3.036
92.80000 -2.122
92.82000 -1.417
92.84000 -1.530
92.86000 -1.095
92.88000 6.016
92.90000 1.139
92.92000 1.899
92.94000 5.959
92.96000 3.324
92.98000 1.802
93.00000 1.799
93.02000 7.400
93.04000 6.640
93.06000 5.414
93.08000 4.279
93.10000 7.046
93.12000 4.315
93.14000 3.326
93.16000 2.374
93.18000 -0.448
93.20000 3.878
93.22000 1.606
93.24000 0.582
93.26000 -0.231
93.28000 5.484
93.30000 7.576
93.32000 7.327
93.34000 2.884
93.36000 0.569
93.38000 1.823
93.40000 2.056
93.42000 0.972
93.44000 4.151
93.46000 5.279
93.48000 6.008
93.50000 3.019
93.52000 2.781
93.54000 -1.312
93.56000 0.850
93.58000 6.718
93.60000 7.851
93.62000 5.101
93.64000 4.487
93.66000 2.870
93.68000 1.993
93.70000 2.271
93.72000 -0.380
93.74000 -2.147
93.76000 4.988
93.78000 11.054
93.80000 4.296
93.82000 6.276
93.84000 6.525
93.86000 6.094
93.88000 6.690
93.90000 -0.037
93.92000 0.047
93.94000 0.967
93.96000 2.551
93.98000 -0.344
94.00000 2.939
94.02000 3.532
94.04000 0.793
94.06000 0.592
94.08000 5.917
94.10000 4.241
94.12000 3.624
94.14000 2.014
94.16000 2.602
94.18000 0.657
94.20000 3.812
94.22000 1.468
94.24000 -1.099
94.26000 -2.144
94.28000 1.520
94.30000 5.572
94.32000 7.520
94.34000 5.247
94.36000 1.393
94.38000 0.887
94.40000 0.132
94.42000 3.138
94.44000 -0.269
94.46000 2.696
94.48000 8.827
94.50000 8.116
94.52000 7.460
94.54000 4.325
94.56000 1.239
94.58000 0.707
94.60000 -0.802
94.62000 -0.076
94.64000 1.934
94.66000 -2.138
94.68000 3.323
94.70000 8.790
94.72000 4.394
94.74000 2.663
94.76000 3.851
94.78000 3.919
94.80000 4.835
94.82000 0.215
94.84000 4.260
94.86000 3.246
94.88000 2.059
94.90000 5.802
94.92000 6.478
94.94000 0.056
94.96000 4.576
94.98000 -2.147
95.00000 -1.285
95.02000 2.771
95.04000 5.970
95.06000 2.819
95.08000 3.804
95.10000 2.539
95.12000 3.115
95.14000 3.126
95.16000 0.777
95.18000 0.598
95.20000 2.287
95.22000 1.745
95.24000 0.622
95.26000 4.328
95.28000 2.747
95.30000 3.491
95.32000 3.302
95.34000 2.980
95.36000 -2.157
95.38000 0.761
95.40000 6.072
95.42000 6.191
95.44000 2.316
95.46000 -0.752
95.48000 0.536
95.50000 2.954
95.52000 5.054
95.54000 4.842
95.56000 2.993
95.58000 1.104
95.60000 -1.177
95.62000 1.084
95.64000 6.007
95.66000 4.048
95.68000 5.173
95.70000 4.608
95.72000 3.365
95.74000 3.002
95.76000 2.624
95.78000 -0.555
95.80000 2.254
95.82000 3.194
95.84000 -0.283
95.86000 4.119
95.88000 2.094
95.90000 5.937
95.92000 4.605
95.94000 4.175
95.96000 4.866
95.98000 4.196
96.00000 -2.166
96.02000 3.158
96.04000 2.485
96.06000 5.473
96.08000 -1.079
96.10000 0.381
96.12000 1.840
96.14000 1.417
96.16000 -0.284
96.18000 0.266
96.20000 1.031
96.22000 2.070
96.24000 5.260
96.26000 1.111
96.28000 -1.469
96.30000 -0.568
96.32000 0.981
96.34000 3.480
96.36000 3.053
96.38000 -0.824
96.40000 -0.025
96.42000 -2.159
96.44000 -1.160
96.46000 2.793
96.48000 2.268
96.50000 -0.304
96.52000 0.279
96.54000 1.197
96.56000 0.765
96.58000 1.079
96.60000 2.479
96.62000 2.004
96.64000 -2.154
96.66000 2.045
96.68000 3.456
96.70000 6.790
96.72000 3.695
96.74000 4.766
96.76000 2.502
96.78000 4.082
96.80000 1.102
96.82000 3.832
96.84000 3.721
96.86000 -1.698
96.88000 2.747
96.90000 3.863
96.92000 3.400
96.94000 -1.377
96.96000 -2.147
96.98000 0.667
97.00000 2.436
97.02000 1.404
97.04000 2.609
97.06000 4.278
97.08000 4.103
97.10000 -0.194
97.12000 0.447
97.14000 3.913
97.16000 3.777
97.18000 3.503
97.20000 3.548
97.22000 1.125
97.24000 -1.706
97.26000 5.051
97.28000 4.438
97.30000 2.535
97.32000 9.394
97.34000 1.648
97.36000 0.713
97.38000 4.843
97.40000 0.735
97.42000 0.370
97.44000 2.970
97.46000 2.040
97.48000 2.141
97.50000 -2.012
97.52000 -0.338
97.54000 5.674
97.56000 2.590
97.58000 2.334
97.60000 0.504
97.62000 4.071
97.64000 3.676
97.66000 6.376
97.68000 4.750
97.70000 12.898
97.72000 5.310
97.74000 0.403
97.76000 0.489
97.78000 2.317
97.80000 2.335
97.82000 4.361
97.84000 -0.926
97.86000 6.616
97.88000 10.730
97.90000 3.203
97.92000 -0.111
97.94000 3.109
97.96000 -0.323
97.98000 -1.318
98.00000 6.660
98.02000 11.043
98.04000 7.219
98.06000 3.522
98.08000 3.464
98.10000 4.272
98.12000 6.679
98.14000 0.814
98.16000 1.265
98.18000 1.558
98.20000 5.782
98.22000 6.139
98.24000 -0.628
98.26000 -0.200
98.28000 7.467
98.30000 11.999
98.32000 9.893
98.34000 3.130
98.36000 5.577
98.38000 0.772
98.40000 -1.643
98.42000 5.113
98.44000 4.404
98.46000 4.432
98.48000 8.349
98.50000 9.795
98.52000 3.519
98.54000 3.687
98.56000 9.136
98.58000 7.918
98.60000 4.256
98.62000 9.033
98.64000 15.804
98.66000 10.072
98.68000 13.223
98.70000 8.166
98.72000 8.254
98.74000 2.573
98.76000 5.077
98.78000 7.867
98.80000 5.104
98.82000 5.180
98.84000 8.023
98.86000 11.769
98.88000 7.379
98.90000 -1.996
98.92000 2.203
98.94000 9.019
98.96000 9.086
98.98000 8.149
99.00000 10.781
99.02000 11.500
99.04000 -2.018
99.06000 0.785
99.08000 6.982
99.10000 3.483
99.12000 7.755
99.14000 4.010
99.16000 9.812
99.18000 9.657
99.20000 8.520
99.22000 5.032
99.24000 9.440
99.26000 5.202
99.28000 3.235
99.30000 13.599
99.32000 13.920
99.34000 12.400
99.36000 3.958
99.38000 5.707
99.40000 6.856
99.42000 2.910
99.44000 3.575
99.46000 9.771
99.48000 1.381
99.50000 0.379
99.52000 2.928
99.54000 2.462
99.56000 8.298
99.58000 3.367
99.60000 9.858
99.62000 7.006
99.64000 4.013
99.66000 2.033
99.68000 5.421
99.70000 -2.137
99.72000 -2.143
99.74000 4.326
99.76000 7.481
99.78000 1.975
99.80000 2.684
99.82000 12.546
99.84000 -2.146
99.86000 2.234
99.88000 16.534
99.90000 8.730
99.92000 2.665
99.94000 -2.251
99.96000 4.457
99.98000 0.000
