'Id: "0011388" Comment: "Integrate frame 0011388_Au-Ir-Rh_Rh-rich_XRD-Mapping-173-0000.gfrmwith cursor Wedge Cursor #5" Operator: "B?rgel" Anode: "Cu" Wavelength: "1.5406" Scantype: "2Theta (TwoTheta)" TimePerStep: "1" X: "27" Y: "0" Z: "5.95" 
10.00000 0.000
10.02000 0.377
10.04000 -3.594
10.06000 0.141
10.08000 -2.452
10.10000 -3.574
10.12000 2.444
10.14000 12.353
10.16000 12.580
10.18000 8.570
10.20000 2.011
10.22000 2.493
10.24000 -3.594
10.26000 4.558
10.28000 14.015
10.30000 15.107
10.32000 13.885
10.34000 2.370
10.36000 3.523
10.38000 20.263
10.40000 23.055
10.42000 16.339
10.44000 17.179
10.46000 9.739
10.48000 0.875
10.50000 -3.650
10.52000 4.301
10.54000 14.821
10.56000 12.495
10.58000 13.118
10.60000 17.499
10.62000 22.305
10.64000 16.005
10.66000 16.202
10.68000 12.165
10.70000 2.415
10.72000 12.304
10.74000 25.989
10.76000 12.016
10.78000 10.333
10.80000 19.167
10.82000 26.702
10.84000 27.120
10.86000 11.267
10.88000 21.380
10.90000 15.509
10.92000 9.525
10.94000 21.667
10.96000 17.557
10.98000 7.586
11.00000 10.641
11.02000 14.391
11.04000 12.761
11.06000 14.856
11.08000 32.225
11.10000 30.525
11.12000 20.532
11.14000 18.594
11.16000 20.995
11.18000 26.829
11.20000 24.018
11.22000 25.368
11.24000 27.930
11.26000 33.804
11.28000 23.588
11.30000 17.546
11.32000 20.603
11.34000 14.568
11.36000 18.732
11.38000 29.105
11.40000 27.987
11.42000 22.705
11.44000 27.046
11.46000 21.675
11.48000 20.936
11.50000 30.453
11.52000 28.389
11.54000 17.366
11.56000 10.559
11.58000 15.687
11.60000 19.169
11.62000 26.018
11.64000 29.661
11.66000 16.038
11.68000 19.080
11.70000 25.866
11.72000 35.238
11.74000 28.927
11.76000 29.310
11.78000 29.613
11.80000 14.410
11.82000 18.914
11.84000 22.259
11.86000 24.449
11.88000 27.642
11.90000 23.521
11.92000 25.004
11.94000 28.072
11.96000 20.442
11.98000 12.313
12.00000 24.633
12.02000 24.828
12.04000 17.753
12.06000 20.498
12.08000 18.294
12.10000 14.329
12.12000 15.531
12.14000 17.301
12.16000 25.867
12.18000 23.804
12.20000 35.056
12.22000 35.886
12.24000 24.459
12.26000 28.574
12.28000 34.514
12.30000 33.123
12.32000 19.118
12.34000 7.777
12.36000 23.001
12.38000 40.921
12.40000 35.339
12.42000 19.451
12.44000 29.059
12.46000 33.095
12.48000 31.693
12.50000 28.845
12.52000 26.302
12.54000 21.652
12.56000 29.586
12.58000 28.538
12.60000 31.135
12.62000 35.839
12.64000 29.236
12.66000 28.999
12.68000 31.988
12.70000 22.200
12.72000 29.197
12.74000 31.027
12.76000 37.167
12.78000 32.910
12.80000 40.900
12.82000 28.565
12.84000 19.089
12.86000 30.528
12.88000 30.892
12.90000 32.073
12.92000 32.230
12.94000 26.856
12.96000 25.312
12.98000 38.642
13.00000 41.128
13.02000 38.641
13.04000 38.573
13.06000 32.899
13.08000 21.926
13.10000 32.293
13.12000 31.168
13.14000 32.601
13.16000 32.928
13.18000 34.941
13.20000 37.909
13.22000 36.709
13.24000 31.846
13.26000 29.641
13.28000 26.132
13.30000 19.484
13.32000 28.113
13.34000 27.647
13.36000 32.187
13.38000 38.225
13.40000 26.382
13.42000 40.439
13.44000 27.000
13.46000 17.407
13.48000 19.877
13.50000 27.729
13.52000 21.490
13.54000 22.166
13.56000 22.211
13.58000 19.835
13.60000 16.863
13.62000 17.628
13.64000 32.235
13.66000 35.129
13.68000 23.228
13.70000 10.078
13.72000 17.245
13.74000 23.170
13.76000 22.335
13.78000 14.934
13.80000 24.916
13.82000 17.997
13.84000 24.849
13.86000 29.917
13.88000 24.299
13.90000 14.095
13.92000 19.507
13.94000 31.748
13.96000 42.490
13.98000 36.579
14.00000 22.582
14.02000 22.186
14.04000 16.556
14.06000 9.107
14.08000 9.878
14.10000 18.490
14.12000 20.312
14.14000 13.898
14.16000 10.049
14.18000 11.466
14.20000 16.299
14.22000 25.511
14.24000 24.371
14.26000 25.632
14.28000 21.636
14.30000 14.304
14.32000 14.763
14.34000 14.630
14.36000 25.248
14.38000 27.012
14.40000 23.315
14.42000 25.196
14.44000 21.868
14.46000 28.003
14.48000 26.460
14.50000 21.673
14.52000 22.921
14.54000 16.791
14.56000 7.692
14.58000 15.635
14.60000 32.238
14.62000 20.484
14.64000 13.143
14.66000 9.355
14.68000 21.442
14.70000 19.772
14.72000 16.369
14.74000 20.840
14.76000 23.295
14.78000 13.810
14.80000 3.404
14.82000 13.257
14.84000 19.338
14.86000 10.920
14.88000 18.771
14.90000 21.221
14.92000 16.511
14.94000 21.021
14.96000 23.265
14.98000 19.142
15.00000 17.702
15.02000 18.498
15.04000 22.871
15.06000 14.576
15.08000 14.599
15.10000 18.099
15.12000 24.530
15.14000 19.877
15.16000 15.229
15.18000 11.202
15.20000 5.919
15.22000 11.370
15.24000 18.832
15.26000 20.818
15.28000 12.723
15.30000 17.060
15.32000 20.460
15.34000 18.379
15.36000 19.186
15.38000 17.633
15.40000 19.351
15.42000 12.944
15.44000 11.137
15.46000 8.497
15.48000 15.229
15.50000 12.591
15.52000 15.718
15.54000 17.987
15.56000 18.624
15.58000 11.489
15.60000 2.539
15.62000 7.191
15.64000 14.221
15.66000 19.752
15.68000 12.308
15.70000 10.600
15.72000 9.365
15.74000 5.115
15.76000 -0.777
15.78000 8.419
15.80000 5.506
15.82000 0.347
15.84000 10.472
15.86000 10.830
15.88000 9.462
15.90000 11.809
15.92000 18.127
15.94000 18.186
15.96000 12.327
15.98000 15.764
16.00000 15.809
16.02000 13.344
16.04000 5.644
16.06000 4.875
16.08000 3.857
16.10000 2.549
16.12000 1.461
16.14000 5.183
16.16000 -0.919
16.18000 4.647
16.20000 7.782
16.22000 8.036
16.24000 4.906
16.26000 4.386
16.28000 0.708
16.30000 9.910
16.32000 20.461
16.34000 19.948
16.36000 10.996
16.38000 5.639
16.40000 11.645
16.42000 9.751
16.44000 15.128
16.46000 13.870
16.48000 10.357
16.50000 11.430
16.52000 4.244
16.54000 6.987
16.56000 9.884
16.58000 2.147
16.60000 -1.416
16.62000 7.782
16.64000 7.892
16.66000 4.046
16.68000 -0.498
16.70000 3.463
16.72000 6.067
16.74000 5.654
16.76000 7.463
16.78000 8.209
16.80000 10.580
16.82000 8.903
16.84000 11.519
16.86000 6.961
16.88000 0.626
16.90000 2.026
16.92000 4.827
16.94000 2.041
16.96000 5.929
16.98000 13.758
17.00000 14.532
17.02000 9.927
17.04000 7.949
17.06000 6.510
17.08000 4.888
17.10000 -0.316
17.12000 6.835
17.14000 3.148
17.16000 2.419
17.18000 3.492
17.20000 3.378
17.22000 -1.954
17.24000 0.818
17.26000 3.794
17.28000 9.310
17.30000 11.660
17.32000 10.583
17.34000 9.233
17.36000 9.101
17.38000 8.983
17.40000 -0.088
17.42000 -0.087
17.44000 9.967
17.46000 9.362
17.48000 1.825
17.50000 7.180
17.52000 2.501
17.54000 7.847
17.56000 9.576
17.58000 1.987
17.60000 3.485
17.62000 3.537
17.64000 -0.559
17.66000 -3.083
17.68000 4.553
17.70000 5.110
17.72000 14.320
17.74000 11.593
17.76000 6.298
17.78000 14.672
17.80000 7.761
17.82000 -4.366
17.84000 -0.851
17.86000 9.033
17.88000 4.040
17.90000 1.016
17.92000 3.448
17.94000 -0.115
17.96000 6.228
17.98000 9.488
18.00000 3.516
18.02000 7.188
18.04000 10.745
18.06000 6.727
18.08000 -1.395
18.10000 0.229
18.12000 1.539
18.14000 1.417
18.16000 6.785
18.18000 11.335
18.20000 15.807
18.22000 7.831
18.24000 6.208
18.26000 19.156
18.28000 10.618
18.30000 5.415
18.32000 6.762
18.34000 4.222
18.36000 5.862
18.38000 11.744
18.40000 5.111
18.42000 -0.241
18.44000 0.219
18.46000 5.989
18.48000 5.022
18.50000 3.445
18.52000 2.678
18.54000 -2.938
18.56000 -0.067
18.58000 4.282
18.60000 10.919
18.62000 9.775
18.64000 3.645
18.66000 2.544
18.68000 4.232
18.70000 9.348
18.72000 6.357
18.74000 1.548
18.76000 4.447
18.78000 -4.292
18.80000 3.980
18.82000 9.961
18.84000 1.930
18.86000 3.646
18.88000 3.470
18.90000 3.650
18.92000 1.451
18.94000 4.710
18.96000 3.811
18.98000 7.976
19.00000 4.038
19.02000 4.866
19.04000 8.932
19.06000 8.238
19.08000 6.175
19.10000 4.853
19.12000 5.623
19.14000 8.457
19.16000 7.184
19.18000 3.910
19.20000 11.011
19.22000 6.537
19.24000 6.239
19.26000 4.050
19.28000 0.688
19.30000 0.651
19.32000 -4.254
19.34000 3.452
19.36000 3.852
19.38000 7.873
19.40000 0.780
19.42000 2.997
19.44000 3.712
19.46000 7.742
19.48000 6.001
19.50000 3.205
19.52000 1.075
19.54000 -0.251
19.56000 1.745
19.58000 2.295
19.60000 8.480
19.62000 16.885
19.64000 17.735
19.66000 4.996
19.68000 7.421
19.70000 7.599
19.72000 6.363
19.74000 0.800
19.76000 8.900
19.78000 13.084
19.80000 9.721
19.82000 5.567
19.84000 4.342
19.86000 0.258
19.88000 4.364
19.90000 10.386
19.92000 12.058
19.94000 9.133
19.96000 2.540
19.98000 -0.977
20.00000 2.482
20.02000 -2.988
20.04000 -4.233
20.06000 1.052
20.08000 1.156
20.10000 8.940
20.12000 8.828
20.14000 8.949
20.16000 5.096
20.18000 -0.361
20.20000 3.378
20.22000 3.305
20.24000 1.284
20.26000 3.745
20.28000 0.193
20.30000 0.425
20.32000 5.413
20.34000 8.926
20.36000 7.224
20.38000 2.599
20.40000 1.722
20.42000 -2.705
20.44000 1.628
20.46000 6.162
20.48000 7.165
20.50000 -1.118
20.52000 3.705
20.54000 11.963
20.56000 4.569
20.58000 7.291
20.60000 4.215
20.62000 5.631
20.64000 3.746
20.66000 -4.211
20.68000 0.071
20.70000 3.580
20.72000 -0.032
20.74000 -2.221
20.76000 -0.804
20.78000 0.961
20.80000 3.478
20.82000 3.530
20.84000 0.330
20.86000 1.572
20.88000 2.414
20.90000 8.647
20.92000 11.292
20.94000 4.663
20.96000 3.787
20.98000 1.228
21.00000 0.649
21.02000 -1.702
21.04000 2.748
21.06000 2.134
21.08000 -0.995
21.10000 2.560
21.12000 3.840
21.14000 0.647
21.16000 5.893
21.18000 4.090
21.20000 1.602
21.22000 3.354
21.24000 5.288
21.26000 4.642
21.28000 6.845
21.30000 1.260
21.32000 1.569
21.34000 -3.213
21.36000 3.369
21.38000 7.791
21.40000 -0.642
21.42000 5.011
21.44000 7.885
21.46000 1.739
21.48000 -0.658
21.50000 3.121
21.52000 7.140
21.54000 6.064
21.56000 4.813
21.58000 2.084
21.60000 0.818
21.62000 3.063
21.64000 2.406
21.66000 10.463
21.68000 11.111
21.70000 6.938
21.72000 5.101
21.74000 7.786
21.76000 12.716
21.78000 4.625
21.80000 3.636
21.82000 7.592
21.84000 6.139
21.86000 2.609
21.88000 7.095
21.90000 7.848
21.92000 3.354
21.94000 4.434
21.96000 5.960
21.98000 0.072
22.00000 0.440
22.02000 0.960
22.04000 4.166
22.06000 11.528
22.08000 7.110
22.10000 -4.105
22.12000 -2.993
22.14000 2.277
22.16000 10.438
22.18000 9.831
22.20000 5.008
22.22000 3.540
22.24000 -0.891
22.26000 -1.558
22.28000 4.395
22.30000 9.869
22.32000 5.233
22.34000 1.849
22.36000 -0.110
22.38000 1.438
22.40000 6.947
22.42000 12.041
22.44000 7.879
22.46000 5.737
22.48000 4.229
22.50000 6.614
22.52000 11.813
22.54000 8.575
22.56000 2.681
22.58000 -4.060
22.60000 2.486
22.62000 6.524
22.64000 6.050
22.66000 2.573
22.68000 8.120
22.70000 11.734
22.72000 7.484
22.74000 8.305
22.76000 10.082
22.78000 8.950
22.80000 1.932
22.82000 5.321
22.84000 8.958
22.86000 7.229
22.88000 8.310
22.90000 11.645
22.92000 2.166
22.94000 7.874
22.96000 5.281
22.98000 2.168
23.00000 3.441
23.02000 3.686
23.04000 5.058
23.06000 7.726
23.08000 7.457
23.10000 2.717
23.12000 8.937
23.14000 9.365
23.16000 5.288
23.18000 8.134
23.20000 4.565
23.22000 -3.091
23.24000 6.672
23.26000 13.279
23.28000 12.473
23.30000 8.651
23.32000 7.440
23.34000 0.010
23.36000 -4.032
23.38000 3.836
23.40000 7.957
23.42000 2.080
23.44000 5.303
23.46000 9.549
23.48000 7.647
23.50000 -1.786
23.52000 -1.940
23.54000 1.622
23.56000 5.596
23.58000 1.843
23.60000 3.627
23.62000 1.760
23.64000 8.050
23.66000 3.826
23.68000 10.379
23.70000 8.825
23.72000 6.230
23.74000 4.606
23.76000 2.489
23.78000 3.868
23.80000 6.798
23.82000 6.807
23.84000 3.186
23.86000 2.476
23.88000 5.395
23.90000 7.086
23.92000 1.037
23.94000 -3.003
23.96000 -0.453
23.98000 7.091
24.00000 0.607
24.02000 -4.020
24.04000 1.350
24.06000 1.940
24.08000 1.291
24.10000 0.647
24.12000 2.902
24.14000 6.670
24.16000 8.611
24.18000 -0.085
24.20000 -0.752
24.22000 0.476
24.24000 1.985
24.26000 5.831
24.28000 3.885
24.30000 -1.130
24.32000 2.534
24.34000 3.339
24.36000 1.308
24.38000 3.645
24.40000 5.422
24.42000 4.554
24.44000 3.223
24.46000 2.713
24.48000 0.717
24.50000 -0.248
24.52000 4.440
24.54000 5.159
24.56000 6.671
24.58000 1.425
24.60000 0.727
24.62000 -4.001
24.64000 -2.974
24.66000 2.129
24.68000 5.420
24.70000 4.580
24.72000 5.724
24.74000 2.374
24.76000 -2.417
24.78000 -2.824
24.80000 0.537
24.82000 -0.915
24.84000 0.413
24.86000 2.796
24.88000 3.512
24.90000 0.702
24.92000 -2.478
24.94000 2.250
24.96000 -0.129
24.98000 -2.243
25.00000 -0.711
25.02000 5.345
25.04000 0.552
25.06000 1.912
25.08000 2.740
25.10000 -2.405
25.12000 -2.086
25.14000 -2.096
25.16000 0.153
25.18000 0.500
25.20000 2.272
25.22000 2.922
25.24000 1.094
25.26000 2.136
25.28000 2.220
25.30000 5.067
25.32000 2.023
25.34000 0.679
25.36000 -3.839
25.38000 -2.296
25.40000 4.940
25.42000 -0.908
25.44000 -3.771
25.46000 -1.694
25.48000 -0.725
25.50000 3.093
25.52000 2.988
25.54000 4.337
25.56000 4.897
25.58000 2.873
25.60000 0.007
25.62000 3.401
25.64000 2.429
25.66000 6.323
25.68000 9.424
25.70000 1.906
25.72000 2.095
25.74000 4.713
25.76000 -0.329
25.78000 -2.544
25.80000 5.550
25.82000 10.851
25.84000 3.313
25.86000 -2.979
25.88000 -3.347
25.90000 -0.150
25.92000 1.438
25.94000 -1.267
25.96000 -0.492
25.98000 2.401
26.00000 0.665
26.02000 3.662
26.04000 3.714
26.06000 -3.920
26.08000 0.826
26.10000 2.647
26.12000 2.481
26.14000 -0.678
26.16000 -0.568
26.18000 1.233
26.20000 -1.033
26.22000 -1.194
26.24000 4.710
26.26000 5.544
26.28000 7.502
26.30000 1.352
26.32000 3.279
26.34000 4.119
26.36000 4.572
26.38000 1.043
26.40000 -2.635
26.42000 0.520
26.44000 2.660
26.46000 5.218
26.48000 3.386
26.50000 7.942
26.52000 2.784
26.54000 0.710
26.56000 2.414
26.58000 3.722
26.60000 1.801
26.62000 3.092
26.64000 5.383
26.66000 5.488
26.68000 3.088
26.70000 1.491
26.72000 2.210
26.74000 5.842
26.76000 8.514
26.78000 5.172
26.80000 4.099
26.82000 8.035
26.84000 5.047
26.86000 5.725
26.88000 5.464
26.90000 -0.485
26.92000 -1.563
26.94000 4.737
26.96000 0.993
26.98000 -3.828
27.00000 2.189
27.02000 1.188
27.04000 5.843
27.06000 7.857
27.08000 9.174
27.10000 8.093
27.12000 4.021
27.14000 2.567
27.16000 5.159
27.18000 5.604
27.20000 7.343
27.22000 6.466
27.24000 4.935
27.26000 6.233
27.28000 1.205
27.30000 2.856
27.32000 3.278
27.34000 4.217
27.36000 3.961
27.38000 4.561
27.40000 4.656
27.42000 6.337
27.44000 3.765
27.46000 3.152
27.48000 5.424
27.50000 2.896
27.52000 5.634
27.54000 1.468
27.56000 2.625
27.58000 -0.627
27.60000 1.736
27.62000 0.542
27.64000 4.067
27.66000 6.742
27.68000 6.228
27.70000 7.641
27.72000 4.828
27.74000 1.300
27.76000 -2.209
27.78000 3.139
27.80000 -1.199
27.82000 -0.592
27.84000 -1.019
27.86000 -1.232
27.88000 5.957
27.90000 3.632
27.92000 1.179
27.94000 -2.839
27.96000 -0.071
27.98000 4.768
28.00000 3.648
28.02000 5.102
28.04000 6.790
28.06000 0.146
28.08000 7.516
28.10000 2.188
28.12000 -2.601
28.14000 -2.835
28.16000 3.493
28.18000 0.834
28.20000 -0.438
28.22000 4.544
28.24000 6.143
28.26000 8.595
28.28000 4.170
28.30000 4.167
28.32000 6.475
28.34000 5.942
28.36000 3.248
28.38000 1.230
28.40000 -0.432
28.42000 -2.462
28.44000 0.373
28.46000 0.080
28.48000 -3.781
28.50000 4.823
28.52000 4.514
28.54000 1.060
28.56000 2.708
28.58000 4.739
28.60000 2.578
28.62000 2.238
28.64000 4.583
28.66000 7.096
28.68000 1.271
28.70000 1.176
28.72000 -0.918
28.74000 -0.279
28.76000 -3.439
28.78000 -0.767
28.80000 2.577
28.82000 2.015
28.84000 -0.788
28.86000 -1.362
28.88000 1.121
28.90000 -3.556
28.92000 -0.576
28.94000 -2.625
28.96000 2.768
28.98000 4.201
29.00000 4.620
29.02000 6.919
29.04000 7.416
29.06000 1.422
29.08000 1.153
29.10000 3.077
29.12000 4.905
29.14000 1.468
29.16000 1.846
29.18000 8.613
29.20000 2.906
29.22000 6.553
29.24000 10.533
29.26000 2.692
29.28000 0.041
29.30000 -1.016
29.32000 1.553
29.34000 2.921
29.36000 3.982
29.38000 5.086
29.40000 3.348
29.42000 -0.927
29.44000 -2.531
29.46000 -1.339
29.48000 1.431
29.50000 -1.679
29.52000 -1.856
29.54000 -1.939
29.56000 -1.847
29.58000 -0.786
29.60000 -0.997
29.62000 -3.619
29.64000 -3.729
29.66000 -0.597
29.68000 -2.802
29.70000 1.809
29.72000 2.035
29.74000 3.792
29.76000 2.435
29.78000 0.788
29.80000 0.329
29.82000 -1.395
29.84000 -0.485
29.86000 3.099
29.88000 7.421
29.90000 9.067
29.92000 3.940
29.94000 -1.072
29.96000 -1.169
29.98000 3.350
30.00000 4.293
30.02000 1.239
30.04000 6.084
30.06000 6.538
30.08000 -0.042
30.10000 -1.226
30.12000 6.607
30.14000 6.585
30.16000 3.260
30.18000 2.105
30.20000 5.706
30.22000 7.494
30.24000 4.433
30.26000 3.030
30.28000 2.645
30.30000 -0.419
30.32000 0.181
30.34000 2.112
30.36000 0.004
30.38000 3.782
30.40000 4.496
30.42000 5.125
30.44000 2.599
30.46000 -0.303
30.48000 -2.204
30.50000 3.746
30.52000 6.697
30.54000 -1.604
30.56000 2.263
30.58000 1.812
30.60000 -0.342
30.62000 -3.666
30.64000 4.828
30.66000 4.286
30.68000 3.458
30.70000 2.913
30.72000 3.804
30.74000 3.094
30.76000 5.516
30.78000 1.083
30.80000 8.566
30.82000 11.552
30.84000 10.155
30.86000 9.312
30.88000 4.226
30.90000 4.692
30.92000 1.712
30.94000 2.434
30.96000 8.294
30.98000 6.991
31.00000 2.642
31.02000 0.613
31.04000 5.326
31.06000 3.828
31.08000 4.615
31.10000 1.898
31.12000 3.355
31.14000 4.295
31.16000 4.896
31.18000 7.532
31.20000 11.896
31.22000 9.172
31.24000 1.756
31.26000 4.904
31.28000 7.784
31.30000 4.982
31.32000 3.716
31.34000 5.693
31.36000 6.583
31.38000 7.487
31.40000 0.552
31.42000 -3.595
31.44000 4.709
31.46000 2.903
31.48000 8.546
31.50000 8.765
31.52000 7.759
31.54000 5.198
31.56000 8.241
31.58000 8.635
31.60000 7.957
31.62000 4.269
31.64000 4.410
31.66000 5.570
31.68000 6.524
31.70000 8.597
31.72000 4.633
31.74000 7.614
31.76000 7.693
31.78000 2.242
31.80000 4.091
31.82000 5.604
31.84000 10.109
31.86000 4.571
31.88000 7.990
31.90000 6.631
31.92000 5.644
31.94000 3.781
31.96000 4.004
31.98000 3.164
32.00000 -2.600
32.02000 -0.608
32.04000 8.667
32.06000 10.832
32.08000 10.453
32.10000 10.693
32.12000 3.556
32.14000 3.415
32.16000 5.699
32.18000 1.279
32.20000 3.996
32.22000 7.482
32.24000 13.014
32.26000 7.248
32.28000 6.577
32.30000 8.956
32.32000 5.394
32.34000 3.184
32.36000 6.914
32.38000 5.547
32.40000 4.074
32.42000 3.104
32.44000 0.946
32.46000 2.023
32.48000 4.431
32.50000 6.759
32.52000 5.796
32.54000 8.332
32.56000 5.388
32.58000 -3.586
32.60000 -0.458
32.62000 1.904
32.64000 0.771
32.66000 4.504
32.68000 5.666
32.70000 5.215
32.72000 6.745
32.74000 4.008
32.76000 1.634
32.78000 3.764
32.80000 2.386
32.82000 7.963
32.84000 6.381
32.86000 3.831
32.88000 3.647
32.90000 5.512
32.92000 7.455
32.94000 6.386
32.96000 8.186
32.98000 9.243
33.00000 7.843
33.02000 1.807
33.04000 -1.648
33.06000 1.628
33.08000 4.558
33.10000 2.133
33.12000 6.345
33.14000 9.605
33.16000 2.098
33.18000 -0.935
33.20000 -3.583
33.22000 -0.833
33.24000 2.010
33.26000 5.252
33.28000 1.286
33.30000 0.634
33.32000 4.024
33.34000 2.227
33.36000 1.159
33.38000 0.964
33.40000 5.511
33.42000 4.128
33.44000 6.262
33.46000 6.363
33.48000 3.399
33.50000 0.766
33.52000 0.754
33.54000 2.877
33.56000 4.519
33.58000 3.231
33.60000 5.357
33.62000 7.505
33.64000 7.301
33.66000 0.632
33.68000 3.826
33.70000 9.982
33.72000 9.757
33.74000 5.949
33.76000 5.782
33.78000 5.602
33.80000 2.283
33.82000 -3.317
33.84000 1.247
33.86000 4.537
33.88000 0.434
33.90000 2.923
33.92000 5.474
33.94000 7.830
33.96000 3.260
33.98000 3.586
34.00000 7.862
34.02000 6.254
34.04000 5.525
34.06000 8.936
34.08000 8.806
34.10000 5.498
34.12000 6.712
34.14000 8.972
34.16000 3.170
34.18000 1.527
34.20000 5.562
34.22000 8.507
34.24000 4.513
34.26000 7.883
34.28000 7.392
34.30000 5.707
34.32000 6.881
34.34000 4.036
34.36000 2.315
34.38000 5.221
34.40000 2.626
34.42000 3.944
34.44000 4.098
34.46000 3.755
34.48000 5.201
34.50000 4.392
34.52000 6.520
34.54000 3.565
34.56000 -3.529
34.58000 -1.863
34.60000 3.623
34.62000 3.527
34.64000 3.896
34.66000 5.264
34.68000 2.572
34.70000 4.345
34.72000 6.161
34.74000 3.547
34.76000 1.169
34.78000 3.064
34.80000 2.489
34.82000 5.914
34.84000 6.626
34.86000 3.476
34.88000 0.732
34.90000 -3.258
34.92000 -0.161
34.94000 1.661
34.96000 2.437
34.98000 -0.789
35.00000 1.965
35.02000 5.451
35.04000 0.408
35.06000 -1.399
35.08000 -0.466
35.10000 0.958
35.12000 0.453
35.14000 -1.251
35.16000 1.198
35.18000 0.848
35.20000 0.318
35.22000 3.439
35.24000 3.600
35.26000 4.519
35.28000 4.081
35.30000 4.561
35.32000 5.512
35.34000 7.135
35.36000 -1.547
35.38000 0.570
35.40000 6.756
35.42000 9.115
35.44000 -0.920
35.46000 2.392
35.48000 4.621
35.50000 2.962
35.52000 -1.093
35.54000 -1.023
35.56000 0.327
35.58000 -0.155
35.60000 0.421
35.62000 1.955
35.64000 3.712
35.66000 -0.962
35.68000 5.617
35.70000 5.939
35.72000 5.028
35.74000 0.966
35.76000 2.729
35.78000 4.529
35.80000 7.598
35.82000 6.258
35.84000 2.774
35.86000 5.667
35.88000 6.709
35.90000 3.124
35.92000 5.412
35.94000 3.865
35.96000 2.635
35.98000 1.749
36.00000 0.747
36.02000 2.488
36.04000 5.887
36.06000 5.221
36.08000 5.995
36.10000 2.904
36.12000 2.420
36.14000 1.104
36.16000 2.957
36.18000 3.453
36.20000 3.623
36.22000 -0.512
36.24000 -3.484
36.26000 -2.216
36.28000 -0.324
36.30000 0.707
36.32000 4.073
36.34000 6.772
36.36000 10.322
36.38000 8.106
36.40000 5.133
36.42000 6.591
36.44000 5.559
36.46000 5.493
36.48000 4.079
36.50000 6.319
36.52000 2.715
36.54000 0.984
36.56000 3.441
36.58000 5.906
36.60000 5.647
36.62000 5.320
36.64000 3.453
36.66000 2.644
36.68000 1.546
36.70000 2.480
36.72000 2.970
36.74000 3.768
36.76000 2.489
36.78000 0.698
36.80000 -3.538
36.82000 -0.563
36.84000 2.341
36.86000 3.484
36.88000 2.103
36.90000 3.349
36.92000 2.210
36.94000 0.634
36.96000 -2.966
36.98000 -1.252
37.00000 3.086
37.02000 3.149
37.04000 0.389
37.06000 -0.572
37.08000 -0.548
37.10000 -1.304
37.12000 -2.704
37.14000 -1.230
37.16000 0.429
37.18000 -0.456
37.20000 -0.675
37.22000 2.042
37.24000 4.031
37.26000 -3.576
37.28000 1.182
37.30000 6.236
37.32000 0.919
37.34000 0.534
37.36000 4.337
37.38000 0.395
37.40000 0.978
37.42000 3.610
37.44000 4.079
37.46000 -1.606
37.48000 0.510
37.50000 -0.971
37.52000 -0.980
37.54000 2.137
37.56000 4.649
37.58000 0.605
37.60000 -0.028
37.62000 1.011
37.64000 0.026
37.66000 0.398
37.68000 -2.233
37.70000 -3.622
37.72000 2.261
37.74000 2.172
37.76000 3.090
37.78000 3.989
37.80000 3.529
37.82000 4.543
37.84000 2.282
37.86000 2.553
37.88000 5.001
37.90000 1.263
37.92000 6.114
37.94000 7.530
37.96000 4.718
37.98000 4.196
38.00000 6.141
38.02000 4.326
38.04000 5.849
38.06000 4.167
38.08000 -0.102
38.10000 7.835
38.12000 7.054
38.14000 5.200
38.16000 5.105
38.18000 8.188
38.20000 7.244
38.22000 8.085
38.24000 12.520
38.26000 12.212
38.28000 9.235
38.30000 5.636
38.32000 7.978
38.34000 14.600
38.36000 13.769
38.38000 13.765
38.40000 13.314
38.42000 18.716
38.44000 16.714
38.46000 15.492
38.48000 19.285
38.50000 15.573
38.52000 13.999
38.54000 16.989
38.56000 17.940
38.58000 14.413
38.60000 16.900
38.62000 16.251
38.64000 16.265
38.66000 19.622
38.68000 18.426
38.70000 21.436
38.72000 17.340
38.74000 18.047
38.76000 17.317
38.78000 16.739
38.80000 16.507
38.82000 18.593
38.84000 21.701
38.86000 22.364
38.88000 23.122
38.90000 24.594
38.92000 25.157
38.94000 23.842
38.96000 24.613
38.98000 19.072
39.00000 23.566
39.02000 26.998
39.04000 32.494
39.06000 27.845
39.08000 27.836
39.10000 29.311
39.12000 32.476
39.14000 36.030
39.16000 34.593
39.18000 31.074
39.20000 34.227
39.22000 39.109
39.24000 38.783
39.26000 42.294
39.28000 46.987
39.30000 45.076
39.32000 44.570
39.34000 47.546
39.36000 52.414
39.38000 54.624
39.40000 54.098
39.42000 58.103
39.44000 62.005
39.46000 64.879
39.48000 73.347
39.50000 71.279
39.52000 69.299
39.54000 68.798
39.56000 70.172
39.58000 73.772
39.60000 80.296
39.62000 83.537
39.64000 82.786
39.66000 90.768
39.68000 100.863
39.70000 106.500
39.72000 102.794
39.74000 109.224
39.76000 118.971
39.78000 121.111
39.80000 122.987
39.82000 130.965
39.84000 142.424
39.86000 151.528
39.88000 153.965
39.90000 162.161
39.92000 171.169
39.94000 179.939
39.96000 187.779
39.98000 195.268
40.00000 194.001
40.02000 201.950
40.04000 218.301
40.06000 234.679
40.08000 243.020
40.10000 254.979
40.12000 267.346
40.14000 280.059
40.16000 301.488
40.18000 315.354
40.20000 322.361
40.22000 333.678
40.24000 354.951
40.26000 360.631
40.28000 378.955
40.30000 401.801
40.32000 415.488
40.34000 426.290
40.36000 437.255
40.38000 444.584
40.40000 463.949
40.42000 493.459
40.44000 505.321
40.46000 511.692
40.48000 527.941
40.50000 542.362
40.52000 554.141
40.54000 570.917
40.56000 582.167
40.58000 589.966
40.60000 590.365
40.62000 604.339
40.64000 616.945
40.66000 619.056
40.68000 612.017
40.70000 605.022
40.72000 605.030
40.74000 612.409
40.76000 605.378
40.78000 598.729
40.80000 582.970
40.82000 574.245
40.84000 567.776
40.86000 554.375
40.88000 529.929
40.90000 513.382
40.92000 511.120
40.94000 494.082
40.96000 480.011
40.98000 469.367
41.00000 456.923
41.02000 445.695
41.04000 421.713
41.06000 399.875
41.08000 385.577
41.10000 366.184
41.12000 350.387
41.14000 332.172
41.16000 321.689
41.18000 303.539
41.20000 294.586
41.22000 276.293
41.24000 264.620
41.26000 255.862
41.28000 241.097
41.30000 230.683
41.32000 220.067
41.34000 206.167
41.36000 201.000
41.38000 194.107
41.40000 177.690
41.42000 169.815
41.44000 164.749
41.46000 151.396
41.48000 144.606
41.50000 140.562
41.52000 135.025
41.54000 122.717
41.56000 115.726
41.58000 109.934
41.60000 106.051
41.62000 98.146
41.64000 92.365
41.66000 88.679
41.68000 84.886
41.70000 82.218
41.72000 83.583
41.74000 77.830
41.76000 67.117
41.78000 60.911
41.80000 63.872
41.82000 60.483
41.84000 58.406
41.86000 55.017
41.88000 52.287
41.90000 50.560
41.92000 51.915
41.94000 45.495
41.96000 41.349
41.98000 37.814
42.00000 37.756
42.02000 37.039
42.04000 36.502
42.06000 32.971
42.08000 28.133
42.10000 25.939
42.12000 30.865
42.14000 26.996
42.16000 30.014
42.18000 23.365
42.20000 20.466
42.22000 19.181
42.24000 21.917
42.26000 20.020
42.28000 20.875
42.30000 22.060
42.32000 20.252
42.34000 16.759
42.36000 19.340
42.38000 19.882
42.40000 15.045
42.42000 13.586
42.44000 9.662
42.46000 12.940
42.48000 11.868
42.50000 11.175
42.52000 11.013
42.54000 11.485
42.56000 8.907
42.58000 7.836
42.60000 9.764
42.62000 8.709
42.64000 5.660
42.66000 8.255
42.68000 12.501
42.70000 11.181
42.72000 6.363
42.74000 2.659
42.76000 1.543
42.78000 4.692
42.80000 3.492
42.82000 1.322
42.84000 0.345
42.86000 3.879
42.88000 7.706
42.90000 7.950
42.92000 7.542
42.94000 2.497
42.96000 7.407
42.98000 6.839
43.00000 3.426
43.02000 6.411
43.04000 -0.614
43.06000 -1.406
43.08000 2.969
43.10000 3.327
43.12000 -3.601
43.14000 2.048
43.16000 7.790
43.18000 3.563
43.20000 -1.780
43.22000 3.292
43.24000 2.699
43.26000 2.206
43.28000 5.043
43.30000 1.898
43.32000 -0.674
43.34000 -0.736
43.36000 2.971
43.38000 1.953
43.40000 1.606
43.42000 -0.858
43.44000 -0.160
43.46000 5.462
43.48000 1.726
43.50000 -0.562
43.52000 4.408
43.54000 2.852
43.56000 -1.501
43.58000 -2.680
43.60000 0.742
43.62000 -1.417
43.64000 1.038
43.66000 1.763
43.68000 -1.679
43.70000 -3.547
43.72000 -3.427
43.74000 -2.178
43.76000 -1.265
43.78000 1.500
43.80000 4.377
43.82000 3.920
43.84000 -2.323
43.86000 -2.378
43.88000 -1.216
43.90000 1.447
43.92000 2.905
43.94000 -2.252
43.96000 1.865
43.98000 1.913
44.00000 5.714
44.02000 0.446
44.04000 -0.506
44.06000 5.364
44.08000 5.301
44.10000 0.783
44.12000 0.512
44.14000 4.388
44.16000 -1.171
44.18000 -3.502
44.20000 -0.940
44.22000 0.414
44.24000 2.693
44.26000 1.549
44.28000 2.072
44.30000 1.391
44.32000 -3.498
44.34000 -0.166
44.36000 3.110
44.38000 2.635
44.40000 6.062
44.42000 2.413
44.44000 5.978
44.46000 5.282
44.48000 0.546
44.50000 3.079
44.52000 6.455
44.54000 2.550
44.56000 -1.948
44.58000 -1.805
44.60000 0.887
44.62000 1.426
44.64000 -0.229
44.66000 4.931
44.68000 9.149
44.70000 0.616
44.72000 -1.464
44.74000 3.498
44.76000 1.413
44.78000 3.169
44.80000 1.450
44.82000 5.299
44.84000 3.023
44.86000 0.396
44.88000 4.615
44.90000 6.065
44.92000 0.849
44.94000 -3.509
44.96000 -3.509
44.98000 0.716
45.00000 3.084
45.02000 8.976
45.04000 5.447
45.06000 5.555
45.08000 8.487
45.10000 2.752
45.12000 1.750
45.14000 2.983
45.16000 7.756
45.18000 6.083
45.20000 1.224
45.22000 0.598
45.24000 2.584
45.26000 7.074
45.28000 5.674
45.30000 1.644
45.32000 1.891
45.34000 7.996
45.36000 5.609
45.38000 2.437
45.40000 0.980
45.42000 1.080
45.44000 7.174
45.46000 5.173
45.48000 10.423
45.50000 11.120
45.52000 5.354
45.54000 7.295
45.56000 6.447
45.58000 4.333
45.60000 7.559
45.62000 14.897
45.64000 13.036
45.66000 5.022
45.68000 6.458
45.70000 7.668
45.72000 9.443
45.74000 8.815
45.76000 13.249
45.78000 12.475
45.80000 14.496
45.82000 14.588
45.84000 15.628
45.86000 17.199
45.88000 14.459
45.90000 14.821
45.92000 11.410
45.94000 12.332
45.96000 14.870
45.98000 16.319
46.00000 18.946
46.02000 22.872
46.04000 20.764
46.06000 22.070
46.08000 20.361
46.10000 23.949
46.12000 25.301
46.14000 29.385
46.16000 28.216
46.18000 22.390
46.20000 19.712
46.22000 19.694
46.24000 26.387
46.26000 29.476
46.28000 28.184
46.30000 25.708
46.32000 31.690
46.34000 35.496
46.36000 38.138
46.38000 37.780
46.40000 39.266
46.42000 36.488
46.44000 36.058
46.46000 33.189
46.48000 44.521
46.50000 38.245
46.52000 40.593
46.54000 41.504
46.56000 39.116
46.58000 45.145
46.60000 41.308
46.62000 38.544
46.64000 40.983
46.66000 45.741
46.68000 53.212
46.70000 55.677
46.72000 50.845
46.74000 53.332
46.76000 54.191
46.78000 59.533
46.80000 57.946
46.82000 50.391
46.84000 51.492
46.86000 58.906
46.88000 61.392
46.90000 56.318
46.92000 56.321
46.94000 64.809
46.96000 66.517
46.98000 59.056
47.00000 61.398
47.02000 61.036
47.04000 70.502
47.06000 72.756
47.08000 72.486
47.10000 75.254
47.12000 77.518
47.14000 74.793
47.16000 68.882
47.18000 71.639
47.20000 70.890
47.22000 72.478
47.24000 73.659
47.26000 74.562
47.28000 73.959
47.30000 76.258
47.32000 76.980
47.34000 75.143
47.36000 77.961
47.38000 76.666
47.40000 77.447
47.42000 72.284
47.44000 69.840
47.46000 66.813
47.48000 70.479
47.50000 67.305
47.52000 64.761
47.54000 64.503
47.56000 65.020
47.58000 62.779
47.60000 59.617
47.62000 57.626
47.64000 61.655
47.66000 57.091
47.68000 53.717
47.70000 58.960
47.72000 57.006
47.74000 56.215
47.76000 50.576
47.78000 46.363
47.80000 53.010
47.82000 54.001
47.84000 50.400
47.86000 49.943
47.88000 42.723
47.90000 42.030
47.92000 40.510
47.94000 35.905
47.96000 41.680
47.98000 42.288
48.00000 34.300
48.02000 31.593
48.04000 28.532
48.06000 26.506
48.08000 23.427
48.10000 23.836
48.12000 30.130
48.14000 24.203
48.16000 19.888
48.18000 19.865
48.20000 18.927
48.22000 17.537
48.24000 22.107
48.26000 21.292
48.28000 24.403
48.30000 19.386
48.32000 12.572
48.34000 16.054
48.36000 11.933
48.38000 13.473
48.40000 13.566
48.42000 12.435
48.44000 16.964
48.46000 17.520
48.48000 12.224
48.50000 12.834
48.52000 7.300
48.54000 8.768
48.56000 11.110
48.58000 8.074
48.60000 9.406
48.62000 10.569
48.64000 8.263
48.66000 8.991
48.68000 4.356
48.70000 0.973
48.72000 0.070
48.74000 0.384
48.76000 1.282
48.78000 4.457
48.80000 3.163
48.82000 2.968
48.84000 2.869
48.86000 9.532
48.88000 8.587
48.90000 5.805
48.92000 5.801
48.94000 12.774
48.96000 9.773
48.98000 0.726
49.00000 3.213
49.02000 9.264
49.04000 10.858
49.06000 9.000
49.08000 7.051
49.10000 9.397
49.12000 5.665
49.14000 4.716
49.16000 4.600
49.18000 6.955
49.20000 1.036
49.22000 -3.154
49.24000 1.301
49.26000 2.132
49.28000 3.639
49.30000 2.561
49.32000 -0.037
49.34000 3.389
49.36000 5.703
49.38000 7.250
49.40000 0.392
49.42000 3.590
49.44000 3.913
49.46000 -1.914
49.48000 2.311
49.50000 5.185
49.52000 3.591
49.54000 9.597
49.56000 7.037
49.58000 2.611
49.60000 2.695
49.62000 0.923
49.64000 5.423
49.66000 3.300
49.68000 -2.831
49.70000 1.936
49.72000 3.885
49.74000 1.055
49.76000 1.298
49.78000 0.384
49.80000 5.209
49.82000 2.729
49.84000 6.353
49.86000 1.761
49.88000 1.508
49.90000 0.891
49.92000 5.828
49.94000 1.259
49.96000 0.827
49.98000 3.787
50.00000 2.650
50.02000 2.485
50.04000 5.752
50.06000 7.084
50.08000 3.624
50.10000 2.483
50.12000 2.073
50.14000 4.800
50.16000 4.910
50.18000 5.103
50.20000 4.638
50.22000 0.350
50.24000 0.468
50.26000 3.268
50.28000 3.098
50.30000 0.948
50.32000 -0.950
50.34000 4.270
50.36000 6.934
50.38000 2.535
50.40000 6.173
50.42000 4.430
50.44000 6.112
50.46000 7.497
50.48000 0.312
50.50000 3.176
50.52000 8.577
50.54000 6.137
50.56000 -3.001
50.58000 3.319
50.60000 6.927
50.62000 7.619
50.64000 6.024
50.66000 6.152
50.68000 2.360
50.70000 1.909
50.72000 5.008
50.74000 3.304
50.76000 10.491
50.78000 10.605
50.80000 1.484
50.82000 0.382
50.84000 4.812
50.86000 6.627
50.88000 4.829
50.90000 4.127
50.92000 -2.762
50.94000 2.271
50.96000 3.634
50.98000 7.234
51.00000 8.000
51.02000 -0.015
51.04000 0.101
51.06000 2.501
51.08000 7.264
51.10000 5.055
51.12000 2.059
51.14000 3.084
51.16000 6.131
51.18000 10.499
51.20000 6.611
51.22000 -0.296
51.24000 -1.056
51.26000 3.651
51.28000 6.291
51.30000 6.486
51.32000 4.719
51.34000 0.000
51.36000 -0.848
51.38000 3.405
51.40000 2.304
51.42000 3.629
51.44000 2.728
51.46000 1.828
51.48000 1.306
51.50000 2.564
51.52000 1.959
51.54000 1.482
51.56000 6.744
51.58000 8.350
51.60000 1.273
51.62000 1.998
51.64000 5.714
51.66000 5.621
51.68000 8.299
51.70000 5.951
51.72000 -2.951
51.74000 3.767
51.76000 6.667
51.78000 -0.701
51.80000 1.637
51.82000 1.458
51.84000 6.371
51.86000 9.329
51.88000 7.214
51.90000 3.835
51.92000 1.679
51.94000 3.487
51.96000 2.703
51.98000 1.185
52.00000 2.591
52.02000 5.712
52.04000 3.062
52.06000 2.839
52.08000 0.377
52.10000 0.680
52.12000 4.406
52.14000 2.366
52.16000 6.208
52.18000 2.798
52.20000 2.075
52.22000 3.551
52.24000 2.747
52.26000 3.230
52.28000 3.764
52.30000 -0.492
52.32000 2.750
52.34000 4.328
52.36000 0.832
52.38000 3.777
52.40000 -0.219
52.42000 -2.922
52.44000 1.310
52.46000 1.375
52.48000 6.345
52.50000 2.815
52.52000 1.799
52.54000 4.730
52.56000 4.859
52.58000 5.893
52.60000 1.262
52.62000 0.452
52.64000 0.721
52.66000 3.093
52.68000 0.559
52.70000 -0.684
52.72000 2.817
52.74000 2.959
52.76000 0.216
52.78000 -0.191
52.80000 3.822
52.82000 4.762
52.84000 1.858
52.86000 2.341
52.88000 4.506
52.90000 2.139
52.92000 2.309
52.94000 -1.346
52.96000 -2.509
52.98000 2.781
53.00000 0.757
53.02000 5.271
53.04000 5.737
53.06000 -1.057
53.08000 -0.556
53.10000 -2.863
53.12000 -2.698
53.14000 2.735
53.16000 5.992
53.18000 2.774
53.20000 0.392
53.22000 -0.715
53.24000 -0.254
53.26000 4.037
53.28000 0.011
53.30000 4.586
53.32000 7.293
53.34000 1.741
53.36000 -0.170
53.38000 -2.922
53.40000 -0.012
53.42000 0.120
53.44000 0.598
53.46000 4.789
53.48000 4.736
53.50000 2.880
53.52000 6.041
53.54000 2.397
53.56000 1.532
53.58000 0.966
53.60000 5.396
53.62000 0.044
53.64000 2.724
53.66000 4.493
53.68000 4.310
53.70000 5.273
53.72000 2.720
53.74000 1.648
53.76000 3.005
53.78000 2.275
53.80000 0.798
53.82000 -0.684
53.84000 3.449
53.86000 4.619
53.88000 1.448
53.90000 4.157
53.92000 4.709
53.94000 4.545
53.96000 7.496
53.98000 3.579
54.00000 3.530
54.02000 1.798
54.04000 2.302
54.06000 -1.808
54.08000 0.318
54.10000 -0.123
54.12000 -2.885
54.14000 -2.884
54.16000 -2.181
54.18000 0.117
54.20000 2.683
54.22000 9.662
54.24000 1.301
54.26000 -1.253
54.28000 -0.857
54.30000 -0.236
54.32000 -0.651
54.34000 -0.079
54.36000 1.629
54.38000 3.604
54.40000 8.620
54.42000 4.794
54.44000 0.061
54.46000 2.877
54.48000 1.883
54.50000 1.274
54.52000 -0.716
54.54000 4.301
54.56000 1.578
54.58000 1.035
54.60000 -0.831
54.62000 2.878
54.64000 0.352
54.66000 1.104
54.68000 -0.601
54.70000 -1.356
54.72000 3.084
54.74000 2.695
54.76000 4.681
54.78000 1.512
54.80000 1.257
54.82000 2.619
54.84000 3.968
54.86000 4.820
54.88000 2.741
54.90000 3.675
54.92000 2.749
54.94000 -2.865
54.96000 -1.474
54.98000 4.457
55.00000 5.176
55.02000 2.405
55.04000 2.286
55.06000 -2.083
55.08000 1.065
55.10000 1.175
55.12000 4.627
55.14000 1.090
55.16000 1.839
55.18000 7.955
55.20000 7.774
55.22000 2.545
55.24000 0.003
55.26000 -1.324
55.28000 -0.207
55.30000 -2.854
55.32000 0.185
55.34000 4.510
55.36000 3.587
55.38000 3.026
55.40000 4.384
55.42000 -2.033
55.44000 1.076
55.46000 4.286
55.48000 2.843
55.50000 -1.396
55.52000 5.557
55.54000 1.784
55.56000 5.093
55.58000 10.885
55.60000 8.001
55.62000 4.943
55.64000 -0.623
55.66000 2.199
55.68000 3.651
55.70000 3.004
55.72000 3.064
55.74000 3.380
55.76000 0.527
55.78000 -1.161
55.80000 -1.168
55.82000 1.343
55.84000 3.952
55.86000 -0.866
55.88000 -0.797
55.90000 1.121
55.92000 -2.745
55.94000 -0.164
55.96000 6.393
55.98000 2.773
56.00000 0.285
56.02000 4.442
56.04000 1.294
56.06000 1.055
56.08000 2.115
56.10000 1.422
56.12000 0.422
56.14000 4.392
56.16000 1.449
56.18000 -0.578
56.20000 0.547
56.22000 -0.974
56.24000 3.010
56.26000 3.120
56.28000 2.560
56.30000 -0.408
56.32000 -0.268
56.34000 0.310
56.36000 1.163
56.38000 0.712
56.40000 3.509
56.42000 0.440
56.44000 3.133
56.46000 -0.595
56.48000 1.433
56.50000 4.244
56.52000 0.799
56.54000 2.341
56.56000 1.740
56.58000 4.185
56.60000 4.169
56.62000 0.769
56.64000 5.817
56.66000 7.854
56.68000 4.256
56.70000 2.122
56.72000 4.959
56.74000 3.848
56.76000 3.549
56.78000 -2.282
56.80000 0.386
56.82000 1.100
56.84000 3.505
56.86000 3.429
56.88000 4.209
56.90000 4.467
56.92000 7.080
56.94000 7.493
56.96000 3.074
56.98000 0.243
57.00000 2.204
57.02000 10.379
57.04000 2.861
57.06000 1.076
57.08000 6.952
57.10000 10.424
57.12000 1.122
57.14000 0.646
57.16000 5.806
57.18000 5.640
57.20000 3.241
57.22000 2.585
57.24000 2.651
57.26000 5.206
57.28000 4.134
57.30000 5.095
57.32000 4.399
57.34000 4.844
57.36000 -2.739
57.38000 3.344
57.40000 5.351
57.42000 4.063
57.44000 3.579
57.46000 0.261
57.48000 4.286
57.50000 5.011
57.52000 11.178
57.54000 8.935
57.56000 4.456
57.58000 4.294
57.60000 4.731
57.62000 4.599
57.64000 3.177
57.66000 5.417
57.68000 5.143
57.70000 1.338
57.72000 5.276
57.74000 6.332
57.76000 2.262
57.78000 0.433
57.80000 1.148
57.82000 4.276
57.84000 5.376
57.86000 6.549
57.88000 4.533
57.90000 6.131
57.92000 10.211
57.94000 7.384
57.96000 4.484
57.98000 1.104
58.00000 1.759
58.02000 2.760
58.04000 4.793
58.06000 1.085
58.08000 -1.446
58.10000 6.109
58.12000 6.021
58.14000 4.575
58.16000 5.674
58.18000 8.493
58.20000 5.090
58.22000 4.061
58.24000 8.987
58.26000 5.388
58.28000 3.387
58.30000 3.971
58.32000 3.305
58.34000 3.735
58.36000 8.338
58.38000 7.050
58.40000 7.514
58.42000 6.850
58.44000 4.998
58.46000 6.452
58.48000 4.340
58.50000 2.910
58.52000 2.394
58.54000 4.755
58.56000 3.536
58.58000 5.232
58.60000 1.860
58.62000 2.017
58.64000 3.152
58.66000 3.438
58.68000 1.368
58.70000 0.905
58.72000 4.216
58.74000 4.543
58.76000 6.662
58.78000 5.362
58.80000 3.462
58.82000 4.922
58.84000 4.316
58.86000 4.372
58.88000 -1.514
58.90000 -2.695
58.92000 1.808
58.94000 4.236
58.96000 2.467
58.98000 6.588
59.00000 5.812
59.02000 8.348
59.04000 3.769
59.06000 0.252
59.08000 4.828
59.10000 0.814
59.12000 1.936
59.14000 1.796
59.16000 3.561
59.18000 2.455
59.20000 7.211
59.22000 5.537
59.24000 4.591
59.26000 3.878
59.28000 -0.723
59.30000 -0.090
59.32000 2.775
59.34000 -0.131
59.36000 -0.687
59.38000 2.915
59.40000 4.645
59.42000 -0.849
59.44000 0.069
59.46000 3.659
59.48000 0.488
59.50000 8.421
59.52000 7.804
59.54000 4.829
59.56000 2.932
59.58000 2.331
59.60000 5.115
59.62000 3.126
59.64000 1.816
59.66000 5.537
59.68000 2.307
59.70000 -2.677
59.72000 1.763
59.74000 5.631
59.76000 4.191
59.78000 4.799
59.80000 3.516
59.82000 2.554
59.84000 -0.041
59.86000 -0.590
59.88000 2.395
59.90000 4.799
59.92000 6.768
59.94000 5.548
59.96000 3.384
59.98000 2.055
60.00000 2.621
60.02000 2.946
60.04000 0.586
60.06000 4.886
60.08000 4.869
60.10000 2.897
60.12000 -2.682
60.14000 0.543
60.16000 3.846
60.18000 1.040
60.20000 1.433
60.22000 4.912
60.24000 3.344
60.26000 4.803
60.28000 2.918
60.30000 5.558
60.32000 4.942
60.34000 3.108
60.36000 -0.240
60.38000 -2.680
60.40000 1.829
60.42000 4.053
60.44000 2.190
60.46000 3.436
60.48000 1.896
60.50000 1.772
60.52000 3.994
60.54000 6.087
60.56000 4.072
60.58000 6.127
60.60000 6.780
60.62000 4.869
60.64000 7.086
60.66000 4.854
60.68000 1.452
60.70000 2.616
60.72000 3.394
60.74000 0.513
60.76000 2.300
60.78000 4.775
60.80000 -1.227
60.82000 -2.632
60.84000 0.348
60.86000 3.699
60.88000 -1.853
60.90000 1.782
60.92000 1.003
60.94000 4.584
60.96000 0.307
60.98000 0.522
61.00000 2.584
61.02000 6.204
61.04000 6.541
61.06000 4.071
61.08000 1.869
61.10000 3.765
61.12000 4.829
61.14000 3.020
61.16000 1.786
61.18000 -0.622
61.20000 0.832
61.22000 2.248
61.24000 3.373
61.26000 -0.514
61.28000 -2.650
61.30000 -1.739
61.32000 -1.115
61.34000 -0.504
61.36000 -0.387
61.38000 -2.363
61.40000 -0.950
61.42000 1.403
61.44000 4.068
61.46000 3.702
61.48000 5.512
61.50000 4.076
61.52000 2.256
61.54000 0.104
61.56000 -2.643
61.58000 1.487
61.60000 -1.069
61.62000 0.694
61.64000 6.608
61.66000 6.583
61.68000 1.692
61.70000 4.134
61.72000 1.356
61.74000 1.131
61.76000 1.751
61.78000 1.260
61.80000 0.629
61.82000 -2.023
61.84000 3.374
61.86000 7.875
61.88000 6.591
61.90000 8.020
61.92000 3.914
61.94000 5.100
61.96000 9.196
61.98000 2.375
62.00000 -2.637
62.02000 1.397
62.04000 2.959
62.06000 1.027
62.08000 3.066
62.10000 5.132
62.12000 4.779
62.14000 5.496
62.16000 5.745
62.18000 8.559
62.20000 4.235
62.22000 3.885
62.24000 3.344
62.26000 -2.634
62.28000 -1.753
62.30000 0.032
62.32000 3.418
62.34000 2.159
62.36000 0.491
62.38000 1.074
62.40000 2.799
62.42000 4.779
62.44000 3.352
62.46000 0.879
62.48000 2.775
62.50000 -0.216
62.52000 1.798
62.54000 0.974
62.56000 -1.622
62.58000 2.725
62.60000 6.310
62.62000 5.076
62.64000 5.989
62.66000 0.756
62.68000 -2.238
62.70000 -0.295
62.72000 1.619
62.74000 3.523
62.76000 1.671
62.78000 2.331
62.80000 5.986
62.82000 -2.620
62.84000 0.757
62.86000 3.580
62.88000 1.043
62.90000 1.254
62.92000 6.157
62.94000 -0.716
62.96000 -0.684
62.98000 2.676
63.00000 2.367
63.02000 0.578
63.04000 2.536
63.06000 5.081
63.08000 5.004
63.10000 0.951
63.12000 0.079
63.14000 3.148
63.16000 4.689
63.18000 6.464
63.20000 2.844
63.22000 3.617
63.24000 2.466
63.26000 -1.109
63.28000 0.596
63.30000 -1.713
63.32000 -2.603
63.34000 -0.768
63.36000 2.579
63.38000 3.346
63.40000 3.933
63.42000 5.414
63.44000 5.174
63.46000 7.261
63.48000 6.880
63.50000 5.194
63.52000 5.275
63.54000 5.014
63.56000 4.355
63.58000 3.224
63.60000 6.163
63.62000 5.179
63.64000 0.927
63.66000 -0.183
63.68000 -1.765
63.70000 3.381
63.72000 0.867
63.74000 -0.953
63.76000 -0.661
63.78000 -1.087
63.80000 2.625
63.82000 5.954
63.84000 4.540
63.86000 2.436
63.88000 1.210
63.90000 -2.560
63.92000 1.308
63.94000 -1.353
63.96000 0.042
63.98000 2.488
64.00000 2.630
64.02000 2.274
64.04000 -1.539
64.06000 0.307
64.08000 -1.126
64.10000 1.897
64.12000 8.871
64.14000 4.395
64.16000 1.663
64.18000 -2.632
64.20000 -0.950
64.22000 4.704
64.24000 -1.448
64.26000 -0.899
64.28000 -0.057
64.30000 1.675
64.32000 1.549
64.34000 2.490
64.36000 0.667
64.38000 2.013
64.40000 6.462
64.42000 4.089
64.44000 1.760
64.46000 2.333
64.48000 4.953
64.50000 5.897
64.52000 3.029
64.54000 0.994
64.56000 3.145
64.58000 4.014
64.60000 3.506
64.62000 4.032
64.64000 7.530
64.66000 0.298
64.68000 2.714
64.70000 3.185
64.72000 3.864
64.74000 1.133
64.76000 3.111
64.78000 7.071
64.80000 3.448
64.82000 -0.771
64.84000 -2.639
64.86000 -0.904
64.88000 0.307
64.90000 -1.482
64.92000 0.247
64.94000 4.695
64.96000 3.805
64.98000 4.403
65.00000 -2.353
65.02000 -0.480
65.04000 -1.357
65.06000 -2.068
65.08000 0.821
65.10000 1.548
65.12000 0.948
65.14000 -0.008
65.16000 0.679
65.18000 0.293
65.20000 -0.014
65.22000 6.761
65.24000 5.276
65.26000 -0.956
65.28000 -2.642
65.30000 1.352
65.32000 3.730
65.34000 1.008
65.36000 1.543
65.38000 1.017
65.40000 3.168
65.42000 -0.866
65.44000 -1.583
65.46000 -1.964
65.48000 3.723
65.50000 -1.308
65.52000 0.412
65.54000 2.342
65.56000 2.793
65.58000 5.839
65.60000 2.233
65.62000 4.008
65.64000 3.399
65.66000 0.585
65.68000 3.411
65.70000 0.008
65.72000 2.259
65.74000 6.737
65.76000 7.270
65.78000 6.888
65.80000 5.722
65.82000 1.410
65.84000 3.712
65.86000 5.601
65.88000 2.432
65.90000 -2.624
65.92000 0.393
65.94000 5.393
65.96000 4.419
65.98000 -1.900
66.00000 -2.255
66.02000 -2.427
66.04000 -2.622
66.06000 -0.638
66.08000 2.125
66.10000 5.931
66.12000 4.918
66.14000 1.167
66.16000 2.270
66.18000 4.441
66.20000 -0.050
66.22000 2.367
66.24000 -0.363
66.26000 -2.622
66.28000 1.999
66.30000 1.369
66.32000 4.568
66.34000 6.557
66.36000 5.815
66.38000 1.890
66.40000 2.388
66.42000 1.782
66.44000 -1.762
66.46000 -1.769
66.48000 3.421
66.50000 1.534
66.52000 2.911
66.54000 1.268
66.56000 5.667
66.58000 5.501
66.60000 3.737
66.62000 1.014
66.64000 3.713
66.66000 0.984
66.68000 0.659
66.70000 3.615
66.72000 3.016
66.74000 1.985
66.76000 -0.544
66.78000 -0.491
66.80000 2.620
66.82000 5.533
66.84000 3.772
66.86000 3.553
66.88000 7.334
66.90000 2.137
66.92000 1.128
66.94000 3.485
66.96000 2.443
66.98000 3.858
67.00000 7.717
67.02000 4.426
67.04000 2.032
67.06000 -1.061
67.08000 1.348
67.10000 -0.463
67.12000 -0.456
67.14000 3.198
67.16000 2.920
67.18000 -1.224
67.20000 3.552
67.22000 0.758
67.24000 -1.457
67.26000 -2.683
67.28000 -1.114
67.30000 -0.112
67.32000 4.063
67.34000 3.652
67.36000 0.431
67.38000 0.290
67.40000 1.470
67.42000 4.626
67.44000 4.357
67.46000 6.378
67.48000 5.797
67.50000 3.909
67.52000 2.648
67.54000 3.040
67.56000 3.809
67.58000 2.975
67.60000 1.543
67.62000 0.581
67.64000 2.428
67.66000 1.545
67.68000 -0.438
67.70000 0.061
67.72000 8.764
67.74000 8.753
67.76000 6.922
67.78000 4.122
67.80000 0.109
67.82000 0.914
67.84000 2.827
67.86000 3.580
67.88000 5.533
67.90000 2.519
67.92000 2.936
67.94000 6.834
67.96000 4.277
67.98000 3.853
68.00000 5.187
68.02000 4.973
68.04000 2.877
68.06000 4.116
68.08000 5.335
68.10000 7.228
68.12000 11.050
68.14000 7.889
68.16000 7.473
68.18000 8.872
68.20000 9.769
68.22000 12.343
68.24000 9.319
68.26000 10.815
68.28000 9.255
68.30000 5.753
68.32000 8.986
68.34000 9.735
68.36000 8.062
68.38000 10.023
68.40000 12.796
68.42000 16.325
68.44000 14.562
68.46000 16.050
68.48000 17.091
68.50000 18.867
68.52000 22.222
68.54000 22.949
68.56000 17.862
68.58000 15.484
68.60000 16.334
68.62000 18.274
68.64000 22.057
68.66000 23.911
68.68000 24.403
68.70000 27.569
68.72000 23.064
68.74000 22.342
68.76000 21.242
68.78000 16.881
68.80000 18.204
68.82000 22.041
68.84000 26.173
68.86000 23.690
68.88000 21.494
68.90000 26.243
68.92000 23.107
68.94000 22.628
68.96000 22.684
68.98000 26.528
69.00000 27.721
69.02000 25.788
69.04000 24.707
69.06000 28.908
69.08000 28.249
69.10000 26.988
69.12000 30.127
69.14000 31.338
69.16000 31.497
69.18000 26.980
69.20000 26.249
69.22000 27.737
69.24000 24.966
69.26000 24.387
69.28000 25.753
69.30000 27.348
69.32000 27.409
69.34000 25.094
69.36000 22.279
69.38000 21.918
69.40000 22.528
69.42000 28.810
69.44000 27.218
69.46000 23.758
69.48000 21.492
69.50000 18.143
69.52000 14.694
69.54000 17.985
69.56000 15.796
69.58000 19.435
69.60000 19.639
69.62000 19.684
69.64000 19.800
69.66000 18.664
69.68000 15.955
69.70000 11.974
69.72000 10.101
69.74000 13.613
69.76000 14.169
69.78000 11.249
69.80000 10.180
69.82000 11.832
69.84000 10.201
69.86000 7.337
69.88000 10.619
69.90000 13.112
69.92000 13.608
69.94000 14.566
69.96000 12.679
69.98000 6.746
70.00000 4.217
70.02000 4.638
70.04000 4.868
70.06000 9.097
70.08000 9.287
70.10000 5.803
70.12000 6.779
70.14000 4.385
70.16000 3.860
70.18000 6.122
70.20000 7.012
70.22000 0.939
70.24000 0.541
70.26000 2.238
70.28000 3.291
70.30000 2.130
70.32000 1.683
70.34000 6.545
70.36000 6.625
70.38000 5.551
70.40000 7.132
70.42000 7.713
70.44000 3.157
70.46000 1.050
70.48000 4.997
70.50000 1.233
70.52000 1.813
70.54000 1.622
70.56000 2.867
70.58000 4.020
70.60000 5.977
70.62000 5.638
70.64000 6.234
70.66000 4.394
70.68000 3.555
70.70000 1.825
70.72000 -2.594
70.74000 -0.140
70.76000 0.605
70.78000 2.235
70.80000 2.560
70.82000 0.343
70.84000 -0.261
70.86000 7.056
70.88000 4.871
70.90000 3.609
70.92000 4.532
70.94000 4.263
70.96000 0.013
70.98000 -2.117
71.00000 -0.097
71.02000 2.745
71.04000 2.178
71.06000 4.239
71.08000 2.595
71.10000 -0.435
71.12000 2.755
71.14000 0.004
71.16000 4.583
71.18000 4.115
71.20000 6.604
71.22000 -2.535
71.24000 -2.087
71.26000 4.593
71.28000 2.305
71.30000 2.974
71.32000 1.955
71.34000 2.232
71.36000 1.109
71.38000 1.662
71.40000 7.463
71.42000 11.254
71.44000 7.519
71.46000 0.280
71.48000 2.477
71.50000 3.569
71.52000 5.686
71.54000 3.835
71.56000 3.891
71.58000 4.940
71.60000 4.030
71.62000 7.089
71.64000 7.275
71.66000 4.278
71.68000 1.092
71.70000 3.281
71.72000 2.134
71.74000 6.161
71.76000 8.651
71.78000 5.653
71.80000 -1.082
71.82000 0.840
71.84000 6.709
71.86000 1.388
71.88000 -1.907
71.90000 1.134
71.92000 3.679
71.94000 2.873
71.96000 3.259
71.98000 1.795
72.00000 2.746
72.02000 3.912
72.04000 2.196
72.06000 3.032
72.08000 -0.031
72.10000 3.629
72.12000 3.913
72.14000 -1.203
72.16000 7.670
72.18000 6.795
72.20000 3.542
72.22000 0.390
72.24000 3.296
72.26000 0.944
72.28000 -2.428
72.30000 7.000
72.32000 3.125
72.34000 6.751
72.36000 7.024
72.38000 4.803
72.40000 6.647
72.42000 7.687
72.44000 4.533
72.46000 2.455
72.48000 -0.764
72.50000 3.674
72.52000 5.226
72.54000 2.674
72.56000 0.348
72.58000 -2.443
72.60000 0.879
72.62000 2.308
72.64000 7.028
72.66000 6.576
72.68000 4.100
72.70000 6.912
72.72000 1.779
72.74000 3.505
72.76000 3.164
72.78000 3.070
72.80000 7.602
72.82000 4.322
72.84000 8.055
72.86000 2.651
72.88000 -1.545
72.90000 -0.224
72.92000 4.368
72.94000 4.541
72.96000 4.862
72.98000 1.067
73.00000 3.599
73.02000 3.181
73.04000 1.592
73.06000 3.700
73.08000 2.533
73.10000 -1.988
73.12000 1.077
73.14000 0.979
73.16000 4.764
73.18000 0.180
73.20000 2.196
73.22000 4.758
73.24000 2.453
73.26000 0.483
73.28000 3.367
73.30000 5.034
73.32000 3.732
73.34000 2.888
73.36000 -0.819
73.38000 2.594
73.40000 1.764
73.42000 3.042
73.44000 5.039
73.46000 6.509
73.48000 6.230
73.50000 -0.408
73.52000 -1.803
73.54000 -1.331
73.56000 -1.637
73.58000 -0.520
73.60000 3.186
73.62000 5.620
73.64000 2.778
73.66000 -2.321
73.68000 -2.328
73.70000 -0.865
73.72000 0.852
73.74000 2.748
73.76000 4.935
73.78000 4.766
73.80000 2.113
73.82000 -1.245
73.84000 1.777
73.86000 0.997
73.88000 4.426
73.90000 0.002
73.92000 -0.819
73.94000 0.215
73.96000 2.182
73.98000 4.697
74.00000 4.473
74.02000 1.254
74.04000 3.963
74.06000 0.363
74.08000 -0.996
74.10000 1.948
74.12000 2.119
74.14000 2.353
74.16000 0.352
74.18000 -1.635
74.20000 0.647
74.22000 -1.182
74.24000 -1.712
74.26000 6.127
74.28000 8.777
74.30000 6.569
74.32000 0.514
74.34000 3.669
74.36000 3.576
74.38000 0.231
74.40000 -1.450
74.42000 -0.814
74.44000 1.955
74.46000 1.532
74.48000 0.830
74.50000 2.034
74.52000 7.796
74.54000 11.113
74.56000 4.152
74.58000 2.286
74.60000 0.915
74.62000 -2.437
74.64000 -0.977
74.66000 -1.994
74.68000 3.190
74.70000 1.443
74.72000 1.813
74.74000 2.176
74.76000 1.164
74.78000 5.423
74.80000 4.557
74.82000 2.786
74.84000 -0.073
74.86000 0.342
74.88000 0.909
74.90000 5.506
74.92000 1.266
74.94000 1.319
74.96000 -2.416
74.98000 0.674
75.00000 1.601
75.02000 3.067
75.04000 5.516
75.06000 5.106
75.08000 2.689
75.10000 -0.842
75.12000 0.474
75.14000 -0.724
75.16000 2.642
75.18000 3.702
75.20000 4.187
75.22000 6.032
75.24000 4.001
75.26000 1.500
75.28000 0.375
75.30000 0.905
75.32000 -0.878
75.34000 2.040
75.36000 3.418
75.38000 2.064
75.40000 3.716
75.42000 -2.428
75.44000 -0.442
75.46000 0.318
75.48000 -0.739
75.50000 -2.161
75.52000 4.278
75.54000 3.054
75.56000 0.760
75.58000 3.235
75.60000 1.695
75.62000 4.138
75.64000 2.172
75.66000 -0.373
75.68000 0.465
75.70000 2.999
75.72000 5.907
75.74000 8.464
75.76000 6.905
75.78000 6.084
75.80000 3.909
75.82000 2.129
75.84000 2.224
75.86000 7.381
75.88000 7.017
75.90000 4.377
75.92000 4.748
75.94000 5.423
75.96000 3.586
75.98000 3.060
76.00000 0.503
76.02000 0.109
76.04000 0.648
76.06000 3.833
76.08000 0.991
76.10000 -1.666
76.12000 7.108
76.14000 5.707
76.16000 4.809
76.18000 5.948
76.20000 3.356
76.22000 6.044
76.24000 8.847
76.26000 1.560
76.28000 -2.434
76.30000 1.102
76.32000 4.175
76.34000 2.371
76.36000 4.182
76.38000 7.199
76.40000 6.224
76.42000 -0.135
76.44000 2.817
76.46000 8.675
76.48000 2.187
76.50000 2.086
76.52000 4.795
76.54000 3.027
76.56000 3.062
76.58000 5.760
76.60000 6.902
76.62000 6.002
76.64000 8.551
76.66000 5.758
76.68000 5.462
76.70000 3.367
76.72000 3.066
76.74000 6.396
76.76000 7.192
76.78000 10.593
76.80000 9.706
76.82000 9.371
76.84000 6.372
76.86000 5.931
76.88000 5.260
76.90000 6.471
76.92000 5.241
76.94000 5.084
76.96000 4.852
76.98000 2.625
77.00000 4.170
77.02000 5.904
77.04000 6.915
77.06000 4.358
77.08000 -1.242
77.10000 3.776
77.12000 4.414
77.14000 -0.840
77.16000 -2.416
77.18000 1.108
77.20000 1.715
77.22000 1.279
77.24000 0.846
77.26000 6.451
77.28000 12.894
77.30000 10.906
77.32000 11.383
77.34000 10.006
77.36000 1.438
77.38000 0.758
77.40000 4.516
77.42000 7.354
77.44000 9.070
77.46000 5.433
77.48000 4.963
77.50000 3.075
77.52000 -1.661
77.54000 1.445
77.56000 5.441
77.58000 3.973
77.60000 9.261
77.62000 8.442
77.64000 8.974
77.66000 5.386
77.68000 2.195
77.70000 3.331
77.72000 2.416
77.74000 2.738
77.76000 1.998
77.78000 1.769
77.80000 4.084
77.82000 4.653
77.84000 1.508
77.86000 6.333
77.88000 8.026
77.90000 8.475
77.92000 3.290
77.94000 5.155
77.96000 5.950
77.98000 5.046
78.00000 2.766
78.02000 3.647
78.04000 4.082
78.06000 2.668
78.08000 4.049
78.10000 3.480
78.12000 5.138
78.14000 5.366
78.16000 3.159
78.18000 3.877
78.20000 6.759
78.22000 6.732
78.24000 3.861
78.26000 4.871
78.28000 2.945
78.30000 5.427
78.32000 7.050
78.34000 7.766
78.36000 9.465
78.38000 5.861
78.40000 6.814
78.42000 4.612
78.44000 6.207
78.46000 2.013
78.48000 -2.398
78.50000 0.460
78.52000 8.120
78.54000 12.144
78.56000 10.298
78.58000 8.535
78.60000 8.226
78.62000 5.967
78.64000 10.073
78.66000 7.024
78.68000 6.324
78.70000 3.176
78.72000 4.540
78.74000 2.750
78.76000 2.164
78.78000 3.372
78.80000 -0.644
78.82000 4.763
78.84000 5.076
78.86000 3.795
78.88000 -0.149
78.90000 2.920
78.92000 5.069
78.94000 2.505
78.96000 1.785
78.98000 6.279
79.00000 5.638
79.02000 5.039
79.04000 4.925
79.06000 3.714
79.08000 5.481
79.10000 -0.561
79.12000 3.476
79.14000 4.622
79.16000 0.791
79.18000 1.124
79.20000 6.060
79.22000 8.562
79.24000 8.402
79.26000 5.955
79.28000 7.969
79.30000 8.444
79.32000 8.041
79.34000 -0.159
79.36000 1.919
79.38000 1.799
79.40000 0.054
79.42000 4.471
79.44000 1.370
79.46000 2.553
79.48000 7.912
79.50000 5.105
79.52000 8.501
79.54000 9.943
79.56000 5.574
79.58000 2.015
79.60000 3.070
79.62000 7.400
79.64000 3.719
79.66000 1.355
79.68000 4.675
79.70000 7.206
79.72000 7.215
79.74000 6.627
79.76000 7.141
79.78000 9.651
79.80000 6.321
79.82000 2.638
79.84000 2.097
79.86000 4.208
79.88000 2.823
79.90000 5.138
79.92000 2.749
79.94000 5.184
79.96000 1.084
79.98000 0.316
80.00000 1.544
80.02000 3.178
80.04000 8.025
80.06000 7.801
80.08000 7.490
80.10000 5.981
80.12000 8.460
80.14000 4.853
80.16000 -2.464
80.18000 0.912
80.20000 4.418
80.22000 3.993
80.24000 0.151
80.26000 0.951
80.28000 2.915
80.30000 5.289
80.32000 3.480
80.34000 3.617
80.36000 5.866
80.38000 2.463
80.40000 3.055
80.42000 5.070
80.44000 5.198
80.46000 5.477
80.48000 3.582
80.50000 4.421
80.52000 3.987
80.54000 4.473
80.56000 1.877
80.58000 0.097
80.60000 3.389
80.62000 5.409
80.64000 -0.224
80.66000 2.954
80.68000 2.983
80.70000 -0.134
80.72000 -0.133
80.74000 0.991
80.76000 0.014
80.78000 5.066
80.80000 3.612
80.82000 3.383
80.84000 4.981
80.86000 3.151
80.88000 -0.194
80.90000 7.551
80.92000 7.989
80.94000 6.842
80.96000 5.584
80.98000 3.621
81.00000 6.138
81.02000 5.830
81.04000 -2.549
81.06000 -0.457
81.08000 1.928
81.10000 1.757
81.12000 2.651
81.14000 1.737
81.16000 -0.191
81.18000 2.500
81.20000 4.447
81.22000 4.574
81.24000 2.030
81.26000 4.501
81.28000 3.418
81.30000 8.072
81.32000 8.878
81.34000 5.671
81.36000 9.977
81.38000 10.030
81.40000 0.757
81.42000 -2.575
81.44000 2.579
81.46000 3.471
81.48000 4.583
81.50000 7.680
81.52000 5.928
81.54000 -0.368
81.56000 3.436
81.58000 1.093
81.60000 1.267
81.62000 -2.058
81.64000 2.484
81.66000 7.009
81.68000 8.003
81.70000 5.502
81.72000 1.522
81.74000 1.922
81.76000 7.112
81.78000 0.600
81.80000 2.397
81.82000 4.947
81.84000 9.343
81.86000 7.319
81.88000 6.791
81.90000 6.755
81.92000 7.208
81.94000 3.433
81.96000 2.718
81.98000 3.277
82.00000 7.764
82.02000 14.843
82.04000 7.411
82.06000 6.289
82.08000 7.166
82.10000 6.937
82.12000 4.055
82.14000 4.578
82.16000 9.058
82.18000 9.684
82.20000 14.848
82.22000 7.946
82.24000 6.028
82.26000 8.732
82.28000 3.363
82.30000 6.902
82.32000 7.396
82.34000 5.385
82.36000 5.950
82.38000 3.829
82.40000 4.881
82.42000 7.669
82.44000 6.089
82.46000 10.964
82.48000 8.630
82.50000 13.172
82.52000 14.100
82.54000 15.613
82.56000 8.861
82.58000 11.351
82.60000 11.122
82.62000 12.636
82.64000 12.322
82.66000 14.580
82.68000 12.767
82.70000 14.870
82.72000 17.327
82.74000 18.857
82.76000 21.719
82.78000 15.877
82.80000 13.349
82.82000 16.508
82.84000 18.797
82.86000 20.508
82.88000 17.034
82.90000 13.929
82.92000 13.396
82.94000 15.753
82.96000 17.040
82.98000 23.077
83.00000 18.954
83.02000 15.812
83.04000 19.737
83.06000 17.804
83.08000 17.364
83.10000 25.149
83.12000 23.253
83.14000 18.458
83.16000 21.522
83.18000 19.381
83.20000 17.614
83.22000 24.623
83.24000 24.769
83.26000 23.237
83.28000 23.397
83.30000 30.587
83.32000 26.141
83.34000 17.150
83.36000 21.051
83.38000 22.391
83.40000 22.585
83.42000 26.392
83.44000 27.524
83.46000 26.293
83.48000 26.811
83.50000 27.525
83.52000 27.431
83.54000 28.430
83.56000 29.033
83.58000 29.965
83.60000 23.654
83.62000 25.207
83.64000 27.790
83.66000 26.828
83.68000 25.731
83.70000 28.511
83.72000 26.639
83.74000 30.421
83.76000 28.825
83.78000 25.434
83.80000 27.551
83.82000 30.454
83.84000 28.022
83.86000 29.893
83.88000 26.329
83.90000 29.788
83.92000 27.225
83.94000 22.417
83.96000 28.315
83.98000 24.638
84.00000 27.366
84.02000 20.991
84.04000 19.352
84.06000 15.670
84.08000 13.747
84.10000 12.109
84.12000 20.258
84.14000 18.163
84.16000 18.069
84.18000 17.078
84.20000 20.124
84.22000 18.688
84.24000 11.274
84.26000 9.927
84.28000 14.413
84.30000 10.981
84.32000 10.287
84.34000 11.927
84.36000 18.109
84.38000 21.120
84.40000 12.240
84.42000 6.370
84.44000 9.550
84.46000 10.005
84.48000 12.376
84.50000 8.901
84.52000 13.484
84.54000 12.107
84.56000 4.579
84.58000 6.004
84.60000 7.616
84.62000 4.137
84.64000 8.804
84.66000 8.216
84.68000 7.629
84.70000 8.417
84.72000 11.608
84.74000 10.526
84.76000 8.004
84.78000 2.137
84.80000 4.330
84.82000 5.900
84.84000 4.304
84.86000 2.202
84.88000 0.594
84.90000 1.687
84.92000 3.335
84.94000 5.014
84.96000 2.400
84.98000 2.251
85.00000 8.399
85.02000 7.900
85.04000 3.630
85.06000 1.481
85.08000 0.333
85.10000 4.766
85.12000 11.729
85.14000 7.470
85.16000 -1.702
85.18000 0.485
85.20000 3.872
85.22000 -0.085
85.24000 1.829
85.26000 -1.495
85.28000 -1.395
85.30000 -2.586
85.32000 -1.853
85.34000 -2.268
85.36000 -2.069
85.38000 -1.846
85.40000 -0.685
85.42000 1.250
85.44000 1.052
85.46000 -2.575
85.48000 -1.017
85.50000 -1.010
85.52000 -0.870
85.54000 0.027
85.56000 -0.130
85.58000 -0.783
85.60000 1.088
85.62000 0.379
85.64000 -1.204
85.66000 -2.559
85.68000 -2.255
85.70000 1.408
85.72000 4.661
85.74000 2.169
85.76000 1.054
85.78000 2.148
85.80000 0.678
85.82000 5.590
85.84000 2.488
85.86000 0.376
85.88000 2.762
85.90000 2.579
85.92000 3.316
85.94000 1.765
85.96000 0.775
85.98000 -1.740
86.00000 0.505
86.02000 5.257
86.04000 1.680
86.06000 -0.702
86.08000 2.924
86.10000 1.801
86.12000 3.026
86.14000 5.079
86.16000 12.303
86.18000 10.990
86.20000 5.080
86.22000 5.550
86.24000 9.804
86.26000 5.541
86.28000 6.333
86.30000 8.135
86.32000 2.428
86.34000 6.525
86.36000 1.806
86.38000 7.522
86.40000 9.488
86.42000 5.510
86.44000 12.482
86.46000 13.577
86.48000 11.637
86.50000 4.630
86.52000 -2.466
86.54000 2.126
86.56000 12.158
86.58000 8.641
86.60000 5.849
86.62000 1.959
86.64000 1.420
86.66000 5.807
86.68000 3.541
86.70000 3.723
86.72000 4.663
86.74000 8.607
86.76000 7.295
86.78000 7.594
86.80000 11.868
86.82000 9.903
86.84000 10.316
86.86000 8.450
86.88000 10.852
86.90000 9.411
86.92000 10.780
86.94000 9.669
86.96000 10.065
86.98000 10.608
87.00000 12.538
87.02000 13.728
87.04000 14.294
87.06000 10.073
87.08000 15.583
87.10000 12.400
87.12000 10.549
87.14000 12.046
87.16000 12.881
87.18000 12.207
87.20000 11.645
87.22000 10.236
87.24000 13.151
87.26000 13.285
87.28000 13.184
87.30000 19.124
87.32000 18.708
87.34000 15.970
87.36000 15.413
87.38000 14.385
87.40000 13.449
87.42000 16.215
87.44000 18.726
87.46000 15.254
87.48000 13.428
87.50000 16.154
87.52000 17.856
87.54000 19.772
87.56000 19.572
87.58000 12.496
87.60000 16.311
87.62000 17.625
87.64000 15.541
87.66000 16.785
87.68000 16.805
87.70000 22.379
87.72000 23.627
87.74000 24.406
87.76000 24.850
87.78000 22.255
87.80000 22.899
87.82000 25.713
87.84000 27.381
87.86000 21.334
87.88000 15.353
87.90000 17.386
87.92000 19.408
87.94000 20.527
87.96000 24.669
87.98000 31.598
88.00000 30.191
88.02000 20.573
88.04000 21.337
88.06000 29.004
88.08000 27.481
88.10000 31.034
88.12000 26.298
88.14000 28.419
88.16000 24.295
88.18000 25.368
88.20000 25.923
88.22000 28.111
88.24000 24.955
88.26000 19.841
88.28000 20.631
88.30000 21.728
88.32000 23.930
88.34000 28.085
88.36000 27.090
88.38000 27.465
88.40000 26.500
88.42000 17.188
88.44000 19.006
88.46000 22.199
88.48000 17.838
88.50000 21.175
88.52000 17.139
88.54000 17.940
88.56000 13.750
88.58000 18.751
88.60000 19.634
88.62000 15.368
88.64000 16.007
88.66000 12.975
88.68000 11.943
88.70000 12.444
88.72000 11.691
88.74000 13.328
88.76000 14.801
88.78000 16.876
88.80000 21.720
88.82000 19.434
88.84000 15.031
88.86000 7.921
88.88000 7.055
88.90000 7.579
88.92000 6.237
88.94000 6.446
88.96000 13.847
88.98000 12.200
89.00000 11.640
89.02000 10.490
89.04000 12.530
89.06000 17.148
89.08000 11.671
89.10000 6.772
89.12000 8.381
89.14000 9.048
89.16000 9.445
89.18000 10.345
89.20000 8.687
89.22000 4.016
89.24000 4.134
89.26000 0.621
89.28000 6.888
89.30000 8.394
89.32000 12.965
89.34000 11.144
89.36000 5.928
89.38000 7.250
89.40000 7.600
89.42000 4.650
89.44000 6.713
89.46000 4.265
89.48000 1.556
89.50000 5.937
89.52000 -0.270
89.54000 -1.706
89.56000 1.795
89.58000 2.119
89.60000 1.280
89.62000 2.351
89.64000 -0.030
89.66000 -1.556
89.68000 2.733
89.70000 5.277
89.72000 1.852
89.74000 -1.362
89.76000 1.186
89.78000 1.298
89.80000 1.385
89.82000 6.376
89.84000 4.443
89.86000 9.067
89.88000 5.374
89.90000 1.116
89.92000 0.777
89.94000 1.775
89.96000 4.781
89.98000 4.860
90.00000 2.717
90.02000 3.080
90.04000 2.386
90.06000 0.989
90.08000 5.451
90.10000 5.737
90.12000 0.260
90.14000 -0.980
90.16000 -2.374
90.18000 3.086
90.20000 3.216
90.22000 1.219
90.24000 1.515
90.26000 0.395
90.28000 5.087
90.30000 7.016
90.32000 4.236
90.34000 3.341
90.36000 5.467
90.38000 4.774
90.40000 7.106
90.42000 2.050
90.44000 3.697
90.46000 1.826
90.48000 0.995
90.50000 0.294
90.52000 3.680
90.54000 5.535
90.56000 5.156
90.58000 4.346
90.60000 0.778
90.62000 4.583
90.64000 9.294
90.66000 8.868
90.68000 0.167
90.70000 -2.321
90.72000 4.229
90.74000 2.653
90.76000 -1.445
90.78000 3.364
90.80000 6.382
90.82000 7.687
90.84000 4.156
90.86000 2.813
90.88000 5.154
90.90000 6.441
90.92000 4.703
90.94000 3.562
90.96000 6.030
90.98000 0.583
91.00000 -2.308
91.02000 -0.248
91.04000 -1.576
91.06000 5.254
91.08000 4.666
91.10000 2.202
91.12000 4.076
91.14000 2.253
91.16000 1.791
91.18000 -2.107
91.20000 6.061
91.22000 5.832
91.24000 6.883
91.26000 8.662
91.28000 3.791
91.30000 5.070
91.32000 11.099
91.34000 10.423
91.36000 6.262
91.38000 0.188
91.40000 1.562
91.42000 3.115
91.44000 4.031
91.46000 -0.559
91.48000 6.242
91.50000 3.383
91.52000 1.935
91.54000 8.798
91.56000 4.568
91.58000 3.683
91.60000 4.560
91.62000 3.648
91.64000 3.755
91.66000 3.258
91.68000 -0.074
91.70000 1.951
91.72000 8.705
91.74000 8.559
91.76000 7.075
91.78000 6.163
91.80000 5.237
91.82000 4.377
91.84000 8.377
91.86000 4.980
91.88000 5.107
91.90000 9.227
91.92000 3.392
91.94000 1.875
91.96000 2.606
91.98000 8.215
92.00000 4.435
92.02000 -0.630
92.04000 2.803
92.06000 0.312
92.08000 1.618
92.10000 1.164
92.12000 6.187
92.14000 5.048
92.16000 5.446
92.18000 0.988
92.20000 3.039
92.22000 5.040
92.24000 2.014
92.26000 -2.284
92.28000 -0.929
92.30000 2.419
92.32000 7.633
92.34000 10.325
92.36000 10.046
92.38000 9.665
92.40000 13.438
92.42000 7.882
92.44000 5.357
92.46000 5.789
92.48000 7.468
92.50000 4.957
92.52000 5.315
92.54000 5.331
92.56000 8.195
92.58000 8.118
92.60000 5.816
92.62000 4.748
92.64000 2.749
92.66000 3.743
92.68000 5.916
92.70000 5.452
92.72000 7.512
92.74000 2.485
92.76000 5.408
92.78000 3.383
92.80000 4.041
92.82000 6.162
92.84000 3.833
92.86000 3.797
92.88000 5.432
92.90000 3.048
92.92000 2.493
92.94000 3.133
92.96000 9.776
92.98000 12.717
93.00000 12.798
93.02000 9.435
93.04000 5.695
93.06000 7.112
93.08000 6.997
93.10000 0.872
93.12000 0.168
93.14000 -0.510
93.16000 5.263
93.18000 6.805
93.20000 15.525
93.22000 9.585
93.24000 8.179
93.26000 7.250
93.28000 8.700
93.30000 5.454
93.32000 0.419
93.34000 5.405
93.36000 7.281
93.38000 2.652
93.40000 1.021
93.42000 4.725
93.44000 -2.303
93.46000 1.730
93.48000 9.917
93.50000 6.560
93.52000 0.153
93.54000 6.352
93.56000 11.914
93.58000 7.319
93.60000 9.007
93.62000 3.812
93.64000 -0.402
93.66000 0.605
93.68000 5.475
93.70000 4.032
93.72000 3.091
93.74000 6.332
93.76000 6.233
93.78000 1.083
93.80000 -0.914
93.82000 3.906
93.84000 4.159
93.86000 0.884
93.88000 4.366
93.90000 1.802
93.92000 5.758
93.94000 3.856
93.96000 5.783
93.98000 9.223
94.00000 8.255
94.02000 1.705
94.04000 1.524
94.06000 2.776
94.08000 4.038
94.10000 5.874
94.12000 7.964
94.14000 11.514
94.16000 11.002
94.18000 6.254
94.20000 6.593
94.22000 4.304
94.24000 6.166
94.26000 7.785
94.28000 3.012
94.30000 0.251
94.32000 5.805
94.34000 6.075
94.36000 2.564
94.38000 9.500
94.40000 6.049
94.42000 2.797
94.44000 2.156
94.46000 6.565
94.48000 10.263
94.50000 7.048
94.52000 6.826
94.54000 6.935
94.56000 11.418
94.58000 10.372
94.60000 8.394
94.62000 8.474
94.64000 7.954
94.66000 7.128
94.68000 5.507
94.70000 4.208
94.72000 6.914
94.74000 10.897
94.76000 10.580
94.78000 8.050
94.80000 8.291
94.82000 8.612
94.84000 3.595
94.86000 2.510
94.88000 2.723
94.90000 5.543
94.92000 7.234
94.94000 10.807
94.96000 15.853
94.98000 9.834
95.00000 2.914
95.02000 4.487
95.04000 2.129
95.06000 5.178
95.08000 6.885
95.10000 9.781
95.12000 7.450
95.14000 15.650
95.16000 15.394
95.18000 11.643
95.20000 1.652
95.22000 0.618
95.24000 -0.491
95.26000 -2.258
95.28000 4.112
95.30000 8.231
95.32000 2.550
95.34000 1.347
95.36000 9.872
95.38000 13.257
95.40000 7.678
95.42000 4.376
95.44000 1.875
95.46000 5.323
95.48000 5.925
95.50000 4.037
95.52000 4.972
95.54000 5.193
95.56000 5.175
95.58000 5.798
95.60000 1.248
95.62000 2.989
95.64000 2.328
95.66000 3.103
95.68000 7.335
95.70000 5.065
95.72000 2.300
95.74000 3.334
95.76000 2.967
95.78000 4.018
95.80000 2.109
95.82000 7.462
95.84000 11.052
95.86000 10.183
95.88000 4.524
95.90000 7.393
95.92000 8.068
95.94000 7.413
95.96000 7.928
95.98000 11.994
96.00000 8.860
96.02000 2.887
96.04000 6.345
96.06000 4.530
96.08000 1.980
96.10000 -0.598
96.12000 0.479
96.14000 8.102
96.16000 9.064
96.18000 4.614
96.20000 5.782
96.22000 8.448
96.24000 7.027
96.26000 9.230
96.28000 7.767
96.30000 8.880
96.32000 2.894
96.34000 2.943
96.36000 3.017
96.38000 1.281
96.40000 -0.488
96.42000 3.716
96.44000 -2.282
96.46000 3.611
96.48000 3.236
96.50000 7.004
96.52000 7.939
96.54000 6.852
96.56000 7.916
96.58000 14.102
96.60000 19.566
96.62000 8.149
96.64000 2.677
96.66000 7.248
96.68000 11.677
96.70000 5.467
96.72000 6.603
96.74000 3.372
96.76000 7.147
96.78000 5.720
96.80000 4.733
96.82000 3.532
96.84000 2.621
96.86000 2.363
96.88000 3.151
96.90000 6.169
96.92000 9.385
96.94000 5.116
96.96000 -1.812
96.98000 -2.114
97.00000 6.502
97.02000 11.769
97.04000 10.994
97.06000 3.400
97.08000 -0.226
97.10000 3.025
97.12000 3.241
97.14000 6.616
97.16000 9.643
97.18000 9.151
97.20000 9.326
97.22000 13.057
97.24000 6.493
97.26000 8.573
97.28000 9.282
97.30000 -0.346
97.32000 3.252
97.34000 0.827
97.36000 0.465
97.38000 5.793
97.40000 10.432
97.42000 8.140
97.44000 8.848
97.46000 3.264
97.48000 3.690
97.50000 7.817
97.52000 5.927
97.54000 0.922
97.56000 6.554
97.58000 9.220
97.60000 14.874
97.62000 12.716
97.64000 8.007
97.66000 6.188
97.68000 3.857
97.70000 9.805
97.72000 10.995
97.74000 12.108
97.76000 7.982
97.78000 7.878
97.80000 10.800
97.82000 7.910
97.84000 -2.234
97.86000 1.063
97.88000 10.256
97.90000 20.741
97.92000 13.100
97.94000 10.535
97.96000 10.753
97.98000 7.502
98.00000 8.006
98.02000 9.415
98.04000 10.635
98.06000 4.055
98.08000 -0.732
98.10000 2.418
98.12000 12.874
98.14000 20.036
98.16000 9.820
98.18000 6.317
98.20000 9.576
98.22000 5.448
98.24000 2.028
98.26000 5.111
98.28000 4.159
98.30000 4.266
98.32000 4.321
98.34000 6.890
98.36000 7.011
98.38000 14.004
98.40000 7.731
98.42000 13.965
98.44000 8.917
98.46000 15.522
98.48000 18.043
98.50000 8.362
98.52000 4.794
98.54000 8.605
98.56000 -0.054
98.58000 7.612
98.60000 12.264
98.62000 9.060
98.64000 6.856
98.66000 14.760
98.68000 7.872
98.70000 11.299
98.72000 2.016
98.74000 4.314
98.76000 6.098
98.78000 12.202
98.80000 13.580
98.82000 12.092
98.84000 9.652
98.86000 7.051
98.88000 5.159
98.90000 9.402
98.92000 11.374
98.94000 16.355
98.96000 10.094
98.98000 -4.347
99.00000 0.450
99.02000 7.019
99.04000 9.415
99.06000 -0.156
99.08000 19.695
99.10000 17.602
99.12000 19.593
99.14000 16.793
99.16000 7.165
99.18000 3.609
99.20000 8.125
99.22000 4.625
99.24000 9.649
99.26000 18.083
99.28000 14.606
99.30000 13.485
99.32000 10.785
99.34000 5.326
99.36000 -2.229
99.38000 -1.345
99.40000 9.016
99.42000 10.482
99.44000 12.071
99.46000 8.020
99.48000 6.546
99.50000 2.040
99.52000 6.012
99.54000 13.252
99.56000 13.033
99.58000 -2.300
99.60000 -2.845
99.62000 16.178
99.64000 -0.079
99.66000 6.265
99.68000 3.875
99.70000 9.461
99.72000 4.237
99.74000 -1.704
99.76000 1.416
99.78000 -2.383
99.80000 -0.489
99.82000 1.522
99.84000 -1.561
99.86000 -2.418
99.88000 0.499
99.90000 14.088
99.92000 13.457
99.94000 13.462
99.96000 12.348
99.98000 0.000
