'Id: "0011388" Comment: "Integrate frame 0011388_Au-Ir-Rh_Rh-rich_XRD-Mapping-047-0000.gfrmwith cursor Wedge Cursor #5" Operator: "B?rgel" Anode: "Cu" Wavelength: "1.5406" Scantype: "2Theta (TwoTheta)" TimePerStep: "1" X: "0" Y: "-27" Z: "5.95" 
10.00000 0.000
10.02000 5.179
10.04000 21.776
10.06000 24.225
10.08000 32.529
10.10000 32.879
10.12000 34.977
10.14000 27.700
10.16000 15.353
10.18000 3.967
10.20000 16.499
10.22000 6.212
10.24000 18.713
10.26000 29.542
10.28000 30.931
10.30000 31.726
10.32000 14.550
10.34000 30.022
10.36000 25.183
10.38000 18.062
10.40000 28.623
10.42000 37.521
10.44000 33.316
10.46000 24.286
10.48000 23.445
10.50000 19.827
10.52000 29.391
10.54000 20.222
10.56000 29.616
10.58000 22.962
10.60000 16.684
10.62000 34.247
10.64000 30.436
10.66000 35.369
10.68000 24.182
10.70000 25.383
10.72000 18.837
10.74000 18.343
10.76000 22.382
10.78000 19.012
10.80000 25.477
10.82000 25.271
10.84000 16.893
10.86000 26.364
10.88000 26.644
10.90000 14.934
10.92000 8.317
10.94000 21.937
10.96000 31.272
10.98000 24.077
11.00000 19.170
11.02000 21.702
11.04000 17.062
11.06000 16.173
11.08000 35.761
11.10000 19.621
11.12000 23.084
11.14000 14.199
11.16000 0.977
11.18000 6.463
11.20000 14.189
11.22000 20.289
11.24000 23.271
11.26000 21.701
11.28000 15.643
11.30000 21.850
11.32000 30.748
11.34000 14.018
11.36000 19.099
11.38000 17.173
11.40000 30.026
11.42000 29.824
11.44000 15.247
11.46000 11.003
11.48000 11.179
11.50000 12.858
11.52000 8.090
11.54000 0.647
11.56000 2.147
11.58000 16.592
11.60000 24.350
11.62000 21.447
11.64000 18.073
11.66000 21.552
11.68000 24.892
11.70000 17.482
11.72000 6.401
11.74000 24.026
11.76000 18.543
11.78000 16.398
11.80000 23.019
11.82000 8.596
11.84000 12.081
11.86000 17.487
11.88000 25.928
11.90000 20.319
11.92000 10.192
11.94000 8.949
11.96000 7.120
11.98000 21.120
12.00000 22.559
12.02000 7.130
12.04000 7.848
12.06000 8.679
12.08000 9.543
12.10000 20.119
12.12000 27.747
12.14000 24.220
12.16000 19.613
12.18000 7.404
12.20000 16.550
12.22000 30.463
12.24000 21.846
12.26000 7.255
12.28000 24.628
12.30000 29.143
12.32000 25.674
12.34000 16.569
12.36000 14.574
12.38000 10.470
12.40000 9.206
12.42000 7.761
12.44000 11.712
12.46000 22.103
12.48000 10.028
12.50000 11.371
12.52000 15.882
12.54000 13.142
12.56000 18.882
12.58000 18.849
12.60000 13.738
12.62000 12.460
12.64000 16.475
12.66000 16.883
12.68000 6.528
12.70000 11.519
12.72000 20.899
12.74000 15.009
12.76000 19.612
12.78000 9.052
12.80000 14.540
12.82000 17.102
12.84000 16.638
12.86000 19.293
12.88000 20.650
12.90000 16.716
12.92000 15.180
12.94000 15.672
12.96000 13.552
12.98000 29.207
13.00000 23.398
13.02000 15.119
13.04000 18.278
13.06000 19.626
13.08000 18.967
13.10000 9.745
13.12000 11.436
13.14000 12.346
13.16000 2.904
13.18000 4.951
13.20000 11.273
13.22000 17.900
13.24000 14.367
13.26000 12.325
13.28000 13.056
13.30000 4.936
13.32000 11.971
13.34000 14.243
13.36000 13.311
13.38000 17.164
13.40000 18.742
13.42000 10.284
13.44000 11.407
13.46000 7.560
13.48000 5.701
13.50000 17.396
13.52000 17.772
13.54000 20.765
13.56000 11.800
13.58000 8.979
13.60000 5.974
13.62000 14.915
13.64000 14.325
13.66000 25.743
13.68000 29.089
13.70000 19.250
13.72000 13.664
13.74000 6.096
13.76000 11.124
13.78000 9.410
13.80000 7.605
13.82000 8.542
13.84000 17.790
13.86000 7.763
13.88000 14.602
13.90000 21.631
13.92000 29.479
13.94000 21.761
13.96000 19.986
13.98000 13.458
14.00000 13.573
14.02000 12.527
14.04000 1.161
14.06000 9.290
14.08000 14.508
14.10000 20.081
14.12000 17.451
14.14000 10.843
14.16000 7.504
14.18000 7.474
14.20000 5.090
14.22000 8.167
14.24000 10.479
14.26000 12.682
14.28000 17.419
14.30000 13.557
14.32000 7.539
14.34000 8.666
14.36000 2.242
14.38000 9.439
14.40000 15.793
14.42000 4.567
14.44000 3.673
14.46000 13.153
14.48000 3.347
14.50000 8.634
14.52000 3.554
14.54000 -1.899
14.56000 2.892
14.58000 6.742
14.60000 8.382
14.62000 4.828
14.64000 7.876
14.66000 16.744
14.68000 6.105
14.70000 6.671
14.72000 3.385
14.74000 13.202
14.76000 11.417
14.78000 8.491
14.80000 4.484
14.82000 8.442
14.84000 19.332
14.86000 10.828
14.88000 10.094
14.90000 9.762
14.92000 9.429
14.94000 5.477
14.96000 2.996
14.98000 16.467
15.00000 18.840
15.02000 13.066
15.04000 9.601
15.06000 15.735
15.08000 11.345
15.10000 4.869
15.12000 9.563
15.14000 4.454
15.16000 -0.629
15.18000 -0.491
15.20000 0.928
15.22000 5.257
15.24000 1.169
15.26000 6.866
15.28000 11.299
15.30000 5.699
15.32000 11.384
15.34000 7.720
15.36000 3.264
15.38000 4.755
15.40000 1.828
15.42000 2.444
15.44000 6.636
15.46000 8.805
15.48000 5.593
15.50000 9.755
15.52000 12.022
15.54000 1.152
15.56000 0.321
15.58000 2.963
15.60000 -4.431
15.62000 -3.750
15.64000 3.347
15.66000 3.325
15.68000 12.723
15.70000 11.921
15.72000 13.069
15.74000 4.170
15.76000 5.736
15.78000 14.443
15.80000 8.262
15.82000 4.105
15.84000 -1.399
15.86000 2.930
15.88000 7.499
15.90000 5.155
15.92000 4.115
15.94000 4.818
15.96000 12.859
15.98000 11.226
16.00000 5.760
16.02000 3.478
16.04000 -0.700
16.06000 0.743
16.08000 2.165
16.10000 -2.766
16.12000 5.533
16.14000 5.869
16.16000 12.850
16.18000 16.094
16.20000 19.318
16.22000 19.481
16.24000 3.736
16.26000 -0.148
16.28000 -2.044
16.30000 0.810
16.32000 0.316
16.34000 6.727
16.36000 7.202
16.38000 1.512
16.40000 6.240
16.42000 2.053
16.44000 3.456
16.46000 3.007
16.48000 8.939
16.50000 11.268
16.52000 4.408
16.54000 3.332
16.56000 6.283
16.58000 3.112
16.60000 6.880
16.62000 0.804
16.64000 -2.090
16.66000 0.491
16.68000 6.742
16.70000 7.724
16.72000 5.692
16.74000 6.679
16.76000 12.002
16.78000 12.728
16.80000 8.050
16.82000 7.273
16.84000 0.788
16.86000 7.019
16.88000 7.401
16.90000 1.668
16.92000 5.424
16.94000 13.022
16.96000 9.161
16.98000 11.409
17.00000 0.150
17.02000 3.608
17.04000 10.182
17.06000 6.258
17.08000 3.540
17.10000 4.861
17.12000 4.187
17.14000 1.054
17.16000 2.150
17.18000 6.513
17.20000 7.143
17.22000 5.090
17.24000 2.484
17.26000 3.279
17.28000 1.211
17.30000 -0.313
17.32000 2.674
17.34000 5.779
17.36000 7.178
17.38000 6.692
17.40000 5.723
17.42000 8.212
17.44000 6.850
17.46000 5.746
17.48000 -0.067
17.50000 -1.808
17.52000 5.197
17.54000 11.770
17.56000 6.122
17.58000 4.264
17.60000 -2.426
17.62000 3.432
17.64000 4.511
17.66000 4.278
17.68000 4.725
17.70000 -4.331
17.72000 -2.313
17.74000 8.409
17.76000 15.272
17.78000 12.374
17.80000 3.880
17.82000 -1.741
17.84000 6.800
17.86000 7.076
17.88000 1.258
17.90000 7.159
17.92000 8.835
17.94000 11.254
17.96000 15.091
17.98000 12.664
18.00000 5.263
18.02000 4.759
18.04000 6.340
18.06000 2.245
18.08000 3.799
18.10000 1.194
18.12000 4.573
18.14000 8.405
18.16000 11.295
18.18000 6.972
18.20000 4.113
18.22000 11.693
18.24000 12.439
18.26000 8.572
18.28000 4.626
18.30000 -0.588
18.32000 1.247
18.34000 1.097
18.36000 5.268
18.38000 4.296
18.40000 7.478
18.42000 8.891
18.44000 2.534
18.46000 -0.142
18.48000 0.979
18.50000 5.664
18.52000 8.343
18.54000 13.550
18.56000 15.289
18.58000 12.992
18.60000 11.929
18.62000 11.120
18.64000 8.929
18.66000 11.224
18.68000 9.717
18.70000 6.030
18.72000 5.509
18.74000 -1.423
18.76000 -4.231
18.78000 -1.153
18.80000 4.215
18.82000 8.356
18.84000 11.027
18.86000 9.617
18.88000 -1.033
18.90000 5.688
18.92000 10.278
18.94000 14.660
18.96000 9.229
18.98000 9.491
19.00000 14.890
19.02000 10.366
19.04000 3.577
19.06000 8.936
19.08000 7.284
19.10000 13.581
19.12000 14.556
19.14000 6.995
19.16000 8.931
19.18000 8.562
19.20000 6.933
19.22000 5.864
19.24000 7.958
19.26000 7.114
19.28000 4.755
19.30000 8.367
19.32000 2.472
19.34000 -3.299
19.36000 -0.244
19.38000 7.122
19.40000 11.559
19.42000 7.269
19.44000 0.574
19.46000 -0.152
19.48000 8.523
19.50000 7.381
19.52000 2.510
19.54000 3.579
19.56000 12.472
19.58000 2.731
19.60000 4.060
19.62000 4.357
19.64000 1.333
19.66000 -3.208
19.68000 -4.219
19.70000 4.648
19.72000 11.237
19.74000 10.212
19.76000 8.168
19.78000 5.706
19.80000 7.627
19.82000 5.805
19.84000 1.467
19.86000 1.523
19.88000 7.503
19.90000 5.679
19.92000 4.302
19.94000 3.137
19.96000 -0.192
19.98000 1.956
20.00000 5.504
20.02000 8.387
20.04000 7.373
20.06000 3.736
20.08000 1.157
20.10000 5.749
20.12000 6.301
20.14000 2.747
20.16000 4.746
20.18000 -1.691
20.20000 -1.024
20.22000 4.613
20.24000 4.757
20.26000 4.949
20.28000 2.588
20.30000 -2.165
20.32000 -1.114
20.34000 -0.874
20.36000 7.296
20.38000 0.730
20.40000 0.520
20.42000 1.549
20.44000 10.146
20.46000 4.063
20.48000 2.368
20.50000 4.230
20.52000 11.279
20.54000 6.166
20.56000 3.650
20.58000 4.108
20.60000 1.476
20.62000 1.895
20.64000 -0.704
20.66000 1.982
20.68000 6.169
20.70000 2.595
20.72000 2.933
20.74000 7.763
20.76000 6.715
20.78000 11.669
20.80000 10.203
20.82000 6.907
20.84000 11.129
20.86000 5.736
20.88000 -2.846
20.90000 -2.542
20.92000 1.775
20.94000 1.305
20.96000 5.923
20.98000 2.107
21.00000 4.770
21.02000 4.784
21.04000 0.931
21.06000 3.137
21.08000 1.344
21.10000 4.514
21.12000 6.684
21.14000 11.136
21.16000 7.344
21.18000 1.862
21.20000 8.230
21.22000 6.314
21.24000 5.151
21.26000 2.822
21.28000 4.643
21.30000 1.740
21.32000 1.549
21.34000 5.825
21.36000 0.898
21.38000 -1.082
21.40000 -2.079
21.42000 3.297
21.44000 2.172
21.46000 -0.169
21.48000 3.984
21.50000 3.497
21.52000 0.700
21.54000 -1.206
21.56000 1.523
21.58000 3.404
21.60000 6.648
21.62000 8.862
21.64000 7.492
21.66000 5.659
21.68000 0.659
21.70000 -1.075
21.72000 -4.102
21.74000 -2.156
21.76000 7.516
21.78000 12.703
21.80000 9.169
21.82000 2.318
21.84000 2.098
21.86000 8.314
21.88000 11.277
21.90000 7.478
21.92000 2.320
21.94000 2.403
21.96000 7.744
21.98000 14.266
22.00000 7.660
22.02000 1.797
22.04000 2.178
22.06000 6.652
22.08000 4.843
22.10000 -1.908
22.12000 -3.304
22.14000 4.052
22.16000 7.890
22.18000 7.734
22.20000 4.204
22.22000 1.425
22.24000 6.068
22.26000 10.170
22.28000 6.119
22.30000 2.224
22.32000 0.054
22.34000 8.458
22.36000 9.207
22.38000 13.478
22.40000 8.773
22.42000 8.690
22.44000 3.869
22.46000 -1.598
22.48000 -0.246
22.50000 1.674
22.52000 6.292
22.54000 8.191
22.56000 4.460
22.58000 -4.056
22.60000 2.189
22.62000 0.733
22.64000 5.768
22.66000 4.356
22.68000 4.765
22.70000 8.412
22.72000 2.091
22.74000 0.226
22.76000 5.925
22.78000 9.538
22.80000 10.681
22.82000 1.405
22.84000 -0.180
22.86000 2.853
22.88000 4.659
22.90000 9.188
22.92000 4.197
22.94000 2.906
22.96000 6.353
22.98000 1.642
23.00000 2.495
23.02000 6.765
23.04000 7.044
23.06000 9.811
23.08000 10.393
23.10000 9.878
23.12000 1.176
23.14000 5.716
23.16000 9.896
23.18000 5.247
23.20000 0.579
23.22000 7.146
23.24000 5.763
23.26000 1.237
23.28000 -0.870
23.30000 1.755
23.32000 8.068
23.34000 7.050
23.36000 6.224
23.38000 2.320
23.40000 -1.309
23.42000 -2.089
23.44000 6.262
23.46000 10.126
23.48000 7.939
23.50000 11.001
23.52000 8.502
23.54000 6.268
23.56000 5.818
23.58000 1.326
23.60000 2.499
23.62000 10.573
23.64000 4.559
23.66000 1.325
23.68000 3.527
23.70000 5.114
23.72000 0.305
23.74000 2.097
23.76000 0.751
23.78000 0.823
23.80000 6.899
23.82000 5.404
23.84000 3.989
23.86000 5.801
23.88000 3.208
23.90000 0.675
23.92000 -3.979
23.94000 -1.007
23.96000 2.385
23.98000 4.086
24.00000 1.475
24.02000 4.751
24.04000 5.714
24.06000 8.981
24.08000 3.906
24.10000 6.496
24.12000 5.781
24.14000 0.728
24.16000 7.636
24.18000 12.404
24.20000 2.196
24.22000 5.146
24.24000 7.153
24.26000 4.697
24.28000 5.306
24.30000 5.932
24.32000 2.905
24.34000 2.697
24.36000 5.180
24.38000 7.435
24.40000 3.280
24.42000 2.698
24.44000 -0.430
24.46000 0.301
24.48000 4.591
24.50000 6.504
24.52000 5.775
24.54000 3.856
24.56000 2.736
24.58000 4.497
24.60000 3.009
24.62000 9.738
24.64000 5.393
24.66000 -1.796
24.68000 3.038
24.70000 7.520
24.72000 -1.138
24.74000 1.692
24.76000 7.776
24.78000 7.594
24.80000 9.339
24.82000 9.630
24.84000 3.587
24.86000 0.692
24.88000 1.228
24.90000 1.648
24.92000 1.190
24.94000 3.609
24.96000 5.851
24.98000 6.775
25.00000 8.661
25.02000 9.417
25.04000 7.795
25.06000 7.397
25.08000 -3.917
25.10000 -0.140
25.12000 1.323
25.14000 0.206
25.16000 2.547
25.18000 7.814
25.20000 11.760
25.22000 0.504
25.24000 1.226
25.26000 -0.770
25.28000 1.784
25.30000 3.036
25.32000 1.864
25.34000 2.891
25.36000 3.262
25.38000 5.578
25.40000 5.541
25.42000 5.057
25.44000 5.596
25.46000 6.568
25.48000 -0.536
25.50000 2.952
25.52000 -0.519
25.54000 -3.434
25.56000 0.669
25.58000 8.283
25.60000 6.117
25.62000 4.374
25.64000 5.809
25.66000 4.139
25.68000 -0.970
25.70000 -2.906
25.72000 0.411
25.74000 4.169
25.76000 6.477
25.78000 4.084
25.80000 2.742
25.82000 1.052
25.84000 -0.549
25.86000 3.109
25.88000 3.627
25.90000 -0.468
25.92000 4.645
25.94000 2.964
25.96000 -3.876
25.98000 -0.686
26.00000 4.650
26.02000 4.963
26.04000 2.480
26.06000 3.414
26.08000 -1.359
26.10000 -0.116
26.12000 0.960
26.14000 5.901
26.16000 1.437
26.18000 1.352
26.20000 3.966
26.22000 8.139
26.24000 8.986
26.26000 7.311
26.28000 9.625
26.30000 6.359
26.32000 2.172
26.34000 0.674
26.36000 1.003
26.38000 -0.992
26.40000 4.438
26.42000 5.360
26.44000 2.086
26.46000 5.387
26.48000 5.352
26.50000 4.925
26.52000 2.515
26.54000 3.113
26.56000 8.948
26.58000 6.477
26.60000 6.576
26.62000 2.937
26.64000 9.362
26.66000 11.672
26.68000 3.393
26.70000 -0.511
26.72000 -3.844
26.74000 -0.558
26.76000 3.932
26.78000 4.844
26.80000 1.689
26.82000 5.473
26.84000 6.678
26.86000 5.868
26.88000 9.287
26.90000 3.344
26.92000 1.132
26.94000 4.393
26.96000 3.292
26.98000 2.955
27.00000 0.073
27.02000 1.634
27.04000 7.061
27.06000 3.817
27.08000 -2.701
27.10000 -3.601
27.12000 0.281
27.14000 6.521
27.16000 3.545
27.18000 2.926
27.20000 5.307
27.22000 7.520
27.24000 7.677
27.26000 7.560
27.28000 8.309
27.30000 7.808
27.32000 6.016
27.34000 6.175
27.36000 5.215
27.38000 3.135
27.40000 1.053
27.42000 4.234
27.44000 3.370
27.46000 0.473
27.48000 1.052
27.50000 4.003
27.52000 6.469
27.54000 8.621
27.56000 9.294
27.58000 6.333
27.60000 6.246
27.62000 9.044
27.64000 7.766
27.66000 5.302
27.68000 4.301
27.70000 4.188
27.72000 2.067
27.74000 2.642
27.76000 8.486
27.78000 0.511
27.80000 -3.755
27.82000 2.196
27.84000 5.304
27.86000 1.203
27.88000 6.151
27.90000 4.918
27.92000 3.038
27.94000 1.001
27.96000 3.422
27.98000 2.458
28.00000 1.692
28.02000 1.901
28.04000 -1.003
28.06000 3.159
28.08000 1.902
28.10000 2.004
28.12000 4.531
28.14000 7.528
28.16000 3.528
28.18000 0.684
28.20000 3.414
28.22000 7.573
28.24000 4.357
28.26000 1.708
28.28000 1.346
28.30000 2.959
28.32000 5.671
28.34000 -0.158
28.36000 2.918
28.38000 5.473
28.40000 7.321
28.42000 3.413
28.44000 0.352
28.46000 6.840
28.48000 6.983
28.50000 9.158
28.52000 6.187
28.54000 -1.016
28.56000 -2.348
28.58000 1.331
28.60000 0.480
28.62000 4.948
28.64000 6.743
28.66000 2.451
28.68000 1.640
28.70000 2.381
28.72000 1.920
28.74000 2.327
28.76000 2.891
28.78000 4.121
28.80000 5.580
28.82000 9.069
28.84000 5.901
28.86000 3.715
28.88000 5.374
28.90000 -0.420
28.92000 0.903
28.94000 4.469
28.96000 3.660
28.98000 7.065
29.00000 5.288
29.02000 2.700
29.04000 -1.357
29.06000 3.526
29.08000 5.868
29.10000 0.878
29.12000 -2.566
29.14000 0.557
29.16000 2.390
29.18000 1.049
29.20000 3.219
29.22000 2.531
29.24000 0.510
29.26000 2.591
29.28000 3.674
29.30000 -3.704
29.32000 -2.615
29.34000 6.147
29.36000 8.054
29.38000 1.803
29.40000 -0.356
29.42000 2.374
29.44000 6.776
29.46000 -0.221
29.48000 -0.781
29.50000 1.054
29.52000 0.022
29.54000 3.898
29.56000 -1.663
29.58000 4.146
29.60000 2.684
29.62000 5.405
29.64000 7.609
29.66000 3.530
29.68000 2.328
29.70000 3.450
29.72000 1.153
29.74000 -0.851
29.76000 5.673
29.78000 8.609
29.80000 2.470
29.82000 0.331
29.84000 5.597
29.86000 -0.488
29.88000 -3.671
29.90000 -2.152
29.92000 -1.645
29.94000 1.379
29.96000 3.041
29.98000 -2.604
30.00000 7.440
30.02000 8.106
30.04000 6.065
30.06000 5.343
30.08000 1.753
30.10000 1.513
30.12000 0.048
30.14000 1.514
30.16000 3.381
30.18000 2.777
30.20000 3.565
30.22000 3.156
30.24000 4.216
30.26000 6.970
30.28000 3.425
30.30000 -3.121
30.32000 -2.188
30.34000 -1.315
30.36000 1.995
30.38000 4.545
30.40000 2.814
30.42000 1.089
30.44000 3.147
30.46000 1.949
30.48000 3.226
30.50000 2.490
30.52000 -1.365
30.54000 5.015
30.56000 4.396
30.58000 1.227
30.60000 0.455
30.62000 3.800
30.64000 1.389
30.66000 0.935
30.68000 -1.187
30.70000 -0.880
30.72000 3.401
30.74000 1.493
30.76000 4.281
30.78000 1.773
30.80000 3.019
30.82000 1.845
30.84000 -3.215
30.86000 -3.645
30.88000 4.100
30.90000 6.876
30.92000 6.151
30.94000 3.823
30.96000 1.492
30.98000 1.797
31.00000 0.340
31.02000 1.170
31.04000 1.907
31.06000 3.641
31.08000 0.584
31.10000 3.547
31.12000 4.791
31.14000 2.311
31.16000 0.703
31.18000 -3.630
31.20000 -2.326
31.22000 1.285
31.24000 1.095
31.26000 3.172
31.28000 6.438
31.30000 6.164
31.32000 2.288
31.34000 4.014
31.36000 1.582
31.38000 0.950
31.40000 2.205
31.42000 0.500
31.44000 -1.121
31.46000 -1.380
31.48000 4.756
31.50000 4.081
31.52000 5.993
31.54000 3.166
31.56000 1.621
31.58000 0.470
31.60000 0.800
31.62000 1.083
31.64000 3.831
31.66000 1.409
31.68000 -1.329
31.70000 -2.294
31.72000 1.294
31.74000 0.529
31.76000 0.426
31.78000 4.259
31.80000 6.480
31.82000 2.458
31.84000 0.450
31.86000 -0.733
31.88000 0.552
31.90000 -0.451
31.92000 0.583
31.94000 0.511
31.96000 3.460
31.98000 5.293
32.00000 3.307
32.02000 1.844
32.04000 -3.469
32.06000 0.782
32.08000 2.171
32.10000 1.726
32.12000 3.396
32.14000 -0.295
32.16000 -0.489
32.18000 -1.699
32.20000 -3.595
32.22000 -1.855
32.24000 0.227
32.26000 1.295
32.28000 -0.371
32.30000 -2.453
32.32000 -2.186
32.34000 2.687
32.36000 9.688
32.38000 2.978
32.40000 -1.279
32.42000 4.253
32.44000 0.527
32.46000 0.887
32.48000 -1.180
32.50000 0.864
32.52000 4.534
32.54000 -3.583
32.56000 -1.627
32.58000 0.283
32.60000 -0.270
32.62000 1.092
32.64000 -2.663
32.66000 -2.184
32.68000 -0.791
32.70000 5.706
32.72000 6.974
32.74000 6.102
32.76000 2.892
32.78000 1.948
32.80000 2.670
32.82000 0.460
32.84000 -0.733
32.86000 0.972
32.88000 -1.375
32.90000 4.231
32.92000 3.626
32.94000 -0.131
32.96000 0.507
32.98000 0.366
33.00000 2.868
33.02000 0.859
33.04000 -2.534
33.06000 -2.263
33.08000 -3.331
33.10000 -0.499
33.12000 2.381
33.14000 6.818
33.16000 6.960
33.18000 4.458
33.20000 1.305
33.22000 4.469
33.24000 2.661
33.26000 0.010
33.28000 4.919
33.30000 4.215
33.32000 1.898
33.34000 2.084
33.36000 5.832
33.38000 1.098
33.40000 -0.758
33.42000 -3.538
33.44000 2.416
33.46000 6.090
33.48000 4.074
33.50000 1.717
33.52000 5.720
33.54000 7.080
33.56000 11.282
33.58000 2.190
33.60000 2.266
33.62000 4.200
33.64000 3.911
33.66000 4.166
33.68000 6.215
33.70000 9.401
33.72000 10.590
33.74000 4.472
33.76000 4.368
33.78000 5.095
33.80000 4.878
33.82000 5.667
33.84000 2.390
33.86000 3.275
33.88000 1.087
33.90000 3.950
33.92000 5.016
33.94000 4.307
33.96000 1.126
33.98000 0.602
34.00000 5.701
34.02000 5.333
34.04000 6.434
34.06000 6.998
34.08000 6.044
34.10000 4.611
34.12000 4.569
34.14000 4.606
34.16000 0.200
34.18000 3.026
34.20000 4.223
34.22000 4.706
34.24000 6.584
34.26000 7.710
34.28000 2.056
34.30000 2.180
34.32000 0.755
34.34000 5.505
34.36000 2.683
34.38000 1.760
34.40000 3.559
34.42000 4.876
34.44000 5.651
34.46000 1.472
34.48000 1.585
34.50000 3.283
34.52000 5.956
34.54000 2.897
34.56000 3.402
34.58000 2.390
34.60000 4.504
34.62000 9.633
34.64000 6.000
34.66000 5.850
34.68000 4.258
34.70000 6.760
34.72000 8.059
34.74000 5.024
34.76000 1.471
34.78000 -1.603
34.80000 -3.473
34.82000 -1.098
34.84000 2.352
34.86000 2.800
34.88000 3.432
34.90000 8.505
34.92000 11.891
34.94000 7.264
34.96000 8.080
34.98000 1.806
35.00000 0.127
35.02000 1.713
35.04000 1.006
35.06000 3.567
35.08000 2.832
35.10000 5.473
35.12000 4.440
35.14000 2.310
35.16000 0.598
35.18000 0.272
35.20000 0.438
35.22000 4.035
35.24000 -0.380
35.26000 1.162
35.28000 3.425
35.30000 0.188
35.32000 5.028
35.34000 1.868
35.36000 0.944
35.38000 2.915
35.40000 3.587
35.42000 3.809
35.44000 3.575
35.46000 -0.374
35.48000 0.303
35.50000 4.398
35.52000 2.227
35.54000 0.608
35.56000 1.005
35.58000 1.895
35.60000 7.026
35.62000 4.790
35.64000 2.683
35.66000 -0.196
35.68000 -1.237
35.70000 -1.420
35.72000 1.036
35.74000 -1.312
35.76000 1.016
35.78000 7.804
35.80000 3.926
35.82000 1.448
35.84000 2.900
35.86000 10.756
35.88000 5.979
35.90000 4.732
35.92000 -3.200
35.94000 1.902
35.96000 8.116
35.98000 2.990
36.00000 4.619
36.02000 4.183
36.04000 3.891
36.06000 -0.473
36.08000 6.620
36.10000 8.651
36.12000 2.929
36.14000 -0.423
36.16000 -3.463
36.18000 3.489
36.20000 8.111
36.22000 5.357
36.24000 0.236
36.26000 1.806
36.28000 0.100
36.30000 2.549
36.32000 7.144
36.34000 6.339
36.36000 7.883
36.38000 4.847
36.40000 4.675
36.42000 6.587
36.44000 3.894
36.46000 5.506
36.48000 3.838
36.50000 2.090
36.52000 1.258
36.54000 4.441
36.56000 5.623
36.58000 3.489
36.60000 2.990
36.62000 4.451
36.64000 -0.109
36.66000 2.316
36.68000 4.335
36.70000 3.742
36.72000 6.870
36.74000 6.889
36.76000 6.763
36.78000 6.803
36.80000 7.725
36.82000 4.918
36.84000 3.588
36.86000 0.389
36.88000 -0.404
36.90000 -3.451
36.92000 2.366
36.94000 6.681
36.96000 3.091
36.98000 5.490
37.00000 4.685
37.02000 6.782
37.04000 5.502
37.06000 7.379
37.08000 8.876
37.10000 4.254
37.12000 4.946
37.14000 2.268
37.16000 2.979
37.18000 4.481
37.20000 7.079
37.22000 8.539
37.24000 5.326
37.26000 4.054
37.28000 6.982
37.30000 2.395
37.32000 1.561
37.34000 6.950
37.36000 6.909
37.38000 5.061
37.40000 -1.715
37.42000 0.264
37.44000 2.425
37.46000 3.726
37.48000 -2.810
37.50000 -3.389
37.52000 -3.517
37.54000 1.534
37.56000 -1.290
37.58000 3.473
37.60000 6.093
37.62000 7.532
37.64000 1.020
37.66000 1.113
37.68000 1.779
37.70000 3.175
37.72000 2.706
37.74000 3.348
37.76000 6.421
37.78000 6.354
37.80000 3.563
37.82000 4.666
37.84000 5.263
37.86000 2.724
37.88000 1.969
37.90000 4.357
37.92000 3.998
37.94000 7.254
37.96000 3.115
37.98000 0.968
38.00000 4.563
38.02000 4.225
38.04000 1.852
38.06000 4.949
38.08000 5.259
38.10000 8.013
38.12000 9.908
38.14000 9.461
38.16000 9.413
38.18000 7.018
38.20000 10.674
38.22000 6.877
38.24000 6.526
38.26000 10.361
38.28000 11.259
38.30000 12.565
38.32000 10.321
38.34000 11.997
38.36000 13.901
38.38000 10.371
38.40000 10.006
38.42000 12.546
38.44000 12.822
38.46000 12.450
38.48000 12.646
38.50000 12.682
38.52000 12.416
38.54000 12.796
38.56000 15.298
38.58000 17.170
38.60000 19.126
38.62000 12.580
38.64000 9.080
38.66000 15.617
38.68000 20.641
38.70000 16.180
38.72000 17.050
38.74000 19.508
38.76000 19.074
38.78000 17.496
38.80000 19.404
38.82000 17.851
38.84000 16.878
38.86000 20.742
38.88000 20.449
38.90000 26.535
38.92000 30.698
38.94000 30.953
38.96000 23.655
38.98000 19.185
39.00000 21.820
39.02000 20.691
39.04000 23.844
39.06000 28.972
39.08000 27.453
39.10000 22.991
39.12000 33.034
39.14000 31.742
39.16000 31.523
39.18000 36.242
39.20000 36.899
39.22000 34.179
39.24000 37.947
39.26000 38.202
39.28000 41.460
39.30000 44.757
39.32000 44.143
39.34000 43.079
39.36000 42.805
39.38000 45.233
39.40000 48.608
39.42000 51.347
39.44000 53.567
39.46000 58.567
39.48000 57.518
39.50000 62.770
39.52000 61.251
39.54000 62.962
39.56000 67.435
39.58000 75.409
39.60000 77.452
39.62000 72.816
39.64000 78.125
39.66000 90.616
39.68000 86.133
39.70000 90.887
39.72000 93.186
39.74000 97.084
39.76000 106.957
39.78000 113.083
39.80000 116.451
39.82000 124.106
39.84000 130.964
39.86000 136.044
39.88000 133.841
39.90000 145.630
39.92000 156.401
39.94000 160.403
39.96000 171.271
39.98000 182.157
40.00000 189.398
40.02000 201.737
40.04000 213.978
40.06000 219.726
40.08000 226.661
40.10000 238.742
40.12000 252.865
40.14000 267.851
40.16000 278.568
40.18000 288.456
40.20000 299.809
40.22000 319.890
40.24000 336.145
40.26000 349.358
40.28000 361.055
40.30000 369.402
40.32000 385.716
40.34000 409.843
40.36000 421.507
40.38000 439.016
40.40000 451.855
40.42000 471.192
40.44000 486.996
40.46000 488.726
40.48000 498.913
40.50000 507.788
40.52000 518.698
40.54000 521.227
40.56000 525.022
40.58000 536.295
40.60000 542.510
40.62000 541.601
40.64000 548.322
40.66000 545.282
40.68000 538.469
40.70000 543.263
40.72000 541.186
40.74000 532.619
40.76000 520.530
40.78000 519.890
40.80000 515.761
40.82000 510.711
40.84000 495.576
40.86000 475.983
40.88000 459.534
40.90000 447.455
40.92000 437.172
40.94000 426.173
40.96000 405.547
40.98000 398.097
41.00000 380.527
41.02000 360.279
41.04000 340.396
41.06000 322.398
41.08000 301.933
41.10000 291.475
41.12000 286.050
41.14000 281.081
41.16000 266.806
41.18000 254.868
41.20000 242.943
41.22000 231.948
41.24000 210.561
41.26000 204.338
41.28000 191.937
41.30000 183.331
41.32000 180.403
41.34000 169.260
41.36000 157.278
41.38000 146.015
41.40000 142.985
41.42000 137.761
41.44000 134.953
41.46000 120.063
41.48000 108.663
41.50000 100.970
41.52000 102.942
41.54000 101.580
41.56000 96.355
41.58000 84.513
41.60000 76.644
41.62000 75.312
41.64000 75.590
41.66000 74.782
41.68000 63.481
41.70000 60.990
41.72000 68.096
41.74000 64.131
41.76000 56.791
41.78000 55.596
41.80000 56.863
41.82000 57.298
41.84000 49.882
41.86000 42.796
41.88000 42.967
41.90000 48.187
41.92000 39.883
41.94000 37.441
41.96000 33.769
41.98000 30.057
42.00000 27.732
42.02000 30.554
42.04000 31.166
42.06000 27.189
42.08000 24.942
42.10000 25.066
42.12000 25.831
42.14000 21.357
42.16000 19.548
42.18000 21.514
42.20000 22.085
42.22000 19.359
42.24000 14.095
42.26000 15.298
42.28000 13.762
42.30000 13.493
42.32000 15.180
42.34000 13.208
42.36000 13.862
42.38000 14.058
42.40000 11.287
42.42000 8.813
42.44000 7.407
42.46000 7.494
42.48000 5.978
42.50000 9.748
42.52000 10.164
42.54000 9.235
42.56000 10.591
42.58000 8.858
42.60000 8.489
42.62000 6.192
42.64000 4.730
42.66000 4.382
42.68000 5.725
42.70000 9.827
42.72000 6.329
42.74000 1.217
42.76000 0.267
42.78000 -0.029
42.80000 5.624
42.82000 5.159
42.84000 2.050
42.86000 4.647
42.88000 4.992
42.90000 4.509
42.92000 7.588
42.94000 2.989
42.96000 -1.111
42.98000 -0.717
43.00000 2.243
43.02000 0.795
43.04000 6.446
43.06000 8.379
43.08000 2.854
43.10000 3.973
43.12000 2.871
43.14000 -3.116
43.16000 2.123
43.18000 7.458
43.20000 1.709
43.22000 -2.816
43.24000 -2.736
43.26000 -0.213
43.28000 2.382
43.30000 1.360
43.32000 2.652
43.34000 -0.049
43.36000 4.338
43.38000 2.732
43.40000 4.508
43.42000 1.640
43.44000 0.683
43.46000 -0.181
43.48000 3.055
43.50000 2.152
43.52000 3.735
43.54000 4.363
43.56000 4.022
43.58000 3.579
43.60000 2.918
43.62000 5.920
43.64000 6.668
43.66000 3.282
43.68000 6.009
43.70000 2.236
43.72000 0.460
43.74000 2.052
43.76000 1.435
43.78000 -3.443
43.80000 2.651
43.82000 6.778
43.84000 3.723
43.86000 0.386
43.88000 0.248
43.90000 1.282
43.92000 2.690
43.94000 3.333
43.96000 2.794
43.98000 2.295
44.00000 3.958
44.02000 3.048
44.04000 2.290
44.06000 -1.771
44.08000 2.507
44.10000 -0.099
44.12000 -2.974
44.14000 -1.096
44.16000 -1.021
44.18000 1.911
44.20000 3.516
44.22000 2.367
44.24000 -1.214
44.26000 -2.581
44.28000 -0.293
44.30000 -0.708
44.32000 -0.841
44.34000 -1.530
44.36000 1.789
44.38000 -0.455
44.40000 -0.173
44.42000 -0.317
44.44000 -3.418
44.46000 1.906
44.48000 5.794
44.50000 2.879
44.52000 2.522
44.54000 -0.617
44.56000 -2.772
44.58000 -2.150
44.60000 2.002
44.62000 -0.533
44.64000 2.931
44.66000 -1.291
44.68000 4.187
44.70000 4.303
44.72000 0.991
44.74000 -3.420
44.76000 -2.302
44.78000 3.975
44.80000 3.889
44.82000 0.029
44.84000 -0.024
44.86000 1.404
44.88000 1.044
44.90000 -0.546
44.92000 -2.018
44.94000 -3.009
44.96000 -1.580
44.98000 -0.564
45.00000 6.489
45.02000 5.018
45.04000 4.256
45.06000 0.491
45.08000 -0.020
45.10000 -0.454
45.12000 -0.396
45.14000 3.436
45.16000 4.355
45.18000 6.499
45.20000 4.480
45.22000 1.600
45.24000 -0.433
45.26000 0.270
45.28000 7.846
45.30000 7.460
45.32000 4.840
45.34000 -2.905
45.36000 -2.919
45.38000 2.910
45.40000 0.075
45.42000 -0.357
45.44000 0.873
45.46000 0.851
45.48000 2.483
45.50000 4.087
45.52000 3.191
45.54000 6.351
45.56000 7.167
45.58000 9.859
45.60000 4.970
45.62000 5.309
45.64000 2.537
45.66000 4.141
45.68000 9.566
45.70000 9.403
45.72000 9.396
45.74000 13.996
45.76000 11.434
45.78000 13.911
45.80000 10.868
45.82000 5.314
45.84000 8.343
45.86000 14.746
45.88000 12.319
45.90000 8.825
45.92000 15.033
45.94000 17.969
45.96000 20.479
45.98000 20.232
46.00000 19.084
46.02000 15.535
46.04000 19.010
46.06000 18.049
46.08000 16.347
46.10000 23.506
46.12000 23.297
46.14000 20.655
46.16000 20.471
46.18000 25.147
46.20000 26.890
46.22000 25.200
46.24000 28.030
46.26000 29.972
46.28000 29.295
46.30000 31.486
46.32000 28.792
46.34000 29.947
46.36000 35.841
46.38000 38.445
46.40000 36.093
46.42000 32.051
46.44000 33.054
46.46000 33.942
46.48000 37.846
46.50000 46.722
46.52000 43.075
46.54000 41.963
46.56000 41.559
46.58000 41.870
46.60000 45.384
46.62000 49.161
46.64000 46.429
46.66000 47.486
46.68000 47.005
46.70000 48.913
46.72000 53.374
46.74000 51.230
46.76000 53.970
46.78000 61.288
46.80000 59.694
46.82000 64.963
46.84000 69.349
46.86000 67.709
46.88000 60.325
46.90000 62.656
46.92000 64.681
46.94000 64.728
46.96000 63.553
46.98000 73.771
47.00000 76.116
47.02000 69.284
47.04000 70.047
47.06000 71.573
47.08000 75.426
47.10000 73.592
47.12000 76.943
47.14000 77.767
47.16000 76.669
47.18000 78.837
47.20000 76.707
47.22000 81.284
47.24000 80.152
47.26000 73.408
47.28000 75.244
47.30000 83.380
47.32000 74.177
47.34000 73.938
47.36000 76.329
47.38000 77.213
47.40000 77.952
47.42000 74.329
47.44000 72.507
47.46000 73.495
47.48000 65.915
47.50000 62.558
47.52000 61.388
47.54000 63.318
47.56000 64.983
47.58000 58.465
47.60000 61.789
47.62000 58.360
47.64000 55.930
47.66000 59.349
47.68000 55.640
47.70000 57.050
47.72000 49.581
47.74000 48.280
47.76000 46.866
47.78000 51.950
47.80000 48.851
47.82000 46.471
47.84000 43.873
47.86000 45.373
47.88000 39.457
47.90000 36.738
47.92000 35.818
47.94000 37.662
47.96000 35.784
47.98000 36.586
48.00000 31.765
48.02000 31.119
48.04000 27.478
48.06000 30.477
48.08000 28.321
48.10000 25.391
48.12000 21.824
48.14000 23.736
48.16000 27.117
48.18000 22.646
48.20000 19.450
48.22000 19.075
48.24000 22.617
48.26000 19.577
48.28000 16.274
48.30000 19.320
48.32000 19.995
48.34000 20.863
48.36000 12.830
48.38000 9.014
48.40000 11.075
48.42000 14.812
48.44000 17.753
48.46000 12.331
48.48000 11.453
48.50000 13.484
48.52000 12.282
48.54000 10.625
48.56000 9.074
48.58000 14.300
48.60000 12.259
48.62000 10.100
48.64000 8.719
48.66000 6.943
48.68000 3.663
48.70000 6.926
48.72000 6.170
48.74000 1.217
48.76000 4.869
48.78000 13.656
48.80000 11.596
48.82000 4.533
48.84000 -3.110
48.86000 -0.740
48.88000 11.035
48.90000 5.305
48.92000 2.658
48.94000 -0.669
48.96000 -0.531
48.98000 8.438
49.00000 4.243
49.02000 0.514
49.04000 2.515
49.06000 4.353
49.08000 1.594
49.10000 2.357
49.12000 3.094
49.14000 -1.370
49.16000 4.033
49.18000 7.105
49.20000 4.019
49.22000 0.123
49.24000 -0.299
49.26000 2.899
49.28000 -2.009
49.30000 3.668
49.32000 0.916
49.34000 2.292
49.36000 7.332
49.38000 3.414
49.40000 4.799
49.42000 5.232
49.44000 1.502
49.46000 3.147
49.48000 3.206
49.50000 6.078
49.52000 7.978
49.54000 7.608
49.56000 2.230
49.58000 1.499
49.60000 2.187
49.62000 -1.132
49.64000 -2.974
49.66000 3.421
49.68000 4.506
49.70000 0.372
49.72000 1.317
49.74000 2.514
49.76000 -0.057
49.78000 -2.196
49.80000 -0.425
49.82000 2.026
49.84000 4.604
49.86000 1.718
49.88000 2.683
49.90000 4.630
49.92000 1.473
49.94000 1.807
49.96000 -1.083
49.98000 7.569
50.00000 5.264
50.02000 0.272
50.04000 3.249
50.06000 4.269
50.08000 3.949
50.10000 6.807
50.12000 6.774
50.14000 3.558
50.16000 5.077
50.18000 7.418
50.20000 2.982
50.22000 2.899
50.24000 7.066
50.26000 4.583
50.28000 3.708
50.30000 0.466
50.32000 1.056
50.34000 5.203
50.36000 7.458
50.38000 4.417
50.40000 2.595
50.42000 3.089
50.44000 0.226
50.46000 5.038
50.48000 3.873
50.50000 1.947
50.52000 6.705
50.54000 3.504
50.56000 2.264
50.58000 3.693
50.60000 1.621
50.62000 -0.001
50.64000 2.626
50.66000 7.413
50.68000 1.963
50.70000 -2.859
50.72000 3.314
50.74000 5.594
50.76000 7.337
50.78000 6.986
50.80000 8.964
50.82000 6.332
50.84000 1.879
50.86000 1.501
50.88000 3.852
50.90000 4.925
50.92000 3.634
50.94000 4.967
50.96000 3.521
50.98000 8.788
51.00000 4.948
51.02000 3.461
51.04000 8.521
51.06000 7.892
51.08000 3.540
51.10000 2.408
51.12000 10.443
51.14000 8.067
51.16000 4.102
51.18000 6.861
51.20000 5.993
51.22000 6.972
51.24000 4.522
51.26000 5.728
51.28000 11.797
51.30000 12.396
51.32000 9.584
51.34000 2.888
51.36000 4.520
51.38000 6.891
51.40000 9.017
51.42000 11.366
51.44000 7.951
51.46000 7.580
51.48000 5.806
51.50000 8.956
51.52000 12.682
51.54000 9.114
51.56000 5.113
51.58000 -2.788
51.60000 1.805
51.62000 9.891
51.64000 9.345
51.66000 4.833
51.68000 5.622
51.70000 3.580
51.72000 4.454
51.74000 6.117
51.76000 11.592
51.78000 10.306
51.80000 5.386
51.82000 8.809
51.84000 5.948
51.86000 7.018
51.88000 5.776
51.90000 3.578
51.92000 4.612
51.94000 4.645
51.96000 2.285
51.98000 7.944
52.00000 6.657
52.02000 6.156
52.04000 3.430
52.06000 4.112
52.08000 8.263
52.10000 4.840
52.12000 4.649
52.14000 0.038
52.16000 1.670
52.18000 2.678
52.20000 1.407
52.22000 2.767
52.24000 2.338
52.26000 -0.286
52.28000 3.825
52.30000 2.452
52.32000 6.534
52.34000 4.952
52.36000 3.582
52.38000 2.066
52.40000 0.348
52.42000 -0.496
52.44000 1.045
52.46000 2.632
52.48000 5.555
52.50000 8.071
52.52000 2.817
52.54000 1.157
52.56000 4.440
52.58000 1.839
52.60000 4.170
52.62000 1.291
52.64000 10.458
52.66000 4.331
52.68000 1.759
52.70000 1.939
52.72000 5.483
52.74000 4.044
52.76000 5.777
52.78000 3.518
52.80000 6.262
52.82000 5.879
52.84000 7.576
52.86000 2.974
52.88000 4.442
52.90000 7.549
52.92000 7.294
52.94000 8.554
52.96000 7.896
52.98000 10.075
53.00000 14.468
53.02000 8.703
53.04000 7.911
53.06000 10.334
53.08000 0.751
53.10000 -2.785
53.12000 2.311
53.14000 2.886
53.16000 5.144
53.18000 2.180
53.20000 2.264
53.22000 2.551
53.24000 1.744
53.26000 2.198
53.28000 5.648
53.30000 0.190
53.32000 0.209
53.34000 1.408
53.36000 0.545
53.38000 -2.444
53.40000 -0.363
53.42000 0.565
53.44000 2.843
53.46000 -0.637
53.48000 -1.560
53.50000 2.533
53.52000 5.572
53.54000 2.395
53.56000 2.666
53.58000 4.405
53.60000 6.854
53.62000 0.782
53.64000 2.497
53.66000 2.508
53.68000 1.936
53.70000 2.781
53.72000 1.675
53.74000 0.624
53.76000 5.591
53.78000 7.514
53.80000 5.260
53.82000 5.238
53.84000 2.882
53.86000 -0.911
53.88000 -0.786
53.90000 -0.975
53.92000 0.707
53.94000 3.829
53.96000 -2.151
53.98000 -2.799
54.00000 -0.884
54.02000 2.969
54.04000 4.852
54.06000 1.884
54.08000 3.325
54.10000 1.853
54.12000 1.812
54.14000 0.926
54.16000 2.997
54.18000 6.176
54.20000 6.572
54.22000 4.270
54.24000 1.035
54.26000 4.546
54.28000 1.328
54.30000 -1.641
54.32000 -2.144
54.34000 -0.505
54.36000 0.319
54.38000 -1.543
54.40000 1.344
54.42000 2.341
54.44000 2.109
54.46000 1.876
54.48000 4.210
54.50000 4.002
54.52000 0.010
54.54000 0.746
54.56000 5.009
54.58000 4.820
54.60000 4.532
54.62000 2.612
54.64000 4.376
54.66000 2.490
54.68000 -1.633
54.70000 -2.777
54.72000 -1.053
54.74000 0.083
54.76000 2.830
54.78000 5.377
54.80000 2.944
54.82000 3.865
54.84000 3.276
54.86000 3.539
54.88000 2.192
54.90000 -1.128
54.92000 -0.805
54.94000 -0.409
54.96000 -0.672
54.98000 1.739
55.00000 -0.752
55.02000 -0.748
55.04000 -2.761
55.06000 2.383
55.08000 5.401
55.10000 4.980
55.12000 3.640
55.14000 4.926
55.16000 1.862
55.18000 6.088
55.20000 6.139
55.22000 3.099
55.24000 4.014
55.26000 4.994
55.28000 5.400
55.30000 0.670
55.32000 4.308
55.34000 2.666
55.36000 0.722
55.38000 0.812
55.40000 4.806
55.42000 3.419
55.44000 -0.455
55.46000 -0.684
55.48000 -0.057
55.50000 -0.707
55.52000 5.916
55.54000 1.587
55.56000 2.900
55.58000 6.926
55.60000 8.333
55.62000 6.468
55.64000 3.025
55.66000 3.787
55.68000 1.630
55.70000 2.816
55.72000 2.659
55.74000 4.333
55.76000 8.626
55.78000 7.648
55.80000 4.614
55.82000 4.406
55.84000 6.594
55.86000 5.302
55.88000 2.940
55.90000 -2.696
55.92000 -0.775
55.94000 3.378
55.96000 1.820
55.98000 4.800
56.00000 6.926
56.02000 9.325
56.04000 3.379
56.06000 0.290
56.08000 1.600
56.10000 2.975
56.12000 -0.899
56.14000 0.998
56.16000 2.832
56.18000 8.736
56.20000 7.488
56.22000 5.211
56.24000 7.441
56.26000 3.372
56.28000 4.904
56.30000 7.565
56.32000 4.972
56.34000 6.159
56.36000 1.063
56.38000 -0.511
56.40000 1.322
56.42000 -1.376
56.44000 -2.069
56.46000 8.249
56.48000 4.575
56.50000 7.073
56.52000 4.070
56.54000 2.566
56.56000 8.075
56.58000 6.347
56.60000 5.980
56.62000 5.914
56.64000 3.499
56.66000 5.671
56.68000 6.189
56.70000 2.103
56.72000 0.170
56.74000 3.010
56.76000 4.927
56.78000 2.394
56.80000 0.405
56.82000 2.625
56.84000 1.908
56.86000 4.742
56.88000 3.062
56.90000 7.607
56.92000 6.868
56.94000 1.020
56.96000 3.046
56.98000 3.779
57.00000 2.865
57.02000 3.520
57.04000 7.757
57.06000 4.432
57.08000 0.986
57.10000 -0.982
57.12000 -2.657
57.14000 0.592
57.16000 6.048
57.18000 2.566
57.20000 1.970
57.22000 2.114
57.24000 4.576
57.26000 2.685
57.28000 0.007
57.30000 -0.473
57.32000 3.715
57.34000 3.435
57.36000 -2.489
57.38000 -2.303
57.40000 2.702
57.42000 5.496
57.44000 1.092
57.46000 -0.263
57.48000 1.644
57.50000 5.088
57.52000 3.210
57.54000 5.363
57.56000 2.387
57.58000 3.543
57.60000 1.088
57.62000 1.009
57.64000 4.657
57.66000 5.462
57.68000 1.814
57.70000 3.880
57.72000 2.430
57.74000 1.050
57.76000 3.724
57.78000 0.175
57.80000 -1.763
57.82000 -2.656
57.84000 1.787
57.86000 0.046
57.88000 2.139
57.90000 5.206
57.92000 5.858
57.94000 6.272
57.96000 4.864
57.98000 4.654
58.00000 4.786
58.02000 7.436
58.04000 0.275
58.06000 -0.264
58.08000 2.985
58.10000 3.302
58.12000 5.995
58.14000 2.281
58.16000 0.938
58.18000 -0.308
58.20000 2.211
58.22000 5.014
58.24000 3.544
58.26000 -0.482
58.28000 -2.427
58.30000 -2.649
58.32000 -1.785
58.34000 0.203
58.36000 0.524
58.38000 -0.688
58.40000 1.444
58.42000 3.373
58.44000 -0.299
58.46000 2.903
58.48000 5.134
58.50000 5.939
58.52000 9.390
58.54000 7.445
58.56000 2.078
58.58000 3.328
58.60000 -2.536
58.62000 0.047
58.64000 3.046
58.66000 1.647
58.68000 0.040
58.70000 2.185
58.72000 3.154
58.74000 -0.756
58.76000 3.179
58.78000 3.840
58.80000 2.053
58.82000 -2.071
58.84000 1.377
58.86000 6.768
58.88000 6.531
58.90000 3.485
58.92000 -0.617
58.94000 -2.636
58.96000 -2.290
58.98000 -0.221
59.00000 3.711
59.02000 1.565
59.04000 5.237
59.06000 5.613
59.08000 6.855
59.10000 2.750
59.12000 1.107
59.14000 3.332
59.16000 4.441
59.18000 -0.172
59.20000 -1.733
59.22000 3.881
59.24000 1.444
59.26000 1.595
59.28000 0.082
59.30000 -0.212
59.32000 3.173
59.34000 1.505
59.36000 -0.744
59.38000 4.255
59.40000 0.175
59.42000 1.751
59.44000 -0.999
59.46000 0.157
59.48000 2.804
59.50000 2.306
59.52000 -2.141
59.54000 -2.610
59.56000 -1.649
59.58000 -1.346
59.60000 5.341
59.62000 3.769
59.64000 -0.083
59.66000 2.630
59.68000 4.124
59.70000 0.915
59.72000 -2.260
59.74000 3.642
59.76000 3.219
59.78000 3.680
59.80000 3.388
59.82000 1.257
59.84000 0.671
59.86000 0.761
59.88000 0.648
59.90000 3.065
59.92000 3.095
59.94000 3.172
59.96000 2.326
59.98000 -0.106
60.00000 -2.606
60.02000 -1.052
60.04000 2.900
60.06000 5.877
60.08000 1.889
60.10000 0.706
60.12000 3.882
60.14000 4.359
60.16000 4.055
60.18000 4.033
60.20000 3.124
60.22000 6.542
60.24000 6.042
60.26000 3.010
60.28000 -2.114
60.30000 0.573
60.32000 3.218
60.34000 1.707
60.36000 0.122
60.38000 2.710
60.40000 2.482
60.42000 3.408
60.44000 0.398
60.46000 -1.851
60.48000 -0.479
60.50000 2.058
60.52000 2.378
60.54000 -2.268
60.56000 -1.133
60.58000 6.789
60.60000 4.706
60.62000 -0.096
60.64000 1.932
60.66000 3.156
60.68000 1.933
60.70000 4.653
60.72000 1.566
60.74000 1.303
60.76000 0.638
60.78000 -0.698
60.80000 -2.207
60.82000 3.747
60.84000 1.302
60.86000 4.236
60.88000 0.480
60.90000 -1.868
60.92000 -1.183
60.94000 1.470
60.96000 3.114
60.98000 2.873
61.00000 1.154
61.02000 4.041
61.04000 1.893
61.06000 2.807
61.08000 2.766
61.10000 -0.755
61.12000 1.576
61.14000 4.120
61.16000 4.225
61.18000 -0.704
61.20000 -2.051
61.22000 -0.752
61.24000 -0.770
61.26000 1.179
61.28000 2.230
61.30000 0.277
61.32000 -2.519
61.34000 1.739
61.36000 2.404
61.38000 5.727
61.40000 0.110
61.42000 -0.999
61.44000 1.637
61.46000 1.258
61.48000 1.831
61.50000 1.259
61.52000 8.913
61.54000 6.159
61.56000 3.167
61.58000 2.801
61.60000 3.445
61.62000 6.834
61.64000 5.557
61.66000 3.173
61.68000 2.831
61.70000 0.202
61.72000 -1.614
61.74000 -0.723
61.76000 3.364
61.78000 3.584
61.80000 3.277
61.82000 4.394
61.84000 4.086
61.86000 3.500
61.88000 3.347
61.90000 3.963
61.92000 2.204
61.94000 2.355
61.96000 1.848
61.98000 -1.245
62.00000 0.428
62.02000 0.796
62.04000 -0.307
62.06000 -0.397
62.08000 2.358
62.10000 2.034
62.12000 5.757
62.14000 5.449
62.16000 3.186
62.18000 0.200
62.20000 -0.092
62.22000 0.258
62.24000 5.317
62.26000 3.877
62.28000 4.263
62.30000 5.570
62.32000 5.783
62.34000 5.774
62.36000 3.486
62.38000 4.356
62.40000 0.833
62.42000 -0.831
62.44000 3.713
62.46000 2.570
62.48000 2.209
62.50000 3.805
62.52000 3.104
62.54000 4.626
62.56000 5.245
62.58000 3.599
62.60000 4.467
62.62000 2.817
62.64000 2.161
62.66000 1.335
62.68000 5.017
62.70000 7.079
62.72000 5.094
62.74000 3.308
62.76000 2.459
62.78000 1.640
62.80000 0.808
62.82000 2.526
62.84000 1.959
62.86000 -1.487
62.88000 3.861
62.90000 6.681
62.92000 5.854
62.94000 1.846
62.96000 1.392
62.98000 -2.502
63.00000 0.646
63.02000 2.177
63.04000 1.966
63.06000 1.801
63.08000 1.202
63.10000 2.712
63.12000 0.683
63.14000 4.598
63.16000 1.293
63.18000 2.861
63.20000 5.299
63.22000 2.958
63.24000 0.709
63.26000 -0.449
63.28000 -0.300
63.30000 -2.134
63.32000 -0.370
63.34000 1.565
63.36000 1.279
63.38000 3.057
63.40000 0.587
63.42000 -0.430
63.44000 1.599
63.46000 1.950
63.48000 3.925
63.50000 6.572
63.52000 4.921
63.54000 3.536
63.56000 3.133
63.58000 0.720
63.60000 3.449
63.62000 4.463
63.64000 5.323
63.66000 1.769
63.68000 1.125
63.70000 0.493
63.72000 0.248
63.74000 0.037
63.76000 2.544
63.78000 1.885
63.80000 -0.403
63.82000 0.847
63.84000 1.225
63.86000 3.058
63.88000 4.609
63.90000 0.770
63.92000 0.209
63.94000 2.509
63.96000 1.714
63.98000 0.995
64.00000 -0.067
64.02000 0.095
64.04000 4.966
64.06000 2.389
64.08000 0.279
64.10000 -2.519
64.12000 1.481
64.14000 3.241
64.16000 1.646
64.18000 1.677
64.20000 1.819
64.22000 1.350
64.24000 0.008
64.26000 0.873
64.28000 3.119
64.30000 2.643
64.32000 2.276
64.34000 0.944
64.36000 1.943
64.38000 1.499
64.40000 1.313
64.42000 -0.601
64.44000 2.307
64.46000 3.205
64.48000 1.713
64.50000 1.810
64.52000 3.492
64.54000 1.925
64.56000 0.134
64.58000 1.960
64.60000 5.119
64.62000 2.845
64.64000 2.575
64.66000 -2.515
64.68000 2.699
64.70000 5.968
64.72000 4.087
64.74000 1.918
64.76000 2.924
64.78000 0.854
64.80000 1.926
64.82000 0.650
64.84000 1.051
64.86000 2.137
64.88000 3.048
64.90000 3.468
64.92000 1.565
64.94000 2.664
64.96000 1.836
64.98000 2.461
65.00000 0.950
65.02000 3.871
65.04000 2.500
65.06000 2.600
65.08000 2.692
65.10000 2.424
65.12000 2.063
65.14000 -0.291
65.16000 -2.521
65.18000 0.057
65.20000 -0.792
65.22000 0.224
65.24000 1.054
65.26000 1.679
65.28000 2.310
65.30000 2.479
65.32000 5.204
65.34000 2.700
65.36000 2.977
65.38000 4.576
65.40000 1.311
65.42000 3.917
65.44000 4.797
65.46000 4.167
65.48000 4.860
65.50000 4.140
65.52000 3.147
65.54000 4.471
65.56000 1.363
65.58000 0.503
65.60000 -0.560
65.62000 0.813
65.64000 -2.177
65.66000 3.885
65.68000 5.963
65.70000 6.266
65.72000 0.340
65.74000 2.951
65.76000 2.847
65.78000 1.258
65.80000 0.666
65.82000 1.759
65.84000 2.678
65.86000 3.232
65.88000 2.709
65.90000 3.955
65.92000 3.796
65.94000 0.855
65.96000 0.490
65.98000 1.010
66.00000 3.012
66.02000 2.228
66.04000 1.738
66.06000 1.365
66.08000 3.401
66.10000 2.984
66.12000 -0.598
66.14000 1.573
66.16000 1.836
66.18000 -2.523
66.20000 3.992
66.22000 3.060
66.24000 0.780
66.26000 0.328
66.28000 -0.528
66.30000 -0.371
66.32000 3.215
66.34000 5.884
66.36000 4.191
66.38000 5.010
66.40000 3.384
66.42000 0.668
66.44000 2.796
66.46000 2.422
66.48000 -0.424
66.50000 0.935
66.52000 2.283
66.54000 3.889
66.56000 0.353
66.58000 2.782
66.60000 2.337
66.62000 1.285
66.64000 0.533
66.66000 1.561
66.68000 -0.248
66.70000 0.926
66.72000 2.157
66.74000 5.302
66.76000 1.137
66.78000 0.807
66.80000 3.696
66.82000 0.932
66.84000 -1.884
66.86000 0.213
66.88000 2.756
66.90000 0.237
66.92000 -1.170
66.94000 1.463
66.96000 -0.391
66.98000 -1.638
67.00000 0.490
67.02000 2.125
67.04000 1.191
67.06000 1.707
67.08000 2.558
67.10000 -0.909
67.12000 1.186
67.14000 1.427
67.16000 0.956
67.18000 2.213
67.20000 -2.598
67.22000 1.454
67.24000 -0.391
67.26000 0.267
67.28000 2.226
67.30000 1.391
67.32000 -0.114
67.34000 0.330
67.36000 4.845
67.38000 6.871
67.40000 2.286
67.42000 -0.748
67.44000 0.387
67.46000 1.657
67.48000 2.053
67.50000 0.161
67.52000 -1.117
67.54000 0.110
67.56000 -0.577
67.58000 -1.174
67.60000 2.478
67.62000 1.531
67.64000 1.953
67.66000 5.838
67.68000 3.703
67.70000 1.490
67.72000 2.831
67.74000 5.347
67.76000 3.460
67.78000 2.556
67.80000 0.086
67.82000 0.216
67.84000 0.264
67.86000 -2.634
67.88000 -0.231
67.90000 5.484
67.92000 4.932
67.94000 8.476
67.96000 6.091
67.98000 2.185
68.00000 2.175
68.02000 2.767
68.04000 4.548
68.06000 3.645
68.08000 5.382
68.10000 9.218
68.12000 11.864
68.14000 7.301
68.16000 6.473
68.18000 8.010
68.20000 8.652
68.22000 6.052
68.24000 9.541
68.26000 14.883
68.28000 10.806
68.30000 11.722
68.32000 13.443
68.34000 11.939
68.36000 12.077
68.38000 12.292
68.40000 11.346
68.42000 7.063
68.44000 11.607
68.46000 10.503
68.48000 11.055
68.50000 18.625
68.52000 13.731
68.54000 13.627
68.56000 15.291
68.58000 15.791
68.60000 15.764
68.62000 19.357
68.64000 18.167
68.66000 15.235
68.68000 17.194
68.70000 18.871
68.72000 21.381
68.74000 18.640
68.76000 17.743
68.78000 20.494
68.80000 22.007
68.82000 23.179
68.84000 24.031
68.86000 21.248
68.88000 18.219
68.90000 20.016
68.92000 21.081
68.94000 22.038
68.96000 20.646
68.98000 24.849
69.00000 21.813
69.02000 23.240
69.04000 20.420
69.06000 21.097
69.08000 21.529
69.10000 16.677
69.12000 17.626
69.14000 24.454
69.16000 22.593
69.18000 22.647
69.20000 22.377
69.22000 25.759
69.24000 25.785
69.26000 20.761
69.28000 18.486
69.30000 19.274
69.32000 18.733
69.34000 18.099
69.36000 17.992
69.38000 18.052
69.40000 17.700
69.42000 17.180
69.44000 14.637
69.46000 16.676
69.48000 15.409
69.50000 14.321
69.52000 13.840
69.54000 13.690
69.56000 18.669
69.58000 14.567
69.60000 11.850
69.62000 11.734
69.64000 13.150
69.66000 12.482
69.68000 14.027
69.70000 9.221
69.72000 9.235
69.74000 10.127
69.76000 12.510
69.78000 11.030
69.80000 8.491
69.82000 9.390
69.84000 6.144
69.86000 5.560
69.88000 7.913
69.90000 3.849
69.92000 4.871
69.94000 5.632
69.96000 9.538
69.98000 8.024
70.00000 4.388
70.02000 2.690
70.04000 5.517
70.06000 6.681
70.08000 7.341
70.10000 6.992
70.12000 0.915
70.14000 -1.055
70.16000 1.531
70.18000 6.722
70.20000 8.987
70.22000 3.109
70.24000 1.642
70.26000 3.801
70.28000 2.663
70.30000 3.882
70.32000 5.576
70.34000 5.318
70.36000 1.622
70.38000 -2.381
70.40000 -1.732
70.42000 -2.516
70.44000 -0.373
70.46000 -0.503
70.48000 1.791
70.50000 1.251
70.52000 4.841
70.54000 4.218
70.56000 4.204
70.58000 5.095
70.60000 7.888
70.62000 8.174
70.64000 2.491
70.66000 -0.229
70.68000 2.714
70.70000 1.845
70.72000 0.477
70.74000 2.912
70.76000 3.352
70.78000 -0.684
70.80000 0.979
70.82000 3.629
70.84000 3.435
70.86000 5.121
70.88000 0.397
70.90000 -0.531
70.92000 -0.588
70.94000 1.802
70.96000 3.514
70.98000 5.260
71.00000 0.599
71.02000 3.159
71.04000 -1.769
71.06000 -0.708
71.08000 -1.543
71.10000 1.563
71.12000 2.188
71.14000 3.228
71.16000 4.080
71.18000 -2.434
71.20000 -0.706
71.22000 2.283
71.24000 4.097
71.26000 3.401
71.28000 3.248
71.30000 2.788
71.32000 2.401
71.34000 -0.521
71.36000 0.768
71.38000 1.688
71.40000 3.132
71.42000 1.230
71.44000 3.653
71.46000 5.339
71.48000 -0.905
71.50000 0.778
71.52000 6.646
71.54000 6.274
71.56000 4.259
71.58000 5.185
71.60000 3.927
71.62000 1.866
71.64000 1.273
71.66000 -0.497
71.68000 5.621
71.70000 6.203
71.72000 -0.170
71.74000 0.146
71.76000 -0.103
71.78000 -2.302
71.80000 -1.760
71.82000 2.448
71.84000 0.687
71.86000 -2.399
71.88000 2.838
71.90000 2.964
71.92000 3.493
71.94000 2.817
71.96000 -1.419
71.98000 3.899
72.00000 3.966
72.02000 1.508
72.04000 3.962
72.06000 8.681
72.08000 3.596
72.10000 -1.025
72.12000 1.714
72.14000 3.583
72.16000 3.100
72.18000 3.786
72.20000 4.745
72.22000 1.054
72.24000 3.983
72.26000 4.459
72.28000 4.952
72.30000 2.221
72.32000 -0.307
72.34000 5.120
72.36000 4.100
72.38000 -0.603
72.40000 1.204
72.42000 3.950
72.44000 0.474
72.46000 2.414
72.48000 4.347
72.50000 2.941
72.52000 1.341
72.54000 3.707
72.56000 4.331
72.58000 -0.771
72.60000 0.189
72.62000 4.859
72.64000 2.410
72.66000 3.730
72.68000 1.410
72.70000 6.126
72.72000 7.910
72.74000 3.986
72.76000 0.072
72.78000 0.415
72.80000 7.541
72.82000 4.266
72.84000 5.464
72.86000 5.171
72.88000 4.704
72.90000 5.510
72.92000 5.181
72.94000 4.369
72.96000 -2.321
72.98000 0.906
73.00000 -1.021
73.02000 2.524
73.04000 5.916
73.06000 5.684
73.08000 4.053
73.10000 2.873
73.12000 3.888
73.14000 3.427
73.16000 0.456
73.18000 2.995
73.20000 4.241
73.22000 3.154
73.24000 1.829
73.26000 1.711
73.28000 7.571
73.30000 6.729
73.32000 4.505
73.34000 2.592
73.36000 5.967
73.38000 7.747
73.40000 1.796
73.42000 2.884
73.44000 7.905
73.46000 3.902
73.48000 3.659
73.50000 3.934
73.52000 3.398
73.54000 2.185
73.56000 2.307
73.58000 2.882
73.60000 1.856
73.62000 3.914
73.64000 5.208
73.66000 4.475
73.68000 9.417
73.70000 8.232
73.72000 4.900
73.74000 2.976
73.76000 6.375
73.78000 1.465
73.80000 4.307
73.82000 6.938
73.84000 7.234
73.86000 7.572
73.88000 3.759
73.90000 8.549
73.92000 6.911
73.94000 5.148
73.96000 5.111
73.98000 8.357
74.00000 9.025
74.02000 6.461
74.04000 5.988
74.06000 7.359
74.08000 10.691
74.10000 10.069
74.12000 8.496
74.14000 8.548
74.16000 11.151
74.18000 5.941
74.20000 3.658
74.22000 2.859
74.24000 5.157
74.26000 8.077
74.28000 8.071
74.30000 3.804
74.32000 1.339
74.34000 -0.731
74.36000 -2.240
74.38000 1.658
74.40000 7.320
74.42000 9.666
74.44000 10.756
74.46000 10.753
74.48000 10.919
74.50000 5.613
74.52000 3.084
74.54000 1.701
74.56000 3.793
74.58000 2.575
74.60000 2.927
74.62000 3.015
74.64000 8.038
74.66000 7.043
74.68000 5.330
74.70000 0.734
74.72000 5.477
74.74000 3.758
74.76000 4.100
74.78000 0.581
74.80000 2.131
74.82000 7.619
74.84000 7.207
74.86000 2.838
74.88000 1.939
74.90000 3.312
74.92000 4.830
74.94000 4.644
74.96000 3.948
74.98000 4.332
75.00000 7.070
75.02000 7.115
75.04000 3.118
75.06000 1.234
75.08000 4.006
75.10000 7.353
75.12000 7.685
75.14000 6.704
75.16000 2.396
75.18000 -1.429
75.20000 2.718
75.22000 3.197
75.24000 4.040
75.26000 4.846
75.28000 9.875
75.30000 8.206
75.32000 4.188
75.34000 4.657
75.36000 6.258
75.38000 8.274
75.40000 5.461
75.42000 -0.917
75.44000 2.564
75.46000 3.840
75.48000 5.977
75.50000 6.325
75.52000 4.217
75.54000 3.168
75.56000 3.000
75.58000 7.882
75.60000 8.877
75.62000 7.241
75.64000 5.151
75.66000 6.538
75.68000 3.915
75.70000 5.101
75.72000 3.439
75.74000 0.253
75.76000 2.457
75.78000 5.696
75.80000 0.342
75.82000 -2.264
75.84000 1.300
75.86000 4.730
75.88000 -0.046
75.90000 2.771
75.92000 10.211
75.94000 3.365
75.96000 5.456
75.98000 3.774
76.00000 4.312
76.02000 7.512
76.04000 6.745
76.06000 5.750
76.08000 3.390
76.10000 4.212
76.12000 4.885
76.14000 5.937
76.16000 4.732
76.18000 9.600
76.20000 2.068
76.22000 1.707
76.24000 4.943
76.26000 4.541
76.28000 4.892
76.30000 4.835
76.32000 5.481
76.34000 1.506
76.36000 6.217
76.38000 6.471
76.40000 6.428
76.42000 5.913
76.44000 5.543
76.46000 5.430
76.48000 2.610
76.50000 0.973
76.52000 4.307
76.54000 4.540
76.56000 1.579
76.58000 3.417
76.60000 8.167
76.62000 4.100
76.64000 1.286
76.66000 1.437
76.68000 4.334
76.70000 1.253
76.72000 3.240
76.74000 5.560
76.76000 2.268
76.78000 1.146
76.80000 1.657
76.82000 8.196
76.84000 6.582
76.86000 6.320
76.88000 3.966
76.90000 0.277
76.92000 4.501
76.94000 4.546
76.96000 4.634
76.98000 8.767
77.00000 9.068
77.02000 4.588
77.04000 6.000
77.06000 3.353
77.08000 0.688
77.10000 -2.358
77.12000 -0.191
77.14000 4.711
77.16000 3.910
77.18000 5.351
77.20000 5.138
77.22000 1.976
77.24000 4.941
77.26000 6.176
77.28000 3.165
77.30000 4.088
77.32000 1.105
77.34000 3.580
77.36000 5.244
77.38000 2.076
77.40000 -0.558
77.42000 5.024
77.44000 6.612
77.46000 6.254
77.48000 3.474
77.50000 0.303
77.52000 1.383
77.54000 3.400
77.56000 8.558
77.58000 4.558
77.60000 2.508
77.62000 0.252
77.64000 2.692
77.66000 5.509
77.68000 4.116
77.70000 1.166
77.72000 0.575
77.74000 -1.268
77.76000 0.435
77.78000 1.392
77.80000 1.713
77.82000 1.434
77.84000 -2.363
77.86000 -0.036
77.88000 0.372
77.90000 2.704
77.92000 5.097
77.94000 3.098
77.96000 3.039
77.98000 5.962
78.00000 3.445
78.02000 1.187
78.04000 -0.579
78.06000 -0.092
78.08000 1.709
78.10000 4.050
78.12000 3.826
78.14000 5.823
78.16000 5.560
78.18000 2.042
78.20000 0.966
78.22000 0.368
78.24000 -1.194
78.26000 2.953
78.28000 2.761
78.30000 2.246
78.32000 1.335
78.34000 1.821
78.36000 7.680
78.38000 7.182
78.40000 4.707
78.42000 0.400
78.44000 -2.362
78.46000 -1.178
78.48000 -0.255
78.50000 3.933
78.52000 5.854
78.54000 2.302
78.56000 0.519
78.58000 2.930
78.60000 4.864
78.62000 6.298
78.64000 7.051
78.66000 4.038
78.68000 6.981
78.70000 6.368
78.72000 0.158
78.74000 4.102
78.76000 0.148
78.78000 6.801
78.80000 11.037
78.82000 3.637
78.84000 -1.382
78.86000 2.192
78.88000 5.417
78.90000 4.610
78.92000 2.482
78.94000 5.232
78.96000 4.756
78.98000 2.866
79.00000 2.155
79.02000 4.656
79.04000 9.605
79.06000 5.553
79.08000 4.265
79.10000 5.723
79.12000 5.849
79.14000 5.023
79.16000 1.283
79.18000 3.069
79.20000 6.477
79.22000 4.272
79.24000 3.647
79.26000 2.586
79.28000 3.221
79.30000 6.154
79.32000 3.401
79.34000 2.524
79.36000 2.032
79.38000 4.118
79.40000 4.051
79.42000 1.337
79.44000 1.731
79.46000 2.361
79.48000 1.268
79.50000 1.473
79.52000 1.462
79.54000 -0.859
79.56000 2.084
79.58000 3.921
79.60000 3.718
79.62000 2.518
79.64000 1.102
79.66000 7.312
79.68000 9.255
79.70000 9.420
79.72000 8.831
79.74000 -1.101
79.76000 -2.367
79.78000 -1.520
79.80000 0.145
79.82000 0.350
79.84000 7.250
79.86000 4.080
79.88000 2.966
79.90000 3.593
79.92000 9.699
79.94000 12.531
79.96000 4.294
79.98000 2.806
80.00000 1.296
80.02000 -0.290
80.04000 1.469
80.06000 3.136
80.08000 1.868
80.10000 3.235
80.12000 5.712
80.14000 2.255
80.16000 3.226
80.18000 0.281
80.20000 1.703
80.22000 7.225
80.24000 3.547
80.26000 2.757
80.28000 4.025
80.30000 1.079
80.32000 -0.251
80.34000 2.569
80.36000 3.482
80.38000 -1.682
80.40000 -2.411
80.42000 -1.737
80.44000 0.386
80.46000 8.024
80.48000 6.578
80.50000 5.617
80.52000 7.426
80.54000 5.548
80.56000 0.488
80.58000 4.084
80.60000 4.265
80.62000 -0.307
80.64000 0.388
80.66000 -0.224
80.68000 3.219
80.70000 2.903
80.72000 8.815
80.74000 7.642
80.76000 7.507
80.78000 4.361
80.80000 0.134
80.82000 0.365
80.84000 1.621
80.86000 1.459
80.88000 -0.162
80.90000 4.318
80.92000 2.513
80.94000 -0.787
80.96000 1.084
80.98000 -0.600
81.00000 1.052
81.02000 -0.301
81.04000 4.729
81.06000 2.044
81.08000 -1.677
81.10000 2.594
81.12000 0.206
81.14000 0.718
81.16000 1.796
81.18000 -0.979
81.20000 -1.894
81.22000 -0.475
81.24000 -0.343
81.26000 1.317
81.28000 1.517
81.30000 1.749
81.32000 4.469
81.34000 -0.958
81.36000 -1.932
81.38000 1.884
81.40000 -0.040
81.42000 5.856
81.44000 2.295
81.46000 -2.525
81.48000 1.629
81.50000 2.710
81.52000 3.053
81.54000 2.809
81.56000 -1.252
81.58000 -0.891
81.60000 1.610
81.62000 -0.117
81.64000 2.000
81.66000 3.640
81.68000 2.943
81.70000 1.726
81.72000 -0.214
81.74000 1.363
81.76000 -0.461
81.78000 3.100
81.80000 0.339
81.82000 -2.384
81.84000 4.484
81.86000 0.239
81.88000 1.212
81.90000 0.983
81.92000 5.947
81.94000 4.408
81.96000 2.503
81.98000 5.269
82.00000 3.513
82.02000 5.936
82.04000 5.925
82.06000 2.205
82.08000 3.572
82.10000 5.949
82.12000 4.469
82.14000 4.791
82.16000 5.284
82.18000 5.636
82.20000 11.266
82.22000 8.096
82.24000 7.276
82.26000 7.583
82.28000 4.486
82.30000 2.214
82.32000 6.299
82.34000 9.176
82.36000 11.656
82.38000 10.971
82.40000 12.892
82.42000 9.647
82.44000 9.227
82.46000 10.916
82.48000 13.435
82.50000 11.638
82.52000 14.232
82.54000 17.226
82.56000 11.878
82.58000 13.836
82.60000 18.166
82.62000 18.157
82.64000 16.905
82.66000 17.208
82.68000 13.263
82.70000 12.286
82.72000 9.680
82.74000 17.023
82.76000 18.527
82.78000 17.117
82.80000 19.637
82.82000 14.997
82.84000 14.660
82.86000 15.918
82.88000 18.311
82.90000 16.959
82.92000 22.395
82.94000 22.371
82.96000 19.578
82.98000 24.151
83.00000 24.806
83.02000 23.897
83.04000 23.005
83.06000 24.972
83.08000 23.610
83.10000 22.998
83.12000 21.722
83.14000 25.452
83.16000 28.309
83.18000 25.322
83.20000 19.620
83.22000 22.988
83.24000 22.908
83.26000 23.780
83.28000 18.889
83.30000 18.762
83.32000 23.579
83.34000 24.415
83.36000 25.493
83.38000 28.159
83.40000 29.290
83.42000 29.001
83.44000 25.721
83.46000 18.842
83.48000 19.182
83.50000 19.010
83.52000 20.515
83.54000 25.870
83.56000 24.457
83.58000 25.201
83.60000 30.916
83.62000 28.620
83.64000 25.133
83.66000 20.087
83.68000 21.353
83.70000 18.101
83.72000 20.119
83.74000 16.534
83.76000 20.016
83.78000 18.261
83.80000 18.421
83.82000 19.143
83.84000 23.195
83.86000 21.123
83.88000 20.739
83.90000 18.493
83.92000 13.984
83.94000 16.268
83.96000 17.453
83.98000 17.288
84.00000 12.695
84.02000 8.162
84.04000 9.940
84.06000 14.446
84.08000 20.677
84.10000 16.396
84.12000 17.048
84.14000 17.076
84.16000 13.577
84.18000 14.630
84.20000 12.735
84.22000 10.573
84.24000 11.194
84.26000 10.651
84.28000 9.845
84.30000 8.103
84.32000 13.065
84.34000 12.454
84.36000 9.240
84.38000 7.630
84.40000 8.981
84.42000 7.964
84.44000 10.972
84.46000 12.166
84.48000 8.903
84.50000 4.609
84.52000 5.351
84.54000 6.530
84.56000 10.397
84.58000 8.491
84.60000 8.866
84.62000 7.181
84.64000 7.397
84.66000 7.963
84.68000 5.088
84.70000 6.725
84.72000 2.114
84.74000 9.506
84.76000 7.254
84.78000 3.931
84.80000 3.881
84.82000 3.464
84.84000 3.576
84.86000 3.745
84.88000 5.046
84.90000 4.706
84.92000 4.214
84.94000 2.934
84.96000 0.664
84.98000 -2.458
85.00000 0.723
85.02000 7.533
85.04000 7.526
85.06000 4.547
85.08000 6.297
85.10000 5.806
85.12000 6.123
85.14000 7.139
85.16000 3.346
85.18000 0.083
85.20000 5.867
85.22000 8.673
85.24000 2.221
85.26000 3.507
85.28000 4.546
85.30000 2.338
85.32000 1.681
85.34000 -0.893
85.36000 0.697
85.38000 -0.316
85.40000 5.344
85.42000 4.198
85.44000 4.178
85.46000 0.193
85.48000 -2.382
85.50000 -0.957
85.52000 0.158
85.54000 1.580
85.56000 5.052
85.58000 3.608
85.60000 3.513
85.62000 5.912
85.64000 6.778
85.66000 5.079
85.68000 4.635
85.70000 1.941
85.72000 3.843
85.74000 4.343
85.76000 7.193
85.78000 8.010
85.80000 5.340
85.82000 4.985
85.84000 5.631
85.86000 5.772
85.88000 2.793
85.90000 2.583
85.92000 4.653
85.94000 6.145
85.96000 5.690
85.98000 4.788
86.00000 1.835
86.02000 2.835
86.04000 6.537
86.06000 5.201
86.08000 -0.642
86.10000 -2.363
86.12000 3.886
86.14000 5.405
86.16000 3.603
86.18000 8.108
86.20000 5.075
86.22000 4.832
86.24000 0.492
86.26000 3.569
86.28000 5.505
86.30000 2.184
86.32000 3.755
86.34000 3.895
86.36000 1.908
86.38000 0.824
86.40000 8.931
86.42000 6.990
86.44000 5.668
86.46000 7.545
86.48000 6.086
86.50000 5.532
86.52000 1.598
86.54000 0.608
86.56000 1.814
86.58000 4.176
86.60000 5.271
86.62000 6.292
86.64000 5.091
86.66000 4.560
86.68000 5.216
86.70000 6.285
86.72000 7.522
86.74000 8.905
86.76000 7.843
86.78000 5.733
86.80000 8.486
86.82000 5.123
86.84000 5.919
86.86000 11.974
86.88000 10.406
86.90000 8.499
86.92000 9.071
86.94000 7.898
86.96000 8.952
86.98000 7.025
87.00000 9.590
87.02000 12.597
87.04000 5.934
87.06000 11.961
87.08000 16.146
87.10000 10.493
87.12000 11.594
87.14000 11.633
87.16000 8.816
87.18000 12.383
87.20000 12.239
87.22000 14.641
87.24000 19.584
87.26000 15.807
87.28000 8.376
87.30000 13.113
87.32000 17.003
87.34000 12.149
87.36000 14.065
87.38000 14.294
87.40000 16.393
87.42000 16.228
87.44000 19.623
87.46000 22.935
87.48000 17.656
87.50000 17.909
87.52000 19.098
87.54000 13.648
87.56000 17.241
87.58000 18.948
87.60000 24.656
87.62000 17.958
87.64000 20.249
87.66000 27.310
87.68000 28.122
87.70000 26.723
87.72000 20.141
87.74000 20.007
87.76000 18.227
87.78000 18.168
87.80000 23.276
87.82000 25.278
87.84000 25.578
87.86000 26.598
87.88000 23.766
87.90000 27.232
87.92000 19.268
87.94000 23.653
87.96000 25.849
87.98000 25.194
88.00000 26.312
88.02000 23.805
88.04000 28.244
88.06000 21.472
88.08000 18.606
88.10000 24.992
88.12000 26.166
88.14000 23.160
88.16000 15.978
88.18000 14.937
88.20000 16.660
88.22000 25.851
88.24000 22.825
88.26000 18.624
88.28000 14.768
88.30000 16.575
88.32000 20.401
88.34000 20.382
88.36000 20.129
88.38000 19.919
88.40000 17.216
88.42000 19.181
88.44000 16.399
88.46000 13.518
88.48000 14.080
88.50000 11.059
88.52000 12.143
88.54000 14.285
88.56000 15.029
88.58000 14.966
88.60000 10.848
88.62000 13.524
88.64000 12.154
88.66000 6.982
88.68000 10.151
88.70000 9.326
88.72000 9.795
88.74000 10.259
88.76000 11.377
88.78000 12.824
88.80000 10.667
88.82000 7.168
88.84000 11.934
88.86000 7.010
88.88000 7.889
88.90000 7.544
88.92000 11.862
88.94000 11.138
88.96000 8.032
88.98000 3.859
89.00000 6.786
89.02000 5.416
89.04000 7.287
89.06000 4.929
89.08000 8.453
89.10000 6.839
89.12000 9.032
89.14000 9.643
89.16000 2.864
89.18000 1.864
89.20000 2.329
89.22000 5.441
89.24000 1.056
89.26000 1.858
89.28000 3.651
89.30000 8.581
89.32000 10.512
89.34000 9.342
89.36000 4.208
89.38000 4.190
89.40000 8.780
89.42000 4.377
89.44000 3.063
89.46000 4.946
89.48000 8.416
89.50000 4.467
89.52000 3.474
89.54000 -0.374
89.56000 5.578
89.58000 4.858
89.60000 6.908
89.62000 4.162
89.64000 4.785
89.66000 8.556
89.68000 11.212
89.70000 8.251
89.72000 1.092
89.74000 -0.730
89.76000 1.397
89.78000 -2.236
89.80000 3.469
89.82000 0.649
89.84000 3.958
89.86000 3.844
89.88000 8.639
89.90000 5.202
89.92000 1.312
89.94000 -0.440
89.96000 1.062
89.98000 1.526
90.00000 4.081
90.02000 7.076
90.04000 5.417
90.06000 2.084
90.08000 -2.206
90.10000 -2.242
90.12000 0.552
90.14000 2.678
90.16000 2.416
90.18000 6.826
90.20000 3.278
90.22000 3.392
90.24000 4.187
90.26000 2.538
90.28000 0.965
90.30000 1.907
90.32000 5.952
90.34000 3.018
90.36000 0.719
90.38000 0.762
90.40000 -1.325
90.42000 -1.810
90.44000 1.067
90.46000 2.656
90.48000 1.935
90.50000 1.643
90.52000 0.768
90.54000 -0.206
90.56000 -1.606
90.58000 0.972
90.60000 1.734
90.62000 -0.102
90.64000 0.589
90.66000 6.810
90.68000 8.406
90.70000 -1.319
90.72000 0.232
90.74000 -2.255
90.76000 -0.316
90.78000 -0.098
90.80000 2.936
90.82000 0.288
90.84000 0.718
90.86000 2.483
90.88000 2.505
90.90000 1.724
90.92000 4.723
90.94000 2.508
90.96000 -0.418
90.98000 3.303
91.00000 -0.020
91.02000 -2.193
91.04000 -0.818
91.06000 0.315
91.08000 1.591
91.10000 1.511
91.12000 2.152
91.14000 -0.414
91.16000 -0.211
91.18000 -1.423
91.20000 -0.508
91.22000 2.448
91.24000 3.356
91.26000 6.141
91.28000 1.261
91.30000 -0.077
91.32000 6.024
91.34000 3.449
91.36000 1.174
91.38000 0.569
91.40000 0.775
91.42000 0.419
91.44000 6.893
91.46000 4.901
91.48000 1.260
91.50000 0.613
91.52000 2.200
91.54000 0.223
91.56000 5.278
91.58000 4.685
91.60000 5.970
91.62000 0.417
91.64000 1.952
91.66000 2.773
91.68000 3.867
91.70000 3.511
91.72000 -0.508
91.74000 3.061
91.76000 4.034
91.78000 1.300
91.80000 -2.226
91.82000 2.695
91.84000 6.298
91.86000 1.910
91.88000 2.650
91.90000 -0.209
91.92000 1.230
91.94000 1.871
91.96000 -1.168
91.98000 2.123
92.00000 1.738
92.02000 -2.218
92.04000 2.179
92.06000 8.240
92.08000 5.256
92.10000 3.484
92.12000 2.223
92.14000 3.665
92.16000 7.553
92.18000 10.339
92.20000 10.289
92.22000 3.268
92.24000 4.330
92.26000 1.342
92.28000 3.473
92.30000 6.104
92.32000 8.498
92.34000 1.224
92.36000 2.180
92.38000 11.208
92.40000 7.951
92.42000 2.986
92.44000 3.859
92.46000 12.066
92.48000 5.889
92.50000 7.241
92.52000 8.144
92.54000 5.140
92.56000 3.440
92.58000 5.507
92.60000 8.275
92.62000 6.852
92.64000 3.109
92.66000 10.157
92.68000 9.039
92.70000 1.654
92.72000 4.700
92.74000 6.977
92.76000 10.643
92.78000 6.651
92.80000 7.830
92.82000 7.235
92.84000 5.668
92.86000 2.774
92.88000 -2.150
92.90000 1.411
92.92000 8.207
92.94000 6.784
92.96000 5.132
92.98000 2.313
93.00000 1.533
93.02000 7.106
93.04000 1.744
93.06000 4.022
93.08000 6.813
93.10000 5.304
93.12000 8.048
93.14000 9.921
93.16000 6.378
93.18000 8.928
93.20000 7.594
93.22000 4.340
93.24000 2.004
93.26000 4.508
93.28000 1.707
93.30000 2.613
93.32000 5.243
93.34000 2.884
93.36000 -1.430
93.38000 3.690
93.40000 5.791
93.42000 6.177
93.44000 1.823
93.46000 -0.053
93.48000 5.443
93.50000 7.516
93.52000 1.767
93.54000 3.958
93.56000 4.427
93.58000 5.064
93.60000 2.495
93.62000 3.647
93.64000 0.556
93.66000 2.604
93.68000 6.324
93.70000 2.579
93.72000 -0.520
93.74000 3.243
93.76000 4.062
93.78000 4.580
93.80000 11.125
93.82000 9.649
93.84000 6.755
93.86000 10.747
93.88000 13.345
93.90000 4.978
93.92000 -2.229
93.94000 3.228
93.96000 5.326
93.98000 5.512
94.00000 6.389
94.02000 3.469
94.04000 2.072
94.06000 4.292
94.08000 4.335
94.10000 2.307
94.12000 4.590
94.14000 2.643
94.16000 0.671
94.18000 0.400
94.20000 4.713
94.22000 8.907
94.24000 7.394
94.26000 -1.230
94.28000 1.100
94.30000 4.612
94.32000 8.081
94.34000 5.240
94.36000 3.246
94.38000 2.584
94.40000 4.184
94.42000 4.852
94.44000 6.475
94.46000 4.890
94.48000 1.064
94.50000 0.784
94.52000 2.274
94.54000 2.279
94.56000 5.635
94.58000 4.387
94.60000 2.703
94.62000 11.758
94.64000 7.757
94.66000 0.782
94.68000 1.617
94.70000 4.427
94.72000 4.384
94.74000 5.450
94.76000 8.328
94.78000 4.714
94.80000 6.515
94.82000 8.462
94.84000 6.900
94.86000 5.387
94.88000 2.951
94.90000 7.513
94.92000 4.123
94.94000 -2.249
94.96000 0.150
94.98000 0.247
95.00000 0.306
95.02000 0.474
95.04000 3.031
95.06000 0.409
95.08000 4.780
95.10000 4.193
95.12000 0.246
95.14000 3.759
95.16000 2.155
95.18000 8.000
95.20000 8.363
95.22000 7.731
95.24000 7.660
95.26000 4.570
95.28000 8.258
95.30000 4.792
95.32000 5.143
95.34000 1.113
95.36000 -1.676
95.38000 2.397
95.40000 8.197
95.42000 9.443
95.44000 10.669
95.46000 1.816
95.48000 -2.248
95.50000 1.591
95.52000 1.384
95.54000 5.285
95.56000 -1.421
95.58000 0.473
95.60000 0.442
95.62000 1.974
95.64000 5.281
95.66000 4.510
95.68000 2.935
95.70000 2.717
95.72000 -0.256
95.74000 -1.398
95.76000 -1.862
95.78000 1.513
95.80000 4.043
95.82000 3.072
95.84000 4.348
95.86000 8.729
95.88000 6.230
95.90000 2.073
95.92000 3.390
95.94000 4.400
95.96000 7.640
95.98000 4.741
96.00000 5.638
96.02000 4.303
96.04000 9.974
96.06000 5.043
96.08000 7.787
96.10000 9.124
96.12000 6.048
96.14000 4.860
96.16000 5.056
96.18000 5.796
96.20000 8.819
96.22000 4.873
96.24000 9.054
96.26000 6.895
96.28000 0.501
96.30000 2.378
96.32000 3.250
96.34000 3.923
96.36000 3.310
96.38000 -1.800
96.40000 1.088
96.42000 1.704
96.44000 1.235
96.46000 5.356
96.48000 4.435
96.50000 6.052
96.52000 6.851
96.54000 1.717
96.56000 0.841
96.58000 3.965
96.60000 7.007
96.62000 2.274
96.64000 1.999
96.66000 0.871
96.68000 -2.020
96.70000 9.098
96.72000 2.816
96.74000 3.360
96.76000 8.075
96.78000 2.560
96.80000 2.149
96.82000 8.037
96.84000 5.634
96.86000 3.840
96.88000 8.171
96.90000 12.660
96.92000 1.496
96.94000 2.480
96.96000 4.147
96.98000 3.269
97.00000 -1.212
97.02000 2.232
97.04000 6.409
97.06000 6.435
97.08000 1.122
97.10000 6.396
97.12000 5.904
97.14000 0.634
97.16000 -0.404
97.18000 4.839
97.20000 4.735
97.22000 0.249
97.24000 6.222
97.26000 5.185
97.28000 5.907
97.30000 3.238
97.32000 6.638
97.34000 7.082
97.36000 4.845
97.38000 8.300
97.40000 8.182
97.42000 7.146
97.44000 3.469
97.46000 4.734
97.48000 0.843
97.50000 2.524
97.52000 11.817
97.54000 14.692
97.56000 7.371
97.58000 8.772
97.60000 7.833
97.62000 -0.162
97.64000 2.144
97.66000 3.991
97.68000 8.439
97.70000 6.443
97.72000 10.447
97.74000 8.692
97.76000 8.129
97.78000 7.154
97.80000 5.858
97.82000 5.663
97.84000 4.307
97.86000 5.446
97.88000 11.140
97.90000 12.518
97.92000 6.627
97.94000 7.492
97.96000 5.143
97.98000 5.362
98.00000 8.110
98.02000 7.625
98.04000 12.392
98.06000 7.297
98.08000 8.685
98.10000 5.699
98.12000 8.009
98.14000 7.895
98.16000 3.396
98.18000 -2.302
98.20000 7.207
98.22000 7.573
98.24000 11.485
98.26000 7.079
98.28000 7.124
98.30000 11.969
98.32000 10.001
98.34000 11.042
98.36000 12.273
98.38000 7.058
98.40000 6.595
98.42000 5.695
98.44000 5.009
98.46000 9.513
98.48000 13.166
98.50000 19.384
98.52000 11.027
98.54000 10.665
98.56000 10.654
98.58000 8.163
98.60000 6.074
98.62000 7.680
98.64000 11.340
98.66000 6.738
98.68000 2.082
98.70000 7.493
98.72000 14.337
98.74000 9.353
98.76000 11.912
98.78000 14.374
98.80000 2.822
98.82000 7.502
98.84000 11.552
98.86000 7.500
98.88000 14.996
98.90000 15.252
98.92000 2.331
98.94000 4.273
98.96000 10.501
98.98000 14.453
99.00000 5.207
99.02000 3.358
99.04000 8.927
99.06000 4.830
99.08000 4.120
99.10000 11.160
99.12000 7.903
99.14000 4.696
99.16000 7.324
99.18000 9.899
99.20000 9.265
99.22000 3.625
99.24000 -2.410
99.26000 7.353
99.28000 14.814
99.30000 11.238
99.32000 9.714
99.34000 14.906
99.36000 15.441
99.38000 4.103
99.40000 7.611
99.42000 14.425
99.44000 9.553
99.46000 8.192
99.48000 0.273
99.50000 -2.056
99.52000 7.567
99.54000 9.420
99.56000 12.294
99.58000 8.577
99.60000 13.723
99.62000 12.146
99.64000 4.181
99.66000 2.726
99.68000 0.375
99.70000 2.394
99.72000 6.795
99.74000 10.120
99.76000 -2.154
99.78000 -0.642
99.80000 11.939
99.82000 21.416
99.84000 13.070
99.86000 6.222
99.88000 0.130
99.90000 -2.261
99.92000 2.889
99.94000 1.722
99.96000 -2.364
99.98000 0.000
