'Id: "0011388" Comment: "Integrate frame 0011388_Au-Ir-Rh_Rh-rich_XRD-Mapping-215-0000.gfrmwith cursor Wedge Cursor #5" Operator: "B?rgel" Anode: "Cu" Wavelength: "1.5406" Scantype: "2Theta (TwoTheta)" TimePerStep: "1" X: "27" Y: "9" Z: "5.95" 
10.00000 0.000
10.02000 -3.664
10.04000 -2.267
10.06000 4.501
10.08000 -3.632
10.10000 11.835
10.12000 15.957
10.14000 -0.576
10.16000 6.901
10.18000 -0.154
10.20000 14.013
10.22000 1.008
10.24000 4.135
10.26000 4.197
10.28000 12.341
10.30000 11.037
10.32000 -0.077
10.34000 6.114
10.36000 -3.647
10.38000 4.293
10.40000 9.272
10.42000 9.838
10.44000 18.023
10.46000 -2.257
10.48000 2.992
10.50000 6.858
10.52000 16.211
10.54000 13.718
10.56000 -3.524
10.58000 6.174
10.60000 10.806
10.62000 4.186
10.64000 15.209
10.66000 20.376
10.68000 4.291
10.70000 11.039
10.72000 14.839
10.74000 17.806
10.76000 17.768
10.78000 29.241
10.80000 23.205
10.82000 15.366
10.84000 17.695
10.86000 16.705
10.88000 8.016
10.90000 10.172
10.92000 14.776
10.94000 18.704
10.96000 12.061
10.98000 14.422
11.00000 7.523
11.02000 13.366
11.04000 23.712
11.06000 17.251
11.08000 16.618
11.10000 23.781
11.12000 17.869
11.14000 17.853
11.16000 22.000
11.18000 17.933
11.20000 21.393
11.22000 26.913
11.24000 32.508
11.26000 17.318
11.28000 5.937
11.30000 14.793
11.32000 21.351
11.34000 16.057
11.36000 22.964
11.38000 23.042
11.40000 20.606
11.42000 20.731
11.44000 19.246
11.46000 9.340
11.48000 14.303
11.50000 15.632
11.52000 13.263
11.54000 26.130
11.56000 28.234
11.58000 29.040
11.60000 24.276
11.62000 15.784
11.64000 9.271
11.66000 12.965
11.68000 13.631
11.70000 15.588
11.72000 19.561
11.74000 20.799
11.76000 23.226
11.78000 28.478
11.80000 18.884
11.82000 22.221
11.84000 20.799
11.86000 10.490
11.88000 17.102
11.90000 24.776
11.92000 33.963
11.94000 27.754
11.96000 16.597
11.98000 21.493
12.00000 21.549
12.02000 18.872
12.04000 23.124
12.06000 30.562
12.08000 37.189
12.10000 23.921
12.12000 20.186
12.14000 31.612
12.16000 37.875
12.18000 32.310
12.20000 20.174
12.22000 21.704
12.24000 17.358
12.26000 22.361
12.28000 25.479
12.30000 32.898
12.32000 35.824
12.34000 26.363
12.36000 24.017
12.38000 32.545
12.40000 26.317
12.42000 26.569
12.44000 28.914
12.46000 31.252
12.48000 30.782
12.50000 40.283
12.52000 39.502
12.54000 28.234
12.56000 25.654
12.58000 31.464
12.60000 22.321
12.62000 26.144
12.64000 31.315
12.66000 26.246
12.68000 21.544
12.70000 22.273
12.72000 28.594
12.74000 25.122
12.76000 21.346
12.78000 27.640
12.80000 31.209
12.82000 31.255
12.84000 37.105
12.86000 20.862
12.88000 24.571
12.90000 23.763
12.92000 26.011
12.94000 35.026
12.96000 34.805
12.98000 39.238
13.00000 35.363
13.02000 30.849
13.04000 26.355
13.06000 24.036
13.08000 23.023
13.10000 28.597
13.12000 29.059
13.14000 33.846
13.16000 29.327
13.18000 28.532
13.20000 18.459
13.22000 37.488
13.24000 34.664
13.26000 26.084
13.28000 18.556
13.30000 24.815
13.32000 31.826
13.34000 31.567
13.36000 27.107
13.38000 28.207
13.40000 31.177
13.42000 27.840
13.44000 16.623
13.46000 24.433
13.48000 25.230
13.50000 28.127
13.52000 29.217
13.54000 25.640
13.56000 25.022
13.58000 26.029
13.60000 28.182
13.62000 26.451
13.64000 28.967
13.66000 29.586
13.68000 27.197
13.70000 28.473
13.72000 20.615
13.74000 19.668
13.76000 27.768
13.78000 30.589
13.80000 24.064
13.82000 17.042
13.84000 19.528
13.86000 28.489
13.88000 23.166
13.90000 16.784
13.92000 33.331
13.94000 23.361
13.96000 23.646
13.98000 27.104
14.00000 27.735
14.02000 28.772
14.04000 29.973
14.06000 26.741
14.08000 22.258
14.10000 18.510
14.12000 14.248
14.14000 21.869
14.16000 26.775
14.18000 27.989
14.20000 12.909
14.22000 20.341
14.24000 24.836
14.26000 24.447
14.28000 15.921
14.30000 12.223
14.32000 9.298
14.34000 16.824
14.36000 24.897
14.38000 18.324
14.40000 9.133
14.42000 16.263
14.44000 20.875
14.46000 18.851
14.48000 19.463
14.50000 24.655
14.52000 22.200
14.54000 24.109
14.56000 19.519
14.58000 14.724
14.60000 16.211
14.62000 23.660
14.64000 19.041
14.66000 20.544
14.68000 24.830
14.70000 19.799
14.72000 11.752
14.74000 9.080
14.76000 12.403
14.78000 12.103
14.80000 19.711
14.82000 22.506
14.84000 25.020
14.86000 22.432
14.88000 14.405
14.90000 17.456
14.92000 17.330
14.94000 13.911
14.96000 10.576
14.98000 14.245
15.00000 13.309
15.02000 8.428
15.04000 12.272
15.06000 13.042
15.08000 19.024
15.10000 6.801
15.12000 4.641
15.14000 9.738
15.16000 15.087
15.18000 12.275
15.20000 10.265
15.22000 9.456
15.24000 12.838
15.26000 9.070
15.28000 10.042
15.30000 14.667
15.32000 15.106
15.34000 10.094
15.36000 19.670
15.38000 22.273
15.40000 15.460
15.42000 12.746
15.44000 24.730
15.46000 18.002
15.48000 20.062
15.50000 15.048
15.52000 17.461
15.54000 13.280
15.56000 13.121
15.58000 9.157
15.60000 9.387
15.62000 4.354
15.64000 13.873
15.66000 8.770
15.68000 9.871
15.70000 13.227
15.72000 9.761
15.74000 9.318
15.76000 15.851
15.78000 12.166
15.80000 5.304
15.82000 9.868
15.84000 10.799
15.86000 10.841
15.88000 10.862
15.90000 0.025
15.92000 2.581
15.94000 4.566
15.96000 8.307
15.98000 14.112
16.00000 17.652
16.02000 8.844
16.04000 4.260
16.06000 10.419
16.08000 7.533
16.10000 7.489
16.12000 11.829
16.14000 17.404
16.16000 17.726
16.18000 7.921
16.20000 4.996
16.22000 6.804
16.24000 5.282
16.26000 3.456
16.28000 5.143
16.30000 6.351
16.32000 1.562
16.34000 2.549
16.36000 8.238
16.38000 9.382
16.40000 6.356
16.42000 0.639
16.44000 5.961
16.46000 4.111
16.48000 3.104
16.50000 2.013
16.52000 11.757
16.54000 8.804
16.56000 12.204
16.58000 12.817
16.60000 9.656
16.62000 8.415
16.64000 4.095
16.66000 9.021
16.68000 8.800
16.70000 9.035
16.72000 17.106
16.74000 12.016
16.76000 5.934
16.78000 6.585
16.80000 5.223
16.82000 -4.407
16.84000 0.216
16.86000 5.432
16.88000 8.335
16.90000 1.083
16.92000 2.216
16.94000 4.570
16.96000 2.232
16.98000 7.919
17.00000 9.162
17.02000 4.086
17.04000 -0.162
17.06000 4.777
17.08000 9.273
17.10000 2.689
17.12000 2.156
17.14000 5.594
17.16000 11.078
17.18000 3.449
17.20000 1.359
17.22000 3.383
17.24000 -1.516
17.26000 -2.844
17.28000 2.386
17.30000 5.915
17.32000 5.828
17.34000 5.637
17.36000 6.573
17.38000 7.243
17.40000 6.317
17.42000 5.103
17.44000 7.997
17.46000 11.824
17.48000 3.171
17.50000 -4.383
17.52000 2.156
17.54000 9.037
17.56000 7.479
17.58000 8.605
17.60000 2.518
17.62000 0.982
17.64000 0.456
17.66000 1.140
17.68000 3.135
17.70000 -2.082
17.72000 7.781
17.74000 11.025
17.76000 0.624
17.78000 4.333
17.80000 9.211
17.82000 6.797
17.84000 -3.787
17.86000 -2.781
17.88000 6.344
17.90000 12.149
17.92000 9.583
17.94000 4.898
17.96000 17.044
17.98000 12.647
18.00000 4.541
18.02000 1.356
18.04000 2.196
18.06000 1.378
18.08000 0.029
18.10000 0.227
18.12000 5.722
18.14000 5.516
18.16000 5.617
18.18000 1.945
18.20000 0.421
18.22000 -1.234
18.24000 0.279
18.26000 -1.487
18.28000 0.054
18.30000 3.511
18.32000 7.278
18.34000 3.893
18.36000 3.954
18.38000 4.223
18.40000 8.585
18.42000 9.515
18.44000 11.730
18.46000 7.409
18.48000 5.968
18.50000 2.130
18.52000 -0.366
18.54000 5.284
18.56000 6.229
18.58000 4.827
18.60000 9.194
18.62000 6.675
18.64000 8.800
18.66000 4.225
18.68000 0.395
18.70000 0.891
18.72000 1.130
18.74000 -0.189
18.76000 1.723
18.78000 3.178
18.80000 8.013
18.82000 9.201
18.84000 8.345
18.86000 5.148
18.88000 10.363
18.90000 8.973
18.92000 4.377
18.94000 7.005
18.96000 13.593
18.98000 10.949
19.00000 7.084
19.02000 7.779
19.04000 16.139
19.06000 8.758
19.08000 8.196
19.10000 3.179
19.12000 -2.608
19.14000 3.609
19.16000 9.944
19.18000 6.743
19.20000 9.788
19.22000 9.494
19.24000 10.005
19.26000 14.565
19.28000 17.878
19.30000 11.246
19.32000 16.314
19.34000 14.541
19.36000 11.059
19.38000 6.753
19.40000 8.043
19.42000 4.057
19.44000 6.975
19.46000 8.842
19.48000 8.786
19.50000 16.307
19.52000 14.836
19.54000 8.755
19.56000 7.598
19.58000 4.723
19.60000 -4.212
19.62000 4.847
19.64000 16.708
19.66000 13.500
19.68000 11.613
19.70000 5.688
19.72000 7.859
19.74000 13.755
19.76000 7.556
19.78000 2.469
19.80000 -4.198
19.82000 0.948
19.84000 12.640
19.86000 12.148
19.88000 6.575
19.90000 11.340
19.92000 10.003
19.94000 3.803
19.96000 10.146
19.98000 9.834
20.00000 14.345
20.02000 16.822
20.04000 12.729
20.06000 15.771
20.08000 12.121
20.10000 4.466
20.12000 8.696
20.14000 14.563
20.16000 16.990
20.18000 14.510
20.20000 10.504
20.22000 16.697
20.24000 10.738
20.26000 8.054
20.28000 8.554
20.30000 8.975
20.32000 5.884
20.34000 7.716
20.36000 9.872
20.38000 3.345
20.40000 8.549
20.42000 10.285
20.44000 14.235
20.46000 9.899
20.48000 6.820
20.50000 4.882
20.52000 9.461
20.54000 14.689
20.56000 14.418
20.58000 6.095
20.60000 -0.293
20.62000 3.784
20.64000 5.520
20.66000 7.640
20.68000 4.204
20.70000 6.689
20.72000 7.883
20.74000 5.306
20.76000 12.911
20.78000 12.918
20.80000 11.222
20.82000 3.336
20.84000 -1.637
20.86000 -4.162
20.88000 5.950
20.90000 16.474
20.92000 14.981
20.94000 14.444
20.96000 6.489
20.98000 6.510
21.00000 10.185
21.02000 13.487
21.04000 15.648
21.06000 7.766
21.08000 -2.897
21.10000 3.236
21.12000 7.303
21.14000 6.400
21.16000 7.686
21.18000 6.081
21.20000 8.209
21.22000 10.527
21.24000 1.209
21.26000 -1.020
21.28000 3.996
21.30000 5.821
21.32000 2.188
21.34000 3.170
21.36000 6.272
21.38000 5.625
21.40000 7.754
21.42000 7.863
21.44000 2.895
21.46000 -0.164
21.48000 0.335
21.50000 4.475
21.52000 3.810
21.54000 0.300
21.56000 0.698
21.58000 3.046
21.60000 4.059
21.62000 7.466
21.64000 1.602
21.66000 -0.224
21.68000 5.208
21.70000 2.437
21.72000 -0.155
21.74000 -1.366
21.76000 6.404
21.78000 11.358
21.80000 6.577
21.82000 2.524
21.84000 15.149
21.86000 5.423
21.88000 -3.681
21.90000 -0.549
21.92000 -0.131
21.94000 3.760
21.96000 6.453
21.98000 5.655
22.00000 -0.335
22.02000 -0.834
22.04000 -0.952
22.06000 9.349
22.08000 9.299
22.10000 3.171
22.12000 7.129
22.14000 7.465
22.16000 2.747
22.18000 3.563
22.20000 4.482
22.22000 9.110
22.24000 9.938
22.26000 6.119
22.28000 4.166
22.30000 4.953
22.32000 2.055
22.34000 1.851
22.36000 -0.590
22.38000 -4.125
22.40000 2.399
22.42000 4.311
22.44000 -1.473
22.46000 0.629
22.48000 1.628
22.50000 2.697
22.52000 5.853
22.54000 5.826
22.56000 2.358
22.58000 1.177
22.60000 2.523
22.62000 -0.452
22.64000 -4.112
22.66000 1.384
22.68000 5.715
22.70000 1.951
22.72000 0.870
22.74000 6.870
22.76000 0.245
22.78000 -0.637
22.80000 -3.155
22.82000 -1.102
22.84000 2.853
22.86000 8.130
22.88000 2.559
22.90000 0.436
22.92000 2.667
22.94000 4.815
22.96000 8.227
22.98000 0.627
23.00000 1.119
23.02000 -0.528
23.04000 -0.020
23.06000 -0.432
23.08000 6.760
23.10000 6.915
23.12000 1.707
23.14000 6.581
23.16000 2.774
23.18000 2.974
23.20000 5.519
23.22000 8.029
23.24000 13.056
23.26000 10.686
23.28000 10.898
23.30000 4.165
23.32000 2.833
23.34000 2.660
23.36000 5.663
23.38000 3.918
23.40000 -4.039
23.42000 -0.080
23.44000 7.123
23.46000 1.561
23.48000 -4.070
23.50000 3.814
23.52000 2.654
23.54000 1.260
23.56000 3.953
23.58000 3.651
23.60000 5.037
23.62000 4.252
23.64000 -2.253
23.66000 -0.211
23.68000 4.927
23.70000 7.736
23.72000 1.917
23.74000 -3.124
23.76000 -2.859
23.78000 1.034
23.80000 1.801
23.82000 2.900
23.84000 6.448
23.86000 7.732
23.88000 0.646
23.90000 0.257
23.92000 3.180
23.94000 0.268
23.96000 0.759
23.98000 5.096
24.00000 6.758
24.02000 8.978
24.04000 3.830
24.06000 5.195
24.08000 7.831
24.10000 8.903
24.12000 0.660
24.14000 4.410
24.16000 5.590
24.18000 -1.217
24.20000 2.220
24.22000 6.881
24.24000 -0.180
24.26000 7.932
24.28000 8.479
24.30000 4.424
24.32000 4.412
24.34000 5.655
24.36000 6.172
24.38000 4.193
24.40000 5.293
24.42000 10.170
24.44000 4.026
24.46000 -0.579
24.48000 -3.984
24.50000 -1.849
24.52000 4.742
24.54000 2.715
24.56000 -0.214
24.58000 -0.509
24.60000 -1.804
24.62000 4.238
24.64000 4.695
24.66000 1.023
24.68000 2.374
24.70000 4.296
24.72000 3.700
24.74000 3.774
24.76000 5.334
24.78000 3.141
24.80000 1.484
24.82000 1.568
24.84000 0.997
24.86000 4.645
24.88000 3.120
24.90000 3.788
24.92000 3.415
24.94000 6.352
24.96000 0.501
24.98000 -0.286
25.00000 -3.969
25.02000 -1.686
25.04000 9.155
25.06000 6.551
25.08000 0.922
25.10000 0.534
25.12000 0.135
25.14000 2.916
25.16000 2.505
25.18000 0.584
25.20000 0.460
25.22000 5.822
25.24000 7.526
25.26000 9.981
25.28000 5.751
25.30000 3.149
25.32000 1.821
25.34000 4.490
25.36000 0.735
25.38000 1.155
25.40000 3.049
25.42000 2.281
25.44000 3.542
25.46000 4.467
25.48000 6.387
25.50000 3.697
25.52000 7.054
25.54000 12.856
25.56000 8.984
25.58000 5.672
25.60000 3.804
25.62000 2.926
25.64000 -3.936
25.66000 -3.220
25.68000 4.520
25.70000 1.630
25.72000 0.150
25.74000 3.145
25.76000 1.194
25.78000 -0.151
25.80000 1.226
25.82000 6.795
25.84000 4.667
25.86000 1.276
25.88000 4.458
25.90000 10.250
25.92000 4.977
25.94000 7.290
25.96000 7.399
25.98000 0.863
26.00000 -2.187
26.02000 -1.356
26.04000 7.326
26.06000 9.231
26.08000 10.455
26.10000 12.531
26.12000 7.837
26.14000 1.646
26.16000 -2.733
26.18000 -3.898
26.20000 -0.149
26.22000 -1.121
26.24000 2.001
26.26000 1.075
26.28000 -1.876
26.30000 -0.566
26.32000 2.166
26.34000 3.205
26.36000 3.021
26.38000 3.589
26.40000 3.213
26.42000 -0.102
26.44000 -1.604
26.46000 0.799
26.48000 5.222
26.50000 10.893
26.52000 5.955
26.54000 4.442
26.56000 4.863
26.58000 -0.828
26.60000 -0.092
26.62000 0.691
26.64000 4.143
26.66000 3.920
26.68000 0.625
26.70000 -1.355
26.72000 0.462
26.74000 -1.374
26.76000 0.600
26.78000 -0.409
26.80000 0.649
26.82000 0.410
26.84000 1.967
26.86000 4.502
26.88000 4.423
26.90000 7.315
26.92000 5.139
26.94000 -1.979
26.96000 1.789
26.98000 0.526
27.00000 -3.686
27.02000 0.683
27.04000 6.570
27.06000 1.089
27.08000 1.403
27.10000 5.983
27.12000 5.062
27.14000 0.901
27.16000 0.171
27.18000 0.862
27.20000 3.788
27.22000 7.745
27.24000 7.673
27.26000 1.773
27.28000 1.491
27.30000 5.014
27.32000 9.257
27.34000 6.993
27.36000 1.138
27.38000 5.179
27.40000 4.001
27.42000 2.501
27.44000 -1.860
27.46000 1.071
27.48000 4.232
27.50000 5.854
27.52000 4.091
27.54000 5.416
27.56000 10.908
27.58000 9.536
27.60000 5.077
27.62000 4.026
27.64000 0.711
27.66000 0.598
27.68000 5.795
27.70000 1.293
27.72000 1.763
27.74000 7.030
27.76000 8.858
27.78000 7.079
27.80000 4.803
27.82000 -1.431
27.84000 -2.829
27.86000 0.060
27.88000 2.818
27.90000 -1.856
27.92000 -3.809
27.94000 -0.892
27.96000 -0.256
27.98000 5.674
28.00000 5.230
28.02000 5.704
28.04000 3.749
28.06000 3.461
28.08000 5.521
28.10000 4.819
28.12000 2.586
28.14000 3.330
28.16000 5.292
28.18000 9.275
28.20000 7.523
28.22000 2.216
28.24000 5.444
28.26000 5.340
28.28000 5.712
28.30000 2.656
28.32000 2.224
28.34000 3.784
28.36000 2.619
28.38000 5.918
28.40000 9.121
28.42000 0.481
28.44000 0.907
28.46000 2.505
28.48000 4.319
28.50000 1.315
28.52000 6.457
28.54000 6.176
28.56000 0.194
28.58000 1.499
28.60000 4.565
28.62000 1.491
28.64000 -1.110
28.66000 -2.631
28.68000 1.012
28.70000 6.358
28.72000 6.203
28.74000 10.264
28.76000 10.871
28.78000 9.449
28.80000 6.620
28.82000 6.287
28.84000 6.598
28.86000 0.148
28.88000 1.797
28.90000 2.944
28.92000 6.468
28.94000 3.903
28.96000 3.684
28.98000 3.871
29.00000 7.179
29.02000 6.722
29.04000 9.660
29.06000 3.039
29.08000 5.875
29.10000 5.678
29.12000 3.858
29.14000 5.975
29.16000 2.392
29.18000 5.677
29.20000 2.650
29.22000 1.936
29.24000 4.709
29.26000 5.354
29.28000 6.967
29.30000 4.335
29.32000 5.632
29.34000 10.527
29.36000 10.124
29.38000 4.632
29.40000 3.517
29.42000 -1.681
29.44000 1.971
29.46000 1.786
29.48000 3.906
29.50000 5.108
29.52000 4.542
29.54000 4.507
29.56000 8.069
29.58000 2.299
29.60000 -1.054
29.62000 0.284
29.64000 -3.686
29.66000 -0.641
29.68000 3.743
29.70000 6.188
29.72000 8.760
29.74000 5.928
29.76000 5.804
29.78000 8.325
29.80000 5.858
29.82000 5.688
29.84000 6.269
29.86000 7.943
29.88000 9.240
29.90000 8.653
29.92000 7.923
29.94000 1.234
29.96000 -2.163
29.98000 -0.263
30.00000 4.507
30.02000 9.139
30.04000 4.091
30.06000 -1.386
30.08000 3.782
30.10000 8.535
30.12000 3.822
30.14000 -0.567
30.16000 3.147
30.18000 5.461
30.20000 11.514
30.22000 8.559
30.24000 5.496
30.26000 5.610
30.28000 0.683
30.30000 -1.539
30.32000 -2.592
30.34000 2.021
30.36000 2.877
30.38000 -2.108
30.40000 1.837
30.42000 6.960
30.44000 1.749
30.46000 1.750
30.48000 -0.200
30.50000 -1.556
30.52000 3.104
30.54000 3.649
30.56000 3.843
30.58000 2.588
30.60000 5.354
30.62000 3.421
30.64000 2.765
30.66000 1.581
30.68000 -0.207
30.70000 -0.246
30.72000 -3.690
30.74000 -2.875
30.76000 4.108
30.78000 9.079
30.80000 7.515
30.82000 0.135
30.84000 -2.329
30.86000 0.922
30.88000 1.442
30.90000 4.195
30.92000 6.187
30.94000 3.048
30.96000 -2.072
30.98000 -2.594
31.00000 4.271
31.02000 1.188
31.04000 -2.829
31.06000 -1.586
31.08000 1.310
31.10000 -3.679
31.12000 -0.381
31.14000 3.249
31.16000 2.094
31.18000 1.316
31.20000 3.662
31.22000 0.102
31.24000 -3.478
31.26000 1.797
31.28000 6.928
31.30000 3.456
31.32000 4.347
31.34000 4.221
31.36000 1.805
31.38000 0.685
31.40000 2.190
31.42000 1.041
31.44000 -0.060
31.46000 0.872
31.48000 -1.556
31.50000 -2.234
31.52000 1.605
31.54000 -2.331
31.56000 4.392
31.58000 8.864
31.60000 5.431
31.62000 3.726
31.64000 0.358
31.66000 -1.539
31.68000 2.161
31.70000 4.134
31.72000 0.170
31.74000 -1.723
31.76000 3.245
31.78000 0.457
31.80000 -2.477
31.82000 -3.650
31.84000 2.718
31.86000 1.139
31.88000 -3.568
31.90000 4.572
31.92000 1.864
31.94000 1.124
31.96000 6.417
31.98000 3.103
32.00000 1.041
32.02000 2.570
32.04000 6.332
32.06000 4.622
32.08000 3.011
32.10000 3.820
32.12000 8.518
32.14000 8.025
32.16000 4.309
32.18000 2.980
32.20000 7.809
32.22000 4.652
32.24000 0.016
32.26000 -1.118
32.28000 -0.600
32.30000 -3.625
32.32000 -3.231
32.34000 -1.178
32.36000 2.962
32.38000 3.317
32.40000 4.405
32.42000 0.667
32.44000 -1.110
32.46000 4.469
32.48000 4.475
32.50000 2.694
32.52000 -2.134
32.54000 3.489
32.56000 0.129
32.58000 1.252
32.60000 3.572
32.62000 2.123
32.64000 2.946
32.66000 2.246
32.68000 2.887
32.70000 2.197
32.72000 4.178
32.74000 1.723
32.76000 -0.747
32.78000 1.084
32.80000 1.924
32.82000 2.236
32.84000 -0.020
32.86000 2.359
32.88000 1.083
32.90000 3.387
32.92000 6.730
32.94000 3.005
32.96000 -1.637
32.98000 4.826
33.00000 2.457
33.02000 0.079
33.04000 -3.594
33.06000 -1.177
33.08000 0.574
33.10000 1.371
33.12000 3.716
33.14000 9.690
33.16000 5.982
33.18000 0.586
33.20000 4.159
33.22000 4.389
33.24000 6.029
33.26000 10.950
33.28000 11.882
33.30000 8.620
33.32000 4.534
33.34000 -1.252
33.36000 0.361
33.38000 8.239
33.40000 5.761
33.42000 3.244
33.44000 3.081
33.46000 9.599
33.48000 4.381
33.50000 2.610
33.52000 3.663
33.54000 5.197
33.56000 0.736
33.58000 -0.527
33.60000 2.362
33.62000 1.823
33.64000 1.015
33.66000 2.043
33.68000 3.559
33.70000 5.367
33.72000 7.667
33.74000 3.410
33.76000 -2.576
33.78000 3.101
33.80000 6.336
33.82000 4.526
33.84000 4.327
33.86000 3.118
33.88000 -3.585
33.90000 -0.287
33.92000 5.891
33.94000 5.379
33.96000 3.375
33.98000 5.886
34.00000 1.206
34.02000 2.101
34.04000 2.173
34.06000 3.647
34.08000 5.408
34.10000 4.502
34.12000 2.022
34.14000 9.026
34.16000 7.857
34.18000 6.481
34.20000 3.338
34.22000 -2.195
34.24000 -0.730
34.26000 5.020
34.28000 0.985
34.30000 3.410
34.32000 2.961
34.34000 1.852
34.36000 -1.269
34.38000 2.193
34.40000 2.587
34.42000 -1.937
34.44000 -0.739
34.46000 1.203
34.48000 1.333
34.50000 1.267
34.52000 6.646
34.54000 1.172
34.56000 0.868
34.58000 0.621
34.60000 4.359
34.62000 3.202
34.64000 2.336
34.66000 0.404
34.68000 -0.646
34.70000 4.734
34.72000 4.916
34.74000 2.894
34.76000 2.044
34.78000 -0.251
34.80000 -3.568
34.82000 2.755
34.84000 0.524
34.86000 4.885
34.88000 2.541
34.90000 -0.608
34.92000 0.870
34.94000 -0.616
34.96000 -0.237
34.98000 3.919
35.00000 3.765
35.02000 3.603
35.04000 1.947
35.06000 2.349
35.08000 -0.316
35.10000 -0.631
35.12000 0.597
35.14000 2.522
35.16000 0.529
35.18000 -0.035
35.20000 6.178
35.22000 4.201
35.24000 1.499
35.26000 0.582
35.28000 -3.572
35.30000 -1.414
35.32000 -2.637
35.34000 4.089
35.36000 6.050
35.38000 0.389
35.40000 -1.329
35.42000 0.876
35.44000 2.721
35.46000 2.257
35.48000 4.150
35.50000 4.456
35.52000 1.577
35.54000 1.399
35.56000 -1.157
35.58000 -2.394
35.60000 1.478
35.62000 0.803
35.64000 -1.843
35.66000 4.468
35.68000 3.498
35.70000 3.111
35.72000 4.843
35.74000 -0.525
35.76000 -1.626
35.78000 2.458
35.80000 2.121
35.82000 1.379
35.84000 -0.111
35.86000 1.887
35.88000 -1.205
35.90000 -3.512
35.92000 -3.566
35.94000 0.927
35.96000 8.603
35.98000 1.926
36.00000 -2.157
36.02000 2.626
36.04000 5.933
36.06000 5.832
36.08000 -1.941
36.10000 0.242
36.12000 4.317
36.14000 0.949
36.16000 -2.058
36.18000 -0.721
36.20000 0.004
36.22000 0.502
36.24000 2.095
36.26000 -1.996
36.28000 -3.562
36.30000 3.621
36.32000 2.302
36.34000 0.468
36.36000 1.801
36.38000 0.237
36.40000 -0.120
36.42000 -0.042
36.44000 -0.249
36.46000 0.661
36.48000 -1.752
36.50000 -2.066
36.52000 -3.563
36.54000 -1.210
36.56000 -1.331
36.58000 4.699
36.60000 2.426
36.62000 0.304
36.64000 1.981
36.66000 2.488
36.68000 -2.433
36.70000 0.069
36.72000 -2.928
36.74000 1.718
36.76000 -0.337
36.78000 2.008
36.80000 0.348
36.82000 -1.056
36.84000 1.690
36.86000 -0.627
36.88000 0.690
36.90000 1.073
36.92000 4.705
36.94000 0.140
36.96000 3.024
36.98000 -0.035
37.00000 -3.583
37.02000 -0.751
37.04000 4.611
37.06000 3.561
37.08000 -0.738
37.10000 2.639
37.12000 3.790
37.14000 -2.125
37.16000 -2.302
37.18000 1.011
37.20000 0.771
37.22000 2.606
37.24000 1.105
37.26000 -2.291
37.28000 -2.741
37.30000 -3.612
37.32000 -1.905
37.34000 -1.648
37.36000 3.875
37.38000 4.440
37.40000 -0.799
37.42000 0.150
37.44000 6.322
37.46000 1.632
37.48000 2.100
37.50000 4.793
37.52000 -2.139
37.54000 -0.769
37.56000 -2.466
37.58000 0.668
37.60000 -0.399
37.62000 -0.224
37.64000 -2.336
37.66000 0.445
37.68000 2.468
37.70000 0.269
37.72000 -1.568
37.74000 0.815
37.76000 -3.506
37.78000 -3.286
37.80000 -0.417
37.82000 2.256
37.84000 2.858
37.86000 3.675
37.88000 -0.250
37.90000 -1.379
37.92000 2.842
37.94000 1.801
37.96000 1.249
37.98000 -0.497
38.00000 0.141
38.02000 2.865
38.04000 3.825
38.06000 0.798
38.08000 4.190
38.10000 5.428
38.12000 8.452
38.14000 4.652
38.16000 5.133
38.18000 5.573
38.20000 5.586
38.22000 8.024
38.24000 4.878
38.26000 4.251
38.28000 7.195
38.30000 8.418
38.32000 12.449
38.34000 15.460
38.36000 14.154
38.38000 11.868
38.40000 11.792
38.42000 11.442
38.44000 9.206
38.46000 9.369
38.48000 11.719
38.50000 14.289
38.52000 14.940
38.54000 15.322
38.56000 17.596
38.58000 13.997
38.60000 16.205
38.62000 22.600
38.64000 16.049
38.66000 19.802
38.68000 18.185
38.70000 15.982
38.72000 15.572
38.74000 18.866
38.76000 18.516
38.78000 19.153
38.80000 23.146
38.82000 22.121
38.84000 22.638
38.86000 24.118
38.88000 25.779
38.90000 24.428
38.92000 22.853
38.94000 28.581
38.96000 25.240
38.98000 23.718
39.00000 26.370
39.02000 27.246
39.04000 27.884
39.06000 34.087
39.08000 32.795
39.10000 34.897
39.12000 37.563
39.14000 34.231
39.16000 34.711
39.18000 37.817
39.20000 35.136
39.22000 40.447
39.24000 47.572
39.26000 47.186
39.28000 46.103
39.30000 47.235
39.32000 49.183
39.34000 52.650
39.36000 56.848
39.38000 56.091
39.40000 58.569
39.42000 63.717
39.44000 66.058
39.46000 67.008
39.48000 70.940
39.50000 70.975
39.52000 72.473
39.54000 82.994
39.56000 84.619
39.58000 91.302
39.60000 94.714
39.62000 95.297
39.64000 101.319
39.66000 107.447
39.68000 117.033
39.70000 122.151
39.72000 117.828
39.74000 121.814
39.76000 131.936
39.78000 135.439
39.80000 142.391
39.82000 148.240
39.84000 153.544
39.86000 162.374
39.88000 174.909
39.90000 184.009
39.92000 192.858
39.94000 199.238
39.96000 201.047
39.98000 212.665
40.00000 230.330
40.02000 243.209
40.04000 251.962
40.06000 258.340
40.08000 276.449
40.10000 293.403
40.12000 300.599
40.14000 309.470
40.16000 331.993
40.18000 344.399
40.20000 357.224
40.22000 374.611
40.24000 393.238
40.26000 409.381
40.28000 432.191
40.30000 442.226
40.32000 448.000
40.34000 469.887
40.36000 495.028
40.38000 507.785
40.40000 529.532
40.42000 547.100
40.44000 575.584
40.46000 572.795
40.48000 578.478
40.50000 585.083
40.52000 597.554
40.54000 607.368
40.56000 615.741
40.58000 620.617
40.60000 630.261
40.62000 629.019
40.64000 644.000
40.66000 635.623
40.68000 637.757
40.70000 630.654
40.72000 631.294
40.74000 618.703
40.76000 605.151
40.78000 608.914
40.80000 602.670
40.82000 585.700
40.84000 557.280
40.86000 543.419
40.88000 535.782
40.90000 527.770
40.92000 500.697
40.94000 485.289
40.96000 472.389
40.98000 469.966
41.00000 452.920
41.02000 424.728
41.04000 402.618
41.06000 384.488
41.08000 364.411
41.10000 350.755
41.12000 326.823
41.14000 316.309
41.16000 302.740
41.18000 286.118
41.20000 276.560
41.22000 269.275
41.24000 258.904
41.26000 247.162
41.28000 226.775
41.30000 213.543
41.32000 204.390
41.34000 190.051
41.36000 178.754
41.38000 167.985
41.40000 160.819
41.42000 156.531
41.44000 148.572
41.46000 137.688
41.48000 129.486
41.50000 121.911
41.52000 116.664
41.54000 115.692
41.56000 109.076
41.58000 103.597
41.60000 100.995
41.62000 96.406
41.64000 92.398
41.66000 87.551
41.68000 81.088
41.70000 73.902
41.72000 75.736
41.74000 70.679
41.76000 67.623
41.78000 60.897
41.80000 60.309
41.82000 54.298
41.84000 51.998
41.86000 52.343
41.88000 51.558
41.90000 47.979
41.92000 43.498
41.94000 38.167
41.96000 35.952
41.98000 38.584
42.00000 34.051
42.02000 40.276
42.04000 32.301
42.06000 29.307
42.08000 34.091
42.10000 36.826
42.12000 32.674
42.14000 25.457
42.16000 21.668
42.18000 24.156
42.20000 23.093
42.22000 21.694
42.24000 21.671
42.26000 20.118
42.28000 19.604
42.30000 18.906
42.32000 14.880
42.34000 8.085
42.36000 10.374
42.38000 15.055
42.40000 16.506
42.42000 16.692
42.44000 14.198
42.46000 15.042
42.48000 11.552
42.50000 14.134
42.52000 11.184
42.54000 12.603
42.56000 11.982
42.58000 13.604
42.60000 11.005
42.62000 6.722
42.64000 8.722
42.66000 7.065
42.68000 10.949
42.70000 8.325
42.72000 4.782
42.74000 9.271
42.76000 9.041
42.78000 7.099
42.80000 5.641
42.82000 5.980
42.84000 5.337
42.86000 3.270
42.88000 4.293
42.90000 3.488
42.92000 2.256
42.94000 7.744
42.96000 10.674
42.98000 8.126
43.00000 5.823
43.02000 6.552
43.04000 6.987
43.06000 2.682
43.08000 4.341
43.10000 2.043
43.12000 1.360
43.14000 3.134
43.16000 4.674
43.18000 4.291
43.20000 3.026
43.22000 -0.282
43.24000 1.861
43.26000 3.469
43.28000 1.690
43.30000 4.313
43.32000 -0.463
43.34000 2.640
43.36000 2.563
43.38000 3.276
43.40000 -0.792
43.42000 0.110
43.44000 4.616
43.46000 2.161
43.48000 -0.818
43.50000 5.036
43.52000 4.595
43.54000 3.358
43.56000 2.761
43.58000 0.899
43.60000 -0.956
43.62000 1.903
43.64000 -3.519
43.66000 2.476
43.68000 5.930
43.70000 3.562
43.72000 4.397
43.74000 2.108
43.76000 4.772
43.78000 2.642
43.80000 2.054
43.82000 4.358
43.84000 5.574
43.86000 9.633
43.88000 5.790
43.90000 4.202
43.92000 7.089
43.94000 3.612
43.96000 3.008
43.98000 -1.658
44.00000 -1.582
44.02000 2.751
44.04000 2.403
44.06000 3.409
44.08000 5.103
44.10000 2.226
44.12000 2.320
44.14000 0.835
44.16000 3.357
44.18000 4.372
44.20000 4.366
44.22000 4.934
44.24000 4.472
44.26000 3.640
44.28000 6.751
44.30000 7.578
44.32000 4.570
44.34000 -0.547
44.36000 0.033
44.38000 2.236
44.40000 2.778
44.42000 1.499
44.44000 -1.191
44.46000 0.771
44.48000 2.059
44.50000 4.022
44.52000 -1.520
44.54000 1.142
44.56000 0.971
44.58000 -2.618
44.60000 -3.505
44.62000 -0.636
44.64000 -2.064
44.66000 -3.145
44.68000 -0.625
44.70000 1.973
44.72000 7.204
44.74000 9.733
44.76000 4.007
44.78000 1.243
44.80000 4.715
44.82000 7.017
44.84000 5.186
44.86000 7.195
44.88000 2.327
44.90000 6.500
44.92000 5.457
44.94000 0.887
44.96000 3.628
44.98000 3.335
45.00000 2.036
45.02000 0.408
45.04000 1.010
45.06000 4.362
45.08000 5.900
45.10000 1.938
45.12000 3.508
45.14000 6.546
45.16000 6.436
45.18000 3.920
45.20000 -2.579
45.22000 -1.905
45.24000 0.065
45.26000 3.659
45.28000 2.497
45.30000 7.106
45.32000 4.253
45.34000 4.892
45.36000 1.504
45.38000 7.699
45.40000 6.433
45.42000 4.548
45.44000 5.312
45.46000 4.845
45.48000 1.753
45.50000 6.932
45.52000 10.554
45.54000 3.069
45.56000 7.908
45.58000 10.192
45.60000 9.284
45.62000 12.278
45.64000 13.542
45.66000 8.663
45.68000 13.160
45.70000 15.840
45.72000 12.588
45.74000 10.725
45.76000 12.496
45.78000 14.883
45.80000 14.496
45.82000 15.730
45.84000 17.590
45.86000 15.413
45.88000 15.206
45.90000 19.327
45.92000 16.946
45.94000 14.603
45.96000 18.264
45.98000 14.856
46.00000 13.505
46.02000 15.389
46.04000 17.099
46.06000 19.223
46.08000 21.584
46.10000 21.523
46.12000 26.291
46.14000 23.593
46.16000 27.800
46.18000 31.469
46.20000 35.110
46.22000 35.007
46.24000 24.830
46.26000 29.584
46.28000 29.077
46.30000 30.317
46.32000 27.598
46.34000 29.228
46.36000 36.089
46.38000 34.151
46.40000 39.536
46.42000 39.633
46.44000 36.195
46.46000 41.189
46.48000 31.566
46.50000 36.581
46.52000 43.450
46.54000 45.767
46.56000 50.407
46.58000 46.212
46.60000 40.815
46.62000 45.927
46.64000 48.458
46.66000 53.963
46.68000 49.025
46.70000 58.443
46.72000 56.365
46.74000 53.772
46.76000 56.815
46.78000 59.509
46.80000 65.124
46.82000 66.193
46.84000 66.075
46.86000 69.057
46.88000 72.511
46.90000 62.108
46.92000 68.511
46.94000 68.149
46.96000 68.817
46.98000 75.987
47.00000 76.474
47.02000 73.483
47.04000 72.691
47.06000 72.808
47.08000 78.465
47.10000 79.172
47.12000 71.314
47.14000 69.049
47.16000 78.143
47.18000 75.856
47.20000 77.259
47.22000 78.502
47.24000 85.012
47.26000 87.056
47.28000 83.368
47.30000 74.590
47.32000 70.478
47.34000 65.132
47.36000 67.291
47.38000 72.846
47.40000 65.342
47.42000 75.154
47.44000 76.191
47.46000 72.109
47.48000 70.105
47.50000 69.835
47.52000 70.309
47.54000 76.043
47.56000 67.606
47.58000 65.448
47.60000 58.720
47.62000 53.232
47.64000 55.182
47.66000 56.101
47.68000 57.091
47.70000 56.350
47.72000 51.376
47.74000 51.313
47.76000 48.537
47.78000 46.351
47.80000 52.044
47.82000 42.732
47.84000 48.301
47.86000 49.269
47.88000 45.907
47.90000 37.776
47.92000 43.875
47.94000 44.162
47.96000 35.079
47.98000 30.255
48.00000 28.732
48.02000 24.557
48.04000 30.607
48.06000 34.507
48.08000 34.177
48.10000 25.005
48.12000 24.401
48.14000 22.185
48.16000 23.990
48.18000 20.743
48.20000 13.407
48.22000 13.808
48.24000 18.961
48.26000 22.440
48.28000 16.417
48.30000 14.754
48.32000 13.194
48.34000 22.163
48.36000 18.986
48.38000 15.896
48.40000 15.315
48.42000 11.408
48.44000 13.469
48.46000 12.180
48.48000 14.990
48.50000 8.571
48.52000 4.660
48.54000 12.504
48.56000 12.062
48.58000 8.775
48.60000 13.117
48.62000 14.070
48.64000 7.995
48.66000 2.597
48.68000 5.255
48.70000 7.010
48.72000 7.642
48.74000 6.565
48.76000 4.805
48.78000 4.181
48.80000 1.892
48.82000 2.173
48.84000 2.252
48.86000 7.388
48.88000 8.047
48.90000 8.323
48.92000 5.727
48.94000 3.470
48.96000 1.055
48.98000 1.083
49.00000 0.088
49.02000 1.941
49.04000 7.001
49.06000 8.223
49.08000 13.004
49.10000 6.131
49.12000 2.906
49.14000 2.382
49.16000 1.101
49.18000 7.541
49.20000 5.268
49.22000 6.967
49.24000 3.491
49.26000 2.564
49.28000 0.099
49.30000 6.437
49.32000 3.745
49.34000 1.142
49.36000 1.574
49.38000 8.003
49.40000 4.945
49.42000 7.198
49.44000 4.808
49.46000 1.021
49.48000 5.488
49.50000 1.559
49.52000 1.243
49.54000 1.767
49.56000 0.867
49.58000 2.803
49.60000 0.919
49.62000 -3.082
49.64000 3.953
49.66000 4.256
49.68000 1.598
49.70000 7.973
49.72000 10.867
49.74000 10.816
49.76000 5.221
49.78000 8.338
49.80000 7.550
49.82000 1.452
49.84000 -1.025
49.86000 1.074
49.88000 0.240
49.90000 6.585
49.92000 6.306
49.94000 0.324
49.96000 0.012
49.98000 5.550
50.00000 6.635
50.02000 0.983
50.04000 5.658
50.06000 8.348
50.08000 5.832
50.10000 5.353
50.12000 6.874
50.14000 8.501
50.16000 5.887
50.18000 3.493
50.20000 7.068
50.22000 3.402
50.24000 -2.583
50.26000 -0.999
50.28000 5.748
50.30000 3.580
50.32000 4.971
50.34000 4.747
50.36000 5.188
50.38000 6.161
50.40000 5.135
50.42000 4.817
50.44000 8.557
50.46000 3.823
50.48000 -3.004
50.50000 -1.198
50.52000 8.130
50.54000 6.976
50.56000 6.186
50.58000 4.646
50.60000 9.222
50.62000 4.603
50.64000 5.925
50.66000 7.371
50.68000 9.742
50.70000 -0.381
50.72000 5.191
50.74000 7.507
50.76000 -0.322
50.78000 -2.995
50.80000 1.654
50.82000 3.091
50.84000 1.337
50.86000 1.956
50.88000 3.513
50.90000 6.663
50.92000 0.996
50.94000 4.104
50.96000 2.059
50.98000 9.463
51.00000 7.572
51.02000 6.737
51.04000 5.591
51.06000 1.179
51.08000 1.206
51.10000 4.978
51.12000 6.571
51.14000 2.459
51.16000 4.577
51.18000 6.526
51.20000 5.423
51.22000 6.276
51.24000 5.859
51.26000 7.307
51.28000 8.328
51.30000 8.464
51.32000 4.937
51.34000 1.560
51.36000 4.415
51.38000 6.793
51.40000 8.615
51.42000 6.898
51.44000 7.527
51.46000 2.442
51.48000 -2.960
51.50000 4.026
51.52000 8.408
51.54000 13.889
51.56000 9.596
51.58000 8.414
51.60000 13.719
51.62000 5.924
51.64000 3.764
51.66000 5.664
51.68000 4.383
51.70000 6.357
51.72000 6.916
51.74000 5.760
51.76000 5.191
51.78000 3.015
51.80000 3.869
51.82000 3.055
51.84000 4.800
51.86000 3.610
51.88000 -1.215
51.90000 1.744
51.92000 2.389
51.94000 5.339
51.96000 4.609
51.98000 3.741
52.00000 4.034
52.02000 0.675
52.04000 0.339
52.06000 1.773
52.08000 4.105
52.10000 4.745
52.12000 6.208
52.14000 7.690
52.16000 7.147
52.18000 4.488
52.20000 3.375
52.22000 4.388
52.24000 2.951
52.26000 -0.079
52.28000 2.160
52.30000 8.075
52.32000 7.493
52.34000 7.233
52.36000 5.269
52.38000 4.735
52.40000 5.925
52.42000 3.880
52.44000 -1.227
52.46000 0.315
52.48000 4.333
52.50000 6.612
52.52000 4.615
52.54000 5.513
52.56000 5.859
52.58000 6.344
52.60000 6.064
52.62000 1.139
52.64000 2.988
52.66000 2.798
52.68000 5.561
52.70000 7.138
52.72000 4.253
52.74000 4.387
52.76000 2.363
52.78000 2.701
52.80000 6.815
52.82000 3.904
52.84000 -1.208
52.86000 -2.056
52.88000 3.099
52.90000 6.203
52.92000 8.259
52.94000 3.255
52.96000 -1.518
52.98000 -2.892
53.00000 0.645
53.02000 10.994
53.04000 11.521
53.06000 8.359
53.08000 4.437
53.10000 2.753
53.12000 6.072
53.14000 5.419
53.16000 13.817
53.18000 11.127
53.20000 12.220
53.22000 4.430
53.24000 7.946
53.26000 12.535
53.28000 3.761
53.30000 2.869
53.32000 5.957
53.34000 10.075
53.36000 6.707
53.38000 10.211
53.40000 6.910
53.42000 4.898
53.44000 7.186
53.46000 11.517
53.48000 10.124
53.50000 8.935
53.52000 8.564
53.54000 7.113
53.56000 6.325
53.58000 8.802
53.60000 5.893
53.62000 2.428
53.64000 -2.850
53.66000 2.650
53.68000 7.187
53.70000 6.040
53.72000 8.497
53.74000 3.860
53.76000 2.822
53.78000 2.497
53.80000 5.873
53.82000 8.292
53.84000 2.724
53.86000 3.269
53.88000 3.295
53.90000 4.644
53.92000 1.038
53.94000 4.262
53.96000 7.791
53.98000 10.767
54.00000 8.341
54.02000 10.306
54.04000 4.844
54.06000 7.995
54.08000 8.897
54.10000 8.153
54.12000 5.791
54.14000 3.308
54.16000 2.298
54.18000 6.017
54.20000 7.500
54.22000 0.103
54.24000 4.193
54.26000 8.620
54.28000 6.824
54.30000 9.422
54.32000 10.057
54.34000 7.241
54.36000 3.727
54.38000 4.175
54.40000 11.340
54.42000 5.447
54.44000 -2.296
54.46000 -2.542
54.48000 2.663
54.50000 6.508
54.52000 8.939
54.54000 0.087
54.56000 3.214
54.58000 8.696
54.60000 8.724
54.62000 6.472
54.64000 5.579
54.66000 5.416
54.68000 6.040
54.70000 2.422
54.72000 2.322
54.74000 7.217
54.76000 8.448
54.78000 9.267
54.80000 7.656
54.82000 -1.776
54.84000 1.793
54.86000 1.061
54.88000 5.960
54.90000 4.594
54.92000 4.266
54.94000 4.854
54.96000 6.427
54.98000 12.973
55.00000 9.123
55.02000 10.566
55.04000 5.206
55.06000 3.566
55.08000 3.561
55.10000 0.065
55.12000 6.201
55.14000 2.682
55.16000 5.132
55.18000 2.781
55.20000 -0.070
55.22000 3.613
55.24000 7.170
55.26000 7.018
55.28000 3.440
55.30000 -2.825
55.32000 -1.216
55.34000 1.128
55.36000 6.670
55.38000 6.052
55.40000 6.401
55.42000 8.702
55.44000 7.036
55.46000 1.177
55.48000 -1.264
55.50000 3.268
55.52000 7.401
55.54000 10.502
55.56000 6.701
55.58000 1.641
55.60000 8.300
55.62000 6.673
55.64000 -0.423
55.66000 1.211
55.68000 8.593
55.70000 5.145
55.72000 1.719
55.74000 2.214
55.76000 0.229
55.78000 1.019
55.80000 -1.127
55.82000 3.226
55.84000 3.635
55.86000 6.114
55.88000 6.918
55.90000 5.150
55.92000 -2.827
55.94000 -0.632
55.96000 4.596
55.98000 5.499
56.00000 8.689
56.02000 8.878
56.04000 4.667
56.06000 -1.761
56.08000 -1.467
56.10000 0.062
56.12000 1.841
56.14000 -0.244
56.16000 1.096
56.18000 4.658
56.20000 3.877
56.22000 1.915
56.24000 3.706
56.26000 3.399
56.28000 6.627
56.30000 1.122
56.32000 2.311
56.34000 4.958
56.36000 6.423
56.38000 3.191
56.40000 2.611
56.42000 2.906
56.44000 5.091
56.46000 3.036
56.48000 5.118
56.50000 5.353
56.52000 8.193
56.54000 7.725
56.56000 3.907
56.58000 5.591
56.60000 5.715
56.62000 1.856
56.64000 2.829
56.66000 3.191
56.68000 3.378
56.70000 2.594
56.72000 3.476
56.74000 5.618
56.76000 6.346
56.78000 8.062
56.80000 3.879
56.82000 2.358
56.84000 4.013
56.86000 1.049
56.88000 7.361
56.90000 5.449
56.92000 2.662
56.94000 -2.817
56.96000 3.380
56.98000 9.560
57.00000 3.732
57.02000 2.933
57.04000 4.960
57.06000 6.944
57.08000 4.229
57.10000 3.483
57.12000 0.501
57.14000 0.591
57.16000 0.239
57.18000 5.925
57.20000 3.770
57.22000 1.521
57.24000 1.928
57.26000 1.534
57.28000 1.171
57.30000 1.033
57.32000 -1.421
57.34000 1.611
57.36000 1.138
57.38000 4.414
57.40000 -0.177
57.42000 -0.389
57.44000 3.933
57.46000 1.924
57.48000 3.837
57.50000 6.804
57.52000 0.777
57.54000 -2.550
57.56000 0.498
57.58000 -0.572
57.60000 0.123
57.62000 2.598
57.64000 5.944
57.66000 8.944
57.68000 10.727
57.70000 5.223
57.72000 -0.427
57.74000 -0.431
57.76000 0.940
57.78000 2.686
57.80000 1.591
57.82000 2.994
57.84000 5.393
57.86000 5.397
57.88000 3.367
57.90000 -0.346
57.92000 1.194
57.94000 4.032
57.96000 4.164
57.98000 0.526
58.00000 3.797
58.02000 8.231
58.04000 1.578
58.06000 2.849
58.08000 6.803
58.10000 4.421
58.12000 5.120
58.14000 5.997
58.16000 4.777
58.18000 2.290
58.20000 6.309
58.22000 4.341
58.24000 -2.753
58.26000 -0.333
58.28000 3.050
58.30000 1.186
58.32000 0.514
58.34000 0.672
58.36000 4.125
58.38000 3.379
58.40000 2.106
58.42000 2.257
58.44000 1.300
58.46000 2.853
58.48000 3.471
58.50000 5.021
58.52000 0.186
58.54000 4.072
58.56000 0.534
58.58000 0.997
58.60000 -0.774
58.62000 0.819
58.64000 -2.756
58.66000 0.743
58.68000 3.297
58.70000 3.520
58.72000 3.939
58.74000 4.187
58.76000 0.450
58.78000 3.436
58.80000 4.091
58.82000 3.359
58.84000 1.124
58.86000 1.163
58.88000 5.499
58.90000 6.726
58.92000 4.002
58.94000 1.141
58.96000 -2.288
58.98000 2.233
59.00000 -0.556
59.02000 2.378
59.04000 3.754
59.06000 4.445
59.08000 0.895
59.10000 0.203
59.12000 0.836
59.14000 2.032
59.16000 0.976
59.18000 1.921
59.20000 0.859
59.22000 -0.567
59.24000 -2.066
59.26000 -1.462
59.28000 0.236
59.30000 4.161
59.32000 3.128
59.34000 -2.214
59.36000 -2.034
59.38000 0.062
59.40000 0.051
59.42000 2.917
59.44000 1.422
59.46000 0.877
59.48000 4.675
59.50000 3.028
59.52000 4.641
59.54000 3.034
59.56000 0.476
59.58000 1.858
59.60000 -2.731
59.62000 -1.804
59.64000 2.314
59.66000 5.484
59.68000 3.205
59.70000 5.655
59.72000 0.140
59.74000 -0.234
59.76000 0.566
59.78000 2.585
59.80000 4.230
59.82000 4.216
59.84000 7.362
59.86000 -0.469
59.88000 -2.543
59.90000 2.188
59.92000 1.126
59.94000 2.667
59.96000 3.931
59.98000 0.338
60.00000 2.880
60.02000 2.052
60.04000 -2.454
60.06000 1.007
60.08000 -0.107
60.10000 3.422
60.12000 2.912
60.14000 1.557
60.16000 2.326
60.18000 5.466
60.20000 0.935
60.22000 -1.681
60.24000 2.960
60.26000 2.149
60.28000 2.009
60.30000 2.621
60.32000 0.186
60.34000 -2.491
60.36000 -0.816
60.38000 1.579
60.40000 2.373
60.42000 -1.737
60.44000 -2.695
60.46000 0.959
60.48000 5.435
60.50000 9.363
60.52000 6.764
60.54000 5.969
60.56000 4.309
60.58000 3.074
60.60000 1.783
60.62000 2.538
60.64000 -2.680
60.66000 -1.990
60.68000 2.713
60.70000 3.702
60.72000 5.919
60.74000 6.714
60.76000 1.913
60.78000 1.402
60.80000 4.160
60.82000 3.648
60.84000 -0.682
60.86000 -1.845
60.88000 4.595
60.90000 7.301
60.92000 3.952
60.94000 2.050
60.96000 6.940
60.98000 6.610
61.00000 6.496
61.02000 6.911
61.04000 6.754
61.06000 3.763
61.08000 4.886
61.10000 5.952
61.12000 1.321
61.14000 -0.415
61.16000 -2.626
61.18000 0.690
61.20000 1.761
61.22000 2.742
61.24000 1.012
61.26000 3.739
61.28000 4.849
61.30000 4.182
61.32000 4.300
61.34000 4.462
61.36000 1.405
61.38000 -2.625
61.40000 0.772
61.42000 2.826
61.44000 6.811
61.46000 4.754
61.48000 5.238
61.50000 3.998
61.52000 3.498
61.54000 3.911
61.56000 1.141
61.58000 1.740
61.60000 7.894
61.62000 9.382
61.64000 4.509
61.66000 3.208
61.68000 1.209
61.70000 -2.625
61.72000 7.655
61.74000 6.043
61.76000 9.216
61.78000 8.450
61.80000 4.762
61.82000 2.106
61.84000 -1.004
61.86000 -1.323
61.88000 2.967
61.90000 1.427
61.92000 2.414
61.94000 -0.138
61.96000 -0.381
61.98000 5.108
62.00000 6.572
62.02000 1.271
62.04000 -1.501
62.06000 0.416
62.08000 3.646
62.10000 7.290
62.12000 7.448
62.14000 3.343
62.16000 -0.561
62.18000 1.902
62.20000 6.015
62.22000 3.842
62.24000 0.065
62.26000 2.639
62.28000 4.265
62.30000 3.560
62.32000 4.849
62.34000 5.279
62.36000 3.525
62.38000 5.131
62.40000 5.981
62.42000 5.722
62.44000 3.407
62.46000 7.039
62.48000 3.018
62.50000 2.425
62.52000 3.509
62.54000 -1.412
62.56000 -2.608
62.58000 2.280
62.60000 3.574
62.62000 6.861
62.64000 4.190
62.66000 2.307
62.68000 4.569
62.70000 4.931
62.72000 2.038
62.74000 -0.034
62.76000 6.555
62.78000 3.622
62.80000 0.468
62.82000 1.381
62.84000 -0.849
62.86000 -1.923
62.88000 -0.699
62.90000 4.482
62.92000 3.581
62.94000 1.186
62.96000 1.058
62.98000 1.574
63.00000 1.710
63.02000 1.739
63.04000 2.269
63.06000 3.321
63.08000 1.916
63.10000 0.938
63.12000 -2.607
63.14000 3.142
63.16000 4.207
63.18000 1.393
63.20000 0.663
63.22000 -0.265
63.24000 2.097
63.26000 2.339
63.28000 3.806
63.30000 6.571
63.32000 5.151
63.34000 2.416
63.36000 3.649
63.38000 0.785
63.40000 2.072
63.42000 1.022
63.44000 -1.239
63.46000 1.587
63.48000 2.157
63.50000 2.353
63.52000 0.977
63.54000 2.139
63.56000 4.447
63.58000 1.240
63.60000 -2.603
63.62000 5.026
63.64000 9.647
63.66000 6.826
63.68000 7.089
63.70000 5.371
63.72000 6.186
63.74000 4.520
63.76000 4.491
63.78000 2.113
63.80000 2.853
63.82000 5.862
63.84000 7.461
63.86000 5.887
63.88000 2.655
63.90000 0.148
63.92000 -0.620
63.94000 1.521
63.96000 1.174
63.98000 1.352
64.00000 1.414
64.02000 6.755
64.04000 3.436
64.06000 1.594
64.08000 2.036
64.10000 5.665
64.12000 5.135
64.14000 0.285
64.16000 1.363
64.18000 0.831
64.20000 -1.349
64.22000 1.200
64.24000 -2.596
64.26000 -2.523
64.28000 4.072
64.30000 2.139
64.32000 2.277
64.34000 0.563
64.36000 -1.333
64.38000 3.346
64.40000 2.874
64.42000 1.186
64.44000 2.349
64.46000 3.124
64.48000 4.061
64.50000 2.181
64.52000 2.265
64.54000 2.552
64.56000 2.414
64.58000 2.014
64.60000 4.797
64.62000 0.128
64.64000 2.229
64.66000 3.466
64.68000 0.325
64.70000 -0.614
64.72000 -0.866
64.74000 -0.270
64.76000 5.353
64.78000 5.013
64.80000 2.667
64.82000 3.420
64.84000 1.694
64.86000 0.663
64.88000 2.652
64.90000 3.389
64.92000 5.136
64.94000 0.980
64.96000 3.679
64.98000 3.100
65.00000 0.958
65.02000 -1.613
65.04000 -2.597
65.06000 1.816
65.08000 3.202
65.10000 0.914
65.12000 -1.158
65.14000 0.007
65.16000 0.153
65.18000 -1.713
65.20000 0.681
65.22000 4.495
65.24000 1.456
65.26000 2.913
65.28000 1.068
65.30000 3.186
65.32000 0.966
65.34000 -1.343
65.36000 2.026
65.38000 1.628
65.40000 0.863
65.42000 0.833
65.44000 3.149
65.46000 4.293
65.48000 3.377
65.50000 2.875
65.52000 3.362
65.54000 -1.147
65.56000 -0.898
65.58000 3.259
65.60000 3.297
65.62000 2.365
65.64000 2.289
65.66000 4.487
65.68000 6.475
65.70000 5.459
65.72000 7.574
65.74000 4.433
65.76000 -0.059
65.78000 0.529
65.80000 1.495
65.82000 0.801
65.84000 0.412
65.86000 -1.033
65.88000 0.283
65.90000 2.583
65.92000 2.918
65.94000 1.483
65.96000 -1.949
65.98000 0.908
66.00000 3.564
66.02000 1.594
66.04000 0.278
66.06000 -2.567
66.08000 -2.354
66.10000 0.304
66.12000 2.186
66.14000 2.429
66.16000 3.469
66.18000 3.122
66.20000 2.743
66.22000 1.008
66.24000 0.591
66.26000 1.459
66.28000 1.197
66.30000 1.242
66.32000 1.327
66.34000 1.273
66.36000 4.607
66.38000 2.202
66.40000 4.252
66.42000 4.076
66.44000 2.735
66.46000 2.638
66.48000 4.711
66.50000 3.528
66.52000 -2.520
66.54000 0.406
66.56000 2.220
66.58000 1.893
66.60000 -0.079
66.62000 3.576
66.64000 5.792
66.66000 0.098
66.68000 1.622
66.70000 4.262
66.72000 3.250
66.74000 2.344
66.76000 1.595
66.78000 2.642
66.80000 1.064
66.82000 -0.122
66.84000 2.358
66.86000 -1.172
66.88000 -2.566
66.90000 1.726
66.92000 3.242
66.94000 -0.501
66.96000 -1.360
66.98000 1.781
67.00000 1.855
67.02000 5.621
67.04000 5.651
67.06000 5.055
67.08000 3.147
67.10000 2.291
67.12000 -2.585
67.14000 -0.084
67.16000 2.980
67.18000 6.803
67.20000 6.864
67.22000 3.438
67.24000 3.648
67.26000 9.383
67.28000 6.703
67.30000 5.123
67.32000 3.463
67.34000 3.206
67.36000 1.792
67.38000 3.593
67.40000 -0.192
67.42000 0.843
67.44000 3.169
67.46000 8.309
67.48000 7.229
67.50000 4.192
67.52000 1.460
67.54000 4.767
67.56000 9.221
67.58000 3.883
67.60000 4.849
67.62000 3.392
67.64000 2.935
67.66000 4.824
67.68000 3.120
67.70000 5.443
67.72000 2.076
67.74000 0.149
67.76000 5.680
67.78000 6.554
67.80000 10.485
67.82000 7.745
67.84000 3.625
67.86000 1.891
67.88000 0.836
67.90000 3.674
67.92000 7.902
67.94000 8.873
67.96000 8.575
67.98000 3.997
68.00000 3.267
68.02000 3.870
68.04000 7.966
68.06000 10.332
68.08000 10.875
68.10000 8.821
68.12000 7.087
68.14000 9.210
68.16000 7.448
68.18000 6.419
68.20000 10.443
68.22000 11.023
68.24000 12.211
68.26000 13.604
68.28000 13.529
68.30000 9.436
68.32000 8.369
68.34000 10.210
68.36000 16.041
68.38000 14.463
68.40000 11.868
68.42000 9.281
68.44000 10.702
68.46000 10.868
68.48000 11.873
68.50000 15.664
68.52000 17.742
68.54000 16.784
68.56000 18.262
68.58000 17.121
68.60000 19.545
68.62000 22.468
68.64000 21.236
68.66000 18.858
68.68000 13.267
68.70000 16.625
68.72000 18.017
68.74000 21.203
68.76000 19.338
68.78000 20.637
68.80000 23.192
68.82000 26.183
68.84000 26.647
68.86000 25.833
68.88000 24.032
68.90000 24.116
68.92000 21.345
68.94000 23.083
68.96000 25.322
68.98000 25.698
69.00000 25.124
69.02000 25.965
69.04000 28.132
69.06000 23.487
69.08000 25.078
69.10000 26.264
69.12000 30.479
69.14000 29.744
69.16000 26.431
69.18000 25.796
69.20000 26.213
69.22000 27.338
69.24000 25.528
69.26000 24.132
69.28000 21.032
69.30000 19.953
69.32000 22.022
69.34000 22.488
69.36000 21.626
69.38000 21.828
69.40000 19.665
69.42000 20.833
69.44000 23.329
69.46000 21.153
69.48000 17.788
69.50000 19.283
69.52000 17.805
69.54000 15.611
69.56000 16.658
69.58000 15.148
69.60000 14.156
69.62000 14.762
69.64000 15.426
69.66000 17.248
69.68000 16.538
69.70000 16.476
69.72000 10.961
69.74000 11.577
69.76000 13.288
69.78000 12.583
69.80000 12.884
69.82000 11.037
69.84000 8.446
69.86000 10.026
69.88000 7.160
69.90000 4.537
69.92000 8.026
69.94000 8.063
69.96000 10.583
69.98000 9.592
70.00000 9.095
70.02000 9.234
70.04000 8.916
70.06000 6.978
70.08000 4.618
70.10000 -1.325
70.12000 2.506
70.14000 5.605
70.16000 4.798
70.18000 0.751
70.20000 1.791
70.22000 4.469
70.24000 1.613
70.26000 1.460
70.28000 4.203
70.30000 6.022
70.32000 5.915
70.34000 0.970
70.36000 0.732
70.38000 3.484
70.40000 3.128
70.42000 4.207
70.44000 1.708
70.46000 0.192
70.48000 2.756
70.50000 2.359
70.52000 3.836
70.54000 0.326
70.56000 -1.100
70.58000 2.410
70.60000 3.975
70.62000 5.082
70.64000 6.018
70.66000 1.899
70.68000 -1.221
70.70000 -0.174
70.72000 0.718
70.74000 1.925
70.76000 2.185
70.78000 2.015
70.80000 -0.115
70.82000 1.352
70.84000 3.005
70.86000 0.333
70.88000 -2.419
70.90000 2.248
70.92000 -0.556
70.94000 1.090
70.96000 -0.396
70.98000 1.377
71.00000 0.849
71.02000 -0.753
71.04000 3.881
71.06000 1.734
71.08000 4.193
71.10000 3.667
71.12000 1.053
71.14000 -2.266
71.16000 1.270
71.18000 -1.503
71.20000 -2.381
71.22000 -1.505
71.24000 3.255
71.26000 2.949
71.28000 5.408
71.30000 6.276
71.32000 6.574
71.34000 4.925
71.36000 2.666
71.38000 1.030
71.40000 -0.418
71.42000 2.809
71.44000 -0.255
71.46000 0.598
71.48000 -2.357
71.50000 -0.081
71.52000 2.314
71.54000 4.772
71.56000 2.157
71.58000 1.574
71.60000 2.688
71.62000 3.022
71.64000 5.688
71.66000 1.507
71.68000 0.495
71.70000 1.198
71.72000 0.077
71.74000 2.006
71.76000 5.883
71.78000 6.045
71.80000 3.012
71.82000 -1.219
71.84000 3.187
71.86000 5.345
71.88000 2.551
71.90000 -1.648
71.92000 0.503
71.94000 -0.098
71.96000 -1.313
71.98000 3.110
72.00000 3.441
72.02000 1.008
72.04000 1.055
72.06000 1.039
72.08000 1.897
72.10000 1.686
72.12000 -0.224
72.14000 -1.037
72.16000 0.245
72.18000 1.872
72.20000 -0.610
72.22000 1.935
72.24000 3.920
72.26000 1.365
72.28000 2.496
72.30000 1.962
72.32000 3.007
72.34000 5.909
72.36000 6.365
72.38000 2.475
72.40000 2.483
72.42000 2.206
72.44000 4.556
72.46000 0.297
72.48000 -1.934
72.50000 3.220
72.52000 -0.636
72.54000 -0.138
72.56000 0.221
72.58000 -0.448
72.60000 2.368
72.62000 1.431
72.64000 0.401
72.66000 -2.131
72.68000 -0.249
72.70000 1.684
72.72000 0.506
72.74000 0.739
72.76000 -1.237
72.78000 5.183
72.80000 7.230
72.82000 5.270
72.84000 4.266
72.86000 1.266
72.88000 -2.259
72.90000 4.927
72.92000 8.810
72.94000 3.597
72.96000 1.105
72.98000 -1.208
73.00000 2.641
73.02000 2.236
73.04000 3.122
73.06000 0.754
73.08000 3.091
73.10000 2.322
73.12000 2.037
73.14000 3.327
73.16000 1.984
73.18000 5.892
73.20000 3.345
73.22000 5.329
73.24000 4.882
73.26000 1.848
73.28000 2.950
73.30000 3.788
73.32000 3.104
73.34000 5.607
73.36000 6.465
73.38000 4.686
73.40000 6.416
73.42000 4.927
73.44000 3.537
73.46000 3.097
73.48000 4.028
73.50000 2.678
73.52000 3.649
73.54000 4.791
73.56000 3.137
73.58000 7.204
73.60000 6.173
73.62000 3.870
73.64000 2.338
73.66000 -2.223
73.68000 0.489
73.70000 2.512
73.72000 3.895
73.74000 2.201
73.76000 -2.223
73.78000 0.796
73.80000 0.115
73.82000 1.718
73.84000 6.888
73.86000 4.785
73.88000 6.915
73.90000 5.812
73.92000 6.512
73.94000 4.104
73.96000 1.123
73.98000 1.002
74.00000 2.260
74.02000 6.248
74.04000 3.426
74.06000 2.880
74.08000 3.939
74.10000 4.511
74.12000 4.884
74.14000 4.555
74.16000 5.012
74.18000 0.855
74.20000 1.958
74.22000 1.198
74.24000 5.579
74.26000 4.445
74.28000 1.654
74.30000 -0.303
74.32000 1.227
74.34000 3.498
74.36000 -1.299
74.38000 -2.217
74.40000 1.396
74.42000 1.518
74.44000 2.056
74.46000 4.247
74.48000 1.265
74.50000 2.863
74.52000 -1.246
74.54000 -2.221
74.56000 3.848
74.58000 2.525
74.60000 4.095
74.62000 7.452
74.64000 6.280
74.66000 0.959
74.68000 0.499
74.70000 2.802
74.72000 1.290
74.74000 3.259
74.76000 3.002
74.78000 0.862
74.80000 1.150
74.82000 2.963
74.84000 5.717
74.86000 5.531
74.88000 4.835
74.90000 6.012
74.92000 5.203
74.94000 6.239
74.96000 3.898
74.98000 4.536
75.00000 3.451
75.02000 2.076
75.04000 0.911
75.06000 0.911
75.08000 -2.220
75.10000 -1.038
75.12000 1.327
75.14000 2.903
75.16000 4.203
75.18000 1.623
75.20000 3.709
75.22000 4.538
75.24000 2.572
75.26000 2.858
75.28000 -0.543
75.30000 1.026
75.32000 3.590
75.34000 4.690
75.36000 6.340
75.38000 5.801
75.40000 5.772
75.42000 -0.312
75.44000 1.648
75.46000 1.179
75.48000 0.476
75.50000 1.071
75.52000 3.632
75.54000 5.320
75.56000 4.998
75.58000 2.618
75.60000 2.140
75.62000 0.691
75.64000 -0.089
75.66000 2.325
75.68000 3.007
75.70000 2.277
75.72000 1.975
75.74000 2.315
75.76000 3.942
75.78000 3.509
75.80000 2.358
75.82000 2.628
75.84000 1.562
75.86000 3.406
75.88000 1.786
75.90000 4.299
75.92000 0.076
75.94000 0.202
75.96000 -1.662
75.98000 -2.247
76.00000 -2.007
76.02000 -0.985
76.04000 1.752
76.06000 -0.165
76.08000 0.235
76.10000 1.704
76.12000 2.928
76.14000 1.167
76.16000 0.647
76.18000 4.778
76.20000 3.397
76.22000 0.212
76.24000 0.894
76.26000 1.249
76.28000 0.394
76.30000 3.869
76.32000 2.407
76.34000 -0.931
76.36000 0.894
76.38000 -1.767
76.40000 0.904
76.42000 2.598
76.44000 -0.528
76.46000 -1.183
76.48000 -2.256
76.50000 -0.179
76.52000 0.786
76.54000 4.124
76.56000 1.801
76.58000 2.478
76.60000 4.377
76.62000 2.059
76.64000 1.639
76.66000 3.008
76.68000 -0.549
76.70000 -0.758
76.72000 2.015
76.74000 0.525
76.76000 1.358
76.78000 2.066
76.80000 3.632
76.82000 2.176
76.84000 3.423
76.86000 2.772
76.88000 1.798
76.90000 0.890
76.92000 1.156
76.94000 0.200
76.96000 0.825
76.98000 3.209
77.00000 1.339
77.02000 1.020
77.04000 0.538
77.06000 3.721
77.08000 2.910
77.10000 5.313
77.12000 3.130
77.14000 3.592
77.16000 0.699
77.18000 3.638
77.20000 4.324
77.22000 1.421
77.24000 -0.848
77.26000 -0.938
77.28000 1.097
77.30000 0.660
77.32000 0.355
77.34000 3.034
77.36000 2.357
77.38000 2.092
77.40000 2.445
77.42000 4.152
77.44000 -0.844
77.46000 -0.093
77.48000 -0.045
77.50000 -1.435
77.52000 0.368
77.54000 4.354
77.56000 0.291
77.58000 3.590
77.60000 3.025
77.62000 -0.894
77.64000 -1.314
77.66000 0.347
77.68000 -2.280
77.70000 0.683
77.72000 -1.474
77.74000 -0.581
77.76000 2.676
77.78000 0.528
77.80000 2.443
77.82000 2.603
77.84000 0.739
77.86000 1.816
77.88000 3.271
77.90000 -0.809
77.92000 -0.166
77.94000 1.181
77.96000 0.021
77.98000 5.522
78.00000 2.166
78.02000 1.029
78.04000 -0.500
78.06000 0.832
78.08000 2.537
78.10000 -0.474
78.12000 1.596
78.14000 -0.141
78.16000 -0.943
78.18000 -0.507
78.20000 -2.020
78.22000 -0.220
78.24000 -2.185
78.26000 -2.001
78.28000 0.125
78.30000 -2.143
78.32000 0.605
78.34000 1.707
78.36000 0.604
78.38000 -0.874
78.40000 -0.153
78.42000 0.552
78.44000 3.300
78.46000 1.057
78.48000 2.018
78.50000 -0.721
78.52000 0.325
78.54000 0.577
78.56000 -0.018
78.58000 0.566
78.60000 1.451
78.62000 -0.683
78.64000 -2.286
78.66000 -1.251
78.68000 2.185
78.70000 2.004
78.72000 5.090
78.74000 3.060
78.76000 2.903
78.78000 2.815
78.80000 3.517
78.82000 -1.707
78.84000 1.584
78.86000 1.082
78.88000 3.761
78.90000 0.838
78.92000 2.081
78.94000 6.861
78.96000 6.093
78.98000 3.757
79.00000 3.277
79.02000 -0.183
79.04000 2.423
79.06000 4.423
79.08000 3.902
79.10000 3.158
79.12000 5.313
79.14000 3.024
79.16000 1.839
79.18000 1.502
79.20000 2.823
79.22000 4.230
79.24000 4.758
79.26000 4.073
79.28000 2.630
79.30000 -2.277
79.32000 -1.734
79.34000 -1.759
79.36000 1.791
79.38000 5.350
79.40000 3.743
79.42000 6.665
79.44000 1.874
79.46000 0.194
79.48000 0.557
79.50000 3.506
79.52000 -0.634
79.54000 -0.692
79.56000 1.013
79.58000 3.472
79.60000 2.906
79.62000 -0.568
79.64000 2.762
79.66000 3.301
79.68000 1.236
79.70000 4.663
79.72000 3.452
79.74000 -0.111
79.76000 3.288
79.78000 8.377
79.80000 4.407
79.82000 3.607
79.84000 3.482
79.86000 5.833
79.88000 1.758
79.90000 0.990
79.92000 0.558
79.94000 1.791
79.96000 -0.740
79.98000 -0.549
80.00000 1.144
80.02000 5.111
80.04000 5.882
80.06000 1.771
80.08000 1.341
80.10000 0.571
80.12000 1.478
80.14000 3.600
80.16000 3.205
80.18000 2.562
80.20000 2.689
80.22000 5.433
80.24000 5.045
80.26000 8.520
80.28000 6.814
80.30000 4.837
80.32000 6.523
80.34000 6.181
80.36000 3.841
80.38000 1.040
80.40000 2.979
80.42000 1.929
80.44000 0.652
80.46000 -2.280
80.48000 2.749
80.50000 5.763
80.52000 2.172
80.54000 4.597
80.56000 3.490
80.58000 5.523
80.60000 5.223
80.62000 8.082
80.64000 9.073
80.66000 4.566
80.68000 6.389
80.70000 7.516
80.72000 6.032
80.74000 1.312
80.76000 4.231
80.78000 2.422
80.80000 7.849
80.82000 5.846
80.84000 3.492
80.86000 3.512
80.88000 4.475
80.90000 2.860
80.92000 7.133
80.94000 4.753
80.96000 2.217
80.98000 6.922
81.00000 4.447
81.02000 1.896
81.04000 0.602
81.06000 2.075
81.08000 2.383
81.10000 7.824
81.12000 3.240
81.14000 0.516
81.16000 6.080
81.18000 8.745
81.20000 5.736
81.22000 4.184
81.24000 -2.332
81.26000 -0.575
81.28000 3.659
81.30000 2.655
81.32000 -1.254
81.34000 1.206
81.36000 6.593
81.38000 5.977
81.40000 2.973
81.42000 2.455
81.44000 6.658
81.46000 9.535
81.48000 5.383
81.50000 1.829
81.52000 3.783
81.54000 3.867
81.56000 3.729
81.58000 3.455
81.60000 5.077
81.62000 6.255
81.64000 5.073
81.66000 7.080
81.68000 6.577
81.70000 5.728
81.72000 4.278
81.74000 4.249
81.76000 3.954
81.78000 4.216
81.80000 2.439
81.82000 6.396
81.84000 9.461
81.86000 7.691
81.88000 7.754
81.90000 6.716
81.92000 3.241
81.94000 4.247
81.96000 4.245
81.98000 6.415
82.00000 6.987
82.02000 8.232
82.04000 8.896
82.06000 8.570
82.08000 9.942
82.10000 8.603
82.12000 11.540
82.14000 7.849
82.16000 7.847
82.18000 7.176
82.20000 6.847
82.22000 7.966
82.24000 6.084
82.26000 7.993
82.28000 8.296
82.30000 9.130
82.32000 11.763
82.34000 13.317
82.36000 13.043
82.38000 9.341
82.40000 13.248
82.42000 14.266
82.44000 12.105
82.46000 11.855
82.48000 11.067
82.50000 10.418
82.52000 12.615
82.54000 9.438
82.56000 13.160
82.58000 16.924
82.60000 12.803
82.62000 7.017
82.64000 9.795
82.66000 11.022
82.68000 11.019
82.70000 15.268
82.72000 17.533
82.74000 19.079
82.76000 21.723
82.78000 15.108
82.80000 15.764
82.82000 15.683
82.84000 15.464
82.86000 12.887
82.88000 10.510
82.90000 16.173
82.92000 14.762
82.94000 14.838
82.96000 20.562
82.98000 18.454
83.00000 14.215
83.02000 17.672
83.04000 16.622
83.06000 18.571
83.08000 23.526
83.10000 21.569
83.12000 17.360
83.14000 18.131
83.16000 22.483
83.18000 21.112
83.20000 19.764
83.22000 21.420
83.24000 23.369
83.26000 20.967
83.28000 21.021
83.30000 24.108
83.32000 23.918
83.34000 25.336
83.36000 21.358
83.38000 22.909
83.40000 27.248
83.42000 23.038
83.44000 26.762
83.46000 26.009
83.48000 23.880
83.50000 24.814
83.52000 27.638
83.54000 27.242
83.56000 28.461
83.58000 26.656
83.60000 23.323
83.62000 24.425
83.64000 25.200
83.66000 28.245
83.68000 27.172
83.70000 23.856
83.72000 23.737
83.74000 25.026
83.76000 22.632
83.78000 21.330
83.80000 22.364
83.82000 20.000
83.84000 21.065
83.86000 27.191
83.88000 30.050
83.90000 26.691
83.92000 21.368
83.94000 22.081
83.96000 21.850
83.98000 21.015
84.00000 18.267
84.02000 20.120
84.04000 20.662
84.06000 19.547
84.08000 18.689
84.10000 16.877
84.12000 14.327
84.14000 11.925
84.16000 17.277
84.18000 17.182
84.20000 15.769
84.22000 19.526
84.24000 14.858
84.26000 15.884
84.28000 15.979
84.30000 14.039
84.32000 9.934
84.34000 11.153
84.36000 13.374
84.38000 12.988
84.40000 9.296
84.42000 11.080
84.44000 13.918
84.46000 15.475
84.48000 10.226
84.50000 7.006
84.52000 6.913
84.54000 11.843
84.56000 10.550
84.58000 11.676
84.60000 7.538
84.62000 7.942
84.64000 9.923
84.66000 9.292
84.68000 4.975
84.70000 6.145
84.72000 10.233
84.74000 10.431
84.76000 8.484
84.78000 7.031
84.80000 10.034
84.82000 10.508
84.84000 10.497
84.86000 4.457
84.88000 3.892
84.90000 5.511
84.92000 10.755
84.94000 9.417
84.96000 6.425
84.98000 3.963
85.00000 2.326
85.02000 3.869
85.04000 5.849
85.06000 4.883
85.08000 8.496
85.10000 8.188
85.12000 4.404
85.14000 5.061
85.16000 4.389
85.18000 7.616
85.20000 8.518
85.22000 5.072
85.24000 10.472
85.26000 11.094
85.28000 8.835
85.30000 4.899
85.32000 5.800
85.34000 5.312
85.36000 1.617
85.38000 4.142
85.40000 0.661
85.42000 1.469
85.44000 2.170
85.46000 -2.274
85.48000 -0.480
85.50000 3.868
85.52000 1.380
85.54000 2.528
85.56000 1.369
85.58000 5.650
85.60000 3.954
85.62000 1.729
85.64000 4.274
85.66000 5.385
85.68000 7.311
85.70000 6.667
85.72000 4.111
85.74000 3.889
85.76000 4.363
85.78000 6.065
85.80000 3.122
85.82000 2.435
85.84000 3.425
85.86000 2.732
85.88000 5.136
85.90000 2.624
85.92000 2.205
85.94000 1.827
85.96000 2.154
85.98000 -0.126
86.00000 1.756
86.02000 2.763
86.04000 4.984
86.06000 4.222
86.08000 3.685
86.10000 2.340
86.12000 0.415
86.14000 5.092
86.16000 4.945
86.18000 5.498
86.20000 8.633
86.22000 5.521
86.24000 4.911
86.26000 3.251
86.28000 3.483
86.30000 3.977
86.32000 3.432
86.34000 2.075
86.36000 1.387
86.38000 -1.298
86.40000 4.119
86.42000 5.648
86.44000 2.755
86.46000 5.606
86.48000 6.640
86.50000 4.393
86.52000 1.393
86.54000 0.276
86.56000 1.871
86.58000 0.325
86.60000 -2.339
86.62000 0.192
86.64000 6.156
86.66000 9.113
86.68000 5.767
86.70000 3.425
86.72000 4.323
86.74000 7.991
86.76000 7.601
86.78000 3.548
86.80000 3.338
86.82000 2.791
86.84000 8.778
86.86000 9.699
86.88000 3.472
86.90000 8.575
86.92000 11.484
86.94000 7.726
86.96000 4.662
86.98000 6.159
87.00000 6.553
87.02000 2.678
87.04000 4.704
87.06000 3.825
87.08000 0.142
87.10000 2.924
87.12000 4.920
87.14000 6.043
87.16000 8.227
87.18000 13.364
87.20000 11.613
87.22000 8.765
87.24000 11.332
87.26000 14.149
87.28000 8.363
87.30000 5.472
87.32000 7.396
87.34000 13.078
87.36000 12.206
87.38000 6.573
87.40000 10.614
87.42000 15.762
87.44000 13.053
87.46000 17.034
87.48000 13.999
87.50000 10.220
87.52000 13.628
87.54000 12.761
87.56000 11.831
87.58000 11.236
87.60000 16.836
87.62000 15.559
87.64000 11.076
87.66000 16.148
87.68000 16.085
87.70000 12.289
87.72000 15.320
87.74000 19.699
87.76000 21.001
87.78000 19.985
87.80000 16.390
87.82000 19.583
87.84000 19.131
87.86000 18.287
87.88000 19.164
87.90000 18.631
87.92000 17.196
87.94000 14.822
87.96000 19.051
87.98000 17.362
88.00000 17.482
88.02000 22.331
88.04000 18.256
88.06000 16.489
88.08000 18.928
88.10000 22.176
88.12000 22.004
88.14000 17.014
88.16000 16.503
88.18000 13.711
88.20000 18.759
88.22000 18.912
88.24000 20.923
88.26000 27.036
88.28000 20.675
88.30000 16.541
88.32000 19.285
88.34000 17.494
88.36000 18.264
88.38000 17.142
88.40000 14.164
88.42000 14.555
88.44000 14.982
88.46000 13.736
88.48000 13.769
88.50000 13.168
88.52000 17.777
88.54000 16.763
88.56000 14.627
88.58000 14.021
88.60000 11.536
88.62000 8.833
88.64000 7.987
88.66000 12.389
88.68000 14.612
88.70000 7.699
88.72000 8.355
88.74000 6.652
88.76000 11.104
88.78000 10.200
88.80000 8.609
88.82000 11.094
88.84000 6.635
88.86000 3.730
88.88000 11.187
88.90000 12.298
88.92000 9.360
88.94000 8.546
88.96000 7.921
88.98000 5.117
89.00000 -0.999
89.02000 3.322
89.04000 4.769
89.06000 2.752
89.08000 3.417
89.10000 3.382
89.12000 2.122
89.14000 -0.667
89.16000 -0.453
89.18000 3.368
89.20000 7.223
89.22000 7.243
89.24000 0.896
89.26000 2.754
89.28000 2.901
89.30000 3.790
89.32000 4.089
89.34000 5.191
89.36000 6.165
89.38000 4.081
89.40000 3.835
89.42000 6.196
89.44000 6.836
89.46000 3.815
89.48000 3.558
89.50000 5.160
89.52000 1.724
89.54000 1.820
89.56000 5.940
89.58000 7.092
89.60000 7.535
89.62000 3.648
89.64000 2.889
89.66000 2.450
89.68000 -1.157
89.70000 4.030
89.72000 6.715
89.74000 6.347
89.76000 2.991
89.78000 2.990
89.80000 1.125
89.82000 0.632
89.84000 0.942
89.86000 -1.407
89.88000 -0.468
89.90000 -0.219
89.92000 2.104
89.94000 -2.187
89.96000 -1.275
89.98000 3.939
90.00000 4.705
90.02000 2.621
90.04000 2.729
90.06000 4.439
90.08000 3.541
90.10000 -1.075
90.12000 1.054
90.14000 2.079
90.16000 -2.010
90.18000 -1.376
90.20000 -2.145
90.22000 3.021
90.24000 3.253
90.26000 2.466
90.28000 6.399
90.30000 8.702
90.32000 5.992
90.34000 5.696
90.36000 1.791
90.38000 3.866
90.40000 1.472
90.42000 0.631
90.44000 0.784
90.46000 4.208
90.48000 3.816
90.50000 0.815
90.52000 0.788
90.54000 0.691
90.56000 0.549
90.58000 -0.300
90.60000 0.768
90.62000 0.101
90.64000 1.035
90.66000 -1.496
90.68000 1.005
90.70000 3.673
90.72000 0.675
90.74000 2.960
90.76000 6.714
90.78000 5.077
90.80000 1.554
90.82000 1.349
90.84000 1.560
90.86000 3.566
90.88000 3.458
90.90000 6.002
90.92000 6.864
90.94000 -1.831
90.96000 0.208
90.98000 5.918
91.00000 3.085
91.02000 4.320
91.04000 3.277
91.06000 4.486
91.08000 6.760
91.10000 7.280
91.12000 4.290
91.14000 5.048
91.16000 4.901
91.18000 4.382
91.20000 0.090
91.22000 0.361
91.24000 -1.171
91.26000 -1.653
91.28000 -2.097
91.30000 4.402
91.32000 1.714
91.34000 0.891
91.36000 4.044
91.38000 2.957
91.40000 2.989
91.42000 4.097
91.44000 5.118
91.46000 3.133
91.48000 4.122
91.50000 5.091
91.52000 7.100
91.54000 4.853
91.56000 1.107
91.58000 2.497
91.60000 5.375
91.62000 5.183
91.64000 2.687
91.66000 3.738
91.68000 0.926
91.70000 4.642
91.72000 8.765
91.74000 5.035
91.76000 -0.653
91.78000 6.677
91.80000 2.886
91.82000 1.764
91.84000 8.218
91.86000 6.456
91.88000 5.400
91.90000 3.444
91.92000 6.044
91.94000 4.337
91.96000 -0.060
91.98000 3.597
92.00000 6.793
92.02000 4.943
92.04000 0.794
92.06000 2.804
92.08000 1.343
92.10000 3.360
92.12000 5.459
92.14000 4.035
92.16000 5.091
92.18000 4.888
92.20000 4.762
92.22000 8.122
92.24000 12.048
92.26000 7.230
92.28000 3.124
92.30000 0.181
92.32000 1.827
92.34000 1.766
92.36000 -2.121
92.38000 4.017
92.40000 3.713
92.42000 0.788
92.44000 -0.841
92.46000 3.473
92.48000 6.867
92.50000 5.030
92.52000 4.072
92.54000 3.166
92.56000 7.150
92.58000 7.644
92.60000 2.166
92.62000 3.104
92.64000 2.010
92.66000 0.878
92.68000 4.686
92.70000 1.047
92.72000 1.626
92.74000 7.917
92.76000 4.405
92.78000 4.077
92.80000 3.023
92.82000 3.180
92.84000 6.256
92.86000 4.994
92.88000 3.953
92.90000 6.574
92.92000 9.659
92.94000 6.090
92.96000 -0.311
92.98000 5.584
93.00000 0.950
93.02000 1.283
93.04000 1.980
93.06000 -2.109
93.08000 0.620
93.10000 2.804
93.12000 3.564
93.14000 6.392
93.16000 8.739
93.18000 4.968
93.20000 6.984
93.22000 8.089
93.24000 3.663
93.26000 3.893
93.28000 6.316
93.30000 5.587
93.32000 8.075
93.34000 7.152
93.36000 6.242
93.38000 4.768
93.40000 3.144
93.42000 2.522
93.44000 -0.495
93.46000 1.907
93.48000 1.930
93.50000 2.931
93.52000 5.689
93.54000 3.221
93.56000 6.991
93.58000 6.947
93.60000 4.260
93.62000 7.119
93.64000 2.143
93.66000 1.852
93.68000 -0.281
93.70000 0.376
93.72000 4.512
93.74000 0.752
93.76000 -1.075
93.78000 3.242
93.80000 6.754
93.82000 8.765
93.84000 4.951
93.86000 0.505
93.88000 1.106
93.90000 4.019
93.92000 5.219
93.94000 8.193
93.96000 6.294
93.98000 2.991
94.00000 2.229
94.02000 2.126
94.04000 7.138
94.06000 4.701
94.08000 5.347
94.10000 5.260
94.12000 9.334
94.14000 6.665
94.16000 5.532
94.18000 4.448
94.20000 4.506
94.22000 4.570
94.24000 -1.261
94.26000 1.838
94.28000 1.718
94.30000 2.146
94.32000 0.935
94.34000 3.218
94.36000 4.224
94.38000 1.877
94.40000 1.220
94.42000 -2.059
94.44000 0.318
94.46000 0.657
94.48000 1.128
94.50000 5.978
94.52000 6.892
94.54000 6.205
94.56000 5.435
94.58000 4.267
94.60000 4.316
94.62000 5.958
94.64000 9.816
94.66000 6.682
94.68000 3.594
94.70000 -0.370
94.72000 2.173
94.74000 6.266
94.76000 7.194
94.78000 4.326
94.80000 4.272
94.82000 8.003
94.84000 5.955
94.86000 1.633
94.88000 4.438
94.90000 0.896
94.92000 2.480
94.94000 6.152
94.96000 6.848
94.98000 6.747
95.00000 4.642
95.02000 5.361
95.04000 7.338
95.06000 1.109
95.08000 -0.223
95.10000 0.050
95.12000 0.663
95.14000 0.532
95.16000 -0.179
95.18000 1.473
95.20000 -0.210
95.22000 8.216
95.24000 7.034
95.26000 3.738
95.28000 5.878
95.30000 3.080
95.32000 2.888
95.34000 2.546
95.36000 2.986
95.38000 1.049
95.40000 1.089
95.42000 4.588
95.44000 4.963
95.46000 4.431
95.48000 3.309
95.50000 3.153
95.52000 5.927
95.54000 5.724
95.56000 7.392
95.58000 5.164
95.60000 3.945
95.62000 4.729
95.64000 7.370
95.66000 4.917
95.68000 -0.861
95.70000 2.575
95.72000 2.959
95.74000 2.238
95.76000 -2.138
95.78000 -0.749
95.80000 2.546
95.82000 4.716
95.84000 4.053
95.86000 6.713
95.88000 7.080
95.90000 5.594
95.92000 5.628
95.94000 7.266
95.96000 1.662
95.98000 0.907
96.00000 6.071
96.02000 6.549
96.04000 7.249
96.06000 3.105
96.08000 -1.375
96.10000 3.472
96.12000 3.141
96.14000 1.077
96.16000 8.077
96.18000 8.878
96.20000 6.588
96.22000 1.898
96.24000 6.084
96.26000 4.187
96.28000 3.495
96.30000 -1.203
96.32000 1.117
96.34000 3.602
96.36000 5.346
96.38000 7.378
96.40000 5.243
96.42000 2.715
96.44000 5.678
96.46000 1.842
96.48000 1.903
96.50000 2.423
96.52000 1.452
96.54000 1.175
96.56000 7.009
96.58000 4.218
96.60000 0.652
96.62000 2.260
96.64000 7.119
96.66000 4.461
96.68000 7.008
96.70000 -0.125
96.72000 1.465
96.74000 8.024
96.76000 5.925
96.78000 6.873
96.80000 4.760
96.82000 4.126
96.84000 -2.102
96.86000 4.528
96.88000 10.560
96.90000 6.583
96.92000 6.423
96.94000 3.196
96.96000 5.608
96.98000 6.081
97.00000 5.319
97.02000 11.128
97.04000 6.005
97.06000 1.509
97.08000 5.813
97.10000 0.225
97.12000 -1.365
97.14000 -1.933
97.16000 1.275
97.18000 3.938
97.20000 12.381
97.22000 9.919
97.24000 2.440
97.26000 1.712
97.28000 2.451
97.30000 1.648
97.32000 3.133
97.34000 6.105
97.36000 2.305
97.38000 11.125
97.40000 11.183
97.42000 7.568
97.44000 6.354
97.46000 3.237
97.48000 6.423
97.50000 7.405
97.52000 5.757
97.54000 4.191
97.56000 5.464
97.58000 1.348
97.60000 6.616
97.62000 4.391
97.64000 -2.095
97.66000 1.814
97.68000 1.280
97.70000 5.798
97.72000 10.385
97.74000 8.678
97.76000 4.457
97.78000 1.396
97.80000 0.302
97.82000 8.036
97.84000 7.620
97.86000 5.108
97.88000 5.451
97.90000 2.922
97.92000 1.446
97.94000 1.940
97.96000 -1.617
97.98000 0.438
98.00000 0.698
98.02000 4.989
98.04000 -0.387
98.06000 9.598
98.08000 8.377
98.10000 8.844
98.12000 5.301
98.14000 2.284
98.16000 0.724
98.18000 1.940
98.20000 3.619
98.22000 5.561
98.24000 0.135
98.26000 -2.089
98.28000 6.211
98.30000 10.325
98.32000 4.147
98.34000 3.367
98.36000 4.173
98.38000 -0.138
98.40000 1.846
98.42000 2.962
98.44000 1.972
98.46000 4.186
98.48000 4.588
98.50000 2.478
98.52000 3.019
98.54000 4.469
98.56000 11.255
98.58000 10.890
98.60000 3.269
98.62000 10.233
98.64000 12.120
98.66000 6.045
98.68000 3.362
98.70000 7.573
98.72000 5.010
98.74000 3.279
98.76000 8.639
98.78000 4.205
98.80000 -0.923
98.82000 1.333
98.84000 1.482
98.86000 3.010
98.88000 -1.190
98.90000 -0.349
98.92000 -1.001
98.94000 5.154
98.96000 9.732
98.98000 7.727
99.00000 12.533
99.02000 8.760
99.04000 5.799
99.06000 6.773
99.08000 7.263
99.10000 4.592
99.12000 5.774
99.14000 10.278
99.16000 8.600
99.18000 5.923
99.20000 6.100
99.22000 5.926
99.24000 10.694
99.26000 14.581
99.28000 -2.889
99.30000 -2.036
99.32000 9.513
99.34000 9.459
99.36000 11.197
99.38000 9.071
99.40000 5.093
99.42000 10.428
99.44000 2.832
99.46000 5.366
99.48000 15.298
99.50000 13.942
99.52000 11.489
99.54000 8.802
99.56000 6.611
99.58000 4.928
99.60000 15.417
99.62000 16.551
99.64000 9.928
99.66000 9.136
99.68000 7.710
99.70000 4.635
99.72000 0.535
99.74000 4.193
99.76000 10.844
99.78000 -0.863
99.80000 3.565
99.82000 13.919
99.84000 13.745
99.86000 2.446
99.88000 11.659
99.90000 11.148
99.92000 13.338
99.94000 11.706
99.96000 5.932
99.98000 0.000
