'Id: "0011389" Comment: "Integrate frame 0011389_Au-Ir-Rh_Au-Rich_XRD_Mapping-024-0000.gfrmwith cursor Wedge Cursor #5" Operator: "B?rgel" Anode: "Cu" Wavelength: "1.5406" Scantype: "2Theta (TwoTheta)" TimePerStep: "1" X: "-31.5" Y: "-31.5" Z: "5.95" 
10.00000 0.000
10.02000 3.495
10.04000 4.847
10.06000 15.122
10.08000 8.096
10.10000 12.803
10.12000 5.424
10.14000 -0.942
10.16000 9.464
10.18000 3.186
10.20000 -4.611
10.22000 9.639
10.24000 18.336
10.26000 22.530
10.28000 13.240
10.30000 22.551
10.32000 20.422
10.34000 -4.328
10.36000 -4.538
10.38000 5.343
10.40000 23.008
10.42000 19.738
10.44000 13.456
10.46000 21.840
10.48000 11.605
10.50000 0.738
10.52000 13.283
10.54000 10.536
10.56000 20.689
10.58000 20.169
10.60000 11.206
10.62000 18.731
10.64000 20.292
10.66000 15.393
10.68000 -4.231
10.70000 5.160
10.72000 18.955
10.74000 13.697
10.76000 20.522
10.78000 25.991
10.80000 14.999
10.82000 1.122
10.84000 5.040
10.86000 4.294
10.88000 4.954
10.90000 19.018
10.92000 17.688
10.94000 17.666
10.96000 30.779
10.98000 20.463
11.00000 7.475
11.02000 15.485
11.04000 8.691
11.06000 15.175
11.08000 14.617
11.10000 19.088
11.12000 14.194
11.14000 1.076
11.16000 -3.995
11.18000 1.268
11.20000 3.398
11.22000 2.720
11.24000 5.959
11.26000 11.795
11.28000 16.796
11.30000 16.299
11.32000 11.922
11.34000 5.471
11.36000 16.935
11.38000 21.400
11.40000 13.695
11.42000 12.687
11.44000 19.072
11.46000 22.424
11.48000 21.439
11.50000 9.952
11.52000 -4.496
11.54000 -0.679
11.56000 15.286
11.58000 23.292
11.60000 21.344
11.62000 13.837
11.64000 12.058
11.66000 12.050
11.68000 12.585
11.70000 15.855
11.72000 1.983
11.74000 2.316
11.76000 13.806
11.78000 21.752
11.80000 18.978
11.82000 2.578
11.84000 -2.803
11.86000 -1.483
11.88000 5.368
11.90000 9.142
11.92000 25.680
11.94000 13.779
11.96000 6.009
11.98000 1.600
12.00000 -3.361
12.02000 8.116
12.04000 16.272
12.06000 13.305
12.08000 1.674
12.10000 9.230
12.12000 7.333
12.14000 8.119
12.16000 17.652
12.18000 7.480
12.20000 0.568
12.22000 5.007
12.24000 9.928
12.26000 7.299
12.28000 4.480
12.30000 0.636
12.32000 9.938
12.34000 9.269
12.36000 1.598
12.38000 5.601
12.40000 19.296
12.42000 17.286
12.44000 8.321
12.46000 12.831
12.48000 16.987
12.50000 25.708
12.52000 6.804
12.54000 7.035
12.56000 3.336
12.58000 0.247
12.60000 1.711
12.62000 7.089
12.64000 10.085
12.66000 7.138
12.68000 16.187
12.70000 19.039
12.72000 13.734
12.74000 5.966
12.76000 6.424
12.78000 6.604
12.80000 2.755
12.82000 3.015
12.84000 2.557
12.86000 -1.611
12.88000 1.661
12.90000 6.070
12.92000 7.700
12.94000 -3.833
12.96000 -0.297
12.98000 -0.282
13.00000 7.518
13.02000 14.656
13.04000 9.532
13.06000 -0.940
13.08000 1.399
13.10000 7.795
13.12000 -4.510
13.14000 5.491
13.16000 8.084
13.18000 12.185
13.20000 15.496
13.22000 15.792
13.24000 7.634
13.26000 3.658
13.28000 7.582
13.30000 3.595
13.32000 6.570
13.34000 6.096
13.36000 14.750
13.38000 13.551
13.40000 8.548
13.42000 0.921
13.44000 5.252
13.46000 7.173
13.48000 1.127
13.50000 6.555
13.52000 6.860
13.54000 19.779
13.56000 19.319
13.58000 13.117
13.60000 13.074
13.62000 4.065
13.64000 1.802
13.66000 0.889
13.68000 0.398
13.70000 -2.341
13.72000 10.283
13.74000 9.745
13.76000 0.546
13.78000 4.549
13.80000 1.532
13.82000 13.278
13.84000 9.787
13.86000 4.510
13.88000 -4.505
13.90000 3.972
13.92000 9.909
13.94000 7.613
13.96000 4.062
13.98000 9.755
14.00000 5.472
14.02000 5.733
14.04000 2.547
14.06000 1.084
14.08000 -2.645
14.10000 3.107
14.12000 9.782
14.14000 3.519
14.16000 5.183
14.18000 7.100
14.20000 5.811
14.22000 4.776
14.24000 4.301
14.26000 2.474
14.28000 -0.573
14.30000 0.324
14.32000 -0.292
14.34000 3.013
14.36000 0.864
14.38000 -2.497
14.40000 6.430
14.42000 5.111
14.44000 1.744
14.46000 9.696
14.48000 2.695
14.50000 -1.893
14.52000 4.618
14.54000 6.904
14.56000 7.464
14.58000 6.535
14.60000 4.237
14.62000 0.475
14.64000 -2.007
14.66000 6.732
14.68000 5.834
14.70000 -0.021
14.72000 5.799
14.74000 -0.192
14.76000 -0.927
14.78000 1.968
14.80000 2.685
14.82000 6.787
14.84000 3.564
14.86000 3.187
14.88000 -2.825
14.90000 5.449
14.92000 9.286
14.94000 2.547
14.96000 8.687
14.98000 7.510
15.00000 2.093
15.02000 -4.294
15.04000 3.917
15.06000 3.496
15.08000 5.289
15.10000 2.673
15.12000 -2.371
15.14000 5.574
15.16000 6.599
15.18000 1.410
15.20000 4.677
15.22000 -0.819
15.24000 3.182
15.26000 6.861
15.28000 8.873
15.30000 6.949
15.32000 -2.658
15.34000 5.336
15.36000 12.077
15.38000 5.859
15.40000 5.515
15.42000 5.956
15.44000 2.641
15.46000 -1.936
15.48000 5.795
15.50000 5.647
15.52000 3.027
15.54000 -1.786
15.56000 -0.656
15.58000 -2.528
15.60000 1.730
15.62000 9.221
15.64000 2.199
15.66000 1.493
15.68000 -1.200
15.70000 0.232
15.72000 5.723
15.74000 1.671
15.76000 -3.108
15.78000 -0.022
15.80000 7.405
15.82000 6.684
15.84000 6.121
15.86000 11.180
15.88000 10.802
15.90000 10.095
15.92000 12.373
15.94000 1.206
15.96000 3.081
15.98000 2.510
16.00000 2.730
16.02000 -1.222
16.04000 5.029
16.06000 5.385
16.08000 1.719
16.10000 5.081
16.12000 12.678
16.14000 14.214
16.16000 12.151
16.18000 10.635
16.20000 6.849
16.22000 3.234
16.24000 2.904
16.26000 3.900
16.28000 7.510
16.30000 7.514
16.32000 10.806
16.34000 11.446
16.36000 6.972
16.38000 -4.377
16.40000 0.170
16.42000 -0.415
16.44000 -0.324
16.46000 8.098
16.48000 15.094
16.50000 11.346
16.52000 5.750
16.54000 1.657
16.56000 1.570
16.58000 3.588
16.60000 10.022
16.62000 14.207
16.64000 15.749
16.66000 11.947
16.68000 4.637
16.70000 2.162
16.72000 3.073
16.74000 3.447
16.76000 2.787
16.78000 6.543
16.80000 9.988
16.82000 8.138
16.84000 7.098
16.86000 -0.006
16.88000 7.466
16.90000 12.136
16.92000 9.251
16.94000 7.459
16.96000 5.040
16.98000 4.327
17.00000 4.616
17.02000 13.713
17.04000 17.093
17.06000 15.475
17.08000 8.323
17.10000 5.763
17.12000 6.794
17.14000 3.024
17.16000 2.690
17.18000 3.339
17.20000 6.888
17.22000 7.569
17.24000 -3.354
17.26000 -4.005
17.28000 0.175
17.30000 4.140
17.32000 6.875
17.34000 5.124
17.36000 1.770
17.38000 2.892
17.40000 5.903
17.42000 6.124
17.44000 4.261
17.46000 2.370
17.48000 7.195
17.50000 13.992
17.52000 6.204
17.54000 -2.053
17.56000 3.437
17.58000 8.925
17.60000 8.759
17.62000 3.169
17.64000 0.951
17.66000 6.406
17.68000 7.809
17.70000 8.929
17.72000 16.142
17.74000 9.068
17.76000 0.889
17.78000 3.884
17.80000 12.268
17.82000 4.697
17.84000 -4.307
17.86000 3.095
17.88000 7.382
17.90000 2.665
17.92000 2.751
17.94000 5.846
17.96000 6.495
17.98000 0.219
18.00000 6.869
18.02000 2.364
18.04000 1.888
18.06000 -4.052
18.08000 -2.919
18.10000 4.975
18.12000 3.031
18.14000 10.251
18.16000 12.747
18.18000 6.646
18.20000 3.842
18.22000 4.265
18.24000 2.461
18.26000 8.090
18.28000 1.833
18.30000 3.555
18.32000 10.253
18.34000 4.917
18.36000 1.001
18.38000 1.245
18.40000 -0.621
18.42000 7.911
18.44000 0.879
18.46000 7.792
18.48000 2.913
18.50000 6.674
18.52000 4.128
18.54000 3.196
18.56000 -1.166
18.58000 -4.271
18.60000 0.155
18.62000 7.241
18.64000 9.937
18.66000 6.953
18.68000 3.697
18.70000 -3.682
18.72000 2.291
18.74000 6.697
18.76000 3.471
18.78000 6.350
18.80000 1.141
18.82000 -1.884
18.84000 -0.956
18.86000 4.012
18.88000 4.789
18.90000 8.283
18.92000 6.241
18.94000 6.290
18.96000 5.007
18.98000 1.743
19.00000 3.413
19.02000 4.314
19.04000 10.812
19.06000 8.882
19.08000 3.995
19.10000 4.913
19.12000 9.179
19.14000 8.232
19.16000 2.580
19.18000 -3.293
19.20000 4.632
19.22000 7.864
19.24000 8.916
19.26000 9.443
19.28000 -2.225
19.30000 -0.754
19.32000 8.762
19.34000 1.509
19.36000 -3.568
19.38000 -0.037
19.40000 -0.621
19.42000 0.750
19.44000 0.164
19.46000 4.756
19.48000 5.190
19.50000 12.374
19.52000 7.050
19.54000 5.726
19.56000 6.806
19.58000 4.500
19.60000 4.363
19.62000 0.278
19.64000 3.500
19.66000 2.859
19.68000 5.224
19.70000 3.343
19.72000 -0.534
19.74000 4.332
19.76000 8.825
19.78000 10.341
19.80000 10.480
19.82000 2.202
19.84000 -4.018
19.86000 -3.423
19.88000 -0.326
19.90000 1.976
19.92000 0.520
19.94000 8.887
19.96000 10.798
19.98000 6.464
20.00000 2.939
20.02000 1.078
20.04000 -4.156
20.06000 0.190
20.08000 0.947
20.10000 7.308
20.12000 10.132
20.14000 11.858
20.16000 11.473
20.18000 11.409
20.20000 8.631
20.22000 7.062
20.24000 5.921
20.26000 1.985
20.28000 1.720
20.30000 6.306
20.32000 9.777
20.34000 1.987
20.36000 1.441
20.38000 -0.500
20.40000 -1.261
20.42000 1.180
20.44000 5.107
20.46000 9.550
20.48000 5.571
20.50000 1.855
20.52000 -0.512
20.54000 2.501
20.56000 4.381
20.58000 1.323
20.60000 0.233
20.62000 6.617
20.64000 13.420
20.66000 7.326
20.68000 5.711
20.70000 -0.736
20.72000 -1.569
20.74000 2.958
20.76000 3.522
20.78000 -2.074
20.80000 3.218
20.82000 4.202
20.84000 6.987
20.86000 6.690
20.88000 0.766
20.90000 -1.002
20.92000 -1.414
20.94000 -2.876
20.96000 -4.122
20.98000 2.377
21.00000 3.203
21.02000 3.552
21.04000 2.633
21.06000 8.999
21.08000 8.641
21.10000 12.984
21.12000 6.409
21.14000 4.997
21.16000 7.100
21.18000 5.741
21.20000 2.970
21.22000 9.651
21.24000 6.323
21.26000 1.301
21.28000 1.972
21.30000 9.947
21.32000 6.251
21.34000 0.063
21.36000 3.942
21.38000 5.881
21.40000 3.593
21.42000 8.146
21.44000 12.441
21.46000 11.588
21.48000 10.164
21.50000 3.435
21.52000 4.785
21.54000 11.701
21.56000 6.250
21.58000 5.014
21.60000 -1.077
21.62000 -0.097
21.64000 5.440
21.66000 5.976
21.68000 2.648
21.70000 7.975
21.72000 7.972
21.74000 6.363
21.76000 6.437
21.78000 4.591
21.80000 5.216
21.82000 3.115
21.84000 8.895
21.86000 8.744
21.88000 5.397
21.90000 3.061
21.92000 5.646
21.94000 8.763
21.96000 1.779
21.98000 4.371
22.00000 8.066
22.02000 7.054
22.04000 5.410
22.06000 3.875
22.08000 9.493
22.10000 6.672
22.12000 1.286
22.14000 6.004
22.16000 5.622
22.18000 2.495
22.20000 0.604
22.22000 5.166
22.24000 10.926
22.26000 6.278
22.28000 3.897
22.30000 -1.662
22.32000 0.924
22.34000 11.188
22.36000 11.842
22.38000 11.822
22.40000 5.848
22.42000 5.111
22.44000 -4.003
22.46000 -1.352
22.48000 -2.550
22.50000 -0.276
22.52000 2.582
22.54000 2.173
22.56000 8.062
22.58000 3.713
22.60000 4.037
22.62000 3.205
22.64000 5.574
22.66000 4.885
22.68000 3.806
22.70000 4.543
22.72000 3.560
22.74000 7.910
22.76000 5.840
22.78000 3.392
22.80000 1.863
22.82000 -0.369
22.84000 2.177
22.86000 4.437
22.88000 5.176
22.90000 0.358
22.92000 7.055
22.94000 9.376
22.96000 9.742
22.98000 8.714
23.00000 9.021
23.02000 3.155
23.04000 2.186
23.06000 7.891
23.08000 5.261
23.10000 2.404
23.12000 2.326
23.14000 0.839
23.16000 6.178
23.18000 13.202
23.20000 6.513
23.22000 9.340
23.24000 8.631
23.26000 5.388
23.28000 -1.037
23.30000 2.489
23.32000 5.214
23.34000 4.356
23.36000 3.678
23.38000 5.427
23.40000 1.385
23.42000 3.809
23.44000 4.767
23.46000 1.943
23.48000 -2.143
23.50000 -0.867
23.52000 6.356
23.54000 4.869
23.56000 1.665
23.58000 2.554
23.60000 5.962
23.62000 2.771
23.64000 2.158
23.66000 2.034
23.68000 0.187
23.70000 0.982
23.72000 2.772
23.74000 5.025
23.76000 -0.191
23.78000 1.174
23.80000 1.957
23.82000 -3.980
23.84000 -2.732
23.86000 -2.548
23.88000 5.360
23.90000 2.918
23.92000 -0.220
23.94000 -0.298
23.96000 -3.954
23.98000 5.182
24.00000 3.495
24.02000 -2.899
24.04000 -0.768
24.06000 3.626
24.08000 6.739
24.10000 3.199
24.12000 -0.309
24.14000 -3.882
24.16000 6.995
24.18000 2.664
24.20000 -2.591
24.22000 2.050
24.24000 1.242
24.26000 -0.282
24.28000 2.475
24.30000 2.246
24.32000 2.576
24.34000 2.790
24.36000 7.632
24.38000 5.414
24.40000 6.287
24.42000 4.652
24.44000 5.084
24.46000 3.207
24.48000 0.248
24.50000 0.502
24.52000 -0.450
24.54000 -3.938
24.56000 1.546
24.58000 0.452
24.60000 -0.846
24.62000 3.917
24.64000 -1.888
24.66000 -1.943
24.68000 -1.744
24.70000 -0.330
24.72000 4.282
24.74000 4.212
24.76000 -1.094
24.78000 -2.199
24.80000 -3.780
24.82000 -2.917
24.84000 2.511
24.86000 5.024
24.88000 2.812
24.90000 0.448
24.92000 2.988
24.94000 7.536
24.96000 4.768
24.98000 1.424
25.00000 -1.518
25.02000 -3.274
25.04000 0.478
25.06000 2.871
25.08000 0.022
25.10000 3.609
25.12000 2.056
25.14000 1.540
25.16000 0.585
25.18000 4.194
25.20000 2.084
25.22000 0.643
25.24000 2.267
25.26000 1.611
25.28000 -1.460
25.30000 -3.885
25.32000 -2.639
25.34000 -0.904
25.36000 1.820
25.38000 9.052
25.40000 5.546
25.42000 1.566
25.44000 2.490
25.46000 3.112
25.48000 0.475
25.50000 -2.979
25.52000 2.771
25.54000 2.946
25.56000 -1.045
25.58000 -1.878
25.60000 -3.701
25.62000 -1.570
25.64000 2.591
25.66000 3.857
25.68000 3.656
25.70000 -1.937
25.72000 -2.970
25.74000 0.007
25.76000 7.854
25.78000 1.582
25.80000 -1.738
25.82000 2.287
25.84000 2.130
25.86000 -1.728
25.88000 -2.322
25.90000 -0.239
25.92000 -1.812
25.94000 -3.168
25.96000 -1.328
25.98000 -1.573
26.00000 -0.558
26.02000 0.494
26.04000 -1.205
26.06000 3.287
26.08000 2.266
26.10000 1.905
26.12000 4.928
26.14000 1.173
26.16000 -2.967
26.18000 -3.118
26.20000 -0.327
26.22000 -2.557
26.24000 -2.417
26.26000 0.156
26.28000 4.250
26.30000 6.472
26.32000 -0.261
26.34000 -2.840
26.36000 2.018
26.38000 2.291
26.40000 2.047
26.42000 -0.559
26.44000 0.452
26.46000 1.266
26.48000 1.990
26.50000 -1.190
26.52000 0.089
26.54000 1.969
26.56000 3.036
26.58000 8.189
26.60000 5.305
26.62000 4.992
26.64000 -0.850
26.66000 -3.825
26.68000 0.530
26.70000 0.310
26.72000 2.751
26.74000 7.029
26.76000 2.557
26.78000 0.082
26.80000 2.574
26.82000 5.874
26.84000 5.561
26.86000 5.761
26.88000 4.780
26.90000 3.203
26.92000 6.218
26.94000 4.438
26.96000 4.619
26.98000 5.675
27.00000 6.635
27.02000 7.426
27.04000 3.694
27.06000 3.890
27.08000 -2.237
27.10000 -0.379
27.12000 3.335
27.14000 -1.164
27.16000 -3.799
27.18000 1.687
27.20000 6.266
27.22000 4.517
27.24000 7.951
27.26000 2.472
27.28000 2.778
27.30000 3.862
27.32000 -0.485
27.34000 -1.493
27.36000 -2.242
27.38000 2.811
27.40000 10.209
27.42000 6.714
27.44000 2.910
27.46000 4.253
27.48000 4.941
27.50000 0.351
27.52000 4.942
27.54000 3.623
27.56000 5.010
27.58000 12.331
27.60000 8.963
27.62000 8.100
27.64000 5.209
27.66000 0.924
27.68000 -1.059
27.70000 3.261
27.72000 7.604
27.74000 2.773
27.76000 3.237
27.78000 4.533
27.80000 -0.312
27.82000 -3.275
27.84000 0.175
27.86000 4.126
27.88000 5.150
27.90000 6.941
27.92000 3.165
27.94000 3.115
27.96000 2.298
27.98000 1.755
28.00000 1.940
28.02000 1.083
28.04000 6.306
28.06000 3.119
28.08000 -2.402
28.10000 -1.153
28.12000 0.269
28.14000 -1.099
28.16000 -3.730
28.18000 -0.891
28.20000 7.611
28.22000 1.735
28.24000 5.973
28.26000 4.194
28.28000 6.222
28.30000 2.444
28.32000 5.204
28.34000 7.414
28.36000 3.691
28.38000 7.181
28.40000 1.316
28.42000 -1.348
28.44000 4.303
28.46000 -1.332
28.48000 -0.124
28.50000 2.888
28.52000 2.957
28.54000 2.977
28.56000 1.731
28.58000 5.291
28.60000 6.921
28.62000 3.926
28.64000 4.339
28.66000 0.303
28.68000 -1.891
28.70000 0.206
28.72000 -3.726
28.74000 -1.155
28.76000 -1.931
28.78000 2.325
28.80000 -0.786
28.82000 0.095
28.84000 -0.415
28.86000 -2.044
28.88000 -0.173
28.90000 -0.417
28.92000 3.649
28.94000 7.279
28.96000 5.673
28.98000 10.893
29.00000 6.597
29.02000 5.527
29.04000 2.834
29.06000 2.568
29.08000 0.616
29.10000 -0.248
29.12000 -0.752
29.14000 -2.763
29.16000 -0.682
29.18000 2.279
29.20000 3.308
29.22000 3.553
29.24000 -2.840
29.26000 -3.572
29.28000 0.527
29.30000 -0.698
29.32000 -0.231
29.34000 0.675
29.36000 0.718
29.38000 0.298
29.40000 2.426
29.42000 -1.753
29.44000 -3.119
29.46000 1.137
29.48000 4.593
29.50000 5.788
29.52000 2.802
29.54000 0.565
29.56000 0.423
29.58000 -2.167
29.60000 -3.693
29.62000 -2.704
29.64000 -2.975
29.66000 0.330
29.68000 -0.463
29.70000 1.012
29.72000 2.479
29.74000 3.911
29.76000 2.754
29.78000 2.024
29.80000 3.219
29.82000 4.856
29.84000 6.335
29.86000 1.532
29.88000 -0.751
29.90000 -1.969
29.92000 0.172
29.94000 2.024
29.96000 2.610
29.98000 3.481
30.00000 2.657
30.02000 2.426
30.04000 -0.347
30.06000 0.719
30.08000 -3.153
30.10000 -1.339
30.12000 1.266
30.14000 -2.119
30.16000 0.942
30.18000 3.375
30.20000 0.867
30.22000 -2.632
30.24000 8.136
30.26000 3.922
30.28000 -1.372
30.30000 -0.140
30.32000 0.268
30.34000 4.251
30.36000 4.136
30.38000 3.180
30.40000 3.835
30.42000 4.260
30.44000 1.800
30.46000 0.436
30.48000 -1.189
30.50000 -2.424
30.52000 3.814
30.54000 11.587
30.56000 7.467
30.58000 4.877
30.60000 9.473
30.62000 6.624
30.64000 6.042
30.66000 3.310
30.68000 1.543
30.70000 -3.602
30.72000 1.959
30.74000 5.185
30.76000 6.203
30.78000 2.112
30.80000 3.699
30.82000 8.583
30.84000 7.774
30.86000 4.752
30.88000 1.747
30.90000 1.354
30.92000 1.781
30.94000 1.775
30.96000 0.714
30.98000 -1.342
31.00000 0.397
31.02000 -1.895
31.04000 2.537
31.06000 -1.474
31.08000 -0.456
31.10000 -0.883
31.12000 -2.601
31.14000 3.382
31.16000 7.172
31.18000 5.813
31.20000 2.807
31.22000 1.443
31.24000 5.198
31.26000 4.095
31.28000 8.747
31.30000 6.013
31.32000 4.730
31.34000 3.047
31.36000 0.596
31.38000 2.750
31.40000 1.209
31.42000 5.220
31.44000 2.566
31.46000 3.803
31.48000 2.868
31.50000 -0.863
31.52000 -1.722
31.54000 -3.577
31.56000 -0.950
31.58000 2.605
31.60000 1.350
31.62000 3.890
31.64000 6.229
31.66000 2.986
31.68000 2.308
31.70000 2.921
31.72000 4.756
31.74000 8.121
31.76000 4.227
31.78000 -1.307
31.80000 1.627
31.82000 8.240
31.84000 8.940
31.86000 5.013
31.88000 7.022
31.90000 10.219
31.92000 5.006
31.94000 1.801
31.96000 0.818
31.98000 -0.912
32.00000 -2.751
32.02000 1.847
32.04000 2.434
32.06000 1.033
32.08000 -0.403
32.10000 1.654
32.12000 1.783
32.14000 1.911
32.16000 6.387
32.18000 2.135
32.20000 0.541
32.22000 1.026
32.24000 -2.950
32.26000 3.104
32.28000 8.175
32.30000 0.492
32.32000 -3.571
32.34000 -2.926
32.36000 0.207
32.38000 -1.206
32.40000 0.209
32.42000 -0.140
32.44000 0.069
32.46000 3.346
32.48000 2.018
32.50000 -0.951
32.52000 -0.439
32.54000 -1.600
32.56000 -1.225
32.58000 0.280
32.60000 -1.353
32.62000 0.939
32.64000 0.628
32.66000 0.727
32.68000 1.778
32.70000 -2.398
32.72000 -1.450
32.74000 1.214
32.76000 4.106
32.78000 2.059
32.80000 -3.025
32.82000 2.420
32.84000 6.138
32.86000 11.518
32.88000 8.350
32.90000 3.212
32.92000 0.920
32.94000 2.987
32.96000 0.703
32.98000 0.314
33.00000 0.867
33.02000 5.832
33.04000 5.025
33.06000 2.021
33.08000 -1.317
33.10000 0.800
33.12000 6.035
33.14000 4.221
33.16000 2.362
33.18000 1.200
33.20000 1.894
33.22000 5.842
33.24000 2.710
33.26000 2.166
33.28000 -0.603
33.30000 -3.559
33.32000 0.201
33.34000 2.493
33.36000 -0.572
33.38000 -0.967
33.40000 2.708
33.42000 2.774
33.44000 1.135
33.46000 -0.953
33.48000 -1.145
33.50000 -0.032
33.52000 -0.487
33.54000 -2.745
33.56000 2.365
33.58000 8.017
33.60000 1.966
33.62000 1.995
33.64000 1.102
33.66000 3.854
33.68000 5.230
33.70000 4.599
33.72000 3.464
33.74000 5.990
33.76000 6.259
33.78000 6.349
33.80000 2.575
33.82000 2.985
33.84000 6.094
33.86000 9.747
33.88000 10.153
33.90000 12.079
33.92000 10.622
33.94000 8.050
33.96000 3.725
33.98000 1.189
34.00000 -2.068
34.02000 0.163
34.04000 2.712
34.06000 1.762
34.08000 0.111
34.10000 4.500
34.12000 3.993
34.14000 0.569
34.16000 1.244
34.18000 5.035
34.20000 5.723
34.22000 1.064
34.24000 4.337
34.26000 6.621
34.28000 3.310
34.30000 2.593
34.32000 4.865
34.34000 7.167
34.36000 3.347
34.38000 5.749
34.40000 5.586
34.42000 3.840
34.44000 4.714
34.46000 -1.006
34.48000 1.439
34.50000 11.455
34.52000 13.794
34.54000 11.724
34.56000 3.619
34.58000 6.075
34.60000 9.154
34.62000 8.020
34.64000 -3.480
34.66000 -3.119
34.68000 0.894
34.70000 3.342
34.72000 4.429
34.74000 4.839
34.76000 4.185
34.78000 2.175
34.80000 6.596
34.82000 10.807
34.84000 5.528
34.86000 3.982
34.88000 2.636
34.90000 2.629
34.92000 8.591
34.94000 9.195
34.96000 7.004
34.98000 4.029
35.00000 1.917
35.02000 6.684
35.04000 12.361
35.06000 9.297
35.08000 4.554
35.10000 -3.470
35.12000 -0.377
35.14000 6.679
35.16000 2.681
35.18000 0.138
35.20000 5.903
35.22000 4.759
35.24000 -1.330
35.26000 4.223
35.28000 3.982
35.30000 4.319
35.32000 2.108
35.34000 5.540
35.36000 9.067
35.38000 5.655
35.40000 2.772
35.42000 -0.072
35.44000 -0.620
35.46000 1.238
35.48000 1.171
35.50000 0.915
35.52000 3.685
35.54000 6.587
35.56000 2.916
35.58000 5.804
35.60000 0.107
35.62000 3.249
35.64000 2.109
35.66000 3.829
35.68000 1.031
35.70000 1.180
35.72000 6.236
35.74000 3.430
35.76000 -0.031
35.78000 -0.270
35.80000 0.482
35.82000 4.351
35.84000 4.768
35.86000 4.179
35.88000 3.636
35.90000 5.591
35.92000 4.124
35.94000 1.904
35.96000 1.358
35.98000 5.689
36.00000 5.237
36.02000 7.086
36.04000 4.820
36.06000 2.713
36.08000 1.375
36.10000 3.849
36.12000 2.541
36.14000 5.652
36.16000 7.076
36.18000 2.267
36.20000 2.546
36.22000 4.214
36.24000 2.129
36.26000 1.381
36.28000 3.468
36.30000 5.132
36.32000 6.515
36.34000 1.568
36.36000 0.587
36.38000 -2.037
36.40000 -3.083
36.42000 2.703
36.44000 -0.850
36.46000 -2.960
36.48000 -0.398
36.50000 2.714
36.52000 4.723
36.54000 3.808
36.56000 7.120
36.58000 1.474
36.60000 -2.796
36.62000 1.954
36.64000 3.885
36.66000 6.436
36.68000 8.759
36.70000 6.141
36.72000 1.530
36.74000 -1.031
36.76000 1.933
36.78000 5.093
36.80000 -1.694
36.82000 -3.533
36.84000 -0.453
36.86000 7.172
36.88000 3.054
36.90000 3.206
36.92000 0.052
36.94000 3.950
36.96000 7.382
36.98000 8.385
37.00000 6.005
37.02000 9.970
37.04000 9.915
37.06000 6.335
37.08000 3.502
37.10000 2.266
37.12000 2.794
37.14000 3.809
37.16000 -0.492
37.18000 -0.298
37.20000 4.612
37.22000 9.710
37.24000 7.303
37.26000 8.110
37.28000 10.165
37.30000 7.652
37.32000 6.066
37.34000 1.717
37.36000 7.789
37.38000 12.810
37.40000 10.275
37.42000 7.698
37.44000 6.949
37.46000 8.993
37.48000 10.975
37.50000 6.423
37.52000 4.182
37.54000 11.330
37.56000 11.555
37.58000 13.530
37.60000 11.599
37.62000 5.412
37.64000 13.337
37.66000 14.160
37.68000 10.307
37.70000 10.708
37.72000 7.600
37.74000 10.181
37.76000 12.253
37.78000 15.059
37.80000 15.540
37.82000 17.494
37.84000 15.098
37.86000 14.437
37.88000 15.148
37.90000 14.974
37.92000 16.943
37.94000 18.051
37.96000 17.364
37.98000 15.752
38.00000 17.239
38.02000 21.132
38.04000 22.117
38.06000 25.698
38.08000 25.105
38.10000 25.816
38.12000 22.424
38.14000 23.723
38.16000 29.883
38.18000 30.896
38.20000 28.350
38.22000 30.034
38.24000 30.239
38.26000 36.049
38.28000 37.782
38.30000 37.244
38.32000 31.363
38.34000 35.023
38.36000 42.831
38.38000 37.736
38.40000 34.757
38.42000 38.398
38.44000 43.674
38.46000 43.771
38.48000 43.978
38.50000 49.998
38.52000 50.530
38.54000 49.545
38.56000 49.163
38.58000 54.467
38.60000 55.039
38.62000 60.534
38.64000 58.237
38.66000 62.937
38.68000 63.891
38.70000 64.880
38.72000 68.597
38.74000 69.886
38.76000 76.096
38.78000 79.149
38.80000 78.909
38.82000 83.429
38.84000 93.305
38.86000 95.996
38.88000 96.495
38.90000 104.341
38.92000 105.725
38.94000 111.839
38.96000 114.628
38.98000 121.939
39.00000 129.271
39.02000 139.135
39.04000 144.635
39.06000 154.528
39.08000 164.840
39.10000 176.250
39.12000 185.686
39.14000 192.349
39.16000 200.047
39.18000 208.416
39.20000 225.712
39.22000 247.966
39.24000 259.536
39.26000 274.953
39.28000 287.646
39.30000 300.661
39.32000 320.085
39.34000 343.000
39.36000 365.576
39.38000 387.977
39.40000 412.399
39.42000 433.147
39.44000 462.594
39.46000 497.903
39.48000 515.045
39.50000 535.604
39.52000 563.839
39.54000 596.753
39.56000 617.267
39.58000 638.363
39.60000 662.686
39.62000 688.265
39.64000 705.711
39.66000 725.752
39.68000 745.243
39.70000 757.583
39.72000 773.050
39.74000 779.569
39.76000 778.115
39.78000 778.313
39.80000 785.725
39.82000 782.782
39.84000 770.793
39.86000 757.758
39.88000 747.323
39.90000 741.418
39.92000 725.104
39.94000 705.125
39.96000 694.718
39.98000 679.334
40.00000 651.271
40.02000 613.555
40.04000 605.336
40.06000 585.190
40.08000 565.897
40.10000 539.753
40.12000 511.532
40.14000 486.952
40.16000 450.922
40.18000 422.233
40.20000 404.183
40.22000 370.621
40.24000 349.271
40.26000 329.662
40.28000 312.752
40.30000 292.521
40.32000 271.655
40.34000 248.058
40.36000 237.843
40.38000 221.607
40.40000 209.767
40.42000 204.617
40.44000 180.848
40.46000 163.027
40.48000 154.466
40.50000 149.122
40.52000 139.583
40.54000 126.141
40.56000 117.866
40.58000 114.025
40.60000 109.926
40.62000 101.508
40.64000 95.486
40.66000 95.115
40.68000 87.967
40.70000 78.947
40.72000 73.375
40.74000 71.519
40.76000 65.903
40.78000 63.921
40.80000 62.418
40.82000 59.924
40.84000 54.821
40.86000 51.342
40.88000 49.828
40.90000 44.963
40.92000 40.730
40.94000 37.972
40.96000 38.419
40.98000 36.254
41.00000 35.462
41.02000 32.332
41.04000 32.216
41.06000 31.901
41.08000 33.532
41.10000 30.766
41.12000 27.070
41.14000 27.843
41.16000 22.106
41.18000 21.359
41.20000 25.394
41.22000 21.305
41.24000 18.579
41.26000 21.450
41.28000 18.370
41.30000 18.495
41.32000 20.984
41.34000 17.085
41.36000 16.084
41.38000 12.801
41.40000 10.643
41.42000 9.591
41.44000 9.573
41.46000 9.500
41.48000 6.869
41.50000 8.412
41.52000 7.964
41.54000 8.303
41.56000 12.961
41.58000 11.866
41.60000 11.544
41.62000 6.394
41.64000 3.567
41.66000 4.552
41.68000 2.823
41.70000 2.502
41.72000 4.544
41.74000 4.495
41.76000 7.552
41.78000 6.365
41.80000 5.117
41.82000 5.389
41.84000 7.378
41.86000 5.119
41.88000 3.555
41.90000 1.952
41.92000 4.677
41.94000 2.483
41.96000 5.004
41.98000 5.599
42.00000 4.324
42.02000 -0.572
42.04000 1.805
42.06000 4.417
42.08000 1.284
42.10000 -2.550
42.12000 -3.444
42.14000 0.016
42.16000 2.017
42.18000 2.792
42.20000 2.276
42.22000 4.502
42.24000 4.811
42.26000 4.253
42.28000 2.533
42.30000 3.114
42.32000 0.685
42.34000 0.306
42.36000 1.438
42.38000 2.287
42.40000 1.109
42.42000 6.216
42.44000 4.041
42.46000 1.839
42.48000 0.939
42.50000 3.184
42.52000 2.307
42.54000 4.376
42.56000 3.107
42.58000 1.685
42.60000 5.054
42.62000 4.506
42.64000 -0.271
42.66000 -1.465
42.68000 0.281
42.70000 1.104
42.72000 3.169
42.74000 0.699
42.76000 1.323
42.78000 0.641
42.80000 1.091
42.82000 1.999
42.84000 2.433
42.86000 5.010
42.88000 0.563
42.90000 -3.298
42.92000 -2.509
42.94000 -0.152
42.96000 -1.021
42.98000 -1.954
43.00000 -1.080
43.02000 3.785
43.04000 0.685
43.06000 -0.438
43.08000 1.189
43.10000 1.148
43.12000 1.906
43.14000 1.087
43.16000 1.444
43.18000 3.903
43.20000 0.034
43.22000 0.096
43.24000 0.779
43.26000 4.762
43.28000 3.066
43.30000 -0.303
43.32000 -3.254
43.34000 -0.418
43.36000 3.242
43.38000 -1.756
43.40000 -0.613
43.42000 -0.090
43.44000 1.003
43.46000 3.300
43.48000 3.898
43.50000 2.815
43.52000 1.759
43.54000 4.321
43.56000 2.030
43.58000 1.308
43.60000 1.149
43.62000 1.470
43.64000 -0.942
43.66000 0.938
43.68000 2.811
43.70000 1.108
43.72000 1.554
43.74000 -1.164
43.76000 -0.032
43.78000 1.718
43.80000 4.118
43.82000 5.707
43.84000 6.556
43.86000 6.990
43.88000 1.425
43.90000 -3.208
43.92000 -2.551
43.94000 1.798
43.96000 3.697
43.98000 1.246
44.00000 3.569
44.02000 3.480
44.04000 2.811
44.06000 4.667
44.08000 3.789
44.10000 3.901
44.12000 1.565
44.14000 -0.097
44.16000 -1.542
44.18000 -0.624
44.20000 -2.085
44.22000 -0.313
44.24000 -0.671
44.26000 0.112
44.28000 1.542
44.30000 2.462
44.32000 -1.102
44.34000 -3.170
44.36000 -1.746
44.38000 3.606
44.40000 1.891
44.42000 1.974
44.44000 2.663
44.46000 -0.653
44.48000 0.765
44.50000 0.882
44.52000 1.758
44.54000 0.568
44.56000 4.785
44.58000 3.385
44.60000 1.185
44.62000 2.327
44.64000 0.741
44.66000 0.704
44.68000 2.225
44.70000 3.859
44.72000 4.468
44.74000 2.979
44.76000 -0.589
44.78000 2.596
44.80000 6.218
44.82000 5.985
44.84000 7.288
44.86000 2.318
44.88000 1.713
44.90000 4.555
44.92000 4.586
44.94000 -0.850
44.96000 3.256
44.98000 9.172
45.00000 7.833
45.02000 6.811
45.04000 1.913
45.06000 3.674
45.08000 4.717
45.10000 1.551
45.12000 2.079
45.14000 4.787
45.16000 3.035
45.18000 4.178
45.20000 5.586
45.22000 7.715
45.24000 9.967
45.26000 8.349
45.28000 8.383
45.30000 6.733
45.32000 9.090
45.34000 14.810
45.36000 12.418
45.38000 14.181
45.40000 11.676
45.42000 10.701
45.44000 12.755
45.46000 17.579
45.48000 14.444
45.50000 12.367
45.52000 14.909
45.54000 19.828
45.56000 23.108
45.58000 18.594
45.60000 19.735
45.62000 19.413
45.64000 22.536
45.66000 23.014
45.68000 22.781
45.70000 21.227
45.72000 23.820
45.74000 30.097
45.76000 25.864
45.78000 27.924
45.80000 30.910
45.82000 29.596
45.84000 33.326
45.86000 32.385
45.88000 30.123
45.90000 33.827
45.92000 39.568
45.94000 45.475
45.96000 45.694
45.98000 42.825
46.00000 41.947
46.02000 43.575
46.04000 47.597
46.06000 49.903
46.08000 50.734
46.10000 56.379
46.12000 61.419
46.14000 58.056
46.16000 62.624
46.18000 69.163
46.20000 66.955
46.22000 59.645
46.24000 65.179
46.26000 74.703
46.28000 75.217
46.30000 75.943
46.32000 78.482
46.34000 83.247
46.36000 80.562
46.38000 83.105
46.40000 88.999
46.42000 85.890
46.44000 85.634
46.46000 82.840
46.48000 81.475
46.50000 82.075
46.52000 80.025
46.54000 82.263
46.56000 85.014
46.58000 81.456
46.60000 81.246
46.62000 81.109
46.64000 79.860
46.66000 76.627
46.68000 72.995
46.70000 75.532
46.72000 74.357
46.74000 69.684
46.76000 69.191
46.78000 67.372
46.80000 66.971
46.82000 63.889
46.84000 59.890
46.86000 55.964
46.88000 54.846
46.90000 47.276
46.92000 41.954
46.94000 40.550
46.96000 42.416
46.98000 39.954
47.00000 35.771
47.02000 35.642
47.04000 37.129
47.06000 37.195
47.08000 28.860
47.10000 29.230
47.12000 27.888
47.14000 26.534
47.16000 22.474
47.18000 19.091
47.20000 17.352
47.22000 15.490
47.24000 17.133
47.26000 16.629
47.28000 10.112
47.30000 9.981
47.32000 14.595
47.34000 12.083
47.36000 10.111
47.38000 11.877
47.40000 13.082
47.42000 5.228
47.44000 9.427
47.46000 10.492
47.48000 7.304
47.50000 2.710
47.52000 0.587
47.54000 1.701
47.56000 2.787
47.58000 1.173
47.60000 5.422
47.62000 4.661
47.64000 6.427
47.66000 5.170
47.68000 0.691
47.70000 -1.218
47.72000 2.875
47.74000 2.835
47.76000 -1.509
47.78000 0.318
47.80000 2.325
47.82000 0.906
47.84000 4.082
47.86000 4.252
47.88000 1.553
47.90000 2.918
47.92000 4.934
47.94000 2.022
47.96000 -2.842
47.98000 -0.890
48.00000 -0.340
48.02000 0.733
48.04000 -1.803
48.06000 -2.825
48.08000 1.077
48.10000 0.126
48.12000 0.346
48.14000 1.264
48.16000 3.286
48.18000 5.157
48.20000 1.650
48.22000 -1.194
48.24000 2.419
48.26000 -0.403
48.28000 -0.957
48.30000 -0.699
48.32000 1.444
48.34000 4.559
48.36000 1.257
48.38000 0.640
48.40000 1.295
48.42000 2.124
48.44000 2.469
48.46000 0.874
48.48000 1.434
48.50000 -2.745
48.52000 -0.159
48.54000 0.167
48.56000 -1.753
48.58000 -0.300
48.60000 1.366
48.62000 3.859
48.64000 1.086
48.66000 -1.207
48.68000 2.166
48.70000 0.409
48.72000 0.042
48.74000 -0.598
48.76000 -1.604
48.78000 -0.488
48.80000 2.129
48.82000 -2.192
48.84000 -2.607
48.86000 -2.478
48.88000 1.745
48.90000 1.126
48.92000 0.216
48.94000 -1.241
48.96000 0.985
48.98000 1.619
49.00000 -0.878
49.02000 0.967
49.04000 2.415
49.06000 0.003
49.08000 -2.665
49.10000 3.664
49.12000 0.815
49.14000 0.299
49.16000 1.619
49.18000 1.486
49.20000 1.394
49.22000 -0.921
49.24000 3.882
49.26000 3.886
49.28000 4.702
49.30000 1.577
49.32000 -0.356
49.34000 1.800
49.36000 -1.361
49.38000 -0.078
49.40000 2.639
49.42000 2.486
49.44000 0.295
49.46000 1.562
49.48000 0.302
49.50000 -1.777
49.52000 0.323
49.54000 0.367
49.56000 0.302
49.58000 3.740
49.60000 -0.453
49.62000 -1.775
49.64000 0.051
49.66000 3.145
49.68000 3.599
49.70000 4.174
49.72000 2.173
49.74000 1.783
49.76000 3.192
49.78000 5.113
49.80000 3.441
49.82000 4.529
49.84000 2.841
49.86000 0.746
49.88000 5.748
49.90000 4.962
49.92000 2.835
49.94000 6.551
49.96000 3.721
49.98000 1.897
50.00000 2.029
50.02000 3.853
50.04000 -0.283
50.06000 -0.488
50.08000 1.234
50.10000 2.819
50.12000 -2.600
50.14000 5.558
50.16000 8.368
50.18000 0.226
50.20000 -2.403
50.22000 -0.339
50.24000 -0.866
50.26000 2.143
50.28000 6.325
50.30000 5.900
50.32000 5.451
50.34000 3.872
50.36000 1.732
50.38000 2.377
50.40000 0.932
50.42000 3.241
50.44000 2.277
50.46000 1.909
50.48000 2.657
50.50000 1.262
50.52000 2.926
50.54000 4.238
50.56000 3.874
50.58000 2.975
50.60000 4.192
50.62000 3.109
50.64000 1.938
50.66000 5.579
50.68000 4.304
50.70000 1.383
50.72000 0.614
50.74000 3.989
50.76000 5.619
50.78000 0.740
50.80000 -1.752
50.82000 0.493
50.84000 -2.556
50.86000 -1.260
50.88000 -1.352
50.90000 0.227
50.92000 2.658
50.94000 2.828
50.96000 5.382
50.98000 6.146
51.00000 4.025
51.02000 4.414
51.04000 3.836
51.06000 6.103
51.08000 4.665
51.10000 4.718
51.12000 6.541
51.14000 0.791
51.16000 3.383
51.18000 4.361
51.20000 3.825
51.22000 4.894
51.24000 4.883
51.26000 2.374
51.28000 3.821
51.30000 3.126
51.32000 0.228
51.34000 -1.784
51.36000 0.441
51.38000 -2.561
51.40000 -1.388
51.42000 -1.941
51.44000 -0.642
51.46000 0.305
51.48000 5.394
51.50000 1.742
51.52000 -1.527
51.54000 -0.817
51.56000 1.512
51.58000 0.523
51.60000 2.529
51.62000 2.698
51.64000 3.322
51.66000 5.749
51.68000 3.930
51.70000 1.702
51.72000 0.613
51.74000 0.958
51.76000 0.858
51.78000 2.518
51.80000 1.921
51.82000 -0.468
51.84000 -0.731
51.86000 1.061
51.88000 3.684
51.90000 1.695
51.92000 -0.045
51.94000 1.051
51.96000 4.553
51.98000 2.248
52.00000 1.267
52.02000 -0.710
52.04000 2.694
52.06000 2.659
52.08000 6.414
52.10000 2.719
52.12000 1.956
52.14000 3.501
52.16000 0.787
52.18000 2.512
52.20000 1.490
52.22000 -0.037
52.24000 1.106
52.26000 3.094
52.28000 2.440
52.30000 2.333
52.32000 -1.235
52.34000 -1.209
52.36000 3.395
52.38000 2.448
52.40000 4.358
52.42000 4.479
52.44000 0.658
52.46000 -2.292
52.48000 -1.694
52.50000 0.703
52.52000 2.781
52.54000 1.931
52.56000 1.980
52.58000 0.572
52.60000 1.715
52.62000 2.582
52.64000 -1.136
52.66000 -1.590
52.68000 -0.627
52.70000 2.182
52.72000 4.507
52.74000 4.080
52.76000 0.749
52.78000 -1.708
52.80000 -0.789
52.82000 -2.278
52.84000 2.289
52.86000 4.193
52.88000 3.718
52.90000 1.378
52.92000 4.479
52.94000 1.365
52.96000 2.140
52.98000 3.121
53.00000 2.388
53.02000 2.926
53.04000 1.851
53.06000 -1.490
53.08000 -2.513
53.10000 -1.192
53.12000 -0.198
53.14000 0.804
53.16000 4.638
53.18000 2.579
53.20000 -0.409
53.22000 5.113
53.24000 5.871
53.26000 2.917
53.28000 6.420
53.30000 7.732
53.32000 5.463
53.34000 2.757
53.36000 4.834
53.38000 3.259
53.40000 -2.343
53.42000 -2.514
53.44000 1.026
53.46000 3.277
53.48000 0.245
53.50000 0.218
53.52000 1.627
53.54000 2.110
53.56000 -1.291
53.58000 0.413
53.60000 0.872
53.62000 2.528
53.64000 4.242
53.66000 0.787
53.68000 0.973
53.70000 3.249
53.72000 4.505
53.74000 4.233
53.76000 1.036
53.78000 -2.188
53.80000 0.412
53.82000 2.294
53.84000 3.656
53.86000 0.582
53.88000 3.687
53.90000 3.936
53.92000 3.157
53.94000 3.206
53.96000 2.060
53.98000 3.799
54.00000 4.648
54.02000 0.280
54.04000 -2.514
54.06000 1.222
54.08000 3.045
54.10000 0.461
54.12000 0.757
54.14000 2.246
54.16000 0.387
54.18000 -0.400
54.20000 -1.056
54.22000 -0.448
54.24000 1.914
54.26000 1.680
54.28000 0.113
54.30000 2.586
54.32000 4.214
54.34000 1.824
54.36000 2.949
54.38000 2.213
54.40000 2.580
54.42000 1.404
54.44000 2.051
54.46000 -0.499
54.48000 -1.478
54.50000 3.899
54.52000 0.894
54.54000 -2.250
54.56000 0.045
54.58000 -0.141
54.60000 0.331
54.62000 0.122
54.64000 0.425
54.66000 -0.818
54.68000 -0.228
54.70000 0.732
54.72000 1.130
54.74000 3.723
54.76000 2.087
54.78000 -1.667
54.80000 -0.580
54.82000 -0.550
54.84000 -0.807
54.86000 0.580
54.88000 0.098
54.90000 1.477
54.92000 1.538
54.94000 1.504
54.96000 3.650
54.98000 4.790
55.00000 5.147
55.02000 5.643
55.04000 4.873
55.06000 2.643
55.08000 0.662
55.10000 1.581
55.12000 2.452
55.14000 1.635
55.16000 -1.733
55.18000 0.054
55.20000 3.222
55.22000 0.069
55.24000 1.865
55.26000 2.260
55.28000 2.845
55.30000 5.413
55.32000 4.420
55.34000 4.022
55.36000 2.551
55.38000 -1.375
55.40000 -2.446
55.42000 -0.446
55.44000 0.838
55.46000 2.090
55.48000 -0.573
55.50000 1.411
55.52000 4.466
55.54000 4.659
55.56000 9.897
55.58000 6.037
55.60000 2.995
55.62000 3.448
55.64000 5.443
55.66000 6.487
55.68000 3.769
55.70000 2.736
55.72000 1.554
55.74000 4.060
55.76000 3.887
55.78000 2.668
55.80000 -1.734
55.82000 -0.669
55.84000 1.378
55.86000 3.167
55.88000 3.280
55.90000 4.487
55.92000 5.340
55.94000 5.406
55.96000 3.020
55.98000 2.419
56.00000 3.391
56.02000 3.566
56.04000 5.702
56.06000 8.028
56.08000 8.186
56.10000 7.025
56.12000 4.687
56.14000 1.025
56.16000 -2.373
56.18000 1.044
56.20000 8.316
56.22000 7.838
56.24000 9.258
56.26000 7.467
56.28000 6.593
56.30000 6.856
56.32000 6.077
56.34000 4.899
56.36000 5.219
56.38000 5.899
56.40000 3.404
56.42000 1.858
56.44000 2.361
56.46000 3.056
56.48000 4.534
56.50000 1.412
56.52000 1.069
56.54000 2.884
56.56000 4.730
56.58000 4.258
56.60000 2.446
56.62000 3.110
56.64000 4.765
56.66000 4.577
56.68000 4.364
56.70000 3.726
56.72000 2.335
56.74000 4.293
56.76000 4.627
56.78000 2.278
56.80000 5.007
56.82000 3.757
56.84000 2.188
56.86000 0.160
56.88000 -0.112
56.90000 0.596
56.92000 1.810
56.94000 0.033
56.96000 0.115
56.98000 2.938
57.00000 5.306
57.02000 5.937
57.04000 3.344
57.06000 -0.319
57.08000 4.158
57.10000 3.203
57.12000 0.818
57.14000 -0.711
57.16000 -1.488
57.18000 3.020
57.20000 2.161
57.22000 -0.971
57.24000 -1.715
57.26000 3.418
57.28000 2.546
57.30000 3.356
57.32000 5.728
57.34000 4.610
57.36000 2.611
57.38000 3.612
57.40000 3.204
57.42000 4.452
57.44000 5.487
57.46000 4.026
57.48000 -0.363
57.50000 -1.532
57.52000 1.383
57.54000 4.423
57.56000 2.969
57.58000 4.492
57.60000 2.200
57.62000 -1.469
57.64000 -0.056
57.66000 2.940
57.68000 1.654
57.70000 -0.954
57.72000 0.229
57.74000 1.349
57.76000 1.846
57.78000 3.174
57.80000 1.094
57.82000 -0.411
57.84000 -0.253
57.86000 1.885
57.88000 -2.058
57.90000 0.255
57.92000 0.711
57.94000 -0.895
57.96000 1.440
57.98000 0.503
58.00000 -0.639
58.02000 -0.746
58.04000 2.783
58.06000 0.133
58.08000 -1.418
58.10000 -0.079
58.12000 1.828
58.14000 3.352
58.16000 4.167
58.18000 2.044
58.20000 1.573
58.22000 3.072
58.24000 0.279
58.26000 2.817
58.28000 7.075
58.30000 6.193
58.32000 3.941
58.34000 1.564
58.36000 -0.367
58.38000 0.557
58.40000 -0.587
58.42000 -0.507
58.44000 1.615
58.46000 -0.645
58.48000 -1.374
58.50000 -2.361
58.52000 0.348
58.54000 3.038
58.56000 1.683
58.58000 0.227
58.60000 0.180
58.62000 0.427
58.64000 -0.034
58.66000 0.870
58.68000 -0.242
58.70000 -0.827
58.72000 0.730
58.74000 1.329
58.76000 6.139
58.78000 7.212
58.80000 4.509
58.82000 5.540
58.84000 3.510
58.86000 2.966
58.88000 6.078
58.90000 7.701
58.92000 5.942
58.94000 2.012
58.96000 4.046
58.98000 3.480
59.00000 0.090
59.02000 2.802
59.04000 2.868
59.06000 4.689
59.08000 1.161
59.10000 -2.316
59.12000 3.974
59.14000 2.909
59.16000 2.763
59.18000 2.513
59.20000 1.592
59.22000 4.566
59.24000 6.366
59.26000 4.016
59.28000 1.903
59.30000 -0.287
59.32000 1.517
59.34000 4.684
59.36000 6.054
59.38000 2.366
59.40000 5.354
59.42000 5.894
59.44000 -1.011
59.46000 2.363
59.48000 5.701
59.50000 5.080
59.52000 3.109
59.54000 0.493
59.56000 3.838
59.58000 0.872
59.60000 2.512
59.62000 2.094
59.64000 3.335
59.66000 4.455
59.68000 0.628
59.70000 1.465
59.72000 5.090
59.74000 5.559
59.76000 4.527
59.78000 6.359
59.80000 5.682
59.82000 5.602
59.84000 3.262
59.86000 2.051
59.88000 1.983
59.90000 1.709
59.92000 2.897
59.94000 3.913
59.96000 5.300
59.98000 1.799
60.00000 -0.561
60.02000 3.297
60.04000 5.183
60.06000 2.994
60.08000 2.082
60.10000 2.461
60.12000 1.190
60.14000 -0.487
60.16000 -0.822
60.18000 -1.226
60.20000 -0.196
60.22000 0.862
60.24000 1.209
60.26000 3.195
60.28000 2.291
60.30000 2.785
60.32000 1.542
60.34000 2.839
60.36000 1.865
60.38000 -1.656
60.40000 -0.697
60.42000 3.410
60.44000 2.105
60.46000 5.034
60.48000 7.383
60.50000 4.146
60.52000 -2.294
60.54000 2.162
60.56000 1.867
60.58000 3.448
60.60000 1.630
60.62000 0.264
60.64000 1.043
60.66000 1.089
60.68000 0.887
60.70000 -0.609
60.72000 1.281
60.74000 3.090
60.76000 -0.572
60.78000 -0.593
60.80000 1.442
60.82000 4.965
60.84000 3.393
60.86000 -0.977
60.88000 -1.247
60.90000 0.199
60.92000 -1.412
60.94000 2.834
60.96000 1.325
60.98000 2.753
61.00000 2.363
61.02000 -0.460
61.04000 1.096
61.06000 2.036
61.08000 -0.046
61.10000 0.150
61.12000 2.297
61.14000 2.071
61.16000 1.749
61.18000 1.147
61.20000 3.573
61.22000 -0.429
61.24000 0.196
61.26000 2.347
61.28000 1.731
61.30000 -0.472
61.32000 2.122
61.34000 2.296
61.36000 0.764
61.38000 1.142
61.40000 2.869
61.42000 3.538
61.44000 1.134
61.46000 1.523
61.48000 0.890
61.50000 -2.280
61.52000 -1.837
61.54000 0.626
61.56000 2.163
61.58000 3.143
61.60000 2.760
61.62000 3.516
61.64000 4.974
61.66000 2.483
61.68000 1.216
61.70000 1.934
61.72000 -0.319
61.74000 -2.101
61.76000 1.009
61.78000 0.970
61.80000 -1.655
61.82000 1.379
61.84000 5.123
61.86000 2.103
61.88000 1.997
61.90000 2.473
61.92000 4.695
61.94000 3.747
61.96000 0.841
61.98000 0.988
62.00000 -0.680
62.02000 -2.268
62.04000 0.862
62.06000 3.796
62.08000 2.325
62.10000 0.062
62.12000 -0.044
62.14000 0.327
62.16000 0.986
62.18000 -1.195
62.20000 -0.014
62.22000 0.657
62.24000 0.111
62.26000 2.735
62.28000 3.588
62.30000 -0.534
62.32000 -0.954
62.34000 -0.630
62.36000 0.090
62.38000 -1.409
62.40000 -1.823
62.42000 -1.232
62.44000 -0.269
62.46000 3.772
62.48000 5.398
62.50000 2.411
62.52000 0.205
62.54000 0.125
62.56000 1.976
62.58000 1.382
62.60000 3.186
62.62000 1.088
62.64000 2.344
62.66000 1.658
62.68000 1.038
62.70000 1.039
62.72000 -2.276
62.74000 -1.664
62.76000 2.220
62.78000 3.123
62.80000 3.139
62.82000 0.145
62.84000 2.425
62.86000 3.429
62.88000 5.018
62.90000 3.947
62.92000 2.918
62.94000 -0.962
62.96000 0.469
62.98000 0.846
63.00000 0.963
63.02000 -0.990
63.04000 0.392
63.06000 3.061
63.08000 3.757
63.10000 1.129
63.12000 1.792
63.14000 4.689
63.16000 3.846
63.18000 3.585
63.20000 1.168
63.22000 3.483
63.24000 0.632
63.26000 -2.261
63.28000 -2.071
63.30000 1.832
63.32000 3.975
63.34000 2.358
63.36000 1.058
63.38000 2.368
63.40000 3.864
63.42000 3.575
63.44000 0.824
63.46000 1.450
63.48000 4.792
63.50000 5.262
63.52000 0.361
63.54000 0.942
63.56000 1.575
63.58000 -1.268
63.60000 -2.245
63.62000 0.543
63.64000 2.923
63.66000 -1.395
63.68000 -0.127
63.70000 -1.211
63.72000 0.105
63.74000 1.951
63.76000 1.466
63.78000 -1.590
63.80000 -2.247
63.82000 0.484
63.84000 2.723
63.86000 3.196
63.88000 0.626
63.90000 4.843
63.92000 4.100
63.94000 4.652
63.96000 2.687
63.98000 2.293
64.00000 1.291
64.02000 -0.301
64.04000 0.137
64.06000 1.518
64.08000 1.019
64.10000 -0.405
64.12000 2.308
64.14000 6.751
64.16000 6.616
64.18000 5.595
64.20000 3.489
64.22000 3.298
64.24000 3.543
64.26000 3.714
64.28000 5.100
64.30000 4.424
64.32000 1.985
64.34000 -0.919
64.36000 0.561
64.38000 2.624
64.40000 2.902
64.42000 3.169
64.44000 0.436
64.46000 5.879
64.48000 4.182
64.50000 3.707
64.52000 6.203
64.54000 5.805
64.56000 4.898
64.58000 3.117
64.60000 5.280
64.62000 4.421
64.64000 3.876
64.66000 2.562
64.68000 -1.567
64.70000 -2.249
64.72000 0.631
64.74000 1.111
64.76000 1.400
64.78000 2.387
64.80000 -0.077
64.82000 3.094
64.84000 2.167
64.86000 1.701
64.88000 4.354
64.90000 2.158
64.92000 3.714
64.94000 3.443
64.96000 3.968
64.98000 1.014
65.00000 3.446
65.02000 4.084
65.04000 5.046
65.06000 3.151
65.08000 1.358
65.10000 -0.142
65.12000 -0.645
65.14000 -1.106
65.16000 1.095
65.18000 1.531
65.20000 3.674
65.22000 1.983
65.24000 -0.573
65.26000 0.096
65.28000 1.020
65.30000 -0.345
65.32000 2.558
65.34000 1.044
65.36000 0.969
65.38000 -1.478
65.40000 -0.391
65.42000 0.857
65.44000 1.981
65.46000 3.179
65.48000 1.632
65.50000 0.899
65.52000 -0.299
65.54000 -0.294
65.56000 0.063
65.58000 2.287
65.60000 4.150
65.62000 0.568
65.64000 0.272
65.66000 1.551
65.68000 2.134
65.70000 -0.645
65.72000 1.869
65.74000 3.117
65.76000 0.081
65.78000 1.153
65.80000 0.116
65.82000 -1.958
65.84000 -2.298
65.86000 0.315
65.88000 2.288
65.90000 1.570
65.92000 2.543
65.94000 4.258
65.96000 3.114
65.98000 1.045
66.00000 -0.778
66.02000 -0.472
66.04000 0.029
66.06000 0.292
66.08000 1.983
66.10000 1.497
66.12000 0.653
66.14000 -0.579
66.16000 0.872
66.18000 0.369
66.20000 0.055
66.22000 -0.186
66.24000 -1.461
66.26000 0.336
66.28000 1.735
66.30000 0.056
66.32000 -0.106
66.34000 2.091
66.36000 1.307
66.38000 1.071
66.40000 2.737
66.42000 2.473
66.44000 1.949
66.46000 0.763
66.48000 -2.346
66.50000 -0.905
66.52000 2.898
66.54000 2.478
66.56000 -0.472
66.58000 -1.011
66.60000 0.142
66.62000 2.440
66.64000 3.082
66.66000 -1.150
66.68000 0.318
66.70000 2.741
66.72000 1.002
66.74000 -0.713
66.76000 1.470
66.78000 1.644
66.80000 0.443
66.82000 2.390
66.84000 3.690
66.86000 2.192
66.88000 3.432
66.90000 2.120
66.92000 2.071
66.94000 2.178
66.96000 1.632
66.98000 1.650
67.00000 1.260
67.02000 -0.781
67.04000 1.605
67.06000 5.043
67.08000 7.487
67.10000 5.205
67.12000 2.329
67.14000 1.581
67.16000 4.160
67.18000 5.790
67.20000 2.665
67.22000 4.515
67.24000 7.929
67.26000 7.069
67.28000 6.188
67.30000 7.912
67.32000 7.546
67.34000 7.785
67.36000 11.165
67.38000 9.482
67.40000 7.586
67.42000 5.944
67.44000 8.750
67.46000 6.347
67.48000 7.680
67.50000 9.130
67.52000 8.287
67.54000 12.191
67.56000 13.282
67.58000 12.308
67.60000 10.843
67.62000 11.400
67.64000 10.272
67.66000 9.271
67.68000 11.422
67.70000 11.878
67.72000 12.728
67.74000 14.272
67.76000 12.118
67.78000 9.348
67.80000 13.290
67.82000 16.064
67.84000 13.807
67.86000 10.986
67.88000 9.517
67.90000 10.450
67.92000 10.134
67.94000 10.262
67.96000 10.632
67.98000 8.591
68.00000 9.718
68.02000 10.855
68.04000 12.582
68.06000 10.775
68.08000 9.799
68.10000 8.470
68.12000 6.172
68.14000 6.534
68.16000 6.928
68.18000 8.180
68.20000 6.863
68.22000 3.915
68.24000 3.547
68.26000 4.980
68.28000 10.332
68.30000 7.932
68.32000 1.985
68.34000 1.066
68.36000 3.651
68.38000 3.742
68.40000 0.264
68.42000 1.940
68.44000 5.024
68.46000 2.029
68.48000 1.098
68.50000 3.923
68.52000 1.058
68.54000 0.063
68.56000 1.902
68.58000 2.717
68.60000 1.294
68.62000 0.414
68.64000 0.574
68.66000 1.926
68.68000 1.825
68.70000 0.286
68.72000 -0.423
68.74000 1.482
68.76000 3.039
68.78000 1.902
68.80000 2.696
68.82000 4.818
68.84000 2.988
68.86000 0.932
68.88000 -2.255
68.90000 -2.137
68.92000 -0.763
68.94000 2.488
68.96000 2.856
68.98000 -0.207
69.00000 -0.460
69.02000 1.851
69.04000 -0.666
69.06000 0.709
69.08000 0.501
69.10000 0.544
69.12000 0.304
69.14000 1.179
69.16000 1.760
69.18000 0.840
69.20000 3.764
69.22000 1.581
69.24000 -0.539
69.26000 0.947
69.28000 0.632
69.30000 0.845
69.32000 1.383
69.34000 1.583
69.36000 2.385
69.38000 -0.262
69.40000 -2.232
69.42000 -1.888
69.44000 0.012
69.46000 -1.647
69.48000 0.081
69.50000 1.452
69.52000 0.677
69.54000 2.783
69.56000 3.971
69.58000 0.385
69.60000 -0.892
69.62000 0.200
69.64000 -0.896
69.66000 -0.269
69.68000 -0.956
69.70000 -1.416
69.72000 -0.590
69.74000 -0.257
69.76000 2.087
69.78000 -0.723
69.80000 0.082
69.82000 0.129
69.84000 2.591
69.86000 0.256
69.88000 1.757
69.90000 5.517
69.92000 2.536
69.94000 2.536
69.96000 -0.027
69.98000 -1.232
70.00000 3.354
70.02000 3.193
70.04000 -1.007
70.06000 1.741
70.08000 0.887
70.10000 1.626
70.12000 4.429
70.14000 -0.202
70.16000 1.905
70.18000 0.926
70.20000 -1.982
70.22000 1.252
70.24000 3.794
70.26000 3.671
70.28000 2.124
70.30000 0.413
70.32000 1.603
70.34000 0.785
70.36000 -0.789
70.38000 -2.189
70.40000 -0.767
70.42000 -1.691
70.44000 0.085
70.46000 2.487
70.48000 5.465
70.50000 6.334
70.52000 0.127
70.54000 -2.120
70.56000 -0.991
70.58000 0.528
70.60000 -2.170
70.62000 -0.441
70.64000 2.919
70.66000 5.295
70.68000 2.222
70.70000 0.166
70.72000 0.197
70.74000 0.484
70.76000 0.673
70.78000 2.660
70.80000 2.578
70.82000 1.147
70.84000 2.480
70.86000 4.915
70.88000 3.311
70.90000 2.205
70.92000 1.483
70.94000 1.909
70.96000 1.287
70.98000 1.188
71.00000 0.562
71.02000 3.018
71.04000 0.731
71.06000 1.620
71.08000 1.187
71.10000 4.391
71.12000 4.572
71.14000 4.208
71.16000 3.383
71.18000 3.882
71.20000 3.802
71.22000 1.437
71.24000 -2.138
71.26000 1.933
71.28000 3.030
71.30000 -0.147
71.32000 0.167
71.34000 4.312
71.36000 4.629
71.38000 6.416
71.40000 2.312
71.42000 0.526
71.44000 2.644
71.46000 3.326
71.48000 1.292
71.50000 -0.427
71.52000 2.241
71.54000 3.439
71.56000 2.906
71.58000 2.257
71.60000 5.531
71.62000 3.129
71.64000 2.485
71.66000 4.019
71.68000 4.223
71.70000 7.389
71.72000 4.508
71.74000 3.869
71.76000 5.065
71.78000 4.848
71.80000 4.218
71.82000 4.784
71.84000 2.029
71.86000 -0.263
71.88000 2.584
71.90000 6.161
71.92000 6.569
71.94000 7.131
71.96000 7.332
71.98000 4.301
72.00000 1.124
72.02000 2.414
72.04000 3.774
72.06000 2.870
72.08000 1.094
72.10000 0.919
72.12000 -2.096
72.14000 -1.062
72.16000 1.692
72.18000 5.036
72.20000 7.074
72.22000 5.994
72.24000 2.822
72.26000 3.803
72.28000 2.568
72.30000 3.520
72.32000 2.037
72.34000 4.678
72.36000 4.002
72.38000 3.276
72.40000 3.487
72.42000 4.936
72.44000 2.144
72.46000 2.412
72.48000 4.669
72.50000 5.352
72.52000 2.704
72.54000 4.272
72.56000 1.210
72.58000 -0.312
72.60000 -0.146
72.62000 1.777
72.64000 4.542
72.66000 0.939
72.68000 -1.386
72.70000 1.562
72.72000 1.354
72.74000 1.231
72.76000 2.620
72.78000 3.574
72.80000 2.149
72.82000 3.460
72.84000 7.522
72.86000 8.705
72.88000 8.227
72.90000 1.841
72.92000 7.116
72.94000 7.247
72.96000 2.579
72.98000 -0.399
73.00000 -1.159
73.02000 0.605
73.04000 6.739
73.06000 6.794
73.08000 4.509
73.10000 4.188
73.12000 2.975
73.14000 4.510
73.16000 4.711
73.18000 2.978
73.20000 3.910
73.22000 6.028
73.24000 6.325
73.26000 3.828
73.28000 1.408
73.30000 -2.037
73.32000 1.548
73.34000 1.503
73.36000 3.131
73.38000 3.708
73.40000 1.914
73.42000 -1.252
73.44000 2.603
73.46000 4.873
73.48000 5.295
73.50000 2.120
73.52000 2.343
73.54000 3.252
73.56000 6.563
73.58000 4.726
73.60000 5.307
73.62000 3.769
73.64000 3.453
73.66000 3.181
73.68000 2.832
73.70000 4.051
73.72000 3.864
73.74000 6.098
73.76000 2.138
73.78000 1.094
73.80000 0.221
73.82000 -2.066
73.84000 4.425
73.86000 5.192
73.88000 3.019
73.90000 3.452
73.92000 3.010
73.94000 3.868
73.96000 0.831
73.98000 2.473
74.00000 -0.430
74.02000 0.764
74.04000 2.790
74.06000 2.130
74.08000 3.439
74.10000 0.440
74.12000 -0.589
74.14000 0.723
74.16000 -1.192
74.18000 2.334
74.20000 3.811
74.22000 4.632
74.24000 2.050
74.26000 -0.351
74.28000 2.845
74.30000 0.335
74.32000 -2.081
74.34000 1.784
74.36000 3.186
74.38000 4.701
74.40000 5.386
74.42000 4.595
74.44000 2.730
74.46000 -0.746
74.48000 -1.533
74.50000 2.422
74.52000 5.126
74.54000 6.911
74.56000 4.980
74.58000 -1.057
74.60000 0.070
74.62000 3.995
74.64000 1.745
74.66000 -0.832
74.68000 1.211
74.70000 1.447
74.72000 2.119
74.74000 4.209
74.76000 7.386
74.78000 4.758
74.80000 3.855
74.82000 6.868
74.84000 9.116
74.86000 3.584
74.88000 2.923
74.90000 2.973
74.92000 3.873
74.94000 1.806
74.96000 -0.948
74.98000 -1.364
75.00000 -2.098
75.02000 5.700
75.04000 5.799
75.06000 2.568
75.08000 -0.099
75.10000 2.966
75.12000 3.221
75.14000 3.498
75.16000 4.915
75.18000 2.329
75.20000 2.660
75.22000 5.231
75.24000 3.226
75.26000 1.742
75.28000 -1.602
75.30000 3.286
75.32000 2.488
75.34000 -2.094
75.36000 -0.337
75.38000 4.157
75.40000 2.411
75.42000 2.347
75.44000 4.109
75.46000 6.138
75.48000 2.301
75.50000 3.756
75.52000 1.365
75.54000 1.897
75.56000 -0.849
75.58000 1.129
75.60000 2.222
75.62000 1.108
75.64000 -0.732
75.66000 -0.935
75.68000 -1.972
75.70000 -2.115
75.72000 2.431
75.74000 4.862
75.76000 6.525
75.78000 3.754
75.80000 2.086
75.82000 0.303
75.84000 -0.312
75.86000 4.661
75.88000 2.277
75.90000 1.896
75.92000 3.516
75.94000 5.434
75.96000 1.202
75.98000 -1.313
76.00000 1.977
76.02000 2.102
76.04000 -0.590
76.06000 0.812
76.08000 3.003
76.10000 4.592
76.12000 3.392
76.14000 4.335
76.16000 -2.092
76.18000 -0.471
76.20000 1.139
76.22000 0.328
76.24000 3.068
76.26000 3.445
76.28000 -0.059
76.30000 1.313
76.32000 4.191
76.34000 2.651
76.36000 2.982
76.38000 0.934
76.40000 2.375
76.42000 3.804
76.44000 3.852
76.46000 1.452
76.48000 -2.122
76.50000 0.222
76.52000 1.403
76.54000 3.591
76.56000 2.864
76.58000 -0.122
76.60000 4.231
76.62000 5.002
76.64000 2.968
76.66000 5.604
76.68000 5.844
76.70000 4.242
76.72000 2.708
76.74000 4.937
76.76000 3.521
76.78000 1.393
76.80000 0.186
76.82000 0.919
76.84000 2.924
76.86000 3.083
76.88000 3.571
76.90000 -0.057
76.92000 -2.146
76.94000 -0.609
76.96000 0.788
76.98000 -1.053
77.00000 -1.534
77.02000 0.917
77.04000 2.693
77.06000 1.691
77.08000 -1.107
77.10000 0.957
77.12000 1.032
77.14000 -0.751
77.16000 -2.156
77.18000 1.562
77.20000 3.108
77.22000 3.152
77.24000 3.414
77.26000 0.918
77.28000 -1.994
77.30000 -1.164
77.32000 -2.161
77.34000 1.417
77.36000 -0.158
77.38000 1.141
77.40000 2.537
77.42000 -1.362
77.44000 0.675
77.46000 2.833
77.48000 2.780
77.50000 0.746
77.52000 4.385
77.54000 2.517
77.56000 0.293
77.58000 0.640
77.60000 2.648
77.62000 0.034
77.64000 1.776
77.66000 1.372
77.68000 3.416
77.70000 3.656
77.72000 2.939
77.74000 3.092
77.76000 2.676
77.78000 -0.018
77.80000 -0.442
77.82000 0.021
77.84000 3.256
77.86000 2.348
77.88000 0.664
77.90000 4.205
77.92000 3.225
77.94000 3.561
77.96000 0.649
77.98000 0.432
78.00000 0.538
78.02000 -0.675
78.04000 2.855
78.06000 -0.150
78.08000 0.139
78.10000 1.054
78.12000 5.080
78.14000 1.521
78.16000 1.488
78.18000 -1.503
78.20000 0.011
78.22000 1.327
78.24000 3.433
78.26000 2.442
78.28000 2.382
78.30000 4.785
78.32000 7.898
78.34000 2.514
78.36000 3.647
78.38000 4.119
78.40000 3.993
78.42000 -0.959
78.44000 0.367
78.46000 -2.142
78.48000 0.354
78.50000 -0.168
78.52000 -2.128
78.54000 1.718
78.56000 4.430
78.58000 5.092
78.60000 3.493
78.62000 4.536
78.64000 3.189
78.66000 6.118
78.68000 2.418
78.70000 2.841
78.72000 1.326
78.74000 3.359
78.76000 2.332
78.78000 3.124
78.80000 5.107
78.82000 5.509
78.84000 4.318
78.86000 1.423
78.88000 3.402
78.90000 5.050
78.92000 4.036
78.94000 2.483
78.96000 0.182
78.98000 2.023
79.00000 0.340
79.02000 0.795
79.04000 1.908
79.06000 0.013
79.08000 3.019
79.10000 3.764
79.12000 3.863
79.14000 4.438
79.16000 -2.202
79.18000 0.412
79.20000 -0.466
79.22000 2.417
79.24000 5.024
79.26000 4.308
79.28000 1.309
79.30000 -1.002
79.32000 -0.271
79.34000 1.705
79.36000 2.873
79.38000 1.830
79.40000 2.273
79.42000 0.150
79.44000 2.754
79.46000 2.169
79.48000 -0.642
79.50000 -1.408
79.52000 -2.246
79.54000 -1.496
79.56000 -0.939
79.58000 -0.369
79.60000 -0.503
79.62000 3.177
79.64000 0.392
79.66000 0.344
79.68000 2.948
79.70000 2.089
79.72000 2.770
79.74000 3.749
79.76000 -0.965
79.78000 2.471
79.80000 2.703
79.82000 0.392
79.84000 -2.291
79.86000 -1.029
79.88000 -0.750
79.90000 -1.223
79.92000 -0.921
79.94000 -1.738
79.96000 -1.758
79.98000 3.414
80.00000 2.888
80.02000 -1.557
80.04000 -1.524
80.06000 4.008
80.08000 4.009
80.10000 1.613
80.12000 1.150
80.14000 3.546
80.16000 2.317
80.18000 3.409
80.20000 0.291
80.22000 3.409
80.24000 3.957
80.26000 5.917
80.28000 3.140
80.30000 0.088
80.32000 2.421
80.34000 5.969
80.36000 2.693
80.38000 5.422
80.40000 4.314
80.42000 2.692
80.44000 1.460
80.46000 2.724
80.48000 3.764
80.50000 7.577
80.52000 5.054
80.54000 1.547
80.56000 3.032
80.58000 1.856
80.60000 1.266
80.62000 2.155
80.64000 3.947
80.66000 7.840
80.68000 9.694
80.70000 7.587
80.72000 10.521
80.74000 9.888
80.76000 13.283
80.78000 13.783
80.80000 13.613
80.82000 13.805
80.84000 9.588
80.86000 13.570
80.88000 12.623
80.90000 8.923
80.92000 7.136
80.94000 15.807
80.96000 17.170
80.98000 17.101
81.00000 16.581
81.02000 17.060
81.04000 17.325
81.06000 19.434
81.08000 17.111
81.10000 17.617
81.12000 20.151
81.14000 21.228
81.16000 25.968
81.18000 23.849
81.20000 28.285
81.22000 28.804
81.24000 26.781
81.26000 26.729
81.28000 28.477
81.30000 26.540
81.32000 25.521
81.34000 28.591
81.36000 26.265
81.38000 24.744
81.40000 27.374
81.42000 27.786
81.44000 33.660
81.46000 34.683
81.48000 30.988
81.50000 32.524
81.52000 39.074
81.54000 34.553
81.56000 31.380
81.58000 29.338
81.60000 32.773
81.62000 33.394
81.64000 34.744
81.66000 32.575
81.68000 35.833
81.70000 39.893
81.72000 39.132
81.74000 35.767
81.76000 33.230
81.78000 31.629
81.80000 32.074
81.82000 32.764
81.84000 32.267
81.86000 30.503
81.88000 28.414
81.90000 30.102
81.92000 31.375
81.94000 31.252
81.96000 25.291
81.98000 27.618
82.00000 28.861
82.02000 30.235
82.04000 31.758
82.06000 25.244
82.08000 21.649
82.10000 22.147
82.12000 27.076
82.14000 23.093
82.16000 18.011
82.18000 16.317
82.20000 20.625
82.22000 24.046
82.24000 26.178
82.26000 16.093
82.28000 11.637
82.30000 15.128
82.32000 15.464
82.34000 13.543
82.36000 12.242
82.38000 14.582
82.40000 11.560
82.42000 11.458
82.44000 11.513
82.46000 12.299
82.48000 8.090
82.50000 10.269
82.52000 8.084
82.54000 9.675
82.56000 7.611
82.58000 5.907
82.60000 8.033
82.62000 6.594
82.64000 6.363
82.66000 4.039
82.68000 2.210
82.70000 4.521
82.72000 2.702
82.74000 4.170
82.76000 4.644
82.78000 4.529
82.80000 6.396
82.82000 3.385
82.84000 3.204
82.86000 3.012
82.88000 1.245
82.90000 2.737
82.92000 3.469
82.94000 1.603
82.96000 3.527
82.98000 6.672
83.00000 1.820
83.02000 4.155
83.04000 6.759
83.06000 3.826
83.08000 1.414
83.10000 7.527
83.12000 5.638
83.14000 1.980
83.16000 4.637
83.18000 3.469
83.20000 4.570
83.22000 0.808
83.24000 0.816
83.26000 -0.137
83.28000 -2.289
83.30000 0.299
83.32000 3.246
83.34000 4.893
83.36000 3.118
83.38000 2.252
83.40000 4.174
83.42000 2.957
83.44000 1.577
83.46000 2.507
83.48000 2.537
83.50000 2.348
83.52000 2.920
83.54000 2.669
83.56000 1.467
83.58000 1.727
83.60000 4.934
83.62000 3.126
83.64000 4.348
83.66000 3.847
83.68000 3.030
83.70000 4.368
83.72000 5.695
83.74000 4.080
83.76000 0.843
83.78000 1.891
83.80000 3.432
83.82000 -0.530
83.84000 1.494
83.86000 3.998
83.88000 5.598
83.90000 0.456
83.92000 -1.555
83.94000 -1.599
83.96000 -0.516
83.98000 3.076
84.00000 2.375
84.02000 -2.330
84.04000 -0.003
84.06000 5.912
84.08000 5.232
84.10000 0.393
84.12000 -0.594
84.14000 2.317
84.16000 2.056
84.18000 0.870
84.20000 0.827
84.22000 1.679
84.24000 1.072
84.26000 4.095
84.28000 1.485
84.30000 1.141
84.32000 0.188
84.34000 -0.539
84.36000 3.780
84.38000 1.805
84.40000 -1.372
84.42000 -1.328
84.44000 3.276
84.46000 4.075
84.48000 3.868
84.50000 4.813
84.52000 4.635
84.54000 3.732
84.56000 4.747
84.58000 6.839
84.60000 7.312
84.62000 5.942
84.64000 2.145
84.66000 1.954
84.68000 10.331
84.70000 9.740
84.72000 6.805
84.74000 8.955
84.76000 11.218
84.78000 11.341
84.80000 11.664
84.82000 15.393
84.84000 14.966
84.86000 15.462
84.88000 13.889
84.90000 13.480
84.92000 14.857
84.94000 19.850
84.96000 17.978
84.98000 18.423
85.00000 22.361
85.02000 19.559
85.04000 19.981
85.06000 19.927
85.08000 18.688
85.10000 21.928
85.12000 22.348
85.14000 26.782
85.16000 19.521
85.18000 22.732
85.20000 26.392
85.22000 28.461
85.24000 28.323
85.26000 27.901
85.28000 27.077
85.30000 34.538
85.32000 36.290
85.34000 36.143
85.36000 30.056
85.38000 28.950
85.40000 33.635
85.42000 34.856
85.44000 36.496
85.46000 31.771
85.48000 31.618
85.50000 34.300
85.52000 38.830
85.54000 38.050
85.56000 38.510
85.58000 36.333
85.60000 29.461
85.62000 32.854
85.64000 39.634
85.66000 40.210
85.68000 34.213
85.70000 32.957
85.72000 35.879
85.74000 37.993
85.76000 38.868
85.78000 36.861
85.80000 35.248
85.82000 30.119
85.84000 32.407
85.86000 35.528
85.88000 32.991
85.90000 31.588
85.92000 29.382
85.94000 28.581
85.96000 32.671
85.98000 33.158
86.00000 28.115
86.02000 27.315
86.04000 29.523
86.06000 22.608
86.08000 19.552
86.10000 18.431
86.12000 20.941
86.14000 24.087
86.16000 23.763
86.18000 20.972
86.20000 14.963
86.22000 18.204
86.24000 18.904
86.26000 15.282
86.28000 16.152
86.30000 11.511
86.32000 16.176
86.34000 15.307
86.36000 17.755
86.38000 16.042
86.40000 14.059
86.42000 12.754
86.44000 12.920
86.46000 10.750
86.48000 12.863
86.50000 9.352
86.52000 8.322
86.54000 5.566
86.56000 8.053
86.58000 7.819
86.60000 11.602
86.62000 9.311
86.64000 5.875
86.66000 5.919
86.68000 2.611
86.70000 6.409
86.72000 3.687
86.74000 6.454
86.76000 5.237
86.78000 1.883
86.80000 2.752
86.82000 3.228
86.84000 5.502
86.86000 5.083
86.88000 8.052
86.90000 3.357
86.92000 1.290
86.94000 3.263
86.96000 7.355
86.98000 5.630
87.00000 6.092
87.02000 3.542
87.04000 4.279
87.06000 -1.112
87.08000 0.561
87.10000 4.068
87.12000 5.777
87.14000 9.484
87.16000 4.843
87.18000 2.106
87.20000 2.533
87.22000 5.108
87.24000 2.325
87.26000 1.767
87.28000 3.904
87.30000 3.746
87.32000 3.176
87.34000 -0.032
87.36000 -2.042
87.38000 0.963
87.40000 2.437
87.42000 2.021
87.44000 7.799
87.46000 7.738
87.48000 5.000
87.50000 3.861
87.52000 5.221
87.54000 3.349
87.56000 4.976
87.58000 6.642
87.60000 5.057
87.62000 6.614
87.64000 4.824
87.66000 1.241
87.68000 -1.979
87.70000 1.371
87.72000 5.718
87.74000 5.015
87.76000 4.816
87.78000 3.160
87.80000 5.623
87.82000 3.925
87.84000 4.952
87.86000 3.149
87.88000 2.105
87.90000 4.596
87.92000 7.226
87.94000 6.358
87.96000 1.926
87.98000 1.680
88.00000 3.759
88.02000 6.784
88.04000 2.626
88.06000 3.805
88.08000 4.551
88.10000 1.263
88.12000 -1.069
88.14000 0.875
88.16000 3.659
88.18000 4.203
88.20000 -0.831
88.22000 -1.453
88.24000 -1.670
88.26000 0.447
88.28000 1.675
88.30000 2.393
88.32000 3.090
88.34000 4.050
88.36000 3.319
88.38000 4.795
88.40000 0.518
88.42000 0.499
88.44000 3.852
88.46000 3.803
88.48000 2.160
88.50000 0.254
88.52000 3.337
88.54000 1.552
88.56000 0.172
88.58000 0.466
88.60000 1.491
88.62000 2.506
88.64000 -1.373
88.66000 -0.303
88.68000 1.352
88.70000 0.127
88.72000 -2.018
88.74000 -0.706
88.76000 1.401
88.78000 2.905
88.80000 2.918
88.82000 5.710
88.84000 4.233
88.86000 4.237
88.88000 1.866
88.90000 4.058
88.92000 6.280
88.94000 4.139
88.96000 1.257
88.98000 3.425
89.00000 2.735
89.02000 0.107
89.04000 0.513
89.06000 -1.585
89.08000 -1.164
89.10000 3.144
89.12000 2.092
89.14000 1.163
89.16000 2.525
89.18000 3.246
89.20000 2.929
89.22000 0.377
89.24000 1.919
89.26000 4.342
89.28000 4.381
89.30000 1.143
89.32000 -1.114
89.34000 3.067
89.36000 4.522
89.38000 4.397
89.40000 2.606
89.42000 2.060
89.44000 1.581
89.46000 -0.465
89.48000 -1.988
89.50000 -0.174
89.52000 4.959
89.54000 2.210
89.56000 -0.355
89.58000 -0.055
89.60000 -0.918
89.62000 2.237
89.64000 3.163
89.66000 3.031
89.68000 2.772
89.70000 2.626
89.72000 0.997
89.74000 0.477
89.76000 5.408
89.78000 4.284
89.80000 -0.938
89.82000 0.234
89.84000 0.309
89.86000 1.674
89.88000 1.756
89.90000 2.573
89.92000 2.621
89.94000 0.590
89.96000 -1.166
89.98000 0.814
90.00000 2.191
90.02000 1.960
90.04000 3.556
90.06000 2.286
90.08000 1.378
90.10000 3.038
90.12000 4.992
90.14000 4.292
90.16000 5.435
90.18000 1.981
90.20000 -0.156
90.22000 1.487
90.24000 3.303
90.26000 1.659
90.28000 -0.091
90.30000 0.679
90.32000 0.597
90.34000 -0.246
90.36000 0.904
90.38000 0.748
90.40000 1.372
90.42000 0.946
90.44000 1.810
90.46000 1.817
90.48000 1.330
90.50000 2.683
90.52000 -0.185
90.54000 2.507
90.56000 4.019
90.58000 1.141
90.60000 -0.223
90.62000 2.522
90.64000 0.052
90.66000 0.254
90.68000 0.367
90.70000 -0.195
90.72000 0.942
90.74000 0.630
90.76000 -1.196
90.78000 -0.069
90.80000 4.708
90.82000 2.502
90.84000 0.672
90.86000 -1.984
90.88000 -1.317
90.90000 2.275
90.92000 2.847
90.94000 1.281
90.96000 4.688
90.98000 4.543
91.00000 1.237
91.02000 3.301
91.04000 1.078
91.06000 2.774
91.08000 -0.317
91.10000 1.339
91.12000 0.824
91.14000 2.293
91.16000 2.100
91.18000 1.656
91.20000 2.026
91.22000 2.489
91.24000 3.474
91.26000 0.839
91.28000 2.999
91.30000 2.544
91.32000 1.446
91.34000 3.199
91.36000 1.411
91.38000 0.581
91.40000 1.733
91.42000 0.325
91.44000 2.327
91.46000 5.089
91.48000 7.183
91.50000 9.795
91.52000 5.023
91.54000 2.410
91.56000 1.808
91.58000 1.477
91.60000 3.993
91.62000 2.590
91.64000 6.853
91.66000 8.599
91.68000 8.588
91.70000 3.318
91.72000 0.402
91.74000 2.685
91.76000 6.549
91.78000 6.941
91.80000 5.365
91.82000 2.677
91.84000 2.680
91.86000 9.314
91.88000 5.638
91.90000 5.756
91.92000 -0.676
91.94000 -1.934
91.96000 4.227
91.98000 8.100
92.00000 9.038
92.02000 6.617
92.04000 8.807
92.06000 4.103
92.08000 3.383
92.10000 4.161
92.12000 1.405
92.14000 3.686
92.16000 5.953
92.18000 -0.037
92.20000 1.116
92.22000 4.361
92.24000 3.624
92.26000 1.791
92.28000 2.860
92.30000 5.116
92.32000 3.105
92.34000 4.263
92.36000 4.228
92.38000 9.681
92.40000 8.128
92.42000 8.523
92.44000 0.808
92.46000 1.325
92.48000 4.259
92.50000 3.668
92.52000 5.395
92.54000 2.948
92.56000 1.424
92.58000 0.803
92.60000 3.001
92.62000 4.315
92.64000 3.334
92.66000 1.963
92.68000 3.407
92.70000 1.223
92.72000 3.885
92.74000 6.069
92.76000 5.899
92.78000 4.159
92.80000 6.937
92.82000 4.351
92.84000 1.557
92.86000 1.725
92.88000 6.436
92.90000 7.100
92.92000 6.103
92.94000 1.776
92.96000 -1.377
92.98000 2.083
93.00000 3.575
93.02000 7.004
93.04000 5.574
93.06000 2.816
93.08000 1.745
93.10000 2.165
93.12000 2.762
93.14000 1.618
93.16000 3.159
93.18000 -2.002
93.20000 0.761
93.22000 4.057
93.24000 3.606
93.26000 2.811
93.28000 1.227
93.30000 2.612
93.32000 3.025
93.34000 5.940
93.36000 2.098
93.38000 2.135
93.40000 1.944
93.42000 4.045
93.44000 0.777
93.46000 -0.618
93.48000 2.569
93.50000 1.262
93.52000 4.411
93.54000 1.780
93.56000 1.113
93.58000 1.596
93.60000 -1.706
93.62000 2.475
93.64000 3.355
93.66000 0.912
93.68000 2.523
93.70000 1.964
93.72000 -0.248
93.74000 2.997
93.76000 5.610
93.78000 4.095
93.80000 3.314
93.82000 1.579
93.84000 0.440
93.86000 1.088
93.88000 5.350
93.90000 4.488
93.92000 1.334
93.94000 -0.706
93.96000 -1.042
93.98000 1.258
94.00000 -1.946
94.02000 -0.483
94.04000 2.403
94.06000 5.531
94.08000 3.918
94.10000 1.220
94.12000 1.025
94.14000 -1.237
94.16000 4.164
94.18000 6.518
94.20000 4.187
94.22000 1.785
94.24000 -0.820
94.26000 2.162
94.28000 7.228
94.30000 3.656
94.32000 1.579
94.34000 -0.064
94.36000 1.813
94.38000 4.186
94.40000 3.607
94.42000 1.088
94.44000 0.623
94.46000 3.060
94.48000 6.477
94.50000 5.195
94.52000 4.283
94.54000 0.838
94.56000 1.370
94.58000 0.622
94.60000 3.144
94.62000 6.534
94.64000 0.070
94.66000 -1.982
94.68000 0.029
94.70000 3.219
94.72000 4.731
94.74000 8.921
94.76000 0.533
94.78000 -1.048
94.80000 3.583
94.82000 7.380
94.84000 7.624
94.86000 7.647
94.88000 4.212
94.90000 5.109
94.92000 4.907
94.94000 4.464
94.96000 6.421
94.98000 4.201
95.00000 9.381
95.02000 8.677
95.04000 7.088
95.06000 3.827
95.08000 4.472
95.10000 2.351
95.12000 -0.220
95.14000 4.011
95.16000 5.225
95.18000 8.108
95.20000 3.950
95.22000 3.173
95.24000 2.878
95.26000 2.569
95.28000 7.215
95.30000 7.346
95.32000 2.924
95.34000 3.311
95.36000 3.934
95.38000 3.130
95.40000 -2.000
95.42000 1.914
95.44000 5.714
95.46000 3.075
95.48000 2.396
95.50000 4.287
95.52000 7.971
95.54000 6.407
95.56000 3.665
95.58000 -1.636
95.60000 0.435
95.62000 6.918
95.64000 7.497
95.66000 6.448
95.68000 1.452
95.70000 3.471
95.72000 2.153
95.74000 5.807
95.76000 2.615
95.78000 5.876
95.80000 7.110
95.82000 1.951
95.84000 4.541
95.86000 7.381
95.88000 -1.372
95.90000 -2.007
95.92000 -0.288
95.94000 0.759
95.96000 4.994
95.98000 3.994
96.00000 3.259
96.02000 1.887
96.04000 0.903
96.06000 3.604
96.08000 6.541
96.10000 3.690
96.12000 3.628
96.14000 -2.022
96.16000 2.457
96.18000 8.926
96.20000 4.407
96.22000 2.520
96.24000 4.913
96.26000 5.690
96.28000 3.380
96.30000 2.713
96.32000 5.348
96.34000 8.490
96.36000 2.798
96.38000 1.154
96.40000 -0.550
96.42000 2.202
96.44000 3.890
96.46000 2.866
96.48000 3.015
96.50000 0.810
96.52000 1.687
96.54000 3.459
96.56000 3.725
96.58000 3.911
96.60000 5.830
96.62000 2.974
96.64000 1.323
96.66000 8.352
96.68000 7.442
96.70000 0.071
96.72000 1.278
96.74000 2.633
96.76000 6.549
96.78000 1.391
96.80000 2.149
96.82000 5.095
96.84000 2.928
96.86000 2.321
96.88000 0.196
96.90000 0.133
96.92000 10.465
96.94000 10.424
96.96000 1.750
96.98000 -1.617
97.00000 -2.037
97.02000 0.557
97.04000 6.665
97.06000 5.938
97.08000 1.309
97.10000 2.874
97.12000 2.927
97.14000 2.597
97.16000 3.937
97.18000 5.254
97.20000 4.970
97.22000 3.389
97.24000 0.754
97.26000 2.109
97.28000 1.281
97.30000 -0.651
97.32000 -1.253
97.34000 4.789
97.36000 3.617
97.38000 3.739
97.40000 1.979
97.42000 3.962
97.44000 1.952
97.46000 7.338
97.48000 3.826
97.50000 -0.592
97.52000 -1.364
97.54000 2.962
97.56000 0.381
97.58000 1.732
97.60000 -1.335
97.62000 -2.019
97.64000 1.983
97.66000 2.239
97.68000 9.324
97.70000 7.953
97.72000 2.110
97.74000 3.649
97.76000 3.289
97.78000 6.075
97.80000 1.658
97.82000 4.052
97.84000 0.448
97.86000 -0.571
97.88000 -1.136
97.90000 3.826
97.92000 9.756
97.94000 3.266
97.96000 3.361
97.98000 6.300
98.00000 4.182
98.02000 5.857
98.04000 3.009
98.06000 5.032
98.08000 4.540
98.10000 3.129
98.12000 0.967
98.14000 2.415
98.16000 3.998
98.18000 2.882
98.20000 3.965
98.22000 2.272
98.24000 6.292
98.26000 3.776
98.28000 2.124
98.30000 1.389
98.32000 0.575
98.34000 -0.355
98.36000 2.010
98.38000 7.906
98.40000 6.628
98.42000 5.368
98.44000 0.864
98.46000 -1.977
98.48000 9.091
98.50000 6.939
98.52000 3.719
98.54000 2.157
98.56000 7.170
98.58000 9.367
98.60000 0.588
98.62000 1.433
98.64000 6.133
98.66000 0.593
98.68000 0.111
98.70000 2.137
98.72000 7.237
98.74000 5.700
98.76000 8.374
98.78000 10.765
98.80000 12.528
98.82000 8.841
98.84000 13.935
98.86000 5.116
98.88000 7.146
98.90000 12.743
98.92000 11.100
98.94000 10.426
98.96000 8.989
98.98000 2.593
99.00000 5.955
99.02000 1.932
99.04000 0.070
99.06000 3.878
99.08000 4.549
99.10000 6.403
99.12000 6.966
99.14000 4.601
99.16000 6.026
99.18000 0.195
99.20000 4.160
99.22000 0.166
99.24000 -1.935
99.26000 4.099
99.28000 11.281
99.30000 5.523
99.32000 3.950
99.34000 6.030
99.36000 8.928
99.38000 6.582
99.40000 4.883
99.42000 14.222
99.44000 7.643
99.46000 0.802
99.48000 -1.920
99.50000 6.892
99.52000 5.353
99.54000 10.666
99.56000 2.996
99.58000 1.333
99.60000 7.828
99.62000 6.334
99.64000 1.335
99.66000 4.067
99.68000 8.257
99.70000 7.293
99.72000 -1.182
99.74000 4.300
99.76000 3.499
99.78000 2.520
99.80000 -1.297
99.82000 -1.999
99.84000 7.659
99.86000 3.815
99.88000 7.231
99.90000 6.937
99.92000 -2.066
99.94000 1.488
99.96000 6.761
99.98000 0.000
