'Id: "0011389" Comment: "Integrate frame 0011389_Au-Ir-Rh_Au-Rich_XRD_Mapping-303-0000.gfrmwith cursor Wedge Cursor #5" Operator: "B?rgel" Anode: "Cu" Wavelength: "1.5406" Scantype: "2Theta (TwoTheta)" TimePerStep: "1" X: "0" Y: "31.5" Z: "5.95" 
10.00000 0.000
10.02000 16.843
10.04000 7.122
10.06000 -4.221
10.08000 1.369
10.10000 21.036
10.12000 33.368
10.14000 29.613
10.16000 25.942
10.18000 25.039
10.20000 20.367
10.22000 26.979
10.24000 5.884
10.26000 5.863
10.28000 17.489
10.30000 17.852
10.32000 6.404
10.34000 8.678
10.36000 11.951
10.38000 15.611
10.40000 8.959
10.42000 22.803
10.44000 34.833
10.46000 26.875
10.48000 16.289
10.50000 5.129
10.52000 6.399
10.54000 5.425
10.56000 17.280
10.58000 18.990
10.60000 15.912
10.62000 34.013
10.64000 28.761
10.66000 12.969
10.68000 12.648
10.70000 10.852
10.72000 9.058
10.74000 26.186
10.76000 23.126
10.78000 16.859
10.80000 2.794
10.82000 8.410
10.84000 12.016
10.86000 20.613
10.88000 9.053
10.90000 18.678
10.92000 18.406
10.94000 17.281
10.96000 20.289
10.98000 18.217
11.00000 -2.581
11.02000 17.358
11.04000 20.191
11.06000 12.556
11.08000 27.905
11.10000 22.893
11.12000 19.253
11.14000 0.475
11.16000 11.133
11.18000 13.224
11.20000 19.193
11.22000 16.876
11.24000 11.454
11.26000 9.353
11.28000 26.786
11.30000 29.558
11.32000 13.870
11.34000 14.262
11.36000 15.816
11.38000 17.609
11.40000 14.314
11.42000 3.019
11.44000 12.781
11.46000 15.375
11.48000 10.430
11.50000 14.268
11.52000 10.726
11.54000 10.342
11.56000 3.672
11.58000 19.229
11.60000 24.586
11.62000 20.032
11.64000 17.366
11.66000 21.792
11.68000 16.497
11.70000 10.251
11.72000 3.658
11.74000 9.604
11.76000 14.045
11.78000 25.895
11.80000 20.310
11.82000 12.512
11.84000 3.038
11.86000 14.757
11.88000 20.558
11.90000 14.364
11.92000 12.716
11.94000 12.798
11.96000 14.210
11.98000 19.898
12.00000 13.053
12.02000 15.231
12.04000 14.617
12.06000 14.124
12.08000 19.254
12.10000 22.566
12.12000 17.051
12.14000 8.339
12.16000 9.314
12.18000 10.661
12.20000 5.730
12.22000 3.539
12.24000 9.650
12.26000 25.165
12.28000 22.250
12.30000 10.348
12.32000 7.666
12.34000 9.737
12.36000 3.781
12.38000 5.308
12.40000 18.080
12.42000 17.651
12.44000 17.311
12.46000 27.505
12.48000 25.351
12.50000 19.440
12.52000 17.911
12.54000 6.737
12.56000 19.133
12.58000 31.893
12.60000 22.025
12.62000 16.045
12.64000 18.696
12.66000 1.258
12.68000 2.669
12.70000 10.261
12.72000 25.781
12.74000 22.242
12.76000 21.118
12.78000 15.090
12.80000 14.917
12.82000 21.438
12.84000 19.081
12.86000 11.302
12.88000 18.730
12.90000 23.469
12.92000 16.187
12.94000 4.716
12.96000 6.764
12.98000 12.569
13.00000 8.729
13.02000 7.771
13.04000 27.206
13.06000 20.899
13.08000 11.951
13.10000 18.999
13.12000 19.869
13.14000 9.344
13.16000 12.269
13.18000 18.137
13.20000 14.832
13.22000 18.754
13.24000 21.530
13.26000 7.426
13.28000 5.689
13.30000 7.783
13.32000 16.139
13.34000 22.168
13.36000 18.657
13.38000 14.203
13.40000 3.684
13.42000 0.248
13.44000 8.389
13.46000 8.884
13.48000 7.294
13.50000 14.633
13.52000 14.756
13.54000 10.673
13.56000 14.378
13.58000 21.390
13.60000 16.359
13.62000 13.660
13.64000 24.816
13.66000 19.348
13.68000 14.280
13.70000 4.763
13.72000 11.088
13.74000 20.534
13.76000 20.892
13.78000 24.112
13.80000 13.028
13.82000 21.750
13.84000 19.668
13.86000 10.969
13.88000 7.964
13.90000 6.183
13.92000 9.534
13.94000 9.362
13.96000 15.820
13.98000 14.524
14.00000 5.681
14.02000 4.567
14.04000 9.546
14.06000 8.796
14.08000 14.165
14.10000 12.338
14.12000 11.646
14.14000 10.250
14.16000 7.574
14.18000 16.043
14.20000 15.333
14.22000 16.621
14.24000 14.889
14.26000 6.905
14.28000 11.640
14.30000 17.362
14.32000 17.320
14.34000 19.406
14.36000 15.286
14.38000 7.409
14.40000 13.832
14.42000 10.710
14.44000 8.867
14.46000 12.750
14.48000 14.273
14.50000 15.662
14.52000 17.829
14.54000 21.697
14.56000 14.392
14.58000 2.771
14.60000 -4.491
14.62000 2.367
14.64000 9.229
14.66000 12.657
14.68000 2.153
14.70000 9.023
14.72000 5.825
14.74000 2.169
14.76000 -1.524
14.78000 -1.287
14.80000 10.731
14.82000 6.239
14.84000 7.223
14.86000 14.826
14.88000 18.812
14.90000 12.035
14.92000 3.571
14.94000 8.744
14.96000 15.340
14.98000 13.485
15.00000 8.431
15.02000 -1.159
15.04000 4.323
15.06000 5.000
15.08000 7.858
15.10000 13.005
15.12000 18.784
15.14000 13.766
15.16000 14.186
15.18000 16.685
15.20000 15.603
15.22000 10.679
15.24000 3.593
15.26000 6.521
15.28000 2.771
15.30000 6.736
15.32000 9.966
15.34000 4.781
15.36000 8.131
15.38000 14.612
15.40000 12.244
15.42000 8.533
15.44000 2.860
15.46000 0.177
15.48000 2.749
15.50000 4.698
15.52000 3.793
15.54000 3.134
15.56000 9.889
15.58000 11.296
15.60000 15.680
15.62000 16.141
15.64000 5.855
15.66000 5.974
15.68000 7.109
15.70000 10.380
15.72000 5.150
15.74000 -1.843
15.76000 2.290
15.78000 6.903
15.80000 3.638
15.82000 -1.389
15.84000 7.180
15.86000 8.784
15.88000 8.154
15.90000 9.967
15.92000 1.435
15.94000 3.436
15.96000 5.125
15.98000 5.901
16.00000 6.839
16.02000 5.361
16.04000 8.495
16.06000 6.675
16.08000 9.067
16.10000 14.238
16.12000 12.666
16.14000 15.273
16.16000 7.147
16.18000 4.362
16.20000 8.032
16.22000 13.561
16.24000 16.189
16.26000 7.044
16.28000 -0.228
16.30000 -0.797
16.32000 -4.447
16.34000 -0.384
16.36000 10.109
16.38000 10.592
16.40000 7.567
16.42000 5.441
16.44000 2.984
16.46000 7.162
16.48000 10.257
16.50000 5.309
16.52000 7.911
16.54000 6.553
16.56000 6.334
16.58000 16.446
16.60000 13.521
16.62000 16.586
16.64000 13.305
16.66000 10.588
16.68000 3.303
16.70000 7.338
16.72000 7.340
16.74000 8.856
16.76000 9.174
16.78000 10.646
16.80000 10.910
16.82000 -1.049
16.84000 2.383
16.86000 9.903
16.88000 5.414
16.90000 6.512
16.92000 10.612
16.94000 20.985
16.96000 18.191
16.98000 15.722
17.00000 11.234
17.02000 10.736
17.04000 5.545
17.06000 6.055
17.08000 -2.903
17.10000 10.564
17.12000 18.732
17.14000 17.135
17.16000 9.491
17.18000 7.544
17.20000 6.941
17.22000 9.631
17.24000 5.650
17.26000 4.848
17.28000 3.626
17.30000 4.892
17.32000 7.821
17.34000 7.337
17.36000 7.282
17.38000 14.722
17.40000 8.950
17.42000 2.925
17.44000 -1.670
17.46000 0.779
17.48000 5.262
17.50000 2.574
17.52000 4.599
17.54000 11.584
17.56000 9.053
17.58000 2.324
17.60000 7.355
17.62000 13.862
17.64000 6.337
17.66000 6.780
17.68000 6.079
17.70000 2.035
17.72000 9.821
17.74000 10.211
17.76000 11.245
17.78000 4.417
17.80000 -1.459
17.82000 9.108
17.84000 3.123
17.86000 4.048
17.88000 6.630
17.90000 2.670
17.92000 -0.356
17.94000 -0.942
17.96000 8.088
17.98000 3.793
18.00000 4.572
18.02000 6.029
18.04000 -1.489
18.06000 -1.201
18.08000 -3.952
18.10000 -1.833
18.12000 7.701
18.14000 -3.134
18.16000 -3.211
18.18000 2.902
18.20000 5.051
18.22000 4.660
18.24000 10.747
18.26000 10.170
18.28000 2.040
18.30000 5.926
18.32000 2.690
18.34000 -4.344
18.36000 0.308
18.38000 11.897
18.40000 14.042
18.42000 4.822
18.44000 1.924
18.46000 10.529
18.48000 4.293
18.50000 5.311
18.52000 5.724
18.54000 11.521
18.56000 8.834
18.58000 6.058
18.60000 1.817
18.62000 -0.248
18.64000 -2.541
18.66000 1.698
18.68000 10.232
18.70000 3.952
18.72000 6.916
18.74000 6.215
18.76000 -1.075
18.78000 -1.216
18.80000 4.022
18.82000 5.570
18.84000 0.295
18.86000 -3.713
18.88000 -0.712
18.90000 4.385
18.92000 8.730
18.94000 8.520
18.96000 9.548
18.98000 10.923
19.00000 5.475
19.02000 2.611
19.04000 5.974
19.06000 10.188
19.08000 1.210
19.10000 1.343
19.12000 -0.146
19.14000 0.876
19.16000 10.921
19.18000 12.137
19.20000 9.889
19.22000 3.778
19.24000 6.674
19.26000 8.471
19.28000 7.263
19.30000 8.411
19.32000 4.363
19.34000 -1.916
19.36000 -4.294
19.38000 1.171
19.40000 3.232
19.42000 5.468
19.44000 9.144
19.46000 8.011
19.48000 10.659
19.50000 14.554
19.52000 5.011
19.54000 5.969
19.56000 4.715
19.58000 1.578
19.60000 -0.876
19.62000 2.315
19.64000 4.104
19.66000 1.497
19.68000 4.183
19.70000 6.660
19.72000 7.465
19.74000 14.283
19.76000 8.235
19.78000 4.480
19.80000 9.554
19.82000 5.872
19.84000 -4.260
19.86000 5.569
19.88000 4.548
19.90000 2.947
19.92000 0.267
19.94000 6.412
19.96000 5.439
19.98000 1.756
20.00000 1.243
20.02000 3.151
20.04000 3.975
20.06000 7.915
20.08000 2.201
20.10000 -0.594
20.12000 -0.055
20.14000 1.190
20.16000 6.522
20.18000 4.726
20.20000 2.466
20.22000 0.652
20.24000 8.171
20.26000 8.167
20.28000 8.489
20.30000 5.631
20.32000 -1.962
20.34000 5.293
20.36000 3.838
20.38000 1.653
20.40000 4.664
20.42000 7.049
20.44000 5.178
20.46000 7.443
20.48000 5.365
20.50000 4.199
20.52000 5.913
20.54000 3.596
20.56000 6.477
20.58000 9.798
20.60000 13.075
20.62000 11.175
20.64000 13.021
20.66000 5.135
20.68000 -1.824
20.70000 -1.465
20.72000 -1.615
20.74000 -1.700
20.76000 1.515
20.78000 5.702
20.80000 8.583
20.82000 6.520
20.84000 5.339
20.86000 9.184
20.88000 3.806
20.90000 6.515
20.92000 7.956
20.94000 8.709
20.96000 8.111
20.98000 4.101
21.00000 8.077
21.02000 13.982
21.04000 7.542
21.06000 5.257
21.08000 5.508
21.10000 0.899
21.12000 -3.562
21.14000 1.861
21.16000 3.775
21.18000 4.269
21.20000 7.114
21.22000 3.400
21.24000 3.103
21.26000 4.812
21.28000 11.911
21.30000 9.014
21.32000 6.925
21.34000 12.002
21.36000 8.771
21.38000 4.192
21.40000 3.775
21.42000 4.005
21.44000 8.736
21.46000 8.528
21.48000 -2.601
21.50000 -4.143
21.52000 5.795
21.54000 9.013
21.56000 4.362
21.58000 11.207
21.60000 11.051
21.62000 9.951
21.64000 7.669
21.66000 9.049
21.68000 10.531
21.70000 9.212
21.72000 8.692
21.74000 9.080
21.76000 3.180
21.78000 3.918
21.80000 9.427
21.82000 12.003
21.84000 8.719
21.86000 3.135
21.88000 4.579
21.90000 9.803
21.92000 4.676
21.94000 2.585
21.96000 2.404
21.98000 7.422
22.00000 8.346
22.02000 5.841
22.04000 6.402
22.06000 10.048
22.08000 9.007
22.10000 3.392
22.12000 9.180
22.14000 3.057
22.16000 2.865
22.18000 3.162
22.20000 1.569
22.22000 4.845
22.24000 -3.066
22.26000 4.452
22.28000 10.064
22.30000 0.369
22.32000 2.249
22.34000 4.491
22.36000 2.617
22.38000 0.089
22.40000 4.702
22.42000 9.082
22.44000 4.806
22.46000 3.755
22.48000 11.433
22.50000 9.129
22.52000 1.947
22.54000 3.100
22.56000 2.797
22.58000 3.613
22.60000 3.987
22.62000 4.727
22.64000 -2.080
22.66000 -1.781
22.68000 6.052
22.70000 9.526
22.72000 8.482
22.74000 6.762
22.76000 6.024
22.78000 8.123
22.80000 3.866
22.82000 1.062
22.84000 3.281
22.86000 4.716
22.88000 8.056
22.90000 7.338
22.92000 5.598
22.94000 7.245
22.96000 4.915
22.98000 1.521
23.00000 4.128
23.02000 2.095
23.04000 2.014
23.06000 -2.744
23.08000 -2.774
23.10000 -1.532
23.12000 -1.669
23.14000 3.977
23.16000 8.877
23.18000 8.684
23.20000 0.215
23.22000 1.376
23.24000 3.346
23.26000 0.447
23.28000 5.439
23.30000 2.952
23.32000 -0.879
23.34000 3.547
23.36000 1.226
23.38000 -1.090
23.40000 2.417
23.42000 -0.637
23.44000 5.915
23.46000 6.371
23.48000 -1.954
23.50000 -1.453
23.52000 -3.629
23.54000 7.308
23.56000 7.344
23.58000 4.972
23.60000 -0.211
23.62000 -4.065
23.64000 -0.408
23.66000 1.637
23.68000 1.345
23.70000 9.454
23.72000 3.102
23.74000 4.774
23.76000 8.466
23.78000 3.488
23.80000 7.585
23.82000 6.523
23.84000 0.014
23.86000 0.583
23.88000 6.018
23.90000 0.840
23.92000 7.196
23.94000 6.786
23.96000 4.975
23.98000 4.421
24.00000 -4.043
24.02000 0.558
24.04000 -0.560
24.06000 -0.427
24.08000 -0.587
24.10000 0.923
24.12000 4.171
24.14000 1.600
24.16000 2.580
24.18000 -1.485
24.20000 2.120
24.22000 1.839
24.24000 -1.038
24.26000 4.839
24.28000 2.533
24.30000 3.064
24.32000 0.648
24.34000 1.294
24.36000 1.034
24.38000 2.724
24.40000 1.346
24.42000 0.156
24.44000 0.192
24.46000 2.114
24.48000 -0.234
24.50000 -4.022
24.52000 0.838
24.54000 2.456
24.56000 1.728
24.58000 3.420
24.60000 4.279
24.62000 3.169
24.64000 3.356
24.66000 4.394
24.68000 2.230
24.70000 6.794
24.72000 4.520
24.74000 4.187
24.76000 2.084
24.78000 1.320
24.80000 4.702
24.82000 -0.982
24.84000 1.301
24.86000 1.974
24.88000 2.284
24.90000 -0.576
24.92000 0.947
24.94000 1.015
24.96000 -2.364
24.98000 -0.058
25.00000 0.170
25.02000 0.345
25.04000 0.425
25.06000 3.477
25.08000 2.375
25.10000 3.987
25.12000 -0.013
25.14000 -0.188
25.16000 4.541
25.18000 5.999
25.20000 3.971
25.22000 6.981
25.24000 7.870
25.26000 2.676
25.28000 -0.788
25.30000 0.692
25.32000 2.949
25.34000 -0.788
25.36000 4.236
25.38000 1.509
25.40000 1.296
25.42000 3.768
25.44000 3.267
25.46000 2.181
25.48000 2.555
25.50000 -0.485
25.52000 4.102
25.54000 3.910
25.56000 9.330
25.58000 5.188
25.60000 8.451
25.62000 8.150
25.64000 0.561
25.66000 -1.587
25.68000 1.779
25.70000 4.196
25.72000 0.307
25.74000 6.216
25.76000 7.857
25.78000 8.238
25.80000 6.853
25.82000 4.792
25.84000 5.820
25.86000 6.743
25.88000 4.754
25.90000 5.088
25.92000 5.805
25.94000 12.001
25.96000 11.362
25.98000 3.308
26.00000 0.880
26.02000 7.004
26.04000 5.259
26.06000 4.319
26.08000 3.003
26.10000 1.599
26.12000 1.931
26.14000 1.520
26.16000 7.543
26.18000 6.622
26.20000 -3.889
26.22000 0.779
26.24000 5.667
26.26000 10.009
26.28000 12.689
26.30000 3.780
26.32000 5.394
26.34000 7.346
26.36000 7.537
26.38000 6.222
26.40000 1.798
26.42000 2.404
26.44000 2.450
26.46000 2.890
26.48000 3.764
26.50000 -0.644
26.52000 4.397
26.54000 7.708
26.56000 8.502
26.58000 7.973
26.60000 4.425
26.62000 3.446
26.64000 2.472
26.66000 7.530
26.68000 7.847
26.70000 6.545
26.72000 4.132
26.74000 1.199
26.76000 3.949
26.78000 6.431
26.80000 7.126
26.82000 10.349
26.84000 9.022
26.86000 2.593
26.88000 7.272
26.90000 8.676
26.92000 2.690
26.94000 -0.201
26.96000 -0.327
26.98000 5.762
27.00000 6.408
27.02000 7.348
27.04000 6.447
27.06000 2.440
27.08000 6.045
27.10000 5.590
27.12000 4.030
27.14000 3.437
27.16000 1.667
27.18000 9.093
27.20000 8.874
27.22000 2.903
27.24000 4.698
27.26000 0.088
27.28000 -0.230
27.30000 3.547
27.32000 1.838
27.34000 0.772
27.36000 5.110
27.38000 5.879
27.40000 7.842
27.42000 3.349
27.44000 5.488
27.46000 10.068
27.48000 8.485
27.50000 1.887
27.52000 4.316
27.54000 10.543
27.56000 8.782
27.58000 7.236
27.60000 4.120
27.62000 1.324
27.64000 7.074
27.66000 5.043
27.68000 1.999
27.70000 4.299
27.72000 6.376
27.74000 5.723
27.76000 0.656
27.78000 1.985
27.80000 9.603
27.82000 11.808
27.84000 3.299
27.86000 3.419
27.88000 2.293
27.90000 -3.685
27.92000 0.596
27.94000 0.459
27.96000 -0.389
27.98000 -3.825
28.00000 1.733
28.02000 7.054
28.04000 6.428
28.06000 6.705
28.08000 4.861
28.10000 8.827
28.12000 5.829
28.14000 2.764
28.16000 3.843
28.18000 4.244
28.20000 4.134
28.22000 3.252
28.24000 -2.544
28.26000 1.945
28.28000 1.114
28.30000 -1.981
28.32000 -2.468
28.34000 4.781
28.36000 7.114
28.38000 7.244
28.40000 0.882
28.42000 4.271
28.44000 4.723
28.46000 2.888
28.48000 1.838
28.50000 3.198
28.52000 2.500
28.54000 1.436
28.56000 6.360
28.58000 6.415
28.60000 -0.653
28.62000 4.506
28.64000 2.194
28.66000 2.821
28.68000 1.483
28.70000 4.260
28.72000 8.287
28.74000 6.006
28.76000 0.353
28.78000 3.118
28.80000 10.583
28.82000 6.155
28.84000 4.272
28.86000 2.701
28.88000 0.327
28.90000 3.534
28.92000 3.703
28.94000 -1.190
28.96000 -3.781
28.98000 -2.576
29.00000 -1.390
29.02000 -0.070
29.04000 4.198
29.06000 6.854
29.08000 8.717
29.10000 12.729
29.12000 12.927
29.14000 4.896
29.16000 4.121
29.18000 9.761
29.20000 7.207
29.22000 3.730
29.24000 6.194
29.26000 6.579
29.28000 6.051
29.30000 3.238
29.32000 0.066
29.34000 -2.409
29.36000 2.095
29.38000 3.135
29.40000 1.701
29.42000 3.751
29.44000 -0.902
29.46000 0.729
29.48000 5.032
29.50000 0.270
29.52000 1.944
29.54000 4.111
29.56000 -0.344
29.58000 -1.561
29.60000 -0.467
29.62000 -2.239
29.64000 3.563
29.66000 -1.939
29.68000 -0.791
29.70000 1.085
29.72000 -0.594
29.74000 3.567
29.76000 4.993
29.78000 5.251
29.80000 0.144
29.82000 -0.244
29.84000 2.283
29.86000 0.493
29.88000 -0.358
29.90000 0.052
29.92000 -0.291
29.94000 -1.794
29.96000 -0.292
29.98000 1.703
30.00000 -0.750
30.02000 -2.357
30.04000 -0.176
30.06000 5.386
30.08000 -0.441
30.10000 -2.834
30.12000 5.155
30.14000 6.133
30.16000 4.312
30.18000 1.101
30.20000 5.435
30.22000 4.635
30.24000 7.924
30.26000 -0.936
30.28000 -2.073
30.30000 4.924
30.32000 6.936
30.34000 7.168
30.36000 6.266
30.38000 -0.440
30.40000 1.840
30.42000 -2.519
30.44000 -3.732
30.46000 1.963
30.48000 0.932
30.50000 -3.543
30.52000 5.196
30.54000 7.466
30.56000 5.362
30.58000 1.277
30.60000 2.699
30.62000 7.413
30.64000 8.638
30.66000 6.451
30.68000 2.317
30.70000 2.049
30.72000 1.613
30.74000 -1.710
30.76000 1.809
30.78000 0.800
30.80000 -0.581
30.82000 2.421
30.84000 -1.664
30.86000 3.707
30.88000 5.649
30.90000 3.994
30.92000 1.458
30.94000 3.275
30.96000 -0.680
30.98000 -0.283
31.00000 0.513
31.02000 -2.882
31.04000 0.119
31.06000 4.095
31.08000 0.810
31.10000 -3.703
31.12000 0.851
31.14000 5.783
31.16000 3.150
31.18000 0.430
31.20000 -1.260
31.22000 -2.065
31.24000 0.227
31.26000 3.834
31.28000 2.405
31.30000 1.291
31.32000 5.507
31.34000 3.347
31.36000 0.230
31.38000 -1.596
31.40000 -3.220
31.42000 1.198
31.44000 5.064
31.46000 2.250
31.48000 0.047
31.50000 5.690
31.52000 1.910
31.54000 -3.497
31.56000 -0.145
31.58000 2.755
31.60000 3.597
31.62000 3.131
31.64000 0.705
31.66000 4.593
31.68000 5.765
31.70000 1.748
31.72000 -2.140
31.74000 -1.365
31.76000 1.066
31.78000 6.039
31.80000 5.282
31.82000 4.248
31.84000 7.349
31.86000 4.497
31.88000 1.721
31.90000 1.938
31.92000 2.607
31.94000 0.902
31.96000 0.787
31.98000 3.861
32.00000 4.821
32.02000 4.373
32.04000 7.911
32.06000 2.693
32.08000 2.180
32.10000 5.047
32.12000 2.533
32.14000 -0.653
32.16000 -3.665
32.18000 1.947
32.20000 -0.340
32.22000 -1.123
32.24000 1.988
32.26000 0.490
32.28000 -1.195
32.30000 -3.180
32.32000 2.035
32.34000 2.838
32.36000 2.845
32.38000 1.514
32.40000 2.051
32.42000 1.770
32.44000 2.072
32.46000 3.258
32.48000 0.679
32.50000 3.895
32.52000 3.734
32.54000 4.284
32.56000 -1.297
32.58000 -1.648
32.60000 2.875
32.62000 1.068
32.64000 0.683
32.66000 1.520
32.68000 2.151
32.70000 -1.735
32.72000 -0.633
32.74000 0.864
32.76000 3.423
32.78000 4.849
32.80000 5.886
32.82000 0.253
32.84000 -0.186
32.86000 2.808
32.88000 0.512
32.90000 0.129
32.92000 2.030
32.94000 3.431
32.96000 0.892
32.98000 0.171
33.00000 -3.168
33.02000 -0.515
33.04000 -1.580
33.06000 2.669
33.08000 2.251
33.10000 1.319
33.12000 -3.040
33.14000 -3.682
33.16000 -1.062
33.18000 -0.304
33.20000 -0.370
33.22000 1.998
33.24000 5.578
33.26000 2.554
33.28000 1.836
33.30000 2.914
33.32000 5.640
33.34000 3.857
33.36000 5.561
33.38000 10.272
33.40000 5.735
33.42000 0.656
33.44000 -1.900
33.46000 2.990
33.48000 5.096
33.50000 3.488
33.52000 4.645
33.54000 1.581
33.56000 2.771
33.58000 -0.888
33.60000 3.820
33.62000 4.749
33.64000 -0.033
33.66000 2.539
33.68000 3.090
33.70000 -0.458
33.72000 -0.700
33.74000 2.292
33.76000 0.200
33.78000 5.226
33.80000 3.318
33.82000 2.769
33.84000 2.834
33.86000 2.514
33.88000 -1.181
33.90000 -1.620
33.92000 -1.518
33.94000 0.816
33.96000 1.064
33.98000 -0.080
34.00000 2.780
34.02000 3.090
34.04000 3.208
34.06000 3.063
34.08000 -1.598
34.10000 0.393
34.12000 2.533
34.14000 3.219
34.16000 -2.205
34.18000 -0.821
34.20000 -0.537
34.22000 -0.841
34.24000 1.643
34.26000 1.439
34.28000 -1.131
34.30000 0.924
34.32000 -1.789
34.34000 0.792
34.36000 1.841
34.38000 6.513
34.40000 7.750
34.42000 4.596
34.44000 0.587
34.46000 1.535
34.48000 1.681
34.50000 1.250
34.52000 2.136
34.54000 1.226
34.56000 -0.144
34.58000 -1.471
34.60000 -0.777
34.62000 2.630
34.64000 5.831
34.66000 2.895
34.68000 -0.827
34.70000 -0.872
34.72000 -2.009
34.74000 1.545
34.76000 5.338
34.78000 2.934
34.80000 1.611
34.82000 3.540
34.84000 8.881
34.86000 8.972
34.88000 0.770
34.90000 -1.006
34.92000 -1.334
34.94000 -0.799
34.96000 -3.618
34.98000 -0.626
35.00000 5.959
35.02000 4.002
35.04000 2.063
35.06000 4.152
35.08000 5.477
35.10000 1.969
35.12000 1.243
35.14000 -1.184
35.16000 3.715
35.18000 1.403
35.20000 2.441
35.22000 4.100
35.24000 8.259
35.26000 3.979
35.28000 0.036
35.30000 7.074
35.32000 5.128
35.34000 2.412
35.36000 1.867
35.38000 4.640
35.40000 -0.737
35.42000 0.438
35.44000 -1.468
35.46000 -3.234
35.48000 -3.637
35.50000 -2.404
35.52000 2.192
35.54000 5.023
35.56000 4.025
35.58000 3.041
35.60000 -1.398
35.62000 -1.115
35.64000 2.878
35.66000 4.712
35.68000 1.290
35.70000 1.584
35.72000 0.604
35.74000 1.434
35.76000 4.800
35.78000 2.528
35.80000 4.687
35.82000 2.772
35.84000 0.066
35.86000 0.681
35.88000 1.688
35.90000 1.455
35.92000 3.584
35.94000 4.641
35.96000 0.644
35.98000 4.143
36.00000 0.678
36.02000 1.738
36.04000 -2.433
36.06000 -2.986
36.08000 2.460
36.10000 -3.263
36.12000 1.619
36.14000 5.890
36.16000 1.471
36.18000 -2.681
36.20000 -0.379
36.22000 4.854
36.24000 4.287
36.26000 -1.289
36.28000 3.919
36.30000 0.611
36.32000 0.992
36.34000 -1.487
36.36000 -0.833
36.38000 3.192
36.40000 1.691
36.42000 2.985
36.44000 5.672
36.46000 0.445
36.48000 -1.194
36.50000 -1.448
36.52000 -0.300
36.54000 2.041
36.56000 8.993
36.58000 5.722
36.60000 3.150
36.62000 -1.227
36.64000 3.379
36.66000 5.618
36.68000 2.597
36.70000 -1.503
36.72000 1.335
36.74000 3.177
36.76000 3.715
36.78000 9.404
36.80000 11.251
36.82000 8.044
36.84000 5.149
36.86000 4.735
36.88000 6.263
36.90000 8.675
36.92000 9.935
36.94000 8.651
36.96000 10.321
36.98000 8.483
37.00000 5.814
37.02000 5.602
37.04000 4.974
37.06000 10.401
37.08000 7.440
37.10000 8.572
37.12000 10.951
37.14000 8.449
37.16000 10.400
37.18000 12.334
37.20000 11.458
37.22000 9.448
37.24000 14.019
37.26000 11.265
37.28000 13.793
37.30000 15.042
37.32000 20.582
37.34000 19.072
37.36000 17.267
37.38000 17.914
37.40000 17.146
37.42000 15.960
37.44000 25.633
37.46000 29.170
37.48000 22.663
37.50000 16.267
37.52000 20.941
37.54000 14.969
37.56000 20.644
37.58000 22.764
37.60000 20.254
37.62000 23.795
37.64000 27.642
37.66000 25.862
37.68000 22.396
37.70000 22.371
37.72000 22.620
37.74000 25.150
37.76000 24.816
37.78000 27.312
37.80000 30.882
37.82000 27.933
37.84000 36.596
37.86000 35.181
37.88000 38.667
37.90000 37.434
37.92000 36.301
37.94000 37.684
37.96000 43.935
37.98000 44.034
38.00000 40.823
38.02000 42.709
38.04000 45.915
38.06000 42.842
38.08000 42.400
38.10000 48.603
38.12000 48.889
38.14000 53.945
38.16000 55.242
38.18000 55.678
38.20000 59.882
38.22000 63.975
38.24000 66.821
38.26000 67.009
38.28000 69.300
38.30000 66.965
38.32000 75.760
38.34000 80.557
38.36000 85.850
38.38000 88.328
38.40000 90.202
38.42000 96.256
38.44000 99.029
38.46000 110.004
38.48000 121.164
38.50000 123.088
38.52000 131.941
38.54000 135.747
38.56000 139.124
38.58000 148.373
38.60000 156.306
38.62000 166.452
38.64000 177.534
38.66000 193.770
38.68000 203.041
38.70000 214.688
38.72000 223.304
38.74000 230.259
38.76000 244.579
38.78000 250.722
38.80000 263.358
38.82000 273.587
38.84000 278.418
38.86000 290.479
38.88000 298.756
38.90000 312.888
38.92000 318.251
38.94000 320.712
38.96000 323.208
38.98000 327.588
39.00000 326.292
39.02000 328.973
39.04000 327.007
39.06000 321.441
39.08000 314.038
39.10000 306.900
39.12000 294.876
39.14000 284.310
39.16000 279.332
39.18000 264.515
39.20000 253.867
39.22000 246.638
39.24000 238.034
39.26000 231.314
39.28000 215.498
39.30000 205.545
39.32000 196.610
39.34000 183.508
39.36000 167.489
39.38000 162.709
39.40000 152.783
39.42000 143.731
39.44000 137.320
39.46000 128.156
39.48000 118.252
39.50000 106.705
39.52000 109.277
39.54000 108.628
39.56000 97.497
39.58000 87.353
39.60000 84.385
39.62000 80.110
39.64000 75.478
39.66000 69.236
39.68000 66.437
39.70000 65.890
39.72000 65.495
39.74000 56.217
39.76000 55.282
39.78000 54.669
39.80000 49.722
39.82000 49.268
39.84000 45.972
39.86000 41.116
39.88000 40.403
39.90000 39.220
39.92000 39.527
39.94000 37.909
39.96000 35.721
39.98000 29.397
40.00000 26.825
40.02000 30.336
40.04000 32.699
40.06000 27.911
40.08000 26.241
40.10000 28.381
40.12000 25.759
40.14000 22.797
40.16000 23.271
40.18000 21.558
40.20000 23.344
40.22000 19.529
40.24000 20.448
40.26000 14.086
40.28000 12.962
40.30000 20.197
40.32000 19.892
40.34000 14.913
40.36000 15.910
40.38000 20.050
40.40000 22.166
40.42000 17.318
40.44000 18.600
40.46000 15.321
40.48000 15.628
40.50000 14.636
40.52000 12.510
40.54000 14.243
40.56000 14.339
40.58000 10.975
40.60000 11.699
40.62000 10.433
40.64000 6.319
40.66000 5.621
40.68000 5.090
40.70000 6.504
40.72000 7.330
40.74000 8.160
40.76000 5.678
40.78000 4.607
40.80000 2.415
40.82000 5.633
40.84000 6.840
40.86000 6.299
40.88000 12.249
40.90000 9.178
40.92000 10.248
40.94000 8.075
40.96000 7.023
40.98000 4.295
41.00000 5.553
41.02000 9.276
41.04000 7.008
41.06000 8.891
41.08000 6.248
41.10000 0.417
41.12000 0.750
41.14000 5.592
41.16000 3.732
41.18000 5.475
41.20000 6.760
41.22000 2.730
41.24000 0.469
41.26000 -0.797
41.28000 1.182
41.30000 1.350
41.32000 1.448
41.34000 2.805
41.36000 5.267
41.38000 8.001
41.40000 5.532
41.42000 0.451
41.44000 -0.547
41.46000 -1.666
41.48000 0.521
41.50000 2.080
41.52000 2.405
41.54000 2.273
41.56000 2.311
41.58000 6.966
41.60000 4.135
41.62000 -1.176
41.64000 -0.935
41.66000 -1.475
41.68000 -2.198
41.70000 0.188
41.72000 1.248
41.74000 -2.224
41.76000 -2.685
41.78000 -3.445
41.80000 -2.705
41.82000 0.052
41.84000 3.883
41.86000 0.905
41.88000 -0.514
41.90000 0.741
41.92000 1.309
41.94000 4.068
41.96000 6.189
41.98000 3.584
42.00000 0.343
42.02000 -1.682
42.04000 2.618
42.06000 3.916
42.08000 3.742
42.10000 -0.397
42.12000 -2.004
42.14000 -3.385
42.16000 -2.173
42.18000 1.207
42.20000 4.001
42.22000 5.356
42.24000 4.719
42.26000 1.045
42.28000 -2.061
42.30000 -0.807
42.32000 3.857
42.34000 -0.328
42.36000 -0.118
42.38000 1.250
42.40000 0.882
42.42000 2.733
42.44000 -2.040
42.46000 -0.770
42.48000 1.379
42.50000 2.286
42.52000 1.800
42.54000 2.198
42.56000 1.674
42.58000 -1.402
42.60000 -0.133
42.62000 0.496
42.64000 2.352
42.66000 1.775
42.68000 3.130
42.70000 0.495
42.72000 2.349
42.74000 6.395
42.76000 -0.671
42.78000 -0.084
42.80000 1.510
42.82000 1.943
42.84000 -0.763
42.86000 -3.085
42.88000 3.057
42.90000 3.207
42.92000 2.686
42.94000 0.402
42.96000 -1.766
42.98000 0.369
43.00000 -2.409
43.02000 -1.511
43.04000 -2.379
43.06000 -1.492
43.08000 2.012
43.10000 3.086
43.12000 3.477
43.14000 1.843
43.16000 3.460
43.18000 -0.505
43.20000 -1.049
43.22000 0.597
43.24000 -2.236
43.26000 -3.277
43.28000 -1.744
43.30000 -3.276
43.32000 4.115
43.34000 5.603
43.36000 3.355
43.38000 0.124
43.40000 1.317
43.42000 1.615
43.44000 2.362
43.46000 -1.071
43.48000 0.577
43.50000 0.217
43.52000 0.086
43.54000 1.139
43.56000 -1.420
43.58000 4.109
43.60000 3.049
43.62000 3.312
43.64000 5.045
43.66000 4.838
43.68000 5.506
43.70000 2.426
43.72000 -0.117
43.74000 -1.986
43.76000 0.967
43.78000 6.156
43.80000 5.521
43.82000 2.972
43.84000 0.600
43.86000 -3.250
43.88000 -1.736
43.90000 4.914
43.92000 4.673
43.94000 2.918
43.96000 3.627
43.98000 7.173
44.00000 7.660
44.02000 4.896
44.04000 1.225
44.06000 5.143
44.08000 3.550
44.10000 2.651
44.12000 5.011
44.14000 4.861
44.16000 3.372
44.18000 3.655
44.20000 10.676
44.22000 8.725
44.24000 5.589
44.26000 8.457
44.28000 8.682
44.30000 5.184
44.32000 4.366
44.34000 6.571
44.36000 7.771
44.38000 11.372
44.40000 10.325
44.42000 8.222
44.44000 9.897
44.46000 13.472
44.48000 14.585
44.50000 7.959
44.52000 13.752
44.54000 20.567
44.56000 20.428
44.58000 17.014
44.60000 19.429
44.62000 20.419
44.64000 21.755
44.66000 21.756
44.68000 23.436
44.70000 25.226
44.72000 28.084
44.74000 27.960
44.76000 31.897
44.78000 33.694
44.80000 31.990
44.82000 34.571
44.84000 40.484
44.86000 37.844
44.88000 36.864
44.90000 40.508
44.92000 42.351
44.94000 42.298
44.96000 46.439
44.98000 48.696
45.00000 51.707
45.02000 55.682
45.04000 60.506
45.06000 66.630
45.08000 68.780
45.10000 69.710
45.12000 67.820
45.14000 75.914
45.16000 76.635
45.18000 75.960
45.20000 84.455
45.22000 86.702
45.24000 87.360
45.26000 88.164
45.28000 94.625
45.30000 99.832
45.32000 95.160
45.34000 97.550
45.36000 103.076
45.38000 106.634
45.40000 106.908
45.42000 113.912
45.44000 113.892
45.46000 107.788
45.48000 106.909
45.50000 112.147
45.52000 117.157
45.54000 108.990
45.56000 115.975
45.58000 118.962
45.60000 108.872
45.62000 104.559
45.64000 101.573
45.66000 99.826
45.68000 95.368
45.70000 93.573
45.72000 91.394
45.74000 85.737
45.76000 82.715
45.78000 85.031
45.80000 79.048
45.82000 79.729
45.84000 77.843
45.86000 68.704
45.88000 65.163
45.90000 65.387
45.92000 59.461
45.94000 60.490
45.96000 58.264
45.98000 51.697
46.00000 44.261
46.02000 42.263
46.04000 44.614
46.06000 41.671
46.08000 38.019
46.10000 34.787
46.12000 28.783
46.14000 29.872
46.16000 28.742
46.18000 28.785
46.20000 24.106
46.22000 26.404
46.24000 21.423
46.26000 18.110
46.28000 21.144
46.30000 14.210
46.32000 13.601
46.34000 12.096
46.36000 8.982
46.38000 9.450
46.40000 12.954
46.42000 14.578
46.44000 8.813
46.46000 7.391
46.48000 5.973
46.50000 5.357
46.52000 5.985
46.54000 3.205
46.56000 7.874
46.58000 7.094
46.60000 6.174
46.62000 3.765
46.64000 1.956
46.66000 -1.916
46.68000 1.164
46.70000 1.871
46.72000 2.944
46.74000 0.865
46.76000 3.014
46.78000 2.260
46.80000 -0.174
46.82000 0.993
46.84000 -0.218
46.86000 -0.534
46.88000 -0.795
46.90000 0.330
46.92000 0.095
46.94000 0.634
46.96000 -1.461
46.98000 -0.540
47.00000 0.009
47.02000 2.801
47.04000 1.874
47.06000 1.857
47.08000 -1.869
47.10000 0.075
47.12000 -1.834
47.14000 -2.869
47.16000 -1.700
47.18000 2.221
47.20000 3.363
47.22000 5.846
47.24000 1.378
47.26000 -0.834
47.28000 -0.010
47.30000 -2.289
47.32000 -0.384
47.34000 -1.018
47.36000 1.458
47.38000 1.798
47.40000 0.988
47.42000 3.891
47.44000 4.758
47.46000 3.703
47.48000 2.548
47.50000 1.194
47.52000 3.061
47.54000 -0.078
47.56000 0.736
47.58000 -0.052
47.60000 -0.352
47.62000 -2.818
47.64000 0.594
47.66000 0.688
47.68000 -2.259
47.70000 2.224
47.72000 5.926
47.74000 6.058
47.76000 7.722
47.78000 5.303
47.80000 2.968
47.82000 4.846
47.84000 3.032
47.86000 0.862
47.88000 2.487
47.90000 6.015
47.92000 2.862
47.94000 3.648
47.96000 2.049
47.98000 1.401
48.00000 4.161
48.02000 1.613
48.04000 4.532
48.06000 -0.747
48.08000 1.005
48.10000 2.070
48.12000 0.104
48.14000 -2.748
48.16000 -0.780
48.18000 1.373
48.20000 -2.204
48.22000 0.603
48.24000 4.798
48.26000 3.951
48.28000 6.994
48.30000 3.166
48.32000 -0.555
48.34000 0.619
48.36000 4.730
48.38000 1.183
48.40000 -0.262
48.42000 -2.744
48.44000 -0.259
48.46000 6.556
48.48000 5.858
48.50000 3.431
48.52000 3.428
48.54000 5.257
48.56000 3.520
48.58000 3.157
48.60000 4.756
48.62000 4.074
48.64000 1.934
48.66000 1.083
48.68000 4.649
48.70000 6.697
48.72000 5.139
48.74000 0.761
48.76000 -0.344
48.78000 -0.408
48.80000 2.197
48.82000 5.669
48.84000 5.488
48.86000 3.486
48.88000 6.518
48.90000 3.197
48.92000 -0.217
48.94000 5.639
48.96000 6.348
48.98000 5.011
49.00000 4.968
49.02000 -0.777
49.04000 -2.703
49.06000 -0.297
49.08000 3.149
49.10000 3.012
49.12000 1.208
49.14000 -1.655
49.16000 0.218
49.18000 0.892
49.20000 0.974
49.22000 3.459
49.24000 1.879
49.26000 0.914
49.28000 0.717
49.30000 2.500
49.32000 1.346
49.34000 2.716
49.36000 2.364
49.38000 2.247
49.40000 4.018
49.42000 -0.641
49.44000 3.786
49.46000 7.186
49.48000 3.187
49.50000 2.824
49.52000 3.658
49.54000 2.427
49.56000 5.085
49.58000 6.782
49.60000 3.396
49.62000 0.916
49.64000 -2.667
49.66000 1.321
49.68000 3.875
49.70000 8.394
49.72000 3.734
49.74000 2.155
49.76000 4.479
49.78000 4.545
49.80000 0.739
49.82000 0.967
49.84000 1.381
49.86000 1.476
49.88000 -0.087
49.90000 4.309
49.92000 5.974
49.94000 1.987
49.96000 4.939
49.98000 3.645
50.00000 5.658
50.02000 7.236
50.04000 3.473
50.06000 5.786
50.08000 3.539
50.10000 4.240
50.12000 -0.220
50.14000 0.308
50.16000 -2.662
50.18000 -0.412
50.20000 1.049
50.22000 -1.814
50.24000 -1.974
50.26000 0.778
50.28000 0.626
50.30000 2.932
50.32000 3.643
50.34000 0.996
50.36000 -0.698
50.38000 1.773
50.40000 2.054
50.42000 2.878
50.44000 0.566
50.46000 0.421
50.48000 -1.257
50.50000 1.387
50.52000 2.475
50.54000 1.729
50.56000 0.510
50.58000 -1.046
50.60000 -2.017
50.62000 -1.565
50.64000 1.093
50.66000 -0.264
50.68000 3.661
50.70000 2.857
50.72000 -0.246
50.74000 1.161
50.76000 2.689
50.78000 4.191
50.80000 1.322
50.82000 -0.303
50.84000 -2.645
50.86000 1.457
50.88000 5.028
50.90000 3.153
50.92000 -0.522
50.94000 -0.869
50.96000 -0.027
50.98000 -0.433
51.00000 1.300
51.02000 1.591
51.04000 2.372
51.06000 2.287
51.08000 2.184
51.10000 -0.848
51.12000 2.376
51.14000 -1.082
51.16000 0.462
51.18000 -1.130
51.20000 4.176
51.22000 2.319
51.24000 2.592
51.26000 4.157
51.28000 4.955
51.30000 8.212
51.32000 6.731
51.34000 2.760
51.36000 -0.599
51.38000 3.678
51.40000 3.260
51.42000 0.661
51.44000 3.229
51.46000 3.972
51.48000 6.200
51.50000 2.970
51.52000 6.578
51.54000 4.388
51.56000 5.702
51.58000 4.866
51.60000 1.970
51.62000 -2.631
51.64000 0.515
51.66000 0.923
51.68000 1.622
51.70000 1.895
51.72000 3.839
51.74000 2.241
51.76000 0.946
51.78000 3.028
51.80000 0.262
51.82000 2.060
51.84000 0.650
51.86000 0.970
51.88000 2.190
51.90000 4.206
51.92000 3.591
51.94000 3.114
51.96000 1.874
51.98000 2.712
52.00000 2.203
52.02000 -2.039
52.04000 0.065
52.06000 3.908
52.08000 3.545
52.10000 -1.852
52.12000 2.818
52.14000 5.557
52.16000 4.517
52.18000 5.572
52.20000 1.490
52.22000 0.871
52.24000 0.271
52.26000 5.051
52.28000 4.010
52.30000 3.825
52.32000 3.579
52.34000 2.552
52.36000 -1.262
52.38000 2.225
52.40000 6.724
52.42000 6.400
52.44000 4.653
52.46000 6.616
52.48000 3.992
52.50000 4.332
52.52000 0.005
52.54000 -2.577
52.56000 2.726
52.58000 6.908
52.60000 5.858
52.62000 3.149
52.64000 1.172
52.66000 -2.244
52.68000 2.770
52.70000 4.591
52.72000 2.966
52.74000 3.667
52.76000 4.981
52.78000 6.282
52.80000 2.677
52.82000 -1.516
52.84000 -1.530
52.86000 1.250
52.88000 2.624
52.90000 1.525
52.92000 2.706
52.94000 0.315
52.96000 -0.823
52.98000 2.394
53.00000 4.909
53.02000 6.319
53.04000 6.436
53.06000 5.440
53.08000 0.873
53.10000 -0.910
53.12000 0.106
53.14000 5.150
53.16000 2.898
53.18000 4.456
53.20000 5.323
53.22000 4.998
53.24000 5.419
53.26000 1.780
53.28000 -0.187
53.30000 0.892
53.32000 4.770
53.34000 6.260
53.36000 6.964
53.38000 7.008
53.40000 1.539
53.42000 -1.216
53.44000 0.292
53.46000 2.922
53.48000 3.876
53.50000 5.849
53.52000 4.507
53.54000 3.025
53.56000 3.242
53.58000 5.283
53.60000 3.037
53.62000 1.829
53.64000 -0.440
53.66000 -2.546
53.68000 0.548
53.70000 6.617
53.72000 4.897
53.74000 2.511
53.76000 2.403
53.78000 -0.664
53.80000 2.829
53.82000 5.065
53.84000 3.732
53.86000 8.677
53.88000 3.523
53.90000 4.762
53.92000 6.523
53.94000 3.862
53.96000 1.925
53.98000 4.843
54.00000 4.001
54.02000 1.193
54.04000 0.198
54.06000 -2.541
54.08000 3.804
54.10000 4.146
54.12000 5.918
54.14000 1.574
54.16000 3.396
54.18000 5.230
54.20000 2.408
54.22000 4.376
54.24000 7.727
54.26000 4.053
54.28000 -0.654
54.30000 -0.270
54.32000 3.193
54.34000 5.405
54.36000 1.467
54.38000 1.077
54.40000 3.277
54.42000 1.968
54.44000 3.837
54.46000 5.325
54.48000 2.815
54.50000 1.894
54.52000 -0.687
54.54000 2.435
54.56000 4.837
54.58000 2.317
54.60000 -0.317
54.62000 -1.549
54.64000 -0.675
54.66000 1.725
54.68000 -1.300
54.70000 1.174
54.72000 3.486
54.74000 2.312
54.76000 0.379
54.78000 -0.445
54.80000 5.788
54.82000 3.449
54.84000 -2.433
54.86000 -0.138
54.88000 3.658
54.90000 1.723
54.92000 4.226
54.94000 4.567
54.96000 0.945
54.98000 1.945
55.00000 4.036
55.02000 5.310
55.04000 3.268
55.06000 1.488
55.08000 -0.145
55.10000 4.824
55.12000 4.029
55.14000 4.077
55.16000 1.427
55.18000 0.631
55.20000 -0.912
55.22000 -2.002
55.24000 -1.152
55.26000 2.141
55.28000 3.246
55.30000 6.041
55.32000 6.036
55.34000 4.410
55.36000 3.134
55.38000 2.084
55.40000 7.185
55.42000 2.469
55.44000 0.280
55.46000 3.130
55.48000 6.654
55.50000 4.946
55.52000 1.493
55.54000 4.222
55.56000 7.959
55.58000 3.767
55.60000 2.197
55.62000 3.406
55.64000 1.882
55.66000 -0.122
55.68000 1.547
55.70000 6.637
55.72000 7.173
55.74000 2.355
55.76000 2.833
55.78000 2.640
55.80000 3.210
55.82000 3.235
55.84000 -2.501
55.86000 -1.537
55.88000 4.395
55.90000 4.731
55.92000 4.326
55.94000 6.019
55.96000 6.739
55.98000 5.678
56.00000 8.690
56.02000 3.506
56.04000 4.621
56.06000 4.969
56.08000 3.244
56.10000 1.965
56.12000 4.105
56.14000 5.317
56.16000 3.738
56.18000 4.602
56.20000 4.631
56.22000 6.174
56.24000 4.214
56.26000 5.298
56.28000 7.805
56.30000 5.440
56.32000 6.361
56.34000 4.499
56.36000 5.453
56.38000 4.933
56.40000 2.667
56.42000 -1.585
56.44000 -0.548
56.46000 0.554
56.48000 1.444
56.50000 -1.700
56.52000 1.313
56.54000 4.675
56.56000 2.445
56.58000 1.530
56.60000 2.158
56.62000 -2.480
56.64000 0.257
56.66000 6.049
56.68000 6.191
56.70000 1.935
56.72000 3.412
56.74000 4.451
56.76000 3.061
56.78000 0.819
56.80000 -1.659
56.82000 -1.612
56.84000 0.483
56.86000 -0.740
56.88000 0.406
56.90000 3.146
56.92000 2.462
56.94000 3.747
56.96000 3.807
56.98000 4.040
57.00000 5.451
57.02000 5.876
57.04000 4.365
57.06000 3.570
57.08000 5.547
57.10000 4.917
57.12000 3.944
57.14000 2.812
57.16000 2.022
57.18000 1.215
57.20000 -0.575
57.22000 -1.088
57.24000 2.128
57.26000 0.598
57.28000 2.147
57.30000 1.668
57.32000 1.141
57.34000 -0.391
57.36000 2.571
57.38000 2.679
57.40000 2.106
57.42000 1.503
57.44000 -2.245
57.46000 1.174
57.48000 3.758
57.50000 0.890
57.52000 0.570
57.54000 0.474
57.56000 2.210
57.58000 6.567
57.60000 5.245
57.62000 6.684
57.64000 2.620
57.66000 -1.349
57.68000 2.749
57.70000 3.534
57.72000 0.858
57.74000 4.895
57.76000 3.505
57.78000 2.060
57.80000 3.803
57.82000 5.273
57.84000 6.659
57.86000 2.684
57.88000 1.003
57.90000 0.622
57.92000 -0.969
57.94000 -1.238
57.96000 0.357
57.98000 -1.222
58.00000 1.791
58.02000 5.104
58.04000 4.872
58.06000 2.145
58.08000 3.451
58.10000 3.562
58.12000 4.910
58.14000 1.714
58.16000 2.973
58.18000 2.001
58.20000 1.829
58.22000 -2.408
58.24000 -0.307
58.26000 1.742
58.28000 0.313
58.30000 1.590
58.32000 2.887
58.34000 5.738
58.36000 8.504
58.38000 5.855
58.40000 4.931
58.42000 4.417
58.44000 4.884
58.46000 3.080
58.48000 3.356
58.50000 5.353
58.52000 5.331
58.54000 5.007
58.56000 5.802
58.58000 5.645
58.60000 5.409
58.62000 3.999
58.64000 -2.404
58.66000 0.985
58.68000 3.818
58.70000 5.986
58.72000 6.825
58.74000 4.512
58.76000 4.298
58.78000 3.466
58.80000 4.922
58.82000 7.591
58.84000 4.287
58.86000 1.251
58.88000 4.290
58.90000 5.127
58.92000 6.887
58.94000 5.647
58.96000 4.807
58.98000 3.947
59.00000 0.891
59.02000 3.478
59.04000 8.265
59.06000 9.368
59.08000 7.197
59.10000 5.648
59.12000 3.080
59.14000 8.103
59.16000 8.645
59.18000 7.069
59.20000 2.651
59.22000 -0.433
59.24000 0.896
59.26000 1.428
59.28000 3.281
59.30000 4.835
59.32000 3.044
59.34000 1.761
59.36000 -0.872
59.38000 -1.386
59.40000 -1.302
59.42000 0.295
59.44000 1.364
59.46000 4.022
59.48000 2.475
59.50000 4.045
59.52000 7.505
59.54000 8.196
59.56000 7.034
59.58000 0.611
59.60000 -0.004
59.62000 4.131
59.64000 3.338
59.66000 2.149
59.68000 3.294
59.70000 1.848
59.72000 4.532
59.74000 4.051
59.76000 2.045
59.78000 5.497
59.80000 -0.118
59.82000 0.727
59.84000 2.935
59.86000 6.546
59.88000 3.311
59.90000 1.981
59.92000 1.765
59.94000 0.336
59.96000 1.706
59.98000 2.811
60.00000 2.768
60.02000 0.168
60.04000 2.278
60.06000 2.837
60.08000 3.228
60.10000 3.252
60.12000 2.352
60.14000 1.470
60.16000 -0.826
60.18000 0.655
60.20000 0.692
60.22000 -0.497
60.24000 1.580
60.26000 2.082
60.28000 3.464
60.30000 2.030
60.32000 -1.605
60.34000 1.389
60.36000 0.317
60.38000 -2.343
60.40000 1.907
60.42000 1.451
60.44000 0.715
60.46000 3.639
60.48000 6.101
60.50000 7.599
60.52000 7.406
60.54000 2.463
60.56000 3.623
60.58000 6.071
60.60000 3.299
60.62000 0.353
60.64000 1.252
60.66000 4.291
60.68000 5.101
60.70000 5.881
60.72000 1.772
60.74000 1.888
60.76000 1.823
60.78000 2.152
60.80000 4.056
60.82000 4.272
60.84000 1.609
60.86000 2.525
60.88000 2.792
60.90000 -2.121
60.92000 2.081
60.94000 6.124
60.96000 5.705
60.98000 3.022
61.00000 1.839
61.02000 0.602
61.04000 -0.307
61.06000 -1.696
61.08000 0.524
61.10000 0.697
61.12000 1.595
61.14000 3.418
61.16000 0.497
61.18000 -2.077
61.20000 -2.330
61.22000 3.473
61.24000 2.962
61.26000 -1.384
61.28000 0.399
61.30000 2.693
61.32000 0.373
61.34000 3.378
61.36000 5.175
61.38000 2.833
61.40000 4.824
61.42000 2.753
61.44000 5.075
61.46000 3.688
61.48000 3.810
61.50000 2.026
61.52000 3.836
61.54000 4.913
61.56000 1.439
61.58000 -1.775
61.60000 2.746
61.62000 3.262
61.64000 2.161
61.66000 2.291
61.68000 1.255
61.70000 0.443
61.72000 0.180
61.74000 0.039
61.76000 3.256
61.78000 4.041
61.80000 1.250
61.82000 -2.199
61.84000 0.855
61.86000 3.283
61.88000 3.875
61.90000 1.008
61.92000 -1.538
61.94000 -1.583
61.96000 -0.897
61.98000 3.273
62.00000 3.711
62.02000 2.447
62.04000 2.837
62.06000 4.586
62.08000 1.998
62.10000 1.017
62.12000 1.422
62.14000 1.877
62.16000 1.276
62.18000 4.073
62.20000 4.053
62.22000 0.545
62.24000 -0.913
62.26000 -0.372
62.28000 -0.041
62.30000 -0.177
62.32000 -1.419
62.34000 -1.551
62.36000 -0.814
62.38000 1.219
62.40000 0.548
62.42000 -0.529
62.44000 0.825
62.46000 3.854
62.48000 2.517
62.50000 1.747
62.52000 2.943
62.54000 3.258
62.56000 1.393
62.58000 -1.092
62.60000 4.072
62.62000 6.185
62.64000 4.468
62.66000 6.408
62.68000 5.183
62.70000 3.032
62.72000 1.167
62.74000 1.886
62.76000 4.823
62.78000 3.154
62.80000 1.558
62.82000 0.233
62.84000 0.868
62.86000 -2.270
62.88000 1.499
62.90000 1.970
62.92000 3.078
62.94000 3.243
62.96000 3.412
62.98000 7.252
63.00000 4.266
63.02000 2.815
63.04000 1.029
63.06000 3.601
63.08000 2.570
63.10000 2.539
63.12000 0.559
63.14000 -0.757
63.16000 -0.754
63.18000 0.601
63.20000 3.442
63.22000 2.994
63.24000 1.405
63.26000 1.314
63.28000 0.337
63.30000 2.016
63.32000 3.891
63.34000 4.066
63.36000 5.177
63.38000 7.515
63.40000 6.172
63.42000 3.982
63.44000 3.505
63.46000 4.561
63.48000 2.025
63.50000 0.548
63.52000 -2.282
63.54000 3.190
63.56000 2.704
63.58000 0.636
63.60000 -0.419
63.62000 1.843
63.64000 1.171
63.66000 -0.564
63.68000 3.116
63.70000 7.005
63.72000 3.161
63.74000 3.448
63.76000 0.411
63.78000 1.541
63.80000 1.741
63.82000 3.018
63.84000 -0.380
63.86000 0.743
63.88000 4.796
63.90000 5.680
63.92000 1.151
63.94000 1.799
63.96000 -2.299
63.98000 -0.086
64.00000 -0.947
64.02000 -0.616
64.04000 -1.105
64.06000 -1.474
64.08000 2.160
64.10000 4.779
64.12000 3.466
64.14000 3.267
64.16000 -1.602
64.18000 0.430
64.20000 -0.059
64.22000 0.226
64.24000 -2.110
64.26000 0.356
64.28000 -0.534
64.30000 -0.584
64.32000 0.239
64.34000 4.222
64.36000 3.805
64.38000 1.244
64.40000 1.266
64.42000 -1.014
64.44000 -0.495
64.46000 -0.650
64.48000 -1.785
64.50000 1.352
64.52000 2.796
64.54000 4.591
64.56000 1.430
64.58000 2.092
64.60000 0.648
64.62000 2.096
64.64000 4.839
64.66000 3.879
64.68000 4.244
64.70000 2.912
64.72000 -0.772
64.74000 1.157
64.76000 2.561
64.78000 2.287
64.80000 -0.254
64.82000 0.955
64.84000 2.994
64.86000 3.936
64.88000 2.857
64.90000 -1.748
64.92000 -1.991
64.94000 -2.308
64.96000 -0.594
64.98000 1.043
65.00000 2.455
65.02000 0.686
65.04000 -1.234
65.06000 0.168
65.08000 5.059
65.10000 1.759
65.12000 0.339
65.14000 -0.328
65.16000 -2.317
65.18000 -0.662
65.20000 -0.908
65.22000 0.775
65.24000 2.292
65.26000 1.761
65.28000 1.373
65.30000 -0.157
65.32000 -0.373
65.34000 1.523
65.36000 0.669
65.38000 3.514
65.40000 1.566
65.42000 2.737
65.44000 4.371
65.46000 4.927
65.48000 0.630
65.50000 -0.389
65.52000 0.566
65.54000 2.226
65.56000 2.112
65.58000 3.670
65.60000 1.519
65.62000 2.226
65.64000 3.349
65.66000 2.909
65.68000 4.342
65.70000 3.389
65.72000 5.667
65.74000 3.203
65.76000 4.249
65.78000 4.452
65.80000 4.034
65.82000 2.470
65.84000 2.944
65.86000 6.586
65.88000 3.848
65.90000 3.450
65.92000 2.676
65.94000 3.553
65.96000 4.575
65.98000 4.461
66.00000 6.050
66.02000 8.728
66.04000 6.576
66.06000 5.991
66.08000 3.959
66.10000 4.065
66.12000 5.897
66.14000 7.413
66.16000 6.183
66.18000 4.574
66.20000 6.047
66.22000 6.043
66.24000 5.170
66.26000 2.510
66.28000 1.710
66.30000 2.882
66.32000 4.450
66.34000 6.070
66.36000 2.191
66.38000 2.399
66.40000 4.413
66.42000 6.332
66.44000 3.722
66.46000 2.410
66.48000 3.295
66.50000 0.396
66.52000 1.477
66.54000 3.431
66.56000 4.748
66.58000 6.177
66.60000 8.022
66.62000 6.226
66.64000 2.970
66.66000 2.160
66.68000 3.334
66.70000 1.835
66.72000 2.013
66.74000 6.375
66.76000 2.584
66.78000 -1.131
66.80000 -0.413
66.82000 0.205
66.84000 3.000
66.86000 2.816
66.88000 -1.590
66.90000 -1.599
66.92000 -2.304
66.94000 -1.268
66.96000 -0.190
66.98000 0.252
67.00000 -1.572
67.02000 -0.584
67.04000 1.295
67.06000 1.424
67.08000 1.769
67.10000 2.181
67.12000 0.841
67.14000 -0.933
67.16000 -2.171
67.18000 -0.601
67.20000 0.030
67.22000 -0.928
67.24000 0.499
67.26000 -0.791
67.28000 0.755
67.30000 -0.770
67.32000 -0.241
67.34000 -1.544
67.36000 0.187
67.38000 -0.787
67.40000 -0.650
67.42000 0.744
67.44000 1.564
67.46000 2.111
67.48000 0.774
67.50000 -0.489
67.52000 -0.811
67.54000 -0.926
67.56000 -0.603
67.58000 -1.138
67.60000 -0.739
67.62000 1.696
67.64000 1.358
67.66000 -1.493
67.68000 -2.243
67.70000 -0.497
67.72000 -0.366
67.74000 0.110
67.76000 -2.057
67.78000 -0.480
67.80000 -0.805
67.82000 -1.007
67.84000 -2.050
67.86000 -0.720
67.88000 -0.646
67.90000 0.642
67.92000 3.007
67.94000 0.512
67.96000 -1.859
67.98000 -1.177
68.00000 1.430
68.02000 2.948
68.04000 -0.287
68.06000 -0.914
68.08000 -0.784
68.10000 1.735
68.12000 0.505
68.14000 1.032
68.16000 -0.658
68.18000 -1.910
68.20000 -2.185
68.22000 -0.188
68.24000 2.943
68.26000 3.086
68.28000 3.380
68.30000 -0.506
68.32000 -1.124
68.34000 -0.832
68.36000 1.783
68.38000 2.066
68.40000 1.870
68.42000 1.113
68.44000 -0.033
68.46000 3.853
68.48000 3.385
68.50000 -0.051
68.52000 -1.877
68.54000 1.528
68.56000 3.367
68.58000 -1.388
68.60000 -0.508
68.62000 0.290
68.64000 1.995
68.66000 0.415
68.68000 -2.176
68.70000 -2.166
68.72000 0.726
68.74000 3.554
68.76000 1.967
68.78000 -0.179
68.80000 -0.319
68.82000 2.362
68.84000 2.663
68.86000 -0.140
68.88000 1.713
68.90000 -0.331
68.92000 -0.365
68.94000 1.751
68.96000 1.873
68.98000 -0.090
69.00000 -1.031
69.02000 -0.957
69.04000 1.647
69.06000 2.088
69.08000 1.015
69.10000 -0.478
69.12000 -1.279
69.14000 -0.197
69.16000 0.873
69.18000 1.050
69.20000 -1.023
69.22000 -2.162
69.24000 -2.161
69.26000 -0.386
69.28000 1.188
69.30000 0.770
69.32000 0.051
69.34000 1.108
69.36000 0.222
69.38000 -0.241
69.40000 -1.222
69.42000 -2.154
69.44000 0.383
69.46000 1.199
69.48000 0.857
69.50000 -0.217
69.52000 -1.339
69.54000 0.676
69.56000 0.229
69.58000 1.975
69.60000 1.702
69.62000 -0.324
69.64000 -0.468
69.66000 0.934
69.68000 -0.549
69.70000 -0.992
69.72000 -0.493
69.74000 0.476
69.76000 0.337
69.78000 -0.957
69.80000 -1.534
69.82000 0.687
69.84000 -0.079
69.86000 0.171
69.88000 4.062
69.90000 2.022
69.92000 0.265
69.94000 -0.518
69.96000 0.510
69.98000 1.539
70.00000 -1.428
70.02000 -0.277
70.04000 0.739
70.06000 -0.416
70.08000 -0.159
70.10000 0.907
70.12000 -1.339
70.14000 -1.406
70.16000 -0.664
70.18000 -1.729
70.20000 -1.603
70.22000 0.586
70.24000 1.517
70.26000 3.845
70.28000 4.572
70.30000 0.308
70.32000 2.536
70.34000 2.378
70.36000 1.156
70.38000 0.455
70.40000 1.981
70.42000 2.062
70.44000 2.049
70.46000 0.003
70.48000 -1.449
70.50000 0.501
70.52000 -0.952
70.54000 -0.417
70.56000 0.682
70.58000 -0.812
70.60000 -2.116
70.62000 1.779
70.64000 3.050
70.66000 2.877
70.68000 4.597
70.70000 1.056
70.72000 -1.896
70.74000 3.159
70.76000 -1.201
70.78000 1.935
70.80000 4.939
70.82000 3.278
70.84000 1.522
70.86000 2.175
70.88000 2.391
70.90000 2.172
70.92000 5.452
70.94000 5.284
70.96000 2.408
70.98000 1.549
71.00000 2.238
71.02000 2.418
71.04000 -0.237
71.06000 0.885
71.08000 3.362
71.10000 2.690
71.12000 0.082
71.14000 0.859
71.16000 0.954
71.18000 0.187
71.20000 1.026
71.22000 0.951
71.24000 1.751
71.26000 -0.477
71.28000 -1.172
71.30000 -0.777
71.32000 -0.450
71.34000 0.798
71.36000 0.587
71.38000 1.490
71.40000 1.476
71.42000 -1.108
71.44000 -1.957
71.46000 -2.062
71.48000 0.368
71.50000 -0.294
71.52000 -0.463
71.54000 -1.583
71.56000 0.527
71.58000 2.159
71.60000 1.288
71.62000 1.416
71.64000 1.503
71.66000 -0.183
71.68000 -0.129
71.70000 1.116
71.72000 2.297
71.74000 0.785
71.76000 1.520
71.78000 3.027
71.80000 2.649
71.82000 3.399
71.84000 2.914
71.86000 -1.020
71.88000 0.265
71.90000 2.710
71.92000 3.735
71.94000 2.725
71.96000 2.967
71.98000 3.087
72.00000 2.101
72.02000 2.200
72.04000 -1.303
72.06000 1.971
72.08000 1.995
72.10000 2.124
72.12000 4.685
72.14000 3.655
72.16000 1.817
72.18000 -0.004
72.20000 0.076
72.22000 2.219
72.24000 0.765
72.26000 1.294
72.28000 3.303
72.30000 3.543
72.32000 2.490
72.34000 -0.742
72.36000 1.579
72.38000 2.836
72.40000 1.088
72.42000 0.133
72.44000 0.846
72.46000 0.932
72.48000 1.851
72.50000 2.122
72.52000 2.978
72.54000 2.513
72.56000 2.686
72.58000 0.384
72.60000 -2.007
72.62000 1.675
72.64000 2.216
72.66000 2.775
72.68000 4.038
72.70000 4.418
72.72000 4.464
72.74000 3.226
72.76000 4.889
72.78000 1.661
72.80000 0.436
72.82000 4.209
72.84000 -0.020
72.86000 -0.292
72.88000 2.010
72.90000 2.394
72.92000 1.936
72.94000 1.769
72.96000 -0.102
72.98000 -1.999
73.00000 3.063
73.02000 1.791
73.04000 2.160
73.06000 3.048
73.08000 0.364
73.10000 0.635
73.12000 0.676
73.14000 1.124
73.16000 3.719
73.18000 1.751
73.20000 2.111
73.22000 3.166
73.24000 1.657
73.26000 2.554
73.28000 0.669
73.30000 -0.169
73.32000 4.646
73.34000 3.134
73.36000 0.276
73.38000 3.144
73.40000 3.849
73.42000 4.458
73.44000 3.499
73.46000 0.081
73.48000 -0.376
73.50000 1.065
73.52000 3.663
73.54000 5.331
73.56000 3.806
73.58000 4.536
73.60000 1.356
73.62000 -0.559
73.64000 4.550
73.66000 3.640
73.68000 3.457
73.70000 3.926
73.72000 1.026
73.74000 -2.002
73.76000 -0.046
73.78000 0.748
73.80000 -1.095
73.82000 -0.999
73.84000 1.915
73.86000 0.284
73.88000 0.376
73.90000 1.649
73.92000 0.132
73.94000 0.010
73.96000 -0.060
73.98000 -0.654
74.00000 2.500
74.02000 3.826
74.04000 4.737
74.06000 6.163
74.08000 1.025
74.10000 -0.387
74.12000 0.694
74.14000 -0.927
74.16000 -1.026
74.18000 1.601
74.20000 3.597
74.22000 3.164
74.24000 1.903
74.26000 -1.154
74.28000 -2.015
74.30000 0.033
74.32000 1.269
74.34000 -0.296
74.36000 0.812
74.38000 1.075
74.40000 2.462
74.42000 1.213
74.44000 2.152
74.46000 3.152
74.48000 2.589
74.50000 0.165
74.52000 2.594
74.54000 2.619
74.56000 -1.000
74.58000 -0.390
74.60000 2.633
74.62000 6.184
74.64000 0.245
74.66000 3.011
74.68000 4.244
74.70000 2.214
74.72000 2.850
74.74000 1.609
74.76000 1.086
74.78000 2.967
74.80000 3.325
74.82000 2.293
74.84000 -2.012
74.86000 -0.876
74.88000 0.343
74.90000 0.446
74.92000 0.888
74.94000 1.295
74.96000 1.821
74.98000 -1.057
75.00000 -0.891
75.02000 1.721
75.04000 4.727
75.06000 -0.341
75.08000 -2.023
75.10000 3.563
75.12000 0.792
75.14000 1.870
75.16000 -2.010
75.18000 -1.662
75.20000 0.479
75.22000 0.597
75.24000 -0.570
75.26000 2.136
75.28000 4.457
75.30000 2.687
75.32000 3.557
75.34000 1.522
75.36000 2.422
75.38000 2.850
75.40000 3.386
75.42000 3.554
75.44000 2.623
75.46000 1.419
75.48000 0.700
75.50000 1.375
75.52000 0.461
75.54000 2.218
75.56000 3.701
75.58000 1.481
75.60000 0.309
75.62000 1.782
75.64000 2.819
75.66000 -1.239
75.68000 -0.228
75.70000 -1.050
75.72000 -0.083
75.74000 2.314
75.76000 5.736
75.78000 3.313
75.80000 2.418
75.82000 2.030
75.84000 1.624
75.86000 1.298
75.88000 -2.045
75.90000 0.780
75.92000 0.977
75.94000 4.269
75.96000 0.920
75.98000 -1.282
76.00000 -0.431
76.02000 2.278
76.04000 1.159
76.06000 3.084
76.08000 4.427
76.10000 3.755
76.12000 2.596
76.14000 4.651
76.16000 3.912
76.18000 1.415
76.20000 1.839
76.22000 5.676
76.24000 2.787
76.26000 2.930
76.28000 0.433
76.30000 4.465
76.32000 6.140
76.34000 3.296
76.36000 3.423
76.38000 6.516
76.40000 4.752
76.42000 3.454
76.44000 1.690
76.46000 4.638
76.48000 3.540
76.50000 -0.401
76.52000 -2.038
76.54000 0.581
76.56000 0.485
76.58000 5.099
76.60000 4.692
76.62000 1.692
76.64000 3.516
76.66000 4.638
76.68000 5.420
76.70000 2.033
76.72000 0.988
76.74000 3.671
76.76000 2.837
76.78000 3.095
76.80000 2.632
76.82000 2.483
76.84000 1.426
76.86000 6.011
76.88000 4.426
76.90000 5.139
76.92000 4.543
76.94000 2.337
76.96000 -1.153
76.98000 -1.494
77.00000 0.476
77.02000 -0.160
77.04000 0.991
77.06000 1.885
77.08000 1.198
77.10000 2.481
77.12000 1.900
77.14000 1.806
77.16000 4.204
77.18000 3.025
77.20000 3.424
77.22000 1.162
77.24000 -2.064
77.26000 -1.609
77.28000 1.229
77.30000 2.893
77.32000 4.079
77.34000 4.703
77.36000 4.421
77.38000 3.282
77.40000 3.468
77.42000 4.971
77.44000 1.653
77.46000 -0.086
77.48000 -0.209
77.50000 -0.046
77.52000 4.433
77.54000 3.311
77.56000 2.763
77.58000 -0.734
77.60000 -0.322
77.62000 0.131
77.64000 3.389
77.66000 1.977
77.68000 3.467
77.70000 4.670
77.72000 4.902
77.74000 3.419
77.76000 0.285
77.78000 1.657
77.80000 1.303
77.82000 0.392
77.84000 0.168
77.86000 0.042
77.88000 2.202
77.90000 0.170
77.92000 -2.151
77.94000 0.894
77.96000 0.795
77.98000 1.055
78.00000 3.737
78.02000 2.576
78.04000 1.625
78.06000 -0.285
78.08000 2.505
78.10000 1.394
78.12000 -0.943
78.14000 0.446
78.16000 0.888
78.18000 1.556
78.20000 -1.788
78.22000 -2.189
78.24000 1.305
78.26000 -0.999
78.28000 3.400
78.30000 5.766
78.32000 3.461
78.34000 1.682
78.36000 -1.260
78.38000 2.548
78.40000 1.492
78.42000 1.290
78.44000 1.047
78.46000 3.530
78.48000 0.526
78.50000 3.531
78.52000 1.762
78.54000 4.369
78.56000 4.676
78.58000 4.196
78.60000 3.506
78.62000 3.439
78.64000 4.520
78.66000 4.819
78.68000 4.856
78.70000 3.055
78.72000 1.668
78.74000 3.320
78.76000 4.371
78.78000 5.996
78.80000 8.026
78.82000 5.936
78.84000 8.419
78.86000 6.343
78.88000 9.696
78.90000 9.122
78.92000 8.491
78.94000 8.917
78.96000 11.836
78.98000 7.394
79.00000 10.226
79.02000 15.309
79.04000 11.745
79.06000 10.836
79.08000 11.345
79.10000 16.332
79.12000 15.976
79.14000 12.157
79.16000 11.019
79.18000 13.392
79.20000 16.390
79.22000 17.230
79.24000 14.669
79.26000 20.002
79.28000 23.709
79.30000 21.431
79.32000 19.021
79.34000 20.296
79.36000 21.250
79.38000 21.461
79.40000 21.393
79.42000 21.592
79.44000 24.029
79.46000 24.946
79.48000 27.051
79.50000 23.499
79.52000 26.339
79.54000 27.214
79.56000 29.869
79.58000 27.923
79.60000 28.817
79.62000 27.513
79.64000 25.749
79.66000 28.444
79.68000 28.233
79.70000 32.560
79.72000 33.814
79.74000 33.084
79.76000 29.953
79.78000 26.473
79.80000 23.851
79.82000 23.620
79.84000 28.227
79.86000 30.760
79.88000 26.777
79.90000 24.653
79.92000 26.135
79.94000 30.449
79.96000 26.380
79.98000 23.745
80.00000 25.227
80.02000 22.634
80.04000 18.112
80.06000 19.027
80.08000 20.063
80.10000 17.067
80.12000 17.029
80.14000 16.975
80.16000 17.713
80.18000 16.488
80.20000 15.144
80.22000 14.790
80.24000 16.363
80.26000 14.804
80.28000 12.512
80.30000 12.347
80.32000 9.306
80.34000 9.684
80.36000 8.040
80.38000 8.888
80.40000 4.605
80.42000 7.900
80.44000 9.135
80.46000 10.247
80.48000 4.815
80.50000 4.618
80.52000 5.679
80.54000 2.951
80.56000 5.168
80.58000 3.163
80.60000 6.785
80.62000 9.669
80.64000 7.077
80.66000 7.877
80.68000 9.401
80.70000 3.092
80.72000 1.695
80.74000 5.635
80.76000 3.258
80.78000 0.760
80.80000 1.438
80.82000 1.313
80.84000 2.435
80.86000 3.966
80.88000 6.538
80.90000 2.778
80.92000 4.137
80.94000 5.246
80.96000 3.637
80.98000 -2.076
81.00000 -2.319
81.02000 2.203
81.04000 0.429
81.06000 0.957
81.08000 0.202
81.10000 1.581
81.12000 3.101
81.14000 0.285
81.16000 -1.816
81.18000 -1.139
81.20000 1.874
81.22000 2.078
81.24000 1.783
81.26000 1.443
81.28000 1.460
81.30000 1.782
81.32000 -0.438
81.34000 1.225
81.36000 1.640
81.38000 1.075
81.40000 -0.618
81.42000 -2.315
81.44000 0.634
81.46000 0.985
81.48000 3.071
81.50000 0.624
81.52000 1.756
81.54000 2.212
81.56000 2.288
81.58000 3.039
81.60000 3.406
81.62000 1.050
81.64000 2.080
81.66000 6.610
81.68000 1.655
81.70000 1.490
81.72000 4.822
81.74000 1.602
81.76000 0.405
81.78000 1.852
81.80000 4.234
81.82000 0.660
81.84000 -0.380
81.86000 -2.315
81.88000 2.864
81.90000 3.617
81.92000 1.928
81.94000 4.573
81.96000 5.715
81.98000 0.586
82.00000 0.091
82.02000 3.394
82.04000 0.006
82.06000 1.288
82.08000 0.275
82.10000 1.461
82.12000 1.709
82.14000 -0.518
82.16000 2.247
82.18000 2.824
82.20000 6.066
82.22000 8.233
82.24000 4.078
82.26000 5.841
82.28000 7.073
82.30000 5.627
82.32000 4.912
82.34000 5.643
82.36000 4.309
82.38000 1.903
82.40000 0.012
82.42000 1.682
82.44000 4.057
82.46000 5.648
82.48000 5.906
82.50000 7.152
82.52000 7.775
82.54000 5.876
82.56000 8.654
82.58000 10.407
82.60000 10.407
82.62000 11.310
82.64000 10.368
82.66000 8.583
82.68000 10.644
82.70000 12.637
82.72000 11.557
82.74000 13.502
82.76000 14.806
82.78000 16.680
82.80000 14.328
82.82000 13.622
82.84000 13.088
82.86000 13.683
82.88000 14.786
82.90000 13.655
82.92000 13.449
82.94000 16.834
82.96000 23.568
82.98000 22.286
83.00000 23.294
83.02000 27.596
83.04000 25.121
83.06000 20.715
83.08000 25.260
83.10000 27.929
83.12000 25.985
83.14000 29.168
83.16000 33.338
83.18000 35.996
83.20000 30.897
83.22000 36.006
83.24000 40.404
83.26000 37.592
83.28000 37.739
83.30000 39.637
83.32000 42.304
83.34000 43.882
83.36000 44.074
83.38000 50.954
83.40000 50.272
83.42000 43.502
83.44000 46.074
83.46000 50.192
83.48000 54.078
83.50000 50.491
83.52000 53.014
83.54000 56.047
83.56000 55.566
83.58000 56.122
83.60000 58.298
83.62000 62.769
83.64000 63.736
83.66000 64.410
83.68000 64.966
83.70000 61.093
83.72000 64.255
83.74000 60.716
83.76000 59.027
83.78000 61.758
83.80000 61.105
83.82000 59.744
83.84000 56.246
83.86000 55.082
83.88000 56.451
83.90000 55.444
83.92000 52.454
83.94000 54.587
83.96000 51.086
83.98000 43.912
84.00000 45.732
84.02000 48.889
84.04000 43.789
84.06000 44.650
84.08000 43.843
84.10000 39.546
84.12000 31.897
84.14000 31.427
84.16000 35.442
84.18000 33.831
84.20000 32.669
84.22000 31.097
84.24000 31.174
84.26000 26.269
84.28000 22.703
84.30000 23.678
84.32000 26.350
84.34000 21.208
84.36000 22.799
84.38000 17.562
84.40000 14.680
84.42000 17.485
84.44000 17.437
84.46000 15.260
84.48000 15.425
84.50000 13.784
84.52000 12.302
84.54000 12.990
84.56000 13.328
84.58000 11.749
84.60000 8.045
84.62000 5.676
84.64000 3.745
84.66000 4.335
84.68000 6.192
84.70000 4.893
84.72000 3.397
84.74000 8.496
84.76000 7.779
84.78000 5.155
84.80000 5.296
84.82000 7.613
84.84000 9.373
84.86000 5.602
84.88000 5.386
84.90000 6.707
84.92000 4.893
84.94000 3.384
84.96000 6.541
84.98000 5.157
85.00000 3.445
85.02000 4.926
85.04000 2.630
85.06000 4.309
85.08000 2.008
85.10000 2.776
85.12000 2.875
85.14000 4.251
85.16000 6.982
85.18000 -0.046
85.20000 0.204
85.22000 1.641
85.24000 2.812
85.26000 2.521
85.28000 2.007
85.30000 2.043
85.32000 4.712
85.34000 0.152
85.36000 -1.368
85.38000 -1.021
85.40000 0.170
85.42000 3.658
85.44000 4.866
85.46000 6.500
85.48000 2.742
85.50000 -0.437
85.52000 1.192
85.54000 -0.446
85.56000 1.471
85.58000 5.550
85.60000 5.892
85.62000 -0.042
85.64000 3.254
85.66000 5.786
85.68000 2.143
85.70000 -0.578
85.72000 -1.985
85.74000 0.586
85.76000 2.551
85.78000 0.625
85.80000 6.033
85.82000 4.935
85.84000 3.422
85.86000 3.608
85.88000 4.476
85.90000 5.373
85.92000 4.148
85.94000 1.414
85.96000 1.866
85.98000 1.875
86.00000 3.913
86.02000 4.554
86.04000 3.025
86.06000 2.081
86.08000 2.894
86.10000 0.597
86.12000 0.592
86.14000 -0.204
86.16000 -0.599
86.18000 -1.236
86.20000 -0.791
86.22000 2.411
86.24000 1.391
86.26000 2.965
86.28000 2.267
86.30000 0.148
86.32000 3.847
86.34000 6.076
86.36000 8.086
86.38000 5.601
86.40000 2.598
86.42000 4.170
86.44000 2.440
86.46000 1.090
86.48000 0.248
86.50000 0.398
86.52000 0.472
86.54000 2.348
86.56000 4.028
86.58000 3.445
86.60000 1.558
86.62000 2.056
86.64000 6.622
86.66000 4.793
86.68000 0.654
86.70000 0.552
86.72000 2.142
86.74000 4.298
86.76000 0.223
86.78000 -1.915
86.80000 -1.263
86.82000 5.865
86.84000 6.323
86.86000 2.477
86.88000 -1.907
86.90000 0.898
86.92000 2.433
86.94000 0.424
86.96000 1.645
86.98000 4.024
87.00000 7.262
87.02000 3.461
87.04000 1.543
87.06000 3.753
87.08000 4.361
87.10000 4.209
87.12000 3.590
87.14000 1.410
87.16000 2.721
87.18000 1.414
87.20000 3.745
87.22000 1.986
87.24000 2.538
87.26000 0.764
87.28000 2.989
87.30000 3.282
87.32000 0.649
87.34000 2.284
87.36000 3.289
87.38000 4.388
87.40000 3.777
87.42000 1.728
87.44000 0.517
87.46000 1.279
87.48000 2.717
87.50000 4.349
87.52000 3.210
87.54000 2.353
87.56000 1.435
87.58000 3.201
87.60000 1.025
87.62000 -1.912
87.64000 -1.365
87.66000 0.492
87.68000 3.252
87.70000 3.191
87.72000 1.945
87.74000 2.801
87.76000 0.696
87.78000 0.944
87.80000 2.214
87.82000 0.203
87.84000 -1.663
87.86000 -1.916
87.88000 -0.779
87.90000 -0.815
87.92000 -0.623
87.94000 1.093
87.96000 1.688
87.98000 -0.311
88.00000 -0.510
88.02000 0.076
88.04000 -0.585
88.06000 3.054
88.08000 2.321
88.10000 1.551
88.12000 -1.440
88.14000 -1.151
88.16000 3.595
88.18000 0.546
88.20000 3.694
88.22000 4.163
88.24000 2.660
88.26000 0.482
88.28000 0.258
88.30000 1.546
88.32000 1.066
88.34000 1.559
88.36000 2.897
88.38000 -0.737
88.40000 -1.909
88.42000 -1.390
88.44000 -0.284
88.46000 0.838
88.48000 1.807
88.50000 2.157
88.52000 4.556
88.54000 1.602
88.56000 2.692
88.58000 2.664
88.60000 -1.908
88.62000 -1.873
88.64000 -1.324
88.66000 0.115
88.68000 4.226
88.70000 0.770
88.72000 -1.685
88.74000 1.441
88.76000 0.968
88.78000 -0.016
88.80000 1.606
88.82000 1.161
88.84000 1.816
88.86000 1.733
88.88000 1.323
88.90000 0.218
88.92000 1.078
88.94000 0.556
88.96000 2.008
88.98000 1.858
89.00000 0.433
89.02000 3.479
89.04000 2.953
89.06000 2.264
89.08000 0.969
89.10000 -1.897
89.12000 -0.592
89.14000 3.610
89.16000 2.240
89.18000 0.043
89.20000 -1.357
89.22000 -1.380
89.24000 -1.730
89.26000 -0.482
89.28000 -1.600
89.30000 -0.147
89.32000 0.666
89.34000 0.723
89.36000 0.093
89.38000 -0.748
89.40000 0.512
89.42000 3.123
89.44000 3.036
89.46000 0.310
89.48000 1.921
89.50000 3.733
89.52000 1.354
89.54000 4.084
89.56000 2.622
89.58000 1.578
89.60000 1.651
89.62000 0.750
89.64000 -0.810
89.66000 0.444
89.68000 1.518
89.70000 0.235
89.72000 0.734
89.74000 0.933
89.76000 -0.004
89.78000 -1.048
89.80000 3.270
89.82000 5.415
89.84000 2.182
89.86000 3.776
89.88000 0.170
89.90000 -1.896
89.92000 -1.170
89.94000 -0.099
89.96000 -0.680
89.98000 0.070
90.00000 0.468
90.02000 -0.308
90.04000 -0.353
90.06000 -1.145
90.08000 -0.731
90.10000 1.267
90.12000 0.770
90.14000 -0.313
90.16000 -0.169
90.18000 0.594
90.20000 -0.514
90.22000 3.010
90.24000 3.531
90.26000 2.402
90.28000 0.603
90.30000 3.704
90.32000 3.694
90.34000 2.275
90.36000 0.079
90.38000 0.051
90.40000 -0.347
90.42000 -1.468
90.44000 -0.913
90.46000 0.416
90.48000 3.812
90.50000 5.485
90.52000 4.943
90.54000 -0.377
90.56000 0.388
90.58000 0.612
90.60000 1.091
90.62000 0.922
90.64000 2.456
90.66000 -1.888
90.68000 0.717
90.70000 2.244
90.72000 1.355
90.74000 0.823
90.76000 0.057
90.78000 1.287
90.80000 1.842
90.82000 -1.200
90.84000 -1.645
90.86000 -1.321
90.88000 -0.760
90.90000 -0.209
90.92000 -0.004
90.94000 -1.092
90.96000 0.139
90.98000 3.522
91.00000 0.849
91.02000 -0.141
91.04000 -1.893
91.06000 -0.092
91.08000 3.328
91.10000 4.933
91.12000 4.347
91.14000 1.340
91.16000 3.900
91.18000 0.085
91.20000 0.460
91.22000 -0.586
91.24000 0.538
91.26000 3.297
91.28000 1.312
91.30000 -0.039
91.32000 2.099
91.34000 4.440
91.36000 4.207
91.38000 2.733
91.40000 0.456
91.42000 -1.893
91.44000 1.908
91.46000 2.385
91.48000 2.985
91.50000 -1.701
91.52000 -1.624
91.54000 0.404
91.56000 0.686
91.58000 1.479
91.60000 -0.877
91.62000 -1.537
91.64000 -1.864
91.66000 -0.679
91.68000 -0.423
91.70000 1.753
91.72000 4.328
91.74000 2.963
91.76000 2.865
91.78000 3.492
91.80000 2.588
91.82000 4.973
91.84000 8.161
91.86000 9.001
91.88000 4.683
91.90000 1.940
91.92000 -1.876
91.94000 -1.133
91.96000 0.573
91.98000 1.003
92.00000 1.755
92.02000 4.001
92.04000 0.181
92.06000 1.307
92.08000 0.297
92.10000 0.297
92.12000 -0.480
92.14000 4.911
92.16000 4.078
92.18000 3.272
92.20000 2.774
92.22000 5.630
92.24000 6.918
92.26000 3.236
92.28000 1.004
92.30000 1.646
92.32000 -1.388
92.34000 3.748
92.36000 5.099
92.38000 2.207
92.40000 1.500
92.42000 4.215
92.44000 4.524
92.46000 5.796
92.48000 2.681
92.50000 -0.084
92.52000 1.320
92.54000 0.263
92.56000 0.615
92.58000 2.075
92.60000 2.017
92.62000 2.949
92.64000 1.497
92.66000 3.695
92.68000 4.824
92.70000 3.827
92.72000 -0.477
92.74000 0.307
92.76000 1.191
92.78000 0.666
92.80000 1.297
92.82000 3.925
92.84000 -0.004
92.86000 -1.148
92.88000 1.913
92.90000 -1.217
92.92000 -1.879
92.94000 1.222
92.96000 2.029
92.98000 4.405
93.00000 2.710
93.02000 2.710
93.04000 3.604
93.06000 3.187
93.08000 1.606
93.10000 3.279
93.12000 -0.115
93.14000 -1.233
93.16000 0.060
93.18000 1.141
93.20000 -1.835
93.22000 -1.168
93.24000 -1.519
93.26000 4.381
93.28000 7.306
93.30000 4.354
93.32000 2.910
93.34000 3.165
93.36000 1.483
93.38000 -0.641
93.40000 0.462
93.42000 1.940
93.44000 3.421
93.46000 6.492
93.48000 4.463
93.50000 2.108
93.52000 2.271
93.54000 0.230
93.56000 -1.903
93.58000 -0.947
93.60000 -0.006
93.62000 1.698
93.64000 1.485
93.66000 1.040
93.68000 0.678
93.70000 2.602
93.72000 1.219
93.74000 3.289
93.76000 3.659
93.78000 1.562
93.80000 -1.108
93.82000 0.324
93.84000 2.169
93.86000 4.204
93.88000 3.197
93.90000 2.410
93.92000 2.523
93.94000 -1.364
93.96000 -0.201
93.98000 2.597
94.00000 2.018
94.02000 1.607
94.04000 5.765
94.06000 5.791
94.08000 3.126
94.10000 1.351
94.12000 1.925
94.14000 -0.612
94.16000 0.167
94.18000 0.909
94.20000 2.736
94.22000 2.938
94.24000 2.596
94.26000 2.550
94.28000 3.259
94.30000 5.580
94.32000 3.158
94.34000 4.050
94.36000 5.183
94.38000 0.626
94.40000 1.854
94.42000 2.988
94.44000 4.001
94.46000 1.859
94.48000 -0.976
94.50000 1.484
94.52000 4.227
94.54000 0.220
94.56000 0.387
94.58000 3.426
94.60000 2.945
94.62000 2.363
94.64000 2.011
94.66000 4.645
94.68000 3.597
94.70000 1.649
94.72000 0.636
94.74000 2.513
94.76000 5.315
94.78000 3.223
94.80000 4.354
94.82000 1.641
94.84000 2.329
94.86000 3.116
94.88000 5.215
94.90000 5.681
94.92000 5.205
94.94000 5.872
94.96000 6.915
94.98000 3.929
95.00000 1.820
95.02000 1.439
95.04000 5.835
95.06000 5.636
95.08000 3.027
95.10000 7.435
95.12000 3.828
95.14000 -0.841
95.16000 -1.845
95.18000 0.376
95.20000 6.868
95.22000 6.370
95.24000 2.919
95.26000 2.562
95.28000 5.333
95.30000 5.020
95.32000 3.120
95.34000 4.010
95.36000 3.959
95.38000 4.619
95.40000 3.837
95.42000 2.635
95.44000 2.556
95.46000 3.036
95.48000 4.314
95.50000 1.354
95.52000 1.841
95.54000 3.902
95.56000 5.835
95.58000 5.391
95.60000 5.487
95.62000 4.332
95.64000 4.552
95.66000 5.375
95.68000 3.984
95.70000 4.200
95.72000 5.455
95.74000 7.580
95.76000 8.027
95.78000 5.521
95.80000 2.816
95.82000 0.669
95.84000 5.077
95.86000 4.239
95.88000 1.540
95.90000 2.979
95.92000 6.304
95.94000 5.147
95.96000 3.533
95.98000 1.341
96.00000 2.861
96.02000 3.047
96.04000 7.670
96.06000 8.210
96.08000 1.828
96.10000 2.053
96.12000 5.749
96.14000 2.153
96.16000 0.167
96.18000 4.021
96.20000 2.614
96.22000 2.599
96.24000 3.116
96.26000 5.895
96.28000 5.520
96.30000 3.134
96.32000 3.134
96.34000 1.952
96.36000 0.180
96.38000 3.726
96.40000 4.607
96.42000 2.211
96.44000 4.005
96.46000 0.502
96.48000 2.484
96.50000 1.947
96.52000 -0.787
96.54000 1.460
96.56000 3.564
96.58000 5.664
96.60000 5.813
96.62000 5.477
96.64000 4.778
96.66000 3.052
96.68000 7.979
96.70000 6.520
96.72000 5.332
96.74000 4.124
96.76000 3.278
96.78000 2.968
96.80000 3.711
96.82000 6.018
96.84000 6.053
96.86000 5.416
96.88000 6.010
96.90000 7.953
96.92000 4.992
96.94000 2.358
96.96000 2.787
96.98000 0.451
97.00000 1.125
97.02000 1.757
97.04000 3.184
97.06000 6.621
97.08000 8.145
97.10000 8.752
97.12000 -1.309
97.14000 3.813
97.16000 5.917
97.18000 2.413
97.20000 2.067
97.22000 4.843
97.24000 9.812
97.26000 9.043
97.28000 0.744
97.30000 4.780
97.32000 9.766
97.34000 5.528
97.36000 2.708
97.38000 3.323
97.40000 4.630
97.42000 2.764
97.44000 1.578
97.46000 3.400
97.48000 6.291
97.50000 5.787
97.52000 6.182
97.54000 7.157
97.56000 6.187
97.58000 4.468
97.60000 3.420
97.62000 4.090
97.64000 3.796
97.66000 7.337
97.68000 8.049
97.70000 11.141
97.72000 10.504
97.74000 8.226
97.76000 3.353
97.78000 2.063
97.80000 5.918
97.82000 5.881
97.84000 6.241
97.86000 4.368
97.88000 6.274
97.90000 8.908
97.92000 5.461
97.94000 4.645
97.96000 5.182
97.98000 5.807
98.00000 8.968
98.02000 7.987
98.04000 5.070
98.06000 6.983
98.08000 3.347
98.10000 4.722
98.12000 3.547
98.14000 3.844
98.16000 -1.774
98.18000 3.753
98.20000 6.050
98.22000 4.374
98.24000 4.572
98.26000 7.309
98.28000 13.383
98.30000 12.437
98.32000 10.458
98.34000 12.785
98.36000 10.029
98.38000 11.570
98.40000 7.868
98.42000 5.258
98.44000 5.788
98.46000 5.131
98.48000 9.612
98.50000 8.165
98.52000 6.974
98.54000 6.463
98.56000 8.623
98.58000 10.458
98.60000 8.263
98.62000 8.747
98.64000 8.978
98.66000 11.035
98.68000 16.393
98.70000 10.619
98.72000 6.395
98.74000 8.146
98.76000 8.659
98.78000 11.704
98.80000 9.662
98.82000 9.477
98.84000 13.174
98.86000 6.316
98.88000 5.594
98.90000 8.535
98.92000 12.861
98.94000 6.020
98.96000 9.022
98.98000 7.097
99.00000 8.651
99.02000 6.345
99.04000 1.825
99.06000 7.547
99.08000 9.501
99.10000 11.536
99.12000 12.817
99.14000 2.997
99.16000 -1.912
99.18000 6.094
99.20000 -2.193
99.22000 7.071
99.24000 6.875
99.26000 5.677
99.28000 5.220
99.30000 6.699
99.32000 4.924
99.34000 6.203
99.36000 8.886
99.38000 6.807
99.40000 6.300
99.42000 6.843
99.44000 8.088
99.46000 -0.499
99.48000 4.031
99.50000 1.065
99.52000 2.747
99.54000 0.474
99.56000 2.374
99.58000 2.563
99.60000 4.166
99.62000 2.125
99.64000 -0.308
99.66000 3.637
99.68000 1.761
99.70000 -0.334
99.72000 -0.629
99.74000 -1.895
99.76000 1.424
99.78000 2.021
99.80000 3.998
99.82000 5.293
99.84000 6.693
99.86000 6.387
99.88000 -1.515
99.90000 -1.981
99.92000 3.045
99.94000 2.062
99.96000 0.534
99.98000 0.000
