'Id: "0011388" Comment: "Integrate frame 0011388_Au-Ir-Rh_Rh-rich_XRD-Mapping-262-0000.gfrmwith cursor Wedge Cursor #5" Operator: "B?rgel" Anode: "Cu" Wavelength: "1.5406" Scantype: "2Theta (TwoTheta)" TimePerStep: "1" X: "-31.5" Y: "22.5" Z: "5.95" 
10.00000 0.000
10.02000 0.743
10.04000 2.906
10.06000 -4.564
10.08000 -1.395
10.10000 8.604
10.12000 -2.271
10.14000 13.233
10.16000 16.146
10.18000 3.142
10.20000 -4.525
10.22000 4.495
10.24000 6.580
10.26000 2.284
10.28000 13.239
10.30000 28.580
10.32000 16.547
10.34000 8.640
10.36000 13.879
10.38000 9.487
10.40000 4.246
10.42000 11.199
10.44000 11.279
10.46000 25.728
10.48000 17.781
10.50000 12.049
10.52000 13.517
10.54000 -0.311
10.56000 3.199
10.58000 10.165
10.60000 21.231
10.62000 7.551
10.64000 6.457
10.66000 11.836
10.68000 19.078
10.70000 28.949
10.72000 23.494
10.74000 16.132
10.76000 20.973
10.78000 22.549
10.80000 24.528
10.82000 27.016
10.84000 19.471
10.86000 18.686
10.88000 14.374
10.90000 15.834
10.92000 8.650
10.94000 28.469
10.96000 25.346
10.98000 16.184
11.00000 8.526
11.02000 -4.461
11.04000 2.717
11.06000 15.153
11.08000 16.505
11.10000 25.909
11.12000 22.880
11.14000 9.315
11.16000 0.885
11.18000 17.513
11.20000 24.777
11.22000 12.945
11.24000 9.132
11.26000 18.883
11.28000 22.969
11.30000 17.959
11.32000 7.038
11.34000 17.648
11.36000 29.575
11.38000 22.682
11.40000 15.035
11.42000 10.035
11.44000 6.097
11.46000 7.005
11.48000 1.801
11.50000 -4.449
11.52000 9.017
11.54000 13.924
11.56000 21.449
11.58000 21.547
11.60000 20.826
11.62000 14.468
11.64000 13.887
11.66000 9.258
11.68000 17.166
11.70000 17.793
11.72000 13.093
11.74000 19.021
11.76000 13.782
11.78000 6.932
11.80000 8.366
11.82000 8.639
11.84000 0.839
11.86000 10.782
11.88000 18.154
11.90000 10.167
11.92000 13.008
11.94000 13.405
11.96000 17.045
11.98000 11.312
12.00000 9.163
12.02000 6.725
12.04000 15.475
12.06000 7.101
12.08000 4.063
12.10000 15.076
12.12000 14.134
12.14000 12.617
12.16000 6.774
12.18000 8.299
12.20000 17.587
12.22000 15.565
12.24000 16.252
12.26000 11.383
12.28000 14.213
12.30000 4.636
12.32000 4.002
12.34000 10.716
12.36000 9.347
12.38000 21.551
12.40000 17.546
12.42000 20.160
12.44000 17.353
12.46000 10.367
12.48000 7.171
12.50000 6.145
12.52000 7.823
12.54000 13.033
12.56000 15.302
12.58000 10.244
12.60000 12.902
12.62000 11.994
12.64000 9.836
12.66000 7.409
12.68000 10.766
12.70000 13.961
12.72000 12.405
12.74000 11.537
12.76000 6.211
12.78000 4.691
12.80000 0.219
12.82000 3.163
12.84000 14.638
12.86000 19.707
12.88000 13.766
12.90000 1.420
12.92000 4.028
12.94000 7.732
12.96000 15.386
12.98000 8.025
13.00000 7.952
13.02000 10.002
13.04000 15.918
13.06000 14.359
13.08000 7.171
13.10000 8.977
13.12000 12.234
13.14000 12.468
13.16000 9.599
13.18000 3.388
13.20000 9.959
13.22000 13.462
13.24000 24.323
13.26000 21.179
13.28000 22.240
13.30000 17.884
13.32000 6.604
13.34000 10.157
13.36000 7.998
13.38000 3.186
13.40000 -0.315
13.42000 4.417
13.44000 11.070
13.46000 14.318
13.48000 5.710
13.50000 6.646
13.52000 9.946
13.54000 16.151
13.56000 8.859
13.58000 9.400
13.60000 9.487
13.62000 9.136
13.64000 2.988
13.66000 5.614
13.68000 -1.653
13.70000 -2.199
13.72000 -0.705
13.74000 15.732
13.76000 7.515
13.78000 5.511
13.80000 8.754
13.82000 10.001
13.84000 13.918
13.86000 12.026
13.88000 6.488
13.90000 8.919
13.92000 15.335
13.94000 13.159
13.96000 11.465
13.98000 -0.180
14.00000 4.408
14.02000 8.242
14.04000 11.242
14.06000 7.459
14.08000 5.058
14.10000 7.615
14.12000 5.864
14.14000 7.916
14.16000 8.787
14.18000 1.940
14.20000 2.845
14.22000 1.649
14.24000 6.818
14.26000 14.469
14.28000 6.690
14.30000 4.951
14.32000 8.639
14.34000 4.053
14.36000 4.935
14.38000 6.483
14.40000 9.523
14.42000 4.448
14.44000 1.165
14.46000 7.471
14.48000 12.314
14.50000 8.808
14.52000 3.432
14.54000 2.863
14.56000 -1.259
14.58000 9.268
14.60000 15.361
14.62000 11.886
14.64000 2.355
14.66000 3.281
14.68000 5.418
14.70000 6.135
14.72000 -4.501
14.74000 0.830
14.76000 13.792
14.78000 10.083
14.80000 6.379
14.82000 5.201
14.84000 8.739
14.86000 7.105
14.88000 8.478
14.90000 9.871
14.92000 11.192
14.94000 9.409
14.96000 10.425
14.98000 14.055
15.00000 15.065
15.02000 19.675
15.04000 15.864
15.06000 10.382
15.08000 7.235
15.10000 5.379
15.12000 3.661
15.14000 -2.028
15.16000 -4.475
15.18000 1.214
15.20000 4.128
15.22000 5.708
15.24000 14.650
15.26000 13.267
15.28000 10.013
15.30000 8.357
15.32000 1.912
15.34000 7.148
15.36000 5.879
15.38000 -0.982
15.40000 2.766
15.42000 3.626
15.44000 11.615
15.46000 16.568
15.48000 11.908
15.50000 13.191
15.52000 13.175
15.54000 19.145
15.56000 1.900
15.58000 2.466
15.60000 5.581
15.62000 7.795
15.64000 17.289
15.66000 19.025
15.68000 14.257
15.70000 7.122
15.72000 8.159
15.74000 5.670
15.76000 9.450
15.78000 8.721
15.80000 8.565
15.82000 12.833
15.84000 12.099
15.86000 12.550
15.88000 9.118
15.90000 7.389
15.92000 12.032
15.94000 6.528
15.96000 3.450
15.98000 10.867
16.00000 5.214
16.02000 -3.097
16.04000 -4.432
16.06000 4.242
16.08000 3.950
16.10000 8.927
16.12000 10.624
16.14000 3.674
16.16000 5.593
16.18000 7.916
16.20000 5.979
16.22000 2.224
16.24000 2.927
16.26000 4.128
16.28000 6.802
16.30000 10.143
16.32000 4.795
16.34000 8.727
16.36000 7.119
16.38000 6.330
16.40000 1.575
16.42000 3.978
16.44000 14.036
16.46000 18.074
16.48000 15.707
16.50000 15.856
16.52000 14.663
16.54000 7.310
16.56000 2.723
16.58000 6.211
16.60000 2.148
16.62000 3.757
16.64000 1.462
16.66000 6.294
16.68000 7.366
16.70000 4.167
16.72000 -4.033
16.74000 6.769
16.76000 7.360
16.78000 -1.664
16.80000 4.517
16.82000 1.522
16.84000 -2.458
16.86000 2.567
16.88000 7.756
16.90000 7.160
16.92000 4.801
16.94000 8.934
16.96000 14.226
16.98000 12.449
17.00000 7.802
17.02000 7.728
17.04000 8.301
17.06000 7.800
17.08000 7.114
17.10000 5.002
17.12000 6.014
17.14000 5.544
17.16000 5.270
17.18000 11.547
17.20000 10.514
17.22000 11.684
17.24000 3.170
17.26000 -2.032
17.28000 1.859
17.30000 10.133
17.32000 4.432
17.34000 2.477
17.36000 10.511
17.38000 11.128
17.40000 6.486
17.42000 13.005
17.44000 10.766
17.46000 9.987
17.48000 3.803
17.50000 -3.243
17.52000 0.836
17.54000 1.649
17.56000 6.894
17.58000 0.105
17.60000 1.301
17.62000 8.568
17.64000 9.960
17.66000 1.510
17.68000 -0.431
17.70000 1.999
17.72000 2.707
17.74000 -0.015
17.76000 7.383
17.78000 13.154
17.80000 1.637
17.82000 -2.718
17.84000 8.125
17.86000 7.560
17.88000 4.758
17.90000 9.527
17.92000 7.077
17.94000 2.178
17.96000 -0.441
17.98000 7.554
18.00000 2.381
18.02000 0.861
18.04000 5.819
18.06000 3.676
18.08000 0.745
18.10000 4.889
18.12000 15.636
18.14000 10.905
18.16000 11.280
18.18000 6.039
18.20000 4.742
18.22000 5.197
18.24000 6.200
18.26000 2.673
18.28000 2.694
18.30000 8.185
18.32000 1.667
18.34000 -1.955
18.36000 -1.547
18.38000 11.385
18.40000 9.329
18.42000 -2.890
18.44000 -0.499
18.46000 5.407
18.48000 12.992
18.50000 13.352
18.52000 10.962
18.54000 2.608
18.56000 -4.304
18.58000 9.313
18.60000 5.877
18.62000 2.139
18.64000 -1.097
18.66000 5.322
18.68000 4.392
18.70000 5.746
18.72000 3.143
18.74000 1.796
18.76000 4.577
18.78000 1.620
18.80000 -3.562
18.82000 -0.915
18.84000 4.330
18.86000 9.939
18.88000 14.704
18.90000 10.118
18.92000 9.076
18.94000 9.711
18.96000 7.994
18.98000 7.227
19.00000 7.535
19.02000 10.171
19.04000 10.070
19.06000 8.577
19.08000 10.617
19.10000 6.938
19.12000 1.325
19.14000 -2.899
19.16000 0.555
19.18000 7.098
19.20000 14.821
19.22000 11.768
19.24000 7.337
19.26000 4.217
19.28000 6.566
19.30000 11.252
19.32000 12.767
19.34000 0.922
19.36000 8.604
19.38000 8.606
19.40000 3.458
19.42000 2.787
19.44000 4.622
19.46000 0.137
19.48000 1.192
19.50000 1.588
19.52000 -4.046
19.54000 1.109
19.56000 11.181
19.58000 7.862
19.60000 4.458
19.62000 10.020
19.64000 3.341
19.66000 3.720
19.68000 5.412
19.70000 4.763
19.72000 2.487
19.74000 1.250
19.76000 11.155
19.78000 9.302
19.80000 4.601
19.82000 5.326
19.84000 1.705
19.86000 -2.295
19.88000 -4.238
19.90000 7.553
19.92000 15.180
19.94000 11.929
19.96000 5.877
19.98000 7.255
20.00000 8.122
20.02000 1.301
20.04000 3.211
20.06000 3.221
20.08000 5.968
20.10000 9.277
20.12000 7.668
20.14000 4.589
20.16000 7.619
20.18000 9.591
20.20000 4.657
20.22000 5.202
20.24000 2.615
20.26000 1.312
20.28000 -1.936
20.30000 -2.322
20.32000 1.836
20.34000 5.702
20.36000 1.740
20.38000 11.215
20.40000 10.368
20.42000 7.536
20.44000 1.250
20.46000 -4.215
20.48000 0.678
20.50000 9.819
20.52000 9.289
20.54000 3.632
20.56000 -1.947
20.58000 5.017
20.60000 6.221
20.62000 4.300
20.64000 6.790
20.66000 3.325
20.68000 3.153
20.70000 -0.285
20.72000 4.147
20.74000 5.568
20.76000 -0.612
20.78000 5.210
20.80000 -2.235
20.82000 2.079
20.84000 2.493
20.86000 9.320
20.88000 4.481
20.90000 0.330
20.92000 2.199
20.94000 1.481
20.96000 -1.004
20.98000 1.103
21.00000 1.838
21.02000 5.473
21.04000 6.478
21.06000 3.165
21.08000 4.592
21.10000 1.843
21.12000 7.000
21.14000 1.509
21.16000 1.906
21.18000 4.435
21.20000 6.575
21.22000 6.400
21.24000 5.331
21.26000 10.742
21.28000 3.859
21.30000 -1.145
21.32000 2.388
21.34000 3.578
21.36000 4.693
21.38000 1.199
21.40000 2.464
21.42000 1.190
21.44000 -3.089
21.46000 -0.781
21.48000 4.438
21.50000 5.893
21.52000 8.740
21.54000 0.870
21.56000 -2.938
21.58000 0.700
21.60000 2.307
21.62000 1.978
21.64000 0.843
21.66000 4.401
21.68000 8.819
21.70000 9.998
21.72000 8.408
21.74000 2.175
21.76000 -0.478
21.78000 3.416
21.80000 5.462
21.82000 8.836
21.84000 9.252
21.86000 11.506
21.88000 6.149
21.90000 -3.673
21.92000 -1.333
21.94000 9.688
21.96000 9.669
21.98000 2.956
22.00000 6.527
22.02000 13.051
22.04000 9.473
22.06000 7.047
22.08000 5.340
22.10000 5.428
22.12000 5.521
22.14000 4.637
22.16000 11.725
22.18000 8.077
22.20000 1.480
22.22000 -0.416
22.24000 3.379
22.26000 2.898
22.28000 4.993
22.30000 0.505
22.32000 -4.099
22.34000 0.848
22.36000 3.777
22.38000 7.925
22.40000 6.217
22.42000 2.963
22.44000 1.147
22.46000 0.243
22.48000 -2.028
22.50000 -2.009
22.52000 -3.411
22.54000 -2.187
22.56000 5.514
22.58000 5.512
22.60000 8.314
22.62000 11.662
22.64000 10.536
22.66000 -0.013
22.68000 -1.938
22.70000 -2.123
22.72000 4.715
22.74000 4.953
22.76000 -0.096
22.78000 1.883
22.80000 7.957
22.82000 6.223
22.84000 1.750
22.86000 -2.488
22.88000 -0.957
22.90000 5.128
22.92000 4.696
22.94000 6.003
22.96000 7.463
22.98000 1.821
23.00000 1.257
23.02000 6.106
23.04000 0.716
23.06000 3.421
23.08000 9.164
23.10000 4.371
23.12000 3.840
23.14000 -0.452
23.16000 3.907
23.18000 6.735
23.20000 -2.591
23.22000 1.284
23.24000 3.105
23.26000 1.878
23.28000 -0.396
23.30000 1.277
23.32000 2.605
23.34000 1.793
23.36000 2.626
23.38000 0.030
23.40000 1.751
23.42000 4.193
23.44000 8.232
23.46000 4.228
23.48000 -3.147
23.50000 2.161
23.52000 0.664
23.54000 2.860
23.56000 5.426
23.58000 3.293
23.60000 -0.440
23.62000 0.685
23.64000 -1.665
23.66000 4.286
23.68000 1.839
23.70000 0.704
23.72000 3.223
23.74000 1.171
23.76000 -4.050
23.78000 -0.018
23.80000 3.021
23.82000 -3.793
23.84000 -1.124
23.86000 1.296
23.88000 1.638
23.90000 -1.905
23.92000 -0.547
23.94000 -3.541
23.96000 -2.542
23.98000 0.830
24.00000 -1.117
24.02000 -0.950
24.04000 1.301
24.06000 0.870
24.08000 4.846
24.10000 9.617
24.12000 11.910
24.14000 8.897
24.16000 2.422
24.18000 2.034
24.20000 3.278
24.22000 2.845
24.24000 -2.820
24.26000 -0.409
24.28000 1.728
24.30000 6.949
24.32000 4.576
24.34000 -4.017
24.36000 -0.502
24.38000 8.390
24.40000 5.094
24.42000 3.166
24.44000 -2.902
24.46000 0.959
24.48000 3.282
24.50000 2.738
24.52000 8.859
24.54000 4.330
24.56000 5.406
24.58000 6.577
24.60000 7.344
24.62000 -2.282
24.64000 -1.001
24.66000 3.876
24.68000 8.881
24.70000 7.273
24.72000 5.310
24.74000 10.813
24.76000 9.780
24.78000 7.538
24.80000 4.638
24.82000 2.688
24.84000 -0.010
24.86000 3.484
24.88000 5.009
24.90000 2.912
24.92000 2.723
24.94000 2.714
24.96000 4.173
24.98000 -1.334
25.00000 0.575
25.02000 1.176
25.04000 -2.905
25.06000 0.516
25.08000 2.740
25.10000 6.008
25.12000 5.315
25.14000 0.264
25.16000 1.887
25.18000 2.452
25.20000 2.900
25.22000 2.700
25.24000 -0.334
25.26000 -3.400
25.28000 -3.790
25.30000 -3.381
25.32000 -2.466
25.34000 2.241
25.36000 2.816
25.38000 1.972
25.40000 3.576
25.42000 2.937
25.44000 0.151
25.46000 -0.020
25.48000 2.836
25.50000 3.401
25.52000 3.614
25.54000 2.156
25.56000 -2.567
25.58000 -0.180
25.60000 -3.860
25.62000 -3.012
25.64000 4.283
25.66000 1.980
25.68000 2.164
25.70000 6.658
25.72000 2.957
25.74000 6.231
25.76000 8.425
25.78000 6.600
25.80000 4.837
25.82000 7.489
25.84000 8.634
25.86000 9.160
25.88000 5.108
25.90000 5.421
25.92000 1.405
25.94000 2.958
25.96000 5.453
25.98000 8.581
26.00000 6.204
26.02000 3.319
26.04000 5.224
26.06000 6.787
26.08000 5.463
26.10000 5.512
26.12000 9.734
26.14000 7.307
26.16000 7.494
26.18000 6.640
26.20000 7.622
26.22000 5.248
26.24000 8.165
26.26000 8.524
26.28000 10.394
26.30000 9.202
26.32000 6.900
26.34000 4.525
26.36000 7.579
26.38000 10.466
26.40000 11.271
26.42000 1.449
26.44000 -3.838
26.46000 -1.393
26.48000 12.870
26.50000 13.142
26.52000 7.943
26.54000 9.660
26.56000 14.044
26.58000 10.174
26.60000 3.848
26.62000 8.105
26.64000 9.459
26.66000 2.275
26.68000 4.652
26.70000 11.411
26.72000 9.605
26.74000 9.509
26.76000 11.222
26.78000 6.355
26.80000 7.190
26.82000 8.129
26.84000 11.849
26.86000 8.790
26.88000 7.855
26.90000 6.306
26.92000 2.638
26.94000 5.490
26.96000 8.200
26.98000 6.115
27.00000 7.181
27.02000 4.847
27.04000 2.458
27.06000 4.648
27.08000 2.409
27.10000 0.824
27.12000 -1.656
27.14000 4.224
27.16000 2.892
27.18000 3.630
27.20000 1.487
27.22000 3.361
27.24000 4.364
27.26000 4.815
27.28000 8.847
27.30000 6.586
27.32000 3.248
27.34000 2.994
27.36000 -1.246
27.38000 2.231
27.40000 3.356
27.42000 2.058
27.44000 1.197
27.46000 0.990
27.48000 3.428
27.50000 0.085
27.52000 0.524
27.54000 -1.603
27.56000 -2.615
27.58000 2.098
27.60000 3.755
27.62000 1.306
27.64000 2.242
27.66000 1.017
27.68000 7.113
27.70000 3.111
27.72000 3.478
27.74000 -1.851
27.76000 3.770
27.78000 5.192
27.80000 -2.552
27.82000 2.654
27.84000 0.528
27.86000 -1.552
27.88000 2.790
27.90000 4.951
27.92000 2.484
27.94000 0.929
27.96000 4.580
27.98000 6.702
28.00000 5.882
28.02000 1.184
28.04000 -0.279
28.06000 0.172
28.08000 -1.893
28.10000 2.946
28.12000 9.015
28.14000 3.951
28.16000 0.001
28.18000 1.068
28.20000 0.292
28.22000 -1.401
28.24000 2.255
28.26000 2.127
28.28000 3.936
28.30000 4.153
28.32000 -2.150
28.34000 0.881
28.36000 1.239
28.38000 -2.072
28.40000 -0.056
28.42000 2.686
28.44000 -1.989
28.46000 -3.804
28.48000 3.482
28.50000 -0.784
28.52000 2.280
28.54000 2.903
28.56000 1.944
28.58000 2.442
28.60000 2.238
28.62000 2.404
28.64000 2.380
28.66000 0.740
28.68000 0.840
28.70000 -0.614
28.72000 0.790
28.74000 2.252
28.76000 -1.399
28.78000 3.260
28.80000 1.154
28.82000 5.348
28.84000 2.380
28.86000 -0.990
28.88000 -2.238
28.90000 -1.442
28.92000 -0.649
28.94000 -1.442
28.96000 1.376
28.98000 -1.097
29.00000 1.523
29.02000 3.774
29.04000 1.266
29.06000 -0.868
29.08000 2.909
29.10000 2.896
29.12000 -3.781
29.14000 -3.183
29.16000 -1.263
29.18000 2.713
29.20000 2.502
29.22000 3.322
29.24000 -0.231
29.26000 0.509
29.28000 -3.505
29.30000 -2.812
29.32000 2.324
29.34000 6.327
29.36000 2.814
29.38000 -2.365
29.40000 0.979
29.42000 1.393
29.44000 -2.704
29.46000 -0.531
29.48000 -1.636
29.50000 0.300
29.52000 -0.510
29.54000 -2.400
29.56000 -1.231
29.58000 -0.312
29.60000 4.766
29.62000 8.634
29.64000 7.057
29.66000 3.405
29.68000 3.419
29.70000 3.547
29.72000 -0.422
29.74000 -0.832
29.76000 -0.973
29.78000 0.336
29.80000 2.688
29.82000 -0.119
29.84000 0.273
29.86000 -0.684
29.88000 0.655
29.90000 5.674
29.92000 4.741
29.94000 1.632
29.96000 3.429
29.98000 2.935
30.00000 3.604
30.02000 4.339
30.04000 3.106
30.06000 -1.438
30.08000 7.820
30.10000 6.426
30.12000 0.912
30.14000 3.476
30.16000 11.080
30.18000 3.462
30.20000 2.976
30.22000 1.267
30.24000 1.199
30.26000 1.425
30.28000 -1.055
30.30000 -1.667
30.32000 -3.699
30.34000 3.041
30.36000 1.849
30.38000 3.139
30.40000 2.165
30.42000 7.916
30.44000 2.977
30.46000 -1.846
30.48000 -1.627
30.50000 3.233
30.52000 1.814
30.54000 0.836
30.56000 6.677
30.58000 9.661
30.60000 4.695
30.62000 3.214
30.64000 3.985
30.66000 5.972
30.68000 3.556
30.70000 6.400
30.72000 1.320
30.74000 -3.685
30.76000 -2.024
30.78000 -0.538
30.80000 -1.926
30.82000 -1.135
30.84000 -0.486
30.86000 1.077
30.88000 -2.400
30.90000 5.644
30.92000 6.255
30.94000 4.185
30.96000 5.248
30.98000 4.775
31.00000 2.226
31.02000 2.977
31.04000 1.787
31.06000 5.809
31.08000 7.285
31.10000 -0.748
31.12000 4.088
31.14000 5.261
31.16000 -0.279
31.18000 0.366
31.20000 0.120
31.22000 2.937
31.24000 4.018
31.26000 0.117
31.28000 2.744
31.30000 4.163
31.32000 2.312
31.34000 0.505
31.36000 -3.648
31.38000 1.600
31.40000 4.257
31.42000 4.675
31.44000 8.987
31.46000 6.796
31.48000 3.569
31.50000 -0.464
31.52000 3.719
31.54000 3.446
31.56000 0.689
31.58000 5.612
31.60000 2.070
31.62000 1.282
31.64000 -3.634
31.66000 -0.258
31.68000 2.263
31.70000 4.474
31.72000 7.703
31.74000 3.839
31.76000 6.844
31.78000 2.755
31.80000 4.426
31.82000 6.751
31.84000 7.741
31.86000 4.356
31.88000 3.944
31.90000 3.890
31.92000 6.121
31.94000 5.642
31.96000 2.818
31.98000 2.672
32.00000 0.051
32.02000 1.461
32.04000 6.646
32.06000 4.434
32.08000 2.201
32.10000 4.825
32.12000 5.592
32.14000 5.640
32.16000 2.821
32.18000 2.010
32.20000 2.139
32.22000 5.964
32.24000 8.784
32.26000 4.959
32.28000 3.732
32.30000 0.434
32.32000 -2.628
32.34000 1.455
32.36000 3.689
32.38000 0.439
32.40000 2.632
32.42000 2.161
32.44000 2.219
32.46000 3.393
32.48000 6.911
32.50000 5.357
32.52000 3.790
32.54000 5.700
32.56000 -1.907
32.58000 -3.613
32.60000 -2.295
32.62000 -1.503
32.64000 0.530
32.66000 0.988
32.68000 2.107
32.70000 -1.824
32.72000 5.838
32.74000 7.930
32.76000 2.263
32.78000 2.162
32.80000 4.164
32.82000 6.269
32.84000 4.165
32.86000 3.232
32.88000 1.838
32.90000 -0.693
32.92000 -3.600
32.94000 2.237
32.96000 6.601
32.98000 3.542
33.00000 0.890
33.02000 3.396
33.04000 7.192
33.06000 7.058
33.08000 1.449
33.10000 0.387
33.12000 -1.050
33.14000 4.854
33.16000 0.153
33.18000 -3.606
33.20000 -0.462
33.22000 5.542
33.24000 8.529
33.26000 7.620
33.28000 1.265
33.30000 0.962
33.32000 4.175
33.34000 7.778
33.36000 2.304
33.38000 3.288
33.40000 2.370
33.42000 1.170
33.44000 -2.206
33.46000 2.853
33.48000 6.333
33.50000 2.614
33.52000 4.933
33.54000 2.553
33.56000 2.350
33.58000 5.828
33.60000 -0.953
33.62000 -1.085
33.64000 4.056
33.66000 4.195
33.68000 5.793
33.70000 4.298
33.72000 -1.369
33.74000 0.018
33.76000 2.769
33.78000 1.023
33.80000 4.585
33.82000 2.066
33.84000 -1.697
33.86000 4.715
33.88000 5.334
33.90000 -0.555
33.92000 2.258
33.94000 8.570
33.96000 8.771
33.98000 3.989
34.00000 3.926
34.02000 2.207
34.04000 1.873
34.06000 1.583
34.08000 1.270
34.10000 -2.205
34.12000 0.357
34.14000 -2.066
34.16000 -1.646
34.18000 2.241
34.20000 4.786
34.22000 5.340
34.24000 0.035
34.26000 0.362
34.28000 -0.978
34.30000 2.675
34.32000 2.229
34.34000 -0.681
34.36000 -2.031
34.38000 -0.670
34.40000 6.041
34.42000 1.573
34.44000 1.990
34.46000 3.292
34.48000 6.638
34.50000 4.271
34.52000 5.539
34.54000 8.416
34.56000 6.432
34.58000 -0.850
34.60000 5.176
34.62000 1.589
34.64000 2.000
34.66000 2.310
34.68000 0.871
34.70000 2.798
34.72000 1.958
34.74000 4.626
34.76000 3.497
34.78000 2.873
34.80000 3.259
34.82000 -2.237
34.84000 -3.572
34.86000 0.004
34.88000 4.348
34.90000 12.955
34.92000 5.470
34.94000 3.366
34.96000 4.454
34.98000 3.599
35.00000 5.786
35.02000 4.880
35.04000 1.585
35.06000 -3.046
35.08000 0.823
35.10000 2.978
35.12000 3.203
35.14000 5.926
35.16000 8.601
35.18000 6.260
35.20000 1.100
35.22000 3.389
35.24000 2.085
35.26000 1.856
35.28000 6.440
35.30000 8.725
35.32000 8.752
35.34000 5.924
35.36000 1.807
35.38000 1.683
35.40000 5.770
35.42000 6.411
35.44000 7.124
35.46000 8.275
35.48000 6.965
35.50000 6.803
35.52000 4.540
35.54000 6.176
35.56000 9.685
35.58000 7.760
35.60000 3.884
35.62000 -3.538
35.64000 -1.579
35.66000 5.901
35.68000 2.182
35.70000 1.762
35.72000 3.631
35.74000 6.714
35.76000 3.814
35.78000 6.069
35.80000 6.228
35.82000 -3.105
35.84000 -3.537
35.86000 2.913
35.88000 5.974
35.90000 10.300
35.92000 1.051
35.94000 2.135
35.96000 4.647
35.98000 2.467
36.00000 2.669
36.02000 2.023
36.04000 4.406
36.06000 6.981
36.08000 7.244
36.10000 5.510
36.12000 5.368
36.14000 3.591
36.16000 4.040
36.18000 5.385
36.20000 4.433
36.22000 2.619
36.24000 0.193
36.26000 0.466
36.28000 1.500
36.30000 2.034
36.32000 -0.879
36.34000 2.595
36.36000 6.972
36.38000 5.781
36.40000 -1.558
36.42000 -0.790
36.44000 6.281
36.46000 8.143
36.48000 3.469
36.50000 4.911
36.52000 2.269
36.54000 5.379
36.56000 13.109
36.58000 10.732
36.60000 3.261
36.62000 3.944
36.64000 8.252
36.66000 4.865
36.68000 0.473
36.70000 -1.030
36.72000 0.445
36.74000 7.596
36.76000 7.088
36.78000 1.542
36.80000 -1.155
36.82000 -1.763
36.84000 1.595
36.86000 3.321
36.88000 2.482
36.90000 1.906
36.92000 1.679
36.94000 -2.147
36.96000 0.147
36.98000 3.245
37.00000 4.960
37.02000 -0.294
37.04000 -3.655
37.06000 3.552
37.08000 7.766
37.10000 11.452
37.12000 2.896
37.14000 2.454
37.16000 0.784
37.18000 4.071
37.20000 4.560
37.22000 6.662
37.24000 11.227
37.26000 8.348
37.28000 5.517
37.30000 2.900
37.32000 0.152
37.34000 4.092
37.36000 1.012
37.38000 0.025
37.40000 3.480
37.42000 5.341
37.44000 2.972
37.46000 1.785
37.48000 4.113
37.50000 10.265
37.52000 10.030
37.54000 10.355
37.56000 8.354
37.58000 8.928
37.60000 9.229
37.62000 9.967
37.64000 13.612
37.66000 12.348
37.68000 11.813
37.70000 14.570
37.72000 15.196
37.74000 11.108
37.76000 4.790
37.78000 8.271
37.80000 13.633
37.82000 12.710
37.84000 15.396
37.86000 15.674
37.88000 11.388
37.90000 12.346
37.92000 22.407
37.94000 20.989
37.96000 16.464
37.98000 17.652
38.00000 16.817
38.02000 19.622
38.04000 22.422
38.06000 22.051
38.08000 23.507
38.10000 25.397
38.12000 17.173
38.14000 20.632
38.16000 23.850
38.18000 26.859
38.20000 29.126
38.22000 32.035
38.24000 30.926
38.26000 23.379
38.28000 25.393
38.30000 24.130
38.32000 27.464
38.34000 29.613
38.36000 28.125
38.38000 28.521
38.40000 33.275
38.42000 34.504
38.44000 37.080
38.46000 35.555
38.48000 39.845
38.50000 43.943
38.52000 47.605
38.54000 47.324
38.56000 46.274
38.58000 51.316
38.60000 54.333
38.62000 54.054
38.64000 50.384
38.66000 54.492
38.68000 53.041
38.70000 56.030
38.72000 60.264
38.74000 66.999
38.76000 66.942
38.78000 73.028
38.80000 73.631
38.82000 75.863
38.84000 76.423
38.86000 82.212
38.88000 87.011
38.90000 87.340
38.92000 89.554
38.94000 95.919
38.96000 101.155
38.98000 100.873
39.00000 104.992
39.02000 115.857
39.04000 126.778
39.06000 131.317
39.08000 124.539
39.10000 133.377
39.12000 147.098
39.14000 152.899
39.16000 158.283
39.18000 157.916
39.20000 163.581
39.22000 169.987
39.24000 181.413
39.26000 187.166
39.28000 200.240
39.30000 207.161
39.32000 216.002
39.34000 224.059
39.36000 232.746
39.38000 258.202
39.40000 261.497
39.42000 267.899
39.44000 280.454
39.46000 303.271
39.48000 318.696
39.50000 334.465
39.52000 350.651
39.54000 373.828
39.56000 392.802
39.58000 407.773
39.60000 425.736
39.62000 440.263
39.64000 457.836
39.66000 475.111
39.68000 494.929
39.70000 517.208
39.72000 532.026
39.74000 555.753
39.76000 587.443
39.78000 599.068
39.80000 627.709
39.82000 636.012
39.84000 644.436
39.86000 666.204
39.88000 679.785
39.90000 695.356
39.92000 704.152
39.94000 719.339
39.96000 743.177
39.98000 745.941
40.00000 756.507
40.02000 757.886
40.04000 755.069
40.06000 760.435
40.08000 767.334
40.10000 756.805
40.12000 752.063
40.14000 744.413
40.16000 728.422
40.18000 705.148
40.20000 704.759
40.22000 690.351
40.24000 669.512
40.26000 656.506
40.28000 642.604
40.30000 611.797
40.32000 592.274
40.34000 568.559
40.36000 546.020
40.38000 523.008
40.40000 510.545
40.42000 487.974
40.44000 468.567
40.46000 439.145
40.48000 422.429
40.50000 396.562
40.52000 378.262
40.54000 357.016
40.56000 328.993
40.58000 318.106
40.60000 303.904
40.62000 284.528
40.64000 264.489
40.66000 254.993
40.68000 244.686
40.70000 226.533
40.72000 212.676
40.74000 203.600
40.76000 189.891
40.78000 177.382
40.80000 164.673
40.82000 160.974
40.84000 153.261
40.86000 142.939
40.88000 127.944
40.90000 123.039
40.92000 114.632
40.94000 107.888
40.96000 99.156
40.98000 90.671
41.00000 94.312
41.02000 89.068
41.04000 76.058
41.06000 67.598
41.08000 67.992
41.10000 66.308
41.12000 65.843
41.14000 62.874
41.16000 63.902
41.18000 53.267
41.20000 49.391
41.22000 47.425
41.24000 43.687
41.26000 39.845
41.28000 39.539
41.30000 36.199
41.32000 36.830
41.34000 35.132
41.36000 34.832
41.38000 35.316
41.40000 27.385
41.42000 28.799
41.44000 29.136
41.46000 27.905
41.48000 24.118
41.50000 20.507
41.52000 21.257
41.54000 24.388
41.56000 19.966
41.58000 17.799
41.60000 17.917
41.62000 18.049
41.64000 13.534
41.66000 14.171
41.68000 13.965
41.70000 15.043
41.72000 13.357
41.74000 12.890
41.76000 16.273
41.78000 17.601
41.80000 13.757
41.82000 9.854
41.84000 7.079
41.86000 1.664
41.88000 3.382
41.90000 3.987
41.92000 6.985
41.94000 7.250
41.96000 5.765
41.98000 2.963
42.00000 5.855
42.02000 6.504
42.04000 8.754
42.06000 9.456
42.08000 3.250
42.10000 1.775
42.12000 1.079
42.14000 4.505
42.16000 3.512
42.18000 4.602
42.20000 -0.212
42.22000 -1.799
42.24000 -0.887
42.26000 -3.658
42.28000 4.008
42.30000 3.463
42.32000 2.490
42.34000 -3.110
42.36000 1.604
42.38000 4.058
42.40000 3.226
42.42000 0.183
42.44000 0.568
42.46000 -0.058
42.48000 5.181
42.50000 5.652
42.52000 1.929
42.54000 -1.648
42.56000 0.919
42.58000 3.858
42.60000 -0.044
42.62000 -3.609
42.64000 -1.279
42.66000 2.616
42.68000 3.433
42.70000 1.957
42.72000 0.708
42.74000 3.946
42.76000 -2.012
42.78000 -2.650
42.80000 0.790
42.82000 3.525
42.84000 4.299
42.86000 3.167
42.88000 1.884
42.90000 -0.138
42.92000 3.401
42.94000 0.398
42.96000 3.094
42.98000 2.780
43.00000 1.489
43.02000 2.480
43.04000 4.236
43.06000 -3.545
43.08000 -2.794
43.10000 3.197
43.12000 6.386
43.14000 4.225
43.16000 6.023
43.18000 3.201
43.20000 -3.404
43.22000 -1.307
43.24000 4.280
43.26000 1.176
43.28000 -3.151
43.30000 0.731
43.32000 1.223
43.34000 0.645
43.36000 4.727
43.38000 7.518
43.40000 5.046
43.42000 3.738
43.44000 7.749
43.46000 3.888
43.48000 3.163
43.50000 7.750
43.52000 8.468
43.54000 1.488
43.56000 -1.966
43.58000 0.966
43.60000 -0.634
43.62000 -0.413
43.64000 -0.113
43.66000 2.567
43.68000 2.546
43.70000 0.225
43.72000 3.757
43.74000 0.801
43.76000 2.787
43.78000 1.730
43.80000 3.250
43.82000 2.881
43.84000 4.769
43.86000 3.428
43.88000 2.617
43.90000 0.956
43.92000 0.347
43.94000 -3.490
43.96000 2.263
43.98000 7.222
44.00000 6.379
44.02000 7.171
44.04000 6.808
44.06000 3.515
44.08000 3.941
44.10000 0.574
44.12000 0.957
44.14000 2.465
44.16000 4.675
44.18000 6.302
44.20000 -2.635
44.22000 -2.579
44.24000 2.929
44.26000 11.791
44.28000 4.705
44.30000 4.905
44.32000 2.092
44.34000 2.495
44.36000 2.566
44.38000 4.460
44.40000 6.292
44.42000 5.937
44.44000 3.467
44.46000 1.201
44.48000 1.021
44.50000 4.461
44.52000 8.711
44.54000 5.331
44.56000 10.868
44.58000 9.653
44.60000 4.891
44.62000 5.978
44.64000 5.406
44.66000 3.144
44.68000 6.790
44.70000 5.628
44.72000 8.378
44.74000 3.037
44.76000 3.516
44.78000 7.569
44.80000 7.402
44.82000 8.350
44.84000 11.889
44.86000 9.491
44.88000 7.181
44.90000 9.275
44.92000 5.450
44.94000 3.620
44.96000 6.603
44.98000 6.919
45.00000 6.565
45.02000 5.247
45.04000 11.227
45.06000 12.670
45.08000 10.920
45.10000 10.141
45.12000 6.976
45.14000 3.520
45.16000 14.590
45.18000 20.950
45.20000 20.066
45.22000 21.875
45.24000 16.389
45.26000 9.470
45.28000 16.851
45.30000 17.804
45.32000 20.343
45.34000 19.716
45.36000 28.099
45.38000 23.821
45.40000 22.133
45.42000 18.239
45.44000 23.641
45.46000 25.791
45.48000 20.417
45.50000 26.345
45.52000 31.458
45.54000 25.793
45.56000 24.735
45.58000 21.389
45.60000 27.688
45.62000 36.795
45.64000 35.341
45.66000 33.654
45.68000 30.389
45.70000 31.642
45.72000 31.180
45.74000 33.280
45.76000 33.630
45.78000 36.215
45.80000 39.674
45.82000 43.572
45.84000 41.631
45.86000 43.888
45.88000 44.635
45.90000 44.210
45.92000 39.689
45.94000 48.039
45.96000 47.778
45.98000 49.455
46.00000 47.630
46.02000 57.963
46.04000 63.077
46.06000 57.046
46.08000 49.568
46.10000 50.309
46.12000 57.647
46.14000 60.055
46.16000 62.044
46.18000 64.140
46.20000 63.647
46.22000 71.338
46.24000 67.073
46.26000 69.725
46.28000 71.966
46.30000 67.427
46.32000 71.305
46.34000 73.604
46.36000 76.347
46.38000 79.436
46.40000 81.901
46.42000 81.456
46.44000 77.833
46.46000 76.682
46.48000 78.285
46.50000 79.696
46.52000 81.491
46.54000 82.364
46.56000 78.058
46.58000 75.947
46.60000 81.745
46.62000 79.373
46.64000 77.992
46.66000 74.166
46.68000 73.248
46.70000 74.756
46.72000 82.078
46.74000 86.433
46.76000 82.432
46.78000 81.535
46.80000 78.103
46.82000 74.160
46.84000 76.100
46.86000 82.332
46.88000 78.026
46.90000 71.521
46.92000 71.827
46.94000 72.667
46.96000 66.404
46.98000 65.327
47.00000 58.160
47.02000 59.433
47.04000 60.551
47.06000 62.097
47.08000 65.204
47.10000 63.453
47.12000 52.752
47.14000 51.645
47.16000 57.526
47.18000 58.333
47.20000 56.779
47.22000 54.043
47.24000 44.555
47.26000 42.809
47.28000 38.419
47.30000 36.114
47.32000 33.587
47.34000 32.305
47.36000 31.214
47.38000 28.585
47.40000 28.590
47.42000 30.002
47.44000 30.538
47.46000 25.301
47.48000 22.900
47.50000 21.162
47.52000 25.599
47.54000 24.095
47.56000 22.578
47.58000 17.321
47.60000 20.877
47.62000 22.010
47.64000 17.989
47.66000 13.512
47.68000 12.858
47.70000 16.805
47.72000 16.119
47.74000 15.578
47.76000 16.904
47.78000 17.818
47.80000 16.868
47.82000 17.575
47.84000 15.271
47.86000 21.749
47.88000 18.394
47.90000 13.339
47.92000 14.612
47.94000 2.914
47.96000 -3.343
47.98000 10.521
48.00000 9.451
48.02000 5.985
48.04000 1.881
48.06000 5.673
48.08000 6.055
48.10000 7.872
48.12000 2.230
48.14000 3.867
48.16000 6.905
48.18000 8.389
48.20000 6.389
48.22000 3.728
48.24000 8.256
48.26000 3.923
48.28000 5.388
48.30000 6.008
48.32000 0.962
48.34000 2.817
48.36000 1.608
48.38000 3.539
48.40000 2.654
48.42000 -0.453
48.44000 -0.708
48.46000 -2.806
48.48000 -1.296
48.50000 -2.642
48.52000 1.384
48.54000 -0.162
48.56000 -0.555
48.58000 0.739
48.60000 2.382
48.62000 -1.589
48.64000 3.068
48.66000 3.498
48.68000 4.698
48.70000 6.326
48.72000 1.704
48.74000 0.203
48.76000 -0.907
48.78000 -3.073
48.80000 0.493
48.82000 1.207
48.84000 3.479
48.86000 0.019
48.88000 0.256
48.90000 1.363
48.92000 1.786
48.94000 6.137
48.96000 4.658
48.98000 3.695
49.00000 5.424
49.02000 1.564
49.04000 0.023
49.06000 -3.024
49.08000 2.972
49.10000 2.590
49.12000 1.361
49.14000 -1.402
49.16000 0.284
49.18000 0.916
49.20000 -3.167
49.22000 0.084
49.24000 4.428
49.26000 0.013
49.28000 -1.889
49.30000 -0.138
49.32000 1.083
49.34000 7.827
49.36000 6.907
49.38000 2.453
49.40000 4.346
49.42000 3.930
49.44000 1.588
49.46000 -1.539
49.48000 -2.520
49.50000 -1.489
49.52000 -1.890
49.54000 -3.108
49.56000 -1.251
49.58000 -0.019
49.60000 -1.769
49.62000 4.287
49.64000 7.065
49.66000 1.275
49.68000 5.873
49.70000 4.398
49.72000 5.766
49.74000 2.864
49.76000 -0.162
49.78000 1.979
49.80000 7.805
49.82000 8.440
49.84000 4.980
49.86000 2.626
49.88000 6.656
49.90000 6.416
49.92000 0.425
49.94000 -1.297
49.96000 3.552
49.98000 4.492
50.00000 8.169
50.02000 1.293
50.04000 -3.050
50.06000 6.841
50.08000 6.463
50.10000 2.453
50.12000 7.100
50.14000 5.739
50.16000 6.200
50.18000 4.565
50.20000 6.477
50.22000 9.818
50.24000 5.383
50.26000 4.048
50.28000 9.628
50.30000 10.638
50.32000 9.940
50.34000 7.927
50.36000 3.776
50.38000 6.757
50.40000 7.523
50.42000 8.145
50.44000 1.558
50.46000 -0.488
50.48000 4.386
50.50000 3.010
50.52000 0.407
50.54000 2.818
50.56000 4.540
50.58000 4.875
50.60000 6.348
50.62000 1.464
50.64000 2.038
50.66000 1.672
50.68000 2.159
50.70000 1.975
50.72000 0.569
50.74000 1.447
50.76000 -0.305
50.78000 7.514
50.80000 2.055
50.82000 0.105
50.84000 -2.157
50.86000 -0.538
50.88000 0.627
50.90000 5.945
50.92000 2.364
50.94000 -2.291
50.96000 5.074
50.98000 7.250
51.00000 8.893
51.02000 4.783
51.04000 -3.033
51.06000 0.741
51.08000 5.229
51.10000 5.511
51.12000 6.845
51.14000 4.427
51.16000 7.027
51.18000 6.819
51.20000 3.637
51.22000 6.463
51.24000 5.076
51.26000 9.212
51.28000 5.722
51.30000 6.822
51.32000 2.458
51.34000 4.497
51.36000 5.774
51.38000 8.708
51.40000 10.767
51.42000 6.868
51.44000 4.323
51.46000 3.998
51.48000 5.501
51.50000 4.138
51.52000 2.635
51.54000 1.983
51.56000 1.916
51.58000 -0.283
51.60000 3.936
51.62000 2.605
51.64000 -2.472
51.66000 4.528
51.68000 6.960
51.70000 0.954
51.72000 0.119
51.74000 3.231
51.76000 1.590
51.78000 8.294
51.80000 5.768
51.82000 6.721
51.84000 1.402
51.86000 6.820
51.88000 6.573
51.90000 4.075
51.92000 2.338
51.94000 3.322
51.96000 5.035
51.98000 2.177
52.00000 5.112
52.02000 7.105
52.04000 11.238
52.06000 7.558
52.08000 1.451
52.10000 -1.805
52.12000 -1.833
52.14000 0.479
52.16000 1.559
52.18000 3.417
52.20000 2.703
52.22000 1.812
52.24000 1.668
52.26000 1.321
52.28000 0.812
52.30000 2.259
52.32000 -0.536
52.34000 -2.700
52.36000 6.027
52.38000 4.900
52.40000 1.190
52.42000 1.236
52.44000 1.149
52.46000 -2.974
52.48000 -1.313
52.50000 2.326
52.52000 2.127
52.54000 0.516
52.56000 3.085
52.58000 1.999
52.60000 7.296
52.62000 6.353
52.64000 6.312
52.66000 2.272
52.68000 -0.906
52.70000 0.520
52.72000 3.364
52.74000 5.315
52.76000 3.074
52.78000 1.358
52.80000 5.644
52.82000 5.295
52.84000 2.708
52.86000 -2.522
52.88000 -2.208
52.90000 4.115
52.92000 7.949
52.94000 9.394
52.96000 5.027
52.98000 2.093
53.00000 0.032
53.02000 2.025
53.04000 -0.110
53.06000 0.286
53.08000 3.067
53.10000 5.758
53.12000 8.027
53.14000 10.834
53.16000 9.168
53.18000 8.075
53.20000 7.165
53.22000 7.809
53.24000 5.146
53.26000 -2.941
53.28000 2.876
53.30000 8.135
53.32000 5.489
53.34000 6.396
53.36000 -0.066
53.38000 3.472
53.40000 5.087
53.42000 8.572
53.44000 8.548
53.46000 5.833
53.48000 2.800
53.50000 6.480
53.52000 5.998
53.54000 6.549
53.56000 3.210
53.58000 7.020
53.60000 2.579
53.62000 6.539
53.64000 7.506
53.66000 9.119
53.68000 6.365
53.70000 5.958
53.72000 3.067
53.74000 -1.014
53.76000 1.391
53.78000 6.247
53.80000 8.741
53.82000 4.066
53.84000 3.117
53.86000 4.952
53.88000 4.293
53.90000 1.797
53.92000 1.813
53.94000 0.560
53.96000 -1.147
53.98000 -1.986
54.00000 -1.018
54.02000 5.461
54.04000 4.647
54.06000 4.878
54.08000 -0.695
54.10000 4.838
54.12000 9.091
54.14000 7.206
54.16000 5.118
54.18000 0.616
54.20000 -2.463
54.22000 -1.851
54.24000 -1.818
54.26000 -1.197
54.28000 2.330
54.30000 0.256
54.32000 -2.222
54.34000 3.445
54.36000 4.735
54.38000 4.916
54.40000 3.949
54.42000 8.859
54.44000 6.919
54.46000 5.988
54.48000 5.840
54.50000 1.089
54.52000 3.229
54.54000 3.451
54.56000 2.576
54.58000 5.503
54.60000 4.258
54.62000 5.998
54.64000 2.313
54.66000 5.782
54.68000 5.172
54.70000 8.076
54.72000 6.505
54.74000 2.001
54.76000 -2.898
54.78000 3.354
54.80000 2.404
54.82000 3.218
54.84000 3.228
54.86000 0.701
54.88000 3.582
54.90000 6.411
54.92000 7.449
54.94000 4.257
54.96000 3.014
54.98000 5.726
55.00000 4.505
55.02000 3.691
55.04000 7.296
55.06000 6.487
55.08000 3.393
55.10000 3.532
55.12000 1.109
55.14000 -1.496
55.16000 5.120
55.18000 3.723
55.20000 2.867
55.22000 3.787
55.24000 2.494
55.26000 3.277
55.28000 0.031
55.30000 -0.276
55.32000 5.184
55.34000 9.338
55.36000 6.297
55.38000 1.016
55.40000 4.100
55.42000 2.516
55.44000 2.626
55.46000 2.061
55.48000 2.336
55.50000 9.453
55.52000 4.782
55.54000 0.146
55.56000 1.654
55.58000 1.224
55.60000 0.776
55.62000 4.530
55.64000 2.089
55.66000 0.100
55.68000 3.418
55.70000 1.797
55.72000 0.689
55.74000 -2.896
55.76000 -2.897
55.78000 1.927
55.80000 1.575
55.82000 6.480
55.84000 7.250
55.86000 3.535
55.88000 0.455
55.90000 2.833
55.92000 1.767
55.94000 3.310
55.96000 1.078
55.98000 3.136
56.00000 3.651
56.02000 2.081
56.04000 6.035
56.06000 2.289
56.08000 5.157
56.10000 1.162
56.12000 1.614
56.14000 1.376
56.16000 2.416
56.18000 2.394
56.20000 5.961
56.22000 2.906
56.24000 3.790
56.26000 8.462
56.28000 5.693
56.30000 4.955
56.32000 5.228
56.34000 6.162
56.36000 4.176
56.38000 10.729
56.40000 8.174
56.42000 6.057
56.44000 7.050
56.46000 2.017
56.48000 2.583
56.50000 5.748
56.52000 7.253
56.54000 1.889
56.56000 10.218
56.58000 7.725
56.60000 1.796
56.62000 4.013
56.64000 5.955
56.66000 3.126
56.68000 -1.310
56.70000 -2.836
56.72000 0.899
56.74000 4.457
56.76000 1.410
56.78000 2.849
56.80000 -0.861
56.82000 -0.195
56.84000 5.943
56.86000 7.012
56.88000 7.459
56.90000 2.531
56.92000 -1.747
56.94000 1.407
56.96000 7.238
56.98000 6.577
57.00000 4.094
57.02000 5.830
57.04000 4.518
57.06000 1.027
57.08000 6.165
57.10000 12.378
57.12000 11.499
57.14000 8.829
57.16000 6.180
57.18000 4.139
57.20000 8.996
57.22000 5.578
57.24000 1.376
57.26000 1.019
57.28000 3.610
57.30000 2.584
57.32000 0.542
57.34000 2.499
57.36000 2.735
57.38000 6.377
57.40000 8.421
57.42000 3.575
57.44000 3.870
57.46000 5.870
57.48000 -2.800
57.50000 -2.437
57.52000 2.070
57.54000 1.976
57.56000 4.157
57.58000 5.538
57.60000 7.769
57.62000 7.092
57.64000 8.590
57.66000 5.158
57.68000 3.161
57.70000 8.322
57.72000 10.490
57.74000 7.717
57.76000 4.381
57.78000 9.682
57.80000 9.919
57.82000 7.557
57.84000 4.150
57.86000 -1.049
57.88000 -2.787
57.90000 3.063
57.92000 8.419
57.94000 3.707
57.96000 5.708
57.98000 4.409
58.00000 9.336
58.02000 6.958
58.04000 1.155
58.06000 6.607
58.08000 6.859
58.10000 8.844
58.12000 4.277
58.14000 2.862
58.16000 3.076
58.18000 3.376
58.20000 2.571
58.22000 1.758
58.24000 5.986
58.26000 10.206
58.28000 8.613
58.30000 4.703
58.32000 2.702
58.34000 4.579
58.36000 6.520
58.38000 2.535
58.40000 4.187
58.42000 5.334
58.44000 7.565
58.46000 8.925
58.48000 5.042
58.50000 2.685
58.52000 2.739
58.54000 4.020
58.56000 7.833
58.58000 1.720
58.60000 1.078
58.62000 7.787
58.64000 7.817
58.66000 5.161
58.68000 5.734
58.70000 3.982
58.72000 0.542
58.74000 6.420
58.76000 6.536
58.78000 7.425
58.80000 5.781
58.82000 5.286
58.84000 5.394
58.86000 -1.470
58.88000 -0.024
58.90000 5.012
58.92000 6.899
58.94000 7.293
58.96000 8.523
58.98000 6.449
59.00000 4.309
59.02000 3.282
59.04000 4.074
59.06000 6.009
59.08000 6.745
59.10000 8.097
59.12000 9.534
59.14000 7.557
59.16000 6.796
59.18000 5.530
59.20000 7.047
59.22000 7.170
59.24000 5.065
59.26000 4.710
59.28000 5.673
59.30000 5.108
59.32000 5.508
59.34000 5.266
59.36000 1.218
59.38000 -2.713
59.40000 3.938
59.42000 1.798
59.44000 -0.958
59.46000 0.245
59.48000 6.830
59.50000 5.255
59.52000 11.127
59.54000 9.991
59.56000 8.381
59.58000 4.599
59.60000 3.598
59.62000 5.550
59.64000 0.700
59.66000 4.446
59.68000 7.011
59.70000 5.014
59.72000 10.115
59.74000 10.338
59.76000 7.703
59.78000 0.975
59.80000 5.001
59.82000 2.505
59.84000 2.477
59.86000 3.511
59.88000 4.980
59.90000 0.759
59.92000 0.497
59.94000 3.889
59.96000 3.782
59.98000 3.837
60.00000 6.362
60.02000 -0.821
60.04000 1.730
60.06000 6.098
60.08000 7.084
60.10000 4.834
60.12000 5.011
60.14000 4.818
60.16000 3.604
60.18000 -2.706
60.20000 1.674
60.22000 6.723
60.24000 3.190
60.26000 2.875
60.28000 1.521
60.30000 3.737
60.32000 4.349
60.34000 6.108
60.36000 2.866
60.38000 1.716
60.40000 1.281
60.42000 9.150
60.44000 9.177
60.46000 8.470
60.48000 8.869
60.50000 7.897
60.52000 4.309
60.54000 2.646
60.56000 0.702
60.58000 2.606
60.60000 3.077
60.62000 1.432
60.64000 -0.352
60.66000 -0.201
60.68000 -0.585
60.70000 4.509
60.72000 4.954
60.74000 5.078
60.76000 6.093
60.78000 8.597
60.80000 9.231
60.82000 3.411
60.84000 0.500
60.86000 2.828
60.88000 3.741
60.90000 5.760
60.92000 3.525
60.94000 4.222
60.96000 5.476
60.98000 5.128
61.00000 3.282
61.02000 0.157
61.04000 0.734
61.06000 6.688
61.08000 5.516
61.10000 -1.077
61.12000 1.725
61.14000 5.990
61.16000 4.302
61.18000 3.095
61.20000 0.124
61.22000 5.628
61.24000 2.727
61.26000 3.342
61.28000 6.309
61.30000 5.143
61.32000 2.314
61.34000 -1.008
61.36000 -2.700
61.38000 -0.224
61.40000 1.239
61.42000 -0.586
61.44000 1.500
61.46000 1.773
61.48000 0.431
61.50000 0.454
61.52000 7.332
61.54000 7.618
61.56000 4.430
61.58000 4.323
61.60000 2.837
61.62000 1.848
61.64000 5.602
61.66000 1.001
61.68000 5.318
61.70000 4.401
61.72000 3.258
61.74000 6.221
61.76000 0.177
61.78000 -2.701
61.80000 -2.316
61.82000 0.203
61.84000 1.756
61.86000 7.818
61.88000 8.169
61.90000 2.107
61.92000 -0.662
61.94000 2.113
61.96000 2.306
61.98000 0.819
62.00000 -0.004
62.02000 -0.866
62.04000 0.809
62.06000 0.356
62.08000 1.237
62.10000 -2.464
62.12000 0.526
62.14000 -0.996
62.16000 2.730
62.18000 5.525
62.20000 5.853
62.22000 5.804
62.24000 4.746
62.26000 3.221
62.28000 3.838
62.30000 3.560
62.32000 0.489
62.34000 0.256
62.36000 -1.129
62.38000 -2.704
62.40000 -2.002
62.42000 0.811
62.44000 2.919
62.46000 2.507
62.48000 0.267
62.50000 2.163
62.52000 -1.248
62.54000 0.654
62.56000 6.944
62.58000 2.761
62.60000 1.668
62.62000 2.100
62.64000 -2.699
62.66000 1.891
62.68000 6.436
62.70000 10.380
62.72000 2.361
62.74000 1.159
62.76000 1.376
62.78000 0.278
62.80000 4.656
62.82000 4.709
62.84000 6.751
62.86000 5.030
62.88000 5.734
62.90000 7.866
62.92000 7.294
62.94000 0.706
62.96000 -1.675
62.98000 3.465
63.00000 1.947
63.02000 -0.357
63.04000 -0.700
63.06000 2.146
63.08000 1.146
63.10000 2.544
63.12000 3.339
63.14000 2.089
63.16000 3.735
63.18000 3.555
63.20000 2.179
63.22000 2.950
63.24000 4.048
63.26000 3.790
63.28000 2.900
63.30000 3.840
63.32000 1.268
63.34000 1.227
63.36000 -1.788
63.38000 -2.675
63.40000 1.996
63.42000 3.510
63.44000 2.547
63.46000 3.691
63.48000 0.044
63.50000 1.241
63.52000 3.859
63.54000 2.335
63.56000 4.050
63.58000 1.236
63.60000 2.731
63.62000 0.640
63.64000 1.792
63.66000 6.022
63.68000 3.706
63.70000 0.475
63.72000 1.911
63.74000 3.502
63.76000 4.101
63.78000 2.837
63.80000 0.614
63.82000 -2.295
63.84000 -2.345
63.86000 -1.938
63.88000 -2.466
63.90000 1.399
63.92000 -2.695
63.94000 -1.605
63.96000 0.871
63.98000 1.102
64.00000 1.896
64.02000 2.750
64.04000 0.047
64.06000 0.324
64.08000 0.977
64.10000 3.055
64.12000 1.989
64.14000 1.228
64.16000 -1.661
64.18000 0.111
64.20000 4.647
64.22000 7.441
64.24000 2.587
64.26000 1.403
64.28000 2.605
64.30000 2.707
64.32000 2.164
64.34000 0.224
64.36000 1.468
64.38000 0.247
64.40000 1.153
64.42000 2.469
64.44000 4.213
64.46000 5.151
64.48000 6.330
64.50000 0.016
64.52000 -1.780
64.54000 -2.695
64.56000 1.866
64.58000 3.313
64.60000 5.219
64.62000 4.971
64.64000 4.996
64.66000 0.444
64.68000 2.909
64.70000 6.051
64.72000 1.246
64.74000 1.827
64.76000 3.771
64.78000 2.995
64.80000 3.446
64.82000 4.165
64.84000 2.761
64.86000 -0.189
64.88000 -2.291
64.90000 -1.524
64.92000 -0.724
64.94000 1.672
64.96000 0.602
64.98000 3.621
65.00000 3.810
65.02000 6.718
65.04000 3.714
65.06000 4.441
65.08000 6.587
65.10000 3.072
65.12000 3.729
65.14000 6.673
65.16000 4.197
65.18000 -0.146
65.20000 -0.851
65.22000 1.751
65.24000 1.232
65.26000 4.148
65.28000 0.217
65.30000 0.163
65.32000 0.053
65.34000 -0.113
65.36000 1.134
65.38000 3.361
65.40000 1.190
65.42000 -2.734
65.44000 -1.028
65.46000 -0.753
65.48000 1.144
65.50000 0.881
65.52000 7.108
65.54000 4.327
65.56000 -0.969
65.58000 -1.349
65.60000 1.090
65.62000 2.059
65.64000 1.403
65.66000 -1.050
65.68000 -0.369
65.70000 2.481
65.72000 2.431
65.74000 3.530
65.76000 2.135
65.78000 -0.183
65.80000 -0.564
65.82000 -2.083
65.84000 3.506
65.86000 4.130
65.88000 6.469
65.90000 1.406
65.92000 -2.746
65.94000 3.285
65.96000 5.620
65.98000 2.433
66.00000 3.504
66.02000 2.332
66.04000 2.240
66.06000 1.588
66.08000 1.546
66.10000 5.459
66.12000 3.546
66.14000 4.951
66.16000 3.297
66.18000 2.269
66.20000 -1.765
66.22000 -0.501
66.24000 2.966
66.26000 4.187
66.28000 3.831
66.30000 7.238
66.32000 11.159
66.34000 9.486
66.36000 8.168
66.38000 4.145
66.40000 -1.214
66.42000 1.110
66.44000 5.615
66.46000 5.880
66.48000 2.372
66.50000 5.530
66.52000 4.078
66.54000 3.166
66.56000 1.924
66.58000 -0.380
66.60000 5.234
66.62000 4.225
66.64000 4.746
66.66000 0.934
66.68000 0.821
66.70000 3.841
66.72000 2.732
66.74000 6.456
66.76000 5.952
66.78000 7.720
66.80000 7.116
66.82000 6.705
66.84000 6.041
66.86000 5.053
66.88000 5.751
66.90000 5.686
66.92000 3.158
66.94000 5.763
66.96000 6.789
66.98000 8.937
67.00000 6.211
67.02000 -0.335
67.04000 3.832
67.06000 7.380
67.08000 8.600
67.10000 9.281
67.12000 12.376
67.14000 13.957
67.16000 14.157
67.18000 9.180
67.20000 6.457
67.22000 5.288
67.24000 7.364
67.26000 10.113
67.28000 12.816
67.30000 14.958
67.32000 14.753
67.34000 14.990
67.36000 14.855
67.38000 15.611
67.40000 19.158
67.42000 16.040
67.44000 15.553
67.46000 14.785
67.48000 14.593
67.50000 17.675
67.52000 16.844
67.54000 13.660
67.56000 14.839
67.58000 14.307
67.60000 16.157
67.62000 12.728
67.64000 14.713
67.66000 17.629
67.68000 18.673
67.70000 16.359
67.72000 16.006
67.74000 16.462
67.76000 20.830
67.78000 22.163
67.80000 23.581
67.82000 20.952
67.84000 19.541
67.86000 17.322
67.88000 23.342
67.90000 18.126
67.92000 15.945
67.94000 20.710
67.96000 24.848
67.98000 21.075
68.00000 19.338
68.02000 17.624
68.04000 19.120
68.06000 18.406
68.08000 22.371
68.10000 21.251
68.12000 25.523
68.14000 24.515
68.16000 23.380
68.18000 22.174
68.20000 20.924
68.22000 25.020
68.24000 20.472
68.26000 22.612
68.28000 21.016
68.30000 15.466
68.32000 16.948
68.34000 22.609
68.36000 27.892
68.38000 21.972
68.40000 10.659
68.42000 10.145
68.44000 14.715
68.46000 13.985
68.48000 13.689
68.50000 12.404
68.52000 12.260
68.54000 7.283
68.56000 8.005
68.58000 12.823
68.60000 17.858
68.62000 16.843
68.64000 12.652
68.66000 6.296
68.68000 4.825
68.70000 6.751
68.72000 4.288
68.74000 6.872
68.76000 11.093
68.78000 7.897
68.80000 3.734
68.82000 3.059
68.84000 2.604
68.86000 7.718
68.88000 9.042
68.90000 7.327
68.92000 0.300
68.94000 6.459
68.96000 9.530
68.98000 5.612
69.00000 0.223
69.02000 -2.782
69.04000 3.261
69.06000 5.054
69.08000 3.370
69.10000 2.907
69.12000 1.219
69.14000 1.938
69.16000 6.013
69.18000 4.575
69.20000 -0.764
69.22000 1.549
69.24000 0.449
69.26000 -2.059
69.28000 -1.317
69.30000 1.443
69.32000 3.072
69.34000 6.864
69.36000 -0.283
69.38000 0.258
69.40000 0.690
69.42000 0.410
69.44000 3.240
69.46000 1.795
69.48000 2.061
69.50000 3.048
69.52000 1.377
69.54000 1.367
69.56000 -1.031
69.58000 0.182
69.60000 -2.665
69.62000 -2.721
69.64000 0.815
69.66000 1.586
69.68000 -2.478
69.70000 1.008
69.72000 5.211
69.74000 0.384
69.76000 2.502
69.78000 2.082
69.80000 8.207
69.82000 4.267
69.84000 0.320
69.86000 1.635
69.88000 0.967
69.90000 1.830
69.92000 4.295
69.94000 2.377
69.96000 1.358
69.98000 2.139
70.00000 -0.077
70.02000 3.906
70.04000 1.804
70.06000 -2.661
70.08000 -1.620
70.10000 2.145
70.12000 -1.986
70.14000 -1.509
70.16000 2.829
70.18000 4.942
70.20000 -0.351
70.22000 -0.714
70.24000 1.131
70.26000 -2.486
70.28000 -1.365
70.30000 5.240
70.32000 2.127
70.34000 1.715
70.36000 4.541
70.38000 -2.588
70.40000 -1.214
70.42000 -2.634
70.44000 -2.137
70.46000 -1.203
70.48000 1.381
70.50000 1.280
70.52000 2.567
70.54000 0.603
70.56000 -2.128
70.58000 0.646
70.60000 -1.500
70.62000 -0.592
70.64000 0.220
70.66000 0.324
70.68000 -0.805
70.70000 0.508
70.72000 5.120
70.74000 6.438
70.76000 5.302
70.78000 0.718
70.80000 3.992
70.82000 4.579
70.84000 2.420
70.86000 1.239
70.88000 2.880
70.90000 3.298
70.92000 6.452
70.94000 -0.189
70.96000 -1.867
70.98000 -0.656
71.00000 0.099
71.02000 2.594
71.04000 5.507
71.06000 5.388
71.08000 4.810
71.10000 3.166
71.12000 -1.719
71.14000 -2.570
71.16000 0.764
71.18000 2.883
71.20000 3.670
71.22000 3.175
71.24000 6.315
71.26000 6.655
71.28000 5.373
71.30000 6.000
71.32000 5.002
71.34000 5.401
71.36000 4.753
71.38000 5.269
71.40000 6.298
71.42000 1.838
71.44000 4.781
71.46000 5.059
71.48000 3.349
71.50000 5.048
71.52000 5.091
71.54000 0.939
71.56000 -2.546
71.58000 1.010
71.60000 3.615
71.62000 3.654
71.64000 4.868
71.66000 0.427
71.68000 0.066
71.70000 2.200
71.72000 2.974
71.74000 5.176
71.76000 2.802
71.78000 2.759
71.80000 4.604
71.82000 5.737
71.84000 2.258
71.86000 1.711
71.88000 5.458
71.90000 6.770
71.92000 3.150
71.94000 1.238
71.96000 -0.499
71.98000 0.144
72.00000 -0.501
72.02000 4.947
72.04000 2.559
72.06000 2.806
72.08000 8.257
72.10000 5.427
72.12000 0.636
72.14000 3.248
72.16000 3.515
72.18000 4.382
72.20000 0.396
72.22000 1.095
72.24000 2.099
72.26000 -0.108
72.28000 2.964
72.30000 2.090
72.32000 -2.498
72.34000 5.007
72.36000 6.315
72.38000 2.894
72.40000 3.480
72.42000 -0.502
72.44000 2.763
72.46000 4.917
72.48000 5.348
72.50000 5.933
72.52000 4.166
72.54000 0.560
72.56000 2.390
72.58000 6.453
72.60000 9.643
72.62000 10.146
72.64000 2.896
72.66000 4.549
72.68000 8.291
72.70000 10.647
72.72000 6.492
72.74000 -2.099
72.76000 -1.993
72.78000 -2.462
72.80000 4.154
72.82000 4.698
72.84000 3.689
72.86000 12.132
72.88000 6.503
72.90000 5.842
72.92000 8.427
72.94000 11.064
72.96000 6.523
72.98000 3.488
73.00000 6.567
73.02000 7.043
73.04000 1.626
73.06000 6.522
73.08000 8.174
73.10000 7.484
73.12000 5.601
73.14000 5.957
73.16000 6.128
73.18000 8.487
73.20000 10.029
73.22000 4.326
73.24000 -0.461
73.26000 0.154
73.28000 6.343
73.30000 10.138
73.32000 0.203
73.34000 3.237
73.36000 4.655
73.38000 3.763
73.40000 4.702
73.42000 4.026
73.44000 0.630
73.46000 1.624
73.48000 1.782
73.50000 1.194
73.52000 4.331
73.54000 6.122
73.56000 6.507
73.58000 8.710
73.60000 6.748
73.62000 6.300
73.64000 3.299
73.66000 5.606
73.68000 4.047
73.70000 0.558
73.72000 -2.454
73.74000 3.802
73.76000 4.436
73.78000 3.896
73.80000 6.138
73.82000 5.822
73.84000 7.646
73.86000 2.964
73.88000 1.394
73.90000 6.472
73.92000 10.111
73.94000 6.718
73.96000 5.103
73.98000 2.547
74.00000 7.516
74.02000 3.200
74.04000 1.355
74.06000 0.985
74.08000 3.949
74.10000 6.678
74.12000 6.420
74.14000 3.831
74.16000 3.961
74.18000 1.182
74.20000 2.843
74.22000 3.503
74.24000 3.740
74.26000 2.499
74.28000 3.187
74.30000 0.266
74.32000 1.789
74.34000 3.320
74.36000 2.783
74.38000 1.610
74.40000 0.038
74.42000 -0.096
74.44000 -2.060
74.46000 -0.564
74.48000 1.573
74.50000 2.474
74.52000 5.226
74.54000 6.143
74.56000 2.838
74.58000 -0.288
74.60000 7.268
74.62000 8.856
74.64000 5.824
74.66000 8.464
74.68000 12.647
74.70000 7.223
74.72000 6.361
74.74000 0.780
74.76000 -0.482
74.78000 5.443
74.80000 2.198
74.82000 6.333
74.84000 8.352
74.86000 6.192
74.88000 3.047
74.90000 0.991
74.92000 2.722
74.94000 5.022
74.96000 4.138
74.98000 5.267
75.00000 1.947
75.02000 0.006
75.04000 1.022
75.06000 3.880
75.08000 3.927
75.10000 -0.381
75.12000 -1.753
75.14000 4.180
75.16000 5.988
75.18000 5.294
75.20000 3.575
75.22000 4.739
75.24000 7.185
75.26000 3.828
75.28000 7.215
75.30000 11.267
75.32000 5.138
75.34000 0.339
75.36000 3.636
75.38000 2.962
75.40000 3.587
75.42000 -2.482
75.44000 -1.176
75.46000 2.889
75.48000 5.141
75.50000 3.930
75.52000 1.719
75.54000 8.801
75.56000 12.824
75.58000 9.073
75.60000 6.345
75.62000 3.822
75.64000 1.701
75.66000 2.630
75.68000 4.333
75.70000 5.589
75.72000 2.991
75.74000 -2.489
75.76000 2.540
75.78000 4.829
75.80000 4.542
75.82000 5.293
75.84000 2.183
75.86000 1.881
75.88000 9.163
75.90000 7.142
75.92000 6.883
75.94000 9.203
75.96000 9.489
75.98000 7.766
76.00000 7.330
76.02000 2.316
76.04000 -1.836
76.06000 -0.128
76.08000 1.771
76.10000 -0.280
76.12000 -1.588
76.14000 1.035
76.16000 3.015
76.18000 1.311
76.20000 1.012
76.22000 3.365
76.24000 5.514
76.26000 5.507
76.28000 1.858
76.30000 4.410
76.32000 4.455
76.34000 2.147
76.36000 -1.698
76.38000 4.096
76.40000 0.819
76.42000 -2.533
76.44000 2.739
76.46000 3.770
76.48000 4.533
76.50000 3.946
76.52000 4.827
76.54000 9.096
76.56000 9.311
76.58000 7.139
76.60000 2.949
76.62000 1.529
76.64000 1.085
76.66000 0.801
76.68000 9.672
76.70000 7.350
76.72000 -0.673
76.74000 -1.031
76.76000 1.707
76.78000 4.400
76.80000 2.596
76.82000 5.143
76.84000 1.942
76.86000 4.084
76.88000 6.019
76.90000 4.244
76.92000 1.666
76.94000 2.783
76.96000 2.271
76.98000 2.020
77.00000 1.009
77.02000 -0.341
77.04000 0.346
77.06000 2.700
77.08000 9.923
77.10000 5.793
77.12000 3.437
77.14000 1.912
77.16000 5.255
77.18000 5.121
77.20000 4.743
77.22000 4.619
77.24000 7.211
77.26000 0.713
77.28000 -0.805
77.30000 -2.124
77.32000 2.922
77.34000 4.015
77.36000 -0.335
77.38000 -1.502
77.40000 -0.842
77.42000 5.552
77.44000 2.183
77.46000 -0.061
77.48000 0.419
77.50000 4.373
77.52000 2.822
77.54000 4.468
77.56000 0.291
77.58000 1.557
77.60000 0.520
77.62000 2.455
77.64000 7.121
77.66000 7.135
77.68000 3.412
77.70000 0.386
77.72000 0.644
77.74000 5.274
77.76000 3.717
77.78000 1.175
77.80000 5.940
77.82000 8.445
77.84000 0.445
77.86000 0.939
77.88000 7.875
77.90000 6.087
77.92000 7.699
77.94000 9.498
77.96000 0.620
77.98000 -2.541
78.00000 4.756
78.02000 2.861
78.04000 -1.623
78.06000 5.960
78.08000 4.252
78.10000 2.657
78.12000 5.231
78.14000 7.034
78.16000 4.323
78.18000 0.027
78.20000 3.686
78.22000 4.838
78.24000 5.813
78.26000 1.262
78.28000 -1.413
78.30000 2.691
78.32000 9.041
78.34000 10.029
78.36000 4.962
78.38000 3.455
78.40000 5.730
78.42000 5.578
78.44000 5.026
78.46000 -0.025
78.48000 1.823
78.50000 3.685
78.52000 7.985
78.54000 9.491
78.56000 7.335
78.58000 1.141
78.60000 -2.541
78.62000 4.681
78.64000 7.265
78.66000 4.393
78.68000 6.270
78.70000 8.833
78.72000 1.576
78.74000 4.858
78.76000 9.059
78.78000 5.364
78.80000 5.380
78.82000 5.606
78.84000 4.702
78.86000 -0.885
78.88000 -0.056
78.90000 -2.578
78.92000 6.233
78.94000 10.002
78.96000 8.569
78.98000 5.306
79.00000 3.456
79.02000 5.050
79.04000 3.225
79.06000 0.572
79.08000 2.254
79.10000 3.166
79.12000 -1.504
79.14000 4.197
79.16000 2.225
79.18000 2.778
79.20000 4.709
79.22000 6.132
79.24000 4.568
79.26000 4.341
79.28000 1.800
79.30000 0.507
79.32000 0.645
79.34000 4.595
79.36000 7.504
79.38000 9.533
79.40000 10.236
79.42000 4.611
79.44000 1.595
79.46000 -2.628
79.48000 2.940
79.50000 0.483
79.52000 5.775
79.54000 3.480
79.56000 6.523
79.58000 6.560
79.60000 6.450
79.62000 3.955
79.64000 0.290
79.66000 0.326
79.68000 -1.301
79.70000 5.031
79.72000 6.324
79.74000 3.630
79.76000 3.712
79.78000 2.112
79.80000 0.243
79.82000 3.085
79.84000 6.510
79.86000 4.297
79.88000 -0.270
79.90000 0.572
79.92000 11.282
79.94000 8.112
79.96000 3.948
79.98000 10.078
80.00000 9.682
80.02000 10.242
80.04000 5.811
80.06000 5.655
80.08000 4.885
80.10000 3.276
80.12000 5.435
80.14000 4.187
80.16000 7.837
80.18000 6.359
80.20000 6.499
80.22000 5.323
80.24000 1.220
80.26000 -2.683
80.28000 1.329
80.30000 6.996
80.32000 2.497
80.34000 7.252
80.36000 5.745
80.38000 5.489
80.40000 9.006
80.42000 12.012
80.44000 8.837
80.46000 3.835
80.48000 4.657
80.50000 4.051
80.52000 12.123
80.54000 10.261
80.56000 5.563
80.58000 6.616
80.60000 5.922
80.62000 6.296
80.64000 -0.372
80.66000 4.791
80.68000 8.130
80.70000 7.884
80.72000 7.635
80.74000 9.686
80.76000 6.217
80.78000 9.261
80.80000 12.155
80.82000 11.117
80.84000 9.348
80.86000 5.854
80.88000 10.081
80.90000 12.224
80.92000 13.349
80.94000 8.445
80.96000 11.386
80.98000 14.063
81.00000 13.687
81.02000 12.798
81.04000 9.586
81.06000 10.231
81.08000 14.470
81.10000 11.496
81.12000 11.320
81.14000 14.902
81.16000 18.717
81.18000 14.791
81.20000 19.873
81.22000 16.485
81.24000 11.736
81.26000 5.127
81.28000 11.067
81.30000 12.305
81.32000 15.556
81.34000 17.158
81.36000 15.081
81.38000 14.507
81.40000 19.626
81.42000 18.619
81.44000 20.744
81.46000 20.859
81.48000 17.530
81.50000 20.374
81.52000 21.028
81.54000 21.089
81.56000 16.181
81.58000 14.256
81.60000 16.999
81.62000 27.997
81.64000 26.416
81.66000 27.117
81.68000 22.780
81.70000 26.534
81.72000 29.358
81.74000 24.806
81.76000 21.907
81.78000 22.090
81.80000 25.836
81.82000 19.604
81.84000 29.258
81.86000 33.792
81.88000 26.762
81.90000 21.063
81.92000 21.422
81.94000 21.923
81.96000 23.213
81.98000 23.331
82.00000 24.779
82.02000 28.627
82.04000 28.261
82.06000 23.053
82.08000 23.300
82.10000 30.772
82.12000 23.272
82.14000 25.277
82.16000 32.410
82.18000 30.945
82.20000 25.029
82.22000 22.735
82.24000 28.770
82.26000 26.840
82.28000 24.579
82.30000 23.752
82.32000 23.340
82.34000 23.706
82.36000 27.065
82.38000 26.622
82.40000 27.833
82.42000 31.642
82.44000 28.077
82.46000 25.806
82.48000 21.002
82.50000 19.937
82.52000 24.846
82.54000 22.779
82.56000 22.077
82.58000 21.857
82.60000 22.541
82.62000 22.724
82.64000 18.235
82.66000 22.500
82.68000 24.556
82.70000 25.391
82.72000 20.055
82.74000 18.043
82.76000 20.537
82.78000 18.040
82.80000 13.363
82.82000 12.970
82.84000 11.744
82.86000 14.957
82.88000 14.822
82.90000 12.969
82.92000 9.717
82.94000 5.689
82.96000 10.120
82.98000 12.468
83.00000 15.451
83.02000 13.122
83.04000 11.123
83.06000 11.040
83.08000 6.486
83.10000 12.526
83.12000 11.946
83.14000 9.771
83.16000 14.042
83.18000 10.000
83.20000 12.911
83.22000 9.066
83.24000 10.608
83.26000 12.087
83.28000 13.192
83.30000 4.032
83.32000 7.403
83.34000 9.063
83.36000 12.244
83.38000 6.580
83.40000 4.657
83.42000 9.796
83.44000 7.543
83.46000 6.052
83.48000 5.071
83.50000 3.892
83.52000 6.262
83.54000 3.033
83.56000 2.011
83.58000 1.132
83.60000 5.175
83.62000 12.013
83.64000 12.037
83.66000 6.170
83.68000 9.403
83.70000 10.397
83.72000 9.520
83.74000 5.794
83.76000 4.857
83.78000 -2.692
83.80000 0.833
83.82000 4.812
83.84000 0.241
83.86000 6.310
83.88000 12.227
83.90000 3.183
83.92000 7.229
83.94000 7.651
83.96000 10.754
83.98000 6.251
84.00000 0.264
84.02000 -0.206
84.04000 4.213
84.06000 4.671
84.08000 6.147
84.10000 5.756
84.12000 3.406
84.14000 3.198
84.16000 -0.712
84.18000 -1.841
84.20000 2.312
84.22000 4.994
84.24000 -0.030
84.26000 2.449
84.28000 -1.194
84.30000 -2.696
84.32000 3.348
84.34000 8.457
84.36000 3.667
84.38000 4.661
84.40000 3.765
84.42000 1.152
84.44000 8.023
84.46000 5.915
84.48000 3.930
84.50000 -1.194
84.52000 -1.142
84.54000 1.436
84.56000 9.595
84.58000 10.581
84.60000 2.348
84.62000 3.785
84.64000 3.929
84.66000 2.029
84.68000 0.128
84.70000 2.507
84.72000 0.551
84.74000 0.413
84.76000 3.259
84.78000 5.315
84.80000 6.205
84.82000 3.861
84.84000 3.398
84.86000 3.743
84.88000 -0.296
84.90000 -0.110
84.92000 3.733
84.94000 3.700
84.96000 0.489
84.98000 1.016
85.00000 0.012
85.02000 1.217
85.04000 4.401
85.06000 9.210
85.08000 10.543
85.10000 10.161
85.12000 7.977
85.14000 6.121
85.16000 10.454
85.18000 11.741
85.20000 8.188
85.22000 8.350
85.24000 8.116
85.26000 7.643
85.28000 10.577
85.30000 9.575
85.32000 9.421
85.34000 13.819
85.36000 16.181
85.38000 11.513
85.40000 8.095
85.42000 11.747
85.44000 8.947
85.46000 10.061
85.48000 11.936
85.50000 11.768
85.52000 5.734
85.54000 6.693
85.56000 14.966
85.58000 21.991
85.60000 20.599
85.62000 20.155
85.64000 16.759
85.66000 17.033
85.68000 16.985
85.70000 16.187
85.72000 24.790
85.74000 22.263
85.76000 21.986
85.78000 22.124
85.80000 28.020
85.82000 27.552
85.84000 27.826
85.86000 28.313
85.88000 35.020
85.90000 30.711
85.92000 28.530
85.94000 27.647
85.96000 27.447
85.98000 34.759
86.00000 31.511
86.02000 24.369
86.04000 32.056
86.06000 33.259
86.08000 32.963
86.10000 36.441
86.12000 32.108
86.14000 35.808
86.16000 37.735
86.18000 40.507
86.20000 41.277
86.22000 44.567
86.24000 37.092
86.26000 34.771
86.28000 34.847
86.30000 36.565
86.32000 40.235
86.34000 39.848
86.36000 41.037
86.38000 37.879
86.40000 36.909
86.42000 36.370
86.44000 35.817
86.46000 34.049
86.48000 37.113
86.50000 36.200
86.52000 37.316
86.54000 34.028
86.56000 41.309
86.58000 35.907
86.60000 34.498
86.62000 33.796
86.64000 31.680
86.66000 29.377
86.68000 30.890
86.70000 31.339
86.72000 33.231
86.74000 33.510
86.76000 31.226
86.78000 31.745
86.80000 28.258
86.82000 32.527
86.84000 29.755
86.86000 26.369
86.88000 26.820
86.90000 23.894
86.92000 27.890
86.94000 25.272
86.96000 19.753
86.98000 18.550
87.00000 17.319
87.02000 19.085
87.04000 21.590
87.06000 28.455
87.08000 18.608
87.10000 11.669
87.12000 15.741
87.14000 16.856
87.16000 18.214
87.18000 11.730
87.20000 8.371
87.22000 10.538
87.24000 14.582
87.26000 12.665
87.28000 11.295
87.30000 7.725
87.32000 10.252
87.34000 9.738
87.36000 8.412
87.38000 7.051
87.40000 8.469
87.42000 7.948
87.44000 8.874
87.46000 4.837
87.48000 4.805
87.50000 7.490
87.52000 7.760
87.54000 12.143
87.56000 8.580
87.58000 7.485
87.60000 8.324
87.62000 10.391
87.64000 10.186
87.66000 5.136
87.68000 2.135
87.70000 1.589
87.72000 8.201
87.74000 5.986
87.76000 2.874
87.78000 6.648
87.80000 3.446
87.82000 4.214
87.84000 8.242
87.86000 -0.658
87.88000 2.306
87.90000 6.808
87.92000 3.282
87.94000 1.155
87.96000 6.048
87.98000 4.370
88.00000 1.542
88.02000 -2.219
88.04000 -1.580
88.06000 2.359
88.08000 2.405
88.10000 -0.172
88.12000 -0.343
88.14000 1.283
88.16000 -0.002
88.18000 1.623
88.20000 -1.852
88.22000 1.872
88.24000 -0.009
88.26000 -2.184
88.28000 -2.479
88.30000 1.516
88.32000 3.072
88.34000 2.985
88.36000 5.699
88.38000 3.613
88.40000 -1.027
88.42000 7.035
88.44000 9.381
88.46000 3.269
88.48000 5.064
88.50000 2.945
88.52000 -2.457
88.54000 -0.028
88.56000 2.265
88.58000 0.693
88.60000 4.448
88.62000 6.911
88.64000 2.880
88.66000 1.584
88.68000 4.482
88.70000 2.496
88.72000 0.300
88.74000 1.010
88.76000 0.962
88.78000 1.428
88.80000 4.294
88.82000 2.699
88.84000 4.752
88.86000 -2.260
88.88000 -1.457
88.90000 -2.423
88.92000 0.990
88.94000 0.926
88.96000 2.398
88.98000 1.898
89.00000 1.499
89.02000 3.738
89.04000 2.567
89.06000 4.536
89.08000 5.466
89.10000 5.611
89.12000 2.001
89.14000 3.063
89.16000 3.460
89.18000 4.399
89.20000 7.655
89.22000 7.702
89.24000 3.749
89.26000 3.996
89.28000 4.511
89.30000 4.315
89.32000 7.463
89.34000 5.997
89.36000 0.560
89.38000 1.506
89.40000 2.853
89.42000 -0.086
89.44000 -0.274
89.46000 5.272
89.48000 7.677
89.50000 1.202
89.52000 -0.740
89.54000 -1.011
89.56000 -0.371
89.58000 3.666
89.60000 -0.969
89.62000 0.883
89.64000 4.113
89.66000 6.411
89.68000 4.890
89.70000 -2.329
89.72000 -0.479
89.74000 4.057
89.76000 9.828
89.78000 13.174
89.80000 8.536
89.82000 8.837
89.84000 2.812
89.86000 5.212
89.88000 2.632
89.90000 1.840
89.92000 4.646
89.94000 4.810
89.96000 5.284
89.98000 4.121
90.00000 3.023
90.02000 4.783
90.04000 7.423
90.06000 6.468
90.08000 4.627
90.10000 4.924
90.12000 7.836
90.14000 5.617
90.16000 2.842
90.18000 6.306
90.20000 10.529
90.22000 3.103
90.24000 1.451
90.26000 4.790
90.28000 1.313
90.30000 0.102
90.32000 -0.404
90.34000 3.045
90.36000 5.061
90.38000 6.077
90.40000 8.681
90.42000 7.205
90.44000 1.113
90.46000 0.990
90.48000 -0.055
90.50000 -0.869
90.52000 2.146
90.54000 5.341
90.56000 8.973
90.58000 10.962
90.60000 6.265
90.62000 1.266
90.64000 1.159
90.66000 5.855
90.68000 6.211
90.70000 3.391
90.72000 3.250
90.74000 -0.062
90.76000 4.007
90.78000 9.687
90.80000 11.489
90.82000 6.348
90.84000 3.590
90.86000 3.898
90.88000 3.742
90.90000 0.617
90.92000 9.297
90.94000 8.052
90.96000 3.093
90.98000 1.865
91.00000 0.413
91.02000 3.647
91.04000 2.574
91.06000 3.160
91.08000 5.819
91.10000 3.667
91.12000 2.811
91.14000 0.736
91.16000 -2.358
91.18000 2.718
91.20000 2.658
91.22000 5.213
91.24000 1.151
91.26000 5.173
91.28000 8.282
91.30000 5.851
91.32000 2.294
91.34000 4.618
91.36000 10.162
91.38000 11.183
91.40000 8.786
91.42000 -0.650
91.44000 -1.829
91.46000 2.879
91.48000 5.554
91.50000 4.861
91.52000 5.871
91.54000 1.563
91.56000 7.451
91.58000 7.645
91.60000 5.029
91.62000 2.673
91.64000 -0.879
91.66000 8.949
91.68000 9.824
91.70000 8.602
91.72000 10.273
91.74000 6.352
91.76000 1.200
91.78000 1.634
91.80000 6.054
91.82000 2.406
91.84000 3.800
91.86000 7.941
91.88000 3.836
91.90000 1.142
91.92000 3.093
91.94000 1.099
91.96000 4.925
91.98000 8.399
92.00000 5.277
92.02000 5.788
92.04000 7.829
92.06000 4.080
92.08000 0.947
92.10000 -2.362
92.12000 4.347
92.14000 7.377
92.16000 5.855
92.18000 4.094
92.20000 2.278
92.22000 3.055
92.24000 4.058
92.26000 3.637
92.28000 2.061
92.30000 7.962
92.32000 10.673
92.34000 10.188
92.36000 11.183
92.38000 8.806
92.40000 13.145
92.42000 9.931
92.44000 5.384
92.46000 4.784
92.48000 5.971
92.50000 4.347
92.52000 1.893
92.54000 5.175
92.56000 9.483
92.58000 5.264
92.60000 1.560
92.62000 4.864
92.64000 2.753
92.66000 6.218
92.68000 6.524
92.70000 -2.331
92.72000 -2.197
92.74000 1.667
92.76000 7.909
92.78000 5.579
92.80000 0.168
92.82000 1.195
92.84000 5.994
92.86000 5.397
92.88000 7.033
92.90000 8.001
92.92000 3.653
92.94000 -0.123
92.96000 5.149
92.98000 9.785
93.00000 10.449
93.02000 11.752
93.04000 7.218
93.06000 9.103
93.08000 11.481
93.10000 8.982
93.12000 9.847
93.14000 9.973
93.16000 5.432
93.18000 9.564
93.20000 8.972
93.22000 6.509
93.24000 6.157
93.26000 4.109
93.28000 3.389
93.30000 5.533
93.32000 2.900
93.34000 6.988
93.36000 4.409
93.38000 4.384
93.40000 6.433
93.42000 9.481
93.44000 7.971
93.46000 10.746
93.48000 8.921
93.50000 2.510
93.52000 -2.281
93.54000 1.663
93.56000 6.428
93.58000 12.436
93.60000 14.970
93.62000 11.347
93.64000 10.757
93.66000 8.641
93.68000 12.485
93.70000 5.924
93.72000 7.433
93.74000 12.206
93.76000 10.158
93.78000 12.869
93.80000 6.383
93.82000 5.397
93.84000 5.986
93.86000 5.712
93.88000 8.541
93.90000 7.559
93.92000 8.661
93.94000 4.375
93.96000 8.022
93.98000 13.294
94.00000 13.931
94.02000 16.092
94.04000 14.898
94.06000 9.282
94.08000 9.880
94.10000 7.330
94.12000 8.450
94.14000 10.282
94.16000 12.090
94.18000 10.718
94.20000 4.853
94.22000 9.521
94.24000 12.975
94.26000 8.247
94.28000 2.225
94.30000 8.923
94.32000 11.339
94.34000 8.011
94.36000 2.964
94.38000 2.366
94.40000 3.293
94.42000 10.729
94.44000 11.206
94.46000 7.121
94.48000 4.038
94.50000 7.038
94.52000 6.875
94.54000 10.529
94.56000 9.368
94.58000 3.260
94.60000 5.076
94.62000 5.382
94.64000 8.519
94.66000 8.544
94.68000 4.345
94.70000 6.863
94.72000 9.198
94.74000 12.038
94.76000 8.596
94.78000 0.413
94.80000 2.777
94.82000 6.531
94.84000 3.441
94.86000 2.052
94.88000 3.165
94.90000 3.888
94.92000 8.437
94.94000 6.969
94.96000 8.847
94.98000 9.476
95.00000 8.460
95.02000 4.854
95.04000 6.627
95.06000 8.819
95.08000 4.023
95.10000 0.529
95.12000 0.499
95.14000 0.572
95.16000 4.476
95.18000 6.229
95.20000 7.259
95.22000 10.747
95.24000 12.835
95.26000 9.354
95.28000 6.717
95.30000 7.047
95.32000 5.652
95.34000 7.871
95.36000 8.581
95.38000 1.641
95.40000 3.020
95.42000 8.110
95.44000 7.156
95.46000 -2.327
95.48000 2.259
95.50000 9.581
95.52000 8.597
95.54000 9.024
95.56000 7.594
95.58000 8.233
95.60000 6.986
95.62000 6.508
95.64000 3.368
95.66000 13.422
95.68000 15.568
95.70000 14.222
95.72000 10.532
95.74000 6.161
95.76000 11.262
95.78000 9.893
95.80000 6.474
95.82000 7.760
95.84000 12.766
95.86000 6.901
95.88000 5.354
95.90000 3.542
95.92000 -1.836
95.94000 4.904
95.96000 7.903
95.98000 4.702
96.00000 5.005
96.02000 7.995
96.04000 8.720
96.06000 0.653
96.08000 3.807
96.10000 3.031
96.12000 1.215
96.14000 0.621
96.16000 10.460
96.18000 5.628
96.20000 10.464
96.22000 4.778
96.24000 6.480
96.26000 6.561
96.28000 8.435
96.30000 5.838
96.32000 1.984
96.34000 1.625
96.36000 8.720
96.38000 11.802
96.40000 7.222
96.42000 1.625
96.44000 2.150
96.46000 5.615
96.48000 -0.917
96.50000 0.903
96.52000 7.402
96.54000 11.978
96.56000 10.083
96.58000 3.640
96.60000 3.249
96.62000 10.954
96.64000 7.263
96.66000 4.855
96.68000 6.193
96.70000 7.616
96.72000 9.413
96.74000 5.047
96.76000 5.604
96.78000 6.888
96.80000 5.895
96.82000 8.298
96.84000 13.828
96.86000 8.210
96.88000 8.015
96.90000 8.393
96.92000 6.083
96.94000 6.365
96.96000 4.667
96.98000 9.496
97.00000 11.247
97.02000 8.502
97.04000 15.374
97.06000 8.251
97.08000 6.120
97.10000 8.746
97.12000 1.520
97.14000 1.699
97.16000 4.782
97.18000 8.982
97.20000 4.834
97.22000 6.864
97.24000 1.912
97.26000 3.983
97.28000 7.559
97.30000 5.738
97.32000 3.496
97.34000 9.229
97.36000 20.163
97.38000 14.050
97.40000 8.669
97.42000 6.618
97.44000 4.662
97.46000 6.554
97.48000 11.141
97.50000 5.604
97.52000 2.123
97.54000 5.678
97.56000 4.327
97.58000 5.414
97.60000 8.216
97.62000 5.073
97.64000 3.977
97.66000 4.056
97.68000 9.224
97.70000 7.494
97.72000 5.820
97.74000 -0.530
97.76000 -2.310
97.78000 0.370
97.80000 4.474
97.82000 11.989
97.84000 11.807
97.86000 14.846
97.88000 17.566
97.90000 11.567
97.92000 8.724
97.94000 7.403
97.96000 5.401
97.98000 3.542
98.00000 3.806
98.02000 13.497
98.04000 7.792
98.06000 4.107
98.08000 -0.547
98.10000 5.010
98.12000 10.909
98.14000 7.323
98.16000 13.914
98.18000 6.309
98.20000 7.594
98.22000 6.895
98.24000 3.038
98.26000 3.031
98.28000 6.567
98.30000 7.535
98.32000 8.852
98.34000 8.457
98.36000 9.084
98.38000 9.623
98.40000 12.295
98.42000 10.261
98.44000 6.679
98.46000 4.178
98.48000 10.147
98.50000 15.275
98.52000 13.853
98.54000 6.703
98.56000 6.723
98.58000 2.723
98.60000 7.081
98.62000 7.318
98.64000 5.876
98.66000 14.446
98.68000 12.738
98.70000 7.235
98.72000 12.653
98.74000 20.929
98.76000 18.087
98.78000 11.753
98.80000 15.290
98.82000 17.611
98.84000 16.429
98.86000 19.396
98.88000 20.680
98.90000 3.727
98.92000 -2.227
98.94000 6.801
98.96000 9.963
98.98000 6.943
99.00000 5.539
99.02000 6.423
99.04000 7.920
99.06000 7.308
99.08000 5.449
99.10000 11.893
99.12000 8.877
99.14000 5.250
99.16000 6.096
99.18000 6.173
99.20000 3.981
99.22000 9.732
99.24000 13.577
99.26000 6.307
99.28000 12.409
99.30000 20.437
99.32000 16.416
99.34000 12.860
99.36000 10.020
99.38000 14.909
99.40000 7.847
99.42000 7.646
99.44000 9.180
99.46000 4.155
99.48000 4.175
99.50000 7.243
99.52000 13.316
99.54000 6.823
99.56000 -0.127
99.58000 4.249
99.60000 12.603
99.62000 18.996
99.64000 16.306
99.66000 12.009
99.68000 6.310
99.70000 2.438
99.72000 8.746
99.74000 6.448
99.76000 10.694
99.78000 20.377
99.80000 13.125
99.82000 10.634
99.84000 19.160
99.86000 22.301
99.88000 14.315
99.90000 4.494
99.92000 14.841
99.94000 14.292
99.96000 15.530
99.98000 0.000
