'Id: "0011387" Comment: "Integrate frame 0011387_Au-Ir-Rh_Rh-rich_XRD-Mapping-070-0000.gfrmwith cursor Wedge Cursor #5" Operator: "B?rgel" Anode: "Cu" Wavelength: "1.5406" Scantype: "2Theta (TwoTheta)" TimePerStep: "1" X: "22.5" Y: "-22.5" Z: "5.95" 
10.00000 0.000
10.02000 -3.714
10.04000 5.442
10.06000 2.117
10.08000 -3.040
10.10000 -1.218
10.12000 15.531
10.14000 24.978
10.16000 17.186
10.18000 17.332
10.20000 -3.652
10.22000 -2.454
10.24000 9.225
10.26000 13.411
10.28000 20.853
10.30000 19.837
10.32000 12.821
10.34000 11.051
10.36000 20.805
10.38000 17.886
10.40000 15.758
10.42000 17.331
10.44000 18.615
10.46000 25.570
10.48000 24.662
10.50000 14.956
10.52000 6.542
10.54000 12.774
10.56000 28.698
10.58000 34.955
10.60000 27.054
10.62000 30.713
10.64000 35.491
10.66000 25.407
10.68000 13.321
10.70000 10.583
10.72000 20.484
10.74000 25.247
10.76000 21.503
10.78000 22.491
10.80000 16.696
10.82000 21.420
10.84000 27.235
10.86000 10.768
10.88000 27.983
10.90000 37.194
10.92000 32.051
10.94000 31.803
10.96000 18.765
10.98000 24.085
11.00000 23.448
11.02000 20.557
11.04000 20.457
11.06000 18.786
11.08000 15.811
11.10000 20.191
11.12000 17.267
11.14000 24.449
11.16000 28.834
11.18000 25.999
11.20000 7.132
11.22000 14.399
11.24000 20.054
11.26000 18.123
11.28000 19.830
11.30000 38.706
11.32000 25.227
11.34000 19.470
11.36000 27.902
11.38000 28.126
11.40000 18.560
11.42000 27.416
11.44000 32.599
11.46000 23.717
11.48000 16.619
11.50000 20.288
11.52000 8.249
11.54000 17.492
11.56000 26.757
11.58000 30.256
11.60000 36.863
11.62000 27.296
11.64000 32.268
11.66000 35.474
11.68000 23.056
11.70000 22.199
11.72000 29.556
11.74000 31.412
11.76000 24.186
11.78000 19.106
11.80000 17.238
11.82000 22.359
11.84000 25.059
11.86000 27.107
11.88000 23.233
11.90000 24.560
11.92000 33.315
11.94000 19.423
11.96000 11.363
11.98000 28.837
12.00000 24.408
12.02000 27.985
12.04000 27.389
12.06000 31.031
12.08000 31.643
12.10000 29.962
12.12000 34.981
12.14000 23.933
12.16000 10.745
12.18000 14.238
12.20000 30.087
12.22000 17.873
12.24000 14.717
12.26000 17.853
12.28000 20.451
12.30000 8.884
12.32000 17.282
12.34000 30.172
12.36000 23.569
12.38000 31.406
12.40000 32.892
12.42000 32.050
12.44000 29.100
12.46000 16.711
12.48000 23.097
12.50000 22.597
12.52000 18.801
12.54000 16.727
12.56000 16.168
12.58000 19.815
12.60000 18.039
12.62000 17.829
12.64000 30.666
12.66000 29.914
12.68000 31.887
12.70000 25.589
12.72000 22.990
12.74000 25.601
12.76000 27.452
12.78000 33.091
12.80000 31.235
12.82000 27.751
12.84000 23.656
12.86000 36.683
12.88000 31.985
12.90000 20.687
12.92000 18.795
12.94000 14.065
12.96000 27.711
12.98000 27.274
13.00000 25.822
13.02000 28.949
13.04000 31.880
13.06000 18.596
13.08000 29.322
13.10000 17.953
13.12000 15.496
13.14000 21.170
13.16000 29.799
13.18000 18.507
13.20000 16.080
13.22000 12.760
13.24000 12.161
13.26000 18.332
13.28000 20.743
13.30000 30.797
13.32000 25.459
13.34000 28.722
13.36000 23.415
13.38000 26.647
13.40000 29.216
13.42000 20.702
13.44000 23.553
13.46000 11.586
13.48000 10.283
13.50000 28.226
13.52000 30.211
13.54000 20.326
13.56000 19.297
13.58000 15.136
13.60000 15.312
13.62000 19.733
13.64000 21.109
13.66000 18.178
13.68000 16.543
13.70000 14.928
13.72000 26.688
13.74000 20.673
13.76000 17.765
13.78000 12.120
13.80000 18.504
13.82000 17.503
13.84000 15.851
13.86000 15.980
13.88000 16.356
13.90000 17.278
13.92000 15.309
13.94000 18.429
13.96000 11.590
13.98000 11.244
14.00000 12.819
14.02000 9.149
14.04000 17.325
14.06000 24.306
14.08000 17.293
14.10000 23.420
14.12000 31.893
14.14000 26.840
14.16000 26.499
14.18000 26.925
14.20000 19.669
14.22000 18.099
14.24000 19.614
14.26000 17.054
14.28000 18.775
14.30000 6.441
14.32000 8.967
14.34000 13.052
14.36000 8.699
14.38000 15.917
14.40000 12.684
14.42000 10.956
14.44000 14.992
14.46000 10.874
14.48000 19.166
14.50000 18.707
14.52000 9.367
14.54000 9.027
14.56000 12.142
14.58000 11.183
14.60000 15.090
14.62000 17.539
14.64000 17.125
14.66000 12.033
14.68000 3.290
14.70000 8.440
14.72000 10.884
14.74000 18.527
14.76000 22.176
14.78000 16.442
14.80000 10.417
14.82000 13.656
14.84000 19.880
14.86000 8.625
14.88000 11.967
14.90000 19.567
14.92000 26.744
14.94000 18.861
14.96000 2.705
14.98000 10.911
15.00000 16.573
15.02000 3.824
15.04000 2.643
15.06000 12.602
15.08000 17.273
15.10000 13.803
15.12000 9.984
15.14000 14.051
15.16000 16.657
15.18000 20.744
15.20000 7.705
15.22000 8.258
15.24000 7.607
15.26000 17.106
15.28000 22.009
15.30000 13.766
15.32000 14.532
15.34000 13.651
15.36000 13.477
15.38000 11.458
15.40000 11.842
15.42000 9.830
15.44000 5.628
15.46000 12.294
15.48000 7.408
15.50000 5.553
15.52000 17.205
15.54000 8.633
15.56000 -2.290
15.58000 -2.121
15.60000 -4.406
15.62000 5.110
15.64000 13.341
15.66000 14.484
15.68000 6.790
15.70000 0.473
15.72000 6.130
15.74000 3.192
15.76000 1.722
15.78000 8.061
15.80000 12.427
15.82000 11.318
15.84000 9.349
15.86000 7.123
15.88000 4.191
15.90000 3.175
15.92000 2.640
15.94000 4.707
15.96000 7.955
15.98000 6.169
16.00000 -1.007
16.02000 -2.652
16.04000 7.250
16.06000 15.751
16.08000 4.695
16.10000 2.728
16.12000 7.294
16.14000 7.216
16.16000 7.906
16.18000 14.476
16.20000 6.302
16.22000 9.932
16.24000 5.415
16.26000 0.020
16.28000 7.428
16.30000 10.487
16.32000 5.156
16.34000 5.132
16.36000 2.376
16.38000 -3.004
16.40000 10.119
16.42000 4.276
16.44000 0.108
16.46000 -0.530
16.48000 6.804
16.50000 8.319
16.52000 12.885
16.54000 11.087
16.56000 10.744
16.58000 3.893
16.60000 5.050
16.62000 0.254
16.64000 8.700
16.66000 4.270
16.68000 7.038
16.70000 6.504
16.72000 5.139
16.74000 3.628
16.76000 2.409
16.78000 5.372
16.80000 0.008
16.82000 -1.008
16.84000 4.375
16.86000 0.520
16.88000 -0.604
16.90000 -2.932
16.92000 3.230
16.94000 3.798
16.96000 2.935
16.98000 2.091
17.00000 2.277
17.02000 4.208
17.04000 4.742
17.06000 -0.060
17.08000 4.895
17.10000 3.385
17.12000 0.656
17.14000 -4.370
17.16000 -3.402
17.18000 1.472
17.20000 4.514
17.22000 9.020
17.24000 -2.377
17.26000 1.720
17.28000 5.236
17.30000 10.139
17.32000 13.330
17.34000 5.744
17.36000 3.688
17.38000 1.740
17.40000 0.207
17.42000 5.424
17.44000 -1.224
17.46000 -2.043
17.48000 5.810
17.50000 -2.206
17.52000 -0.805
17.54000 5.541
17.56000 10.955
17.58000 10.360
17.60000 7.442
17.62000 1.007
17.64000 2.552
17.66000 5.988
17.68000 1.005
17.70000 -1.698
17.72000 2.088
17.74000 -1.450
17.76000 5.535
17.78000 8.819
17.80000 5.714
17.82000 0.923
17.84000 6.365
17.86000 1.979
17.88000 -0.126
17.90000 0.666
17.92000 5.949
17.94000 3.689
17.96000 6.494
17.98000 9.369
18.00000 4.845
18.02000 3.257
18.04000 2.086
18.06000 0.861
18.08000 2.922
18.10000 3.033
18.12000 1.417
18.14000 3.789
18.16000 10.295
18.18000 7.468
18.20000 4.166
18.22000 -3.348
18.24000 -4.324
18.26000 1.574
18.28000 4.999
18.30000 4.540
18.32000 6.300
18.34000 5.768
18.36000 3.710
18.38000 2.857
18.40000 -1.860
18.42000 4.195
18.44000 14.777
18.46000 7.837
18.48000 4.942
18.50000 10.372
18.52000 4.522
18.54000 -0.254
18.56000 6.270
18.58000 2.087
18.60000 1.206
18.62000 3.244
18.64000 4.563
18.66000 3.121
18.68000 0.929
18.70000 -0.805
18.72000 4.863
18.74000 1.268
18.76000 0.818
18.78000 2.662
18.80000 8.196
18.82000 7.537
18.84000 7.592
18.86000 6.271
18.88000 6.483
18.90000 5.247
18.92000 9.336
18.94000 11.290
18.96000 2.552
18.98000 -0.238
19.00000 -2.087
19.02000 -1.080
19.04000 0.196
19.06000 4.929
19.08000 5.284
19.10000 0.358
19.12000 8.703
19.14000 4.410
19.16000 6.596
19.18000 3.948
19.20000 2.854
19.22000 4.434
19.24000 2.954
19.26000 5.072
19.28000 -4.232
19.30000 -4.171
19.32000 -0.036
19.34000 4.654
19.36000 6.729
19.38000 10.119
19.40000 6.286
19.42000 -0.949
19.44000 4.080
19.46000 4.115
19.48000 -0.984
19.50000 -1.772
19.52000 -2.828
19.54000 8.589
19.56000 9.579
19.58000 2.906
19.60000 -1.091
19.62000 -1.623
19.64000 0.069
19.66000 2.533
19.68000 4.471
19.70000 -1.005
19.72000 2.736
19.74000 -1.464
19.76000 3.724
19.78000 3.016
19.80000 3.368
19.82000 4.417
19.84000 2.338
19.86000 4.322
19.88000 0.974
19.90000 5.930
19.92000 15.227
19.94000 10.551
19.96000 1.123
19.98000 3.031
20.00000 9.603
20.02000 5.702
20.04000 5.124
20.06000 7.643
20.08000 6.794
20.10000 13.110
20.12000 8.586
20.14000 6.645
20.16000 6.502
20.18000 4.618
20.20000 0.275
20.22000 -1.617
20.24000 6.512
20.26000 6.917
20.28000 3.894
20.30000 4.296
20.32000 12.482
20.34000 14.773
20.36000 7.146
20.38000 5.429
20.40000 11.823
20.42000 5.438
20.44000 5.630
20.46000 -4.157
20.48000 6.371
20.50000 6.068
20.52000 -0.293
20.54000 8.593
20.56000 6.603
20.58000 7.261
20.60000 9.885
20.62000 0.770
20.64000 1.171
20.66000 1.216
20.68000 6.971
20.70000 6.384
20.72000 -2.692
20.74000 3.055
20.76000 4.389
20.78000 5.075
20.80000 5.277
20.82000 6.462
20.84000 0.664
20.86000 1.086
20.88000 -1.421
20.90000 -4.136
20.92000 1.936
20.94000 6.567
20.96000 8.538
20.98000 6.107
21.00000 8.756
21.02000 9.043
21.04000 2.575
21.06000 6.298
21.08000 4.774
21.10000 4.714
21.12000 4.557
21.14000 3.643
21.16000 4.575
21.18000 2.561
21.20000 3.287
21.22000 0.910
21.24000 -2.960
21.26000 -1.531
21.28000 3.098
21.30000 0.002
21.32000 -0.595
21.34000 0.362
21.36000 3.452
21.38000 5.868
21.40000 7.087
21.42000 7.674
21.44000 4.024
21.46000 -0.733
21.48000 1.034
21.50000 4.590
21.52000 2.950
21.54000 1.368
21.56000 7.136
21.58000 6.681
21.60000 0.616
21.62000 4.751
21.64000 3.312
21.66000 5.861
21.68000 2.092
21.70000 1.700
21.72000 5.443
21.74000 4.424
21.76000 2.220
21.78000 3.093
21.80000 8.686
21.82000 9.702
21.84000 0.673
21.86000 -0.776
21.88000 6.091
21.90000 2.318
21.92000 4.292
21.94000 3.247
21.96000 -0.339
21.98000 2.636
22.00000 10.176
22.02000 6.485
22.04000 2.927
22.06000 5.322
22.08000 7.318
22.10000 0.643
22.12000 -4.077
22.14000 1.005
22.16000 4.382
22.18000 4.821
22.20000 5.579
22.22000 3.028
22.24000 -0.697
22.26000 -3.828
22.28000 -0.716
22.30000 2.978
22.32000 7.433
22.34000 6.451
22.36000 10.602
22.38000 15.111
22.40000 9.285
22.42000 5.802
22.44000 5.913
22.46000 7.506
22.48000 5.671
22.50000 6.985
22.52000 8.179
22.54000 7.202
22.56000 5.021
22.58000 7.560
22.60000 5.304
22.62000 5.473
22.64000 5.339
22.66000 6.501
22.68000 9.516
22.70000 4.643
22.72000 3.272
22.74000 0.930
22.76000 1.854
22.78000 6.200
22.80000 5.703
22.82000 10.978
22.84000 10.587
22.86000 6.190
22.88000 4.490
22.90000 3.495
22.92000 4.526
22.94000 8.325
22.96000 1.284
22.98000 0.646
23.00000 0.520
23.02000 -1.743
23.04000 3.807
23.06000 0.523
23.08000 3.497
23.10000 3.868
23.12000 3.615
23.14000 3.744
23.16000 -4.030
23.18000 -0.305
23.20000 1.437
23.22000 2.743
23.24000 3.694
23.26000 1.321
23.28000 5.108
23.30000 0.878
23.32000 1.990
23.34000 3.606
23.36000 4.483
23.38000 -0.324
23.40000 -2.633
23.42000 -3.706
23.44000 0.327
23.46000 12.141
23.48000 9.467
23.50000 -0.474
23.52000 -2.404
23.54000 -2.036
23.56000 6.691
23.58000 6.622
23.60000 5.901
23.62000 1.029
23.64000 -1.783
23.66000 -1.274
23.68000 3.531
23.70000 1.394
23.72000 0.447
23.74000 5.080
23.76000 6.983
23.78000 3.841
23.80000 5.798
23.82000 4.380
23.84000 9.708
23.86000 7.359
23.88000 -0.112
23.90000 2.070
23.92000 0.717
23.94000 1.995
23.96000 3.830
23.98000 7.025
24.00000 0.718
24.02000 3.983
24.04000 5.046
24.06000 1.647
24.08000 3.752
24.10000 3.224
24.12000 0.831
24.14000 0.584
24.16000 1.508
24.18000 2.230
24.20000 -0.566
24.22000 1.005
24.24000 3.199
24.26000 -0.220
24.28000 0.839
24.30000 6.086
24.32000 3.963
24.34000 0.317
24.36000 7.261
24.38000 2.303
24.40000 -1.935
24.42000 6.037
24.44000 4.598
24.46000 5.816
24.48000 -1.784
24.50000 1.345
24.52000 1.367
24.54000 8.083
24.56000 3.836
24.58000 -3.949
24.60000 0.241
24.62000 4.494
24.64000 3.877
24.66000 4.335
24.68000 -1.508
24.70000 -1.781
24.72000 5.464
24.74000 5.973
24.76000 0.037
24.78000 0.104
24.80000 1.896
24.82000 0.017
24.84000 1.671
24.86000 2.366
24.88000 2.048
24.90000 2.654
24.92000 4.170
24.94000 1.328
24.96000 1.449
24.98000 4.587
25.00000 6.851
25.02000 3.942
25.04000 0.563
25.06000 3.126
25.08000 6.783
25.10000 5.512
25.12000 6.525
25.14000 3.524
25.16000 3.171
25.18000 -3.475
25.20000 -3.255
25.22000 1.470
25.24000 1.120
25.26000 1.452
25.28000 1.787
25.30000 4.761
25.32000 5.244
25.34000 6.421
25.36000 2.449
25.38000 0.504
25.40000 0.378
25.42000 0.996
25.44000 -0.328
25.46000 4.784
25.48000 3.038
25.50000 -0.504
25.52000 2.367
25.54000 -0.130
25.56000 -1.764
25.58000 -0.527
25.60000 4.677
25.62000 -1.102
25.64000 -2.270
25.66000 -3.571
25.68000 -0.813
25.70000 -3.897
25.72000 -3.414
25.74000 3.632
25.76000 6.111
25.78000 3.909
25.80000 4.234
25.82000 5.297
25.84000 0.213
25.86000 -0.393
25.88000 2.279
25.90000 3.754
25.92000 0.063
25.94000 2.477
25.96000 3.425
25.98000 7.086
26.00000 2.698
26.02000 -0.353
26.04000 -0.821
26.06000 -2.105
26.08000 -2.929
26.10000 -3.865
26.12000 -0.542
26.14000 3.429
26.16000 5.942
26.18000 0.536
26.20000 0.437
26.22000 9.247
26.24000 1.723
26.26000 2.264
26.28000 3.213
26.30000 4.249
26.32000 3.009
26.34000 0.564
26.36000 -1.361
26.38000 -1.682
26.40000 1.405
26.42000 5.359
26.44000 1.558
26.46000 2.719
26.48000 4.590
26.50000 5.091
26.52000 5.987
26.54000 10.832
26.56000 8.773
26.58000 8.022
26.60000 4.729
26.62000 5.004
26.64000 9.131
26.66000 12.715
26.68000 12.753
26.70000 9.451
26.72000 6.760
26.74000 3.641
26.76000 5.515
26.78000 5.967
26.80000 8.503
26.82000 8.806
26.84000 4.885
26.86000 10.048
26.88000 4.180
26.90000 6.289
26.92000 2.658
26.94000 0.341
26.96000 6.102
26.98000 9.650
27.00000 9.669
27.02000 10.659
27.04000 6.166
27.06000 0.628
27.08000 -3.768
27.10000 1.020
27.12000 6.973
27.14000 7.726
27.16000 10.228
27.18000 6.283
27.20000 6.861
27.22000 13.256
27.24000 12.691
27.26000 12.030
27.28000 7.078
27.30000 5.632
27.32000 5.119
27.34000 9.084
27.36000 5.851
27.38000 3.339
27.40000 7.592
27.42000 9.357
27.44000 7.482
27.46000 9.587
27.48000 6.989
27.50000 6.712
27.52000 6.419
27.54000 8.596
27.56000 4.650
27.58000 0.309
27.60000 4.714
27.62000 3.560
27.64000 -3.166
27.66000 -0.226
27.68000 1.255
27.70000 4.343
27.72000 6.045
27.74000 2.518
27.76000 -0.010
27.78000 2.633
27.80000 6.841
27.82000 11.099
27.84000 9.955
27.86000 6.164
27.88000 2.030
27.90000 0.140
27.92000 2.476
27.94000 4.863
27.96000 1.666
27.98000 -1.309
28.00000 -0.713
28.02000 -0.430
28.04000 4.593
28.06000 6.805
28.08000 5.360
28.10000 6.032
28.12000 4.797
28.14000 5.466
28.16000 3.169
28.18000 -0.994
28.20000 -0.394
28.22000 0.852
28.24000 4.648
28.26000 5.530
28.28000 2.621
28.30000 1.097
28.32000 6.620
28.34000 1.607
28.36000 -1.410
28.38000 1.584
28.40000 2.953
28.42000 5.715
28.44000 4.858
28.46000 -2.642
28.48000 -1.950
28.50000 0.720
28.52000 6.875
28.54000 0.257
28.56000 -2.618
28.58000 -0.127
28.60000 -0.328
28.62000 -0.906
28.64000 5.012
28.66000 4.267
28.68000 0.709
28.70000 -1.064
28.72000 2.036
28.74000 1.388
28.76000 -1.278
28.78000 1.500
28.80000 5.738
28.82000 8.144
28.84000 -0.835
28.86000 -0.268
28.88000 3.785
28.90000 0.931
28.92000 5.195
28.94000 4.369
28.96000 6.206
28.98000 7.081
29.00000 4.997
29.02000 6.149
29.04000 5.617
29.06000 4.388
29.08000 0.341
29.10000 4.297
29.12000 2.616
29.14000 2.205
29.16000 7.950
29.18000 4.398
29.20000 0.754
29.22000 1.966
29.24000 -1.641
29.26000 -3.687
29.28000 -1.032
29.30000 0.556
29.32000 1.870
29.34000 2.103
29.36000 1.246
29.38000 4.475
29.40000 1.038
29.42000 2.617
29.44000 -0.284
29.46000 -0.707
29.48000 -3.675
29.50000 -0.382
29.52000 1.616
29.54000 1.882
29.56000 6.129
29.58000 5.266
29.60000 5.305
29.62000 2.426
29.64000 4.643
29.66000 2.850
29.68000 4.598
29.70000 7.165
29.72000 4.090
29.74000 3.191
29.76000 9.520
29.78000 7.748
29.80000 4.532
29.82000 2.135
29.84000 -0.103
29.86000 1.326
29.88000 6.156
29.90000 2.768
29.92000 4.263
29.94000 11.651
29.96000 3.881
29.98000 1.918
30.00000 0.548
30.02000 -2.629
30.04000 -2.173
30.06000 2.957
30.08000 7.487
30.10000 8.137
30.12000 3.263
30.14000 6.661
30.16000 3.984
30.18000 4.135
30.20000 7.238
30.22000 9.213
30.24000 8.567
30.26000 6.559
30.28000 1.775
30.30000 2.738
30.32000 2.853
30.34000 4.303
30.36000 1.499
30.38000 4.335
30.40000 9.246
30.42000 6.574
30.44000 5.196
30.46000 4.265
30.48000 -2.103
30.50000 3.080
30.52000 4.087
30.54000 0.972
30.56000 1.538
30.58000 4.512
30.60000 8.418
30.62000 7.092
30.64000 6.520
30.66000 8.790
30.68000 -0.420
30.70000 0.340
30.72000 2.867
30.74000 4.465
30.76000 1.295
30.78000 0.316
30.80000 6.464
30.82000 9.039
30.84000 4.739
30.86000 0.185
30.88000 2.290
30.90000 8.456
30.92000 6.504
30.94000 6.013
30.96000 4.904
30.98000 3.502
31.00000 1.394
31.02000 -0.053
31.04000 1.225
31.06000 0.167
31.08000 0.866
31.10000 1.647
31.12000 8.843
31.14000 6.074
31.16000 -3.584
31.18000 -1.436
31.20000 -0.827
31.22000 2.929
31.24000 4.285
31.26000 6.891
31.28000 5.362
31.30000 0.791
31.32000 2.906
31.34000 1.055
31.36000 0.788
31.38000 2.021
31.40000 4.074
31.42000 1.559
31.44000 2.802
31.46000 -1.017
31.48000 4.538
31.50000 4.768
31.52000 4.669
31.54000 5.727
31.56000 7.905
31.58000 5.509
31.60000 1.115
31.62000 5.173
31.64000 0.851
31.66000 0.203
31.68000 -0.782
31.70000 3.515
31.72000 8.120
31.74000 5.243
31.76000 8.036
31.78000 4.982
31.80000 -1.433
31.82000 -1.212
31.84000 6.921
31.86000 4.823
31.88000 3.664
31.90000 2.287
31.92000 2.196
31.94000 6.291
31.96000 6.233
31.98000 3.958
32.00000 3.053
32.02000 0.460
32.04000 -0.816
32.06000 2.896
32.08000 1.794
32.10000 -3.554
32.12000 1.525
32.14000 6.914
32.16000 5.713
32.18000 4.561
32.20000 6.687
32.22000 5.891
32.24000 2.582
32.26000 6.646
32.28000 5.581
32.30000 5.453
32.32000 6.217
32.34000 4.186
32.36000 1.671
32.38000 3.610
32.40000 1.546
32.42000 3.702
32.44000 2.751
32.46000 3.357
32.48000 4.473
32.50000 0.699
32.52000 -0.503
32.54000 0.804
32.56000 1.007
32.58000 2.896
32.60000 1.259
32.62000 5.609
32.64000 4.232
32.66000 0.903
32.68000 -3.236
32.70000 0.209
32.72000 -2.094
32.74000 -0.293
32.76000 -1.379
32.78000 2.147
32.80000 7.106
32.82000 4.716
32.84000 2.632
32.86000 2.460
32.88000 3.996
32.90000 4.911
32.92000 1.593
32.94000 4.734
32.96000 1.264
32.98000 1.314
33.00000 4.474
33.02000 2.671
33.04000 6.056
33.06000 5.049
33.08000 -3.419
33.10000 0.552
33.12000 4.652
33.14000 4.201
33.16000 3.542
33.18000 1.334
33.20000 2.134
33.22000 2.754
33.24000 1.211
33.26000 4.204
33.28000 1.133
33.30000 7.225
33.32000 3.956
33.34000 4.044
33.36000 8.387
33.38000 4.545
33.40000 -1.105
33.42000 -3.534
33.44000 -2.733
33.46000 1.110
33.48000 2.803
33.50000 4.014
33.52000 3.158
33.54000 1.331
33.56000 2.218
33.58000 6.415
33.60000 4.249
33.62000 3.685
33.64000 2.086
33.66000 2.081
33.68000 2.885
33.70000 4.815
33.72000 1.809
33.74000 -1.802
33.76000 -2.114
33.78000 7.450
33.80000 9.555
33.82000 2.315
33.84000 -0.813
33.86000 -3.511
33.88000 0.555
33.90000 9.583
33.92000 6.177
33.94000 4.910
33.96000 7.756
33.98000 10.240
34.00000 8.636
34.02000 2.605
34.04000 2.651
34.06000 3.290
34.08000 4.406
34.10000 5.177
34.12000 4.379
34.14000 1.386
34.16000 4.204
34.18000 0.772
34.20000 1.708
34.22000 6.136
34.24000 5.845
34.26000 1.188
34.28000 2.333
34.30000 4.370
34.32000 2.315
34.34000 4.818
34.36000 5.880
34.38000 6.383
34.40000 5.833
34.42000 7.476
34.44000 3.108
34.46000 -0.073
34.48000 0.863
34.50000 -0.381
34.52000 3.045
34.54000 5.240
34.56000 2.420
34.58000 6.155
34.60000 9.576
34.62000 7.441
34.64000 4.741
34.66000 5.281
34.68000 5.072
34.70000 4.268
34.72000 1.287
34.74000 2.221
34.76000 -2.720
34.78000 0.781
34.80000 0.526
34.82000 0.858
34.84000 1.531
34.86000 -3.095
34.88000 -1.648
34.90000 -0.722
34.92000 1.568
34.94000 6.270
34.96000 4.654
34.98000 1.371
35.00000 -2.472
35.02000 0.001
35.04000 -0.075
35.06000 -3.037
35.08000 2.895
35.10000 -0.116
35.12000 -3.476
35.14000 -2.543
35.16000 1.032
35.18000 3.298
35.20000 -2.176
35.22000 -0.628
35.24000 2.498
35.26000 1.731
35.28000 2.636
35.30000 4.697
35.32000 8.025
35.34000 4.942
35.36000 1.496
35.38000 0.856
35.40000 3.706
35.42000 4.829
35.44000 1.887
35.46000 -3.129
35.48000 -3.131
35.50000 -0.446
35.52000 -0.222
35.54000 2.289
35.56000 -1.288
35.58000 -0.678
35.60000 -1.820
35.62000 1.489
35.64000 1.304
35.66000 5.598
35.68000 3.970
35.70000 1.829
35.72000 -2.665
35.74000 -3.472
35.76000 -2.986
35.78000 -0.549
35.80000 -0.726
35.82000 0.603
35.84000 1.628
35.86000 3.344
35.88000 1.062
35.90000 4.351
35.92000 4.820
35.94000 2.456
35.96000 4.507
35.98000 5.426
36.00000 5.754
36.02000 3.932
36.04000 0.094
36.06000 2.017
36.08000 -0.021
36.10000 0.019
36.12000 2.067
36.14000 5.949
36.16000 4.845
36.18000 1.893
36.20000 0.754
36.22000 2.625
36.24000 1.436
36.26000 0.851
36.28000 0.342
36.30000 0.691
36.32000 0.764
36.34000 2.234
36.36000 2.822
36.38000 2.201
36.40000 4.419
36.42000 5.666
36.44000 5.102
36.46000 6.049
36.48000 1.346
36.50000 4.023
36.52000 1.715
36.54000 -1.896
36.56000 1.691
36.58000 1.737
36.60000 4.403
36.62000 8.267
36.64000 3.941
36.66000 4.802
36.68000 7.214
36.70000 9.512
36.72000 6.114
36.74000 3.724
36.76000 3.191
36.78000 0.620
36.80000 0.164
36.82000 -0.926
36.84000 5.094
36.86000 6.976
36.88000 3.848
36.90000 6.019
36.92000 2.239
36.94000 0.071
36.96000 4.799
36.98000 6.536
37.00000 8.732
37.02000 4.942
37.04000 5.342
37.06000 3.941
37.08000 8.885
37.10000 6.159
37.12000 5.834
37.14000 4.503
37.16000 6.187
37.18000 6.264
37.20000 3.782
37.22000 0.562
37.24000 1.307
37.26000 -3.265
37.28000 -3.435
37.30000 1.037
37.32000 6.780
37.34000 4.341
37.36000 4.164
37.38000 3.088
37.40000 2.668
37.42000 4.511
37.44000 2.210
37.46000 3.260
37.48000 6.024
37.50000 5.088
37.52000 5.245
37.54000 10.364
37.56000 7.142
37.58000 3.665
37.60000 4.397
37.62000 4.775
37.64000 7.877
37.66000 5.074
37.68000 5.124
37.70000 3.261
37.72000 2.867
37.74000 5.779
37.76000 3.286
37.78000 3.256
37.80000 4.421
37.82000 4.159
37.84000 4.729
37.86000 0.917
37.88000 4.716
37.90000 8.715
37.92000 7.677
37.94000 6.210
37.96000 10.771
37.98000 9.928
38.00000 4.890
38.02000 6.388
38.04000 7.722
38.06000 8.683
38.08000 6.527
38.10000 6.666
38.12000 10.628
38.14000 9.814
38.16000 8.906
38.18000 10.272
38.20000 12.496
38.22000 13.656
38.24000 7.994
38.26000 10.209
38.28000 11.653
38.30000 6.753
38.32000 8.674
38.34000 12.785
38.36000 14.075
38.38000 16.738
38.40000 16.510
38.42000 11.001
38.44000 10.720
38.46000 15.230
38.48000 15.827
38.50000 16.957
38.52000 19.600
38.54000 21.048
38.56000 20.078
38.58000 19.945
38.60000 26.629
38.62000 25.329
38.64000 21.221
38.66000 24.381
38.68000 22.997
38.70000 20.766
38.72000 22.795
38.74000 18.557
38.76000 22.005
38.78000 19.742
38.80000 21.452
38.82000 23.565
38.84000 21.062
38.86000 23.948
38.88000 23.580
38.90000 23.621
38.92000 23.049
38.94000 24.508
38.96000 30.531
38.98000 31.213
39.00000 31.558
39.02000 35.091
39.04000 31.554
39.06000 32.718
39.08000 24.482
39.10000 28.425
39.12000 34.751
39.14000 35.167
39.16000 32.687
39.18000 39.454
39.20000 41.939
39.22000 44.802
39.24000 44.406
39.26000 45.197
39.28000 48.823
39.30000 51.454
39.32000 49.638
39.34000 50.103
39.36000 53.064
39.38000 47.062
39.40000 47.851
39.42000 55.913
39.44000 60.441
39.46000 61.943
39.48000 63.186
39.50000 65.599
39.52000 71.408
39.54000 73.234
39.56000 76.484
39.58000 80.996
39.60000 87.267
39.62000 91.427
39.64000 91.184
39.66000 96.644
39.68000 102.150
39.70000 112.065
39.72000 114.578
39.74000 115.354
39.76000 126.253
39.78000 135.459
39.80000 140.676
39.82000 148.584
39.84000 154.491
39.86000 164.001
39.88000 177.882
39.90000 187.981
39.92000 199.426
39.94000 212.743
39.96000 222.622
39.98000 237.551
40.00000 253.549
40.02000 269.264
40.04000 286.271
40.06000 301.809
40.08000 326.143
40.10000 353.801
40.12000 373.443
40.14000 384.469
40.16000 402.751
40.18000 432.359
40.20000 463.496
40.22000 495.444
40.24000 527.342
40.26000 555.471
40.28000 579.529
40.30000 610.183
40.32000 634.747
40.34000 662.879
40.36000 695.413
40.38000 722.121
40.40000 741.402
40.42000 760.473
40.44000 781.667
40.46000 800.705
40.48000 813.035
40.50000 812.774
40.52000 825.992
40.54000 837.033
40.56000 838.037
40.58000 819.474
40.60000 813.658
40.62000 810.361
40.64000 799.170
40.66000 786.580
40.68000 763.850
40.70000 734.170
40.72000 714.265
40.74000 698.886
40.76000 687.819
40.78000 667.344
40.80000 648.239
40.82000 617.082
40.84000 591.109
40.86000 567.720
40.88000 539.558
40.90000 505.888
40.92000 488.626
40.94000 464.283
40.96000 439.719
40.98000 427.502
41.00000 411.465
41.02000 383.889
41.04000 357.935
41.06000 341.456
41.08000 329.684
41.10000 313.721
41.12000 290.992
41.14000 277.759
41.16000 260.870
41.18000 250.402
41.20000 238.461
41.22000 224.591
41.24000 212.245
41.26000 195.365
41.28000 187.025
41.30000 178.211
41.32000 167.814
41.34000 159.978
41.36000 152.837
41.38000 144.693
41.40000 138.413
41.42000 131.527
41.44000 122.430
41.46000 117.493
41.48000 114.738
41.50000 106.955
41.52000 103.602
41.54000 97.943
41.56000 95.534
41.58000 92.390
41.60000 84.656
41.62000 77.685
41.64000 75.628
41.66000 77.124
41.68000 72.767
41.70000 63.936
41.72000 58.151
41.74000 57.983
41.76000 57.584
41.78000 53.569
41.80000 52.382
41.82000 46.538
41.84000 46.008
41.86000 44.951
41.88000 43.549
41.90000 40.248
41.92000 35.683
41.94000 38.574
41.96000 39.132
41.98000 35.449
42.00000 33.468
42.02000 29.953
42.04000 28.466
42.06000 26.487
42.08000 25.893
42.10000 28.726
42.12000 31.025
42.14000 25.433
42.16000 26.109
42.18000 24.398
42.20000 18.096
42.22000 20.356
42.24000 22.278
42.26000 18.563
42.28000 17.506
42.30000 16.719
42.32000 17.886
42.34000 14.546
42.36000 14.037
42.38000 16.765
42.40000 14.887
42.42000 12.385
42.44000 10.245
42.46000 9.382
42.48000 14.461
42.50000 13.223
42.52000 8.970
42.54000 6.306
42.56000 10.770
42.58000 12.822
42.60000 14.552
42.62000 8.037
42.64000 9.877
42.66000 8.660
42.68000 11.364
42.70000 10.260
42.72000 7.976
42.74000 8.700
42.76000 8.161
42.78000 5.763
42.80000 4.709
42.82000 4.772
42.84000 6.591
42.86000 3.454
42.88000 3.013
42.90000 5.146
42.92000 4.495
42.94000 2.568
42.96000 1.151
42.98000 1.371
43.00000 3.453
43.02000 3.533
43.04000 1.246
43.06000 3.189
43.08000 2.479
43.10000 -0.113
43.12000 -0.491
43.14000 2.531
43.16000 5.789
43.18000 2.484
43.20000 6.556
43.22000 7.066
43.24000 2.403
43.26000 -1.562
43.28000 -0.832
43.30000 0.502
43.32000 0.230
43.34000 1.632
43.36000 -0.253
43.38000 -1.177
43.40000 1.138
43.42000 2.255
43.44000 2.959
43.46000 2.307
43.48000 1.622
43.50000 2.235
43.52000 -0.424
43.54000 -3.369
43.56000 -2.324
43.58000 -2.863
43.60000 0.240
43.62000 3.547
43.64000 3.082
43.66000 2.563
43.68000 2.897
43.70000 -3.349
43.72000 -1.146
43.74000 0.433
43.76000 -1.918
43.78000 2.839
43.80000 1.328
43.82000 -1.784
43.84000 1.922
43.86000 2.045
43.88000 -2.604
43.90000 -1.457
43.92000 2.018
43.94000 1.801
43.96000 -1.222
43.98000 0.464
44.00000 -0.259
44.02000 -0.306
44.04000 3.925
44.06000 4.042
44.08000 4.461
44.10000 0.795
44.12000 0.466
44.14000 0.315
44.16000 3.212
44.18000 2.486
44.20000 0.418
44.22000 -0.005
44.24000 -0.751
44.26000 1.578
44.28000 0.955
44.30000 -0.255
44.32000 1.301
44.34000 0.385
44.36000 0.966
44.38000 0.885
44.40000 -3.264
44.42000 1.791
44.44000 4.006
44.46000 1.475
44.48000 -0.228
44.50000 -0.693
44.52000 0.502
44.54000 3.145
44.56000 1.474
44.58000 -1.981
44.60000 0.467
44.62000 -0.927
44.64000 0.533
44.66000 0.340
44.68000 1.840
44.70000 -3.253
44.72000 -3.062
44.74000 -0.428
44.76000 -1.519
44.78000 -3.157
44.80000 -1.851
44.82000 -0.095
44.84000 5.845
44.86000 -0.800
44.88000 -0.259
44.90000 -0.708
44.92000 -2.529
44.94000 -2.769
44.96000 -1.828
44.98000 -0.774
45.00000 -0.136
45.02000 2.350
45.04000 3.891
45.06000 3.752
45.08000 0.819
45.10000 -1.372
45.12000 2.891
45.14000 3.369
45.16000 -3.240
45.18000 0.755
45.20000 2.616
45.22000 2.116
45.24000 3.690
45.26000 -1.042
45.28000 -0.381
45.30000 4.894
45.32000 7.018
45.34000 3.403
45.36000 1.624
45.38000 0.307
45.40000 -0.994
45.42000 -2.424
45.44000 -3.239
45.46000 -2.161
45.48000 0.016
45.50000 4.023
45.52000 3.028
45.54000 3.383
45.56000 4.541
45.58000 4.374
45.60000 0.608
45.62000 7.282
45.64000 5.085
45.66000 8.051
45.68000 4.602
45.70000 2.734
45.72000 5.466
45.74000 5.501
45.76000 2.279
45.78000 6.070
45.80000 9.214
45.82000 10.194
45.84000 11.401
45.86000 12.531
45.88000 12.531
45.90000 11.635
45.92000 11.483
45.94000 11.086
45.96000 9.852
45.98000 11.595
46.00000 11.684
46.02000 13.829
46.04000 16.120
46.06000 15.852
46.08000 16.223
46.10000 19.956
46.12000 17.137
46.14000 19.180
46.16000 19.327
46.18000 25.421
46.20000 23.137
46.22000 17.339
46.24000 21.694
46.26000 20.730
46.28000 23.490
46.30000 26.245
46.32000 28.504
46.34000 31.938
46.36000 33.361
46.38000 33.012
46.40000 37.239
46.42000 43.533
46.44000 39.886
46.46000 41.280
46.48000 36.115
46.50000 41.104
46.52000 46.915
46.54000 47.187
46.56000 47.251
46.58000 46.003
46.60000 52.129
46.62000 53.755
46.64000 58.495
46.66000 59.443
46.68000 59.431
46.70000 64.331
46.72000 66.386
46.74000 71.839
46.76000 68.868
46.78000 74.311
46.80000 75.197
46.82000 70.352
46.84000 70.904
46.86000 81.665
46.88000 78.538
46.90000 87.560
46.92000 97.108
46.94000 95.174
46.96000 94.248
46.98000 96.051
47.00000 97.027
47.02000 101.759
47.04000 104.558
47.06000 99.158
47.08000 103.811
47.10000 105.705
47.12000 107.639
47.14000 105.796
47.16000 105.203
47.18000 104.097
47.20000 108.037
47.22000 108.598
47.24000 107.962
47.26000 109.130
47.28000 108.053
47.30000 104.362
47.32000 93.928
47.34000 94.519
47.36000 103.327
47.38000 98.117
47.40000 99.511
47.42000 96.465
47.44000 92.421
47.46000 92.556
47.48000 85.032
47.50000 80.098
47.52000 84.749
47.54000 78.151
47.56000 69.499
47.58000 66.054
47.60000 65.197
47.62000 63.673
47.64000 63.921
47.66000 61.441
47.68000 57.765
47.70000 53.932
47.72000 54.624
47.74000 54.075
47.76000 51.392
47.78000 45.721
47.80000 42.056
47.82000 42.894
47.84000 44.374
47.86000 41.039
47.88000 37.116
47.90000 37.625
47.92000 32.287
47.94000 27.284
47.96000 27.120
47.98000 23.465
48.00000 27.168
48.02000 23.143
48.04000 26.124
48.06000 25.742
48.08000 23.032
48.10000 21.338
48.12000 19.427
48.14000 15.741
48.16000 17.321
48.18000 14.313
48.20000 21.616
48.22000 20.711
48.24000 19.110
48.26000 13.025
48.28000 11.760
48.30000 9.921
48.32000 8.900
48.34000 8.804
48.36000 8.411
48.38000 9.128
48.40000 11.181
48.42000 13.021
48.44000 7.979
48.46000 8.234
48.48000 10.341
48.50000 6.805
48.52000 3.825
48.54000 5.077
48.56000 4.785
48.58000 3.661
48.60000 1.866
48.62000 6.503
48.64000 6.906
48.66000 4.944
48.68000 6.311
48.70000 5.184
48.72000 3.318
48.74000 6.076
48.76000 2.212
48.78000 5.599
48.80000 3.159
48.82000 -0.064
48.84000 1.745
48.86000 -2.820
48.88000 -0.711
48.90000 3.081
48.92000 6.216
48.94000 6.762
48.96000 3.551
48.98000 -0.783
49.00000 -1.328
49.02000 -0.813
49.04000 6.180
49.06000 6.020
49.08000 2.348
49.10000 3.717
49.12000 3.135
49.14000 4.681
49.16000 -1.119
49.18000 -2.762
49.20000 -2.063
49.22000 0.759
49.24000 0.908
49.26000 1.455
49.28000 1.585
49.30000 6.225
49.32000 6.788
49.34000 5.257
49.36000 0.354
49.38000 2.583
49.40000 1.182
49.42000 1.252
49.44000 -0.204
49.46000 1.214
49.48000 1.426
49.50000 3.447
49.52000 3.634
49.54000 5.670
49.56000 3.977
49.58000 1.736
49.60000 -1.477
49.62000 -2.709
49.64000 -1.031
49.66000 -0.380
49.68000 1.607
49.70000 2.795
49.72000 -0.082
49.74000 0.631
49.76000 2.844
49.78000 3.023
49.80000 2.335
49.82000 0.513
49.84000 2.369
49.86000 0.672
49.88000 0.815
49.90000 0.782
49.92000 0.699
49.94000 1.928
49.96000 -1.915
49.98000 0.387
50.00000 -1.343
50.02000 0.985
50.04000 1.268
50.06000 1.462
50.08000 1.247
50.10000 3.068
50.12000 2.735
50.14000 -0.599
50.16000 -1.386
50.18000 0.175
50.20000 4.540
50.22000 5.968
50.24000 3.301
50.26000 4.760
50.28000 2.506
50.30000 0.381
50.32000 1.296
50.34000 5.102
50.36000 -0.925
50.38000 -2.135
50.40000 -0.083
50.42000 2.250
50.44000 2.857
50.46000 4.800
50.48000 4.969
50.50000 2.542
50.52000 1.156
50.54000 -2.217
50.56000 1.254
50.58000 -0.623
50.60000 -2.610
50.62000 1.079
50.64000 1.849
50.66000 4.021
50.68000 6.085
50.70000 3.870
50.72000 2.645
50.74000 2.609
50.76000 3.795
50.78000 1.675
50.80000 0.638
50.82000 2.068
50.84000 1.051
50.86000 4.180
50.88000 6.007
50.90000 3.746
50.92000 3.670
50.94000 3.612
50.96000 0.707
50.98000 3.203
51.00000 1.358
51.02000 1.987
51.04000 5.112
51.06000 0.389
51.08000 -0.575
51.10000 2.226
51.12000 4.294
51.14000 2.912
51.16000 3.896
51.18000 2.915
51.20000 -0.121
51.22000 2.814
51.24000 1.621
51.26000 4.002
51.28000 3.817
51.30000 -0.139
51.32000 -2.556
51.34000 1.157
51.36000 1.859
51.38000 4.442
51.40000 -0.426
51.42000 0.230
51.44000 0.728
51.46000 -0.585
51.48000 -2.554
51.50000 2.537
51.52000 6.044
51.54000 2.835
51.56000 5.245
51.58000 2.161
51.60000 0.941
51.62000 0.832
51.64000 1.983
51.66000 5.857
51.68000 4.561
51.70000 1.569
51.72000 0.638
51.74000 2.887
51.76000 0.255
51.78000 -1.799
51.80000 0.429
51.82000 3.569
51.84000 2.074
51.86000 1.247
51.88000 0.129
51.90000 -2.559
51.92000 -1.737
51.94000 0.147
51.96000 3.681
51.98000 4.046
52.00000 3.196
52.02000 5.431
52.04000 3.697
52.06000 2.238
52.08000 7.184
52.10000 4.080
52.12000 3.814
52.14000 2.130
52.16000 2.678
52.18000 3.169
52.20000 5.196
52.22000 4.445
52.24000 5.120
52.26000 4.655
52.28000 2.407
52.30000 2.385
52.32000 2.094
52.34000 2.372
52.36000 -0.838
52.38000 2.208
52.40000 1.523
52.42000 -0.611
52.44000 -0.657
52.46000 2.706
52.48000 -0.559
52.50000 1.518
52.52000 3.665
52.54000 2.446
52.56000 2.119
52.58000 2.256
52.60000 4.225
52.62000 0.731
52.64000 0.884
52.66000 1.002
52.68000 0.964
52.70000 3.406
52.72000 3.539
52.74000 5.580
52.76000 6.148
52.78000 4.580
52.80000 6.777
52.82000 5.136
52.84000 3.679
52.86000 -1.116
52.88000 1.695
52.90000 3.437
52.92000 5.561
52.94000 3.719
52.96000 1.515
52.98000 1.992
53.00000 3.663
53.02000 3.784
53.04000 -0.539
53.06000 -2.508
53.08000 0.571
53.10000 2.515
53.12000 2.733
53.14000 0.980
53.16000 2.930
53.18000 1.348
53.20000 1.276
53.22000 0.971
53.24000 1.875
53.26000 5.536
53.28000 3.622
53.30000 0.474
53.32000 2.671
53.34000 3.284
53.36000 4.179
53.38000 1.681
53.40000 2.006
53.42000 -0.904
53.44000 1.867
53.46000 -1.671
53.48000 -2.045
53.50000 1.958
53.52000 2.613
53.54000 1.977
53.56000 4.349
53.58000 6.109
53.60000 4.861
53.62000 2.250
53.64000 1.955
53.66000 0.167
53.68000 -1.672
53.70000 -0.188
53.72000 1.749
53.74000 1.391
53.76000 -1.480
53.78000 0.396
53.80000 1.603
53.82000 -1.087
53.84000 2.135
53.86000 3.949
53.88000 2.858
53.90000 1.218
53.92000 1.610
53.94000 2.606
53.96000 1.657
53.98000 0.680
54.00000 -0.771
54.02000 -1.645
54.04000 -1.801
54.06000 -0.698
54.08000 -0.237
54.10000 2.728
54.12000 5.852
54.14000 1.829
54.16000 0.471
54.18000 0.718
54.20000 1.419
54.22000 1.287
54.24000 4.052
54.26000 3.134
54.28000 2.778
54.30000 3.151
54.32000 2.645
54.34000 0.795
54.36000 0.027
54.38000 0.731
54.40000 2.787
54.42000 0.611
54.44000 3.922
54.46000 0.150
54.48000 -1.272
54.50000 -1.177
54.52000 0.284
54.54000 1.758
54.56000 3.160
54.58000 3.914
54.60000 4.236
54.62000 5.062
54.64000 6.373
54.66000 7.086
54.68000 5.511
54.70000 0.529
54.72000 -1.238
54.74000 4.304
54.76000 4.765
54.78000 0.938
54.80000 -2.459
54.82000 0.031
54.84000 2.874
54.86000 4.442
54.88000 2.365
54.90000 1.941
54.92000 3.317
54.94000 0.336
54.96000 3.046
54.98000 3.021
55.00000 1.238
55.02000 4.272
55.04000 5.694
55.06000 2.693
55.08000 0.689
55.10000 -1.184
55.12000 1.357
55.14000 5.135
55.16000 4.058
55.18000 7.271
55.20000 0.252
55.22000 0.399
55.24000 -1.700
55.26000 1.861
55.28000 4.862
55.30000 7.600
55.32000 3.555
55.34000 4.076
55.36000 4.949
55.38000 2.549
55.40000 1.327
55.42000 1.257
55.44000 1.136
55.46000 3.234
55.48000 1.781
55.50000 0.656
55.52000 -1.353
55.54000 0.070
55.56000 -2.466
55.58000 -0.428
55.60000 3.396
55.62000 4.431
55.64000 4.030
55.66000 3.128
55.68000 2.495
55.70000 3.135
55.72000 -2.463
55.74000 0.694
55.76000 1.930
55.78000 -0.607
55.80000 -1.859
55.82000 1.743
55.84000 5.546
55.86000 1.563
55.88000 3.488
55.90000 6.050
55.92000 10.752
55.94000 4.199
55.96000 1.136
55.98000 0.577
56.00000 1.202
56.02000 -0.229
56.04000 -0.057
56.06000 2.429
56.08000 3.188
56.10000 1.442
56.12000 -0.779
56.14000 0.367
56.16000 0.644
56.18000 -0.634
56.20000 -0.908
56.22000 2.449
56.24000 5.186
56.26000 4.317
56.28000 3.224
56.30000 3.527
56.32000 3.573
56.34000 -0.646
56.36000 -2.438
56.38000 0.995
56.40000 0.870
56.42000 -0.522
56.44000 1.027
56.46000 1.749
56.48000 4.448
56.50000 7.742
56.52000 5.444
56.54000 2.029
56.56000 1.895
56.58000 1.676
56.60000 1.420
56.62000 1.482
56.64000 3.392
56.66000 3.248
56.68000 1.640
56.70000 2.145
56.72000 3.764
56.74000 2.358
56.76000 0.121
56.78000 0.608
56.80000 5.444
56.82000 5.417
56.84000 0.403
56.86000 -1.171
56.88000 0.244
56.90000 3.288
56.92000 4.837
56.94000 3.097
56.96000 -2.140
56.98000 -2.325
57.00000 0.547
57.02000 -1.551
57.04000 -2.241
57.06000 -2.322
57.08000 2.341
57.10000 2.469
57.12000 2.428
57.14000 4.159
57.16000 1.646
57.18000 1.097
57.20000 1.212
57.22000 -0.041
57.24000 3.535
57.26000 4.786
57.28000 4.721
57.30000 3.681
57.32000 2.389
57.34000 -1.189
57.36000 -2.388
57.38000 2.963
57.40000 1.919
57.42000 3.838
57.44000 5.787
57.46000 4.575
57.48000 7.633
57.50000 7.414
57.52000 5.198
57.54000 3.713
57.56000 2.636
57.58000 0.156
57.60000 1.470
57.62000 3.007
57.64000 0.388
57.66000 -2.378
57.68000 -1.632
57.70000 -0.660
57.72000 0.359
57.74000 1.141
57.76000 1.557
57.78000 2.767
57.80000 3.431
57.82000 2.044
57.84000 1.564
57.86000 5.836
57.88000 5.548
57.90000 0.355
57.92000 2.701
57.94000 -0.429
57.96000 0.385
57.98000 3.066
58.00000 3.322
58.02000 1.643
58.04000 2.402
58.06000 3.235
58.08000 1.349
58.10000 3.791
58.12000 5.327
58.14000 5.042
58.16000 1.791
58.18000 2.837
58.20000 2.262
58.22000 1.652
58.24000 0.613
58.26000 2.817
58.28000 2.099
58.30000 4.301
58.32000 -1.765
58.34000 1.388
58.36000 2.645
58.38000 0.619
58.40000 1.850
58.42000 0.021
58.44000 0.145
58.46000 1.736
58.48000 1.980
58.50000 3.861
58.52000 3.019
58.54000 2.213
58.56000 6.436
58.58000 1.827
58.60000 0.229
58.62000 0.647
58.64000 3.118
58.66000 5.298
58.68000 1.115
58.70000 -2.054
58.72000 0.760
58.74000 0.946
58.76000 4.615
58.78000 4.738
58.80000 5.625
58.82000 5.593
58.84000 2.277
58.86000 -0.345
58.88000 -2.296
58.90000 3.798
58.92000 2.743
58.94000 0.676
58.96000 0.596
58.98000 2.793
59.00000 2.431
59.02000 4.930
59.04000 5.516
59.06000 3.958
59.08000 -0.145
59.10000 -0.327
59.12000 3.564
59.14000 -0.990
59.16000 -2.335
59.18000 -1.522
59.20000 0.892
59.22000 1.872
59.24000 2.127
59.26000 3.200
59.28000 5.299
59.30000 4.565
59.32000 2.184
59.34000 2.186
59.36000 5.983
59.38000 8.072
59.40000 5.615
59.42000 3.313
59.44000 3.892
59.46000 3.157
59.48000 0.647
59.50000 3.005
59.52000 1.451
59.54000 3.730
59.56000 2.946
59.58000 0.884
59.60000 1.359
59.62000 2.246
59.64000 1.532
59.66000 1.190
59.68000 1.702
59.70000 -0.041
59.72000 2.654
59.74000 3.004
59.76000 1.110
59.78000 -0.098
59.80000 5.027
59.82000 5.272
59.84000 0.340
59.86000 1.342
59.88000 1.089
59.90000 2.646
59.92000 -0.655
59.94000 1.270
59.96000 5.056
59.98000 7.738
60.00000 5.233
60.02000 2.457
60.04000 0.187
60.06000 -1.778
60.08000 -2.298
60.10000 0.231
60.12000 1.877
60.14000 2.785
60.16000 0.375
60.18000 1.111
60.20000 2.244
60.22000 6.779
60.24000 4.415
60.26000 3.448
60.28000 3.389
60.30000 4.979
60.32000 9.909
60.34000 5.966
60.36000 1.180
60.38000 -0.539
60.40000 -1.845
60.42000 -0.560
60.44000 -0.252
60.46000 2.299
60.48000 2.175
60.50000 2.801
60.52000 1.864
60.54000 2.116
60.56000 1.510
60.58000 3.542
60.60000 4.244
60.62000 -0.237
60.64000 0.039
60.66000 1.848
60.68000 -0.618
60.70000 0.729
60.72000 4.939
60.74000 3.698
60.76000 2.356
60.78000 3.366
60.80000 4.364
60.82000 3.244
60.84000 2.645
60.86000 3.703
60.88000 2.869
60.90000 2.789
60.92000 0.389
60.94000 -0.028
60.96000 4.376
60.98000 4.799
61.00000 1.158
61.02000 0.339
61.04000 0.288
61.06000 2.906
61.08000 3.210
61.10000 -1.133
61.12000 0.544
61.14000 1.769
61.16000 0.384
61.18000 -1.134
61.20000 2.495
61.22000 3.210
61.24000 -2.276
61.26000 -2.010
61.28000 -1.878
61.30000 0.158
61.32000 2.247
61.34000 2.053
61.36000 1.622
61.38000 1.049
61.40000 1.966
61.42000 3.497
61.44000 3.240
61.46000 2.813
61.48000 2.596
61.50000 -0.066
61.52000 2.411
61.54000 1.380
61.56000 2.029
61.58000 3.810
61.60000 2.712
61.62000 -1.883
61.64000 -2.224
61.66000 0.035
61.68000 -0.845
61.70000 2.148
61.72000 2.783
61.74000 1.472
61.76000 -0.141
61.78000 -1.266
61.80000 0.810
61.82000 -2.173
61.84000 -0.727
61.86000 2.111
61.88000 0.388
61.90000 0.417
61.92000 3.168
61.94000 2.547
61.96000 -0.812
61.98000 0.014
62.00000 0.165
62.02000 -0.942
62.04000 0.471
62.06000 1.516
62.08000 3.799
62.10000 5.962
62.12000 2.197
62.14000 2.639
62.16000 1.248
62.18000 4.402
62.20000 4.642
62.22000 5.510
62.24000 2.683
62.26000 1.588
62.28000 0.022
62.30000 2.798
62.32000 4.170
62.34000 4.319
62.36000 2.083
62.38000 1.134
62.40000 0.160
62.42000 -0.541
62.44000 2.057
62.46000 2.267
62.48000 0.892
62.50000 -0.163
62.52000 -2.261
62.54000 -0.844
62.56000 0.383
62.58000 1.320
62.60000 2.864
62.62000 1.049
62.64000 2.858
62.66000 0.435
62.68000 -0.648
62.70000 2.144
62.72000 3.124
62.74000 1.295
62.76000 3.761
62.78000 3.680
62.80000 2.229
62.82000 6.108
62.84000 4.135
62.86000 5.895
62.88000 3.218
62.90000 2.731
62.92000 1.977
62.94000 -0.659
62.96000 -0.577
62.98000 -1.085
63.00000 0.636
63.02000 2.105
63.04000 3.304
63.06000 1.026
63.08000 -1.209
63.10000 -0.702
63.12000 1.247
63.14000 -0.015
63.16000 0.409
63.18000 -0.193
63.20000 -1.757
63.22000 -0.780
63.24000 1.871
63.26000 0.613
63.28000 -0.342
63.30000 -1.062
63.32000 -1.361
63.34000 -1.954
63.36000 -1.555
63.38000 2.111
63.40000 3.522
63.42000 1.722
63.44000 0.813
63.46000 1.405
63.48000 0.198
63.50000 -2.268
63.52000 -0.287
63.54000 -2.269
63.56000 -0.953
63.58000 0.684
63.60000 2.345
63.62000 1.951
63.64000 0.723
63.66000 0.931
63.68000 -0.341
63.70000 2.652
63.72000 3.186
63.74000 1.190
63.76000 2.677
63.78000 0.303
63.80000 1.943
63.82000 1.646
63.84000 0.569
63.86000 2.997
63.88000 1.898
63.90000 -0.444
63.92000 0.852
63.94000 4.088
63.96000 -2.283
63.98000 -1.711
64.00000 -0.840
64.02000 -1.666
64.04000 1.089
64.06000 1.423
64.08000 -0.867
64.10000 0.705
64.12000 2.970
64.14000 4.482
64.16000 0.470
64.18000 0.097
64.20000 2.688
64.22000 2.218
64.24000 2.999
64.26000 0.570
64.28000 0.068
64.30000 -1.485
64.32000 -0.188
64.34000 1.436
64.36000 2.533
64.38000 -0.676
64.40000 -1.419
64.42000 0.296
64.44000 -1.545
64.46000 -1.298
64.48000 -1.680
64.50000 -0.327
64.52000 -1.572
64.54000 0.573
64.56000 0.654
64.58000 1.172
64.60000 0.410
64.62000 1.122
64.64000 2.503
64.66000 0.135
64.68000 1.931
64.70000 3.376
64.72000 3.798
64.74000 3.048
64.76000 1.379
64.78000 1.252
64.80000 0.833
64.82000 -0.493
64.84000 -2.281
64.86000 0.456
64.88000 0.776
64.90000 0.073
64.92000 0.930
64.94000 -0.231
64.96000 0.117
64.98000 -1.107
65.00000 2.082
65.02000 1.865
65.04000 -1.136
65.06000 -0.970
65.08000 1.846
65.10000 4.214
65.12000 1.395
65.14000 0.456
65.16000 -0.598
65.18000 -1.072
65.20000 0.462
65.22000 2.229
65.24000 2.223
65.26000 0.265
65.28000 -0.101
65.30000 2.431
65.32000 1.207
65.34000 -2.261
65.36000 -1.558
65.38000 -1.325
65.40000 1.092
65.42000 2.032
65.44000 -1.708
65.46000 3.296
65.48000 1.470
65.50000 1.688
65.52000 1.881
65.54000 -0.077
65.56000 -0.405
65.58000 0.994
65.60000 1.832
65.62000 1.990
65.64000 0.277
65.66000 0.307
65.68000 3.421
65.70000 3.284
65.72000 4.947
65.74000 2.068
65.76000 1.271
65.78000 2.996
65.80000 4.786
65.82000 5.253
65.84000 1.368
65.86000 -1.379
65.88000 1.435
65.90000 2.895
65.92000 2.005
65.94000 -1.021
65.96000 -2.264
65.98000 -1.714
66.00000 0.922
66.02000 3.047
66.04000 1.644
66.06000 0.379
66.08000 0.673
66.10000 2.375
66.12000 0.395
66.14000 -0.510
66.16000 -0.256
66.18000 0.880
66.20000 0.435
66.22000 0.102
66.24000 0.679
66.26000 0.888
66.28000 0.271
66.30000 -1.264
66.32000 0.158
66.34000 0.579
66.36000 0.020
66.38000 -2.290
66.40000 0.221
66.42000 -1.313
66.44000 1.692
66.46000 2.330
66.48000 1.006
66.50000 -2.062
66.52000 -1.557
66.54000 0.806
66.56000 -0.084
66.58000 -2.228
66.60000 -0.602
66.62000 -1.343
66.64000 -1.937
66.66000 -0.183
66.68000 -1.305
66.70000 1.105
66.72000 0.736
66.74000 0.782
66.76000 1.537
66.78000 3.575
66.80000 4.032
66.82000 3.566
66.84000 1.294
66.86000 -1.060
66.88000 -1.844
66.90000 -2.291
66.92000 -1.388
66.94000 -0.191
66.96000 1.384
66.98000 -1.652
67.00000 -1.831
67.02000 -0.837
67.04000 2.686
67.06000 1.696
67.08000 1.990
67.10000 -0.624
67.12000 -2.148
67.14000 -0.078
67.16000 -1.833
67.18000 -2.299
67.20000 0.331
67.22000 1.029
67.24000 1.796
67.26000 2.862
67.28000 1.544
67.30000 4.121
67.32000 1.549
67.34000 2.065
67.36000 1.102
67.38000 -0.475
67.40000 0.788
67.42000 3.790
67.44000 1.851
67.46000 4.810
67.48000 4.171
67.50000 -0.120
67.52000 -0.542
67.54000 1.877
67.56000 3.971
67.58000 1.829
67.60000 0.911
67.62000 -2.336
67.64000 0.749
67.66000 0.160
67.68000 -1.666
67.70000 -1.403
67.72000 0.025
67.74000 -0.265
67.76000 -0.567
67.78000 1.154
67.80000 -0.293
67.82000 2.230
67.84000 3.689
67.86000 1.099
67.88000 1.006
67.90000 1.403
67.92000 2.475
67.94000 1.918
67.96000 2.860
67.98000 2.715
68.00000 4.218
68.02000 4.679
68.04000 1.818
68.06000 0.802
68.08000 2.623
68.10000 1.758
68.12000 2.645
68.14000 4.296
68.16000 4.436
68.18000 2.073
68.20000 4.291
68.22000 2.297
68.24000 6.411
68.26000 7.039
68.28000 8.178
68.30000 6.219
68.32000 7.385
68.34000 6.905
68.36000 9.951
68.38000 8.654
68.40000 10.341
68.42000 13.296
68.44000 11.658
68.46000 8.663
68.48000 11.956
68.50000 16.057
68.52000 18.275
68.54000 18.440
68.56000 17.583
68.58000 17.109
68.60000 20.299
68.62000 19.762
68.64000 17.442
68.66000 20.288
68.68000 18.253
68.70000 19.454
68.72000 18.947
68.74000 18.436
68.76000 19.401
68.78000 24.035
68.80000 24.995
68.82000 25.577
68.84000 28.944
68.86000 28.646
68.88000 26.035
68.90000 27.620
68.92000 28.124
68.94000 30.144
68.96000 29.213
68.98000 29.053
69.00000 26.888
69.02000 26.378
69.04000 25.644
69.06000 26.071
69.08000 29.787
69.10000 30.580
69.12000 28.162
69.14000 29.199
69.16000 27.442
69.18000 24.054
69.20000 23.306
69.22000 19.577
69.24000 23.689
69.26000 22.352
69.28000 21.790
69.30000 20.155
69.32000 17.255
69.34000 16.892
69.36000 17.708
69.38000 20.365
69.40000 21.073
69.42000 17.956
69.44000 16.195
69.46000 15.380
69.48000 17.010
69.50000 14.606
69.52000 9.401
69.54000 10.329
69.56000 8.610
69.58000 10.243
69.60000 9.184
69.62000 10.569
69.64000 8.801
69.66000 5.311
69.68000 6.189
69.70000 4.798
69.72000 7.478
69.74000 5.104
69.76000 4.677
69.78000 6.637
69.80000 3.758
69.82000 5.165
69.84000 5.814
69.86000 4.280
69.88000 2.965
69.90000 3.487
69.92000 4.922
69.94000 2.305
69.96000 4.517
69.98000 3.620
70.00000 3.947
70.02000 3.116
70.04000 4.077
70.06000 1.112
70.08000 3.531
70.10000 3.268
70.12000 5.973
70.14000 9.121
70.16000 5.692
70.18000 0.816
70.20000 1.329
70.22000 0.123
70.24000 -0.601
70.26000 -2.107
70.28000 -2.257
70.30000 -1.421
70.32000 1.839
70.34000 0.201
70.36000 0.702
70.38000 1.291
70.40000 1.409
70.42000 1.582
70.44000 2.126
70.46000 0.518
70.48000 0.337
70.50000 3.720
70.52000 2.784
70.54000 5.129
70.56000 3.406
70.58000 1.905
70.60000 -2.212
70.62000 0.339
70.64000 2.591
70.66000 6.119
70.68000 5.545
70.70000 3.627
70.72000 -0.928
70.74000 -0.221
70.76000 1.154
70.78000 2.277
70.80000 1.031
70.82000 2.776
70.84000 4.455
70.86000 5.501
70.88000 2.290
70.90000 1.521
70.92000 2.297
70.94000 2.316
70.96000 0.385
70.98000 -0.143
71.00000 1.393
71.02000 0.950
71.04000 0.548
71.06000 0.235
71.08000 0.371
71.10000 0.258
71.12000 0.138
71.14000 1.208
71.16000 2.713
71.18000 2.592
71.20000 1.432
71.22000 -1.579
71.24000 2.318
71.26000 1.948
71.28000 1.712
71.30000 -2.168
71.32000 -0.251
71.34000 1.108
71.36000 0.320
71.38000 0.311
71.40000 0.995
71.42000 0.628
71.44000 1.308
71.46000 1.187
71.48000 0.824
71.50000 2.737
71.52000 2.709
71.54000 2.661
71.56000 1.468
71.58000 4.145
71.60000 1.552
71.62000 1.907
71.64000 2.863
71.66000 2.979
71.68000 2.767
71.70000 4.006
71.72000 2.268
71.74000 -0.939
71.76000 -1.720
71.78000 2.994
71.80000 5.404
71.82000 1.955
71.84000 -2.155
71.86000 1.683
71.88000 0.335
71.90000 1.382
71.92000 3.458
71.94000 1.172
71.96000 1.214
71.98000 2.859
72.00000 4.784
72.02000 5.335
72.04000 0.397
72.06000 4.201
72.08000 3.914
72.10000 -0.057
72.12000 1.766
72.14000 0.457
72.16000 -0.297
72.18000 2.151
72.20000 2.228
72.22000 2.830
72.24000 1.996
72.26000 -0.653
72.28000 0.943
72.30000 -1.217
72.32000 1.312
72.34000 3.701
72.36000 1.787
72.38000 3.417
72.40000 4.358
72.42000 4.410
72.44000 0.982
72.46000 0.195
72.48000 -1.308
72.50000 -0.011
72.52000 1.454
72.54000 0.619
72.56000 1.276
72.58000 2.781
72.60000 3.752
72.62000 2.550
72.64000 2.163
72.66000 3.788
72.68000 2.344
72.70000 2.193
72.72000 3.318
72.74000 3.169
72.76000 4.028
72.78000 4.540
72.80000 1.848
72.82000 -1.277
72.84000 -1.546
72.86000 0.817
72.88000 2.621
72.90000 2.994
72.92000 5.929
72.94000 0.461
72.96000 1.771
72.98000 2.398
73.00000 1.851
73.02000 5.550
73.04000 4.539
73.06000 2.977
73.08000 2.006
73.10000 3.350
73.12000 1.524
73.14000 1.176
73.16000 0.249
73.18000 -0.575
73.20000 1.028
73.22000 1.470
73.24000 1.998
73.26000 2.740
73.28000 2.046
73.30000 -2.073
73.32000 -1.744
73.34000 0.223
73.36000 1.802
73.38000 0.668
73.40000 0.937
73.42000 3.727
73.44000 3.249
73.46000 1.612
73.48000 4.658
73.50000 5.824
73.52000 1.809
73.54000 3.026
73.56000 4.760
73.58000 5.073
73.60000 1.698
73.62000 2.545
73.64000 2.237
73.66000 0.218
73.68000 -0.487
73.70000 -1.670
73.72000 0.096
73.74000 3.554
73.76000 2.622
73.78000 4.284
73.80000 6.614
73.82000 5.725
73.84000 6.200
73.86000 4.337
73.88000 1.026
73.90000 2.995
73.92000 0.619
73.94000 0.520
73.96000 2.826
73.98000 1.035
74.00000 -0.480
74.02000 -0.209
74.04000 -0.185
74.06000 2.457
74.08000 2.429
74.10000 0.901
74.12000 1.391
74.14000 0.293
74.16000 2.678
74.18000 0.351
74.20000 -2.075
74.22000 1.793
74.24000 4.753
74.26000 4.369
74.28000 2.780
74.30000 2.895
74.32000 2.707
74.34000 1.943
74.36000 0.428
74.38000 2.307
74.40000 2.948
74.42000 -0.190
74.44000 -1.811
74.46000 1.094
74.48000 0.347
74.50000 0.161
74.52000 -1.338
74.54000 0.368
74.56000 3.715
74.58000 1.858
74.60000 2.469
74.62000 3.795
74.64000 1.526
74.66000 2.325
74.68000 4.044
74.70000 2.654
74.72000 1.478
74.74000 -0.968
74.76000 1.518
74.78000 3.333
74.80000 1.935
74.82000 1.719
74.84000 5.209
74.86000 2.523
74.88000 -0.239
74.90000 1.187
74.92000 0.261
74.94000 0.290
74.96000 -0.369
74.98000 -1.889
75.00000 -0.224
75.02000 0.851
75.04000 -0.294
75.06000 2.645
75.08000 1.516
75.10000 0.010
75.12000 0.176
75.14000 -1.231
75.16000 2.066
75.18000 0.396
75.20000 2.906
75.22000 1.469
75.24000 -1.285
75.26000 -2.086
75.28000 2.142
75.30000 0.193
75.32000 3.005
75.34000 6.004
75.36000 2.591
75.38000 3.824
75.40000 5.160
75.42000 5.205
75.44000 2.596
75.46000 1.366
75.48000 -0.315
75.50000 1.102
75.52000 6.723
75.54000 2.291
75.56000 0.603
75.58000 1.933
75.60000 3.050
75.62000 2.273
75.64000 -1.281
75.66000 2.760
75.68000 2.917
75.70000 3.777
75.72000 3.334
75.74000 3.074
75.76000 1.930
75.78000 2.818
75.80000 4.593
75.82000 3.866
75.84000 1.504
75.86000 1.584
75.88000 1.672
75.90000 2.295
75.92000 3.816
75.94000 3.566
75.96000 5.587
75.98000 3.850
76.00000 -2.090
76.02000 0.676
76.04000 3.435
76.06000 3.439
76.08000 0.994
76.10000 1.257
76.12000 1.435
76.14000 3.748
76.16000 2.444
76.18000 3.155
76.20000 3.803
76.22000 2.374
76.24000 0.613
76.26000 1.097
76.28000 2.915
76.30000 -0.934
76.32000 2.209
76.34000 2.346
76.36000 -1.664
76.38000 1.807
76.40000 2.974
76.42000 5.163
76.44000 3.296
76.46000 0.910
76.48000 3.305
76.50000 5.935
76.52000 3.519
76.54000 0.654
76.56000 1.871
76.58000 1.926
76.60000 2.088
76.62000 4.919
76.64000 4.153
76.66000 1.094
76.68000 0.204
76.70000 -0.714
76.72000 -0.569
76.74000 1.898
76.76000 3.753
76.78000 4.148
76.80000 2.199
76.82000 2.502
76.84000 2.359
76.86000 -0.553
76.88000 1.379
76.90000 2.367
76.92000 2.896
76.94000 0.853
76.96000 2.021
76.98000 -2.086
77.00000 2.290
77.02000 1.345
77.04000 0.427
77.06000 2.581
77.08000 2.144
77.10000 -2.090
77.12000 0.254
77.14000 1.141
77.16000 1.007
77.18000 3.105
77.20000 4.130
77.22000 4.533
77.24000 2.403
77.26000 1.547
77.28000 0.128
77.30000 2.649
77.32000 4.912
77.34000 3.391
77.36000 3.130
77.38000 1.720
77.40000 3.634
77.42000 -1.485
77.44000 2.076
77.46000 1.110
77.48000 0.898
77.50000 2.104
77.52000 1.879
77.54000 -0.043
77.56000 1.955
77.58000 5.302
77.60000 3.700
77.62000 0.826
77.64000 1.167
77.66000 1.284
77.68000 3.769
77.70000 0.977
77.72000 -0.362
77.74000 -1.124
77.76000 2.402
77.78000 0.090
77.80000 -0.580
77.82000 2.386
77.84000 2.750
77.86000 1.112
77.88000 -1.073
77.90000 -1.559
77.92000 -0.119
77.94000 2.937
77.96000 3.809
77.98000 0.543
78.00000 1.336
78.02000 2.924
78.04000 1.488
78.06000 4.000
78.08000 0.733
78.10000 -1.486
78.12000 2.536
78.14000 5.672
78.16000 2.018
78.18000 0.774
78.20000 -1.166
78.22000 2.341
78.24000 2.683
78.26000 2.009
78.28000 1.616
78.30000 4.231
78.32000 3.696
78.34000 0.534
78.36000 2.368
78.38000 1.279
78.40000 1.864
78.42000 0.291
78.44000 1.585
78.46000 1.587
78.48000 0.340
78.50000 2.842
78.52000 3.693
78.54000 1.394
78.56000 0.487
78.58000 1.706
78.60000 4.392
78.62000 3.527
78.64000 5.164
78.66000 2.159
78.68000 3.616
78.70000 0.863
78.72000 -0.641
78.74000 -0.859
78.76000 4.538
78.78000 0.544
78.80000 3.220
78.82000 3.165
78.84000 1.844
78.86000 0.548
78.88000 -2.115
78.90000 3.056
78.92000 1.801
78.94000 1.125
78.96000 5.495
78.98000 4.215
79.00000 3.117
79.02000 2.646
79.04000 5.897
79.06000 4.153
79.08000 3.627
79.10000 4.679
79.12000 2.349
79.14000 0.781
79.16000 3.719
79.18000 4.063
79.20000 2.373
79.22000 1.079
79.24000 -0.417
79.26000 0.765
79.28000 1.942
79.30000 2.578
79.32000 3.801
79.34000 -2.113
79.36000 -0.088
79.38000 2.540
79.40000 3.561
79.42000 3.122
79.44000 3.666
79.46000 4.974
79.48000 2.381
79.50000 1.297
79.52000 2.923
79.54000 2.452
79.56000 5.105
79.58000 5.484
79.60000 3.316
79.62000 -2.108
79.64000 3.967
79.66000 4.485
79.68000 4.323
79.70000 1.415
79.72000 -0.756
79.74000 3.278
79.76000 2.153
79.78000 -0.550
79.80000 2.977
79.82000 4.546
79.84000 2.903
79.86000 1.569
79.88000 1.585
79.90000 2.960
79.92000 0.471
79.94000 2.238
79.96000 3.608
79.98000 7.659
80.00000 4.206
80.02000 1.016
80.04000 2.631
80.06000 5.270
80.08000 2.320
80.10000 2.041
80.12000 0.122
80.14000 6.176
80.16000 6.801
80.18000 4.546
80.20000 -0.454
80.22000 0.837
80.24000 2.364
80.26000 3.023
80.28000 2.144
80.30000 3.064
80.32000 -1.033
80.34000 -1.890
80.36000 3.786
80.38000 5.568
80.40000 2.247
80.42000 1.462
80.44000 1.694
80.46000 -2.165
80.48000 -0.731
80.50000 0.125
80.52000 2.314
80.54000 2.834
80.56000 5.969
80.58000 4.121
80.60000 1.217
80.62000 0.479
80.64000 0.657
80.66000 1.866
80.68000 2.374
80.70000 2.166
80.72000 -1.040
80.74000 2.868
80.76000 1.080
80.78000 -0.056
80.80000 1.963
80.82000 4.059
80.84000 -1.940
80.86000 -1.426
80.88000 2.216
80.90000 1.466
80.92000 2.948
80.94000 -0.191
80.96000 -1.067
80.98000 -0.973
81.00000 2.842
81.02000 4.422
81.04000 -1.504
81.06000 3.784
81.08000 2.561
81.10000 -0.694
81.12000 -0.480
81.14000 1.118
81.16000 -1.220
81.18000 -2.251
81.20000 0.602
81.22000 1.658
81.24000 2.109
81.26000 2.612
81.28000 4.166
81.30000 2.289
81.32000 0.657
81.34000 -0.181
81.36000 -0.748
81.38000 -1.827
81.40000 -1.261
81.42000 -0.160
81.44000 1.523
81.46000 0.840
81.48000 -1.171
81.50000 -1.883
81.52000 1.194
81.54000 1.881
81.56000 1.628
81.58000 -1.642
81.60000 0.783
81.62000 -2.102
81.64000 -0.727
81.66000 4.128
81.68000 0.675
81.70000 4.579
81.72000 3.834
81.74000 2.138
81.76000 2.798
81.78000 -0.348
81.80000 1.297
81.82000 0.099
81.84000 1.361
81.86000 0.681
81.88000 -2.308
81.90000 -1.808
81.92000 1.978
81.94000 5.418
81.96000 2.310
81.98000 1.144
82.00000 0.203
82.02000 -0.305
82.04000 1.894
82.06000 4.236
82.08000 8.275
82.10000 5.271
82.12000 5.106
82.14000 2.744
82.16000 4.676
82.18000 5.167
82.20000 5.309
82.22000 5.987
82.24000 5.929
82.26000 8.040
82.28000 11.421
82.30000 9.841
82.32000 7.516
82.34000 8.988
82.36000 13.596
82.38000 11.816
82.40000 12.213
82.42000 10.518
82.44000 9.599
82.46000 11.196
82.48000 14.537
82.50000 14.999
82.52000 14.091
82.54000 14.068
82.56000 17.366
82.58000 19.492
82.60000 17.016
82.62000 22.253
82.64000 25.109
82.66000 19.248
82.68000 17.305
82.70000 22.603
82.72000 20.014
82.74000 22.315
82.76000 26.873
82.78000 25.804
82.80000 29.533
82.82000 30.562
82.84000 30.132
82.86000 29.148
82.88000 30.855
82.90000 28.813
82.92000 28.773
82.94000 35.966
82.96000 38.157
82.98000 38.118
83.00000 34.350
83.02000 38.624
83.04000 44.027
83.06000 39.668
83.08000 37.810
83.10000 39.259
83.12000 40.443
83.14000 46.591
83.16000 45.154
83.18000 47.115
83.20000 50.022
83.22000 46.188
83.24000 47.521
83.26000 46.150
83.28000 45.941
83.30000 50.227
83.32000 46.368
83.34000 45.845
83.36000 43.478
83.38000 43.257
83.40000 39.731
83.42000 38.785
83.44000 39.966
83.46000 38.887
83.48000 40.118
83.50000 41.818
83.52000 39.557
83.54000 39.569
83.56000 35.288
83.58000 37.329
83.60000 34.382
83.62000 33.953
83.64000 39.818
83.66000 33.584
83.68000 29.858
83.70000 32.463
83.72000 35.162
83.74000 35.400
83.76000 27.632
83.78000 27.716
83.80000 31.394
83.82000 30.217
83.84000 30.207
83.86000 26.115
83.88000 21.041
83.90000 21.608
83.92000 23.449
83.94000 23.878
83.96000 20.474
83.98000 21.638
84.00000 24.162
84.02000 21.094
84.04000 16.486
84.06000 14.583
84.08000 14.011
84.10000 14.375
84.12000 13.863
84.14000 14.088
84.16000 8.877
84.18000 12.142
84.20000 14.527
84.22000 12.109
84.24000 8.152
84.26000 6.361
84.28000 8.561
84.30000 10.100
84.32000 10.026
84.34000 8.829
84.36000 10.287
84.38000 9.906
84.40000 7.112
84.42000 9.581
84.44000 11.079
84.46000 10.620
84.48000 8.783
84.50000 8.280
84.52000 6.612
84.54000 4.532
84.56000 6.652
84.58000 6.612
84.60000 6.112
84.62000 4.209
84.64000 0.286
84.66000 2.349
84.68000 5.054
84.70000 3.121
84.72000 3.452
84.74000 8.519
84.76000 7.794
84.78000 3.150
84.80000 1.118
84.82000 1.322
84.84000 2.432
84.86000 0.002
84.88000 2.890
84.90000 3.612
84.92000 2.931
84.94000 2.275
84.96000 0.037
84.98000 0.257
85.00000 -0.066
85.02000 -1.331
85.04000 -0.197
85.06000 0.633
85.08000 5.450
85.10000 4.313
85.12000 1.860
85.14000 1.486
85.16000 4.304
85.18000 10.004
85.20000 6.224
85.22000 7.297
85.24000 9.437
85.26000 6.542
85.28000 2.257
85.30000 1.498
85.32000 0.506
85.34000 -2.124
85.36000 2.673
85.38000 1.934
85.40000 1.478
85.42000 2.378
85.44000 4.121
85.46000 4.321
85.48000 3.217
85.50000 2.723
85.52000 3.104
85.54000 -0.901
85.56000 0.774
85.58000 0.993
85.60000 1.167
85.62000 7.746
85.64000 4.944
85.66000 3.105
85.68000 1.159
85.70000 0.957
85.72000 2.242
85.74000 0.875
85.76000 2.633
85.78000 1.280
85.80000 3.310
85.82000 -0.823
85.84000 1.703
85.86000 1.503
85.88000 -1.736
85.90000 1.065
85.92000 0.559
85.94000 3.120
85.96000 2.049
85.98000 -1.465
86.00000 -0.584
86.02000 -0.141
86.04000 1.816
86.06000 0.688
86.08000 -1.178
86.10000 0.972
86.12000 2.754
86.14000 0.895
86.16000 4.152
86.18000 2.036
86.20000 1.792
86.22000 -1.241
86.24000 3.404
86.26000 6.183
86.28000 4.177
86.30000 2.843
86.32000 3.573
86.34000 1.648
86.36000 1.727
86.38000 -1.021
86.40000 -0.765
86.42000 -1.673
86.44000 2.211
86.46000 0.500
86.48000 -0.841
86.50000 -1.080
86.52000 -0.567
86.54000 -2.187
86.56000 -0.019
86.58000 4.736
86.60000 4.499
86.62000 1.385
86.64000 -1.148
86.66000 1.337
86.68000 3.405
86.70000 2.302
86.72000 3.527
86.74000 1.871
86.76000 2.203
86.78000 7.959
86.80000 5.109
86.82000 7.217
86.84000 6.088
86.86000 2.409
86.88000 1.518
86.90000 3.778
86.92000 10.081
86.94000 10.232
86.96000 9.661
86.98000 6.697
87.00000 6.379
87.02000 10.538
87.04000 8.559
87.06000 6.067
87.08000 7.685
87.10000 6.670
87.12000 9.522
87.14000 10.027
87.16000 9.509
87.18000 6.987
87.20000 11.441
87.22000 11.115
87.24000 12.973
87.26000 14.425
87.28000 12.067
87.30000 16.928
87.32000 20.159
87.34000 18.766
87.36000 18.003
87.38000 15.107
87.40000 15.996
87.42000 17.989
87.44000 14.577
87.46000 16.594
87.48000 23.669
87.50000 24.383
87.52000 24.437
87.54000 23.892
87.56000 21.789
87.58000 17.449
87.60000 20.154
87.62000 22.554
87.64000 23.168
87.66000 28.484
87.68000 32.180
87.70000 27.910
87.72000 24.035
87.74000 26.126
87.76000 28.378
87.78000 28.082
87.80000 27.432
87.82000 28.536
87.84000 26.839
87.86000 29.229
87.88000 27.135
87.90000 25.790
87.92000 26.794
87.94000 25.673
87.96000 24.655
87.98000 26.590
88.00000 27.640
88.02000 18.921
88.04000 20.210
88.06000 22.882
88.08000 20.396
88.10000 22.138
88.12000 21.351
88.14000 17.070
88.16000 19.298
88.18000 17.028
88.20000 19.484
88.22000 20.365
88.24000 14.286
88.26000 11.437
88.28000 17.832
88.30000 18.130
88.32000 20.054
88.34000 13.378
88.36000 13.451
88.38000 15.912
88.40000 13.502
88.42000 10.311
88.44000 10.165
88.46000 13.508
88.48000 12.678
88.50000 6.832
88.52000 6.928
88.54000 7.303
88.56000 9.681
88.58000 5.987
88.60000 6.696
88.62000 5.106
88.64000 2.242
88.66000 5.011
88.68000 8.287
88.70000 7.348
88.72000 10.248
88.74000 8.586
88.76000 6.480
88.78000 4.188
88.80000 5.503
88.82000 6.288
88.84000 7.227
88.86000 6.946
88.88000 5.537
88.90000 4.022
88.92000 2.445
88.94000 6.439
88.96000 4.351
88.98000 5.381
89.00000 10.424
89.02000 6.902
89.04000 5.112
89.06000 2.595
89.08000 0.210
89.10000 3.598
89.12000 5.996
89.14000 5.559
89.16000 4.815
89.18000 0.469
89.20000 1.911
89.22000 2.099
89.24000 1.489
89.26000 6.352
89.28000 5.242
89.30000 3.231
89.32000 2.706
89.34000 4.886
89.36000 4.579
89.38000 3.466
89.40000 3.689
89.42000 2.592
89.44000 3.877
89.46000 8.101
89.48000 3.629
89.50000 1.310
89.52000 0.657
89.54000 7.873
89.56000 8.477
89.58000 -1.987
89.60000 1.558
89.62000 1.738
89.64000 6.074
89.66000 4.000
89.68000 9.010
89.70000 7.463
89.72000 4.664
89.74000 5.389
89.76000 5.903
89.78000 7.158
89.80000 6.386
89.82000 3.091
89.84000 3.791
89.86000 3.173
89.88000 5.000
89.90000 2.875
89.92000 3.325
89.94000 0.364
89.96000 0.102
89.98000 4.353
90.00000 8.170
90.02000 5.945
90.04000 2.376
90.06000 4.391
90.08000 3.735
90.10000 2.095
90.12000 1.268
90.14000 -1.994
90.16000 1.595
90.18000 1.554
90.20000 3.901
90.22000 3.259
90.24000 3.228
90.26000 2.845
90.28000 -0.085
90.30000 -0.005
90.32000 3.298
90.34000 4.289
90.36000 2.847
90.38000 0.796
90.40000 4.359
90.42000 2.379
90.44000 4.783
90.46000 5.745
90.48000 4.551
90.50000 3.877
90.52000 2.015
90.54000 1.137
90.56000 1.857
90.58000 4.767
90.60000 2.471
90.62000 1.100
90.64000 2.181
90.66000 0.534
90.68000 1.289
90.70000 2.394
90.72000 1.562
90.74000 1.212
90.76000 3.600
90.78000 1.552
90.80000 4.595
90.82000 3.525
90.84000 1.821
90.86000 2.759
90.88000 0.566
90.90000 1.650
90.92000 3.080
90.94000 0.552
90.96000 -1.652
90.98000 3.030
91.00000 0.745
91.02000 3.440
91.04000 3.010
91.06000 0.915
91.08000 2.222
91.10000 1.065
91.12000 -0.148
91.14000 0.017
91.16000 1.462
91.18000 3.650
91.20000 1.686
91.22000 1.064
91.24000 5.791
91.26000 3.604
91.28000 4.051
91.30000 8.668
91.32000 7.477
91.34000 5.276
91.36000 4.329
91.38000 9.574
91.40000 7.193
91.42000 3.186
91.44000 -0.115
91.46000 0.668
91.48000 4.792
91.50000 4.696
91.52000 3.012
91.54000 -1.947
91.56000 0.926
91.58000 1.035
91.60000 2.911
91.62000 4.721
91.64000 1.212
91.66000 2.089
91.68000 5.948
91.70000 5.697
91.72000 8.399
91.74000 4.215
91.76000 2.321
91.78000 4.587
91.80000 6.228
91.82000 6.807
91.84000 6.052
91.86000 5.939
91.88000 4.528
91.90000 4.729
91.92000 5.692
91.94000 5.754
91.96000 5.392
91.98000 7.890
92.00000 9.008
92.02000 9.382
92.04000 9.852
92.06000 7.142
92.08000 2.632
92.10000 2.491
92.12000 5.890
92.14000 7.162
92.16000 7.005
92.18000 5.146
92.20000 7.397
92.22000 6.267
92.24000 6.093
92.26000 4.312
92.28000 6.820
92.30000 2.096
92.32000 -1.943
92.34000 3.023
92.36000 5.143
92.38000 2.919
92.40000 1.866
92.42000 3.919
92.44000 4.398
92.46000 1.842
92.48000 3.777
92.50000 5.096
92.52000 4.687
92.54000 4.695
92.56000 3.133
92.58000 0.607
92.60000 3.076
92.62000 5.553
92.64000 2.349
92.66000 1.750
92.68000 2.092
92.70000 2.781
92.72000 3.899
92.74000 2.975
92.76000 3.164
92.78000 6.745
92.80000 2.455
92.82000 4.259
92.84000 4.382
92.86000 5.245
92.88000 2.970
92.90000 7.116
92.92000 5.825
92.94000 2.140
92.96000 -0.712
92.98000 0.067
93.00000 2.135
93.02000 4.480
93.04000 5.065
93.06000 5.654
93.08000 2.629
93.10000 0.996
93.12000 4.441
93.14000 2.924
93.16000 2.798
93.18000 4.355
93.20000 0.190
93.22000 0.717
93.24000 4.721
93.26000 4.292
93.28000 -0.296
93.30000 1.916
93.32000 4.910
93.34000 3.448
93.36000 4.752
93.38000 0.313
93.40000 -0.350
93.42000 4.026
93.44000 4.750
93.46000 0.749
93.48000 4.414
93.50000 0.577
93.52000 5.660
93.54000 8.257
93.56000 3.911
93.58000 3.890
93.60000 4.882
93.62000 6.245
93.64000 6.101
93.66000 5.699
93.68000 3.848
93.70000 3.909
93.72000 -1.966
93.74000 -0.146
93.76000 4.003
93.78000 5.596
93.80000 2.644
93.82000 0.454
93.84000 1.644
93.86000 1.145
93.88000 -1.600
93.90000 0.925
93.92000 5.269
93.94000 2.953
93.96000 2.694
93.98000 7.656
94.00000 5.656
94.02000 4.587
94.04000 2.710
94.06000 2.987
94.08000 8.110
94.10000 6.227
94.12000 3.530
94.14000 5.438
94.16000 1.190
94.18000 -1.757
94.20000 -0.735
94.22000 1.924
94.24000 3.496
94.26000 5.891
94.28000 4.297
94.30000 3.276
94.32000 2.165
94.34000 2.821
94.36000 6.535
94.38000 5.508
94.40000 4.330
94.42000 4.589
94.44000 7.246
94.46000 5.622
94.48000 0.288
94.50000 1.702
94.52000 4.124
94.54000 6.729
94.56000 7.754
94.58000 6.911
94.60000 7.033
94.62000 5.042
94.64000 2.881
94.66000 4.261
94.68000 4.482
94.70000 3.159
94.72000 7.319
94.74000 3.698
94.76000 0.722
94.78000 -1.995
94.80000 1.550
94.82000 5.085
94.84000 6.121
94.86000 2.625
94.88000 1.971
94.90000 -0.841
94.92000 -0.996
94.94000 0.542
94.96000 1.220
94.98000 0.310
95.00000 2.702
95.02000 2.365
95.04000 -0.026
95.06000 1.985
95.08000 3.675
95.10000 2.219
95.12000 1.423
95.14000 0.738
95.16000 3.441
95.18000 0.979
95.20000 2.363
95.22000 2.273
95.24000 1.086
95.26000 0.927
95.28000 5.118
95.30000 8.965
95.32000 3.580
95.34000 3.146
95.36000 3.668
95.38000 3.538
95.40000 3.890
95.42000 0.491
95.44000 0.836
95.46000 2.718
95.48000 0.946
95.50000 0.025
95.52000 0.897
95.54000 1.821
95.56000 2.366
95.58000 -1.666
95.60000 -1.610
95.62000 5.307
95.64000 5.063
95.66000 -0.162
95.68000 -1.440
95.70000 -0.606
95.72000 5.527
95.74000 4.208
95.76000 4.242
95.78000 4.797
95.80000 2.082
95.82000 1.229
95.84000 0.068
95.86000 0.258
95.88000 4.432
95.90000 2.564
95.92000 -0.166
95.94000 5.096
95.96000 7.205
95.98000 6.114
96.00000 7.218
96.02000 4.851
96.04000 3.463
96.06000 6.754
96.08000 9.118
96.10000 1.050
96.12000 0.286
96.14000 3.548
96.16000 0.823
96.18000 -0.277
96.20000 2.361
96.22000 -0.837
96.24000 -2.011
96.26000 0.948
96.28000 1.285
96.30000 3.424
96.32000 9.649
96.34000 4.747
96.36000 -1.097
96.38000 -1.433
96.40000 -2.008
96.42000 -0.931
96.44000 4.039
96.46000 3.455
96.48000 4.740
96.50000 2.244
96.52000 1.652
96.54000 2.932
96.56000 5.448
96.58000 6.179
96.60000 2.695
96.62000 0.983
96.64000 4.081
96.66000 8.006
96.68000 7.629
96.70000 2.517
96.72000 3.626
96.74000 7.147
96.76000 3.718
96.78000 -0.428
96.80000 0.912
96.82000 -1.989
96.84000 -0.597
96.86000 5.020
96.88000 7.063
96.90000 2.645
96.92000 -0.242
96.94000 0.781
96.96000 3.321
96.98000 1.761
97.00000 -0.914
97.02000 0.196
97.04000 1.636
97.06000 1.145
97.08000 0.505
97.10000 0.577
97.12000 4.964
97.14000 2.485
97.16000 1.498
97.18000 0.532
97.20000 -0.475
97.22000 0.304
97.24000 2.374
97.26000 1.068
97.28000 -1.977
97.30000 0.870
97.32000 -0.757
97.34000 3.136
97.36000 4.947
97.38000 4.956
97.40000 6.549
97.42000 4.555
97.44000 4.328
97.46000 6.245
97.48000 2.379
97.50000 -0.110
97.52000 0.771
97.54000 6.130
97.56000 5.045
97.58000 3.362
97.60000 -0.514
97.62000 -1.735
97.64000 -0.049
97.66000 1.830
97.68000 4.701
97.70000 3.937
97.72000 7.233
97.74000 8.213
97.76000 4.103
97.78000 1.113
97.80000 2.661
97.82000 4.213
97.84000 2.568
97.86000 -0.388
97.88000 3.904
97.90000 3.714
97.92000 2.511
97.94000 -0.688
97.96000 0.412
97.98000 1.929
98.00000 4.402
98.02000 5.427
98.04000 10.517
98.06000 8.720
98.08000 8.547
98.10000 4.321
98.12000 4.001
98.14000 5.188
98.16000 4.748
98.18000 6.238
98.20000 6.166
98.22000 -1.933
98.24000 -0.238
98.26000 4.485
98.28000 2.887
98.30000 2.491
98.32000 3.282
98.34000 4.535
98.36000 7.718
98.38000 10.961
98.40000 4.809
98.42000 -1.946
98.44000 2.645
98.46000 5.172
98.48000 -0.143
98.50000 -1.203
98.52000 5.608
98.54000 3.458
98.56000 -0.742
98.58000 4.902
98.60000 7.056
98.62000 6.647
98.64000 2.648
98.66000 2.706
98.68000 3.766
98.70000 4.440
98.72000 1.229
98.74000 3.644
98.76000 2.016
98.78000 5.514
98.80000 2.871
98.82000 2.425
98.84000 6.415
98.86000 11.219
98.88000 2.508
98.90000 0.376
98.92000 1.920
98.94000 0.596
98.96000 5.779
98.98000 8.462
99.00000 7.228
99.02000 7.668
99.04000 9.260
99.06000 6.060
99.08000 9.625
99.10000 9.687
99.12000 6.747
99.14000 3.532
99.16000 1.899
99.18000 1.632
99.20000 4.240
99.22000 7.210
99.24000 5.585
99.26000 10.009
99.28000 6.739
99.30000 5.072
99.32000 7.017
99.34000 7.316
99.36000 7.531
99.38000 6.681
99.40000 10.051
99.42000 11.336
99.44000 4.222
99.46000 5.158
99.48000 4.033
99.50000 13.293
99.52000 8.630
99.54000 3.805
99.56000 10.092
99.58000 3.143
99.60000 9.194
99.62000 14.707
99.64000 15.155
99.66000 2.407
99.68000 14.981
99.70000 11.254
99.72000 6.690
99.74000 2.164
99.76000 -1.948
99.78000 0.114
99.80000 1.427
99.82000 16.222
99.84000 4.587
99.86000 2.420
99.88000 4.007
99.90000 0.744
99.92000 11.445
99.94000 13.111
99.96000 4.300
99.98000 0.000
