'Id: "0011389" Comment: "Integrate frame 0011389_Au-Ir-Rh_Au-Rich_XRD_Mapping-216-0000.gfrmwith cursor Wedge Cursor #5" Operator: "B?rgel" Anode: "Cu" Wavelength: "1.5406" Scantype: "2Theta (TwoTheta)" TimePerStep: "1" X: "31.5" Y: "9" Z: "5.95" 
10.00000 0.000
10.02000 5.300
10.04000 8.061
10.06000 7.717
10.08000 -3.327
10.10000 -1.015
10.12000 9.008
10.14000 4.422
10.16000 16.418
10.18000 16.293
10.20000 18.703
10.22000 24.749
10.24000 10.079
10.26000 11.079
10.28000 16.330
10.30000 14.626
10.32000 16.056
10.34000 9.141
10.36000 15.796
10.38000 12.001
10.40000 6.858
10.42000 27.495
10.44000 25.080
10.46000 15.139
10.48000 14.349
10.50000 13.969
10.52000 11.229
10.54000 17.804
10.56000 9.983
10.58000 12.589
10.60000 20.709
10.62000 23.978
10.64000 20.186
10.66000 18.456
10.68000 4.690
10.70000 12.047
10.72000 25.138
10.74000 26.752
10.76000 28.062
10.78000 26.410
10.80000 23.886
10.82000 26.078
10.84000 25.409
10.86000 27.327
10.88000 29.194
10.90000 28.186
10.92000 34.820
10.94000 27.563
10.96000 26.271
10.98000 25.149
11.00000 17.513
11.02000 20.224
11.04000 36.456
11.06000 37.857
11.08000 39.755
11.10000 35.580
11.12000 31.515
11.14000 32.254
11.16000 28.085
11.18000 24.840
11.20000 28.798
11.22000 30.827
11.24000 20.997
11.26000 27.227
11.28000 31.379
11.30000 32.499
11.32000 18.118
11.34000 21.327
11.36000 25.023
11.38000 34.405
11.40000 30.277
11.42000 33.303
11.44000 35.253
11.46000 46.238
11.48000 40.634
11.50000 37.991
11.52000 33.527
11.54000 36.198
11.56000 36.129
11.58000 31.537
11.60000 32.705
11.62000 35.593
11.64000 24.011
11.66000 24.304
11.68000 35.659
11.70000 43.578
11.72000 37.613
11.74000 33.440
11.76000 35.843
11.78000 28.605
11.80000 30.721
11.82000 31.708
11.84000 34.142
11.86000 41.206
11.88000 38.876
11.90000 37.810
11.92000 45.696
11.94000 40.055
11.96000 36.654
11.98000 42.968
12.00000 47.869
12.02000 38.282
12.04000 35.422
12.06000 33.799
12.08000 49.067
12.10000 46.600
12.12000 44.177
12.14000 42.942
12.16000 48.325
12.18000 55.907
12.20000 50.538
12.22000 37.461
12.24000 36.563
12.26000 41.480
12.28000 41.114
12.30000 50.865
12.32000 42.720
12.34000 31.460
12.36000 37.235
12.38000 37.441
12.40000 34.205
12.42000 34.238
12.44000 39.166
12.46000 38.585
12.48000 36.219
12.50000 43.447
12.52000 41.067
12.54000 39.440
12.56000 44.480
12.58000 53.578
12.60000 58.624
12.62000 51.165
12.64000 41.949
12.66000 48.205
12.68000 44.821
12.70000 36.405
12.72000 39.493
12.74000 34.019
12.76000 37.384
12.78000 42.687
12.80000 51.357
12.82000 53.002
12.84000 51.671
12.86000 41.900
12.88000 38.954
12.90000 36.727
12.92000 45.774
12.94000 43.627
12.96000 37.593
12.98000 41.617
13.00000 45.689
13.02000 47.472
13.04000 45.363
13.06000 40.891
13.08000 44.403
13.10000 54.329
13.12000 49.323
13.14000 41.177
13.16000 43.344
13.18000 36.662
13.20000 33.959
13.22000 45.343
13.24000 47.421
13.26000 49.553
13.28000 35.740
13.30000 37.222
13.32000 35.375
13.34000 37.661
13.36000 42.000
13.38000 40.487
13.40000 38.107
13.42000 46.122
13.44000 35.281
13.46000 30.702
13.48000 29.924
13.50000 29.668
13.52000 36.232
13.54000 48.043
13.56000 41.949
13.58000 30.968
13.60000 41.280
13.62000 36.864
13.64000 33.227
13.66000 29.345
13.68000 26.306
13.70000 27.007
13.72000 27.384
13.74000 36.191
13.76000 40.214
13.78000 33.873
13.80000 30.323
13.82000 26.564
13.84000 31.198
13.86000 38.856
13.88000 43.699
13.90000 44.586
13.92000 42.151
13.94000 33.785
13.96000 26.996
13.98000 29.869
14.00000 32.874
14.02000 29.255
14.04000 37.661
14.06000 33.526
14.08000 26.735
14.10000 28.257
14.12000 32.395
14.14000 32.177
14.16000 28.248
14.18000 26.547
14.20000 32.066
14.22000 21.070
14.24000 26.356
14.26000 26.299
14.28000 26.702
14.30000 34.479
14.32000 33.633
14.34000 30.926
14.36000 34.288
14.38000 29.189
14.40000 29.129
14.42000 30.266
14.44000 36.253
14.46000 25.663
14.48000 27.895
14.50000 36.951
14.52000 34.046
14.54000 31.372
14.56000 23.900
14.58000 19.637
14.60000 22.840
14.62000 20.247
14.64000 26.253
14.66000 32.643
14.68000 35.656
14.70000 36.666
14.72000 31.702
14.74000 35.616
14.76000 34.953
14.78000 30.471
14.80000 23.209
14.82000 28.655
14.84000 31.271
14.86000 28.826
14.88000 23.719
14.90000 21.979
14.92000 26.399
14.94000 31.175
14.96000 27.496
14.98000 17.336
15.00000 14.940
15.02000 19.312
15.04000 20.260
15.06000 23.607
15.08000 29.417
15.10000 24.641
15.12000 25.185
15.14000 20.406
15.16000 23.773
15.18000 34.321
15.20000 40.194
15.22000 29.026
15.24000 22.077
15.26000 14.244
15.28000 17.548
15.30000 22.110
15.32000 25.995
15.34000 20.262
15.36000 23.943
15.38000 19.586
15.40000 15.317
15.42000 21.994
15.44000 22.348
15.46000 24.314
15.48000 31.164
15.50000 37.957
15.52000 32.219
15.54000 26.396
15.56000 25.978
15.58000 21.670
15.60000 19.854
15.62000 16.080
15.64000 17.443
15.66000 20.304
15.68000 17.119
15.70000 16.933
15.72000 27.035
15.74000 25.188
15.76000 21.586
15.78000 20.440
15.80000 20.137
15.82000 19.070
15.84000 17.424
15.86000 22.351
15.88000 18.707
15.90000 9.215
15.92000 12.975
15.94000 25.503
15.96000 20.171
15.98000 17.135
16.00000 17.127
16.02000 19.352
16.04000 16.357
16.06000 7.419
16.08000 5.469
16.10000 15.234
16.12000 10.072
16.14000 16.941
16.16000 15.387
16.18000 12.102
16.20000 15.156
16.22000 18.379
16.24000 18.160
16.26000 24.642
16.28000 24.535
16.30000 20.105
16.32000 11.969
16.34000 8.678
16.36000 11.314
16.38000 15.564
16.40000 14.503
16.42000 9.908
16.44000 20.422
16.46000 12.807
16.48000 7.073
16.50000 6.220
16.52000 11.244
16.54000 10.981
16.56000 13.027
16.58000 17.285
16.60000 8.331
16.62000 7.547
16.64000 10.790
16.66000 9.517
16.68000 4.892
16.70000 6.606
16.72000 13.244
16.74000 12.196
16.76000 7.044
16.78000 10.555
16.80000 2.320
16.82000 2.061
16.84000 14.059
16.86000 8.213
16.88000 7.506
16.90000 6.591
16.92000 3.481
16.94000 14.464
16.96000 19.487
16.98000 20.546
17.00000 15.269
17.02000 13.758
17.04000 8.429
17.06000 2.691
17.08000 15.071
17.10000 27.809
17.12000 14.592
17.14000 7.285
17.16000 7.521
17.18000 5.561
17.20000 0.145
17.22000 8.775
17.24000 10.913
17.26000 9.335
17.28000 10.838
17.30000 15.431
17.32000 12.239
17.34000 13.415
17.36000 13.166
17.38000 15.952
17.40000 7.879
17.42000 11.212
17.44000 11.105
17.46000 4.850
17.48000 13.509
17.50000 16.719
17.52000 15.569
17.54000 18.490
17.56000 11.501
17.58000 9.811
17.60000 10.169
17.62000 9.532
17.64000 5.065
17.66000 5.267
17.68000 2.411
17.70000 3.209
17.72000 5.191
17.74000 5.820
17.76000 11.694
17.78000 14.880
17.80000 6.934
17.82000 4.599
17.84000 8.477
17.86000 12.353
17.88000 15.327
17.90000 11.531
17.92000 9.769
17.94000 3.900
17.96000 7.458
17.98000 11.235
18.00000 12.760
18.02000 5.318
18.04000 3.655
18.06000 7.886
18.08000 7.879
18.10000 8.878
18.12000 10.204
18.14000 8.644
18.16000 5.426
18.18000 2.124
18.20000 3.196
18.22000 7.115
18.24000 5.302
18.26000 -1.410
18.28000 8.729
18.30000 11.531
18.32000 6.028
18.34000 11.104
18.36000 2.926
18.38000 5.829
18.40000 6.226
18.42000 12.244
18.44000 15.376
18.46000 11.689
18.48000 5.479
18.50000 -4.320
18.52000 4.840
18.54000 14.582
18.56000 9.429
18.58000 9.167
18.60000 6.316
18.62000 5.547
18.64000 3.879
18.66000 10.114
18.68000 8.819
18.70000 9.955
18.72000 7.824
18.74000 5.470
18.76000 3.403
18.78000 3.829
18.80000 9.839
18.82000 0.979
18.84000 6.222
18.86000 12.617
18.88000 12.296
18.90000 11.978
18.92000 12.850
18.94000 9.838
18.96000 11.025
18.98000 1.133
19.00000 3.558
19.02000 7.867
19.04000 4.103
19.06000 1.087
19.08000 -0.122
19.10000 1.991
19.12000 0.543
19.14000 -0.110
19.16000 2.366
19.18000 7.723
19.20000 7.008
19.22000 2.427
19.24000 1.149
19.26000 8.164
19.28000 4.165
19.30000 4.307
19.32000 9.818
19.34000 10.587
19.36000 11.413
19.38000 9.455
19.40000 6.903
19.42000 -0.206
19.44000 1.452
19.46000 5.532
19.48000 -0.764
19.50000 10.036
19.52000 6.857
19.54000 2.266
19.56000 7.400
19.58000 6.436
19.60000 7.156
19.62000 9.468
19.64000 -1.141
19.66000 -4.267
19.68000 -3.797
19.70000 0.656
19.72000 4.991
19.74000 14.846
19.76000 10.821
19.78000 3.114
19.80000 5.064
19.82000 8.854
19.84000 4.127
19.86000 5.960
19.88000 9.807
19.90000 10.771
19.92000 7.383
19.94000 1.876
19.96000 1.863
19.98000 3.605
20.00000 11.945
20.02000 6.821
20.04000 6.081
20.06000 2.803
20.08000 -4.237
20.10000 4.403
20.12000 6.020
20.14000 -3.464
20.16000 -3.315
20.18000 1.330
20.20000 1.406
20.22000 4.924
20.24000 5.146
20.26000 7.788
20.28000 -0.680
20.30000 0.640
20.32000 5.987
20.34000 5.882
20.36000 5.794
20.38000 3.429
20.40000 14.231
20.42000 8.280
20.44000 8.315
20.46000 5.322
20.48000 7.004
20.50000 1.227
20.52000 0.093
20.54000 1.815
20.56000 2.969
20.58000 7.010
20.60000 13.134
20.62000 7.292
20.64000 9.245
20.66000 2.505
20.68000 -1.390
20.70000 2.244
20.72000 3.185
20.74000 8.742
20.76000 10.181
20.78000 5.667
20.80000 0.324
20.82000 0.151
20.84000 2.432
20.86000 6.889
20.88000 10.348
20.90000 5.670
20.92000 6.496
20.94000 5.549
20.96000 1.104
20.98000 2.238
21.00000 4.489
21.02000 5.932
21.04000 5.042
21.06000 5.740
21.08000 8.345
21.10000 2.727
21.12000 -2.543
21.14000 1.215
21.16000 6.226
21.18000 6.438
21.20000 1.002
21.22000 7.504
21.24000 11.534
21.26000 7.376
21.28000 3.544
21.30000 7.282
21.32000 6.765
21.34000 -4.180
21.36000 1.586
21.38000 5.408
21.40000 10.083
21.42000 4.518
21.44000 -0.868
21.46000 4.073
21.48000 4.763
21.50000 4.236
21.52000 4.442
21.54000 5.226
21.56000 6.250
21.58000 2.588
21.60000 -2.071
21.62000 0.969
21.64000 0.315
21.66000 -0.169
21.68000 -0.590
21.70000 2.746
21.72000 7.432
21.74000 5.848
21.76000 4.020
21.78000 -1.145
21.80000 3.015
21.82000 -2.739
21.84000 -2.097
21.86000 7.388
21.88000 6.080
21.90000 5.543
21.92000 5.152
21.94000 2.106
21.96000 4.151
21.98000 6.285
22.00000 6.555
22.02000 6.170
22.04000 1.523
22.06000 -3.314
22.08000 7.281
22.10000 3.104
22.12000 1.539
22.14000 2.142
22.16000 2.370
22.18000 2.401
22.20000 5.872
22.22000 8.620
22.24000 9.063
22.26000 7.502
22.28000 5.712
22.30000 4.440
22.32000 3.142
22.34000 1.045
22.36000 4.996
22.38000 11.219
22.40000 10.751
22.42000 5.938
22.44000 2.724
22.46000 2.517
22.48000 -2.592
22.50000 -1.995
22.52000 2.573
22.54000 7.403
22.56000 8.763
22.58000 9.977
22.60000 10.103
22.62000 10.796
22.64000 10.671
22.66000 6.845
22.68000 3.737
22.70000 2.532
22.72000 2.395
22.74000 6.844
22.76000 3.546
22.78000 9.829
22.80000 17.892
22.82000 11.300
22.84000 5.745
22.86000 3.090
22.88000 7.259
22.90000 12.474
22.92000 12.374
22.94000 11.535
22.96000 6.541
22.98000 9.005
23.00000 8.218
23.02000 1.506
23.04000 -0.289
23.06000 2.540
23.08000 1.943
23.10000 8.632
23.12000 17.651
23.14000 18.314
23.16000 15.110
23.18000 10.072
23.20000 1.961
23.22000 -4.032
23.24000 -0.199
23.26000 3.398
23.28000 6.770
23.30000 1.981
23.32000 6.556
23.34000 4.749
23.36000 5.289
23.38000 4.529
23.40000 3.483
23.42000 8.422
23.44000 10.766
23.46000 9.726
23.48000 2.454
23.50000 6.586
23.52000 13.438
23.54000 11.410
23.56000 3.572
23.58000 -1.914
23.60000 1.437
23.62000 5.602
23.64000 8.275
23.66000 9.987
23.68000 9.193
23.70000 4.435
23.72000 0.859
23.74000 -3.329
23.76000 2.243
23.78000 9.818
23.80000 14.358
23.82000 10.843
23.84000 11.529
23.86000 9.516
23.88000 1.468
23.90000 -4.027
23.92000 3.656
23.94000 -1.085
23.96000 -0.850
23.98000 15.359
24.00000 12.287
24.02000 9.036
24.04000 2.521
24.06000 1.447
24.08000 1.528
24.10000 3.136
24.12000 1.661
24.14000 -2.920
24.16000 1.576
24.18000 1.438
24.20000 5.826
24.22000 -3.762
24.24000 3.117
24.26000 1.983
24.28000 0.335
24.30000 -1.420
24.32000 -1.564
24.34000 1.621
24.36000 2.429
24.38000 3.015
24.40000 5.691
24.42000 3.841
24.44000 -1.112
24.46000 2.890
24.48000 -0.691
24.50000 3.480
24.52000 10.709
24.54000 2.196
24.56000 1.210
24.58000 6.056
24.60000 6.716
24.62000 4.257
24.64000 4.548
24.66000 2.705
24.68000 0.477
24.70000 1.704
24.72000 7.749
24.74000 6.915
24.76000 5.545
24.78000 8.607
24.80000 4.040
24.82000 1.263
24.84000 5.845
24.86000 9.994
24.88000 1.824
24.90000 -1.091
24.92000 1.944
24.94000 5.702
24.96000 5.454
24.98000 4.705
25.00000 6.354
25.02000 6.435
25.04000 4.644
25.06000 1.033
25.08000 5.337
25.10000 9.791
25.12000 7.762
25.14000 6.550
25.16000 2.925
25.18000 4.823
25.20000 2.837
25.22000 6.041
25.24000 4.518
25.26000 4.267
25.28000 5.784
25.30000 3.906
25.32000 6.714
25.34000 4.007
25.36000 4.335
25.38000 8.944
25.40000 7.242
25.42000 0.795
25.44000 6.595
25.46000 3.685
25.48000 -2.851
25.50000 -1.947
25.52000 -1.670
25.54000 -3.945
25.56000 3.163
25.58000 9.844
25.60000 10.230
25.62000 3.652
25.64000 -3.427
25.66000 3.414
25.68000 6.930
25.70000 7.529
25.72000 4.414
25.74000 2.467
25.76000 6.705
25.78000 6.109
25.80000 3.338
25.82000 4.718
25.84000 2.316
25.86000 -0.001
25.88000 2.937
25.90000 4.893
25.92000 -0.560
25.94000 -1.696
25.96000 -1.779
25.98000 -1.426
26.00000 -0.811
26.02000 3.170
26.04000 4.429
26.06000 1.800
26.08000 0.930
26.10000 3.287
26.12000 0.669
26.14000 1.026
26.16000 0.921
26.18000 2.128
26.20000 -1.022
26.22000 3.313
26.24000 2.258
26.26000 3.051
26.28000 -0.387
26.30000 -0.389
26.32000 3.765
26.34000 9.307
26.36000 -2.121
26.38000 -3.119
26.40000 3.754
26.42000 0.146
26.44000 0.370
26.46000 10.901
26.48000 8.731
26.50000 6.389
26.52000 6.129
26.54000 2.631
26.56000 -1.376
26.58000 0.770
26.60000 9.034
26.62000 12.102
26.64000 4.986
26.66000 6.560
26.68000 1.009
26.70000 1.934
26.72000 2.699
26.74000 -3.909
26.76000 -3.908
26.78000 -0.091
26.80000 -1.015
26.82000 1.279
26.84000 4.654
26.86000 5.094
26.88000 5.847
26.90000 1.968
26.92000 5.443
26.94000 6.538
26.96000 -2.551
26.98000 3.385
27.00000 8.182
27.02000 4.217
27.04000 2.379
27.06000 4.989
27.08000 4.280
27.10000 4.462
27.12000 6.220
27.14000 4.057
27.16000 5.939
27.18000 3.398
27.20000 -0.291
27.22000 0.427
27.24000 3.224
27.26000 1.254
27.28000 -1.314
27.30000 -1.759
27.32000 2.422
27.34000 4.069
27.36000 0.848
27.38000 7.747
27.40000 11.137
27.42000 10.069
27.44000 4.009
27.46000 -1.355
27.48000 -3.053
27.50000 2.325
27.52000 0.876
27.54000 -2.849
27.56000 2.815
27.58000 6.527
27.60000 1.540
27.62000 0.342
27.64000 -0.618
27.66000 3.946
27.68000 5.181
27.70000 5.495
27.72000 9.587
27.74000 5.145
27.76000 3.677
27.78000 -0.531
27.80000 -1.869
27.82000 -0.416
27.84000 3.284
27.86000 1.216
27.88000 -2.954
27.90000 -1.614
27.92000 -3.818
27.94000 -2.685
27.96000 -1.256
27.98000 1.967
28.00000 5.305
28.02000 3.018
28.04000 7.358
28.06000 3.487
28.08000 2.478
28.10000 5.652
28.12000 4.483
28.14000 5.520
28.16000 3.194
28.18000 3.006
28.20000 4.895
28.22000 1.135
28.24000 -2.366
28.26000 1.624
28.28000 3.607
28.30000 4.256
28.32000 -0.630
28.34000 -2.062
28.36000 0.297
28.38000 -2.801
28.40000 5.559
28.42000 7.970
28.44000 5.389
28.46000 5.747
28.48000 3.994
28.50000 3.500
28.52000 2.070
28.54000 2.765
28.56000 5.537
28.58000 6.692
28.60000 6.553
28.62000 5.667
28.64000 -0.492
28.66000 0.306
28.68000 5.231
28.70000 4.981
28.72000 2.852
28.74000 2.268
28.76000 1.376
28.78000 3.587
28.80000 5.356
28.82000 9.879
28.84000 7.448
28.86000 5.389
28.88000 7.817
28.90000 6.367
28.92000 -3.559
28.94000 4.123
28.96000 0.591
28.98000 3.693
29.00000 7.240
29.02000 0.450
29.04000 1.964
29.06000 7.195
29.08000 7.433
29.10000 0.192
29.12000 3.122
29.14000 3.911
29.16000 -2.348
29.18000 1.108
29.20000 3.460
29.22000 6.330
29.24000 4.274
29.26000 6.169
29.28000 2.943
29.30000 -0.518
29.32000 -2.012
29.34000 -1.330
29.36000 -0.357
29.38000 1.023
29.40000 4.076
29.42000 4.096
29.44000 1.887
29.46000 0.526
29.48000 2.823
29.50000 2.604
29.52000 4.080
29.54000 3.866
29.56000 3.450
29.58000 3.500
29.60000 -3.733
29.62000 -2.003
29.64000 0.216
29.66000 4.678
29.68000 4.853
29.70000 9.226
29.72000 8.952
29.74000 6.602
29.76000 5.938
29.78000 4.721
29.80000 5.536
29.82000 6.071
29.84000 5.522
29.86000 1.861
29.88000 0.265
29.90000 5.366
29.92000 8.369
29.94000 7.211
29.96000 5.682
29.98000 0.295
30.00000 -0.544
30.02000 0.658
30.04000 -0.572
30.06000 1.568
30.08000 1.924
30.10000 0.216
30.12000 0.193
30.14000 2.721
30.16000 0.950
30.18000 4.165
30.20000 1.873
30.22000 -2.366
30.24000 -0.615
30.26000 3.402
30.28000 4.016
30.30000 1.569
30.32000 8.488
30.34000 12.175
30.36000 9.736
30.38000 4.574
30.40000 1.322
30.42000 1.138
30.44000 7.799
30.46000 9.499
30.48000 7.170
30.50000 5.876
30.52000 5.490
30.54000 5.728
30.56000 1.259
30.58000 3.055
30.60000 2.483
30.62000 4.657
30.64000 7.807
30.66000 9.561
30.68000 11.045
30.70000 8.797
30.72000 8.479
30.74000 8.493
30.76000 3.057
30.78000 6.220
30.80000 9.670
30.82000 9.541
30.84000 10.119
30.86000 12.787
30.88000 11.771
30.90000 11.727
30.92000 5.650
30.94000 8.129
30.96000 7.443
30.98000 4.226
31.00000 9.970
31.02000 5.776
31.04000 10.639
31.06000 7.293
31.08000 9.974
31.10000 9.949
31.12000 6.400
31.14000 10.807
31.16000 9.080
31.18000 6.196
31.20000 -3.624
31.22000 -2.543
31.24000 0.266
31.26000 6.631
31.28000 6.717
31.30000 5.716
31.32000 6.188
31.34000 0.365
31.36000 3.024
31.38000 5.176
31.40000 8.653
31.42000 8.664
31.44000 11.620
31.46000 9.668
31.48000 11.287
31.50000 9.847
31.52000 8.196
31.54000 9.402
31.56000 7.593
31.58000 5.411
31.60000 0.034
31.62000 5.509
31.64000 5.069
31.66000 6.009
31.68000 5.858
31.70000 6.160
31.72000 7.368
31.74000 10.352
31.76000 4.165
31.78000 8.461
31.80000 8.193
31.82000 0.904
31.84000 4.702
31.86000 9.166
31.88000 10.130
31.90000 6.688
31.92000 9.623
31.94000 0.959
31.96000 0.867
31.98000 1.272
32.00000 3.228
32.02000 2.669
32.04000 2.732
32.06000 2.500
32.08000 7.479
32.10000 9.188
32.12000 9.257
32.14000 4.507
32.16000 0.385
32.18000 4.499
32.20000 4.226
32.22000 5.329
32.24000 2.617
32.26000 4.486
32.28000 3.986
32.30000 3.492
32.32000 9.035
32.34000 9.932
32.36000 7.034
32.38000 4.641
32.40000 4.948
32.42000 3.531
32.44000 3.957
32.46000 5.710
32.48000 6.947
32.50000 1.405
32.52000 -1.532
32.54000 -2.360
32.56000 -3.601
32.58000 -2.106
32.60000 5.787
32.62000 6.717
32.64000 4.826
32.66000 4.788
32.68000 12.106
32.70000 9.718
32.72000 7.388
32.74000 6.103
32.76000 3.000
32.78000 3.920
32.80000 8.788
32.82000 5.551
32.84000 3.940
32.86000 5.456
32.88000 3.692
32.90000 1.693
32.92000 1.931
32.94000 4.963
32.96000 7.730
32.98000 2.287
33.00000 5.299
33.02000 11.089
33.04000 8.205
33.06000 1.819
33.08000 3.675
33.10000 7.330
33.12000 8.561
33.14000 9.689
33.16000 11.170
33.18000 6.825
33.20000 -0.261
33.22000 -0.839
33.24000 1.251
33.26000 1.623
33.28000 1.255
33.30000 8.334
33.32000 6.019
33.34000 -0.595
33.36000 1.300
33.38000 0.426
33.40000 2.624
33.42000 2.928
33.44000 7.233
33.46000 6.189
33.48000 4.058
33.50000 0.467
33.52000 1.462
33.54000 3.158
33.56000 5.984
33.58000 1.470
33.60000 5.298
33.62000 7.512
33.64000 2.421
33.66000 4.302
33.68000 2.031
33.70000 9.369
33.72000 9.265
33.74000 6.781
33.76000 7.841
33.78000 5.283
33.80000 1.480
33.82000 8.099
33.84000 5.897
33.86000 2.875
33.88000 3.896
33.90000 -0.437
33.92000 1.616
33.94000 3.210
33.96000 -1.461
33.98000 0.794
34.00000 -0.529
34.02000 3.337
34.04000 9.214
34.06000 4.088
34.08000 -0.255
34.10000 -3.499
34.12000 2.033
34.14000 6.844
34.16000 9.515
34.18000 5.501
34.20000 0.889
34.22000 -1.070
34.24000 0.718
34.26000 0.470
34.28000 -0.109
34.30000 -1.299
34.32000 -2.044
34.34000 0.958
34.36000 2.618
34.38000 2.213
34.40000 2.399
34.42000 3.424
34.44000 2.113
34.46000 1.866
34.48000 3.700
34.50000 2.694
34.52000 3.601
34.54000 -2.991
34.56000 0.825
34.58000 5.869
34.60000 3.562
34.62000 2.007
34.64000 2.186
34.66000 3.349
34.68000 -0.115
34.70000 -2.895
34.72000 2.506
34.74000 2.182
34.76000 1.959
34.78000 1.861
34.80000 0.466
34.82000 4.006
34.84000 2.552
34.86000 1.240
34.88000 0.783
34.90000 1.834
34.92000 1.002
34.94000 0.989
34.96000 -0.364
34.98000 -3.609
35.00000 -1.383
35.02000 5.853
35.04000 1.640
35.06000 -0.112
35.08000 -3.604
35.10000 -0.683
35.12000 -0.563
35.14000 2.483
35.16000 4.113
35.18000 -1.381
35.20000 -2.068
35.22000 2.101
35.24000 1.666
35.26000 4.086
35.28000 3.677
35.30000 1.222
35.32000 -1.813
35.34000 -1.432
35.36000 3.774
35.38000 2.729
35.40000 -1.620
35.42000 -1.380
35.44000 -2.560
35.46000 0.605
35.48000 -0.634
35.50000 -3.614
35.52000 -3.464
35.54000 1.749
35.56000 0.866
35.58000 -0.671
35.60000 1.785
35.62000 2.075
35.64000 1.662
35.66000 -0.061
35.68000 0.011
35.70000 2.460
35.72000 -2.839
35.74000 0.039
35.76000 -0.985
35.78000 -2.592
35.80000 2.725
35.82000 4.730
35.84000 5.811
35.86000 2.081
35.88000 -0.553
35.90000 -0.443
35.92000 5.540
35.94000 5.829
35.96000 -0.530
35.98000 4.202
36.00000 1.906
36.02000 -3.620
36.04000 5.832
36.06000 3.725
36.08000 0.247
36.10000 1.714
36.12000 3.878
36.14000 3.681
36.16000 8.567
36.18000 4.766
36.20000 3.480
36.22000 6.119
36.24000 2.922
36.26000 1.855
36.28000 4.884
36.30000 1.149
36.32000 1.884
36.34000 1.466
36.36000 2.797
36.38000 0.285
36.40000 1.390
36.42000 -3.020
36.44000 -2.598
36.46000 -2.865
36.48000 -2.473
36.50000 1.077
36.52000 2.961
36.54000 4.852
36.56000 1.257
36.58000 3.846
36.60000 1.974
36.62000 -0.305
36.64000 -0.960
36.66000 1.417
36.68000 5.111
36.70000 2.205
36.72000 -0.417
36.74000 3.382
36.76000 1.219
36.78000 -0.201
36.80000 -0.603
36.82000 2.667
36.84000 4.641
36.86000 -1.880
36.88000 -0.223
36.90000 -2.392
36.92000 -3.691
36.94000 -1.728
36.96000 -0.036
36.98000 0.609
37.00000 -0.392
37.02000 -0.131
37.04000 4.862
37.06000 6.088
37.08000 -0.428
37.10000 1.481
37.12000 3.869
37.14000 3.682
37.16000 9.338
37.18000 7.532
37.20000 0.557
37.22000 -1.308
37.24000 2.001
37.26000 6.973
37.28000 4.059
37.30000 6.998
37.32000 12.419
37.34000 8.684
37.36000 2.120
37.38000 2.160
37.40000 5.287
37.42000 5.630
37.44000 11.611
37.46000 8.505
37.48000 10.501
37.50000 8.337
37.52000 4.816
37.54000 12.413
37.56000 11.052
37.58000 9.784
37.60000 8.267
37.62000 14.110
37.64000 14.419
37.66000 14.000
37.68000 11.101
37.70000 9.569
37.72000 13.200
37.74000 16.234
37.76000 15.375
37.78000 15.980
37.80000 9.177
37.82000 11.964
37.84000 21.637
37.86000 21.563
37.88000 20.252
37.90000 19.368
37.92000 21.484
37.94000 22.451
37.96000 20.386
37.98000 22.306
38.00000 21.259
38.02000 17.843
38.04000 21.299
38.06000 27.288
38.08000 26.870
38.10000 20.083
38.12000 28.147
38.14000 32.489
38.16000 31.277
38.18000 27.909
38.20000 30.352
38.22000 27.646
38.24000 34.223
38.26000 34.297
38.28000 35.237
38.30000 38.029
38.32000 38.151
38.34000 40.211
38.36000 42.348
38.38000 42.358
38.40000 47.306
38.42000 48.842
38.44000 52.476
38.46000 55.341
38.48000 59.604
38.50000 58.411
38.52000 58.746
38.54000 59.937
38.56000 62.111
38.58000 66.720
38.60000 69.212
38.62000 74.964
38.64000 72.607
38.66000 78.009
38.68000 77.516
38.70000 85.312
38.72000 88.042
38.74000 88.589
38.76000 92.329
38.78000 100.652
38.80000 101.535
38.82000 109.436
38.84000 117.005
38.86000 124.811
38.88000 134.520
38.90000 137.357
38.92000 142.883
38.94000 150.795
38.96000 160.494
38.98000 171.958
39.00000 188.966
39.02000 194.077
39.04000 195.330
39.06000 214.121
39.08000 229.512
39.10000 247.293
39.12000 255.700
39.14000 265.105
39.16000 282.057
39.18000 296.638
39.20000 315.707
39.22000 336.620
39.24000 361.396
39.26000 381.102
39.28000 391.156
39.30000 410.345
39.32000 428.313
39.34000 436.845
39.36000 465.328
39.38000 495.840
39.40000 513.599
39.42000 522.843
39.44000 539.515
39.46000 563.418
39.48000 580.806
39.50000 595.000
39.52000 605.639
39.54000 616.348
39.56000 616.511
39.58000 617.099
39.60000 618.613
39.62000 625.513
39.64000 627.463
39.66000 611.225
39.68000 608.357
39.70000 611.394
39.72000 594.774
39.74000 578.873
39.76000 565.433
39.78000 541.825
39.80000 522.296
39.82000 506.154
39.84000 485.001
39.86000 460.879
39.88000 446.185
39.90000 428.972
39.92000 411.680
39.94000 383.721
39.96000 363.230
39.98000 336.292
40.00000 318.155
40.02000 307.509
40.04000 288.032
40.06000 272.731
40.08000 252.088
40.10000 241.029
40.12000 226.427
40.14000 214.067
40.16000 199.890
40.18000 185.573
40.20000 181.056
40.22000 169.305
40.24000 152.511
40.26000 144.424
40.28000 136.878
40.30000 132.564
40.32000 117.841
40.34000 105.526
40.36000 99.102
40.38000 94.075
40.40000 93.449
40.42000 84.225
40.44000 78.505
40.46000 79.499
40.48000 77.353
40.50000 72.565
40.52000 62.598
40.54000 61.588
40.56000 60.623
40.58000 52.281
40.60000 54.606
40.62000 44.933
40.64000 42.047
40.66000 46.936
40.68000 46.094
40.70000 39.073
40.72000 36.043
40.74000 35.194
40.76000 32.470
40.78000 31.741
40.80000 31.584
40.82000 27.418
40.84000 20.886
40.86000 19.190
40.88000 22.758
40.90000 21.342
40.92000 25.895
40.94000 24.436
40.96000 17.851
40.98000 17.822
41.00000 22.080
41.02000 19.069
41.04000 15.507
41.06000 15.572
41.08000 16.581
41.10000 13.153
41.12000 11.496
41.14000 10.865
41.16000 10.358
41.18000 12.300
41.20000 14.275
41.22000 13.627
41.24000 10.838
41.26000 10.811
41.28000 10.706
41.30000 7.963
41.32000 5.070
41.34000 7.426
41.36000 3.505
41.38000 5.871
41.40000 7.117
41.42000 6.818
41.44000 4.911
41.46000 5.032
41.48000 8.686
41.50000 8.129
41.52000 3.978
41.54000 1.330
41.56000 3.006
41.58000 3.510
41.60000 2.029
41.62000 1.809
41.64000 2.105
41.66000 3.041
41.68000 3.277
41.70000 4.098
41.72000 4.342
41.74000 3.923
41.76000 6.384
41.78000 3.264
41.80000 6.044
41.82000 5.334
41.84000 -0.524
41.86000 0.257
41.88000 2.081
41.90000 -0.508
41.92000 -3.369
41.94000 2.350
41.96000 6.566
41.98000 3.181
42.00000 0.523
42.02000 1.615
42.04000 4.948
42.06000 0.004
42.08000 2.050
42.10000 3.703
42.12000 0.472
42.14000 -0.410
42.16000 4.095
42.18000 2.581
42.20000 5.031
42.22000 1.223
42.24000 -1.794
42.26000 -0.456
42.28000 -1.566
42.30000 -0.831
42.32000 0.702
42.34000 -1.687
42.36000 -0.456
42.38000 -3.307
42.40000 0.591
42.42000 1.777
42.44000 1.594
42.46000 2.255
42.48000 5.006
42.50000 1.879
42.52000 0.207
42.54000 1.764
42.56000 -0.589
42.58000 -0.371
42.60000 0.790
42.62000 -1.998
42.64000 -2.038
42.66000 1.151
42.68000 3.057
42.70000 3.165
42.72000 2.901
42.74000 5.096
42.76000 6.595
42.78000 2.447
42.80000 2.420
42.82000 3.520
42.84000 4.497
42.86000 -1.287
42.88000 -0.215
42.90000 1.419
42.92000 3.165
42.94000 -0.925
42.96000 3.091
42.98000 1.456
43.00000 -1.882
43.02000 -3.241
43.04000 -3.217
43.06000 -2.812
43.08000 0.518
43.10000 0.692
43.12000 -2.276
43.14000 0.363
43.16000 1.914
43.18000 -0.731
43.20000 -0.211
43.22000 3.288
43.24000 0.136
43.26000 0.298
43.28000 -2.599
43.30000 0.137
43.32000 0.136
43.34000 -2.040
43.36000 -2.032
43.38000 -1.592
43.40000 -1.916
43.42000 -1.728
43.44000 2.078
43.46000 -1.691
43.48000 -1.026
43.50000 -1.191
43.52000 0.802
43.54000 3.036
43.56000 -1.244
43.58000 -1.981
43.60000 -0.829
43.62000 -1.364
43.64000 1.537
43.66000 1.673
43.68000 -2.622
43.70000 -3.175
43.72000 -2.598
43.74000 0.646
43.76000 -1.517
43.78000 -1.388
43.80000 0.239
43.82000 1.061
43.84000 1.576
43.86000 3.730
43.88000 1.870
43.90000 1.949
43.92000 0.854
43.94000 1.866
43.96000 2.008
43.98000 3.918
44.00000 5.196
44.02000 -0.498
44.04000 -1.462
44.06000 -0.615
44.08000 2.400
44.10000 3.787
44.12000 3.425
44.14000 2.130
44.16000 2.862
44.18000 1.608
44.20000 2.896
44.22000 1.726
44.24000 0.685
44.26000 -0.005
44.28000 1.258
44.30000 2.733
44.32000 2.475
44.34000 2.328
44.36000 2.514
44.38000 3.232
44.40000 6.964
44.42000 0.643
44.44000 -3.079
44.46000 0.775
44.48000 3.800
44.50000 5.967
44.52000 5.241
44.54000 6.480
44.56000 2.136
44.58000 3.958
44.60000 6.140
44.62000 5.400
44.64000 7.970
44.66000 5.912
44.68000 2.371
44.70000 3.182
44.72000 5.104
44.74000 4.685
44.76000 1.483
44.78000 4.171
44.80000 4.968
44.82000 5.143
44.84000 6.373
44.86000 5.763
44.88000 5.683
44.90000 3.108
44.92000 5.375
44.94000 10.752
44.96000 10.408
44.98000 10.667
45.00000 12.196
45.02000 12.569
45.04000 8.720
45.06000 10.475
45.08000 6.251
45.10000 6.768
45.12000 7.579
45.14000 9.999
45.16000 10.223
45.18000 11.877
45.20000 11.303
45.22000 11.539
45.24000 10.060
45.26000 14.180
45.28000 16.798
45.30000 15.496
45.32000 13.006
45.34000 15.181
45.36000 20.182
45.38000 21.610
45.40000 21.641
45.42000 16.020
45.44000 20.572
45.46000 20.793
45.48000 19.370
45.50000 23.364
45.52000 24.634
45.54000 26.267
45.56000 26.574
45.58000 28.061
45.60000 30.663
45.62000 31.701
45.64000 33.029
45.66000 33.383
45.68000 38.582
45.70000 35.558
45.72000 33.914
45.74000 31.533
45.76000 33.736
45.78000 36.277
45.80000 39.625
45.82000 40.164
45.84000 40.196
45.86000 39.405
45.88000 42.460
45.90000 46.534
45.92000 52.361
45.94000 48.486
45.96000 45.185
45.98000 44.807
46.00000 48.917
46.02000 54.710
46.04000 54.677
46.06000 54.920
46.08000 53.196
46.10000 57.807
46.12000 56.312
46.14000 58.635
46.16000 63.110
46.18000 60.462
46.20000 62.581
46.22000 60.982
46.24000 63.726
46.26000 64.158
46.28000 64.980
46.30000 63.648
46.32000 64.802
46.34000 65.162
46.36000 67.361
46.38000 65.059
46.40000 63.864
46.42000 64.633
46.44000 63.420
46.46000 58.221
46.48000 58.158
46.50000 62.187
46.52000 59.810
46.54000 52.221
46.56000 52.694
46.58000 56.809
46.60000 56.901
46.62000 52.968
46.64000 52.451
46.66000 51.489
46.68000 48.140
46.70000 48.206
46.72000 43.094
46.74000 44.223
46.76000 40.477
46.78000 37.517
46.80000 30.889
46.82000 33.503
46.84000 30.621
46.86000 28.063
46.88000 28.714
46.90000 27.477
46.92000 27.623
46.94000 28.559
46.96000 28.938
46.98000 29.316
47.00000 24.334
47.02000 21.596
47.04000 21.733
47.06000 21.716
47.08000 20.137
47.10000 20.552
47.12000 18.570
47.14000 14.709
47.16000 13.604
47.18000 12.995
47.20000 9.780
47.22000 9.801
47.24000 11.962
47.26000 9.844
47.28000 9.867
47.30000 12.661
47.32000 14.725
47.34000 10.517
47.36000 6.758
47.38000 7.101
47.40000 7.306
47.42000 4.642
47.44000 3.034
47.46000 8.046
47.48000 6.545
47.50000 8.539
47.52000 4.222
47.54000 2.068
47.56000 0.698
47.58000 2.236
47.60000 2.274
47.62000 2.839
47.64000 0.734
47.66000 2.059
47.68000 1.298
47.70000 -1.371
47.72000 -2.765
47.74000 -1.049
47.76000 2.435
47.78000 1.015
47.80000 0.411
47.82000 2.367
47.84000 3.692
47.86000 4.110
47.88000 -1.756
47.90000 -1.913
47.92000 5.337
47.94000 4.111
47.96000 0.332
47.98000 1.148
48.00000 4.710
48.02000 4.733
48.04000 0.150
48.06000 4.106
48.08000 6.082
48.10000 2.281
48.12000 -1.595
48.14000 0.108
48.16000 -0.260
48.18000 -2.711
48.20000 -0.656
48.22000 -2.706
48.24000 -0.661
48.26000 1.112
48.28000 -0.261
48.30000 0.198
48.32000 1.360
48.34000 -1.860
48.36000 1.214
48.38000 0.489
48.40000 -0.977
48.42000 -1.719
48.44000 -1.306
48.46000 -2.215
48.48000 1.249
48.50000 5.175
48.52000 4.095
48.54000 2.291
48.56000 1.291
48.58000 1.296
48.60000 -0.468
48.62000 -0.908
48.64000 1.482
48.66000 1.009
48.68000 3.553
48.70000 -1.266
48.72000 -2.578
48.74000 0.454
48.76000 3.078
48.78000 -0.386
48.80000 0.789
48.82000 -0.838
48.84000 -1.526
48.86000 -2.613
48.88000 1.847
48.90000 3.822
48.92000 2.377
48.94000 2.517
48.96000 4.838
48.98000 2.253
49.00000 3.389
49.02000 0.822
49.04000 2.725
49.06000 2.752
49.08000 0.910
49.10000 -2.553
49.12000 4.288
49.14000 3.921
49.16000 0.902
49.18000 -0.212
49.20000 -1.206
49.22000 0.669
49.24000 -0.086
49.26000 0.181
49.28000 2.928
49.30000 3.532
49.32000 3.217
49.34000 1.006
49.36000 4.762
49.38000 1.162
49.40000 1.817
49.42000 1.221
49.44000 3.606
49.46000 3.190
49.48000 2.126
49.50000 4.090
49.52000 3.740
49.54000 3.465
49.56000 1.451
49.58000 2.073
49.60000 2.999
49.62000 2.521
49.64000 2.640
49.66000 3.681
49.68000 2.188
49.70000 -2.584
49.72000 -0.328
49.74000 0.369
49.76000 3.296
49.78000 2.585
49.80000 4.852
49.82000 6.984
49.84000 1.308
49.86000 -0.033
49.88000 2.412
49.90000 -1.065
49.92000 -1.090
49.94000 4.144
49.96000 1.862
49.98000 -0.669
50.00000 -0.662
50.02000 1.179
50.04000 3.153
50.06000 0.764
50.08000 0.546
50.10000 2.846
50.12000 1.011
50.14000 2.133
50.16000 4.360
50.18000 -0.858
50.20000 -1.004
50.22000 2.197
50.24000 4.653
50.26000 3.308
50.28000 0.663
50.30000 0.287
50.32000 3.558
50.34000 0.160
50.36000 3.326
50.38000 7.628
50.40000 5.582
50.42000 1.929
50.44000 1.212
50.46000 -2.533
50.48000 -0.129
50.50000 0.507
50.52000 0.477
50.54000 3.295
50.56000 0.273
50.58000 1.612
50.60000 4.080
50.62000 2.784
50.64000 3.948
50.66000 3.479
50.68000 0.396
50.70000 1.321
50.72000 1.508
50.74000 2.757
50.76000 6.042
50.78000 3.133
50.80000 6.999
50.82000 4.791
50.84000 2.865
50.86000 -0.318
50.88000 3.009
50.90000 4.196
50.92000 2.965
50.94000 0.928
50.96000 0.985
50.98000 -1.747
51.00000 1.544
51.02000 3.280
51.04000 4.310
51.06000 3.737
51.08000 5.861
51.10000 3.910
51.12000 1.944
51.14000 2.434
51.16000 3.456
51.18000 0.326
51.20000 2.655
51.22000 5.881
51.24000 2.304
51.26000 4.634
51.28000 0.673
51.30000 -2.488
51.32000 3.672
51.34000 3.407
51.36000 5.518
51.38000 5.670
51.40000 0.537
51.42000 1.027
51.44000 0.181
51.46000 3.760
51.48000 4.978
51.50000 4.475
51.52000 4.808
51.54000 5.426
51.56000 4.440
51.58000 3.674
51.60000 3.758
51.62000 4.673
51.64000 4.692
51.66000 1.372
51.68000 -0.449
51.70000 3.389
51.72000 3.809
51.74000 1.997
51.76000 1.440
51.78000 1.626
51.80000 4.615
51.82000 -0.296
51.84000 0.972
51.86000 6.040
51.88000 6.899
51.90000 4.672
51.92000 5.297
51.94000 4.836
51.96000 4.626
51.98000 3.088
52.00000 6.561
52.02000 7.391
52.04000 6.729
52.06000 4.709
52.08000 5.585
52.10000 7.159
52.12000 6.114
52.14000 6.913
52.16000 3.417
52.18000 5.841
52.20000 10.368
52.22000 5.288
52.24000 4.154
52.26000 3.764
52.28000 0.287
52.30000 3.955
52.32000 4.414
52.34000 3.882
52.36000 4.231
52.38000 4.531
52.40000 3.144
52.42000 3.648
52.44000 1.253
52.46000 3.598
52.48000 3.440
52.50000 -1.209
52.52000 -2.444
52.54000 3.319
52.56000 2.988
52.58000 1.797
52.60000 0.034
52.62000 5.493
52.64000 3.776
52.66000 4.027
52.68000 5.038
52.70000 3.740
52.72000 1.351
52.74000 -1.788
52.76000 1.542
52.78000 6.066
52.80000 4.328
52.82000 3.267
52.84000 2.946
52.86000 1.037
52.88000 1.773
52.90000 0.806
52.92000 1.725
52.94000 3.909
52.96000 3.038
52.98000 0.177
53.00000 1.249
53.02000 2.281
53.04000 2.605
53.06000 1.856
53.08000 -2.191
53.10000 1.949
53.12000 2.156
53.14000 0.333
53.16000 -1.289
53.18000 -1.817
53.20000 0.542
53.22000 2.633
53.24000 -1.531
53.26000 0.653
53.28000 -1.614
53.30000 1.586
53.32000 -0.743
53.34000 -2.136
53.36000 1.791
53.38000 2.791
53.40000 4.661
53.42000 4.098
53.44000 0.329
53.46000 3.015
53.48000 0.175
53.50000 3.339
53.52000 3.467
53.54000 -0.253
53.56000 -0.581
53.58000 -0.820
53.60000 1.137
53.62000 -0.932
53.64000 1.189
53.66000 5.100
53.68000 1.054
53.70000 1.433
53.72000 2.385
53.74000 -0.433
53.76000 0.942
53.78000 0.346
53.80000 1.634
53.82000 0.434
53.84000 -0.255
53.86000 0.321
53.88000 1.102
53.90000 -0.026
53.92000 -1.673
53.94000 0.554
53.96000 1.209
53.98000 2.506
54.00000 3.821
54.02000 3.278
54.04000 1.162
54.06000 -1.017
54.08000 -0.071
54.10000 -0.733
54.12000 -0.774
54.14000 0.079
54.16000 5.536
54.18000 3.496
54.20000 -0.283
54.22000 -1.546
54.24000 -1.691
54.26000 0.800
54.28000 1.563
54.30000 -0.048
54.32000 -1.488
54.34000 -2.424
54.36000 0.048
54.38000 -0.592
54.40000 -2.460
54.42000 -1.976
54.44000 -1.290
54.46000 -2.171
54.48000 0.458
54.50000 1.372
54.52000 0.392
54.54000 1.366
54.56000 -0.579
54.58000 1.139
54.60000 -0.460
54.62000 -0.962
54.64000 0.102
54.66000 1.845
54.68000 2.300
54.70000 1.129
54.72000 7.617
54.74000 3.233
54.76000 -0.663
54.78000 0.109
54.80000 2.430
54.82000 5.444
54.84000 5.745
54.86000 2.062
54.88000 0.163
54.90000 1.064
54.92000 -2.441
54.94000 1.651
54.96000 -1.335
54.98000 -0.467
55.00000 1.022
55.02000 -1.300
55.04000 -1.243
55.06000 2.679
55.08000 2.510
55.10000 2.732
55.12000 1.389
55.14000 3.037
55.16000 2.563
55.18000 -0.507
55.20000 -0.092
55.22000 4.068
55.24000 3.583
55.26000 0.330
55.28000 -0.771
55.30000 1.245
55.32000 3.457
55.34000 1.094
55.36000 3.108
55.38000 1.911
55.40000 3.560
55.42000 5.498
55.44000 3.764
55.46000 1.631
55.48000 3.740
55.50000 3.929
55.52000 -0.809
55.54000 -1.257
55.56000 -1.772
55.58000 -2.395
55.60000 -0.739
55.62000 -2.049
55.64000 -0.176
55.66000 0.770
55.68000 0.225
55.70000 1.899
55.72000 4.420
55.74000 4.711
55.76000 5.532
55.78000 4.907
55.80000 7.687
55.82000 5.549
55.84000 3.265
55.86000 3.075
55.88000 2.715
55.90000 1.413
55.92000 0.911
55.94000 0.459
55.96000 1.528
55.98000 1.776
56.00000 3.689
56.02000 2.312
56.04000 0.663
56.06000 0.828
56.08000 1.532
56.10000 0.147
56.12000 1.605
56.14000 1.901
56.16000 0.534
56.18000 1.757
56.20000 3.712
56.22000 2.569
56.24000 5.293
56.26000 5.239
56.28000 1.981
56.30000 -0.520
56.32000 1.156
56.34000 2.182
56.36000 4.839
56.38000 1.525
56.40000 1.020
56.42000 -0.341
56.44000 0.640
56.46000 1.095
56.48000 0.305
56.50000 1.685
56.52000 4.093
56.54000 2.150
56.56000 -2.369
56.58000 -1.817
56.60000 0.840
56.62000 2.603
56.64000 1.297
56.66000 2.346
56.68000 0.055
56.70000 -0.439
56.72000 1.776
56.74000 1.123
56.76000 3.134
56.78000 7.134
56.80000 4.007
56.82000 1.656
56.84000 -0.040
56.86000 1.770
56.88000 2.055
56.90000 4.110
56.92000 1.978
56.94000 -0.039
56.96000 -2.347
56.98000 0.505
57.00000 1.636
57.02000 1.593
57.04000 5.137
57.06000 5.913
57.08000 1.871
57.10000 2.196
57.12000 2.820
57.14000 0.078
57.16000 -1.992
57.18000 -1.377
57.20000 0.014
57.22000 0.796
57.24000 -1.921
57.26000 -1.257
57.28000 2.257
57.30000 3.259
57.32000 0.998
57.34000 3.295
57.36000 3.599
57.38000 2.066
57.40000 4.347
57.42000 1.655
57.44000 1.654
57.46000 2.117
57.48000 3.057
57.50000 3.545
57.52000 1.930
57.54000 0.832
57.56000 0.688
57.58000 2.888
57.60000 3.668
57.62000 2.107
57.64000 2.817
57.66000 2.664
57.68000 3.025
57.70000 1.536
57.72000 3.541
57.74000 2.443
57.76000 1.660
57.78000 1.241
57.80000 -2.042
57.82000 0.751
57.84000 5.823
57.86000 4.113
57.88000 0.026
57.90000 2.126
57.92000 4.224
57.94000 1.014
57.96000 3.282
57.98000 2.000
58.00000 2.774
58.02000 2.193
58.04000 3.748
58.06000 4.684
58.08000 3.454
58.10000 2.375
58.12000 2.571
58.14000 -0.063
58.16000 -1.088
58.18000 1.313
58.20000 4.240
58.22000 4.069
58.24000 2.497
58.26000 2.316
58.28000 4.416
58.30000 1.884
58.32000 2.540
58.34000 4.677
58.36000 4.110
58.38000 2.718
58.40000 3.782
58.42000 1.965
58.44000 2.175
58.46000 3.507
58.48000 0.971
58.50000 2.532
58.52000 1.733
58.54000 1.141
58.56000 3.931
58.58000 2.032
58.60000 0.874
58.62000 2.602
58.64000 1.057
58.66000 -0.699
58.68000 -2.295
58.70000 0.714
58.72000 5.425
58.74000 8.101
58.76000 5.620
58.78000 4.826
58.80000 5.669
58.82000 6.480
58.84000 0.204
58.86000 1.061
58.88000 2.816
58.90000 5.768
58.92000 4.739
58.94000 2.353
58.96000 1.065
58.98000 3.266
59.00000 7.641
59.02000 4.563
59.04000 1.234
59.06000 -1.048
59.08000 -1.189
59.10000 -0.168
59.12000 -0.125
59.14000 -0.613
59.16000 1.340
59.18000 5.792
59.20000 3.791
59.22000 3.982
59.24000 1.322
59.26000 -0.442
59.28000 -2.318
59.30000 0.608
59.32000 -0.908
59.34000 1.729
59.36000 4.198
59.38000 2.796
59.40000 4.548
59.42000 5.398
59.44000 3.535
59.46000 0.301
59.48000 2.271
59.50000 1.235
59.52000 0.151
59.54000 -1.200
59.56000 0.415
59.58000 0.083
59.60000 0.256
59.62000 1.550
59.64000 2.466
59.66000 0.021
59.68000 1.363
59.70000 2.380
59.72000 0.433
59.74000 -1.337
59.76000 0.346
59.78000 1.548
59.80000 -0.387
59.82000 0.521
59.84000 -1.569
59.86000 -2.314
59.88000 -0.504
59.90000 0.485
59.92000 -0.335
59.94000 4.978
59.96000 1.925
59.98000 1.952
60.00000 0.628
60.02000 3.278
60.04000 3.489
60.06000 2.575
60.08000 1.323
60.10000 -1.139
60.12000 -1.686
60.14000 -1.151
60.16000 0.540
60.18000 1.745
60.20000 1.551
60.22000 3.479
60.24000 4.192
60.26000 2.224
60.28000 1.373
60.30000 -0.042
60.32000 0.180
60.34000 0.835
60.36000 0.296
60.38000 2.789
60.40000 0.881
60.42000 0.182
60.44000 0.939
60.46000 3.218
60.48000 3.370
60.50000 2.552
60.52000 -0.313
60.54000 1.666
60.56000 1.097
60.58000 -2.285
60.60000 -0.938
60.62000 -0.001
60.64000 0.167
60.66000 -0.272
60.68000 0.813
60.70000 1.483
60.72000 2.055
60.74000 1.056
60.76000 3.496
60.78000 2.643
60.80000 1.300
60.82000 1.196
60.84000 1.571
60.86000 0.543
60.88000 -0.095
60.90000 2.026
60.92000 3.794
60.94000 1.630
60.96000 0.784
60.98000 1.806
61.00000 4.423
61.02000 2.544
61.04000 1.193
61.06000 1.003
61.08000 1.968
61.10000 0.692
61.12000 -0.455
61.14000 2.734
61.16000 1.119
61.18000 -1.469
61.20000 -2.271
61.22000 0.809
61.24000 1.174
61.26000 0.776
61.28000 3.857
61.30000 5.908
61.32000 5.237
61.34000 4.184
61.36000 0.993
61.38000 -0.431
61.40000 0.257
61.42000 2.004
61.44000 -0.004
61.46000 -0.995
61.48000 -0.078
61.50000 3.305
61.52000 3.042
61.54000 -0.545
61.56000 3.236
61.58000 4.540
61.60000 0.371
61.62000 1.908
61.64000 3.489
61.66000 0.535
61.68000 0.074
61.70000 0.305
61.72000 2.115
61.74000 1.352
61.76000 0.155
61.78000 -1.195
61.80000 -1.586
61.82000 -2.196
61.84000 2.079
61.86000 3.831
61.88000 -0.101
61.90000 2.130
61.92000 -0.216
61.94000 0.072
61.96000 2.239
61.98000 3.163
62.00000 1.871
62.02000 2.588
62.04000 0.515
62.06000 -2.242
62.08000 1.043
62.10000 -0.087
62.12000 1.096
62.14000 1.917
62.16000 4.004
62.18000 1.961
62.20000 3.398
62.22000 1.829
62.24000 1.366
62.26000 2.737
62.28000 2.393
62.30000 1.265
62.32000 0.518
62.34000 -0.265
62.36000 -2.246
62.38000 0.878
62.40000 2.030
62.42000 1.143
62.44000 2.991
62.46000 2.367
62.48000 -0.144
62.50000 2.035
62.52000 1.899
62.54000 -0.256
62.56000 0.883
62.58000 2.946
62.60000 3.770
62.62000 0.704
62.64000 2.745
62.66000 3.348
62.68000 2.834
62.70000 3.350
62.72000 0.018
62.74000 1.215
62.76000 3.653
62.78000 5.309
62.80000 0.521
62.82000 0.513
62.84000 0.101
62.86000 -0.571
62.88000 -0.418
62.90000 2.328
62.92000 0.828
62.94000 0.624
62.96000 1.364
62.98000 0.472
63.00000 0.965
63.02000 1.276
63.04000 1.311
63.06000 0.511
63.08000 -2.241
63.10000 0.074
63.12000 -0.031
63.14000 -0.576
63.16000 0.080
63.18000 0.688
63.20000 -0.119
63.22000 -2.248
63.24000 -0.115
63.26000 0.889
63.28000 0.200
63.30000 -0.795
63.32000 -0.057
63.34000 0.069
63.36000 -1.618
63.38000 -0.288
63.40000 1.469
63.42000 0.757
63.44000 -0.649
63.46000 0.779
63.48000 0.819
63.50000 2.233
63.52000 1.556
63.54000 -0.097
63.56000 1.616
63.58000 0.927
63.60000 -0.816
63.62000 0.192
63.64000 0.288
63.66000 -2.263
63.68000 1.192
63.70000 0.159
63.72000 -1.492
63.74000 -1.086
63.76000 0.028
63.78000 1.559
63.80000 -0.867
63.82000 -0.268
63.84000 0.031
63.86000 0.411
63.88000 2.069
63.90000 0.673
63.92000 0.431
63.94000 -2.030
63.96000 2.168
63.98000 2.844
64.00000 0.905
64.02000 0.393
64.04000 0.511
64.06000 0.899
64.08000 0.733
64.10000 -0.546
64.12000 3.138
64.14000 0.911
64.16000 -1.453
64.18000 0.408
64.20000 1.107
64.22000 2.920
64.24000 0.749
64.26000 0.080
64.28000 -0.642
64.30000 -0.448
64.32000 -0.341
64.34000 2.395
64.36000 1.659
64.38000 -0.643
64.40000 -0.194
64.42000 -1.137
64.44000 0.312
64.46000 2.055
64.48000 1.225
64.50000 2.669
64.52000 -0.245
64.54000 -2.250
64.56000 1.523
64.58000 3.043
64.60000 2.213
64.62000 -1.496
64.64000 -0.206
64.66000 0.269
64.68000 3.540
64.70000 3.280
64.72000 0.698
64.74000 -0.157
64.76000 1.534
64.78000 1.955
64.80000 4.326
64.82000 2.099
64.84000 0.876
64.86000 2.423
64.88000 -1.041
64.90000 -0.026
64.92000 1.449
64.94000 4.819
64.96000 3.768
64.98000 4.101
65.00000 -0.107
65.02000 -0.611
65.04000 2.170
65.06000 0.021
65.08000 0.575
65.10000 1.620
65.12000 3.169
65.14000 2.801
65.16000 2.281
65.18000 2.255
65.20000 0.944
65.22000 -1.178
65.24000 0.010
65.26000 -1.859
65.28000 0.508
65.30000 0.142
65.32000 -1.628
65.34000 0.364
65.36000 0.615
65.38000 -0.787
65.40000 -2.285
65.42000 -0.876
65.44000 -1.118
65.46000 -0.068
65.48000 2.052
65.50000 0.611
65.52000 0.609
65.54000 2.593
65.56000 0.523
65.58000 -0.627
65.60000 0.930
65.62000 -0.481
65.64000 -0.371
65.66000 1.817
65.68000 2.020
65.70000 0.864
65.72000 2.748
65.74000 0.367
65.76000 -2.290
65.78000 -1.809
65.80000 1.780
65.82000 -0.725
65.84000 -2.296
65.86000 0.476
65.88000 -0.761
65.90000 -1.618
65.92000 -1.414
65.94000 1.230
65.96000 3.668
65.98000 1.870
66.00000 1.930
66.02000 2.905
66.04000 -0.254
66.06000 -0.404
66.08000 0.182
66.10000 2.787
66.12000 2.649
66.14000 3.432
66.16000 1.494
66.18000 2.039
66.20000 3.205
66.22000 0.496
66.24000 0.025
66.26000 -1.431
66.28000 0.940
66.30000 1.873
66.32000 3.125
66.34000 1.563
66.36000 2.868
66.38000 -0.224
66.40000 -0.984
66.42000 -1.734
66.44000 -0.578
66.46000 2.044
66.48000 4.878
66.50000 2.285
66.52000 -1.747
66.54000 3.511
66.56000 3.317
66.58000 2.631
66.60000 2.508
66.62000 2.494
66.64000 2.046
66.66000 6.212
66.68000 6.622
66.70000 3.563
66.72000 2.509
66.74000 3.900
66.76000 3.170
66.78000 4.046
66.80000 9.889
66.82000 8.443
66.84000 6.616
66.86000 6.622
66.88000 7.631
66.90000 7.756
66.92000 5.560
66.94000 7.216
66.96000 10.651
66.98000 9.681
67.00000 10.238
67.02000 10.716
67.04000 11.079
67.06000 12.462
67.08000 10.855
67.10000 9.053
67.12000 6.629
67.14000 7.776
67.16000 8.181
67.18000 10.721
67.20000 13.249
67.22000 11.372
67.24000 12.457
67.26000 12.129
67.28000 11.849
67.30000 12.479
67.32000 14.247
67.34000 14.178
67.36000 15.193
67.38000 13.596
67.40000 11.264
67.42000 14.822
67.44000 15.368
67.46000 14.950
67.48000 14.663
67.50000 12.451
67.52000 11.192
67.54000 9.757
67.56000 11.128
67.58000 11.819
67.60000 13.371
67.62000 12.579
67.64000 12.107
67.66000 10.998
67.68000 11.325
67.70000 11.961
67.72000 9.919
67.74000 7.759
67.76000 9.866
67.78000 9.504
67.80000 8.719
67.82000 5.560
67.84000 5.661
67.86000 6.609
67.88000 7.877
67.90000 5.771
67.92000 5.122
67.94000 5.751
67.96000 4.038
67.98000 4.493
68.00000 3.935
68.02000 3.026
68.04000 3.388
68.06000 3.141
68.08000 3.458
68.10000 2.832
68.12000 0.815
68.14000 1.220
68.16000 2.606
68.18000 1.621
68.20000 3.483
68.22000 2.694
68.24000 0.579
68.26000 0.492
68.28000 3.100
68.30000 4.858
68.32000 1.630
68.34000 0.035
68.36000 2.248
68.38000 -0.002
68.40000 -0.381
68.42000 -0.235
68.44000 3.855
68.46000 0.901
68.48000 -0.676
68.50000 1.788
68.52000 1.588
68.54000 -0.321
68.56000 -0.094
68.58000 0.616
68.60000 1.192
68.62000 0.833
68.64000 -0.463
68.66000 -0.578
68.68000 1.664
68.70000 2.218
68.72000 -1.041
68.74000 -1.599
68.76000 -2.228
68.78000 0.419
68.80000 -0.559
68.82000 -1.353
68.84000 -1.417
68.86000 -0.115
68.88000 -0.345
68.90000 -0.751
68.92000 -1.719
68.94000 -0.584
68.96000 -0.012
68.98000 0.087
69.00000 0.278
69.02000 -0.101
69.04000 0.307
69.06000 -0.721
69.08000 2.167
69.10000 1.514
69.12000 2.214
69.14000 1.971
69.16000 1.988
69.18000 1.349
69.20000 0.562
69.22000 3.416
69.24000 5.923
69.26000 4.303
69.28000 0.499
69.30000 0.215
69.32000 -1.766
69.34000 0.220
69.36000 3.220
69.38000 3.339
69.40000 1.740
69.42000 -1.403
69.44000 0.616
69.46000 -2.171
69.48000 1.513
69.50000 1.972
69.52000 1.087
69.54000 -1.897
69.56000 0.850
69.58000 3.109
69.60000 5.127
69.62000 1.938
69.64000 1.784
69.66000 1.520
69.68000 1.991
69.70000 -0.324
69.72000 0.516
69.74000 2.056
69.76000 2.552
69.78000 -0.724
69.80000 -1.969
69.82000 0.098
69.84000 2.178
69.86000 1.236
69.88000 1.317
69.90000 0.937
69.92000 -0.362
69.94000 -0.430
69.96000 1.287
69.98000 0.483
70.00000 -1.299
70.02000 0.884
70.04000 2.789
70.06000 0.658
70.08000 -0.191
70.10000 0.767
70.12000 3.194
70.14000 1.754
70.16000 1.505
70.18000 1.688
70.20000 0.671
70.22000 4.372
70.24000 5.783
70.26000 0.090
70.28000 -0.027
70.30000 0.772
70.32000 3.091
70.34000 1.332
70.36000 -2.127
70.38000 1.428
70.40000 3.898
70.42000 4.217
70.44000 4.686
70.46000 1.401
70.48000 -0.634
70.50000 0.634
70.52000 3.662
70.54000 2.335
70.56000 0.303
70.58000 1.472
70.60000 1.595
70.62000 1.626
70.64000 0.145
70.66000 2.753
70.68000 2.930
70.70000 3.144
70.72000 0.161
70.74000 1.482
70.76000 0.980
70.78000 2.343
70.80000 3.870
70.82000 5.440
70.84000 0.698
70.86000 2.903
70.88000 4.322
70.90000 4.755
70.92000 2.244
70.94000 3.054
70.96000 -1.006
70.98000 -2.119
71.00000 0.427
71.02000 -0.082
71.04000 -0.006
71.06000 -1.132
71.08000 0.371
71.10000 2.219
71.12000 2.960
71.14000 3.242
71.16000 0.132
71.18000 0.141
71.20000 0.602
71.22000 0.614
71.24000 1.679
71.26000 0.700
71.28000 1.460
71.30000 3.351
71.32000 5.262
71.34000 3.423
71.36000 4.517
71.38000 5.143
71.40000 2.537
71.42000 0.796
71.44000 2.700
71.46000 0.974
71.48000 0.801
71.50000 0.368
71.52000 1.468
71.54000 2.351
71.56000 1.967
71.58000 -1.269
71.60000 -1.568
71.62000 0.239
71.64000 -0.997
71.66000 1.036
71.68000 1.943
71.70000 -0.441
71.72000 0.527
71.74000 3.761
71.76000 2.161
71.78000 -0.877
71.80000 2.271
71.82000 -1.285
71.84000 -0.210
71.86000 1.964
71.88000 2.328
71.90000 -0.715
71.92000 2.231
71.94000 2.455
71.96000 1.738
71.98000 1.653
72.00000 2.219
72.02000 2.660
72.04000 3.218
72.06000 1.912
72.08000 0.765
72.10000 -1.239
72.12000 2.348
72.14000 2.369
72.16000 -2.086
72.18000 1.432
72.20000 4.936
72.22000 4.112
72.24000 5.289
72.26000 6.143
72.28000 2.306
72.30000 -1.374
72.32000 -0.194
72.34000 1.293
72.36000 1.919
72.38000 1.491
72.40000 4.001
72.42000 5.443
72.44000 3.332
72.46000 1.202
72.48000 0.648
72.50000 4.714
72.52000 3.514
72.54000 -1.730
72.56000 -1.375
72.58000 -0.487
72.60000 -1.746
72.62000 0.069
72.64000 1.806
72.66000 2.781
72.68000 1.201
72.70000 0.624
72.72000 1.070
72.74000 -0.285
72.76000 0.862
72.78000 2.123
72.80000 -0.088
72.82000 -0.213
72.84000 0.689
72.86000 -0.277
72.88000 -0.948
72.90000 -0.929
72.92000 0.596
72.94000 0.777
72.96000 -0.125
72.98000 2.003
73.00000 0.042
73.02000 3.898
73.04000 6.062
73.06000 4.726
73.08000 3.276
73.10000 0.934
73.12000 -0.265
73.14000 1.834
73.16000 3.166
73.18000 2.426
73.20000 -0.228
73.22000 -2.070
73.24000 2.199
73.26000 2.636
73.28000 -0.122
73.30000 2.913
73.32000 0.656
73.34000 0.260
73.36000 1.148
73.38000 3.071
73.40000 3.275
73.42000 7.102
73.44000 4.527
73.46000 0.416
73.48000 2.644
73.50000 3.742
73.52000 6.801
73.54000 7.955
73.56000 3.865
73.58000 3.133
73.60000 2.773
73.62000 3.357
73.64000 -0.725
73.66000 -1.950
73.68000 1.957
73.70000 3.317
73.72000 2.810
73.74000 3.251
73.76000 3.549
73.78000 3.368
73.80000 4.976
73.82000 1.294
73.84000 -0.622
73.86000 -2.073
73.88000 -1.790
73.90000 -1.925
73.92000 0.613
73.94000 2.560
73.96000 0.864
73.98000 -0.593
74.00000 0.594
74.02000 2.569
74.04000 2.614
74.06000 -1.597
74.08000 1.031
74.10000 3.846
74.12000 2.242
74.14000 2.702
74.16000 1.874
74.18000 1.507
74.20000 1.176
74.22000 0.745
74.24000 2.566
74.26000 1.220
74.28000 2.151
74.30000 -0.319
74.32000 -1.187
74.34000 -0.291
74.36000 0.937
74.38000 1.488
74.40000 1.838
74.42000 3.047
74.44000 3.970
74.46000 3.361
74.48000 3.449
74.50000 5.197
74.52000 6.645
74.54000 4.026
74.56000 3.799
74.58000 3.409
74.60000 3.149
74.62000 1.313
74.64000 1.293
74.66000 -0.149
74.68000 0.794
74.70000 3.454
74.72000 5.841
74.74000 2.388
74.76000 2.498
74.78000 5.571
74.80000 3.228
74.82000 -0.637
74.84000 -2.055
74.86000 1.490
74.88000 3.957
74.90000 8.360
74.92000 8.008
74.94000 3.716
74.96000 2.804
74.98000 2.615
75.00000 2.589
75.02000 4.449
75.04000 5.160
75.06000 4.667
75.08000 5.367
75.10000 3.649
75.12000 3.245
75.14000 4.601
75.16000 3.300
75.18000 3.431
75.20000 -0.011
75.22000 1.441
75.24000 1.589
75.26000 1.499
75.28000 0.487
75.30000 2.230
75.32000 2.288
75.34000 -0.556
75.36000 -1.097
75.38000 -0.259
75.40000 0.652
75.42000 2.622
75.44000 -1.986
75.46000 1.069
75.48000 4.380
75.50000 2.570
75.52000 1.124
75.54000 -0.232
75.56000 -0.106
75.58000 0.856
75.60000 2.554
75.62000 2.417
75.64000 -1.506
75.66000 0.048
75.68000 2.492
75.70000 3.327
75.72000 -0.757
75.74000 -0.506
75.76000 2.652
75.78000 4.018
75.80000 4.593
75.82000 1.562
75.84000 0.067
75.86000 0.231
75.88000 0.333
75.90000 1.368
75.92000 3.828
75.94000 4.705
75.96000 4.908
75.98000 -0.322
76.00000 0.065
76.02000 1.320
76.04000 0.380
76.06000 1.266
76.08000 3.056
76.10000 3.646
76.12000 3.401
76.14000 -0.237
76.16000 -0.254
76.18000 0.258
76.20000 -2.106
76.22000 -0.190
76.24000 1.127
76.26000 1.041
76.28000 0.606
76.30000 -2.038
76.32000 -1.820
76.34000 3.257
76.36000 4.681
76.38000 3.386
76.40000 0.617
76.42000 1.498
76.44000 0.010
76.46000 2.557
76.48000 2.660
76.50000 2.386
76.52000 1.100
76.54000 0.960
76.56000 1.106
76.58000 4.563
76.60000 1.880
76.62000 -1.281
76.64000 0.280
76.66000 0.371
76.68000 -0.258
76.70000 1.372
76.72000 -1.668
76.74000 -0.958
76.76000 0.835
76.78000 1.052
76.80000 2.017
76.82000 1.547
76.84000 3.290
76.86000 0.745
76.88000 -2.091
76.90000 1.809
76.92000 3.151
76.94000 1.453
76.96000 4.901
76.98000 4.655
77.00000 2.832
77.02000 2.959
77.04000 0.747
77.06000 -0.600
77.08000 0.437
77.10000 2.743
77.12000 3.859
77.14000 3.392
77.16000 1.901
77.18000 1.772
77.20000 1.184
77.22000 3.599
77.24000 4.943
77.26000 1.398
77.28000 3.541
77.30000 5.511
77.32000 1.987
77.34000 2.435
77.36000 3.030
77.38000 4.980
77.40000 1.800
77.42000 0.577
77.44000 3.307
77.46000 2.241
77.48000 0.721
77.50000 2.244
77.52000 3.636
77.54000 -0.130
77.56000 0.056
77.58000 1.392
77.60000 3.128
77.62000 2.856
77.64000 2.631
77.66000 1.783
77.68000 4.335
77.70000 6.680
77.72000 8.302
77.74000 4.035
77.76000 2.409
77.78000 1.797
77.80000 1.923
77.82000 2.556
77.84000 0.335
77.86000 -2.109
77.88000 -1.763
77.90000 2.318
77.92000 6.665
77.94000 3.069
77.96000 0.828
77.98000 3.742
78.00000 1.804
78.02000 -1.672
78.04000 5.815
78.06000 4.772
78.08000 1.504
78.10000 2.481
78.12000 1.290
78.14000 4.191
78.16000 3.596
78.18000 4.185
78.20000 1.129
78.22000 1.231
78.24000 -0.328
78.26000 -0.653
78.28000 0.667
78.30000 3.052
78.32000 4.581
78.34000 4.690
78.36000 0.293
78.38000 5.335
78.40000 4.415
78.42000 0.871
78.44000 4.230
78.46000 1.908
78.48000 -2.139
78.50000 2.539
78.52000 5.028
78.54000 1.770
78.56000 4.031
78.58000 4.461
78.60000 4.878
78.62000 3.229
78.64000 2.005
78.66000 2.848
78.68000 1.121
78.70000 -1.683
78.72000 0.826
78.74000 0.783
78.76000 4.860
78.78000 0.686
78.80000 -0.069
78.82000 2.030
78.84000 2.962
78.86000 4.053
78.88000 1.644
78.90000 -0.477
78.92000 -2.015
78.94000 -2.190
78.96000 -0.415
78.98000 0.195
79.00000 -0.184
79.02000 -0.512
79.04000 -1.434
79.06000 0.783
79.08000 2.310
79.10000 3.936
79.12000 4.358
79.14000 2.986
79.16000 2.187
79.18000 3.123
79.20000 -0.635
79.22000 4.559
79.24000 5.464
79.26000 3.859
79.28000 -0.025
79.30000 -0.594
79.32000 -0.186
79.34000 0.526
79.36000 1.023
79.38000 1.440
79.40000 1.463
79.42000 -1.628
79.44000 -2.228
79.46000 2.074
79.48000 4.837
79.50000 1.137
79.52000 0.527
79.54000 6.042
79.56000 11.018
79.58000 5.057
79.60000 1.966
79.62000 4.206
79.64000 3.911
79.66000 1.247
79.68000 2.835
79.70000 5.798
79.72000 3.227
79.74000 3.787
79.76000 3.124
79.78000 0.420
79.80000 -0.759
79.82000 0.537
79.84000 4.162
79.86000 1.782
79.88000 -2.248
79.90000 -0.727
79.92000 4.211
79.94000 2.859
79.96000 2.090
79.98000 5.196
80.00000 3.155
80.02000 5.875
80.04000 3.059
80.06000 8.042
80.08000 6.527
80.10000 5.622
80.12000 3.819
80.14000 3.249
80.16000 6.678
80.18000 8.777
80.20000 8.910
80.22000 9.510
80.24000 9.627
80.26000 7.525
80.28000 9.074
80.30000 12.302
80.32000 8.969
80.34000 8.528
80.36000 6.134
80.38000 6.573
80.40000 7.826
80.42000 7.192
80.44000 4.599
80.46000 7.663
80.48000 12.434
80.50000 9.163
80.52000 9.106
80.54000 8.748
80.56000 7.517
80.58000 8.515
80.60000 9.025
80.62000 10.520
80.64000 12.652
80.66000 14.206
80.68000 14.490
80.70000 16.258
80.72000 15.881
80.74000 10.829
80.76000 13.627
80.78000 14.729
80.80000 18.055
80.82000 16.245
80.84000 18.709
80.86000 19.826
80.88000 20.091
80.90000 20.940
80.92000 19.841
80.94000 16.375
80.96000 15.724
80.98000 13.801
81.00000 13.984
81.02000 20.981
81.04000 16.702
81.06000 19.888
81.08000 23.229
81.10000 19.548
81.12000 16.194
81.14000 16.008
81.16000 14.855
81.18000 17.023
81.20000 19.579
81.22000 19.936
81.24000 20.946
81.26000 19.553
81.28000 22.105
81.30000 30.416
81.32000 26.434
81.34000 20.509
81.36000 25.200
81.38000 24.708
81.40000 25.335
81.42000 24.456
81.44000 23.003
81.46000 19.926
81.48000 23.612
81.50000 22.822
81.52000 20.462
81.54000 18.951
81.56000 18.488
81.58000 19.040
81.60000 22.576
81.62000 19.150
81.64000 19.006
81.66000 22.345
81.68000 17.592
81.70000 14.627
81.72000 15.246
81.74000 18.148
81.76000 19.639
81.78000 17.475
81.80000 16.488
81.82000 14.366
81.84000 16.472
81.86000 17.342
81.88000 16.217
81.90000 17.382
81.92000 17.600
81.94000 16.594
81.96000 15.214
81.98000 12.389
82.00000 8.617
82.02000 9.773
82.04000 9.788
82.06000 8.788
82.08000 9.502
82.10000 10.002
82.12000 6.532
82.14000 3.505
82.16000 4.571
82.18000 2.455
82.20000 5.839
82.22000 8.012
82.24000 6.170
82.26000 9.903
82.28000 6.531
82.30000 4.362
82.32000 3.436
82.34000 3.853
82.36000 3.327
82.38000 2.820
82.40000 2.225
82.42000 2.088
82.44000 -0.254
82.46000 1.067
82.48000 0.928
82.50000 2.590
82.52000 5.719
82.54000 6.836
82.56000 3.675
82.58000 3.232
82.60000 2.658
82.62000 3.891
82.64000 3.315
82.66000 4.518
82.68000 3.519
82.70000 1.874
82.72000 5.163
82.74000 5.606
82.76000 2.974
82.78000 -0.303
82.80000 -0.176
82.82000 0.151
82.84000 -1.466
82.86000 1.103
82.88000 0.354
82.90000 1.337
82.92000 2.801
82.94000 -0.274
82.96000 -2.292
82.98000 0.297
83.00000 4.437
83.02000 2.536
83.04000 0.607
83.06000 2.181
83.08000 -1.898
83.10000 -0.181
83.12000 -1.468
83.14000 0.537
83.16000 1.954
83.18000 2.402
83.20000 -1.065
83.22000 -1.249
83.24000 -1.591
83.26000 1.551
83.28000 1.952
83.30000 0.361
83.32000 -0.241
83.34000 -2.126
83.36000 0.488
83.38000 0.086
83.40000 -2.252
83.42000 0.612
83.44000 0.625
83.46000 -1.119
83.48000 -1.591
83.50000 -2.281
83.52000 -0.581
83.54000 2.238
83.56000 3.072
83.58000 -1.053
83.60000 -2.282
83.62000 0.346
83.64000 -0.535
83.66000 -0.077
83.68000 -0.480
83.70000 1.430
83.72000 4.007
83.74000 1.122
83.76000 3.014
83.78000 -0.979
83.80000 0.421
83.82000 -0.548
83.84000 1.137
83.86000 0.057
83.88000 0.092
83.90000 3.080
83.92000 5.215
83.94000 3.089
83.96000 3.472
83.98000 3.225
84.00000 0.993
84.02000 5.875
84.04000 5.351
84.06000 0.307
84.08000 -1.497
84.10000 2.488
84.12000 5.207
84.14000 3.266
84.16000 0.615
84.18000 -2.278
84.20000 0.181
84.22000 0.976
84.24000 1.044
84.26000 1.988
84.28000 4.280
84.30000 6.169
84.32000 6.090
84.34000 5.929
84.36000 7.548
84.38000 8.111
84.40000 3.646
84.42000 7.684
84.44000 8.810
84.46000 5.894
84.48000 9.033
84.50000 9.298
84.52000 8.240
84.54000 8.072
84.56000 6.563
84.58000 6.831
84.60000 7.690
84.62000 8.484
84.64000 6.806
84.66000 7.537
84.68000 7.870
84.70000 11.947
84.72000 12.896
84.74000 16.599
84.76000 17.403
84.78000 14.940
84.80000 16.178
84.82000 14.198
84.84000 12.568
84.86000 14.836
84.88000 15.644
84.90000 17.048
84.92000 13.799
84.94000 16.427
84.96000 17.443
84.98000 18.125
85.00000 17.409
85.02000 15.548
85.04000 19.767
85.06000 21.431
85.08000 20.060
85.10000 21.552
85.12000 20.090
85.14000 20.843
85.16000 25.322
85.18000 25.479
85.20000 18.982
85.22000 20.266
85.24000 21.223
85.26000 19.933
85.28000 19.696
85.30000 19.886
85.32000 17.071
85.34000 21.125
85.36000 21.980
85.38000 17.168
85.40000 21.113
85.42000 18.542
85.44000 21.020
85.46000 21.157
85.48000 19.901
85.50000 19.539
85.52000 16.610
85.54000 16.318
85.56000 18.405
85.58000 15.350
85.60000 19.012
85.62000 15.046
85.64000 17.764
85.66000 18.622
85.68000 17.898
85.70000 17.500
85.72000 16.576
85.74000 13.138
85.76000 14.525
85.78000 11.893
85.80000 11.621
85.82000 14.196
85.84000 12.580
85.86000 9.957
85.88000 9.724
85.90000 7.718
85.92000 7.833
85.94000 6.823
85.96000 7.910
85.98000 9.615
86.00000 9.761
86.02000 13.184
86.04000 9.395
86.06000 6.203
86.08000 9.735
86.10000 8.021
86.12000 5.937
86.14000 6.597
86.16000 8.150
86.18000 3.745
86.20000 0.801
86.22000 1.137
86.24000 4.821
86.26000 1.291
86.28000 -0.443
86.30000 2.855
86.32000 4.277
86.34000 4.096
86.36000 1.236
86.38000 -0.435
86.40000 -1.180
86.42000 2.419
86.44000 3.844
86.46000 2.674
86.48000 0.352
86.50000 0.203
86.52000 0.442
86.54000 1.706
86.56000 3.183
86.58000 -0.107
86.60000 1.771
86.62000 3.174
86.64000 1.824
86.66000 1.084
86.68000 -0.541
86.70000 -2.111
86.72000 1.066
86.74000 1.449
86.76000 -1.400
86.78000 1.577
86.80000 1.252
86.82000 2.022
86.84000 1.120
86.86000 -0.600
86.88000 -1.082
86.90000 1.382
86.92000 0.144
86.94000 0.578
86.96000 1.973
86.98000 3.636
87.00000 0.572
87.02000 1.978
87.04000 -2.066
87.06000 1.998
87.08000 0.748
87.10000 -1.753
87.12000 -0.192
87.14000 -1.157
87.16000 -1.445
87.18000 -1.343
87.20000 -0.852
87.22000 1.058
87.24000 -0.763
87.26000 -0.611
87.28000 4.463
87.30000 2.950
87.32000 -2.021
87.34000 1.498
87.36000 1.182
87.38000 1.562
87.40000 0.385
87.42000 3.272
87.44000 4.115
87.46000 2.457
87.48000 3.248
87.50000 0.619
87.52000 2.170
87.54000 1.767
87.56000 1.460
87.58000 1.479
87.60000 2.357
87.62000 1.756
87.64000 3.442
87.66000 2.403
87.68000 0.559
87.70000 2.161
87.72000 1.221
87.74000 0.300
87.76000 -0.353
87.78000 -1.146
87.80000 1.678
87.82000 0.845
87.84000 3.723
87.86000 0.727
87.88000 -0.631
87.90000 -0.349
87.92000 -0.490
87.94000 2.705
87.96000 3.564
87.98000 -0.181
88.00000 1.001
88.02000 1.404
88.04000 0.665
88.06000 1.416
88.08000 2.649
88.10000 3.403
88.12000 1.750
88.14000 3.814
88.16000 2.899
88.18000 0.050
88.20000 1.353
88.22000 4.546
88.24000 1.089
88.26000 0.021
88.28000 2.522
88.30000 1.683
88.32000 2.055
88.34000 1.708
88.36000 0.046
88.38000 1.758
88.40000 0.114
88.42000 -0.917
88.44000 1.239
88.46000 2.424
88.48000 2.687
88.50000 0.778
88.52000 -1.923
88.54000 2.142
88.56000 2.664
88.58000 3.379
88.60000 2.921
88.62000 2.819
88.64000 2.660
88.66000 1.802
88.68000 0.170
88.70000 2.824
88.72000 1.953
88.74000 3.593
88.76000 2.192
88.78000 0.967
88.80000 1.183
88.82000 1.301
88.84000 0.261
88.86000 3.544
88.88000 2.936
88.90000 2.406
88.92000 1.798
88.94000 1.749
88.96000 -0.158
88.98000 3.721
89.00000 2.708
89.02000 1.259
89.04000 3.009
89.06000 0.982
89.08000 3.405
89.10000 2.602
89.12000 4.446
89.14000 3.816
89.16000 0.728
89.18000 -0.331
89.20000 -0.096
89.22000 1.426
89.24000 4.168
89.26000 3.476
89.28000 3.596
89.30000 5.305
89.32000 6.579
89.34000 0.206
89.36000 -1.494
89.38000 1.589
89.40000 2.622
89.42000 0.692
89.44000 1.616
89.46000 1.487
89.48000 1.464
89.50000 1.936
89.52000 2.278
89.54000 0.737
89.56000 1.440
89.58000 0.394
89.60000 0.801
89.62000 1.083
89.64000 1.150
89.66000 1.674
89.68000 2.167
89.70000 3.197
89.72000 2.875
89.74000 3.091
89.76000 4.158
89.78000 1.404
89.80000 1.176
89.82000 -1.259
89.84000 1.623
89.86000 1.445
89.88000 5.875
89.90000 2.136
89.92000 -0.309
89.94000 -1.939
89.96000 0.773
89.98000 2.902
90.00000 2.473
90.02000 0.991
90.04000 -0.608
90.06000 -0.719
90.08000 1.868
90.10000 2.319
90.12000 0.488
90.14000 1.443
90.16000 -0.016
90.18000 3.210
90.20000 3.565
90.22000 1.770
90.24000 -0.538
90.26000 5.019
90.28000 1.976
90.30000 -1.009
90.32000 -1.935
90.34000 1.401
90.36000 1.177
90.38000 -0.812
90.40000 2.685
90.42000 5.559
90.44000 4.614
90.46000 2.433
90.48000 3.492
90.50000 3.377
90.52000 3.788
90.54000 0.481
90.56000 0.721
90.58000 1.851
90.60000 2.863
90.62000 1.446
90.64000 1.307
90.66000 2.425
90.68000 2.062
90.70000 3.011
90.72000 1.794
90.74000 -1.637
90.76000 -1.919
90.78000 0.646
90.80000 3.338
90.82000 3.867
90.84000 4.992
90.86000 9.342
90.88000 6.065
90.90000 3.632
90.92000 4.250
90.94000 2.617
90.96000 0.029
90.98000 -0.117
91.00000 1.807
91.02000 3.448
91.04000 1.679
91.06000 1.931
91.08000 0.662
91.10000 0.120
91.12000 -1.056
91.14000 3.273
91.16000 6.600
91.18000 2.442
91.20000 0.200
91.22000 5.234
91.24000 1.360
91.26000 4.449
91.28000 8.584
91.30000 5.287
91.32000 3.674
91.34000 2.735
91.36000 1.903
91.38000 2.788
91.40000 0.252
91.42000 0.659
91.44000 2.747
91.46000 5.424
91.48000 4.230
91.50000 4.302
91.52000 -0.993
91.54000 0.725
91.56000 2.640
91.58000 0.133
91.60000 2.939
91.62000 3.457
91.64000 3.687
91.66000 2.752
91.68000 2.699
91.70000 4.108
91.72000 3.895
91.74000 2.523
91.76000 2.555
91.78000 -0.970
91.80000 1.658
91.82000 2.198
91.84000 1.113
91.86000 4.883
91.88000 4.838
91.90000 1.962
91.92000 1.729
91.94000 -0.487
91.96000 -1.345
91.98000 1.296
92.00000 4.910
92.02000 2.470
92.04000 1.785
92.06000 4.394
92.08000 4.553
92.10000 4.361
92.12000 6.509
92.14000 5.068
92.16000 3.184
92.18000 6.508
92.20000 4.975
92.22000 5.287
92.24000 4.404
92.26000 4.950
92.28000 4.913
92.30000 6.127
92.32000 6.721
92.34000 3.227
92.36000 4.928
92.38000 8.074
92.40000 3.700
92.42000 2.381
92.44000 3.218
92.46000 0.401
92.48000 -1.899
92.50000 1.309
92.52000 1.180
92.54000 4.996
92.56000 3.541
92.58000 1.650
92.60000 0.804
92.62000 -1.107
92.64000 3.424
92.66000 1.531
92.68000 3.642
92.70000 3.138
92.72000 1.338
92.74000 5.235
92.76000 7.259
92.78000 3.027
92.80000 0.254
92.82000 4.338
92.84000 3.544
92.86000 3.092
92.88000 6.953
92.90000 4.247
92.92000 1.234
92.94000 -1.933
92.96000 1.122
92.98000 2.503
93.00000 2.285
93.02000 -0.259
93.04000 2.680
93.06000 2.857
93.08000 3.461
93.10000 0.659
93.12000 1.013
93.14000 2.838
93.16000 2.365
93.18000 2.871
93.20000 2.575
93.22000 0.550
93.24000 3.549
93.26000 2.678
93.28000 3.280
93.30000 5.597
93.32000 3.668
93.34000 4.906
93.36000 -0.827
93.38000 -0.127
93.40000 6.175
93.42000 7.667
93.44000 2.218
93.46000 2.366
93.48000 0.799
93.50000 6.220
93.52000 5.080
93.54000 1.081
93.56000 1.277
93.58000 2.648
93.60000 2.843
93.62000 4.813
93.64000 2.640
93.66000 1.795
93.68000 1.041
93.70000 3.725
93.72000 0.199
93.74000 0.822
93.76000 2.961
93.78000 2.066
93.80000 -0.064
93.82000 0.642
93.84000 0.327
93.86000 5.536
93.88000 3.820
93.90000 -0.849
93.92000 -1.327
93.94000 -1.301
93.96000 1.655
93.98000 5.843
94.00000 5.544
94.02000 -1.520
94.04000 -1.073
94.06000 0.092
94.08000 1.173
94.10000 2.030
94.12000 3.295
94.14000 3.112
94.16000 5.687
94.18000 3.139
94.20000 5.913
94.22000 3.009
94.24000 -0.302
94.26000 3.865
94.28000 2.809
94.30000 2.679
94.32000 0.675
94.34000 2.452
94.36000 3.158
94.38000 3.963
94.40000 3.140
94.42000 2.508
94.44000 2.469
94.46000 -1.150
94.48000 -1.957
94.50000 2.630
94.52000 7.125
94.54000 5.833
94.56000 5.024
94.58000 2.426
94.60000 0.079
94.62000 0.646
94.64000 2.057
94.66000 2.525
94.68000 4.083
94.70000 -1.186
94.72000 1.291
94.74000 0.597
94.76000 2.686
94.78000 0.249
94.80000 2.028
94.82000 6.354
94.84000 5.395
94.86000 5.190
94.88000 3.082
94.90000 2.125
94.92000 3.059
94.94000 1.886
94.96000 0.864
94.98000 3.014
95.00000 4.365
95.02000 3.984
95.04000 5.409
95.06000 2.263
95.08000 2.688
95.10000 4.753
95.12000 2.731
95.14000 2.858
95.16000 3.606
95.18000 -0.481
95.20000 -0.924
95.22000 2.236
95.24000 1.050
95.26000 2.538
95.28000 5.615
95.30000 4.351
95.32000 4.086
95.34000 2.208
95.36000 2.245
95.38000 2.316
95.40000 2.414
95.42000 4.283
95.44000 4.783
95.46000 3.228
95.48000 3.213
95.50000 0.214
95.52000 0.474
95.54000 1.310
95.56000 0.436
95.58000 2.950
95.60000 3.688
95.62000 4.906
95.64000 6.688
95.66000 4.958
95.68000 9.763
95.70000 4.729
95.72000 -1.500
95.74000 -1.986
95.76000 2.984
95.78000 2.404
95.80000 4.023
95.82000 4.664
95.84000 8.471
95.86000 4.368
95.88000 1.393
95.90000 0.202
95.92000 -0.376
95.94000 2.980
95.96000 4.633
95.98000 4.224
96.00000 2.586
96.02000 4.530
96.04000 8.954
96.06000 5.954
96.08000 1.378
96.10000 1.951
96.12000 2.040
96.14000 3.092
96.16000 3.291
96.18000 -0.323
96.20000 3.412
96.22000 3.097
96.24000 1.915
96.26000 1.691
96.28000 5.678
96.30000 1.909
96.32000 2.724
96.34000 0.971
96.36000 -1.957
96.38000 5.420
96.40000 4.996
96.42000 0.798
96.44000 2.047
96.46000 5.336
96.48000 8.547
96.50000 3.157
96.52000 4.520
96.54000 5.198
96.56000 3.655
96.58000 0.555
96.60000 -0.486
96.62000 0.738
96.64000 3.685
96.66000 4.398
96.68000 6.191
96.70000 8.085
96.72000 5.164
96.74000 2.210
96.76000 1.809
96.78000 6.079
96.80000 0.759
96.82000 1.092
96.84000 1.128
96.86000 2.819
96.88000 6.030
96.90000 6.355
96.92000 6.234
96.94000 1.777
96.96000 -1.949
96.98000 1.992
97.00000 3.020
97.02000 -0.836
97.04000 -1.687
97.06000 2.146
97.08000 3.487
97.10000 5.690
97.12000 5.486
97.14000 -0.285
97.16000 -0.610
97.18000 2.236
97.20000 1.995
97.22000 3.620
97.24000 4.354
97.26000 2.408
97.28000 1.052
97.30000 0.589
97.32000 1.721
97.34000 3.886
97.36000 3.688
97.38000 2.235
97.40000 5.058
97.42000 2.420
97.44000 1.654
97.46000 2.368
97.48000 4.756
97.50000 5.543
97.52000 4.779
97.54000 4.229
97.56000 3.787
97.58000 2.108
97.60000 2.647
97.62000 0.108
97.64000 5.830
97.66000 5.371
97.68000 4.395
97.70000 3.210
97.72000 5.564
97.74000 6.470
97.76000 4.431
97.78000 3.671
97.80000 1.989
97.82000 4.182
97.84000 5.135
97.86000 7.200
97.88000 3.497
97.90000 4.166
97.92000 -0.694
97.94000 -0.841
97.96000 -1.922
97.98000 5.138
98.00000 8.020
98.02000 4.070
98.04000 4.854
98.06000 8.934
98.08000 8.028
98.10000 3.275
98.12000 0.772
98.14000 3.796
98.16000 5.587
98.18000 3.176
98.20000 9.876
98.22000 7.151
98.24000 2.262
98.26000 7.126
98.28000 3.976
98.30000 6.616
98.32000 8.628
98.34000 3.949
98.36000 4.244
98.38000 5.375
98.40000 2.720
98.42000 1.027
98.44000 -1.891
98.46000 0.395
98.48000 6.689
98.50000 3.336
98.52000 0.548
98.54000 4.564
98.56000 3.993
98.58000 6.894
98.60000 5.786
98.62000 3.091
98.64000 4.648
98.66000 0.391
98.68000 2.291
98.70000 2.972
98.72000 4.634
98.74000 1.623
98.76000 1.370
98.78000 2.156
98.80000 6.096
98.82000 2.766
98.84000 4.625
98.86000 9.334
98.88000 9.644
98.90000 8.801
98.92000 6.604
98.94000 4.966
98.96000 3.761
98.98000 5.896
99.00000 7.943
99.02000 7.185
99.04000 1.744
99.06000 1.353
99.08000 1.709
99.10000 1.023
99.12000 -1.898
99.14000 0.641
99.16000 5.162
99.18000 3.858
99.20000 10.471
99.22000 11.955
99.24000 12.138
99.26000 11.471
99.28000 2.853
99.30000 3.845
99.32000 4.501
99.34000 7.902
99.36000 10.055
99.38000 9.280
99.40000 5.733
99.42000 6.499
99.44000 7.342
99.46000 -0.073
99.48000 3.505
99.50000 2.777
99.52000 3.417
99.54000 7.736
99.56000 3.523
99.58000 5.371
99.60000 8.332
99.62000 8.887
99.64000 3.109
99.66000 -1.713
99.68000 -0.418
99.70000 4.432
99.72000 7.282
99.74000 11.992
99.76000 5.903
99.78000 -4.011
99.80000 3.577
99.82000 8.544
99.84000 8.287
99.86000 4.378
99.88000 7.378
99.90000 7.930
99.92000 10.000
99.94000 3.185
99.96000 1.398
99.98000 0.000
