'Id: "0011388" Comment: "Integrate frame 0011388_Au-Ir-Rh_Rh-rich_XRD-Mapping-009-0000.gfrmwith cursor Wedge Cursor #5" Operator: "B?rgel" Anode: "Cu" Wavelength: "1.5406" Scantype: "2Theta (TwoTheta)" TimePerStep: "1" X: "18" Y: "-40.5" Z: "5.95" 
10.00000 0.000
10.02000 0.248
10.04000 -10.518
10.06000 13.724
10.08000 6.923
10.10000 12.173
10.12000 15.513
10.14000 10.616
10.16000 0.939
10.18000 11.613
10.20000 4.832
10.22000 7.720
10.24000 24.380
10.26000 10.222
10.28000 20.294
10.30000 28.101
10.32000 29.547
10.34000 22.613
10.36000 19.169
10.38000 11.653
10.40000 11.020
10.42000 11.160
10.44000 13.831
10.46000 20.238
10.48000 22.194
10.50000 4.250
10.52000 3.487
10.54000 12.803
10.56000 16.966
10.58000 22.631
10.60000 14.301
10.62000 21.413
10.64000 17.207
10.66000 12.987
10.68000 9.278
10.70000 5.187
10.72000 12.999
10.74000 13.939
10.76000 8.775
10.78000 12.233
10.80000 5.238
10.82000 8.239
10.84000 13.034
10.86000 12.994
10.88000 21.638
10.90000 18.526
10.92000 6.713
10.94000 5.880
10.96000 10.794
10.98000 -3.652
11.00000 -0.024
11.02000 6.265
11.04000 5.509
11.06000 20.896
11.08000 23.495
11.10000 19.790
11.12000 8.851
11.14000 12.800
11.16000 13.862
11.18000 15.656
11.20000 7.006
11.22000 12.447
11.24000 21.992
11.26000 9.158
11.28000 13.745
11.30000 12.085
11.32000 16.637
11.34000 12.968
11.36000 21.773
11.38000 26.338
11.40000 15.490
11.42000 6.402
11.44000 15.929
11.46000 16.478
11.48000 12.150
11.50000 10.730
11.52000 8.439
11.54000 14.977
11.56000 16.507
11.58000 16.024
11.60000 21.645
11.62000 9.820
11.64000 8.879
11.66000 13.331
11.68000 15.251
11.70000 18.421
11.72000 13.535
11.74000 22.458
11.76000 20.421
11.78000 12.887
11.80000 9.411
11.82000 13.047
11.84000 9.823
11.86000 19.330
11.88000 23.725
11.90000 25.388
11.92000 24.983
11.94000 23.536
11.96000 16.479
11.98000 13.212
12.00000 10.907
12.02000 5.465
12.04000 20.674
12.06000 22.395
12.08000 17.049
12.10000 22.110
12.12000 27.144
12.14000 15.534
12.16000 9.888
12.18000 11.290
12.20000 11.667
12.22000 15.040
12.24000 15.273
12.26000 20.257
12.28000 15.256
12.30000 12.024
12.32000 15.277
12.34000 1.456
12.36000 4.988
12.38000 13.215
12.40000 15.709
12.42000 15.772
12.44000 21.220
12.46000 19.662
12.48000 10.977
12.50000 16.460
12.52000 25.046
12.54000 25.716
12.56000 21.152
12.58000 9.448
12.60000 16.616
12.62000 16.368
12.64000 19.812
12.66000 19.369
12.68000 16.496
12.70000 13.721
12.72000 7.400
12.74000 17.033
12.76000 17.297
12.78000 12.233
12.80000 11.302
12.82000 11.194
12.84000 9.763
12.86000 5.007
12.88000 9.298
12.90000 13.782
12.92000 20.095
12.94000 20.529
12.96000 7.503
12.98000 10.426
13.00000 11.083
13.02000 10.116
13.04000 15.650
13.06000 21.023
13.08000 21.644
13.10000 19.243
13.12000 20.846
13.14000 16.593
13.16000 9.436
13.18000 24.542
13.20000 14.463
13.22000 9.353
13.24000 14.038
13.26000 12.054
13.28000 13.318
13.30000 13.279
13.32000 21.165
13.34000 24.525
13.36000 27.088
13.38000 17.824
13.40000 7.423
13.42000 7.924
13.44000 8.623
13.46000 -0.618
13.48000 2.685
13.50000 14.253
13.52000 23.463
13.54000 18.727
13.56000 22.984
13.58000 17.670
13.60000 8.314
13.62000 8.784
13.64000 6.121
13.66000 2.616
13.68000 6.586
13.70000 7.892
13.72000 5.893
13.74000 2.118
13.76000 16.051
13.78000 17.518
13.80000 20.154
13.82000 10.758
13.84000 7.496
13.86000 4.014
13.88000 12.136
13.90000 13.577
13.92000 8.229
13.94000 9.578
13.96000 8.708
13.98000 8.750
14.00000 4.172
14.02000 5.939
14.04000 6.145
14.06000 10.672
14.08000 9.627
14.10000 14.667
14.12000 14.593
14.14000 15.622
14.16000 6.174
14.18000 -4.436
14.20000 4.344
14.22000 14.835
14.24000 8.070
14.26000 0.360
14.28000 6.378
14.30000 10.026
14.32000 17.101
14.34000 19.121
14.36000 10.316
14.38000 9.558
14.40000 7.838
14.42000 11.839
14.44000 4.249
14.46000 9.165
14.48000 8.421
14.50000 13.491
14.52000 13.131
14.54000 12.085
14.56000 3.798
14.58000 0.742
14.60000 8.496
14.62000 3.054
14.64000 2.366
14.66000 5.585
14.68000 15.897
14.70000 14.695
14.72000 12.445
14.74000 6.337
14.76000 8.106
14.78000 9.876
14.80000 8.852
14.82000 -1.396
14.84000 -4.440
14.86000 6.052
14.88000 12.820
14.90000 12.916
14.92000 13.988
14.94000 17.818
14.96000 11.346
14.98000 10.223
15.00000 20.341
15.02000 11.228
15.04000 3.879
15.06000 9.363
15.08000 7.905
15.10000 5.291
15.12000 10.830
15.14000 9.060
15.16000 4.569
15.18000 10.346
15.20000 13.300
15.22000 10.043
15.24000 9.933
15.26000 4.587
15.28000 4.674
15.30000 0.014
15.32000 6.107
15.34000 7.774
15.36000 6.516
15.38000 7.580
15.40000 6.843
15.42000 0.537
15.44000 0.340
15.46000 8.167
15.48000 16.036
15.50000 7.036
15.52000 1.392
15.54000 5.601
15.56000 1.390
15.58000 -1.512
15.60000 1.511
15.62000 3.267
15.64000 5.135
15.66000 10.604
15.68000 9.112
15.70000 9.975
15.72000 3.852
15.74000 -0.978
15.76000 2.007
15.78000 6.252
15.80000 4.108
15.82000 12.527
15.84000 13.678
15.86000 2.070
15.88000 5.029
15.90000 10.477
15.92000 4.175
15.94000 -0.348
15.96000 3.233
15.98000 5.902
16.00000 3.920
16.02000 6.420
16.04000 7.862
16.06000 -1.611
16.08000 -2.496
16.10000 2.047
16.12000 -1.895
16.14000 -2.806
16.16000 -0.103
16.18000 10.804
16.20000 10.820
16.22000 2.217
16.24000 6.216
16.26000 2.285
16.28000 -1.409
16.30000 -1.236
16.32000 -0.282
16.34000 1.492
16.36000 8.966
16.38000 11.502
16.40000 2.907
16.42000 4.052
16.44000 13.127
16.46000 16.205
16.48000 14.936
16.50000 3.352
16.52000 0.413
16.54000 2.110
16.56000 -1.198
16.58000 5.790
16.60000 1.254
16.62000 4.654
16.64000 6.261
16.66000 7.681
16.68000 2.159
16.70000 -4.279
16.72000 0.352
16.74000 10.194
16.76000 10.829
16.78000 1.427
16.80000 8.985
16.82000 7.955
16.84000 2.741
16.86000 6.075
16.88000 7.383
16.90000 -2.333
16.92000 0.707
16.94000 6.656
16.96000 9.885
16.98000 7.922
17.00000 8.092
17.02000 8.452
17.04000 3.577
17.06000 4.768
17.08000 7.512
17.10000 2.602
17.12000 -1.632
17.14000 -4.389
17.16000 2.650
17.18000 4.650
17.20000 16.498
17.22000 14.677
17.24000 13.057
17.26000 6.456
17.28000 6.902
17.30000 7.979
17.32000 10.345
17.34000 7.861
17.36000 1.252
17.38000 3.094
17.40000 3.072
17.42000 2.979
17.44000 -1.224
17.46000 -2.868
17.48000 1.275
17.50000 2.036
17.52000 4.111
17.54000 2.867
17.56000 5.876
17.58000 6.344
17.60000 3.876
17.62000 5.152
17.64000 1.898
17.66000 1.673
17.68000 6.507
17.70000 9.329
17.72000 4.329
17.74000 4.433
17.76000 2.404
17.78000 6.303
17.80000 4.771
17.82000 8.047
17.84000 8.093
17.86000 3.895
17.88000 7.034
17.90000 10.057
17.92000 10.447
17.94000 4.022
17.96000 -1.045
17.98000 6.306
18.00000 8.913
18.02000 -0.479
18.04000 -1.868
18.06000 4.881
18.08000 5.173
18.10000 5.048
18.12000 4.102
18.14000 8.456
18.16000 9.638
18.18000 4.693
18.20000 -3.759
18.22000 10.412
18.24000 10.032
18.26000 8.691
18.28000 2.047
18.30000 5.223
18.32000 9.152
18.34000 2.188
18.36000 1.733
18.38000 2.628
18.40000 9.377
18.42000 8.489
18.44000 6.564
18.46000 6.480
18.48000 6.374
18.50000 10.590
18.52000 6.520
18.54000 0.709
18.56000 2.664
18.58000 5.828
18.60000 4.434
18.62000 4.521
18.64000 3.596
18.66000 -0.868
18.68000 -4.243
18.70000 2.966
18.72000 4.331
18.74000 4.642
18.76000 6.860
18.78000 10.218
18.80000 10.359
18.82000 6.362
18.84000 2.696
18.86000 5.115
18.88000 4.684
18.90000 1.656
18.92000 -0.816
18.94000 5.241
18.96000 -0.121
18.98000 -0.813
19.00000 4.329
19.02000 6.469
19.04000 6.130
19.06000 6.810
19.08000 2.653
19.10000 -2.104
19.12000 2.271
19.14000 -0.638
19.16000 6.798
19.18000 8.190
19.20000 2.827
19.22000 -2.569
19.24000 -2.479
19.26000 3.200
19.28000 6.579
19.30000 4.102
19.32000 2.419
19.34000 2.582
19.36000 5.702
19.38000 8.948
19.40000 8.219
19.42000 6.785
19.44000 5.272
19.46000 6.050
19.48000 6.352
19.50000 3.412
19.52000 5.309
19.54000 -0.490
19.56000 2.786
19.58000 8.309
19.60000 6.099
19.62000 2.953
19.64000 5.689
19.66000 3.746
19.68000 10.517
19.70000 9.828
19.72000 10.982
19.74000 12.418
19.76000 12.685
19.78000 -4.199
19.80000 -0.463
19.82000 5.137
19.84000 6.179
19.86000 -0.375
19.88000 -1.840
19.90000 1.186
19.92000 5.768
19.94000 5.327
19.96000 2.187
19.98000 3.464
20.00000 0.427
20.02000 3.583
20.04000 4.942
20.06000 5.305
20.08000 11.980
20.10000 2.592
20.12000 -3.704
20.14000 -4.177
20.16000 -0.411
20.18000 -0.067
20.20000 1.234
20.22000 2.067
20.24000 6.030
20.26000 -1.495
20.28000 1.244
20.30000 3.933
20.32000 3.345
20.34000 -1.077
20.36000 2.446
20.38000 -3.454
20.40000 -3.854
20.42000 -0.133
20.44000 -1.808
20.46000 4.030
20.48000 3.978
20.50000 4.266
20.52000 5.185
20.54000 2.958
20.56000 4.457
20.58000 9.152
20.60000 3.489
20.62000 1.560
20.64000 4.983
20.66000 6.590
20.68000 2.623
20.70000 5.254
20.72000 3.049
20.74000 5.757
20.76000 7.099
20.78000 4.181
20.80000 5.622
20.82000 4.171
20.84000 -2.395
20.86000 7.040
20.88000 11.719
20.90000 5.664
20.92000 1.580
20.94000 6.930
20.96000 12.518
20.98000 8.753
21.00000 8.075
21.02000 6.034
21.04000 6.285
21.06000 5.777
21.08000 -0.044
21.10000 0.548
21.12000 4.828
21.14000 4.343
21.16000 10.114
21.18000 8.286
21.20000 1.722
21.22000 3.141
21.24000 6.338
21.26000 7.970
21.28000 9.682
21.30000 10.473
21.32000 9.701
21.34000 2.911
21.36000 6.206
21.38000 2.379
21.40000 -4.074
21.42000 6.084
21.44000 2.601
21.46000 1.358
21.48000 1.123
21.50000 7.636
21.52000 8.634
21.54000 9.228
21.56000 3.378
21.58000 0.224
21.60000 7.819
21.62000 6.007
21.64000 5.435
21.66000 5.293
21.68000 5.850
21.70000 6.129
21.72000 6.196
21.74000 3.181
21.76000 9.560
21.78000 5.064
21.80000 9.811
21.82000 20.487
21.84000 20.597
21.86000 12.129
21.88000 1.028
21.90000 3.447
21.92000 6.280
21.94000 4.935
21.96000 4.173
21.98000 3.998
22.00000 3.845
22.02000 1.975
22.04000 4.070
22.06000 10.114
22.08000 8.890
22.10000 4.991
22.12000 11.414
22.14000 5.455
22.16000 4.975
22.18000 2.208
22.20000 0.540
22.22000 0.621
22.24000 10.053
22.26000 4.252
22.28000 0.952
22.30000 4.409
22.32000 2.456
22.34000 8.159
22.36000 9.547
22.38000 5.723
22.40000 6.667
22.42000 1.005
22.44000 0.337
22.46000 5.334
22.48000 6.990
22.50000 4.887
22.52000 2.093
22.54000 7.084
22.56000 3.863
22.58000 4.757
22.60000 4.358
22.62000 -0.473
22.64000 -1.463
22.66000 -0.689
22.68000 1.885
22.70000 5.785
22.72000 4.721
22.74000 -2.919
22.76000 -4.029
22.78000 4.043
22.80000 1.434
22.82000 0.919
22.84000 0.238
22.86000 -0.066
22.88000 1.338
22.90000 1.237
22.92000 5.465
22.94000 5.546
22.96000 5.301
22.98000 1.495
23.00000 5.879
23.02000 2.654
23.04000 2.929
23.06000 1.734
23.08000 4.197
23.10000 7.292
23.12000 6.255
23.14000 7.264
23.16000 4.217
23.18000 -2.288
23.20000 -3.339
23.22000 0.199
23.24000 -1.573
23.26000 -0.388
23.28000 6.329
23.30000 1.117
23.32000 -0.596
23.34000 1.605
23.36000 1.422
23.38000 4.752
23.40000 -1.232
23.42000 0.758
23.44000 4.113
23.46000 6.404
23.48000 6.104
23.50000 3.315
23.52000 4.257
23.54000 3.898
23.56000 4.205
23.58000 2.748
23.60000 1.046
23.62000 1.730
23.64000 4.020
23.66000 10.732
23.68000 2.948
23.70000 1.572
23.72000 -3.333
23.74000 -1.749
23.76000 7.712
23.78000 9.072
23.80000 5.757
23.82000 3.010
23.84000 3.204
23.86000 5.632
23.88000 7.279
23.90000 2.197
23.92000 1.780
23.94000 -1.545
23.96000 -3.029
23.98000 2.889
24.00000 4.849
24.02000 -1.040
24.04000 -0.419
24.06000 2.193
24.08000 2.041
24.10000 2.560
24.12000 7.023
24.14000 5.933
24.16000 9.731
24.18000 9.178
24.20000 7.209
24.22000 5.594
24.24000 -3.588
24.26000 -1.266
24.28000 8.188
24.30000 4.188
24.32000 0.262
24.34000 -3.470
24.36000 3.391
24.38000 5.799
24.40000 2.255
24.42000 7.105
24.44000 4.656
24.46000 3.650
24.48000 1.267
24.50000 -1.676
24.52000 3.722
24.54000 12.492
24.56000 11.971
24.58000 13.032
24.60000 8.949
24.62000 2.136
24.64000 9.559
24.66000 2.620
24.68000 -1.940
24.70000 1.711
24.72000 6.373
24.74000 7.863
24.76000 2.068
24.78000 1.367
24.80000 3.649
24.82000 1.291
24.84000 -3.875
24.86000 -0.683
24.88000 4.044
24.90000 5.580
24.92000 5.251
24.94000 2.145
24.96000 1.119
24.98000 0.587
25.00000 5.170
25.02000 10.254
25.04000 6.101
25.06000 4.806
25.08000 2.390
25.10000 5.484
25.12000 8.774
25.14000 10.523
25.16000 8.986
25.18000 10.333
25.20000 8.103
25.22000 2.334
25.24000 4.188
25.26000 9.188
25.28000 8.368
25.30000 6.298
25.32000 7.738
25.34000 10.710
25.36000 7.486
25.38000 6.454
25.40000 2.011
25.42000 1.707
25.44000 4.538
25.46000 7.480
25.48000 4.045
25.50000 0.605
25.52000 4.421
25.54000 4.283
25.56000 -0.053
25.58000 1.199
25.60000 2.507
25.62000 4.203
25.64000 4.742
25.66000 1.360
25.68000 3.095
25.70000 -1.352
25.72000 -1.610
25.74000 2.665
25.76000 0.203
25.78000 -2.082
25.80000 3.758
25.82000 3.300
25.84000 1.935
25.86000 2.929
25.88000 4.760
25.90000 3.641
25.92000 0.263
25.94000 5.594
25.96000 8.720
25.98000 5.540
26.00000 3.263
26.02000 5.646
26.04000 3.107
26.06000 -0.119
26.08000 -2.754
26.10000 -2.587
26.12000 -0.509
26.14000 5.246
26.16000 -0.933
26.18000 -1.303
26.20000 -1.474
26.22000 2.110
26.24000 0.798
26.26000 1.690
26.28000 1.313
26.30000 1.628
26.32000 2.107
26.34000 0.219
26.36000 0.372
26.38000 9.105
26.40000 10.008
26.42000 3.637
26.44000 0.331
26.46000 2.411
26.48000 0.358
26.50000 3.228
26.52000 8.032
26.54000 10.371
26.56000 8.722
26.58000 8.931
26.60000 9.890
26.62000 9.822
26.64000 5.028
26.66000 -0.370
26.68000 4.857
26.70000 6.306
26.72000 3.469
26.74000 3.535
26.76000 0.670
26.78000 -0.418
26.80000 6.788
26.82000 11.208
26.84000 8.332
26.86000 6.008
26.88000 5.970
26.90000 1.414
26.92000 4.143
26.94000 10.360
26.96000 5.982
26.98000 -3.796
27.00000 -0.145
27.02000 5.772
27.04000 10.263
27.06000 11.311
27.08000 4.511
27.10000 0.914
27.12000 0.183
27.14000 4.958
27.16000 8.008
27.18000 9.893
27.20000 11.445
27.22000 6.725
27.24000 2.919
27.26000 4.218
27.28000 5.596
27.30000 3.505
27.32000 2.803
27.34000 6.091
27.36000 3.966
27.38000 2.847
27.40000 1.771
27.42000 0.103
27.44000 3.593
27.46000 2.348
27.48000 6.319
27.50000 7.994
27.52000 3.244
27.54000 -1.040
27.56000 5.109
27.58000 4.239
27.60000 2.139
27.62000 3.391
27.64000 3.900
27.66000 2.563
27.68000 0.897
27.70000 2.271
27.72000 0.190
27.74000 7.267
27.76000 1.044
27.78000 -0.604
27.80000 -1.254
27.82000 -0.013
27.84000 4.785
27.86000 11.096
27.88000 6.096
27.90000 1.926
27.92000 -2.229
27.94000 -3.755
27.96000 -1.371
27.98000 4.941
28.00000 1.977
28.02000 3.170
28.04000 3.866
28.06000 0.412
28.08000 8.058
28.10000 3.958
28.12000 -1.256
28.14000 4.347
28.16000 4.436
28.18000 2.281
28.20000 3.390
28.22000 -3.744
28.24000 1.356
28.26000 2.866
28.28000 2.146
28.30000 2.657
28.32000 6.493
28.34000 5.690
28.36000 2.269
28.38000 -3.352
28.40000 1.363
28.42000 6.038
28.44000 3.463
28.46000 2.338
28.48000 4.002
28.50000 2.412
28.52000 0.693
28.54000 1.866
28.56000 3.739
28.58000 4.696
28.60000 -0.294
28.62000 -0.074
28.64000 -3.559
28.66000 -3.719
28.68000 -1.197
28.70000 -0.535
28.72000 -0.064
28.74000 2.632
28.76000 8.361
28.78000 10.913
28.80000 8.453
28.82000 8.281
28.84000 6.057
28.86000 1.765
28.88000 -2.453
28.90000 -1.653
28.92000 1.000
28.94000 -1.272
28.96000 0.606
28.98000 -0.837
29.00000 6.169
29.02000 7.067
29.04000 2.570
29.06000 -2.321
29.08000 -3.705
29.10000 3.374
29.12000 3.824
29.14000 4.704
29.16000 -1.951
29.18000 1.456
29.20000 -1.812
29.22000 1.963
29.24000 4.938
29.26000 3.008
29.28000 2.576
29.30000 -0.997
29.32000 3.317
29.34000 3.919
29.36000 6.400
29.38000 5.238
29.40000 5.813
29.42000 0.138
29.44000 6.606
29.46000 5.703
29.48000 1.593
29.50000 3.795
29.52000 2.416
29.54000 1.268
29.56000 2.983
29.58000 7.980
29.60000 3.107
29.62000 0.069
29.64000 3.712
29.66000 5.177
29.68000 4.107
29.70000 1.837
29.72000 4.056
29.74000 1.859
29.76000 1.906
29.78000 -0.284
29.80000 5.568
29.82000 3.764
29.84000 3.057
29.86000 6.527
29.88000 4.737
29.90000 -1.168
29.92000 -0.053
29.94000 4.049
29.96000 5.609
29.98000 6.609
30.00000 3.218
30.02000 1.489
30.04000 -0.840
30.06000 0.505
30.08000 1.108
30.10000 5.616
30.12000 6.776
30.14000 2.686
30.16000 -2.483
30.18000 2.741
30.20000 5.881
30.22000 6.220
30.24000 3.234
30.26000 3.671
30.28000 6.163
30.30000 2.145
30.32000 -3.378
30.34000 -3.631
30.36000 -2.869
30.38000 2.228
30.40000 5.535
30.42000 -0.516
30.44000 -1.086
30.46000 -1.105
30.48000 -0.167
30.50000 2.608
30.52000 -0.813
30.54000 3.745
30.56000 2.573
30.58000 2.415
30.60000 4.395
30.62000 5.473
30.64000 4.496
30.66000 6.708
30.68000 5.268
30.70000 6.137
30.72000 3.822
30.74000 1.668
30.76000 -2.540
30.78000 4.344
30.80000 7.098
30.82000 5.017
30.84000 4.269
30.86000 2.847
30.88000 4.273
30.90000 4.056
30.92000 1.582
30.94000 3.428
30.96000 2.748
30.98000 -3.595
31.00000 -0.638
31.02000 6.459
31.04000 8.326
31.06000 5.346
31.08000 3.606
31.10000 1.253
31.12000 -0.311
31.14000 4.313
31.16000 6.602
31.18000 4.388
31.20000 6.286
31.22000 7.650
31.24000 -0.846
31.26000 -3.585
31.28000 -2.646
31.30000 2.424
31.32000 3.669
31.34000 3.556
31.36000 5.027
31.38000 3.289
31.40000 -0.912
31.42000 2.074
31.44000 0.450
31.46000 4.170
31.48000 10.241
31.50000 5.520
31.52000 4.778
31.54000 7.522
31.56000 4.688
31.58000 2.581
31.60000 5.569
31.62000 5.384
31.64000 9.582
31.66000 12.464
31.68000 13.838
31.70000 5.343
31.72000 3.378
31.74000 5.394
31.76000 3.440
31.78000 0.451
31.80000 8.127
31.82000 7.959
31.84000 5.702
31.86000 7.710
31.88000 3.687
31.90000 4.258
31.92000 7.004
31.94000 5.360
31.96000 8.983
31.98000 8.480
32.00000 8.081
32.02000 6.633
32.04000 3.247
32.06000 4.957
32.08000 4.880
32.10000 3.668
32.12000 -0.341
32.14000 5.449
32.16000 1.223
32.18000 3.172
32.20000 3.136
32.22000 1.933
32.24000 6.007
32.26000 4.558
32.28000 3.292
32.30000 12.828
32.32000 7.825
32.34000 4.588
32.36000 10.703
32.38000 7.253
32.40000 -1.732
32.42000 -3.517
32.44000 1.257
32.46000 6.778
32.48000 6.691
32.50000 7.543
32.52000 3.854
32.54000 6.561
32.56000 5.896
32.58000 4.026
32.60000 4.355
32.62000 -1.548
32.64000 -1.925
32.66000 5.378
32.68000 4.563
32.70000 -1.293
32.72000 1.344
32.74000 4.599
32.76000 5.164
32.78000 4.033
32.80000 1.962
32.82000 -1.912
32.84000 2.103
32.86000 2.476
32.88000 7.024
32.90000 4.564
32.92000 -1.448
32.94000 -1.068
32.96000 2.547
32.98000 4.396
33.00000 0.885
33.02000 -0.582
33.04000 4.594
33.06000 5.062
33.08000 2.549
33.10000 6.046
33.12000 9.849
33.14000 1.853
33.16000 0.404
33.18000 -2.073
33.20000 -1.407
33.22000 3.255
33.24000 5.759
33.26000 6.479
33.28000 6.224
33.30000 5.197
33.32000 2.771
33.34000 1.096
33.36000 0.572
33.38000 2.406
33.40000 2.918
33.42000 1.852
33.44000 0.550
33.46000 -0.337
33.48000 -2.027
33.50000 -1.687
33.52000 -3.053
33.54000 1.745
33.56000 3.762
33.58000 5.117
33.60000 3.303
33.62000 4.426
33.64000 7.286
33.66000 4.328
33.68000 0.283
33.70000 -0.583
33.72000 2.886
33.74000 3.267
33.76000 2.927
33.78000 4.708
33.80000 5.907
33.82000 4.617
33.84000 4.384
33.86000 1.513
33.88000 2.050
33.90000 4.399
33.92000 -0.441
33.94000 3.060
33.96000 4.905
33.98000 3.753
34.00000 2.281
34.02000 2.001
34.04000 3.566
34.06000 0.642
34.08000 1.156
34.10000 4.596
34.12000 7.455
34.14000 1.436
34.16000 -0.119
34.18000 3.673
34.20000 6.047
34.22000 1.366
34.24000 2.729
34.26000 2.581
34.28000 3.896
34.30000 1.287
34.32000 2.207
34.34000 -0.275
34.36000 1.111
34.38000 3.365
34.40000 -3.523
34.42000 -2.105
34.44000 -1.601
34.46000 4.955
34.48000 3.876
34.50000 0.462
34.52000 3.057
34.54000 2.330
34.56000 0.495
34.58000 0.890
34.60000 -0.582
34.62000 3.965
34.64000 2.135
34.66000 5.131
34.68000 1.442
34.70000 2.976
34.72000 1.247
34.74000 3.531
34.76000 3.606
34.78000 -1.669
34.80000 -0.701
34.82000 5.201
34.84000 5.001
34.86000 2.231
34.88000 0.733
34.90000 -0.615
34.92000 1.033
34.94000 1.799
34.96000 1.830
34.98000 0.097
35.00000 -2.048
35.02000 -1.084
35.04000 3.575
35.06000 2.847
35.08000 2.333
35.10000 2.182
35.12000 -0.613
35.14000 -2.073
35.16000 -2.820
35.18000 -3.434
35.20000 -1.956
35.22000 0.488
35.24000 0.985
35.26000 1.437
35.28000 -2.117
35.30000 -3.475
35.32000 2.038
35.34000 3.199
35.36000 5.381
35.38000 7.095
35.40000 3.103
35.42000 -1.539
35.44000 2.874
35.46000 5.025
35.48000 1.995
35.50000 0.566
35.52000 1.500
35.54000 -0.942
35.56000 -0.833
35.58000 -0.819
35.60000 -0.485
35.62000 0.667
35.64000 2.213
35.66000 -2.195
35.68000 -3.473
35.70000 5.146
35.72000 6.312
35.74000 1.747
35.76000 1.152
35.78000 0.402
35.80000 1.940
35.82000 0.464
35.84000 0.300
35.86000 0.925
35.88000 -0.935
35.90000 2.341
35.92000 4.427
35.94000 2.058
35.96000 -0.102
35.98000 -2.696
36.00000 0.387
36.02000 -2.414
36.04000 0.201
36.06000 -0.001
36.08000 3.498
36.10000 5.733
36.12000 3.636
36.14000 1.551
36.16000 1.807
36.18000 1.142
36.20000 1.631
36.22000 4.489
36.24000 4.404
36.26000 0.970
36.28000 0.519
36.30000 -1.790
36.32000 -1.907
36.34000 -0.428
36.36000 6.286
36.38000 4.702
36.40000 -0.286
36.42000 2.297
36.44000 5.876
36.46000 9.374
36.48000 -1.470
36.50000 -2.895
36.52000 -3.463
36.54000 1.185
36.56000 1.217
36.58000 -0.873
36.60000 2.061
36.62000 -0.113
36.64000 1.290
36.66000 1.712
36.68000 5.272
36.70000 6.983
36.72000 4.738
36.74000 1.842
36.76000 1.310
36.78000 0.393
36.80000 5.172
36.82000 5.222
36.84000 4.044
36.86000 4.699
36.88000 3.198
36.90000 0.808
36.92000 2.312
36.94000 -1.924
36.96000 1.284
36.98000 2.982
37.00000 2.916
37.02000 3.194
37.04000 2.189
37.06000 1.750
37.08000 -0.269
37.10000 -3.474
37.12000 -0.005
37.14000 3.905
37.16000 6.960
37.18000 6.708
37.20000 7.366
37.22000 4.978
37.24000 9.596
37.26000 10.139
37.28000 1.890
37.30000 -1.335
37.32000 -3.482
37.34000 -2.951
37.36000 -0.997
37.38000 7.374
37.40000 9.697
37.42000 5.715
37.44000 4.675
37.46000 2.335
37.48000 2.681
37.50000 -0.170
37.52000 1.936
37.54000 3.926
37.56000 4.578
37.58000 2.501
37.60000 3.488
37.62000 -3.518
37.64000 -3.012
37.66000 -0.172
37.68000 0.886
37.70000 -2.944
37.72000 0.254
37.74000 0.798
37.76000 -3.464
37.78000 -3.536
37.80000 1.405
37.82000 4.655
37.84000 -1.883
37.86000 -1.211
37.88000 4.618
37.90000 4.333
37.92000 5.317
37.94000 3.867
37.96000 2.352
37.98000 6.307
38.00000 10.273
38.02000 13.915
38.04000 11.266
38.06000 7.654
38.08000 0.638
38.10000 3.168
38.12000 7.988
38.14000 9.584
38.16000 5.558
38.18000 10.245
38.20000 11.360
38.22000 7.350
38.24000 7.583
38.26000 1.946
38.28000 5.692
38.30000 10.045
38.32000 8.817
38.34000 9.032
38.36000 8.478
38.38000 11.820
38.40000 10.849
38.42000 9.284
38.44000 8.486
38.46000 10.120
38.48000 12.308
38.50000 10.900
38.52000 14.505
38.54000 13.599
38.56000 14.052
38.58000 17.870
38.60000 21.251
38.62000 20.100
38.64000 19.571
38.66000 20.824
38.68000 21.382
38.70000 18.754
38.72000 16.310
38.74000 17.467
38.76000 18.005
38.78000 21.017
38.80000 19.990
38.82000 16.222
38.84000 11.941
38.86000 16.487
38.88000 19.698
38.90000 20.121
38.92000 21.504
38.94000 20.254
38.96000 26.457
38.98000 29.638
39.00000 25.323
39.02000 21.609
39.04000 23.257
39.06000 22.376
39.08000 27.243
39.10000 23.851
39.12000 28.690
39.14000 34.745
39.16000 35.984
39.18000 33.695
39.20000 27.320
39.22000 28.488
39.24000 35.457
39.26000 34.133
39.28000 31.205
39.30000 27.963
39.32000 31.570
39.34000 40.316
39.36000 44.629
39.38000 42.700
39.40000 46.389
39.42000 43.461
39.44000 40.369
39.46000 46.535
39.48000 49.120
39.50000 50.449
39.52000 53.843
39.54000 55.399
39.56000 60.012
39.58000 55.747
39.60000 57.567
39.62000 64.467
39.64000 64.456
39.66000 69.423
39.68000 73.132
39.70000 82.008
39.72000 86.652
39.74000 88.985
39.76000 88.636
39.78000 93.938
39.80000 102.256
39.82000 104.632
39.84000 108.111
39.86000 112.332
39.88000 123.645
39.90000 121.038
39.92000 125.115
39.94000 127.576
39.96000 132.128
39.98000 142.604
40.00000 151.404
40.02000 157.882
40.04000 168.887
40.06000 175.560
40.08000 179.860
40.10000 191.754
40.12000 203.621
40.14000 213.078
40.16000 221.442
40.18000 233.682
40.20000 242.880
40.22000 257.267
40.24000 269.851
40.26000 276.450
40.28000 290.527
40.30000 309.422
40.32000 312.277
40.34000 332.190
40.36000 345.133
40.38000 356.090
40.40000 369.316
40.42000 376.759
40.44000 400.241
40.46000 417.764
40.48000 431.639
40.50000 448.255
40.52000 464.227
40.54000 478.647
40.56000 487.236
40.58000 493.696
40.60000 512.358
40.62000 525.011
40.64000 533.803
40.66000 541.410
40.68000 550.391
40.70000 553.624
40.72000 563.729
40.74000 570.319
40.76000 569.368
40.78000 576.559
40.80000 577.163
40.82000 564.179
40.84000 548.874
40.86000 553.019
40.88000 537.845
40.90000 538.791
40.92000 518.968
40.94000 508.234
40.96000 494.582
40.98000 480.936
41.00000 475.926
41.02000 461.367
41.04000 449.649
41.06000 435.925
41.08000 410.957
41.10000 392.508
41.12000 376.899
41.14000 368.747
41.16000 358.679
41.18000 345.038
41.20000 328.893
41.22000 305.519
41.24000 289.823
41.26000 279.916
41.28000 267.362
41.30000 257.300
41.32000 242.274
41.34000 232.601
41.36000 217.837
41.38000 211.071
41.40000 205.766
41.42000 197.569
41.44000 177.241
41.46000 169.452
41.48000 169.948
41.50000 160.143
41.52000 155.761
41.54000 145.834
41.56000 135.667
41.58000 123.481
41.60000 122.103
41.62000 119.874
41.64000 108.631
41.66000 100.309
41.68000 101.267
41.70000 94.946
41.72000 89.456
41.74000 87.319
41.76000 81.230
41.78000 75.256
41.80000 71.368
41.82000 72.382
41.84000 70.780
41.86000 62.056
41.88000 55.886
41.90000 55.752
41.92000 53.415
41.94000 46.245
41.96000 50.155
41.98000 53.355
42.00000 50.844
42.02000 44.207
42.04000 39.985
42.06000 39.232
42.08000 39.283
42.10000 37.916
42.12000 33.622
42.14000 27.766
42.16000 25.801
42.18000 28.563
42.20000 30.449
42.22000 27.241
42.24000 20.404
42.26000 22.456
42.28000 23.456
42.30000 21.255
42.32000 24.168
42.34000 24.539
42.36000 19.170
42.38000 20.978
42.40000 19.385
42.42000 19.172
42.44000 17.352
42.46000 17.302
42.48000 17.974
42.50000 20.979
42.52000 20.200
42.54000 13.417
42.56000 9.846
42.58000 11.288
42.60000 12.694
42.62000 17.289
42.64000 16.020
42.66000 10.977
42.68000 8.753
42.70000 10.755
42.72000 7.278
42.74000 6.646
42.76000 11.082
42.78000 9.702
42.80000 8.555
42.82000 8.565
42.84000 7.154
42.86000 12.195
42.88000 12.564
42.90000 11.578
42.92000 8.381
42.94000 6.784
42.96000 4.419
42.98000 6.481
43.00000 4.453
43.02000 5.419
43.04000 5.817
43.06000 5.862
43.08000 6.241
43.10000 7.296
43.12000 8.298
43.14000 4.226
43.16000 5.050
43.18000 5.102
43.20000 5.434
43.22000 3.367
43.24000 3.656
43.26000 6.264
43.28000 6.574
43.30000 4.268
43.32000 -3.469
43.34000 0.247
43.36000 4.369
43.38000 4.405
43.40000 2.172
43.42000 0.870
43.44000 1.020
43.46000 3.326
43.48000 4.405
43.50000 7.099
43.52000 6.531
43.54000 7.849
43.56000 4.690
43.58000 0.716
43.60000 2.764
43.62000 6.424
43.64000 7.504
43.66000 3.722
43.68000 3.425
43.70000 4.217
43.72000 3.390
43.74000 4.603
43.76000 2.391
43.78000 4.335
43.80000 3.781
43.82000 3.824
43.84000 2.963
43.86000 4.761
43.88000 0.260
43.90000 -3.167
43.92000 -1.479
43.94000 1.485
43.96000 2.988
43.98000 0.448
44.00000 -0.286
44.02000 3.775
44.04000 1.485
44.06000 5.419
44.08000 6.904
44.10000 7.533
44.12000 2.006
44.14000 -3.386
44.16000 0.235
44.18000 2.626
44.20000 4.130
44.22000 6.787
44.24000 1.700
44.26000 3.481
44.28000 6.314
44.30000 4.199
44.32000 2.285
44.34000 1.876
44.36000 6.694
44.38000 8.529
44.40000 6.135
44.42000 5.317
44.44000 7.511
44.46000 4.089
44.48000 1.836
44.50000 0.631
44.52000 2.227
44.54000 3.110
44.56000 2.842
44.58000 2.451
44.60000 5.407
44.62000 7.096
44.64000 4.298
44.66000 0.673
44.68000 2.808
44.70000 5.802
44.72000 2.954
44.74000 7.283
44.76000 5.966
44.78000 1.843
44.80000 2.460
44.82000 3.306
44.84000 6.897
44.86000 8.858
44.88000 1.917
44.90000 3.358
44.92000 1.328
44.94000 -3.337
44.96000 0.358
44.98000 5.260
45.00000 2.198
45.02000 4.485
45.04000 5.391
45.06000 -0.133
45.08000 5.628
45.10000 4.672
45.12000 7.456
45.14000 6.875
45.16000 0.059
45.18000 -0.186
45.20000 4.427
45.22000 7.309
45.24000 0.972
45.26000 5.492
45.28000 6.488
45.30000 5.400
45.32000 6.857
45.34000 3.711
45.36000 0.730
45.38000 6.082
45.40000 8.963
45.42000 9.618
45.44000 4.139
45.46000 0.503
45.48000 -0.190
45.50000 2.564
45.52000 1.227
45.54000 1.715
45.56000 7.459
45.58000 9.415
45.60000 9.990
45.62000 4.272
45.64000 7.952
45.66000 14.088
45.68000 4.882
45.70000 3.090
45.72000 5.313
45.74000 8.748
45.76000 9.835
45.78000 7.551
45.80000 10.426
45.82000 8.872
45.84000 6.854
45.86000 4.955
45.88000 7.312
45.90000 9.775
45.92000 9.053
45.94000 8.423
45.96000 9.738
45.98000 15.482
46.00000 16.171
46.02000 14.007
46.04000 13.747
46.06000 11.363
46.08000 12.954
46.10000 17.536
46.12000 20.175
46.14000 21.058
46.16000 18.121
46.18000 16.212
46.20000 20.845
46.22000 15.915
46.24000 11.909
46.26000 18.494
46.28000 23.421
46.30000 24.642
46.32000 26.207
46.34000 21.331
46.36000 16.252
46.38000 21.052
46.40000 19.512
46.42000 21.155
46.44000 25.140
46.46000 28.699
46.48000 26.787
46.50000 23.899
46.52000 23.419
46.54000 23.066
46.56000 24.773
46.58000 26.717
46.60000 30.188
46.62000 37.312
46.64000 33.743
46.66000 30.247
46.68000 29.904
46.70000 31.115
46.72000 37.167
46.74000 38.768
46.76000 36.703
46.78000 38.527
46.80000 41.360
46.82000 39.637
46.84000 40.615
46.86000 41.728
46.88000 41.072
46.90000 45.894
46.92000 45.163
46.94000 46.440
46.96000 46.721
46.98000 46.942
47.00000 47.190
47.02000 52.463
47.04000 50.381
47.06000 47.028
47.08000 44.655
47.10000 47.122
47.12000 48.191
47.14000 47.495
47.16000 50.039
47.18000 56.247
47.20000 51.681
47.22000 48.577
47.24000 47.927
47.26000 48.840
47.28000 48.613
47.30000 52.029
47.32000 55.346
47.34000 56.382
47.36000 48.957
47.38000 48.488
47.40000 56.487
47.42000 57.026
47.44000 50.109
47.46000 51.381
47.48000 52.050
47.50000 53.512
47.52000 48.755
47.54000 50.629
47.56000 52.564
47.58000 46.920
47.60000 43.001
47.62000 44.832
47.64000 43.983
47.66000 48.333
47.68000 44.186
47.70000 40.830
47.72000 41.907
47.74000 44.859
47.76000 38.668
47.78000 36.725
47.80000 34.250
47.82000 32.619
47.84000 31.924
47.86000 36.463
47.88000 26.728
47.90000 27.467
47.92000 31.081
47.94000 32.039
47.96000 27.484
47.98000 20.846
48.00000 29.038
48.02000 29.323
48.04000 24.962
48.06000 21.272
48.08000 26.822
48.10000 29.402
48.12000 27.584
48.14000 20.947
48.16000 22.627
48.18000 18.040
48.20000 10.868
48.22000 13.870
48.24000 16.712
48.26000 17.917
48.28000 20.421
48.30000 12.384
48.32000 13.025
48.34000 14.238
48.36000 15.612
48.38000 13.955
48.40000 7.318
48.42000 13.181
48.44000 12.975
48.46000 14.270
48.48000 19.507
48.50000 14.140
48.52000 12.904
48.54000 12.074
48.56000 9.906
48.58000 3.238
48.60000 1.447
48.62000 6.738
48.64000 1.751
48.66000 3.420
48.68000 3.081
48.70000 2.473
48.72000 5.602
48.74000 10.510
48.76000 3.611
48.78000 0.903
48.80000 2.906
48.82000 3.485
48.84000 4.636
48.86000 5.316
48.88000 4.988
48.90000 11.553
48.92000 10.126
48.94000 5.362
48.96000 3.199
48.98000 4.516
49.00000 6.767
49.02000 1.767
49.04000 7.417
49.06000 9.794
49.08000 6.227
49.10000 2.039
49.12000 4.794
49.14000 2.051
49.16000 0.585
49.18000 3.178
49.20000 5.162
49.22000 0.461
49.24000 -3.004
49.26000 3.269
49.28000 6.504
49.30000 0.972
49.32000 1.662
49.34000 3.955
49.36000 2.331
49.38000 1.746
49.40000 3.944
49.42000 3.031
49.44000 6.359
49.46000 2.311
49.48000 2.102
49.50000 3.416
49.52000 1.443
49.54000 3.665
49.56000 4.994
49.58000 5.749
49.60000 5.119
49.62000 5.252
49.64000 5.551
49.66000 4.731
49.68000 8.338
49.70000 7.675
49.72000 6.627
49.74000 8.081
49.76000 8.528
49.78000 7.095
49.80000 7.115
49.82000 6.583
49.84000 2.541
49.86000 7.222
49.88000 6.630
49.90000 4.222
49.92000 6.622
49.94000 9.856
49.96000 5.864
49.98000 10.418
50.00000 9.191
50.02000 9.645
50.04000 4.314
50.06000 -2.863
50.08000 -2.860
50.10000 1.572
50.12000 4.565
50.14000 5.625
50.16000 5.805
50.18000 8.268
50.20000 6.049
50.22000 5.906
50.24000 6.180
50.26000 5.210
50.28000 5.019
50.30000 5.967
50.32000 4.975
50.34000 3.548
50.36000 2.385
50.38000 1.280
50.40000 5.301
50.42000 3.818
50.44000 2.795
50.46000 3.969
50.48000 8.201
50.50000 3.361
50.52000 2.754
50.54000 7.101
50.56000 6.931
50.58000 1.918
50.60000 1.000
50.62000 5.804
50.64000 8.165
50.66000 5.990
50.68000 6.103
50.70000 6.319
50.72000 10.875
50.74000 9.901
50.76000 8.863
50.78000 4.728
50.80000 2.110
50.82000 4.614
50.84000 4.399
50.86000 4.168
50.88000 6.352
50.90000 2.155
50.92000 2.815
50.94000 4.285
50.96000 2.693
50.98000 3.171
51.00000 4.406
51.02000 5.420
51.04000 5.773
51.06000 2.657
51.08000 3.621
51.10000 -1.584
51.12000 1.794
51.14000 6.396
51.16000 5.578
51.18000 5.803
51.20000 4.142
51.22000 4.638
51.24000 0.617
51.26000 4.579
51.28000 3.029
51.30000 5.534
51.32000 5.799
51.34000 4.958
51.36000 6.084
51.38000 5.212
51.40000 1.873
51.42000 -2.804
51.44000 3.872
51.46000 5.316
51.48000 3.665
51.50000 9.489
51.52000 6.024
51.54000 3.512
51.56000 3.576
51.58000 4.447
51.60000 0.102
51.62000 1.695
51.64000 3.727
51.66000 4.248
51.68000 8.021
51.70000 8.473
51.72000 4.410
51.74000 2.670
51.76000 2.089
51.78000 2.901
51.80000 9.063
51.82000 7.380
51.84000 4.405
51.86000 0.399
51.88000 -1.682
51.90000 2.245
51.92000 -0.181
51.94000 1.264
51.96000 2.586
51.98000 1.430
52.00000 3.592
52.02000 1.561
52.04000 5.944
52.06000 6.449
52.08000 3.320
52.10000 6.379
52.12000 10.557
52.14000 6.385
52.16000 -0.551
52.18000 2.438
52.20000 3.566
52.22000 4.850
52.24000 5.167
52.26000 5.352
52.28000 -2.367
52.30000 1.751
52.32000 4.928
52.34000 4.405
52.36000 5.210
52.38000 3.640
52.40000 1.435
52.42000 2.417
52.44000 4.981
52.46000 4.188
52.48000 0.737
52.50000 2.856
52.52000 1.052
52.54000 -2.648
52.56000 2.269
52.58000 2.585
52.60000 1.915
52.62000 1.754
52.64000 5.126
52.66000 0.987
52.68000 2.072
52.70000 1.623
52.72000 2.981
52.74000 1.990
52.76000 -1.061
52.78000 1.626
52.80000 0.684
52.82000 -0.014
52.84000 -1.084
52.86000 -1.145
52.88000 -2.817
52.90000 -2.019
52.92000 0.666
52.94000 0.339
52.96000 -0.696
52.98000 -0.958
53.00000 2.034
53.02000 4.516
53.04000 7.009
53.06000 3.260
53.08000 -0.746
53.10000 3.055
53.12000 3.830
53.14000 3.015
53.16000 5.024
53.18000 4.348
53.20000 0.601
53.22000 1.694
53.24000 1.997
53.26000 2.825
53.28000 3.135
53.30000 7.464
53.32000 7.288
53.34000 -0.306
53.36000 -1.631
53.38000 1.466
53.40000 1.142
53.42000 0.142
53.44000 5.265
53.46000 6.912
53.48000 3.078
53.50000 1.489
53.52000 3.922
53.54000 5.121
53.56000 9.701
53.58000 8.064
53.60000 4.282
53.62000 1.729
53.64000 2.536
53.66000 2.658
53.68000 2.872
53.70000 2.039
53.72000 4.743
53.74000 4.496
53.76000 7.711
53.78000 6.128
53.80000 4.704
53.82000 5.645
53.84000 3.190
53.86000 0.879
53.88000 -0.234
53.90000 1.020
53.92000 2.183
53.94000 6.251
53.96000 2.436
53.98000 -0.704
54.00000 -2.764
54.02000 0.693
54.04000 4.270
54.06000 6.992
54.08000 6.074
54.10000 2.852
54.12000 1.684
54.14000 1.625
54.16000 6.629
54.18000 10.870
54.20000 4.249
54.22000 -0.867
54.24000 -2.728
54.26000 -1.830
54.28000 2.545
54.30000 2.239
54.32000 1.003
54.34000 1.706
54.36000 7.667
54.38000 5.691
54.40000 4.649
54.42000 0.708
54.44000 -2.553
54.46000 -2.770
54.48000 2.794
54.50000 3.192
54.52000 0.000
54.54000 -1.596
54.56000 3.925
54.58000 7.594
54.60000 6.034
54.62000 1.588
54.64000 1.905
54.66000 2.390
54.68000 1.632
54.70000 1.967
54.72000 1.511
54.74000 3.327
54.76000 1.458
54.78000 0.001
54.80000 1.483
54.82000 0.933
54.84000 1.393
54.86000 -1.138
54.88000 -1.175
54.90000 1.673
54.92000 -0.619
54.94000 1.069
54.96000 3.166
54.98000 -1.754
55.00000 -2.560
55.02000 1.358
55.04000 0.204
55.06000 3.639
55.08000 4.105
55.10000 6.814
55.12000 1.283
55.14000 4.568
55.16000 1.327
55.18000 3.585
55.20000 7.471
55.22000 4.955
55.24000 2.645
55.26000 1.430
55.28000 3.854
55.30000 3.340
55.32000 2.781
55.34000 0.498
55.36000 4.653
55.38000 6.700
55.40000 4.834
55.42000 3.340
55.44000 -2.749
55.46000 -1.240
55.48000 -1.615
55.50000 0.525
55.52000 -0.499
55.54000 -2.149
55.56000 2.029
55.58000 1.580
55.60000 0.988
55.62000 0.524
55.64000 -0.621
55.66000 -0.914
55.68000 0.004
55.70000 2.639
55.72000 1.360
55.74000 4.081
55.76000 8.062
55.78000 8.501
55.80000 8.225
55.82000 1.982
55.84000 -1.896
55.86000 3.350
55.88000 3.593
55.90000 5.602
55.92000 1.657
55.94000 4.352
55.96000 2.967
55.98000 3.447
56.00000 2.899
56.02000 -0.052
56.04000 3.905
56.06000 1.323
56.08000 0.251
56.10000 3.736
56.12000 1.332
56.14000 -0.652
56.16000 2.370
56.18000 0.415
56.20000 -0.640
56.22000 -0.178
56.24000 -2.493
56.26000 -0.689
56.28000 -1.004
56.30000 -2.001
56.32000 1.986
56.34000 1.938
56.36000 1.062
56.38000 4.851
56.40000 3.009
56.42000 3.527
56.44000 1.232
56.46000 1.586
56.48000 5.526
56.50000 3.724
56.52000 3.470
56.54000 -0.076
56.56000 3.711
56.58000 2.803
56.60000 4.464
56.62000 2.378
56.64000 2.200
56.66000 1.063
56.68000 1.557
56.70000 3.025
56.72000 1.532
56.74000 -2.696
56.76000 -2.657
56.78000 2.846
56.80000 1.074
56.82000 6.107
56.84000 2.471
56.86000 0.738
56.88000 6.301
56.90000 5.109
56.92000 1.380
56.94000 1.559
56.96000 1.266
56.98000 1.740
57.00000 -2.387
57.02000 -2.694
57.04000 -0.454
57.06000 -2.155
57.08000 0.581
57.10000 2.972
57.12000 0.739
57.14000 0.644
57.16000 2.360
57.18000 -0.984
57.20000 -1.983
57.22000 -1.937
57.24000 0.694
57.26000 4.749
57.28000 7.791
57.30000 6.182
57.32000 4.549
57.34000 -0.655
57.36000 0.314
57.38000 4.088
57.40000 3.878
57.42000 3.797
57.44000 6.205
57.46000 4.057
57.48000 1.071
57.50000 1.572
57.52000 4.521
57.54000 3.391
57.56000 3.809
57.58000 4.211
57.60000 -0.861
57.62000 -0.932
57.64000 -1.426
57.66000 3.294
57.68000 4.505
57.70000 4.375
57.72000 0.916
57.74000 4.766
57.76000 3.457
57.78000 3.714
57.80000 2.191
57.82000 -0.588
57.84000 -2.287
57.86000 4.684
57.88000 7.448
57.90000 0.228
57.92000 -2.296
57.94000 0.329
57.96000 5.814
57.98000 8.823
58.00000 -1.696
58.02000 1.851
58.04000 4.842
58.06000 3.297
58.08000 3.353
58.10000 5.029
58.12000 2.491
58.14000 -1.403
58.16000 -0.864
58.18000 -2.639
58.20000 -0.436
58.22000 1.418
58.24000 6.481
58.26000 4.985
58.28000 2.040
58.30000 0.120
58.32000 0.151
58.34000 0.494
58.36000 3.737
58.38000 3.392
58.40000 -1.144
58.42000 1.161
58.44000 5.743
58.46000 6.385
58.48000 5.282
58.50000 3.881
58.52000 3.321
58.54000 2.238
58.56000 1.199
58.58000 3.469
58.60000 2.289
58.62000 1.917
58.64000 -1.160
58.66000 0.558
58.68000 0.046
58.70000 2.178
58.72000 -0.510
58.74000 -2.619
58.76000 1.569
58.78000 6.741
58.80000 6.647
58.82000 1.610
58.84000 4.428
58.86000 5.444
58.88000 4.301
58.90000 -0.914
58.92000 0.727
58.94000 4.165
58.96000 5.071
58.98000 8.400
59.00000 2.612
59.02000 0.170
59.04000 1.831
59.06000 2.514
59.08000 0.629
59.10000 0.426
59.12000 3.586
59.14000 -0.680
59.16000 2.348
59.18000 4.735
59.20000 4.930
59.22000 3.934
59.24000 4.038
59.26000 5.609
59.28000 3.269
59.30000 7.448
59.32000 4.910
59.34000 0.261
59.36000 3.264
59.38000 7.930
59.40000 6.512
59.42000 2.885
59.44000 1.535
59.46000 -2.585
59.48000 -1.244
59.50000 2.158
59.52000 3.070
59.54000 2.007
59.56000 0.189
59.58000 -1.300
59.60000 -0.981
59.62000 2.514
59.64000 1.367
59.66000 4.474
59.68000 2.141
59.70000 1.493
59.72000 3.886
59.74000 5.755
59.76000 1.587
59.78000 -0.499
59.80000 1.596
59.82000 3.306
59.84000 1.855
59.86000 2.634
59.88000 3.789
59.90000 3.481
59.92000 -2.571
59.94000 1.817
59.96000 5.452
59.98000 2.845
60.00000 1.473
60.02000 1.953
60.04000 1.427
60.06000 0.795
60.08000 0.263
60.10000 0.730
60.12000 1.409
60.14000 2.802
60.16000 8.570
60.18000 7.140
60.20000 2.696
60.22000 0.458
60.24000 6.218
60.26000 8.223
60.28000 4.150
60.30000 -1.524
60.32000 -2.018
60.34000 -2.432
60.36000 4.670
60.38000 4.895
60.40000 5.337
60.42000 3.511
60.44000 -0.143
60.46000 0.388
60.48000 0.446
60.50000 -0.148
60.52000 2.263
60.54000 8.170
60.56000 6.786
60.58000 3.696
60.60000 3.657
60.62000 -0.893
60.64000 -2.550
60.66000 4.106
60.68000 0.504
60.70000 -0.798
60.72000 2.186
60.74000 1.445
60.76000 4.002
60.78000 3.608
60.80000 2.857
60.82000 2.472
60.84000 1.686
60.86000 1.630
60.88000 1.329
60.90000 3.097
60.92000 4.018
60.94000 6.226
60.96000 2.829
60.98000 0.290
61.00000 2.878
61.02000 3.649
61.04000 4.385
61.06000 1.291
61.08000 1.741
61.10000 -1.527
61.12000 -0.761
61.14000 -1.320
61.16000 -0.327
61.18000 -0.702
61.20000 -2.355
61.22000 2.167
61.24000 1.489
61.26000 2.443
61.28000 -2.272
61.30000 -0.971
61.32000 2.734
61.34000 2.545
61.36000 3.785
61.38000 -1.811
61.40000 -1.886
61.42000 0.431
61.44000 -0.323
61.46000 -2.533
61.48000 -2.519
61.50000 -1.082
61.52000 0.756
61.54000 3.448
61.56000 1.030
61.58000 0.503
61.60000 0.639
61.62000 -1.868
61.64000 -0.735
61.66000 0.920
61.68000 0.295
61.70000 3.749
61.72000 5.481
61.74000 1.923
61.76000 0.527
61.78000 6.294
61.80000 7.928
61.82000 6.096
61.84000 3.649
61.86000 0.333
61.88000 -2.480
61.90000 0.629
61.92000 -0.317
61.94000 -1.103
61.96000 4.721
61.98000 3.531
62.00000 0.512
62.02000 2.143
62.04000 0.252
62.06000 0.276
62.08000 2.968
62.10000 1.555
62.12000 -0.588
62.14000 1.225
62.16000 2.973
62.18000 0.654
62.20000 2.990
62.22000 4.640
62.24000 0.631
62.26000 0.335
62.28000 2.046
62.30000 -0.093
62.32000 -1.030
62.34000 -2.491
62.36000 0.032
62.38000 0.522
62.40000 2.710
62.42000 2.070
62.44000 1.679
62.46000 6.309
62.48000 5.719
62.50000 3.162
62.52000 4.062
62.54000 2.679
62.56000 1.794
62.58000 5.887
62.60000 6.668
62.62000 6.702
62.64000 3.762
62.66000 2.227
62.68000 -0.171
62.70000 1.673
62.72000 2.940
62.74000 6.516
62.76000 5.133
62.78000 5.599
62.80000 7.553
62.82000 2.818
62.84000 6.867
62.86000 4.745
62.88000 5.457
62.90000 5.187
62.92000 -0.483
62.94000 -2.465
62.96000 1.847
62.98000 3.970
63.00000 0.807
63.02000 2.144
63.04000 4.150
63.06000 3.351
63.08000 3.891
63.10000 5.507
63.12000 3.973
63.14000 3.321
63.16000 6.447
63.18000 7.900
63.20000 4.573
63.22000 -0.024
63.24000 -0.356
63.26000 2.045
63.28000 1.169
63.30000 0.901
63.32000 3.221
63.34000 3.146
63.36000 -1.426
63.38000 1.482
63.40000 3.258
63.42000 6.203
63.44000 3.810
63.46000 1.717
63.48000 1.982
63.50000 4.119
63.52000 3.376
63.54000 2.204
63.56000 2.419
63.58000 3.482
63.60000 5.214
63.62000 0.475
63.64000 3.442
63.66000 0.964
63.68000 0.988
63.70000 1.366
63.72000 3.857
63.74000 3.914
63.76000 3.961
63.78000 2.956
63.80000 2.376
63.82000 1.018
63.84000 2.855
63.86000 4.670
63.88000 4.249
63.90000 2.903
63.92000 3.323
63.94000 2.718
63.96000 1.804
63.98000 -1.599
64.00000 1.395
64.02000 4.621
64.04000 2.262
64.06000 -0.329
64.08000 2.525
64.10000 0.270
64.12000 -1.833
64.14000 1.399
64.16000 3.161
64.18000 3.015
64.20000 4.796
64.22000 5.782
64.24000 5.029
64.26000 2.289
64.28000 -1.118
64.30000 -2.482
64.32000 1.813
64.34000 0.641
64.36000 1.657
64.38000 5.449
64.40000 5.451
64.42000 5.412
64.44000 1.140
64.46000 -1.659
64.48000 0.338
64.50000 6.092
64.52000 4.509
64.54000 3.236
64.56000 0.703
64.58000 -0.809
64.60000 -2.260
64.62000 -1.928
64.64000 1.348
64.66000 2.600
64.68000 8.467
64.70000 6.907
64.72000 4.455
64.74000 3.205
64.76000 2.706
64.78000 0.687
64.80000 3.019
64.82000 4.552
64.84000 -0.673
64.86000 0.046
64.88000 1.811
64.90000 2.777
64.92000 3.504
64.94000 3.537
64.96000 0.969
64.98000 -1.159
65.00000 2.796
65.02000 3.374
65.04000 4.001
65.06000 1.700
65.08000 2.321
65.10000 -0.585
65.12000 2.174
65.14000 6.200
65.16000 4.394
65.18000 0.726
65.20000 -0.404
65.22000 0.523
65.24000 2.663
65.26000 4.519
65.28000 2.136
65.30000 -0.349
65.32000 1.964
65.34000 2.512
65.36000 0.046
65.38000 2.064
65.40000 3.787
65.42000 5.457
65.44000 4.761
65.46000 3.696
65.48000 6.056
65.50000 4.237
65.52000 1.667
65.54000 -2.511
65.56000 -1.368
65.58000 1.039
65.60000 -1.938
65.62000 -2.221
65.64000 -1.066
65.66000 0.116
65.68000 0.455
65.70000 -1.147
65.72000 0.971
65.74000 2.421
65.76000 3.271
65.78000 4.228
65.80000 -0.690
65.82000 -2.251
65.84000 3.184
65.86000 1.951
65.88000 1.951
65.90000 2.549
65.92000 1.518
65.94000 -0.570
65.96000 -0.700
65.98000 2.919
66.00000 1.447
66.02000 2.055
66.04000 3.036
66.06000 2.096
66.08000 1.593
66.10000 1.134
66.12000 0.741
66.14000 2.259
66.16000 0.644
66.18000 0.529
66.20000 3.093
66.22000 2.990
66.24000 1.347
66.26000 1.132
66.28000 -0.454
66.30000 -0.726
66.32000 -0.724
66.34000 -2.542
66.36000 1.400
66.38000 3.959
66.40000 2.085
66.42000 2.135
66.44000 -2.160
66.46000 4.226
66.48000 3.687
66.50000 -0.284
66.52000 -0.226
66.54000 -1.854
66.56000 1.348
66.58000 0.444
66.60000 -0.762
66.62000 1.585
66.64000 1.065
66.66000 -0.803
66.68000 -1.494
66.70000 2.241
66.72000 0.825
66.74000 1.858
66.76000 3.029
66.78000 3.268
66.80000 1.599
66.82000 -2.541
66.84000 0.756
66.86000 3.335
66.88000 5.286
66.90000 3.736
66.92000 1.997
66.94000 1.940
66.96000 -1.403
66.98000 -0.049
67.00000 4.930
67.02000 -0.096
67.04000 1.703
67.06000 -0.555
67.08000 1.794
67.10000 1.239
67.12000 0.475
67.14000 -1.072
67.16000 1.263
67.18000 -1.179
67.20000 1.862
67.22000 4.218
67.24000 4.846
67.26000 2.198
67.28000 3.094
67.30000 0.244
67.32000 1.393
67.34000 0.161
67.36000 -2.547
67.38000 1.500
67.40000 0.780
67.42000 1.403
67.44000 -0.082
67.46000 -0.265
67.48000 2.634
67.50000 2.494
67.52000 3.075
67.54000 3.019
67.56000 0.759
67.58000 0.348
67.60000 0.017
67.62000 2.297
67.64000 5.267
67.66000 3.720
67.68000 -1.415
67.70000 1.012
67.72000 2.241
67.74000 -0.280
67.76000 0.683
67.78000 1.323
67.80000 3.572
67.82000 4.326
67.84000 2.800
67.86000 -1.298
67.88000 0.029
67.90000 1.411
67.92000 1.087
67.94000 1.265
67.96000 3.031
67.98000 0.978
68.00000 0.291
68.02000 0.712
68.04000 0.907
68.06000 2.167
68.08000 4.639
68.10000 4.163
68.12000 5.400
68.14000 5.182
68.16000 5.255
68.18000 3.475
68.20000 4.016
68.22000 6.486
68.24000 6.197
68.26000 4.874
68.28000 4.697
68.30000 6.522
68.32000 4.859
68.34000 2.132
68.36000 2.870
68.38000 6.156
68.40000 7.769
68.42000 8.077
68.44000 7.147
68.46000 10.349
68.48000 10.622
68.50000 10.720
68.52000 9.733
68.54000 10.506
68.56000 9.654
68.58000 9.006
68.60000 5.923
68.62000 10.544
68.64000 14.359
68.66000 15.879
68.68000 14.389
68.70000 12.248
68.72000 10.251
68.74000 14.780
68.76000 15.966
68.78000 12.465
68.80000 12.771
68.82000 19.917
68.84000 18.642
68.86000 16.590
68.88000 18.228
68.90000 21.610
68.92000 15.542
68.94000 11.638
68.96000 17.787
68.98000 21.138
69.00000 19.119
69.02000 23.150
69.04000 21.769
69.06000 21.409
69.08000 20.515
69.10000 16.876
69.12000 20.117
69.14000 25.849
69.16000 24.217
69.18000 23.835
69.20000 23.754
69.22000 19.421
69.24000 18.580
69.26000 21.517
69.28000 21.509
69.30000 19.865
69.32000 22.719
69.34000 24.681
69.36000 24.735
69.38000 18.297
69.40000 18.574
69.42000 21.437
69.44000 20.049
69.46000 19.893
69.48000 21.235
69.50000 18.440
69.52000 19.737
69.54000 19.720
69.56000 18.702
69.58000 16.071
69.60000 16.220
69.62000 16.210
69.64000 16.100
69.66000 14.679
69.68000 14.926
69.70000 16.760
69.72000 18.345
69.74000 20.672
69.76000 13.624
69.78000 14.209
69.80000 11.675
69.82000 14.099
69.84000 13.070
69.86000 12.687
69.88000 13.240
69.90000 13.455
69.92000 8.756
69.94000 7.468
69.96000 7.952
69.98000 10.282
70.00000 13.307
70.02000 12.166
70.04000 11.413
70.06000 9.879
70.08000 6.965
70.10000 5.776
70.12000 8.086
70.14000 6.813
70.16000 11.040
70.18000 9.204
70.20000 3.549
70.22000 0.481
70.24000 -2.471
70.26000 2.318
70.28000 7.381
70.30000 8.393
70.32000 5.691
70.34000 8.191
70.36000 9.907
70.38000 9.155
70.40000 7.014
70.42000 4.228
70.44000 3.567
70.46000 2.673
70.48000 2.270
70.50000 2.142
70.52000 5.174
70.54000 6.128
70.56000 2.480
70.58000 1.301
70.60000 2.158
70.62000 3.527
70.64000 -1.721
70.66000 2.263
70.68000 1.707
70.70000 3.642
70.72000 -0.054
70.74000 0.395
70.76000 2.120
70.78000 3.808
70.80000 5.095
70.82000 7.349
70.84000 4.071
70.86000 3.775
70.88000 0.644
70.90000 0.777
70.92000 2.981
70.94000 0.110
70.96000 2.826
70.98000 7.184
71.00000 2.659
71.02000 4.557
71.04000 2.859
71.06000 5.326
71.08000 2.554
71.10000 5.886
71.12000 3.802
71.14000 -2.447
71.16000 -1.754
71.18000 -0.364
71.20000 2.528
71.22000 3.372
71.24000 2.546
71.26000 7.476
71.28000 5.097
71.30000 0.906
71.32000 3.718
71.34000 0.863
71.36000 0.413
71.38000 3.287
71.40000 3.527
71.42000 0.529
71.44000 -0.804
71.46000 4.223
71.48000 2.776
71.50000 0.559
71.52000 0.255
71.54000 4.128
71.56000 3.623
71.58000 2.912
71.60000 1.276
71.62000 0.654
71.64000 1.604
71.66000 1.185
71.68000 1.227
71.70000 1.335
71.72000 0.420
71.74000 2.411
71.76000 2.269
71.78000 2.259
71.80000 5.046
71.82000 4.379
71.84000 -0.074
71.86000 4.451
71.88000 1.704
71.90000 -0.812
71.92000 0.118
71.94000 1.998
71.96000 3.257
71.98000 4.271
72.00000 5.751
72.02000 2.361
72.04000 -1.675
72.06000 1.037
72.08000 2.371
72.10000 0.544
72.12000 0.148
72.14000 0.720
72.16000 0.548
72.18000 -1.872
72.20000 0.931
72.22000 -0.263
72.24000 2.036
72.26000 4.554
72.28000 8.029
72.30000 4.378
72.32000 1.764
72.34000 1.669
72.36000 4.299
72.38000 2.604
72.40000 -2.092
72.42000 -0.504
72.44000 3.947
72.46000 3.826
72.48000 -0.384
72.50000 -2.334
72.52000 0.338
72.54000 2.945
72.56000 -0.442
72.58000 0.660
72.60000 4.393
72.62000 6.851
72.64000 1.365
72.66000 -2.252
72.68000 1.821
72.70000 4.200
72.72000 6.556
72.74000 5.764
72.76000 6.520
72.78000 1.939
72.80000 2.212
72.82000 3.412
72.84000 5.630
72.86000 8.354
72.88000 5.069
72.90000 3.137
72.92000 4.124
72.94000 0.868
72.96000 0.622
72.98000 7.346
73.00000 5.890
73.02000 9.323
73.04000 4.720
73.06000 4.366
73.08000 7.230
73.10000 0.672
73.12000 -0.941
73.14000 -0.968
73.16000 -2.300
73.18000 -0.793
73.20000 3.444
73.22000 2.040
73.24000 4.336
73.26000 3.984
73.28000 1.045
73.30000 3.449
73.32000 3.858
73.34000 1.887
73.36000 4.053
73.38000 1.269
73.40000 2.987
73.42000 4.981
73.44000 4.779
73.46000 6.484
73.48000 3.930
73.50000 3.883
73.52000 4.344
73.54000 4.624
73.56000 5.880
73.58000 4.499
73.60000 5.099
73.62000 4.937
73.64000 5.737
73.66000 5.976
73.68000 4.113
73.70000 1.521
73.72000 2.238
73.74000 5.057
73.76000 4.370
73.78000 6.661
73.80000 6.427
73.82000 7.701
73.84000 7.302
73.86000 6.045
73.88000 4.982
73.90000 2.376
73.92000 6.806
73.94000 8.624
73.96000 11.093
73.98000 4.229
74.00000 3.543
74.02000 6.213
74.04000 3.828
74.06000 3.583
74.08000 3.684
74.10000 -1.994
74.12000 -2.252
74.14000 0.620
74.16000 3.657
74.18000 5.644
74.20000 4.345
74.22000 6.088
74.24000 7.911
74.26000 7.834
74.28000 5.670
74.30000 3.784
74.32000 2.810
74.34000 2.878
74.36000 3.839
74.38000 6.228
74.40000 4.409
74.42000 4.088
74.44000 3.217
74.46000 3.213
74.48000 1.227
74.50000 1.186
74.52000 5.521
74.54000 2.691
74.56000 3.594
74.58000 3.056
74.60000 8.099
74.62000 3.932
74.64000 2.407
74.66000 1.872
74.68000 -1.716
74.70000 -0.344
74.72000 1.775
74.74000 1.241
74.76000 -2.065
74.78000 -0.037
74.80000 3.665
74.82000 5.280
74.84000 6.812
74.86000 4.720
74.88000 2.917
74.90000 5.056
74.92000 2.915
74.94000 0.271
74.96000 1.221
74.98000 0.487
75.00000 4.200
75.02000 -1.047
75.04000 -1.255
75.06000 3.130
75.08000 1.104
75.10000 -0.019
75.12000 3.012
75.14000 3.939
75.16000 1.869
75.18000 -0.120
75.20000 1.705
75.22000 6.552
75.24000 9.108
75.26000 3.510
75.28000 3.337
75.30000 0.562
75.32000 2.340
75.34000 1.632
75.36000 -1.307
75.38000 3.935
75.40000 0.654
75.42000 3.384
75.44000 4.618
75.46000 1.424
75.48000 4.428
75.50000 -0.295
75.52000 2.191
75.54000 5.050
75.56000 2.232
75.58000 3.537
75.60000 1.160
75.62000 2.223
75.64000 4.158
75.66000 5.866
75.68000 4.284
75.70000 1.283
75.72000 3.720
75.74000 6.511
75.76000 9.300
75.78000 6.619
75.80000 2.100
75.82000 8.068
75.84000 2.829
75.86000 0.355
75.88000 -1.153
75.90000 2.688
75.92000 3.579
75.94000 5.518
75.96000 4.463
75.98000 0.037
76.00000 6.135
76.02000 8.533
76.04000 4.593
76.06000 0.880
76.08000 4.209
76.10000 3.597
76.12000 2.397
76.14000 5.483
76.16000 6.788
76.18000 5.409
76.20000 5.037
76.22000 4.134
76.24000 4.682
76.26000 4.022
76.28000 4.712
76.30000 6.715
76.32000 4.513
76.34000 2.615
76.36000 3.513
76.38000 1.673
76.40000 3.615
76.42000 7.753
76.44000 5.856
76.46000 3.303
76.48000 7.697
76.50000 9.739
76.52000 5.713
76.54000 3.820
76.56000 4.697
76.58000 7.949
76.60000 10.482
76.62000 5.647
76.64000 4.989
76.66000 4.649
76.68000 5.481
76.70000 9.481
76.72000 4.659
76.74000 7.348
76.76000 3.911
76.78000 2.258
76.80000 -2.248
76.82000 2.301
76.84000 10.491
76.86000 10.256
76.88000 2.165
76.90000 0.356
76.92000 2.118
76.94000 5.284
76.96000 4.446
76.98000 2.589
77.00000 3.686
77.02000 4.738
77.04000 3.989
77.06000 6.122
77.08000 6.396
77.10000 5.358
77.12000 2.230
77.14000 6.299
77.16000 7.159
77.18000 7.173
77.20000 1.672
77.22000 4.149
77.24000 5.565
77.26000 5.834
77.28000 0.759
77.30000 2.435
77.32000 5.190
77.34000 6.497
77.36000 6.436
77.38000 7.859
77.40000 8.386
77.42000 6.220
77.44000 4.735
77.46000 5.176
77.48000 7.434
77.50000 5.226
77.52000 2.789
77.54000 1.165
77.56000 4.298
77.58000 6.672
77.60000 3.284
77.62000 2.455
77.64000 2.156
77.66000 0.424
77.68000 4.246
77.70000 -0.357
77.72000 1.123
77.74000 -0.601
77.76000 2.501
77.78000 4.751
77.80000 3.763
77.82000 2.777
77.84000 4.466
77.86000 2.802
77.88000 1.318
77.90000 3.722
77.92000 1.785
77.94000 -0.196
77.96000 2.285
77.98000 3.318
78.00000 3.611
78.02000 3.668
78.04000 6.273
78.06000 5.375
78.08000 2.860
78.10000 2.200
78.12000 10.477
78.14000 6.481
78.16000 5.921
78.18000 8.034
78.20000 7.438
78.22000 4.414
78.24000 4.280
78.26000 4.886
78.28000 1.129
78.30000 1.548
78.32000 3.597
78.34000 1.825
78.36000 3.981
78.38000 8.645
78.40000 6.754
78.42000 4.798
78.44000 -2.337
78.46000 1.211
78.48000 4.663
78.50000 4.161
78.52000 3.352
78.54000 -1.844
78.56000 -1.396
78.58000 1.302
78.60000 1.555
78.62000 3.922
78.64000 3.609
78.66000 4.194
78.68000 0.025
78.70000 2.004
78.72000 6.695
78.74000 5.398
78.76000 -0.536
78.78000 -0.130
78.80000 -0.575
78.82000 -1.865
78.84000 1.650
78.86000 1.426
78.88000 1.952
78.90000 2.751
78.92000 4.088
78.94000 3.232
78.96000 0.385
78.98000 1.510
79.00000 2.111
79.02000 1.805
79.04000 4.443
79.06000 4.395
79.08000 4.403
79.10000 3.450
79.12000 4.050
79.14000 4.569
79.16000 2.055
79.18000 -1.277
79.20000 3.310
79.22000 3.494
79.24000 4.113
79.26000 8.750
79.28000 6.355
79.30000 1.977
79.32000 3.759
79.34000 4.112
79.36000 6.807
79.38000 8.019
79.40000 6.648
79.42000 5.911
79.44000 5.911
79.46000 4.081
79.48000 4.593
79.50000 3.534
79.52000 5.834
79.54000 4.840
79.56000 0.360
79.58000 -0.143
79.60000 3.510
79.62000 4.610
79.64000 4.994
79.66000 6.281
79.68000 4.481
79.70000 6.427
79.72000 6.293
79.74000 7.548
79.76000 8.838
79.78000 6.276
79.80000 0.541
79.82000 -0.641
79.84000 4.704
79.86000 2.535
79.88000 5.583
79.90000 2.405
79.92000 -2.315
79.94000 6.308
79.96000 3.932
79.98000 2.427
80.00000 8.524
80.02000 6.432
80.04000 5.361
80.06000 8.621
80.08000 6.990
80.10000 5.674
80.12000 5.263
80.14000 6.303
80.16000 5.399
80.18000 1.676
80.20000 -2.331
80.22000 1.997
80.24000 5.762
80.26000 3.774
80.28000 -0.222
80.30000 -2.338
80.32000 3.331
80.34000 4.089
80.36000 4.591
80.38000 7.264
80.40000 5.451
80.42000 6.090
80.44000 3.277
80.46000 7.672
80.48000 5.842
80.50000 1.320
80.52000 -2.007
80.54000 -0.732
80.56000 -2.006
80.58000 3.291
80.60000 1.563
80.62000 4.921
80.64000 5.625
80.66000 7.192
80.68000 6.866
80.70000 7.372
80.72000 3.971
80.74000 1.944
80.76000 7.709
80.78000 9.330
80.80000 3.378
80.82000 0.934
80.84000 4.234
80.86000 4.753
80.88000 -0.644
80.90000 1.792
80.92000 8.840
80.94000 5.278
80.96000 3.183
80.98000 4.801
81.00000 -1.233
81.02000 -2.406
81.04000 0.370
81.06000 1.160
81.08000 1.182
81.10000 0.442
81.12000 1.550
81.14000 0.727
81.16000 1.428
81.18000 2.512
81.20000 2.290
81.22000 0.096
81.24000 1.349
81.26000 2.374
81.28000 3.897
81.30000 -0.903
81.32000 -1.215
81.34000 1.523
81.36000 0.065
81.38000 2.080
81.40000 0.940
81.42000 6.600
81.44000 4.737
81.46000 0.497
81.48000 3.283
81.50000 3.590
81.52000 3.581
81.54000 3.818
81.56000 4.757
81.58000 4.616
81.60000 5.423
81.62000 2.678
81.64000 3.299
81.66000 -0.764
81.68000 -0.908
81.70000 0.147
81.72000 2.085
81.74000 2.916
81.76000 2.903
81.78000 5.345
81.80000 6.277
81.82000 4.368
81.84000 0.787
81.86000 -2.040
81.88000 0.708
81.90000 5.335
81.92000 1.677
81.94000 0.630
81.96000 1.718
81.98000 1.999
82.00000 3.557
82.02000 3.418
82.04000 -0.291
82.06000 2.689
82.08000 4.382
82.10000 2.590
82.12000 6.206
82.14000 7.066
82.16000 2.157
82.18000 -1.404
82.20000 0.977
82.22000 4.735
82.24000 2.384
82.26000 0.676
82.28000 -0.223
82.30000 0.478
82.32000 1.389
82.34000 2.923
82.36000 3.402
82.38000 8.513
82.40000 5.798
82.42000 6.194
82.44000 6.853
82.46000 4.682
82.48000 0.928
82.50000 -0.855
82.52000 2.416
82.54000 1.018
82.56000 5.422
82.58000 4.649
82.60000 5.488
82.62000 7.675
82.64000 8.556
82.66000 9.099
82.68000 5.272
82.70000 9.042
82.72000 13.451
82.74000 9.886
82.76000 10.726
82.78000 4.918
82.80000 9.249
82.82000 12.462
82.84000 12.934
82.86000 13.688
82.88000 11.397
82.90000 15.097
82.92000 14.148
82.94000 17.080
82.96000 15.521
82.98000 14.666
83.00000 12.720
83.02000 13.517
83.04000 12.512
83.06000 8.839
83.08000 10.965
83.10000 18.886
83.12000 25.455
83.14000 24.557
83.16000 19.619
83.18000 14.212
83.20000 18.119
83.22000 14.349
83.24000 15.365
83.26000 18.690
83.28000 19.653
83.30000 22.808
83.32000 20.876
83.34000 24.425
83.36000 22.068
83.38000 22.923
83.40000 24.925
83.42000 24.641
83.44000 23.153
83.46000 19.828
83.48000 16.813
83.50000 21.692
83.52000 17.116
83.54000 18.522
83.56000 22.970
83.58000 28.589
83.60000 28.591
83.62000 28.509
83.64000 27.334
83.66000 19.650
83.68000 19.900
83.70000 18.887
83.72000 17.546
83.74000 24.241
83.76000 24.123
83.78000 19.466
83.80000 22.204
83.82000 22.761
83.84000 22.621
83.86000 19.987
83.88000 18.410
83.90000 18.752
83.92000 17.192
83.94000 19.186
83.96000 20.667
83.98000 22.733
84.00000 22.881
84.02000 27.327
84.04000 24.797
84.06000 19.749
84.08000 15.650
84.10000 16.207
84.12000 15.381
84.14000 13.381
84.16000 15.343
84.18000 16.340
84.20000 10.683
84.22000 14.180
84.24000 16.817
84.26000 18.244
84.28000 16.382
84.30000 16.447
84.32000 16.690
84.34000 13.626
84.36000 14.774
84.38000 13.403
84.40000 14.402
84.42000 14.902
84.44000 9.764
84.46000 9.476
84.48000 9.960
84.50000 4.893
84.52000 7.809
84.54000 10.053
84.56000 7.498
84.58000 5.247
84.60000 4.378
84.62000 6.205
84.64000 3.677
84.66000 4.083
84.68000 10.093
84.70000 7.844
84.72000 7.770
84.74000 5.326
84.76000 5.659
84.78000 5.678
84.80000 9.291
84.82000 5.219
84.84000 1.609
84.86000 6.060
84.88000 9.406
84.90000 7.068
84.92000 9.920
84.94000 8.708
84.96000 7.603
84.98000 3.383
85.00000 1.118
85.02000 1.355
85.04000 4.833
85.06000 7.647
85.08000 4.602
85.10000 7.988
85.12000 8.759
85.14000 6.595
85.16000 5.377
85.18000 5.934
85.20000 7.247
85.22000 2.872
85.24000 -1.119
85.26000 1.646
85.28000 1.013
85.30000 3.124
85.32000 5.748
85.34000 1.700
85.36000 1.099
85.38000 -0.145
85.40000 6.503
85.42000 3.610
85.44000 0.083
85.46000 3.584
85.48000 4.747
85.50000 7.396
85.52000 5.268
85.54000 2.698
85.56000 1.748
85.58000 3.878
85.60000 -2.351
85.62000 -1.461
85.64000 2.844
85.66000 5.805
85.68000 7.618
85.70000 7.616
85.72000 7.943
85.74000 3.917
85.76000 4.770
85.78000 9.430
85.80000 6.471
85.82000 0.508
85.84000 -2.308
85.86000 4.802
85.88000 7.062
85.90000 7.047
85.92000 3.284
85.94000 3.951
85.96000 1.170
85.98000 3.234
86.00000 1.602
86.02000 2.482
86.04000 2.703
86.06000 1.161
86.08000 2.157
86.10000 0.054
86.12000 -1.072
86.14000 4.299
86.16000 4.852
86.18000 4.127
86.20000 4.145
86.22000 2.929
86.24000 4.927
86.26000 0.516
86.28000 2.724
86.30000 1.871
86.32000 3.267
86.34000 3.193
86.36000 4.776
86.38000 4.269
86.40000 2.613
86.42000 2.764
86.44000 2.368
86.46000 5.983
86.48000 4.073
86.50000 -0.132
86.52000 0.148
86.54000 -0.098
86.56000 2.130
86.58000 2.445
86.60000 3.574
86.62000 7.427
86.64000 6.111
86.66000 3.763
86.68000 1.920
86.70000 3.329
86.72000 0.942
86.74000 -0.785
86.76000 3.997
86.78000 2.269
86.80000 2.678
86.82000 4.691
86.84000 4.456
86.86000 5.071
86.88000 4.559
86.90000 8.704
86.92000 10.248
86.94000 6.379
86.96000 1.806
86.98000 -0.532
87.00000 -0.937
87.02000 3.010
87.04000 5.396
87.06000 2.933
87.08000 0.624
87.10000 4.108
87.12000 10.221
87.14000 13.690
87.16000 7.920
87.18000 4.556
87.20000 8.339
87.22000 10.051
87.24000 7.689
87.26000 2.931
87.28000 6.540
87.30000 2.377
87.32000 9.702
87.34000 11.308
87.36000 11.191
87.38000 10.049
87.40000 7.838
87.42000 8.176
87.44000 12.477
87.46000 14.162
87.48000 12.949
87.50000 11.662
87.52000 15.057
87.54000 17.263
87.56000 11.425
87.58000 13.592
87.60000 13.226
87.62000 12.934
87.64000 9.372
87.66000 12.285
87.68000 17.007
87.70000 19.124
87.72000 18.297
87.74000 18.955
87.76000 18.897
87.78000 19.763
87.80000 15.230
87.82000 14.998
87.84000 15.859
87.86000 17.315
87.88000 22.207
87.90000 14.498
87.92000 16.888
87.94000 24.078
87.96000 23.733
87.98000 23.951
88.00000 16.104
88.02000 21.652
88.04000 20.877
88.06000 19.252
88.08000 22.635
88.10000 23.058
88.12000 19.665
88.14000 20.481
88.16000 19.641
88.18000 18.894
88.20000 24.628
88.22000 29.370
88.24000 25.550
88.26000 25.351
88.28000 17.692
88.30000 19.692
88.32000 22.870
88.34000 21.161
88.36000 26.439
88.38000 25.338
88.40000 24.754
88.42000 24.847
88.44000 22.715
88.46000 21.079
88.48000 18.977
88.50000 22.280
88.52000 16.723
88.54000 14.956
88.56000 21.414
88.58000 21.163
88.60000 20.956
88.62000 16.061
88.64000 19.726
88.66000 18.605
88.68000 19.975
88.70000 15.941
88.72000 10.201
88.74000 11.945
88.76000 14.656
88.78000 12.619
88.80000 9.685
88.82000 19.968
88.84000 17.537
88.86000 10.461
88.88000 14.345
88.90000 12.798
88.92000 7.081
88.94000 8.144
88.96000 5.549
88.98000 7.501
89.00000 13.801
89.02000 9.623
89.04000 8.041
89.06000 10.569
89.08000 11.223
89.10000 6.926
89.12000 4.268
89.14000 6.947
89.16000 7.174
89.18000 7.173
89.20000 9.049
89.22000 8.319
89.24000 6.146
89.26000 -0.883
89.28000 3.210
89.30000 5.699
89.32000 2.914
89.34000 3.533
89.36000 4.769
89.38000 8.043
89.40000 9.442
89.42000 3.966
89.44000 6.239
89.46000 6.783
89.48000 4.422
89.50000 6.660
89.52000 5.339
89.54000 4.888
89.56000 5.441
89.58000 1.196
89.60000 -0.738
89.62000 1.221
89.64000 -2.327
89.66000 -0.196
89.68000 3.440
89.70000 0.680
89.72000 0.954
89.74000 6.042
89.76000 5.566
89.78000 1.038
89.80000 4.366
89.82000 6.239
89.84000 4.866
89.86000 4.182
89.88000 4.366
89.90000 0.420
89.92000 -0.969
89.94000 -0.793
89.96000 1.032
89.98000 1.798
90.00000 -0.583
90.02000 -2.159
90.04000 -1.792
90.06000 -0.947
90.08000 0.721
90.10000 -0.634
90.12000 2.340
90.14000 3.942
90.16000 2.517
90.18000 0.301
90.20000 -0.248
90.22000 5.076
90.24000 1.455
90.26000 -1.101
90.28000 1.542
90.30000 1.074
90.32000 0.083
90.34000 0.176
90.36000 -0.117
90.38000 1.018
90.40000 -2.256
90.42000 1.371
90.44000 0.553
90.46000 4.069
90.48000 2.353
90.50000 4.482
90.52000 2.682
90.54000 1.071
90.56000 1.113
90.58000 4.102
90.60000 6.523
90.62000 4.933
90.64000 3.818
90.66000 2.466
90.68000 -2.225
90.70000 -1.020
90.72000 2.106
90.74000 2.868
90.76000 3.540
90.78000 0.720
90.80000 1.267
90.82000 1.606
90.84000 3.217
90.86000 -0.519
90.88000 -0.097
90.90000 -2.218
90.92000 2.069
90.94000 4.353
90.96000 4.862
90.98000 3.409
91.00000 5.331
91.02000 2.971
91.04000 3.592
91.06000 5.796
91.08000 6.261
91.10000 7.130
91.12000 5.951
91.14000 6.495
91.16000 5.371
91.18000 2.254
91.20000 4.180
91.22000 7.933
91.24000 5.353
91.26000 2.438
91.28000 4.247
91.30000 6.048
91.32000 5.874
91.34000 1.222
91.36000 5.360
91.38000 4.595
91.40000 2.821
91.42000 2.752
91.44000 5.451
91.46000 4.420
91.48000 -0.153
91.50000 -2.179
91.52000 2.304
91.54000 2.601
91.56000 1.202
91.58000 4.292
91.60000 2.378
91.62000 0.239
91.64000 5.679
91.66000 8.780
91.68000 5.293
91.70000 3.473
91.72000 6.476
91.74000 5.751
91.76000 2.931
91.78000 1.695
91.80000 1.051
91.82000 1.566
91.84000 6.874
91.86000 9.784
91.88000 3.327
91.90000 4.192
91.92000 5.204
91.94000 5.736
91.96000 11.034
91.98000 6.395
92.00000 1.746
92.02000 4.871
92.04000 4.828
92.06000 2.188
92.08000 3.813
92.10000 2.153
92.12000 1.812
92.14000 1.081
92.16000 0.071
92.18000 3.051
92.20000 2.745
92.22000 6.298
92.24000 8.002
92.26000 2.648
92.28000 -2.213
92.30000 1.075
92.32000 -1.260
92.34000 1.197
92.36000 4.790
92.38000 3.207
92.40000 6.756
92.42000 3.121
92.44000 7.184
92.46000 5.134
92.48000 2.619
92.50000 4.730
92.52000 5.411
92.54000 1.027
92.56000 -2.218
92.58000 2.355
92.60000 1.166
92.62000 3.178
92.64000 7.500
92.66000 1.800
92.68000 1.675
92.70000 3.164
92.72000 0.117
92.74000 2.228
92.76000 -1.049
92.78000 -0.054
92.80000 0.070
92.82000 2.557
92.84000 4.150
92.86000 2.365
92.88000 -1.425
92.90000 -0.615
92.92000 0.254
92.94000 2.183
92.96000 3.048
92.98000 5.468
93.00000 1.234
93.02000 8.406
93.04000 9.094
93.06000 2.151
93.08000 -1.388
93.10000 -0.050
93.12000 5.801
93.14000 2.551
93.16000 4.428
93.18000 1.278
93.20000 -1.423
93.22000 1.421
93.24000 3.542
93.26000 4.822
93.28000 7.112
93.30000 5.673
93.32000 7.167
93.34000 4.758
93.36000 3.180
93.38000 4.976
93.40000 10.403
93.42000 6.626
93.44000 5.509
93.46000 4.680
93.48000 -1.845
93.50000 1.114
93.52000 -0.722
93.54000 1.696
93.56000 2.545
93.58000 2.042
93.60000 0.950
93.62000 0.978
93.64000 1.834
93.66000 3.999
93.68000 1.960
93.70000 4.699
93.72000 1.348
93.74000 2.258
93.76000 -2.218
93.78000 -1.488
93.80000 0.921
93.82000 1.404
93.84000 8.513
93.86000 3.972
93.88000 4.753
93.90000 4.954
93.92000 1.319
93.94000 1.683
93.96000 -0.595
93.98000 1.115
94.00000 3.537
94.02000 6.284
94.04000 3.328
94.06000 2.810
94.08000 5.925
94.10000 4.936
94.12000 1.621
94.14000 -2.154
94.16000 2.636
94.18000 2.161
94.20000 3.979
94.22000 10.250
94.24000 10.823
94.26000 9.446
94.28000 5.190
94.30000 2.399
94.32000 3.206
94.34000 2.733
94.36000 2.859
94.38000 4.937
94.40000 6.815
94.42000 6.881
94.44000 1.866
94.46000 -0.680
94.48000 0.436
94.50000 0.300
94.52000 2.103
94.54000 3.932
94.56000 7.331
94.58000 2.880
94.60000 -1.184
94.62000 5.055
94.64000 3.672
94.66000 0.953
94.68000 4.840
94.70000 4.475
94.72000 2.826
94.74000 6.343
94.76000 3.272
94.78000 3.947
94.80000 7.475
94.82000 4.681
94.84000 6.528
94.86000 4.931
94.88000 0.470
94.90000 4.443
94.92000 2.051
94.94000 1.185
94.96000 -1.299
94.98000 -2.215
95.00000 1.756
95.02000 7.451
95.04000 2.199
95.06000 2.546
95.08000 3.690
95.10000 0.466
95.12000 6.866
95.14000 11.088
95.16000 6.099
95.18000 -0.643
95.20000 5.416
95.22000 5.335
95.24000 -0.473
95.26000 0.658
95.28000 2.702
95.30000 4.826
95.32000 2.246
95.34000 6.560
95.36000 4.081
95.38000 2.283
95.40000 3.936
95.42000 7.631
95.44000 5.284
95.46000 5.786
95.48000 4.544
95.50000 4.721
95.52000 2.746
95.54000 4.604
95.56000 7.649
95.58000 5.669
95.60000 9.416
95.62000 8.465
95.64000 3.999
95.66000 1.418
95.68000 4.894
95.70000 6.235
95.72000 1.351
95.74000 3.331
95.76000 -0.126
95.78000 3.135
95.80000 0.395
95.82000 4.405
95.84000 4.429
95.86000 3.876
95.88000 -1.735
95.90000 -2.038
95.92000 4.463
95.94000 0.218
95.96000 3.527
95.98000 8.563
96.00000 6.315
96.02000 2.014
96.04000 5.204
96.06000 11.301
96.08000 12.833
96.10000 1.742
96.12000 -2.240
96.14000 5.065
96.16000 8.675
96.18000 6.819
96.20000 -0.089
96.22000 4.683
96.24000 -0.159
96.26000 4.068
96.28000 6.481
96.30000 5.443
96.32000 4.696
96.34000 2.023
96.36000 3.881
96.38000 8.074
96.40000 6.785
96.42000 3.674
96.44000 1.564
96.46000 7.065
96.48000 6.164
96.50000 2.610
96.52000 8.901
96.54000 12.109
96.56000 11.357
96.58000 8.984
96.60000 2.759
96.62000 2.195
96.64000 7.203
96.66000 4.609
96.68000 7.646
96.70000 5.865
96.72000 8.065
96.74000 6.338
96.76000 0.287
96.78000 -0.913
96.80000 -0.533
96.82000 0.467
96.84000 2.077
96.86000 4.647
96.88000 3.225
96.90000 6.872
96.92000 4.615
96.94000 -2.227
96.96000 4.389
96.98000 3.331
97.00000 4.093
97.02000 5.875
97.04000 7.773
97.06000 0.198
97.08000 2.491
97.10000 9.177
97.12000 8.106
97.14000 9.605
97.16000 5.486
97.18000 5.977
97.20000 8.573
97.22000 8.836
97.24000 5.041
97.26000 -0.995
97.28000 1.749
97.30000 3.605
97.32000 6.840
97.34000 2.488
97.36000 13.042
97.38000 13.776
97.40000 6.171
97.42000 5.222
97.44000 5.267
97.46000 9.215
97.48000 7.113
97.50000 5.006
97.52000 3.107
97.54000 6.287
97.56000 6.774
97.58000 7.020
97.60000 9.763
97.62000 3.369
97.64000 6.021
97.66000 12.902
97.68000 10.428
97.70000 7.430
97.72000 11.087
97.74000 15.139
97.76000 9.095
97.78000 5.380
97.80000 11.872
97.82000 6.286
97.84000 8.771
97.86000 9.279
97.88000 3.812
97.90000 2.988
97.92000 -2.177
97.94000 3.658
97.96000 0.559
97.98000 8.480
98.00000 9.624
98.02000 13.000
98.04000 6.343
98.06000 7.381
98.08000 12.332
98.10000 4.502
98.12000 3.735
98.14000 3.676
98.16000 7.265
98.18000 7.592
98.20000 9.426
98.22000 10.682
98.24000 5.819
98.26000 1.219
98.28000 0.592
98.30000 13.555
98.32000 11.180
98.34000 2.086
98.36000 2.199
98.38000 5.841
98.40000 6.449
98.42000 7.134
98.44000 7.912
98.46000 -3.637
98.48000 2.978
98.50000 7.306
98.52000 3.279
98.54000 1.701
98.56000 0.168
98.58000 7.551
98.60000 10.898
98.62000 3.304
98.64000 2.209
98.66000 7.199
98.68000 11.250
98.70000 12.564
98.72000 14.362
98.74000 4.886
98.76000 -0.362
98.78000 14.292
98.80000 16.433
98.82000 8.552
98.84000 3.911
98.86000 6.143
98.88000 -1.469
98.90000 -0.125
98.92000 2.257
98.94000 0.136
98.96000 5.198
98.98000 11.062
99.00000 10.708
99.02000 10.486
99.04000 7.374
99.06000 1.963
99.08000 4.547
99.10000 4.622
99.12000 5.678
99.14000 6.922
99.16000 6.177
99.18000 10.586
99.20000 11.010
99.22000 18.101
99.24000 9.646
99.26000 1.753
99.28000 5.153
99.30000 5.843
99.32000 7.331
99.34000 16.162
99.36000 3.365
99.38000 1.971
99.40000 1.327
99.42000 9.779
99.44000 3.661
99.46000 2.259
99.48000 5.225
99.50000 2.598
99.52000 7.622
99.54000 7.928
99.56000 4.675
99.58000 -1.710
99.60000 9.323
99.62000 9.436
99.64000 -2.062
99.66000 -2.200
99.68000 4.152
99.70000 6.982
99.72000 14.014
99.74000 7.735
99.76000 7.072
99.78000 3.403
99.80000 9.502
99.82000 22.505
99.84000 3.581
99.86000 -2.238
99.88000 -2.051
99.90000 10.741
99.92000 -1.205
99.94000 -2.321
99.96000 3.308
99.98000 0.000
