'Id: "0011389" Comment: "Integrate frame 0011389_Au-Ir-Rh_Au-Rich_XRD_Mapping-311-0000.gfrmwith cursor Wedge Cursor #5" Operator: "B?rgel" Anode: "Cu" Wavelength: "1.5406" Scantype: "2Theta (TwoTheta)" TimePerStep: "1" X: "-27" Y: "36" Z: "5.95" 
10.00000 0.000
10.02000 -0.013
10.04000 0.091
10.06000 -4.834
10.08000 -2.376
10.10000 -2.170
10.12000 0.932
10.14000 1.321
10.16000 1.227
10.18000 7.207
10.20000 -4.728
10.22000 5.545
10.24000 19.389
10.26000 21.715
10.28000 22.991
10.30000 6.504
10.32000 3.868
10.34000 12.809
10.36000 11.768
10.38000 -4.619
10.40000 0.463
10.42000 1.400
10.44000 12.585
10.46000 14.289
10.48000 19.806
10.50000 15.084
10.52000 11.611
10.54000 28.910
10.56000 -0.993
10.58000 -4.588
10.60000 9.163
10.62000 11.872
10.64000 19.307
10.66000 3.695
10.68000 3.783
10.70000 8.697
10.72000 11.773
10.74000 22.165
10.76000 13.668
10.78000 3.255
10.80000 19.828
10.82000 26.097
10.84000 27.166
10.86000 34.401
10.88000 17.119
10.90000 12.338
10.92000 21.351
10.94000 15.443
10.96000 7.570
10.98000 21.982
11.00000 8.125
11.02000 20.755
11.04000 22.189
11.06000 9.754
11.08000 1.356
11.10000 2.276
11.12000 -2.780
11.14000 7.535
11.16000 14.372
11.18000 6.396
11.20000 10.446
11.22000 3.889
11.24000 10.464
11.26000 12.366
11.28000 2.951
11.30000 19.731
11.32000 35.246
11.34000 13.623
11.36000 3.035
11.38000 9.257
11.40000 14.358
11.42000 13.211
11.44000 0.259
11.46000 -1.747
11.48000 -2.566
11.50000 -4.608
11.52000 6.706
11.54000 13.157
11.56000 17.651
11.58000 22.551
11.60000 15.736
11.62000 22.799
11.64000 19.263
11.66000 10.317
11.68000 14.526
11.70000 16.195
11.72000 9.420
11.74000 2.977
11.76000 0.831
11.78000 8.100
11.80000 8.455
11.82000 10.304
11.84000 5.159
11.86000 3.128
11.88000 2.380
11.90000 1.282
11.92000 -1.089
11.94000 5.666
11.96000 6.910
11.98000 0.495
12.00000 7.278
12.02000 14.757
12.04000 14.077
12.06000 15.835
12.08000 22.408
12.10000 20.674
12.12000 13.883
12.14000 11.758
12.16000 4.860
12.18000 7.093
12.20000 10.319
12.22000 5.847
12.24000 3.132
12.26000 7.901
12.28000 7.043
12.30000 20.275
12.32000 14.484
12.34000 3.560
12.36000 -1.706
12.38000 1.184
12.40000 3.466
12.42000 13.975
12.44000 10.717
12.46000 11.539
12.48000 19.800
12.50000 13.850
12.52000 4.618
12.54000 4.123
12.56000 4.604
12.58000 6.102
12.60000 -4.600
12.62000 -3.517
12.64000 12.741
12.66000 21.839
12.68000 11.849
12.70000 7.755
12.72000 12.885
12.74000 13.098
12.76000 1.298
12.78000 -0.458
12.80000 6.775
12.82000 2.494
12.84000 15.441
12.86000 15.327
12.88000 8.461
12.90000 8.292
12.92000 10.915
12.94000 6.274
12.96000 5.003
12.98000 1.393
13.00000 -1.299
13.02000 -1.459
13.04000 9.139
13.06000 4.623
13.08000 7.250
13.10000 7.715
13.12000 3.222
13.14000 22.231
13.16000 24.343
13.18000 14.553
13.20000 17.940
13.22000 13.415
13.24000 20.395
13.26000 6.918
13.28000 9.064
13.30000 16.768
13.32000 20.581
13.34000 19.580
13.36000 12.406
13.38000 11.304
13.40000 18.030
13.42000 7.148
13.44000 5.026
13.46000 3.722
13.48000 7.219
13.50000 17.737
13.52000 11.437
13.54000 8.671
13.56000 16.553
13.58000 5.443
13.60000 4.398
13.62000 7.096
13.64000 4.577
13.66000 11.167
13.68000 9.293
13.70000 9.354
13.72000 7.046
13.74000 8.955
13.76000 9.420
13.78000 8.097
13.80000 11.823
13.82000 4.201
13.84000 1.631
13.86000 2.088
13.88000 9.118
13.90000 8.496
13.92000 15.610
13.94000 18.955
13.96000 13.360
13.98000 8.833
14.00000 4.458
14.02000 0.783
14.04000 7.208
14.06000 6.301
14.08000 17.825
14.10000 11.929
14.12000 8.954
14.14000 4.531
14.16000 9.261
14.18000 14.377
14.20000 10.805
14.22000 8.618
14.24000 4.026
14.26000 6.521
14.28000 19.715
14.30000 22.702
14.32000 23.915
14.34000 18.274
14.36000 16.375
14.38000 13.486
14.40000 12.381
14.42000 16.170
14.44000 13.684
14.46000 14.940
14.48000 20.238
14.50000 11.297
14.52000 13.814
14.54000 11.849
14.56000 10.565
14.58000 17.723
14.60000 16.761
14.62000 11.287
14.64000 8.156
14.66000 6.520
14.68000 4.928
14.70000 2.428
14.72000 2.725
14.74000 2.756
14.76000 3.844
14.78000 10.784
14.80000 17.027
14.82000 12.296
14.84000 -4.477
14.86000 -2.314
14.88000 0.970
14.90000 10.710
14.92000 16.898
14.94000 16.455
14.96000 15.938
14.98000 6.083
15.00000 10.417
15.02000 10.151
15.04000 9.689
15.06000 9.919
15.08000 14.774
15.10000 12.804
15.12000 18.818
15.14000 10.649
15.16000 5.144
15.18000 17.712
15.20000 17.962
15.22000 18.627
15.24000 14.979
15.26000 14.855
15.28000 5.666
15.30000 6.432
15.32000 12.201
15.34000 11.861
15.36000 0.140
15.38000 4.709
15.40000 15.112
15.42000 11.924
15.44000 10.262
15.46000 8.286
15.48000 3.013
15.50000 5.309
15.52000 9.960
15.54000 25.668
15.56000 21.596
15.58000 14.211
15.60000 2.111
15.62000 4.893
15.64000 12.409
15.66000 14.481
15.68000 8.142
15.70000 5.985
15.72000 4.955
15.74000 8.802
15.76000 8.383
15.78000 7.299
15.80000 9.014
15.82000 13.227
15.84000 14.835
15.86000 6.753
15.88000 6.189
15.90000 13.258
15.92000 10.035
15.94000 6.640
15.96000 2.487
15.98000 1.713
16.00000 3.695
16.02000 3.165
16.04000 7.699
16.06000 12.680
16.08000 13.406
16.10000 10.931
16.12000 10.226
16.14000 4.566
16.16000 6.430
16.18000 15.725
16.20000 14.339
16.22000 7.755
16.24000 -1.805
16.26000 1.088
16.28000 9.369
16.30000 6.806
16.32000 7.205
16.34000 8.099
16.36000 13.991
16.38000 12.130
16.40000 6.423
16.42000 12.655
16.44000 16.267
16.46000 7.972
16.48000 1.737
16.50000 5.848
16.52000 3.534
16.54000 8.790
16.56000 9.852
16.58000 4.501
16.60000 1.947
16.62000 4.354
16.64000 1.841
16.66000 0.615
16.68000 2.599
16.70000 11.385
16.72000 8.159
16.74000 9.935
16.76000 15.904
16.78000 17.956
16.80000 5.738
16.82000 3.682
16.84000 5.752
16.86000 7.354
16.88000 6.068
16.90000 2.102
16.92000 5.654
16.94000 8.095
16.96000 7.128
16.98000 15.011
17.00000 6.456
17.02000 -1.776
17.04000 2.750
17.06000 8.390
17.08000 5.480
17.10000 1.108
17.12000 8.435
17.14000 6.657
17.16000 1.742
17.18000 4.521
17.20000 10.872
17.22000 11.530
17.24000 6.780
17.26000 4.679
17.28000 9.779
17.30000 13.634
17.32000 7.925
17.34000 5.228
17.36000 5.092
17.38000 6.080
17.40000 2.009
17.42000 3.582
17.44000 2.250
17.46000 4.846
17.48000 9.387
17.50000 5.277
17.52000 5.358
17.54000 9.819
17.56000 13.395
17.58000 14.773
17.60000 7.158
17.62000 4.232
17.64000 8.068
17.66000 7.926
17.68000 3.344
17.70000 4.041
17.72000 7.987
17.74000 9.446
17.76000 10.676
17.78000 6.981
17.80000 5.342
17.82000 5.276
17.84000 9.168
17.86000 8.188
17.88000 9.688
17.90000 7.636
17.92000 7.918
17.94000 7.028
17.96000 14.230
17.98000 11.977
18.00000 7.537
18.02000 4.160
18.04000 6.057
18.06000 -2.519
18.08000 -4.346
18.10000 -0.191
18.12000 4.774
18.14000 15.583
18.16000 8.966
18.18000 1.925
18.20000 9.909
18.22000 13.239
18.24000 7.836
18.26000 5.937
18.28000 5.623
18.30000 11.293
18.32000 12.667
18.34000 10.511
18.36000 16.302
18.38000 12.844
18.40000 15.592
18.42000 16.047
18.44000 6.221
18.46000 8.020
18.48000 3.476
18.50000 6.035
18.52000 2.814
18.54000 4.423
18.56000 12.332
18.58000 14.056
18.60000 6.441
18.62000 3.921
18.64000 6.649
18.66000 6.901
18.68000 2.255
18.70000 2.738
18.72000 11.708
18.74000 11.755
18.76000 10.932
18.78000 7.061
18.80000 3.329
18.82000 0.097
18.84000 -4.290
18.86000 5.902
18.88000 16.581
18.90000 15.286
18.92000 11.437
18.94000 4.205
18.96000 7.492
18.98000 12.175
19.00000 11.627
19.02000 10.778
19.04000 2.689
19.06000 1.241
19.08000 7.785
19.10000 9.562
19.12000 6.226
19.14000 -2.554
19.16000 1.749
19.18000 8.467
19.20000 11.358
19.22000 13.803
19.24000 13.496
19.26000 7.462
19.28000 5.109
19.30000 5.394
19.32000 8.562
19.34000 10.398
19.36000 10.411
19.38000 11.726
19.40000 9.087
19.42000 5.682
19.44000 3.423
19.46000 6.012
19.48000 3.827
19.50000 3.230
19.52000 8.203
19.54000 15.806
19.56000 15.645
19.58000 13.193
19.60000 12.260
19.62000 13.401
19.64000 15.491
19.66000 12.055
19.68000 7.510
19.70000 9.485
19.72000 11.682
19.74000 11.160
19.76000 2.854
19.78000 -4.217
19.80000 -0.074
19.82000 4.055
19.84000 6.772
19.86000 9.927
19.88000 10.544
19.90000 4.151
19.92000 14.128
19.94000 16.023
19.96000 11.184
19.98000 8.452
20.00000 9.341
20.02000 5.103
20.04000 3.657
20.06000 1.883
20.08000 3.706
20.10000 10.818
20.12000 13.357
20.14000 12.068
20.16000 6.190
20.18000 12.423
20.20000 11.391
20.22000 9.882
20.24000 12.387
20.26000 11.979
20.28000 6.752
20.30000 8.915
20.32000 6.197
20.34000 4.500
20.36000 3.474
20.38000 5.898
20.40000 8.127
20.42000 10.860
20.44000 9.552
20.46000 9.137
20.48000 8.541
20.50000 6.465
20.52000 7.131
20.54000 8.478
20.56000 5.648
20.58000 6.812
20.60000 6.926
20.62000 6.198
20.64000 -1.122
20.66000 1.602
20.68000 -2.110
20.70000 -4.196
20.72000 0.220
20.74000 3.110
20.76000 7.485
20.78000 10.557
20.80000 10.280
20.82000 0.734
20.84000 2.342
20.86000 6.545
20.88000 9.222
20.90000 2.243
20.92000 -1.046
20.94000 1.196
20.96000 4.154
20.98000 5.763
21.00000 4.441
21.02000 7.339
21.04000 5.915
21.06000 -0.133
21.08000 6.379
21.10000 6.764
21.12000 5.000
21.14000 6.536
21.16000 4.736
21.18000 -0.014
21.20000 -3.339
21.22000 1.649
21.24000 6.231
21.26000 3.457
21.28000 3.685
21.30000 2.637
21.32000 5.359
21.34000 4.019
21.36000 10.297
21.38000 0.805
21.40000 1.548
21.42000 7.049
21.44000 3.044
21.46000 6.208
21.48000 4.329
21.50000 4.116
21.52000 2.452
21.54000 3.765
21.56000 9.671
21.58000 4.340
21.60000 -2.902
21.62000 -1.985
21.64000 4.101
21.66000 -1.298
21.68000 -1.847
21.70000 3.044
21.72000 11.487
21.74000 9.957
21.76000 7.362
21.78000 1.992
21.80000 8.475
21.82000 1.834
21.84000 8.912
21.86000 6.453
21.88000 3.221
21.90000 1.295
21.92000 3.104
21.94000 6.018
21.96000 12.010
21.98000 10.070
22.00000 5.226
22.02000 2.340
22.04000 4.174
22.06000 12.140
22.08000 10.839
22.10000 8.065
22.12000 -4.123
22.14000 -3.600
22.16000 6.861
22.18000 6.696
22.20000 2.401
22.22000 0.856
22.24000 -1.075
22.26000 -2.742
22.28000 5.715
22.30000 10.083
22.32000 7.086
22.34000 7.696
22.36000 7.420
22.38000 1.603
22.40000 5.491
22.42000 8.311
22.44000 2.921
22.46000 2.123
22.48000 6.655
22.50000 11.573
22.52000 8.191
22.54000 0.919
22.56000 5.233
22.58000 5.805
22.60000 6.312
22.62000 8.383
22.64000 6.005
22.66000 0.170
22.68000 -0.065
22.70000 0.364
22.72000 6.552
22.74000 6.573
22.76000 6.535
22.78000 10.113
22.80000 6.955
22.82000 4.480
22.84000 7.534
22.86000 7.397
22.88000 5.282
22.90000 3.271
22.92000 0.938
22.94000 -2.177
22.96000 1.749
22.98000 2.426
23.00000 -3.036
23.02000 -2.543
23.04000 0.761
23.06000 2.744
23.08000 0.688
23.10000 1.816
23.12000 -1.866
23.14000 -0.418
23.16000 5.244
23.18000 3.381
23.20000 3.272
23.22000 1.310
23.24000 4.008
23.26000 1.835
23.28000 -1.902
23.30000 -2.828
23.32000 -0.077
23.34000 1.674
23.36000 -2.340
23.38000 4.203
23.40000 5.873
23.42000 8.718
23.44000 8.014
23.46000 5.302
23.48000 6.351
23.50000 6.763
23.52000 6.844
23.54000 5.673
23.56000 6.599
23.58000 3.002
23.60000 3.654
23.62000 6.319
23.64000 12.970
23.66000 7.171
23.68000 5.393
23.70000 7.125
23.72000 3.854
23.74000 7.021
23.76000 3.724
23.78000 1.803
23.80000 -4.030
23.82000 1.970
23.84000 1.813
23.86000 6.103
23.88000 2.757
23.90000 2.917
23.92000 10.460
23.94000 3.356
23.96000 2.459
23.98000 2.745
24.00000 1.908
24.02000 0.935
24.04000 2.201
24.06000 -0.686
24.08000 3.254
24.10000 2.020
24.12000 6.460
24.14000 7.384
24.16000 4.400
24.18000 6.593
24.20000 8.599
24.22000 4.937
24.24000 3.584
24.26000 6.174
24.28000 0.555
24.30000 2.381
24.32000 2.186
24.34000 2.579
24.36000 0.829
24.38000 -0.354
24.40000 2.129
24.42000 2.802
24.44000 5.723
24.46000 5.499
24.48000 0.599
24.50000 -0.876
24.52000 -0.461
24.54000 6.300
24.56000 9.611
24.58000 3.259
24.60000 2.253
24.62000 5.688
24.64000 0.341
24.66000 0.213
24.68000 0.921
24.70000 -1.823
24.72000 1.523
24.74000 3.479
24.76000 2.197
24.78000 0.224
24.80000 -0.970
24.82000 -3.529
24.84000 3.710
24.86000 3.651
24.88000 6.009
24.90000 4.269
24.92000 4.164
24.94000 4.331
24.96000 -3.987
24.98000 -2.555
25.00000 5.534
25.02000 8.023
25.04000 1.755
25.06000 -2.503
25.08000 0.729
25.10000 3.629
25.12000 5.981
25.14000 3.669
25.16000 2.214
25.18000 4.184
25.20000 2.757
25.22000 1.847
25.24000 5.870
25.26000 6.839
25.28000 -0.064
25.30000 -1.197
25.32000 -1.338
25.34000 -1.225
25.36000 -0.140
25.38000 4.738
25.40000 -0.369
25.42000 1.530
25.44000 6.104
25.46000 1.165
25.48000 0.755
25.50000 5.393
25.52000 5.710
25.54000 7.153
25.56000 5.556
25.58000 1.738
25.60000 4.051
25.62000 0.138
25.64000 1.708
25.66000 2.701
25.68000 4.928
25.70000 9.193
25.72000 3.783
25.74000 3.427
25.76000 2.248
25.78000 6.209
25.80000 2.906
25.82000 -0.854
25.84000 2.598
25.86000 -1.024
25.88000 -0.906
25.90000 3.589
25.92000 2.421
25.94000 6.386
25.96000 7.336
25.98000 3.167
26.00000 -3.927
26.02000 -1.301
26.04000 4.215
26.06000 4.377
26.08000 4.310
26.10000 5.260
26.12000 3.654
26.14000 3.172
26.16000 7.304
26.18000 6.777
26.20000 8.537
26.22000 11.154
26.24000 4.838
26.26000 7.413
26.28000 4.233
26.30000 4.937
26.32000 -0.392
26.34000 -3.900
26.36000 -3.537
26.38000 1.934
26.40000 4.606
26.42000 7.229
26.44000 5.029
26.46000 6.991
26.48000 1.516
26.50000 -2.890
26.52000 0.917
26.54000 1.600
26.56000 -1.005
26.58000 -0.997
26.60000 3.438
26.62000 6.596
26.64000 4.933
26.66000 6.422
26.68000 6.151
26.70000 2.062
26.72000 6.761
26.74000 -0.954
26.76000 -2.749
26.78000 0.534
26.80000 -0.659
26.82000 -2.400
26.84000 0.389
26.86000 3.402
26.88000 0.012
26.90000 -1.525
26.92000 0.678
26.94000 5.651
26.96000 10.725
26.98000 4.095
27.00000 5.089
27.02000 3.506
27.04000 5.977
27.06000 4.631
27.08000 1.410
27.10000 4.322
27.12000 2.180
27.14000 -1.208
27.16000 -3.863
27.18000 1.527
27.20000 10.960
27.22000 10.194
27.24000 5.455
27.26000 -1.608
27.28000 2.768
27.30000 3.360
27.32000 -0.394
27.34000 -0.264
27.36000 5.682
27.38000 6.290
27.40000 4.395
27.42000 0.482
27.44000 4.226
27.46000 1.321
27.48000 2.248
27.50000 3.608
27.52000 1.201
27.54000 1.745
27.56000 5.837
27.58000 4.145
27.60000 -1.390
27.62000 -1.955
27.64000 0.983
27.66000 4.015
27.68000 6.550
27.70000 0.379
27.72000 0.726
27.74000 3.474
27.76000 0.060
27.78000 -1.018
27.80000 -0.565
27.82000 2.809
27.84000 4.346
27.86000 3.989
27.88000 0.624
27.90000 0.554
27.92000 2.583
27.94000 -0.560
27.96000 5.252
27.98000 4.093
28.00000 6.244
28.02000 7.053
28.04000 9.223
28.06000 5.338
28.08000 0.371
28.10000 1.776
28.12000 0.208
28.14000 2.346
28.16000 3.122
28.18000 -1.331
28.20000 -1.724
28.22000 6.229
28.24000 5.750
28.26000 6.059
28.28000 4.168
28.30000 6.285
28.32000 1.473
28.34000 -3.576
28.36000 -0.713
28.38000 2.257
28.40000 2.537
28.42000 4.093
28.44000 -3.256
28.46000 -3.788
28.48000 2.767
28.50000 4.389
28.52000 6.083
28.54000 5.034
28.56000 3.035
28.58000 6.954
28.60000 2.153
28.62000 4.674
28.64000 5.644
28.66000 0.644
28.68000 5.158
28.70000 6.320
28.72000 0.872
28.74000 -0.199
28.76000 3.098
28.78000 4.312
28.80000 3.275
28.82000 7.225
28.84000 9.284
28.86000 7.402
28.88000 -0.696
28.90000 -2.262
28.92000 -3.780
28.94000 -2.677
28.96000 1.332
28.98000 -1.039
29.00000 0.566
29.02000 -0.003
29.04000 -0.922
29.06000 -0.137
29.08000 -0.915
29.10000 5.351
29.12000 2.487
29.14000 3.449
29.16000 7.775
29.18000 6.613
29.20000 3.990
29.22000 6.378
29.24000 5.196
29.26000 3.370
29.28000 6.692
29.30000 3.634
29.32000 3.782
29.34000 3.285
29.36000 0.675
29.38000 0.753
29.40000 -3.346
29.42000 0.143
29.44000 3.745
29.46000 0.825
29.48000 3.137
29.50000 4.340
29.52000 2.901
29.54000 -0.609
29.56000 1.429
29.58000 9.750
29.60000 7.729
29.62000 2.293
29.64000 -1.942
29.66000 -0.724
29.68000 0.316
29.70000 1.976
29.72000 -3.553
29.74000 4.408
29.76000 10.115
29.78000 7.372
29.80000 1.453
29.82000 -1.269
29.84000 -0.847
29.86000 -3.741
29.88000 -0.199
29.90000 1.170
29.92000 2.219
29.94000 10.263
29.96000 5.419
29.98000 -1.510
30.00000 -0.870
30.02000 2.896
30.04000 4.613
30.06000 0.157
30.08000 4.293
30.10000 5.279
30.12000 1.012
30.14000 1.674
30.16000 6.732
30.18000 1.562
30.20000 3.566
30.22000 5.578
30.24000 5.016
30.26000 3.467
30.28000 3.058
30.30000 0.211
30.32000 0.157
30.34000 1.457
30.36000 3.990
30.38000 3.988
30.40000 2.226
30.42000 2.403
30.44000 5.937
30.46000 2.307
30.48000 0.966
30.50000 -2.122
30.52000 3.086
30.54000 5.314
30.56000 7.888
30.58000 9.749
30.60000 -1.168
30.62000 4.548
30.64000 4.062
30.66000 1.479
30.68000 3.292
30.70000 0.140
30.72000 -3.686
30.74000 0.235
30.76000 6.445
30.78000 5.963
30.80000 2.237
30.82000 5.771
30.84000 4.843
30.86000 3.278
30.88000 4.398
30.90000 7.148
30.92000 8.143
30.94000 5.046
30.96000 4.386
30.98000 3.389
31.00000 -0.191
31.02000 2.046
31.04000 8.244
31.06000 7.147
31.08000 2.395
31.10000 -3.663
31.12000 -1.031
31.14000 4.826
31.16000 8.169
31.18000 6.770
31.20000 3.828
31.22000 3.211
31.24000 0.655
31.26000 3.611
31.28000 5.553
31.30000 2.996
31.32000 2.489
31.34000 5.696
31.36000 3.365
31.38000 2.409
31.40000 3.426
31.42000 7.995
31.44000 4.647
31.46000 6.890
31.48000 5.462
31.50000 3.045
31.52000 1.550
31.54000 3.121
31.56000 3.276
31.58000 5.643
31.60000 2.767
31.62000 5.301
31.64000 8.025
31.66000 4.169
31.68000 3.558
31.70000 5.971
31.72000 2.318
31.74000 4.933
31.76000 3.928
31.78000 -0.885
31.80000 5.028
31.82000 7.768
31.84000 6.166
31.86000 3.491
31.88000 6.478
31.90000 4.549
31.92000 6.440
31.94000 0.978
31.96000 -1.333
31.98000 -0.791
32.00000 -2.290
32.02000 1.049
32.04000 2.089
32.06000 -0.604
32.08000 -1.540
32.10000 5.670
32.12000 5.618
32.14000 4.403
32.16000 6.275
32.18000 4.962
32.20000 1.206
32.22000 0.376
32.24000 -0.781
32.26000 1.264
32.28000 1.741
32.30000 -3.515
32.32000 -3.281
32.34000 3.204
32.36000 3.521
32.38000 0.376
32.40000 0.705
32.42000 0.893
32.44000 -2.576
32.46000 -2.228
32.48000 4.850
32.50000 4.463
32.52000 -1.077
32.54000 0.240
32.56000 -2.791
32.58000 -0.624
32.60000 2.143
32.62000 -0.133
32.64000 -3.635
32.66000 1.647
32.68000 2.684
32.70000 -3.157
32.72000 -3.634
32.74000 1.183
32.76000 3.850
32.78000 5.416
32.80000 3.785
32.82000 -2.567
32.84000 -2.313
32.86000 1.449
32.88000 2.059
32.90000 -0.946
32.92000 0.724
32.94000 4.098
32.96000 3.058
32.98000 2.879
33.00000 2.162
33.02000 2.061
33.04000 4.756
33.06000 -1.399
33.08000 -3.638
33.10000 -1.690
33.12000 -0.988
33.14000 4.734
33.16000 6.641
33.18000 7.098
33.20000 3.660
33.22000 2.519
33.24000 -0.258
33.26000 0.129
33.28000 3.885
33.30000 5.370
33.32000 3.644
33.34000 3.770
33.36000 -0.139
33.38000 0.084
33.40000 1.473
33.42000 -0.166
33.44000 -0.340
33.46000 6.457
33.48000 5.913
33.50000 5.164
33.52000 5.689
33.54000 2.108
33.56000 2.650
33.58000 8.024
33.60000 4.925
33.62000 3.078
33.64000 6.662
33.66000 2.317
33.68000 1.431
33.70000 -1.393
33.72000 -0.816
33.74000 4.351
33.76000 2.654
33.78000 0.899
33.80000 -2.644
33.82000 -3.586
33.84000 0.141
33.86000 3.735
33.88000 4.346
33.90000 4.342
33.92000 1.590
33.94000 0.766
33.96000 4.971
33.98000 4.162
34.00000 7.847
34.02000 8.510
34.04000 3.088
34.06000 3.071
34.08000 1.710
34.10000 -3.585
34.12000 -0.349
34.14000 3.112
34.16000 3.383
34.18000 2.937
34.20000 3.440
34.22000 -0.284
34.24000 -0.919
34.26000 -1.742
34.28000 -1.017
34.30000 -2.840
34.32000 2.257
34.34000 2.670
34.36000 3.587
34.38000 6.523
34.40000 8.481
34.42000 0.361
34.44000 1.867
34.46000 7.340
34.48000 7.413
34.50000 2.078
34.52000 -1.668
34.54000 3.798
34.56000 2.806
34.58000 0.846
34.60000 0.825
34.62000 4.968
34.64000 4.796
34.66000 -1.482
34.68000 -2.116
34.70000 -3.630
34.72000 2.045
34.74000 1.962
34.76000 1.903
34.78000 2.235
34.80000 -1.821
34.82000 1.168
34.84000 1.332
34.86000 3.653
34.88000 3.136
34.90000 -3.630
34.92000 -3.216
34.94000 1.038
34.96000 -3.036
34.98000 -1.649
35.00000 -0.556
35.02000 -0.623
35.04000 2.933
35.06000 1.324
35.08000 -1.886
35.10000 -1.728
35.12000 1.181
35.14000 0.679
35.16000 1.112
35.18000 -2.053
35.20000 -3.498
35.22000 -2.594
35.24000 -0.195
35.26000 -1.287
35.28000 -1.719
35.30000 5.456
35.32000 3.690
35.34000 1.026
35.36000 -2.493
35.38000 -3.642
35.40000 1.747
35.42000 1.512
35.44000 6.238
35.46000 4.775
35.48000 3.066
35.50000 6.561
35.52000 2.244
35.54000 1.017
35.56000 -1.457
35.58000 1.435
35.60000 1.284
35.62000 -1.480
35.64000 -0.816
35.66000 5.324
35.68000 0.134
35.70000 -0.497
35.72000 2.008
35.74000 0.989
35.76000 -0.986
35.78000 0.259
35.80000 -0.258
35.82000 0.693
35.84000 -0.682
35.86000 3.829
35.88000 5.329
35.90000 -0.498
35.92000 2.085
35.94000 -0.629
35.96000 -1.887
35.98000 0.600
36.00000 4.838
36.02000 4.531
36.04000 -2.374
36.06000 -1.414
36.08000 2.385
36.10000 1.552
36.12000 -1.431
36.14000 -3.650
36.16000 0.768
36.18000 8.032
36.20000 5.718
36.22000 5.530
36.24000 10.177
36.26000 7.345
36.28000 5.162
36.30000 1.700
36.32000 1.953
36.34000 5.724
36.36000 8.832
36.38000 11.972
36.40000 8.924
36.42000 3.867
36.44000 4.698
36.46000 3.104
36.48000 5.841
36.50000 4.841
36.52000 5.933
36.54000 6.499
36.56000 12.119
36.58000 11.721
36.60000 9.947
36.62000 8.922
36.64000 5.938
36.66000 6.704
36.68000 7.451
36.70000 10.758
36.72000 14.500
36.74000 8.054
36.76000 5.381
36.78000 10.135
36.80000 7.722
36.82000 6.972
36.84000 10.534
36.86000 15.326
36.88000 12.300
36.90000 13.495
36.92000 14.719
36.94000 14.513
36.96000 15.947
36.98000 13.734
37.00000 9.209
37.02000 8.817
37.04000 10.395
37.06000 12.424
37.08000 12.977
37.10000 14.525
37.12000 15.812
37.14000 11.967
37.16000 15.289
37.18000 19.446
37.20000 21.630
37.22000 23.912
37.24000 19.868
37.26000 19.129
37.28000 21.176
37.30000 17.563
37.32000 23.479
37.34000 21.305
37.36000 19.602
37.38000 15.249
37.40000 15.783
37.42000 19.884
37.44000 28.997
37.46000 33.914
37.48000 30.320
37.50000 29.402
37.52000 35.220
37.54000 30.730
37.56000 27.279
37.58000 30.174
37.60000 31.274
37.62000 36.156
37.64000 38.753
37.66000 32.250
37.68000 40.169
37.70000 40.142
37.72000 37.905
37.74000 39.653
37.76000 39.876
37.78000 43.231
37.80000 37.265
37.82000 38.945
37.84000 43.742
37.86000 46.360
37.88000 46.122
37.90000 46.563
37.92000 48.056
37.94000 52.366
37.96000 57.892
37.98000 52.693
38.00000 52.477
38.02000 53.736
38.04000 60.722
38.06000 61.706
38.08000 63.058
38.10000 68.841
38.12000 72.822
38.14000 73.705
38.16000 80.710
38.18000 88.017
38.20000 82.737
38.22000 87.541
38.24000 92.668
38.26000 97.793
38.28000 103.439
38.30000 111.017
38.32000 122.708
38.34000 128.979
38.36000 137.881
38.38000 153.578
38.40000 159.420
38.42000 168.572
38.44000 178.760
38.46000 192.763
38.48000 200.151
38.50000 209.386
38.52000 224.015
38.54000 237.871
38.56000 241.885
38.58000 248.626
38.60000 256.509
38.62000 271.215
38.64000 280.935
38.66000 285.949
38.68000 287.597
38.70000 288.203
38.72000 288.839
38.74000 294.591
38.76000 297.178
38.78000 304.501
38.80000 292.704
38.82000 276.320
38.84000 279.521
38.86000 273.678
38.88000 263.985
38.90000 248.604
38.92000 239.144
38.94000 225.985
38.96000 214.133
38.98000 209.374
39.00000 203.106
39.02000 194.459
39.04000 186.438
39.06000 175.649
39.08000 162.839
39.10000 153.449
39.12000 138.561
39.14000 129.509
39.16000 122.503
39.18000 116.506
39.20000 118.888
39.22000 108.654
39.24000 104.560
39.26000 91.589
39.28000 80.345
39.30000 80.807
39.32000 80.343
39.34000 78.316
39.36000 71.033
39.38000 66.427
39.40000 61.274
39.42000 60.031
39.44000 59.613
39.46000 56.494
39.48000 52.145
39.50000 47.878
39.52000 48.619
39.54000 48.209
39.56000 47.453
39.58000 45.314
39.60000 41.068
39.62000 42.218
39.64000 37.715
39.66000 37.039
39.68000 38.769
39.70000 33.338
39.72000 35.866
39.74000 31.978
39.76000 31.228
39.78000 30.774
39.80000 24.955
39.82000 25.810
39.84000 23.445
39.86000 23.613
39.88000 28.109
39.90000 26.947
39.92000 24.026
39.94000 20.094
39.96000 18.139
39.98000 18.070
40.00000 20.451
40.02000 22.519
40.04000 16.994
40.06000 18.071
40.08000 19.493
40.10000 15.522
40.12000 16.668
40.14000 20.401
40.16000 20.186
40.18000 17.421
40.20000 17.972
40.22000 11.239
40.24000 13.687
40.26000 18.553
40.28000 16.912
40.30000 13.616
40.32000 9.916
40.34000 11.027
40.36000 11.854
40.38000 10.139
40.40000 9.610
40.42000 10.732
40.44000 8.317
40.46000 12.265
40.48000 13.935
40.50000 14.519
40.52000 12.554
40.54000 8.871
40.56000 10.350
40.58000 9.571
40.60000 13.401
40.62000 10.299
40.64000 9.555
40.66000 8.078
40.68000 6.390
40.70000 8.903
40.72000 5.288
40.74000 3.464
40.76000 7.607
40.78000 8.195
40.80000 5.654
40.82000 4.950
40.84000 0.698
40.86000 0.527
40.88000 5.247
40.90000 8.907
40.92000 6.910
40.94000 1.618
40.96000 1.539
40.98000 1.492
41.00000 5.638
41.02000 6.618
41.04000 4.050
41.06000 4.751
41.08000 4.057
41.10000 2.704
41.12000 3.385
41.14000 2.804
41.16000 -0.671
41.18000 0.013
41.20000 -0.576
41.22000 -0.188
41.24000 -1.719
41.26000 2.298
41.28000 0.589
41.30000 0.649
41.32000 3.437
41.34000 2.907
41.36000 2.731
41.38000 -2.043
41.40000 -3.379
41.42000 2.259
41.44000 3.561
41.46000 0.946
41.48000 4.158
41.50000 2.299
41.52000 2.321
41.54000 1.561
41.56000 -1.942
41.58000 -2.015
41.60000 -3.482
41.62000 -0.739
41.64000 -1.263
41.66000 0.683
41.68000 2.725
41.70000 0.197
41.72000 -1.620
41.74000 -1.269
41.76000 -0.744
41.78000 -0.489
41.80000 -2.247
41.82000 -1.649
41.84000 1.206
41.86000 4.163
41.88000 0.210
41.90000 1.256
41.92000 -0.019
41.94000 1.449
41.96000 4.385
41.98000 6.686
42.00000 3.754
42.02000 2.557
42.04000 0.349
42.06000 4.687
42.08000 2.542
42.10000 1.125
42.12000 -0.980
42.14000 -3.415
42.16000 -0.927
42.18000 1.869
42.20000 4.418
42.22000 -0.897
42.24000 -1.129
42.26000 -1.620
42.28000 0.310
42.30000 2.243
42.32000 0.187
42.34000 4.615
42.36000 1.904
42.38000 2.550
42.40000 4.592
42.42000 0.385
42.44000 0.427
42.46000 0.401
42.48000 -0.171
42.50000 -1.209
42.52000 0.324
42.54000 -0.798
42.56000 1.347
42.58000 4.194
42.60000 5.477
42.62000 2.619
42.64000 -0.214
42.66000 -3.373
42.68000 -3.355
42.70000 2.104
42.72000 0.333
42.74000 -3.262
42.76000 -1.570
42.78000 0.582
42.80000 2.988
42.82000 1.302
42.84000 1.357
42.86000 -3.356
42.88000 -2.711
42.90000 -0.450
42.92000 -0.683
42.94000 -0.512
42.96000 -1.900
42.98000 1.553
43.00000 4.103
43.02000 -0.603
43.04000 -0.882
43.06000 -0.493
43.08000 0.603
43.10000 1.378
43.12000 0.611
43.14000 2.097
43.16000 1.530
43.18000 1.225
43.20000 -1.153
43.22000 -1.618
43.24000 -2.270
43.26000 -2.539
43.28000 1.667
43.30000 0.505
43.32000 0.693
43.34000 2.701
43.36000 2.546
43.38000 -0.440
43.40000 0.877
43.42000 3.589
43.44000 2.808
43.46000 4.623
43.48000 -0.178
43.50000 -3.301
43.52000 -1.503
43.54000 1.509
43.56000 -0.412
43.58000 -0.972
43.60000 1.858
43.62000 2.662
43.64000 0.047
43.66000 -1.961
43.68000 1.899
43.70000 8.251
43.72000 5.582
43.74000 1.331
43.76000 5.960
43.78000 3.132
43.80000 1.215
43.82000 4.456
43.84000 4.222
43.86000 4.518
43.88000 4.600
43.90000 6.785
43.92000 7.122
43.94000 9.247
43.96000 8.636
43.98000 7.350
44.00000 6.094
44.02000 8.805
44.04000 8.483
44.06000 7.274
44.08000 9.516
44.10000 11.212
44.12000 9.345
44.14000 14.109
44.16000 11.118
44.18000 9.858
44.20000 14.725
44.22000 14.780
44.24000 17.355
44.26000 18.658
44.28000 13.351
44.30000 15.751
44.32000 19.626
44.34000 21.190
44.36000 21.001
44.38000 22.676
44.40000 25.955
44.42000 30.509
44.44000 33.628
44.46000 37.747
44.48000 36.626
44.50000 37.233
44.52000 36.168
44.54000 35.407
44.56000 42.263
44.58000 47.379
44.60000 46.833
44.62000 46.345
44.64000 51.555
44.66000 56.960
44.68000 62.401
44.70000 68.982
44.72000 69.902
44.74000 69.025
44.76000 74.081
44.78000 76.001
44.80000 80.934
44.82000 84.125
44.84000 92.116
44.86000 95.819
44.88000 97.453
44.90000 96.234
44.92000 103.979
44.94000 103.546
44.96000 104.297
44.98000 103.914
45.00000 104.805
45.02000 108.100
45.04000 109.795
45.06000 108.705
45.08000 113.012
45.10000 112.587
45.12000 103.038
45.14000 104.944
45.16000 101.532
45.18000 97.647
45.20000 102.769
45.22000 99.952
45.24000 96.171
45.26000 90.346
45.28000 84.134
45.30000 85.352
45.32000 79.875
45.34000 72.309
45.36000 64.970
45.38000 67.849
45.40000 64.059
45.42000 58.754
45.44000 56.658
45.46000 52.047
45.48000 43.880
45.50000 43.449
45.52000 48.917
45.54000 46.215
45.56000 45.559
45.58000 40.347
45.60000 35.329
45.62000 35.197
45.64000 32.414
45.66000 28.415
45.68000 24.248
45.70000 22.186
45.72000 24.181
45.74000 24.355
45.76000 19.010
45.78000 18.427
45.80000 16.961
45.82000 15.789
45.84000 12.743
45.86000 11.386
45.88000 11.492
45.90000 10.969
45.92000 12.756
45.94000 13.326
45.96000 9.410
45.98000 6.180
46.00000 8.206
46.02000 7.828
46.04000 8.555
46.06000 7.466
46.08000 6.605
46.10000 4.967
46.12000 6.068
46.14000 6.669
46.16000 7.935
46.18000 3.272
46.20000 2.740
46.22000 3.520
46.24000 6.253
46.26000 2.169
46.28000 0.782
46.30000 5.010
46.32000 2.927
46.34000 -0.011
46.36000 -0.860
46.38000 0.329
46.40000 -0.443
46.42000 0.888
46.44000 1.370
46.46000 0.871
46.48000 1.697
46.50000 0.594
46.52000 0.240
46.54000 0.000
46.56000 5.675
46.58000 3.577
46.60000 1.374
46.62000 5.809
46.64000 4.707
46.66000 -0.560
46.68000 -1.738
46.70000 -2.248
46.72000 -0.736
46.74000 0.493
46.76000 2.185
46.78000 5.290
46.80000 3.286
46.82000 -1.509
46.84000 -2.920
46.86000 1.923
46.88000 2.585
46.90000 4.223
46.92000 -0.703
46.94000 2.095
46.96000 5.876
46.98000 1.828
47.00000 -1.494
47.02000 3.002
47.04000 8.432
47.06000 2.982
47.08000 -0.093
47.10000 -0.396
47.12000 2.385
47.14000 1.959
47.16000 3.705
47.18000 1.646
47.20000 0.736
47.22000 -0.635
47.24000 -2.852
47.26000 -1.115
47.28000 0.989
47.30000 1.431
47.32000 2.906
47.34000 3.452
47.36000 3.825
47.38000 1.224
47.40000 4.747
47.42000 9.672
47.44000 9.289
47.46000 7.269
47.48000 8.062
47.50000 8.442
47.52000 8.751
47.54000 6.854
47.56000 2.763
47.58000 2.246
47.60000 1.378
47.62000 -0.333
47.64000 4.006
47.66000 2.799
47.68000 8.565
47.70000 8.451
47.72000 2.577
47.74000 0.153
47.76000 0.967
47.78000 5.309
47.80000 7.525
47.82000 5.632
47.84000 2.365
47.86000 2.001
47.88000 3.396
47.90000 10.256
47.92000 9.410
47.94000 4.140
47.96000 -2.768
47.98000 0.416
48.00000 2.215
48.02000 5.962
48.04000 9.070
48.06000 4.775
48.08000 7.348
48.10000 8.842
48.12000 3.409
48.14000 -1.049
48.16000 5.903
48.18000 11.882
48.20000 7.716
48.22000 2.926
48.24000 3.540
48.26000 7.179
48.28000 11.021
48.30000 6.405
48.32000 6.007
48.34000 5.745
48.36000 6.163
48.38000 4.295
48.40000 3.025
48.42000 1.142
48.44000 0.384
48.46000 2.018
48.48000 8.197
48.50000 6.288
48.52000 2.569
48.54000 0.033
48.56000 1.155
48.58000 3.040
48.60000 0.502
48.62000 1.657
48.64000 3.291
48.66000 4.777
48.68000 6.505
48.70000 6.638
48.72000 3.992
48.74000 2.507
48.76000 6.293
48.78000 4.143
48.80000 3.143
48.82000 6.878
48.84000 2.570
48.86000 3.590
48.88000 2.637
48.90000 1.754
48.92000 3.583
48.94000 6.186
48.96000 8.021
48.98000 4.147
49.00000 0.421
49.02000 3.006
49.04000 0.519
49.06000 -0.009
49.08000 2.463
49.10000 3.136
49.12000 6.114
49.14000 6.739
49.16000 8.425
49.18000 9.839
49.20000 4.385
49.22000 3.305
49.24000 3.316
49.26000 0.214
49.28000 -2.139
49.30000 -0.587
49.32000 -1.398
49.34000 -2.696
49.36000 2.362
49.38000 6.217
49.40000 2.984
49.42000 6.256
49.44000 9.614
49.46000 0.959
49.48000 -1.140
49.50000 -0.841
49.52000 0.106
49.54000 2.045
49.56000 9.974
49.58000 8.147
49.60000 8.651
49.62000 7.590
49.64000 2.990
49.66000 2.471
49.68000 2.548
49.70000 0.577
49.72000 2.933
49.74000 4.650
49.76000 5.249
49.78000 5.295
49.80000 3.018
49.82000 5.931
49.84000 3.306
49.86000 4.907
49.88000 4.900
49.90000 11.950
49.92000 5.137
49.94000 -0.618
49.96000 -0.427
49.98000 1.322
50.00000 5.087
50.02000 8.731
50.04000 4.600
50.06000 5.419
50.08000 4.233
50.10000 1.954
50.12000 -1.106
50.14000 -0.237
50.16000 0.931
50.18000 -0.091
50.20000 -1.609
50.22000 0.680
50.24000 2.098
50.26000 1.689
50.28000 3.164
50.30000 5.584
50.32000 1.741
50.34000 2.208
50.36000 3.793
50.38000 4.209
50.40000 1.502
50.42000 -1.290
50.44000 6.157
50.46000 3.705
50.48000 0.236
50.50000 -1.354
50.52000 0.832
50.54000 3.233
50.56000 4.729
50.58000 3.287
50.60000 3.409
50.62000 3.234
50.64000 1.282
50.66000 2.862
50.68000 0.878
50.70000 4.506
50.72000 3.737
50.74000 0.280
50.76000 0.299
50.78000 4.808
50.80000 6.347
50.82000 9.741
50.84000 6.239
50.86000 0.995
50.88000 1.576
50.90000 2.664
50.92000 1.678
50.94000 1.312
50.96000 5.142
50.98000 3.652
51.00000 1.637
51.02000 1.921
51.04000 4.209
51.06000 4.805
51.08000 3.824
51.10000 3.511
51.12000 3.574
51.14000 4.438
51.16000 4.854
51.18000 10.102
51.20000 4.406
51.22000 -2.632
51.24000 0.515
51.26000 4.098
51.28000 0.413
51.30000 2.502
51.32000 4.778
51.34000 3.948
51.36000 2.572
51.38000 4.065
51.40000 0.117
51.42000 6.053
51.44000 6.227
51.46000 4.279
51.48000 6.285
51.50000 6.755
51.52000 2.535
51.54000 0.339
51.56000 0.024
51.58000 -0.153
51.60000 0.087
51.62000 -2.630
51.64000 1.231
51.66000 4.871
51.68000 4.773
51.70000 1.821
51.72000 2.308
51.74000 3.607
51.76000 2.726
51.78000 2.679
51.80000 1.252
51.82000 -0.068
51.84000 4.623
51.86000 8.973
51.88000 7.509
51.90000 5.728
51.92000 3.910
51.94000 5.742
51.96000 1.572
51.98000 6.622
52.00000 4.304
52.02000 -0.373
52.04000 -1.614
52.06000 -2.625
52.08000 -1.041
52.10000 5.097
52.12000 6.456
52.14000 7.817
52.16000 5.976
52.18000 2.640
52.20000 4.574
52.22000 3.662
52.24000 2.673
52.26000 -0.466
52.28000 -1.090
52.30000 0.606
52.32000 0.568
52.34000 3.661
52.36000 8.997
52.38000 3.920
52.40000 3.039
52.42000 2.299
52.44000 1.413
52.46000 0.344
52.48000 1.880
52.50000 5.382
52.52000 0.758
52.54000 -2.077
52.56000 2.813
52.58000 2.397
52.60000 4.519
52.62000 6.507
52.64000 4.228
52.66000 -1.108
52.68000 -0.885
52.70000 2.085
52.72000 5.872
52.74000 3.051
52.76000 3.113
52.78000 1.134
52.80000 2.533
52.82000 4.451
52.84000 3.713
52.86000 3.231
52.88000 2.424
52.90000 5.739
52.92000 6.007
52.94000 4.784
52.96000 3.554
52.98000 0.863
53.00000 1.249
53.02000 -0.928
53.04000 0.200
53.06000 5.323
53.08000 3.346
53.10000 1.148
53.12000 2.954
53.14000 4.537
53.16000 2.677
53.18000 -0.022
53.20000 -2.599
53.22000 -0.611
53.24000 2.303
53.26000 3.111
53.28000 6.034
53.30000 3.815
53.32000 -0.850
53.34000 -0.817
53.36000 4.425
53.38000 5.520
53.40000 1.512
53.42000 5.150
53.44000 2.658
53.46000 1.010
53.48000 6.506
53.50000 8.605
53.52000 3.640
53.54000 -1.266
53.56000 1.487
53.58000 4.033
53.60000 3.238
53.62000 2.815
53.64000 0.715
53.66000 2.711
53.68000 0.926
53.70000 2.632
53.72000 4.446
53.74000 3.787
53.76000 2.481
53.78000 3.232
53.80000 1.003
53.82000 3.046
53.84000 2.810
53.86000 0.763
53.88000 4.769
53.90000 2.611
53.92000 2.269
53.94000 6.320
53.96000 6.926
53.98000 3.543
54.00000 1.714
54.02000 2.338
54.04000 5.385
54.06000 6.136
54.08000 3.336
54.10000 1.144
54.12000 -2.294
54.14000 -1.642
54.16000 -0.566
54.18000 -2.582
54.20000 1.759
54.22000 5.307
54.24000 4.881
54.26000 -0.447
54.28000 3.036
54.30000 2.358
54.32000 -2.583
54.34000 -0.260
54.36000 4.331
54.38000 2.986
54.40000 2.224
54.42000 -1.446
54.44000 -1.820
54.46000 2.474
54.48000 0.644
54.50000 2.847
54.52000 -1.836
54.54000 1.576
54.56000 0.373
54.58000 1.755
54.60000 4.203
54.62000 -0.324
54.64000 3.795
54.66000 1.938
54.68000 0.864
54.70000 1.215
54.72000 -1.104
54.74000 1.546
54.76000 3.353
54.78000 4.133
54.80000 2.433
54.82000 2.111
54.84000 3.663
54.86000 4.552
54.88000 4.764
54.90000 3.554
54.92000 2.875
54.94000 4.817
54.96000 4.836
54.98000 3.886
55.00000 -0.254
55.02000 2.404
55.04000 2.898
55.06000 1.603
55.08000 -1.431
55.10000 -2.539
55.12000 -1.717
55.14000 4.721
55.16000 0.202
55.18000 2.019
55.20000 6.176
55.22000 4.777
55.24000 6.256
55.26000 2.644
55.28000 2.975
55.30000 0.028
55.32000 -0.855
55.34000 2.178
55.36000 2.619
55.38000 3.863
55.40000 5.001
55.42000 4.103
55.44000 6.289
55.46000 2.724
55.48000 -0.485
55.50000 2.293
55.52000 5.542
55.54000 7.118
55.56000 2.126
55.58000 2.406
55.60000 6.218
55.62000 6.673
55.64000 4.628
55.66000 2.678
55.68000 3.254
55.70000 -2.204
55.72000 2.979
55.74000 4.820
55.76000 -0.320
55.78000 -1.534
55.80000 -0.417
55.82000 0.895
55.84000 -2.477
55.86000 0.346
55.88000 3.655
55.90000 4.646
55.92000 -2.529
55.94000 1.190
55.96000 -1.421
55.98000 1.376
56.00000 1.721
56.02000 3.638
56.04000 4.249
56.06000 5.530
56.08000 3.678
56.10000 4.504
56.12000 6.009
56.14000 1.053
56.16000 3.836
56.18000 5.921
56.20000 6.898
56.22000 7.665
56.24000 5.133
56.26000 4.456
56.28000 2.630
56.30000 2.654
56.32000 1.741
56.34000 3.229
56.36000 2.457
56.38000 2.422
56.40000 3.884
56.42000 4.796
56.44000 1.481
56.46000 -0.177
56.48000 1.271
56.50000 1.772
56.52000 5.314
56.54000 3.193
56.56000 2.449
56.58000 2.727
56.60000 -2.501
56.62000 2.119
56.64000 6.182
56.66000 2.824
56.68000 7.316
56.70000 4.220
56.72000 -1.084
56.74000 -2.493
56.76000 -2.036
56.78000 1.293
56.80000 3.412
56.82000 4.033
56.84000 4.506
56.86000 5.040
56.88000 1.389
56.90000 3.022
56.92000 4.312
56.94000 2.536
56.96000 2.619
56.98000 0.444
57.00000 2.650
57.02000 3.203
57.04000 2.298
57.06000 1.858
57.08000 5.884
57.10000 3.487
57.12000 3.486
57.14000 3.996
57.16000 2.681
57.18000 3.502
57.20000 1.983
57.22000 2.769
57.24000 3.160
57.26000 -2.474
57.28000 -0.409
57.30000 1.061
57.32000 2.198
57.34000 3.342
57.36000 6.590
57.38000 4.180
57.40000 2.375
57.42000 2.755
57.44000 4.511
57.46000 3.522
57.48000 1.931
57.50000 4.609
57.52000 0.680
57.54000 0.570
57.56000 0.889
57.58000 3.503
57.60000 6.108
57.62000 7.818
57.64000 8.132
57.66000 6.326
57.68000 4.607
57.70000 1.694
57.72000 2.679
57.74000 6.952
57.76000 3.237
57.78000 4.272
57.80000 2.906
57.82000 5.163
57.84000 6.569
57.86000 6.183
57.88000 3.628
57.90000 1.493
57.92000 2.459
57.94000 5.747
57.96000 9.315
57.98000 3.790
58.00000 2.394
58.02000 -0.333
58.04000 4.906
58.06000 5.743
58.08000 2.828
58.10000 1.533
58.12000 1.472
58.14000 2.039
58.16000 4.884
58.18000 2.728
58.20000 1.072
58.22000 3.302
58.24000 2.624
58.26000 4.924
58.28000 5.882
58.30000 4.182
58.32000 4.137
58.34000 1.923
58.36000 0.507
58.38000 1.568
58.40000 -2.428
58.42000 0.851
58.44000 3.471
58.46000 4.111
58.48000 6.157
58.50000 3.422
58.52000 3.041
58.54000 6.413
58.56000 3.589
58.58000 4.916
58.60000 2.636
58.62000 1.123
58.64000 0.829
58.66000 0.526
58.68000 1.378
58.70000 3.883
58.72000 4.786
58.74000 0.840
58.76000 -0.107
58.78000 -0.060
58.80000 2.548
58.82000 1.229
58.84000 2.397
58.86000 -0.520
58.88000 0.781
58.90000 3.512
58.92000 2.102
58.94000 3.914
58.96000 7.088
58.98000 6.049
59.00000 7.912
59.02000 3.944
59.04000 4.949
59.06000 2.456
59.08000 2.361
59.10000 1.458
59.12000 1.693
59.14000 1.313
59.16000 1.564
59.18000 6.233
59.20000 3.450
59.22000 1.051
59.24000 4.953
59.26000 3.498
59.28000 5.175
59.30000 3.201
59.32000 5.851
59.34000 6.811
59.36000 5.462
59.38000 8.977
59.40000 7.175
59.42000 4.912
59.44000 6.113
59.46000 4.090
59.48000 5.915
59.50000 4.296
59.52000 5.725
59.54000 8.888
59.56000 1.838
59.58000 0.654
59.60000 1.109
59.62000 4.880
59.64000 7.866
59.66000 6.136
59.68000 7.321
59.70000 8.180
59.72000 -2.149
59.74000 -2.362
59.76000 0.305
59.78000 1.607
59.80000 4.287
59.82000 4.771
59.84000 8.137
59.86000 10.934
59.88000 4.606
59.90000 1.129
59.92000 5.962
59.94000 7.616
59.96000 5.759
59.98000 4.468
60.00000 5.593
60.02000 6.498
60.04000 5.450
60.06000 7.680
60.08000 7.546
60.10000 9.865
60.12000 6.054
60.14000 2.442
60.16000 4.346
60.18000 1.011
60.20000 -2.220
60.22000 1.722
60.24000 7.399
60.26000 2.745
60.28000 4.295
60.30000 5.513
60.32000 -0.304
60.34000 1.653
60.36000 0.099
60.38000 0.286
60.40000 3.197
60.42000 -0.103
60.44000 1.247
60.46000 4.736
60.48000 3.681
60.50000 3.646
60.52000 3.280
60.54000 1.948
60.56000 3.422
60.58000 3.020
60.60000 3.975
60.62000 3.713
60.64000 1.327
60.66000 0.464
60.68000 1.042
60.70000 1.352
60.72000 0.290
60.74000 0.179
60.76000 2.463
60.78000 5.689
60.80000 5.916
60.82000 1.002
60.84000 -2.014
60.86000 2.970
60.88000 0.528
60.90000 -1.048
60.92000 1.323
60.94000 5.930
60.96000 4.735
60.98000 2.019
61.00000 0.898
61.02000 0.293
61.04000 0.574
61.06000 2.223
61.08000 -0.531
61.10000 3.225
61.12000 3.164
61.14000 3.042
61.16000 6.503
61.18000 3.383
61.20000 0.001
61.22000 2.908
61.24000 4.724
61.26000 5.416
61.28000 2.000
61.30000 0.534
61.32000 1.795
61.34000 1.127
61.36000 -1.703
61.38000 1.332
61.40000 1.070
61.42000 -1.186
61.44000 -2.355
61.46000 0.886
61.48000 2.500
61.50000 5.499
61.52000 4.190
61.54000 1.111
61.56000 1.999
61.58000 4.442
61.60000 4.069
61.62000 3.163
61.64000 1.758
61.66000 4.707
61.68000 2.428
61.70000 0.640
61.72000 1.334
61.74000 0.767
61.76000 0.121
61.78000 -0.790
61.80000 1.343
61.82000 -0.610
61.84000 2.398
61.86000 6.207
61.88000 4.631
61.90000 5.162
61.92000 1.867
61.94000 1.221
61.96000 0.050
61.98000 3.761
62.00000 1.954
62.02000 2.315
62.04000 2.163
62.06000 -0.321
62.08000 1.168
62.10000 2.310
62.12000 -1.533
62.14000 0.298
62.16000 1.068
62.18000 1.281
62.20000 2.664
62.22000 1.011
62.24000 3.334
62.26000 0.389
62.28000 -0.223
62.30000 3.230
62.32000 1.262
62.34000 0.872
62.36000 -1.934
62.38000 0.476
62.40000 3.445
62.42000 3.520
62.44000 0.847
62.46000 2.673
62.48000 1.259
62.50000 0.774
62.52000 -1.280
62.54000 -0.818
62.56000 2.585
62.58000 1.738
62.60000 -0.462
62.62000 -0.621
62.64000 -1.467
62.66000 -2.326
62.68000 2.800
62.70000 4.573
62.72000 3.671
62.74000 2.240
62.76000 3.181
62.78000 3.728
62.80000 2.075
62.82000 2.587
62.84000 3.286
62.86000 2.598
62.88000 2.817
62.90000 6.148
62.92000 0.687
62.94000 0.769
62.96000 6.259
62.98000 3.480
63.00000 0.258
63.02000 -0.787
63.04000 0.023
63.06000 -0.793
63.08000 -1.351
63.10000 5.250
63.12000 3.532
63.14000 4.006
63.16000 2.374
63.18000 1.289
63.20000 1.383
63.22000 1.973
63.24000 -0.258
63.26000 1.331
63.28000 -0.535
63.30000 -2.257
63.32000 0.822
63.34000 0.325
63.36000 -1.321
63.38000 1.872
63.40000 0.288
63.42000 3.777
63.44000 1.986
63.46000 2.202
63.48000 1.749
63.50000 3.294
63.52000 3.210
63.54000 -1.222
63.56000 -1.338
63.58000 1.831
63.60000 -1.032
63.62000 -0.685
63.64000 -0.392
63.66000 2.455
63.68000 2.016
63.70000 1.437
63.72000 1.930
63.74000 -1.614
63.76000 -1.089
63.78000 -1.444
63.80000 0.013
63.82000 1.436
63.84000 1.829
63.86000 1.714
63.88000 -0.625
63.90000 -2.336
63.92000 0.698
63.94000 -0.710
63.96000 -1.059
63.98000 1.793
64.00000 0.816
64.02000 1.003
64.04000 1.462
64.06000 2.521
64.08000 1.536
64.10000 2.377
64.12000 3.157
64.14000 -1.423
64.16000 1.259
64.18000 1.922
64.20000 3.663
64.22000 4.112
64.24000 3.701
64.26000 0.392
64.28000 1.417
64.30000 -0.295
64.32000 -0.167
64.34000 -0.034
64.36000 -2.283
64.38000 -0.016
64.40000 -2.335
64.42000 -0.064
64.44000 1.561
64.46000 4.882
64.48000 1.166
64.50000 1.611
64.52000 2.225
64.54000 0.637
64.56000 0.474
64.58000 4.588
64.60000 1.406
64.62000 -2.127
64.64000 0.958
64.66000 2.445
64.68000 3.266
64.70000 0.948
64.72000 0.664
64.74000 1.858
64.76000 2.189
64.78000 0.627
64.80000 5.169
64.82000 6.826
64.84000 6.154
64.86000 2.823
64.88000 1.377
64.90000 2.675
64.92000 3.017
64.94000 0.602
64.96000 0.476
64.98000 1.904
65.00000 0.859
65.02000 1.606
65.04000 1.661
65.06000 -0.325
65.08000 1.634
65.10000 2.262
65.12000 2.786
65.14000 3.256
65.16000 2.545
65.18000 0.702
65.20000 0.913
65.22000 2.636
65.24000 4.088
65.26000 3.822
65.28000 2.695
65.30000 5.006
65.32000 2.994
65.34000 4.467
65.36000 4.225
65.38000 5.328
65.40000 6.087
65.42000 9.940
65.44000 10.980
65.46000 7.657
65.48000 4.382
65.50000 6.136
65.52000 9.017
65.54000 6.262
65.56000 2.285
65.58000 6.809
65.60000 6.667
65.62000 6.993
65.64000 6.018
65.66000 6.575
65.68000 4.603
65.70000 4.574
65.72000 6.302
65.74000 5.441
65.76000 7.928
65.78000 6.963
65.80000 5.865
65.82000 3.358
65.84000 3.162
65.86000 6.746
65.88000 9.412
65.90000 6.981
65.92000 6.601
65.94000 3.900
65.96000 2.795
65.98000 4.432
66.00000 7.127
66.02000 7.004
66.04000 4.817
66.06000 1.007
66.08000 1.271
66.10000 5.191
66.12000 2.877
66.14000 2.844
66.16000 2.588
66.18000 2.322
66.20000 5.397
66.22000 4.334
66.24000 4.528
66.26000 4.760
66.28000 3.656
66.30000 5.007
66.32000 2.162
66.34000 3.190
66.36000 3.500
66.38000 3.464
66.40000 3.715
66.42000 2.869
66.44000 -0.255
66.46000 2.308
66.48000 5.184
66.50000 6.399
66.52000 4.811
66.54000 1.645
66.56000 3.428
66.58000 3.360
66.60000 0.383
66.62000 -2.252
66.64000 2.047
66.66000 5.992
66.68000 3.288
66.70000 3.497
66.72000 3.169
66.74000 1.103
66.76000 -1.074
66.78000 -0.975
66.80000 1.021
66.82000 2.305
66.84000 1.028
66.86000 2.381
66.88000 2.051
66.90000 1.646
66.92000 -0.231
66.94000 0.637
66.96000 0.817
66.98000 0.147
67.00000 4.023
67.02000 5.072
67.04000 5.301
67.06000 3.477
67.08000 -0.366
67.10000 -0.560
67.12000 0.228
67.14000 -1.092
67.16000 1.491
67.18000 1.615
67.20000 3.192
67.22000 4.149
67.24000 3.591
67.26000 3.027
67.28000 -0.544
67.30000 0.965
67.32000 -1.798
67.34000 0.420
67.36000 5.878
67.38000 2.384
67.40000 0.459
67.42000 3.145
67.44000 2.727
67.46000 1.022
67.48000 -0.975
67.50000 0.862
67.52000 4.088
67.54000 3.581
67.56000 2.742
67.58000 1.028
67.60000 -0.990
67.62000 -0.178
67.64000 2.723
67.66000 1.721
67.68000 2.971
67.70000 0.737
67.72000 0.134
67.74000 1.784
67.76000 4.474
67.78000 0.678
67.80000 2.853
67.82000 1.640
67.84000 3.991
67.86000 0.218
67.88000 0.036
67.90000 -0.713
67.92000 1.860
67.94000 1.296
67.96000 0.897
67.98000 0.568
68.00000 -1.530
68.02000 0.642
68.04000 0.731
68.06000 2.020
68.08000 -0.784
68.10000 -0.381
68.12000 0.948
68.14000 1.218
68.16000 -0.163
68.18000 0.169
68.20000 2.312
68.22000 -1.777
68.24000 -1.533
68.26000 0.203
68.28000 1.659
68.30000 1.578
68.32000 -0.038
68.34000 -0.131
68.36000 -0.246
68.38000 -2.199
68.40000 -2.205
68.42000 -0.338
68.44000 0.646
68.46000 0.915
68.48000 -0.215
68.50000 -0.090
68.52000 1.538
68.54000 3.782
68.56000 2.792
68.58000 0.712
68.60000 0.204
68.62000 1.223
68.64000 3.011
68.66000 0.238
68.68000 0.260
68.70000 -1.267
68.72000 1.902
68.74000 0.224
68.76000 2.181
68.78000 0.940
68.80000 1.938
68.82000 3.361
68.84000 -1.418
68.86000 -1.474
68.88000 1.776
68.90000 -1.533
68.92000 -1.396
68.94000 -1.358
68.96000 -0.618
68.98000 0.795
69.00000 0.834
69.02000 0.551
69.04000 -0.304
69.06000 0.739
69.08000 1.911
69.10000 0.096
69.12000 -0.495
69.14000 2.019
69.16000 0.603
69.18000 2.708
69.20000 1.739
69.22000 3.142
69.24000 1.995
69.26000 0.432
69.28000 1.134
69.30000 0.915
69.32000 1.028
69.34000 1.098
69.36000 -2.187
69.38000 0.490
69.40000 -0.890
69.42000 -1.674
69.44000 0.118
69.46000 1.324
69.48000 1.240
69.50000 3.684
69.52000 3.588
69.54000 2.205
69.56000 0.678
69.58000 -1.112
69.60000 -0.741
69.62000 0.397
69.64000 1.178
69.66000 0.789
69.68000 2.013
69.70000 0.339
69.72000 -1.050
69.74000 -1.646
69.76000 0.485
69.78000 -0.573
69.80000 0.601
69.82000 2.028
69.84000 0.795
69.86000 -1.556
69.88000 -2.161
69.90000 0.405
69.92000 0.704
69.94000 2.971
69.96000 2.012
69.98000 -0.854
70.00000 0.899
70.02000 3.198
70.04000 3.493
70.06000 1.293
70.08000 1.699
70.10000 2.108
70.12000 1.377
70.14000 0.143
70.16000 1.209
70.18000 0.913
70.20000 -1.143
70.22000 -1.511
70.24000 -0.732
70.26000 1.320
70.28000 -0.786
70.30000 -0.281
70.32000 1.612
70.34000 -1.729
70.36000 -1.560
70.38000 0.607
70.40000 -0.705
70.42000 -0.807
70.44000 1.968
70.46000 2.113
70.48000 -0.470
70.50000 -1.138
70.52000 1.878
70.54000 2.344
70.56000 4.366
70.58000 4.434
70.60000 6.506
70.62000 7.209
70.64000 3.406
70.66000 3.088
70.68000 4.161
70.70000 3.964
70.72000 2.586
70.74000 -0.479
70.76000 -0.594
70.78000 -0.906
70.80000 -2.111
70.82000 -0.718
70.84000 2.925
70.86000 3.212
70.88000 3.758
70.90000 -0.364
70.92000 -1.265
70.94000 -0.741
70.96000 -0.528
70.98000 1.206
71.00000 0.029
71.02000 -0.001
71.04000 0.203
71.06000 -0.827
71.08000 2.095
71.10000 1.381
71.12000 0.300
71.14000 0.746
71.16000 3.702
71.18000 0.529
71.20000 -0.937
71.22000 1.757
71.24000 1.423
71.26000 1.458
71.28000 3.262
71.30000 3.345
71.32000 1.918
71.34000 1.600
71.36000 0.590
71.38000 3.323
71.40000 0.655
71.42000 0.225
71.44000 0.136
71.46000 -1.937
71.48000 1.091
71.50000 1.440
71.52000 0.007
71.54000 0.146
71.56000 2.074
71.58000 0.143
71.60000 0.404
71.62000 2.170
71.64000 0.256
71.66000 -0.879
71.68000 -1.188
71.70000 0.458
71.72000 2.513
71.74000 0.444
71.76000 0.430
71.78000 5.550
71.80000 0.861
71.82000 -0.372
71.84000 -0.172
71.86000 -0.874
71.88000 1.709
71.90000 1.586
71.92000 1.454
71.94000 0.874
71.96000 0.768
71.98000 -0.196
72.00000 -0.014
72.02000 2.515
72.04000 0.849
72.06000 1.907
72.08000 0.868
72.10000 -2.063
72.12000 0.596
72.14000 0.055
72.16000 0.468
72.18000 -0.139
72.20000 3.249
72.22000 1.343
72.24000 0.059
72.26000 1.883
72.28000 2.017
72.30000 1.231
72.32000 1.732
72.34000 0.714
72.36000 -1.128
72.38000 -1.540
72.40000 -0.050
72.42000 1.351
72.44000 -2.044
72.46000 0.049
72.48000 4.574
72.50000 2.788
72.52000 1.621
72.54000 -0.415
72.56000 1.185
72.58000 1.786
72.60000 1.443
72.62000 0.964
72.64000 -0.720
72.66000 0.412
72.68000 3.672
72.70000 2.660
72.72000 5.460
72.74000 3.606
72.76000 2.826
72.78000 1.485
72.80000 4.016
72.82000 3.520
72.84000 0.820
72.86000 -0.767
72.88000 -0.454
72.90000 -0.787
72.92000 1.730
72.94000 3.876
72.96000 2.459
72.98000 -2.050
73.00000 -1.080
73.02000 2.612
73.04000 3.430
73.06000 -0.999
73.08000 1.068
73.10000 0.772
73.12000 -0.673
73.14000 2.291
73.16000 -0.249
73.18000 -0.166
73.20000 3.307
73.22000 4.422
73.24000 2.397
73.26000 0.157
73.28000 -0.452
73.30000 2.601
73.32000 3.731
73.34000 3.149
73.36000 1.100
73.38000 0.937
73.40000 3.146
73.42000 1.597
73.44000 0.876
73.46000 1.339
73.48000 -0.825
73.50000 0.103
73.52000 0.251
73.54000 3.690
73.56000 1.943
73.58000 2.665
73.60000 3.803
73.62000 2.424
73.64000 0.370
73.66000 3.204
73.68000 2.726
73.70000 0.236
73.72000 0.901
73.74000 -0.411
73.76000 0.430
73.78000 -0.205
73.80000 1.373
73.82000 3.010
73.84000 2.165
73.86000 0.219
73.88000 1.214
73.90000 -0.567
73.92000 -2.028
73.94000 -1.363
73.96000 -2.050
73.98000 -1.397
74.00000 -0.277
74.02000 -0.960
74.04000 -1.822
74.06000 0.405
74.08000 0.910
74.10000 4.928
74.12000 4.628
74.14000 6.180
74.16000 1.899
74.18000 1.581
74.20000 1.055
74.22000 1.666
74.24000 2.892
74.26000 1.699
74.28000 1.420
74.30000 0.146
74.32000 -1.385
74.34000 1.541
74.36000 2.669
74.38000 0.379
74.40000 0.412
74.42000 0.190
74.44000 1.574
74.46000 1.950
74.48000 1.103
74.50000 2.324
74.52000 4.656
74.54000 -0.226
74.56000 1.864
74.58000 0.399
74.60000 2.352
74.62000 -2.021
74.64000 0.419
74.66000 3.651
74.68000 3.757
74.70000 2.178
74.72000 0.406
74.74000 2.836
74.76000 2.277
74.78000 0.941
74.80000 1.568
74.82000 5.038
74.84000 6.350
74.86000 2.916
74.88000 1.545
74.90000 4.651
74.92000 2.260
74.94000 2.686
74.96000 3.730
74.98000 4.888
75.00000 3.095
75.02000 2.936
75.04000 2.031
75.06000 2.034
75.08000 0.429
75.10000 -0.091
75.12000 -1.797
75.14000 0.296
75.16000 1.081
75.18000 1.090
75.20000 1.115
75.22000 -0.390
75.24000 -0.358
75.26000 3.908
75.28000 4.176
75.30000 3.606
75.32000 2.195
75.34000 3.159
75.36000 6.312
75.38000 5.625
75.40000 5.122
75.42000 4.150
75.44000 1.936
75.46000 2.255
75.48000 2.973
75.50000 2.682
75.52000 4.822
75.54000 0.355
75.56000 0.092
75.58000 1.988
75.60000 4.124
75.62000 5.186
75.64000 4.463
75.66000 3.346
75.68000 4.194
75.70000 2.291
75.72000 3.342
75.74000 3.424
75.76000 3.254
75.78000 2.816
75.80000 0.096
75.82000 -0.027
75.84000 0.639
75.86000 3.821
75.88000 1.110
75.90000 0.274
75.92000 1.288
75.94000 2.077
75.96000 1.458
75.98000 0.730
76.00000 3.507
76.02000 3.933
76.04000 1.971
76.06000 3.039
76.08000 3.686
76.10000 5.128
76.12000 4.971
76.14000 0.815
76.16000 1.179
76.18000 -1.173
76.20000 1.472
76.22000 3.843
76.24000 4.298
76.26000 2.601
76.28000 0.922
76.30000 1.022
76.32000 -2.056
76.34000 0.404
76.36000 3.590
76.38000 5.198
76.40000 2.929
76.42000 3.278
76.44000 3.291
76.46000 3.578
76.48000 3.149
76.50000 3.706
76.52000 1.540
76.54000 3.560
76.56000 4.451
76.58000 3.833
76.60000 2.134
76.62000 3.724
76.64000 2.439
76.66000 0.707
76.68000 2.139
76.70000 3.278
76.72000 1.139
76.74000 0.861
76.76000 5.649
76.78000 6.434
76.80000 2.937
76.82000 1.784
76.84000 1.083
76.86000 3.219
76.88000 1.615
76.90000 1.585
76.92000 2.700
76.94000 4.165
76.96000 1.278
76.98000 -0.132
77.00000 -1.783
77.02000 0.081
77.04000 3.604
77.06000 5.658
77.08000 3.215
77.10000 2.993
77.12000 0.240
77.14000 1.865
77.16000 5.156
77.18000 -0.299
77.20000 -1.653
77.22000 0.966
77.24000 0.544
77.26000 1.782
77.28000 2.409
77.30000 5.267
77.32000 0.126
77.34000 -2.151
77.36000 3.120
77.38000 4.139
77.40000 3.245
77.42000 2.594
77.44000 -0.275
77.46000 1.402
77.48000 0.490
77.50000 -0.392
77.52000 1.340
77.54000 2.073
77.56000 3.624
77.58000 3.498
77.60000 1.630
77.62000 3.482
77.64000 5.601
77.66000 8.454
77.68000 4.860
77.70000 3.130
77.72000 2.948
77.74000 3.074
77.76000 4.866
77.78000 4.567
77.80000 1.842
77.82000 -1.206
77.84000 3.881
77.86000 4.096
77.88000 1.530
77.90000 1.972
77.92000 2.170
77.94000 3.515
77.96000 4.507
77.98000 2.359
78.00000 -0.765
78.02000 4.931
78.04000 5.941
78.06000 4.774
78.08000 4.617
78.10000 9.454
78.12000 7.633
78.14000 11.934
78.16000 10.193
78.18000 7.053
78.20000 10.535
78.22000 12.255
78.24000 9.686
78.26000 10.431
78.28000 14.180
78.30000 14.529
78.32000 12.247
78.34000 15.315
78.36000 14.244
78.38000 15.986
78.40000 16.410
78.42000 17.040
78.44000 17.172
78.46000 15.415
78.48000 17.347
78.50000 17.773
78.52000 21.117
78.54000 24.507
78.56000 24.928
78.58000 22.970
78.60000 23.358
78.62000 28.250
78.64000 30.369
78.66000 33.640
78.68000 27.674
78.70000 28.941
78.72000 31.190
78.74000 32.491
78.76000 28.811
78.78000 32.597
78.80000 31.050
78.82000 26.670
78.84000 32.772
78.86000 33.047
78.88000 31.273
78.90000 28.984
78.92000 29.436
78.94000 33.732
78.96000 27.968
78.98000 34.370
79.00000 36.013
79.02000 25.773
79.04000 23.425
79.06000 26.657
79.08000 25.836
79.10000 24.812
79.12000 20.766
79.14000 16.184
79.16000 14.718
79.18000 16.390
79.20000 18.755
79.22000 21.547
79.24000 19.626
79.26000 16.924
79.28000 17.309
79.30000 15.028
79.32000 14.862
79.34000 15.233
79.36000 10.283
79.38000 9.687
79.40000 10.825
79.42000 11.757
79.44000 8.076
79.46000 9.220
79.48000 8.656
79.50000 7.644
79.52000 8.580
79.54000 7.266
79.56000 8.844
79.58000 8.190
79.60000 6.889
79.62000 6.718
79.64000 6.222
79.66000 6.432
79.68000 6.654
79.70000 5.927
79.72000 3.787
79.74000 3.164
79.76000 3.510
79.78000 0.825
79.80000 -0.635
79.82000 1.037
79.84000 4.123
79.86000 2.760
79.88000 0.345
79.90000 1.927
79.92000 0.722
79.94000 -0.564
79.96000 0.170
79.98000 1.333
80.00000 3.093
80.02000 4.075
80.04000 3.619
80.06000 1.008
80.08000 -1.026
80.10000 0.130
80.12000 2.414
80.14000 -0.059
80.16000 -1.168
80.18000 0.190
80.20000 0.585
80.22000 0.917
80.24000 2.797
80.26000 1.390
80.28000 -2.362
80.30000 -1.065
80.32000 1.433
80.34000 2.582
80.36000 -0.927
80.38000 -0.397
80.40000 0.541
80.42000 4.898
80.44000 2.778
80.46000 0.221
80.48000 4.769
80.50000 2.847
80.52000 1.811
80.54000 2.675
80.56000 -0.477
80.58000 -0.954
80.60000 0.485
80.62000 2.281
80.64000 2.745
80.66000 4.910
80.68000 1.374
80.70000 -0.059
80.72000 -0.310
80.74000 -2.098
80.76000 -2.363
80.78000 1.056
80.80000 4.876
80.82000 5.009
80.84000 1.496
80.86000 3.243
80.88000 3.278
80.90000 6.162
80.92000 4.252
80.94000 3.162
80.96000 1.337
80.98000 1.124
81.00000 0.134
81.02000 0.710
81.04000 3.385
81.06000 4.211
81.08000 2.664
81.10000 6.571
81.12000 7.966
81.14000 4.117
81.16000 2.238
81.18000 2.854
81.20000 2.384
81.22000 1.270
81.24000 3.509
81.26000 9.373
81.28000 4.733
81.30000 2.925
81.32000 0.837
81.34000 2.257
81.36000 7.269
81.38000 6.595
81.40000 3.103
81.42000 1.535
81.44000 4.504
81.46000 3.621
81.48000 6.063
81.50000 4.286
81.52000 5.678
81.54000 10.468
81.56000 9.497
81.58000 4.910
81.60000 4.919
81.62000 8.850
81.64000 4.159
81.66000 5.253
81.68000 6.747
81.70000 8.101
81.72000 7.412
81.74000 4.427
81.76000 6.978
81.78000 16.086
81.80000 13.087
81.82000 9.691
81.84000 9.023
81.86000 8.446
81.88000 11.728
81.90000 11.884
81.92000 9.858
81.94000 10.817
81.96000 16.455
81.98000 15.262
82.00000 13.258
82.02000 14.141
82.04000 12.172
82.06000 16.644
82.08000 17.086
82.10000 12.224
82.12000 17.031
82.14000 19.745
82.16000 19.381
82.18000 23.691
82.20000 20.131
82.22000 18.129
82.24000 22.983
82.26000 22.805
82.28000 24.766
82.30000 29.105
82.32000 27.229
82.34000 30.387
82.36000 30.684
82.38000 31.005
82.40000 32.283
82.42000 36.457
82.44000 37.417
82.46000 38.258
82.48000 36.468
82.50000 38.763
82.52000 41.509
82.54000 45.402
82.56000 49.211
82.58000 47.723
82.60000 49.869
82.62000 51.344
82.64000 57.848
82.66000 63.994
82.68000 62.728
82.70000 61.861
82.72000 63.573
82.74000 70.605
82.76000 73.132
82.78000 74.228
82.80000 76.097
82.82000 80.843
82.84000 78.587
82.86000 83.875
82.88000 79.525
82.90000 75.043
82.92000 85.701
82.94000 90.381
82.96000 93.682
82.98000 92.013
83.00000 91.915
83.02000 90.096
83.04000 90.359
83.06000 92.320
83.08000 84.426
83.10000 88.254
83.12000 90.766
83.14000 89.648
83.16000 82.175
83.18000 86.653
83.20000 82.474
83.22000 78.021
83.24000 74.099
83.26000 71.204
83.28000 71.196
83.30000 70.005
83.32000 68.113
83.34000 62.492
83.36000 61.360
83.38000 66.106
83.40000 61.056
83.42000 49.832
83.44000 47.681
83.46000 46.795
83.48000 49.495
83.50000 45.988
83.52000 43.633
83.54000 40.575
83.56000 39.205
83.58000 36.027
83.60000 35.923
83.62000 33.493
83.64000 32.509
83.66000 31.411
83.68000 28.576
83.70000 25.688
83.72000 26.036
83.74000 24.316
83.76000 19.929
83.78000 21.193
83.80000 20.639
83.82000 17.520
83.84000 15.791
83.86000 13.447
83.88000 13.321
83.90000 13.984
83.92000 13.487
83.94000 16.092
83.96000 12.224
83.98000 16.256
84.00000 12.526
84.02000 11.300
84.04000 13.592
84.06000 10.101
84.08000 6.437
84.10000 8.285
84.12000 7.246
84.14000 8.670
84.16000 8.475
84.18000 2.985
84.20000 4.653
84.22000 5.612
84.24000 5.332
84.26000 4.295
84.28000 4.501
84.30000 1.521
84.32000 0.168
84.34000 2.772
84.36000 8.158
84.38000 3.222
84.40000 1.693
84.42000 5.182
84.44000 3.241
84.46000 4.033
84.48000 6.678
84.50000 5.982
84.52000 8.277
84.54000 4.351
84.56000 2.882
84.58000 1.780
84.60000 2.314
84.62000 3.283
84.64000 2.733
84.66000 -2.146
84.68000 1.352
84.70000 0.615
84.72000 -0.286
84.74000 0.743
84.76000 1.464
84.78000 -0.085
84.80000 2.776
84.82000 5.931
84.84000 3.261
84.86000 1.724
84.88000 2.167
84.90000 1.116
84.92000 3.551
84.94000 7.620
84.96000 6.379
84.98000 1.903
85.00000 1.970
85.02000 3.254
85.04000 2.358
85.06000 1.638
85.08000 0.896
85.10000 0.976
85.12000 3.363
85.14000 4.609
85.16000 -0.545
85.18000 -2.068
85.20000 1.067
85.22000 4.460
85.24000 4.310
85.26000 1.776
85.28000 1.549
85.30000 1.416
85.32000 2.662
85.34000 3.914
85.36000 3.168
85.38000 2.100
85.40000 1.526
85.42000 4.503
85.44000 2.733
85.46000 1.747
85.48000 0.417
85.50000 0.838
85.52000 0.379
85.54000 0.080
85.56000 1.298
85.58000 -1.756
85.60000 0.449
85.62000 3.201
85.64000 1.994
85.66000 -1.226
85.68000 -0.594
85.70000 0.765
85.72000 2.629
85.74000 1.732
85.76000 -1.525
85.78000 -0.241
85.80000 1.833
85.82000 4.267
85.84000 2.623
85.86000 0.633
85.88000 0.090
85.90000 3.715
85.92000 1.695
85.94000 0.168
85.96000 -1.604
85.98000 0.120
86.00000 -0.062
86.02000 0.288
86.04000 1.538
86.06000 2.594
86.08000 4.211
86.10000 0.737
86.12000 0.093
86.14000 0.995
86.16000 2.551
86.18000 3.042
86.20000 2.451
86.22000 0.818
86.24000 -1.433
86.26000 -1.983
86.28000 3.613
86.30000 4.048
86.32000 1.690
86.34000 0.701
86.36000 0.695
86.38000 0.377
86.40000 4.638
86.42000 3.190
86.44000 0.706
86.46000 3.942
86.48000 3.485
86.50000 2.932
86.52000 2.370
86.54000 1.505
86.56000 1.437
86.58000 2.925
86.60000 2.619
86.62000 3.738
86.64000 1.303
86.66000 0.700
86.68000 3.396
86.70000 3.098
86.72000 2.282
86.74000 -0.231
86.76000 2.426
86.78000 3.516
86.80000 2.806
86.82000 3.387
86.84000 2.025
86.86000 3.572
86.88000 1.625
86.90000 0.385
86.92000 -0.238
86.94000 -1.966
86.96000 -0.699
86.98000 2.843
87.00000 4.562
87.02000 3.175
87.04000 2.751
87.06000 2.034
87.08000 1.029
87.10000 -1.804
87.12000 -1.959
87.14000 1.157
87.16000 0.579
87.18000 0.113
87.20000 3.140
87.22000 4.270
87.24000 3.979
87.26000 0.438
87.28000 1.871
87.30000 1.875
87.32000 0.909
87.34000 -1.850
87.36000 0.620
87.38000 2.339
87.40000 -1.267
87.42000 0.004
87.44000 0.598
87.46000 1.180
87.48000 1.286
87.50000 0.789
87.52000 -0.793
87.54000 -1.943
87.56000 -0.106
87.58000 3.040
87.60000 3.806
87.62000 3.128
87.64000 1.845
87.66000 -0.586
87.68000 -0.700
87.70000 0.841
87.72000 0.375
87.74000 0.026
87.76000 -0.158
87.78000 0.614
87.80000 1.917
87.82000 0.389
87.84000 -1.907
87.86000 0.879
87.88000 2.217
87.90000 1.991
87.92000 -0.761
87.94000 2.151
87.96000 3.084
87.98000 0.407
88.00000 -1.486
88.02000 -1.934
88.04000 -1.670
88.06000 0.691
88.08000 4.288
88.10000 5.175
88.12000 2.386
88.14000 1.704
88.16000 0.058
88.18000 -0.102
88.20000 0.513
88.22000 3.457
88.24000 4.149
88.26000 3.290
88.28000 -0.406
88.30000 -1.646
88.32000 0.600
88.34000 1.099
88.36000 6.008
88.38000 4.061
88.40000 1.151
88.42000 0.427
88.44000 -0.084
88.46000 2.131
88.48000 4.535
88.50000 5.116
88.52000 3.733
88.54000 2.988
88.56000 3.540
88.58000 3.161
88.60000 4.097
88.62000 2.915
88.64000 0.146
88.66000 -1.905
88.68000 0.102
88.70000 2.901
88.72000 5.136
88.74000 1.256
88.76000 -0.104
88.78000 1.691
88.80000 1.182
88.82000 1.786
88.84000 2.474
88.86000 0.713
88.88000 -0.429
88.90000 -0.048
88.92000 2.368
88.94000 0.537
88.96000 -0.790
88.98000 1.492
89.00000 5.836
89.02000 3.060
89.04000 -1.892
89.06000 1.971
89.08000 3.236
89.10000 4.740
89.12000 4.057
89.14000 1.795
89.16000 -0.242
89.18000 4.795
89.20000 5.999
89.22000 5.464
89.24000 3.314
89.26000 3.034
89.28000 2.577
89.30000 1.019
89.32000 0.602
89.34000 2.985
89.36000 0.868
89.38000 1.360
89.40000 3.249
89.42000 3.828
89.44000 3.791
89.46000 4.293
89.48000 3.129
89.50000 3.596
89.52000 1.707
89.54000 -1.717
89.56000 0.879
89.58000 3.855
89.60000 3.291
89.62000 1.522
89.64000 -1.890
89.66000 2.379
89.68000 4.173
89.70000 1.272
89.72000 2.924
89.74000 4.681
89.76000 1.387
89.78000 1.409
89.80000 0.905
89.82000 4.285
89.84000 -0.383
89.86000 -1.158
89.88000 -0.649
89.90000 0.906
89.92000 1.303
89.94000 1.139
89.96000 -0.352
89.98000 2.386
90.00000 4.372
90.02000 2.645
90.04000 2.504
90.06000 2.772
90.08000 1.560
90.10000 2.461
90.12000 1.810
90.14000 0.307
90.16000 3.574
90.18000 6.292
90.20000 2.762
90.22000 2.613
90.24000 4.433
90.26000 3.207
90.28000 1.763
90.30000 4.155
90.32000 3.638
90.34000 -0.417
90.36000 1.904
90.38000 2.558
90.40000 3.440
90.42000 1.954
90.44000 1.538
90.46000 3.714
90.48000 0.811
90.50000 3.827
90.52000 2.883
90.54000 1.898
90.56000 1.499
90.58000 -0.232
90.60000 1.376
90.62000 3.172
90.64000 2.144
90.66000 1.687
90.68000 2.310
90.70000 4.632
90.72000 3.685
90.74000 2.854
90.76000 -0.702
90.78000 -0.949
90.80000 1.416
90.82000 3.125
90.84000 2.114
90.86000 1.228
90.88000 1.492
90.90000 3.237
90.92000 0.647
90.94000 -1.887
90.96000 4.463
90.98000 7.759
91.00000 5.987
91.02000 2.674
91.04000 1.289
91.06000 0.910
91.08000 2.062
91.10000 3.056
91.12000 -0.031
91.14000 0.777
91.16000 4.879
91.18000 5.965
91.20000 1.969
91.22000 1.508
91.24000 5.302
91.26000 4.645
91.28000 3.014
91.30000 1.037
91.32000 1.750
91.34000 3.925
91.36000 3.004
91.38000 1.909
91.40000 -0.598
91.42000 0.825
91.44000 2.698
91.46000 3.990
91.48000 3.592
91.50000 5.267
91.52000 1.533
91.54000 1.880
91.56000 2.322
91.58000 1.328
91.60000 2.642
91.62000 5.393
91.64000 3.255
91.66000 3.602
91.68000 4.168
91.70000 2.664
91.72000 -0.559
91.74000 0.534
91.76000 1.460
91.78000 4.037
91.80000 -0.577
91.82000 0.186
91.84000 0.570
91.86000 2.073
91.88000 4.583
91.90000 4.605
91.92000 2.085
91.94000 1.706
91.96000 2.777
91.98000 1.764
92.00000 -1.625
92.02000 3.462
92.04000 4.632
92.06000 0.413
92.08000 -0.311
92.10000 3.411
92.12000 -0.492
92.14000 1.576
92.16000 2.246
92.18000 7.846
92.20000 6.639
92.22000 2.163
92.24000 -1.899
92.26000 1.969
92.28000 0.551
92.30000 1.184
92.32000 2.287
92.34000 5.065
92.36000 1.449
92.38000 0.103
92.40000 -1.161
92.42000 -1.394
92.44000 -1.415
92.46000 0.396
92.48000 1.384
92.50000 2.936
92.52000 3.861
92.54000 1.797
92.56000 3.189
92.58000 3.893
92.60000 0.910
92.62000 -0.629
92.64000 2.459
92.66000 4.059
92.68000 -0.630
92.70000 -1.920
92.72000 1.523
92.74000 5.934
92.76000 3.385
92.78000 1.852
92.80000 5.471
92.82000 7.166
92.84000 4.336
92.86000 3.576
92.88000 2.086
92.90000 2.167
92.92000 2.577
92.94000 1.621
92.96000 1.019
92.98000 2.909
93.00000 1.573
93.02000 0.387
93.04000 2.141
93.06000 -1.470
93.08000 -1.581
93.10000 -1.179
93.12000 3.999
93.14000 6.680
93.16000 4.659
93.18000 -0.427
93.20000 -0.559
93.22000 0.891
93.24000 7.573
93.26000 5.497
93.28000 2.477
93.30000 1.069
93.32000 2.340
93.34000 2.664
93.36000 0.696
93.38000 0.149
93.40000 0.734
93.42000 4.322
93.44000 4.104
93.46000 1.225
93.48000 1.935
93.50000 2.132
93.52000 1.573
93.54000 4.531
93.56000 4.971
93.58000 2.949
93.60000 1.830
93.62000 3.532
93.64000 3.972
93.66000 2.688
93.68000 -0.553
93.70000 -1.924
93.72000 1.353
93.74000 3.192
93.76000 4.219
93.78000 3.007
93.80000 6.008
93.82000 5.058
93.84000 3.235
93.86000 2.496
93.88000 2.865
93.90000 1.849
93.92000 2.562
93.94000 -0.993
93.96000 0.864
93.98000 1.609
94.00000 0.805
94.02000 2.128
94.04000 0.329
94.06000 4.525
94.08000 5.015
94.10000 4.758
94.12000 3.482
94.14000 0.857
94.16000 1.893
94.18000 1.847
94.20000 2.199
94.22000 -1.443
94.24000 -1.903
94.26000 2.529
94.28000 2.888
94.30000 0.204
94.32000 2.985
94.34000 0.067
94.36000 1.582
94.38000 1.216
94.40000 -1.945
94.42000 -1.505
94.44000 -1.929
94.46000 2.548
94.48000 1.928
94.50000 1.669
94.52000 3.151
94.54000 3.538
94.56000 2.116
94.58000 0.186
94.60000 0.772
94.62000 4.473
94.64000 4.886
94.66000 3.226
94.68000 4.636
94.70000 0.856
94.72000 0.824
94.74000 1.645
94.76000 1.475
94.78000 3.802
94.80000 3.746
94.82000 -1.059
94.84000 1.280
94.86000 3.077
94.88000 2.563
94.90000 2.165
94.92000 1.962
94.94000 5.960
94.96000 7.412
94.98000 3.746
95.00000 2.974
95.02000 3.145
95.04000 -1.939
95.06000 -1.830
95.08000 1.986
95.10000 -0.160
95.12000 1.888
95.14000 2.008
95.16000 2.944
95.18000 3.440
95.20000 3.466
95.22000 4.629
95.24000 4.369
95.26000 1.376
95.28000 -0.583
95.30000 6.251
95.32000 6.914
95.34000 3.580
95.36000 4.024
95.38000 5.377
95.40000 3.590
95.42000 1.709
95.44000 1.653
95.46000 1.938
95.48000 5.057
95.50000 8.551
95.52000 8.465
95.54000 5.747
95.56000 3.973
95.58000 2.710
95.60000 4.493
95.62000 2.226
95.64000 2.796
95.66000 4.947
95.68000 8.275
95.70000 6.536
95.72000 4.247
95.74000 3.983
95.76000 4.412
95.78000 3.964
95.80000 6.574
95.82000 4.701
95.84000 0.707
95.86000 3.849
95.88000 4.286
95.90000 1.657
95.92000 -1.902
95.94000 3.346
95.96000 6.279
95.98000 8.356
96.00000 6.530
96.02000 7.499
96.04000 6.451
96.06000 1.475
96.08000 3.904
96.10000 4.654
96.12000 7.395
96.14000 5.929
96.16000 2.935
96.18000 3.541
96.20000 4.774
96.22000 3.438
96.24000 7.138
96.26000 3.375
96.28000 0.479
96.30000 2.590
96.32000 2.155
96.34000 -0.182
96.36000 2.206
96.38000 6.589
96.40000 4.139
96.42000 6.245
96.44000 5.967
96.46000 4.175
96.48000 4.593
96.50000 1.569
96.52000 -0.145
96.54000 4.762
96.56000 8.765
96.58000 4.395
96.60000 2.585
96.62000 -1.010
96.64000 0.709
96.66000 2.036
96.68000 3.373
96.70000 3.095
96.72000 4.088
96.74000 3.267
96.76000 6.026
96.78000 1.313
96.80000 0.894
96.82000 3.994
96.84000 3.965
96.86000 3.139
96.88000 6.024
96.90000 6.036
96.92000 8.493
96.94000 8.111
96.96000 3.243
96.98000 -1.905
97.00000 1.177
97.02000 3.440
97.04000 4.074
97.06000 4.517
97.08000 4.829
97.10000 2.121
97.12000 1.415
97.14000 1.155
97.16000 5.582
97.18000 5.842
97.20000 4.214
97.22000 8.527
97.24000 4.182
97.26000 4.742
97.28000 6.389
97.30000 1.309
97.32000 4.720
97.34000 3.197
97.36000 1.599
97.38000 2.479
97.40000 -0.078
97.42000 -0.767
97.44000 1.621
97.46000 7.259
97.48000 3.622
97.50000 3.207
97.52000 5.756
97.54000 6.402
97.56000 6.034
97.58000 2.751
97.60000 0.157
97.62000 -1.446
97.64000 2.065
97.66000 3.669
97.68000 5.885
97.70000 4.204
97.72000 3.546
97.74000 1.106
97.76000 2.852
97.78000 6.835
97.80000 0.260
97.82000 1.739
97.84000 -1.142
97.86000 5.211
97.88000 5.545
97.90000 1.547
97.92000 5.759
97.94000 1.263
97.96000 -1.881
97.98000 7.677
98.00000 7.068
98.02000 1.269
98.04000 4.240
98.06000 8.618
98.08000 2.054
98.10000 5.927
98.12000 10.523
98.14000 3.124
98.16000 5.023
98.18000 0.240
98.20000 2.638
98.22000 7.661
98.24000 2.323
98.26000 -0.165
98.28000 -1.772
98.30000 5.685
98.32000 6.638
98.34000 5.553
98.36000 6.224
98.38000 0.977
98.40000 2.983
98.42000 2.081
98.44000 7.591
98.46000 8.798
98.48000 9.950
98.50000 4.647
98.52000 2.437
98.54000 3.470
98.56000 0.621
98.58000 6.582
98.60000 7.633
98.62000 9.825
98.64000 9.858
98.66000 4.465
98.68000 8.677
98.70000 5.414
98.72000 5.981
98.74000 2.725
98.76000 1.558
98.78000 3.396
98.80000 -1.095
98.82000 0.870
98.84000 1.235
98.86000 1.380
98.88000 3.536
98.90000 3.806
98.92000 6.581
98.94000 4.826
98.96000 0.705
98.98000 -1.883
99.00000 0.653
99.02000 -0.035
99.04000 0.021
99.06000 2.387
99.08000 4.992
99.10000 4.075
99.12000 0.632
99.14000 -1.756
99.16000 4.518
99.18000 5.359
99.20000 6.815
99.22000 2.140
99.24000 7.764
99.26000 2.577
99.28000 6.840
99.30000 6.191
99.32000 0.782
99.34000 1.922
99.36000 2.362
99.38000 3.862
99.40000 10.507
99.42000 5.823
99.44000 -1.868
99.46000 -1.109
99.48000 -1.867
99.50000 1.974
99.52000 3.218
99.54000 5.070
99.56000 5.867
99.58000 -1.424
99.60000 -1.882
99.62000 7.037
99.64000 12.427
99.66000 10.069
99.68000 0.200
99.70000 0.693
99.72000 -1.613
99.74000 6.160
99.76000 8.315
99.78000 -2.221
99.80000 5.858
99.82000 9.119
99.84000 -0.593
99.86000 0.302
99.88000 0.685
99.90000 5.532
99.92000 1.410
99.94000 -1.928
99.96000 2.194
99.98000 0.000
