'Id: "0011388" Comment: "Integrate frame 0011388_Au-Ir-Rh_Rh-rich_XRD-Mapping-316-0000.gfrmwith cursor Wedge Cursor #5" Operator: "B?rgel" Anode: "Cu" Wavelength: "1.5406" Scantype: "2Theta (TwoTheta)" TimePerStep: "1" X: "-4.5" Y: "36" Z: "5.95" 
10.00000 0.000
10.02000 -4.340
10.04000 -9.334
10.06000 24.876
10.08000 27.325
10.10000 22.624
10.12000 13.680
10.14000 34.924
10.16000 21.112
10.18000 -8.433
10.20000 3.093
10.22000 11.712
10.24000 13.766
10.26000 14.949
10.28000 17.194
10.30000 13.603
10.32000 10.958
10.34000 14.097
10.36000 16.089
10.38000 20.639
10.40000 5.087
10.42000 6.492
10.44000 14.447
10.46000 13.523
10.48000 14.792
10.50000 9.385
10.52000 -1.994
10.54000 5.377
10.56000 24.877
10.58000 32.654
10.60000 17.799
10.62000 20.231
10.64000 10.409
10.66000 5.515
10.68000 13.278
10.70000 3.759
10.72000 7.050
10.74000 14.033
10.76000 17.352
10.78000 12.954
10.80000 9.645
10.82000 14.707
10.84000 3.199
10.86000 -4.378
10.88000 13.416
10.90000 25.397
10.92000 27.322
10.94000 18.607
10.96000 18.097
10.98000 9.961
11.00000 12.356
11.02000 5.695
11.04000 22.938
11.06000 17.436
11.08000 7.054
11.10000 4.517
11.12000 8.513
11.14000 16.456
11.16000 10.836
11.18000 14.687
11.20000 24.685
11.22000 17.248
11.24000 28.124
11.26000 25.628
11.28000 25.129
11.30000 25.307
11.32000 16.802
11.34000 10.999
11.36000 3.885
11.38000 23.808
11.40000 26.039
11.42000 11.143
11.44000 12.962
11.46000 17.833
11.48000 15.000
11.50000 16.605
11.52000 5.357
11.54000 2.832
11.56000 13.949
11.58000 14.870
11.60000 12.642
11.62000 17.584
11.64000 8.576
11.66000 5.238
11.68000 17.537
11.70000 20.569
11.72000 13.007
11.74000 4.319
11.76000 11.429
11.78000 19.329
11.80000 17.912
11.82000 4.804
11.84000 9.011
11.86000 12.479
11.88000 15.062
11.90000 9.788
11.92000 16.903
11.94000 26.891
11.96000 23.491
11.98000 15.525
12.00000 12.028
12.02000 3.265
12.04000 -2.195
12.06000 0.886
12.08000 2.246
12.10000 7.705
12.12000 7.098
12.14000 5.361
12.16000 6.664
12.18000 4.061
12.20000 1.042
12.22000 0.878
12.24000 -0.023
12.26000 1.565
12.28000 19.874
12.30000 11.902
12.32000 9.210
12.34000 11.982
12.36000 3.558
12.38000 0.338
12.40000 10.681
12.42000 12.416
12.44000 3.417
12.46000 -1.144
12.48000 9.520
12.50000 16.421
12.52000 -4.280
12.54000 -0.604
12.56000 3.914
12.58000 13.104
12.60000 12.684
12.62000 12.026
12.64000 9.625
12.66000 1.874
12.68000 0.040
12.70000 15.206
12.72000 15.032
12.74000 13.923
12.76000 -2.965
12.78000 2.288
12.80000 -0.521
12.82000 9.902
12.84000 6.899
12.86000 1.860
12.88000 6.256
12.90000 9.330
12.92000 12.510
12.94000 7.708
12.96000 10.717
12.98000 8.962
13.00000 10.731
13.02000 13.300
13.04000 14.453
13.06000 4.992
13.08000 -2.018
13.10000 3.745
13.12000 7.961
13.14000 16.494
13.16000 26.978
13.18000 13.934
13.20000 6.164
13.22000 11.164
13.24000 -0.072
13.26000 1.601
13.28000 6.209
13.30000 9.286
13.32000 17.911
13.34000 18.389
13.36000 9.066
13.38000 14.972
13.40000 13.497
13.42000 11.333
13.44000 9.951
13.46000 3.943
13.48000 1.492
13.50000 2.893
13.52000 5.430
13.54000 11.885
13.56000 11.375
13.58000 12.014
13.60000 8.538
13.62000 2.734
13.64000 -0.978
13.66000 6.911
13.68000 13.368
13.70000 14.242
13.72000 13.652
13.74000 5.038
13.76000 1.710
13.78000 4.802
13.80000 4.510
13.82000 8.029
13.84000 4.537
13.86000 6.598
13.88000 7.600
13.90000 16.690
13.92000 18.602
13.94000 16.174
13.96000 3.043
13.98000 12.625
14.00000 15.385
14.02000 9.976
14.04000 10.042
14.06000 8.415
14.08000 4.054
14.10000 3.787
14.12000 7.249
14.14000 9.794
14.16000 14.203
14.18000 14.065
14.20000 11.879
14.22000 3.799
14.24000 6.366
14.26000 5.382
14.28000 -1.127
14.30000 4.129
14.32000 9.923
14.34000 17.345
14.36000 13.597
14.38000 0.331
14.40000 -4.504
14.42000 4.083
14.44000 0.937
14.46000 9.167
14.48000 7.994
14.50000 8.776
14.52000 15.157
14.54000 21.468
14.56000 10.430
14.58000 1.335
14.60000 0.220
14.62000 9.846
14.64000 6.357
14.66000 -1.398
14.68000 1.917
14.70000 2.847
14.72000 2.976
14.74000 11.926
14.76000 9.238
14.78000 3.431
14.80000 7.482
14.82000 14.471
14.84000 6.523
14.86000 6.970
14.88000 7.695
14.90000 15.452
14.92000 16.965
14.94000 12.305
14.96000 3.623
14.98000 -2.774
15.00000 4.956
15.02000 14.117
15.04000 8.757
15.06000 7.669
15.08000 6.149
15.10000 7.903
15.12000 16.844
15.14000 10.319
15.16000 7.507
15.18000 4.423
15.20000 9.116
15.22000 6.979
15.24000 5.737
15.26000 2.032
15.28000 8.503
15.30000 15.807
15.32000 6.136
15.34000 -2.527
15.36000 5.378
15.38000 11.743
15.40000 10.781
15.42000 5.680
15.44000 5.540
15.46000 2.643
15.48000 13.844
15.50000 12.669
15.52000 9.988
15.54000 6.367
15.56000 2.620
15.58000 9.064
15.60000 6.954
15.62000 7.321
15.64000 14.096
15.66000 25.255
15.68000 17.297
15.70000 12.371
15.72000 12.415
15.74000 2.172
15.76000 6.628
15.78000 7.630
15.80000 2.585
15.82000 -4.444
15.84000 6.444
15.86000 7.440
15.88000 2.359
15.90000 -2.724
15.92000 6.311
15.94000 4.590
15.96000 2.285
15.98000 9.084
16.00000 10.120
16.02000 5.571
16.04000 13.682
16.06000 9.273
16.08000 4.371
16.10000 22.513
16.12000 17.786
16.14000 12.023
16.16000 12.263
16.18000 15.928
16.20000 10.299
16.22000 1.514
16.24000 4.719
16.26000 10.241
16.28000 8.173
16.30000 3.801
16.32000 9.370
16.34000 7.484
16.36000 11.833
16.38000 11.090
16.40000 3.236
16.42000 6.703
16.44000 8.139
16.46000 9.327
16.48000 0.491
16.50000 6.657
16.52000 5.312
16.54000 -2.913
16.56000 0.990
16.58000 8.034
16.60000 6.348
16.62000 8.018
16.64000 4.995
16.66000 17.696
16.68000 12.873
16.70000 6.600
16.72000 3.248
16.74000 7.065
16.76000 10.708
16.78000 13.734
16.80000 9.341
16.82000 6.046
16.84000 2.294
16.86000 13.204
16.88000 8.243
16.90000 12.181
16.92000 18.704
16.94000 4.520
16.96000 9.699
16.98000 15.281
17.00000 13.861
17.02000 10.418
17.04000 7.990
17.06000 15.945
17.08000 16.414
17.10000 6.407
17.12000 9.776
17.14000 6.110
17.16000 6.337
17.18000 4.910
17.20000 8.636
17.22000 14.786
17.24000 12.661
17.26000 5.850
17.28000 5.932
17.30000 1.437
17.32000 1.705
17.34000 8.808
17.36000 1.598
17.38000 2.688
17.40000 5.225
17.42000 1.212
17.44000 -4.414
17.46000 3.586
17.48000 0.479
17.50000 4.493
17.52000 10.192
17.54000 4.184
17.56000 6.697
17.58000 10.034
17.60000 8.615
17.62000 4.677
17.64000 4.289
17.66000 8.708
17.68000 9.088
17.70000 7.392
17.72000 0.389
17.74000 4.590
17.76000 2.801
17.78000 4.256
17.80000 1.808
17.82000 6.696
17.84000 7.777
17.86000 4.033
17.88000 1.382
17.90000 3.225
17.92000 6.135
17.94000 5.725
17.96000 15.358
17.98000 10.911
18.00000 6.283
18.02000 2.557
18.04000 1.007
18.06000 1.002
18.08000 5.798
18.10000 14.448
18.12000 10.974
18.14000 10.147
18.16000 8.402
18.18000 2.552
18.20000 6.835
18.22000 5.185
18.24000 -1.185
18.26000 -0.774
18.28000 2.997
18.30000 -1.962
18.32000 2.610
18.34000 -0.157
18.36000 3.513
18.38000 4.065
18.40000 2.346
18.42000 7.678
18.44000 5.396
18.46000 8.758
18.48000 6.686
18.50000 1.432
18.52000 9.015
18.54000 5.635
18.56000 3.807
18.58000 4.556
18.60000 1.860
18.62000 9.968
18.64000 2.885
18.66000 2.020
18.68000 5.053
18.70000 8.581
18.72000 6.230
18.74000 2.560
18.76000 1.716
18.78000 1.132
18.80000 5.657
18.82000 8.763
18.84000 10.649
18.86000 1.697
18.88000 7.304
18.90000 12.545
18.92000 9.017
18.94000 13.522
18.96000 8.509
18.98000 1.148
19.00000 4.205
19.02000 10.800
19.04000 11.482
19.06000 13.833
19.08000 5.487
19.10000 7.256
19.12000 9.371
19.14000 3.592
19.16000 -4.264
19.18000 0.307
19.20000 5.312
19.22000 7.348
19.24000 11.112
19.26000 12.530
19.28000 9.884
19.30000 8.321
19.32000 2.651
19.34000 3.124
19.36000 5.575
19.38000 8.832
19.40000 8.139
19.42000 5.432
19.44000 15.427
19.46000 8.961
19.48000 9.733
19.50000 6.913
19.52000 9.872
19.54000 4.803
19.56000 2.634
19.58000 7.918
19.60000 12.453
19.62000 3.732
19.64000 3.228
19.66000 10.426
19.68000 15.523
19.70000 11.689
19.72000 4.396
19.74000 6.270
19.76000 3.261
19.78000 8.724
19.80000 4.932
19.82000 5.026
19.84000 7.651
19.86000 9.871
19.88000 1.919
19.90000 0.543
19.92000 1.289
19.94000 -1.363
19.96000 -0.111
19.98000 1.420
20.00000 1.129
20.02000 3.914
20.04000 11.137
20.06000 7.357
20.08000 2.426
20.10000 4.596
20.12000 12.178
20.14000 13.927
20.16000 11.142
20.18000 9.229
20.20000 4.396
20.22000 4.199
20.24000 3.397
20.26000 6.467
20.28000 5.070
20.30000 0.145
20.32000 0.150
20.34000 7.873
20.36000 2.131
20.38000 -0.092
20.40000 6.004
20.42000 2.428
20.44000 0.840
20.46000 6.644
20.48000 10.969
20.50000 8.459
20.52000 3.575
20.54000 3.187
20.56000 5.949
20.58000 3.644
20.60000 1.340
20.62000 -3.071
20.64000 -1.498
20.66000 2.409
20.68000 -0.651
20.70000 1.385
20.72000 1.769
20.74000 -2.152
20.76000 1.555
20.78000 8.274
20.80000 5.947
20.82000 -2.190
20.84000 1.961
20.86000 6.755
20.88000 2.589
20.90000 -1.020
20.92000 8.010
20.94000 12.048
20.96000 5.727
20.98000 1.825
21.00000 1.383
21.02000 2.572
21.04000 8.138
21.06000 4.399
21.08000 1.833
21.10000 5.032
21.12000 2.056
21.14000 -1.690
21.16000 2.623
21.18000 0.916
21.20000 2.055
21.22000 -1.326
21.24000 -2.310
21.26000 -0.126
21.28000 -0.726
21.30000 0.885
21.32000 2.749
21.34000 1.527
21.36000 -3.202
21.38000 -0.501
21.40000 3.591
21.42000 2.834
21.44000 0.312
21.46000 -3.120
21.48000 3.080
21.50000 2.198
21.52000 6.082
21.54000 7.051
21.56000 8.482
21.58000 7.633
21.60000 5.187
21.62000 5.522
21.64000 10.261
21.66000 7.484
21.68000 0.498
21.70000 -4.171
21.72000 -1.416
21.74000 3.646
21.76000 5.903
21.78000 1.840
21.80000 7.602
21.82000 13.933
21.84000 13.476
21.86000 5.386
21.88000 3.973
21.90000 3.028
21.92000 3.254
21.94000 4.103
21.96000 3.888
21.98000 14.216
22.00000 15.827
22.02000 3.791
22.04000 0.594
22.06000 6.607
22.08000 10.192
22.10000 5.990
22.12000 10.083
22.14000 3.139
22.16000 1.764
22.18000 -0.211
22.20000 -0.511
22.22000 0.526
22.24000 3.521
22.26000 -4.145
22.28000 -2.745
22.30000 3.815
22.32000 2.650
22.34000 3.002
22.36000 3.146
22.38000 5.779
22.40000 7.237
22.42000 2.882
22.44000 2.606
22.46000 -1.352
22.48000 1.711
22.50000 2.428
22.52000 4.598
22.54000 -0.046
22.56000 -0.223
22.58000 2.203
22.60000 3.495
22.62000 0.676
22.64000 0.353
22.66000 6.272
22.68000 7.756
22.70000 2.011
22.72000 3.919
22.74000 2.136
22.76000 9.689
22.78000 7.287
22.80000 8.419
22.82000 7.427
22.84000 3.885
22.86000 4.285
22.88000 -0.764
22.90000 -1.037
22.92000 0.486
22.94000 -0.288
22.96000 9.371
22.98000 13.237
23.00000 7.156
23.02000 -1.335
23.04000 -3.119
23.06000 0.043
23.08000 4.557
23.10000 0.398
23.12000 -2.921
23.14000 3.385
23.16000 4.931
23.18000 3.345
23.20000 7.110
23.22000 6.772
23.24000 4.531
23.26000 -2.143
23.28000 2.660
23.30000 -2.979
23.32000 -2.737
23.34000 0.531
23.36000 -0.043
23.38000 -0.838
23.40000 0.866
23.42000 3.870
23.44000 5.600
23.46000 2.943
23.48000 2.495
23.50000 0.528
23.52000 -0.591
23.54000 -2.678
23.56000 -1.029
23.58000 2.712
23.60000 -0.336
23.62000 -0.056
23.64000 -2.632
23.66000 -4.084
23.68000 -2.659
23.70000 4.746
23.72000 6.539
23.74000 4.156
23.76000 4.825
23.78000 0.954
23.80000 3.850
23.82000 4.123
23.84000 2.523
23.86000 0.378
23.88000 0.885
23.90000 -0.322
23.92000 -3.482
23.94000 2.598
23.96000 3.151
23.98000 2.142
24.00000 4.178
24.02000 -1.424
24.04000 2.470
24.06000 -0.216
24.08000 2.975
24.10000 7.546
24.12000 -1.247
24.14000 -1.388
24.16000 3.499
24.18000 4.278
24.20000 -0.841
24.22000 0.485
24.24000 2.237
24.26000 4.340
24.28000 -2.429
24.30000 1.755
24.32000 2.945
24.34000 3.072
24.36000 3.641
24.38000 7.083
24.40000 6.169
24.42000 6.351
24.44000 2.853
24.46000 1.935
24.48000 7.161
24.50000 9.221
24.52000 9.527
24.54000 7.533
24.56000 12.768
24.58000 8.591
24.60000 1.714
24.62000 3.146
24.64000 0.436
24.66000 2.161
24.68000 9.181
24.70000 8.315
24.72000 9.189
24.74000 6.434
24.76000 4.231
24.78000 2.421
24.80000 -3.984
24.82000 -2.900
24.84000 6.281
24.86000 11.501
24.88000 3.131
24.90000 4.194
24.92000 5.217
24.94000 4.781
24.96000 5.362
24.98000 6.940
25.00000 2.780
25.02000 2.504
25.04000 6.166
25.06000 6.807
25.08000 4.546
25.10000 6.320
25.12000 -0.072
25.14000 0.981
25.16000 3.217
25.18000 6.062
25.20000 7.709
25.22000 9.713
25.24000 5.244
25.26000 5.885
25.28000 5.767
25.30000 8.251
25.32000 8.818
25.34000 5.678
25.36000 4.129
25.38000 5.580
25.40000 1.081
25.42000 4.819
25.44000 7.779
25.46000 13.380
25.48000 4.404
25.50000 1.720
25.52000 3.230
25.54000 7.430
25.56000 9.789
25.58000 7.354
25.60000 6.685
25.62000 -1.729
25.64000 0.224
25.66000 3.448
25.68000 2.263
25.70000 2.532
25.72000 7.631
25.74000 4.308
25.76000 5.858
25.78000 3.429
25.80000 1.882
25.82000 3.306
25.84000 6.785
25.86000 8.860
25.88000 5.934
25.90000 2.185
25.92000 4.199
25.94000 3.706
25.96000 1.733
25.98000 0.955
26.00000 -1.002
26.02000 -2.817
26.04000 -2.443
26.06000 0.608
26.08000 8.228
26.10000 10.275
26.12000 5.367
26.14000 4.203
26.16000 8.054
26.18000 5.677
26.20000 4.162
26.22000 2.028
26.24000 7.576
26.26000 6.630
26.28000 7.119
26.30000 3.860
26.32000 5.853
26.34000 10.252
26.36000 11.654
26.38000 7.284
26.40000 11.429
26.42000 7.480
26.44000 9.568
26.46000 11.220
26.48000 2.848
26.50000 -2.034
26.52000 2.694
26.54000 7.485
26.56000 7.661
26.58000 5.694
26.60000 1.942
26.62000 7.527
26.64000 4.081
26.66000 6.800
26.68000 6.798
26.70000 7.927
26.72000 11.413
26.74000 8.357
26.76000 8.708
26.78000 8.489
26.80000 5.901
26.82000 3.415
26.84000 2.081
26.86000 6.213
26.88000 12.647
26.90000 10.271
26.92000 6.110
26.94000 0.980
26.96000 7.844
26.98000 6.966
27.00000 7.398
27.02000 14.519
27.04000 11.192
27.06000 5.429
27.08000 -3.824
27.10000 3.391
27.12000 10.803
27.14000 11.139
27.16000 13.250
27.18000 8.474
27.20000 -1.123
27.22000 -1.505
27.24000 2.423
27.26000 6.797
27.28000 5.501
27.30000 4.469
27.32000 4.949
27.34000 5.974
27.36000 5.238
27.38000 7.580
27.40000 8.597
27.42000 5.768
27.44000 9.657
27.46000 10.510
27.48000 6.001
27.50000 6.556
27.52000 8.823
27.54000 8.421
27.56000 9.121
27.58000 9.419
27.60000 9.180
27.62000 7.691
27.64000 7.484
27.66000 4.454
27.68000 10.651
27.70000 14.704
27.72000 8.606
27.74000 3.598
27.76000 0.620
27.78000 6.576
27.80000 4.098
27.82000 12.758
27.84000 11.400
27.86000 4.811
27.88000 3.661
27.90000 5.611
27.92000 4.807
27.94000 6.726
27.96000 6.941
27.98000 4.523
28.00000 7.845
28.02000 6.093
28.04000 1.820
28.06000 5.753
28.08000 3.651
28.10000 3.118
28.12000 5.973
28.14000 0.523
28.16000 2.724
28.18000 5.182
28.20000 5.221
28.22000 6.487
28.24000 3.417
28.26000 4.152
28.28000 3.773
28.30000 5.967
28.32000 6.855
28.34000 3.064
28.36000 6.496
28.38000 6.402
28.40000 1.118
28.42000 -0.211
28.44000 0.697
28.46000 7.689
28.48000 7.053
28.50000 0.416
28.52000 2.647
28.54000 4.799
28.56000 3.278
28.58000 3.097
28.60000 2.350
28.62000 4.368
28.64000 1.892
28.66000 -3.804
28.68000 0.998
28.70000 4.606
28.72000 2.416
28.74000 2.619
28.76000 2.577
28.78000 0.388
28.80000 -3.566
28.82000 0.672
28.84000 2.067
28.86000 5.022
28.88000 -2.297
28.90000 0.474
28.92000 3.394
28.94000 0.787
28.96000 2.724
28.98000 5.578
29.00000 3.976
29.02000 5.412
29.04000 0.776
29.06000 0.650
29.08000 4.532
29.10000 6.983
29.12000 3.372
29.14000 4.355
29.16000 2.762
29.18000 0.445
29.20000 -3.040
29.22000 -2.228
29.24000 -2.236
29.26000 -0.354
29.28000 -3.777
29.30000 1.114
29.32000 0.339
29.34000 -2.998
29.36000 1.661
29.38000 4.667
29.40000 6.417
29.42000 2.501
29.44000 0.142
29.46000 0.229
29.48000 6.307
29.50000 6.825
29.52000 9.510
29.54000 7.271
29.56000 1.935
29.58000 3.090
29.60000 0.761
29.62000 -2.841
29.64000 1.784
29.66000 4.079
29.68000 3.238
29.70000 1.652
29.72000 -2.185
29.74000 -1.230
29.76000 4.226
29.78000 1.967
29.80000 2.468
29.82000 1.001
29.84000 3.257
29.86000 1.907
29.88000 3.047
29.90000 -0.459
29.92000 2.026
29.94000 7.980
29.96000 8.508
29.98000 3.458
30.00000 2.185
30.02000 4.927
30.04000 4.042
30.06000 3.305
30.08000 -1.667
30.10000 -3.726
30.12000 1.916
30.14000 6.791
30.16000 4.743
30.18000 2.505
30.20000 7.393
30.22000 4.725
30.24000 5.006
30.26000 1.863
30.28000 7.360
30.30000 9.898
30.32000 11.078
30.34000 5.862
30.36000 5.592
30.38000 6.647
30.40000 5.771
30.42000 4.648
30.44000 2.167
30.46000 6.467
30.48000 7.778
30.50000 3.213
30.52000 7.109
30.54000 6.950
30.56000 6.297
30.58000 7.780
30.60000 4.416
30.62000 0.806
30.64000 4.195
30.66000 3.539
30.68000 6.462
30.70000 -0.958
30.72000 -3.688
30.74000 -1.229
30.76000 1.915
30.78000 3.270
30.80000 2.511
30.82000 4.776
30.84000 10.610
30.86000 9.039
30.88000 3.276
30.90000 1.948
30.92000 -0.061
30.94000 -1.111
30.96000 0.919
30.98000 4.571
31.00000 3.704
31.02000 2.403
31.04000 6.810
31.06000 8.518
31.08000 6.958
31.10000 -0.199
31.12000 -1.344
31.14000 -2.364
31.16000 2.961
31.18000 4.179
31.20000 4.362
31.22000 -1.015
31.24000 -1.986
31.26000 -1.853
31.28000 -0.057
31.30000 0.657
31.32000 -0.415
31.34000 -1.653
31.36000 0.794
31.38000 1.724
31.40000 1.839
31.42000 1.717
31.44000 5.154
31.46000 6.172
31.48000 -3.690
31.50000 -3.645
31.52000 -0.142
31.54000 -1.312
31.56000 -1.945
31.58000 -3.024
31.60000 -1.949
31.62000 0.782
31.64000 -1.394
31.66000 2.606
31.68000 -0.404
31.70000 1.349
31.72000 0.811
31.74000 -1.945
31.76000 1.156
31.78000 3.605
31.80000 5.596
31.82000 3.211
31.84000 2.266
31.86000 3.889
31.88000 1.742
31.90000 -0.342
31.92000 -0.652
31.94000 0.381
31.96000 2.882
31.98000 2.227
32.00000 1.701
32.02000 4.837
32.04000 6.990
32.06000 4.454
32.08000 7.100
32.10000 0.035
32.12000 -0.665
32.14000 1.349
32.16000 4.791
32.18000 -1.445
32.20000 -2.451
32.22000 3.496
32.24000 1.210
32.26000 4.152
32.28000 -1.590
32.30000 -0.558
32.32000 -1.499
32.34000 2.311
32.36000 1.217
32.38000 2.838
32.40000 0.724
32.42000 -1.549
32.44000 0.427
32.46000 -1.968
32.48000 -3.064
32.50000 2.315
32.52000 1.271
32.54000 -3.323
32.56000 -0.618
32.58000 -3.060
32.60000 -3.658
32.62000 -1.722
32.64000 2.571
32.66000 4.338
32.68000 6.861
32.70000 7.549
32.72000 1.157
32.74000 -3.650
32.76000 -1.083
32.78000 0.378
32.80000 -0.712
32.82000 2.094
32.84000 -2.194
32.86000 1.341
32.88000 -0.673
32.90000 0.550
32.92000 -1.857
32.94000 -0.812
32.96000 2.227
32.98000 1.127
33.00000 -1.524
33.02000 -3.438
33.04000 1.456
33.06000 2.142
33.08000 3.516
33.10000 -1.708
33.12000 -0.437
33.14000 0.212
33.16000 1.795
33.18000 -0.032
33.20000 3.265
33.22000 4.001
33.24000 8.089
33.26000 4.621
33.28000 -3.384
33.30000 2.703
33.32000 7.932
33.34000 4.695
33.36000 -2.169
33.38000 -3.564
33.40000 2.095
33.42000 3.326
33.44000 1.644
33.46000 0.481
33.48000 -0.309
33.50000 3.932
33.52000 7.185
33.54000 10.656
33.56000 12.007
33.58000 3.893
33.60000 4.646
33.62000 2.988
33.64000 -2.068
33.66000 -3.632
33.68000 1.026
33.70000 0.221
33.72000 1.163
33.74000 0.774
33.76000 0.761
33.78000 1.451
33.80000 -2.511
33.82000 4.078
33.84000 6.259
33.86000 3.123
33.88000 5.181
33.90000 5.479
33.92000 4.604
33.94000 6.455
33.96000 -0.821
33.98000 -3.629
34.00000 2.932
34.02000 5.436
34.04000 5.446
34.06000 2.388
34.08000 4.956
34.10000 2.640
34.12000 5.897
34.14000 10.109
34.16000 5.765
34.18000 5.664
34.20000 1.247
34.22000 2.922
34.24000 5.337
34.26000 3.194
34.28000 -1.513
34.30000 -2.082
34.32000 0.773
34.34000 2.349
34.36000 5.008
34.38000 5.507
34.40000 4.627
34.42000 2.154
34.44000 1.825
34.46000 6.506
34.48000 7.823
34.50000 4.095
34.52000 4.043
34.54000 7.139
34.56000 8.101
34.58000 3.978
34.60000 2.177
34.62000 1.865
34.64000 3.953
34.66000 0.315
34.68000 0.619
34.70000 -3.258
34.72000 0.882
34.74000 1.956
34.76000 -0.931
34.78000 -0.727
34.80000 1.966
34.82000 1.556
34.84000 -2.341
34.86000 -3.600
34.88000 -2.583
34.90000 0.406
34.92000 0.676
34.94000 7.412
34.96000 6.039
34.98000 -2.433
35.00000 -2.773
35.02000 -0.133
35.04000 6.799
35.06000 7.797
35.08000 3.721
35.10000 -1.105
35.12000 3.638
35.14000 3.245
35.16000 4.482
35.18000 3.468
35.20000 2.038
35.22000 2.796
35.24000 -0.969
35.26000 -1.526
35.28000 -3.607
35.30000 -1.316
35.32000 3.526
35.34000 -0.566
35.36000 1.204
35.38000 2.862
35.40000 4.658
35.42000 1.506
35.44000 0.567
35.46000 -0.604
35.48000 -0.973
35.50000 3.794
35.52000 -0.001
35.54000 -0.759
35.56000 0.656
35.58000 0.117
35.60000 -1.430
35.62000 0.956
35.64000 1.030
35.66000 -0.776
35.68000 0.369
35.70000 0.082
35.72000 2.480
35.74000 4.210
35.76000 1.758
35.78000 -1.072
35.80000 -1.231
35.82000 -1.881
35.84000 -3.613
35.86000 3.339
35.88000 3.189
35.90000 0.206
35.92000 2.263
35.94000 2.256
35.96000 -2.255
35.98000 5.139
36.00000 5.676
36.02000 0.530
36.04000 0.916
36.06000 4.770
36.08000 2.781
36.10000 -0.940
36.12000 1.169
36.14000 3.769
36.16000 1.533
36.18000 -0.404
36.20000 2.333
36.22000 4.189
36.24000 0.690
36.26000 1.268
36.28000 0.650
36.30000 2.047
36.32000 2.686
36.34000 0.366
36.36000 -3.166
36.38000 -0.695
36.40000 0.764
36.42000 4.133
36.44000 0.788
36.46000 -2.086
36.48000 -3.631
36.50000 0.328
36.52000 4.126
36.54000 6.213
36.56000 3.074
36.58000 0.278
36.60000 1.139
36.62000 7.348
36.64000 3.978
36.66000 4.659
36.68000 1.588
36.70000 0.381
36.72000 0.475
36.74000 1.352
36.76000 -1.918
36.78000 -0.400
36.80000 2.801
36.82000 -0.061
36.84000 0.508
36.86000 2.338
36.88000 4.101
36.90000 4.237
36.92000 5.585
36.94000 -2.708
36.96000 -2.068
36.98000 -2.318
37.00000 -1.235
37.02000 -1.208
37.04000 4.635
37.06000 6.437
37.08000 0.538
37.10000 -3.704
37.12000 -1.376
37.14000 -1.347
37.16000 -0.280
37.18000 -1.372
37.20000 -0.249
37.22000 -2.522
37.24000 1.891
37.26000 2.048
37.28000 -1.747
37.30000 -0.165
37.32000 0.897
37.34000 0.102
37.36000 1.120
37.38000 3.220
37.40000 1.709
37.42000 1.873
37.44000 1.633
37.46000 4.067
37.48000 0.613
37.50000 -2.227
37.52000 -0.719
37.54000 6.735
37.56000 6.941
37.58000 4.886
37.60000 7.848
37.62000 9.096
37.64000 15.546
37.66000 13.052
37.68000 7.949
37.70000 8.779
37.72000 13.071
37.74000 14.578
37.76000 7.367
37.78000 8.686
37.80000 11.483
37.82000 6.838
37.84000 8.385
37.86000 10.218
37.88000 9.781
37.90000 11.384
37.92000 14.277
37.94000 15.992
37.96000 14.186
37.98000 15.359
38.00000 18.086
38.02000 14.470
38.04000 16.201
38.06000 20.923
38.08000 18.605
38.10000 22.822
38.12000 20.710
38.14000 16.103
38.16000 18.661
38.18000 16.186
38.20000 18.650
38.22000 14.207
38.24000 20.939
38.26000 26.188
38.28000 25.240
38.30000 23.945
38.32000 24.784
38.34000 25.584
38.36000 28.509
38.38000 25.059
38.40000 30.055
38.42000 29.272
38.44000 26.912
38.46000 32.723
38.48000 32.411
38.50000 34.216
38.52000 33.670
38.54000 36.897
38.56000 39.093
38.58000 45.614
38.60000 40.522
38.62000 44.407
38.64000 43.433
38.66000 51.204
38.68000 49.309
38.70000 44.833
38.72000 48.066
38.74000 49.693
38.76000 52.598
38.78000 55.847
38.80000 62.759
38.82000 63.784
38.84000 64.067
38.86000 65.238
38.88000 70.884
38.90000 71.672
38.92000 80.989
38.94000 85.147
38.96000 86.296
38.98000 86.387
39.00000 83.075
39.02000 88.121
39.04000 98.215
39.06000 102.922
39.08000 106.062
39.10000 107.035
39.12000 113.551
39.14000 121.185
39.16000 122.328
39.18000 131.963
39.20000 140.491
39.22000 137.484
39.24000 143.548
39.26000 153.850
39.28000 161.906
39.30000 168.862
39.32000 179.458
39.34000 185.854
39.36000 191.024
39.38000 197.742
39.40000 213.113
39.42000 226.696
39.44000 232.575
39.46000 235.327
39.48000 249.449
39.50000 261.796
39.52000 272.628
39.54000 285.297
39.56000 300.682
39.58000 315.508
39.60000 336.354
39.62000 348.392
39.64000 360.024
39.66000 372.477
39.68000 390.991
39.70000 420.051
39.72000 441.464
39.74000 449.173
39.76000 467.556
39.78000 496.502
39.80000 513.763
39.82000 534.946
39.84000 558.196
39.86000 573.144
39.88000 606.003
39.90000 617.129
39.92000 641.868
39.94000 654.732
39.96000 662.739
39.98000 680.709
40.00000 687.472
40.02000 712.303
40.04000 720.799
40.06000 720.804
40.08000 742.028
40.10000 750.554
40.12000 756.089
40.14000 754.564
40.16000 748.816
40.18000 742.448
40.20000 742.299
40.22000 741.335
40.24000 727.713
40.26000 721.097
40.28000 706.158
40.30000 696.243
40.32000 674.428
40.34000 656.647
40.36000 642.570
40.38000 632.499
40.40000 616.179
40.42000 598.196
40.44000 571.815
40.46000 559.899
40.48000 529.225
40.50000 495.305
40.52000 495.720
40.54000 469.182
40.56000 445.654
40.58000 418.364
40.60000 396.722
40.62000 384.618
40.64000 360.716
40.66000 347.092
40.68000 328.874
40.70000 307.623
40.72000 293.567
40.74000 280.014
40.76000 257.964
40.78000 245.478
40.80000 229.061
40.82000 220.919
40.84000 204.682
40.86000 199.227
40.88000 188.600
40.90000 176.101
40.92000 166.708
40.94000 153.129
40.96000 155.219
40.98000 143.126
41.00000 129.177
41.02000 122.112
41.04000 114.644
41.06000 108.744
41.08000 106.778
41.10000 99.373
41.12000 89.628
41.14000 89.995
41.16000 87.060
41.18000 77.441
41.20000 75.995
41.22000 75.088
41.24000 70.795
41.26000 70.864
41.28000 63.469
41.30000 56.867
41.32000 52.883
41.34000 45.999
41.36000 41.929
41.38000 48.351
41.40000 46.205
41.42000 41.012
41.44000 40.602
41.46000 34.849
41.48000 34.563
41.50000 27.469
41.52000 26.217
41.54000 25.469
41.56000 25.587
41.58000 23.193
41.60000 20.237
41.62000 20.514
41.64000 20.848
41.66000 20.943
41.68000 18.738
41.70000 23.397
41.72000 24.626
41.74000 18.947
41.76000 10.707
41.78000 9.503
41.80000 10.997
41.82000 13.598
41.84000 13.641
41.86000 12.638
41.88000 13.684
41.90000 13.529
41.92000 12.032
41.94000 10.082
41.96000 9.891
41.98000 4.846
42.00000 10.012
42.02000 10.297
42.04000 5.008
42.06000 3.098
42.08000 6.138
42.10000 6.275
42.12000 4.746
42.14000 3.537
42.16000 6.253
42.18000 3.266
42.20000 4.899
42.22000 8.098
42.24000 1.728
42.26000 0.490
42.28000 5.887
42.30000 7.741
42.32000 4.659
42.34000 -3.254
42.36000 -0.827
42.38000 -0.114
42.40000 2.815
42.42000 4.958
42.44000 2.756
42.46000 1.390
42.48000 -1.370
42.50000 1.571
42.52000 7.042
42.54000 4.704
42.56000 6.261
42.58000 4.714
42.60000 1.809
42.62000 -0.111
42.64000 0.853
42.66000 1.674
42.68000 4.526
42.70000 4.871
42.72000 3.347
42.74000 -0.565
42.76000 -0.589
42.78000 3.455
42.80000 0.012
42.82000 -3.619
42.84000 1.382
42.86000 3.977
42.88000 5.032
42.90000 4.085
42.92000 1.797
42.94000 4.888
42.96000 -0.090
42.98000 -3.608
43.00000 0.775
43.02000 1.245
43.04000 2.359
43.06000 4.760
43.08000 0.657
43.10000 -2.766
43.12000 -3.358
43.14000 -1.990
43.16000 3.331
43.18000 -0.811
43.20000 0.565
43.22000 -0.581
43.24000 0.465
43.26000 0.235
43.28000 -3.324
43.30000 -3.041
43.32000 0.410
43.34000 0.462
43.36000 3.354
43.38000 1.667
43.40000 1.325
43.42000 1.217
43.44000 5.610
43.46000 3.420
43.48000 0.214
43.50000 -1.468
43.52000 -3.570
43.54000 -1.958
43.56000 0.223
43.58000 1.520
43.60000 1.020
43.62000 3.600
43.64000 3.990
43.66000 6.533
43.68000 1.143
43.70000 -3.556
43.72000 -0.918
43.74000 4.415
43.76000 7.279
43.78000 0.267
43.80000 0.230
43.82000 -2.493
43.84000 -0.086
43.86000 1.623
43.88000 2.342
43.90000 2.334
43.92000 0.656
43.94000 -1.625
43.96000 2.061
43.98000 0.399
44.00000 -0.110
44.02000 1.175
44.04000 3.270
44.06000 3.379
44.08000 -0.678
44.10000 -0.238
44.12000 0.587
44.14000 -0.673
44.16000 0.090
44.18000 -1.486
44.20000 -2.332
44.22000 2.902
44.24000 1.776
44.26000 -0.020
44.28000 -2.049
44.30000 1.858
44.32000 2.649
44.34000 5.397
44.36000 4.889
44.38000 4.248
44.40000 -1.291
44.42000 -3.560
44.44000 0.886
44.46000 -2.350
44.48000 0.986
44.50000 1.113
44.52000 3.512
44.54000 5.867
44.56000 5.094
44.58000 5.376
44.60000 4.360
44.62000 5.944
44.64000 9.417
44.66000 8.769
44.68000 6.533
44.70000 5.227
44.72000 6.977
44.74000 6.710
44.76000 8.321
44.78000 13.412
44.80000 6.006
44.82000 7.621
44.84000 8.210
44.86000 4.592
44.88000 3.847
44.90000 9.323
44.92000 7.255
44.94000 2.242
44.96000 7.456
44.98000 6.160
45.00000 9.438
45.02000 13.049
45.04000 13.023
45.06000 11.963
45.08000 6.674
45.10000 5.476
45.12000 11.251
45.14000 16.583
45.16000 16.026
45.18000 13.313
45.20000 12.906
45.22000 12.754
45.24000 15.702
45.26000 16.807
45.28000 19.776
45.30000 19.157
45.32000 12.842
45.34000 13.691
45.36000 19.089
45.38000 24.327
45.40000 21.617
45.42000 17.666
45.44000 14.924
45.46000 19.335
45.48000 18.802
45.50000 22.071
45.52000 22.332
45.54000 19.272
45.56000 22.541
45.58000 22.375
45.60000 28.309
45.62000 28.565
45.64000 27.493
45.66000 32.286
45.68000 32.105
45.70000 30.153
45.72000 33.077
45.74000 28.411
45.76000 31.014
45.78000 32.440
45.80000 37.296
45.82000 42.265
45.84000 40.467
45.86000 36.981
45.88000 37.631
45.90000 39.421
45.92000 37.692
45.94000 39.437
45.96000 41.810
45.98000 43.666
46.00000 42.726
46.02000 51.072
46.04000 54.785
46.06000 49.467
46.08000 53.196
46.10000 54.746
46.12000 52.674
46.14000 58.436
46.16000 56.584
46.18000 63.224
46.20000 59.653
46.22000 64.236
46.24000 62.634
46.26000 64.741
46.28000 60.338
46.30000 57.582
46.32000 63.661
46.34000 62.406
46.36000 64.717
46.38000 71.988
46.40000 76.179
46.42000 74.091
46.44000 75.538
46.46000 75.652
46.48000 73.079
46.50000 73.402
46.52000 77.360
46.54000 83.900
46.56000 84.357
46.58000 77.938
46.60000 74.637
46.62000 74.506
46.64000 79.284
46.66000 83.502
46.68000 80.787
46.70000 82.500
46.72000 76.184
46.74000 79.497
46.76000 82.807
46.78000 84.334
46.80000 82.449
46.82000 84.508
46.84000 80.311
46.86000 69.668
46.88000 78.329
46.90000 74.548
46.92000 69.563
46.94000 71.255
46.96000 68.685
46.98000 68.644
47.00000 73.662
47.02000 72.852
47.04000 77.203
47.06000 68.867
47.08000 65.007
47.10000 67.341
47.12000 64.577
47.14000 66.388
47.16000 65.941
47.18000 58.403
47.20000 58.078
47.22000 54.820
47.24000 51.364
47.26000 48.043
47.28000 45.472
47.30000 45.457
47.32000 46.138
47.34000 42.883
47.36000 39.659
47.38000 40.109
47.40000 41.340
47.42000 46.020
47.44000 44.263
47.46000 35.561
47.48000 37.795
47.50000 38.275
47.52000 38.966
47.54000 36.431
47.56000 31.364
47.58000 30.786
47.60000 30.683
47.62000 29.152
47.64000 28.117
47.66000 25.601
47.68000 26.951
47.70000 30.077
47.72000 29.638
47.74000 22.328
47.76000 24.394
47.78000 23.000
47.80000 24.197
47.82000 20.785
47.84000 19.233
47.86000 21.910
47.88000 17.911
47.90000 13.652
47.92000 12.921
47.94000 18.363
47.96000 22.616
47.98000 15.061
48.00000 14.966
48.02000 13.103
48.04000 6.349
48.06000 4.683
48.08000 5.630
48.10000 3.310
48.12000 1.698
48.14000 6.290
48.16000 7.222
48.18000 3.131
48.20000 1.323
48.22000 -1.094
48.24000 4.645
48.26000 4.211
48.28000 8.163
48.30000 8.984
48.32000 7.121
48.34000 8.191
48.36000 1.860
48.38000 2.006
48.40000 7.286
48.42000 5.448
48.44000 -0.448
48.46000 -0.833
48.48000 2.346
48.50000 1.527
48.52000 -0.589
48.54000 1.146
48.56000 -2.244
48.58000 7.733
48.60000 9.081
48.62000 4.028
48.64000 3.087
48.66000 3.247
48.68000 1.623
48.70000 1.660
48.72000 -1.516
48.74000 2.023
48.76000 7.676
48.78000 9.488
48.80000 5.937
48.82000 6.186
48.84000 -3.224
48.86000 3.932
48.88000 2.463
48.90000 1.440
48.92000 3.860
48.94000 -0.217
48.96000 2.082
48.98000 2.585
49.00000 2.612
49.02000 0.938
49.04000 0.303
49.06000 3.934
49.08000 5.316
49.10000 0.737
49.12000 -1.301
49.14000 -0.926
49.16000 3.694
49.18000 4.671
49.20000 3.423
49.22000 3.193
49.24000 0.073
49.26000 0.020
49.28000 6.793
49.30000 1.732
49.32000 5.646
49.34000 5.032
49.36000 -0.768
49.38000 -1.001
49.40000 3.396
49.42000 4.677
49.44000 4.765
49.46000 9.837
49.48000 6.916
49.50000 2.082
49.52000 5.073
49.54000 4.854
49.56000 9.421
49.58000 3.662
49.60000 -3.124
49.62000 3.203
49.64000 1.997
49.66000 4.476
49.68000 8.979
49.70000 6.649
49.72000 3.367
49.74000 2.803
49.76000 1.846
49.78000 4.154
49.80000 6.141
49.82000 5.185
49.84000 6.024
49.86000 4.004
49.88000 -2.712
49.90000 -3.095
49.92000 5.688
49.94000 9.246
49.96000 8.765
49.98000 8.645
50.00000 9.405
50.02000 9.042
50.04000 5.719
50.06000 4.065
50.08000 3.908
50.10000 5.122
50.12000 1.442
50.14000 -0.067
50.16000 2.949
50.18000 4.843
50.20000 3.961
50.22000 4.086
50.24000 5.075
50.26000 7.903
50.28000 5.449
50.30000 2.953
50.32000 -2.175
50.34000 1.593
50.36000 3.854
50.38000 3.338
50.40000 3.073
50.42000 4.740
50.44000 4.251
50.46000 -3.071
50.48000 2.381
50.50000 6.360
50.52000 7.570
50.54000 11.427
50.56000 8.296
50.58000 6.698
50.60000 7.010
50.62000 1.859
50.64000 -1.929
50.66000 1.914
50.68000 1.508
50.70000 3.641
50.72000 9.628
50.74000 6.236
50.76000 6.120
50.78000 3.744
50.80000 -0.432
50.82000 5.957
50.84000 6.526
50.86000 3.964
50.88000 2.619
50.90000 7.060
50.92000 8.963
50.94000 0.114
50.96000 3.146
50.98000 2.344
51.00000 -2.426
51.02000 3.401
51.04000 2.976
51.06000 6.417
51.08000 5.836
51.10000 3.099
51.12000 9.016
51.14000 10.008
51.16000 6.690
51.18000 4.651
51.20000 8.718
51.22000 6.869
51.24000 3.377
51.26000 2.685
51.28000 1.421
51.30000 -3.024
51.32000 2.533
51.34000 -0.562
51.36000 3.398
51.38000 4.718
51.40000 6.180
51.42000 2.317
51.44000 2.104
51.46000 6.975
51.48000 3.172
51.50000 6.515
51.52000 2.702
51.54000 -0.441
51.56000 1.606
51.58000 7.050
51.60000 5.983
51.62000 1.682
51.64000 5.987
51.66000 4.055
51.68000 5.770
51.70000 2.780
51.72000 3.268
51.74000 4.999
51.76000 4.207
51.78000 1.365
51.80000 0.393
51.82000 1.233
51.84000 10.304
51.86000 8.215
51.88000 3.722
51.90000 -0.999
51.92000 0.882
51.94000 5.799
51.96000 4.055
51.98000 2.747
52.00000 1.655
52.02000 3.564
52.04000 3.494
52.06000 6.213
52.08000 5.218
52.10000 8.945
52.12000 5.634
52.14000 0.383
52.16000 1.125
52.18000 1.582
52.20000 0.115
52.22000 -3.002
52.24000 0.234
52.26000 1.730
52.28000 0.185
52.30000 -0.143
52.32000 -2.122
52.34000 1.892
52.36000 4.647
52.38000 9.438
52.40000 3.836
52.42000 -0.514
52.44000 0.317
52.46000 0.159
52.48000 5.934
52.50000 8.272
52.52000 3.869
52.54000 4.335
52.56000 2.922
52.58000 -1.929
52.60000 0.233
52.62000 3.275
52.64000 2.197
52.66000 3.015
52.68000 1.983
52.70000 6.043
52.72000 4.408
52.74000 6.139
52.76000 0.434
52.78000 3.486
52.80000 7.241
52.82000 2.759
52.84000 -0.406
52.86000 -0.537
52.88000 -0.249
52.90000 3.138
52.92000 2.376
52.94000 3.244
52.96000 5.910
52.98000 5.641
53.00000 5.819
53.02000 3.061
53.04000 2.556
53.06000 5.163
53.08000 1.288
53.10000 -1.297
53.12000 3.618
53.14000 7.622
53.16000 3.463
53.18000 -0.934
53.20000 -2.460
53.22000 3.799
53.24000 9.360
53.26000 9.217
53.28000 4.579
53.30000 0.749
53.32000 -2.928
53.34000 3.130
53.36000 6.284
53.38000 1.417
53.40000 1.213
53.42000 1.258
53.44000 4.360
53.46000 2.703
53.48000 -2.968
53.50000 -0.791
53.52000 2.482
53.54000 5.197
53.56000 7.405
53.58000 3.729
53.60000 -0.954
53.62000 6.526
53.64000 8.596
53.66000 -0.050
53.68000 1.859
53.70000 4.045
53.72000 1.168
53.74000 -2.552
53.76000 1.412
53.78000 8.782
53.80000 6.496
53.82000 5.451
53.84000 -0.900
53.86000 -0.525
53.88000 5.214
53.90000 5.695
53.92000 2.534
53.94000 -2.356
53.96000 1.609
53.98000 3.324
54.00000 5.210
54.02000 2.830
54.04000 2.140
54.06000 4.170
54.08000 6.606
54.10000 6.079
54.12000 5.020
54.14000 5.717
54.16000 6.348
54.18000 5.505
54.20000 1.219
54.22000 1.901
54.24000 1.528
54.26000 8.778
54.28000 6.850
54.30000 4.904
54.32000 2.104
54.34000 1.420
54.36000 0.940
54.38000 0.264
54.40000 1.807
54.42000 3.969
54.44000 9.824
54.46000 9.834
54.48000 1.979
54.50000 3.184
54.52000 1.513
54.54000 6.717
54.56000 2.512
54.58000 3.447
54.60000 2.766
54.62000 4.024
54.64000 0.344
54.66000 -0.025
54.68000 2.262
54.70000 3.106
54.72000 2.814
54.74000 5.217
54.76000 10.415
54.78000 13.172
54.80000 5.001
54.82000 2.945
54.84000 8.426
54.86000 2.463
54.88000 1.848
54.90000 2.109
54.92000 2.315
54.94000 -2.898
54.96000 4.223
54.98000 8.687
55.00000 4.529
55.02000 3.313
55.04000 1.276
55.06000 0.530
55.08000 -0.515
55.10000 0.844
55.12000 3.570
55.14000 6.788
55.16000 7.291
55.18000 5.068
55.20000 5.635
55.22000 4.436
55.24000 6.193
55.26000 3.647
55.28000 1.094
55.30000 2.833
55.32000 8.642
55.34000 6.401
55.36000 3.555
55.38000 7.660
55.40000 6.540
55.42000 4.452
55.44000 1.588
55.46000 7.774
55.48000 8.406
55.50000 5.572
55.52000 3.875
55.54000 6.765
55.56000 6.182
55.58000 8.109
55.60000 8.297
55.62000 7.129
55.64000 9.221
55.66000 1.058
55.68000 4.347
55.70000 7.461
55.72000 8.198
55.74000 3.930
55.76000 0.736
55.78000 5.075
55.80000 6.641
55.82000 10.096
55.84000 4.434
55.86000 5.086
55.88000 7.170
55.90000 7.802
55.92000 4.574
55.94000 6.902
55.96000 5.167
55.98000 3.742
56.00000 -2.875
56.02000 0.710
56.04000 5.054
56.06000 6.695
56.08000 6.724
56.10000 4.121
56.12000 3.487
56.14000 3.367
56.16000 2.152
56.18000 3.352
56.20000 0.585
56.22000 -0.931
56.24000 1.760
56.26000 0.587
56.28000 7.020
56.30000 3.887
56.32000 5.295
56.34000 2.875
56.36000 4.585
56.38000 7.158
56.40000 4.382
56.42000 7.910
56.44000 3.645
56.46000 4.222
56.48000 6.156
56.50000 -0.014
56.52000 5.490
56.54000 6.490
56.56000 7.618
56.58000 8.933
56.60000 2.796
56.62000 3.263
56.64000 8.493
56.66000 10.642
56.68000 9.121
56.70000 5.920
56.72000 8.655
56.74000 8.159
56.76000 10.084
56.78000 5.441
56.80000 -2.835
56.82000 0.469
56.84000 2.757
56.86000 5.253
56.88000 4.116
56.90000 6.565
56.92000 5.625
56.94000 5.694
56.96000 6.967
56.98000 7.547
57.00000 4.888
57.02000 3.225
57.04000 4.016
57.06000 -0.044
57.08000 1.152
57.10000 -0.889
57.12000 5.023
57.14000 4.749
57.16000 -0.964
57.18000 7.719
57.20000 11.446
57.22000 8.840
57.24000 5.995
57.26000 7.182
57.28000 5.274
57.30000 6.526
57.32000 3.009
57.34000 9.660
57.36000 11.181
57.38000 6.245
57.40000 4.853
57.42000 6.133
57.44000 2.490
57.46000 1.818
57.48000 8.889
57.50000 7.081
57.52000 3.560
57.54000 4.807
57.56000 4.760
57.58000 4.660
57.60000 7.825
57.62000 8.117
57.64000 3.294
57.66000 -1.504
57.68000 -2.803
57.70000 7.245
57.72000 9.996
57.74000 6.696
57.76000 5.470
57.78000 4.237
57.80000 4.994
57.82000 6.547
57.84000 6.927
57.86000 5.297
57.88000 5.095
57.90000 7.545
57.92000 5.754
57.94000 6.679
57.96000 9.111
57.98000 5.407
58.00000 6.106
58.02000 2.242
58.04000 8.944
58.06000 7.447
58.08000 4.075
58.10000 4.397
58.12000 3.931
58.14000 6.987
58.16000 5.455
58.18000 3.328
58.20000 4.824
58.22000 3.300
58.24000 -1.032
58.26000 -2.809
58.28000 2.109
58.30000 5.098
58.32000 2.326
58.34000 1.440
58.36000 1.048
58.38000 -2.683
58.40000 -0.167
58.42000 2.343
58.44000 -0.496
58.46000 3.525
58.48000 1.340
58.50000 2.338
58.52000 3.864
58.54000 2.344
58.56000 4.348
58.58000 -0.657
58.60000 -0.916
58.62000 -0.606
58.64000 6.905
58.66000 6.445
58.68000 4.778
58.70000 6.814
58.72000 4.756
58.74000 0.194
58.76000 -0.963
58.78000 4.575
58.80000 4.495
58.82000 5.751
58.84000 5.194
58.86000 3.806
58.88000 -0.439
58.90000 -0.186
58.92000 0.449
58.94000 7.154
58.96000 2.962
58.98000 1.725
59.00000 5.500
59.02000 1.614
59.04000 -1.448
59.06000 0.194
59.08000 0.565
59.10000 1.481
59.12000 3.986
59.14000 2.427
59.16000 0.013
59.18000 2.876
59.20000 1.524
59.22000 2.878
59.24000 0.274
59.26000 4.128
59.28000 6.075
59.30000 6.330
59.32000 1.242
59.34000 0.144
59.36000 -1.920
59.38000 3.334
59.40000 3.493
59.42000 0.556
59.44000 -0.983
59.46000 0.076
59.48000 1.892
59.50000 1.793
59.52000 1.636
59.54000 -2.431
59.56000 3.317
59.58000 3.822
59.60000 3.164
59.62000 2.756
59.64000 4.046
59.66000 2.379
59.68000 2.967
59.70000 5.776
59.72000 4.425
59.74000 0.532
59.76000 -1.669
59.78000 1.199
59.80000 -1.228
59.82000 -2.148
59.84000 -1.866
59.86000 -0.240
59.88000 -2.781
59.90000 -0.755
59.92000 0.590
59.94000 -1.703
59.96000 -2.778
59.98000 4.748
60.00000 5.658
60.02000 7.200
60.04000 4.220
60.06000 2.779
60.08000 1.219
60.10000 0.552
60.12000 7.336
60.14000 4.176
60.16000 -0.396
60.18000 1.657
60.20000 5.329
60.22000 4.414
60.24000 1.249
60.26000 -1.483
60.28000 -1.063
60.30000 0.379
60.32000 0.482
60.34000 3.355
60.36000 5.476
60.38000 2.361
60.40000 0.145
60.42000 0.840
60.44000 -0.971
60.46000 4.071
60.48000 1.701
60.50000 -0.133
60.52000 -2.746
60.54000 -1.885
60.56000 -0.573
60.58000 3.341
60.60000 6.550
60.62000 9.238
60.64000 7.895
60.66000 7.643
60.68000 3.073
60.70000 3.052
60.72000 3.889
60.74000 1.753
60.76000 1.562
60.78000 7.627
60.80000 2.576
60.82000 -0.376
60.84000 4.550
60.86000 7.469
60.88000 6.651
60.90000 4.658
60.92000 6.077
60.94000 2.779
60.96000 1.922
60.98000 -0.886
61.00000 -0.973
61.02000 0.328
61.04000 3.147
61.06000 2.430
61.08000 4.351
61.10000 4.180
61.12000 1.170
61.14000 -1.162
61.16000 0.501
61.18000 3.938
61.20000 6.650
61.22000 10.983
61.24000 10.191
61.26000 4.898
61.28000 2.252
61.30000 3.865
61.32000 0.570
61.34000 -2.686
61.36000 2.845
61.38000 6.157
61.40000 4.101
61.42000 3.463
61.44000 -1.336
61.46000 0.616
61.48000 4.712
61.50000 7.070
61.52000 4.905
61.54000 9.881
61.56000 3.241
61.58000 5.486
61.60000 4.877
61.62000 0.580
61.64000 3.911
61.66000 3.620
61.68000 2.882
61.70000 -0.247
61.72000 1.167
61.74000 -0.554
61.76000 4.250
61.78000 1.764
61.80000 4.217
61.82000 1.769
61.84000 -0.543
61.86000 1.901
61.88000 4.606
61.90000 0.172
61.92000 0.166
61.94000 -1.544
61.96000 3.671
61.98000 4.812
62.00000 3.081
62.02000 5.998
62.04000 8.518
62.06000 2.932
62.08000 -0.243
62.10000 1.452
62.12000 6.043
62.14000 5.131
62.16000 6.185
62.18000 3.867
62.20000 3.624
62.22000 1.221
62.24000 -1.794
62.26000 2.306
62.28000 2.141
62.30000 -0.162
62.32000 2.801
62.34000 0.923
62.36000 1.907
62.38000 2.896
62.40000 0.960
62.42000 0.373
62.44000 2.220
62.46000 3.623
62.48000 0.659
62.50000 0.031
62.52000 -0.642
62.54000 1.175
62.56000 -2.717
62.58000 -1.557
62.60000 -1.789
62.62000 4.295
62.64000 2.759
62.66000 2.948
62.68000 3.171
62.70000 1.035
62.72000 4.773
62.74000 1.432
62.76000 1.375
62.78000 4.339
62.80000 1.083
62.82000 -0.348
62.84000 -2.055
62.86000 -1.140
62.88000 -0.638
62.90000 1.189
62.92000 2.245
62.94000 3.795
62.96000 0.456
62.98000 -0.850
63.00000 -0.562
63.02000 2.077
63.04000 0.228
63.06000 1.724
63.08000 4.859
63.10000 3.046
63.12000 4.419
63.14000 6.809
63.16000 2.265
63.18000 -1.414
63.20000 0.699
63.22000 3.589
63.24000 4.749
63.26000 2.169
63.28000 -0.977
63.30000 0.891
63.32000 -0.821
63.34000 1.535
63.36000 1.710
63.38000 0.751
63.40000 2.175
63.42000 3.265
63.44000 0.446
63.46000 -0.516
63.48000 2.918
63.50000 1.595
63.52000 2.513
63.54000 9.119
63.56000 6.269
63.58000 1.981
63.60000 -1.697
63.62000 0.739
63.64000 -2.682
63.66000 -1.515
63.68000 6.581
63.70000 1.718
63.72000 0.851
63.74000 4.866
63.76000 3.053
63.78000 3.822
63.80000 3.205
63.82000 0.189
63.84000 4.926
63.86000 2.931
63.88000 3.981
63.90000 4.745
63.92000 4.541
63.94000 -0.123
63.96000 4.632
63.98000 4.536
64.00000 4.599
64.02000 1.884
64.04000 4.231
64.06000 2.607
64.08000 4.405
64.10000 2.543
64.12000 -1.182
64.14000 1.379
64.16000 2.738
64.18000 3.316
64.20000 0.778
64.22000 1.337
64.24000 1.540
64.26000 3.288
64.28000 1.386
64.30000 6.146
64.32000 3.300
64.34000 3.898
64.36000 4.088
64.38000 0.469
64.40000 1.545
64.42000 0.802
64.44000 1.830
64.46000 2.804
64.48000 5.282
64.50000 3.775
64.52000 -2.241
64.54000 -2.718
64.56000 -0.304
64.58000 3.890
64.60000 5.219
64.62000 2.813
64.64000 3.172
64.66000 4.147
64.68000 2.205
64.70000 0.271
64.72000 4.750
64.74000 0.990
64.76000 0.405
64.78000 2.832
64.80000 0.551
64.82000 2.126
64.84000 1.998
64.86000 3.471
64.88000 3.783
64.90000 2.907
64.92000 4.692
64.94000 2.749
64.96000 -2.718
64.98000 0.178
65.00000 1.575
65.02000 4.081
65.04000 0.607
65.06000 1.084
65.08000 4.111
65.10000 2.935
65.12000 4.269
65.14000 6.093
65.16000 6.684
65.18000 9.509
65.20000 5.171
65.22000 0.521
65.24000 0.548
65.26000 3.162
65.28000 3.551
65.30000 4.899
65.32000 6.863
65.34000 6.528
65.36000 5.471
65.38000 1.415
65.40000 0.250
65.42000 -2.723
65.44000 -1.633
65.46000 1.830
65.48000 2.102
65.50000 5.861
65.52000 3.034
65.54000 1.390
65.56000 4.266
65.58000 4.046
65.60000 5.837
65.62000 3.223
65.64000 4.726
65.66000 0.830
65.68000 0.571
65.70000 0.675
65.72000 -0.590
65.74000 2.997
65.76000 5.769
65.78000 4.905
65.80000 4.242
65.82000 1.004
65.84000 -0.886
65.86000 -2.767
65.88000 5.254
65.90000 2.052
65.92000 0.996
65.94000 2.004
65.96000 3.979
65.98000 6.639
66.00000 7.227
66.02000 4.111
66.04000 -0.774
66.06000 1.480
66.08000 2.538
66.10000 1.602
66.12000 -0.740
66.14000 0.414
66.16000 1.275
66.18000 2.874
66.20000 1.164
66.22000 -2.461
66.24000 -0.627
66.26000 0.402
66.28000 -1.442
66.30000 2.059
66.32000 0.004
66.34000 -1.541
66.36000 -1.171
66.38000 -0.898
66.40000 3.338
66.42000 2.532
66.44000 3.555
66.46000 9.705
66.48000 3.621
66.50000 -1.433
66.52000 -0.309
66.54000 -2.014
66.56000 1.906
66.58000 5.482
66.60000 5.459
66.62000 4.232
66.64000 -1.472
66.66000 4.235
66.68000 5.813
66.70000 0.698
66.72000 5.287
66.74000 1.710
66.76000 0.988
66.78000 4.585
66.80000 3.162
66.82000 2.675
66.84000 4.191
66.86000 5.535
66.88000 4.464
66.90000 1.519
66.92000 2.624
66.94000 6.780
66.96000 6.648
66.98000 7.063
67.00000 7.416
67.02000 6.133
67.04000 7.774
67.06000 9.338
67.08000 7.451
67.10000 3.884
67.12000 3.478
67.14000 6.631
67.16000 7.295
67.18000 7.420
67.20000 7.664
67.22000 7.366
67.24000 9.574
67.26000 12.584
67.28000 12.148
67.30000 12.523
67.32000 11.873
67.34000 9.642
67.36000 13.193
67.38000 12.436
67.40000 12.477
67.42000 14.522
67.44000 10.977
67.46000 16.094
67.48000 16.247
67.50000 16.083
67.52000 13.922
67.54000 12.476
67.56000 12.169
67.58000 11.182
67.60000 14.633
67.62000 18.224
67.64000 15.779
67.66000 11.986
67.68000 11.211
67.70000 11.981
67.72000 14.681
67.74000 22.516
67.76000 19.091
67.78000 18.315
67.80000 20.016
67.82000 16.805
67.84000 13.495
67.86000 15.998
67.88000 16.706
67.90000 21.040
67.92000 22.492
67.94000 18.981
67.96000 17.519
67.98000 24.376
68.00000 23.114
68.02000 21.099
68.04000 22.135
68.06000 25.485
68.08000 26.186
68.10000 22.490
68.12000 21.482
68.14000 26.370
68.16000 21.913
68.18000 18.853
68.20000 23.615
68.22000 23.074
68.24000 25.221
68.26000 24.698
68.28000 22.529
68.30000 27.199
68.32000 27.292
68.34000 21.690
68.36000 21.568
68.38000 23.306
68.40000 23.858
68.42000 22.133
68.44000 20.965
68.46000 18.758
68.48000 20.029
68.50000 15.984
68.52000 20.879
68.54000 21.501
68.56000 16.383
68.58000 20.727
68.60000 24.425
68.62000 21.584
68.64000 18.854
68.66000 18.180
68.68000 16.130
68.70000 12.022
68.72000 11.245
68.74000 18.217
68.76000 16.717
68.78000 19.958
68.80000 15.373
68.82000 9.815
68.84000 11.555
68.86000 14.252
68.88000 20.882
68.90000 15.370
68.92000 12.968
68.94000 13.018
68.96000 11.313
68.98000 10.431
69.00000 9.547
69.02000 10.082
69.04000 11.802
69.06000 5.724
69.08000 5.218
69.10000 5.721
69.12000 5.714
69.14000 8.303
69.16000 8.046
69.18000 4.018
69.20000 3.194
69.22000 7.639
69.24000 7.442
69.26000 5.584
69.28000 9.179
69.30000 4.932
69.32000 4.335
69.34000 7.618
69.36000 3.266
69.38000 2.148
69.40000 1.147
69.42000 -1.919
69.44000 2.756
69.46000 3.246
69.48000 4.152
69.50000 2.256
69.52000 4.241
69.54000 7.427
69.56000 3.014
69.58000 4.473
69.60000 3.351
69.62000 3.189
69.64000 0.990
69.66000 -0.552
69.68000 -0.186
69.70000 0.806
69.72000 -0.210
69.74000 2.582
69.76000 -0.338
69.78000 1.519
69.80000 2.936
69.82000 2.665
69.84000 2.723
69.86000 -0.559
69.88000 -0.831
69.90000 -1.558
69.92000 1.417
69.94000 -1.149
69.96000 0.782
69.98000 0.758
70.00000 0.252
70.02000 -1.029
70.04000 -2.173
70.06000 -2.688
70.08000 0.321
70.10000 -1.413
70.12000 5.207
70.14000 8.195
70.16000 9.566
70.18000 2.431
70.20000 2.912
70.22000 2.811
70.24000 -0.946
70.26000 4.554
70.28000 6.817
70.30000 3.891
70.32000 1.354
70.34000 2.239
70.36000 3.245
70.38000 3.086
70.40000 4.050
70.42000 2.096
70.44000 -2.636
70.46000 3.015
70.48000 2.115
70.50000 -2.630
70.52000 -2.046
70.54000 2.056
70.56000 -2.026
70.58000 0.614
70.60000 -1.213
70.62000 -1.966
70.64000 -1.307
70.66000 0.620
70.68000 0.915
70.70000 7.872
70.72000 3.607
70.74000 4.241
70.76000 4.448
70.78000 3.736
70.80000 5.070
70.82000 5.501
70.84000 6.266
70.86000 0.370
70.88000 3.832
70.90000 6.360
70.92000 3.231
70.94000 0.012
70.96000 2.010
70.98000 -1.143
71.00000 2.166
71.02000 1.914
71.04000 1.797
71.06000 2.789
71.08000 6.263
71.10000 6.497
71.12000 10.085
71.14000 5.974
71.16000 1.145
71.18000 -2.176
71.20000 0.174
71.22000 1.318
71.24000 1.667
71.26000 4.397
71.28000 0.149
71.30000 -2.598
71.32000 0.433
71.34000 0.957
71.36000 1.753
71.38000 2.256
71.40000 -0.422
71.42000 1.838
71.44000 2.764
71.46000 6.965
71.48000 4.678
71.50000 4.472
71.52000 5.863
71.54000 2.242
71.56000 3.174
71.58000 5.493
71.60000 1.435
71.62000 -0.755
71.64000 -2.577
71.66000 3.225
71.68000 1.782
71.70000 -2.383
71.72000 0.117
71.74000 4.722
71.76000 0.850
71.78000 4.931
71.80000 9.044
71.82000 0.773
71.84000 2.502
71.86000 4.236
71.88000 3.292
71.90000 3.949
71.92000 5.295
71.94000 5.880
71.96000 2.513
71.98000 0.954
72.00000 1.251
72.02000 -2.549
72.04000 1.291
72.06000 8.784
72.08000 6.978
72.10000 5.279
72.12000 5.907
72.14000 -0.279
72.16000 1.419
72.18000 4.316
72.20000 5.082
72.22000 1.924
72.24000 6.464
72.26000 6.428
72.28000 2.707
72.30000 -1.971
72.32000 -0.447
72.34000 -2.525
72.36000 5.627
72.38000 3.109
72.40000 -0.489
72.42000 2.135
72.44000 5.990
72.46000 9.039
72.48000 2.095
72.50000 -2.521
72.52000 2.871
72.54000 4.663
72.56000 6.036
72.58000 0.427
72.60000 -2.521
72.62000 0.741
72.64000 5.773
72.66000 5.966
72.68000 0.919
72.70000 0.144
72.72000 -0.083
72.74000 0.391
72.76000 3.978
72.78000 1.553
72.80000 1.684
72.82000 2.156
72.84000 6.488
72.86000 5.586
72.88000 3.420
72.90000 2.518
72.92000 1.862
72.94000 -0.478
72.96000 0.735
72.98000 4.294
73.00000 5.997
73.02000 5.143
73.04000 -0.381
73.06000 2.631
73.08000 1.136
73.10000 5.330
73.12000 -0.005
73.14000 -0.008
73.16000 1.262
73.18000 4.793
73.20000 8.158
73.22000 6.346
73.24000 0.807
73.26000 1.939
73.28000 3.850
73.30000 1.432
73.32000 -0.476
73.34000 -0.018
73.36000 2.572
73.38000 1.876
73.40000 2.234
73.42000 1.566
73.44000 4.796
73.46000 5.253
73.48000 6.371
73.50000 5.484
73.52000 3.230
73.54000 -1.320
73.56000 -2.309
73.58000 -2.513
73.60000 3.300
73.62000 7.223
73.64000 2.100
73.66000 0.893
73.68000 5.909
73.70000 3.714
73.72000 -2.508
73.74000 -0.609
73.76000 4.062
73.78000 4.087
73.80000 4.479
73.82000 2.203
73.84000 3.169
73.86000 5.273
73.88000 0.539
73.90000 -0.786
73.92000 -2.268
73.94000 0.702
73.96000 -0.483
73.98000 0.047
74.00000 2.195
74.02000 3.128
74.04000 -1.094
74.06000 -1.074
74.08000 0.670
74.10000 2.675
74.12000 3.697
74.14000 -0.213
74.16000 -2.061
74.18000 -2.131
74.20000 0.049
74.22000 4.141
74.24000 5.528
74.26000 2.205
74.28000 1.618
74.30000 1.375
74.32000 0.978
74.34000 2.917
74.36000 2.555
74.38000 0.144
74.40000 -0.004
74.42000 3.500
74.44000 6.250
74.46000 7.780
74.48000 4.624
74.50000 6.766
74.52000 6.718
74.54000 4.161
74.56000 7.470
74.58000 10.825
74.60000 10.279
74.62000 11.403
74.64000 9.111
74.66000 7.335
74.68000 4.288
74.70000 7.591
74.72000 6.465
74.74000 7.821
74.76000 1.942
74.78000 1.556
74.80000 1.071
74.82000 -2.460
74.84000 2.235
74.86000 4.148
74.88000 4.037
74.90000 4.656
74.92000 2.461
74.94000 -2.462
74.96000 4.295
74.98000 4.837
75.00000 0.524
75.02000 3.743
75.04000 6.376
75.06000 4.789
75.08000 3.577
75.10000 0.810
75.12000 3.565
75.14000 1.488
75.16000 1.551
75.18000 7.883
75.20000 8.516
75.22000 2.815
75.24000 2.410
75.26000 4.030
75.28000 6.016
75.30000 5.453
75.32000 6.106
75.34000 6.701
75.36000 7.492
75.38000 8.537
75.40000 9.713
75.42000 4.080
75.44000 2.399
75.46000 6.090
75.48000 8.198
75.50000 7.215
75.52000 4.007
75.54000 3.131
75.56000 -2.457
75.58000 2.731
75.60000 5.474
75.62000 3.325
75.64000 5.004
75.66000 6.306
75.68000 8.037
75.70000 7.864
75.72000 9.465
75.74000 3.746
75.76000 2.186
75.78000 2.306
75.80000 1.471
75.82000 2.630
75.84000 2.904
75.86000 7.383
75.88000 8.816
75.90000 6.646
75.92000 1.321
75.94000 5.323
75.96000 5.378
75.98000 3.879
76.00000 10.559
76.02000 15.738
76.04000 11.140
76.06000 8.479
76.08000 4.402
76.10000 3.701
76.12000 10.561
76.14000 6.441
76.16000 5.968
76.18000 6.993
76.20000 10.469
76.22000 8.424
76.24000 5.803
76.26000 6.744
76.28000 3.787
76.30000 6.625
76.32000 3.592
76.34000 5.613
76.36000 6.224
76.38000 7.031
76.40000 3.554
76.42000 -2.466
76.44000 4.941
76.46000 10.740
76.48000 11.947
76.50000 10.298
76.52000 6.249
76.54000 4.897
76.56000 3.461
76.58000 3.068
76.60000 7.600
76.62000 6.998
76.64000 7.776
76.66000 9.019
76.68000 5.203
76.70000 4.866
76.72000 6.384
76.74000 7.933
76.76000 3.328
76.78000 4.021
76.80000 4.057
76.82000 6.467
76.84000 0.823
76.86000 -0.854
76.88000 1.028
76.90000 3.832
76.92000 4.469
76.94000 1.664
76.96000 1.191
76.98000 5.311
77.00000 1.826
77.02000 -0.779
77.04000 6.024
77.06000 1.792
77.08000 -1.167
77.10000 4.711
77.12000 6.556
77.14000 6.739
77.16000 3.278
77.18000 5.082
77.20000 2.011
77.22000 4.934
77.24000 9.739
77.26000 4.546
77.28000 1.468
77.30000 3.102
77.32000 9.688
77.34000 10.039
77.36000 6.208
77.38000 1.824
77.40000 1.308
77.42000 0.437
77.44000 1.194
77.46000 3.935
77.48000 0.633
77.50000 6.797
77.52000 6.125
77.54000 6.088
77.56000 3.999
77.58000 -0.407
77.60000 -2.528
77.62000 -0.335
77.64000 5.531
77.66000 4.078
77.68000 5.020
77.70000 3.675
77.72000 6.250
77.74000 0.510
77.76000 0.527
77.78000 -0.009
77.80000 1.705
77.82000 3.654
77.84000 -1.378
77.86000 6.577
77.88000 6.174
77.90000 3.584
77.92000 7.580
77.94000 4.514
77.96000 6.199
77.98000 6.563
78.00000 12.019
78.02000 0.972
78.04000 3.085
78.06000 5.415
78.08000 2.280
78.10000 2.563
78.12000 1.750
78.14000 -1.727
78.16000 4.965
78.18000 6.917
78.20000 2.177
78.22000 -2.463
78.24000 0.846
78.26000 1.919
78.28000 6.255
78.30000 6.871
78.32000 2.854
78.34000 4.679
78.36000 2.813
78.38000 3.378
78.40000 3.403
78.42000 2.621
78.44000 3.060
78.46000 0.708
78.48000 -0.331
78.50000 -0.198
78.52000 0.073
78.54000 1.900
78.56000 2.184
78.58000 1.678
78.60000 1.527
78.62000 3.500
78.64000 0.960
78.66000 -2.594
78.68000 5.619
78.70000 5.758
78.72000 3.791
78.74000 5.576
78.76000 3.109
78.78000 -2.596
78.80000 -1.130
78.82000 1.099
78.84000 -0.679
78.86000 0.705
78.88000 1.110
78.90000 3.562
78.92000 5.830
78.94000 3.652
78.96000 3.608
78.98000 5.402
79.00000 3.608
79.02000 1.516
79.04000 1.489
79.06000 3.994
79.08000 1.341
79.10000 1.970
79.12000 1.023
79.14000 -2.089
79.16000 2.324
79.18000 -1.051
79.20000 -0.619
79.22000 3.854
79.24000 1.632
79.26000 3.737
79.28000 8.172
79.30000 4.714
79.32000 1.846
79.34000 3.390
79.36000 10.124
79.38000 8.716
79.40000 -1.059
79.42000 -1.532
79.44000 0.219
79.46000 -0.195
79.48000 -2.428
79.50000 3.179
79.52000 3.424
79.54000 5.281
79.56000 6.481
79.58000 0.355
79.60000 1.078
79.62000 1.914
79.64000 4.003
79.66000 9.675
79.68000 3.979
79.70000 1.986
79.72000 3.562
79.74000 5.304
79.76000 12.641
79.78000 10.246
79.80000 0.698
79.82000 2.251
79.84000 7.276
79.86000 4.642
79.88000 8.157
79.90000 7.579
79.92000 3.972
79.94000 -2.625
79.96000 1.821
79.98000 6.057
80.00000 6.016
80.02000 4.558
80.04000 3.542
80.06000 8.391
80.08000 10.411
80.10000 7.608
80.12000 5.215
80.14000 1.171
80.16000 3.147
80.18000 2.137
80.20000 7.298
80.22000 7.583
80.24000 5.004
80.26000 6.106
80.28000 5.006
80.30000 -0.079
80.32000 5.930
80.34000 4.520
80.36000 4.944
80.38000 2.775
80.40000 -0.913
80.42000 3.066
80.44000 5.405
80.46000 8.494
80.48000 5.848
80.50000 3.216
80.52000 4.215
80.54000 11.399
80.56000 13.777
80.58000 4.097
80.60000 7.836
80.62000 6.738
80.64000 5.659
80.66000 7.951
80.68000 5.827
80.70000 7.102
80.72000 8.360
80.74000 7.735
80.76000 8.656
80.78000 5.531
80.80000 8.664
80.82000 3.132
80.84000 1.852
80.86000 3.742
80.88000 8.574
80.90000 8.005
80.92000 7.852
80.94000 6.913
80.96000 13.220
80.98000 13.020
81.00000 10.781
81.02000 8.390
81.04000 16.907
81.06000 20.114
81.08000 10.094
81.10000 5.944
81.12000 8.530
81.14000 9.390
81.16000 10.300
81.18000 15.303
81.20000 19.572
81.22000 15.327
81.24000 8.188
81.26000 6.531
81.28000 12.743
81.30000 13.738
81.32000 11.683
81.34000 12.109
81.36000 9.954
81.38000 10.902
81.40000 10.218
81.42000 12.097
81.44000 15.297
81.46000 17.207
81.48000 14.379
81.50000 15.870
81.52000 13.881
81.54000 11.832
81.56000 14.892
81.58000 17.295
81.60000 18.104
81.62000 20.878
81.64000 11.565
81.66000 15.680
81.68000 18.597
81.70000 20.288
81.72000 19.773
81.74000 17.632
81.76000 25.520
81.78000 20.064
81.80000 13.385
81.82000 15.699
81.84000 21.138
81.86000 18.958
81.88000 28.121
81.90000 20.865
81.92000 16.084
81.94000 16.968
81.96000 13.712
81.98000 21.223
82.00000 23.158
82.02000 23.429
82.04000 26.430
82.06000 25.101
82.08000 26.211
82.10000 22.849
82.12000 17.275
82.14000 17.772
82.16000 24.814
82.18000 25.943
82.20000 27.324
82.22000 20.835
82.24000 22.706
82.26000 20.625
82.28000 20.712
82.30000 29.058
82.32000 27.761
82.34000 30.037
82.36000 28.269
82.38000 24.973
82.40000 24.974
82.42000 23.292
82.44000 19.748
82.46000 22.232
82.48000 22.147
82.50000 24.999
82.52000 26.931
82.54000 30.431
82.56000 28.127
82.58000 27.268
82.60000 27.266
82.62000 27.266
82.64000 31.230
82.66000 29.530
82.68000 23.530
82.70000 23.630
82.72000 22.454
82.74000 21.412
82.76000 19.429
82.78000 21.664
82.80000 19.635
82.82000 19.710
82.84000 18.880
82.86000 20.288
82.88000 17.105
82.90000 15.416
82.92000 13.670
82.94000 20.326
82.96000 18.526
82.98000 20.343
83.00000 20.727
83.02000 18.896
83.04000 20.666
83.06000 26.564
83.08000 17.613
83.10000 17.463
83.12000 19.983
83.14000 19.274
83.16000 19.991
83.18000 16.891
83.20000 18.738
83.22000 13.642
83.24000 12.604
83.26000 12.484
83.28000 8.752
83.30000 11.606
83.32000 17.173
83.34000 17.825
83.36000 12.841
83.38000 15.739
83.40000 7.612
83.42000 9.588
83.44000 13.507
83.46000 14.223
83.48000 12.987
83.50000 5.871
83.52000 7.792
83.54000 11.707
83.56000 9.292
83.58000 7.997
83.60000 9.758
83.62000 6.453
83.64000 9.213
83.66000 10.173
83.68000 12.336
83.70000 6.993
83.72000 10.016
83.74000 6.266
83.76000 6.454
83.78000 3.248
83.80000 -0.713
83.82000 9.106
83.84000 11.458
83.86000 6.327
83.88000 3.656
83.90000 2.775
83.92000 6.023
83.94000 3.349
83.96000 -1.237
83.98000 1.897
84.00000 1.953
84.02000 -0.319
84.04000 1.006
84.06000 5.500
84.08000 5.210
84.10000 4.756
84.12000 3.097
84.14000 2.241
84.16000 4.177
84.18000 5.632
84.20000 7.856
84.22000 5.939
84.24000 0.988
84.26000 -1.369
84.28000 -2.670
84.30000 2.540
84.32000 4.779
84.34000 4.260
84.36000 6.044
84.38000 1.826
84.40000 3.341
84.42000 -1.822
84.44000 -0.823
84.46000 -2.675
84.48000 2.284
84.50000 3.934
84.52000 1.947
84.54000 -1.089
84.56000 -2.086
84.58000 -0.490
84.60000 3.197
84.62000 2.935
84.64000 3.132
84.66000 2.470
84.68000 -0.263
84.70000 -1.844
84.72000 -0.783
84.74000 8.052
84.76000 1.681
84.78000 2.189
84.80000 -1.443
84.82000 0.353
84.84000 0.673
84.86000 -1.969
84.88000 3.202
84.90000 5.882
84.92000 1.433
84.94000 1.523
84.96000 0.941
84.98000 7.449
85.00000 5.139
85.02000 2.447
85.04000 1.230
85.06000 1.281
85.08000 2.632
85.10000 4.418
85.12000 1.623
85.14000 -2.696
85.16000 4.833
85.18000 6.086
85.20000 5.642
85.22000 5.680
85.24000 7.569
85.26000 3.484
85.28000 4.904
85.30000 5.887
85.32000 6.955
85.34000 6.430
85.36000 3.932
85.38000 2.347
85.40000 3.350
85.42000 4.147
85.44000 1.210
85.46000 4.262
85.48000 4.195
85.50000 5.506
85.52000 5.854
85.54000 2.801
85.56000 11.788
85.58000 10.252
85.60000 4.835
85.62000 4.256
85.64000 3.070
85.66000 5.430
85.68000 6.266
85.70000 4.926
85.72000 8.981
85.74000 7.398
85.76000 8.058
85.78000 17.342
85.80000 12.501
85.82000 8.939
85.84000 7.882
85.86000 7.577
85.88000 9.385
85.90000 9.763
85.92000 12.167
85.94000 14.596
85.96000 10.429
85.98000 15.820
86.00000 18.941
86.02000 23.714
86.04000 23.700
86.06000 17.463
86.08000 19.332
86.10000 19.039
86.12000 20.151
86.14000 20.392
86.16000 23.623
86.18000 23.927
86.20000 26.259
86.22000 27.853
86.24000 25.600
86.26000 30.473
86.28000 30.491
86.30000 28.004
86.32000 28.410
86.34000 27.291
86.36000 24.675
86.38000 22.311
86.40000 20.886
86.42000 30.322
86.44000 30.045
86.46000 27.567
86.48000 28.397
86.50000 30.824
86.52000 39.928
86.54000 40.678
86.56000 40.595
86.58000 35.781
86.60000 35.850
86.62000 33.805
86.64000 37.958
86.66000 38.588
86.68000 37.217
86.70000 41.555
86.72000 40.899
86.74000 39.096
86.76000 35.854
86.78000 33.614
86.80000 33.820
86.82000 30.194
86.84000 37.644
86.86000 35.070
86.88000 37.685
86.90000 43.035
86.92000 35.696
86.94000 31.131
86.96000 31.500
86.98000 35.708
87.00000 30.892
87.02000 27.608
87.04000 30.488
87.06000 35.188
87.08000 29.968
87.10000 20.659
87.12000 18.358
87.14000 23.425
87.16000 29.137
87.18000 30.406
87.20000 23.218
87.22000 22.750
87.24000 20.530
87.26000 17.299
87.28000 18.600
87.30000 24.460
87.32000 23.918
87.34000 28.530
87.36000 26.781
87.38000 17.570
87.40000 14.901
87.42000 15.377
87.44000 14.426
87.46000 15.260
87.48000 18.005
87.50000 19.571
87.52000 17.934
87.54000 16.843
87.56000 14.147
87.58000 12.704
87.60000 12.103
87.62000 11.411
87.64000 5.589
87.66000 7.653
87.68000 6.238
87.70000 4.459
87.72000 3.048
87.74000 4.412
87.76000 3.868
87.78000 8.973
87.80000 9.161
87.82000 10.580
87.84000 12.732
87.86000 10.488
87.88000 7.534
87.90000 7.497
87.92000 6.321
87.94000 9.411
87.96000 5.605
87.98000 2.781
88.00000 7.119
88.02000 8.233
88.04000 6.479
88.06000 5.756
88.08000 7.051
88.10000 4.969
88.12000 8.424
88.14000 5.416
88.16000 4.891
88.18000 5.620
88.20000 4.109
88.22000 4.715
88.24000 2.600
88.26000 3.010
88.28000 3.006
88.30000 4.726
88.32000 7.145
88.34000 4.760
88.36000 7.203
88.38000 7.263
88.40000 5.149
88.42000 4.419
88.44000 5.477
88.46000 3.132
88.48000 2.248
88.50000 1.167
88.52000 -0.148
88.54000 4.174
88.56000 5.518
88.58000 3.720
88.60000 3.420
88.62000 8.053
88.64000 4.138
88.66000 -2.429
88.68000 0.312
88.70000 3.233
88.72000 5.106
88.74000 2.909
88.76000 4.151
88.78000 6.870
88.80000 11.500
88.82000 6.237
88.84000 6.097
88.86000 -0.154
88.88000 3.346
88.90000 6.002
88.92000 4.485
88.94000 6.782
88.96000 4.746
88.98000 9.210
89.00000 8.136
89.02000 8.518
89.04000 10.439
89.06000 9.567
89.08000 3.310
89.10000 1.094
89.12000 0.187
89.14000 -2.158
89.16000 1.875
89.18000 -0.836
89.20000 1.253
89.22000 3.360
89.24000 3.839
89.26000 1.748
89.28000 -0.049
89.30000 3.596
89.32000 7.832
89.34000 9.212
89.36000 3.560
89.38000 7.016
89.40000 4.221
89.42000 -2.374
89.44000 -0.545
89.46000 6.401
89.48000 3.120
89.50000 0.819
89.52000 2.158
89.54000 3.918
89.56000 3.633
89.58000 2.372
89.60000 5.828
89.62000 7.399
89.64000 7.915
89.66000 -1.748
89.68000 -1.911
89.70000 -1.099
89.72000 3.980
89.74000 7.455
89.76000 6.826
89.78000 2.585
89.80000 3.390
89.82000 -1.946
89.84000 2.495
89.86000 4.766
89.88000 4.359
89.90000 3.706
89.92000 5.516
89.94000 7.503
89.96000 6.793
89.98000 4.552
90.00000 0.845
90.02000 -1.554
90.04000 1.224
90.06000 4.954
90.08000 2.567
90.10000 1.652
90.12000 8.187
90.14000 1.418
90.16000 -2.050
90.18000 -1.779
90.20000 -1.964
90.22000 1.942
90.24000 3.340
90.26000 7.352
90.28000 10.075
90.30000 9.311
90.32000 6.314
90.34000 6.048
90.36000 3.917
90.38000 -1.187
90.40000 3.393
90.42000 2.933
90.44000 7.307
90.46000 6.300
90.48000 1.828
90.50000 2.380
90.52000 0.914
90.54000 0.603
90.56000 2.494
90.58000 2.213
90.60000 2.471
90.62000 0.728
90.64000 4.152
90.66000 3.068
90.68000 5.269
90.70000 -0.090
90.72000 -0.003
90.74000 0.589
90.76000 1.189
90.78000 0.386
90.80000 0.482
90.82000 -2.367
90.84000 1.959
90.86000 3.570
90.88000 6.112
90.90000 6.781
90.92000 10.907
90.94000 5.221
90.96000 5.381
90.98000 6.000
91.00000 -0.156
91.02000 7.939
91.04000 4.328
91.06000 -1.358
91.08000 -1.905
91.10000 3.865
91.12000 3.600
91.14000 3.644
91.16000 7.633
91.18000 7.758
91.20000 6.922
91.22000 4.197
91.24000 4.370
91.26000 0.950
91.28000 -1.552
91.30000 2.074
91.32000 3.881
91.34000 4.307
91.36000 -1.452
91.38000 1.842
91.40000 2.335
91.42000 2.882
91.44000 1.779
91.46000 -2.378
91.48000 4.011
91.50000 2.476
91.52000 4.552
91.54000 5.843
91.56000 5.157
91.58000 1.374
91.60000 2.009
91.62000 4.679
91.64000 6.872
91.66000 4.729
91.68000 2.760
91.70000 1.336
91.72000 0.128
91.74000 6.515
91.76000 2.509
91.78000 -0.539
91.80000 3.821
91.82000 11.713
91.84000 10.723
91.86000 7.121
91.88000 8.214
91.90000 3.817
91.92000 1.715
91.94000 1.557
91.96000 0.692
91.98000 1.468
92.00000 1.585
92.02000 1.282
92.04000 5.457
92.06000 1.697
92.08000 -1.524
92.10000 5.347
92.12000 4.407
92.14000 9.197
92.16000 4.488
92.18000 2.536
92.20000 2.884
92.22000 5.062
92.24000 3.664
92.26000 3.109
92.28000 3.470
92.30000 1.957
92.32000 4.490
92.34000 -0.252
92.36000 1.129
92.38000 5.014
92.40000 9.130
92.42000 0.771
92.44000 -0.131
92.46000 1.195
92.48000 1.001
92.50000 5.677
92.52000 9.006
92.54000 3.049
92.56000 0.113
92.58000 2.648
92.60000 3.505
92.62000 6.154
92.64000 5.851
92.66000 7.017
92.68000 0.549
92.70000 3.331
92.72000 5.733
92.74000 4.018
92.76000 8.123
92.78000 6.258
92.80000 6.623
92.82000 4.114
92.84000 4.004
92.86000 -2.327
92.88000 0.183
92.90000 4.837
92.92000 3.510
92.94000 -0.316
92.96000 2.784
92.98000 5.388
93.00000 1.773
93.02000 3.542
93.04000 7.997
93.06000 4.890
93.08000 1.638
93.10000 2.266
93.12000 1.479
93.14000 5.635
93.16000 3.762
93.18000 2.659
93.20000 2.367
93.22000 2.035
93.24000 1.577
93.26000 5.326
93.28000 6.906
93.30000 3.594
93.32000 5.197
93.34000 4.971
93.36000 6.255
93.38000 6.921
93.40000 6.640
93.42000 3.246
93.44000 4.548
93.46000 3.946
93.48000 -0.754
93.50000 0.329
93.52000 -0.356
93.54000 0.858
93.56000 4.799
93.58000 5.088
93.60000 5.365
93.62000 3.923
93.64000 1.167
93.66000 3.132
93.68000 6.373
93.70000 5.805
93.72000 6.387
93.74000 8.512
93.76000 4.900
93.78000 6.757
93.80000 11.759
93.82000 2.648
93.84000 4.470
93.86000 2.723
93.88000 3.257
93.90000 3.775
93.92000 1.768
93.94000 -0.093
93.96000 3.615
93.98000 -0.940
94.00000 1.215
94.02000 3.342
94.04000 8.187
94.06000 2.877
94.08000 4.697
94.10000 7.115
94.12000 4.675
94.14000 1.745
94.16000 1.090
94.18000 -1.914
94.20000 -2.154
94.22000 0.980
94.24000 3.944
94.26000 1.958
94.28000 -2.374
94.30000 5.478
94.32000 3.355
94.34000 2.536
94.36000 8.093
94.38000 5.770
94.40000 3.290
94.42000 6.765
94.44000 10.431
94.46000 6.163
94.48000 1.641
94.50000 -1.439
94.52000 2.694
94.54000 0.972
94.56000 1.749
94.58000 3.189
94.60000 3.489
94.62000 8.931
94.64000 14.812
94.66000 6.139
94.68000 6.837
94.70000 6.776
94.72000 8.026
94.74000 2.675
94.76000 0.772
94.78000 3.757
94.80000 1.546
94.82000 6.593
94.84000 8.093
94.86000 6.799
94.88000 7.522
94.90000 6.687
94.92000 5.027
94.94000 0.424
94.96000 5.222
94.98000 6.782
95.00000 7.398
95.02000 8.794
95.04000 2.286
95.06000 -2.384
95.08000 -0.577
95.10000 2.353
95.12000 10.764
95.14000 12.206
95.16000 9.148
95.18000 5.130
95.20000 3.278
95.22000 9.297
95.24000 9.860
95.26000 9.078
95.28000 7.255
95.30000 1.847
95.32000 4.444
95.34000 7.156
95.36000 5.008
95.38000 7.045
95.40000 4.212
95.42000 -0.250
95.44000 0.531
95.46000 -0.148
95.48000 3.301
95.50000 5.608
95.52000 2.688
95.54000 4.413
95.56000 6.136
95.58000 5.114
95.60000 0.375
95.62000 -1.252
95.64000 1.055
95.66000 2.963
95.68000 3.495
95.70000 5.007
95.72000 6.976
95.74000 -0.780
95.76000 -0.154
95.78000 7.431
95.80000 1.551
95.82000 3.070
95.84000 4.055
95.86000 4.535
95.88000 -0.547
95.90000 0.908
95.92000 7.072
95.94000 1.900
95.96000 1.454
95.98000 7.259
96.00000 3.329
96.02000 9.169
96.04000 9.593
96.06000 2.498
96.08000 4.042
96.10000 7.478
96.12000 4.359
96.14000 -1.369
96.16000 0.161
96.18000 2.285
96.20000 6.639
96.22000 3.711
96.24000 3.207
96.26000 -1.697
96.28000 0.108
96.30000 3.779
96.32000 2.629
96.34000 1.748
96.36000 5.231
96.38000 4.523
96.40000 3.227
96.42000 -0.112
96.44000 3.280
96.46000 4.854
96.48000 2.037
96.50000 5.303
96.52000 3.576
96.54000 0.342
96.56000 7.455
96.58000 13.689
96.60000 7.352
96.62000 1.692
96.64000 0.869
96.66000 4.743
96.68000 9.807
96.70000 2.670
96.72000 3.174
96.74000 5.670
96.76000 10.447
96.78000 9.632
96.80000 1.332
96.82000 2.506
96.84000 6.611
96.86000 1.201
96.88000 3.566
96.90000 1.816
96.92000 8.666
96.94000 5.268
96.96000 -0.838
96.98000 -0.908
97.00000 1.347
97.02000 3.913
97.04000 6.634
97.06000 7.660
97.08000 5.880
97.10000 3.985
97.12000 8.192
97.14000 8.405
97.16000 6.869
97.18000 1.609
97.20000 -1.610
97.22000 2.311
97.24000 -0.515
97.26000 -2.326
97.28000 1.806
97.30000 10.136
97.32000 12.943
97.34000 12.576
97.36000 11.429
97.38000 19.577
97.40000 23.718
97.42000 12.788
97.44000 5.629
97.46000 10.496
97.48000 -1.126
97.50000 1.372
97.52000 7.924
97.54000 9.010
97.56000 6.003
97.58000 7.768
97.60000 6.373
97.62000 5.239
97.64000 6.066
97.66000 4.753
97.68000 5.154
97.70000 5.162
97.72000 14.157
97.74000 9.817
97.76000 11.305
97.78000 11.183
97.80000 10.724
97.82000 7.674
97.84000 7.889
97.86000 11.594
97.88000 15.248
97.90000 15.592
97.92000 9.253
97.94000 -2.821
97.96000 2.370
97.98000 8.795
98.00000 12.205
98.02000 8.413
98.04000 7.658
98.06000 9.088
98.08000 6.797
98.10000 6.302
98.12000 4.777
98.14000 5.827
98.16000 7.464
98.18000 9.834
98.20000 12.097
98.22000 7.811
98.24000 4.040
98.26000 9.726
98.28000 9.140
98.30000 7.426
98.32000 11.101
98.34000 10.833
98.36000 14.419
98.38000 7.278
98.40000 4.390
98.42000 0.550
98.44000 3.932
98.46000 3.940
98.48000 7.046
98.50000 9.079
98.52000 0.162
98.54000 -2.307
98.56000 5.374
98.58000 2.050
98.60000 5.998
98.62000 6.616
98.64000 6.258
98.66000 4.030
98.68000 19.006
98.70000 8.700
98.72000 18.107
98.74000 17.939
98.76000 4.754
98.78000 3.113
98.80000 8.740
98.82000 16.756
98.84000 14.047
98.86000 10.874
98.88000 9.886
98.90000 -0.814
98.92000 -3.186
98.94000 12.616
98.96000 11.160
98.98000 2.136
99.00000 1.413
99.02000 1.958
99.04000 5.635
99.06000 12.951
99.08000 8.235
99.10000 7.616
99.12000 11.524
99.14000 5.870
99.16000 -1.628
99.18000 12.822
99.20000 10.141
99.22000 4.957
99.24000 1.774
99.26000 0.923
99.28000 -0.228
99.30000 1.719
99.32000 3.510
99.34000 13.681
99.36000 5.167
99.38000 4.117
99.40000 2.272
99.42000 7.802
99.44000 10.076
99.46000 7.176
99.48000 2.986
99.50000 -2.328
99.52000 2.884
99.54000 3.476
99.56000 1.231
99.58000 9.767
99.60000 3.805
99.62000 9.956
99.64000 10.786
99.66000 5.002
99.68000 9.576
99.70000 5.634
99.72000 3.021
99.74000 0.702
99.76000 4.865
99.78000 -2.364
99.80000 -2.368
99.82000 0.146
99.84000 -2.288
99.86000 4.284
99.88000 1.559
99.90000 -2.432
99.92000 0.236
99.94000 10.512
99.96000 5.875
99.98000 0.000
