'Id: "0011388" Comment: "Integrate frame 0011388_Au-Ir-Rh_Rh-rich_XRD-Mapping-323-0000.gfrmwith cursor Wedge Cursor #5" Operator: "B?rgel" Anode: "Cu" Wavelength: "1.5406" Scantype: "2Theta (TwoTheta)" TimePerStep: "1" X: "27" Y: "36" Z: "5.95" 
10.00000 0.000
10.02000 -3.837
10.04000 -1.242
10.06000 8.125
10.08000 2.695
10.10000 -1.563
10.12000 10.537
10.14000 25.502
10.16000 23.059
10.18000 9.383
10.20000 0.984
10.22000 -4.241
10.24000 16.904
10.26000 34.211
10.28000 24.329
10.30000 20.915
10.32000 30.428
10.34000 27.135
10.36000 14.876
10.38000 10.770
10.40000 9.358
10.42000 23.041
10.44000 19.043
10.46000 18.379
10.48000 16.409
10.50000 9.092
10.52000 16.562
10.54000 14.940
10.56000 29.060
10.58000 24.267
10.60000 5.611
10.62000 16.729
10.64000 26.054
10.66000 26.136
10.68000 19.326
10.70000 16.163
10.72000 6.917
10.74000 11.050
10.76000 22.529
10.78000 19.897
10.80000 19.807
10.82000 18.948
10.84000 16.638
10.86000 19.894
10.88000 23.359
10.90000 25.830
10.92000 25.703
10.94000 16.421
10.96000 24.737
10.98000 27.499
11.00000 28.735
11.02000 24.922
11.04000 21.254
11.06000 26.297
11.08000 25.703
11.10000 23.390
11.12000 20.070
11.14000 17.570
11.16000 21.576
11.18000 19.128
11.20000 13.210
11.22000 25.244
11.24000 21.399
11.26000 26.663
11.28000 33.593
11.30000 27.634
11.32000 13.418
11.34000 8.998
11.36000 19.759
11.38000 22.381
11.40000 21.079
11.42000 14.999
11.44000 10.758
11.46000 14.230
11.48000 24.180
11.50000 30.237
11.52000 17.940
11.54000 26.939
11.56000 25.965
11.58000 24.200
11.60000 25.125
11.62000 22.811
11.64000 13.534
11.66000 8.693
11.68000 14.019
11.70000 13.889
11.72000 24.405
11.74000 22.502
11.76000 23.604
11.78000 20.549
11.80000 24.210
11.82000 31.614
11.84000 18.376
11.86000 11.282
11.88000 14.186
11.90000 14.425
11.92000 26.573
11.94000 32.034
11.96000 19.445
11.98000 22.252
12.00000 15.305
12.02000 11.514
12.04000 19.993
12.06000 21.543
12.08000 16.023
12.10000 26.298
12.12000 33.580
12.14000 18.668
12.16000 17.583
12.18000 20.828
12.20000 18.239
12.22000 14.646
12.24000 24.319
12.26000 24.267
12.28000 15.805
12.30000 16.348
12.32000 20.087
12.34000 29.526
12.36000 25.708
12.38000 19.551
12.40000 23.967
12.42000 25.537
12.44000 28.104
12.46000 18.362
12.48000 21.797
12.50000 27.957
12.52000 25.733
12.54000 26.587
12.56000 36.626
12.58000 40.148
12.60000 19.933
12.62000 19.935
12.64000 24.178
12.66000 19.757
12.68000 14.537
12.70000 22.186
12.72000 26.826
12.74000 31.684
12.76000 30.310
12.78000 26.312
12.80000 24.894
12.82000 25.056
12.84000 21.524
12.86000 25.922
12.88000 29.428
12.90000 20.441
12.92000 20.828
12.94000 28.791
12.96000 44.428
12.98000 41.739
13.00000 31.319
13.02000 31.137
13.04000 23.901
13.06000 21.903
13.08000 14.390
13.10000 13.454
13.12000 29.594
13.14000 34.491
13.16000 27.614
13.18000 24.029
13.20000 25.719
13.22000 28.446
13.24000 31.478
13.26000 23.259
13.28000 18.166
13.30000 15.779
13.32000 13.692
13.34000 14.715
13.36000 24.695
13.38000 22.267
13.40000 20.980
13.42000 20.498
13.44000 15.703
13.46000 16.058
13.48000 19.980
13.50000 24.293
13.52000 18.058
13.54000 19.095
13.56000 21.577
13.58000 16.969
13.60000 14.918
13.62000 18.876
13.64000 8.604
13.66000 7.521
13.68000 17.605
13.70000 20.725
13.72000 18.256
13.74000 16.384
13.76000 26.598
13.78000 23.855
13.80000 6.840
13.82000 4.485
13.84000 10.812
13.86000 20.657
13.88000 17.349
13.90000 17.335
13.92000 17.243
13.94000 10.539
13.96000 13.974
13.98000 15.906
14.00000 11.102
14.02000 25.674
14.04000 18.301
14.06000 7.896
14.08000 6.968
14.10000 11.304
14.12000 14.677
14.14000 15.520
14.16000 16.745
14.18000 22.665
14.20000 15.538
14.22000 6.449
14.24000 6.571
14.26000 10.461
14.28000 12.834
14.30000 15.460
14.32000 12.335
14.34000 5.702
14.36000 7.233
14.38000 7.967
14.40000 15.055
14.42000 14.876
14.44000 13.121
14.46000 20.135
14.48000 15.891
14.50000 13.106
14.52000 10.401
14.54000 7.701
14.56000 4.775
14.58000 6.153
14.60000 4.266
14.62000 10.504
14.64000 16.452
14.66000 14.891
14.68000 19.417
14.70000 13.245
14.72000 18.163
14.74000 14.962
14.76000 12.864
14.78000 10.283
14.80000 8.643
14.82000 8.831
14.84000 16.078
14.86000 16.746
14.88000 15.440
14.90000 11.789
14.92000 8.604
14.94000 5.594
14.96000 7.050
14.98000 8.957
15.00000 10.703
15.02000 7.813
15.04000 6.769
15.06000 14.563
15.08000 7.966
15.10000 12.572
15.12000 14.056
15.14000 13.165
15.16000 18.514
15.18000 8.958
15.20000 10.993
15.22000 8.137
15.24000 11.505
15.26000 8.043
15.28000 14.241
15.30000 11.708
15.32000 7.867
15.34000 11.725
15.36000 16.589
15.38000 11.638
15.40000 2.485
15.42000 0.601
15.44000 4.104
15.46000 -2.969
15.48000 3.711
15.50000 3.085
15.52000 6.735
15.54000 1.279
15.56000 4.172
15.58000 7.709
15.60000 0.942
15.62000 7.711
15.64000 13.191
15.66000 11.704
15.68000 1.423
15.70000 -4.469
15.72000 -0.639
15.74000 8.978
15.76000 7.447
15.78000 8.147
15.80000 8.010
15.82000 2.269
15.84000 4.460
15.86000 3.399
15.88000 1.779
15.90000 9.908
15.92000 9.110
15.94000 7.205
15.96000 10.077
15.98000 -1.064
16.00000 7.452
16.02000 9.529
16.04000 10.370
16.06000 9.415
16.08000 4.516
16.10000 3.664
16.12000 6.649
16.14000 7.441
16.16000 5.622
16.18000 2.205
16.20000 7.314
16.22000 11.851
16.24000 3.736
16.26000 -0.079
16.28000 2.744
16.30000 9.155
16.32000 10.630
16.34000 9.468
16.36000 7.125
16.38000 -0.410
16.40000 3.368
16.42000 4.166
16.44000 10.014
16.46000 7.010
16.48000 7.734
16.50000 8.666
16.52000 13.260
16.54000 8.427
16.56000 2.434
16.58000 6.868
16.60000 0.275
16.62000 3.379
16.64000 2.601
16.66000 4.702
16.68000 1.392
16.70000 -4.447
16.72000 10.054
16.74000 11.375
16.76000 5.848
16.78000 6.228
16.80000 -2.262
16.82000 2.076
16.84000 6.667
16.86000 3.694
16.88000 8.223
16.90000 7.979
16.92000 6.965
16.94000 5.099
16.96000 7.485
16.98000 0.086
17.00000 1.020
17.02000 5.303
17.04000 2.120
17.06000 8.009
17.08000 12.562
17.10000 -0.486
17.12000 3.337
17.14000 5.796
17.16000 6.558
17.18000 5.243
17.20000 -1.499
17.22000 -4.425
17.24000 -0.806
17.26000 -0.919
17.28000 6.873
17.30000 15.165
17.32000 7.790
17.34000 1.302
17.36000 7.222
17.38000 3.278
17.40000 -1.248
17.42000 5.990
17.44000 12.190
17.46000 11.372
17.48000 13.326
17.50000 9.624
17.52000 10.887
17.54000 15.348
17.56000 9.200
17.58000 7.756
17.60000 4.334
17.62000 -0.186
17.64000 0.825
17.66000 3.680
17.68000 9.273
17.70000 14.087
17.72000 14.062
17.74000 5.758
17.76000 6.934
17.78000 12.120
17.80000 7.445
17.82000 -0.691
17.84000 -2.577
17.86000 5.779
17.88000 9.825
17.90000 8.253
17.92000 11.877
17.94000 6.476
17.96000 10.431
17.98000 8.546
18.00000 10.685
18.02000 8.423
18.04000 9.107
18.06000 7.418
18.08000 9.990
18.10000 3.740
18.12000 5.527
18.14000 6.852
18.16000 7.595
18.18000 0.204
18.20000 0.900
18.22000 5.116
18.24000 9.482
18.26000 4.116
18.28000 -0.377
18.30000 -1.790
18.32000 -4.345
18.34000 10.517
18.36000 12.509
18.38000 6.154
18.40000 5.110
18.42000 8.934
18.44000 12.501
18.46000 2.936
18.48000 -1.568
18.50000 4.898
18.52000 5.346
18.54000 4.296
18.56000 8.239
18.58000 3.263
18.60000 0.356
18.62000 6.210
18.64000 7.094
18.66000 0.780
18.68000 2.219
18.70000 9.774
18.72000 10.963
18.74000 3.047
18.76000 1.393
18.78000 -0.921
18.80000 3.415
18.82000 10.201
18.84000 6.220
18.86000 4.629
18.88000 -2.012
18.90000 -4.317
18.92000 -0.653
18.94000 3.938
18.96000 4.194
18.98000 7.230
19.00000 8.145
19.02000 5.574
19.04000 6.701
19.06000 11.629
19.08000 9.939
19.10000 1.936
19.12000 1.217
19.14000 7.650
19.16000 7.771
19.18000 3.818
19.20000 6.648
19.22000 5.320
19.24000 3.721
19.26000 5.078
19.28000 7.066
19.30000 4.817
19.32000 6.655
19.34000 6.382
19.36000 5.379
19.38000 3.973
19.40000 6.060
19.42000 -1.092
19.44000 -1.893
19.46000 4.517
19.48000 3.897
19.50000 5.448
19.52000 -4.155
19.54000 -4.296
19.56000 0.816
19.58000 1.705
19.60000 1.095
19.62000 4.236
19.64000 4.062
19.66000 11.824
19.68000 7.843
19.70000 7.866
19.72000 7.150
19.74000 3.402
19.76000 9.454
19.78000 10.727
19.80000 7.522
19.82000 0.655
19.84000 -0.600
19.86000 12.527
19.88000 7.477
19.90000 5.645
19.92000 7.499
19.94000 3.064
19.96000 1.569
19.98000 0.891
20.00000 -0.357
20.02000 6.641
20.04000 9.827
20.06000 4.159
20.08000 1.276
20.10000 -1.906
20.12000 5.257
20.14000 4.337
20.16000 -2.899
20.18000 -2.013
20.20000 3.364
20.22000 4.525
20.24000 7.302
20.26000 8.598
20.28000 7.225
20.30000 4.130
20.32000 7.698
20.34000 8.533
20.36000 6.003
20.38000 -0.935
20.40000 5.541
20.42000 6.485
20.44000 -2.539
20.46000 -2.807
20.48000 -2.814
20.50000 3.238
20.52000 3.873
20.54000 3.996
20.56000 7.591
20.58000 8.521
20.60000 6.385
20.62000 9.259
20.64000 15.157
20.66000 7.998
20.68000 6.304
20.70000 8.318
20.72000 13.464
20.74000 7.865
20.76000 4.462
20.78000 4.415
20.80000 9.334
20.82000 6.396
20.84000 6.128
20.86000 6.120
20.88000 0.715
20.90000 -4.195
20.92000 0.572
20.94000 11.637
20.96000 10.020
20.98000 2.653
21.00000 3.140
21.02000 10.767
21.04000 6.400
21.06000 2.895
21.08000 4.325
21.10000 2.036
21.12000 2.554
21.14000 7.383
21.16000 9.534
21.18000 9.019
21.20000 9.776
21.22000 13.054
21.24000 9.295
21.26000 8.028
21.28000 6.692
21.30000 -0.510
21.32000 4.865
21.34000 4.727
21.36000 4.301
21.38000 0.028
21.40000 2.804
21.42000 7.722
21.44000 11.450
21.46000 7.679
21.48000 4.353
21.50000 10.457
21.52000 7.240
21.54000 -0.882
21.56000 1.719
21.58000 2.224
21.60000 7.831
21.62000 6.154
21.64000 3.523
21.66000 5.527
21.68000 3.918
21.70000 2.096
21.72000 7.963
21.74000 -0.378
21.76000 9.150
21.78000 0.629
21.80000 0.144
21.82000 1.561
21.84000 6.943
21.86000 4.951
21.88000 4.276
21.90000 -0.116
21.92000 2.772
21.94000 4.973
21.96000 3.915
21.98000 5.342
22.00000 7.610
22.02000 8.016
22.04000 1.336
22.06000 1.702
22.08000 2.839
22.10000 4.898
22.12000 5.847
22.14000 3.048
22.16000 8.589
22.18000 4.447
22.20000 4.997
22.22000 6.032
22.24000 3.518
22.26000 4.399
22.28000 5.748
22.30000 8.546
22.32000 8.945
22.34000 1.458
22.36000 0.684
22.38000 1.885
22.40000 -0.128
22.42000 5.890
22.44000 5.327
22.46000 1.386
22.48000 5.100
22.50000 3.731
22.52000 0.295
22.54000 2.332
22.56000 4.936
22.58000 4.824
22.60000 10.039
22.62000 5.327
22.64000 7.805
22.66000 11.944
22.68000 12.357
22.70000 12.256
22.72000 12.798
22.74000 6.079
22.76000 2.630
22.78000 8.055
22.80000 7.934
22.82000 2.215
22.84000 10.436
22.86000 10.557
22.88000 2.074
22.90000 5.510
22.92000 4.358
22.94000 9.409
22.96000 4.332
22.98000 3.089
23.00000 5.017
23.02000 4.271
23.04000 -1.352
23.06000 -4.074
23.08000 9.077
23.10000 7.502
23.12000 4.953
23.14000 5.287
23.16000 2.053
23.18000 5.232
23.20000 6.672
23.22000 8.174
23.24000 10.833
23.26000 8.907
23.28000 6.184
23.30000 4.739
23.32000 8.815
23.34000 8.183
23.36000 8.672
23.38000 1.884
23.40000 0.975
23.42000 4.600
23.44000 5.645
23.46000 1.804
23.48000 -1.350
23.50000 -4.046
23.52000 2.867
23.54000 4.125
23.56000 7.549
23.58000 4.090
23.60000 3.676
23.62000 3.851
23.64000 3.244
23.66000 1.126
23.68000 -1.012
23.70000 1.838
23.72000 3.613
23.74000 5.397
23.76000 1.406
23.78000 2.493
23.80000 3.640
23.82000 3.169
23.84000 1.932
23.86000 3.055
23.88000 5.585
23.90000 4.639
23.92000 6.583
23.94000 2.992
23.96000 6.299
23.98000 3.915
24.00000 4.383
24.02000 5.974
24.04000 1.256
24.06000 1.048
24.08000 1.354
24.10000 2.899
24.12000 3.568
24.14000 0.119
24.16000 -0.915
24.18000 4.533
24.20000 -0.476
24.22000 -3.225
24.24000 8.693
24.26000 13.373
24.28000 8.682
24.30000 7.373
24.32000 4.578
24.34000 1.292
24.36000 -0.085
24.38000 -1.131
24.40000 -1.229
24.42000 3.653
24.44000 7.186
24.46000 -0.365
24.48000 -2.630
24.50000 4.378
24.52000 2.704
24.54000 5.785
24.56000 5.430
24.58000 4.668
24.60000 5.918
24.62000 5.191
24.64000 9.439
24.66000 10.368
24.68000 3.641
24.70000 -4.027
24.72000 7.041
24.74000 6.577
24.76000 2.706
24.78000 -0.998
24.80000 -0.513
24.82000 2.653
24.84000 5.573
24.86000 3.387
24.88000 7.057
24.90000 3.265
24.92000 0.597
24.94000 -0.514
24.96000 -0.385
24.98000 -0.471
25.00000 -3.823
25.02000 0.994
25.04000 10.331
25.06000 3.440
25.08000 1.340
25.10000 2.787
25.12000 2.255
25.14000 -3.090
25.16000 -3.834
25.18000 -4.007
25.20000 1.976
25.22000 3.446
25.24000 1.624
25.26000 5.726
25.28000 1.945
25.30000 0.934
25.32000 7.234
25.34000 2.957
25.36000 -0.475
25.38000 0.454
25.40000 0.745
25.42000 -0.308
25.44000 1.939
25.46000 -3.365
25.48000 -0.474
25.50000 -0.590
25.52000 0.709
25.54000 2.976
25.56000 3.301
25.58000 -0.445
25.60000 -1.597
25.62000 -1.092
25.64000 2.910
25.66000 8.793
25.68000 6.986
25.70000 5.895
25.72000 -1.698
25.74000 -2.248
25.76000 -0.382
25.78000 4.610
25.80000 1.086
25.82000 0.771
25.84000 0.708
25.86000 -1.294
25.88000 -1.110
25.90000 2.021
25.92000 7.339
25.94000 5.810
25.96000 4.970
25.98000 6.485
26.00000 4.646
26.02000 2.307
26.04000 4.054
26.06000 3.064
26.08000 -0.468
26.10000 5.983
26.12000 8.823
26.14000 -1.107
26.16000 -3.938
26.18000 -2.452
26.20000 -3.935
26.22000 4.888
26.24000 6.986
26.26000 6.767
26.28000 1.776
26.30000 2.701
26.32000 0.559
26.34000 6.665
26.36000 11.052
26.38000 7.286
26.40000 0.878
26.42000 -2.051
26.44000 6.638
26.46000 8.692
26.48000 3.748
26.50000 4.092
26.52000 3.893
26.54000 7.221
26.56000 2.513
26.58000 4.242
26.60000 7.277
26.62000 5.346
26.64000 7.306
26.66000 1.690
26.68000 -0.197
26.70000 3.926
26.72000 3.064
26.74000 -3.895
26.76000 -1.226
26.78000 -2.729
26.80000 3.121
26.82000 7.673
26.84000 10.505
26.86000 3.040
26.88000 1.548
26.90000 3.245
26.92000 1.181
26.94000 2.287
26.96000 2.068
26.98000 5.155
27.00000 7.542
27.02000 4.712
27.04000 3.912
27.06000 8.541
27.08000 3.001
27.10000 2.476
27.12000 1.806
27.14000 3.176
27.16000 2.592
27.18000 1.720
27.20000 4.019
27.22000 5.277
27.24000 9.449
27.26000 3.622
27.28000 2.904
27.30000 -0.207
27.32000 -0.921
27.34000 -0.460
27.36000 0.837
27.38000 1.273
27.40000 9.983
27.42000 10.006
27.44000 8.702
27.46000 7.117
27.48000 6.018
27.50000 5.277
27.52000 9.929
27.54000 3.099
27.56000 4.326
27.58000 0.736
27.60000 0.367
27.62000 8.174
27.64000 5.653
27.66000 -2.659
27.68000 -1.110
27.70000 5.106
27.72000 6.655
27.74000 3.369
27.76000 1.664
27.78000 4.259
27.80000 4.714
27.82000 4.842
27.84000 1.753
27.86000 2.442
27.88000 4.339
27.90000 -0.218
27.92000 -1.102
27.94000 -3.826
27.96000 0.742
27.98000 7.723
28.00000 7.466
28.02000 -0.525
28.04000 9.353
28.06000 6.907
28.08000 3.447
28.10000 -0.400
28.12000 -0.067
28.14000 0.660
28.16000 -0.093
28.18000 -0.040
28.20000 9.012
28.22000 6.647
28.24000 5.425
28.26000 3.186
28.28000 3.108
28.30000 8.568
28.32000 6.395
28.34000 5.253
28.36000 1.975
28.38000 0.080
28.40000 -1.914
28.42000 2.564
28.44000 -3.246
28.46000 -1.580
28.48000 2.163
28.50000 -0.787
28.52000 -2.884
28.54000 0.183
28.56000 0.569
28.58000 -0.450
28.60000 -2.912
28.62000 -1.885
28.64000 1.150
28.66000 9.281
28.68000 3.418
28.70000 1.810
28.72000 3.006
28.74000 5.179
28.76000 5.747
28.78000 2.680
28.80000 1.158
28.82000 4.054
28.84000 5.220
28.86000 6.375
28.88000 -0.904
28.90000 -0.546
28.92000 2.331
28.94000 2.536
28.96000 2.199
28.98000 8.850
29.00000 2.316
29.02000 0.617
29.04000 -0.457
29.06000 -2.058
29.08000 1.707
29.10000 7.815
29.12000 0.685
29.14000 4.722
29.16000 5.644
29.18000 1.322
29.20000 -3.778
29.22000 -0.776
29.24000 -2.472
29.26000 -1.699
29.28000 0.191
29.30000 3.539
29.32000 2.058
29.34000 5.900
29.36000 4.204
29.38000 2.196
29.40000 1.668
29.42000 2.396
29.44000 -0.081
29.46000 1.216
29.48000 -0.668
29.50000 0.254
29.52000 2.575
29.54000 1.469
29.56000 7.312
29.58000 7.500
29.60000 2.046
29.62000 6.844
29.64000 6.473
29.66000 4.481
29.68000 4.154
29.70000 4.559
29.72000 1.519
29.74000 -0.220
29.76000 3.101
29.78000 5.242
29.80000 3.604
29.82000 -0.961
29.84000 2.683
29.86000 5.618
29.88000 4.042
29.90000 2.905
29.92000 6.700
29.94000 6.361
29.96000 3.148
29.98000 4.275
30.00000 4.852
30.02000 2.081
30.04000 4.711
30.06000 6.408
30.08000 4.470
30.10000 3.626
30.12000 5.525
30.14000 5.153
30.16000 6.790
30.18000 3.054
30.20000 3.470
30.22000 3.161
30.24000 -1.800
30.26000 -3.721
30.28000 2.128
30.30000 1.705
30.32000 0.512
30.34000 0.389
30.36000 -0.313
30.38000 -1.751
30.40000 -2.476
30.42000 0.753
30.44000 -0.411
30.46000 0.270
30.48000 4.786
30.50000 7.723
30.52000 7.592
30.54000 5.779
30.56000 2.763
30.58000 3.261
30.60000 4.328
30.62000 4.912
30.64000 9.987
30.66000 8.038
30.68000 0.266
30.70000 5.190
30.72000 3.085
30.74000 4.055
30.76000 6.787
30.78000 4.634
30.80000 5.855
30.82000 6.957
30.84000 5.476
30.86000 2.833
30.88000 -0.147
30.90000 2.466
30.92000 3.716
30.94000 -0.177
30.96000 0.058
30.98000 2.435
31.00000 2.641
31.02000 5.259
31.04000 8.690
31.06000 3.380
31.08000 2.904
31.10000 6.078
31.12000 4.899
31.14000 5.517
31.16000 7.467
31.18000 6.742
31.20000 2.139
31.22000 1.715
31.24000 -1.279
31.26000 -3.668
31.28000 3.298
31.30000 1.774
31.32000 2.659
31.34000 3.755
31.36000 0.636
31.38000 0.013
31.40000 3.342
31.42000 3.633
31.44000 3.051
31.46000 5.729
31.48000 9.946
31.50000 6.188
31.52000 -0.086
31.54000 0.999
31.56000 2.732
31.58000 -0.350
31.60000 -0.198
31.62000 0.722
31.64000 -0.638
31.66000 -0.109
31.68000 -2.663
31.70000 0.339
31.72000 1.319
31.74000 2.053
31.76000 -0.127
31.78000 0.039
31.80000 -0.603
31.82000 -3.431
31.84000 -1.338
31.86000 -1.639
31.88000 -1.786
31.90000 -0.124
31.92000 0.659
31.94000 -1.277
31.96000 -1.636
31.98000 -0.072
32.00000 1.568
32.02000 0.332
32.04000 1.189
32.06000 -1.770
32.08000 -1.609
32.10000 1.866
32.12000 -1.043
32.14000 -1.165
32.16000 0.242
32.18000 -3.321
32.20000 -1.243
32.22000 0.890
32.24000 -0.534
32.26000 -1.675
32.28000 -1.282
32.30000 3.062
32.32000 2.478
32.34000 6.725
32.36000 5.552
32.38000 3.514
32.40000 5.328
32.42000 3.772
32.44000 5.140
32.46000 6.683
32.48000 3.797
32.50000 -0.220
32.52000 -3.110
32.54000 -2.223
32.56000 0.959
32.58000 -3.654
32.60000 -1.524
32.62000 3.632
32.64000 0.850
32.66000 4.281
32.68000 0.295
32.70000 -0.460
32.72000 1.455
32.74000 1.161
32.76000 -3.645
32.78000 0.104
32.80000 0.286
32.82000 -0.705
32.84000 4.800
32.86000 8.365
32.88000 3.779
32.90000 1.231
32.92000 8.354
32.94000 2.674
32.96000 3.046
32.98000 2.983
33.00000 1.414
33.02000 1.865
33.04000 3.483
33.06000 4.465
33.08000 -0.475
33.10000 -2.257
33.12000 -1.005
33.14000 0.398
33.16000 -3.637
33.18000 -1.058
33.20000 4.364
33.22000 4.209
33.24000 2.346
33.26000 1.780
33.28000 -0.468
33.30000 -0.274
33.32000 3.309
33.34000 -0.808
33.36000 -3.630
33.38000 1.878
33.40000 1.096
33.42000 0.550
33.44000 1.428
33.46000 4.084
33.48000 7.884
33.50000 5.762
33.52000 0.896
33.54000 2.707
33.56000 7.304
33.58000 2.206
33.60000 2.071
33.62000 3.518
33.64000 4.049
33.66000 5.875
33.68000 3.064
33.70000 6.673
33.72000 5.187
33.74000 4.948
33.76000 1.215
33.78000 2.446
33.80000 2.570
33.82000 1.464
33.84000 -1.153
33.86000 1.011
33.88000 7.267
33.90000 7.901
33.92000 7.212
33.94000 6.245
33.96000 4.290
33.98000 4.345
34.00000 3.152
34.02000 0.871
34.04000 -0.280
34.06000 5.633
34.08000 8.109
34.10000 10.571
34.12000 8.860
34.14000 5.183
34.16000 2.581
34.18000 -1.229
34.20000 0.349
34.22000 3.703
34.24000 0.254
34.26000 -3.616
34.28000 -1.956
34.30000 2.846
34.32000 2.612
34.34000 2.350
34.36000 1.353
34.38000 2.418
34.40000 -1.627
34.42000 1.381
34.44000 0.035
34.46000 1.520
34.48000 2.705
34.50000 7.800
34.52000 5.226
34.54000 2.173
34.56000 2.416
34.58000 1.016
34.60000 0.489
34.62000 0.025
34.64000 4.395
34.66000 8.641
34.68000 3.566
34.70000 1.383
34.72000 4.704
34.74000 4.799
34.76000 0.037
34.78000 1.554
34.80000 3.180
34.82000 0.038
34.84000 2.882
34.86000 1.703
34.88000 3.954
34.90000 -0.041
34.92000 0.052
34.94000 1.881
34.96000 2.061
34.98000 6.529
35.00000 -1.027
35.02000 -3.588
35.04000 1.093
35.06000 2.445
35.08000 3.783
35.10000 1.750
35.12000 -2.264
35.14000 -1.286
35.16000 3.532
35.18000 4.280
35.20000 3.728
35.22000 3.691
35.24000 1.691
35.26000 0.555
35.28000 -2.075
35.30000 -1.004
35.32000 4.518
35.34000 2.565
35.36000 -2.620
35.38000 -3.582
35.40000 1.034
35.42000 0.654
35.44000 0.918
35.46000 2.692
35.48000 1.747
35.50000 2.308
35.52000 2.854
35.54000 2.126
35.56000 4.571
35.58000 2.929
35.60000 2.457
35.62000 1.698
35.64000 6.631
35.66000 0.519
35.68000 2.806
35.70000 -1.145
35.72000 0.178
35.74000 -0.224
35.76000 3.375
35.78000 7.195
35.80000 7.517
35.82000 7.062
35.84000 6.310
35.86000 4.607
35.88000 0.123
35.90000 -0.286
35.92000 -3.579
35.94000 1.170
35.96000 7.153
35.98000 3.116
36.00000 -0.343
36.02000 3.788
36.04000 2.059
36.06000 4.939
36.08000 5.253
36.10000 1.205
36.12000 2.238
36.14000 4.866
36.16000 6.402
36.18000 3.059
36.20000 -2.624
36.22000 0.907
36.24000 3.651
36.26000 0.738
36.28000 3.225
36.30000 1.416
36.32000 -1.079
36.34000 -1.308
36.36000 5.603
36.38000 4.467
36.40000 5.707
36.42000 -2.302
36.44000 -1.019
36.46000 1.955
36.48000 4.895
36.50000 2.151
36.52000 6.264
36.54000 3.219
36.56000 0.657
36.58000 2.622
36.60000 6.435
36.62000 6.118
36.64000 3.508
36.66000 0.171
36.68000 -3.609
36.70000 -1.763
36.72000 5.048
36.74000 2.581
36.76000 -0.959
36.78000 -1.987
36.80000 -1.597
36.82000 1.912
36.84000 -1.657
36.86000 2.988
36.88000 3.831
36.90000 6.263
36.92000 6.083
36.94000 2.632
36.96000 1.267
36.98000 -3.121
37.00000 3.805
37.02000 2.473
37.04000 -2.222
37.06000 4.817
37.08000 5.151
37.10000 1.444
37.12000 2.876
37.14000 4.324
37.16000 7.398
37.18000 -3.643
37.20000 -1.579
37.22000 2.193
37.24000 4.761
37.26000 1.967
37.28000 2.679
37.30000 3.877
37.32000 3.675
37.34000 3.895
37.36000 -0.412
37.38000 -2.196
37.40000 1.445
37.42000 0.038
37.44000 3.549
37.46000 2.679
37.48000 2.597
37.50000 1.675
37.52000 1.217
37.54000 2.042
37.56000 1.476
37.58000 0.126
37.60000 3.895
37.62000 5.631
37.64000 1.447
37.66000 1.209
37.68000 0.595
37.70000 3.609
37.72000 1.397
37.74000 1.726
37.76000 0.310
37.78000 2.571
37.80000 9.521
37.82000 8.687
37.84000 7.730
37.86000 9.237
37.88000 9.557
37.90000 5.376
37.92000 5.700
37.94000 1.650
37.96000 2.780
37.98000 4.914
38.00000 10.546
38.02000 14.157
38.04000 6.392
38.06000 2.613
38.08000 3.139
38.10000 9.507
38.12000 14.876
38.14000 15.939
38.16000 10.660
38.18000 9.125
38.20000 12.184
38.22000 14.296
38.24000 7.041
38.26000 9.277
38.28000 12.429
38.30000 18.450
38.32000 16.067
38.34000 15.169
38.36000 18.377
38.38000 15.921
38.40000 12.055
38.42000 13.004
38.44000 16.659
38.46000 20.938
38.48000 23.553
38.50000 20.791
38.52000 18.040
38.54000 25.654
38.56000 23.103
38.58000 28.070
38.60000 27.664
38.62000 29.633
38.64000 26.270
38.66000 21.189
38.68000 24.414
38.70000 29.542
38.72000 31.135
38.74000 30.501
38.76000 29.765
38.78000 33.263
38.80000 30.374
38.82000 32.957
38.84000 33.823
38.86000 34.810
38.88000 36.518
38.90000 39.372
38.92000 44.848
38.94000 43.026
38.96000 37.102
38.98000 41.807
39.00000 46.219
39.02000 47.439
39.04000 47.055
39.06000 50.800
39.08000 52.579
39.10000 56.491
39.12000 54.069
39.14000 55.333
39.16000 56.203
39.18000 56.064
39.20000 66.642
39.22000 70.324
39.24000 68.920
39.26000 73.612
39.28000 78.272
39.30000 75.303
39.32000 79.852
39.34000 80.216
39.36000 89.589
39.38000 95.523
39.40000 98.822
39.42000 102.396
39.44000 110.492
39.46000 117.342
39.48000 115.775
39.50000 122.089
39.52000 125.799
39.54000 129.913
39.56000 135.534
39.58000 145.547
39.60000 152.169
39.62000 156.274
39.64000 160.652
39.66000 164.810
39.68000 172.586
39.70000 192.369
39.72000 204.161
39.74000 213.197
39.76000 209.786
39.78000 213.174
39.80000 226.798
39.82000 240.920
39.84000 259.553
39.86000 269.940
39.88000 285.312
39.90000 301.774
39.92000 324.378
39.94000 324.626
39.96000 342.637
39.98000 363.918
40.00000 369.806
40.02000 386.434
40.04000 408.692
40.06000 431.966
40.08000 459.752
40.10000 472.919
40.12000 495.904
40.14000 518.843
40.16000 527.609
40.18000 549.530
40.20000 576.760
40.22000 595.244
40.24000 621.706
40.26000 640.174
40.28000 661.802
40.30000 676.182
40.32000 685.359
40.34000 695.138
40.36000 731.438
40.38000 743.192
40.40000 756.151
40.42000 753.809
40.44000 770.791
40.46000 777.086
40.48000 781.450
40.50000 771.452
40.52000 773.944
40.54000 776.378
40.56000 770.374
40.58000 758.900
40.60000 763.263
40.62000 751.139
40.64000 732.765
40.66000 721.203
40.68000 703.365
40.70000 688.946
40.72000 678.429
40.74000 644.420
40.76000 627.953
40.78000 599.799
40.80000 573.778
40.82000 550.592
40.84000 527.074
40.86000 507.254
40.88000 486.421
40.90000 467.037
40.92000 444.387
40.94000 423.166
40.96000 408.148
40.98000 394.114
41.00000 367.970
41.02000 348.140
41.04000 329.775
41.06000 310.943
41.08000 294.249
41.10000 282.989
41.12000 273.703
41.14000 253.911
41.16000 237.178
41.18000 228.203
41.20000 216.723
41.22000 202.927
41.24000 192.836
41.26000 187.759
41.28000 173.462
41.30000 160.458
41.32000 154.653
41.34000 149.758
41.36000 138.645
41.38000 130.668
41.40000 119.038
41.42000 114.197
41.44000 110.349
41.46000 99.403
41.48000 97.972
41.50000 92.911
41.52000 92.777
41.54000 89.882
41.56000 81.275
41.58000 67.521
41.60000 70.217
41.62000 64.927
41.64000 66.068
41.66000 61.968
41.68000 60.693
41.70000 54.588
41.72000 55.368
41.74000 49.633
41.76000 53.487
41.78000 50.561
41.80000 44.494
41.82000 42.258
41.84000 40.058
41.86000 39.007
41.88000 37.956
41.90000 37.520
41.92000 31.646
41.94000 24.238
41.96000 24.591
41.98000 23.808
42.00000 26.603
42.02000 30.305
42.04000 22.334
42.06000 19.649
42.08000 19.534
42.10000 15.535
42.12000 18.570
42.14000 20.813
42.16000 15.309
42.18000 11.156
42.20000 10.719
42.22000 14.230
42.24000 16.430
42.26000 17.924
42.28000 15.336
42.30000 13.426
42.32000 11.117
42.34000 5.380
42.36000 9.738
42.38000 16.722
42.40000 12.311
42.42000 13.561
42.44000 13.099
42.46000 6.809
42.48000 3.812
42.50000 10.161
42.52000 7.598
42.54000 7.081
42.56000 3.298
42.58000 5.909
42.60000 3.914
42.62000 5.447
42.64000 2.871
42.66000 5.363
42.68000 4.743
42.70000 5.778
42.72000 4.267
42.74000 2.729
42.76000 2.561
42.78000 5.454
42.80000 3.776
42.82000 0.295
42.84000 4.367
42.86000 3.284
42.88000 -3.047
42.90000 0.401
42.92000 3.348
42.94000 5.065
42.96000 6.451
42.98000 -0.736
43.00000 2.183
43.02000 5.668
43.04000 3.111
43.06000 5.195
43.08000 5.141
43.10000 -0.410
43.12000 0.576
43.14000 -0.487
43.16000 -0.906
43.18000 0.532
43.20000 0.090
43.22000 -0.734
43.24000 -1.796
43.26000 1.247
43.28000 3.445
43.30000 2.329
43.32000 0.686
43.34000 0.927
43.36000 -0.352
43.38000 -3.626
43.40000 -1.340
43.42000 4.586
43.44000 4.400
43.46000 3.556
43.48000 8.484
43.50000 8.839
43.52000 0.778
43.54000 -3.275
43.56000 -3.111
43.58000 -0.865
43.60000 -0.166
43.62000 -0.011
43.64000 5.554
43.66000 3.530
43.68000 -1.017
43.70000 -0.068
43.72000 3.915
43.74000 4.111
43.76000 0.135
43.78000 3.276
43.80000 5.034
43.82000 3.820
43.84000 2.963
43.86000 0.773
43.88000 -0.481
43.90000 -3.549
43.92000 1.508
43.94000 4.137
43.96000 0.639
43.98000 2.892
44.00000 5.088
44.02000 1.107
44.04000 2.089
44.06000 -0.564
44.08000 -0.260
44.10000 6.597
44.12000 3.064
44.14000 -0.819
44.16000 -1.172
44.18000 0.815
44.20000 -1.231
44.22000 3.741
44.24000 5.392
44.26000 4.812
44.28000 2.414
44.30000 1.403
44.32000 0.715
44.34000 4.706
44.36000 4.451
44.38000 2.264
44.40000 -0.138
44.42000 0.280
44.44000 -2.008
44.46000 -0.741
44.48000 1.009
44.50000 2.702
44.52000 6.991
44.54000 6.592
44.56000 3.502
44.58000 1.480
44.60000 6.117
44.62000 3.669
44.64000 8.156
44.66000 10.811
44.68000 7.647
44.70000 8.926
44.72000 6.422
44.74000 8.684
44.76000 8.667
44.78000 3.069
44.80000 1.827
44.82000 0.173
44.84000 -3.549
44.86000 1.708
44.88000 3.485
44.90000 4.616
44.92000 5.182
44.94000 3.875
44.96000 4.895
44.98000 5.789
45.00000 9.843
45.02000 12.247
45.04000 7.480
45.06000 5.612
45.08000 5.676
45.10000 8.884
45.12000 11.833
45.14000 11.174
45.16000 5.446
45.18000 9.315
45.20000 11.074
45.22000 4.618
45.24000 7.470
45.26000 7.501
45.28000 6.675
45.30000 3.542
45.32000 5.908
45.34000 8.096
45.36000 12.676
45.38000 10.629
45.40000 17.598
45.42000 15.726
45.44000 15.676
45.46000 11.867
45.48000 10.577
45.50000 10.576
45.52000 15.249
45.54000 14.325
45.56000 12.430
45.58000 14.051
45.60000 8.730
45.62000 9.456
45.64000 12.458
45.66000 11.354
45.68000 15.548
45.70000 20.614
45.72000 25.055
45.74000 22.549
45.76000 23.968
45.78000 23.045
45.80000 28.621
45.82000 21.510
45.84000 22.941
45.86000 24.476
45.88000 25.785
45.90000 24.608
45.92000 24.645
45.94000 28.496
45.96000 28.630
45.98000 25.497
46.00000 29.735
46.02000 37.830
46.04000 34.141
46.06000 30.392
46.08000 29.937
46.10000 34.361
46.12000 34.729
46.14000 38.013
46.16000 33.935
46.18000 29.976
46.20000 30.498
46.22000 39.155
46.24000 42.147
46.26000 35.505
46.28000 28.573
46.30000 40.733
46.32000 43.217
46.34000 43.795
46.36000 46.498
46.38000 46.523
46.40000 48.975
46.42000 49.579
46.44000 46.255
46.46000 53.638
46.48000 56.585
46.50000 56.447
46.52000 54.240
46.54000 54.830
46.56000 62.690
46.58000 62.035
46.60000 64.028
46.62000 69.409
46.64000 68.125
46.66000 69.260
46.68000 62.394
46.70000 67.108
46.72000 72.841
46.74000 72.522
46.76000 71.118
46.78000 81.951
46.80000 80.378
46.82000 76.778
46.84000 74.304
46.86000 78.660
46.88000 92.381
46.90000 87.581
46.92000 81.777
46.94000 80.838
46.96000 84.381
46.98000 82.992
47.00000 87.155
47.02000 87.097
47.04000 87.964
47.06000 84.619
47.08000 87.392
47.10000 88.722
47.12000 84.222
47.14000 79.476
47.16000 83.251
47.18000 83.746
47.20000 85.489
47.22000 85.291
47.24000 92.707
47.26000 92.393
47.28000 79.949
47.30000 80.093
47.32000 76.151
47.34000 77.863
47.36000 77.589
47.38000 73.618
47.40000 72.077
47.42000 71.002
47.44000 68.641
47.46000 63.513
47.48000 64.837
47.50000 67.949
47.52000 72.003
47.54000 69.712
47.56000 67.943
47.58000 68.065
47.60000 67.437
47.62000 60.433
47.64000 60.509
47.66000 56.210
47.68000 51.079
47.70000 52.653
47.72000 46.679
47.74000 47.494
47.76000 42.238
47.78000 41.142
47.80000 43.182
47.82000 37.939
47.84000 37.701
47.86000 38.436
47.88000 37.350
47.90000 35.116
47.92000 35.047
47.94000 32.751
47.96000 37.839
47.98000 38.534
48.00000 29.358
48.02000 25.573
48.04000 27.414
48.06000 26.479
48.08000 24.271
48.10000 24.118
48.12000 22.384
48.14000 24.603
48.16000 16.642
48.18000 11.303
48.20000 14.858
48.22000 16.883
48.24000 18.113
48.26000 14.578
48.28000 15.113
48.30000 18.214
48.32000 12.142
48.34000 10.270
48.36000 9.344
48.38000 10.628
48.40000 10.432
48.42000 7.921
48.44000 9.451
48.46000 4.562
48.48000 3.933
48.50000 9.956
48.52000 12.009
48.54000 6.880
48.56000 8.352
48.58000 7.905
48.60000 1.813
48.62000 12.499
48.64000 10.757
48.66000 6.447
48.68000 6.439
48.70000 2.444
48.72000 -0.730
48.74000 -0.038
48.76000 1.591
48.78000 3.226
48.80000 2.048
48.82000 -0.018
48.84000 9.082
48.86000 -0.681
48.88000 -3.285
48.90000 3.778
48.92000 -0.365
48.94000 1.731
48.96000 2.289
48.98000 2.001
49.00000 -1.088
49.02000 1.402
49.04000 0.598
49.06000 0.542
49.08000 6.728
49.10000 10.728
49.12000 1.762
49.14000 2.998
49.16000 3.139
49.18000 2.637
49.20000 0.718
49.22000 -2.790
49.24000 -1.751
49.26000 5.882
49.28000 6.985
49.30000 2.493
49.32000 2.293
49.34000 6.515
49.36000 2.571
49.38000 -0.056
49.40000 -0.051
49.42000 4.890
49.44000 4.410
49.46000 -0.248
49.48000 1.614
49.50000 1.883
49.52000 4.077
49.54000 3.659
49.56000 -2.286
49.58000 -1.613
49.60000 5.163
49.62000 7.054
49.64000 9.170
49.66000 7.582
49.68000 3.558
49.70000 2.169
49.72000 5.323
49.74000 8.248
49.76000 5.415
49.78000 4.487
49.80000 3.049
49.82000 7.448
49.84000 4.971
49.86000 -3.123
49.88000 1.021
49.90000 11.480
49.92000 9.206
49.94000 6.938
49.96000 6.492
49.98000 1.790
50.00000 5.039
50.02000 3.299
50.04000 5.001
50.06000 10.185
50.08000 5.136
50.10000 0.108
50.12000 7.310
50.14000 6.939
50.16000 7.241
50.18000 7.652
50.20000 4.944
50.22000 6.191
50.24000 -0.343
50.26000 -2.306
50.28000 -0.394
50.30000 -0.012
50.32000 2.118
50.34000 0.833
50.36000 1.793
50.38000 3.780
50.40000 2.735
50.42000 0.413
50.44000 -0.506
50.46000 2.540
50.48000 7.710
50.50000 6.296
50.52000 3.504
50.54000 0.290
50.56000 -0.127
50.58000 8.681
50.60000 7.445
50.62000 5.897
50.64000 -0.072
50.66000 0.776
50.68000 1.476
50.70000 1.640
50.72000 2.369
50.74000 3.288
50.76000 6.531
50.78000 5.536
50.80000 1.935
50.82000 0.897
50.84000 2.419
50.86000 1.341
50.88000 3.058
50.90000 7.614
50.92000 0.787
50.94000 1.373
50.96000 6.049
50.98000 10.523
51.00000 7.280
51.02000 2.309
51.04000 0.992
51.06000 2.508
51.08000 1.064
51.10000 1.698
51.12000 5.942
51.14000 11.928
51.16000 6.983
51.18000 -3.037
51.20000 3.194
51.22000 8.125
51.24000 6.582
51.26000 3.534
51.28000 2.554
51.30000 -1.794
51.32000 -0.814
51.34000 5.035
51.36000 4.772
51.38000 4.013
51.40000 1.300
51.42000 5.614
51.44000 4.946
51.46000 5.518
51.48000 4.663
51.50000 2.246
51.52000 4.437
51.54000 1.090
51.56000 2.095
51.58000 6.379
51.60000 0.989
51.62000 1.848
51.64000 8.435
51.66000 5.086
51.68000 -1.232
51.70000 0.759
51.72000 1.010
51.74000 2.820
51.76000 -1.776
51.78000 2.411
51.80000 1.493
51.82000 2.423
51.84000 6.015
51.86000 4.129
51.88000 1.646
51.90000 4.000
51.92000 0.624
51.94000 1.811
51.96000 3.773
51.98000 5.017
52.00000 3.072
52.02000 2.639
52.04000 3.426
52.06000 11.022
52.08000 4.328
52.10000 1.727
52.12000 1.463
52.14000 5.907
52.16000 8.415
52.18000 5.520
52.20000 7.886
52.22000 4.648
52.24000 1.714
52.26000 7.246
52.28000 7.463
52.30000 8.674
52.32000 3.423
52.34000 2.347
52.36000 -0.118
52.38000 1.133
52.40000 1.351
52.42000 4.292
52.44000 6.302
52.46000 7.569
52.48000 4.693
52.50000 3.530
52.52000 2.641
52.54000 5.463
52.56000 9.144
52.58000 3.984
52.60000 1.006
52.62000 -0.312
52.64000 4.156
52.66000 0.261
52.68000 -0.170
52.70000 3.673
52.72000 6.098
52.74000 4.253
52.76000 -1.578
52.78000 -1.113
52.80000 -1.884
52.82000 3.623
52.84000 3.274
52.86000 4.922
52.88000 6.766
52.90000 4.302
52.92000 3.670
52.94000 2.446
52.96000 -2.973
52.98000 0.296
53.00000 -1.627
53.02000 -0.465
53.04000 1.138
53.06000 -1.121
53.08000 0.997
53.10000 4.672
53.12000 1.908
53.14000 4.754
53.16000 6.092
53.18000 1.149
53.20000 0.610
53.22000 4.033
53.24000 7.807
53.26000 5.991
53.28000 2.546
53.30000 7.183
53.32000 6.187
53.34000 2.662
53.36000 4.730
53.38000 4.286
53.40000 10.419
53.42000 5.151
53.44000 8.041
53.46000 3.521
53.48000 1.208
53.50000 4.454
53.52000 9.071
53.54000 9.791
53.56000 8.645
53.58000 5.800
53.60000 8.860
53.62000 5.161
53.64000 0.591
53.66000 0.754
53.68000 -2.149
53.70000 -0.181
53.72000 4.568
53.74000 3.802
53.76000 8.936
53.78000 8.786
53.80000 8.406
53.82000 5.045
53.84000 1.054
53.86000 1.121
53.88000 5.594
53.90000 9.275
53.92000 5.622
53.94000 4.194
53.96000 0.770
53.98000 -1.720
54.00000 1.381
54.02000 1.689
54.04000 5.972
54.06000 9.267
54.08000 9.269
54.10000 6.226
54.12000 5.720
54.14000 3.336
54.16000 7.987
54.18000 6.190
54.20000 1.741
54.22000 5.157
54.24000 8.037
54.26000 7.000
54.28000 2.415
54.30000 3.284
54.32000 4.378
54.34000 3.662
54.36000 7.259
54.38000 4.173
54.40000 1.596
54.42000 3.577
54.44000 5.835
54.46000 2.934
54.48000 -2.904
54.50000 0.211
54.52000 8.203
54.54000 12.933
54.56000 6.909
54.58000 12.179
54.60000 5.506
54.62000 5.567
54.64000 12.791
54.66000 5.010
54.68000 0.693
54.70000 3.620
54.72000 5.047
54.74000 5.254
54.76000 4.492
54.78000 2.554
54.80000 2.971
54.82000 8.688
54.84000 9.538
54.86000 9.003
54.88000 8.627
54.90000 3.731
54.92000 3.222
54.94000 3.572
54.96000 3.664
54.98000 2.283
55.00000 0.536
55.02000 4.093
55.04000 5.149
55.06000 6.331
55.08000 3.036
55.10000 6.866
55.12000 1.601
55.14000 2.570
55.16000 5.537
55.18000 9.939
55.20000 8.142
55.22000 7.250
55.24000 4.988
55.26000 3.288
55.28000 4.932
55.30000 2.377
55.32000 3.585
55.34000 10.653
55.36000 6.790
55.38000 6.586
55.40000 6.446
55.42000 3.270
55.44000 9.762
55.46000 10.141
55.48000 7.647
55.50000 6.514
55.52000 4.405
55.54000 5.303
55.56000 1.803
55.58000 3.140
55.60000 1.435
55.62000 4.266
55.64000 3.652
55.66000 0.071
55.68000 -0.849
55.70000 0.749
55.72000 5.140
55.74000 6.616
55.76000 1.782
55.78000 3.868
55.80000 4.763
55.82000 7.543
55.84000 5.063
55.86000 6.307
55.88000 3.767
55.90000 5.057
55.92000 3.505
55.94000 -0.746
55.96000 0.046
55.98000 -0.270
56.00000 -2.868
56.02000 5.405
56.04000 8.179
56.06000 5.433
56.08000 3.633
56.10000 2.741
56.12000 -1.443
56.14000 -1.830
56.16000 1.480
56.18000 -0.243
56.20000 1.693
56.22000 7.987
56.24000 6.715
56.26000 -1.294
56.28000 2.372
56.30000 7.111
56.32000 2.683
56.34000 2.047
56.36000 7.195
56.38000 12.075
56.40000 11.803
56.42000 3.929
56.44000 4.081
56.46000 5.229
56.48000 -1.185
56.50000 -0.480
56.52000 0.873
56.54000 -2.079
56.56000 -0.576
56.58000 3.377
56.60000 0.059
56.62000 1.435
56.64000 1.755
56.66000 5.222
56.68000 5.542
56.70000 6.168
56.72000 7.143
56.74000 -0.176
56.76000 -0.437
56.78000 5.415
56.80000 1.573
56.82000 -0.505
56.84000 2.588
56.86000 8.916
56.88000 8.496
56.90000 3.857
56.92000 5.843
56.94000 3.234
56.96000 -2.728
56.98000 1.123
57.00000 -1.550
57.02000 4.572
57.04000 9.374
57.06000 5.652
57.08000 -0.567
57.10000 -0.589
57.12000 -0.356
57.14000 -2.712
57.16000 2.775
57.18000 1.112
57.20000 6.122
57.22000 5.317
57.24000 6.211
57.26000 8.490
57.28000 3.716
57.30000 2.059
57.32000 3.099
57.34000 9.753
57.36000 6.547
57.38000 0.536
57.40000 -0.748
57.42000 2.121
57.44000 6.838
57.46000 6.090
57.48000 2.060
57.50000 3.751
57.52000 9.576
57.54000 7.990
57.56000 4.600
57.58000 3.527
57.60000 1.317
57.62000 -2.849
57.64000 -1.396
57.66000 1.940
57.68000 0.754
57.70000 0.884
57.72000 2.801
57.74000 3.245
57.76000 0.562
57.78000 1.737
57.80000 4.803
57.82000 8.515
57.84000 4.598
57.86000 0.349
57.88000 1.904
57.90000 3.244
57.92000 -1.063
57.94000 2.827
57.96000 3.449
57.98000 -1.101
58.00000 1.862
58.02000 7.722
58.04000 2.254
58.06000 2.142
58.08000 2.728
58.10000 5.360
58.12000 1.613
58.14000 1.851
58.16000 0.552
58.18000 -0.538
58.20000 -1.919
58.22000 1.187
58.24000 0.671
58.26000 -0.233
58.28000 1.250
58.30000 2.347
58.32000 -0.302
58.34000 -2.824
58.36000 0.376
58.38000 -0.161
58.40000 0.425
58.42000 -2.371
58.44000 -1.634
58.46000 3.045
58.48000 4.866
58.50000 5.162
58.52000 3.574
58.54000 1.131
58.56000 2.449
58.58000 3.276
58.60000 6.869
58.62000 -0.752
58.64000 3.941
58.66000 3.589
58.68000 -2.083
58.70000 3.189
58.72000 12.559
58.74000 8.637
58.76000 7.687
58.78000 3.394
58.80000 4.916
58.82000 6.659
58.84000 2.952
58.86000 -0.942
58.88000 0.655
58.90000 2.424
58.92000 2.677
58.94000 -0.264
58.96000 1.392
58.98000 5.026
59.00000 4.694
59.02000 2.597
59.04000 2.032
59.06000 3.476
59.08000 6.110
59.10000 -2.803
59.12000 -2.339
59.14000 1.316
59.16000 1.660
59.18000 -0.342
59.20000 1.210
59.22000 1.414
59.24000 0.455
59.26000 1.470
59.28000 -1.154
59.30000 5.567
59.32000 1.862
59.34000 2.123
59.36000 0.716
59.38000 0.153
59.40000 -0.580
59.42000 -0.264
59.44000 -1.074
59.46000 5.319
59.48000 8.764
59.50000 3.825
59.52000 4.455
59.54000 1.631
59.56000 2.820
59.58000 6.134
59.60000 3.050
59.62000 -2.726
59.64000 2.023
59.66000 4.844
59.68000 1.104
59.70000 0.421
59.72000 3.063
59.74000 6.133
59.76000 6.013
59.78000 8.086
59.80000 3.088
59.82000 2.889
59.84000 3.451
59.86000 -2.765
59.88000 -0.923
59.90000 1.123
59.92000 1.218
59.94000 -1.134
59.96000 3.996
59.98000 0.621
60.00000 0.005
60.02000 0.545
60.04000 -1.397
60.06000 -2.470
60.08000 0.531
60.10000 3.510
60.12000 2.042
60.14000 -0.795
60.16000 0.402
60.18000 2.809
60.20000 1.442
60.22000 3.865
60.24000 4.475
60.26000 2.316
60.28000 4.633
60.30000 6.481
60.32000 7.801
60.34000 8.368
60.36000 2.344
60.38000 -1.835
60.40000 5.657
60.42000 7.007
60.44000 5.971
60.46000 2.093
60.48000 2.279
60.50000 3.876
60.52000 4.015
60.54000 3.274
60.56000 8.159
60.58000 11.316
60.60000 5.726
60.62000 1.734
60.64000 2.978
60.66000 3.758
60.68000 2.601
60.70000 3.241
60.72000 -2.713
60.74000 -0.525
60.76000 7.964
60.78000 7.084
60.80000 4.297
60.82000 8.294
60.84000 8.966
60.86000 9.073
60.88000 4.073
60.90000 -0.662
60.92000 3.738
60.94000 4.679
60.96000 2.757
60.98000 1.283
61.00000 2.241
61.02000 0.927
61.04000 -1.297
61.06000 -0.428
61.08000 0.132
61.10000 2.442
61.12000 3.826
61.14000 1.583
61.16000 0.391
61.18000 2.894
61.20000 2.789
61.22000 6.262
61.24000 8.657
61.26000 6.497
61.28000 5.027
61.30000 6.295
61.32000 11.001
61.34000 8.595
61.36000 5.627
61.38000 0.316
61.40000 -1.334
61.42000 1.933
61.44000 0.607
61.46000 -0.306
61.48000 4.024
61.50000 3.118
61.52000 1.271
61.54000 1.837
61.56000 1.827
61.58000 7.996
61.60000 4.294
61.62000 8.134
61.64000 5.745
61.66000 5.961
61.68000 4.214
61.70000 0.334
61.72000 -2.664
61.74000 -0.881
61.76000 8.748
61.78000 8.071
61.80000 3.199
61.82000 5.188
61.84000 2.384
61.86000 2.812
61.88000 5.048
61.90000 5.553
61.92000 1.562
61.94000 2.748
61.96000 3.412
61.98000 5.099
62.00000 3.848
62.02000 4.856
62.04000 4.562
62.06000 6.015
62.08000 4.219
62.10000 -1.044
62.12000 2.865
62.14000 7.857
62.16000 6.111
62.18000 6.998
62.20000 -1.343
62.22000 -1.367
62.24000 1.762
62.26000 3.841
62.28000 8.271
62.30000 5.586
62.32000 3.072
62.34000 -0.021
62.36000 1.332
62.38000 4.570
62.40000 4.053
62.42000 3.976
62.44000 0.255
62.46000 3.012
62.48000 -0.710
62.50000 -2.678
62.52000 0.348
62.54000 1.080
62.56000 2.096
62.58000 6.224
62.60000 0.606
62.62000 1.222
62.64000 -1.754
62.66000 5.564
62.68000 6.076
62.70000 4.052
62.72000 7.451
62.74000 5.469
62.76000 3.664
62.78000 3.580
62.80000 4.936
62.82000 4.442
62.84000 4.255
62.86000 3.806
62.88000 2.601
62.90000 4.709
62.92000 6.902
62.94000 6.230
62.96000 4.415
62.98000 -2.669
63.00000 1.430
63.02000 5.192
63.04000 6.535
63.06000 6.486
63.08000 3.832
63.10000 3.995
63.12000 5.252
63.14000 1.685
63.16000 6.420
63.18000 9.546
63.20000 7.432
63.22000 1.440
63.24000 0.690
63.26000 4.390
63.28000 3.111
63.30000 0.254
63.32000 3.049
63.34000 2.893
63.36000 3.437
63.38000 3.630
63.40000 0.716
63.42000 1.284
63.44000 3.067
63.46000 2.224
63.48000 1.598
63.50000 -2.690
63.52000 0.147
63.54000 5.241
63.56000 3.975
63.58000 2.956
63.60000 6.000
63.62000 1.665
63.64000 -0.710
63.66000 -0.599
63.68000 2.362
63.70000 5.876
63.72000 0.759
63.74000 1.088
63.76000 0.003
63.78000 2.647
63.80000 6.461
63.82000 1.433
63.84000 1.263
63.86000 2.218
63.88000 1.969
63.90000 1.165
63.92000 0.706
63.94000 0.883
63.96000 1.924
63.98000 0.700
64.00000 2.900
64.02000 3.815
64.04000 5.075
64.06000 4.884
64.08000 5.585
64.10000 2.525
64.12000 6.090
64.14000 5.123
64.16000 2.170
64.18000 -0.905
64.20000 -2.698
64.22000 2.368
64.24000 3.163
64.26000 1.170
64.28000 -0.204
64.30000 2.435
64.32000 0.951
64.34000 5.683
64.36000 3.517
64.38000 0.381
64.40000 -2.121
64.42000 -0.075
64.44000 4.745
64.46000 6.956
64.48000 3.531
64.50000 0.854
64.52000 5.974
64.54000 3.100
64.56000 3.198
64.58000 5.257
64.60000 5.058
64.62000 4.988
64.64000 -1.322
64.66000 -2.193
64.68000 1.590
64.70000 3.131
64.72000 -2.693
64.74000 0.167
64.76000 2.327
64.78000 1.394
64.80000 0.913
64.82000 1.658
64.84000 1.581
64.86000 1.173
64.88000 2.751
64.90000 5.567
64.92000 8.914
64.94000 5.379
64.96000 4.621
64.98000 9.292
65.00000 3.585
65.02000 6.049
65.04000 2.757
65.06000 1.828
65.08000 4.959
65.10000 5.919
65.12000 1.509
65.14000 8.186
65.16000 7.605
65.18000 5.576
65.20000 1.409
65.22000 1.024
65.24000 -2.672
65.26000 1.186
65.28000 3.424
65.30000 3.944
65.32000 2.884
65.34000 3.312
65.36000 0.164
65.38000 0.740
65.40000 3.661
65.42000 -0.498
65.44000 -1.942
65.46000 -0.562
65.48000 5.998
65.50000 6.071
65.52000 3.009
65.54000 2.372
65.56000 -0.749
65.58000 -0.280
65.60000 0.341
65.62000 3.286
65.64000 0.946
65.66000 4.385
65.68000 5.818
65.70000 0.236
65.72000 3.953
65.74000 3.606
65.76000 1.975
65.78000 1.987
65.80000 3.767
65.82000 1.665
65.84000 -0.190
65.86000 1.764
65.88000 0.242
65.90000 -2.403
65.92000 1.838
65.94000 1.620
65.96000 0.670
65.98000 -2.726
66.00000 2.771
66.02000 3.793
66.04000 3.382
66.06000 3.194
66.08000 2.141
66.10000 0.347
66.12000 0.153
66.14000 0.853
66.16000 0.642
66.18000 -0.486
66.20000 0.743
66.22000 1.719
66.24000 0.400
66.26000 3.394
66.28000 2.621
66.30000 -0.015
66.32000 0.884
66.34000 2.750
66.36000 7.063
66.38000 5.502
66.40000 -0.864
66.42000 2.785
66.44000 3.766
66.46000 2.080
66.48000 0.997
66.50000 2.991
66.52000 5.313
66.54000 5.133
66.56000 6.540
66.58000 2.481
66.60000 1.302
66.62000 3.658
66.64000 1.900
66.66000 1.217
66.68000 2.844
66.70000 0.641
66.72000 4.033
66.74000 3.348
66.76000 0.495
66.78000 0.970
66.80000 3.069
66.82000 3.260
66.84000 0.867
66.86000 -2.759
66.88000 -1.365
66.90000 0.194
66.92000 -1.013
66.94000 -1.000
66.96000 0.973
66.98000 2.412
67.00000 4.300
67.02000 5.441
67.04000 7.715
67.06000 2.920
67.08000 -0.612
67.10000 2.488
67.12000 4.988
67.14000 8.644
67.16000 6.516
67.18000 4.093
67.20000 5.390
67.22000 7.080
67.24000 3.044
67.26000 4.674
67.28000 0.943
67.30000 -0.153
67.32000 1.593
67.34000 3.093
67.36000 2.123
67.38000 3.850
67.40000 4.802
67.42000 -0.706
67.44000 1.844
67.46000 6.300
67.48000 6.612
67.50000 7.770
67.52000 4.574
67.54000 8.623
67.56000 9.241
67.58000 6.131
67.60000 5.700
67.62000 6.358
67.64000 6.128
67.66000 6.065
67.68000 4.291
67.70000 7.929
67.72000 7.857
67.74000 9.393
67.76000 8.257
67.78000 3.630
67.80000 5.155
67.82000 11.537
67.84000 10.915
67.86000 13.800
67.88000 9.010
67.90000 12.656
67.92000 11.329
67.94000 13.408
67.96000 12.031
67.98000 10.685
68.00000 15.231
68.02000 19.328
68.04000 16.363
68.06000 14.949
68.08000 14.370
68.10000 9.245
68.12000 12.410
68.14000 13.314
68.16000 9.426
68.18000 12.323
68.20000 15.835
68.22000 15.998
68.24000 18.450
68.26000 17.717
68.28000 22.018
68.30000 22.309
68.32000 20.544
68.34000 17.321
68.36000 18.396
68.38000 26.386
68.40000 21.137
68.42000 21.108
68.44000 24.448
68.46000 22.262
68.48000 22.764
68.50000 24.061
68.52000 25.909
68.54000 24.616
68.56000 28.553
68.58000 32.656
68.60000 31.088
68.62000 28.738
68.64000 30.638
68.66000 30.112
68.68000 28.228
68.70000 27.330
68.72000 29.815
68.74000 29.706
68.76000 28.747
68.78000 30.115
68.80000 29.533
68.82000 34.432
68.84000 34.546
68.86000 31.235
68.88000 29.422
68.90000 28.248
68.92000 30.697
68.94000 30.089
68.96000 30.532
68.98000 32.751
69.00000 34.332
69.02000 34.510
69.04000 31.640
69.06000 30.942
69.08000 28.308
69.10000 27.498
69.12000 30.323
69.14000 28.922
69.16000 30.727
69.18000 28.952
69.20000 28.411
69.22000 25.050
69.24000 26.986
69.26000 26.723
69.28000 25.382
69.30000 21.167
69.32000 22.555
69.34000 14.551
69.36000 16.604
69.38000 16.821
69.40000 21.434
69.42000 22.341
69.44000 18.578
69.46000 17.526
69.48000 16.292
69.50000 14.678
69.52000 12.401
69.54000 15.529
69.56000 19.361
69.58000 19.471
69.60000 12.959
69.62000 8.296
69.64000 13.966
69.66000 17.767
69.68000 14.061
69.70000 8.181
69.72000 10.720
69.74000 10.887
69.76000 6.086
69.78000 7.150
69.80000 10.086
69.82000 7.731
69.84000 7.740
69.86000 9.510
69.88000 10.378
69.90000 6.439
69.92000 12.559
69.94000 9.941
69.96000 5.582
69.98000 5.381
70.00000 9.048
70.02000 6.501
70.04000 7.727
70.06000 3.618
70.08000 3.312
70.10000 3.821
70.12000 5.348
70.14000 2.728
70.16000 1.678
70.18000 2.906
70.20000 5.700
70.22000 3.740
70.24000 2.632
70.26000 3.160
70.28000 1.383
70.30000 2.408
70.32000 0.275
70.34000 -2.706
70.36000 0.053
70.38000 -2.680
70.40000 -0.177
70.42000 3.827
70.44000 0.825
70.46000 2.793
70.48000 0.070
70.50000 0.431
70.52000 5.258
70.54000 0.300
70.56000 1.523
70.58000 5.212
70.60000 2.308
70.62000 0.998
70.64000 -1.196
70.66000 -0.386
70.68000 2.758
70.70000 -2.261
70.72000 -1.138
70.74000 -1.141
70.76000 4.393
70.78000 2.393
70.80000 0.121
70.82000 -0.194
70.84000 2.813
70.86000 2.128
70.88000 1.333
70.90000 5.424
70.92000 5.254
70.94000 0.665
70.96000 -1.704
70.98000 -1.047
71.00000 2.780
71.02000 2.355
71.04000 -0.528
71.06000 -1.773
71.08000 -0.442
71.10000 4.514
71.12000 -2.611
71.14000 3.587
71.16000 4.345
71.18000 7.762
71.20000 -0.951
71.22000 1.541
71.24000 4.174
71.26000 4.589
71.28000 3.694
71.30000 -1.729
71.32000 -1.082
71.34000 0.642
71.36000 1.082
71.38000 0.566
71.40000 5.157
71.42000 2.450
71.44000 -0.980
71.46000 5.177
71.48000 6.339
71.50000 4.491
71.52000 4.825
71.54000 0.594
71.56000 -1.761
71.58000 -0.798
71.60000 -0.183
71.62000 -0.595
71.64000 1.096
71.66000 0.214
71.68000 1.343
71.70000 2.774
71.72000 1.542
71.74000 2.854
71.76000 2.863
71.78000 2.702
71.80000 -0.740
71.82000 0.304
71.84000 -0.683
71.86000 3.545
71.88000 -1.478
71.90000 2.113
71.92000 1.631
71.94000 0.120
71.96000 -2.546
71.98000 -0.429
72.00000 2.648
72.02000 3.796
72.04000 -0.320
72.06000 -1.046
72.08000 0.296
72.10000 -0.553
72.12000 1.743
72.14000 2.713
72.16000 3.509
72.18000 -1.296
72.20000 2.029
72.22000 7.356
72.24000 2.152
72.26000 1.263
72.28000 -1.044
72.30000 -2.551
72.32000 1.638
72.34000 1.825
72.36000 5.138
72.38000 4.900
72.40000 2.511
72.42000 -1.770
72.44000 -0.373
72.46000 1.105
72.48000 1.773
72.50000 4.052
72.52000 5.426
72.54000 4.242
72.56000 4.225
72.58000 8.519
72.60000 5.825
72.62000 1.369
72.64000 4.389
72.66000 1.368
72.68000 1.718
72.70000 2.891
72.72000 3.456
72.74000 4.940
72.76000 3.187
72.78000 0.574
72.80000 -1.831
72.82000 3.791
72.84000 -1.564
72.86000 1.238
72.88000 -0.279
72.90000 4.526
72.92000 0.544
72.94000 -2.170
72.96000 1.894
72.98000 2.206
73.00000 1.347
73.02000 1.614
73.04000 -2.045
73.06000 -1.799
73.08000 1.271
73.10000 5.712
73.12000 1.443
73.14000 4.797
73.16000 2.868
73.18000 -1.062
73.20000 0.897
73.22000 4.456
73.24000 4.943
73.26000 2.297
73.28000 5.434
73.30000 -0.225
73.32000 2.456
73.34000 -0.359
73.36000 2.530
73.38000 -0.391
73.40000 -0.774
73.42000 4.810
73.44000 4.300
73.46000 2.885
73.48000 2.969
73.50000 2.725
73.52000 2.735
73.54000 -0.370
73.56000 2.699
73.58000 5.167
73.60000 4.436
73.62000 0.157
73.64000 6.063
73.66000 1.666
73.68000 0.763
73.70000 -1.394
73.72000 0.111
73.74000 -1.304
73.76000 -2.493
73.78000 -0.441
73.80000 10.469
73.82000 7.317
73.84000 3.588
73.86000 0.653
73.88000 8.118
73.90000 8.117
73.92000 4.416
73.94000 2.912
73.96000 3.941
73.98000 2.686
74.00000 1.954
74.02000 6.254
74.04000 3.091
74.06000 6.531
74.08000 3.926
74.10000 0.046
74.12000 5.319
74.14000 3.575
74.16000 -1.274
74.18000 -1.362
74.20000 -1.126
74.22000 4.776
74.24000 4.801
74.26000 0.237
74.28000 4.703
74.30000 8.054
74.32000 4.730
74.34000 6.455
74.36000 5.919
74.38000 5.739
74.40000 5.693
74.42000 4.423
74.44000 4.243
74.46000 8.006
74.48000 10.015
74.50000 13.197
74.52000 13.069
74.54000 8.933
74.56000 6.928
74.58000 7.536
74.60000 1.136
74.62000 4.694
74.64000 7.094
74.66000 5.119
74.68000 5.083
74.70000 9.392
74.72000 9.932
74.74000 8.885
74.76000 11.844
74.78000 6.173
74.80000 8.572
74.82000 7.174
74.84000 2.953
74.86000 -0.879
74.88000 -2.370
74.90000 6.576
74.92000 10.011
74.94000 9.505
74.96000 5.624
74.98000 4.098
75.00000 12.719
75.02000 10.881
75.04000 8.016
75.06000 3.495
75.08000 5.575
75.10000 6.602
75.12000 8.118
75.14000 8.045
75.16000 8.071
75.18000 8.879
75.20000 7.371
75.22000 1.661
75.24000 8.413
75.26000 7.502
75.28000 0.936
75.30000 3.480
75.32000 11.724
75.34000 9.957
75.36000 8.215
75.38000 12.384
75.40000 8.981
75.42000 7.971
75.44000 3.216
75.46000 0.419
75.48000 4.238
75.50000 5.549
75.52000 5.606
75.54000 3.156
75.56000 6.093
75.58000 7.816
75.60000 6.040
75.62000 4.564
75.64000 6.157
75.66000 -0.380
75.68000 2.287
75.70000 4.355
75.72000 7.370
75.74000 7.091
75.76000 5.989
75.78000 10.108
75.80000 9.177
75.82000 6.344
75.84000 10.869
75.86000 5.342
75.88000 3.869
75.90000 6.823
75.92000 6.498
75.94000 1.760
75.96000 4.668
75.98000 3.495
76.00000 1.297
76.02000 1.678
76.04000 0.622
76.06000 0.441
76.08000 0.869
76.10000 0.525
76.12000 4.746
76.14000 10.178
76.16000 5.495
76.18000 5.412
76.20000 4.974
76.22000 6.434
76.24000 5.489
76.26000 7.137
76.28000 12.010
76.30000 6.611
76.32000 1.704
76.34000 2.603
76.36000 3.200
76.38000 5.425
76.40000 7.252
76.42000 3.984
76.44000 0.129
76.46000 5.596
76.48000 11.950
76.50000 9.205
76.52000 3.972
76.54000 3.484
76.56000 1.615
76.58000 0.501
76.60000 3.421
76.62000 6.186
76.64000 9.415
76.66000 4.005
76.68000 3.493
76.70000 5.492
76.72000 7.588
76.74000 7.025
76.76000 3.518
76.78000 1.563
76.80000 4.352
76.82000 1.505
76.84000 5.454
76.86000 3.847
76.88000 0.882
76.90000 -2.478
76.92000 -0.234
76.94000 4.627
76.96000 7.803
76.98000 7.942
77.00000 7.519
77.02000 9.252
77.04000 4.897
77.06000 3.623
77.08000 1.622
77.10000 1.605
77.12000 7.080
77.14000 9.157
77.16000 6.259
77.18000 5.782
77.20000 3.081
77.22000 -2.482
77.24000 3.937
77.26000 3.002
77.28000 2.405
77.30000 -0.044
77.32000 0.146
77.34000 1.673
77.36000 6.678
77.38000 4.879
77.40000 2.571
77.42000 1.812
77.44000 2.348
77.46000 1.279
77.48000 1.360
77.50000 1.507
77.52000 2.873
77.54000 2.203
77.56000 -1.661
77.58000 0.965
77.60000 4.083
77.62000 6.370
77.64000 3.007
77.66000 2.675
77.68000 3.202
77.70000 3.986
77.72000 1.044
77.74000 4.216
77.76000 4.051
77.78000 4.591
77.80000 5.348
77.82000 6.049
77.84000 1.923
77.86000 -2.521
77.88000 1.864
77.90000 -0.073
77.92000 -0.682
77.94000 -0.544
77.96000 0.626
77.98000 1.755
78.00000 1.673
78.02000 3.483
78.04000 2.086
78.06000 1.696
78.08000 2.677
78.10000 0.210
78.12000 -0.862
78.14000 2.485
78.16000 4.701
78.18000 4.196
78.20000 4.461
78.22000 1.489
78.24000 4.272
78.26000 6.377
78.28000 5.085
78.30000 1.811
78.32000 -1.951
78.34000 0.533
78.36000 0.664
78.38000 0.426
78.40000 2.456
78.42000 6.131
78.44000 1.657
78.46000 2.788
78.48000 6.533
78.50000 -0.290
78.52000 -0.068
78.54000 5.028
78.56000 -1.499
78.58000 3.330
78.60000 2.750
78.62000 1.557
78.64000 5.296
78.66000 3.325
78.68000 1.116
78.70000 3.677
78.72000 -1.356
78.74000 -2.554
78.76000 -2.125
78.78000 -2.554
78.80000 -2.142
78.82000 4.850
78.84000 4.897
78.86000 3.618
78.88000 6.729
78.90000 6.068
78.92000 -0.968
78.94000 -2.455
78.96000 -1.948
78.98000 0.209
79.00000 -0.111
79.02000 2.134
79.04000 2.761
79.06000 4.752
79.08000 6.178
79.10000 -0.219
79.12000 1.411
79.14000 1.473
79.16000 5.043
79.18000 6.095
79.20000 8.217
79.22000 9.036
79.24000 5.415
79.26000 1.252
79.28000 0.810
79.30000 6.318
79.32000 4.774
79.34000 5.194
79.36000 2.165
79.38000 -0.139
79.40000 2.370
79.42000 3.208
79.44000 1.585
79.46000 2.113
79.48000 7.732
79.50000 8.252
79.52000 -1.280
79.54000 -2.559
79.56000 0.503
79.58000 0.449
79.60000 3.232
79.62000 3.156
79.64000 2.279
79.66000 -0.811
79.68000 -0.822
79.70000 2.232
79.72000 -1.372
79.74000 0.856
79.76000 2.864
79.78000 3.442
79.80000 3.982
79.82000 -0.124
79.84000 0.782
79.86000 6.143
79.88000 4.439
79.90000 4.222
79.92000 6.562
79.94000 1.991
79.96000 0.177
79.98000 7.145
80.00000 6.602
80.02000 5.016
80.04000 0.225
80.06000 -0.614
80.08000 1.533
80.10000 1.004
80.12000 0.844
80.14000 7.768
80.16000 2.291
80.18000 -1.791
80.20000 1.613
80.22000 3.152
80.24000 4.663
80.26000 3.455
80.28000 6.945
80.30000 5.188
80.32000 7.043
80.34000 5.586
80.36000 -1.913
80.38000 2.083
80.40000 7.131
80.42000 3.186
80.44000 0.695
80.46000 2.303
80.48000 -1.172
80.50000 0.616
80.52000 8.395
80.54000 3.768
80.56000 9.148
80.58000 7.137
80.60000 2.730
80.62000 5.517
80.64000 6.365
80.66000 3.306
80.68000 1.531
80.70000 -2.480
80.72000 -0.544
80.74000 8.441
80.76000 5.594
80.78000 -1.610
80.80000 -2.607
80.82000 3.375
80.84000 1.281
80.86000 6.083
80.88000 10.109
80.90000 5.074
80.92000 1.556
80.94000 4.013
80.96000 9.872
80.98000 5.552
81.00000 6.411
81.02000 -0.550
81.04000 0.681
81.06000 1.888
81.08000 2.936
81.10000 4.180
81.12000 2.325
81.14000 -0.598
81.16000 4.293
81.18000 8.437
81.20000 3.504
81.22000 -0.060
81.24000 -1.789
81.26000 1.946
81.28000 5.226
81.30000 5.964
81.32000 2.035
81.34000 3.737
81.36000 6.704
81.38000 3.234
81.40000 4.300
81.42000 6.193
81.44000 0.032
81.46000 -2.698
81.48000 3.652
81.50000 8.931
81.52000 8.969
81.54000 7.300
81.56000 7.122
81.58000 11.089
81.60000 5.952
81.62000 8.039
81.64000 7.349
81.66000 5.662
81.68000 9.266
81.70000 6.707
81.72000 3.815
81.74000 8.229
81.76000 7.131
81.78000 7.569
81.80000 9.242
81.82000 6.782
81.84000 6.854
81.86000 10.918
81.88000 13.938
81.90000 9.115
81.92000 16.498
81.94000 16.710
81.96000 10.117
81.98000 9.410
82.00000 11.611
82.02000 8.945
82.04000 8.883
82.06000 14.690
82.08000 17.933
82.10000 18.777
82.12000 15.840
82.14000 15.899
82.16000 15.171
82.18000 16.111
82.20000 14.870
82.22000 7.552
82.24000 15.732
82.26000 22.879
82.28000 21.204
82.30000 18.017
82.32000 18.183
82.34000 21.124
82.36000 24.540
82.38000 24.518
82.40000 21.619
82.42000 13.832
82.44000 16.393
82.46000 17.722
82.48000 13.009
82.50000 14.959
82.52000 18.567
82.54000 14.867
82.56000 18.488
82.58000 25.503
82.60000 20.209
82.62000 19.113
82.64000 21.542
82.66000 26.075
82.68000 26.167
82.70000 20.489
82.72000 21.972
82.74000 32.739
82.76000 28.818
82.78000 33.136
82.80000 27.671
82.82000 30.017
82.84000 24.898
82.86000 23.149
82.88000 21.378
82.90000 18.626
82.92000 25.555
82.94000 25.419
82.96000 26.053
82.98000 24.563
83.00000 30.599
83.02000 36.551
83.04000 42.963
83.06000 37.252
83.08000 32.104
83.10000 34.369
83.12000 30.319
83.14000 33.284
83.16000 35.878
83.18000 31.137
83.20000 29.758
83.22000 26.711
83.24000 31.443
83.26000 35.036
83.28000 35.378
83.30000 30.653
83.32000 33.654
83.34000 34.912
83.36000 30.083
83.38000 32.914
83.40000 34.449
83.42000 34.366
83.44000 34.307
83.46000 30.318
83.48000 32.256
83.50000 27.570
83.52000 25.111
83.54000 31.305
83.56000 23.667
83.58000 18.305
83.60000 22.332
83.62000 21.276
83.64000 25.046
83.66000 30.043
83.68000 31.329
83.70000 24.677
83.72000 26.266
83.74000 27.506
83.76000 24.454
83.78000 29.331
83.80000 27.793
83.82000 21.263
83.84000 20.756
83.86000 19.982
83.88000 26.176
83.90000 22.669
83.92000 21.547
83.94000 22.531
83.96000 18.947
83.98000 17.977
84.00000 20.921
84.02000 14.800
84.04000 16.154
84.06000 17.797
84.08000 14.736
84.10000 15.489
84.12000 15.708
84.14000 15.390
84.16000 15.489
84.18000 13.824
84.20000 11.623
84.22000 11.222
84.24000 10.097
84.26000 6.729
84.28000 8.048
84.30000 13.244
84.32000 12.013
84.34000 10.269
84.36000 10.436
84.38000 9.054
84.40000 8.306
84.42000 5.548
84.44000 5.184
84.46000 7.103
84.48000 4.767
84.50000 6.363
84.52000 8.333
84.54000 4.862
84.56000 5.171
84.58000 7.523
84.60000 12.023
84.62000 10.068
84.64000 9.872
84.66000 7.234
84.68000 4.180
84.70000 1.049
84.72000 1.377
84.74000 0.730
84.76000 0.345
84.78000 4.536
84.80000 6.036
84.82000 2.154
84.84000 8.166
84.86000 7.524
84.88000 4.606
84.90000 6.513
84.92000 -1.260
84.94000 0.236
84.96000 9.579
84.98000 8.944
85.00000 4.890
85.02000 1.240
85.04000 1.568
85.06000 1.567
85.08000 5.832
85.10000 7.022
85.12000 5.738
85.14000 8.640
85.16000 8.157
85.18000 7.450
85.20000 7.900
85.22000 3.613
85.24000 5.078
85.26000 3.896
85.28000 5.927
85.30000 6.575
85.32000 5.176
85.34000 1.616
85.36000 6.216
85.38000 4.694
85.40000 5.920
85.42000 5.184
85.44000 2.062
85.46000 -2.572
85.48000 2.621
85.50000 1.140
85.52000 2.381
85.54000 5.240
85.56000 11.572
85.58000 12.215
85.60000 2.603
85.62000 -2.574
85.64000 6.709
85.66000 4.810
85.68000 6.055
85.70000 7.396
85.72000 10.544
85.74000 7.453
85.76000 7.142
85.78000 3.651
85.80000 5.320
85.82000 8.408
85.84000 4.359
85.86000 -0.783
85.88000 2.405
85.90000 5.138
85.92000 4.282
85.94000 7.414
85.96000 6.588
85.98000 2.532
86.00000 3.313
86.02000 2.005
86.04000 0.732
86.06000 1.672
86.08000 -0.936
86.10000 1.058
86.12000 4.039
86.14000 3.794
86.16000 3.044
86.18000 4.243
86.20000 3.128
86.22000 3.617
86.24000 5.141
86.26000 7.712
86.28000 5.049
86.30000 1.901
86.32000 -0.137
86.34000 1.868
86.36000 4.889
86.38000 1.076
86.40000 1.493
86.42000 1.225
86.44000 3.889
86.46000 4.019
86.48000 4.946
86.50000 4.267
86.52000 3.528
86.54000 4.772
86.56000 7.036
86.58000 8.382
86.60000 10.782
86.62000 6.657
86.64000 5.257
86.66000 6.628
86.68000 12.564
86.70000 10.910
86.72000 8.883
86.74000 10.429
86.76000 14.891
86.78000 15.555
86.80000 10.032
86.82000 10.822
86.84000 12.991
86.86000 13.745
86.88000 18.698
86.90000 17.049
86.92000 17.318
86.94000 18.249
86.96000 15.353
86.98000 20.088
87.00000 20.479
87.02000 23.820
87.04000 20.036
87.06000 18.104
87.08000 22.192
87.10000 24.019
87.12000 24.544
87.14000 25.621
87.16000 21.111
87.18000 19.164
87.20000 27.453
87.22000 33.370
87.24000 28.706
87.26000 21.995
87.28000 22.429
87.30000 25.017
87.32000 21.475
87.34000 23.991
87.36000 30.640
87.38000 37.196
87.40000 34.972
87.42000 32.201
87.44000 33.365
87.46000 36.989
87.48000 37.956
87.50000 31.868
87.52000 34.439
87.54000 39.279
87.56000 37.342
87.58000 33.946
87.60000 37.576
87.62000 36.997
87.64000 35.443
87.66000 37.256
87.68000 36.514
87.70000 29.533
87.72000 38.014
87.74000 37.166
87.76000 39.468
87.78000 39.295
87.80000 33.818
87.82000 35.807
87.84000 33.131
87.86000 35.120
87.88000 30.475
87.90000 33.209
87.92000 31.551
87.94000 33.274
87.96000 32.852
87.98000 30.431
88.00000 32.890
88.02000 32.290
88.04000 25.320
88.06000 24.318
88.08000 27.096
88.10000 28.271
88.12000 31.073
88.14000 26.492
88.16000 26.031
88.18000 28.016
88.20000 19.157
88.22000 20.337
88.24000 20.643
88.26000 23.793
88.28000 25.009
88.30000 17.309
88.32000 17.039
88.34000 15.474
88.36000 14.677
88.38000 10.334
88.40000 17.098
88.42000 16.960
88.44000 9.554
88.46000 7.448
88.48000 16.702
88.50000 20.643
88.52000 16.686
88.54000 17.340
88.56000 15.215
88.58000 16.437
88.60000 16.200
88.62000 11.461
88.64000 11.322
88.66000 11.102
88.68000 10.292
88.70000 8.463
88.72000 10.311
88.74000 9.828
88.76000 4.555
88.78000 7.564
88.80000 15.054
88.82000 3.020
88.84000 2.301
88.86000 7.041
88.88000 9.473
88.90000 9.603
88.92000 6.542
88.94000 6.797
88.96000 5.825
88.98000 5.586
89.00000 7.658
89.02000 9.803
89.04000 5.022
89.06000 2.705
89.08000 1.085
89.10000 1.410
89.12000 -1.229
89.14000 1.490
89.16000 6.693
89.18000 4.229
89.20000 6.302
89.22000 6.714
89.24000 4.715
89.26000 3.561
89.28000 1.355
89.30000 0.260
89.32000 5.026
89.34000 8.155
89.36000 2.885
89.38000 5.075
89.40000 2.782
89.42000 0.431
89.44000 4.247
89.46000 3.684
89.48000 1.037
89.50000 3.468
89.52000 5.409
89.54000 1.728
89.56000 6.736
89.58000 2.094
89.60000 3.808
89.62000 1.965
89.64000 3.843
89.66000 4.944
89.68000 1.229
89.70000 4.391
89.72000 8.756
89.74000 7.563
89.76000 2.595
89.78000 -2.406
89.80000 3.011
89.82000 7.371
89.84000 2.748
89.86000 2.960
89.88000 6.739
89.90000 2.801
89.92000 -2.396
89.94000 0.102
89.96000 5.098
89.98000 8.636
90.00000 9.682
90.02000 10.140
90.04000 6.369
90.06000 -1.838
90.08000 1.783
90.10000 2.753
90.12000 -1.511
90.14000 -2.378
90.16000 3.268
90.18000 -0.872
90.20000 1.783
90.22000 2.436
90.24000 0.695
90.26000 -1.250
90.28000 5.352
90.30000 4.256
90.32000 -0.147
90.34000 -0.840
90.36000 0.996
90.38000 -0.269
90.40000 -1.873
90.42000 4.114
90.44000 2.510
90.46000 4.242
90.48000 1.504
90.50000 2.350
90.52000 0.603
90.54000 2.436
90.56000 3.713
90.58000 2.607
90.60000 3.355
90.62000 3.437
90.64000 6.863
90.66000 4.314
90.68000 3.630
90.70000 -2.104
90.72000 -0.945
90.74000 3.965
90.76000 5.143
90.78000 4.238
90.80000 5.756
90.82000 8.513
90.84000 2.555
90.86000 0.171
90.88000 2.905
90.90000 3.599
90.92000 5.558
90.94000 4.071
90.96000 2.496
90.98000 2.680
91.00000 0.582
91.02000 4.516
91.04000 2.812
91.06000 0.998
91.08000 -2.337
91.10000 -2.185
91.12000 2.548
91.14000 5.367
91.16000 9.373
91.18000 7.838
91.20000 1.433
91.22000 3.796
91.24000 4.168
91.26000 6.235
91.28000 9.500
91.30000 8.134
91.32000 9.436
91.34000 8.716
91.36000 11.123
91.38000 8.267
91.40000 1.380
91.42000 3.263
91.44000 2.156
91.46000 3.893
91.48000 1.997
91.50000 4.146
91.52000 8.600
91.54000 6.019
91.56000 4.250
91.58000 5.401
91.60000 -2.306
91.62000 -1.637
91.64000 5.624
91.66000 7.522
91.68000 7.351
91.70000 8.757
91.72000 5.515
91.74000 3.996
91.76000 4.918
91.78000 0.675
91.80000 7.302
91.82000 7.990
91.84000 11.538
91.86000 5.602
91.88000 3.252
91.90000 4.350
91.92000 3.303
91.94000 2.634
91.96000 4.922
91.98000 4.720
92.00000 0.803
92.02000 1.000
92.04000 7.297
92.06000 5.548
92.08000 4.877
92.10000 8.831
92.12000 4.665
92.14000 1.503
92.16000 -1.248
92.18000 3.922
92.20000 5.123
92.22000 3.372
92.24000 1.501
92.26000 1.157
92.28000 2.920
92.30000 -1.223
92.32000 -2.252
92.34000 -1.364
92.36000 0.180
92.38000 1.974
92.40000 0.070
92.42000 2.178
92.44000 -0.828
92.46000 -1.346
92.48000 3.577
92.50000 1.950
92.52000 3.754
92.54000 2.841
92.56000 4.963
92.58000 4.618
92.60000 7.231
92.62000 2.765
92.64000 -0.623
92.66000 -0.473
92.68000 -0.367
92.70000 4.380
92.72000 4.982
92.74000 4.545
92.76000 4.463
92.78000 2.743
92.80000 2.124
92.82000 8.549
92.84000 5.510
92.86000 9.480
92.88000 8.372
92.90000 9.961
92.92000 7.243
92.94000 2.353
92.96000 2.285
92.98000 4.093
93.00000 0.529
93.02000 1.883
93.04000 2.200
93.06000 2.838
93.08000 2.735
93.10000 2.357
93.12000 -2.180
93.14000 2.198
93.16000 4.819
93.18000 3.713
93.20000 3.305
93.22000 5.692
93.24000 10.574
93.26000 5.280
93.28000 0.332
93.30000 -1.071
93.32000 6.219
93.34000 9.182
93.36000 7.763
93.38000 3.562
93.40000 -1.347
93.42000 -0.123
93.44000 4.691
93.46000 2.819
93.48000 2.980
93.50000 1.444
93.52000 6.009
93.54000 5.890
93.56000 3.396
93.58000 3.681
93.60000 0.820
93.62000 0.330
93.64000 4.524
93.66000 4.394
93.68000 -0.326
93.70000 2.276
93.72000 5.614
93.74000 5.037
93.76000 4.116
93.78000 6.664
93.80000 7.604
93.82000 0.960
93.84000 -2.351
93.86000 6.075
93.88000 7.057
93.90000 2.238
93.92000 6.133
93.94000 7.637
93.96000 8.818
93.98000 10.267
94.00000 6.149
94.02000 4.552
94.04000 3.366
94.06000 -1.422
94.08000 1.119
94.10000 8.039
94.12000 5.786
94.14000 7.842
94.16000 10.998
94.18000 4.023
94.20000 2.811
94.22000 0.929
94.24000 5.014
94.26000 7.766
94.28000 2.942
94.30000 3.783
94.32000 5.650
94.34000 8.545
94.36000 8.048
94.38000 5.229
94.40000 4.531
94.42000 2.641
94.44000 3.835
94.46000 3.289
94.48000 3.727
94.50000 4.855
94.52000 1.510
94.54000 8.104
94.56000 6.570
94.58000 0.885
94.60000 0.262
94.62000 5.765
94.64000 1.001
94.66000 2.675
94.68000 9.417
94.70000 14.604
94.72000 4.530
94.74000 -0.087
94.76000 2.414
94.78000 9.191
94.80000 6.917
94.82000 4.826
94.84000 -2.359
94.86000 6.758
94.88000 8.106
94.90000 5.672
94.92000 1.911
94.94000 3.666
94.96000 5.088
94.98000 5.147
95.00000 2.176
95.02000 2.114
95.04000 4.855
95.06000 5.372
95.08000 6.726
95.10000 8.954
95.12000 -0.554
95.14000 2.908
95.16000 8.702
95.18000 6.959
95.20000 6.763
95.22000 6.190
95.24000 11.182
95.26000 7.878
95.28000 5.911
95.30000 6.072
95.32000 6.248
95.34000 -0.665
95.36000 0.721
95.38000 0.045
95.40000 -2.379
95.42000 1.920
95.44000 3.317
95.46000 3.809
95.48000 2.593
95.50000 6.860
95.52000 3.615
95.54000 5.237
95.56000 2.401
95.58000 2.369
95.60000 3.216
95.62000 2.173
95.64000 6.228
95.66000 4.894
95.68000 6.869
95.70000 4.310
95.72000 -1.270
95.74000 0.710
95.76000 -1.910
95.78000 1.962
95.80000 3.555
95.82000 3.360
95.84000 10.984
95.86000 5.894
95.88000 8.892
95.90000 5.551
95.92000 0.511
95.94000 2.463
95.96000 5.141
95.98000 4.363
96.00000 4.653
96.02000 2.264
96.04000 3.120
96.06000 12.490
96.08000 5.729
96.10000 2.369
96.12000 9.290
96.14000 4.655
96.16000 -1.001
96.18000 -2.391
96.20000 7.857
96.22000 3.417
96.24000 -1.660
96.26000 1.450
96.28000 1.661
96.30000 -0.282
96.32000 -0.051
96.34000 3.927
96.36000 12.714
96.38000 12.596
96.40000 6.014
96.42000 4.477
96.44000 5.444
96.46000 8.297
96.48000 6.072
96.50000 9.739
96.52000 9.136
96.54000 9.708
96.56000 -0.879
96.58000 6.249
96.60000 12.349
96.62000 8.795
96.64000 1.451
96.66000 3.988
96.68000 0.801
96.70000 0.725
96.72000 2.969
96.74000 8.004
96.76000 3.053
96.78000 5.108
96.80000 4.664
96.82000 9.449
96.84000 4.653
96.86000 -0.264
96.88000 3.214
96.90000 3.348
96.92000 3.226
96.94000 9.380
96.96000 11.286
96.98000 7.498
97.00000 16.374
97.02000 13.972
97.04000 9.392
97.06000 0.741
97.08000 -1.112
97.10000 5.107
97.12000 10.789
97.14000 5.706
97.16000 5.002
97.18000 5.592
97.20000 5.076
97.22000 13.618
97.24000 11.933
97.26000 8.903
97.28000 6.352
97.30000 7.177
97.32000 7.957
97.34000 6.638
97.36000 5.845
97.38000 10.143
97.40000 11.847
97.42000 8.833
97.44000 0.563
97.46000 0.640
97.48000 4.240
97.50000 2.312
97.52000 3.398
97.54000 3.960
97.56000 2.845
97.58000 5.345
97.60000 9.648
97.62000 10.621
97.64000 9.638
97.66000 7.950
97.68000 8.128
97.70000 7.412
97.72000 9.780
97.74000 12.344
97.76000 8.296
97.78000 11.691
97.80000 4.502
97.82000 6.476
97.84000 6.370
97.86000 1.553
97.88000 -2.297
97.90000 6.734
97.92000 4.829
97.94000 7.017
97.96000 5.825
97.98000 0.170
98.00000 8.554
98.02000 9.929
98.04000 8.369
98.06000 14.442
98.08000 10.458
98.10000 7.352
98.12000 -0.512
98.14000 1.008
98.16000 3.516
98.18000 3.531
98.20000 6.621
98.22000 0.912
98.24000 3.197
98.26000 14.477
98.28000 2.590
98.30000 9.227
98.32000 10.329
98.34000 9.015
98.36000 2.240
98.38000 -1.786
98.40000 5.312
98.42000 -0.248
98.44000 2.056
98.46000 14.348
98.48000 10.322
98.50000 1.187
98.52000 1.679
98.54000 8.360
98.56000 9.758
98.58000 1.068
98.60000 -1.598
98.62000 5.837
98.64000 4.477
98.66000 8.118
98.68000 7.481
98.70000 7.271
98.72000 1.321
98.74000 4.111
98.76000 11.554
98.78000 10.777
98.80000 11.962
98.82000 14.685
98.84000 2.283
98.86000 3.067
98.88000 6.525
98.90000 6.479
98.92000 9.319
98.94000 5.403
98.96000 11.892
98.98000 14.144
99.00000 13.098
99.02000 11.908
99.04000 4.141
99.06000 9.750
99.08000 13.638
99.10000 5.332
99.12000 4.742
99.14000 6.740
99.16000 8.383
99.18000 5.057
99.20000 7.645
99.22000 11.012
99.24000 6.791
99.26000 3.786
99.28000 8.339
99.30000 3.258
99.32000 -0.982
99.34000 6.239
99.36000 3.257
99.38000 1.734
99.40000 -2.268
99.42000 7.355
99.44000 3.271
99.46000 17.718
99.48000 9.136
99.50000 0.560
99.52000 1.497
99.54000 9.981
99.56000 12.821
99.58000 10.507
99.60000 13.716
99.62000 5.669
99.64000 15.996
99.66000 14.849
99.68000 4.423
99.70000 3.484
99.72000 0.463
99.74000 -2.377
99.76000 11.000
99.78000 13.336
99.80000 24.350
99.82000 13.783
99.84000 13.692
99.86000 -0.953
99.88000 -2.298
99.90000 7.525
99.92000 -0.703
99.94000 -3.953
99.96000 9.913
99.98000 0.000
