'Id: "0011387" Comment: "Integrate frame 0011387_Au-Ir-Rh_Rh-rich_XRD-Mapping-330-0000.gfrmwith cursor Wedge Cursor #5" Operator: "B?rgel" Anode: "Cu" Wavelength: "1.5406" Scantype: "2Theta (TwoTheta)" TimePerStep: "1" X: "4.5" Y: "40.5" Z: "5.95" 
10.00000 0.000
10.02000 -4.392
10.04000 -1.537
10.06000 9.952
10.08000 4.842
10.10000 9.659
10.12000 26.364
10.14000 26.421
10.16000 20.143
10.18000 13.495
10.20000 -7.475
10.22000 4.154
10.24000 17.771
10.26000 26.886
10.28000 14.630
10.30000 13.817
10.32000 28.627
10.34000 22.504
10.36000 28.472
10.38000 27.328
10.40000 19.370
10.42000 20.183
10.44000 11.632
10.46000 13.073
10.48000 22.349
10.50000 11.196
10.52000 23.435
10.54000 30.389
10.56000 29.979
10.58000 22.929
10.60000 23.765
10.62000 23.430
10.64000 20.579
10.66000 10.573
10.68000 -0.119
10.70000 1.080
10.72000 8.686
10.74000 23.134
10.76000 31.257
10.78000 28.374
10.80000 36.587
10.82000 29.094
10.84000 6.934
10.86000 19.205
10.88000 18.943
10.90000 10.928
10.92000 23.962
10.94000 20.463
10.96000 19.642
10.98000 24.944
11.00000 24.089
11.02000 10.943
11.04000 8.689
11.06000 24.657
11.08000 20.163
11.10000 19.244
11.12000 2.098
11.14000 5.892
11.16000 14.512
11.18000 12.216
11.20000 20.052
11.22000 37.996
11.24000 30.346
11.26000 9.358
11.28000 6.068
11.30000 12.667
11.32000 13.885
11.34000 14.735
11.36000 24.192
11.38000 20.154
11.40000 19.912
11.42000 38.744
11.44000 24.847
11.46000 17.772
11.48000 18.536
11.50000 16.263
11.52000 9.224
11.54000 11.524
11.56000 17.209
11.58000 20.582
11.60000 25.586
11.62000 9.447
11.64000 -0.818
11.66000 14.912
11.68000 27.156
11.70000 20.066
11.72000 21.543
11.74000 27.815
11.76000 19.572
11.78000 16.956
11.80000 22.772
11.82000 18.103
11.84000 13.789
11.86000 19.766
11.88000 13.114
11.90000 8.823
11.92000 13.301
11.94000 17.627
11.96000 20.112
11.98000 3.127
12.00000 4.630
12.02000 11.657
12.04000 17.813
12.06000 24.878
12.08000 33.813
12.10000 24.917
12.12000 13.056
12.14000 15.299
12.16000 20.829
12.18000 30.436
12.20000 22.033
12.22000 21.459
12.24000 19.880
12.26000 22.887
12.28000 17.772
12.30000 8.384
12.32000 1.186
12.34000 3.568
12.36000 11.146
12.38000 12.472
12.40000 16.601
12.42000 15.345
12.44000 4.941
12.46000 14.728
12.48000 20.418
12.50000 22.610
12.52000 24.011
12.54000 18.921
12.56000 13.334
12.58000 14.544
12.60000 8.958
12.62000 16.336
12.64000 15.520
12.66000 15.700
12.68000 17.074
12.70000 13.696
12.72000 16.355
12.74000 17.824
12.76000 16.191
12.78000 20.468
12.80000 17.190
12.82000 24.508
12.84000 25.135
12.86000 25.017
12.88000 12.722
12.90000 8.407
12.92000 15.726
12.94000 14.964
12.96000 13.850
12.98000 15.442
13.00000 24.480
13.02000 27.222
13.04000 23.768
13.06000 9.844
13.08000 1.004
13.10000 -1.256
13.12000 13.172
13.14000 22.720
13.16000 13.213
13.18000 9.096
13.20000 14.310
13.22000 11.779
13.24000 7.857
13.26000 6.672
13.28000 14.584
13.30000 8.457
13.32000 7.115
13.34000 11.880
13.36000 11.922
13.38000 14.406
13.40000 19.527
13.42000 21.154
13.44000 12.569
13.46000 8.787
13.48000 10.492
13.50000 12.031
13.52000 6.392
13.54000 18.556
13.56000 17.356
13.58000 10.966
13.60000 4.350
13.62000 16.617
13.64000 9.549
13.66000 6.901
13.68000 6.869
13.70000 3.853
13.72000 6.854
13.74000 7.330
13.76000 0.302
13.78000 -3.059
13.80000 7.121
13.82000 2.071
13.84000 9.434
13.86000 7.071
13.88000 3.643
13.90000 5.948
13.92000 16.734
13.94000 2.218
13.96000 1.906
13.98000 6.529
14.00000 -4.494
14.02000 1.235
14.04000 12.128
14.06000 9.409
14.08000 8.024
14.10000 11.708
14.12000 13.440
14.14000 15.906
14.16000 12.875
14.18000 8.533
14.20000 7.921
14.22000 10.288
14.24000 4.521
14.26000 11.544
14.28000 14.778
14.30000 9.831
14.32000 10.450
14.34000 19.137
14.36000 4.317
14.38000 4.462
14.40000 9.597
14.42000 11.194
14.44000 17.574
14.46000 8.040
14.48000 6.114
14.50000 3.598
14.52000 2.312
14.54000 -1.835
14.56000 6.571
14.58000 12.820
14.60000 12.574
14.62000 3.163
14.64000 -3.133
14.66000 5.658
14.68000 8.324
14.70000 6.284
14.72000 9.962
14.74000 2.500
14.76000 6.352
14.78000 11.628
14.80000 13.121
14.82000 11.275
14.84000 15.879
14.86000 11.463
14.88000 10.948
14.90000 4.489
14.92000 7.358
14.94000 13.769
14.96000 7.507
14.98000 8.392
15.00000 6.421
15.02000 11.376
15.04000 6.056
15.06000 15.831
15.08000 8.209
15.10000 8.065
15.12000 0.027
15.14000 -0.554
15.16000 -2.627
15.18000 7.567
15.20000 15.698
15.22000 11.794
15.24000 16.054
15.26000 15.431
15.28000 0.827
15.30000 1.169
15.32000 6.463
15.34000 9.363
15.36000 3.912
15.38000 3.895
15.40000 3.859
15.42000 5.466
15.44000 11.383
15.46000 11.241
15.48000 3.322
15.50000 3.742
15.52000 6.296
15.54000 6.261
15.56000 4.171
15.58000 2.975
15.60000 3.206
15.62000 -4.490
15.64000 1.298
15.66000 2.961
15.68000 8.574
15.70000 13.052
15.72000 12.066
15.74000 7.920
15.76000 6.443
15.78000 15.970
15.80000 8.042
15.82000 5.015
15.84000 10.498
15.86000 7.454
15.88000 1.583
15.90000 1.080
15.92000 3.956
15.94000 9.390
15.96000 13.141
15.98000 9.269
16.00000 4.470
16.02000 -3.386
16.04000 -1.578
16.06000 3.505
16.08000 6.459
16.10000 -0.447
16.12000 -0.636
16.14000 6.539
16.16000 20.375
16.18000 10.172
16.20000 4.654
16.22000 -4.462
16.24000 -3.117
16.26000 1.626
16.28000 8.931
16.30000 2.782
16.32000 0.983
16.34000 -2.605
16.36000 6.497
16.38000 7.555
16.40000 5.927
16.42000 8.316
16.44000 7.471
16.46000 5.283
16.48000 1.152
16.50000 8.190
16.52000 4.434
16.54000 7.829
16.56000 3.926
16.58000 4.213
16.60000 -2.228
16.62000 -2.254
16.64000 -2.102
16.66000 8.007
16.68000 4.646
16.70000 4.498
16.72000 -0.985
16.74000 9.205
16.76000 9.499
16.78000 8.683
16.80000 13.239
16.82000 9.411
16.84000 -1.021
16.86000 2.629
16.88000 4.660
16.90000 4.781
16.92000 15.138
16.94000 10.502
16.96000 0.898
16.98000 -4.442
17.00000 -3.042
17.02000 -0.063
17.04000 3.414
17.06000 1.005
17.08000 13.109
17.10000 15.557
17.12000 4.858
17.14000 3.226
17.16000 5.097
17.18000 11.243
17.20000 14.309
17.22000 5.891
17.24000 -2.772
17.26000 0.884
17.28000 -0.017
17.30000 2.556
17.32000 12.642
17.34000 5.124
17.36000 -0.435
17.38000 5.644
17.40000 9.998
17.42000 4.442
17.44000 4.178
17.46000 10.803
17.48000 7.261
17.50000 2.646
17.52000 6.109
17.54000 14.452
17.56000 11.234
17.58000 4.877
17.60000 5.787
17.62000 11.939
17.64000 17.710
17.66000 11.745
17.68000 9.991
17.70000 9.555
17.72000 9.276
17.74000 5.468
17.76000 6.426
17.78000 15.011
17.80000 8.576
17.82000 6.656
17.84000 12.846
17.86000 3.110
17.88000 -3.839
17.90000 -3.767
17.92000 -4.388
17.94000 0.895
17.96000 3.275
17.98000 7.099
18.00000 5.290
18.02000 3.933
18.04000 8.233
18.06000 13.842
18.08000 5.262
18.10000 0.629
18.12000 2.641
18.14000 10.321
18.16000 7.204
18.18000 7.298
18.20000 12.791
18.22000 1.892
18.24000 0.534
18.26000 8.264
18.28000 -2.841
18.30000 3.088
18.32000 2.485
18.34000 -0.748
18.36000 1.751
18.38000 12.069
18.40000 5.587
18.42000 3.508
18.44000 3.299
18.46000 3.363
18.48000 1.269
18.50000 -3.233
18.52000 -0.508
18.54000 2.099
18.56000 0.544
18.58000 2.568
18.60000 3.591
18.62000 6.716
18.64000 3.145
18.66000 1.591
18.68000 -2.966
18.70000 0.354
18.72000 13.620
18.74000 9.191
18.76000 12.095
18.78000 10.053
18.80000 6.980
18.82000 1.189
18.84000 2.044
18.86000 4.531
18.88000 5.584
18.90000 9.164
18.92000 2.873
18.94000 3.830
18.96000 0.535
18.98000 -1.070
19.00000 -2.784
19.02000 -4.324
19.04000 2.790
19.06000 6.960
19.08000 8.077
19.10000 6.737
19.12000 -4.320
19.14000 -1.557
19.16000 2.012
19.18000 2.141
19.20000 6.840
19.22000 9.587
19.24000 10.557
19.26000 9.388
19.28000 11.122
19.30000 7.667
19.32000 6.195
19.34000 2.385
19.36000 1.031
19.38000 4.065
19.40000 2.752
19.42000 5.326
19.44000 7.458
19.46000 8.472
19.48000 5.281
19.50000 1.632
19.52000 2.951
19.54000 2.539
19.56000 4.433
19.58000 1.357
19.60000 10.233
19.62000 8.672
19.64000 8.946
19.66000 12.811
19.68000 6.730
19.70000 8.510
19.72000 8.309
19.74000 2.678
19.76000 0.036
19.78000 2.641
19.80000 2.681
19.82000 2.582
19.84000 -1.849
19.86000 -2.863
19.88000 -2.705
19.90000 -4.277
19.92000 -0.223
19.94000 1.901
19.96000 11.293
19.98000 0.490
20.00000 3.904
20.02000 8.276
20.04000 -0.334
20.06000 3.517
20.08000 4.592
20.10000 3.976
20.12000 0.862
20.14000 7.232
20.16000 9.012
20.18000 6.420
20.20000 -2.463
20.22000 7.923
20.24000 13.919
20.26000 13.020
20.28000 2.960
20.30000 8.219
20.32000 9.125
20.34000 5.964
20.36000 9.724
20.38000 7.200
20.40000 1.343
20.42000 -3.741
20.44000 0.581
20.46000 4.834
20.48000 0.761
20.50000 -2.896
20.52000 -1.064
20.54000 5.173
20.56000 7.035
20.58000 5.608
20.60000 1.696
20.62000 6.484
20.64000 9.037
20.66000 8.539
20.68000 1.604
20.70000 10.284
20.72000 13.377
20.74000 8.826
20.76000 3.478
20.78000 7.007
20.80000 -0.411
20.82000 -4.248
20.84000 -2.598
20.86000 -1.302
20.88000 0.822
20.90000 1.793
20.92000 -0.556
20.94000 0.328
20.96000 2.829
20.98000 6.785
21.00000 3.555
21.02000 0.688
21.04000 6.782
21.06000 10.360
21.08000 4.448
21.10000 2.730
21.12000 5.799
21.14000 4.910
21.16000 6.168
21.18000 6.017
21.20000 6.072
21.22000 2.004
21.24000 0.312
21.26000 2.475
21.28000 -2.350
21.30000 1.020
21.32000 3.383
21.34000 1.643
21.36000 -3.795
21.38000 -1.405
21.40000 0.311
21.42000 4.809
21.44000 -1.900
21.46000 -4.209
21.48000 -2.403
21.50000 2.788
21.52000 3.752
21.54000 -0.708
21.56000 0.323
21.58000 7.854
21.60000 7.947
21.62000 0.132
21.64000 4.111
21.66000 3.858
21.68000 6.882
21.70000 6.334
21.72000 7.604
21.74000 5.870
21.76000 6.970
21.78000 5.063
21.80000 6.835
21.82000 2.442
21.84000 -3.820
21.86000 -0.271
21.88000 3.414
21.90000 3.147
21.92000 0.421
21.94000 3.527
21.96000 4.437
21.98000 4.257
22.00000 6.639
22.02000 3.914
22.04000 5.170
22.06000 10.854
22.08000 3.359
22.10000 -4.159
22.12000 1.418
22.14000 3.046
22.16000 3.943
22.18000 2.370
22.20000 2.225
22.22000 0.069
22.24000 -1.719
22.26000 -0.986
22.28000 -0.314
22.30000 3.131
22.32000 7.384
22.34000 1.181
22.36000 1.711
22.38000 4.031
22.40000 0.450
22.42000 1.615
22.44000 -3.241
22.46000 -3.370
22.48000 0.907
22.50000 0.182
22.52000 3.510
22.54000 7.228
22.56000 8.848
22.58000 4.875
22.60000 -0.938
22.62000 1.047
22.64000 2.460
22.66000 10.017
22.68000 7.726
22.70000 7.935
22.72000 7.123
22.74000 1.110
22.76000 7.957
22.78000 15.414
22.80000 12.751
22.82000 2.515
22.84000 0.129
22.86000 0.982
22.88000 4.361
22.90000 -0.048
22.92000 4.999
22.94000 1.610
22.96000 -1.796
22.98000 9.049
23.00000 7.226
23.02000 4.434
23.04000 -1.647
23.06000 -0.393
23.08000 3.000
23.10000 4.287
23.12000 3.506
23.14000 7.273
23.16000 3.773
23.18000 2.432
23.20000 -0.243
23.22000 2.203
23.24000 5.834
23.26000 12.027
23.28000 6.081
23.30000 2.964
23.32000 -0.346
23.34000 2.491
23.36000 7.503
23.38000 -1.334
23.40000 -4.083
23.42000 0.604
23.44000 3.965
23.46000 8.480
23.48000 3.997
23.50000 4.728
23.52000 4.997
23.54000 5.377
23.56000 2.042
23.58000 3.979
23.60000 1.425
23.62000 1.101
23.64000 -0.463
23.66000 2.494
23.68000 0.161
23.70000 -3.573
23.72000 -1.389
23.74000 5.429
23.76000 4.136
23.78000 4.747
23.80000 3.503
23.82000 1.702
23.84000 3.838
23.86000 7.407
23.88000 4.834
23.90000 -0.456
23.92000 -0.761
23.94000 4.865
23.96000 7.632
23.98000 4.721
24.00000 1.094
24.02000 2.387
24.04000 5.188
24.06000 5.426
24.08000 -2.077
24.10000 0.731
24.12000 -0.186
24.14000 2.814
24.16000 2.809
24.18000 1.153
24.20000 4.684
24.22000 4.108
24.24000 4.053
24.26000 -0.055
24.28000 -4.048
24.30000 0.108
24.32000 6.146
24.34000 2.428
24.36000 -2.764
24.38000 -2.662
24.40000 2.551
24.42000 6.490
24.44000 3.902
24.46000 -3.343
24.48000 4.373
24.50000 5.484
24.52000 6.938
24.54000 12.248
24.56000 6.856
24.58000 4.000
24.60000 7.165
24.62000 9.780
24.64000 6.807
24.66000 -1.242
24.68000 0.528
24.70000 2.622
24.72000 2.850
24.74000 4.418
24.76000 4.551
24.78000 4.024
24.80000 4.006
24.82000 5.052
24.84000 0.062
24.86000 -1.852
24.88000 0.304
24.90000 1.610
24.92000 1.487
24.94000 1.159
24.96000 -0.417
24.98000 2.975
25.00000 3.954
25.02000 0.859
25.04000 -1.146
25.06000 -1.148
25.08000 3.295
25.10000 1.584
25.12000 -0.234
25.14000 0.111
25.16000 0.951
25.18000 3.877
25.20000 7.691
25.22000 5.981
25.24000 0.130
25.26000 4.212
25.28000 6.895
25.30000 7.841
25.32000 2.620
25.34000 0.462
25.36000 -2.417
25.38000 2.108
25.40000 9.378
25.42000 10.461
25.44000 11.129
25.46000 10.603
25.48000 8.841
25.50000 7.786
25.52000 9.883
25.54000 7.166
25.56000 0.180
25.58000 -0.826
25.60000 -3.600
25.62000 3.097
25.64000 6.110
25.66000 4.442
25.68000 -3.297
25.70000 -3.924
25.72000 -0.434
25.74000 5.017
25.76000 8.305
25.78000 8.844
25.80000 10.956
25.82000 10.070
25.84000 4.645
25.86000 7.273
25.88000 6.926
25.90000 3.451
25.92000 5.112
25.94000 1.281
25.96000 0.747
25.98000 2.799
26.00000 6.335
26.02000 5.233
26.04000 7.343
26.06000 10.843
26.08000 9.152
26.10000 1.856
26.12000 -1.002
26.14000 3.679
26.16000 5.589
26.18000 7.393
26.20000 6.008
26.22000 4.902
26.24000 2.415
26.26000 4.619
26.28000 9.123
26.30000 5.990
26.32000 4.395
26.34000 2.828
26.36000 -0.416
26.38000 3.503
26.40000 6.399
26.42000 7.489
26.44000 3.990
26.46000 3.073
26.48000 0.385
26.50000 0.324
26.52000 -0.089
26.54000 0.970
26.56000 0.711
26.58000 -1.108
26.60000 0.424
26.62000 -0.272
26.64000 4.137
26.66000 1.022
26.68000 -2.788
26.70000 -3.466
26.72000 -0.246
26.74000 5.092
26.76000 4.995
26.78000 2.090
26.80000 5.744
26.82000 4.767
26.84000 6.199
26.86000 2.686
26.88000 2.232
26.90000 4.839
26.92000 -0.527
26.94000 0.248
26.96000 1.824
26.98000 6.362
27.00000 3.321
27.02000 5.477
27.04000 2.304
27.06000 -0.635
27.08000 3.293
27.10000 -0.591
27.12000 -1.795
27.14000 -0.014
27.16000 1.557
27.18000 4.343
27.20000 2.223
27.22000 0.669
27.24000 5.160
27.26000 2.745
27.28000 0.358
27.30000 -1.929
27.32000 -0.415
27.34000 -0.602
27.36000 0.844
27.38000 1.272
27.40000 3.630
27.42000 4.452
27.44000 2.151
27.46000 4.077
27.48000 4.435
27.50000 5.145
27.52000 4.196
27.54000 4.259
27.56000 4.376
27.58000 2.788
27.60000 0.431
27.62000 -3.433
27.64000 -3.278
27.66000 -2.977
27.68000 -1.992
27.70000 3.910
27.72000 6.695
27.74000 6.265
27.76000 0.841
27.78000 2.088
27.80000 2.600
27.82000 -1.526
27.84000 -2.776
27.86000 -0.950
27.88000 2.832
27.90000 5.584
27.92000 4.841
27.94000 1.095
27.96000 0.752
27.98000 2.885
28.00000 0.227
28.02000 -1.030
28.04000 -3.828
28.06000 0.128
28.08000 1.874
28.10000 3.335
28.12000 -0.198
28.14000 5.555
28.16000 8.776
28.18000 8.372
28.20000 8.534
28.22000 4.085
28.24000 3.238
28.26000 6.342
28.28000 6.455
28.30000 0.780
28.32000 -3.545
28.34000 1.055
28.36000 0.514
28.38000 1.175
28.40000 6.099
28.42000 2.707
28.44000 4.416
28.46000 6.337
28.48000 7.739
28.50000 3.336
28.52000 2.708
28.54000 -0.835
28.56000 3.074
28.58000 6.465
28.60000 -0.805
28.62000 -1.254
28.64000 -3.794
28.66000 0.350
28.68000 6.785
28.70000 7.663
28.72000 0.323
28.74000 4.000
28.76000 4.448
28.78000 2.458
28.80000 5.832
28.82000 1.963
28.84000 2.967
28.86000 8.394
28.88000 8.222
28.90000 3.392
28.92000 1.113
28.94000 4.687
28.96000 2.995
28.98000 2.511
29.00000 0.151
29.02000 0.636
29.04000 1.418
29.06000 5.841
29.08000 6.734
29.10000 2.435
29.12000 1.949
29.14000 0.349
29.16000 3.408
29.18000 6.338
29.20000 5.709
29.22000 5.952
29.24000 2.916
29.26000 4.093
29.28000 2.955
29.30000 1.562
29.32000 6.427
29.34000 9.170
29.36000 5.133
29.38000 3.443
29.40000 -3.735
29.42000 1.893
29.44000 11.340
29.46000 13.372
29.48000 9.284
29.50000 3.523
29.52000 0.343
29.54000 3.863
29.56000 8.119
29.58000 8.556
29.60000 8.691
29.62000 7.420
29.64000 6.500
29.66000 8.197
29.68000 5.009
29.70000 1.007
29.72000 0.505
29.74000 4.119
29.76000 2.081
29.78000 -3.715
29.80000 -1.637
29.82000 1.343
29.84000 8.321
29.86000 6.715
29.88000 0.899
29.90000 7.727
29.92000 4.431
29.94000 1.205
29.96000 1.790
29.98000 3.962
30.00000 4.874
30.02000 3.504
30.04000 3.708
30.06000 -0.458
30.08000 3.803
30.10000 4.958
30.12000 7.390
30.14000 0.415
30.16000 1.800
30.18000 9.296
30.20000 3.002
30.22000 3.184
30.24000 1.492
30.26000 0.627
30.28000 -0.362
30.30000 4.138
30.32000 3.879
30.34000 1.440
30.36000 5.758
30.38000 5.513
30.40000 -2.127
30.42000 -1.583
30.44000 1.332
30.46000 1.720
30.48000 0.426
30.50000 -1.691
30.52000 -2.149
30.54000 0.997
30.56000 -0.334
30.58000 -0.565
30.60000 -3.072
30.62000 -0.438
30.64000 1.402
30.66000 -1.043
30.68000 -1.631
30.70000 -1.885
30.72000 0.661
30.74000 1.536
30.76000 1.897
30.78000 -3.064
30.80000 0.157
30.82000 -2.102
30.84000 2.822
30.86000 -1.938
30.88000 -2.473
30.90000 1.597
30.92000 4.557
30.94000 4.827
30.96000 -1.652
30.98000 -3.703
31.00000 3.806
31.02000 2.398
31.04000 2.464
31.06000 1.379
31.08000 1.536
31.10000 -2.602
31.12000 1.505
31.14000 2.358
31.16000 -1.652
31.18000 -0.509
31.20000 -3.298
31.22000 -2.761
31.24000 1.511
31.26000 0.434
31.28000 -0.255
31.30000 -1.203
31.32000 -0.420
31.34000 4.175
31.36000 3.943
31.38000 0.562
31.40000 -1.902
31.42000 6.266
31.44000 2.311
31.46000 0.360
31.48000 1.384
31.50000 2.223
31.52000 7.901
31.54000 4.560
31.56000 3.019
31.58000 3.959
31.60000 2.974
31.62000 0.143
31.64000 2.596
31.66000 3.153
31.68000 3.427
31.70000 -1.806
31.72000 -3.365
31.74000 0.144
31.76000 4.347
31.78000 -0.725
31.80000 2.430
31.82000 0.699
31.84000 1.683
31.86000 -2.735
31.88000 0.880
31.90000 3.098
31.92000 1.714
31.94000 1.682
31.96000 4.773
31.98000 1.623
32.00000 4.602
32.02000 -3.642
32.04000 0.576
32.06000 5.612
32.08000 2.779
32.10000 -0.147
32.12000 1.146
32.14000 -0.970
32.16000 0.321
32.18000 2.728
32.20000 -0.267
32.22000 5.189
32.24000 1.928
32.26000 5.257
32.28000 1.690
32.30000 3.363
32.32000 3.652
32.34000 0.675
32.36000 2.436
32.38000 2.979
32.40000 -1.308
32.42000 3.972
32.44000 5.322
32.46000 5.983
32.48000 8.704
32.50000 7.604
32.52000 7.375
32.54000 1.888
32.56000 0.918
32.58000 3.162
32.60000 5.022
32.62000 8.474
32.64000 3.576
32.66000 1.097
32.68000 3.084
32.70000 -0.473
32.72000 0.047
32.74000 2.933
32.76000 8.319
32.78000 7.030
32.80000 2.109
32.82000 0.023
32.84000 -1.552
32.86000 -3.611
32.88000 -1.488
32.90000 2.243
32.92000 0.674
32.94000 0.824
32.96000 1.681
32.98000 0.288
33.00000 3.013
33.02000 5.796
33.04000 -0.412
33.06000 1.299
33.08000 1.217
33.10000 2.720
33.12000 -2.897
33.14000 -2.296
33.16000 -1.819
33.18000 -0.815
33.20000 -3.549
33.22000 -2.873
33.24000 0.828
33.26000 2.447
33.28000 -0.022
33.30000 1.681
33.32000 3.365
33.34000 0.398
33.36000 -1.370
33.38000 0.899
33.40000 2.210
33.42000 8.392
33.44000 8.158
33.46000 3.933
33.48000 5.623
33.50000 3.234
33.52000 5.808
33.54000 5.790
33.56000 1.806
33.58000 2.782
33.60000 5.490
33.62000 2.685
33.64000 5.715
33.66000 7.314
33.68000 4.580
33.70000 2.159
33.72000 8.184
33.74000 5.719
33.76000 5.319
33.78000 1.051
33.80000 -3.627
33.82000 1.419
33.84000 2.493
33.86000 0.340
33.88000 -1.647
33.90000 1.138
33.92000 4.254
33.94000 3.375
33.96000 -0.756
33.98000 2.428
34.00000 3.315
34.02000 2.811
34.04000 1.846
34.06000 -0.793
34.08000 5.334
34.10000 1.683
34.12000 4.954
34.14000 3.952
34.16000 4.678
34.18000 3.780
34.20000 5.900
34.22000 2.664
34.24000 0.164
34.26000 -0.899
34.28000 0.623
34.30000 5.578
34.32000 3.302
34.34000 2.091
34.36000 4.818
34.38000 5.289
34.40000 4.415
34.42000 3.226
34.44000 6.261
34.46000 0.796
34.48000 -3.088
34.50000 -0.735
34.52000 1.741
34.54000 1.272
34.56000 -2.241
34.58000 -2.500
34.60000 0.238
34.62000 0.567
34.64000 2.953
34.66000 2.000
34.68000 0.443
34.70000 3.040
34.72000 3.318
34.74000 -2.480
34.76000 -0.756
34.78000 -2.567
34.80000 0.346
34.82000 4.723
34.84000 3.480
34.86000 4.480
34.88000 6.920
34.90000 7.074
34.92000 4.221
34.94000 1.002
34.96000 0.855
34.98000 0.951
35.00000 2.551
35.02000 3.177
35.04000 4.626
35.06000 2.477
35.08000 -3.576
35.10000 1.535
35.12000 6.135
35.14000 6.603
35.16000 4.778
35.18000 1.708
35.20000 7.714
35.22000 4.840
35.24000 2.080
35.26000 8.359
35.28000 7.787
35.30000 2.134
35.32000 -0.161
35.34000 3.022
35.36000 6.652
35.38000 4.687
35.40000 3.340
35.42000 6.328
35.44000 0.920
35.46000 -2.987
35.48000 -3.486
35.50000 6.625
35.52000 3.492
35.54000 0.976
35.56000 2.527
35.58000 2.782
35.60000 6.000
35.62000 4.489
35.64000 3.983
35.66000 4.385
35.68000 8.304
35.70000 5.859
35.72000 7.471
35.74000 7.475
35.76000 6.579
35.78000 4.158
35.80000 6.938
35.82000 2.049
35.84000 0.964
35.86000 -2.794
35.88000 -0.023
35.90000 -3.582
35.92000 2.089
35.94000 5.768
35.96000 7.441
35.98000 7.120
36.00000 3.863
36.02000 -0.459
36.04000 -0.804
36.06000 -0.015
36.08000 3.277
36.10000 7.430
36.12000 2.049
36.14000 7.018
36.16000 6.309
36.18000 3.104
36.20000 -0.751
36.22000 1.155
36.24000 3.316
36.26000 1.741
36.28000 1.465
36.30000 1.104
36.32000 3.497
36.34000 -1.978
36.36000 -2.032
36.38000 -1.527
36.40000 4.803
36.42000 7.235
36.44000 1.260
36.46000 0.617
36.48000 -0.483
36.50000 -3.620
36.52000 1.385
36.54000 3.781
36.56000 3.029
36.58000 1.693
36.60000 2.181
36.62000 -0.578
36.64000 1.354
36.66000 -3.571
36.68000 -3.504
36.70000 1.191
36.72000 -1.247
36.74000 4.670
36.76000 4.454
36.78000 0.123
36.80000 2.219
36.82000 1.357
36.84000 -0.954
36.86000 2.542
36.88000 3.044
36.90000 -0.278
36.92000 2.114
36.94000 5.935
36.96000 2.045
36.98000 1.365
37.00000 0.606
37.02000 -1.221
37.04000 0.907
37.06000 1.721
37.08000 1.290
37.10000 6.583
37.12000 4.878
37.14000 4.240
37.16000 6.555
37.18000 6.281
37.20000 4.887
37.22000 -3.646
37.24000 1.606
37.26000 5.986
37.28000 7.154
37.30000 2.667
37.32000 2.374
37.34000 6.339
37.36000 11.287
37.38000 8.355
37.40000 2.495
37.42000 2.327
37.44000 3.459
37.46000 1.086
37.48000 4.408
37.50000 8.485
37.52000 5.952
37.54000 7.673
37.56000 10.954
37.58000 12.520
37.60000 15.055
37.62000 11.449
37.64000 10.223
37.66000 14.221
37.68000 15.062
37.70000 11.844
37.72000 14.845
37.74000 18.110
37.76000 10.616
37.78000 15.524
37.80000 20.148
37.82000 17.490
37.84000 23.001
37.86000 17.882
37.88000 13.576
37.90000 16.133
37.92000 20.053
37.94000 18.650
37.96000 14.672
37.98000 14.594
38.00000 14.853
38.02000 23.255
38.04000 26.656
38.06000 28.916
38.08000 22.182
38.10000 24.186
38.12000 29.301
38.14000 25.346
38.16000 24.393
38.18000 25.318
38.20000 29.390
38.22000 27.555
38.24000 29.354
38.26000 29.496
38.28000 29.651
38.30000 34.663
38.32000 31.318
38.34000 34.148
38.36000 33.492
38.38000 36.462
38.40000 34.558
38.42000 36.004
38.44000 39.837
38.46000 43.134
38.48000 42.505
38.50000 46.039
38.52000 51.053
38.54000 52.200
38.56000 52.481
38.58000 47.621
38.60000 54.443
38.62000 55.580
38.64000 50.713
38.66000 54.386
38.68000 66.803
38.70000 68.272
38.72000 67.132
38.74000 60.251
38.76000 66.124
38.78000 72.764
38.80000 76.738
38.82000 78.721
38.84000 82.481
38.86000 85.139
38.88000 89.546
38.90000 95.304
38.92000 107.580
38.94000 101.246
38.96000 112.129
38.98000 110.477
39.00000 112.318
39.02000 123.878
39.04000 131.420
39.06000 131.229
39.08000 136.144
39.10000 148.170
39.12000 153.392
39.14000 154.858
39.16000 163.491
39.18000 175.144
39.20000 190.785
39.22000 190.840
39.24000 195.060
39.26000 210.276
39.28000 224.591
39.30000 237.132
39.32000 246.822
39.34000 262.601
39.36000 269.030
39.38000 283.018
39.40000 301.391
39.42000 315.270
39.44000 321.358
39.46000 336.785
39.48000 355.698
39.50000 375.837
39.52000 397.619
39.54000 416.172
39.56000 430.152
39.58000 450.901
39.60000 471.151
39.62000 487.860
39.64000 503.997
39.66000 523.893
39.68000 548.385
39.70000 572.998
39.72000 589.237
39.74000 608.051
39.76000 623.405
39.78000 635.980
39.80000 652.944
39.82000 661.906
39.84000 671.582
39.86000 669.540
39.88000 679.417
39.90000 689.340
39.92000 696.780
39.94000 698.564
39.96000 686.100
39.98000 674.827
40.00000 673.023
40.02000 664.884
40.04000 656.325
40.06000 652.156
40.08000 643.787
40.10000 626.003
40.12000 615.035
40.14000 597.202
40.16000 573.413
40.18000 551.066
40.20000 534.318
40.22000 521.963
40.24000 496.626
40.26000 481.035
40.28000 468.928
40.30000 445.963
40.32000 419.451
40.34000 390.201
40.36000 379.047
40.38000 366.316
40.40000 344.563
40.42000 329.522
40.44000 308.730
40.46000 286.254
40.48000 281.320
40.50000 263.526
40.52000 248.600
40.54000 234.311
40.56000 215.092
40.58000 195.793
40.60000 190.832
40.62000 188.480
40.64000 178.964
40.66000 171.946
40.68000 148.773
40.70000 146.966
40.72000 139.389
40.74000 127.188
40.76000 120.617
40.78000 116.935
40.80000 110.324
40.82000 109.830
40.84000 96.792
40.86000 88.481
40.88000 85.539
40.90000 81.415
40.92000 84.198
40.94000 78.784
40.96000 69.731
40.98000 63.988
41.00000 68.447
41.02000 68.369
41.04000 63.927
41.06000 59.591
41.08000 53.880
41.10000 44.328
41.12000 46.601
41.14000 48.546
41.16000 42.511
41.18000 43.395
41.20000 40.851
41.22000 34.300
41.24000 31.780
41.26000 35.965
41.28000 35.712
41.30000 34.286
41.32000 32.087
41.34000 28.191
41.36000 26.433
41.38000 20.721
41.40000 21.266
41.42000 20.976
41.44000 23.470
41.46000 22.604
41.48000 17.116
41.50000 20.250
41.52000 20.941
41.54000 19.053
41.56000 20.745
41.58000 18.936
41.60000 12.962
41.62000 11.858
41.64000 17.315
41.66000 16.740
41.68000 13.640
41.70000 15.229
41.72000 13.463
41.74000 9.153
41.76000 7.614
41.78000 11.947
41.80000 9.134
41.82000 9.676
41.84000 12.846
41.86000 11.134
41.88000 7.874
41.90000 7.144
41.92000 9.943
41.94000 11.379
41.96000 10.359
41.98000 7.291
42.00000 2.949
42.02000 4.032
42.04000 7.894
42.06000 7.004
42.08000 9.202
42.10000 9.559
42.12000 7.110
42.14000 9.135
42.16000 6.348
42.18000 2.688
42.20000 -3.479
42.22000 4.046
42.24000 6.403
42.26000 7.055
42.28000 6.883
42.30000 9.778
42.32000 7.368
42.34000 6.994
42.36000 1.063
42.38000 3.310
42.40000 5.474
42.42000 6.233
42.44000 4.525
42.46000 3.541
42.48000 -0.218
42.50000 0.798
42.52000 2.945
42.54000 0.872
42.56000 1.186
42.58000 3.515
42.60000 2.999
42.62000 5.646
42.64000 5.358
42.66000 0.043
42.68000 3.180
42.70000 3.056
42.72000 0.784
42.74000 3.258
42.76000 3.849
42.78000 3.930
42.80000 2.361
42.82000 2.700
42.84000 2.127
42.86000 0.889
42.88000 2.684
42.90000 2.474
42.92000 2.929
42.94000 1.354
42.96000 0.887
42.98000 0.417
43.00000 -0.885
43.02000 1.105
43.04000 0.445
43.06000 -3.167
43.08000 -3.416
43.10000 0.516
43.12000 0.341
43.14000 1.641
43.16000 1.576
43.18000 -2.809
43.20000 -0.395
43.22000 0.854
43.24000 0.923
43.26000 2.089
43.28000 2.355
43.30000 -1.646
43.32000 0.616
43.34000 0.087
43.36000 -3.028
43.38000 -1.073
43.40000 1.825
43.42000 0.518
43.44000 2.398
43.46000 -0.215
43.48000 -2.321
43.50000 -3.377
43.52000 -1.350
43.54000 -1.030
43.56000 0.470
43.58000 -2.524
43.60000 -2.153
43.62000 -3.370
43.64000 -1.103
43.66000 1.173
43.68000 4.050
43.70000 4.588
43.72000 1.631
43.74000 0.990
43.76000 1.772
43.78000 2.648
43.80000 2.263
43.82000 0.464
43.84000 0.192
43.86000 6.902
43.88000 2.792
43.90000 -2.009
43.92000 -2.924
43.94000 1.783
43.96000 0.958
43.98000 4.324
44.00000 4.426
44.02000 -1.439
44.04000 1.082
44.06000 1.092
44.08000 -2.296
44.10000 -1.664
44.12000 1.680
44.14000 2.674
44.16000 1.266
44.18000 3.619
44.20000 1.721
44.22000 1.260
44.24000 1.875
44.26000 2.723
44.28000 4.515
44.30000 4.759
44.32000 3.260
44.34000 3.689
44.36000 2.979
44.38000 0.717
44.40000 -3.342
44.42000 2.215
44.44000 5.150
44.46000 2.753
44.48000 1.829
44.50000 6.144
44.52000 5.228
44.54000 3.443
44.56000 6.472
44.58000 5.589
44.60000 6.484
44.62000 4.561
44.64000 2.425
44.66000 2.665
44.68000 6.917
44.70000 2.577
44.72000 4.884
44.74000 8.068
44.76000 9.138
44.78000 9.211
44.80000 6.440
44.82000 7.954
44.84000 7.308
44.86000 6.092
44.88000 5.126
44.90000 9.718
44.92000 7.748
44.94000 7.756
44.96000 10.584
44.98000 12.194
45.00000 13.843
45.02000 13.027
45.04000 7.499
45.06000 9.295
45.08000 10.760
45.10000 10.204
45.12000 12.239
45.14000 13.273
45.16000 9.262
45.18000 12.249
45.20000 14.681
45.22000 15.785
45.24000 15.389
45.26000 15.137
45.28000 19.578
45.30000 21.586
45.32000 21.762
45.34000 18.398
45.36000 21.009
45.38000 18.030
45.40000 22.851
45.42000 19.889
45.44000 20.235
45.46000 25.456
45.48000 23.250
45.50000 22.104
45.52000 20.263
45.54000 20.697
45.56000 27.708
45.58000 28.241
45.60000 30.255
45.62000 28.634
45.64000 27.143
45.66000 31.392
45.68000 32.014
45.70000 32.612
45.72000 36.698
45.74000 38.390
45.76000 42.451
45.78000 45.052
45.80000 48.286
45.82000 49.377
45.84000 49.903
45.86000 50.368
45.88000 41.705
45.90000 45.278
45.92000 51.548
45.94000 57.493
45.96000 59.435
45.98000 55.119
46.00000 60.706
46.02000 65.519
46.04000 58.045
46.06000 61.480
46.08000 64.384
46.10000 61.777
46.12000 69.827
46.14000 78.673
46.16000 79.392
46.18000 80.404
46.20000 78.716
46.22000 82.373
46.24000 85.416
46.26000 82.321
46.28000 77.788
46.30000 86.153
46.32000 86.548
46.34000 94.896
46.36000 95.038
46.38000 92.277
46.40000 91.148
46.42000 96.900
46.44000 91.422
46.46000 94.219
46.48000 99.315
46.50000 94.222
46.52000 92.965
46.54000 97.821
46.56000 104.923
46.58000 100.834
46.60000 99.711
46.62000 104.558
46.64000 104.270
46.66000 102.659
46.68000 99.032
46.70000 98.216
46.72000 95.582
46.74000 93.948
46.76000 88.441
46.78000 93.580
46.80000 97.913
46.82000 91.096
46.84000 87.383
46.86000 91.458
46.88000 98.082
46.90000 89.434
46.92000 83.826
46.94000 89.758
46.96000 85.329
46.98000 82.691
47.00000 77.624
47.02000 74.311
47.04000 74.018
47.06000 70.027
47.08000 69.153
47.10000 69.235
47.12000 62.078
47.14000 65.848
47.16000 62.217
47.18000 55.376
47.20000 46.841
47.22000 49.304
47.24000 49.325
47.26000 44.991
47.28000 41.924
47.30000 38.682
47.32000 41.183
47.34000 38.121
47.36000 34.709
47.38000 36.629
47.40000 37.989
47.42000 37.428
47.44000 34.661
47.46000 34.982
47.48000 27.439
47.50000 25.432
47.52000 26.572
47.54000 23.458
47.56000 24.453
47.58000 29.165
47.60000 22.529
47.62000 16.418
47.64000 17.345
47.66000 14.937
47.68000 14.589
47.70000 18.703
47.72000 19.699
47.74000 13.747
47.76000 12.502
47.78000 12.875
47.80000 11.101
47.82000 8.047
47.84000 8.353
47.86000 7.902
47.88000 9.283
47.90000 6.522
47.92000 9.375
47.94000 8.487
47.96000 9.287
47.98000 5.745
48.00000 3.064
48.02000 4.921
48.04000 8.124
48.06000 8.453
48.08000 2.162
48.10000 2.394
48.12000 3.470
48.14000 0.502
48.16000 4.201
48.18000 7.760
48.20000 5.998
48.22000 2.881
48.24000 5.188
48.26000 4.265
48.28000 2.684
48.30000 -0.194
48.32000 1.969
48.34000 -1.099
48.36000 -2.993
48.38000 -0.593
48.40000 0.674
48.42000 2.779
48.44000 4.905
48.46000 3.293
48.48000 2.199
48.50000 8.144
48.52000 7.911
48.54000 0.830
48.56000 -0.514
48.58000 -2.957
48.60000 -0.903
48.62000 1.028
48.64000 0.324
48.66000 1.441
48.68000 1.582
48.70000 2.001
48.72000 1.918
48.74000 -0.338
48.76000 -2.672
48.78000 -2.937
48.80000 0.769
48.82000 3.609
48.84000 0.795
48.86000 1.728
48.88000 2.312
48.90000 1.436
48.92000 -1.358
48.94000 -1.007
48.96000 -2.916
48.98000 0.153
49.00000 -0.219
49.02000 -1.219
49.04000 -0.075
49.06000 0.486
49.08000 2.661
49.10000 3.006
49.12000 -0.816
49.14000 1.175
49.16000 0.523
49.18000 -0.645
49.20000 -1.724
49.22000 -2.887
49.24000 -0.494
49.26000 -1.298
49.28000 4.595
49.30000 4.383
49.32000 3.625
49.34000 1.926
49.36000 7.913
49.38000 6.071
49.40000 5.932
49.42000 0.619
49.44000 -1.916
49.46000 -2.708
49.48000 3.002
49.50000 1.603
49.52000 2.141
49.54000 2.763
49.56000 9.194
49.58000 7.089
49.60000 1.262
49.62000 -1.150
49.64000 -2.844
49.66000 0.595
49.68000 6.158
49.70000 3.860
49.72000 -1.274
49.74000 0.374
49.76000 5.977
49.78000 5.110
49.80000 4.320
49.82000 3.044
49.84000 4.562
49.86000 2.085
49.88000 1.250
49.90000 3.504
49.92000 1.746
49.94000 3.162
49.96000 2.990
49.98000 6.554
50.00000 5.204
50.02000 1.321
50.04000 2.368
50.06000 0.513
50.08000 2.139
50.10000 3.924
50.12000 2.863
50.14000 8.632
50.16000 6.293
50.18000 3.899
50.20000 5.624
50.22000 6.883
50.24000 2.605
50.26000 -1.580
50.28000 -1.211
50.30000 0.342
50.32000 -2.770
50.34000 -0.314
50.36000 0.133
50.38000 4.054
50.40000 -2.438
50.42000 -2.401
50.44000 3.750
50.46000 0.822
50.48000 2.155
50.50000 3.084
50.52000 6.328
50.54000 7.546
50.56000 7.212
50.58000 4.476
50.60000 6.277
50.62000 7.358
50.64000 5.766
50.66000 5.087
50.68000 5.128
50.70000 7.019
50.72000 5.417
50.74000 4.891
50.76000 9.371
50.78000 8.376
50.80000 6.989
50.82000 2.730
50.84000 0.074
50.86000 -1.145
50.88000 0.482
50.90000 -0.869
50.92000 -1.906
50.94000 9.331
50.96000 3.477
50.98000 -0.803
51.00000 1.364
51.02000 3.613
51.04000 3.264
51.06000 -1.544
51.08000 -2.735
51.10000 -0.899
51.12000 -0.770
51.14000 0.971
51.16000 3.237
51.18000 3.563
51.20000 3.171
51.22000 4.040
51.24000 5.280
51.26000 -0.947
51.28000 1.056
51.30000 3.539
51.32000 1.265
51.34000 2.756
51.36000 4.533
51.38000 4.105
51.40000 3.161
51.42000 4.125
51.44000 5.499
51.46000 2.561
51.48000 4.547
51.50000 1.661
51.52000 1.392
51.54000 1.379
51.56000 4.680
51.58000 2.169
51.60000 1.781
51.62000 2.591
51.64000 1.886
51.66000 1.102
51.68000 2.885
51.70000 3.388
51.72000 4.848
51.74000 5.413
51.76000 4.411
51.78000 6.943
51.80000 2.707
51.82000 0.441
51.84000 3.523
51.86000 4.707
51.88000 5.453
51.90000 3.488
51.92000 3.541
51.94000 6.932
51.96000 5.018
51.98000 4.956
52.00000 7.174
52.02000 3.016
52.04000 3.376
52.06000 2.953
52.08000 -2.699
52.10000 0.395
52.12000 5.171
52.14000 5.334
52.16000 3.392
52.18000 3.900
52.20000 4.105
52.22000 0.816
52.24000 -1.896
52.26000 0.371
52.28000 -0.064
52.30000 3.118
52.32000 3.383
52.34000 4.126
52.36000 2.965
52.38000 5.176
52.40000 2.021
52.42000 0.535
52.44000 1.110
52.46000 1.994
52.48000 -0.613
52.50000 5.643
52.52000 4.560
52.54000 5.528
52.56000 5.259
52.58000 3.579
52.60000 -0.765
52.62000 2.051
52.64000 3.982
52.66000 4.926
52.68000 2.029
52.70000 1.113
52.72000 2.585
52.74000 2.152
52.76000 -1.023
52.78000 -1.624
52.80000 3.553
52.82000 3.982
52.84000 5.006
52.86000 8.458
52.88000 7.036
52.90000 3.611
52.92000 2.420
52.94000 7.000
52.96000 5.371
52.98000 3.995
53.00000 1.849
53.02000 10.594
53.04000 9.325
53.06000 5.882
53.08000 3.447
53.10000 4.361
53.12000 3.785
53.14000 4.963
53.16000 5.532
53.18000 -0.935
53.20000 -2.666
53.22000 5.374
53.24000 4.602
53.26000 -0.514
53.28000 5.238
53.30000 5.489
53.32000 3.285
53.34000 5.787
53.36000 6.179
53.38000 6.627
53.40000 3.958
53.42000 5.287
53.44000 5.715
53.46000 1.539
53.48000 -1.616
53.50000 3.677
53.52000 2.257
53.54000 2.199
53.56000 0.430
53.58000 -2.663
53.60000 0.286
53.62000 2.131
53.64000 1.772
53.66000 2.439
53.68000 1.351
53.70000 3.674
53.72000 4.181
53.74000 -1.273
53.76000 2.695
53.78000 4.106
53.80000 0.205
53.82000 1.489
53.84000 2.622
53.86000 3.984
53.88000 5.486
53.90000 4.525
53.92000 1.510
53.94000 1.070
53.96000 0.663
53.98000 -0.168
54.00000 1.470
54.02000 1.382
54.04000 0.227
54.06000 4.606
54.08000 2.982
54.10000 1.028
54.12000 0.791
54.14000 0.623
54.16000 2.501
54.18000 0.687
54.20000 3.780
54.22000 3.482
54.24000 5.272
54.26000 2.923
54.28000 4.086
54.30000 0.561
54.32000 1.512
54.34000 4.323
54.36000 0.078
54.38000 0.873
54.40000 -1.220
54.42000 4.531
54.44000 3.324
54.46000 3.676
54.48000 4.884
54.50000 4.214
54.52000 -2.335
54.54000 -2.647
54.56000 2.873
54.58000 4.842
54.60000 7.912
54.62000 2.536
54.64000 6.204
54.66000 2.899
54.68000 2.647
54.70000 0.998
54.72000 4.490
54.74000 4.941
54.76000 4.805
54.78000 3.715
54.80000 1.187
54.82000 0.868
54.84000 5.129
54.86000 0.957
54.88000 2.732
54.90000 5.979
54.92000 0.545
54.94000 -0.297
54.96000 0.059
54.98000 1.524
55.00000 -0.105
55.02000 1.279
55.04000 3.643
55.06000 0.569
55.08000 4.993
55.10000 4.625
55.12000 2.547
55.14000 1.727
55.16000 3.148
55.18000 2.404
55.20000 -0.814
55.22000 1.753
55.24000 8.414
55.26000 4.951
55.28000 2.379
55.30000 3.874
55.32000 2.351
55.34000 2.093
55.36000 2.511
55.38000 7.308
55.40000 7.836
55.42000 3.130
55.44000 3.293
55.46000 5.437
55.48000 10.278
55.50000 4.016
55.52000 -0.579
55.54000 -2.588
55.56000 -0.642
55.58000 4.640
55.60000 3.768
55.62000 1.919
55.64000 2.340
55.66000 5.412
55.68000 4.898
55.70000 4.015
55.72000 2.656
55.74000 4.439
55.76000 3.225
55.78000 2.200
55.80000 -0.931
55.82000 2.152
55.84000 -1.042
55.86000 0.591
55.88000 4.408
55.90000 4.496
55.92000 0.731
55.94000 3.495
55.96000 3.558
55.98000 1.997
56.00000 2.916
56.02000 5.485
56.04000 6.434
56.06000 1.879
56.08000 1.888
56.10000 2.535
56.12000 -2.568
56.14000 0.477
56.16000 2.555
56.18000 3.755
56.20000 1.221
56.22000 5.046
56.24000 4.930
56.26000 3.242
56.28000 1.570
56.30000 3.742
56.32000 6.346
56.34000 5.322
56.36000 0.416
56.38000 3.907
56.40000 3.903
56.42000 3.611
56.44000 4.972
56.46000 4.346
56.48000 5.323
56.50000 5.552
56.52000 1.655
56.54000 5.797
56.56000 6.815
56.58000 2.687
56.60000 3.157
56.62000 -0.491
56.64000 0.603
56.66000 -1.898
56.68000 -2.555
56.70000 -0.001
56.72000 2.994
56.74000 4.379
56.76000 4.770
56.78000 5.528
56.80000 7.238
56.82000 7.948
56.84000 4.791
56.86000 2.015
56.88000 1.718
56.90000 1.100
56.92000 5.801
56.94000 5.098
56.96000 1.039
56.98000 2.568
57.00000 -0.762
57.02000 0.661
57.04000 -1.226
57.06000 -2.113
57.08000 0.987
57.10000 -1.916
57.12000 -0.448
57.14000 1.879
57.16000 1.890
57.18000 1.640
57.20000 4.592
57.22000 6.324
57.24000 5.340
57.26000 1.604
57.28000 2.535
57.30000 5.328
57.32000 3.490
57.34000 -2.223
57.36000 -0.007
57.38000 4.121
57.40000 -0.653
57.42000 5.283
57.44000 2.116
57.46000 -0.113
57.48000 1.909
57.50000 3.576
57.52000 -2.533
57.54000 -0.347
57.56000 1.915
57.58000 5.215
57.60000 5.359
57.62000 5.618
57.64000 4.398
57.66000 1.320
57.68000 2.516
57.70000 4.629
57.72000 1.789
57.74000 -2.121
57.76000 -2.551
57.78000 1.749
57.80000 0.564
57.82000 1.454
57.84000 -0.583
57.86000 -0.644
57.88000 -1.022
57.90000 3.662
57.92000 4.074
57.94000 2.898
57.96000 -1.052
57.98000 -1.326
58.00000 -0.640
58.02000 3.782
58.04000 5.690
58.06000 1.333
58.08000 -1.892
58.10000 -0.374
58.12000 0.166
58.14000 1.771
58.16000 1.264
58.18000 -1.336
58.20000 -1.193
58.22000 -1.838
58.24000 0.800
58.26000 4.725
58.28000 5.580
58.30000 4.322
58.32000 -0.069
58.34000 -1.365
58.36000 2.764
58.38000 1.510
58.40000 4.235
58.42000 2.399
58.44000 0.666
58.46000 1.239
58.48000 3.892
58.50000 -0.600
58.52000 -2.548
58.54000 0.812
58.56000 0.229
58.58000 0.883
58.60000 1.676
58.62000 4.124
58.64000 2.542
58.66000 3.526
58.68000 3.188
58.70000 2.285
58.72000 -1.863
58.74000 -1.072
58.76000 -2.111
58.78000 1.434
58.80000 2.877
58.82000 -0.979
58.84000 -0.695
58.86000 1.924
58.88000 3.426
58.90000 -0.947
58.92000 -1.629
58.94000 -2.529
58.96000 1.860
58.98000 0.871
59.00000 -1.694
59.02000 3.320
59.04000 3.565
59.06000 0.556
59.08000 2.448
59.10000 3.803
59.12000 2.017
59.14000 -0.579
59.16000 -2.524
59.18000 -0.599
59.20000 0.010
59.22000 -0.764
59.24000 0.842
59.26000 3.253
59.28000 2.163
59.30000 -0.087
59.32000 -1.457
59.34000 -1.466
59.36000 2.580
59.38000 2.886
59.40000 4.736
59.42000 4.979
59.44000 -1.057
59.46000 1.633
59.48000 3.006
59.50000 2.200
59.52000 -2.511
59.54000 1.392
59.56000 2.939
59.58000 2.616
59.60000 0.632
59.62000 3.120
59.64000 4.070
59.66000 0.383
59.68000 2.392
59.70000 1.666
59.72000 2.695
59.74000 -0.663
59.76000 -0.531
59.78000 1.256
59.80000 -1.571
59.82000 -1.082
59.84000 1.696
59.86000 1.463
59.88000 -1.591
59.90000 -0.216
59.92000 2.148
59.94000 2.177
59.96000 0.618
59.98000 0.802
60.00000 3.381
60.02000 6.114
60.04000 4.325
60.06000 2.148
60.08000 2.485
60.10000 4.536
60.12000 2.505
60.14000 1.817
60.16000 4.191
60.18000 1.826
60.20000 0.749
60.22000 4.790
60.24000 2.217
60.26000 0.746
60.28000 -2.498
60.30000 -0.172
60.32000 -1.131
60.34000 2.350
60.36000 4.835
60.38000 0.720
60.40000 5.036
60.42000 3.442
60.44000 1.014
60.46000 3.880
60.48000 4.722
60.50000 5.128
60.52000 2.089
60.54000 2.402
60.56000 0.399
60.58000 -0.644
60.60000 1.081
60.62000 3.004
60.64000 1.612
60.66000 -1.992
60.68000 -2.479
60.70000 1.782
60.72000 -2.165
60.74000 1.463
60.76000 2.685
60.78000 4.592
60.80000 6.829
60.82000 6.582
60.84000 3.722
60.86000 2.660
60.88000 0.739
60.90000 1.584
60.92000 0.141
60.94000 4.159
60.96000 3.148
60.98000 5.464
61.00000 4.100
61.02000 5.473
61.04000 4.186
61.06000 3.593
61.08000 -0.593
61.10000 5.985
61.12000 2.001
61.14000 2.184
61.16000 -1.165
61.18000 0.341
61.20000 1.685
61.22000 0.935
61.24000 1.095
61.26000 -0.654
61.28000 -1.528
61.30000 -1.645
61.32000 -0.179
61.34000 2.058
61.36000 -0.555
61.38000 2.519
61.40000 1.083
61.42000 1.176
61.44000 5.369
61.46000 5.624
61.48000 3.204
61.50000 6.997
61.52000 5.266
61.54000 2.384
61.56000 0.492
61.58000 3.549
61.60000 7.344
61.62000 3.156
61.64000 3.449
61.66000 0.173
61.68000 2.408
61.70000 6.290
61.72000 8.023
61.74000 6.952
61.76000 4.269
61.78000 1.955
61.80000 0.282
61.82000 0.369
61.84000 -2.397
61.86000 0.432
61.88000 6.429
61.90000 10.241
61.92000 8.178
61.94000 10.113
61.96000 7.370
61.98000 2.931
62.00000 3.307
62.02000 4.801
62.04000 1.821
62.06000 3.289
62.08000 1.307
62.10000 3.286
62.12000 2.128
62.14000 7.799
62.16000 5.242
62.18000 2.802
62.20000 3.638
62.22000 0.002
62.24000 -1.814
62.26000 -0.402
62.28000 -0.838
62.30000 3.607
62.32000 3.184
62.34000 -0.771
62.36000 3.671
62.38000 6.116
62.40000 3.689
62.42000 1.433
62.44000 -0.094
62.46000 -1.358
62.48000 -0.052
62.50000 -0.326
62.52000 4.645
62.54000 2.199
62.56000 1.134
62.58000 5.140
62.60000 5.103
62.62000 1.271
62.64000 2.293
62.66000 2.835
62.68000 2.909
62.70000 0.790
62.72000 -0.664
62.74000 2.472
62.76000 2.736
62.78000 0.777
62.80000 0.100
62.82000 -0.485
62.84000 -2.297
62.86000 0.748
62.88000 -1.898
62.90000 1.249
62.92000 4.343
62.94000 3.856
62.96000 -0.658
62.98000 -0.222
63.00000 1.249
63.02000 1.529
63.04000 -0.302
63.06000 -0.357
63.08000 -1.540
63.10000 0.539
63.12000 1.265
63.14000 -0.843
63.16000 -1.028
63.18000 1.108
63.20000 3.827
63.22000 2.178
63.24000 1.749
63.26000 1.490
63.28000 -1.173
63.30000 -1.514
63.32000 -1.268
63.34000 -1.449
63.36000 -1.569
63.38000 -2.378
63.40000 -0.576
63.42000 0.080
63.44000 0.028
63.46000 1.634
63.48000 2.204
63.50000 -0.611
63.52000 -0.575
63.54000 -1.033
63.56000 0.600
63.58000 1.346
63.60000 0.308
63.62000 0.350
63.64000 -0.606
63.66000 -0.079
63.68000 0.508
63.70000 4.189
63.72000 4.191
63.74000 0.504
63.76000 -0.611
63.78000 0.050
63.80000 2.210
63.82000 1.271
63.84000 2.019
63.86000 0.198
63.88000 0.039
63.90000 2.976
63.92000 -0.819
63.94000 -0.052
63.96000 2.422
63.98000 2.898
64.00000 1.566
64.02000 1.903
64.04000 5.570
64.06000 5.215
64.08000 5.653
64.10000 5.422
64.12000 4.608
64.14000 1.297
64.16000 1.192
64.18000 2.088
64.20000 3.041
64.22000 6.746
64.24000 4.216
64.26000 3.245
64.28000 2.465
64.30000 3.980
64.32000 -2.407
64.34000 -0.166
64.36000 4.032
64.38000 4.574
64.40000 4.126
64.42000 4.886
64.44000 0.226
64.46000 0.523
64.48000 -0.135
64.50000 4.013
64.52000 1.732
64.54000 0.595
64.56000 4.498
64.58000 4.457
64.60000 6.642
64.62000 5.974
64.64000 3.295
64.66000 1.589
64.68000 0.968
64.70000 -0.052
64.72000 3.595
64.74000 3.874
64.76000 3.138
64.78000 3.137
64.80000 4.354
64.82000 3.617
64.84000 -0.429
64.86000 2.066
64.88000 6.055
64.90000 1.516
64.92000 -0.208
64.94000 2.946
64.96000 3.672
64.98000 2.749
65.00000 2.053
65.02000 0.129
65.04000 -1.484
65.06000 1.453
65.08000 0.450
65.10000 0.175
65.12000 3.788
65.14000 4.386
65.16000 -2.462
65.18000 -0.595
65.20000 -0.611
65.22000 -1.930
65.24000 4.161
65.26000 6.166
65.28000 5.458
65.30000 3.244
65.32000 -0.458
65.34000 3.160
65.36000 2.483
65.38000 -1.445
65.40000 -0.331
65.42000 -1.732
65.44000 0.967
65.46000 3.023
65.48000 3.642
65.50000 1.934
65.52000 -0.576
65.54000 -2.479
65.56000 -0.605
65.58000 3.247
65.60000 -0.061
65.62000 -1.760
65.64000 3.462
65.66000 5.054
65.68000 5.132
65.70000 8.098
65.72000 4.728
65.74000 2.170
65.76000 3.301
65.78000 3.485
65.80000 3.687
65.82000 5.750
65.84000 5.067
65.86000 -2.375
65.88000 -2.487
65.90000 -0.993
65.92000 -1.477
65.94000 -2.264
65.96000 -2.170
65.98000 -2.427
66.00000 -0.082
66.02000 0.784
66.04000 -0.734
66.06000 1.119
66.08000 0.033
66.10000 4.498
66.12000 -0.015
66.14000 0.862
66.16000 2.580
66.18000 -0.758
66.20000 -1.598
66.22000 2.495
66.24000 6.071
66.26000 3.845
66.28000 0.800
66.30000 1.693
66.32000 2.539
66.34000 2.639
66.36000 2.663
66.38000 2.213
66.40000 1.250
66.42000 2.647
66.44000 2.244
66.46000 3.822
66.48000 0.293
66.50000 2.494
66.52000 4.049
66.54000 4.259
66.56000 1.957
66.58000 1.612
66.60000 0.276
66.62000 2.510
66.64000 2.862
66.66000 1.199
66.68000 1.061
66.70000 0.207
66.72000 3.947
66.74000 5.973
66.76000 4.820
66.78000 4.452
66.80000 3.553
66.82000 3.479
66.84000 0.356
66.86000 2.310
66.88000 3.716
66.90000 5.476
66.92000 6.068
66.94000 7.612
66.96000 7.886
66.98000 5.087
67.00000 5.889
67.02000 5.234
67.04000 7.551
67.06000 7.444
67.08000 10.354
67.10000 9.519
67.12000 8.248
67.14000 9.708
67.16000 6.948
67.18000 6.878
67.20000 9.750
67.22000 12.321
67.24000 11.528
67.26000 10.833
67.28000 9.621
67.30000 10.124
67.32000 10.700
67.34000 12.733
67.36000 12.942
67.38000 14.870
67.40000 12.769
67.42000 13.812
67.44000 13.283
67.46000 11.617
67.48000 13.767
67.50000 18.217
67.52000 20.172
67.54000 19.627
67.56000 19.899
67.58000 18.519
67.60000 18.861
67.62000 19.911
67.64000 19.108
67.66000 17.304
67.68000 18.033
67.70000 19.728
67.72000 19.806
67.74000 21.522
67.76000 19.793
67.78000 18.490
67.80000 15.424
67.82000 16.409
67.84000 19.994
67.86000 21.210
67.88000 20.144
67.90000 18.089
67.92000 18.386
67.94000 18.649
67.96000 23.469
67.98000 21.213
68.00000 19.323
68.02000 18.928
68.04000 21.758
68.06000 24.638
68.08000 23.936
68.10000 19.239
68.12000 19.251
68.14000 14.431
68.16000 14.992
68.18000 19.339
68.20000 21.386
68.22000 18.002
68.24000 16.877
68.26000 18.549
68.28000 18.385
68.30000 17.341
68.32000 17.090
68.34000 20.944
68.36000 15.046
68.38000 16.898
68.40000 15.462
68.42000 14.455
68.44000 15.871
68.46000 16.860
68.48000 19.146
68.50000 15.597
68.52000 14.288
68.54000 14.373
68.56000 12.990
68.58000 12.262
68.60000 12.321
68.62000 10.298
68.64000 6.666
68.66000 8.480
68.68000 11.255
68.70000 6.450
68.72000 4.920
68.74000 7.657
68.76000 6.988
68.78000 5.164
68.80000 5.972
68.82000 8.423
68.84000 3.840
68.86000 6.008
68.88000 6.988
68.90000 7.186
68.92000 4.554
68.94000 4.721
68.96000 8.648
68.98000 5.334
69.00000 0.779
69.02000 2.494
69.04000 4.052
69.06000 1.158
69.08000 0.494
69.10000 -1.040
69.12000 -2.478
69.14000 2.633
69.16000 4.861
69.18000 3.907
69.20000 5.164
69.22000 2.536
69.24000 -0.392
69.26000 1.494
69.28000 6.690
69.30000 7.257
69.32000 5.337
69.34000 2.317
69.36000 1.941
69.38000 4.689
69.40000 2.237
69.42000 3.221
69.44000 0.384
69.46000 2.939
69.48000 0.203
69.50000 0.331
69.52000 -0.470
69.54000 -2.424
69.56000 -1.743
69.58000 -1.503
69.60000 0.125
69.62000 1.373
69.64000 3.027
69.66000 1.633
69.68000 0.734
69.70000 0.680
69.72000 2.522
69.74000 -0.198
69.76000 3.453
69.78000 2.189
69.80000 -1.743
69.82000 2.556
69.84000 1.874
69.86000 1.035
69.88000 -0.378
69.90000 0.437
69.92000 -1.444
69.94000 -1.030
69.96000 -1.343
69.98000 -0.345
70.00000 3.807
70.02000 4.153
70.04000 3.645
70.06000 0.834
70.08000 2.250
70.10000 3.989
70.12000 2.465
70.14000 1.300
70.16000 3.651
70.18000 3.125
70.20000 3.346
70.22000 4.140
70.24000 2.238
70.26000 5.058
70.28000 1.618
70.30000 4.298
70.32000 4.636
70.34000 1.093
70.36000 2.595
70.38000 1.531
70.40000 0.937
70.42000 -2.321
70.44000 -0.356
70.46000 0.533
70.48000 4.555
70.50000 5.997
70.52000 5.846
70.54000 2.438
70.56000 2.563
70.58000 2.082
70.60000 5.300
70.62000 6.102
70.64000 6.244
70.66000 0.691
70.68000 0.903
70.70000 3.931
70.72000 3.019
70.74000 3.680
70.76000 4.604
70.78000 2.076
70.80000 2.082
70.82000 5.498
70.84000 5.947
70.86000 2.933
70.88000 2.199
70.90000 3.432
70.92000 1.774
70.94000 5.101
70.96000 5.030
70.98000 4.647
71.00000 3.774
71.02000 2.952
71.04000 0.519
71.06000 0.487
71.08000 0.568
71.10000 -1.031
71.12000 2.155
71.14000 4.355
71.16000 2.637
71.18000 4.890
71.20000 4.507
71.22000 1.926
71.24000 2.796
71.26000 4.724
71.28000 5.195
71.30000 4.420
71.32000 2.369
71.34000 3.769
71.36000 5.194
71.38000 3.217
71.40000 1.149
71.42000 -1.655
71.44000 4.129
71.46000 6.085
71.48000 5.105
71.50000 5.578
71.52000 3.403
71.54000 0.096
71.56000 0.659
71.58000 3.152
71.60000 5.494
71.62000 4.373
71.64000 1.813
71.66000 2.550
71.68000 1.399
71.70000 3.502
71.72000 2.334
71.74000 2.249
71.76000 2.732
71.78000 3.558
71.80000 2.073
71.82000 4.121
71.84000 0.409
71.86000 3.885
71.88000 5.239
71.90000 2.367
71.92000 0.232
71.94000 0.891
71.96000 0.047
71.98000 0.395
72.00000 2.556
72.02000 -0.020
72.04000 -2.279
72.06000 -1.611
72.08000 4.125
72.10000 6.365
72.12000 5.395
72.14000 2.813
72.16000 5.520
72.18000 7.535
72.20000 7.587
72.22000 4.536
72.24000 6.648
72.26000 2.550
72.28000 0.028
72.30000 6.334
72.32000 4.361
72.34000 4.026
72.36000 0.468
72.38000 1.846
72.40000 -0.300
72.42000 -0.045
72.44000 2.706
72.46000 0.285
72.48000 -1.156
72.50000 3.916
72.52000 3.162
72.54000 0.981
72.56000 2.334
72.58000 2.007
72.60000 -0.112
72.62000 1.124
72.64000 2.621
72.66000 1.845
72.68000 1.740
72.70000 -2.298
72.72000 2.193
72.74000 3.312
72.76000 1.934
72.78000 1.269
72.80000 0.222
72.82000 0.410
72.84000 -0.306
72.86000 1.161
72.88000 1.343
72.90000 3.529
72.92000 2.366
72.94000 3.967
72.96000 2.469
72.98000 3.634
73.00000 1.926
73.02000 -0.104
73.04000 3.642
73.06000 3.037
73.08000 1.258
73.10000 1.450
73.12000 1.404
73.14000 -0.476
73.16000 -1.053
73.18000 -0.412
73.20000 1.374
73.22000 1.402
73.24000 4.919
73.26000 2.554
73.28000 0.545
73.30000 -0.159
73.32000 2.964
73.34000 3.834
73.36000 1.331
73.38000 -1.631
73.40000 -2.285
73.42000 0.737
73.44000 3.221
73.46000 3.673
73.48000 0.925
73.50000 -0.385
73.52000 1.858
73.54000 1.446
73.56000 2.157
73.58000 2.783
73.60000 2.875
73.62000 0.530
73.64000 -1.208
73.66000 -0.782
73.68000 -2.014
73.70000 -0.332
73.72000 2.911
73.74000 3.772
73.76000 3.827
73.78000 2.880
73.80000 -0.213
73.82000 -2.273
73.84000 0.238
73.86000 -1.670
73.88000 0.040
73.90000 4.237
73.92000 6.967
73.94000 3.692
73.96000 3.849
73.98000 -0.350
74.00000 -1.236
74.02000 -0.342
74.04000 3.322
74.06000 2.196
74.08000 3.370
74.10000 2.349
74.12000 -0.204
74.14000 -2.068
74.16000 -2.265
74.18000 -0.273
74.20000 3.342
74.22000 5.644
74.24000 6.359
74.26000 3.891
74.28000 2.342
74.30000 -0.120
74.32000 2.655
74.34000 0.913
74.36000 1.889
74.38000 0.996
74.40000 0.939
74.42000 5.027
74.44000 7.868
74.46000 1.505
74.48000 1.116
74.50000 1.110
74.52000 0.598
74.54000 4.583
74.56000 8.505
74.58000 4.269
74.60000 1.842
74.62000 5.453
74.64000 5.996
74.66000 7.073
74.68000 6.013
74.70000 4.517
74.72000 4.959
74.74000 3.660
74.76000 3.882
74.78000 3.270
74.80000 0.598
74.82000 2.418
74.84000 4.955
74.86000 5.573
74.88000 5.475
74.90000 3.306
74.92000 0.342
74.94000 2.740
74.96000 2.873
74.98000 2.240
75.00000 -2.240
75.02000 3.852
75.04000 5.777
75.06000 5.121
75.08000 0.338
75.10000 -1.706
75.12000 0.460
75.14000 1.378
75.16000 -0.296
75.18000 1.567
75.20000 5.688
75.22000 6.505
75.24000 4.051
75.26000 -0.165
75.28000 -0.027
75.30000 2.361
75.32000 5.893
75.34000 3.383
75.36000 1.579
75.38000 5.777
75.40000 4.234
75.42000 1.944
75.44000 4.820
75.46000 4.272
75.48000 4.272
75.50000 4.482
75.52000 1.206
75.54000 2.508
75.56000 3.772
75.58000 1.213
75.60000 2.753
75.62000 3.286
75.64000 -0.154
75.66000 3.213
75.68000 7.891
75.70000 5.652
75.72000 0.423
75.74000 0.048
75.76000 1.417
75.78000 4.284
75.80000 4.032
75.82000 5.359
75.84000 7.907
75.86000 5.353
75.88000 -0.517
75.90000 2.237
75.92000 0.833
75.94000 5.346
75.96000 3.236
75.98000 2.230
76.00000 2.878
76.02000 4.672
76.04000 2.016
76.06000 0.698
76.08000 2.938
76.10000 6.113
76.12000 7.599
76.14000 4.178
76.16000 -1.085
76.18000 -1.861
76.20000 1.819
76.22000 0.417
76.24000 2.402
76.26000 -2.266
76.28000 2.560
76.30000 6.327
76.32000 5.760
76.34000 3.669
76.36000 1.290
76.38000 0.038
76.40000 -1.507
76.42000 -0.619
76.44000 1.419
76.46000 1.024
76.48000 6.509
76.50000 2.595
76.52000 2.243
76.54000 -1.493
76.56000 2.062
76.58000 4.686
76.60000 5.105
76.62000 4.205
76.64000 3.439
76.66000 1.552
76.68000 1.120
76.70000 2.192
76.72000 3.631
76.74000 7.755
76.76000 4.803
76.78000 3.558
76.80000 4.135
76.82000 4.343
76.84000 4.060
76.86000 1.151
76.88000 -1.228
76.90000 -0.811
76.92000 3.333
76.94000 3.238
76.96000 -0.474
76.98000 1.025
77.00000 -1.130
77.02000 2.193
77.04000 5.255
77.06000 1.617
77.08000 2.170
77.10000 -0.037
77.12000 1.830
77.14000 5.176
77.16000 2.258
77.18000 1.940
77.20000 -0.132
77.22000 2.635
77.24000 2.870
77.26000 -0.496
77.28000 2.717
77.30000 7.388
77.32000 8.026
77.34000 6.870
77.36000 4.713
77.38000 5.428
77.40000 3.720
77.42000 3.562
77.44000 4.049
77.46000 3.331
77.48000 2.332
77.50000 0.507
77.52000 0.988
77.54000 3.637
77.56000 2.098
77.58000 -1.025
77.60000 -2.279
77.62000 0.549
77.64000 2.784
77.66000 3.617
77.68000 6.750
77.70000 3.338
77.72000 3.214
77.74000 -0.892
77.76000 1.411
77.78000 1.482
77.80000 -0.632
77.82000 1.788
77.84000 2.106
77.86000 5.383
77.88000 5.911
77.90000 2.166
77.92000 -1.711
77.94000 2.999
77.96000 2.373
77.98000 5.840
78.00000 2.010
78.02000 -0.179
78.04000 0.976
78.06000 1.739
78.08000 -0.224
78.10000 0.752
78.12000 -0.144
78.14000 -1.865
78.16000 -0.897
78.18000 -0.599
78.20000 1.901
78.22000 0.412
78.24000 3.063
78.26000 1.939
78.28000 -1.785
78.30000 -0.634
78.32000 2.283
78.34000 2.859
78.36000 3.362
78.38000 2.233
78.40000 -0.384
78.42000 0.281
78.44000 2.812
78.46000 2.608
78.48000 3.525
78.50000 1.748
78.52000 1.886
78.54000 5.909
78.56000 3.238
78.58000 5.850
78.60000 0.410
78.62000 0.510
78.64000 0.202
78.66000 0.116
78.68000 1.316
78.70000 3.984
78.72000 6.421
78.74000 5.555
78.76000 5.292
78.78000 5.611
78.80000 3.904
78.82000 4.500
78.84000 8.053
78.86000 3.051
78.88000 3.614
78.90000 2.230
78.92000 1.024
78.94000 1.128
78.96000 0.986
78.98000 5.409
79.00000 1.383
79.02000 0.684
79.04000 3.175
79.06000 -2.354
79.08000 1.552
79.10000 1.973
79.12000 -0.204
79.14000 0.691
79.16000 0.517
79.18000 0.222
79.20000 3.444
79.22000 1.299
79.24000 -2.365
79.26000 -0.697
79.28000 3.677
79.30000 3.497
79.32000 -1.359
79.34000 2.011
79.36000 2.593
79.38000 1.083
79.40000 1.634
79.42000 1.579
79.44000 1.389
79.46000 6.256
79.48000 3.167
79.50000 2.326
79.52000 2.349
79.54000 1.360
79.56000 -1.694
79.58000 -0.298
79.60000 2.194
79.62000 3.165
79.64000 1.560
79.66000 4.679
79.68000 1.488
79.70000 2.013
79.72000 3.248
79.74000 -0.858
79.76000 -2.413
79.78000 1.126
79.80000 0.932
79.82000 1.932
79.84000 3.081
79.86000 2.483
79.88000 -0.816
79.90000 3.534
79.92000 -0.927
79.94000 2.233
79.96000 1.615
79.98000 0.863
80.00000 -1.209
80.02000 -0.725
80.04000 -1.609
80.06000 2.200
80.08000 1.731
80.10000 2.362
80.12000 3.018
80.14000 1.305
80.16000 7.055
80.18000 3.307
80.20000 -0.451
80.22000 5.757
80.24000 2.723
80.26000 5.211
80.28000 3.955
80.30000 2.567
80.32000 1.186
80.34000 3.104
80.36000 4.988
80.38000 3.145
80.40000 2.461
80.42000 1.619
80.44000 6.708
80.46000 5.468
80.48000 7.146
80.50000 1.874
80.52000 5.258
80.54000 4.319
80.56000 4.800
80.58000 2.584
80.60000 1.956
80.62000 4.435
80.64000 3.637
80.66000 4.154
80.68000 6.188
80.70000 8.052
80.72000 3.385
80.74000 7.458
80.76000 7.694
80.78000 13.078
80.80000 10.786
80.82000 6.723
80.84000 5.868
80.86000 7.714
80.88000 5.720
80.90000 7.744
80.92000 5.634
80.94000 5.738
80.96000 6.083
80.98000 3.654
81.00000 8.526
81.02000 8.180
81.04000 12.430
81.06000 16.302
81.08000 11.895
81.10000 13.757
81.12000 15.707
81.14000 14.676
81.16000 12.412
81.18000 12.622
81.20000 9.736
81.22000 10.533
81.24000 13.715
81.26000 16.262
81.28000 13.685
81.30000 8.349
81.32000 13.970
81.34000 14.140
81.36000 13.053
81.38000 9.875
81.40000 12.931
81.42000 16.394
81.44000 17.864
81.46000 18.548
81.48000 19.118
81.50000 19.035
81.52000 16.577
81.54000 22.342
81.56000 23.249
81.58000 20.945
81.60000 20.930
81.62000 19.084
81.64000 18.238
81.66000 22.015
81.68000 21.447
81.70000 23.220
81.72000 28.173
81.74000 28.000
81.76000 25.537
81.78000 23.580
81.80000 18.552
81.82000 21.175
81.84000 26.407
81.86000 27.123
81.88000 27.487
81.90000 24.067
81.92000 23.430
81.94000 33.586
81.96000 32.449
81.98000 23.863
82.00000 26.975
82.02000 24.234
82.04000 26.756
82.06000 30.127
82.08000 30.923
82.10000 30.471
82.12000 25.531
82.14000 24.176
82.16000 27.881
82.18000 33.442
82.20000 28.276
82.22000 27.473
82.24000 23.448
82.26000 23.685
82.28000 23.914
82.30000 26.721
82.32000 25.622
82.34000 21.455
82.36000 23.963
82.38000 23.060
82.40000 19.722
82.42000 18.431
82.44000 21.328
82.46000 20.573
82.48000 21.897
82.50000 22.588
82.52000 15.145
82.54000 14.821
82.56000 18.989
82.58000 22.064
82.60000 20.455
82.62000 16.781
82.64000 18.375
82.66000 21.418
82.68000 22.175
82.70000 19.161
82.72000 19.826
82.74000 15.560
82.76000 13.373
82.78000 15.002
82.80000 11.479
82.82000 14.047
82.84000 10.355
82.86000 6.835
82.88000 9.043
82.90000 8.023
82.92000 5.648
82.94000 7.799
82.96000 12.839
82.98000 11.667
83.00000 10.817
83.02000 4.680
83.04000 4.749
83.06000 5.586
83.08000 4.991
83.10000 8.305
83.12000 4.855
83.14000 0.001
83.16000 -0.015
83.18000 7.233
83.20000 4.397
83.22000 6.254
83.24000 6.568
83.26000 3.437
83.28000 5.033
83.30000 3.233
83.32000 -0.895
83.34000 1.461
83.36000 4.138
83.38000 2.864
83.40000 4.258
83.42000 4.105
83.44000 2.278
83.46000 2.369
83.48000 3.886
83.50000 3.673
83.52000 0.575
83.54000 -1.187
83.56000 1.305
83.58000 0.836
83.60000 -2.488
83.62000 -0.004
83.64000 4.653
83.66000 1.441
83.68000 1.229
83.70000 3.290
83.72000 4.223
83.74000 3.701
83.76000 3.723
83.78000 1.720
83.80000 -0.767
83.82000 0.282
83.84000 0.898
83.86000 4.085
83.88000 -1.285
83.90000 -0.566
83.92000 1.074
83.94000 0.342
83.96000 4.892
83.98000 1.412
84.00000 1.369
84.02000 -0.763
84.04000 0.388
84.06000 -2.443
84.08000 -2.074
84.10000 1.530
84.12000 2.728
84.14000 0.224
84.16000 5.148
84.18000 4.055
84.20000 1.567
84.22000 -1.159
84.24000 0.607
84.26000 -0.930
84.28000 -2.430
84.30000 -0.619
84.32000 3.587
84.34000 1.921
84.36000 4.083
84.38000 4.140
84.40000 -1.607
84.42000 1.654
84.44000 1.180
84.46000 -2.437
84.48000 -0.952
84.50000 3.020
84.52000 0.514
84.54000 1.850
84.56000 4.136
84.58000 4.100
84.60000 0.849
84.62000 -1.312
84.64000 0.476
84.66000 3.339
84.68000 0.473
84.70000 -1.942
84.72000 1.823
84.74000 1.710
84.76000 0.020
84.78000 1.050
84.80000 2.357
84.82000 3.921
84.84000 3.197
84.86000 2.533
84.88000 0.635
84.90000 2.905
84.92000 -0.101
84.94000 1.804
84.96000 4.289
84.98000 10.746
85.00000 8.257
85.02000 3.342
85.04000 -0.083
85.06000 0.859
85.08000 0.324
85.10000 2.641
85.12000 3.885
85.14000 2.666
85.16000 -1.793
85.18000 1.798
85.20000 8.938
85.22000 3.204
85.24000 3.754
85.26000 1.535
85.28000 2.223
85.30000 4.002
85.32000 11.969
85.34000 7.618
85.36000 2.853
85.38000 9.040
85.40000 8.449
85.42000 9.477
85.44000 9.461
85.46000 9.203
85.48000 6.805
85.50000 8.574
85.52000 7.605
85.54000 11.418
85.56000 9.421
85.58000 11.776
85.60000 10.119
85.62000 11.513
85.64000 14.902
85.66000 14.961
85.68000 13.932
85.70000 13.303
85.72000 14.310
85.74000 12.420
85.76000 16.747
85.78000 23.450
85.80000 22.106
85.82000 17.340
85.84000 17.820
85.86000 19.064
85.88000 18.491
85.90000 17.662
85.92000 18.753
85.94000 17.238
85.96000 20.073
85.98000 22.034
86.00000 22.368
86.02000 22.182
86.04000 20.368
86.06000 21.992
86.08000 24.929
86.10000 25.610
86.12000 23.006
86.14000 19.718
86.16000 20.995
86.18000 22.534
86.20000 24.418
86.22000 27.452
86.24000 25.062
86.26000 23.070
86.28000 16.462
86.30000 14.487
86.32000 18.732
86.34000 22.492
86.36000 25.165
86.38000 23.950
86.40000 22.264
86.42000 24.269
86.44000 21.044
86.46000 19.846
86.48000 19.962
86.50000 18.575
86.52000 21.519
86.54000 16.889
86.56000 17.796
86.58000 17.747
86.60000 14.264
86.62000 17.204
86.64000 21.786
86.66000 14.911
86.68000 14.951
86.70000 18.635
86.72000 14.592
86.74000 13.640
86.76000 9.985
86.78000 14.662
86.80000 18.782
86.82000 18.091
86.84000 13.607
86.86000 7.308
86.88000 10.597
86.90000 12.641
86.92000 10.179
86.94000 8.887
86.96000 8.684
86.98000 9.214
87.00000 6.082
87.02000 9.271
87.04000 7.285
87.06000 2.453
87.08000 2.554
87.10000 7.411
87.12000 10.441
87.14000 9.009
87.16000 6.802
87.18000 3.146
87.20000 2.765
87.22000 -0.408
87.24000 1.967
87.26000 2.295
87.28000 4.298
87.30000 6.440
87.32000 6.662
87.34000 8.785
87.36000 5.470
87.38000 3.645
87.40000 4.327
87.42000 4.530
87.44000 -0.599
87.46000 -2.319
87.48000 2.714
87.50000 3.588
87.52000 -0.384
87.54000 5.303
87.56000 3.832
87.58000 -0.693
87.60000 3.754
87.62000 1.849
87.64000 1.636
87.66000 2.175
87.68000 2.955
87.70000 5.878
87.72000 4.226
87.74000 3.785
87.76000 3.421
87.78000 2.171
87.80000 2.996
87.82000 2.581
87.84000 -0.142
87.86000 0.236
87.88000 0.524
87.90000 -0.504
87.92000 -0.036
87.94000 0.522
87.96000 -2.233
87.98000 3.503
88.00000 3.158
88.02000 3.840
88.04000 3.865
88.06000 2.984
88.08000 2.005
88.10000 0.522
88.12000 4.057
88.14000 2.244
88.16000 1.260
88.18000 1.914
88.20000 -2.188
88.22000 1.879
88.24000 -1.624
88.26000 2.581
88.28000 5.568
88.30000 2.400
88.32000 2.830
88.34000 4.439
88.36000 4.765
88.38000 5.793
88.40000 -1.279
88.42000 -0.602
88.44000 3.192
88.46000 4.816
88.48000 3.876
88.50000 -0.313
88.52000 5.149
88.54000 3.887
88.56000 3.380
88.58000 3.062
88.60000 4.870
88.62000 0.236
88.64000 0.154
88.66000 -1.684
88.68000 2.033
88.70000 3.261
88.72000 2.003
88.74000 -2.172
88.76000 3.947
88.78000 3.455
88.80000 3.326
88.82000 4.849
88.84000 3.746
88.86000 2.210
88.88000 0.598
88.90000 -1.238
88.92000 2.276
88.94000 2.183
88.96000 1.220
88.98000 4.836
89.00000 4.086
89.02000 -1.362
89.04000 -2.178
89.06000 -1.871
89.08000 0.546
89.10000 -0.792
89.12000 -0.053
89.14000 0.679
89.16000 -0.063
89.18000 -0.464
89.20000 3.135
89.22000 2.924
89.24000 -0.759
89.26000 0.914
89.28000 2.025
89.30000 0.103
89.32000 -0.837
89.34000 -0.259
89.36000 2.038
89.38000 1.931
89.40000 3.679
89.42000 3.189
89.44000 -0.951
89.46000 -1.947
89.48000 0.300
89.50000 1.337
89.52000 0.400
89.54000 1.066
89.56000 -2.135
89.58000 0.021
89.60000 -0.062
89.62000 -0.120
89.64000 -1.115
89.66000 -0.571
89.68000 0.988
89.70000 0.435
89.72000 -0.565
89.74000 1.390
89.76000 2.017
89.78000 -0.966
89.80000 0.772
89.82000 3.504
89.84000 3.557
89.86000 2.221
89.88000 1.647
89.90000 -0.790
89.92000 -0.697
89.94000 1.436
89.96000 2.097
89.98000 0.693
90.00000 1.644
90.02000 4.158
90.04000 4.969
90.06000 5.549
90.08000 7.148
90.10000 3.703
90.12000 -0.685
90.14000 0.645
90.16000 1.789
90.18000 1.662
90.20000 2.879
90.22000 4.558
90.24000 4.166
90.26000 1.236
90.28000 0.285
90.30000 0.972
90.32000 0.176
90.34000 -0.161
90.36000 -0.301
90.38000 10.071
90.40000 11.809
90.42000 8.685
90.44000 6.545
90.46000 1.962
90.48000 3.400
90.50000 1.754
90.52000 2.878
90.54000 3.129
90.56000 0.625
90.58000 -0.466
90.60000 -0.292
90.62000 -0.845
90.64000 -2.112
90.66000 -0.190
90.68000 2.786
90.70000 4.310
90.72000 4.825
90.74000 6.092
90.76000 0.933
90.78000 3.696
90.80000 3.592
90.82000 3.197
90.84000 2.681
90.86000 2.241
90.88000 4.820
90.90000 4.319
90.92000 1.668
90.94000 1.375
90.96000 -0.931
90.98000 -2.126
91.00000 -1.004
91.02000 0.889
91.04000 2.161
91.06000 4.481
91.08000 3.819
91.10000 2.788
91.12000 4.081
91.14000 6.914
91.16000 6.720
91.18000 6.309
91.20000 0.745
91.22000 -2.133
91.24000 2.994
91.26000 0.846
91.28000 -0.004
91.30000 0.143
91.32000 0.573
91.34000 -1.299
91.36000 0.221
91.38000 1.492
91.40000 -0.375
91.42000 1.309
91.44000 3.806
91.46000 3.101
91.48000 2.657
91.50000 2.932
91.52000 0.974
91.54000 3.406
91.56000 6.515
91.58000 3.480
91.60000 -0.391
91.62000 -0.558
91.64000 2.514
91.66000 3.037
91.68000 2.651
91.70000 6.046
91.72000 8.677
91.74000 3.360
91.76000 0.117
91.78000 -0.309
91.80000 0.884
91.82000 0.377
91.84000 -0.804
91.86000 2.420
91.88000 1.690
91.90000 -1.020
91.92000 -1.785
91.94000 0.619
91.96000 0.433
91.98000 -0.951
92.00000 2.581
92.02000 3.950
92.04000 2.266
92.06000 0.276
92.08000 0.018
92.10000 -0.102
92.12000 2.633
92.14000 6.735
92.16000 5.277
92.18000 3.163
92.20000 3.162
92.22000 4.706
92.24000 2.924
92.26000 3.199
92.28000 0.040
92.30000 3.247
92.32000 7.495
92.34000 4.339
92.36000 -1.261
92.38000 -0.784
92.40000 4.556
92.42000 5.563
92.44000 1.929
92.46000 1.892
92.48000 0.402
92.50000 1.606
92.52000 0.419
92.54000 4.265
92.56000 2.382
92.58000 3.498
92.60000 7.742
92.62000 3.366
92.64000 -1.699
92.66000 -2.146
92.68000 1.659
92.70000 3.921
92.72000 -0.009
92.74000 1.840
92.76000 0.775
92.78000 -0.589
92.80000 2.714
92.82000 1.642
92.84000 1.629
92.86000 4.735
92.88000 5.238
92.90000 0.548
92.92000 4.106
92.94000 3.554
92.96000 2.104
92.98000 4.021
93.00000 5.235
93.02000 7.143
93.04000 9.000
93.06000 5.551
93.08000 4.330
93.10000 3.910
93.12000 0.949
93.14000 2.743
93.16000 3.917
93.18000 3.604
93.20000 2.506
93.22000 2.401
93.24000 -2.146
93.26000 -0.666
93.28000 1.494
93.30000 -0.698
93.32000 3.284
93.34000 4.002
93.36000 0.554
93.38000 1.254
93.40000 1.446
93.42000 0.386
93.44000 3.846
93.46000 1.498
93.48000 1.731
93.50000 5.415
93.52000 6.512
93.54000 4.033
93.56000 -1.515
93.58000 -0.436
93.60000 3.275
93.62000 2.414
93.64000 -1.047
93.66000 -0.014
93.68000 5.203
93.70000 4.103
93.72000 0.756
93.74000 1.308
93.76000 4.967
93.78000 6.743
93.80000 6.994
93.82000 -0.248
93.84000 3.038
93.86000 4.737
93.88000 3.789
93.90000 -1.983
93.92000 -0.372
93.94000 6.683
93.96000 1.420
93.98000 1.418
94.00000 -0.580
94.02000 -0.055
94.04000 1.770
94.06000 -0.106
94.08000 0.949
94.10000 0.241
94.12000 0.327
94.14000 2.608
94.16000 5.158
94.18000 6.020
94.20000 7.716
94.22000 5.856
94.24000 4.244
94.26000 4.690
94.28000 3.786
94.30000 4.944
94.32000 -0.241
94.34000 0.558
94.36000 3.981
94.38000 3.236
94.40000 4.487
94.42000 6.611
94.44000 7.923
94.46000 5.682
94.48000 4.098
94.50000 4.148
94.52000 4.048
94.54000 1.821
94.56000 0.406
94.58000 -2.134
94.60000 -1.518
94.62000 2.487
94.64000 5.288
94.66000 4.923
94.68000 4.852
94.70000 -1.142
94.72000 -0.049
94.74000 1.487
94.76000 3.562
94.78000 6.745
94.80000 2.576
94.82000 1.822
94.84000 0.386
94.86000 -0.170
94.88000 0.901
94.90000 -2.010
94.92000 -2.156
94.94000 1.272
94.96000 4.998
94.98000 8.700
95.00000 8.047
95.02000 0.230
95.04000 -0.049
95.06000 4.838
95.08000 2.271
95.10000 -0.455
95.12000 3.279
95.14000 3.707
95.16000 1.429
95.18000 -0.479
95.20000 9.396
95.22000 8.346
95.24000 2.840
95.26000 4.087
95.28000 0.931
95.30000 2.755
95.32000 2.206
95.34000 -0.699
95.36000 2.649
95.38000 7.023
95.40000 7.090
95.42000 1.590
95.44000 -1.752
95.46000 -0.917
95.48000 3.831
95.50000 4.303
95.52000 4.339
95.54000 -0.924
95.56000 0.170
95.58000 0.322
95.60000 0.655
95.62000 -1.383
95.64000 5.430
95.66000 7.119
95.68000 4.693
95.70000 5.379
95.72000 3.298
95.74000 4.614
95.76000 2.257
95.78000 0.570
95.80000 3.194
95.82000 0.947
95.84000 -0.171
95.86000 1.581
95.88000 3.503
95.90000 3.425
95.92000 0.040
95.94000 -2.168
95.96000 6.806
95.98000 2.268
96.00000 1.585
96.02000 6.980
96.04000 7.561
96.06000 6.354
96.08000 3.301
96.10000 2.123
96.12000 -0.153
96.14000 5.316
96.16000 8.670
96.18000 6.929
96.20000 0.577
96.22000 2.958
96.24000 -0.668
96.26000 -1.601
96.28000 1.202
96.30000 -0.870
96.32000 2.652
96.34000 3.778
96.36000 2.625
96.38000 1.539
96.40000 5.810
96.42000 5.619
96.44000 8.365
96.46000 8.753
96.48000 7.745
96.50000 3.165
96.52000 3.764
96.54000 3.604
96.56000 4.188
96.58000 -0.912
96.60000 -1.235
96.62000 1.871
96.64000 0.204
96.66000 -2.136
96.68000 2.265
96.70000 3.788
96.72000 1.207
96.74000 0.791
96.76000 2.923
96.78000 -0.893
96.80000 -1.952
96.82000 3.444
96.84000 7.561
96.86000 4.968
96.88000 3.601
96.90000 -0.102
96.92000 2.433
96.94000 4.761
96.96000 5.408
96.98000 7.335
97.00000 2.326
97.02000 5.357
97.04000 4.453
97.06000 5.550
97.08000 5.637
97.10000 3.701
97.12000 8.418
97.14000 2.602
97.16000 2.825
97.18000 -0.422
97.20000 0.822
97.22000 4.902
97.24000 6.092
97.26000 4.278
97.28000 5.142
97.30000 0.755
97.32000 2.726
97.34000 6.097
97.36000 1.064
97.38000 3.170
97.40000 5.168
97.42000 6.509
97.44000 1.631
97.46000 1.590
97.48000 1.573
97.50000 0.938
97.52000 4.995
97.54000 6.902
97.56000 3.290
97.58000 4.809
97.60000 3.313
97.62000 4.821
97.64000 10.184
97.66000 8.186
97.68000 4.087
97.70000 11.269
97.72000 5.949
97.74000 3.007
97.76000 -2.091
97.78000 0.552
97.80000 4.182
97.82000 11.409
97.84000 12.207
97.86000 5.898
97.88000 5.225
97.90000 7.096
97.92000 2.245
97.94000 2.150
97.96000 1.767
97.98000 5.870
98.00000 7.864
98.02000 8.198
98.04000 2.418
98.06000 4.812
98.08000 -2.019
98.10000 0.567
98.12000 1.730
98.14000 5.860
98.16000 11.768
98.18000 10.222
98.20000 10.451
98.22000 11.011
98.24000 7.720
98.26000 2.000
98.28000 4.308
98.30000 3.740
98.32000 6.689
98.34000 3.260
98.36000 5.409
98.38000 0.316
98.40000 -0.674
98.42000 -2.067
98.44000 -1.147
98.46000 6.675
98.48000 7.623
98.50000 3.491
98.52000 7.521
98.54000 11.311
98.56000 9.548
98.58000 8.422
98.60000 9.778
98.62000 10.466
98.64000 5.548
98.66000 7.482
98.68000 6.588
98.70000 5.541
98.72000 4.700
98.74000 0.463
98.76000 8.391
98.78000 9.832
98.80000 11.215
98.82000 8.277
98.84000 5.494
98.86000 7.267
98.88000 6.980
98.90000 5.122
98.92000 7.826
98.94000 9.256
98.96000 7.584
98.98000 8.114
99.00000 6.835
99.02000 2.843
99.04000 5.001
99.06000 2.658
99.08000 1.667
99.10000 6.645
99.12000 2.643
99.14000 1.441
99.16000 4.044
99.18000 1.219
99.20000 -2.087
99.22000 7.441
99.24000 16.375
99.26000 3.584
99.28000 9.358
99.30000 9.446
99.32000 15.058
99.34000 8.563
99.36000 5.108
99.38000 6.526
99.40000 1.351
99.42000 2.790
99.44000 -0.509
99.46000 -0.243
99.48000 4.427
99.50000 5.978
99.52000 5.138
99.54000 4.942
99.56000 8.374
99.58000 6.287
99.60000 4.055
99.62000 3.240
99.64000 9.924
99.66000 2.316
99.68000 0.254
99.70000 6.251
99.72000 1.373
99.74000 -2.108
99.76000 3.621
99.78000 10.630
99.80000 4.928
99.82000 4.990
99.84000 3.320
99.86000 0.040
99.88000 1.130
99.90000 3.925
99.92000 0.798
99.94000 11.294
99.96000 0.185
99.98000 0.000
