'Id: "0011388" Comment: "Integrate frame 0011388_Au-Ir-Rh_Rh-rich_XRD-Mapping-177-0000.gfrmwith cursor Wedge Cursor #5" Operator: "B?rgel" Anode: "Cu" Wavelength: "1.5406" Scantype: "2Theta (TwoTheta)" TimePerStep: "1" X: "45" Y: "0" Z: "5.95" 
10.00000 0.000
10.02000 -2.654
10.04000 -2.452
10.06000 2.239
10.08000 2.600
10.10000 4.332
10.12000 4.774
10.14000 5.330
10.16000 7.196
10.18000 4.345
10.20000 9.474
10.22000 9.906
10.24000 7.103
10.26000 7.824
10.28000 7.825
10.30000 18.393
10.32000 11.513
10.34000 5.371
10.36000 8.803
10.38000 11.949
10.40000 20.774
10.42000 24.476
10.44000 17.870
10.46000 30.488
10.48000 21.136
10.50000 18.050
10.52000 20.432
10.54000 13.584
10.56000 13.487
10.58000 11.815
10.60000 23.549
10.62000 24.795
10.64000 20.511
10.66000 23.499
10.68000 26.014
10.70000 22.513
10.72000 23.115
10.74000 28.149
10.76000 26.588
10.78000 21.866
10.80000 20.802
10.82000 23.626
10.84000 32.460
10.86000 27.624
10.88000 31.232
10.90000 33.701
10.92000 38.287
10.94000 39.931
10.96000 26.774
10.98000 32.254
11.00000 44.680
11.02000 36.018
11.04000 27.794
11.06000 37.863
11.08000 32.859
11.10000 37.410
11.12000 31.141
11.14000 33.647
11.16000 43.417
11.18000 36.128
11.20000 38.134
11.22000 32.489
11.24000 50.870
11.26000 45.603
11.28000 34.818
11.30000 34.368
11.32000 36.680
11.34000 36.129
11.36000 30.135
11.38000 26.189
11.40000 28.173
11.42000 36.574
11.44000 41.239
11.46000 54.187
11.48000 42.310
11.50000 35.655
11.52000 42.613
11.54000 40.044
11.56000 43.364
11.58000 48.837
11.60000 56.242
11.62000 61.315
11.64000 51.285
11.66000 43.939
11.68000 44.198
11.70000 51.361
11.72000 53.063
11.74000 51.641
11.76000 50.462
11.78000 50.998
11.80000 52.939
11.82000 60.697
11.84000 55.877
11.86000 42.151
11.88000 43.455
11.90000 48.288
11.92000 51.429
11.94000 45.921
11.96000 51.682
11.98000 54.336
12.00000 44.946
12.02000 52.934
12.04000 53.042
12.06000 52.752
12.08000 51.002
12.10000 49.719
12.12000 46.066
12.14000 51.467
12.16000 62.049
12.18000 56.827
12.20000 65.920
12.22000 59.372
12.24000 52.456
12.26000 59.199
12.28000 64.485
12.30000 63.538
12.32000 59.259
12.34000 47.737
12.36000 48.873
12.38000 56.009
12.40000 57.258
12.42000 59.285
12.44000 58.720
12.46000 67.307
12.48000 59.900
12.50000 45.447
12.52000 48.015
12.54000 57.895
12.56000 68.706
12.58000 55.165
12.60000 55.027
12.62000 57.129
12.64000 65.657
12.66000 66.486
12.68000 69.408
12.70000 64.337
12.72000 54.929
12.74000 61.268
12.76000 59.279
12.78000 61.032
12.80000 64.112
12.82000 58.592
12.84000 56.447
12.86000 55.890
12.88000 58.168
12.90000 56.478
12.92000 56.294
12.94000 56.611
12.96000 60.225
12.98000 58.926
13.00000 58.699
13.02000 57.192
13.04000 45.118
13.06000 44.703
13.08000 45.554
13.10000 52.717
13.12000 45.351
13.14000 50.653
13.16000 54.163
13.18000 58.001
13.20000 59.972
13.22000 63.683
13.24000 57.491
13.26000 52.793
13.28000 60.315
13.30000 59.961
13.32000 56.968
13.34000 64.815
13.36000 63.491
13.38000 60.543
13.40000 55.716
13.42000 53.178
13.44000 48.123
13.46000 53.766
13.48000 52.309
13.50000 49.165
13.52000 51.023
13.54000 52.466
13.56000 54.382
13.58000 58.760
13.60000 47.614
13.62000 45.041
13.64000 53.571
13.66000 65.220
13.68000 62.205
13.70000 53.415
13.72000 49.252
13.74000 49.382
13.76000 58.639
13.78000 54.579
13.80000 46.786
13.82000 42.820
13.84000 41.389
13.86000 48.997
13.88000 50.866
13.90000 39.962
13.92000 41.463
13.94000 54.272
13.96000 51.554
13.98000 48.967
14.00000 56.786
14.02000 52.216
14.04000 42.455
14.06000 49.881
14.08000 53.427
14.10000 54.750
14.12000 50.504
14.14000 41.793
14.16000 47.960
14.18000 42.386
14.20000 48.668
14.22000 46.027
14.24000 50.908
14.26000 45.307
14.28000 36.803
14.30000 37.769
14.32000 38.965
14.34000 39.321
14.36000 40.314
14.38000 44.312
14.40000 44.544
14.42000 47.467
14.44000 47.463
14.46000 47.062
14.48000 51.760
14.50000 47.402
14.52000 41.036
14.54000 42.289
14.56000 43.887
14.58000 38.274
14.60000 36.609
14.62000 51.773
14.64000 49.066
14.66000 38.687
14.68000 43.571
14.70000 44.424
14.72000 35.527
14.74000 36.954
14.76000 34.704
14.78000 37.685
14.80000 35.741
14.82000 37.425
14.84000 31.083
14.86000 33.930
14.88000 40.870
14.90000 34.365
14.92000 33.088
14.94000 32.494
14.96000 26.355
14.98000 24.347
15.00000 29.489
15.02000 37.922
15.04000 29.631
15.06000 29.466
15.08000 38.404
15.10000 39.280
15.12000 26.445
15.14000 18.708
15.16000 29.589
15.18000 35.087
15.20000 32.546
15.22000 38.621
15.24000 46.309
15.26000 43.101
15.28000 41.646
15.30000 37.557
15.32000 37.069
15.34000 33.244
15.36000 34.154
15.38000 38.830
15.40000 36.729
15.42000 32.757
15.44000 33.876
15.46000 31.515
15.48000 33.702
15.50000 30.574
15.52000 32.337
15.54000 25.033
15.56000 25.660
15.58000 35.870
15.60000 42.278
15.62000 32.914
15.64000 30.325
15.66000 31.693
15.68000 30.709
15.70000 35.265
15.72000 42.789
15.74000 30.447
15.76000 22.384
15.78000 25.795
15.80000 27.344
15.82000 35.910
15.84000 32.132
15.86000 30.576
15.88000 40.050
15.90000 43.772
15.92000 39.680
15.94000 33.913
15.96000 24.941
15.98000 22.696
16.00000 28.217
16.02000 28.298
16.04000 26.490
16.06000 28.135
16.08000 27.149
16.10000 27.293
16.12000 23.003
16.14000 21.261
16.16000 20.261
16.18000 19.882
16.20000 21.087
16.22000 20.372
16.24000 22.775
16.26000 26.391
16.28000 22.052
16.30000 18.995
16.32000 15.034
16.34000 21.520
16.36000 25.160
16.38000 22.674
16.40000 20.024
16.42000 18.396
16.44000 27.286
16.46000 25.596
16.48000 21.210
16.50000 20.069
16.52000 21.943
16.54000 23.007
16.56000 23.037
16.58000 25.753
16.60000 18.414
16.62000 12.163
16.64000 15.223
16.66000 18.045
16.68000 19.771
16.70000 23.426
16.72000 28.548
16.74000 19.186
16.76000 20.350
16.78000 19.689
16.80000 15.348
16.82000 12.386
16.84000 20.708
16.86000 25.789
16.88000 24.382
16.90000 12.717
16.92000 20.421
16.94000 18.626
16.96000 24.086
16.98000 18.382
17.00000 13.552
17.02000 13.034
17.04000 8.886
17.06000 12.642
17.08000 21.580
17.10000 24.053
17.12000 22.154
17.14000 22.440
17.16000 22.049
17.18000 13.659
17.20000 12.697
17.22000 18.656
17.24000 15.872
17.26000 11.274
17.28000 11.520
17.30000 20.554
17.32000 18.407
17.34000 11.556
17.36000 11.186
17.38000 15.000
17.40000 9.642
17.42000 7.512
17.44000 12.219
17.46000 13.592
17.48000 16.324
17.50000 11.805
17.52000 7.437
17.54000 11.961
17.56000 12.194
17.58000 17.808
17.60000 8.519
17.62000 5.800
17.64000 8.903
17.66000 10.862
17.68000 4.848
17.70000 2.406
17.72000 8.572
17.74000 7.119
17.76000 13.261
17.78000 14.079
17.80000 12.175
17.82000 7.636
17.84000 11.717
17.86000 11.084
17.88000 9.043
17.90000 16.510
17.92000 17.587
17.94000 18.594
17.96000 11.997
17.98000 13.852
18.00000 8.222
18.02000 9.829
18.04000 11.447
18.06000 13.613
18.08000 9.186
18.10000 4.686
18.12000 7.559
18.14000 12.208
18.16000 15.598
18.18000 11.995
18.20000 7.372
18.22000 6.605
18.24000 8.340
18.26000 12.005
18.28000 4.115
18.30000 14.080
18.32000 14.498
18.34000 9.425
18.36000 16.593
18.38000 11.332
18.40000 11.333
18.42000 2.918
18.44000 5.657
18.46000 3.056
18.48000 3.228
18.50000 0.478
18.52000 8.700
18.54000 2.473
18.56000 7.545
18.58000 3.257
18.60000 1.831
18.62000 4.214
18.64000 -0.885
18.66000 1.624
18.68000 2.314
18.70000 2.913
18.72000 0.171
18.74000 6.758
18.76000 7.822
18.78000 4.564
18.80000 5.044
18.82000 2.495
18.84000 8.812
18.86000 12.570
18.88000 8.460
18.90000 7.084
18.92000 11.679
18.94000 4.936
18.96000 4.436
18.98000 7.816
19.00000 5.516
19.02000 4.287
19.04000 4.986
19.06000 9.418
19.08000 10.073
19.10000 7.118
19.12000 4.246
19.14000 7.795
19.16000 8.381
19.18000 11.386
19.20000 10.525
19.22000 1.860
19.24000 -4.255
19.26000 0.674
19.28000 8.944
19.30000 6.565
19.32000 5.756
19.34000 6.106
19.36000 10.156
19.38000 1.720
19.40000 4.998
19.42000 3.745
19.44000 4.440
19.46000 4.353
19.48000 4.081
19.50000 3.286
19.52000 0.521
19.54000 5.748
19.56000 7.314
19.58000 0.850
19.60000 4.729
19.62000 -1.726
19.64000 2.992
19.66000 2.002
19.68000 -4.188
19.70000 3.801
19.72000 14.413
19.74000 12.310
19.76000 3.027
19.78000 7.911
19.80000 5.961
19.82000 7.781
19.84000 5.438
19.86000 3.208
19.88000 3.134
19.90000 7.752
19.92000 9.672
19.94000 12.386
19.96000 9.883
19.98000 11.259
20.00000 6.548
20.02000 -3.101
20.04000 -4.235
20.06000 -1.947
20.08000 -1.110
20.10000 2.496
20.12000 1.991
20.14000 -1.554
20.16000 0.983
20.18000 -1.327
20.20000 0.173
20.22000 2.371
20.24000 -4.065
20.26000 4.828
20.28000 12.841
20.30000 15.648
20.32000 8.861
20.34000 7.503
20.36000 2.726
20.38000 1.621
20.40000 -4.139
20.42000 1.062
20.44000 6.392
20.46000 6.935
20.48000 6.925
20.50000 -3.229
20.52000 -3.657
20.54000 4.152
20.56000 3.725
20.58000 1.685
20.60000 2.276
20.62000 0.940
20.64000 6.837
20.66000 7.621
20.68000 7.251
20.70000 2.397
20.72000 9.007
20.74000 10.313
20.76000 5.345
20.78000 4.235
20.80000 2.222
20.82000 0.124
20.84000 4.727
20.86000 9.757
20.88000 9.427
20.90000 4.948
20.92000 7.047
20.94000 4.589
20.96000 -0.993
20.98000 -2.461
21.00000 -2.139
21.02000 0.277
21.04000 6.471
21.06000 5.923
21.08000 8.497
21.10000 10.716
21.12000 -3.380
21.14000 -2.396
21.16000 -4.161
21.18000 2.584
21.20000 4.702
21.22000 5.332
21.24000 8.611
21.26000 3.903
21.28000 4.959
21.30000 6.345
21.32000 3.172
21.34000 0.318
21.36000 3.806
21.38000 10.380
21.40000 2.920
21.42000 1.945
21.44000 2.318
21.46000 2.518
21.48000 -0.187
21.50000 3.801
21.52000 2.397
21.54000 -2.911
21.56000 -3.000
21.58000 -1.725
21.60000 -4.157
21.62000 6.060
21.64000 4.917
21.66000 3.231
21.68000 3.985
21.70000 0.785
21.72000 0.994
21.74000 0.151
21.76000 6.909
21.78000 5.058
21.80000 17.532
21.82000 8.421
21.84000 1.349
21.86000 3.281
21.88000 8.015
21.90000 2.039
21.92000 2.636
21.94000 5.450
21.96000 5.741
21.98000 7.179
22.00000 2.308
22.02000 -0.096
22.04000 5.084
22.06000 7.504
22.08000 3.816
22.10000 -4.133
22.12000 -3.190
22.14000 -3.838
22.16000 0.540
22.18000 0.060
22.20000 6.279
22.22000 7.326
22.24000 2.331
22.26000 2.404
22.28000 -1.379
22.30000 -0.635
22.32000 -2.665
22.34000 3.097
22.36000 6.784
22.38000 4.752
22.40000 6.557
22.42000 2.077
22.44000 2.335
22.46000 2.137
22.48000 -1.832
22.50000 -2.290
22.52000 1.427
22.54000 5.768
22.56000 0.341
22.58000 -0.680
22.60000 -0.445
22.62000 3.494
22.64000 3.173
22.66000 -2.107
22.68000 -1.086
22.70000 1.781
22.72000 3.443
22.74000 4.400
22.76000 9.273
22.78000 9.062
22.80000 -3.322
22.82000 -1.317
22.84000 4.495
22.86000 3.244
22.88000 6.099
22.90000 4.694
22.92000 0.252
22.94000 -0.666
22.96000 3.685
22.98000 3.193
23.00000 0.567
23.02000 0.604
23.04000 1.598
23.06000 2.617
23.08000 -0.654
23.10000 -3.098
23.12000 -1.762
23.14000 -1.625
23.16000 0.305
23.18000 2.435
23.20000 6.899
23.22000 4.593
23.24000 7.738
23.26000 6.907
23.28000 7.354
23.30000 7.927
23.32000 1.235
23.34000 -0.393
23.36000 1.576
23.38000 0.785
23.40000 1.510
23.42000 4.885
23.44000 5.060
23.46000 3.881
23.48000 -0.825
23.50000 -1.136
23.52000 -1.639
23.54000 -4.066
23.56000 -1.242
23.58000 3.339
23.60000 2.842
23.62000 -1.051
23.64000 -3.952
23.66000 1.134
23.68000 5.267
23.70000 6.027
23.72000 1.607
23.74000 -0.303
23.76000 1.938
23.78000 0.974
23.80000 -4.045
23.82000 -1.353
23.84000 0.993
23.86000 -0.707
23.88000 2.029
23.90000 7.864
23.92000 4.711
23.94000 0.275
23.96000 -3.621
23.98000 -1.597
24.00000 1.805
24.02000 3.134
24.04000 0.389
24.06000 3.234
24.08000 5.708
24.10000 0.844
24.12000 0.454
24.14000 -2.246
24.16000 -1.120
24.18000 3.332
24.20000 5.731
24.22000 2.394
24.24000 -1.303
24.26000 0.390
24.28000 6.694
24.30000 8.613
24.32000 0.935
24.34000 4.909
24.36000 -1.682
24.38000 -3.833
24.40000 0.611
24.42000 3.864
24.44000 2.606
24.46000 -1.986
24.48000 4.894
24.50000 6.569
24.52000 2.262
24.54000 2.160
24.56000 0.447
24.58000 0.513
24.60000 2.682
24.62000 3.481
24.64000 1.342
24.66000 -3.971
24.68000 1.568
24.70000 3.033
24.72000 7.316
24.74000 9.343
24.76000 6.631
24.78000 7.318
24.80000 2.478
24.82000 7.086
24.84000 8.388
24.86000 5.762
24.88000 7.723
24.90000 7.591
24.92000 2.981
24.94000 -2.510
24.96000 -1.507
24.98000 0.699
25.00000 3.115
25.02000 -3.950
25.04000 -2.600
25.06000 4.143
25.08000 5.419
25.10000 5.599
25.12000 8.893
25.14000 9.812
25.16000 3.067
25.18000 -0.076
25.20000 2.152
25.22000 6.425
25.24000 0.917
25.26000 -2.022
25.28000 3.183
25.30000 7.106
25.32000 6.112
25.34000 1.430
25.36000 6.085
25.38000 8.943
25.40000 7.767
25.42000 -1.536
25.44000 4.023
25.46000 6.846
25.48000 8.823
25.50000 3.808
25.52000 4.457
25.54000 8.167
25.56000 8.020
25.58000 -0.138
25.60000 3.586
25.62000 5.988
25.64000 8.620
25.66000 4.122
25.68000 5.266
25.70000 4.465
25.72000 0.550
25.74000 0.520
25.76000 -3.920
25.78000 3.654
25.80000 4.933
25.82000 4.500
25.84000 5.439
25.86000 1.005
25.88000 -0.411
25.90000 3.791
25.92000 0.411
25.94000 3.890
25.96000 1.480
25.98000 1.839
26.00000 7.757
26.02000 1.328
26.04000 4.737
26.06000 3.985
26.08000 0.841
26.10000 4.263
26.12000 4.095
26.14000 5.179
26.16000 3.065
26.18000 2.242
26.20000 4.044
26.22000 1.950
26.24000 4.603
26.26000 5.296
26.28000 4.583
26.30000 2.720
26.32000 2.514
26.34000 1.941
26.36000 -1.586
26.38000 -1.956
26.40000 -0.780
26.42000 4.858
26.44000 6.042
26.46000 1.300
26.48000 5.689
26.50000 8.892
26.52000 3.572
26.54000 1.373
26.56000 4.052
26.58000 5.127
26.60000 3.370
26.62000 -1.241
26.64000 2.170
26.66000 5.052
26.68000 -0.992
26.70000 0.978
26.72000 3.750
26.74000 5.112
26.76000 0.399
26.78000 4.504
26.80000 7.544
26.82000 1.727
26.84000 2.667
26.86000 5.008
26.88000 2.158
26.90000 0.705
26.92000 1.764
26.94000 -0.383
26.96000 -0.695
26.98000 3.036
27.00000 3.141
27.02000 2.362
27.04000 4.602
27.06000 3.345
27.08000 3.225
27.10000 -2.635
27.12000 -3.865
27.14000 1.176
27.16000 2.203
27.18000 1.739
27.20000 7.982
27.22000 5.536
27.24000 -1.709
27.26000 -1.973
27.28000 -0.054
27.30000 0.862
27.32000 2.852
27.34000 7.806
27.36000 8.993
27.38000 1.157
27.40000 2.887
27.42000 -0.799
27.44000 1.616
27.46000 7.478
27.48000 1.131
27.50000 1.847
27.52000 1.405
27.54000 4.146
27.56000 3.926
27.58000 1.627
27.60000 0.811
27.62000 2.274
27.64000 2.414
27.66000 0.540
27.68000 3.543
27.70000 3.315
27.72000 1.616
27.74000 -1.561
27.76000 3.074
27.78000 4.149
27.80000 5.873
27.82000 1.527
27.84000 -0.399
27.86000 4.584
27.88000 5.277
27.90000 2.642
27.92000 -3.814
27.94000 -1.483
27.96000 -0.613
27.98000 0.110
28.00000 -3.759
28.02000 4.287
28.04000 0.328
28.06000 1.132
28.08000 0.330
28.10000 -1.993
28.12000 3.970
28.14000 5.662
28.16000 6.755
28.18000 7.043
28.20000 5.730
28.22000 1.203
28.24000 -0.180
28.26000 3.565
28.28000 1.669
28.30000 -2.102
28.32000 -1.929
28.34000 0.101
28.36000 2.572
28.38000 -2.081
28.40000 -3.791
28.42000 5.225
28.44000 0.434
28.46000 1.703
28.48000 2.029
28.50000 0.418
28.52000 3.534
28.54000 4.702
28.56000 7.073
28.58000 5.122
28.60000 1.780
28.62000 3.413
28.64000 8.130
28.66000 6.812
28.68000 3.789
28.70000 -2.252
28.72000 2.974
28.74000 2.035
28.76000 0.017
28.78000 -1.238
28.80000 -0.372
28.82000 4.097
28.84000 3.633
28.86000 5.110
28.88000 3.048
28.90000 -0.417
28.92000 4.823
28.94000 5.412
28.96000 2.005
28.98000 1.516
29.00000 0.664
29.02000 -3.305
29.04000 -2.841
29.06000 0.391
29.08000 0.588
29.10000 2.479
29.12000 6.801
29.14000 1.429
29.16000 -3.737
29.18000 -0.527
29.20000 3.474
29.22000 5.285
29.24000 1.697
29.26000 0.952
29.28000 0.739
29.30000 4.550
29.32000 0.190
29.34000 0.246
29.36000 -0.994
29.38000 1.072
29.40000 4.254
29.42000 1.603
29.44000 -3.715
29.46000 -0.124
29.48000 1.404
29.50000 -1.670
29.52000 -1.748
29.54000 -0.098
29.56000 -0.491
29.58000 3.222
29.60000 0.671
29.62000 1.996
29.64000 1.634
29.66000 2.169
29.68000 0.390
29.70000 3.281
29.72000 5.201
29.74000 2.615
29.76000 5.419
29.78000 3.047
29.80000 2.313
29.82000 1.433
29.84000 -1.287
29.86000 0.822
29.88000 3.842
29.90000 3.716
29.92000 0.704
29.94000 1.220
29.96000 2.243
29.98000 6.457
30.00000 8.108
30.02000 6.507
30.04000 3.074
30.06000 7.093
30.08000 4.197
30.10000 -2.363
30.12000 -0.345
30.14000 7.249
30.16000 6.241
30.18000 5.851
30.20000 4.441
30.22000 5.024
30.24000 3.281
30.26000 3.953
30.28000 1.371
30.30000 2.271
30.32000 2.629
30.34000 -0.008
30.36000 -2.476
30.38000 -0.644
30.40000 6.283
30.42000 4.278
30.44000 0.337
30.46000 -1.865
30.48000 3.346
30.50000 3.195
30.52000 3.607
30.54000 4.320
30.56000 4.650
30.58000 7.642
30.60000 9.494
30.62000 4.282
30.64000 3.583
30.66000 2.335
30.68000 4.971
30.70000 4.239
30.72000 5.639
30.74000 6.414
30.76000 6.140
30.78000 2.355
30.80000 -3.643
30.82000 0.164
30.84000 2.198
30.86000 -1.930
30.88000 -0.977
30.90000 3.891
30.92000 5.081
30.94000 2.779
30.96000 4.611
30.98000 7.826
31.00000 8.228
31.02000 5.790
31.04000 -0.572
31.06000 1.025
31.08000 0.165
31.10000 -3.620
31.12000 -2.714
31.14000 0.502
31.16000 7.564
31.18000 7.059
31.20000 1.934
31.22000 5.306
31.24000 7.422
31.26000 4.692
31.28000 0.799
31.30000 2.609
31.32000 1.901
31.34000 1.031
31.36000 0.683
31.38000 1.779
31.40000 2.105
31.42000 8.775
31.44000 7.652
31.46000 1.206
31.48000 -2.667
31.50000 3.080
31.52000 3.785
31.54000 0.925
31.56000 -0.348
31.58000 2.328
31.60000 4.806
31.62000 3.583
31.64000 2.075
31.66000 4.356
31.68000 4.178
31.70000 3.321
31.72000 6.067
31.74000 1.784
31.76000 1.542
31.78000 7.362
31.80000 5.053
31.82000 5.281
31.84000 6.659
31.86000 5.501
31.88000 5.136
31.90000 5.535
31.92000 9.531
31.94000 11.378
31.96000 7.091
31.98000 7.517
32.00000 5.466
32.02000 -1.687
32.04000 -3.588
32.06000 -0.601
32.08000 3.965
32.10000 2.845
32.12000 7.036
32.14000 7.531
32.16000 4.947
32.18000 3.748
32.20000 4.306
32.22000 1.782
32.24000 -2.681
32.26000 -0.699
32.28000 -1.418
32.30000 3.273
32.32000 5.024
32.34000 3.573
32.36000 9.973
32.38000 8.169
32.40000 7.982
32.42000 8.013
32.44000 0.663
32.46000 5.271
32.48000 6.167
32.50000 3.771
32.52000 2.889
32.54000 6.043
32.56000 1.847
32.58000 0.361
32.60000 0.589
32.62000 1.641
32.64000 3.719
32.66000 1.556
32.68000 -1.901
32.70000 0.429
32.72000 0.464
32.74000 4.861
32.76000 3.209
32.78000 2.059
32.80000 -0.385
32.82000 -0.686
32.84000 2.438
32.86000 3.825
32.88000 2.982
32.90000 1.779
32.92000 2.475
32.94000 -2.414
32.96000 4.513
32.98000 4.522
33.00000 7.534
33.02000 6.138
33.04000 4.221
33.06000 -3.030
33.08000 -1.139
33.10000 -0.171
33.12000 3.754
33.14000 1.735
33.16000 -2.730
33.18000 -3.588
33.20000 -0.300
33.22000 2.249
33.24000 3.091
33.26000 -1.792
33.28000 -2.747
33.30000 -1.704
33.32000 2.281
33.34000 -1.929
33.36000 0.041
33.38000 1.747
33.40000 4.203
33.42000 10.050
33.44000 7.290
33.46000 5.306
33.48000 1.395
33.50000 0.099
33.52000 2.121
33.54000 1.770
33.56000 -0.234
33.58000 0.500
33.60000 3.658
33.62000 4.236
33.64000 4.299
33.66000 3.848
33.68000 -3.368
33.70000 -0.805
33.72000 -0.084
33.74000 5.687
33.76000 4.913
33.78000 4.975
33.80000 7.185
33.82000 1.704
33.84000 -0.714
33.86000 3.585
33.88000 5.206
33.90000 2.134
33.92000 -0.601
33.94000 0.497
33.96000 2.329
33.98000 4.866
34.00000 0.231
34.02000 -3.576
34.04000 0.050
34.06000 4.734
34.08000 2.740
34.10000 -0.275
34.12000 0.625
34.14000 1.684
34.16000 4.600
34.18000 2.050
34.20000 1.217
34.22000 -0.123
34.24000 4.083
34.26000 2.630
34.28000 2.951
34.30000 3.574
34.32000 5.389
34.34000 7.460
34.36000 2.434
34.38000 3.977
34.40000 5.640
34.42000 3.197
34.44000 3.575
34.46000 2.628
34.48000 -0.212
34.50000 -0.045
34.52000 -1.980
34.54000 -0.065
34.56000 0.919
34.58000 0.397
34.60000 1.120
34.62000 -0.178
34.64000 2.067
34.66000 3.440
34.68000 3.914
34.70000 7.032
34.72000 2.716
34.74000 3.884
34.76000 1.427
34.78000 4.042
34.80000 3.292
34.82000 1.916
34.84000 0.951
34.86000 -0.465
34.88000 1.453
34.90000 4.539
34.92000 2.779
34.94000 2.839
34.96000 -0.820
34.98000 -0.364
35.00000 5.980
35.02000 7.329
35.04000 5.255
35.06000 0.943
35.08000 -0.006
35.10000 5.184
35.12000 4.937
35.14000 1.751
35.16000 5.831
35.18000 3.257
35.20000 -3.505
35.22000 -1.077
35.24000 3.928
35.26000 1.667
35.28000 -0.152
35.30000 0.058
35.32000 -1.086
35.34000 1.224
35.36000 1.947
35.38000 2.034
35.40000 1.774
35.42000 4.290
35.44000 2.429
35.46000 0.249
35.48000 0.681
35.50000 2.853
35.52000 1.689
35.54000 0.774
35.56000 4.408
35.58000 4.440
35.60000 5.369
35.62000 3.062
35.64000 -0.369
35.66000 4.045
35.68000 5.596
35.70000 6.446
35.72000 6.739
35.74000 2.133
35.76000 -2.429
35.78000 -3.493
35.80000 1.060
35.82000 3.483
35.84000 6.539
35.86000 4.563
35.88000 7.146
35.90000 9.032
35.92000 3.619
35.94000 0.453
35.96000 3.416
35.98000 0.476
36.00000 -0.531
36.02000 1.252
36.04000 5.045
36.06000 9.196
36.08000 4.308
36.10000 2.687
36.12000 -0.150
36.14000 -0.414
36.16000 -3.127
36.18000 -1.278
36.20000 -1.469
36.22000 1.092
36.24000 4.816
36.26000 8.605
36.28000 5.608
36.30000 5.188
36.32000 4.963
36.34000 2.830
36.36000 3.047
36.38000 4.544
36.40000 7.417
36.42000 7.615
36.44000 8.615
36.46000 3.044
36.48000 -0.986
36.50000 2.256
36.52000 6.553
36.54000 4.821
36.56000 1.552
36.58000 4.223
36.60000 4.419
36.62000 2.427
36.64000 2.488
36.66000 4.544
36.68000 6.741
36.70000 4.431
36.72000 4.982
36.74000 6.175
36.76000 6.409
36.78000 5.307
36.80000 1.696
36.82000 4.126
36.84000 2.332
36.86000 1.612
36.88000 6.405
36.90000 3.420
36.92000 -3.028
36.94000 -3.522
36.96000 -1.947
36.98000 -3.436
37.00000 5.175
37.02000 3.818
37.04000 0.420
37.06000 4.540
37.08000 6.811
37.10000 4.113
37.12000 -0.244
37.14000 2.483
37.16000 4.781
37.18000 3.773
37.20000 2.870
37.22000 4.827
37.24000 2.807
37.26000 2.009
37.28000 -0.712
37.30000 3.018
37.32000 -0.005
37.34000 -3.018
37.36000 -3.569
37.38000 -2.806
37.40000 -1.534
37.42000 -0.310
37.44000 -2.948
37.46000 2.796
37.48000 2.999
37.50000 0.297
37.52000 1.803
37.54000 3.414
37.56000 3.649
37.58000 2.808
37.60000 1.707
37.62000 3.189
37.64000 3.791
37.66000 -2.919
37.68000 -1.414
37.70000 1.322
37.72000 -0.027
37.74000 -3.618
37.76000 0.275
37.78000 4.067
37.80000 0.998
37.82000 -0.169
37.84000 -0.287
37.86000 1.267
37.88000 -2.232
37.90000 -3.244
37.92000 0.354
37.94000 1.995
37.96000 3.342
37.98000 -0.305
38.00000 -1.821
38.02000 2.326
38.04000 9.504
38.06000 5.861
38.08000 5.789
38.10000 6.935
38.12000 2.687
38.14000 2.728
38.16000 7.664
38.18000 10.052
38.20000 3.981
38.22000 4.809
38.24000 9.269
38.26000 11.550
38.28000 7.723
38.30000 3.944
38.32000 7.623
38.34000 14.291
38.36000 8.124
38.38000 10.196
38.40000 15.117
38.42000 13.974
38.44000 13.226
38.46000 10.957
38.48000 10.394
38.50000 14.679
38.52000 17.679
38.54000 15.712
38.56000 11.514
38.58000 13.577
38.60000 18.368
38.62000 17.306
38.64000 14.801
38.66000 15.458
38.68000 18.647
38.70000 18.833
38.72000 21.331
38.74000 15.224
38.76000 16.476
38.78000 18.231
38.80000 15.305
38.82000 17.574
38.84000 22.590
38.86000 25.401
38.88000 25.221
38.90000 29.198
38.92000 29.153
38.94000 31.386
38.96000 26.606
38.98000 26.433
39.00000 29.462
39.02000 32.250
39.04000 30.313
39.06000 28.021
39.08000 24.040
39.10000 22.366
39.12000 27.336
39.14000 30.530
39.16000 31.056
39.18000 32.573
39.20000 30.401
39.22000 33.304
39.24000 39.955
39.26000 37.516
39.28000 39.326
39.30000 41.779
39.32000 43.353
39.34000 44.943
39.36000 41.425
39.38000 40.453
39.40000 43.420
39.42000 46.726
39.44000 51.778
39.46000 54.740
39.48000 52.217
39.50000 56.829
39.52000 65.298
39.54000 65.007
39.56000 67.177
39.58000 63.929
39.60000 68.403
39.62000 68.360
39.64000 68.475
39.66000 75.096
39.68000 74.462
39.70000 85.967
39.72000 91.458
39.74000 93.977
39.76000 96.366
39.78000 101.633
39.80000 104.714
39.82000 105.410
39.84000 112.701
39.86000 121.618
39.88000 127.959
39.90000 135.504
39.92000 136.283
39.94000 146.780
39.96000 152.173
39.98000 160.939
40.00000 169.798
40.02000 177.466
40.04000 184.632
40.06000 192.799
40.08000 207.570
40.10000 221.356
40.12000 224.432
40.14000 238.681
40.16000 242.120
40.18000 255.916
40.20000 265.261
40.22000 280.067
40.24000 294.038
40.26000 312.311
40.28000 331.892
40.30000 343.491
40.32000 363.347
40.34000 376.756
40.36000 393.462
40.38000 410.712
40.40000 433.647
40.42000 447.091
40.44000 466.028
40.46000 486.904
40.48000 511.514
40.50000 526.196
40.52000 537.065
40.54000 549.431
40.56000 584.431
40.58000 608.493
40.60000 626.571
40.62000 639.652
40.64000 663.278
40.66000 670.997
40.68000 678.201
40.70000 686.256
40.72000 696.475
40.74000 714.088
40.76000 716.466
40.78000 725.354
40.80000 722.364
40.82000 735.804
40.84000 738.975
40.86000 726.059
40.88000 725.746
40.90000 714.967
40.92000 707.257
40.94000 703.262
40.96000 689.607
40.98000 678.141
41.00000 654.695
41.02000 628.091
41.04000 608.746
41.06000 602.269
41.08000 586.494
41.10000 559.762
41.12000 538.125
41.14000 527.633
41.16000 502.435
41.18000 487.919
41.20000 472.753
41.22000 442.681
41.24000 415.990
41.26000 408.830
41.28000 392.269
41.30000 371.765
41.32000 352.664
41.34000 335.770
41.36000 317.280
41.38000 296.713
41.40000 278.376
41.42000 271.024
41.44000 262.240
41.46000 247.118
41.48000 228.491
41.50000 213.833
41.52000 205.136
41.54000 188.980
41.56000 181.524
41.58000 176.536
41.60000 162.175
41.62000 151.467
41.64000 146.143
41.66000 139.675
41.68000 129.355
41.70000 124.064
41.72000 122.500
41.74000 115.547
41.76000 104.916
41.78000 96.760
41.80000 90.427
41.82000 91.482
41.84000 88.197
41.86000 80.517
41.88000 73.815
41.90000 75.498
41.92000 71.283
41.94000 65.502
41.96000 59.599
41.98000 57.051
42.00000 58.545
42.02000 60.025
42.04000 54.212
42.06000 52.730
42.08000 48.669
42.10000 42.454
42.12000 45.329
42.14000 35.924
42.16000 37.400
42.18000 32.466
42.20000 34.349
42.22000 37.646
42.24000 32.906
42.26000 29.336
42.28000 25.009
42.30000 27.330
42.32000 26.471
42.34000 19.312
42.36000 21.297
42.38000 24.535
42.40000 22.490
42.42000 22.317
42.44000 18.105
42.46000 17.833
42.48000 14.692
42.50000 17.015
42.52000 14.663
42.54000 13.878
42.56000 15.298
42.58000 9.492
42.60000 11.790
42.62000 9.096
42.64000 8.574
42.66000 10.174
42.68000 12.502
42.70000 14.585
42.72000 9.537
42.74000 9.519
42.76000 7.374
42.78000 5.842
42.80000 3.235
42.82000 6.340
42.84000 10.492
42.86000 18.704
42.88000 10.188
42.90000 3.331
42.92000 6.304
42.94000 6.804
42.96000 1.605
42.98000 5.092
43.00000 4.965
43.02000 2.936
43.04000 3.268
43.06000 3.904
43.08000 3.186
43.10000 4.678
43.12000 2.454
43.14000 1.881
43.16000 8.975
43.18000 7.076
43.20000 3.441
43.22000 0.447
43.24000 -3.684
43.26000 1.098
43.28000 3.400
43.30000 2.980
43.32000 1.667
43.34000 1.845
43.36000 1.455
43.38000 -2.649
43.40000 -3.096
43.42000 1.223
43.44000 2.993
43.46000 1.260
43.48000 0.378
43.50000 5.248
43.52000 6.187
43.54000 4.628
43.56000 1.327
43.58000 0.926
43.60000 -2.158
43.62000 -1.682
43.64000 -1.542
43.66000 0.035
43.68000 -0.646
43.70000 0.719
43.72000 2.311
43.74000 2.428
43.76000 0.148
43.78000 -1.350
43.80000 4.026
43.82000 0.936
43.84000 2.212
43.86000 -1.271
43.88000 -3.602
43.90000 -1.836
43.92000 -3.295
43.94000 0.438
43.96000 4.304
43.98000 4.161
44.00000 2.372
44.02000 -1.955
44.04000 -0.885
44.06000 -0.729
44.08000 -3.587
44.10000 1.585
44.12000 3.670
44.14000 0.895
44.16000 1.821
44.18000 4.082
44.20000 2.583
44.22000 -1.299
44.24000 3.270
44.26000 4.250
44.28000 3.816
44.30000 1.827
44.32000 0.584
44.34000 3.802
44.36000 1.536
44.38000 6.913
44.40000 0.514
44.42000 -3.105
44.44000 -2.350
44.46000 -2.396
44.48000 -1.759
44.50000 1.382
44.52000 2.893
44.54000 5.599
44.56000 2.480
44.58000 0.595
44.60000 3.666
44.62000 0.539
44.64000 1.368
44.66000 -0.949
44.68000 0.802
44.70000 3.406
44.72000 3.599
44.74000 -1.733
44.76000 -1.260
44.78000 0.224
44.80000 -1.336
44.82000 -1.350
44.84000 0.364
44.86000 -2.474
44.88000 -1.159
44.90000 6.287
44.92000 7.805
44.94000 3.870
44.96000 -2.327
44.98000 -3.012
45.00000 -2.211
45.02000 1.024
45.04000 -1.500
45.06000 0.960
45.08000 0.843
45.10000 5.059
45.12000 -0.378
45.14000 -0.401
45.16000 5.157
45.18000 9.066
45.20000 8.920
45.22000 7.484
45.24000 11.808
45.26000 5.636
45.28000 6.293
45.30000 8.287
45.32000 4.184
45.34000 2.180
45.36000 4.129
45.38000 6.501
45.40000 11.400
45.42000 8.199
45.44000 3.558
45.46000 9.046
45.48000 13.037
45.50000 4.099
45.52000 -3.521
45.54000 0.975
45.56000 6.731
45.58000 9.038
45.60000 10.963
45.62000 12.365
45.64000 15.098
45.66000 10.486
45.68000 11.215
45.70000 6.579
45.72000 10.030
45.74000 11.937
45.76000 12.956
45.78000 11.663
45.80000 10.863
45.82000 9.145
45.84000 11.204
45.86000 17.504
45.88000 14.183
45.90000 9.264
45.92000 8.324
45.94000 16.880
45.96000 20.959
45.98000 19.262
46.00000 17.422
46.02000 19.068
46.04000 18.945
46.06000 16.450
46.08000 18.239
46.10000 21.775
46.12000 17.145
46.14000 20.743
46.16000 20.614
46.18000 25.842
46.20000 27.219
46.22000 24.111
46.24000 23.610
46.26000 20.067
46.28000 14.397
46.30000 26.337
46.32000 28.361
46.34000 28.468
46.36000 25.409
46.38000 31.408
46.40000 26.292
46.42000 32.800
46.44000 35.818
46.46000 34.523
46.48000 30.313
46.50000 35.094
46.52000 35.832
46.54000 38.049
46.56000 32.908
46.58000 29.040
46.60000 39.234
46.62000 40.878
46.64000 44.216
46.66000 41.406
46.68000 41.910
46.70000 47.280
46.72000 42.870
46.74000 48.154
46.76000 55.472
46.78000 57.288
46.80000 49.751
46.82000 44.336
46.84000 54.008
46.86000 56.566
46.88000 46.461
46.90000 48.286
46.92000 59.651
46.94000 70.963
46.96000 69.304
46.98000 66.426
47.00000 70.282
47.02000 73.203
47.04000 67.741
47.06000 61.684
47.08000 68.596
47.10000 77.967
47.12000 75.646
47.14000 76.206
47.16000 78.639
47.18000 71.989
47.20000 76.603
47.22000 75.920
47.24000 76.397
47.26000 71.403
47.28000 72.000
47.30000 74.437
47.32000 73.658
47.34000 73.539
47.36000 79.896
47.38000 78.238
47.40000 81.023
47.42000 76.832
47.44000 72.702
47.46000 72.481
47.48000 82.021
47.50000 75.044
47.52000 73.464
47.54000 77.405
47.56000 79.573
47.58000 73.553
47.60000 68.492
47.62000 66.671
47.64000 65.138
47.66000 66.671
47.68000 65.581
47.70000 63.054
47.72000 59.722
47.74000 58.270
47.76000 61.572
47.78000 64.445
47.80000 52.130
47.82000 50.540
47.84000 51.933
47.86000 53.507
47.88000 55.368
47.90000 55.111
47.92000 50.538
47.94000 43.557
47.96000 43.610
47.98000 44.021
48.00000 37.537
48.02000 41.126
48.04000 47.372
48.06000 38.110
48.08000 38.172
48.10000 41.885
48.12000 33.240
48.14000 30.123
48.16000 29.916
48.18000 27.394
48.20000 29.868
48.22000 24.839
48.24000 22.267
48.26000 20.897
48.28000 25.619
48.30000 24.802
48.32000 19.943
48.34000 16.482
48.36000 14.485
48.38000 19.638
48.40000 10.845
48.42000 7.929
48.44000 9.716
48.46000 14.748
48.48000 17.526
48.50000 16.645
48.52000 15.894
48.54000 15.680
48.56000 11.487
48.58000 12.545
48.60000 12.314
48.62000 14.258
48.64000 12.685
48.66000 11.947
48.68000 12.967
48.70000 13.497
48.72000 9.186
48.74000 7.553
48.76000 10.383
48.78000 12.602
48.80000 7.675
48.82000 1.767
48.84000 0.109
48.86000 9.253
48.88000 5.066
48.90000 3.953
48.92000 1.507
48.94000 -2.777
48.96000 0.735
48.98000 2.340
49.00000 -1.321
49.02000 0.703
49.04000 5.146
49.06000 -1.887
49.08000 -0.662
49.10000 0.524
49.12000 -0.969
49.14000 -0.018
49.16000 -0.319
49.18000 -1.843
49.20000 0.574
49.22000 1.105
49.24000 1.928
49.26000 5.453
49.28000 9.830
49.30000 7.446
49.32000 9.919
49.34000 2.396
49.36000 3.305
49.38000 0.881
49.40000 -3.227
49.42000 5.221
49.44000 13.212
49.46000 12.145
49.48000 3.246
49.50000 2.309
49.52000 0.646
49.54000 7.173
49.56000 4.838
49.58000 -0.062
49.60000 2.722
49.62000 2.449
49.64000 2.217
49.66000 1.651
49.68000 -3.188
49.70000 -2.024
49.72000 -1.227
49.74000 -1.294
49.76000 -2.016
49.78000 3.811
49.80000 7.011
49.82000 5.666
49.84000 2.731
49.86000 4.845
49.88000 6.088
49.90000 2.239
49.92000 -0.159
49.94000 6.037
49.96000 6.737
49.98000 3.630
50.00000 2.671
50.02000 3.834
50.04000 3.813
50.06000 2.038
50.08000 2.066
50.10000 -1.480
50.12000 -0.170
50.14000 7.499
50.16000 8.651
50.18000 7.597
50.20000 1.343
50.22000 -0.281
50.24000 -1.788
50.26000 4.858
50.28000 10.205
50.30000 9.935
50.32000 7.036
50.34000 -0.426
50.36000 5.663
50.38000 7.816
50.40000 1.678
50.42000 5.858
50.44000 5.649
50.46000 3.904
50.48000 10.433
50.50000 5.422
50.52000 3.759
50.54000 1.816
50.56000 -3.047
50.58000 5.972
50.60000 9.417
50.62000 8.889
50.64000 8.934
50.66000 4.327
50.68000 -1.870
50.70000 2.936
50.72000 4.843
50.74000 1.910
50.76000 8.455
50.78000 7.587
50.80000 -0.495
50.82000 7.025
50.84000 5.692
50.86000 5.608
50.88000 4.271
50.90000 3.344
50.92000 3.145
50.94000 5.248
50.96000 4.478
50.98000 0.900
51.00000 3.703
51.02000 3.036
51.04000 4.060
51.06000 -0.528
51.08000 8.110
51.10000 3.751
51.12000 0.682
51.14000 4.946
51.16000 4.502
51.18000 3.363
51.20000 5.632
51.22000 5.393
51.24000 5.242
51.26000 1.887
51.28000 -1.394
51.30000 1.426
51.32000 3.040
51.34000 5.721
51.36000 4.184
51.38000 3.771
51.40000 7.469
51.42000 5.469
51.44000 1.025
51.46000 1.446
51.48000 2.315
51.50000 0.861
51.52000 -0.512
51.54000 2.669
51.56000 2.035
51.58000 1.884
51.60000 2.176
51.62000 2.702
51.64000 5.090
51.66000 8.765
51.68000 9.370
51.70000 2.034
51.72000 0.837
51.74000 4.784
51.76000 9.862
51.78000 6.237
51.80000 5.496
51.82000 1.312
51.84000 2.128
51.86000 5.595
51.88000 6.013
51.90000 9.043
51.92000 5.957
51.94000 2.992
51.96000 3.476
51.98000 5.409
52.00000 5.133
52.02000 1.627
52.04000 3.766
52.06000 4.802
52.08000 3.285
52.10000 0.412
52.12000 5.907
52.14000 6.706
52.16000 5.672
52.18000 2.300
52.20000 5.996
52.22000 4.960
52.24000 4.538
52.26000 3.940
52.28000 7.738
52.30000 0.926
52.32000 1.580
52.34000 2.298
52.36000 1.405
52.38000 3.998
52.40000 3.076
52.42000 -2.970
52.44000 3.480
52.46000 -0.453
52.48000 1.004
52.50000 0.040
52.52000 7.798
52.54000 5.256
52.56000 2.929
52.58000 4.941
52.60000 3.340
52.62000 2.843
52.64000 5.380
52.66000 4.211
52.68000 3.466
52.70000 4.396
52.72000 8.028
52.74000 7.787
52.76000 1.472
52.78000 1.960
52.80000 3.596
52.82000 2.791
52.84000 3.629
52.86000 2.048
52.88000 0.532
52.90000 3.630
52.92000 2.003
52.94000 8.891
52.96000 10.982
52.98000 8.570
53.00000 0.201
53.02000 -2.954
53.04000 -1.297
53.06000 1.491
53.08000 1.069
53.10000 1.565
53.12000 5.719
53.14000 2.425
53.16000 2.716
53.18000 -1.260
53.20000 0.508
53.22000 1.665
53.24000 3.152
53.26000 5.508
53.28000 4.980
53.30000 4.143
53.32000 3.997
53.34000 7.277
53.36000 5.377
53.38000 -0.549
53.40000 -0.231
53.42000 1.530
53.44000 -0.348
53.46000 -1.585
53.48000 -1.685
53.50000 5.589
53.52000 10.062
53.54000 2.385
53.56000 5.259
53.58000 4.479
53.60000 -2.957
53.62000 0.684
53.64000 2.399
53.66000 5.258
53.68000 6.386
53.70000 6.662
53.72000 0.807
53.74000 1.342
53.76000 4.751
53.78000 2.697
53.80000 3.059
53.82000 3.207
53.84000 2.226
53.86000 1.689
53.88000 0.040
53.90000 1.162
53.92000 -1.111
53.94000 0.299
53.96000 -2.452
53.98000 3.889
54.00000 -0.275
54.02000 2.342
54.04000 3.310
54.06000 1.378
54.08000 2.569
54.10000 2.727
54.12000 0.040
54.14000 3.542
54.16000 1.947
54.18000 3.251
54.20000 3.408
54.22000 5.898
54.24000 -0.134
54.26000 -2.550
54.28000 4.630
54.30000 7.945
54.32000 6.374
54.34000 -1.472
54.36000 2.650
54.38000 1.255
54.40000 3.552
54.42000 1.276
54.44000 -2.936
54.46000 -0.372
54.48000 0.114
54.50000 -1.221
54.52000 3.401
54.54000 6.202
54.56000 8.710
54.58000 2.765
54.60000 3.444
54.62000 9.507
54.64000 7.301
54.66000 5.551
54.68000 6.129
54.70000 5.455
54.72000 4.067
54.74000 0.126
54.76000 1.552
54.78000 2.070
54.80000 1.438
54.82000 3.999
54.84000 1.828
54.86000 4.463
54.88000 13.123
54.90000 6.305
54.92000 3.208
54.94000 6.464
54.96000 4.486
54.98000 1.493
55.00000 6.427
55.02000 5.005
55.04000 4.182
55.06000 8.271
55.08000 7.090
55.10000 6.174
55.12000 4.503
55.14000 6.088
55.16000 3.702
55.18000 12.264
55.20000 11.262
55.22000 8.750
55.24000 9.872
55.26000 5.955
55.28000 7.946
55.30000 6.916
55.32000 2.612
55.34000 -2.868
55.36000 -0.314
55.38000 7.119
55.40000 8.973
55.42000 6.145
55.44000 7.828
55.46000 6.727
55.48000 6.968
55.50000 2.896
55.52000 3.807
55.54000 4.382
55.56000 3.218
55.58000 1.700
55.60000 4.210
55.62000 4.595
55.64000 4.826
55.66000 1.081
55.68000 3.131
55.70000 8.027
55.72000 9.327
55.74000 5.297
55.76000 3.752
55.78000 0.489
55.80000 8.377
55.82000 9.064
55.84000 1.044
55.86000 4.136
55.88000 4.262
55.90000 9.549
55.92000 3.190
55.94000 6.564
55.96000 4.579
55.98000 6.756
56.00000 5.860
56.02000 3.726
56.04000 2.097
56.06000 4.246
56.08000 1.749
56.10000 3.903
56.12000 1.474
56.14000 7.188
56.16000 4.896
56.18000 5.720
56.20000 7.207
56.22000 6.265
56.24000 2.683
56.26000 1.017
56.28000 8.118
56.30000 3.499
56.32000 4.080
56.34000 7.315
56.36000 4.800
56.38000 6.904
56.40000 6.796
56.42000 5.266
56.44000 5.650
56.46000 4.355
56.48000 -2.881
56.50000 -1.577
56.52000 0.226
56.54000 2.350
56.56000 2.724
56.58000 -0.863
56.60000 1.335
56.62000 2.977
56.64000 0.739
56.66000 0.427
56.68000 1.695
56.70000 1.389
56.72000 4.316
56.74000 6.782
56.76000 0.687
56.78000 2.677
56.80000 4.519
56.82000 1.702
56.84000 0.151
56.86000 0.099
56.88000 -1.455
56.90000 3.005
56.92000 6.730
56.94000 7.947
56.96000 1.712
56.98000 -0.853
57.00000 0.217
57.02000 6.362
57.04000 3.793
57.06000 -1.527
57.08000 3.110
57.10000 0.423
57.12000 -2.106
57.14000 1.188
57.16000 3.911
57.18000 4.593
57.20000 1.856
57.22000 2.461
57.24000 -0.338
57.26000 -1.397
57.28000 -0.682
57.30000 2.910
57.32000 1.476
57.34000 0.690
57.36000 -0.839
57.38000 1.768
57.40000 5.171
57.42000 5.510
57.44000 1.242
57.46000 0.658
57.48000 -1.832
57.50000 -2.832
57.52000 -1.636
57.54000 0.840
57.56000 5.415
57.58000 4.572
57.60000 1.567
57.62000 1.359
57.64000 -0.213
57.66000 2.245
57.68000 0.752
57.70000 -0.292
57.72000 1.635
57.74000 10.101
57.76000 6.463
57.78000 -1.695
57.80000 -2.170
57.82000 3.899
57.84000 4.306
57.86000 1.506
57.88000 0.669
57.90000 -1.293
57.92000 0.154
57.94000 1.232
57.96000 -0.330
57.98000 2.982
58.00000 5.192
58.02000 2.112
58.04000 -2.217
58.06000 -0.931
58.08000 -1.391
58.10000 0.688
58.12000 3.113
58.14000 2.952
58.16000 6.973
58.18000 6.799
58.20000 5.514
58.22000 1.034
58.24000 5.372
58.26000 4.170
58.28000 5.410
58.30000 7.210
58.32000 3.167
58.34000 -1.107
58.36000 -1.480
58.38000 0.099
58.40000 7.845
58.42000 -0.104
58.44000 -1.685
58.46000 3.125
58.48000 5.761
58.50000 4.737
58.52000 0.162
58.54000 6.918
58.56000 3.493
58.58000 1.162
58.60000 0.680
58.62000 -0.251
58.64000 0.270
58.66000 1.629
58.68000 1.776
58.70000 7.339
58.72000 3.010
58.74000 1.214
58.76000 2.869
58.78000 -1.053
58.80000 1.229
58.82000 3.342
58.84000 3.189
58.86000 6.856
58.88000 7.064
58.90000 3.456
58.92000 4.954
58.94000 1.043
58.96000 -0.591
58.98000 6.438
59.00000 1.049
59.02000 0.064
59.04000 1.702
59.06000 0.898
59.08000 -2.783
59.10000 -1.238
59.12000 3.464
59.14000 1.025
59.16000 4.031
59.18000 4.971
59.20000 6.005
59.22000 10.065
59.24000 7.749
59.26000 3.525
59.28000 3.671
59.30000 8.742
59.32000 7.326
59.34000 2.645
59.36000 5.092
59.38000 1.865
59.40000 0.465
59.42000 4.528
59.44000 3.854
59.46000 0.711
59.48000 -0.180
59.50000 3.374
59.52000 4.111
59.54000 4.511
59.56000 6.711
59.58000 4.447
59.60000 0.198
59.62000 2.938
59.64000 2.266
59.66000 3.881
59.68000 2.959
59.70000 4.491
59.72000 4.900
59.74000 10.646
59.76000 7.034
59.78000 6.084
59.80000 7.009
59.82000 12.127
59.84000 12.596
59.86000 9.735
59.88000 6.385
59.90000 10.124
59.92000 8.084
59.94000 7.700
59.96000 0.761
59.98000 -2.427
60.00000 -2.690
60.02000 7.808
60.04000 14.130
60.06000 13.428
60.08000 9.658
60.10000 12.054
60.12000 8.961
60.14000 8.060
60.16000 8.400
60.18000 5.268
60.20000 8.144
60.22000 9.103
60.24000 5.210
60.26000 5.074
60.28000 7.318
60.30000 9.898
60.32000 7.698
60.34000 3.411
60.36000 4.279
60.38000 10.499
60.40000 8.182
60.42000 1.610
60.44000 -1.174
60.46000 4.548
60.48000 2.159
60.50000 2.005
60.52000 4.830
60.54000 4.462
60.56000 5.209
60.58000 4.072
60.60000 3.323
60.62000 3.101
60.64000 4.323
60.66000 2.717
60.68000 3.230
60.70000 0.704
60.72000 -0.709
60.74000 1.699
60.76000 -0.658
60.78000 1.624
60.80000 3.285
60.82000 -0.555
60.84000 -0.781
60.86000 2.192
60.88000 2.114
60.90000 4.469
60.92000 1.707
60.94000 1.269
60.96000 -2.720
60.98000 -0.551
61.00000 0.319
61.02000 -0.978
61.04000 2.826
61.06000 5.559
61.08000 4.163
61.10000 0.511
61.12000 2.501
61.14000 1.451
61.16000 5.506
61.18000 6.960
61.20000 8.502
61.22000 5.311
61.24000 4.222
61.26000 4.740
61.28000 0.345
61.30000 0.865
61.32000 -1.120
61.34000 -2.457
61.36000 -2.480
61.38000 0.574
61.40000 -0.529
61.42000 0.088
61.44000 3.292
61.46000 1.925
61.48000 -0.153
61.50000 -1.816
61.52000 -2.709
61.54000 -0.232
61.56000 -0.203
61.58000 1.671
61.60000 2.894
61.62000 1.172
61.64000 1.638
61.66000 4.416
61.68000 -0.241
61.70000 0.936
61.72000 4.361
61.74000 1.514
61.76000 0.365
61.78000 0.112
61.80000 -0.902
61.82000 -1.084
61.84000 2.379
61.86000 4.930
61.88000 3.294
61.90000 1.403
61.92000 -0.645
61.94000 0.249
61.96000 2.015
61.98000 0.971
62.00000 4.233
62.02000 5.873
62.04000 1.592
62.06000 0.408
62.08000 0.173
62.10000 -0.077
62.12000 -0.497
62.14000 0.009
62.16000 1.667
62.18000 2.970
62.20000 4.143
62.22000 3.019
62.24000 -0.907
62.26000 0.217
62.28000 1.507
62.30000 2.542
62.32000 6.259
62.34000 8.251
62.36000 5.724
62.38000 2.621
62.40000 3.505
62.42000 5.518
62.44000 0.077
62.46000 4.157
62.48000 3.179
62.50000 5.515
62.52000 6.407
62.54000 0.380
62.56000 -1.938
62.58000 2.887
62.60000 4.798
62.62000 4.345
62.64000 -0.712
62.66000 -2.667
62.68000 -1.766
62.70000 5.820
62.72000 8.898
62.74000 7.581
62.76000 8.043
62.78000 4.046
62.80000 2.622
62.82000 6.245
62.84000 3.937
62.86000 2.893
62.88000 3.913
62.90000 2.266
62.92000 5.048
62.94000 0.436
62.96000 -0.948
62.98000 0.319
63.00000 -0.189
63.02000 1.008
63.04000 1.698
63.06000 0.511
63.08000 3.253
63.10000 3.450
63.12000 5.900
63.14000 3.228
63.16000 0.837
63.18000 0.767
63.20000 1.666
63.22000 0.658
63.24000 -0.678
63.26000 -1.584
63.28000 -0.209
63.30000 0.702
63.32000 1.225
63.34000 -1.427
63.36000 -2.558
63.38000 -0.470
63.40000 2.513
63.42000 5.816
63.44000 3.555
63.46000 1.685
63.48000 3.579
63.50000 4.335
63.52000 7.098
63.54000 7.939
63.56000 4.618
63.58000 3.817
63.60000 3.359
63.62000 1.302
63.64000 4.714
63.66000 6.508
63.68000 0.810
63.70000 0.218
63.72000 -0.812
63.74000 1.209
63.76000 1.192
63.78000 2.588
63.80000 -2.611
63.82000 -0.185
63.84000 1.154
63.86000 1.819
63.88000 3.484
63.90000 2.325
63.92000 0.376
63.94000 5.681
63.96000 4.205
63.98000 2.464
64.00000 4.064
64.02000 3.755
64.04000 2.592
64.06000 4.889
64.08000 6.336
64.10000 0.665
64.12000 2.557
64.14000 3.272
64.16000 1.736
64.18000 -1.333
64.20000 4.657
64.22000 5.457
64.24000 0.249
64.26000 -0.628
64.28000 0.140
64.30000 0.060
64.32000 0.822
64.34000 -2.580
64.36000 2.909
64.38000 4.695
64.40000 4.681
64.42000 3.180
64.44000 2.954
64.46000 3.036
64.48000 1.831
64.50000 5.963
64.52000 4.477
64.54000 4.971
64.56000 3.386
64.58000 -0.948
64.60000 -2.346
64.62000 2.544
64.64000 3.505
64.66000 -1.877
64.68000 2.461
64.70000 2.400
64.72000 1.374
64.74000 1.918
64.76000 7.116
64.78000 5.132
64.80000 -0.749
64.82000 -0.928
64.84000 1.632
64.86000 2.011
64.88000 1.062
64.90000 -2.510
64.92000 -1.667
64.94000 0.279
64.96000 2.781
64.98000 4.001
65.00000 1.964
65.02000 1.365
65.04000 3.066
65.06000 3.798
65.08000 0.898
65.10000 1.006
65.12000 3.396
65.14000 3.049
65.16000 2.355
65.18000 1.122
65.20000 -0.448
65.22000 -1.041
65.24000 -0.887
65.26000 -1.276
65.28000 -2.631
65.30000 1.695
65.32000 1.697
65.34000 1.827
65.36000 0.266
65.38000 -0.481
65.40000 1.926
65.42000 4.407
65.44000 1.137
65.46000 -2.275
65.48000 0.323
65.50000 4.337
65.52000 4.822
65.54000 1.353
65.56000 2.484
65.58000 2.185
65.60000 0.368
65.62000 3.428
65.64000 4.175
65.66000 -0.261
65.68000 0.953
65.70000 2.571
65.72000 -1.790
65.74000 4.362
65.76000 5.274
65.78000 2.829
65.80000 2.259
65.82000 0.004
65.84000 -2.001
65.86000 -0.651
65.88000 1.337
65.90000 2.163
65.92000 -0.875
65.94000 2.618
65.96000 -0.407
65.98000 0.576
66.00000 0.803
66.02000 5.519
66.04000 1.357
66.06000 -2.600
66.08000 -1.761
66.10000 2.229
66.12000 2.127
66.14000 6.056
66.16000 5.482
66.18000 4.150
66.20000 0.721
66.22000 -2.602
66.24000 -0.904
66.26000 -0.451
66.28000 2.982
66.30000 5.625
66.32000 6.971
66.34000 2.792
66.36000 0.676
66.38000 0.216
66.40000 -1.939
66.42000 0.644
66.44000 -0.670
66.46000 0.804
66.48000 -0.537
66.50000 -2.602
66.52000 -0.521
66.54000 0.643
66.56000 0.171
66.58000 1.627
66.60000 1.623
66.62000 5.484
66.64000 4.459
66.66000 5.102
66.68000 7.024
66.70000 0.866
66.72000 -2.035
66.74000 1.771
66.76000 3.739
66.78000 2.216
66.80000 2.786
66.82000 4.329
66.84000 -0.367
66.86000 0.968
66.88000 2.698
66.90000 1.781
66.92000 0.155
66.94000 -0.500
66.96000 -0.476
66.98000 1.332
67.00000 6.295
67.02000 1.022
67.04000 -0.560
67.06000 1.478
67.08000 -0.540
67.10000 -2.596
67.12000 -1.046
67.14000 -1.027
67.16000 1.107
67.18000 0.719
67.20000 -1.563
67.22000 -0.601
67.24000 1.384
67.26000 3.563
67.28000 0.789
67.30000 -1.705
67.32000 -0.560
67.34000 1.246
67.36000 3.843
67.38000 3.137
67.40000 2.157
67.42000 0.224
67.44000 2.374
67.46000 4.052
67.48000 2.586
67.50000 1.413
67.52000 -0.059
67.54000 0.698
67.56000 -1.291
67.58000 -1.983
67.60000 0.296
67.62000 -2.631
67.64000 -1.707
67.66000 2.281
67.68000 -0.503
67.70000 -0.703
67.72000 -1.064
67.74000 -1.319
67.76000 3.031
67.78000 0.905
67.80000 0.303
67.82000 -0.637
67.84000 0.411
67.86000 -2.279
67.88000 -1.214
67.90000 3.722
67.92000 4.503
67.94000 1.379
67.96000 0.372
67.98000 4.567
68.00000 2.281
68.02000 3.619
68.04000 -2.543
68.06000 1.029
68.08000 2.773
68.10000 0.545
68.12000 0.789
68.14000 3.123
68.16000 0.939
68.18000 -1.869
68.20000 -1.856
68.22000 -1.108
68.24000 -0.936
68.26000 4.319
68.28000 2.353
68.30000 5.839
68.32000 4.697
68.34000 6.237
68.36000 3.124
68.38000 1.129
68.40000 5.433
68.42000 2.797
68.44000 1.136
68.46000 5.898
68.48000 6.172
68.50000 6.151
68.52000 8.764
68.54000 7.851
68.56000 9.113
68.58000 13.549
68.60000 10.422
68.62000 11.561
68.64000 13.087
68.66000 11.367
68.68000 9.183
68.70000 9.158
68.72000 10.446
68.74000 14.708
68.76000 16.699
68.78000 14.781
68.80000 15.434
68.82000 18.779
68.84000 16.730
68.86000 15.266
68.88000 15.474
68.90000 16.954
68.92000 20.305
68.94000 21.377
68.96000 19.988
68.98000 24.108
69.00000 22.654
69.02000 20.822
69.04000 21.608
69.06000 20.942
69.08000 22.844
69.10000 27.252
69.12000 27.953
69.14000 25.332
69.16000 22.561
69.18000 25.090
69.20000 31.315
69.22000 28.163
69.24000 27.969
69.26000 27.826
69.28000 27.549
69.30000 29.521
69.32000 25.503
69.34000 26.773
69.36000 26.659
69.38000 29.631
69.40000 27.776
69.42000 27.255
69.44000 28.617
69.46000 30.261
69.48000 23.507
69.50000 23.204
69.52000 23.218
69.54000 27.327
69.56000 25.776
69.58000 27.845
69.60000 24.653
69.62000 25.589
69.64000 23.976
69.66000 23.449
69.68000 23.076
69.70000 20.929
69.72000 20.657
69.74000 22.047
69.76000 22.339
69.78000 20.037
69.80000 17.970
69.82000 14.749
69.84000 11.041
69.86000 12.600
69.88000 14.519
69.90000 16.637
69.92000 13.397
69.94000 12.916
69.96000 17.121
69.98000 17.190
70.00000 15.865
70.02000 11.343
70.04000 10.367
70.06000 12.027
70.08000 8.188
70.10000 9.778
70.12000 11.611
70.14000 8.408
70.16000 5.806
70.18000 9.445
70.20000 6.346
70.22000 8.164
70.24000 4.003
70.26000 5.635
70.28000 5.297
70.30000 5.494
70.32000 6.786
70.34000 4.607
70.36000 5.188
70.38000 5.582
70.40000 9.045
70.42000 5.264
70.44000 5.068
70.46000 2.765
70.48000 1.144
70.50000 2.224
70.52000 2.732
70.54000 5.974
70.56000 4.601
70.58000 6.103
70.60000 2.057
70.62000 0.653
70.64000 1.261
70.66000 3.111
70.68000 4.556
70.70000 1.623
70.72000 6.060
70.74000 3.933
70.76000 0.807
70.78000 1.366
70.80000 1.075
70.82000 0.950
70.84000 1.738
70.86000 3.987
70.88000 1.421
70.90000 1.749
70.92000 0.374
70.94000 1.743
70.96000 3.483
70.98000 5.794
71.00000 5.937
71.02000 5.885
71.04000 3.618
71.06000 -0.086
71.08000 2.527
71.10000 1.798
71.12000 5.638
71.14000 4.994
71.16000 3.378
71.18000 3.757
71.20000 4.420
71.22000 3.498
71.24000 4.746
71.26000 0.875
71.28000 6.374
71.30000 3.150
71.32000 2.709
71.34000 6.845
71.36000 4.073
71.38000 3.928
71.40000 7.845
71.42000 6.801
71.44000 5.749
71.46000 6.457
71.48000 3.626
71.50000 2.873
71.52000 1.503
71.54000 1.985
71.56000 0.380
71.58000 -2.330
71.60000 1.729
71.62000 3.696
71.64000 4.905
71.66000 6.416
71.68000 5.687
71.70000 4.866
71.72000 7.094
71.74000 2.481
71.76000 -0.795
71.78000 0.510
71.80000 7.317
71.82000 4.893
71.84000 3.332
71.86000 8.051
71.88000 1.263
71.90000 0.534
71.92000 4.033
71.94000 10.735
71.96000 9.395
71.98000 2.582
72.00000 3.970
72.02000 3.796
72.04000 6.139
72.06000 1.511
72.08000 0.131
72.10000 3.907
72.12000 6.255
72.14000 3.288
72.16000 3.147
72.18000 3.958
72.20000 2.082
72.22000 4.228
72.24000 -1.692
72.26000 -0.617
72.28000 1.063
72.30000 1.149
72.32000 1.140
72.34000 3.065
72.36000 2.092
72.38000 -1.273
72.40000 0.993
72.42000 1.247
72.44000 -0.772
72.46000 4.169
72.48000 3.530
72.50000 2.556
72.52000 5.555
72.54000 5.128
72.56000 0.030
72.58000 0.086
72.60000 2.476
72.62000 -1.546
72.64000 1.714
72.66000 3.997
72.68000 0.974
72.70000 1.052
72.72000 4.430
72.74000 0.630
72.76000 0.455
72.78000 -0.263
72.80000 3.934
72.82000 0.044
72.84000 -2.317
72.86000 0.664
72.88000 3.593
72.90000 1.481
72.92000 -0.593
72.94000 4.470
72.96000 7.098
72.98000 2.311
73.00000 1.979
73.02000 1.667
73.04000 -1.641
73.06000 2.060
73.08000 1.919
73.10000 2.690
73.12000 3.200
73.14000 3.733
73.16000 4.057
73.18000 2.153
73.20000 2.757
73.22000 0.807
73.24000 1.457
73.26000 1.037
73.28000 2.681
73.30000 -0.004
73.32000 1.323
73.34000 0.376
73.36000 5.674
73.38000 0.823
73.40000 6.492
73.42000 8.342
73.44000 4.532
73.46000 4.998
73.48000 3.519
73.50000 5.686
73.52000 7.022
73.54000 2.486
73.56000 2.866
73.58000 1.970
73.60000 5.964
73.62000 1.454
73.64000 3.798
73.66000 1.696
73.68000 -0.279
73.70000 -2.243
73.72000 3.467
73.74000 6.047
73.76000 6.002
73.78000 9.349
73.80000 8.754
73.82000 4.877
73.84000 4.351
73.86000 0.449
73.88000 0.338
73.90000 2.193
73.92000 4.732
73.94000 6.459
73.96000 4.683
73.98000 1.539
74.00000 3.977
74.02000 5.477
74.04000 4.789
74.06000 3.803
74.08000 4.423
74.10000 3.269
74.12000 0.996
74.14000 -0.213
74.16000 0.918
74.18000 3.812
74.20000 7.074
74.22000 4.170
74.24000 1.895
74.26000 1.890
74.28000 2.235
74.30000 5.305
74.32000 5.181
74.34000 2.639
74.36000 3.692
74.38000 5.364
74.40000 6.393
74.42000 4.929
74.44000 4.874
74.46000 4.161
74.48000 3.817
74.50000 6.755
74.52000 5.406
74.54000 7.517
74.56000 9.347
74.58000 7.826
74.60000 4.602
74.62000 6.657
74.64000 8.285
74.66000 -2.227
74.68000 -1.781
74.70000 2.161
74.72000 3.361
74.74000 3.580
74.76000 7.077
74.78000 5.713
74.80000 3.834
74.82000 4.066
74.84000 4.746
74.86000 2.672
74.88000 0.941
74.90000 0.839
74.92000 3.794
74.94000 8.554
74.96000 5.377
74.98000 2.689
75.00000 3.647
75.02000 4.131
75.04000 3.582
75.06000 2.664
75.08000 3.509
75.10000 2.149
75.12000 1.417
75.14000 4.104
75.16000 2.127
75.18000 3.376
75.20000 3.888
75.22000 4.964
75.24000 3.757
75.26000 1.469
75.28000 1.172
75.30000 1.642
75.32000 0.552
75.34000 3.774
75.36000 4.533
75.38000 4.075
75.40000 6.485
75.42000 8.169
75.44000 8.081
75.46000 5.447
75.48000 2.031
75.50000 2.181
75.52000 0.858
75.54000 2.925
75.56000 1.472
75.58000 2.120
75.60000 0.161
75.62000 0.775
75.64000 -0.139
75.66000 1.644
75.68000 2.720
75.70000 -2.263
75.72000 -0.139
75.74000 8.589
75.76000 6.690
75.78000 4.868
75.80000 3.739
75.82000 -1.166
75.84000 0.258
75.86000 2.876
75.88000 -0.228
75.90000 4.343
75.92000 1.651
75.94000 2.462
75.96000 2.653
75.98000 2.046
76.00000 2.867
76.02000 -0.060
76.04000 -1.031
76.06000 -0.908
76.08000 0.975
76.10000 1.864
76.12000 2.790
76.14000 5.378
76.16000 5.548
76.18000 2.914
76.20000 2.683
76.22000 0.377
76.24000 -1.292
76.26000 3.985
76.28000 0.919
76.30000 4.180
76.32000 1.505
76.34000 2.795
76.36000 3.681
76.38000 0.143
76.40000 1.002
76.42000 0.549
76.44000 -1.013
76.46000 -2.293
76.48000 -2.068
76.50000 0.012
76.52000 0.030
76.54000 2.415
76.56000 0.466
76.58000 -0.534
76.60000 4.063
76.62000 3.256
76.64000 3.519
76.66000 2.113
76.68000 -2.292
76.70000 -1.004
76.72000 1.577
76.74000 1.323
76.76000 1.027
76.78000 1.383
76.80000 4.505
76.82000 6.557
76.84000 2.917
76.86000 -1.054
76.88000 -0.257
76.90000 -0.152
76.92000 2.411
76.94000 3.378
76.96000 3.891
76.98000 2.856
77.00000 5.941
77.02000 6.242
77.04000 -0.068
77.06000 -1.895
77.08000 -0.661
77.10000 -1.958
77.12000 -1.288
77.14000 4.222
77.16000 7.132
77.18000 8.523
77.20000 6.269
77.22000 2.592
77.24000 -2.127
77.26000 -2.297
77.28000 0.624
77.30000 3.872
77.32000 3.344
77.34000 8.601
77.36000 2.000
77.38000 4.244
77.40000 1.389
77.42000 0.096
77.44000 -1.615
77.46000 0.859
77.48000 0.692
77.50000 1.905
77.52000 0.123
77.54000 -1.996
77.56000 1.696
77.58000 6.482
77.60000 1.907
77.62000 1.522
77.64000 2.657
77.66000 3.017
77.68000 2.953
77.70000 6.663
77.72000 5.042
77.74000 -0.278
77.76000 0.676
77.78000 -1.334
77.80000 -1.462
77.82000 -2.017
77.84000 2.270
77.86000 4.451
77.88000 5.577
77.90000 2.525
77.92000 -2.288
77.94000 0.733
77.96000 6.761
77.98000 4.453
78.00000 -2.290
78.02000 1.531
78.04000 0.899
78.06000 3.196
78.08000 2.948
78.10000 4.113
78.12000 6.543
78.14000 5.543
78.16000 4.881
78.18000 4.648
78.20000 1.202
78.22000 1.804
78.24000 2.879
78.26000 0.173
78.28000 -0.856
78.30000 1.318
78.32000 3.753
78.34000 8.867
78.36000 5.941
78.38000 -0.511
78.40000 -0.965
78.42000 2.716
78.44000 1.764
78.46000 2.650
78.48000 1.820
78.50000 0.475
78.52000 4.458
78.54000 3.331
78.56000 4.340
78.58000 6.546
78.60000 4.469
78.62000 2.613
78.64000 9.744
78.66000 5.601
78.68000 2.332
78.70000 3.382
78.72000 4.797
78.74000 6.175
78.76000 4.724
78.78000 0.388
78.80000 -1.614
78.82000 -0.368
78.84000 1.981
78.86000 0.486
78.88000 0.171
78.90000 1.912
78.92000 2.845
78.94000 1.660
78.96000 3.696
78.98000 5.445
79.00000 4.168
79.02000 11.526
79.04000 4.660
79.06000 -0.453
79.08000 0.896
79.10000 2.400
79.12000 -1.162
79.14000 -2.289
79.16000 -1.106
79.18000 3.044
79.20000 1.558
79.22000 -0.349
79.24000 1.347
79.26000 1.542
79.28000 3.118
79.30000 0.554
79.32000 0.579
79.34000 3.415
79.36000 6.905
79.38000 9.266
79.40000 8.228
79.42000 4.414
79.44000 6.223
79.46000 2.981
79.48000 -0.574
79.50000 -0.053
79.52000 2.354
79.54000 5.987
79.56000 4.087
79.58000 2.454
79.60000 5.828
79.62000 8.008
79.64000 1.931
79.66000 4.132
79.68000 5.158
79.70000 3.256
79.72000 6.444
79.74000 7.823
79.76000 7.123
79.78000 4.741
79.80000 2.452
79.82000 3.532
79.84000 -0.646
79.86000 2.772
79.88000 0.285
79.90000 -2.301
79.92000 0.067
79.94000 7.208
79.96000 6.436
79.98000 6.147
80.00000 4.800
80.02000 3.164
80.04000 2.442
80.06000 2.388
80.08000 5.693
80.10000 6.057
80.12000 5.351
80.14000 3.242
80.16000 4.944
80.18000 9.904
80.20000 2.591
80.22000 0.767
80.24000 3.456
80.26000 3.336
80.28000 0.017
80.30000 2.242
80.32000 -0.762
80.34000 -1.410
80.36000 3.221
80.38000 6.053
80.40000 5.785
80.42000 3.342
80.44000 -1.393
80.46000 2.053
80.48000 1.863
80.50000 1.294
80.52000 -0.060
80.54000 1.865
80.56000 -2.330
80.58000 -0.132
80.60000 -0.490
80.62000 2.323
80.64000 3.070
80.66000 2.522
80.68000 1.739
80.70000 4.181
80.72000 5.437
80.74000 3.706
80.76000 0.548
80.78000 0.281
80.80000 -2.352
80.82000 -0.886
80.84000 -0.391
80.86000 0.834
80.88000 1.993
80.90000 5.931
80.92000 3.991
80.94000 4.776
80.96000 1.012
80.98000 3.099
81.00000 2.342
81.02000 1.898
81.04000 4.438
81.06000 6.397
81.08000 2.331
81.10000 0.950
81.12000 2.090
81.14000 -1.260
81.16000 -1.405
81.18000 3.160
81.20000 2.377
81.22000 1.182
81.24000 0.957
81.26000 1.429
81.28000 1.953
81.30000 2.945
81.32000 3.978
81.34000 3.222
81.36000 2.537
81.38000 2.020
81.40000 -1.888
81.42000 -0.481
81.44000 -1.907
81.46000 -2.403
81.48000 0.773
81.50000 2.174
81.52000 -1.045
81.54000 -0.719
81.56000 1.081
81.58000 0.977
81.60000 0.653
81.62000 4.630
81.64000 4.805
81.66000 0.364
81.68000 1.725
81.70000 5.003
81.72000 5.764
81.74000 3.141
81.76000 3.951
81.78000 6.221
81.80000 0.800
81.82000 -2.450
81.84000 0.517
81.86000 -2.321
81.88000 -0.068
81.90000 -1.849
81.92000 1.592
81.94000 1.581
81.96000 0.327
81.98000 2.031
82.00000 -0.400
82.02000 -2.026
82.04000 3.775
82.06000 2.275
82.08000 0.149
82.10000 -0.003
82.12000 -1.502
82.14000 0.884
82.16000 1.871
82.18000 -0.958
82.20000 -1.161
82.22000 2.252
82.24000 1.414
82.26000 3.176
82.28000 6.341
82.30000 5.228
82.32000 2.434
82.34000 3.691
82.36000 -0.741
82.38000 -2.014
82.40000 -2.015
82.42000 -0.785
82.44000 3.286
82.46000 4.669
82.48000 8.172
82.50000 8.249
82.52000 3.932
82.54000 5.495
82.56000 4.370
82.58000 4.788
82.60000 5.142
82.62000 4.574
82.64000 -0.672
82.66000 2.894
82.68000 3.957
82.70000 3.990
82.72000 2.403
82.74000 4.163
82.76000 4.271
82.78000 10.389
82.80000 10.515
82.82000 13.777
82.84000 12.113
82.86000 7.280
82.88000 7.074
82.90000 3.936
82.92000 6.796
82.94000 4.410
82.96000 9.125
82.98000 10.113
83.00000 8.337
83.02000 10.528
83.04000 14.508
83.06000 13.311
83.08000 10.053
83.10000 12.305
83.12000 13.832
83.14000 11.982
83.16000 16.641
83.18000 16.463
83.20000 19.868
83.22000 19.783
83.24000 15.441
83.26000 20.498
83.28000 17.399
83.30000 12.849
83.32000 19.633
83.34000 17.929
83.36000 14.624
83.38000 16.617
83.40000 20.764
83.42000 20.995
83.44000 21.567
83.46000 22.420
83.48000 22.441
83.50000 22.304
83.52000 18.260
83.54000 23.554
83.56000 26.807
83.58000 18.978
83.60000 23.719
83.62000 21.113
83.64000 24.332
83.66000 24.350
83.68000 23.655
83.70000 23.100
83.72000 20.347
83.74000 21.653
83.76000 22.403
83.78000 25.245
83.80000 24.683
83.82000 22.894
83.84000 25.539
83.86000 23.565
83.88000 25.940
83.90000 25.825
83.92000 24.393
83.94000 25.304
83.96000 27.371
83.98000 26.856
84.00000 29.145
84.02000 22.661
84.04000 16.567
84.06000 20.010
84.08000 22.505
84.10000 17.805
84.12000 16.157
84.14000 23.148
84.16000 18.706
84.18000 21.771
84.20000 27.784
84.22000 23.751
84.24000 25.724
84.26000 20.001
84.28000 18.052
84.30000 18.427
84.32000 14.014
84.34000 12.842
84.36000 19.826
84.38000 18.460
84.40000 18.581
84.42000 17.330
84.44000 18.802
84.46000 18.247
84.48000 20.265
84.50000 19.170
84.52000 19.720
84.54000 19.499
84.56000 16.718
84.58000 17.076
84.60000 10.801
84.62000 5.066
84.64000 5.723
84.66000 6.554
84.68000 11.489
84.70000 10.990
84.72000 10.786
84.74000 9.361
84.76000 5.064
84.78000 6.512
84.80000 10.998
84.82000 11.708
84.84000 6.041
84.86000 -0.266
84.88000 3.133
84.90000 8.643
84.92000 10.176
84.94000 11.864
84.96000 14.401
84.98000 9.513
85.00000 7.823
85.02000 8.602
85.04000 7.721
85.06000 6.858
85.08000 4.961
85.10000 6.279
85.12000 2.453
85.14000 5.820
85.16000 0.452
85.18000 3.068
85.20000 6.178
85.22000 6.937
85.24000 1.271
85.26000 5.875
85.28000 7.750
85.30000 5.732
85.32000 3.127
85.34000 0.732
85.36000 2.938
85.38000 2.031
85.40000 2.153
85.42000 2.148
85.44000 5.168
85.46000 3.170
85.48000 4.135
85.50000 9.617
85.52000 5.362
85.54000 -0.054
85.56000 -2.374
85.58000 3.507
85.60000 3.873
85.62000 2.109
85.64000 5.204
85.66000 4.055
85.68000 3.310
85.70000 5.624
85.72000 5.460
85.74000 4.475
85.76000 4.393
85.78000 8.329
85.80000 5.542
85.82000 2.075
85.84000 3.859
85.86000 2.345
85.88000 2.648
85.90000 2.191
85.92000 2.075
85.94000 4.164
85.96000 6.388
85.98000 1.847
86.00000 3.890
86.02000 7.837
86.04000 5.799
86.06000 6.095
86.08000 1.682
86.10000 4.087
86.12000 8.561
86.14000 3.371
86.16000 -2.287
86.18000 0.265
86.20000 2.032
86.22000 5.554
86.24000 7.124
86.26000 8.520
86.28000 8.671
86.30000 5.509
86.32000 2.813
86.34000 5.699
86.36000 9.790
86.38000 8.913
86.40000 4.115
86.42000 -0.428
86.44000 0.827
86.46000 0.277
86.48000 -2.329
86.50000 -1.643
86.52000 1.066
86.54000 -1.284
86.56000 -1.203
86.58000 2.580
86.60000 5.583
86.62000 6.688
86.64000 6.942
86.66000 6.447
86.68000 -1.474
86.70000 2.881
86.72000 4.335
86.74000 3.024
86.76000 9.120
86.78000 13.056
86.80000 9.903
86.82000 5.376
86.84000 0.609
86.86000 5.820
86.88000 5.629
86.90000 2.814
86.92000 2.838
86.94000 6.306
86.96000 6.214
86.98000 4.163
87.00000 3.427
87.02000 5.367
87.04000 0.287
87.06000 3.348
87.08000 2.533
87.10000 4.337
87.12000 6.357
87.14000 6.963
87.16000 9.686
87.18000 9.593
87.20000 11.747
87.22000 7.794
87.24000 9.084
87.26000 9.186
87.28000 1.773
87.30000 3.575
87.32000 6.468
87.34000 10.376
87.36000 9.940
87.38000 9.228
87.40000 8.216
87.42000 9.070
87.44000 10.812
87.46000 13.849
87.48000 10.680
87.50000 12.978
87.52000 13.571
87.54000 11.491
87.56000 6.506
87.58000 8.581
87.60000 12.582
87.62000 16.122
87.64000 14.339
87.66000 15.618
87.68000 18.597
87.70000 16.744
87.72000 12.544
87.74000 15.095
87.76000 15.650
87.78000 10.117
87.80000 14.635
87.82000 17.339
87.84000 18.126
87.86000 18.414
87.88000 15.649
87.90000 16.846
87.92000 23.168
87.94000 16.670
87.96000 20.880
87.98000 19.774
88.00000 23.525
88.02000 15.837
88.04000 15.523
88.06000 21.949
88.08000 30.982
88.10000 35.737
88.12000 26.486
88.14000 25.631
88.16000 24.860
88.18000 26.048
88.20000 23.359
88.22000 24.761
88.24000 21.265
88.26000 24.732
88.28000 26.951
88.30000 20.716
88.32000 24.556
88.34000 28.226
88.36000 36.000
88.38000 33.824
88.40000 23.246
88.42000 24.900
88.44000 22.663
88.46000 27.386
88.48000 27.127
88.50000 25.391
88.52000 23.229
88.54000 26.191
88.56000 28.876
88.58000 28.821
88.60000 25.732
88.62000 24.260
88.64000 21.563
88.66000 27.437
88.68000 27.382
88.70000 27.317
88.72000 22.070
88.74000 19.047
88.76000 24.346
88.78000 22.568
88.80000 25.256
88.82000 22.204
88.84000 25.816
88.86000 19.405
88.88000 18.635
88.90000 24.307
88.92000 20.411
88.94000 19.774
88.96000 18.848
88.98000 16.909
89.00000 17.121
89.02000 16.886
89.04000 19.394
89.06000 13.102
89.08000 15.450
89.10000 13.841
89.12000 17.529
89.14000 11.999
89.16000 7.584
89.18000 11.173
89.20000 13.090
89.22000 17.917
89.24000 14.164
89.26000 11.691
89.28000 5.265
89.30000 8.594
89.32000 12.004
89.34000 6.117
89.36000 5.606
89.38000 5.774
89.40000 10.133
89.42000 12.547
89.44000 9.807
89.46000 4.682
89.48000 7.311
89.50000 6.703
89.52000 2.869
89.54000 2.194
89.56000 6.753
89.58000 7.311
89.60000 6.812
89.62000 4.064
89.64000 3.887
89.66000 3.265
89.68000 3.864
89.70000 6.056
89.72000 3.156
89.74000 5.265
89.76000 0.099
89.78000 0.044
89.80000 4.065
89.82000 3.087
89.84000 6.495
89.86000 4.486
89.88000 4.559
89.90000 5.571
89.92000 3.814
89.94000 0.909
89.96000 1.738
89.98000 1.066
90.00000 -1.768
90.02000 -2.323
90.04000 -0.885
90.06000 0.240
90.08000 -1.896
90.10000 -2.056
90.12000 -1.342
90.14000 -0.529
90.16000 -0.296
90.18000 3.487
90.20000 2.285
90.22000 4.908
90.24000 2.060
90.26000 1.891
90.28000 -1.681
90.30000 0.247
90.32000 3.267
90.34000 2.346
90.36000 -1.195
90.38000 1.539
90.40000 1.620
90.42000 -1.579
90.44000 -2.259
90.46000 4.114
90.48000 4.529
90.50000 3.207
90.52000 0.382
90.54000 -1.220
90.56000 1.399
90.58000 3.346
90.60000 3.555
90.62000 4.522
90.64000 4.646
90.66000 3.795
90.68000 3.781
90.70000 3.297
90.72000 7.937
90.74000 5.628
90.76000 5.105
90.78000 3.187
90.80000 -2.193
90.82000 -1.575
90.84000 5.613
90.86000 3.142
90.88000 1.407
90.90000 -0.905
90.92000 4.075
90.94000 8.123
90.96000 5.957
90.98000 1.800
91.00000 0.826
91.02000 0.215
91.04000 0.809
91.06000 0.786
91.08000 -1.053
91.10000 3.133
91.12000 7.455
91.14000 5.969
91.16000 3.319
91.18000 3.214
91.20000 2.005
91.22000 2.643
91.24000 6.705
91.26000 4.494
91.28000 0.446
91.30000 2.559
91.32000 1.344
91.34000 -2.168
91.36000 1.225
91.38000 1.452
91.40000 0.870
91.42000 -1.115
91.44000 -1.666
91.46000 1.789
91.48000 6.285
91.50000 7.211
91.52000 4.840
91.54000 5.307
91.56000 1.504
91.58000 1.292
91.60000 2.733
91.62000 6.379
91.64000 6.845
91.66000 5.895
91.68000 6.441
91.70000 3.942
91.72000 3.154
91.74000 0.217
91.76000 1.548
91.78000 2.533
91.80000 3.305
91.82000 8.171
91.84000 3.087
91.86000 4.106
91.88000 1.196
91.90000 1.437
91.92000 0.733
91.94000 0.942
91.96000 5.030
91.98000 2.874
92.00000 4.040
92.02000 2.108
92.04000 1.408
92.06000 1.115
92.08000 -2.160
92.10000 3.550
92.12000 6.060
92.14000 7.109
92.16000 6.002
92.18000 9.910
92.20000 5.983
92.22000 2.742
92.24000 -2.167
92.26000 -0.518
92.28000 0.609
92.30000 3.872
92.32000 6.339
92.34000 7.872
92.36000 5.185
92.38000 8.450
92.40000 4.605
92.42000 2.770
92.44000 5.216
92.46000 1.384
92.48000 -0.383
92.50000 3.043
92.52000 5.676
92.54000 4.070
92.56000 -0.277
92.58000 4.701
92.60000 7.453
92.62000 6.702
92.64000 2.893
92.66000 2.868
92.68000 4.440
92.70000 1.069
92.72000 1.856
92.74000 -1.742
92.76000 0.761
92.78000 0.738
92.80000 -1.107
92.82000 -2.198
92.84000 0.639
92.86000 2.751
92.88000 1.232
92.90000 -1.869
92.92000 0.783
92.94000 3.930
92.96000 5.245
92.98000 4.270
93.00000 0.068
93.02000 3.836
93.04000 -0.514
93.06000 -0.217
93.08000 -0.618
93.10000 0.233
93.12000 0.561
93.14000 5.799
93.16000 3.196
93.18000 1.117
93.20000 -0.969
93.22000 1.970
93.24000 0.937
93.26000 -1.308
93.28000 1.645
93.30000 1.827
93.32000 0.798
93.34000 1.651
93.36000 4.139
93.38000 -0.195
93.40000 1.333
93.42000 0.043
93.44000 0.487
93.46000 0.798
93.48000 5.757
93.50000 4.089
93.52000 6.272
93.54000 2.726
93.56000 -1.569
93.58000 3.681
93.60000 3.062
93.62000 4.584
93.64000 1.828
93.66000 0.880
93.68000 -1.742
93.70000 -0.969
93.72000 3.902
93.74000 3.810
93.76000 3.178
93.78000 3.585
93.80000 2.722
93.82000 5.750
93.84000 3.652
93.86000 -0.276
93.88000 6.919
93.90000 9.531
93.92000 3.028
93.94000 0.908
93.96000 4.683
93.98000 8.513
94.00000 4.193
94.02000 2.432
94.04000 2.811
94.06000 -0.756
94.08000 3.569
94.10000 2.911
94.12000 8.301
94.14000 8.775
94.16000 2.975
94.18000 2.548
94.20000 2.616
94.22000 1.305
94.24000 4.393
94.26000 2.260
94.28000 -0.817
94.30000 5.375
94.32000 13.226
94.34000 11.417
94.36000 8.114
94.38000 5.795
94.40000 7.674
94.42000 4.430
94.44000 1.380
94.46000 -2.133
94.48000 0.750
94.50000 3.467
94.52000 5.798
94.54000 1.566
94.56000 3.269
94.58000 2.762
94.60000 4.076
94.62000 7.441
94.64000 7.497
94.66000 7.051
94.68000 4.219
94.70000 2.846
94.72000 0.396
94.74000 3.440
94.76000 2.952
94.78000 5.925
94.80000 8.310
94.82000 7.634
94.84000 2.756
94.86000 9.557
94.88000 13.704
94.90000 5.604
94.92000 -0.883
94.94000 1.786
94.96000 5.194
94.98000 4.088
95.00000 1.941
95.02000 1.102
95.04000 -1.748
95.06000 1.389
95.08000 2.148
95.10000 5.773
95.12000 2.879
95.14000 4.823
95.16000 4.505
95.18000 3.668
95.20000 4.941
95.22000 -0.391
95.24000 0.833
95.26000 4.012
95.28000 2.632
95.30000 1.620
95.32000 4.835
95.34000 2.091
95.36000 3.826
95.38000 4.547
95.40000 0.254
95.42000 -0.631
95.44000 1.287
95.46000 -0.085
95.48000 2.985
95.50000 4.697
95.52000 5.371
95.54000 0.603
95.56000 4.950
95.58000 1.277
95.60000 -0.605
95.62000 4.013
95.64000 8.453
95.66000 6.088
95.68000 1.850
95.70000 3.493
95.72000 1.277
95.74000 3.723
95.76000 0.977
95.78000 0.898
95.80000 5.032
95.82000 1.123
95.84000 5.254
95.86000 5.426
95.88000 5.556
95.90000 6.273
95.92000 8.513
95.94000 5.186
95.96000 -1.357
95.98000 0.433
96.00000 -1.090
96.02000 0.038
96.04000 3.477
96.06000 -0.887
96.08000 1.880
96.10000 0.183
96.12000 1.135
96.14000 -1.972
96.16000 1.417
96.18000 -1.230
96.20000 4.682
96.22000 -3.675
96.24000 6.492
96.26000 -1.211
96.28000 2.544
96.30000 3.579
96.32000 0.664
96.34000 0.281
96.36000 2.326
96.38000 0.062
96.40000 6.205
96.42000 4.469
96.44000 4.602
96.46000 4.710
96.48000 5.868
96.50000 6.038
96.52000 3.058
96.54000 0.504
96.56000 0.511
96.58000 -0.749
96.60000 2.934
96.62000 1.338
96.64000 2.781
96.66000 6.663
96.68000 5.924
96.70000 2.246
96.72000 2.893
96.74000 1.053
96.76000 1.743
96.78000 1.311
96.80000 4.865
96.82000 5.559
96.84000 -2.087
96.86000 3.262
96.88000 8.686
96.90000 9.876
96.92000 2.145
96.94000 1.543
96.96000 6.270
96.98000 5.582
97.00000 1.119
97.02000 0.047
97.04000 -0.343
97.06000 1.308
97.08000 4.245
97.10000 0.862
97.12000 0.035
97.14000 0.260
97.16000 -0.796
97.18000 1.543
97.20000 7.685
97.22000 5.196
97.24000 5.764
97.26000 4.554
97.28000 0.909
97.30000 4.324
97.32000 4.312
97.34000 0.644
97.36000 -2.018
97.38000 -0.771
97.40000 1.851
97.42000 7.930
97.44000 11.661
97.46000 6.213
97.48000 11.179
97.50000 6.731
97.52000 5.610
97.54000 1.395
97.56000 7.206
97.58000 4.698
97.60000 3.099
97.62000 3.066
97.64000 2.101
97.66000 5.270
97.68000 8.569
97.70000 5.444
97.72000 -0.167
97.74000 -2.117
97.76000 0.642
97.78000 1.511
97.80000 1.129
97.82000 10.891
97.84000 10.678
97.86000 8.974
97.88000 7.314
97.90000 13.125
97.92000 9.072
97.94000 0.516
97.96000 0.178
97.98000 1.203
98.00000 4.736
98.02000 7.170
98.04000 -2.092
98.06000 3.219
98.08000 6.581
98.10000 4.667
98.12000 4.728
98.14000 2.410
98.16000 2.495
98.18000 1.420
98.20000 2.885
98.22000 1.376
98.24000 2.033
98.26000 4.251
98.28000 3.261
98.30000 6.038
98.32000 7.054
98.34000 6.676
98.36000 5.677
98.38000 4.455
98.40000 3.373
98.42000 4.936
98.44000 8.640
98.46000 2.271
98.48000 10.784
98.50000 14.700
98.52000 6.489
98.54000 12.972
98.56000 10.180
98.58000 5.337
98.60000 4.190
98.62000 5.748
98.64000 14.194
98.66000 9.960
98.68000 7.957
98.70000 4.332
98.72000 2.258
98.74000 7.573
98.76000 6.337
98.78000 0.486
98.80000 1.816
98.82000 -1.339
98.84000 3.323
98.86000 6.367
98.88000 11.410
98.90000 10.909
98.92000 15.191
98.94000 12.974
98.96000 9.115
98.98000 4.664
99.00000 8.689
99.02000 15.928
99.04000 7.080
99.06000 12.012
99.08000 10.087
99.10000 9.285
99.12000 9.049
99.14000 1.800
99.16000 -0.879
99.18000 2.303
99.20000 0.970
99.22000 2.072
99.24000 -2.040
99.26000 3.802
99.28000 -2.041
99.30000 1.886
99.32000 1.535
99.34000 6.527
99.36000 5.251
99.38000 3.027
99.40000 3.406
99.42000 8.260
99.44000 16.784
99.46000 14.587
99.48000 9.864
99.50000 9.608
99.52000 3.942
99.54000 2.022
99.56000 0.927
99.58000 2.530
99.60000 -2.096
99.62000 6.839
99.64000 8.364
99.66000 1.093
99.68000 7.963
99.70000 3.658
99.72000 1.304
99.74000 -0.991
99.76000 2.684
99.78000 6.102
99.80000 8.462
99.82000 1.326
99.84000 -1.576
99.86000 4.001
99.88000 7.166
99.90000 -3.437
99.92000 -0.622
99.94000 -2.351
99.96000 0.868
99.98000 0.000
