'Id: "0011387" Comment: "Integrate frame 0011387_Au-Ir-Rh_Rh-rich_XRD-Mapping-262-0000.gfrmwith cursor Wedge Cursor #5" Operator: "B?rgel" Anode: "Cu" Wavelength: "1.5406" Scantype: "2Theta (TwoTheta)" TimePerStep: "1" X: "-31.5" Y: "22.5" Z: "5.95" 
10.00000 0.000
10.02000 10.132
10.04000 9.150
10.06000 -1.163
10.08000 -4.608
10.10000 1.165
10.12000 17.015
10.14000 6.979
10.16000 -2.414
10.18000 15.326
10.20000 -0.125
10.22000 11.855
10.24000 9.695
10.26000 6.812
10.28000 3.556
10.30000 4.476
10.32000 -0.260
10.34000 9.118
10.36000 14.791
10.38000 7.074
10.40000 12.906
10.42000 15.701
10.44000 19.528
10.46000 19.739
10.48000 17.680
10.50000 14.423
10.52000 12.835
10.54000 10.706
10.56000 -5.640
10.58000 10.587
10.60000 17.482
10.62000 24.320
10.64000 21.790
10.66000 23.004
10.68000 11.261
10.70000 4.787
10.72000 10.930
10.74000 19.643
10.76000 22.872
10.78000 30.476
10.80000 20.085
10.82000 3.741
10.84000 17.512
10.86000 17.110
10.88000 15.768
10.90000 12.243
10.92000 5.869
10.94000 6.151
10.96000 9.807
10.98000 17.504
11.00000 11.099
11.02000 9.450
11.04000 24.480
11.06000 27.763
11.08000 28.044
11.10000 11.781
11.12000 1.950
11.14000 13.728
11.16000 5.834
11.18000 7.723
11.20000 24.681
11.22000 29.440
11.24000 7.599
11.26000 8.638
11.28000 8.717
11.30000 19.796
11.32000 35.713
11.34000 23.118
11.36000 13.586
11.38000 23.097
11.40000 18.672
11.42000 15.755
11.44000 5.953
11.46000 2.595
11.48000 3.339
11.50000 9.188
11.52000 13.578
11.54000 13.802
11.56000 16.686
11.58000 10.022
11.60000 10.241
11.62000 10.715
11.64000 10.223
11.66000 7.096
11.68000 22.693
11.70000 20.438
11.72000 11.251
11.74000 0.028
11.76000 5.304
11.78000 18.486
11.80000 9.806
11.82000 7.679
11.84000 3.012
11.86000 4.285
11.88000 13.124
11.90000 5.494
11.92000 8.213
11.94000 15.555
11.96000 17.414
11.98000 12.432
12.00000 -1.527
12.02000 -1.716
12.04000 7.325
12.06000 17.569
12.08000 9.697
12.10000 13.127
12.12000 8.388
12.14000 -2.126
12.16000 6.309
12.18000 13.524
12.20000 12.308
12.22000 2.901
12.24000 11.475
12.26000 12.884
12.28000 11.371
12.30000 5.568
12.32000 10.766
12.34000 15.335
12.36000 19.018
12.38000 16.880
12.40000 23.847
12.42000 15.735
12.44000 14.919
12.46000 10.036
12.48000 10.935
12.50000 10.401
12.52000 4.437
12.54000 0.971
12.56000 2.433
12.58000 14.576
12.60000 19.074
12.62000 15.655
12.64000 8.790
12.66000 6.432
12.68000 8.898
12.70000 10.614
12.72000 13.790
12.74000 11.383
12.76000 13.035
12.78000 16.122
12.80000 9.192
12.82000 12.005
12.84000 12.132
12.86000 19.598
12.88000 20.367
12.90000 9.867
12.92000 10.978
12.94000 19.305
12.96000 14.579
12.98000 2.450
13.00000 -4.491
13.02000 0.532
13.04000 0.826
13.06000 3.919
13.08000 2.154
13.10000 7.510
13.12000 11.643
13.14000 17.594
13.16000 23.805
13.18000 18.588
13.20000 16.611
13.22000 11.529
13.24000 9.252
13.26000 14.933
13.28000 13.588
13.30000 19.883
13.32000 13.586
13.34000 20.136
13.36000 23.103
13.38000 15.649
13.40000 18.701
13.42000 7.667
13.44000 3.623
13.46000 1.804
13.48000 9.081
13.50000 7.137
13.52000 -2.747
13.54000 6.591
13.56000 18.287
13.58000 13.671
13.60000 5.361
13.62000 -2.549
13.64000 1.229
13.66000 -1.057
13.68000 8.894
13.70000 13.546
13.72000 7.291
13.74000 1.079
13.76000 4.783
13.78000 6.148
13.80000 14.271
13.82000 11.235
13.84000 15.661
13.86000 12.288
13.88000 16.898
13.90000 18.829
13.92000 13.686
13.94000 12.509
13.96000 6.861
13.98000 -1.472
14.00000 5.889
14.02000 17.576
14.04000 20.447
14.06000 17.475
14.08000 25.165
14.10000 9.362
14.12000 9.486
14.14000 6.810
14.16000 5.395
14.18000 4.873
14.20000 -4.475
14.22000 0.586
14.24000 6.934
14.26000 13.555
14.28000 11.309
14.30000 11.224
14.32000 10.380
14.34000 12.145
14.36000 5.499
14.38000 8.409
14.40000 18.698
14.42000 3.654
14.44000 3.419
14.46000 12.709
14.48000 22.772
14.50000 10.179
14.52000 7.938
14.54000 2.586
14.56000 6.714
14.58000 9.435
14.60000 6.193
14.62000 11.686
14.64000 11.913
14.66000 10.786
14.68000 12.498
14.70000 8.843
14.72000 11.243
14.74000 12.823
14.76000 8.465
14.78000 7.877
14.80000 11.761
14.82000 19.778
14.84000 10.322
14.86000 3.916
14.88000 13.833
14.90000 21.375
14.92000 21.708
14.94000 13.353
14.96000 10.304
14.98000 14.379
15.00000 12.368
15.02000 12.316
15.04000 7.293
15.06000 6.964
15.08000 9.886
15.10000 14.275
15.12000 6.430
15.14000 -2.339
15.16000 8.414
15.18000 14.901
15.20000 10.071
15.22000 5.796
15.24000 10.467
15.26000 14.689
15.28000 12.002
15.30000 5.108
15.32000 9.114
15.34000 6.818
15.36000 6.390
15.38000 14.181
15.40000 12.582
15.42000 12.314
15.44000 20.901
15.46000 16.876
15.48000 11.819
15.50000 12.736
15.52000 22.429
15.54000 18.148
15.56000 12.646
15.58000 14.282
15.60000 10.574
15.62000 10.759
15.64000 12.615
15.66000 13.068
15.68000 2.199
15.70000 2.482
15.72000 4.630
15.74000 8.259
15.76000 7.630
15.78000 10.918
15.80000 15.697
15.82000 14.999
15.84000 13.272
15.86000 10.338
15.88000 8.912
15.90000 9.054
15.92000 2.374
15.94000 -2.982
15.96000 -4.382
15.98000 0.492
16.00000 5.261
16.02000 11.513
16.04000 6.234
16.06000 6.057
16.08000 13.227
16.10000 16.244
16.12000 13.563
16.14000 7.642
16.16000 12.139
16.18000 14.841
16.20000 8.358
16.22000 3.849
16.24000 10.718
16.26000 13.971
16.28000 11.964
16.30000 14.115
16.32000 9.093
16.34000 10.833
16.36000 21.284
16.38000 22.945
16.40000 16.196
16.42000 6.364
16.44000 -0.464
16.46000 7.793
16.48000 9.507
16.50000 13.596
16.52000 5.084
16.54000 1.335
16.56000 4.058
16.58000 13.337
16.60000 18.682
16.62000 6.476
16.64000 7.634
16.66000 7.993
16.68000 15.846
16.70000 9.423
16.72000 8.188
16.74000 6.788
16.76000 3.977
16.78000 9.326
16.80000 14.386
16.82000 10.400
16.84000 9.640
16.86000 13.049
16.88000 10.948
16.90000 13.102
16.92000 1.879
16.94000 2.885
16.96000 1.463
16.98000 0.864
17.00000 5.766
17.02000 12.865
17.04000 21.128
17.06000 14.943
17.08000 14.149
17.10000 4.702
17.12000 3.932
17.14000 8.498
17.16000 9.016
17.18000 14.458
17.20000 15.176
17.22000 11.870
17.24000 11.267
17.26000 17.944
17.28000 9.947
17.30000 4.761
17.32000 11.861
17.34000 14.795
17.36000 16.558
17.38000 13.958
17.40000 10.220
17.42000 5.422
17.44000 3.330
17.46000 -4.353
17.48000 3.638
17.50000 9.875
17.52000 9.634
17.54000 8.814
17.56000 8.723
17.58000 7.148
17.60000 13.464
17.62000 12.265
17.64000 10.930
17.66000 9.389
17.68000 9.554
17.70000 13.099
17.72000 14.640
17.74000 5.211
17.76000 11.223
17.78000 10.232
17.80000 6.932
17.82000 4.075
17.84000 9.543
17.86000 9.036
17.88000 8.166
17.90000 11.828
17.92000 9.472
17.94000 9.283
17.96000 7.787
17.98000 0.455
18.00000 3.203
18.02000 11.947
18.04000 12.013
18.06000 10.029
18.08000 14.047
18.10000 10.635
18.12000 5.364
18.14000 15.022
18.16000 19.481
18.18000 13.286
18.20000 12.152
18.22000 6.257
18.24000 5.918
18.26000 10.822
18.28000 13.918
18.30000 11.695
18.32000 10.566
18.34000 6.242
18.36000 4.934
18.38000 8.716
18.40000 4.743
18.42000 2.164
18.44000 1.366
18.46000 1.510
18.48000 7.692
18.50000 17.461
18.52000 21.009
18.54000 16.644
18.56000 11.394
18.58000 12.697
18.60000 15.633
18.62000 18.885
18.64000 10.918
18.66000 10.070
18.68000 13.535
18.70000 7.195
18.72000 11.731
18.74000 15.472
18.76000 18.301
18.78000 12.967
18.80000 11.453
18.82000 18.548
18.84000 10.615
18.86000 10.487
18.88000 -4.236
18.90000 3.712
18.92000 9.678
18.94000 8.745
18.96000 11.411
18.98000 7.913
19.00000 7.235
19.02000 12.776
19.04000 16.875
19.06000 12.770
19.08000 7.632
19.10000 2.861
19.12000 6.212
19.14000 11.739
19.16000 7.680
19.18000 8.544
19.20000 10.049
19.22000 10.234
19.24000 17.644
19.26000 7.866
19.28000 4.096
19.30000 -0.531
19.32000 2.923
19.34000 10.028
19.36000 10.314
19.38000 5.248
19.40000 4.966
19.42000 5.574
19.44000 0.597
19.46000 0.550
19.48000 5.316
19.50000 5.498
19.52000 1.948
19.54000 1.979
19.56000 4.388
19.58000 11.568
19.60000 3.637
19.62000 4.473
19.64000 9.203
19.66000 9.461
19.68000 1.718
19.70000 3.428
19.72000 9.309
19.74000 4.788
19.76000 9.470
19.78000 5.021
19.80000 3.204
19.82000 2.662
19.84000 5.234
19.86000 8.046
19.88000 8.689
19.90000 10.639
19.92000 7.524
19.94000 -4.216
19.96000 5.046
19.98000 6.595
20.00000 2.476
20.02000 4.047
20.04000 6.972
20.06000 7.276
20.08000 3.474
20.10000 -0.446
20.12000 4.874
20.14000 7.980
20.16000 6.446
20.18000 4.659
20.20000 7.922
20.22000 5.807
20.24000 4.293
20.26000 1.154
20.28000 1.454
20.30000 10.426
20.32000 9.092
20.34000 0.227
20.36000 1.402
20.38000 2.567
20.40000 6.338
20.42000 8.997
20.44000 -0.672
20.46000 4.371
20.48000 5.253
20.50000 3.785
20.52000 3.895
20.54000 7.945
20.56000 11.412
20.58000 3.357
20.60000 6.135
20.62000 6.481
20.64000 3.927
20.66000 0.119
20.68000 0.595
20.70000 9.075
20.72000 12.719
20.74000 8.393
20.76000 9.069
20.78000 1.023
20.80000 -1.119
20.82000 8.998
20.84000 3.536
20.86000 -2.720
20.88000 -0.064
20.90000 4.288
20.92000 1.862
20.94000 0.539
20.96000 3.744
20.98000 -0.056
21.00000 3.133
21.02000 8.934
21.04000 4.120
21.06000 -3.585
21.08000 0.985
21.10000 2.499
21.12000 4.397
21.14000 1.004
21.16000 -0.143
21.18000 6.891
21.20000 5.979
21.22000 0.340
21.24000 5.000
21.26000 4.267
21.28000 1.916
21.30000 -3.221
21.32000 1.430
21.34000 6.962
21.36000 6.423
21.38000 0.982
21.40000 1.890
21.42000 4.028
21.44000 3.889
21.46000 3.332
21.48000 9.157
21.50000 7.260
21.52000 -1.370
21.54000 -2.074
21.56000 -1.603
21.58000 -3.384
21.60000 -1.504
21.62000 1.659
21.64000 -1.760
21.66000 3.541
21.68000 3.257
21.70000 2.235
21.72000 3.861
21.74000 5.175
21.76000 6.829
21.78000 2.511
21.80000 -2.402
21.82000 -2.040
21.84000 1.879
21.86000 4.885
21.88000 -1.494
21.90000 -4.136
21.92000 2.458
21.94000 3.275
21.96000 -1.099
21.98000 -1.357
22.00000 -4.128
22.02000 0.723
22.04000 3.831
22.06000 1.797
22.08000 -0.877
22.10000 -3.412
22.12000 0.870
22.14000 0.925
22.16000 -1.508
22.18000 -2.492
22.20000 -0.332
22.22000 5.081
22.24000 3.349
22.26000 1.467
22.28000 3.271
22.30000 -3.868
22.32000 1.154
22.34000 -1.638
22.36000 -1.899
22.38000 3.260
22.40000 7.375
22.42000 2.789
22.44000 4.935
22.46000 7.679
22.48000 4.600
22.50000 4.293
22.52000 6.486
22.54000 5.765
22.56000 -0.544
22.58000 4.602
22.60000 9.748
22.62000 7.787
22.64000 0.244
22.66000 1.070
22.68000 -2.858
22.70000 5.950
22.72000 5.701
22.74000 3.755
22.76000 5.830
22.78000 3.053
22.80000 3.010
22.82000 1.157
22.84000 3.237
22.86000 4.905
22.88000 0.716
22.90000 1.265
22.92000 8.646
22.94000 4.651
22.96000 -0.409
22.98000 -2.795
23.00000 5.516
23.02000 5.347
23.04000 8.044
23.06000 14.057
23.08000 9.717
23.10000 3.023
23.12000 4.871
23.14000 1.681
23.16000 -0.104
23.18000 3.975
23.20000 3.386
23.22000 -2.230
23.24000 3.120
23.26000 3.601
23.28000 3.470
23.30000 4.205
23.32000 6.770
23.34000 8.724
23.36000 3.569
23.38000 1.232
23.40000 0.789
23.42000 1.325
23.44000 7.958
23.46000 11.308
23.48000 9.025
23.50000 8.702
23.52000 9.910
23.54000 6.417
23.56000 3.537
23.58000 -2.292
23.60000 -1.859
23.62000 3.854
23.64000 3.290
23.66000 0.002
23.68000 6.345
23.70000 11.336
23.72000 7.923
23.74000 3.456
23.76000 7.986
23.78000 4.783
23.80000 -0.656
23.82000 3.959
23.84000 7.030
23.86000 2.869
23.88000 3.778
23.90000 4.111
23.92000 1.101
23.94000 -3.999
23.96000 -0.232
23.98000 3.002
24.00000 1.905
24.02000 2.364
24.04000 6.889
24.06000 6.356
24.08000 2.820
24.10000 1.914
24.12000 -3.985
24.14000 -1.286
24.16000 -1.073
24.18000 2.323
24.20000 8.864
24.22000 4.994
24.24000 7.537
24.26000 7.552
24.28000 7.814
24.30000 8.290
24.32000 3.327
24.34000 6.918
24.36000 6.695
24.38000 3.757
24.40000 4.436
24.42000 7.866
24.44000 4.241
24.46000 6.037
24.48000 3.686
24.50000 3.274
24.52000 1.415
24.54000 -1.935
24.56000 -1.154
24.58000 2.936
24.60000 3.420
24.62000 -0.832
24.64000 1.524
24.66000 -0.520
24.68000 -1.153
24.70000 1.716
24.72000 -0.026
24.74000 1.762
24.76000 6.204
24.78000 3.104
24.80000 3.991
24.82000 5.503
24.84000 6.215
24.86000 8.947
24.88000 9.520
24.90000 7.622
24.92000 10.987
24.94000 8.071
24.96000 1.477
24.98000 -0.182
25.00000 -1.486
25.02000 -0.624
25.04000 11.775
25.06000 9.858
25.08000 -0.175
25.10000 1.164
25.12000 3.268
25.14000 4.138
25.16000 6.349
25.18000 -1.887
25.20000 -1.152
25.22000 4.818
25.24000 7.027
25.26000 1.545
25.28000 0.557
25.30000 -1.091
25.32000 -2.972
25.34000 -1.910
25.36000 -0.088
25.38000 4.850
25.40000 -0.436
25.42000 7.304
25.44000 10.171
25.46000 -3.931
25.48000 -3.791
25.50000 3.486
25.52000 6.726
25.54000 7.646
25.56000 4.895
25.58000 1.064
25.60000 2.667
25.62000 5.382
25.64000 7.049
25.66000 1.274
25.68000 -2.304
25.70000 -2.393
25.72000 -0.450
25.74000 1.094
25.76000 2.118
25.78000 -0.574
25.80000 2.094
25.82000 0.403
25.84000 -0.323
25.86000 2.597
25.88000 2.740
25.90000 4.925
25.92000 8.667
25.94000 3.713
25.96000 -0.045
25.98000 1.466
26.00000 2.140
26.02000 -2.059
26.04000 -1.006
26.06000 2.720
26.08000 -0.248
26.10000 3.575
26.12000 4.363
26.14000 5.690
26.16000 0.830
26.18000 1.521
26.20000 3.640
26.22000 4.016
26.24000 4.296
26.26000 4.124
26.28000 3.057
26.30000 3.399
26.32000 4.413
26.34000 -0.347
26.36000 -3.894
26.38000 2.535
26.40000 5.062
26.42000 5.043
26.44000 1.542
26.46000 2.073
26.48000 -0.424
26.50000 1.857
26.52000 4.813
26.54000 -0.850
26.56000 5.149
26.58000 8.491
26.60000 5.741
26.62000 6.884
26.64000 6.300
26.66000 3.319
26.68000 0.048
26.70000 -0.678
26.72000 1.045
26.74000 2.312
26.76000 1.125
26.78000 -1.203
26.80000 0.687
26.82000 1.415
26.84000 3.292
26.86000 0.844
26.88000 6.895
26.90000 1.848
26.92000 -0.601
26.94000 3.294
26.96000 1.451
26.98000 9.749
27.00000 4.803
27.02000 4.628
27.04000 5.006
27.06000 -0.254
27.08000 -2.165
27.10000 0.771
27.12000 1.959
27.14000 3.366
27.16000 7.977
27.18000 3.334
27.20000 -1.022
27.22000 1.797
27.24000 5.788
27.26000 6.254
27.28000 5.113
27.30000 7.283
27.32000 5.839
27.34000 2.477
27.36000 5.719
27.38000 6.072
27.40000 2.480
27.42000 -2.514
27.44000 -3.476
27.46000 -2.403
27.48000 4.191
27.50000 7.909
27.52000 8.601
27.54000 3.429
27.56000 4.657
27.58000 5.174
27.60000 0.821
27.62000 -3.814
27.64000 -1.418
27.66000 4.230
27.68000 2.550
27.70000 -1.250
27.72000 1.913
27.74000 4.613
27.76000 1.445
27.78000 6.888
27.80000 8.835
27.82000 7.883
27.84000 2.098
27.86000 3.227
27.88000 6.505
27.90000 4.619
27.92000 -0.384
27.94000 2.721
27.96000 2.005
27.98000 3.254
28.00000 2.666
28.02000 6.687
28.04000 6.071
28.06000 2.942
28.08000 4.409
28.10000 8.905
28.12000 7.140
28.14000 2.208
28.16000 2.658
28.18000 1.707
28.20000 -0.127
28.22000 -0.691
28.24000 -0.775
28.26000 6.088
28.28000 3.595
28.30000 -0.638
28.32000 1.968
28.34000 6.718
28.36000 3.335
28.38000 5.854
28.40000 1.399
28.42000 -1.260
28.44000 1.459
28.46000 2.850
28.48000 2.283
28.50000 -1.521
28.52000 -0.269
28.54000 2.408
28.56000 5.171
28.58000 8.199
28.60000 9.317
28.62000 6.327
28.64000 2.882
28.66000 4.122
28.68000 3.117
28.70000 1.152
28.72000 -1.384
28.74000 0.328
28.76000 3.568
28.78000 4.335
28.80000 3.658
28.82000 1.313
28.84000 1.810
28.86000 -0.265
28.88000 2.508
28.90000 0.218
28.92000 -2.178
28.94000 2.282
28.96000 3.686
28.98000 -0.891
29.00000 8.174
29.02000 5.770
29.04000 -0.873
29.06000 5.138
29.08000 8.814
29.10000 2.898
29.12000 -2.478
29.14000 0.175
29.16000 2.195
29.18000 2.204
29.20000 1.946
29.22000 4.925
29.24000 0.978
29.26000 5.236
29.28000 8.622
29.30000 4.014
29.32000 1.154
29.34000 5.139
29.36000 4.227
29.38000 -3.722
29.40000 -0.291
29.42000 3.891
29.44000 7.634
29.46000 6.754
29.48000 2.338
29.50000 3.151
29.52000 5.372
29.54000 -2.807
29.56000 -3.078
29.58000 0.798
29.60000 6.914
29.62000 7.249
29.64000 6.439
29.66000 3.099
29.68000 3.251
29.70000 7.094
29.72000 3.681
29.74000 1.674
29.76000 0.550
29.78000 4.129
29.80000 2.602
29.82000 2.584
29.84000 4.055
29.86000 1.677
29.88000 1.981
29.90000 4.675
29.92000 2.167
29.94000 -0.863
29.96000 1.518
29.98000 2.641
30.00000 0.902
30.02000 0.387
30.04000 -0.766
30.06000 0.790
30.08000 2.106
30.10000 2.391
30.12000 4.504
30.14000 5.527
30.16000 4.130
30.18000 -3.096
30.20000 -3.699
30.22000 -1.918
30.24000 4.055
30.26000 3.142
30.28000 -0.806
30.30000 0.047
30.32000 -2.745
30.34000 2.326
30.36000 2.436
30.38000 3.021
30.40000 1.153
30.42000 -1.799
30.44000 -2.791
30.46000 1.547
30.48000 -0.790
30.50000 -3.068
30.52000 -1.535
30.54000 3.317
30.56000 4.524
30.58000 2.531
30.60000 7.945
30.62000 0.632
30.64000 -2.178
30.66000 0.032
30.68000 1.791
30.70000 -0.278
30.72000 0.399
30.74000 4.929
30.76000 5.486
30.78000 0.490
30.80000 -0.276
30.82000 4.856
30.84000 2.863
30.86000 2.530
30.88000 6.436
30.90000 4.273
30.92000 2.884
30.94000 0.522
30.96000 0.972
30.98000 2.160
31.00000 2.748
31.02000 2.954
31.04000 3.628
31.06000 4.287
31.08000 4.918
31.10000 3.776
31.12000 2.681
31.14000 -3.647
31.16000 -2.669
31.18000 1.893
31.20000 -0.369
31.22000 2.681
31.24000 4.260
31.26000 7.889
31.28000 2.342
31.30000 3.914
31.32000 0.089
31.34000 -2.620
31.36000 0.775
31.38000 -0.703
31.40000 1.448
31.42000 1.129
31.44000 -0.441
31.46000 2.873
31.48000 5.894
31.50000 6.553
31.52000 1.888
31.54000 0.348
31.56000 6.447
31.58000 4.146
31.60000 0.013
31.62000 0.367
31.64000 2.309
31.66000 -2.532
31.68000 -3.404
31.70000 -1.859
31.72000 -0.012
31.74000 -0.482
31.76000 -3.650
31.78000 -1.951
31.80000 -1.216
31.82000 1.936
31.84000 6.714
31.86000 3.170
31.88000 -1.179
31.90000 -3.206
31.92000 0.929
31.94000 5.280
31.96000 2.841
31.98000 2.052
32.00000 1.923
32.02000 0.327
32.04000 1.665
32.06000 4.430
32.08000 -3.141
32.10000 3.020
32.12000 3.228
32.14000 3.305
32.16000 0.214
32.18000 -1.795
32.20000 5.422
32.22000 3.435
32.24000 5.203
32.26000 2.658
32.28000 1.810
32.30000 0.560
32.32000 -0.919
32.34000 -3.635
32.36000 -3.207
32.38000 -1.382
32.40000 -0.049
32.42000 -0.975
32.44000 -0.195
32.46000 -1.199
32.48000 -2.198
32.50000 -1.722
32.52000 -0.564
32.54000 0.958
32.56000 -0.117
32.58000 0.507
32.60000 4.007
32.62000 -1.022
32.64000 0.852
32.66000 0.644
32.68000 -3.619
32.70000 2.872
32.72000 3.110
32.74000 1.495
32.76000 -1.556
32.78000 2.643
32.80000 5.512
32.82000 1.294
32.84000 -2.451
32.86000 -2.592
32.88000 0.846
32.90000 0.939
32.92000 2.155
32.94000 1.042
32.96000 0.328
32.98000 -2.230
33.00000 -1.328
33.02000 1.231
33.04000 1.089
33.06000 -1.017
33.08000 -0.436
33.10000 1.105
33.12000 2.751
33.14000 4.563
33.16000 3.753
33.18000 1.627
33.20000 2.583
33.22000 4.597
33.24000 -1.448
33.26000 -0.276
33.28000 3.062
33.30000 1.374
33.32000 3.121
33.34000 5.260
33.36000 3.459
33.38000 -1.164
33.40000 -0.884
33.42000 -3.574
33.44000 3.540
33.46000 10.332
33.48000 7.949
33.50000 2.412
33.52000 1.081
33.54000 3.213
33.56000 0.334
33.58000 3.856
33.60000 4.069
33.62000 4.406
33.64000 4.601
33.66000 6.126
33.68000 7.077
33.70000 1.613
33.72000 8.727
33.74000 6.286
33.76000 6.256
33.78000 7.546
33.80000 2.941
33.82000 -2.837
33.84000 -3.549
33.86000 0.860
33.88000 1.114
33.90000 1.807
33.92000 -0.388
33.94000 2.302
33.96000 6.521
33.98000 3.889
34.00000 4.770
34.02000 7.369
34.04000 5.167
34.06000 5.669
34.08000 4.572
34.10000 10.000
34.12000 8.966
34.14000 5.933
34.16000 7.751
34.18000 6.793
34.20000 6.608
34.22000 6.457
34.24000 5.627
34.26000 6.508
34.28000 4.965
34.30000 4.114
34.32000 5.749
34.34000 7.980
34.36000 8.456
34.38000 9.812
34.40000 4.880
34.42000 3.838
34.44000 11.097
34.46000 9.007
34.48000 4.174
34.50000 -0.765
34.52000 0.359
34.54000 1.183
34.56000 -1.344
34.58000 -1.407
34.60000 -1.360
34.62000 2.759
34.64000 -3.551
34.66000 -2.765
34.68000 0.810
34.70000 3.539
34.72000 1.807
34.74000 2.127
34.76000 1.851
34.78000 1.579
34.80000 2.130
34.82000 3.898
34.84000 2.551
34.86000 0.213
34.88000 3.850
34.90000 -1.594
34.92000 1.054
34.94000 0.884
34.96000 -0.179
34.98000 0.519
35.00000 1.278
35.02000 -2.106
35.04000 -1.181
35.06000 -0.131
35.08000 3.925
35.10000 4.516
35.12000 5.780
35.14000 1.352
35.16000 0.773
35.18000 -0.934
35.20000 -1.115
35.22000 -1.763
35.24000 -3.556
35.26000 2.599
35.28000 -1.015
35.30000 1.928
35.32000 -0.639
35.34000 2.678
35.36000 -0.770
35.38000 0.874
35.40000 1.088
35.42000 -0.582
35.44000 0.069
35.46000 0.842
35.48000 2.081
35.50000 -3.180
35.52000 -0.622
35.54000 0.878
35.56000 1.413
35.58000 1.888
35.60000 3.606
35.62000 -1.543
35.64000 1.351
35.66000 2.563
35.68000 -1.486
35.70000 -3.056
35.72000 -3.202
35.74000 -2.840
35.76000 -0.113
35.78000 -0.459
35.80000 -0.791
35.82000 -2.925
35.84000 3.296
35.86000 4.643
35.88000 0.371
35.90000 -1.778
35.92000 -2.363
35.94000 4.936
35.96000 4.029
35.98000 2.400
36.00000 -0.482
36.02000 1.034
36.04000 4.522
36.06000 0.087
36.08000 -3.569
36.10000 -3.104
36.12000 -1.876
36.14000 2.257
36.16000 8.086
36.18000 6.027
36.20000 -1.376
36.22000 -0.115
36.24000 3.830
36.26000 4.009
36.28000 2.407
36.30000 1.658
36.32000 3.473
36.34000 2.292
36.36000 3.687
36.38000 0.443
36.40000 1.781
36.42000 4.194
36.44000 5.364
36.46000 3.274
36.48000 3.731
36.50000 4.108
36.52000 3.499
36.54000 2.685
36.56000 4.070
36.58000 4.812
36.60000 1.953
36.62000 1.860
36.64000 -0.089
36.66000 -1.094
36.68000 1.194
36.70000 3.961
36.72000 7.143
36.74000 5.447
36.76000 -0.551
36.78000 -0.268
36.80000 -0.559
36.82000 -3.582
36.84000 -1.135
36.86000 0.205
36.88000 3.377
36.90000 0.860
36.92000 0.217
36.94000 1.629
36.96000 5.651
36.98000 1.680
37.00000 -0.381
37.02000 2.860
37.04000 4.647
37.06000 3.987
37.08000 -0.882
37.10000 -2.726
37.12000 -2.535
37.14000 1.406
37.16000 -0.723
37.18000 -2.561
37.20000 -1.211
37.22000 0.539
37.24000 6.476
37.26000 6.247
37.28000 1.885
37.30000 3.912
37.32000 8.709
37.34000 8.658
37.36000 1.054
37.38000 -1.840
37.40000 0.263
37.42000 3.145
37.44000 0.531
37.46000 0.441
37.48000 4.582
37.50000 5.928
37.52000 7.975
37.54000 4.553
37.56000 2.197
37.58000 9.002
37.60000 8.818
37.62000 7.823
37.64000 8.109
37.66000 3.095
37.68000 3.125
37.70000 6.965
37.72000 2.340
37.74000 10.356
37.76000 5.601
37.78000 8.075
37.80000 9.906
37.82000 7.005
37.84000 6.064
37.86000 7.895
37.88000 14.329
37.90000 15.293
37.92000 18.471
37.94000 17.238
37.96000 18.251
37.98000 18.248
38.00000 15.158
38.02000 17.791
38.04000 17.396
38.06000 16.260
38.08000 12.790
38.10000 10.532
38.12000 18.208
38.14000 22.202
38.16000 17.406
38.18000 21.219
38.20000 21.245
38.22000 23.324
38.24000 19.034
38.26000 18.429
38.28000 24.028
38.30000 22.567
38.32000 22.374
38.34000 21.171
38.36000 19.989
38.38000 21.784
38.40000 27.859
38.42000 29.331
38.44000 29.172
38.46000 31.056
38.48000 29.346
38.50000 33.040
38.52000 35.740
38.54000 38.634
38.56000 38.163
38.58000 46.410
38.60000 42.177
38.62000 43.955
38.64000 47.102
38.66000 52.145
38.68000 51.524
38.70000 53.333
38.72000 55.104
38.74000 58.517
38.76000 60.076
38.78000 59.656
38.80000 60.773
38.82000 62.631
38.84000 62.104
38.86000 61.412
38.88000 69.180
38.90000 78.148
38.92000 80.578
38.94000 83.453
38.96000 85.622
38.98000 89.441
39.00000 96.130
39.02000 102.106
39.04000 104.011
39.06000 99.028
39.08000 107.623
39.10000 120.342
39.12000 125.190
39.14000 124.078
39.16000 136.680
39.18000 145.931
39.20000 146.518
39.22000 153.613
39.24000 161.792
39.26000 166.766
39.28000 174.991
39.30000 181.223
39.32000 190.710
39.34000 195.738
39.36000 210.334
39.38000 221.123
39.40000 224.370
39.42000 235.360
39.44000 254.099
39.46000 268.050
39.48000 280.130
39.50000 293.400
39.52000 305.373
39.54000 322.592
39.56000 332.054
39.58000 351.846
39.60000 368.902
39.62000 391.024
39.64000 414.395
39.66000 431.511
39.68000 456.684
39.70000 478.683
39.72000 504.228
39.74000 530.754
39.76000 545.604
39.78000 575.032
39.80000 602.668
39.82000 621.084
39.84000 637.799
39.86000 669.898
39.88000 694.698
39.90000 717.575
39.92000 733.544
39.94000 755.295
39.96000 766.042
39.98000 778.875
40.00000 797.267
40.02000 811.406
40.04000 820.117
40.06000 824.086
40.08000 829.633
40.10000 838.035
40.12000 836.470
40.14000 822.372
40.16000 808.889
40.18000 802.297
40.20000 776.411
40.22000 765.312
40.24000 756.640
40.26000 747.546
40.28000 735.628
40.30000 712.796
40.32000 689.530
40.34000 656.792
40.36000 636.384
40.38000 613.374
40.40000 596.479
40.42000 572.797
40.44000 547.196
40.46000 516.927
40.48000 497.053
40.50000 465.793
40.52000 449.469
40.54000 424.703
40.56000 408.679
40.58000 396.100
40.60000 369.626
40.62000 345.629
40.64000 319.489
40.66000 300.173
40.68000 288.695
40.70000 272.009
40.72000 261.653
40.74000 246.934
40.76000 232.310
40.78000 223.138
40.80000 207.638
40.82000 195.822
40.84000 183.506
40.86000 170.600
40.88000 160.991
40.90000 150.039
40.92000 147.248
40.94000 137.857
40.96000 125.812
40.98000 121.751
41.00000 115.366
41.02000 109.360
41.04000 104.843
41.06000 96.344
41.08000 88.161
41.10000 86.323
41.12000 80.730
41.14000 77.431
41.16000 73.434
41.18000 67.627
41.20000 65.865
41.22000 64.532
41.24000 56.932
41.26000 53.032
41.28000 53.935
41.30000 50.093
41.32000 49.535
41.34000 40.742
41.36000 39.755
41.38000 41.229
41.40000 36.973
41.42000 32.635
41.44000 37.449
41.46000 38.029
41.48000 30.138
41.50000 28.243
41.52000 26.363
41.54000 26.640
41.56000 25.286
41.58000 24.152
41.60000 26.007
41.62000 22.845
41.64000 19.598
41.66000 16.470
41.68000 15.719
41.70000 17.913
41.72000 18.941
41.74000 18.553
41.76000 14.078
41.78000 11.654
41.80000 16.669
41.82000 16.369
41.84000 13.427
41.86000 14.430
41.88000 13.881
41.90000 11.971
41.92000 10.403
41.94000 7.321
41.96000 4.940
41.98000 7.101
42.00000 6.126
42.02000 4.466
42.04000 2.165
42.06000 3.865
42.08000 5.251
42.10000 8.114
42.12000 6.809
42.14000 2.481
42.16000 8.740
42.18000 9.120
42.20000 1.618
42.22000 2.108
42.24000 5.272
42.26000 4.206
42.28000 1.988
42.30000 4.786
42.32000 6.780
42.34000 3.179
42.36000 0.581
42.38000 3.349
42.40000 5.319
42.42000 4.265
42.44000 4.453
42.46000 -1.575
42.48000 -1.330
42.50000 2.929
42.52000 5.904
42.54000 5.226
42.56000 6.697
42.58000 6.250
42.60000 5.532
42.62000 5.440
42.64000 3.876
42.66000 4.410
42.68000 3.139
42.70000 2.217
42.72000 5.094
42.74000 6.385
42.76000 3.471
42.78000 0.869
42.80000 0.599
42.82000 0.855
42.84000 -3.452
42.86000 -2.344
42.88000 3.146
42.90000 4.417
42.92000 1.145
42.94000 1.145
42.96000 -3.435
42.98000 -0.698
43.00000 -1.043
43.02000 -1.743
43.04000 -0.552
43.06000 1.646
43.08000 -0.499
43.10000 1.990
43.12000 5.161
43.14000 0.502
43.16000 1.570
43.18000 1.346
43.20000 -0.809
43.22000 -1.151
43.24000 -2.008
43.26000 3.816
43.28000 0.924
43.30000 1.638
43.32000 1.000
43.34000 1.749
43.36000 3.036
43.38000 3.058
43.40000 2.232
43.42000 1.759
43.44000 -0.041
43.46000 -0.920
43.48000 -2.006
43.50000 -2.806
43.52000 -0.412
43.54000 0.511
43.56000 -3.369
43.58000 1.042
43.60000 8.670
43.62000 3.262
43.64000 0.602
43.66000 0.429
43.68000 4.655
43.70000 6.239
43.72000 3.590
43.74000 2.706
43.76000 2.548
43.78000 -0.292
43.80000 0.914
43.82000 -3.345
43.84000 1.512
43.86000 1.765
43.88000 0.108
43.90000 2.522
43.92000 5.086
43.94000 4.285
43.96000 0.131
43.98000 0.694
44.00000 0.021
44.02000 2.625
44.04000 3.412
44.06000 4.021
44.08000 2.273
44.10000 -1.376
44.12000 -3.326
44.14000 -0.849
44.16000 1.440
44.18000 6.610
44.20000 4.995
44.22000 1.700
44.24000 -0.280
44.26000 2.921
44.28000 5.571
44.30000 4.840
44.32000 2.013
44.34000 6.275
44.36000 3.994
44.38000 2.754
44.40000 4.150
44.42000 2.714
44.44000 -1.312
44.46000 3.240
44.48000 5.528
44.50000 6.041
44.52000 4.554
44.54000 4.557
44.56000 4.237
44.58000 4.321
44.60000 4.037
44.62000 4.466
44.64000 1.757
44.66000 0.684
44.68000 -2.332
44.70000 2.493
44.72000 5.359
44.74000 5.063
44.76000 4.854
44.78000 5.316
44.80000 5.263
44.82000 9.251
44.84000 5.959
44.86000 1.755
44.88000 1.680
44.90000 4.230
44.92000 3.718
44.94000 1.205
44.96000 4.292
44.98000 5.135
45.00000 5.418
45.02000 1.355
45.04000 7.164
45.06000 9.062
45.08000 9.141
45.10000 10.111
45.12000 8.422
45.14000 11.068
45.16000 14.003
45.18000 11.189
45.20000 10.901
45.22000 13.211
45.24000 12.733
45.26000 14.699
45.28000 13.316
45.30000 13.433
45.32000 13.430
45.34000 16.072
45.36000 16.666
45.38000 19.341
45.40000 17.911
45.42000 15.679
45.44000 18.600
45.46000 20.422
45.48000 26.892
45.50000 31.707
45.52000 29.096
45.54000 26.151
45.56000 25.066
45.58000 22.166
45.60000 28.693
45.62000 28.130
45.64000 27.645
45.66000 31.803
45.68000 28.117
45.70000 26.964
45.72000 33.876
45.74000 32.478
45.76000 36.840
45.78000 36.381
45.80000 35.738
45.82000 39.087
45.84000 42.882
45.86000 45.116
45.88000 45.215
45.90000 45.938
45.92000 47.204
45.94000 54.084
45.96000 55.353
45.98000 54.096
46.00000 58.835
46.02000 68.290
46.04000 67.948
46.06000 59.501
46.08000 60.842
46.10000 68.903
46.12000 72.804
46.14000 72.737
46.16000 71.507
46.18000 81.152
46.20000 89.236
46.22000 89.236
46.24000 92.368
46.26000 90.952
46.28000 88.263
46.30000 93.444
46.32000 92.216
46.34000 91.845
46.36000 94.697
46.38000 101.988
46.40000 109.037
46.42000 107.493
46.44000 107.639
46.46000 111.392
46.48000 122.135
46.50000 120.352
46.52000 123.499
46.54000 126.745
46.56000 124.595
46.58000 127.526
46.60000 128.651
46.62000 132.543
46.64000 132.276
46.66000 133.775
46.68000 132.283
46.70000 136.137
46.72000 141.446
46.74000 136.827
46.76000 141.122
46.78000 142.451
46.80000 139.558
46.82000 136.671
46.84000 143.214
46.86000 139.631
46.88000 135.914
46.90000 137.132
46.92000 132.836
46.94000 135.279
46.96000 128.251
46.98000 129.105
47.00000 125.343
47.02000 120.242
47.04000 115.473
47.06000 113.303
47.08000 118.577
47.10000 106.657
47.12000 102.239
47.14000 108.503
47.16000 104.999
47.18000 99.796
47.20000 91.607
47.22000 86.042
47.24000 87.974
47.26000 85.876
47.28000 79.737
47.30000 72.719
47.32000 70.925
47.34000 67.357
47.36000 67.376
47.38000 63.191
47.40000 59.631
47.42000 54.669
47.44000 50.342
47.46000 50.430
47.48000 47.259
47.50000 42.353
47.52000 45.862
47.54000 43.117
47.56000 39.818
47.58000 40.963
47.60000 42.343
47.62000 38.528
47.64000 34.870
47.66000 24.655
47.68000 22.327
47.70000 26.939
47.72000 23.081
47.74000 20.516
47.76000 22.898
47.78000 24.269
47.80000 19.774
47.82000 12.288
47.84000 10.887
47.86000 10.859
47.88000 15.381
47.90000 9.732
47.92000 6.445
47.94000 7.854
47.96000 7.648
47.98000 4.789
48.00000 5.017
48.02000 6.133
48.04000 12.976
48.06000 12.882
48.08000 11.417
48.10000 5.446
48.12000 1.984
48.14000 2.461
48.16000 9.936
48.18000 7.790
48.20000 4.127
48.22000 6.488
48.24000 2.809
48.26000 0.322
48.28000 -1.454
48.30000 -0.947
48.32000 -1.087
48.34000 8.056
48.36000 5.799
48.38000 0.188
48.40000 -1.330
48.42000 -2.745
48.44000 2.159
48.46000 -0.583
48.48000 0.815
48.50000 1.045
48.52000 2.723
48.54000 5.769
48.56000 0.504
48.58000 0.430
48.60000 2.731
48.62000 5.450
48.64000 2.032
48.66000 0.392
48.68000 2.277
48.70000 0.955
48.72000 1.386
48.74000 -1.458
48.76000 -2.905
48.78000 -0.329
48.80000 0.151
48.82000 -0.629
48.84000 -1.719
48.86000 -0.394
48.88000 0.631
48.90000 5.461
48.92000 3.376
48.94000 -0.921
48.96000 -0.411
48.98000 -2.869
49.00000 -0.331
49.02000 2.511
49.04000 2.685
49.06000 3.533
49.08000 6.832
49.10000 7.299
49.12000 4.435
49.14000 1.583
49.16000 -1.152
49.18000 -0.042
49.20000 1.541
49.22000 1.266
49.24000 1.075
49.26000 -0.253
49.28000 0.772
49.30000 -0.330
49.32000 -2.811
49.34000 0.828
49.36000 0.945
49.38000 -0.279
49.40000 -1.462
49.42000 0.492
49.44000 3.992
49.46000 3.537
49.48000 2.093
49.50000 -0.499
49.52000 -0.041
49.54000 0.028
49.56000 1.146
49.58000 2.719
49.60000 2.197
49.62000 -2.258
49.64000 -2.349
49.66000 2.917
49.68000 2.409
49.70000 7.767
49.72000 5.388
49.74000 2.048
49.76000 1.710
49.78000 2.492
49.80000 1.783
49.82000 1.101
49.84000 0.239
49.86000 1.002
49.88000 1.205
49.90000 3.220
49.92000 -0.712
49.94000 0.738
49.96000 1.215
49.98000 1.362
50.00000 1.085
50.02000 2.780
50.04000 3.612
50.06000 1.988
50.08000 0.788
50.10000 -2.570
50.12000 -2.761
50.14000 0.501
50.16000 -1.138
50.18000 -0.771
50.20000 5.024
50.22000 4.479
50.24000 -1.494
50.26000 0.085
50.28000 2.691
50.30000 3.750
50.32000 1.721
50.34000 3.295
50.36000 4.672
50.38000 3.164
50.40000 1.493
50.42000 -1.054
50.44000 -1.569
50.46000 -2.727
50.48000 -0.387
50.50000 3.386
50.52000 5.618
50.54000 3.096
50.56000 4.257
50.58000 -2.274
50.60000 -1.429
50.62000 2.684
50.64000 2.582
50.66000 4.798
50.68000 3.985
50.70000 1.323
50.72000 -2.706
50.74000 1.240
50.76000 2.516
50.78000 1.425
50.80000 -0.607
50.82000 1.220
50.84000 5.178
50.86000 1.533
50.88000 1.125
50.90000 3.297
50.92000 3.309
50.94000 3.509
50.96000 3.971
50.98000 5.502
51.00000 3.675
51.02000 3.249
51.04000 2.287
51.06000 -2.139
51.08000 2.493
51.10000 4.065
51.12000 4.511
51.14000 3.776
51.16000 1.668
51.18000 0.184
51.20000 2.451
51.22000 0.211
51.24000 0.973
51.26000 1.772
51.28000 2.734
51.30000 1.331
51.32000 -2.693
51.34000 -1.012
51.36000 3.241
51.38000 0.290
51.40000 5.094
51.42000 5.365
51.44000 6.201
51.46000 2.951
51.48000 3.075
51.50000 1.848
51.52000 1.743
51.54000 1.205
51.56000 4.795
51.58000 6.222
51.60000 8.220
51.62000 0.228
51.64000 -0.610
51.66000 2.227
51.68000 0.680
51.70000 -1.790
51.72000 -0.714
51.74000 0.187
51.76000 3.196
51.78000 0.752
51.80000 1.974
51.82000 1.509
51.84000 -1.784
51.86000 -2.672
51.88000 -0.918
51.90000 2.378
51.92000 1.436
51.94000 1.084
51.96000 1.501
51.98000 1.644
52.00000 0.577
52.02000 -1.968
52.04000 -0.098
52.06000 1.609
52.08000 0.301
52.10000 2.603
52.12000 -1.838
52.14000 2.869
52.16000 1.563
52.18000 -2.005
52.20000 0.349
52.22000 0.668
52.24000 1.239
52.26000 1.769
52.28000 2.852
52.30000 0.828
52.32000 0.502
52.34000 4.027
52.36000 3.169
52.38000 3.604
52.40000 8.337
52.42000 4.713
52.44000 -1.226
52.46000 -1.745
52.48000 -0.988
52.50000 5.193
52.52000 5.301
52.54000 -0.556
52.56000 0.226
52.58000 -0.213
52.60000 0.917
52.62000 1.788
52.64000 2.598
52.66000 -1.373
52.68000 -0.073
52.70000 -1.988
52.72000 -0.714
52.74000 1.092
52.76000 3.877
52.78000 3.943
52.80000 10.113
52.82000 8.191
52.84000 5.214
52.86000 0.475
52.88000 0.790
52.90000 6.134
52.92000 7.400
52.94000 5.780
52.96000 1.813
52.98000 1.510
53.00000 2.050
53.02000 2.068
53.04000 3.524
53.06000 2.169
53.08000 -2.612
53.10000 0.069
53.12000 4.029
53.14000 7.063
53.16000 5.999
53.18000 10.115
53.20000 9.032
53.22000 6.799
53.24000 4.938
53.26000 2.090
53.28000 0.656
53.30000 1.803
53.32000 3.079
53.34000 1.012
53.36000 0.028
53.38000 -2.612
53.40000 0.393
53.42000 5.118
53.44000 0.529
53.46000 -1.122
53.48000 -0.088
53.50000 2.777
53.52000 2.552
53.54000 -1.622
53.56000 0.392
53.58000 -0.801
53.60000 -0.849
53.62000 -2.611
53.64000 -0.292
53.66000 -0.787
53.68000 0.419
53.70000 4.951
53.72000 4.060
53.74000 3.504
53.76000 2.157
53.78000 -1.548
53.80000 0.496
53.82000 1.952
53.84000 -0.635
53.86000 1.534
53.88000 2.667
53.90000 4.851
53.92000 5.166
53.94000 4.819
53.96000 1.460
53.98000 -0.897
54.00000 -0.369
54.02000 -2.223
54.04000 -0.258
54.06000 -2.601
54.08000 -0.061
54.10000 1.957
54.12000 0.317
54.14000 3.215
54.16000 -0.029
54.18000 1.225
54.20000 0.594
54.22000 0.891
54.24000 1.610
54.26000 0.526
54.28000 0.297
54.30000 -2.597
54.32000 -1.748
54.34000 -0.872
54.36000 3.218
54.38000 5.210
54.40000 4.200
54.42000 3.456
54.44000 4.646
54.46000 1.782
54.48000 3.536
54.50000 4.520
54.52000 4.598
54.54000 2.105
54.56000 1.800
54.58000 0.662
54.60000 -0.921
54.62000 -2.106
54.64000 -1.413
54.66000 -0.288
54.68000 -0.315
54.70000 4.969
54.72000 1.229
54.74000 -2.446
54.76000 -2.268
54.78000 -0.207
54.80000 -0.290
54.82000 -0.812
54.84000 -0.798
54.86000 2.650
54.88000 1.814
54.90000 2.466
54.92000 1.373
54.94000 0.636
54.96000 1.185
54.98000 1.274
55.00000 -1.146
55.02000 2.010
55.04000 0.642
55.06000 3.733
55.08000 1.677
55.10000 3.794
55.12000 5.530
55.14000 -0.324
55.16000 -2.558
55.18000 1.507
55.20000 0.331
55.22000 1.994
55.24000 4.034
55.26000 5.185
55.28000 2.292
55.30000 1.643
55.32000 3.467
55.34000 5.488
55.36000 4.726
55.38000 2.066
55.40000 3.454
55.42000 4.548
55.44000 4.523
55.46000 2.273
55.48000 0.238
55.50000 -2.549
55.52000 0.071
55.54000 -0.769
55.56000 0.016
55.58000 3.292
55.60000 5.292
55.62000 7.305
55.64000 -0.918
55.66000 0.140
55.68000 1.307
55.70000 0.650
55.72000 -2.542
55.74000 -1.612
55.76000 2.938
55.78000 0.347
55.80000 4.720
55.82000 1.402
55.84000 0.289
55.86000 2.842
55.88000 2.937
55.90000 4.491
55.92000 -1.681
55.94000 -0.076
55.96000 2.275
55.98000 3.341
56.00000 -0.596
56.02000 -0.924
56.04000 3.259
56.06000 2.118
56.08000 2.847
56.10000 2.992
56.12000 0.367
56.14000 -0.150
56.16000 3.047
56.18000 -0.796
56.20000 2.035
56.22000 2.731
56.24000 1.263
56.26000 4.525
56.28000 8.395
56.30000 6.535
56.32000 6.824
56.34000 1.572
56.36000 -2.537
56.38000 -2.057
56.40000 -1.076
56.42000 -0.201
56.44000 6.677
56.46000 6.141
56.48000 1.947
56.50000 -2.532
56.52000 0.812
56.54000 -0.734
56.56000 -1.235
56.58000 1.809
56.60000 -0.157
56.62000 1.253
56.64000 3.701
56.66000 3.739
56.68000 2.906
56.70000 4.967
56.72000 5.613
56.74000 2.741
56.76000 1.622
56.78000 -2.078
56.80000 -0.012
56.82000 4.624
56.84000 5.381
56.86000 1.387
56.88000 -0.594
56.90000 1.619
56.92000 5.520
56.94000 4.116
56.96000 4.366
56.98000 2.943
57.00000 -0.704
57.02000 0.691
57.04000 -1.701
57.06000 -2.411
57.08000 0.918
57.10000 2.517
57.12000 0.778
57.14000 1.383
57.16000 2.894
57.18000 2.693
57.20000 7.876
57.22000 3.376
57.24000 4.927
57.26000 3.562
57.28000 2.393
57.30000 5.057
57.32000 1.251
57.34000 0.886
57.36000 -2.484
57.38000 -1.806
57.40000 3.199
57.42000 5.964
57.44000 4.366
57.46000 3.343
57.48000 3.166
57.50000 4.199
57.52000 3.106
57.54000 2.530
57.56000 1.702
57.58000 2.659
57.60000 3.527
57.62000 7.817
57.64000 8.503
57.66000 3.521
57.68000 6.212
57.70000 2.272
57.72000 -1.388
57.74000 -0.535
57.76000 1.152
57.78000 4.698
57.80000 5.209
57.82000 -0.123
57.84000 -2.459
57.86000 3.759
57.88000 3.790
57.90000 -0.306
57.92000 1.765
57.94000 0.990
57.96000 3.193
57.98000 3.142
58.00000 1.050
58.02000 -1.635
58.04000 1.182
58.06000 4.703
58.08000 3.968
58.10000 4.687
58.12000 2.364
58.14000 2.886
58.16000 -0.434
58.18000 2.346
58.20000 -0.265
58.22000 -1.236
58.24000 -1.971
58.26000 -0.488
58.28000 -0.305
58.30000 1.328
58.32000 0.228
58.34000 0.069
58.36000 4.194
58.38000 3.993
58.40000 -1.309
58.42000 -0.650
58.44000 2.266
58.46000 2.887
58.48000 0.863
58.50000 0.566
58.52000 1.977
58.54000 0.656
58.56000 1.639
58.58000 1.862
58.60000 2.398
58.62000 3.424
58.64000 3.612
58.66000 4.038
58.68000 4.369
58.70000 5.382
58.72000 2.596
58.74000 2.621
58.76000 2.126
58.78000 2.834
58.80000 1.424
58.82000 3.481
58.84000 6.288
58.86000 5.732
58.88000 4.087
58.90000 4.429
58.92000 6.088
58.94000 5.122
58.96000 2.677
58.98000 0.741
59.00000 5.870
59.02000 5.117
59.04000 5.131
59.06000 0.872
59.08000 3.593
59.10000 -0.236
59.12000 0.980
59.14000 3.943
59.16000 3.322
59.18000 6.511
59.20000 8.323
59.22000 7.248
59.24000 4.904
59.26000 4.235
59.28000 6.456
59.30000 6.326
59.32000 1.142
59.34000 -2.406
59.36000 3.291
59.38000 1.633
59.40000 3.322
59.42000 4.747
59.44000 2.772
59.46000 5.369
59.48000 3.457
59.50000 3.569
59.52000 7.417
59.54000 4.043
59.56000 3.277
59.58000 0.797
59.60000 0.872
59.62000 2.541
59.64000 3.496
59.66000 3.310
59.68000 2.896
59.70000 3.095
59.72000 2.583
59.74000 1.049
59.76000 6.054
59.78000 6.575
59.80000 2.976
59.82000 4.854
59.84000 0.479
59.86000 1.343
59.88000 4.384
59.90000 5.021
59.92000 2.234
59.94000 5.219
59.96000 2.176
59.98000 0.672
60.00000 2.020
60.02000 4.308
60.04000 6.230
60.06000 6.519
60.08000 2.733
60.10000 1.437
60.12000 1.773
60.14000 2.075
60.16000 2.612
60.18000 3.881
60.20000 4.296
60.22000 2.967
60.24000 2.025
60.26000 2.791
60.28000 -0.193
60.30000 2.361
60.32000 2.129
60.34000 -1.215
60.36000 -0.905
60.38000 -1.021
60.40000 0.294
60.42000 -1.045
60.44000 -1.615
60.46000 -1.278
60.48000 2.320
60.50000 0.760
60.52000 1.393
60.54000 3.265
60.56000 3.026
60.58000 5.307
60.60000 0.936
60.62000 -0.904
60.64000 1.854
60.66000 3.455
60.68000 3.383
60.70000 1.214
60.72000 -0.623
60.74000 1.402
60.76000 2.181
60.78000 1.376
60.80000 1.185
60.82000 2.961
60.84000 7.845
60.86000 6.064
60.88000 3.025
60.90000 3.086
60.92000 2.957
60.94000 1.244
60.96000 3.522
60.98000 3.868
61.00000 2.010
61.02000 1.231
61.04000 6.309
61.06000 4.578
61.08000 4.490
61.10000 3.391
61.12000 2.924
61.14000 0.489
61.16000 0.785
61.18000 -2.333
61.20000 -0.067
61.22000 0.467
61.24000 -0.010
61.26000 -2.354
61.28000 1.038
61.30000 0.524
61.32000 4.144
61.34000 2.171
61.36000 -0.246
61.38000 3.233
61.40000 3.276
61.42000 1.440
61.44000 0.774
61.46000 2.263
61.48000 3.608
61.50000 3.173
61.52000 5.844
61.54000 6.301
61.56000 1.769
61.58000 0.473
61.60000 -0.088
61.62000 3.883
61.64000 1.334
61.66000 3.293
61.68000 2.575
61.70000 -0.467
61.72000 -2.203
61.74000 1.333
61.76000 1.479
61.78000 2.405
61.80000 -0.667
61.82000 3.377
61.84000 1.563
61.86000 -0.906
61.88000 -1.379
61.90000 1.223
61.92000 1.918
61.94000 0.004
61.96000 0.344
61.98000 1.909
62.00000 3.167
62.02000 1.435
62.04000 0.224
62.06000 2.063
62.08000 0.257
62.10000 0.762
62.12000 0.452
62.14000 1.475
62.16000 4.197
62.18000 3.031
62.20000 3.150
62.22000 0.604
62.24000 -0.923
62.26000 1.344
62.28000 -0.577
62.30000 -0.188
62.32000 0.803
62.34000 2.233
62.36000 3.273
62.38000 3.120
62.40000 0.077
62.42000 -0.415
62.44000 -0.197
62.46000 -1.136
62.48000 -2.366
62.50000 -1.554
62.52000 2.392
62.54000 -0.151
62.56000 1.482
62.58000 1.365
62.60000 1.668
62.62000 2.577
62.64000 4.447
62.66000 2.712
62.68000 2.183
62.70000 2.996
62.72000 1.611
62.74000 0.573
62.76000 3.910
62.78000 3.043
62.80000 0.621
62.82000 1.671
62.84000 2.108
62.86000 4.346
62.88000 3.277
62.90000 2.267
62.92000 4.903
62.94000 4.028
62.96000 4.507
62.98000 4.673
63.00000 1.400
63.02000 2.495
63.04000 4.428
63.06000 2.789
63.08000 3.273
63.10000 1.744
63.12000 4.916
63.14000 1.958
63.16000 4.956
63.18000 4.889
63.20000 2.027
63.22000 -2.344
63.24000 -0.230
63.26000 4.051
63.28000 4.176
63.30000 3.810
63.32000 3.558
63.34000 -0.001
63.36000 1.689
63.38000 4.798
63.40000 4.210
63.42000 0.416
63.44000 0.555
63.46000 0.019
63.48000 1.548
63.50000 4.379
63.52000 5.887
63.54000 2.990
63.56000 3.510
63.58000 0.033
63.60000 -0.142
63.62000 1.533
63.64000 5.119
63.66000 0.981
63.68000 3.992
63.70000 5.913
63.72000 3.953
63.74000 1.754
63.76000 3.073
63.78000 1.711
63.80000 -0.903
63.82000 0.131
63.84000 2.182
63.86000 -0.219
63.88000 4.015
63.90000 7.067
63.92000 0.629
63.94000 -2.077
63.96000 -2.374
63.98000 -1.488
64.00000 0.902
64.02000 0.411
64.04000 2.225
64.06000 1.172
64.08000 1.108
64.10000 -0.455
64.12000 1.057
64.14000 3.771
64.16000 1.739
64.18000 0.773
64.20000 3.038
64.22000 5.522
64.24000 3.446
64.26000 2.881
64.28000 3.214
64.30000 2.185
64.32000 -2.379
64.34000 -1.881
64.36000 3.255
64.38000 2.357
64.40000 2.552
64.42000 4.089
64.44000 1.770
64.46000 3.739
64.48000 2.837
64.50000 -0.061
64.52000 0.357
64.54000 -0.920
64.56000 -0.040
64.58000 2.266
64.60000 -0.119
64.62000 -0.720
64.64000 -0.551
64.66000 -0.668
64.68000 1.396
64.70000 1.992
64.72000 2.563
64.74000 -0.776
64.76000 -0.908
64.78000 -0.829
64.80000 0.335
64.82000 -0.648
64.84000 2.689
64.86000 0.800
64.88000 1.180
64.90000 2.113
64.92000 3.579
64.94000 -0.029
64.96000 -0.160
64.98000 -0.295
65.00000 -1.042
65.02000 -0.204
65.04000 0.500
65.06000 -2.418
65.08000 0.368
65.10000 3.628
65.12000 1.618
65.14000 0.528
65.16000 -0.322
65.18000 -2.079
65.20000 0.392
65.22000 1.385
65.24000 -1.283
65.26000 -0.161
65.28000 -1.847
65.30000 -2.209
65.32000 -1.632
65.34000 0.520
65.36000 2.771
65.38000 -0.679
65.40000 0.714
65.42000 -1.611
65.44000 -0.378
65.46000 -0.408
65.48000 -1.267
65.50000 -2.438
65.52000 -0.355
65.54000 0.971
65.56000 -0.813
65.58000 1.274
65.60000 -0.425
65.62000 -1.123
65.64000 -0.416
65.66000 -2.198
65.68000 0.115
65.70000 2.641
65.72000 3.509
65.74000 1.779
65.76000 1.446
65.78000 -0.499
65.80000 -2.392
65.82000 -0.542
65.84000 -2.450
65.86000 -1.852
65.88000 -0.571
65.90000 -0.143
65.92000 -2.389
65.94000 -1.966
65.96000 -0.655
65.98000 1.559
66.00000 3.147
66.02000 0.129
66.04000 1.295
66.06000 1.577
66.08000 0.535
66.10000 2.433
66.12000 1.103
66.14000 -0.560
66.16000 -2.161
66.18000 -2.460
66.20000 -1.826
66.22000 -1.101
66.24000 -2.166
66.26000 -1.970
66.28000 -1.308
66.30000 3.460
66.32000 1.413
66.34000 1.186
66.36000 -0.455
66.38000 -0.158
66.40000 3.526
66.42000 0.580
66.44000 0.106
66.46000 0.292
66.48000 1.300
66.50000 1.820
66.52000 -0.839
66.54000 -2.040
66.56000 -1.661
66.58000 1.166
66.60000 4.564
66.62000 2.690
66.64000 2.079
66.66000 1.010
66.68000 3.203
66.70000 4.647
66.72000 2.159
66.74000 1.835
66.76000 3.187
66.78000 1.662
66.80000 -0.110
66.82000 0.044
66.84000 0.008
66.86000 4.142
66.88000 3.523
66.90000 3.201
66.92000 4.078
66.94000 2.285
66.96000 6.090
66.98000 5.799
67.00000 6.093
67.02000 5.756
67.04000 6.462
67.06000 5.745
67.08000 1.682
67.10000 2.559
67.12000 3.123
67.14000 3.330
67.16000 7.074
67.18000 5.328
67.20000 4.418
67.22000 4.425
67.24000 7.318
67.26000 7.581
67.28000 5.503
67.30000 7.614
67.32000 7.276
67.34000 8.874
67.36000 9.472
67.38000 9.098
67.40000 10.818
67.42000 11.176
67.44000 9.014
67.46000 8.533
67.48000 10.015
67.50000 8.886
67.52000 11.473
67.54000 12.703
67.56000 7.999
67.58000 9.218
67.60000 11.577
67.62000 13.013
67.64000 15.196
67.66000 11.511
67.68000 15.150
67.70000 18.094
67.72000 17.361
67.74000 18.210
67.76000 13.405
67.78000 13.600
67.80000 16.717
67.82000 17.704
67.84000 18.206
67.86000 20.681
67.88000 19.570
67.90000 18.201
67.92000 20.856
67.94000 21.681
67.96000 24.128
67.98000 24.649
68.00000 23.479
68.02000 24.935
68.04000 24.661
68.06000 25.518
68.08000 28.369
68.10000 25.134
68.12000 26.556
68.14000 25.672
68.16000 30.151
68.18000 30.416
68.20000 24.487
68.22000 27.182
68.24000 28.550
68.26000 29.696
68.28000 28.821
68.30000 24.308
68.32000 25.009
68.34000 24.834
68.36000 23.891
68.38000 29.167
68.40000 28.691
68.42000 26.826
68.44000 26.945
68.46000 26.107
68.48000 24.769
68.50000 22.668
68.52000 22.033
68.54000 25.008
68.56000 24.186
68.58000 24.917
68.60000 23.946
68.62000 23.399
68.64000 24.672
68.66000 21.744
68.68000 16.636
68.70000 21.970
68.72000 22.038
68.74000 22.828
68.76000 20.110
68.78000 16.387
68.80000 15.724
68.82000 18.299
68.84000 17.229
68.86000 15.619
68.88000 17.808
68.90000 13.945
68.92000 16.201
68.94000 14.546
68.96000 9.316
68.98000 7.553
69.00000 9.449
69.02000 9.985
69.04000 10.215
69.06000 9.547
69.08000 12.528
69.10000 9.041
69.12000 7.174
69.14000 6.664
69.16000 6.501
69.18000 7.765
69.20000 9.247
69.22000 6.957
69.24000 5.467
69.26000 4.987
69.28000 5.109
69.30000 3.181
69.32000 0.159
69.34000 1.123
69.36000 3.577
69.38000 4.618
69.40000 2.776
69.42000 2.445
69.44000 3.161
69.46000 2.415
69.48000 1.370
69.50000 0.107
69.52000 0.986
69.54000 4.356
69.56000 3.005
69.58000 4.397
69.60000 3.351
69.62000 -0.491
69.64000 1.558
69.66000 1.933
69.68000 5.797
69.70000 1.615
69.72000 -2.349
69.74000 0.214
69.76000 0.507
69.78000 1.693
69.80000 6.105
69.82000 5.727
69.84000 0.908
69.86000 5.935
69.88000 5.027
69.90000 6.379
69.92000 0.558
69.94000 1.359
69.96000 1.267
69.98000 2.591
70.00000 2.474
70.02000 1.252
70.04000 2.416
70.06000 6.350
70.08000 4.008
70.10000 5.321
70.12000 4.870
70.14000 0.150
70.16000 1.463
70.18000 1.692
70.20000 1.003
70.22000 0.196
70.24000 -2.290
70.26000 3.270
70.28000 2.571
70.30000 1.855
70.32000 0.749
70.34000 -0.238
70.36000 3.617
70.38000 4.855
70.40000 4.394
70.42000 4.052
70.44000 4.303
70.46000 1.719
70.48000 7.187
70.50000 8.047
70.52000 3.336
70.54000 0.463
70.56000 2.007
70.58000 2.835
70.60000 4.301
70.62000 8.403
70.64000 7.202
70.66000 2.724
70.68000 -2.258
70.70000 -0.403
70.72000 0.440
70.74000 0.246
70.76000 3.314
70.78000 2.933
70.80000 -0.533
70.82000 1.051
70.84000 6.407
70.86000 3.502
70.88000 3.368
70.90000 1.377
70.92000 2.645
70.94000 5.060
70.96000 3.269
70.98000 -1.285
71.00000 1.999
71.02000 2.254
71.04000 4.143
71.06000 2.682
71.08000 3.277
71.10000 1.613
71.12000 4.714
71.14000 2.714
71.16000 -0.315
71.18000 4.023
71.20000 5.096
71.22000 0.816
71.24000 1.230
71.26000 2.290
71.28000 0.125
71.30000 0.960
71.32000 2.250
71.34000 3.665
71.36000 1.945
71.38000 1.193
71.40000 0.493
71.42000 0.164
71.44000 -0.103
71.46000 1.040
71.48000 0.606
71.50000 3.372
71.52000 1.242
71.54000 2.010
71.56000 3.921
71.58000 1.109
71.60000 0.912
71.62000 2.237
71.64000 5.338
71.66000 2.012
71.68000 1.411
71.70000 4.906
71.72000 2.565
71.74000 0.419
71.76000 -2.261
71.78000 -1.617
71.80000 0.781
71.82000 3.497
71.84000 2.636
71.86000 2.590
71.88000 -0.455
71.90000 5.076
71.92000 2.758
71.94000 3.210
71.96000 4.041
71.98000 4.602
72.00000 3.317
72.02000 2.128
72.04000 0.420
72.06000 0.578
72.08000 0.381
72.10000 -0.729
72.12000 -1.844
72.14000 1.023
72.16000 0.628
72.18000 -2.242
72.20000 3.698
72.22000 -0.415
72.24000 -2.069
72.26000 1.549
72.28000 4.861
72.30000 5.580
72.32000 0.762
72.34000 -0.256
72.36000 -2.046
72.38000 0.519
72.40000 -1.819
72.42000 -0.763
72.44000 0.275
72.46000 2.782
72.48000 3.838
72.50000 2.521
72.52000 0.262
72.54000 0.357
72.56000 5.714
72.58000 5.049
72.60000 3.608
72.62000 6.747
72.64000 6.215
72.66000 3.575
72.68000 4.061
72.70000 2.686
72.72000 5.676
72.74000 8.210
72.76000 -0.467
72.78000 -2.188
72.80000 0.743
72.82000 2.102
72.84000 0.073
72.86000 1.956
72.88000 0.802
72.90000 1.630
72.92000 1.895
72.94000 1.596
72.96000 -1.154
72.98000 -0.873
73.00000 0.432
73.02000 2.817
73.04000 1.655
73.06000 3.078
73.08000 3.210
73.10000 1.839
73.12000 1.859
73.14000 0.236
73.16000 3.039
73.18000 2.935
73.20000 2.981
73.22000 3.544
73.24000 4.499
73.26000 2.038
73.28000 0.577
73.30000 0.287
73.32000 -0.822
73.34000 2.965
73.36000 6.296
73.38000 3.177
73.40000 0.571
73.42000 -1.037
73.44000 2.508
73.46000 0.636
73.48000 -0.840
73.50000 3.271
73.52000 3.949
73.54000 4.443
73.56000 5.635
73.58000 3.896
73.60000 1.119
73.62000 5.724
73.64000 2.423
73.66000 4.123
73.68000 -2.184
73.70000 -2.140
73.72000 1.691
73.74000 4.640
73.76000 4.942
73.78000 2.741
73.80000 3.895
73.82000 3.836
73.84000 4.124
73.86000 5.333
73.88000 2.343
73.90000 0.975
73.92000 0.772
73.94000 2.784
73.96000 2.130
73.98000 2.497
74.00000 3.027
74.02000 0.121
74.04000 -0.442
74.06000 5.226
74.08000 2.470
74.10000 3.165
74.12000 3.432
74.14000 2.223
74.16000 3.761
74.18000 8.183
74.20000 5.158
74.22000 4.589
74.24000 3.466
74.26000 6.373
74.28000 3.301
74.30000 1.462
74.32000 3.026
74.34000 -1.900
74.36000 0.492
74.38000 5.125
74.40000 2.974
74.42000 1.368
74.44000 2.953
74.46000 5.384
74.48000 4.337
74.50000 4.874
74.52000 4.821
74.54000 6.727
74.56000 6.726
74.58000 7.662
74.60000 11.266
74.62000 5.062
74.64000 2.749
74.66000 6.357
74.68000 5.918
74.70000 5.998
74.72000 2.331
74.74000 5.353
74.76000 4.371
74.78000 5.317
74.80000 4.946
74.82000 3.484
74.84000 1.734
74.86000 4.959
74.88000 -0.140
74.90000 2.936
74.92000 1.478
74.94000 -2.161
74.96000 0.673
74.98000 1.639
75.00000 4.285
75.02000 4.983
75.04000 1.475
75.06000 0.808
75.08000 -0.618
75.10000 -1.478
75.12000 -0.913
75.14000 2.959
75.16000 9.933
75.18000 6.697
75.20000 6.024
75.22000 6.979
75.24000 4.391
75.26000 3.895
75.28000 2.458
75.30000 4.229
75.32000 0.704
75.34000 0.064
75.36000 1.764
75.38000 4.612
75.40000 3.605
75.42000 4.172
75.44000 4.878
75.46000 3.555
75.48000 2.366
75.50000 3.241
75.52000 5.177
75.54000 0.894
75.56000 -1.483
75.58000 -0.585
75.60000 1.348
75.62000 0.790
75.64000 -0.095
75.66000 0.535
75.68000 2.366
75.70000 1.648
75.72000 0.226
75.74000 3.732
75.76000 5.302
75.78000 3.585
75.80000 3.836
75.82000 2.722
75.84000 3.424
75.86000 1.165
75.88000 -0.479
75.90000 0.457
75.92000 3.279
75.94000 7.169
75.96000 6.197
75.98000 1.232
76.00000 -2.209
76.02000 -0.419
76.04000 0.374
76.06000 5.144
76.08000 3.593
76.10000 2.512
76.12000 0.743
76.14000 2.269
76.16000 3.982
76.18000 1.274
76.20000 1.494
76.22000 1.806
76.24000 6.503
76.26000 2.770
76.28000 0.212
76.30000 0.123
76.32000 2.473
76.34000 3.951
76.36000 3.591
76.38000 4.859
76.40000 3.566
76.42000 -0.101
76.44000 3.314
76.46000 4.373
76.48000 4.995
76.50000 3.530
76.52000 2.153
76.54000 0.039
76.56000 -1.800
76.58000 -2.206
76.60000 -0.305
76.62000 3.175
76.64000 2.925
76.66000 0.971
76.68000 3.788
76.70000 1.257
76.72000 1.682
76.74000 2.314
76.76000 1.569
76.78000 2.712
76.80000 9.062
76.82000 10.912
76.84000 4.825
76.86000 4.160
76.88000 0.923
76.90000 0.691
76.92000 1.063
76.94000 0.912
76.96000 2.061
76.98000 0.771
77.00000 1.403
77.02000 0.495
77.04000 -0.384
77.06000 1.086
77.08000 4.023
77.10000 0.909
77.12000 0.326
77.14000 0.970
77.16000 2.525
77.18000 3.638
77.20000 0.279
77.22000 1.332
77.24000 3.393
77.26000 4.759
77.28000 1.106
77.30000 1.678
77.32000 2.943
77.34000 2.998
77.36000 1.021
77.38000 1.313
77.40000 4.484
77.42000 1.042
77.44000 3.195
77.46000 2.599
77.48000 1.289
77.50000 -0.520
77.52000 3.081
77.54000 2.191
77.56000 1.218
77.58000 -0.600
77.60000 1.763
77.62000 1.868
77.64000 1.003
77.66000 4.047
77.68000 2.913
77.70000 2.515
77.72000 2.249
77.74000 -0.504
77.76000 0.357
77.78000 2.805
77.80000 3.031
77.82000 4.400
77.84000 6.127
77.86000 7.383
77.88000 4.284
77.90000 1.867
77.92000 6.099
77.94000 4.459
77.96000 3.840
77.98000 1.023
78.00000 -0.607
78.02000 4.381
78.04000 7.772
78.06000 2.389
78.08000 -2.214
78.10000 1.137
78.12000 3.520
78.14000 5.114
78.16000 6.333
78.18000 5.302
78.20000 4.257
78.22000 6.959
78.24000 4.363
78.26000 4.910
78.28000 3.823
78.30000 2.971
78.32000 3.432
78.34000 2.851
78.36000 4.947
78.38000 3.065
78.40000 1.915
78.42000 3.646
78.44000 2.899
78.46000 0.815
78.48000 0.150
78.50000 -1.015
78.52000 0.417
78.54000 0.775
78.56000 5.260
78.58000 0.876
78.60000 1.872
78.62000 1.804
78.64000 2.106
78.66000 6.103
78.68000 3.696
78.70000 0.260
78.72000 2.624
78.74000 3.530
78.76000 0.391
78.78000 -1.123
78.80000 0.503
78.82000 -1.761
78.84000 0.579
78.86000 8.922
78.88000 7.250
78.90000 1.414
78.92000 0.492
78.94000 -1.617
78.96000 0.582
78.98000 -0.393
79.00000 -2.254
79.02000 3.167
79.04000 5.146
79.06000 5.125
79.08000 4.389
79.10000 3.653
79.12000 3.740
79.14000 1.883
79.16000 -0.088
79.18000 -1.272
79.20000 5.010
79.22000 8.076
79.24000 2.820
79.26000 -1.940
79.28000 1.405
79.30000 0.683
79.32000 1.220
79.34000 -0.172
79.36000 1.605
79.38000 3.625
79.40000 2.690
79.42000 0.574
79.44000 1.197
79.46000 -0.508
79.48000 1.946
79.50000 0.849
79.52000 -0.585
79.54000 0.755
79.56000 2.007
79.58000 5.886
79.60000 4.661
79.62000 2.933
79.64000 -0.519
79.66000 0.292
79.68000 -2.320
79.70000 -0.572
79.72000 0.050
79.74000 -0.928
79.76000 -0.013
79.78000 3.944
79.80000 2.827
79.82000 1.979
79.84000 -0.465
79.86000 0.200
79.88000 0.018
79.90000 2.875
79.92000 2.983
79.94000 4.494
79.96000 3.853
79.98000 6.314
80.00000 5.263
80.02000 1.093
80.04000 0.972
80.06000 1.270
80.08000 -0.309
80.10000 2.820
80.12000 0.645
80.14000 2.838
80.16000 4.437
80.18000 2.758
80.20000 6.019
80.22000 3.060
80.24000 -0.052
80.26000 -1.837
80.28000 0.765
80.30000 -0.099
80.32000 -1.691
80.34000 0.558
80.36000 2.193
80.38000 0.464
80.40000 3.605
80.42000 2.944
80.44000 3.029
80.46000 2.277
80.48000 3.064
80.50000 1.959
80.52000 -0.310
80.54000 3.118
80.56000 2.643
80.58000 4.658
80.60000 1.651
80.62000 3.052
80.64000 6.198
80.66000 -0.109
80.68000 2.376
80.70000 3.738
80.72000 3.008
80.74000 0.811
80.76000 1.045
80.78000 1.273
80.80000 2.755
80.82000 1.694
80.84000 1.759
80.86000 -1.021
80.88000 1.541
80.90000 3.398
80.92000 2.056
80.94000 6.688
80.96000 9.359
80.98000 7.885
81.00000 4.453
81.02000 5.594
81.04000 6.826
81.06000 5.115
81.08000 2.840
81.10000 3.501
81.12000 0.510
81.14000 8.046
81.16000 9.475
81.18000 6.315
81.20000 6.524
81.22000 8.458
81.24000 7.170
81.26000 7.191
81.28000 10.703
81.30000 9.276
81.32000 11.205
81.34000 8.689
81.36000 8.109
81.38000 9.737
81.40000 8.386
81.42000 12.048
81.44000 12.479
81.46000 12.411
81.48000 14.688
81.50000 15.361
81.52000 13.438
81.54000 13.220
81.56000 12.914
81.58000 9.701
81.60000 13.685
81.62000 16.204
81.64000 16.156
81.66000 17.140
81.68000 17.156
81.70000 19.948
81.72000 20.584
81.74000 18.287
81.76000 17.977
81.78000 18.035
81.80000 19.784
81.82000 23.116
81.84000 27.918
81.86000 25.522
81.88000 25.888
81.90000 25.340
81.92000 27.783
81.94000 26.175
81.96000 26.109
81.98000 26.640
82.00000 22.923
82.02000 25.525
82.04000 25.033
82.06000 29.483
82.08000 29.441
82.10000 28.757
82.12000 31.391
82.14000 32.404
82.16000 34.661
82.18000 31.287
82.20000 28.357
82.22000 32.686
82.24000 30.145
82.26000 28.764
82.28000 27.023
82.30000 26.268
82.32000 30.952
82.34000 30.790
82.36000 34.673
82.38000 32.895
82.40000 28.976
82.42000 36.623
82.44000 34.301
82.46000 30.508
82.48000 31.602
82.50000 31.982
82.52000 34.345
82.54000 30.255
82.56000 28.982
82.58000 32.058
82.60000 32.485
82.62000 29.569
82.64000 32.228
82.66000 32.014
82.68000 33.900
82.70000 37.831
82.72000 28.421
82.74000 29.007
82.76000 28.083
82.78000 30.753
82.80000 26.764
82.82000 27.641
82.84000 27.648
82.86000 22.901
82.88000 23.791
82.90000 20.393
82.92000 23.303
82.94000 21.016
82.96000 16.383
82.98000 16.233
83.00000 17.137
83.02000 20.389
83.04000 22.155
83.06000 14.400
83.08000 10.498
83.10000 11.599
83.12000 13.386
83.14000 11.237
83.16000 15.869
83.18000 12.221
83.20000 8.588
83.22000 8.828
83.24000 14.476
83.26000 13.409
83.28000 14.887
83.30000 13.680
83.32000 15.240
83.34000 13.803
83.36000 7.080
83.38000 10.152
83.40000 8.362
83.42000 5.669
83.44000 6.016
83.46000 7.435
83.48000 6.705
83.50000 5.152
83.52000 2.207
83.54000 3.749
83.56000 4.265
83.58000 9.399
83.60000 6.066
83.62000 7.276
83.64000 2.709
83.66000 1.762
83.68000 2.388
83.70000 4.299
83.72000 5.660
83.74000 9.927
83.76000 2.319
83.78000 0.315
83.80000 5.726
83.82000 6.388
83.84000 5.715
83.86000 3.405
83.88000 2.487
83.90000 6.231
83.92000 1.523
83.94000 -2.133
83.96000 2.318
83.98000 3.599
84.00000 2.068
84.02000 0.449
84.04000 1.359
84.06000 0.458
84.08000 2.943
84.10000 4.058
84.12000 1.575
84.14000 1.251
84.16000 -0.516
84.18000 1.380
84.20000 5.366
84.22000 3.836
84.24000 3.163
84.26000 5.641
84.28000 -0.974
84.30000 -2.340
84.32000 1.308
84.34000 2.386
84.36000 2.061
84.38000 0.659
84.40000 -2.337
84.42000 -1.039
84.44000 3.355
84.46000 3.381
84.48000 7.539
84.50000 3.817
84.52000 -0.849
84.54000 3.400
84.56000 6.895
84.58000 2.636
84.60000 0.060
84.62000 0.921
84.64000 3.269
84.66000 3.013
84.68000 0.860
84.70000 0.277
84.72000 2.083
84.74000 0.955
84.76000 2.419
84.78000 -1.132
84.80000 -1.271
84.82000 -0.719
84.84000 2.468
84.86000 2.584
84.88000 3.289
84.90000 2.579
84.92000 0.382
84.94000 3.677
84.96000 7.584
84.98000 7.963
85.00000 4.269
85.02000 -1.690
85.04000 -2.335
85.06000 5.579
85.08000 4.607
85.10000 3.436
85.12000 6.674
85.14000 8.483
85.16000 6.504
85.18000 3.598
85.20000 5.747
85.22000 3.041
85.24000 0.348
85.26000 -1.105
85.28000 4.311
85.30000 1.812
85.32000 2.406
85.34000 3.408
85.36000 7.761
85.38000 4.115
85.40000 4.601
85.42000 6.747
85.44000 1.199
85.46000 0.166
85.48000 5.312
85.50000 7.820
85.52000 7.462
85.54000 5.128
85.56000 8.800
85.58000 7.433
85.60000 8.402
85.62000 7.707
85.64000 8.728
85.66000 9.102
85.68000 6.898
85.70000 5.923
85.72000 10.598
85.74000 8.229
85.76000 8.395
85.78000 13.140
85.80000 11.973
85.82000 10.061
85.84000 13.753
85.86000 14.202
85.88000 13.714
85.90000 12.386
85.92000 16.133
85.94000 14.163
85.96000 11.637
85.98000 13.674
86.00000 13.514
86.02000 15.051
86.04000 17.254
86.06000 20.961
86.08000 18.519
86.10000 22.148
86.12000 20.959
86.14000 23.072
86.16000 25.161
86.18000 24.583
86.20000 22.772
86.22000 27.377
86.24000 28.409
86.26000 33.560
86.28000 34.096
86.30000 29.377
86.32000 28.753
86.34000 32.370
86.36000 29.778
86.38000 25.368
86.40000 26.022
86.42000 32.275
86.44000 34.970
86.46000 28.275
86.48000 30.014
86.50000 28.569
86.52000 33.609
86.54000 30.695
86.56000 27.131
86.58000 29.335
86.60000 31.997
86.62000 27.874
86.64000 26.978
86.66000 27.801
86.68000 24.704
86.70000 24.222
86.72000 28.738
86.74000 27.513
86.76000 30.671
86.78000 30.637
86.80000 27.795
86.82000 30.754
86.84000 25.718
86.86000 26.130
86.88000 24.537
86.90000 27.144
86.92000 21.453
86.94000 20.535
86.96000 17.687
86.98000 17.157
87.00000 20.989
87.02000 20.529
87.04000 20.926
87.06000 19.156
87.08000 17.549
87.10000 15.545
87.12000 19.881
87.14000 23.356
87.16000 18.773
87.18000 14.551
87.20000 16.194
87.22000 16.594
87.24000 18.509
87.26000 15.000
87.28000 14.125
87.30000 10.058
87.32000 10.146
87.34000 9.464
87.36000 11.134
87.38000 15.957
87.40000 14.656
87.42000 11.494
87.44000 11.551
87.46000 11.600
87.48000 13.759
87.50000 7.893
87.52000 9.297
87.54000 11.479
87.56000 16.077
87.58000 15.191
87.60000 9.320
87.62000 5.369
87.64000 9.010
87.66000 9.039
87.68000 8.582
87.70000 5.596
87.72000 2.508
87.74000 3.314
87.76000 9.834
87.78000 9.046
87.80000 7.771
87.82000 8.706
87.84000 8.310
87.86000 9.465
87.88000 11.223
87.90000 12.636
87.92000 8.518
87.94000 7.612
87.96000 9.153
87.98000 5.237
88.00000 3.224
88.02000 4.546
88.04000 5.300
88.06000 4.395
88.08000 5.011
88.10000 7.532
88.12000 11.169
88.14000 8.942
88.16000 4.978
88.18000 7.509
88.20000 9.493
88.22000 8.001
88.24000 6.682
88.26000 5.637
88.28000 7.384
88.30000 7.665
88.32000 10.383
88.34000 7.335
88.36000 2.574
88.38000 4.157
88.40000 5.418
88.42000 0.394
88.44000 -2.033
88.46000 3.675
88.48000 6.561
88.50000 6.612
88.52000 5.390
88.54000 6.944
88.56000 9.001
88.58000 8.272
88.60000 8.099
88.62000 6.847
88.64000 7.441
88.66000 4.270
88.68000 2.303
88.70000 5.033
88.72000 2.928
88.74000 7.501
88.76000 8.031
88.78000 2.897
88.80000 1.892
88.82000 -1.236
88.84000 2.405
88.86000 3.932
88.88000 9.929
88.90000 9.254
88.92000 6.474
88.94000 4.927
88.96000 3.365
88.98000 1.159
89.00000 2.113
89.02000 2.879
89.04000 2.812
89.06000 3.916
89.08000 7.162
89.10000 8.930
89.12000 3.135
89.14000 2.730
89.16000 1.829
89.18000 3.958
89.20000 3.034
89.22000 6.746
89.24000 5.587
89.26000 4.077
89.28000 5.827
89.30000 5.982
89.32000 0.579
89.34000 3.477
89.36000 5.632
89.38000 1.671
89.40000 0.761
89.42000 5.768
89.44000 6.096
89.46000 2.871
89.48000 0.355
89.50000 -0.351
89.52000 1.602
89.54000 4.385
89.56000 6.178
89.58000 1.795
89.60000 4.493
89.62000 4.021
89.64000 -0.776
89.66000 -1.124
89.68000 -0.332
89.70000 1.519
89.72000 1.528
89.74000 1.759
89.76000 -2.073
89.78000 0.833
89.80000 1.428
89.82000 3.333
89.84000 4.798
89.86000 3.675
89.88000 2.845
89.90000 2.710
89.92000 3.551
89.94000 3.695
89.96000 4.777
89.98000 3.750
90.00000 3.084
90.02000 4.056
90.04000 4.004
90.06000 3.679
90.08000 6.344
90.10000 4.548
90.12000 4.184
90.14000 4.446
90.16000 3.809
90.18000 1.426
90.20000 2.672
90.22000 3.297
90.24000 4.593
90.26000 3.246
90.28000 0.593
90.30000 5.512
90.32000 5.349
90.34000 3.016
90.36000 4.748
90.38000 6.213
90.40000 1.297
90.42000 1.398
90.44000 5.577
90.46000 7.774
90.48000 8.644
90.50000 9.213
90.52000 4.565
90.54000 3.935
90.56000 4.195
90.58000 0.296
90.60000 -0.201
90.62000 1.813
90.64000 2.244
90.66000 1.942
90.68000 -1.562
90.70000 4.112
90.72000 7.306
90.74000 2.721
90.76000 4.982
90.78000 4.317
90.80000 4.079
90.82000 4.221
90.84000 4.260
90.86000 7.212
90.88000 7.289
90.90000 2.988
90.92000 1.767
90.94000 3.055
90.96000 2.947
90.98000 1.283
91.00000 6.423
91.02000 7.924
91.04000 8.465
91.06000 6.246
91.08000 6.636
91.10000 6.698
91.12000 8.721
91.14000 4.437
91.16000 3.356
91.18000 4.599
91.20000 3.072
91.22000 1.059
91.24000 -2.000
91.26000 0.954
91.28000 5.088
91.30000 9.665
91.32000 11.111
91.34000 8.842
91.36000 6.560
91.38000 8.529
91.40000 8.968
91.42000 5.287
91.44000 1.450
91.46000 4.524
91.48000 5.567
91.50000 6.476
91.52000 7.507
91.54000 2.915
91.56000 3.868
91.58000 3.122
91.60000 5.222
91.62000 2.411
91.64000 5.857
91.66000 3.380
91.68000 2.041
91.70000 6.168
91.72000 4.043
91.74000 3.857
91.76000 4.685
91.78000 6.189
91.80000 5.808
91.82000 7.109
91.84000 7.962
91.86000 6.248
91.88000 5.277
91.90000 3.148
91.92000 0.415
91.94000 4.371
91.96000 2.413
91.98000 -2.047
92.00000 4.625
92.02000 5.433
92.04000 5.294
92.06000 4.887
92.08000 4.391
92.10000 0.418
92.12000 -0.201
92.14000 4.162
92.16000 0.300
92.18000 2.653
92.20000 1.448
92.22000 3.991
92.24000 5.041
92.26000 4.448
92.28000 3.304
92.30000 3.668
92.32000 4.523
92.34000 1.725
92.36000 4.365
92.38000 2.472
92.40000 0.917
92.42000 0.747
92.44000 0.934
92.46000 3.033
92.48000 3.799
92.50000 3.451
92.52000 3.822
92.54000 0.353
92.56000 4.066
92.58000 3.541
92.60000 0.282
92.62000 -1.985
92.64000 -1.183
92.66000 1.527
92.68000 3.622
92.70000 3.729
92.72000 2.738
92.74000 1.133
92.76000 5.296
92.78000 3.478
92.80000 5.363
92.82000 2.301
92.84000 0.380
92.86000 0.541
92.88000 -2.073
92.90000 0.584
92.92000 -0.919
92.94000 1.210
92.96000 2.142
92.98000 2.453
93.00000 2.629
93.02000 0.739
93.04000 1.983
93.06000 0.850
93.08000 2.794
93.10000 2.457
93.12000 -0.167
93.14000 0.508
93.16000 0.403
93.18000 3.295
93.20000 1.653
93.22000 -1.345
93.24000 2.602
93.26000 2.703
93.28000 4.154
93.30000 9.080
93.32000 5.595
93.34000 0.573
93.36000 3.646
93.38000 5.577
93.40000 2.473
93.42000 0.952
93.44000 4.610
93.46000 0.653
93.48000 1.326
93.50000 3.201
93.52000 3.528
93.54000 -0.084
93.56000 1.112
93.58000 2.429
93.60000 2.104
93.62000 4.583
93.64000 6.896
93.66000 5.189
93.68000 -0.358
93.70000 1.829
93.72000 2.656
93.74000 2.093
93.76000 0.413
93.78000 5.836
93.80000 6.399
93.82000 4.792
93.84000 2.829
93.86000 -0.986
93.88000 -2.103
93.90000 2.138
93.92000 4.561
93.94000 3.665
93.96000 0.216
93.98000 2.616
94.00000 5.239
94.02000 0.269
94.04000 2.481
94.06000 2.714
94.08000 0.926
94.10000 2.584
94.12000 -0.255
94.14000 -0.070
94.16000 2.572
94.18000 3.133
94.20000 3.939
94.22000 0.887
94.24000 1.189
94.26000 1.125
94.28000 0.069
94.30000 4.761
94.32000 3.888
94.34000 5.976
94.36000 0.829
94.38000 1.859
94.40000 -1.215
94.42000 3.426
94.44000 6.792
94.46000 5.529
94.48000 1.023
94.50000 -1.593
94.52000 1.163
94.54000 0.000
94.56000 0.518
94.58000 0.516
94.60000 4.256
94.62000 2.654
94.64000 5.681
94.66000 3.537
94.68000 -0.514
94.70000 2.685
94.72000 2.996
94.74000 7.188
94.76000 7.977
94.78000 0.356
94.80000 0.823
94.82000 -0.367
94.84000 -2.101
94.86000 0.516
94.88000 4.650
94.90000 4.109
94.92000 4.120
94.94000 0.523
94.96000 -1.501
94.98000 -2.099
95.00000 3.571
95.02000 6.811
95.04000 -0.726
95.06000 -0.606
95.08000 1.194
95.10000 5.495
95.12000 7.664
95.14000 8.993
95.16000 6.066
95.18000 2.644
95.20000 2.249
95.22000 3.190
95.24000 2.537
95.26000 2.313
95.28000 0.969
95.30000 1.978
95.32000 5.100
95.34000 6.639
95.36000 2.630
95.38000 4.656
95.40000 4.824
95.42000 4.327
95.44000 2.549
95.46000 1.284
95.48000 1.010
95.50000 -0.524
95.52000 -2.115
95.54000 -0.039
95.56000 1.145
95.58000 1.561
95.60000 5.641
95.62000 5.574
95.64000 4.888
95.66000 2.067
95.68000 3.026
95.70000 3.420
95.72000 6.673
95.74000 4.046
95.76000 3.290
95.78000 9.996
95.80000 8.202
95.82000 5.375
95.84000 1.367
95.86000 4.729
95.88000 3.977
95.90000 3.078
95.92000 0.217
95.94000 -1.981
95.96000 -0.318
95.98000 1.415
96.00000 0.193
96.02000 2.142
96.04000 0.260
96.06000 0.160
96.08000 -0.310
96.10000 2.637
96.12000 3.136
96.14000 4.535
96.16000 3.538
96.18000 5.224
96.20000 6.095
96.22000 3.179
96.24000 3.046
96.26000 3.479
96.28000 4.657
96.30000 1.073
96.32000 -2.103
96.34000 5.809
96.36000 6.153
96.38000 4.303
96.40000 3.968
96.42000 2.734
96.44000 1.489
96.46000 0.271
96.48000 0.190
96.50000 -0.272
96.52000 0.689
96.54000 1.190
96.56000 1.909
96.58000 1.489
96.60000 8.155
96.62000 8.775
96.64000 3.675
96.66000 7.156
96.68000 0.711
96.70000 2.887
96.72000 3.009
96.74000 2.645
96.76000 -0.258
96.78000 -2.085
96.80000 6.520
96.82000 7.147
96.84000 0.299
96.86000 -0.553
96.88000 0.203
96.90000 3.445
96.92000 6.986
96.94000 5.819
96.96000 8.417
96.98000 0.617
97.00000 2.743
97.02000 5.909
97.04000 4.545
97.06000 0.217
97.08000 3.847
97.10000 -0.204
97.12000 -1.337
97.14000 1.770
97.16000 0.626
97.18000 1.182
97.20000 4.030
97.22000 4.823
97.24000 2.146
97.26000 4.442
97.28000 7.646
97.30000 2.097
97.32000 1.244
97.34000 -0.996
97.36000 1.626
97.38000 2.114
97.40000 7.855
97.42000 7.011
97.44000 1.761
97.46000 8.801
97.48000 3.950
97.50000 2.372
97.52000 4.785
97.54000 7.655
97.56000 10.912
97.58000 10.365
97.60000 6.781
97.62000 6.590
97.64000 6.683
97.66000 5.718
97.68000 0.908
97.70000 -2.032
97.72000 6.654
97.74000 10.595
97.76000 6.964
97.78000 4.200
97.80000 2.826
97.82000 2.229
97.84000 0.917
97.86000 2.646
97.88000 -0.455
97.90000 8.103
97.92000 5.589
97.94000 3.238
97.96000 2.531
97.98000 3.232
98.00000 0.657
98.02000 6.549
98.04000 3.923
98.06000 4.432
98.08000 3.623
98.10000 7.192
98.12000 2.937
98.14000 0.865
98.16000 8.967
98.18000 6.704
98.20000 7.757
98.22000 11.206
98.24000 7.049
98.26000 6.392
98.28000 2.594
98.30000 0.356
98.32000 2.106
98.34000 2.450
98.36000 6.241
98.38000 -1.729
98.40000 2.500
98.42000 4.151
98.44000 1.798
98.46000 2.594
98.48000 -1.477
98.50000 3.649
98.52000 6.672
98.54000 8.039
98.56000 5.349
98.58000 2.843
98.60000 5.212
98.62000 8.011
98.64000 4.794
98.66000 2.294
98.68000 1.343
98.70000 8.297
98.72000 0.880
98.74000 -0.032
98.76000 4.941
98.78000 4.395
98.80000 0.201
98.82000 0.218
98.84000 8.988
98.86000 7.240
98.88000 5.874
98.90000 6.955
98.92000 9.525
98.94000 7.884
98.96000 1.571
98.98000 -1.305
99.00000 0.684
99.02000 -2.006
99.04000 8.690
99.06000 13.418
99.08000 8.770
99.10000 8.660
99.12000 3.802
99.14000 1.763
99.16000 6.755
99.18000 7.561
99.20000 5.539
99.22000 -1.852
99.24000 -0.656
99.26000 -1.102
99.28000 -0.082
99.30000 4.710
99.32000 7.593
99.34000 13.303
99.36000 5.324
99.38000 -0.864
99.40000 -1.200
99.42000 1.728
99.44000 10.211
99.46000 8.155
99.48000 7.084
99.50000 9.994
99.52000 10.551
99.54000 0.463
99.56000 0.979
99.58000 0.329
99.60000 5.739
99.62000 8.056
99.64000 2.769
99.66000 1.056
99.68000 -2.037
99.70000 9.150
99.72000 7.301
99.74000 5.869
99.76000 -2.044
99.78000 2.883
99.80000 6.782
99.82000 4.253
99.84000 2.473
99.86000 4.746
99.88000 6.803
99.90000 8.899
99.92000 5.594
99.94000 2.261
99.96000 -2.070
99.98000 0.000
