'Id: "0011387" Comment: "Integrate frame 0011387_Au-Ir-Rh_Rh-rich_XRD-Mapping-336-0000.gfrmwith cursor Wedge Cursor #5" Operator: "B?rgel" Anode: "Cu" Wavelength: "1.5406" Scantype: "2Theta (TwoTheta)" TimePerStep: "1" X: "-9" Y: "45" Z: "5.95" 
10.00000 0.000
10.02000 -4.514
10.04000 0.916
10.06000 11.549
10.08000 13.273
10.10000 13.083
10.12000 17.336
10.14000 15.010
10.16000 12.097
10.18000 0.269
10.20000 12.591
10.22000 8.163
10.24000 9.460
10.26000 21.198
10.28000 14.769
10.30000 8.476
10.32000 11.270
10.34000 2.182
10.36000 -4.156
10.38000 6.101
10.40000 1.640
10.42000 23.405
10.44000 16.441
10.46000 8.143
10.48000 2.542
10.50000 5.310
10.52000 24.816
10.54000 12.120
10.56000 -4.482
10.58000 6.860
10.60000 17.704
10.62000 -3.839
10.64000 2.300
10.66000 15.133
10.68000 21.134
10.70000 6.727
10.72000 10.607
10.74000 26.295
10.76000 8.451
10.78000 4.091
10.80000 11.026
10.82000 22.891
10.84000 6.437
10.86000 2.446
10.88000 11.496
10.90000 7.301
10.92000 15.581
10.94000 21.244
10.96000 22.040
10.98000 10.325
11.00000 6.195
11.02000 10.156
11.04000 19.026
11.06000 24.899
11.08000 27.861
11.10000 29.690
11.12000 16.542
11.14000 7.866
11.16000 5.586
11.18000 22.621
11.20000 19.960
11.22000 20.971
11.24000 16.115
11.26000 12.170
11.28000 4.949
11.30000 5.102
11.32000 9.690
11.34000 12.142
11.36000 11.149
11.38000 12.860
11.40000 -2.218
11.42000 1.609
11.44000 9.936
11.46000 8.865
11.48000 23.653
11.50000 20.384
11.52000 8.819
11.54000 11.392
11.56000 8.718
11.58000 8.131
11.60000 12.117
11.62000 13.152
11.64000 8.607
11.66000 10.257
11.68000 12.296
11.70000 24.371
11.72000 7.849
11.74000 5.974
11.76000 4.008
11.78000 0.551
11.80000 13.587
11.82000 7.731
11.84000 5.630
11.86000 12.051
11.88000 16.124
11.90000 9.859
11.92000 13.426
11.94000 25.420
11.96000 18.196
11.98000 9.212
12.00000 12.064
12.02000 9.834
12.04000 -4.518
12.06000 4.302
12.08000 6.164
12.10000 1.287
12.12000 10.238
12.14000 13.171
12.16000 16.098
12.18000 14.864
12.20000 15.714
12.22000 20.102
12.24000 14.564
12.26000 7.168
12.28000 6.030
12.30000 6.625
12.32000 8.794
12.34000 1.196
12.36000 -2.014
12.38000 -0.928
12.40000 11.131
12.42000 17.797
12.44000 20.184
12.46000 16.616
12.48000 10.410
12.50000 12.144
12.52000 4.454
12.54000 14.056
12.56000 15.314
12.58000 22.030
12.60000 24.350
12.62000 18.099
12.64000 28.204
12.66000 19.942
12.68000 13.717
12.70000 9.378
12.72000 13.134
12.74000 -0.132
12.76000 -4.534
12.78000 9.715
12.80000 8.534
12.82000 20.044
12.84000 15.480
12.86000 16.276
12.88000 29.746
12.90000 22.473
12.92000 11.389
12.94000 6.236
12.96000 6.213
12.98000 20.144
13.00000 20.500
13.02000 13.261
13.04000 11.285
13.06000 6.809
13.08000 10.881
13.10000 6.328
13.12000 4.939
13.14000 8.723
13.16000 10.423
13.18000 7.288
13.20000 -0.321
13.22000 10.302
13.24000 1.569
13.26000 5.369
13.28000 0.535
13.30000 1.288
13.32000 9.276
13.34000 17.270
13.36000 4.478
13.38000 -0.824
13.40000 6.003
13.42000 12.571
13.44000 14.867
13.46000 -1.622
13.48000 -1.343
13.50000 0.507
13.52000 7.333
13.54000 8.886
13.56000 6.685
13.58000 7.872
13.60000 -2.214
13.62000 -3.306
13.64000 -1.689
13.66000 -3.207
13.68000 2.299
13.70000 8.810
13.72000 15.049
13.74000 22.968
13.76000 20.630
13.78000 12.292
13.80000 -3.489
13.82000 -0.149
13.84000 3.744
13.86000 0.464
13.88000 7.840
13.90000 16.064
13.92000 11.413
13.94000 18.280
13.96000 10.721
13.98000 1.146
14.00000 -2.435
14.02000 -1.753
14.04000 4.934
14.06000 8.230
14.08000 7.044
14.10000 2.429
14.12000 -1.636
14.14000 4.972
14.16000 10.345
14.18000 11.641
14.20000 10.937
14.22000 5.190
14.24000 11.002
14.26000 10.237
14.28000 7.884
14.30000 11.902
14.32000 10.567
14.34000 -0.807
14.36000 -3.101
14.38000 5.770
14.40000 4.367
14.42000 1.370
14.44000 13.459
14.46000 13.083
14.48000 8.945
14.50000 12.770
14.52000 11.449
14.54000 7.947
14.56000 6.907
14.58000 4.600
14.60000 1.818
14.62000 7.711
14.64000 11.024
14.66000 11.882
14.68000 10.893
14.70000 7.126
14.72000 7.569
14.74000 15.502
14.76000 18.645
14.78000 4.364
14.80000 11.928
14.82000 8.883
14.84000 -4.435
14.86000 2.127
14.88000 3.170
14.90000 5.562
14.92000 12.572
14.94000 10.844
14.96000 6.949
14.98000 6.984
15.00000 7.424
15.02000 3.109
15.04000 6.288
15.06000 9.159
15.08000 0.387
15.10000 2.717
15.12000 9.460
15.14000 7.914
15.16000 -1.493
15.18000 0.509
15.20000 8.046
15.22000 0.988
15.24000 6.297
15.26000 -0.721
15.28000 0.783
15.30000 3.404
15.32000 9.911
15.34000 9.945
15.36000 10.651
15.38000 1.473
15.40000 2.961
15.42000 2.030
15.44000 0.949
15.46000 -3.129
15.48000 1.713
15.50000 15.917
15.52000 10.001
15.54000 1.719
15.56000 9.173
15.58000 7.530
15.60000 5.913
15.62000 8.316
15.64000 13.419
15.66000 11.050
15.68000 1.983
15.70000 4.297
15.72000 10.993
15.74000 6.473
15.76000 3.460
15.78000 2.007
15.80000 -4.478
15.82000 -3.333
15.84000 5.268
15.86000 1.923
15.88000 -1.540
15.90000 1.421
15.92000 6.090
15.94000 7.431
15.96000 6.924
15.98000 10.897
16.00000 3.900
16.02000 4.120
16.04000 5.307
16.06000 2.984
16.08000 -4.468
16.10000 -1.874
16.12000 4.700
16.14000 4.363
16.16000 -1.733
16.18000 0.996
16.20000 3.042
16.22000 4.199
16.24000 4.401
16.26000 7.040
16.28000 5.547
16.30000 3.715
16.32000 7.145
16.34000 8.077
16.36000 6.641
16.38000 11.927
16.40000 7.725
16.42000 3.701
16.44000 11.559
16.46000 11.841
16.48000 11.704
16.50000 9.990
16.52000 8.211
16.54000 2.484
16.56000 13.884
16.58000 20.425
16.60000 7.979
16.62000 7.910
16.64000 7.746
16.66000 4.046
16.68000 9.421
16.70000 18.553
16.72000 12.509
16.74000 6.060
16.76000 9.420
16.78000 14.454
16.80000 9.718
16.82000 -1.539
16.84000 3.955
16.86000 10.694
16.88000 4.604
16.90000 5.813
16.92000 8.246
16.94000 9.306
16.96000 5.628
16.98000 -2.123
17.00000 1.283
17.02000 -0.782
17.04000 0.538
17.06000 1.776
17.08000 13.234
17.10000 10.285
17.12000 10.428
17.14000 3.692
17.16000 2.630
17.18000 4.674
17.20000 9.910
17.22000 4.179
17.24000 4.819
17.26000 4.306
17.28000 8.856
17.30000 9.317
17.32000 7.420
17.34000 14.033
17.36000 11.260
17.38000 7.725
17.40000 5.857
17.42000 6.911
17.44000 12.726
17.46000 13.123
17.48000 7.152
17.50000 11.098
17.52000 13.006
17.54000 5.559
17.56000 8.204
17.58000 15.227
17.60000 7.572
17.62000 13.704
17.64000 10.383
17.66000 4.597
17.68000 7.509
17.70000 8.838
17.72000 8.975
17.74000 9.833
17.76000 18.600
17.78000 18.432
17.80000 0.919
17.82000 -1.693
17.84000 6.386
17.86000 12.148
17.88000 11.416
17.90000 2.574
17.92000 -4.339
17.94000 2.846
17.96000 7.391
17.98000 3.584
18.00000 5.025
18.02000 9.750
18.04000 12.750
18.06000 4.086
18.08000 5.579
18.10000 9.899
18.12000 16.228
18.14000 15.121
18.16000 8.575
18.18000 0.073
18.20000 9.642
18.22000 13.489
18.24000 5.159
18.26000 8.683
18.28000 2.807
18.30000 5.176
18.32000 3.750
18.34000 1.515
18.36000 3.525
18.38000 8.393
18.40000 8.514
18.42000 11.726
18.44000 13.434
18.46000 5.592
18.48000 6.506
18.50000 4.345
18.52000 5.852
18.54000 4.059
18.56000 12.695
18.58000 16.132
18.60000 7.341
18.62000 0.273
18.64000 3.582
18.66000 4.806
18.68000 10.838
18.70000 12.062
18.72000 10.246
18.74000 7.878
18.76000 6.453
18.78000 7.865
18.80000 -0.017
18.82000 1.094
18.84000 4.907
18.86000 7.312
18.88000 15.030
18.90000 14.087
18.92000 7.465
18.94000 3.502
18.96000 -0.354
18.98000 0.404
19.00000 2.980
19.02000 5.231
19.04000 3.308
19.06000 3.542
19.08000 5.022
19.10000 5.435
19.12000 1.297
19.14000 1.173
19.16000 2.121
19.18000 2.796
19.20000 3.200
19.22000 -1.230
19.24000 -0.859
19.26000 -0.668
19.28000 4.264
19.30000 4.313
19.32000 5.528
19.34000 3.978
19.36000 -4.072
19.38000 3.317
19.40000 2.381
19.42000 3.057
19.44000 3.787
19.46000 1.082
19.48000 2.667
19.50000 8.004
19.52000 14.774
19.54000 11.013
19.56000 3.929
19.58000 7.123
19.60000 11.360
19.62000 3.382
19.64000 -1.311
19.66000 2.073
19.68000 4.888
19.70000 5.051
19.72000 7.031
19.74000 9.887
19.76000 6.207
19.78000 7.726
19.80000 9.411
19.82000 8.949
19.84000 -4.171
19.86000 -3.105
19.88000 9.149
19.90000 5.517
19.92000 1.485
19.94000 1.442
19.96000 4.788
19.98000 2.789
20.00000 4.800
20.02000 3.033
20.04000 1.912
20.06000 4.582
20.08000 8.462
20.10000 7.733
20.12000 4.923
20.14000 2.062
20.16000 0.235
20.18000 -0.106
20.20000 4.403
20.22000 4.414
20.24000 5.013
20.26000 5.391
20.28000 10.596
20.30000 6.996
20.32000 7.381
20.34000 5.688
20.36000 6.801
20.38000 5.100
20.40000 -0.943
20.42000 -4.232
20.44000 1.541
20.46000 -3.724
20.48000 -4.011
20.50000 -0.704
20.52000 1.063
20.54000 5.750
20.56000 5.396
20.58000 8.231
20.60000 3.633
20.62000 3.779
20.64000 8.134
20.66000 4.050
20.68000 4.576
20.70000 11.498
20.72000 4.057
20.74000 1.515
20.76000 3.694
20.78000 12.114
20.80000 7.582
20.82000 4.679
20.84000 -0.826
20.86000 5.412
20.88000 10.941
20.90000 2.755
20.92000 5.722
20.94000 1.878
20.96000 7.514
20.98000 4.075
21.00000 8.380
21.02000 2.585
21.04000 4.210
21.06000 9.319
21.08000 9.220
21.10000 6.620
21.12000 4.672
21.14000 5.220
21.16000 5.279
21.18000 9.509
21.20000 11.074
21.22000 6.824
21.24000 4.253
21.26000 -3.348
21.28000 -4.223
21.30000 -3.116
21.32000 -1.779
21.34000 1.687
21.36000 1.002
21.38000 2.048
21.40000 7.766
21.42000 1.043
21.44000 0.090
21.46000 -1.219
21.48000 6.257
21.50000 10.890
21.52000 1.662
21.54000 3.675
21.56000 2.246
21.58000 0.579
21.60000 1.278
21.62000 4.063
21.64000 6.806
21.66000 6.221
21.68000 -0.991
21.70000 2.212
21.72000 -1.189
21.74000 -0.457
21.76000 8.487
21.78000 2.035
21.80000 1.742
21.82000 -1.378
21.84000 -3.377
21.86000 2.656
21.88000 -2.168
21.90000 3.009
21.92000 3.526
21.94000 -0.244
21.96000 -2.760
21.98000 -3.630
22.00000 -0.196
22.02000 1.721
22.04000 1.112
22.06000 3.717
22.08000 -0.355
22.10000 3.334
22.12000 0.787
22.14000 -1.040
22.16000 2.829
22.18000 -0.172
22.20000 -4.179
22.22000 3.773
22.24000 0.828
22.26000 -0.047
22.28000 0.990
22.30000 2.986
22.32000 3.752
22.34000 2.848
22.36000 3.715
22.38000 1.399
22.40000 2.806
22.42000 2.097
22.44000 -1.043
22.46000 -0.382
22.48000 0.292
22.50000 2.283
22.52000 5.619
22.54000 6.981
22.56000 5.431
22.58000 -0.555
22.60000 -2.183
22.62000 -1.823
22.64000 3.371
22.66000 0.628
22.68000 0.783
22.70000 4.665
22.72000 0.597
22.74000 5.364
22.76000 5.909
22.78000 6.561
22.80000 1.078
22.82000 -3.401
22.84000 -2.032
22.86000 3.022
22.88000 4.992
22.90000 1.356
22.92000 -2.773
22.94000 -1.194
22.96000 0.646
22.98000 3.693
23.00000 6.572
23.02000 -1.599
23.04000 0.726
23.06000 4.835
23.08000 3.608
23.10000 -0.320
23.12000 -0.556
23.14000 0.615
23.16000 4.435
23.18000 8.643
23.20000 0.444
23.22000 -4.105
23.24000 -1.845
23.26000 5.364
23.28000 3.873
23.30000 0.131
23.32000 0.370
23.34000 4.179
23.36000 9.180
23.38000 6.022
23.40000 1.605
23.42000 -0.591
23.44000 1.208
23.46000 4.125
23.48000 3.214
23.50000 0.074
23.52000 3.231
23.54000 9.152
23.56000 4.834
23.58000 6.155
23.60000 6.981
23.62000 6.699
23.64000 8.664
23.66000 5.726
23.68000 2.347
23.70000 1.709
23.72000 4.044
23.74000 9.851
23.76000 8.312
23.78000 5.915
23.80000 10.604
23.82000 7.019
23.84000 -1.455
23.86000 -4.048
23.88000 -2.525
23.90000 2.966
23.92000 10.836
23.94000 10.175
23.96000 7.929
23.98000 7.718
24.00000 1.588
24.02000 3.692
24.04000 8.843
24.06000 6.719
24.08000 7.831
24.10000 7.363
24.12000 5.649
24.14000 4.767
24.16000 5.046
24.18000 3.808
24.20000 3.230
24.22000 -0.618
24.24000 3.066
24.26000 5.701
24.28000 -0.767
24.30000 1.084
24.32000 7.001
24.34000 5.093
24.36000 4.072
24.38000 8.121
24.40000 7.095
24.42000 3.537
24.44000 -0.218
24.46000 -1.615
24.48000 -3.976
24.50000 -1.399
24.52000 -0.654
24.54000 5.538
24.56000 3.094
24.58000 3.667
24.60000 5.310
24.62000 0.346
24.64000 -0.429
24.66000 0.699
24.68000 2.334
24.70000 4.496
24.72000 4.632
24.74000 4.859
24.76000 6.890
24.78000 3.489
24.80000 1.961
24.82000 -1.875
24.84000 4.766
24.86000 5.007
24.88000 4.536
24.90000 7.650
24.92000 5.935
24.94000 1.461
24.96000 -2.763
24.98000 1.060
25.00000 2.201
25.02000 3.442
25.04000 8.498
25.06000 1.836
25.08000 5.416
25.10000 7.891
25.12000 8.836
25.14000 5.702
25.16000 5.497
25.18000 2.489
25.20000 0.945
25.22000 3.961
25.24000 10.044
25.26000 0.485
25.28000 -3.969
25.30000 5.996
25.32000 17.615
25.34000 8.292
25.36000 2.420
25.38000 1.068
25.40000 6.000
25.42000 8.422
25.44000 7.709
25.46000 4.702
25.48000 7.099
25.50000 10.437
25.52000 10.898
25.54000 7.752
25.56000 6.737
25.58000 5.651
25.60000 5.064
25.62000 1.314
25.64000 0.607
25.66000 1.432
25.68000 3.895
25.70000 -0.894
25.72000 -3.951
25.74000 7.054
25.76000 12.513
25.78000 6.307
25.80000 3.149
25.82000 -2.343
25.84000 4.721
25.86000 3.845
25.88000 -0.028
25.90000 -3.943
25.92000 0.260
25.94000 2.430
25.96000 1.165
25.98000 -1.602
26.00000 -0.196
26.02000 4.766
26.04000 7.328
26.06000 -1.325
26.08000 -0.033
26.10000 1.572
26.12000 3.262
26.14000 -2.450
26.16000 3.319
26.18000 8.455
26.20000 11.201
26.22000 3.490
26.24000 6.757
26.26000 7.390
26.28000 2.956
26.30000 1.890
26.32000 -0.462
26.34000 -2.770
26.36000 3.260
26.38000 3.155
26.40000 1.524
26.42000 -0.902
26.44000 0.180
26.46000 2.279
26.48000 1.258
26.50000 2.076
26.52000 4.685
26.54000 0.967
26.56000 -1.570
26.58000 7.416
26.60000 12.938
26.62000 6.952
26.64000 1.532
26.66000 -0.722
26.68000 -0.016
26.70000 -0.139
26.72000 1.759
26.74000 0.111
26.76000 -0.203
26.78000 -0.044
26.80000 2.365
26.82000 4.409
26.84000 -3.907
26.86000 -2.224
26.88000 -0.759
26.90000 4.930
26.92000 0.670
26.94000 -1.379
26.96000 2.278
26.98000 3.046
27.00000 3.497
27.02000 1.578
27.04000 3.045
27.06000 3.081
27.08000 -0.558
27.10000 3.238
27.12000 2.058
27.14000 2.597
27.16000 4.215
27.18000 5.141
27.20000 5.507
27.22000 -2.478
27.24000 -2.416
27.26000 -1.717
27.28000 1.292
27.30000 4.044
27.32000 3.976
27.34000 -3.870
27.36000 -0.167
27.38000 2.130
27.40000 2.249
27.42000 4.064
27.44000 4.897
27.46000 3.529
27.48000 3.151
27.50000 10.058
27.52000 2.615
27.54000 1.910
27.56000 4.226
27.58000 7.542
27.60000 3.084
27.62000 4.317
27.64000 8.444
27.66000 5.167
27.68000 8.494
27.70000 6.348
27.72000 0.520
27.74000 -1.422
27.76000 0.487
27.78000 5.568
27.80000 0.360
27.82000 -1.051
27.84000 3.939
27.86000 4.171
27.88000 5.050
27.90000 5.403
27.92000 2.978
27.94000 -3.792
27.96000 -3.826
27.98000 -2.129
28.00000 -2.565
28.02000 -1.637
28.04000 -1.094
28.06000 4.976
28.08000 7.133
28.10000 2.911
28.12000 -1.617
28.14000 -1.666
28.16000 6.782
28.18000 4.208
28.20000 2.245
28.22000 -0.930
28.24000 0.284
28.26000 0.521
28.28000 4.823
28.30000 2.711
28.32000 5.805
28.34000 7.870
28.36000 9.236
28.38000 11.224
28.40000 10.409
28.42000 9.509
28.44000 6.474
28.46000 9.029
28.48000 9.906
28.50000 3.904
28.52000 0.022
28.54000 5.644
28.56000 3.769
28.58000 2.305
28.60000 10.558
28.62000 10.802
28.64000 3.307
28.66000 -3.767
28.68000 -1.510
28.70000 6.623
28.72000 4.530
28.74000 3.108
28.76000 6.025
28.78000 2.745
28.80000 1.165
28.82000 2.263
28.84000 6.314
28.86000 3.281
28.88000 1.142
28.90000 -3.764
28.92000 1.243
28.94000 4.310
28.96000 0.832
28.98000 3.876
29.00000 7.365
29.02000 7.102
29.04000 3.765
29.06000 -0.004
29.08000 5.361
29.10000 3.811
29.12000 3.482
29.14000 2.631
29.16000 -3.245
29.18000 -1.130
29.20000 -0.585
29.22000 2.297
29.24000 7.510
29.26000 8.467
29.28000 5.594
29.30000 5.673
29.32000 8.633
29.34000 8.085
29.36000 7.069
29.38000 6.496
29.40000 4.333
29.42000 2.101
29.44000 0.471
29.46000 0.918
29.48000 -0.817
29.50000 2.414
29.52000 4.865
29.54000 1.787
29.56000 3.109
29.58000 5.304
29.60000 5.415
29.62000 -0.675
29.64000 6.918
29.66000 12.811
29.68000 3.558
29.70000 -1.148
29.72000 4.665
29.74000 0.905
29.76000 -3.730
29.78000 3.674
29.80000 4.179
29.82000 4.297
29.84000 3.456
29.86000 5.057
29.88000 6.226
29.90000 4.461
29.92000 3.260
29.94000 3.384
29.96000 1.298
29.98000 0.530
30.00000 0.360
30.02000 -1.511
30.04000 0.792
30.06000 1.248
30.08000 -1.562
30.10000 0.643
30.12000 0.969
30.14000 -2.273
30.16000 0.264
30.18000 1.994
30.20000 -1.958
30.22000 -0.539
30.24000 -0.334
30.26000 -0.217
30.28000 2.350
30.30000 0.508
30.32000 2.374
30.34000 7.659
30.36000 5.118
30.38000 4.803
30.40000 5.274
30.42000 2.899
30.44000 2.542
30.46000 9.975
30.48000 7.672
30.50000 1.706
30.52000 2.629
30.54000 0.754
30.56000 -3.683
30.58000 2.757
30.60000 5.475
30.62000 7.429
30.64000 5.352
30.66000 1.822
30.68000 3.182
30.70000 6.281
30.72000 0.975
30.74000 2.375
30.76000 4.424
30.78000 0.969
30.80000 4.202
30.82000 3.522
30.84000 1.125
30.86000 1.781
30.88000 6.359
30.90000 7.096
30.92000 5.105
30.94000 6.874
30.96000 5.876
30.98000 9.981
31.00000 4.630
31.02000 6.767
31.04000 4.041
31.06000 1.041
31.08000 5.898
31.10000 8.018
31.12000 3.734
31.14000 1.065
31.16000 3.211
31.18000 7.865
31.20000 7.267
31.22000 3.522
31.24000 -3.658
31.26000 -3.338
31.28000 3.499
31.30000 4.369
31.32000 1.347
31.34000 1.613
31.36000 3.866
31.38000 -1.465
31.40000 -2.641
31.42000 -0.402
31.44000 6.439
31.46000 4.677
31.48000 4.587
31.50000 1.156
31.52000 -0.245
31.54000 -0.516
31.56000 1.686
31.58000 1.386
31.60000 5.235
31.62000 4.921
31.64000 -0.257
31.66000 0.433
31.68000 2.657
31.70000 -2.370
31.72000 5.765
31.74000 1.383
31.76000 1.261
31.78000 -3.524
31.80000 -1.406
31.82000 2.652
31.84000 3.282
31.86000 2.412
31.88000 3.169
31.90000 3.529
31.92000 7.610
31.94000 0.721
31.96000 -0.791
31.98000 3.090
32.00000 0.240
32.02000 0.421
32.04000 5.329
32.06000 3.980
32.08000 3.099
32.10000 3.545
32.12000 4.165
32.14000 3.952
32.16000 5.607
32.18000 2.987
32.20000 3.976
32.22000 8.742
32.24000 9.325
32.26000 3.350
32.28000 2.692
32.30000 4.185
32.32000 0.666
32.34000 0.943
32.36000 3.301
32.38000 3.511
32.40000 2.369
32.42000 5.749
32.44000 2.969
32.46000 -3.607
32.48000 -1.450
32.50000 1.764
32.52000 2.998
32.54000 2.416
32.56000 0.191
32.58000 -1.015
32.60000 4.961
32.62000 5.425
32.64000 2.694
32.66000 4.667
32.68000 0.935
32.70000 -2.918
32.72000 5.252
32.74000 6.893
32.76000 1.789
32.78000 -1.071
32.80000 1.428
32.82000 5.624
32.84000 2.133
32.86000 3.284
32.88000 2.049
32.90000 0.286
32.92000 0.495
32.94000 5.338
32.96000 -0.881
32.98000 0.272
33.00000 5.221
33.02000 4.803
33.04000 9.315
33.06000 6.821
33.08000 1.734
33.10000 -2.220
33.12000 -2.025
33.14000 -3.620
33.16000 -3.621
33.18000 -1.000
33.20000 -0.256
33.22000 3.516
33.24000 8.567
33.26000 2.046
33.28000 -1.077
33.30000 2.836
33.32000 7.538
33.34000 5.560
33.36000 3.506
33.38000 -1.006
33.40000 2.309
33.42000 2.734
33.44000 1.581
33.46000 2.596
33.48000 6.031
33.50000 2.466
33.52000 1.730
33.54000 -0.428
33.56000 3.145
33.58000 0.830
33.60000 -1.886
33.62000 3.861
33.64000 5.229
33.66000 0.206
33.68000 0.261
33.70000 1.883
33.72000 5.076
33.74000 4.872
33.76000 5.147
33.78000 0.330
33.80000 1.661
33.82000 1.372
33.84000 6.484
33.86000 7.080
33.88000 5.502
33.90000 1.693
33.92000 0.850
33.94000 3.026
33.96000 6.751
33.98000 11.596
34.00000 8.400
34.02000 6.879
34.04000 2.496
34.06000 -2.897
34.08000 2.195
34.10000 0.367
34.12000 -3.618
34.14000 -0.921
34.16000 1.866
34.18000 2.363
34.20000 4.282
34.22000 5.567
34.24000 3.501
34.26000 0.234
34.28000 1.456
34.30000 7.415
34.32000 5.529
34.34000 -1.317
34.36000 -0.736
34.38000 1.387
34.40000 -0.423
34.42000 -0.786
34.44000 1.625
34.46000 0.582
34.48000 4.745
34.50000 2.761
34.52000 0.932
34.54000 -3.095
34.56000 1.143
34.58000 -0.108
34.60000 1.325
34.62000 4.632
34.64000 2.186
34.66000 4.032
34.68000 6.603
34.70000 6.121
34.72000 2.986
34.74000 1.458
34.76000 1.909
34.78000 3.212
34.80000 2.918
34.82000 5.814
34.84000 5.634
34.86000 2.186
34.88000 5.413
34.90000 5.422
34.92000 0.675
34.94000 2.070
34.96000 4.296
34.98000 1.640
35.00000 2.724
35.02000 4.677
35.04000 -1.856
35.06000 2.672
35.08000 4.588
35.10000 8.747
35.12000 -0.808
35.14000 -3.566
35.16000 2.578
35.18000 2.098
35.20000 3.754
35.22000 4.291
35.24000 2.236
35.26000 0.229
35.28000 -3.567
35.30000 0.030
35.32000 0.850
35.34000 1.659
35.36000 -0.030
35.38000 -2.897
35.40000 0.483
35.42000 4.089
35.44000 6.918
35.46000 8.255
35.48000 5.932
35.50000 2.777
35.52000 1.324
35.54000 1.568
35.56000 5.279
35.58000 6.430
35.60000 4.093
35.62000 4.643
35.64000 6.528
35.66000 6.258
35.68000 5.962
35.70000 2.868
35.72000 3.099
35.74000 3.940
35.76000 4.589
35.78000 3.110
35.80000 0.743
35.82000 0.190
35.84000 3.404
35.86000 -0.045
35.88000 -3.593
35.90000 4.549
35.92000 4.170
35.94000 1.141
35.96000 3.969
35.98000 0.767
36.00000 -0.336
36.02000 0.492
36.04000 0.926
36.06000 0.425
36.08000 1.016
36.10000 1.143
36.12000 4.568
36.14000 6.333
36.16000 4.335
36.18000 4.811
36.20000 4.995
36.22000 6.291
36.24000 1.776
36.26000 -3.633
36.28000 -1.612
36.30000 2.443
36.32000 3.498
36.34000 1.896
36.36000 -1.309
36.38000 -3.138
36.40000 1.069
36.42000 -3.481
36.44000 -2.674
36.46000 0.452
36.48000 -2.402
36.50000 -2.632
36.52000 -0.359
36.54000 3.345
36.56000 0.117
36.58000 -1.164
36.60000 0.438
36.62000 2.955
36.64000 -3.103
36.66000 -2.988
36.68000 -3.674
36.70000 -1.734
36.72000 -2.884
36.74000 0.151
36.76000 -1.073
36.78000 1.786
36.80000 -1.065
36.82000 -1.518
36.84000 -1.335
36.86000 2.433
36.88000 3.409
36.90000 0.461
36.92000 -1.735
36.94000 -0.864
36.96000 -0.068
36.98000 5.536
37.00000 7.802
37.02000 1.763
37.04000 0.925
37.06000 -2.888
37.08000 -0.849
37.10000 3.961
37.12000 4.715
37.14000 3.064
37.16000 5.640
37.18000 -0.190
37.20000 -3.712
37.22000 -2.606
37.24000 1.073
37.26000 1.003
37.28000 1.527
37.30000 6.208
37.32000 7.972
37.34000 1.938
37.36000 0.579
37.38000 2.762
37.40000 4.169
37.42000 2.539
37.44000 9.558
37.46000 10.647
37.48000 11.194
37.50000 10.405
37.52000 2.290
37.54000 5.708
37.56000 7.969
37.58000 12.138
37.60000 12.445
37.62000 6.927
37.64000 5.697
37.66000 8.915
37.68000 8.797
37.70000 12.255
37.72000 9.513
37.74000 6.379
37.76000 8.772
37.78000 5.259
37.80000 8.270
37.82000 10.086
37.84000 13.004
37.86000 11.320
37.88000 14.378
37.90000 10.778
37.92000 15.555
37.94000 17.226
37.96000 20.874
37.98000 24.927
38.00000 17.948
38.02000 18.675
38.04000 22.283
38.06000 21.957
38.08000 24.677
38.10000 24.176
38.12000 22.474
38.14000 26.058
38.16000 27.420
38.18000 23.410
38.20000 27.081
38.22000 29.583
38.24000 30.086
38.26000 31.984
38.28000 31.288
38.30000 37.434
38.32000 40.278
38.34000 44.685
38.36000 42.375
38.38000 40.496
38.40000 42.944
38.42000 46.502
38.44000 50.834
38.46000 51.641
38.48000 50.982
38.50000 49.662
38.52000 54.890
38.54000 54.532
38.56000 60.217
38.58000 63.358
38.60000 61.440
38.62000 70.516
38.64000 76.235
38.66000 77.426
38.68000 76.361
38.70000 82.341
38.72000 85.585
38.74000 86.833
38.76000 88.678
38.78000 91.534
38.80000 95.529
38.82000 103.781
38.84000 110.771
38.86000 119.735
38.88000 123.913
38.90000 122.200
38.92000 132.925
38.94000 137.472
38.96000 140.270
38.98000 153.357
39.00000 159.870
39.02000 162.074
39.04000 170.328
39.06000 185.957
39.08000 201.068
39.10000 215.110
39.12000 222.445
39.14000 231.539
39.16000 243.623
39.18000 253.560
39.20000 262.616
39.22000 273.057
39.24000 293.577
39.26000 303.580
39.28000 318.421
39.30000 335.991
39.32000 358.973
39.34000 385.939
39.36000 398.802
39.38000 422.748
39.40000 443.486
39.42000 459.882
39.44000 479.729
39.46000 499.797
39.48000 523.713
39.50000 544.516
39.52000 568.314
39.54000 604.262
39.56000 630.941
39.58000 645.597
39.60000 678.019
39.62000 687.195
39.64000 698.906
39.66000 714.586
39.68000 724.795
39.70000 750.432
39.72000 761.927
39.74000 770.259
39.76000 775.465
39.78000 775.661
39.80000 779.407
39.82000 767.814
39.84000 749.691
39.86000 750.837
39.88000 752.649
39.90000 739.302
39.92000 714.839
39.94000 696.784
39.96000 679.051
39.98000 663.304
40.00000 641.028
40.02000 617.156
40.04000 594.874
40.06000 570.443
40.08000 546.507
40.10000 527.801
40.12000 496.327
40.14000 472.102
40.16000 451.977
40.18000 433.968
40.20000 411.547
40.22000 392.037
40.24000 371.979
40.26000 346.891
40.28000 314.562
40.30000 300.440
40.32000 289.028
40.34000 265.548
40.36000 244.172
40.38000 233.424
40.40000 224.053
40.42000 215.566
40.44000 199.183
40.46000 187.530
40.48000 173.834
40.50000 165.966
40.52000 155.368
40.54000 146.322
40.56000 131.559
40.58000 129.816
40.60000 121.823
40.62000 112.794
40.64000 108.182
40.66000 99.844
40.68000 94.346
40.70000 86.422
40.72000 79.888
40.74000 76.043
40.76000 68.419
40.78000 70.237
40.80000 69.861
40.82000 58.936
40.84000 53.149
40.86000 51.848
40.88000 51.683
40.90000 49.448
40.92000 48.175
40.94000 45.255
40.96000 42.516
40.98000 36.467
41.00000 40.175
41.02000 32.462
41.04000 29.994
41.06000 26.089
41.08000 25.362
41.10000 25.792
41.12000 23.015
41.14000 24.622
41.16000 22.017
41.18000 20.134
41.20000 20.649
41.22000 18.275
41.24000 18.354
41.26000 15.790
41.28000 17.138
41.30000 16.450
41.32000 13.437
41.34000 14.353
41.36000 15.240
41.38000 16.484
41.40000 16.532
41.42000 10.881
41.44000 6.200
41.46000 8.674
41.48000 11.203
41.50000 6.751
41.52000 1.948
41.54000 2.293
41.56000 8.566
41.58000 8.639
41.60000 8.163
41.62000 7.472
41.64000 8.175
41.66000 6.353
41.68000 5.267
41.70000 5.168
41.72000 6.127
41.74000 0.869
41.76000 -0.106
41.78000 -0.345
41.80000 0.032
41.82000 -0.182
41.84000 0.666
41.86000 1.321
41.88000 -0.180
41.90000 2.598
41.92000 1.771
41.94000 0.890
41.96000 0.233
41.98000 1.224
42.00000 -2.614
42.02000 -0.690
42.04000 2.036
42.06000 -0.124
42.08000 4.752
42.10000 4.132
42.12000 -1.181
42.14000 -0.932
42.16000 -1.808
42.18000 -3.516
42.20000 -2.719
42.22000 0.290
42.24000 0.411
42.26000 -1.752
42.28000 -2.074
42.30000 0.426
42.32000 1.469
42.34000 0.189
42.36000 0.145
42.38000 2.769
42.40000 4.924
42.42000 1.485
42.44000 -2.401
42.46000 -3.099
42.48000 -3.069
42.50000 -2.336
42.52000 -0.484
42.54000 0.545
42.56000 0.461
42.58000 0.515
42.60000 -0.087
42.62000 0.535
42.64000 0.847
42.66000 1.907
42.68000 3.884
42.70000 2.519
42.72000 2.503
42.74000 1.191
42.76000 -1.604
42.78000 -3.412
42.80000 -2.689
42.82000 0.195
42.84000 -0.427
42.86000 -3.399
42.88000 -3.089
42.90000 3.042
42.92000 0.828
42.94000 -3.113
42.96000 -2.074
42.98000 2.816
43.00000 0.341
43.02000 -1.564
43.04000 -1.095
43.06000 0.632
43.08000 -1.684
43.10000 1.018
43.12000 6.055
43.14000 6.484
43.16000 1.947
43.18000 0.375
43.20000 -0.929
43.22000 -2.636
43.24000 -3.348
43.26000 -0.056
43.28000 2.676
43.30000 2.353
43.32000 1.887
43.34000 1.294
43.36000 0.686
43.38000 0.038
43.40000 0.914
43.42000 0.868
43.44000 -0.113
43.46000 1.069
43.48000 4.177
43.50000 2.793
43.52000 3.439
43.54000 -0.573
43.56000 0.353
43.58000 -1.029
43.60000 -1.784
43.62000 0.636
43.64000 -0.422
43.66000 -0.780
43.68000 -0.456
43.70000 2.004
43.72000 -0.040
43.74000 2.489
43.76000 -0.853
43.78000 1.832
43.80000 3.944
43.82000 -1.231
43.84000 2.181
43.86000 1.774
43.88000 0.655
43.90000 0.802
43.92000 2.549
43.94000 1.319
43.96000 2.961
43.98000 2.322
44.00000 3.554
44.02000 3.374
44.04000 0.376
44.06000 -3.284
44.08000 -1.379
44.10000 0.892
44.12000 4.384
44.14000 4.105
44.16000 0.495
44.18000 -0.239
44.20000 2.371
44.22000 2.532
44.24000 -2.041
44.26000 -0.120
44.28000 1.337
44.30000 0.733
44.32000 -2.019
44.34000 -0.511
44.36000 0.884
44.38000 0.065
44.40000 3.967
44.42000 4.369
44.44000 4.823
44.46000 3.524
44.48000 2.629
44.50000 4.262
44.52000 4.286
44.54000 4.399
44.56000 4.612
44.58000 2.364
44.60000 0.703
44.62000 1.465
44.64000 2.900
44.66000 3.291
44.68000 1.603
44.70000 0.160
44.72000 -0.012
44.74000 3.459
44.76000 5.070
44.78000 6.359
44.80000 5.503
44.82000 4.353
44.84000 3.733
44.86000 1.871
44.88000 3.283
44.90000 6.805
44.92000 8.671
44.94000 12.812
44.96000 10.965
44.98000 7.121
45.00000 11.225
45.02000 12.462
45.04000 10.442
45.06000 6.990
45.08000 8.861
45.10000 9.826
45.12000 11.971
45.14000 14.886
45.16000 16.832
45.18000 14.715
45.20000 13.703
45.22000 13.492
45.24000 17.075
45.26000 15.255
45.28000 9.933
45.30000 14.005
45.32000 18.807
45.34000 20.015
45.36000 22.522
45.38000 18.097
45.40000 18.466
45.42000 27.804
45.44000 31.941
45.46000 32.087
45.48000 29.232
45.50000 25.221
45.52000 24.663
45.54000 25.024
45.56000 28.793
45.58000 26.591
45.60000 25.832
45.62000 33.230
45.64000 38.199
45.66000 40.541
45.68000 36.303
45.70000 39.558
45.72000 37.878
45.74000 45.662
45.76000 45.490
45.78000 38.806
45.80000 45.523
45.82000 48.448
45.84000 47.614
45.86000 49.965
45.88000 51.438
45.90000 58.734
45.92000 63.935
45.94000 65.178
45.96000 60.374
45.98000 60.245
46.00000 69.667
46.02000 69.968
46.04000 71.462
46.06000 71.943
46.08000 75.865
46.10000 81.291
46.12000 72.014
46.14000 75.024
46.16000 77.837
46.18000 83.244
46.20000 87.758
46.22000 87.954
46.24000 88.884
46.26000 90.389
46.28000 91.004
46.30000 89.755
46.32000 96.763
46.34000 101.980
46.36000 97.531
46.38000 97.451
46.40000 98.805
46.42000 103.839
46.44000 104.765
46.46000 100.680
46.48000 97.595
46.50000 102.665
46.52000 105.490
46.54000 102.128
46.56000 96.758
46.58000 97.484
46.60000 101.118
46.62000 102.411
46.64000 97.122
46.66000 92.810
46.68000 87.074
46.70000 92.671
46.72000 90.938
46.74000 87.541
46.76000 86.321
46.78000 92.228
46.80000 89.788
46.82000 76.229
46.84000 74.483
46.86000 76.536
46.88000 71.498
46.90000 68.233
46.92000 72.549
46.94000 68.435
46.96000 69.916
46.98000 64.415
47.00000 61.377
47.02000 54.696
47.04000 50.588
47.06000 50.911
47.08000 45.558
47.10000 48.933
47.12000 43.419
47.14000 40.723
47.16000 39.998
47.18000 34.000
47.20000 34.864
47.22000 31.724
47.24000 32.670
47.26000 32.282
47.28000 30.598
47.30000 22.165
47.32000 22.228
47.34000 22.338
47.36000 17.931
47.38000 21.034
47.40000 24.294
47.42000 20.348
47.44000 17.882
47.46000 18.190
47.48000 14.515
47.50000 15.655
47.52000 14.704
47.54000 14.457
47.56000 9.617
47.58000 11.918
47.60000 8.823
47.62000 7.774
47.64000 6.735
47.66000 10.208
47.68000 8.482
47.70000 6.718
47.72000 8.058
47.74000 11.241
47.76000 10.662
47.78000 4.843
47.80000 9.344
47.82000 7.480
47.84000 5.302
47.86000 6.705
47.88000 3.721
47.90000 5.205
47.92000 8.404
47.94000 9.524
47.96000 11.069
47.98000 9.705
48.00000 5.715
48.02000 1.103
48.04000 -1.127
48.06000 -2.551
48.08000 -1.240
48.10000 1.905
48.12000 4.646
48.14000 7.108
48.16000 2.897
48.18000 3.843
48.20000 2.476
48.22000 2.040
48.24000 7.416
48.26000 3.334
48.28000 0.839
48.30000 1.372
48.32000 1.573
48.34000 1.856
48.36000 -2.909
48.38000 1.718
48.40000 2.171
48.42000 1.420
48.44000 -1.298
48.46000 -1.812
48.48000 -0.417
48.50000 -1.240
48.52000 2.871
48.54000 3.326
48.56000 1.558
48.58000 1.740
48.60000 6.331
48.62000 4.378
48.64000 2.095
48.66000 3.462
48.68000 3.509
48.70000 1.146
48.72000 4.187
48.74000 5.118
48.76000 2.429
48.78000 4.278
48.80000 4.218
48.82000 2.290
48.84000 -2.843
48.86000 -0.258
48.88000 1.729
48.90000 2.150
48.92000 1.612
48.94000 2.699
48.96000 -1.150
48.98000 1.223
49.00000 1.934
49.02000 3.144
49.04000 2.550
49.06000 2.380
49.08000 1.552
49.10000 0.134
49.12000 1.321
49.14000 4.337
49.16000 7.911
49.18000 4.379
49.20000 1.642
49.22000 -0.631
49.24000 0.520
49.26000 3.093
49.28000 -0.424
49.30000 5.920
49.32000 6.310
49.34000 4.010
49.36000 4.380
49.38000 3.689
49.40000 -0.299
49.42000 -2.761
49.44000 4.563
49.46000 5.982
49.48000 8.035
49.50000 8.805
49.52000 6.689
49.54000 3.587
49.56000 5.766
49.58000 4.769
49.60000 0.221
49.62000 -0.850
49.64000 -1.466
49.66000 3.912
49.68000 6.445
49.70000 4.400
49.72000 2.266
49.74000 5.650
49.76000 1.684
49.78000 2.959
49.80000 0.843
49.82000 -0.506
49.84000 3.386
49.86000 4.013
49.88000 5.020
49.90000 6.811
49.92000 5.651
49.94000 4.273
49.96000 3.446
49.98000 6.514
50.00000 5.949
50.02000 5.467
50.04000 5.402
50.06000 2.342
50.08000 2.737
50.10000 0.191
50.12000 2.103
50.14000 -2.701
50.16000 1.411
50.18000 1.732
50.20000 2.489
50.22000 1.489
50.24000 4.316
50.26000 6.086
50.28000 5.636
50.30000 4.468
50.32000 2.013
50.34000 3.659
50.36000 3.815
50.38000 5.022
50.40000 7.477
50.42000 8.186
50.44000 5.164
50.46000 4.441
50.48000 3.287
50.50000 0.519
50.52000 -2.103
50.54000 0.707
50.56000 1.728
50.58000 1.979
50.60000 2.672
50.62000 4.772
50.64000 0.234
50.66000 1.724
50.68000 -1.084
50.70000 2.448
50.72000 1.920
50.74000 4.376
50.76000 6.688
50.78000 7.137
50.80000 5.383
50.82000 8.219
50.84000 8.957
50.86000 -1.039
50.88000 -2.563
50.90000 2.055
50.92000 6.191
50.94000 2.523
50.96000 2.046
50.98000 5.139
51.00000 2.583
51.02000 1.440
51.04000 1.760
51.06000 2.426
51.08000 4.190
51.10000 0.316
51.12000 1.346
51.14000 4.110
51.16000 -0.092
51.18000 -1.056
51.20000 -2.040
51.22000 1.472
51.24000 2.703
51.26000 3.303
51.28000 1.212
51.30000 6.586
51.32000 3.220
51.34000 -2.135
51.36000 1.390
51.38000 6.088
51.40000 4.662
51.42000 6.651
51.44000 5.690
51.46000 1.468
51.48000 -2.672
51.50000 2.624
51.52000 2.956
51.54000 1.132
51.56000 4.205
51.58000 6.503
51.60000 6.117
51.62000 5.799
51.64000 1.313
51.66000 -0.458
51.68000 -1.916
51.70000 3.118
51.72000 2.886
51.74000 3.221
51.76000 -0.500
51.78000 2.657
51.80000 1.067
51.82000 0.707
51.84000 3.372
51.86000 3.786
51.88000 2.480
51.90000 4.281
51.92000 1.994
51.94000 4.447
51.96000 4.278
51.98000 5.161
52.00000 5.761
52.02000 7.291
52.04000 3.828
52.06000 3.707
52.08000 3.343
52.10000 4.581
52.12000 5.519
52.14000 1.546
52.16000 2.648
52.18000 4.328
52.20000 3.327
52.22000 2.398
52.24000 8.218
52.26000 7.425
52.28000 5.867
52.30000 4.109
52.32000 -2.612
52.34000 0.177
52.36000 3.667
52.38000 7.644
52.40000 5.003
52.42000 3.496
52.44000 4.326
52.46000 -0.002
52.48000 1.278
52.50000 2.231
52.52000 -1.699
52.54000 1.750
52.56000 0.911
52.58000 0.831
52.60000 3.870
52.62000 0.618
52.64000 -1.132
52.66000 0.734
52.68000 0.936
52.70000 1.452
52.72000 3.902
52.74000 5.264
52.76000 3.325
52.78000 4.253
52.80000 2.079
52.82000 1.703
52.84000 0.410
52.86000 1.116
52.88000 3.185
52.90000 1.956
52.92000 0.883
52.94000 3.437
52.96000 3.369
52.98000 1.835
53.00000 1.713
53.02000 2.153
53.04000 1.798
53.06000 2.504
53.08000 3.000
53.10000 1.600
53.12000 0.018
53.14000 -1.658
53.16000 0.815
53.18000 2.742
53.20000 2.396
53.22000 3.488
53.24000 2.257
53.26000 3.152
53.28000 2.562
53.30000 1.377
53.32000 4.227
53.34000 1.549
53.36000 3.479
53.38000 3.070
53.40000 0.237
53.42000 0.875
53.44000 3.599
53.46000 1.105
53.48000 -1.123
53.50000 1.538
53.52000 6.742
53.54000 2.779
53.56000 2.037
53.58000 6.498
53.60000 3.193
53.62000 5.134
53.64000 2.892
53.66000 1.749
53.68000 1.336
53.70000 2.672
53.72000 3.598
53.74000 7.360
53.76000 1.628
53.78000 -0.646
53.80000 1.932
53.82000 5.642
53.84000 4.553
53.86000 3.418
53.88000 1.317
53.90000 3.351
53.92000 2.405
53.94000 3.142
53.96000 2.777
53.98000 1.378
54.00000 4.277
54.02000 7.913
54.04000 6.467
54.06000 6.776
54.08000 6.267
54.10000 1.887
54.12000 2.002
54.14000 5.600
54.16000 5.061
54.18000 2.294
54.20000 3.262
54.22000 1.349
54.24000 -0.880
54.26000 -2.210
54.28000 -2.553
54.30000 0.380
54.32000 1.731
54.34000 1.192
54.36000 3.742
54.38000 5.547
54.40000 7.864
54.42000 6.302
54.44000 4.162
54.46000 7.963
54.48000 4.930
54.50000 1.232
54.52000 3.022
54.54000 1.065
54.56000 -0.117
54.58000 2.401
54.60000 1.511
54.62000 3.368
54.64000 1.819
54.66000 2.633
54.68000 2.964
54.70000 2.495
54.72000 3.263
54.74000 6.625
54.76000 5.436
54.78000 5.428
54.80000 3.581
54.82000 1.781
54.84000 0.101
54.86000 2.773
54.88000 3.264
54.90000 1.109
54.92000 0.979
54.94000 3.597
54.96000 0.484
54.98000 0.665
55.00000 2.171
55.02000 1.764
55.04000 3.770
55.06000 0.755
55.08000 1.636
55.10000 -1.238
55.12000 2.981
55.14000 3.298
55.16000 1.189
55.18000 -2.555
55.20000 -1.663
55.22000 2.737
55.24000 2.990
55.26000 4.865
55.28000 -0.829
55.30000 -1.117
55.32000 2.348
55.34000 -0.142
55.36000 2.152
55.38000 4.570
55.40000 3.700
55.42000 1.814
55.44000 4.516
55.46000 3.789
55.48000 1.443
55.50000 2.249
55.52000 0.025
55.54000 0.283
55.56000 2.064
55.58000 0.462
55.60000 4.798
55.62000 0.947
55.64000 -1.854
55.66000 0.502
55.68000 2.113
55.70000 2.651
55.72000 5.536
55.74000 6.000
55.76000 0.601
55.78000 -0.223
55.80000 1.185
55.82000 1.829
55.84000 0.189
55.86000 -2.052
55.88000 -2.543
55.90000 3.914
55.92000 5.542
55.94000 1.503
55.96000 -2.539
55.98000 -2.439
56.00000 -0.896
56.02000 -1.206
56.04000 0.870
56.06000 2.136
56.08000 3.262
56.10000 1.621
56.12000 2.059
56.14000 3.019
56.16000 7.962
56.18000 5.191
56.20000 -0.399
56.22000 -1.700
56.24000 1.286
56.26000 -0.384
56.28000 1.258
56.30000 3.212
56.32000 6.087
56.34000 4.041
56.36000 -0.679
56.38000 -0.776
56.40000 1.399
56.42000 2.239
56.44000 0.989
56.46000 1.178
56.48000 3.996
56.50000 2.501
56.52000 4.871
56.54000 1.997
56.56000 -2.522
56.58000 0.527
56.60000 0.121
56.62000 2.493
56.64000 -0.840
56.66000 -0.052
56.68000 3.085
56.70000 0.406
56.72000 4.049
56.74000 3.274
56.76000 1.081
56.78000 1.618
56.80000 3.660
56.82000 1.808
56.84000 1.581
56.86000 0.169
56.88000 2.131
56.90000 2.445
56.92000 3.197
56.94000 1.758
56.96000 2.132
56.98000 4.519
57.00000 3.177
57.02000 -0.281
57.04000 -0.163
57.06000 2.919
57.08000 -1.858
57.10000 0.830
57.12000 0.545
57.14000 3.311
57.16000 4.683
57.18000 -1.122
57.20000 -2.514
57.22000 -0.714
57.24000 1.163
57.26000 4.666
57.28000 2.977
57.30000 -0.882
57.32000 1.177
57.34000 0.567
57.36000 -0.112
57.38000 -0.432
57.40000 2.230
57.42000 -0.096
57.44000 -1.282
57.46000 -0.723
57.48000 0.882
57.50000 1.376
57.52000 1.571
57.54000 3.241
57.56000 1.948
57.58000 0.222
57.60000 -1.268
57.62000 1.419
57.64000 3.062
57.66000 4.997
57.68000 5.167
57.70000 9.784
57.72000 7.317
57.74000 4.650
57.76000 1.977
57.78000 0.819
57.80000 1.089
57.82000 3.584
57.84000 3.093
57.86000 -1.097
57.88000 2.311
57.90000 5.097
57.92000 4.370
57.94000 -0.533
57.96000 -0.612
57.98000 3.490
58.00000 4.895
58.02000 5.289
58.04000 5.962
58.06000 3.606
58.08000 2.471
58.10000 0.539
58.12000 2.092
58.14000 3.788
58.16000 3.286
58.18000 3.270
58.20000 3.201
58.22000 4.170
58.24000 1.264
58.26000 -0.616
58.28000 3.218
58.30000 6.149
58.32000 3.326
58.34000 3.102
58.36000 3.051
58.38000 1.640
58.40000 1.123
58.42000 4.243
58.44000 7.101
58.46000 3.107
58.48000 3.357
58.50000 0.970
58.52000 2.111
58.54000 -0.777
58.56000 -2.422
58.58000 1.241
58.60000 1.736
58.62000 5.090
58.64000 6.279
58.66000 3.663
58.68000 5.634
58.70000 3.929
58.72000 2.081
58.74000 2.142
58.76000 2.995
58.78000 3.687
58.80000 5.254
58.82000 3.299
58.84000 2.786
58.86000 6.485
58.88000 4.913
58.90000 1.994
58.92000 1.668
58.94000 6.051
58.96000 4.532
58.98000 3.431
59.00000 2.167
59.02000 1.189
59.04000 3.533
59.06000 4.065
59.08000 5.472
59.10000 0.363
59.12000 3.746
59.14000 4.096
59.16000 3.837
59.18000 5.799
59.20000 1.874
59.22000 1.518
59.24000 4.039
59.26000 2.144
59.28000 3.507
59.30000 6.542
59.32000 3.914
59.34000 1.127
59.36000 0.558
59.38000 1.546
59.40000 4.830
59.42000 0.738
59.44000 2.604
59.46000 6.082
59.48000 6.752
59.50000 5.304
59.52000 1.614
59.54000 1.113
59.56000 2.604
59.58000 2.240
59.60000 0.922
59.62000 1.602
59.64000 -2.419
59.66000 -1.811
59.68000 -0.301
59.70000 1.491
59.72000 1.335
59.74000 2.656
59.76000 4.254
59.78000 2.891
59.80000 0.937
59.82000 6.588
59.84000 2.110
59.86000 0.709
59.88000 -0.257
59.90000 0.663
59.92000 -0.057
59.94000 5.014
59.96000 2.802
59.98000 1.137
60.00000 2.813
60.02000 4.255
60.04000 2.136
60.06000 -0.091
60.08000 2.759
60.10000 2.786
60.12000 1.961
60.14000 3.898
60.16000 4.503
60.18000 5.766
60.20000 2.250
60.22000 0.936
60.24000 2.121
60.26000 -0.824
60.28000 1.201
60.30000 4.618
60.32000 1.563
60.34000 2.734
60.36000 -0.063
60.38000 0.496
60.40000 2.991
60.42000 3.755
60.44000 2.535
60.46000 3.343
60.48000 2.782
60.50000 1.018
60.52000 0.119
60.54000 -0.135
60.56000 2.153
60.58000 1.870
60.60000 -2.395
60.62000 -1.204
60.64000 5.218
60.66000 5.635
60.68000 5.061
60.70000 3.957
60.72000 1.304
60.74000 1.077
60.76000 2.369
60.78000 0.728
60.80000 -1.923
60.82000 0.756
60.84000 2.228
60.86000 8.209
60.88000 2.916
60.90000 2.895
60.92000 4.441
60.94000 3.625
60.96000 -2.369
60.98000 0.149
61.00000 3.368
61.02000 0.221
61.04000 1.093
61.06000 3.638
61.08000 3.795
61.10000 5.609
61.12000 4.266
61.14000 3.699
61.16000 0.558
61.18000 0.276
61.20000 4.298
61.22000 5.791
61.24000 5.402
61.26000 4.758
61.28000 -0.099
61.30000 -1.994
61.32000 3.866
61.34000 0.583
61.36000 0.353
61.38000 2.178
61.40000 1.868
61.42000 3.042
61.44000 1.430
61.46000 2.553
61.48000 2.758
61.50000 2.191
61.52000 1.747
61.54000 0.057
61.56000 0.243
61.58000 -1.661
61.60000 1.680
61.62000 1.367
61.64000 2.846
61.66000 2.801
61.68000 0.300
61.70000 0.730
61.72000 1.487
61.74000 -0.187
61.76000 -0.903
61.78000 1.438
61.80000 1.914
61.82000 3.383
61.84000 1.350
61.86000 1.840
61.88000 3.015
61.90000 4.519
61.92000 2.467
61.94000 0.463
61.96000 3.554
61.98000 4.835
62.00000 3.271
62.02000 2.423
62.04000 0.849
62.06000 2.924
62.08000 -0.636
62.10000 3.128
62.12000 5.714
62.14000 1.060
62.16000 1.949
62.18000 1.526
62.20000 1.877
62.22000 -0.278
62.24000 0.376
62.26000 5.670
62.28000 8.794
62.30000 3.490
62.32000 1.232
62.34000 -0.038
62.36000 2.024
62.38000 1.768
62.40000 3.326
62.42000 3.862
62.44000 2.270
62.46000 2.859
62.48000 4.350
62.50000 5.917
62.52000 5.778
62.54000 5.890
62.56000 3.447
62.58000 3.016
62.60000 4.529
62.62000 6.427
62.64000 6.636
62.66000 7.417
62.68000 4.435
62.70000 2.107
62.72000 2.976
62.74000 5.754
62.76000 4.917
62.78000 3.872
62.80000 4.993
62.82000 7.699
62.84000 1.530
62.86000 -2.286
62.88000 0.020
62.90000 3.419
62.92000 6.346
62.94000 7.877
62.96000 4.835
62.98000 3.755
63.00000 2.178
63.02000 4.570
63.04000 3.533
63.06000 4.574
63.08000 4.084
63.10000 5.177
63.12000 5.922
63.14000 2.908
63.16000 5.409
63.18000 5.074
63.20000 6.585
63.22000 7.449
63.24000 3.352
63.26000 2.390
63.28000 2.246
63.30000 1.604
63.32000 2.011
63.34000 5.329
63.36000 3.032
63.38000 2.660
63.40000 0.282
63.42000 2.673
63.44000 0.046
63.46000 0.238
63.48000 0.717
63.50000 1.617
63.52000 0.096
63.54000 2.928
63.56000 2.345
63.58000 1.517
63.60000 2.825
63.62000 -0.095
63.64000 1.909
63.66000 1.449
63.68000 0.265
63.70000 0.718
63.72000 -0.444
63.74000 -0.308
63.76000 0.582
63.78000 -0.486
63.80000 0.004
63.82000 0.395
63.84000 0.880
63.86000 -1.708
63.88000 -0.441
63.90000 0.041
63.92000 1.688
63.94000 1.316
63.96000 0.971
63.98000 0.114
64.00000 2.025
64.02000 1.416
64.04000 0.473
64.06000 1.273
64.08000 0.789
64.10000 2.353
64.12000 1.883
64.14000 0.114
64.16000 0.360
64.18000 2.309
64.20000 0.856
64.22000 -1.052
64.24000 -2.352
64.26000 -0.027
64.28000 2.966
64.30000 0.641
64.32000 -0.606
64.34000 -2.355
64.36000 1.221
64.38000 3.421
64.40000 3.099
64.42000 2.206
64.44000 -0.799
64.46000 -1.016
64.48000 -1.646
64.50000 -1.525
64.52000 -1.015
64.54000 -0.512
64.56000 0.670
64.58000 0.668
64.60000 -1.483
64.62000 -1.135
64.64000 1.964
64.66000 -0.136
64.68000 -0.901
64.70000 -0.960
64.72000 1.456
64.74000 0.794
64.76000 1.468
64.78000 -0.772
64.80000 0.016
64.82000 0.060
64.84000 0.599
64.86000 -0.529
64.88000 0.393
64.90000 2.600
64.92000 -0.350
64.94000 0.760
64.96000 1.591
64.98000 4.048
65.00000 3.108
65.02000 1.878
65.04000 1.042
65.06000 -0.308
65.08000 -2.080
65.10000 -1.193
65.12000 -0.896
65.14000 0.056
65.16000 1.321
65.18000 -1.369
65.20000 -0.237
65.22000 1.430
65.24000 -0.427
65.26000 -1.107
65.28000 2.989
65.30000 2.257
65.32000 -0.196
65.34000 0.606
65.36000 -1.324
65.38000 1.588
65.40000 0.166
65.42000 -2.347
65.44000 0.297
65.46000 1.115
65.48000 2.226
65.50000 2.281
65.52000 2.333
65.54000 4.612
65.56000 4.834
65.58000 3.412
65.60000 2.621
65.62000 1.093
65.64000 0.069
65.66000 2.034
65.68000 2.716
65.70000 0.590
65.72000 -1.601
65.74000 0.105
65.76000 -1.951
65.78000 1.408
65.80000 4.785
65.82000 5.079
65.84000 1.199
65.86000 1.719
65.88000 0.776
65.90000 -2.368
65.92000 1.586
65.94000 1.821
65.96000 1.593
65.98000 2.379
66.00000 2.180
66.02000 2.580
66.04000 -0.922
66.06000 0.852
66.08000 1.633
66.10000 -0.968
66.12000 0.157
66.14000 1.363
66.16000 3.964
66.18000 4.893
66.20000 3.695
66.22000 0.270
66.24000 -0.124
66.26000 1.506
66.28000 2.589
66.30000 2.797
66.32000 2.729
66.34000 0.223
66.36000 -0.274
66.38000 2.847
66.40000 3.262
66.42000 4.044
66.44000 4.496
66.46000 2.976
66.48000 3.829
66.50000 4.966
66.52000 2.442
66.54000 3.097
66.56000 0.969
66.58000 -0.145
66.60000 4.045
66.62000 4.751
66.64000 2.441
66.66000 3.076
66.68000 3.003
66.70000 3.831
66.72000 0.892
66.74000 -0.011
66.76000 -0.724
66.78000 -1.807
66.80000 -0.340
66.82000 4.131
66.84000 6.611
66.86000 5.434
66.88000 6.316
66.90000 4.054
66.92000 4.903
66.94000 5.182
66.96000 6.572
66.98000 5.556
67.00000 7.945
67.02000 7.581
67.04000 8.651
67.06000 9.418
67.08000 9.963
67.10000 10.657
67.12000 10.725
67.14000 7.761
67.16000 9.385
67.18000 8.597
67.20000 7.450
67.22000 10.564
67.24000 12.469
67.26000 10.753
67.28000 10.558
67.30000 9.348
67.32000 14.646
67.34000 13.064
67.36000 10.808
67.38000 11.791
67.40000 9.346
67.42000 12.069
67.44000 12.037
67.46000 13.585
67.48000 12.538
67.50000 10.430
67.52000 12.494
67.54000 16.577
67.56000 16.215
67.58000 15.498
67.60000 17.286
67.62000 14.188
67.64000 13.434
67.66000 15.210
67.68000 13.741
67.70000 14.625
67.72000 16.042
67.74000 15.954
67.76000 20.045
67.78000 17.579
67.80000 14.162
67.82000 14.936
67.84000 16.112
67.86000 13.937
67.88000 12.483
67.90000 16.210
67.92000 16.435
67.94000 15.506
67.96000 13.416
67.98000 10.635
68.00000 9.925
68.02000 12.631
68.04000 13.684
68.06000 11.915
68.08000 13.536
68.10000 10.819
68.12000 13.659
68.14000 14.154
68.16000 11.876
68.18000 9.775
68.20000 10.365
68.22000 12.054
68.24000 12.694
68.26000 10.319
68.28000 7.613
68.30000 6.541
68.32000 7.369
68.34000 7.907
68.36000 8.155
68.38000 9.350
68.40000 9.467
68.42000 8.108
68.44000 11.001
68.46000 9.516
68.48000 7.973
68.50000 5.040
68.52000 4.952
68.54000 7.255
68.56000 5.983
68.58000 5.692
68.60000 4.426
68.62000 5.330
68.64000 5.058
68.66000 1.589
68.68000 1.292
68.70000 2.372
68.72000 3.517
68.74000 2.216
68.76000 3.917
68.78000 3.950
68.80000 2.116
68.82000 3.515
68.84000 2.796
68.86000 1.502
68.88000 2.454
68.90000 1.469
68.92000 1.490
68.94000 1.588
68.96000 1.995
68.98000 2.141
69.00000 -0.429
69.02000 0.386
69.04000 0.873
69.06000 1.627
69.08000 0.711
69.10000 -2.231
69.12000 0.894
69.14000 0.723
69.16000 2.045
69.18000 3.092
69.20000 2.420
69.22000 1.951
69.24000 -0.208
69.26000 4.281
69.28000 3.247
69.30000 -0.438
69.32000 0.692
69.34000 0.634
69.36000 0.707
69.38000 0.705
69.40000 0.389
69.42000 0.772
69.44000 2.650
69.46000 0.375
69.48000 -0.422
69.50000 -0.740
69.52000 3.127
69.54000 0.993
69.56000 2.625
69.58000 1.277
69.60000 2.366
69.62000 3.788
69.64000 3.044
69.66000 -0.218
69.68000 -0.389
69.70000 0.197
69.72000 -0.599
69.74000 0.522
69.76000 0.767
69.78000 -0.992
69.80000 2.036
69.82000 -1.115
69.84000 -0.897
69.86000 1.926
69.88000 0.053
69.90000 3.885
69.92000 4.802
69.94000 1.313
69.96000 -2.159
69.98000 -1.107
70.00000 2.304
70.02000 1.123
70.04000 -0.137
70.06000 1.545
70.08000 1.439
70.10000 -1.348
70.12000 -0.793
70.14000 0.262
70.16000 -0.563
70.18000 2.223
70.20000 1.723
70.22000 1.745
70.24000 1.913
70.26000 3.435
70.28000 2.073
70.30000 0.982
70.32000 1.405
70.34000 3.191
70.36000 4.712
70.38000 0.936
70.40000 2.081
70.42000 1.224
70.44000 2.364
70.46000 2.577
70.48000 -0.667
70.50000 1.047
70.52000 0.908
70.54000 2.518
70.56000 2.306
70.58000 -0.378
70.60000 -0.051
70.62000 2.341
70.64000 1.820
70.66000 1.240
70.68000 0.485
70.70000 0.321
70.72000 2.555
70.74000 0.591
70.76000 2.744
70.78000 3.081
70.80000 0.983
70.82000 0.185
70.84000 -0.917
70.86000 0.118
70.88000 -2.132
70.90000 -0.204
70.92000 1.102
70.94000 2.107
70.96000 1.405
70.98000 -1.047
71.00000 -0.948
71.02000 -0.638
71.04000 -1.837
71.06000 -0.566
71.08000 -0.661
71.10000 -0.200
71.12000 4.634
71.14000 3.307
71.16000 -0.239
71.18000 -0.906
71.20000 -0.832
71.22000 -1.471
71.24000 3.431
71.26000 3.389
71.28000 0.559
71.30000 2.024
71.32000 1.542
71.34000 1.283
71.36000 0.878
71.38000 0.812
71.40000 -0.077
71.42000 -2.107
71.44000 -0.578
71.46000 0.630
71.48000 1.866
71.50000 3.170
71.52000 4.630
71.54000 4.642
71.56000 7.169
71.58000 7.385
71.60000 4.317
71.62000 -0.643
71.64000 1.784
71.66000 0.563
71.68000 1.696
71.70000 3.157
71.72000 2.705
71.74000 1.315
71.76000 1.463
71.78000 -1.829
71.80000 0.198
71.82000 6.871
71.84000 4.707
71.86000 2.299
71.88000 0.877
71.90000 0.269
71.92000 -0.913
71.94000 -1.907
71.96000 1.586
71.98000 2.267
72.00000 2.934
72.02000 2.286
72.04000 2.984
72.06000 3.675
72.08000 1.193
72.10000 2.384
72.12000 6.427
72.14000 6.075
72.16000 5.311
72.18000 1.014
72.20000 -1.218
72.22000 -2.042
72.24000 0.027
72.26000 1.683
72.28000 1.181
72.30000 3.004
72.32000 2.166
72.34000 2.759
72.36000 2.959
72.38000 2.970
72.40000 4.514
72.42000 2.923
72.44000 1.277
72.46000 -0.152
72.48000 3.506
72.50000 5.903
72.52000 3.704
72.54000 3.409
72.56000 4.260
72.58000 2.509
72.60000 4.457
72.62000 2.762
72.64000 0.562
72.66000 3.112
72.68000 5.346
72.70000 5.344
72.72000 5.011
72.74000 3.687
72.76000 2.026
72.78000 -0.824
72.80000 -2.012
72.82000 4.365
72.84000 5.982
72.86000 3.451
72.88000 5.410
72.90000 8.075
72.92000 5.705
72.94000 2.978
72.96000 1.696
72.98000 2.015
73.00000 2.919
73.02000 3.470
73.04000 3.677
73.06000 0.520
73.08000 1.793
73.10000 3.877
73.12000 3.661
73.14000 4.366
73.16000 5.898
73.18000 3.179
73.20000 4.388
73.22000 3.658
73.24000 3.503
73.26000 1.798
73.28000 -2.033
73.30000 0.437
73.32000 0.241
73.34000 2.420
73.36000 4.633
73.38000 2.259
73.40000 -0.017
73.42000 0.081
73.44000 -1.235
73.46000 -1.452
73.48000 -1.948
73.50000 1.999
73.52000 3.886
73.54000 1.637
73.56000 0.188
73.58000 1.151
73.60000 2.663
73.62000 1.146
73.64000 -1.618
73.66000 1.593
73.68000 1.342
73.70000 1.385
73.72000 3.609
73.74000 5.243
73.76000 2.982
73.78000 0.225
73.80000 -0.269
73.82000 3.836
73.84000 4.079
73.86000 3.919
73.88000 1.017
73.90000 -0.700
73.92000 0.680
73.94000 0.093
73.96000 1.572
73.98000 1.118
74.00000 -0.483
74.02000 -0.854
74.04000 -0.135
74.06000 -0.255
74.08000 -2.050
74.10000 -0.782
74.12000 3.674
74.14000 3.916
74.16000 0.343
74.18000 -0.588
74.20000 2.526
74.22000 2.786
74.24000 2.472
74.26000 4.974
74.28000 3.679
74.30000 -0.515
74.32000 0.300
74.34000 2.596
74.36000 0.497
74.38000 -1.635
74.40000 -1.978
74.42000 2.160
74.44000 1.388
74.46000 -1.704
74.48000 -0.169
74.50000 0.727
74.52000 -0.148
74.54000 0.914
74.56000 2.713
74.58000 1.542
74.60000 2.387
74.62000 -1.731
74.64000 -1.891
74.66000 1.721
74.68000 3.445
74.70000 -1.286
74.72000 2.711
74.74000 1.553
74.76000 1.846
74.78000 2.892
74.80000 0.660
74.82000 -2.029
74.84000 0.896
74.86000 1.771
74.88000 0.802
74.90000 2.036
74.92000 2.453
74.94000 3.887
74.96000 3.827
74.98000 4.548
75.00000 5.806
75.02000 5.330
75.04000 1.049
75.06000 1.010
75.08000 3.364
75.10000 5.638
75.12000 1.704
75.14000 -0.085
75.16000 1.495
75.18000 1.784
75.20000 0.949
75.22000 0.143
75.24000 -0.335
75.26000 0.834
75.28000 3.442
75.30000 3.541
75.32000 4.889
75.34000 5.028
75.36000 -1.093
75.38000 1.442
75.40000 3.034
75.42000 -0.518
75.44000 -1.229
75.46000 -1.436
75.48000 -1.334
75.50000 -0.118
75.52000 2.306
75.54000 3.752
75.56000 1.370
75.58000 2.736
75.60000 1.628
75.62000 -1.031
75.64000 1.933
75.66000 1.001
75.68000 1.055
75.70000 1.801
75.72000 2.503
75.74000 2.169
75.76000 3.250
75.78000 -0.268
75.80000 -1.657
75.82000 -2.027
75.84000 1.385
75.86000 2.477
75.88000 3.790
75.90000 2.603
75.92000 6.902
75.94000 5.852
75.96000 4.443
75.98000 1.175
76.00000 2.257
76.02000 1.942
76.04000 1.600
76.06000 -2.030
76.08000 -1.000
76.10000 0.505
76.12000 1.507
76.14000 3.049
76.16000 1.223
76.18000 0.603
76.20000 1.934
76.22000 2.273
76.24000 2.100
76.26000 2.934
76.28000 3.437
76.30000 2.619
76.32000 2.553
76.34000 0.180
76.36000 2.938
76.38000 2.468
76.40000 2.015
76.42000 0.319
76.44000 0.717
76.46000 0.904
76.48000 1.689
76.50000 3.349
76.52000 4.590
76.54000 0.612
76.56000 -0.294
76.58000 1.094
76.60000 2.082
76.62000 1.076
76.64000 0.651
76.66000 2.311
76.68000 1.984
76.70000 0.913
76.72000 3.070
76.74000 1.401
76.76000 0.404
76.78000 3.105
76.80000 1.241
76.82000 0.449
76.84000 -0.003
76.86000 -1.958
76.88000 0.289
76.90000 -0.919
76.92000 0.399
76.94000 2.245
76.96000 1.521
76.98000 2.040
77.00000 0.051
77.02000 -1.197
77.04000 1.746
77.06000 -0.699
77.08000 0.804
77.10000 -0.126
77.12000 1.434
77.14000 2.819
77.16000 3.786
77.18000 5.101
77.20000 1.347
77.22000 0.761
77.24000 3.442
77.26000 -0.310
77.28000 0.597
77.30000 0.480
77.32000 -0.696
77.34000 -1.837
77.36000 0.831
77.38000 2.496
77.40000 2.846
77.42000 0.931
77.44000 0.084
77.46000 -0.958
77.48000 -0.393
77.50000 -0.204
77.52000 3.674
77.54000 2.344
77.56000 -1.223
77.58000 2.596
77.60000 3.763
77.62000 4.709
77.64000 -0.659
77.66000 -2.049
77.68000 -0.658
77.70000 3.251
77.72000 5.013
77.74000 1.375
77.76000 0.483
77.78000 -0.456
77.80000 0.379
77.82000 0.094
77.84000 2.080
77.86000 0.782
77.88000 1.252
77.90000 5.186
77.92000 5.333
77.94000 4.993
77.96000 5.191
77.98000 2.916
78.00000 4.258
78.02000 4.038
78.04000 5.076
78.06000 4.130
78.08000 1.552
78.10000 2.181
78.12000 1.065
78.14000 1.342
78.16000 0.752
78.18000 1.029
78.20000 1.447
78.22000 1.789
78.24000 -2.070
78.26000 -1.611
78.28000 -0.493
78.30000 0.922
78.32000 1.988
78.34000 0.075
78.36000 4.131
78.38000 6.722
78.40000 4.168
78.42000 3.194
78.44000 0.065
78.46000 -1.347
78.48000 -0.685
78.50000 1.514
78.52000 1.399
78.54000 0.377
78.56000 4.777
78.58000 5.346
78.60000 4.519
78.62000 4.753
78.64000 3.024
78.66000 4.781
78.68000 3.884
78.70000 1.797
78.72000 3.920
78.74000 1.828
78.76000 1.878
78.78000 1.359
78.80000 0.134
78.82000 0.873
78.84000 2.268
78.86000 -2.101
78.88000 1.008
78.90000 1.826
78.92000 5.426
78.94000 3.687
78.96000 2.287
78.98000 -0.448
79.00000 0.039
79.02000 1.988
79.04000 1.154
79.06000 -1.734
79.08000 -1.561
79.10000 2.100
79.12000 2.017
79.14000 -0.429
79.16000 -0.407
79.18000 4.893
79.20000 0.492
79.22000 -1.132
79.24000 0.694
79.26000 1.859
79.28000 4.611
79.30000 1.706
79.32000 -0.923
79.34000 -0.527
79.36000 2.902
79.38000 -0.311
79.40000 -1.991
79.42000 -1.049
79.44000 0.399
79.46000 2.575
79.48000 0.325
79.50000 0.862
79.52000 -0.536
79.54000 -1.554
79.56000 1.651
79.58000 4.065
79.60000 1.709
79.62000 1.182
79.64000 1.065
79.66000 0.375
79.68000 -2.166
79.70000 0.741
79.72000 2.995
79.74000 0.571
79.76000 1.058
79.78000 -0.620
79.80000 -0.719
79.82000 0.166
79.84000 2.472
79.86000 4.477
79.88000 0.987
79.90000 4.611
79.92000 6.168
79.94000 5.686
79.96000 3.857
79.98000 4.818
80.00000 2.726
80.02000 1.648
80.04000 1.148
80.06000 3.407
80.08000 2.559
80.10000 2.365
80.12000 2.620
80.14000 4.237
80.16000 5.149
80.18000 -1.370
80.20000 -0.732
80.22000 2.222
80.24000 5.322
80.26000 3.710
80.28000 1.707
80.30000 0.991
80.32000 2.585
80.34000 3.772
80.36000 2.130
80.38000 4.698
80.40000 2.702
80.42000 3.230
80.44000 6.017
80.46000 4.082
80.48000 0.922
80.50000 1.720
80.52000 5.392
80.54000 4.679
80.56000 2.052
80.58000 0.274
80.60000 0.974
80.62000 0.728
80.64000 1.008
80.66000 2.353
80.68000 6.491
80.70000 4.370
80.72000 6.589
80.74000 7.364
80.76000 9.551
80.78000 12.468
80.80000 9.205
80.82000 12.096
80.84000 10.649
80.86000 9.208
80.88000 5.607
80.90000 10.901
80.92000 10.689
80.94000 8.741
80.96000 5.866
80.98000 5.303
81.00000 6.570
81.02000 10.804
81.04000 12.133
81.06000 9.404
81.08000 9.085
81.10000 7.864
81.12000 9.345
81.14000 10.860
81.16000 12.729
81.18000 11.024
81.20000 7.044
81.22000 9.382
81.24000 15.070
81.26000 17.358
81.28000 16.154
81.30000 16.099
81.32000 17.291
81.34000 13.191
81.36000 10.581
81.38000 11.227
81.40000 15.737
81.42000 17.387
81.44000 18.954
81.46000 20.965
81.48000 17.971
81.50000 18.618
81.52000 23.927
81.54000 18.660
81.56000 18.333
81.58000 22.673
81.60000 17.267
81.62000 15.162
81.64000 19.886
81.66000 21.819
81.68000 21.390
81.70000 18.853
81.72000 20.926
81.74000 20.884
81.76000 23.100
81.78000 21.348
81.80000 19.706
81.82000 18.296
81.84000 20.303
81.86000 22.526
81.88000 25.370
81.90000 22.503
81.92000 19.329
81.94000 20.201
81.96000 18.404
81.98000 14.581
82.00000 12.273
82.02000 18.267
82.04000 20.954
82.06000 16.109
82.08000 16.020
82.10000 16.278
82.12000 13.702
82.14000 12.771
82.16000 13.313
82.18000 13.602
82.20000 16.303
82.22000 15.519
82.24000 12.471
82.26000 11.909
82.28000 12.893
82.30000 11.396
82.32000 12.705
82.34000 10.660
82.36000 11.663
82.38000 8.443
82.40000 10.357
82.42000 9.698
82.44000 12.720
82.46000 12.919
82.48000 12.378
82.50000 9.316
82.52000 11.110
82.54000 12.530
82.56000 10.143
82.58000 7.613
82.60000 5.452
82.62000 4.522
82.64000 7.095
82.66000 6.436
82.68000 8.011
82.70000 6.821
82.72000 5.613
82.74000 4.323
82.76000 5.548
82.78000 7.542
82.80000 4.376
82.82000 3.507
82.84000 1.559
82.86000 2.325
82.88000 1.108
82.90000 3.015
82.92000 2.221
82.94000 1.879
82.96000 0.443
82.98000 2.211
83.00000 0.820
83.02000 3.579
83.04000 2.636
83.06000 0.935
83.08000 0.857
83.10000 3.261
83.12000 2.784
83.14000 2.705
83.16000 4.760
83.18000 3.126
83.20000 3.941
83.22000 2.024
83.24000 1.575
83.26000 -0.311
83.28000 0.687
83.30000 -2.225
83.32000 0.712
83.34000 0.952
83.36000 0.153
83.38000 -1.154
83.40000 1.767
83.42000 2.834
83.44000 1.428
83.46000 1.890
83.48000 1.417
83.50000 -0.007
83.52000 -2.212
83.54000 3.347
83.56000 4.614
83.58000 2.460
83.60000 0.842
83.62000 4.222
83.64000 5.453
83.66000 -1.535
83.68000 0.241
83.70000 2.012
83.72000 2.054
83.74000 -0.211
83.76000 -1.620
83.78000 -0.896
83.80000 -1.187
83.82000 -1.745
83.84000 0.316
83.86000 -0.792
83.88000 1.127
83.90000 -0.840
83.92000 -0.649
83.94000 2.516
83.96000 3.965
83.98000 1.402
84.00000 0.505
84.02000 0.734
84.04000 1.191
84.06000 3.819
84.08000 0.734
84.10000 1.676
84.12000 2.929
84.14000 -0.212
84.16000 -0.073
84.18000 3.473
84.20000 1.589
84.22000 2.069
84.24000 2.782
84.26000 1.870
84.28000 -2.134
84.30000 -2.189
84.32000 -1.185
84.34000 1.216
84.36000 0.977
84.38000 4.969
84.40000 2.715
84.42000 3.350
84.44000 1.645
84.46000 2.664
84.48000 2.704
84.50000 5.715
84.52000 2.945
84.54000 2.874
84.56000 1.778
84.58000 5.471
84.60000 6.532
84.62000 4.712
84.64000 2.736
84.66000 5.159
84.68000 6.600
84.70000 3.450
84.72000 7.230
84.74000 9.895
84.76000 10.908
84.78000 7.726
84.80000 3.276
84.82000 2.104
84.84000 6.516
84.86000 6.382
84.88000 5.506
84.90000 7.140
84.92000 6.437
84.94000 7.188
84.96000 9.203
84.98000 8.163
85.00000 8.612
85.02000 9.542
85.04000 8.841
85.06000 7.303
85.08000 11.250
85.10000 10.072
85.12000 12.254
85.14000 12.350
85.16000 9.712
85.18000 15.477
85.20000 17.776
85.22000 18.740
85.24000 16.762
85.26000 15.237
85.28000 16.410
85.30000 18.038
85.32000 17.926
85.34000 17.960
85.36000 15.783
85.38000 19.485
85.40000 18.144
85.42000 20.136
85.44000 22.342
85.46000 23.921
85.48000 20.286
85.50000 17.691
85.52000 23.232
85.54000 22.982
85.56000 22.542
85.58000 20.360
85.60000 20.607
85.62000 23.201
85.64000 25.978
85.66000 23.003
85.68000 22.759
85.70000 22.218
85.72000 22.835
85.74000 25.872
85.76000 24.756
85.78000 19.960
85.80000 25.659
85.82000 28.832
85.84000 27.253
85.86000 26.944
85.88000 24.280
85.90000 24.673
85.92000 23.730
85.94000 25.055
85.96000 29.616
85.98000 25.914
86.00000 24.481
86.02000 24.451
86.04000 24.837
86.06000 21.994
86.08000 24.130
86.10000 21.444
86.12000 19.942
86.14000 23.581
86.16000 19.586
86.18000 20.611
86.20000 19.626
86.22000 17.231
86.24000 18.811
86.26000 15.176
86.28000 16.421
86.30000 16.854
86.32000 14.088
86.34000 13.966
86.36000 13.559
86.38000 10.658
86.40000 12.849
86.42000 11.901
86.44000 9.542
86.46000 10.522
86.48000 12.910
86.50000 10.081
86.52000 11.110
86.54000 10.094
86.56000 8.335
86.58000 7.447
86.60000 5.534
86.62000 3.942
86.64000 6.343
86.66000 8.965
86.68000 6.706
86.70000 5.273
86.72000 4.074
86.74000 4.692
86.76000 4.770
86.78000 4.897
86.80000 7.084
86.82000 3.770
86.84000 3.652
86.86000 3.527
86.88000 0.305
86.90000 0.155
86.92000 2.147
86.94000 -1.466
86.96000 -2.115
86.98000 1.732
87.00000 4.256
87.02000 2.489
87.04000 4.113
87.06000 3.361
87.08000 3.371
87.10000 2.790
87.12000 5.105
87.14000 2.463
87.16000 1.652
87.18000 3.065
87.20000 -0.761
87.22000 1.117
87.24000 0.919
87.26000 -0.048
87.28000 0.938
87.30000 -0.389
87.32000 -0.079
87.34000 3.137
87.36000 4.744
87.38000 4.059
87.40000 1.844
87.42000 1.425
87.44000 0.770
87.46000 -1.467
87.48000 0.769
87.50000 4.260
87.52000 3.646
87.54000 2.620
87.56000 2.588
87.58000 0.807
87.60000 -2.000
87.62000 0.325
87.64000 2.047
87.66000 1.018
87.68000 -0.271
87.70000 1.738
87.72000 3.318
87.74000 2.988
87.76000 5.401
87.78000 3.012
87.80000 0.702
87.82000 -0.316
87.84000 0.280
87.86000 2.213
87.88000 2.099
87.90000 3.783
87.92000 2.816
87.94000 3.917
87.96000 1.395
87.98000 1.579
88.00000 0.318
88.02000 1.325
88.04000 1.102
88.06000 0.532
88.08000 1.388
88.10000 -0.005
88.12000 4.622
88.14000 3.852
88.16000 0.822
88.18000 1.873
88.20000 4.560
88.22000 2.850
88.24000 0.579
88.26000 -0.887
88.28000 2.206
88.30000 1.958
88.32000 1.268
88.34000 -0.511
88.36000 -1.246
88.38000 1.727
88.40000 1.642
88.42000 1.573
88.44000 1.720
88.46000 0.078
88.48000 3.082
88.50000 3.716
88.52000 4.077
88.54000 0.199
88.56000 -1.935
88.58000 2.097
88.60000 2.136
88.62000 3.747
88.64000 5.341
88.66000 3.977
88.68000 3.791
88.70000 2.472
88.72000 -1.208
88.74000 -1.004
88.76000 0.347
88.78000 -1.260
88.80000 -1.937
88.82000 -1.269
88.84000 2.014
88.86000 -1.160
88.88000 -1.108
88.90000 0.102
88.92000 3.899
88.94000 4.782
88.96000 1.872
88.98000 2.437
89.00000 5.721
89.02000 -1.551
89.04000 -1.667
89.06000 0.173
89.08000 -0.556
89.10000 1.531
89.12000 0.617
89.14000 1.363
89.16000 3.406
89.18000 3.447
89.20000 -1.541
89.22000 -1.240
89.24000 4.923
89.26000 5.156
89.28000 1.456
89.30000 1.146
89.32000 0.631
89.34000 -1.593
89.36000 0.684
89.38000 0.338
89.40000 1.118
89.42000 2.776
89.44000 0.743
89.46000 0.276
89.48000 -1.791
89.50000 -0.312
89.52000 2.691
89.54000 1.212
89.56000 2.146
89.58000 0.107
89.60000 1.065
89.62000 0.150
89.64000 1.992
89.66000 0.173
89.68000 2.659
89.70000 4.963
89.72000 3.751
89.74000 0.028
89.76000 3.183
89.78000 2.994
89.80000 2.318
89.82000 -1.027
89.84000 -1.911
89.86000 -1.627
89.88000 1.191
89.90000 2.505
89.92000 0.329
89.94000 1.599
89.96000 3.307
89.98000 0.412
90.00000 -0.120
90.02000 3.145
90.04000 4.300
90.06000 3.969
90.08000 2.055
90.10000 0.977
90.12000 1.422
90.14000 1.185
90.16000 3.572
90.18000 7.005
90.20000 4.869
90.22000 2.512
90.24000 -0.839
90.26000 -1.901
90.28000 3.150
90.30000 1.986
90.32000 -0.263
90.34000 0.045
90.36000 3.118
90.38000 3.890
90.40000 2.114
90.42000 0.772
90.44000 2.816
90.46000 0.724
90.48000 3.506
90.50000 3.150
90.52000 -1.147
90.54000 0.829
90.56000 1.356
90.58000 -0.379
90.60000 -0.179
90.62000 0.129
90.64000 1.136
90.66000 2.537
90.68000 -0.931
90.70000 3.461
90.72000 4.032
90.74000 3.900
90.76000 2.495
90.78000 3.201
90.80000 6.606
90.82000 2.502
90.84000 0.839
90.86000 1.292
90.88000 0.318
90.90000 1.795
90.92000 4.161
90.94000 3.901
90.96000 4.303
90.98000 1.472
91.00000 -1.915
91.02000 3.899
91.04000 4.597
91.06000 3.119
91.08000 -1.380
91.10000 -0.816
91.12000 1.650
91.14000 1.592
91.16000 2.038
91.18000 3.575
91.20000 1.554
91.22000 -0.939
91.24000 0.997
91.26000 3.478
91.28000 4.213
91.30000 2.584
91.32000 5.482
91.34000 3.612
91.36000 4.035
91.38000 1.251
91.40000 -0.352
91.42000 1.381
91.44000 3.023
91.46000 2.283
91.48000 2.130
91.50000 1.327
91.52000 1.652
91.54000 0.901
91.56000 1.513
91.58000 0.856
91.60000 -1.912
91.62000 -1.906
91.64000 0.164
91.66000 1.822
91.68000 2.991
91.70000 4.708
91.72000 3.662
91.74000 5.135
91.76000 -1.085
91.78000 -1.582
91.80000 3.878
91.82000 1.993
91.84000 2.587
91.86000 3.074
91.88000 4.012
91.90000 2.486
91.92000 -0.678
91.94000 -1.612
91.96000 2.966
91.98000 4.971
92.00000 0.584
92.02000 -1.917
92.04000 1.379
92.06000 1.655
92.08000 0.646
92.10000 -0.574
92.12000 -1.590
92.14000 0.825
92.16000 2.730
92.18000 4.097
92.20000 1.284
92.22000 1.085
92.24000 1.334
92.26000 -0.044
92.28000 -1.861
92.30000 -1.923
92.32000 1.832
92.34000 0.121
92.36000 1.210
92.38000 2.962
92.40000 2.254
92.42000 4.637
92.44000 0.874
92.46000 -0.362
92.48000 -1.581
92.50000 0.832
92.52000 2.991
92.54000 0.067
92.56000 2.871
92.58000 4.549
92.60000 0.505
92.62000 1.468
92.64000 0.224
92.66000 3.434
92.68000 5.649
92.70000 6.150
92.72000 3.584
92.74000 0.500
92.76000 1.289
92.78000 4.233
92.80000 4.717
92.82000 2.610
92.84000 -1.037
92.86000 -1.284
92.88000 -0.685
92.90000 -0.480
92.92000 5.138
92.94000 4.812
92.96000 1.729
92.98000 -1.764
93.00000 0.729
93.02000 -1.932
93.04000 -0.116
93.06000 0.621
93.08000 2.611
93.10000 1.772
93.12000 2.897
93.14000 2.071
93.16000 -1.314
93.18000 1.528
93.20000 6.407
93.22000 2.843
93.24000 3.491
93.26000 4.398
93.28000 2.930
93.30000 -0.214
93.32000 2.151
93.34000 2.668
93.36000 6.279
93.38000 7.590
93.40000 1.644
93.42000 2.179
93.44000 2.894
93.46000 4.890
93.48000 3.267
93.50000 -1.934
93.52000 -1.030
93.54000 -0.651
93.56000 -0.685
93.58000 -0.118
93.60000 -0.239
93.62000 -0.426
93.64000 0.219
93.66000 0.925
93.68000 0.861
93.70000 3.485
93.72000 -0.123
93.74000 -1.929
93.76000 0.048
93.78000 3.489
93.80000 3.125
93.82000 2.033
93.84000 1.281
93.86000 0.997
93.88000 2.319
93.90000 1.925
93.92000 3.200
93.94000 3.501
93.96000 0.572
93.98000 2.804
94.00000 1.088
94.02000 1.170
94.04000 1.167
94.06000 1.451
94.08000 3.914
94.10000 2.436
94.12000 3.003
94.14000 2.027
94.16000 3.203
94.18000 3.425
94.20000 1.486
94.22000 1.182
94.24000 2.412
94.26000 3.802
94.28000 -0.110
94.30000 0.016
94.32000 0.580
94.34000 -0.783
94.36000 -1.391
94.38000 1.397
94.40000 3.914
94.42000 0.933
94.44000 3.381
94.46000 5.884
94.48000 6.964
94.50000 3.887
94.52000 5.624
94.54000 6.129
94.56000 3.822
94.58000 4.594
94.60000 6.576
94.62000 5.908
94.64000 4.477
94.66000 5.507
94.68000 3.370
94.70000 1.450
94.72000 -1.865
94.74000 -0.754
94.76000 7.463
94.78000 7.550
94.80000 4.014
94.82000 2.700
94.84000 4.311
94.86000 6.090
94.88000 4.248
94.90000 2.168
94.92000 0.892
94.94000 1.093
94.96000 5.617
94.98000 7.440
95.00000 3.666
95.02000 6.470
95.04000 7.470
95.06000 4.541
95.08000 1.053
95.10000 2.410
95.12000 2.758
95.14000 -0.209
95.16000 3.146
95.18000 8.149
95.20000 6.946
95.22000 7.120
95.24000 1.969
95.26000 2.189
95.28000 -0.015
95.30000 2.154
95.32000 1.957
95.34000 3.740
95.36000 3.269
95.38000 6.558
95.40000 3.674
95.42000 4.429
95.44000 3.147
95.46000 2.367
95.48000 3.796
95.50000 3.517
95.52000 3.308
95.54000 5.612
95.56000 2.718
95.58000 1.145
95.60000 4.341
95.62000 4.557
95.64000 1.617
95.66000 6.926
95.68000 5.276
95.70000 5.113
95.72000 6.090
95.74000 7.945
95.76000 4.331
95.78000 4.605
95.80000 3.069
95.82000 1.118
95.84000 2.130
95.86000 2.971
95.88000 -1.878
95.90000 0.698
95.92000 2.467
95.94000 1.264
95.96000 0.407
95.98000 1.562
96.00000 4.320
96.02000 1.241
96.04000 1.517
96.06000 -0.361
96.08000 1.838
96.10000 1.510
96.12000 5.100
96.14000 5.647
96.16000 7.988
96.18000 4.523
96.20000 1.884
96.22000 5.632
96.24000 1.420
96.26000 6.819
96.28000 8.743
96.30000 3.222
96.32000 4.538
96.34000 1.817
96.36000 1.651
96.38000 7.463
96.40000 7.650
96.42000 6.224
96.44000 0.440
96.46000 0.880
96.48000 3.628
96.50000 1.899
96.52000 -0.922
96.54000 0.746
96.56000 0.842
96.58000 3.166
96.60000 2.123
96.62000 0.618
96.64000 1.427
96.66000 -0.788
96.68000 2.824
96.70000 5.136
96.72000 3.040
96.74000 3.788
96.76000 5.298
96.78000 2.495
96.80000 3.186
96.82000 3.313
96.84000 0.550
96.86000 2.996
96.88000 -0.029
96.90000 1.881
96.92000 1.333
96.94000 3.297
96.96000 2.187
96.98000 5.279
97.00000 7.103
97.02000 6.723
97.04000 8.290
97.06000 5.468
97.08000 6.751
97.10000 10.508
97.12000 6.471
97.14000 4.367
97.16000 3.185
97.18000 7.452
97.20000 1.078
97.22000 2.252
97.24000 8.868
97.26000 8.032
97.28000 2.369
97.30000 -1.001
97.32000 6.095
97.34000 1.090
97.36000 6.015
97.38000 10.418
97.40000 3.368
97.42000 1.604
97.44000 1.171
97.46000 0.894
97.48000 2.277
97.50000 5.576
97.52000 7.550
97.54000 6.483
97.56000 5.723
97.58000 5.868
97.60000 8.284
97.62000 4.714
97.64000 6.763
97.66000 1.590
97.68000 0.130
97.70000 6.536
97.72000 10.549
97.74000 8.006
97.76000 5.183
97.78000 7.677
97.80000 3.507
97.82000 -1.833
97.84000 1.197
97.86000 6.350
97.88000 6.121
97.90000 6.128
97.92000 8.402
97.94000 7.625
97.96000 4.142
97.98000 4.061
98.00000 1.394
98.02000 3.583
98.04000 1.238
98.06000 4.911
98.08000 6.011
98.10000 9.646
98.12000 2.846
98.14000 6.660
98.16000 4.856
98.18000 1.392
98.20000 6.142
98.22000 3.255
98.24000 1.543
98.26000 3.676
98.28000 4.289
98.30000 6.230
98.32000 7.691
98.34000 4.953
98.36000 6.025
98.38000 2.212
98.40000 -0.428
98.42000 -0.655
98.44000 -0.282
98.46000 0.821
98.48000 3.450
98.50000 0.553
98.52000 1.322
98.54000 2.921
98.56000 2.782
98.58000 3.780
98.60000 3.432
98.62000 -1.860
98.64000 0.095
98.66000 3.641
98.68000 1.177
98.70000 1.686
98.72000 3.848
98.74000 6.573
98.76000 5.796
98.78000 1.377
98.80000 2.040
98.82000 4.183
98.84000 1.380
98.86000 2.800
98.88000 2.890
98.90000 4.132
98.92000 0.837
98.94000 1.340
98.96000 -1.862
98.98000 0.662
99.00000 1.217
99.02000 -1.510
99.04000 3.602
99.06000 2.132
99.08000 5.743
99.10000 0.777
99.12000 3.675
99.14000 3.430
99.16000 5.883
99.18000 9.460
99.20000 8.437
99.22000 6.315
99.24000 5.356
99.26000 3.867
99.28000 1.907
99.30000 7.642
99.32000 5.782
99.34000 5.177
99.36000 2.208
99.38000 -0.685
99.40000 1.355
99.42000 1.141
99.44000 0.661
99.46000 0.374
99.48000 -0.414
99.50000 1.918
99.52000 5.405
99.54000 1.811
99.56000 5.357
99.58000 5.068
99.60000 -1.367
99.62000 -0.068
99.64000 -1.898
99.66000 -0.750
99.68000 5.412
99.70000 6.499
99.72000 -0.102
99.74000 6.309
99.76000 8.960
99.78000 6.557
99.80000 1.916
99.82000 6.493
99.84000 11.296
99.86000 5.938
99.88000 7.220
99.90000 9.542
99.92000 2.849
99.94000 6.533
99.96000 3.136
99.98000 0.000
