'Id: "0011389" Comment: "Integrate frame 0011389_Au-Ir-Rh_Au-Rich_XRD_Mapping-104-0000.gfrmwith cursor Wedge Cursor #5" Operator: "B?rgel" Anode: "Cu" Wavelength: "1.5406" Scantype: "2Theta (TwoTheta)" TimePerStep: "1" X: "0" Y: "-13.5" Z: "5.95" 
10.00000 0.000
10.02000 21.981
10.04000 20.092
10.06000 29.977
10.08000 6.573
10.10000 15.497
10.12000 22.264
10.14000 33.541
10.16000 29.729
10.18000 6.487
10.20000 3.528
10.22000 3.277
10.24000 -4.136
10.26000 14.011
10.28000 16.258
10.30000 0.270
10.32000 16.348
10.34000 14.225
10.36000 13.253
10.38000 10.358
10.40000 3.216
10.42000 6.323
10.44000 3.780
10.46000 6.303
10.48000 8.040
10.50000 10.559
10.52000 9.379
10.54000 15.343
10.56000 10.653
10.58000 15.325
10.60000 20.772
10.62000 19.369
10.64000 13.104
10.66000 9.890
10.68000 10.186
10.70000 7.480
10.72000 9.409
10.74000 26.178
10.76000 14.961
10.78000 6.886
10.80000 21.775
10.82000 21.387
10.84000 9.285
10.86000 9.983
10.88000 14.087
10.90000 21.077
10.92000 34.183
10.94000 20.146
10.96000 20.135
10.98000 14.656
11.00000 4.450
11.02000 6.406
11.04000 21.552
11.06000 15.810
11.08000 19.668
11.10000 27.460
11.12000 16.505
11.14000 14.801
11.16000 12.893
11.18000 9.477
11.20000 7.496
11.22000 4.764
11.24000 12.711
11.26000 9.946
11.28000 3.998
11.30000 5.206
11.32000 3.318
11.34000 1.306
11.36000 12.368
11.38000 14.066
11.40000 24.442
11.42000 12.672
11.44000 10.130
11.46000 9.277
11.48000 10.275
11.50000 11.506
11.52000 19.716
11.54000 24.489
11.56000 30.665
11.58000 22.181
11.60000 26.025
11.62000 6.974
11.64000 4.120
11.66000 4.410
11.68000 2.830
11.70000 4.406
11.72000 14.202
11.74000 8.785
11.76000 -4.314
11.78000 1.596
11.80000 7.808
11.82000 13.167
11.84000 12.693
11.86000 16.036
11.88000 17.417
11.90000 20.182
11.92000 13.402
11.94000 15.434
11.96000 7.549
11.98000 3.328
12.00000 7.811
12.02000 10.557
12.04000 16.568
12.06000 25.105
12.08000 14.878
12.10000 14.382
12.12000 9.904
12.14000 -3.512
12.16000 6.834
12.18000 8.711
12.20000 0.682
12.22000 0.854
12.24000 14.427
12.26000 19.924
12.28000 12.950
12.30000 9.158
12.32000 12.641
12.34000 6.546
12.36000 7.779
12.38000 15.501
12.40000 7.875
12.42000 -4.379
12.44000 -0.948
12.46000 13.264
12.48000 9.089
12.50000 13.084
12.52000 8.669
12.54000 4.620
12.56000 3.005
12.58000 8.173
12.60000 13.567
12.62000 21.663
12.64000 21.620
12.66000 18.350
12.68000 13.453
12.70000 6.405
12.72000 1.623
12.74000 13.825
12.76000 12.175
12.78000 13.413
12.80000 13.924
12.82000 4.296
12.84000 7.592
12.86000 13.163
12.88000 11.427
12.90000 9.951
12.92000 3.522
12.94000 3.689
12.96000 10.233
12.98000 8.645
13.00000 13.953
13.02000 9.227
13.04000 7.434
13.06000 1.360
13.08000 4.331
13.10000 12.344
13.12000 17.544
13.14000 15.653
13.16000 7.500
13.18000 17.247
13.20000 13.646
13.22000 22.502
13.24000 18.991
13.26000 10.130
13.28000 13.666
13.30000 19.704
13.32000 12.745
13.34000 7.794
13.36000 11.045
13.38000 9.863
13.40000 7.469
13.42000 12.356
13.44000 7.496
13.46000 9.923
13.48000 16.945
13.50000 5.916
13.52000 -0.475
13.54000 8.012
13.56000 6.738
13.58000 5.218
13.60000 4.285
13.62000 5.753
13.64000 1.259
13.66000 4.076
13.68000 12.498
13.70000 3.363
13.72000 2.046
13.74000 6.794
13.76000 11.264
13.78000 12.712
13.80000 3.847
13.82000 3.751
13.84000 16.450
13.86000 9.061
13.88000 8.571
13.90000 4.069
13.92000 5.002
13.94000 19.178
13.96000 16.731
13.98000 14.334
14.00000 7.524
14.02000 7.586
14.04000 0.847
14.06000 2.772
14.08000 5.848
14.10000 6.606
14.12000 11.453
14.14000 4.038
14.16000 -1.767
14.18000 -0.226
14.20000 9.681
14.22000 16.258
14.24000 10.621
14.26000 4.281
14.28000 5.247
14.30000 -1.922
14.32000 1.406
14.34000 1.173
14.36000 -2.450
14.38000 1.987
14.40000 -0.082
14.42000 9.961
14.44000 2.397
14.46000 4.008
14.48000 5.892
14.50000 -2.190
14.52000 -3.634
14.54000 -0.263
14.56000 3.958
14.58000 2.233
14.60000 1.408
14.62000 0.322
14.64000 5.340
14.66000 12.321
14.68000 -0.792
14.70000 -1.196
14.72000 -4.077
14.74000 3.760
14.76000 4.100
14.78000 1.142
14.80000 -0.392
14.82000 9.456
14.84000 4.705
14.86000 -3.783
14.88000 -3.301
14.90000 4.678
14.92000 3.756
14.94000 6.091
14.96000 10.013
14.98000 8.717
15.00000 10.945
15.02000 4.017
15.04000 7.320
15.06000 16.931
15.08000 11.264
15.10000 12.083
15.12000 12.759
15.14000 7.316
15.16000 7.618
15.18000 10.325
15.20000 7.674
15.22000 6.995
15.24000 6.726
15.26000 -0.262
15.28000 6.345
15.30000 6.729
15.32000 2.578
15.34000 6.397
15.36000 8.932
15.38000 -2.915
15.40000 -4.467
15.42000 0.887
15.44000 2.505
15.46000 0.984
15.48000 1.794
15.50000 7.540
15.52000 7.705
15.54000 5.195
15.56000 8.754
15.58000 10.555
15.60000 8.756
15.62000 10.388
15.64000 6.808
15.66000 0.661
15.68000 1.038
15.70000 7.018
15.72000 7.134
15.74000 -0.310
15.76000 1.887
15.78000 2.454
15.80000 4.954
15.82000 8.885
15.84000 -0.644
15.86000 -0.298
15.88000 5.890
15.90000 4.660
15.92000 -1.010
15.94000 0.283
15.96000 3.488
15.98000 3.865
16.00000 -4.373
16.02000 -2.117
16.04000 1.468
16.06000 -2.201
16.08000 -3.611
16.10000 -3.462
16.12000 4.069
16.14000 4.470
16.16000 11.849
16.18000 7.128
16.20000 11.875
16.22000 7.549
16.24000 -0.091
16.26000 7.393
16.28000 13.013
16.30000 11.439
16.32000 12.213
16.34000 5.310
16.36000 0.300
16.38000 3.317
16.40000 2.273
16.42000 11.331
16.44000 10.161
16.46000 9.560
16.48000 4.143
16.50000 -1.127
16.52000 1.880
16.54000 10.898
16.56000 8.558
16.58000 3.645
16.60000 1.861
16.62000 3.295
16.64000 7.483
16.66000 6.458
16.68000 1.002
16.70000 0.545
16.72000 1.029
16.74000 8.210
16.76000 2.741
16.78000 5.720
16.80000 11.455
16.82000 7.036
16.84000 6.611
16.86000 1.039
16.88000 -4.384
16.90000 1.120
16.92000 5.371
16.94000 3.884
16.96000 4.317
16.98000 7.267
17.00000 4.151
17.02000 7.972
17.04000 11.932
17.06000 12.283
17.08000 5.785
17.10000 5.135
17.12000 6.956
17.14000 4.377
17.16000 6.214
17.18000 9.157
17.20000 3.663
17.22000 4.847
17.24000 8.715
17.26000 6.153
17.28000 6.118
17.30000 5.766
17.32000 15.062
17.34000 7.603
17.36000 6.868
17.38000 5.960
17.40000 10.544
17.42000 7.576
17.44000 7.071
17.46000 2.174
17.48000 5.474
17.50000 6.089
17.52000 8.198
17.54000 9.399
17.56000 4.207
17.58000 6.275
17.60000 7.533
17.62000 2.463
17.64000 1.960
17.66000 6.883
17.68000 10.167
17.70000 6.766
17.72000 5.367
17.74000 3.014
17.76000 0.143
17.78000 3.591
17.80000 0.010
17.82000 5.023
17.84000 8.814
17.86000 8.484
17.88000 7.325
17.90000 11.924
17.92000 9.675
17.94000 0.058
17.96000 -3.924
17.98000 -0.322
18.00000 4.014
18.02000 2.649
18.04000 0.861
18.06000 2.082
18.08000 9.363
18.10000 10.832
18.12000 11.475
18.14000 12.639
18.16000 12.507
18.18000 18.346
18.20000 14.185
18.22000 5.692
18.24000 5.795
18.26000 5.360
18.28000 11.273
18.30000 10.478
18.32000 9.638
18.34000 5.079
18.36000 10.173
18.38000 6.915
18.40000 7.044
18.42000 5.307
18.44000 0.485
18.46000 1.465
18.48000 9.573
18.50000 5.812
18.52000 -4.276
18.54000 -0.185
18.56000 7.421
18.58000 4.630
18.60000 -0.545
18.62000 3.914
18.64000 9.445
18.66000 7.556
18.68000 7.833
18.70000 3.228
18.72000 6.659
18.74000 18.509
18.76000 15.854
18.78000 0.526
18.80000 0.467
18.82000 7.999
18.84000 2.802
18.86000 3.703
18.88000 6.843
18.90000 10.983
18.92000 5.595
18.94000 0.607
18.96000 4.578
18.98000 6.730
19.00000 6.465
19.02000 4.828
19.04000 0.954
19.06000 2.049
19.08000 6.334
19.10000 11.250
19.12000 9.340
19.14000 8.890
19.16000 3.091
19.18000 10.062
19.20000 10.262
19.22000 14.386
19.24000 13.109
19.26000 11.520
19.28000 9.844
19.30000 8.987
19.32000 7.795
19.34000 4.188
19.36000 3.410
19.38000 3.834
19.40000 -4.229
19.42000 2.817
19.44000 6.859
19.46000 2.300
19.48000 3.659
19.50000 1.077
19.52000 10.743
19.54000 14.201
19.56000 7.636
19.58000 4.748
19.60000 -0.416
19.62000 2.817
19.64000 7.819
19.66000 4.829
19.68000 0.809
19.70000 4.898
19.72000 6.624
19.74000 5.380
19.76000 8.736
19.78000 11.344
19.80000 3.368
19.82000 1.193
19.84000 0.041
19.86000 2.563
19.88000 7.256
19.90000 11.765
19.92000 15.770
19.94000 9.654
19.96000 2.175
19.98000 4.013
20.00000 -2.168
20.02000 -2.271
20.04000 1.246
20.06000 5.269
20.08000 3.171
20.10000 11.133
20.12000 7.952
20.14000 6.216
20.16000 14.478
20.18000 13.983
20.20000 3.905
20.22000 7.159
20.24000 10.968
20.26000 12.047
20.28000 12.096
20.30000 7.654
20.32000 8.316
20.34000 9.650
20.36000 4.408
20.38000 5.947
20.40000 6.164
20.42000 3.101
20.44000 1.244
20.46000 4.174
20.48000 5.172
20.50000 1.615
20.52000 6.105
20.54000 9.501
20.56000 4.820
20.58000 5.186
20.60000 8.514
20.62000 9.408
20.64000 0.199
20.66000 2.817
20.68000 6.700
20.70000 6.607
20.72000 9.018
20.74000 3.309
20.76000 13.519
20.78000 9.412
20.80000 5.361
20.82000 -4.131
20.84000 1.851
20.86000 3.968
20.88000 6.252
20.90000 7.784
20.92000 6.593
20.94000 4.810
20.96000 2.789
20.98000 2.342
21.00000 6.817
21.02000 7.341
21.04000 9.483
21.06000 5.964
21.08000 12.203
21.10000 11.685
21.12000 10.752
21.14000 6.686
21.16000 8.179
21.18000 6.881
21.20000 11.518
21.22000 10.534
21.24000 5.972
21.26000 0.744
21.28000 6.881
21.30000 3.589
21.32000 1.053
21.34000 -2.538
21.36000 -0.113
21.38000 4.278
21.40000 8.913
21.42000 6.724
21.44000 8.269
21.46000 9.255
21.48000 3.820
21.50000 4.277
21.52000 3.987
21.54000 6.552
21.56000 5.198
21.58000 8.908
21.60000 7.462
21.62000 3.178
21.64000 2.254
21.66000 3.958
21.68000 8.718
21.70000 11.283
21.72000 9.895
21.74000 4.392
21.76000 6.865
21.78000 9.337
21.80000 4.503
21.82000 -0.336
21.84000 1.857
21.86000 3.291
21.88000 4.673
21.90000 6.857
21.92000 7.501
21.94000 7.171
21.96000 -1.750
21.98000 3.844
22.00000 8.231
22.02000 7.744
22.04000 9.694
22.06000 8.410
22.08000 2.351
22.10000 1.237
22.12000 5.380
22.14000 3.760
22.16000 6.598
22.18000 7.098
22.20000 5.641
22.22000 -0.844
22.24000 -4.093
22.26000 0.906
22.28000 1.529
22.30000 1.054
22.32000 0.014
22.34000 -1.105
22.36000 -0.068
22.38000 4.536
22.40000 1.639
22.42000 4.657
22.44000 6.870
22.46000 5.803
22.48000 0.220
22.50000 -1.611
22.52000 7.937
22.54000 8.617
22.56000 1.944
22.58000 6.897
22.60000 12.133
22.62000 6.110
22.64000 7.704
22.66000 0.422
22.68000 0.064
22.70000 9.840
22.72000 5.168
22.74000 -0.892
22.76000 3.289
22.78000 6.827
22.80000 0.021
22.82000 -4.058
22.84000 -1.441
22.86000 3.926
22.88000 1.269
22.90000 -2.501
22.92000 3.370
22.94000 -0.649
22.96000 3.975
22.98000 0.447
23.00000 1.596
23.02000 3.391
23.04000 0.832
23.06000 4.013
23.08000 1.844
23.10000 -3.467
23.12000 -1.809
23.14000 6.617
23.16000 7.199
23.18000 9.717
23.20000 10.831
23.22000 9.217
23.24000 10.673
23.26000 9.121
23.28000 7.900
23.30000 5.290
23.32000 4.389
23.34000 9.330
23.36000 11.863
23.38000 7.160
23.40000 1.680
23.42000 0.100
23.44000 2.148
23.46000 3.598
23.48000 9.537
23.50000 6.946
23.52000 3.587
23.54000 -0.564
23.56000 -2.631
23.58000 1.770
23.60000 2.395
23.62000 -2.693
23.64000 0.653
23.66000 9.225
23.68000 9.616
23.70000 3.220
23.72000 0.653
23.74000 0.733
23.76000 0.075
23.78000 8.691
23.80000 5.199
23.82000 3.875
23.84000 2.421
23.86000 3.311
23.88000 2.457
23.90000 0.160
23.92000 -3.610
23.94000 2.439
23.96000 1.982
23.98000 4.470
24.00000 3.909
24.02000 1.315
24.04000 0.409
24.06000 3.033
24.08000 -0.232
24.10000 1.827
24.12000 1.336
24.14000 -0.637
24.16000 0.833
24.18000 3.411
24.20000 5.076
24.22000 3.496
24.24000 1.626
24.26000 -1.409
24.28000 8.078
24.30000 6.179
24.32000 0.574
24.34000 2.497
24.36000 8.042
24.38000 6.580
24.40000 6.690
24.42000 3.388
24.44000 3.983
24.46000 2.157
24.48000 -2.729
24.50000 2.624
24.52000 7.705
24.54000 6.753
24.56000 7.157
24.58000 5.360
24.60000 -0.949
24.62000 -0.960
24.64000 0.144
24.66000 6.822
24.68000 3.462
24.70000 4.904
24.72000 7.556
24.74000 5.706
24.76000 4.078
24.78000 7.320
24.80000 7.471
24.82000 3.868
24.84000 1.578
24.86000 2.944
24.88000 3.307
24.90000 2.193
24.92000 4.068
24.94000 13.925
24.96000 12.288
24.98000 9.106
25.00000 10.180
25.02000 10.644
25.04000 5.835
25.06000 10.457
25.08000 11.751
25.10000 14.474
25.12000 12.138
25.14000 1.291
25.16000 3.385
25.18000 2.925
25.20000 5.171
25.22000 12.658
25.24000 7.302
25.26000 9.078
25.28000 10.782
25.30000 10.879
25.32000 8.441
25.34000 7.472
25.36000 5.115
25.38000 -3.848
25.40000 2.605
25.42000 9.308
25.44000 12.670
25.46000 18.344
25.48000 13.306
25.50000 12.108
25.52000 15.023
25.54000 12.340
25.56000 5.066
25.58000 4.446
25.60000 7.822
25.62000 9.412
25.64000 9.633
25.66000 11.319
25.68000 5.927
25.70000 10.631
25.72000 13.202
25.74000 9.535
25.76000 3.809
25.78000 7.308
25.80000 9.533
25.82000 7.725
25.84000 4.690
25.86000 1.607
25.88000 2.133
25.90000 2.559
25.92000 5.778
25.94000 4.822
25.96000 7.605
25.98000 6.163
26.00000 1.302
26.02000 4.113
26.04000 5.224
26.06000 8.001
26.08000 3.731
26.10000 5.864
26.12000 2.859
26.14000 1.657
26.16000 6.537
26.18000 -0.129
26.20000 4.622
26.22000 9.922
26.24000 8.740
26.26000 0.289
26.28000 3.566
26.30000 7.167
26.32000 9.947
26.34000 9.683
26.36000 7.082
26.38000 5.823
26.40000 7.837
26.42000 3.089
26.44000 6.227
26.46000 8.774
26.48000 4.984
26.50000 4.210
26.52000 5.575
26.54000 3.293
26.56000 1.797
26.58000 9.165
26.60000 7.394
26.62000 7.419
26.64000 6.551
26.66000 1.823
26.68000 2.708
26.70000 1.495
26.72000 -0.676
26.74000 0.542
26.76000 4.387
26.78000 11.300
26.80000 11.054
26.82000 4.460
26.84000 6.456
26.86000 11.013
26.88000 8.914
26.90000 5.693
26.92000 5.812
26.94000 2.451
26.96000 -0.522
26.98000 5.768
27.00000 10.651
27.02000 11.848
27.04000 9.344
27.06000 7.651
27.08000 4.739
27.10000 6.268
27.12000 5.496
27.14000 1.266
27.16000 0.617
27.18000 3.524
27.20000 7.722
27.22000 5.196
27.24000 6.942
27.26000 -3.793
27.28000 2.763
27.30000 7.434
27.32000 3.216
27.34000 -0.745
27.36000 -1.213
27.38000 1.099
27.40000 5.490
27.42000 2.617
27.44000 2.739
27.46000 3.153
27.48000 1.408
27.50000 -1.934
27.52000 5.281
27.54000 6.941
27.56000 5.265
27.58000 8.323
27.60000 2.731
27.62000 0.429
27.64000 7.543
27.66000 8.271
27.68000 6.860
27.70000 5.517
27.72000 1.327
27.74000 -0.525
27.76000 1.318
27.78000 0.666
27.80000 -2.800
27.82000 2.508
27.84000 -1.665
27.86000 2.124
27.88000 5.911
27.90000 1.720
27.92000 3.034
27.94000 6.437
27.96000 6.575
27.98000 4.998
28.00000 -1.054
28.02000 -2.410
28.04000 -1.022
28.06000 3.107
28.08000 5.684
28.10000 -3.412
28.12000 0.104
28.14000 7.732
28.16000 6.900
28.18000 4.256
28.20000 1.403
28.22000 3.178
28.24000 5.446
28.26000 8.716
28.28000 4.294
28.30000 1.952
28.32000 8.811
28.34000 5.433
28.36000 4.321
28.38000 3.433
28.40000 2.408
28.42000 7.607
28.44000 3.981
28.46000 -2.105
28.48000 -2.060
28.50000 1.361
28.52000 -1.587
28.54000 2.993
28.56000 3.130
28.58000 0.139
28.60000 3.341
28.62000 2.582
28.64000 5.159
28.66000 1.784
28.68000 1.681
28.70000 3.630
28.72000 2.527
28.74000 2.636
28.76000 6.680
28.78000 7.890
28.80000 3.193
28.82000 7.681
28.84000 3.599
28.86000 0.395
28.88000 -0.146
28.90000 -3.740
28.92000 -1.115
28.94000 -2.351
28.96000 -2.737
28.98000 -0.810
29.00000 -2.690
29.02000 7.501
29.04000 8.993
29.06000 6.897
29.08000 0.436
29.10000 0.088
29.12000 -1.373
29.14000 0.592
29.16000 2.116
29.18000 8.144
29.20000 7.926
29.22000 5.415
29.24000 7.256
29.26000 4.300
29.28000 -1.154
29.30000 -1.383
29.32000 3.087
29.34000 3.785
29.36000 3.829
29.38000 6.635
29.40000 5.238
29.42000 5.621
29.44000 4.711
29.46000 4.509
29.48000 3.195
29.50000 7.109
29.52000 5.312
29.54000 2.888
29.56000 1.666
29.58000 9.501
29.60000 9.011
29.62000 6.961
29.64000 4.000
29.66000 6.898
29.68000 7.701
29.70000 1.212
29.72000 -3.669
29.74000 -2.367
29.76000 3.244
29.78000 6.690
29.80000 5.267
29.82000 2.515
29.84000 4.976
29.86000 9.229
29.88000 11.060
29.90000 4.615
29.92000 7.561
29.94000 3.877
29.96000 4.426
29.98000 2.338
30.00000 0.837
30.02000 3.847
30.04000 1.577
30.06000 2.229
30.08000 6.026
30.10000 8.849
30.12000 8.669
30.14000 5.164
30.16000 3.005
30.18000 4.226
30.20000 2.566
30.22000 4.515
30.24000 3.609
30.26000 5.967
30.28000 8.775
30.30000 5.108
30.32000 5.398
30.34000 4.443
30.36000 1.951
30.38000 2.312
30.40000 1.628
30.42000 -1.242
30.44000 2.150
30.46000 10.661
30.48000 4.619
30.50000 4.981
30.52000 4.550
30.54000 2.087
30.56000 0.521
30.58000 2.919
30.60000 2.195
30.62000 4.537
30.64000 4.458
30.66000 3.757
30.68000 -1.565
30.70000 5.596
30.72000 4.941
30.74000 4.846
30.76000 4.753
30.78000 4.869
30.80000 5.020
30.82000 1.312
30.84000 2.261
30.86000 1.711
30.88000 4.939
30.90000 3.634
30.92000 -0.752
30.94000 -2.372
30.96000 -1.527
30.98000 2.891
31.00000 -1.256
31.02000 -3.640
31.04000 0.973
31.06000 1.326
31.08000 4.871
31.10000 6.885
31.12000 2.392
31.14000 0.624
31.16000 -0.270
31.18000 5.972
31.20000 6.975
31.22000 6.205
31.24000 -2.474
31.26000 1.300
31.28000 2.943
31.30000 6.273
31.32000 3.101
31.34000 0.631
31.36000 5.223
31.38000 3.864
31.40000 2.370
31.42000 2.548
31.44000 4.930
31.46000 4.088
31.48000 1.836
31.50000 0.683
31.52000 3.926
31.54000 8.002
31.56000 5.363
31.58000 5.133
31.60000 4.714
31.62000 3.765
31.64000 5.052
31.66000 2.168
31.68000 2.054
31.70000 0.911
31.72000 0.308
31.74000 3.021
31.76000 5.216
31.78000 1.659
31.80000 -0.954
31.82000 4.809
31.84000 3.701
31.86000 1.067
31.88000 -2.028
31.90000 4.604
31.92000 6.999
31.94000 1.025
31.96000 -1.492
31.98000 -1.399
32.00000 2.689
32.02000 1.441
32.04000 2.115
32.06000 7.781
32.08000 -0.181
32.10000 -3.604
32.12000 2.001
32.14000 2.439
32.16000 1.764
32.18000 -0.528
32.20000 -1.769
32.22000 1.609
32.24000 0.148
32.26000 -1.391
32.28000 1.549
32.30000 1.287
32.32000 0.269
32.34000 -1.056
32.36000 -0.667
32.38000 -1.192
32.40000 2.672
32.42000 5.177
32.44000 4.146
32.46000 3.530
32.48000 1.337
32.50000 -0.122
32.52000 2.829
32.54000 4.798
32.56000 0.028
32.58000 3.153
32.60000 6.197
32.62000 5.185
32.64000 -0.926
32.66000 -3.589
32.68000 0.476
32.70000 1.851
32.72000 2.087
32.74000 2.129
32.76000 4.735
32.78000 5.111
32.80000 4.994
32.82000 0.271
32.84000 -2.823
32.86000 -0.700
32.88000 2.902
32.90000 5.947
32.92000 5.978
32.94000 1.724
32.96000 1.874
32.98000 0.705
33.00000 -0.010
33.02000 4.002
33.04000 4.679
33.06000 6.726
33.08000 2.561
33.10000 -0.091
33.12000 3.314
33.14000 0.750
33.16000 5.636
33.18000 3.704
33.20000 7.806
33.22000 0.926
33.24000 -1.270
33.26000 4.729
33.28000 2.210
33.30000 2.883
33.32000 2.726
33.34000 7.192
33.36000 1.757
33.38000 -0.515
33.40000 1.231
33.42000 4.673
33.44000 3.372
33.46000 1.004
33.48000 3.442
33.50000 -3.575
33.52000 2.080
33.54000 5.291
33.56000 6.775
33.58000 2.018
33.60000 4.421
33.62000 0.760
33.64000 3.138
33.66000 7.312
33.68000 7.093
33.70000 3.493
33.72000 5.384
33.74000 1.374
33.76000 -3.362
33.78000 -2.418
33.80000 2.244
33.82000 5.811
33.84000 7.460
33.86000 5.283
33.88000 5.611
33.90000 4.831
33.92000 3.779
33.94000 5.564
33.96000 3.138
33.98000 3.709
34.00000 4.858
34.02000 10.668
34.04000 8.954
34.06000 7.462
34.08000 -0.102
34.10000 -1.089
34.12000 1.626
34.14000 4.731
34.16000 3.986
34.18000 2.406
34.20000 3.374
34.22000 3.958
34.24000 4.161
34.26000 6.532
34.28000 6.133
34.30000 4.543
34.32000 3.893
34.34000 5.577
34.36000 7.074
34.38000 9.562
34.40000 10.677
34.42000 9.312
34.44000 4.067
34.46000 3.828
34.48000 3.459
34.50000 3.024
34.52000 1.340
34.54000 7.703
34.56000 7.912
34.58000 3.177
34.60000 5.081
34.62000 6.558
34.64000 6.467
34.66000 4.444
34.68000 0.299
34.70000 6.545
34.72000 7.930
34.74000 4.200
34.76000 4.451
34.78000 1.706
34.80000 -3.523
34.82000 4.389
34.84000 6.815
34.86000 2.293
34.88000 2.590
34.90000 8.738
34.92000 5.091
34.94000 6.993
34.96000 7.608
34.98000 3.285
35.00000 6.552
35.02000 10.315
35.04000 6.566
35.06000 8.232
35.08000 1.090
35.10000 4.666
35.12000 3.788
35.14000 5.787
35.16000 6.507
35.18000 4.292
35.20000 5.201
35.22000 1.658
35.24000 1.567
35.26000 4.382
35.28000 3.647
35.30000 4.037
35.32000 3.068
35.34000 3.621
35.36000 2.885
35.38000 7.043
35.40000 4.879
35.42000 2.981
35.44000 5.374
35.46000 2.181
35.48000 1.669
35.50000 3.182
35.52000 5.843
35.54000 -0.261
35.56000 0.903
35.58000 2.622
35.60000 7.228
35.62000 6.687
35.64000 4.408
35.66000 4.575
35.68000 6.820
35.70000 3.382
35.72000 3.185
35.74000 -3.556
35.76000 -0.973
35.78000 1.969
35.80000 2.793
35.82000 2.711
35.84000 7.621
35.86000 6.243
35.88000 4.162
35.90000 5.370
35.92000 0.020
35.94000 3.042
35.96000 3.316
35.98000 3.927
36.00000 -3.317
36.02000 -1.768
36.04000 -2.922
36.06000 -3.559
36.08000 4.046
36.10000 7.598
36.12000 6.844
36.14000 2.914
36.16000 3.179
36.18000 6.497
36.20000 1.107
36.22000 -1.435
36.24000 0.692
36.26000 0.638
36.28000 1.974
36.30000 3.645
36.32000 0.699
36.34000 9.400
36.36000 9.593
36.38000 3.911
36.40000 -0.552
36.42000 6.723
36.44000 6.317
36.46000 1.027
36.48000 -1.785
36.50000 2.452
36.52000 3.838
36.54000 -1.990
36.56000 -1.552
36.58000 1.041
36.60000 1.544
36.62000 -0.039
36.64000 2.259
36.66000 4.460
36.68000 2.781
36.70000 -0.255
36.72000 2.609
36.74000 4.555
36.76000 3.446
36.78000 1.968
36.80000 -2.437
36.82000 5.094
36.84000 3.998
36.86000 3.474
36.88000 -1.467
36.90000 -3.639
36.92000 0.734
36.94000 1.757
36.96000 3.988
36.98000 1.753
37.00000 1.287
37.02000 2.404
37.04000 -2.861
37.06000 0.814
37.08000 2.838
37.10000 4.281
37.12000 1.014
37.14000 5.785
37.16000 3.323
37.18000 1.420
37.20000 1.611
37.22000 5.113
37.24000 5.811
37.26000 4.066
37.28000 2.175
37.30000 -1.282
37.32000 -1.038
37.34000 2.730
37.36000 2.529
37.38000 1.559
37.40000 2.936
37.42000 5.553
37.44000 7.479
37.46000 13.587
37.48000 12.045
37.50000 12.446
37.52000 8.982
37.54000 14.874
37.56000 14.713
37.58000 15.736
37.60000 10.899
37.62000 11.245
37.64000 12.313
37.66000 13.204
37.68000 11.284
37.70000 11.816
37.72000 7.249
37.74000 9.137
37.76000 11.285
37.78000 13.784
37.80000 15.148
37.82000 15.068
37.84000 11.555
37.86000 15.269
37.88000 14.197
37.90000 16.625
37.92000 15.714
37.94000 18.554
37.96000 19.323
37.98000 17.364
38.00000 16.302
38.02000 17.097
38.04000 20.882
38.06000 24.572
38.08000 24.025
38.10000 25.935
38.12000 32.386
38.14000 32.829
38.16000 33.568
38.18000 37.739
38.20000 30.478
38.22000 27.460
38.24000 29.138
38.26000 32.603
38.28000 36.780
38.30000 41.370
38.32000 39.501
38.34000 38.625
38.36000 41.511
38.38000 47.400
38.40000 48.632
38.42000 46.909
38.44000 47.161
38.46000 46.008
38.48000 47.138
38.50000 57.415
38.52000 62.270
38.54000 60.175
38.56000 55.257
38.58000 55.535
38.60000 58.207
38.62000 67.336
38.64000 76.393
38.66000 76.583
38.68000 80.133
38.70000 86.893
38.72000 86.213
38.74000 91.193
38.76000 94.610
38.78000 103.711
38.80000 112.475
38.82000 118.309
38.84000 121.667
38.86000 130.107
38.88000 139.330
38.90000 143.788
38.92000 149.856
38.94000 163.242
38.96000 169.674
38.98000 175.963
39.00000 194.266
39.02000 206.629
39.04000 217.214
39.06000 225.247
39.08000 242.575
39.10000 255.189
39.12000 272.477
39.14000 286.594
39.16000 300.565
39.18000 318.467
39.20000 345.107
39.22000 367.193
39.24000 380.033
39.26000 397.102
39.28000 419.842
39.30000 440.018
39.32000 462.870
39.34000 487.322
39.36000 508.909
39.38000 528.705
39.40000 544.545
39.42000 574.101
39.44000 593.154
39.46000 601.181
39.48000 614.297
39.50000 627.531
39.52000 634.180
39.54000 633.763
39.56000 652.295
39.58000 649.135
39.60000 655.933
39.62000 648.552
39.64000 641.611
39.66000 639.808
39.68000 626.985
39.70000 613.965
39.72000 599.607
39.74000 586.581
39.76000 570.338
39.78000 543.059
39.80000 522.705
39.82000 507.409
39.84000 488.002
39.86000 465.460
39.88000 449.307
39.90000 427.539
39.92000 416.132
39.94000 392.260
39.96000 360.292
39.98000 348.311
40.00000 319.359
40.02000 299.869
40.04000 284.004
40.06000 272.808
40.08000 254.203
40.10000 236.203
40.12000 219.466
40.14000 208.027
40.16000 189.711
40.18000 176.038
40.20000 166.323
40.22000 162.828
40.24000 151.347
40.26000 140.410
40.28000 131.008
40.30000 122.476
40.32000 115.815
40.34000 105.889
40.36000 104.702
40.38000 91.246
40.40000 91.061
40.42000 84.341
40.44000 77.587
40.46000 72.981
40.48000 70.954
40.50000 64.034
40.52000 58.956
40.54000 55.796
40.56000 55.222
40.58000 56.395
40.60000 55.765
40.62000 52.489
40.64000 43.256
40.66000 40.524
40.68000 36.043
40.70000 34.546
40.72000 32.180
40.74000 30.583
40.76000 33.325
40.78000 34.112
40.80000 31.938
40.82000 29.594
40.84000 25.523
40.86000 28.065
40.88000 33.805
40.90000 27.318
40.92000 25.488
40.94000 22.403
40.96000 15.555
40.98000 17.167
41.00000 18.632
41.02000 20.408
41.04000 16.472
41.06000 12.409
41.08000 13.122
41.10000 10.757
41.12000 14.628
41.14000 9.989
41.16000 9.147
41.18000 10.022
41.20000 10.876
41.22000 13.272
41.24000 10.802
41.26000 10.213
41.28000 9.850
41.30000 6.237
41.32000 4.267
41.34000 6.882
41.36000 7.122
41.38000 8.273
41.40000 8.514
41.42000 8.488
41.44000 7.032
41.46000 9.625
41.48000 5.761
41.50000 7.211
41.52000 6.831
41.54000 5.707
41.56000 5.774
41.58000 7.392
41.60000 6.466
41.62000 3.599
41.64000 3.350
41.66000 3.024
41.68000 2.884
41.70000 0.553
41.72000 3.646
41.74000 1.762
41.76000 1.956
41.78000 3.356
41.80000 1.639
41.82000 0.637
41.84000 5.202
41.86000 4.022
41.88000 3.800
41.90000 2.937
41.92000 1.182
41.94000 -0.581
41.96000 -3.378
41.98000 -1.083
42.00000 3.073
42.02000 6.099
42.04000 7.106
42.06000 4.666
42.08000 -0.440
42.10000 1.213
42.12000 0.111
42.14000 1.257
42.16000 2.075
42.18000 2.396
42.20000 2.538
42.22000 0.179
42.24000 0.601
42.26000 -0.728
42.28000 0.928
42.30000 1.890
42.32000 4.187
42.34000 5.888
42.36000 1.143
42.38000 1.800
42.40000 0.811
42.42000 0.994
42.44000 0.461
42.46000 1.316
42.48000 3.900
42.50000 2.663
42.52000 2.894
42.54000 -3.293
42.56000 -0.092
42.58000 4.411
42.60000 2.846
42.62000 1.691
42.64000 3.846
42.66000 3.562
42.68000 -1.014
42.70000 -1.636
42.72000 2.303
42.74000 0.000
42.76000 -1.776
42.78000 -0.697
42.80000 2.563
42.82000 1.213
42.84000 1.593
42.86000 1.680
42.88000 0.673
42.90000 1.883
42.92000 2.571
42.94000 2.338
42.96000 1.665
42.98000 1.138
43.00000 0.577
43.02000 -1.907
43.04000 -0.192
43.06000 0.327
43.08000 0.103
43.10000 3.864
43.12000 2.734
43.14000 3.648
43.16000 2.262
43.18000 -1.858
43.20000 -2.642
43.22000 -2.028
43.24000 -2.538
43.26000 1.374
43.28000 6.170
43.30000 -2.142
43.32000 1.806
43.34000 1.202
43.36000 -0.292
43.38000 0.045
43.40000 3.250
43.42000 2.000
43.44000 -3.183
43.46000 -3.181
43.48000 0.515
43.50000 1.680
43.52000 0.692
43.54000 2.037
43.56000 3.513
43.58000 1.160
43.60000 -0.896
43.62000 0.913
43.64000 2.074
43.66000 0.751
43.68000 0.652
43.70000 5.001
43.72000 5.856
43.74000 2.079
43.76000 -1.795
43.78000 -2.115
43.80000 2.027
43.82000 -3.152
43.84000 -1.702
43.86000 0.121
43.88000 -0.506
43.90000 -0.872
43.92000 -0.840
43.94000 3.967
43.96000 2.088
43.98000 2.905
44.00000 0.185
44.02000 0.115
44.04000 -3.136
44.06000 -1.455
44.08000 1.570
44.10000 0.484
44.12000 2.915
44.14000 2.601
44.16000 -0.764
44.18000 -0.431
44.20000 -0.060
44.22000 0.222
44.24000 -0.039
44.26000 0.584
44.28000 -1.324
44.30000 -2.425
44.32000 -1.025
44.34000 0.273
44.36000 3.327
44.38000 0.518
44.40000 0.215
44.42000 -0.835
44.44000 0.676
44.46000 2.716
44.48000 2.930
44.50000 5.563
44.52000 3.526
44.54000 1.787
44.56000 -0.012
44.58000 4.019
44.60000 6.433
44.62000 3.802
44.64000 2.268
44.66000 5.159
44.68000 0.471
44.70000 2.616
44.72000 1.866
44.74000 4.522
44.76000 2.300
44.78000 1.222
44.80000 2.522
44.82000 2.455
44.84000 0.404
44.86000 3.219
44.88000 3.837
44.90000 10.074
44.92000 10.110
44.94000 8.268
44.96000 5.560
44.98000 4.229
45.00000 7.680
45.02000 4.774
45.04000 3.329
45.06000 9.352
45.08000 11.286
45.10000 11.175
45.12000 6.384
45.14000 6.403
45.16000 9.836
45.18000 11.268
45.20000 6.968
45.22000 12.075
45.24000 15.012
45.26000 11.564
45.28000 10.529
45.30000 10.106
45.32000 11.952
45.34000 11.753
45.36000 14.695
45.38000 15.634
45.40000 15.642
45.42000 20.023
45.44000 20.879
45.46000 19.361
45.48000 23.334
45.50000 22.013
45.52000 26.391
45.54000 25.599
45.56000 23.299
45.58000 25.358
45.60000 24.295
45.62000 24.005
45.64000 26.687
45.66000 27.001
45.68000 26.756
45.70000 28.523
45.72000 30.877
45.74000 34.331
45.76000 34.572
45.78000 37.283
45.80000 36.859
45.82000 39.451
45.84000 41.921
45.86000 48.068
45.88000 51.266
45.90000 45.794
45.92000 47.354
45.94000 48.817
45.96000 49.745
45.98000 49.324
46.00000 52.767
46.02000 54.596
46.04000 57.975
46.06000 57.455
46.08000 59.991
46.10000 60.952
46.12000 58.617
46.14000 57.350
46.16000 59.268
46.18000 62.465
46.20000 68.406
46.22000 67.856
46.24000 66.348
46.26000 65.647
46.28000 62.218
46.30000 63.545
46.32000 64.800
46.34000 65.075
46.36000 64.833
46.38000 60.743
46.40000 56.803
46.42000 61.777
46.44000 62.857
46.46000 60.141
46.48000 56.090
46.50000 56.911
46.52000 56.778
46.54000 54.889
46.56000 58.425
46.58000 57.901
46.60000 51.196
46.62000 43.719
46.64000 40.795
46.66000 39.693
46.68000 39.592
46.70000 36.635
46.72000 36.239
46.74000 39.375
46.76000 36.287
46.78000 37.864
46.80000 36.097
46.82000 27.721
46.84000 27.540
46.86000 30.100
46.88000 25.308
46.90000 22.037
46.92000 19.761
46.94000 24.393
46.96000 19.660
46.98000 18.992
47.00000 15.104
47.02000 19.108
47.04000 20.375
47.06000 18.124
47.08000 18.503
47.10000 14.728
47.12000 10.294
47.14000 14.458
47.16000 10.739
47.18000 7.520
47.20000 5.630
47.22000 4.836
47.24000 1.901
47.26000 7.337
47.28000 7.998
47.30000 5.975
47.32000 2.729
47.34000 -0.109
47.36000 4.711
47.38000 1.338
47.40000 1.345
47.42000 2.426
47.44000 3.785
47.46000 0.055
47.48000 0.086
47.50000 2.509
47.52000 -1.757
47.54000 -1.008
47.56000 1.926
47.58000 5.100
47.60000 4.357
47.62000 0.410
47.64000 0.582
47.66000 2.938
47.68000 -0.603
47.70000 -0.674
47.72000 -0.315
47.74000 0.137
47.76000 -0.306
47.78000 2.604
47.80000 0.245
47.82000 -2.751
47.84000 -0.144
47.86000 1.478
47.88000 0.171
47.90000 -0.067
47.92000 1.033
47.94000 3.318
47.96000 2.355
47.98000 1.228
48.00000 2.995
48.02000 7.251
48.04000 3.876
48.06000 -1.305
48.08000 -0.363
48.10000 -0.076
48.12000 1.163
48.14000 2.658
48.16000 6.570
48.18000 4.945
48.20000 2.158
48.22000 3.831
48.24000 2.152
48.26000 1.489
48.28000 0.012
48.30000 1.601
48.32000 2.352
48.34000 -2.695
48.36000 1.201
48.38000 1.826
48.40000 1.152
48.42000 2.746
48.44000 2.302
48.46000 -2.553
48.48000 -0.486
48.50000 -0.532
48.52000 -1.247
48.54000 0.222
48.56000 2.897
48.58000 5.555
48.60000 2.400
48.62000 2.303
48.64000 3.037
48.66000 5.184
48.68000 4.067
48.70000 3.478
48.72000 1.423
48.74000 1.272
48.76000 -2.233
48.78000 -1.502
48.80000 0.244
48.82000 -0.371
48.84000 -0.487
48.86000 4.237
48.88000 0.571
48.90000 -0.617
48.92000 0.336
48.94000 2.557
48.96000 4.356
48.98000 3.910
49.00000 3.093
49.02000 3.013
49.04000 -0.603
49.06000 1.405
49.08000 2.314
49.10000 3.126
49.12000 4.006
49.14000 3.425
49.16000 1.226
49.18000 0.040
49.20000 2.171
49.22000 -0.082
49.24000 -2.573
49.26000 -1.153
49.28000 2.597
49.30000 0.779
49.32000 4.510
49.34000 6.436
49.36000 3.736
49.38000 4.861
49.40000 1.728
49.42000 2.398
49.44000 3.879
49.46000 4.591
49.48000 3.192
49.50000 5.721
49.52000 7.932
49.54000 5.692
49.56000 1.161
49.58000 2.626
49.60000 0.551
49.62000 2.112
49.64000 1.855
49.66000 7.979
49.68000 8.391
49.70000 2.223
49.72000 3.399
49.74000 0.931
49.76000 2.718
49.78000 3.201
49.80000 1.919
49.82000 -0.077
49.84000 2.230
49.86000 0.569
49.88000 2.283
49.90000 1.852
49.92000 0.709
49.94000 1.565
49.96000 -2.354
49.98000 -0.645
50.00000 2.395
50.02000 6.046
50.04000 5.711
50.06000 7.176
50.08000 5.707
50.10000 3.519
50.12000 2.702
50.14000 0.851
50.16000 -0.265
50.18000 -1.089
50.20000 5.106
50.22000 2.470
50.24000 4.504
50.26000 5.140
50.28000 1.810
50.30000 0.324
50.32000 0.271
50.34000 1.215
50.36000 -1.801
50.38000 -1.275
50.40000 0.054
50.42000 -1.242
50.44000 -0.141
50.46000 1.998
50.48000 -1.046
50.50000 0.691
50.52000 -1.812
50.54000 -2.532
50.56000 -1.906
50.58000 2.160
50.60000 2.066
50.62000 2.176
50.64000 2.699
50.66000 1.625
50.68000 -1.524
50.70000 0.311
50.72000 -0.975
50.74000 0.995
50.76000 2.364
50.78000 1.428
50.80000 -0.538
50.82000 -2.157
50.84000 1.045
50.86000 3.019
50.88000 2.225
50.90000 3.641
50.92000 1.002
50.94000 -0.306
50.96000 1.867
50.98000 2.877
51.00000 1.821
51.02000 3.046
51.04000 3.161
51.06000 0.920
51.08000 -1.220
51.10000 2.447
51.12000 4.373
51.14000 2.520
51.16000 -0.334
51.18000 -1.683
51.20000 0.124
51.22000 2.060
51.24000 1.992
51.26000 6.151
51.28000 3.278
51.30000 0.351
51.32000 1.399
51.34000 2.089
51.36000 0.238
51.38000 -2.514
51.40000 5.355
51.42000 0.065
51.44000 0.783
51.46000 5.706
51.48000 8.768
51.50000 3.899
51.52000 3.028
51.54000 3.260
51.56000 1.323
51.58000 0.818
51.60000 2.503
51.62000 0.913
51.64000 7.565
51.66000 5.735
51.68000 2.286
51.70000 4.463
51.72000 2.942
51.74000 3.336
51.76000 3.409
51.78000 5.497
51.80000 4.164
51.82000 0.797
51.84000 1.669
51.86000 0.892
51.88000 1.648
51.90000 2.113
51.92000 1.768
51.94000 1.249
51.96000 3.790
51.98000 3.527
52.00000 3.375
52.02000 2.836
52.04000 7.245
52.06000 6.345
52.08000 2.620
52.10000 3.414
52.12000 3.121
52.14000 2.177
52.16000 1.145
52.18000 1.191
52.20000 1.990
52.22000 -2.478
52.24000 -0.967
52.26000 5.289
52.28000 4.499
52.30000 1.483
52.32000 4.247
52.34000 6.442
52.36000 5.321
52.38000 1.858
52.40000 1.119
52.42000 4.780
52.44000 4.907
52.46000 4.861
52.48000 -0.076
52.50000 1.374
52.52000 3.566
52.54000 3.188
52.56000 2.538
52.58000 3.476
52.60000 0.818
52.62000 -0.956
52.64000 4.785
52.66000 0.614
52.68000 -2.451
52.70000 -0.696
52.72000 -0.292
52.74000 -0.499
52.76000 0.677
52.78000 -0.607
52.80000 -1.099
52.82000 2.056
52.84000 2.841
52.86000 3.444
52.88000 4.419
52.90000 3.865
52.92000 4.117
52.94000 3.163
52.96000 3.519
52.98000 6.341
53.00000 3.802
53.02000 3.104
53.04000 2.783
53.06000 3.873
53.08000 4.163
53.10000 -0.199
53.12000 1.532
53.14000 7.520
53.16000 4.888
53.18000 2.797
53.20000 3.030
53.22000 1.063
53.24000 -0.666
53.26000 0.290
53.28000 2.986
53.30000 5.217
53.32000 0.943
53.34000 2.361
53.36000 3.469
53.38000 3.061
53.40000 2.469
53.42000 3.258
53.44000 2.605
53.46000 3.390
53.48000 1.758
53.50000 3.443
53.52000 4.711
53.54000 4.633
53.56000 3.634
53.58000 2.529
53.60000 -0.209
53.62000 1.209
53.64000 3.493
53.66000 3.368
53.68000 2.808
53.70000 6.158
53.72000 4.379
53.74000 3.704
53.76000 4.141
53.78000 2.618
53.80000 3.867
53.82000 5.693
53.84000 5.190
53.86000 1.739
53.88000 2.769
53.90000 2.931
53.92000 -2.419
53.94000 0.292
53.96000 1.950
53.98000 2.514
54.00000 2.324
54.02000 3.716
54.04000 4.842
54.06000 2.428
54.08000 3.017
54.10000 5.791
54.12000 6.816
54.14000 5.998
54.16000 0.890
54.18000 1.181
54.20000 4.596
54.22000 4.398
54.24000 3.024
54.26000 3.048
54.28000 3.758
54.30000 5.090
54.32000 5.399
54.34000 3.404
54.36000 1.241
54.38000 2.171
54.40000 3.114
54.42000 2.715
54.44000 2.419
54.46000 4.292
54.48000 2.186
54.50000 1.056
54.52000 0.350
54.54000 2.184
54.56000 6.390
54.58000 3.935
54.60000 0.394
54.62000 0.982
54.64000 -0.629
54.66000 -0.215
54.68000 2.889
54.70000 5.595
54.72000 4.105
54.74000 1.750
54.76000 3.088
54.78000 2.420
54.80000 2.002
54.82000 1.823
54.84000 0.388
54.86000 -0.975
54.88000 4.483
54.90000 5.140
54.92000 0.995
54.94000 -0.737
54.96000 2.951
54.98000 4.681
55.00000 2.915
55.02000 1.971
55.04000 2.656
55.06000 3.937
55.08000 3.755
55.10000 0.639
55.12000 -2.398
55.14000 0.862
55.16000 4.660
55.18000 4.469
55.20000 -0.717
55.22000 0.287
55.24000 -0.347
55.26000 0.097
55.28000 6.502
55.30000 4.127
55.32000 1.192
55.34000 1.124
55.36000 3.874
55.38000 4.333
55.40000 2.831
55.42000 0.332
55.44000 2.132
55.46000 3.114
55.48000 4.483
55.50000 2.316
55.52000 -0.969
55.54000 0.719
55.56000 2.732
55.58000 3.303
55.60000 2.702
55.62000 2.845
55.64000 1.028
55.66000 1.605
55.68000 1.457
55.70000 3.279
55.72000 2.301
55.74000 1.856
55.76000 2.999
55.78000 5.134
55.80000 2.716
55.82000 0.590
55.84000 3.414
55.86000 1.965
55.88000 4.763
55.90000 1.678
55.92000 -0.882
55.94000 2.550
55.96000 3.016
55.98000 4.773
56.00000 8.174
56.02000 7.025
56.04000 5.642
56.06000 5.776
56.08000 8.384
56.10000 7.870
56.12000 7.191
56.14000 5.088
56.16000 2.348
56.18000 1.458
56.20000 2.028
56.22000 2.223
56.24000 -2.349
56.26000 0.017
56.28000 2.299
56.30000 2.816
56.32000 3.334
56.34000 4.259
56.36000 3.358
56.38000 3.847
56.40000 2.047
56.42000 -2.352
56.44000 -2.208
56.46000 0.051
56.48000 2.010
56.50000 3.226
56.52000 4.052
56.54000 2.940
56.56000 3.120
56.58000 1.463
56.60000 4.602
56.62000 3.644
56.64000 0.722
56.66000 0.168
56.68000 2.080
56.70000 0.661
56.72000 1.651
56.74000 0.959
56.76000 4.224
56.78000 6.586
56.80000 4.957
56.82000 2.436
56.84000 2.243
56.86000 3.081
56.88000 3.198
56.90000 3.166
56.92000 2.430
56.94000 3.606
56.96000 2.710
56.98000 2.427
57.00000 -0.540
57.02000 0.382
57.04000 2.487
57.06000 3.038
57.08000 0.419
57.10000 2.049
57.12000 1.861
57.14000 -1.317
57.16000 -1.630
57.18000 1.181
57.20000 4.037
57.22000 1.215
57.24000 -0.362
57.26000 -0.134
57.28000 3.661
57.30000 3.918
57.32000 2.881
57.34000 3.162
57.36000 2.018
57.38000 0.259
57.40000 1.312
57.42000 1.016
57.44000 3.820
57.46000 3.569
57.48000 6.072
57.50000 4.208
57.52000 1.759
57.54000 1.086
57.56000 -0.577
57.58000 0.757
57.60000 1.928
57.62000 1.406
57.64000 6.103
57.66000 6.573
57.68000 5.099
57.70000 4.468
57.72000 2.654
57.74000 1.964
57.76000 0.562
57.78000 4.033
57.80000 0.592
57.82000 -0.570
57.84000 -1.220
57.86000 -0.600
57.88000 -0.152
57.90000 -1.187
57.92000 -2.346
57.94000 -2.345
57.96000 3.670
57.98000 3.130
58.00000 2.077
58.02000 4.253
58.04000 1.254
58.06000 2.666
58.08000 2.748
58.10000 3.976
58.12000 0.239
58.14000 -0.417
58.16000 2.071
58.18000 3.259
58.20000 -0.056
58.22000 -2.057
58.24000 -1.474
58.26000 -2.111
58.28000 0.768
58.30000 3.285
58.32000 0.343
58.34000 2.735
58.36000 1.003
58.38000 1.253
58.40000 1.330
58.42000 1.789
58.44000 0.553
58.46000 1.555
58.48000 3.442
58.50000 2.364
58.52000 4.067
58.54000 4.437
58.56000 3.328
58.58000 3.150
58.60000 1.771
58.62000 2.897
58.64000 4.699
58.66000 3.564
58.68000 -0.416
58.70000 -0.636
58.72000 1.605
58.74000 2.170
58.76000 0.355
58.78000 -0.316
58.80000 1.455
58.82000 3.318
58.84000 2.821
58.86000 2.206
58.88000 0.426
58.90000 -0.229
58.92000 -0.726
58.94000 1.015
58.96000 3.866
58.98000 3.817
59.00000 0.811
59.02000 -0.142
59.04000 2.825
59.06000 2.813
59.08000 2.648
59.10000 1.412
59.12000 2.855
59.14000 5.389
59.16000 3.972
59.18000 1.300
59.20000 0.869
59.22000 3.792
59.24000 6.912
59.26000 3.975
59.28000 5.188
59.30000 3.800
59.32000 -0.605
59.34000 -2.262
59.36000 0.112
59.38000 2.724
59.40000 4.081
59.42000 1.374
59.44000 -0.168
59.46000 2.271
59.48000 3.247
59.50000 3.927
59.52000 2.781
59.54000 5.387
59.56000 4.746
59.58000 7.374
59.60000 6.487
59.62000 6.604
59.64000 5.730
59.66000 3.122
59.68000 1.308
59.70000 1.863
59.72000 2.533
59.74000 3.963
59.76000 5.003
59.78000 6.956
59.80000 5.518
59.82000 0.932
59.84000 0.514
59.86000 1.638
59.88000 -2.270
59.90000 -0.327
59.92000 0.816
59.94000 4.856
59.96000 4.806
59.98000 4.364
60.00000 3.291
60.02000 1.712
60.04000 3.888
60.06000 2.324
60.08000 1.853
60.10000 4.720
60.12000 2.871
60.14000 1.232
60.16000 0.355
60.18000 0.683
60.20000 -1.885
60.22000 0.388
60.24000 2.513
60.26000 3.794
60.28000 0.878
60.30000 -0.198
60.32000 3.334
60.34000 5.046
60.36000 2.435
60.38000 3.381
60.40000 1.965
60.42000 2.478
60.44000 1.256
60.46000 2.763
60.48000 2.495
60.50000 1.319
60.52000 -1.458
60.54000 -0.733
60.56000 0.461
60.58000 1.999
60.60000 0.029
60.62000 -0.824
60.64000 -1.281
60.66000 -0.682
60.68000 0.700
60.70000 -1.574
60.72000 0.120
60.74000 3.491
60.76000 0.510
60.78000 0.589
60.80000 3.950
60.82000 3.439
60.84000 2.374
60.86000 0.084
60.88000 1.749
60.90000 5.490
60.92000 2.782
60.94000 5.892
60.96000 2.440
60.98000 1.755
61.00000 0.660
61.02000 0.900
61.04000 2.095
61.06000 2.887
61.08000 1.975
61.10000 1.181
61.12000 1.892
61.14000 0.507
61.16000 -0.483
61.18000 0.937
61.20000 0.842
61.22000 3.425
61.24000 5.421
61.26000 4.213
61.28000 1.773
61.30000 4.454
61.32000 3.399
61.34000 3.502
61.36000 0.649
61.38000 -2.205
61.40000 -0.103
61.42000 0.546
61.44000 0.715
61.46000 3.475
61.48000 2.095
61.50000 1.749
61.52000 3.513
61.54000 5.898
61.56000 2.790
61.58000 4.040
61.60000 3.241
61.62000 1.463
61.64000 1.028
61.66000 3.813
61.68000 1.605
61.70000 1.181
61.72000 0.257
61.74000 -0.431
61.76000 2.657
61.78000 0.975
61.80000 2.816
61.82000 5.240
61.84000 5.393
61.86000 0.913
61.88000 3.237
61.90000 0.941
61.92000 -0.055
61.94000 -0.500
61.96000 0.093
61.98000 0.727
62.00000 3.169
62.02000 -0.122
62.04000 3.044
62.06000 1.173
62.08000 -0.351
62.10000 1.990
62.12000 0.974
62.14000 -1.332
62.16000 2.023
62.18000 2.320
62.20000 1.446
62.22000 1.747
62.24000 -0.118
62.26000 1.315
62.28000 1.369
62.30000 1.884
62.32000 2.430
62.34000 2.127
62.36000 -0.187
62.38000 1.295
62.40000 1.707
62.42000 2.018
62.44000 2.629
62.46000 2.111
62.48000 -0.812
62.50000 -0.150
62.52000 1.387
62.54000 -1.238
62.56000 2.116
62.58000 2.940
62.60000 1.916
62.62000 2.983
62.64000 0.335
62.66000 -1.283
62.68000 -0.167
62.70000 2.843
62.72000 1.022
62.74000 0.977
62.76000 1.816
62.78000 0.982
62.80000 3.464
62.82000 3.022
62.84000 0.148
62.86000 2.842
62.88000 3.399
62.90000 2.622
62.92000 2.520
62.94000 2.985
62.96000 4.425
62.98000 2.692
63.00000 3.205
63.02000 4.420
63.04000 4.808
63.06000 4.759
63.08000 4.442
63.10000 2.393
63.12000 4.426
63.14000 3.560
63.16000 5.767
63.18000 3.910
63.20000 1.765
63.22000 1.668
63.24000 3.953
63.26000 1.244
63.28000 2.033
63.30000 4.132
63.32000 4.082
63.34000 2.524
63.36000 3.598
63.38000 -2.138
63.40000 -0.620
63.42000 1.265
63.44000 1.957
63.46000 4.175
63.48000 1.687
63.50000 1.670
63.52000 6.577
63.54000 4.954
63.56000 2.278
63.58000 1.797
63.60000 2.178
63.62000 2.934
63.64000 2.077
63.66000 5.489
63.68000 4.304
63.70000 2.303
63.72000 3.750
63.74000 1.633
63.76000 3.209
63.78000 3.928
63.80000 5.746
63.82000 5.902
63.84000 5.565
63.86000 4.630
63.88000 2.186
63.90000 -1.543
63.92000 0.241
63.94000 0.282
63.96000 0.777
63.98000 2.553
64.00000 2.781
64.02000 2.742
64.04000 2.489
64.06000 5.221
64.08000 3.270
64.10000 4.157
64.12000 4.962
64.14000 2.720
64.16000 3.457
64.18000 2.403
64.20000 1.156
64.22000 1.714
64.24000 2.027
64.26000 1.119
64.28000 2.236
64.30000 0.403
64.32000 1.927
64.34000 3.880
64.36000 2.672
64.38000 2.672
64.40000 0.441
64.42000 -1.035
64.44000 -0.026
64.46000 -1.330
64.48000 -1.393
64.50000 -0.268
64.52000 0.683
64.54000 -1.082
64.56000 -0.208
64.58000 -0.890
64.60000 2.002
64.62000 2.059
64.64000 4.647
64.66000 2.572
64.68000 3.051
64.70000 2.432
64.72000 1.906
64.74000 0.987
64.76000 0.174
64.78000 2.746
64.80000 0.574
64.82000 0.985
64.84000 4.234
64.86000 3.782
64.88000 3.693
64.90000 -0.697
64.92000 -0.902
64.94000 1.390
64.96000 2.603
64.98000 1.895
65.00000 1.975
65.02000 1.020
65.04000 -2.198
65.06000 0.879
65.08000 1.879
65.10000 1.034
65.12000 0.738
65.14000 0.046
65.16000 0.345
65.18000 1.863
65.20000 2.153
65.22000 -0.813
65.24000 -0.564
65.26000 -1.707
65.28000 -0.229
65.30000 3.071
65.32000 1.442
65.34000 1.902
65.36000 1.947
65.38000 0.320
65.40000 -1.175
65.42000 1.830
65.44000 0.344
65.46000 -0.731
65.48000 0.141
65.50000 0.672
65.52000 -1.660
65.54000 -0.063
65.56000 1.934
65.58000 -0.146
65.60000 -1.918
65.62000 -0.717
65.64000 0.027
65.66000 1.861
65.68000 2.765
65.70000 1.348
65.72000 -2.184
65.74000 -1.453
65.76000 -0.238
65.78000 1.770
65.80000 1.740
65.82000 3.152
65.84000 1.413
65.86000 1.241
65.88000 1.978
65.90000 1.222
65.92000 0.332
65.94000 -0.907
65.96000 0.245
65.98000 1.231
66.00000 1.637
66.02000 1.182
66.04000 0.972
66.06000 1.349
66.08000 3.223
66.10000 1.495
66.12000 1.055
66.14000 3.989
66.16000 4.055
66.18000 2.077
66.20000 2.190
66.22000 3.606
66.24000 1.944
66.26000 0.115
66.28000 1.354
66.30000 5.138
66.32000 2.475
66.34000 2.132
66.36000 1.509
66.38000 1.103
66.40000 3.035
66.42000 3.165
66.44000 1.778
66.46000 0.862
66.48000 0.884
66.50000 1.725
66.52000 2.260
66.54000 1.502
66.56000 3.538
66.58000 3.397
66.60000 3.190
66.62000 4.553
66.64000 1.418
66.66000 2.251
66.68000 2.018
66.70000 5.629
66.72000 4.929
66.74000 4.105
66.76000 4.171
66.78000 1.051
66.80000 2.558
66.82000 3.492
66.84000 3.247
66.86000 3.441
66.88000 3.589
66.90000 3.502
66.92000 5.418
66.94000 6.745
66.96000 6.516
66.98000 6.830
67.00000 6.706
67.02000 9.321
67.04000 8.929
67.06000 4.060
67.08000 7.227
67.10000 7.904
67.12000 8.272
67.14000 8.000
67.16000 9.486
67.18000 9.560
67.20000 10.103
67.22000 7.111
67.24000 6.134
67.26000 7.162
67.28000 10.608
67.30000 10.913
67.32000 7.986
67.34000 8.269
67.36000 6.709
67.38000 5.684
67.40000 7.507
67.42000 10.119
67.44000 10.974
67.46000 11.701
67.48000 8.877
67.50000 8.699
67.52000 7.783
67.54000 8.774
67.56000 13.120
67.58000 10.798
67.60000 7.015
67.62000 7.408
67.64000 10.286
67.66000 6.922
67.68000 6.350
67.70000 3.912
67.72000 5.419
67.74000 4.805
67.76000 5.952
67.78000 6.931
67.80000 6.938
67.82000 7.314
67.84000 7.118
67.86000 5.645
67.88000 4.004
67.90000 2.511
67.92000 0.208
67.94000 1.174
67.96000 1.297
67.98000 1.935
68.00000 2.610
68.02000 0.643
68.04000 0.722
68.06000 1.417
68.08000 1.639
68.10000 2.805
68.12000 2.966
68.14000 -0.989
68.16000 -0.859
68.18000 -0.714
68.20000 -1.007
68.22000 -0.100
68.24000 0.153
68.26000 -0.136
68.28000 1.074
68.30000 -2.091
68.32000 -2.150
68.34000 -0.435
68.36000 -0.282
68.38000 -0.296
68.40000 -0.258
68.42000 0.359
68.44000 1.433
68.46000 1.070
68.48000 2.327
68.50000 2.326
68.52000 -0.715
68.54000 -0.433
68.56000 0.356
68.58000 0.414
68.60000 -0.829
68.62000 1.075
68.64000 1.337
68.66000 -1.818
68.68000 -1.808
68.70000 -0.136
68.72000 1.209
68.74000 -1.516
68.76000 0.069
68.78000 -0.794
68.80000 0.359
68.82000 0.078
68.84000 0.368
68.86000 -0.035
68.88000 -1.330
68.90000 1.596
68.92000 0.373
68.94000 -0.523
68.96000 -1.493
68.98000 -0.645
69.00000 -0.591
69.02000 -0.174
69.04000 -2.092
69.06000 -0.271
69.08000 -0.553
69.10000 -1.225
69.12000 -1.015
69.14000 0.118
69.16000 -0.060
69.18000 0.605
69.20000 0.623
69.22000 -0.038
69.24000 -0.963
69.26000 0.557
69.28000 3.706
69.30000 1.654
69.32000 -1.905
69.34000 -2.004
69.36000 0.569
69.38000 0.883
69.40000 -0.551
69.42000 -0.858
69.44000 0.559
69.46000 0.348
69.48000 -0.925
69.50000 -2.051
69.52000 -0.742
69.54000 0.628
69.56000 0.601
69.58000 2.952
69.60000 2.543
69.62000 1.706
69.64000 2.410
69.66000 0.945
69.68000 -1.061
69.70000 -0.573
69.72000 0.965
69.74000 1.224
69.76000 2.512
69.78000 0.895
69.80000 2.064
69.82000 1.687
69.84000 0.961
69.86000 2.709
69.88000 -0.723
69.90000 -0.065
69.92000 0.353
69.94000 2.609
69.96000 0.489
69.98000 1.500
70.00000 3.797
70.02000 3.737
70.04000 1.118
70.06000 -0.879
70.08000 0.315
70.10000 2.090
70.12000 2.383
70.14000 2.540
70.16000 2.389
70.18000 -0.025
70.20000 0.008
70.22000 -1.974
70.24000 1.305
70.26000 3.895
70.28000 3.654
70.30000 1.966
70.32000 2.762
70.34000 1.619
70.36000 3.317
70.38000 3.845
70.40000 2.008
70.42000 3.818
70.44000 5.476
70.46000 3.562
70.48000 2.573
70.50000 1.300
70.52000 0.111
70.54000 1.867
70.56000 -1.093
70.58000 0.828
70.60000 1.209
70.62000 0.859
70.64000 -0.250
70.66000 -0.376
70.68000 1.993
70.70000 4.426
70.72000 3.261
70.74000 -1.393
70.76000 -0.149
70.78000 4.092
70.80000 3.338
70.82000 0.025
70.84000 0.231
70.86000 -1.212
70.88000 -0.135
70.90000 1.461
70.92000 1.669
70.94000 2.626
70.96000 2.436
70.98000 0.495
71.00000 -0.271
71.02000 3.123
71.04000 1.276
71.06000 1.201
71.08000 0.014
71.10000 -1.307
71.12000 -0.411
71.14000 -1.439
71.16000 -1.710
71.18000 -1.107
71.20000 0.911
71.22000 0.417
71.24000 1.504
71.26000 0.704
71.28000 1.532
71.30000 2.630
71.32000 1.169
71.34000 1.993
71.36000 1.239
71.38000 0.821
71.40000 2.472
71.42000 0.819
71.44000 -0.371
71.46000 0.047
71.48000 1.301
71.50000 0.826
71.52000 1.375
71.54000 -1.496
71.56000 0.582
71.58000 0.230
71.60000 0.863
71.62000 -0.482
71.64000 -1.763
71.66000 1.010
71.68000 2.270
71.70000 0.790
71.72000 0.758
71.74000 -0.531
71.76000 -0.713
71.78000 1.396
71.80000 -0.055
71.82000 1.014
71.84000 1.379
71.86000 -1.294
71.88000 -1.960
71.90000 0.807
71.92000 1.346
71.94000 -1.142
71.96000 -1.296
71.98000 -1.334
72.00000 1.368
72.02000 0.051
72.04000 -0.340
72.06000 1.433
72.08000 2.124
72.10000 -0.743
72.12000 1.020
72.14000 -0.015
72.16000 4.288
72.18000 2.836
72.20000 2.318
72.22000 -0.092
72.24000 1.284
72.26000 0.101
72.28000 -0.538
72.30000 -1.927
72.32000 0.721
72.34000 0.534
72.36000 0.953
72.38000 1.300
72.40000 2.554
72.42000 2.549
72.44000 0.092
72.46000 2.790
72.48000 3.401
72.50000 0.186
72.52000 -0.126
72.54000 2.785
72.56000 1.458
72.58000 -1.436
72.60000 -1.089
72.62000 -0.239
72.64000 0.712
72.66000 2.274
72.68000 3.164
72.70000 2.344
72.72000 0.249
72.74000 0.405
72.76000 2.126
72.78000 3.077
72.80000 1.450
72.82000 3.334
72.84000 3.631
72.86000 2.263
72.88000 0.658
72.90000 -0.639
72.92000 -0.268
72.94000 1.631
72.96000 4.034
72.98000 3.970
73.00000 0.619
73.02000 -1.890
73.04000 -1.247
73.06000 1.373
73.08000 -0.623
73.10000 1.297
73.12000 1.824
73.14000 0.473
73.16000 2.080
73.18000 2.790
73.20000 3.664
73.22000 4.045
73.24000 1.111
73.26000 2.515
73.28000 2.821
73.30000 0.709
73.32000 0.822
73.34000 0.907
73.36000 2.794
73.38000 1.490
73.40000 0.666
73.42000 -1.906
73.44000 1.300
73.46000 0.375
73.48000 0.729
73.50000 0.037
73.52000 2.198
73.54000 0.256
73.56000 -0.183
73.58000 0.288
73.60000 -1.388
73.62000 -0.071
73.64000 0.158
73.66000 0.913
73.68000 1.902
73.70000 1.857
73.72000 0.122
73.74000 -0.022
73.76000 -0.011
73.78000 -0.051
73.80000 -0.544
73.82000 2.460
73.84000 0.659
73.86000 -0.536
73.88000 -0.343
73.90000 1.040
73.92000 0.715
73.94000 1.668
73.96000 1.092
73.98000 3.130
74.00000 0.436
74.02000 -1.466
74.04000 -0.385
74.06000 0.297
74.08000 -0.385
74.10000 -0.943
74.12000 0.066
74.14000 1.247
74.16000 0.635
74.18000 -0.543
74.20000 0.887
74.22000 2.851
74.24000 0.263
74.26000 -0.067
74.28000 4.504
74.30000 2.807
74.32000 1.923
74.34000 -0.410
74.36000 1.858
74.38000 1.147
74.40000 1.272
74.42000 -0.621
74.44000 -0.796
74.46000 1.191
74.48000 -0.589
74.50000 2.081
74.52000 2.054
74.54000 0.625
74.56000 0.907
74.58000 4.388
74.60000 2.044
74.62000 2.964
74.64000 3.276
74.66000 -0.340
74.68000 -1.887
74.70000 -0.043
74.72000 2.153
74.74000 2.872
74.76000 2.298
74.78000 -0.988
74.80000 -1.888
74.82000 2.269
74.84000 1.143
74.86000 2.985
74.88000 1.101
74.90000 2.804
74.92000 1.445
74.94000 1.684
74.96000 0.548
74.98000 0.043
75.00000 0.658
75.02000 0.619
75.04000 4.217
75.06000 1.245
75.08000 2.018
75.10000 -1.054
75.12000 3.432
75.14000 2.031
75.16000 1.272
75.18000 0.774
75.20000 5.375
75.22000 6.352
75.24000 2.413
75.26000 -1.894
75.28000 -1.875
75.30000 2.536
75.32000 0.385
75.34000 0.441
75.36000 1.193
75.38000 2.850
75.40000 5.300
75.42000 3.956
75.44000 -0.919
75.46000 1.475
75.48000 1.959
75.50000 0.092
75.52000 -0.872
75.54000 0.913
75.56000 4.259
75.58000 0.069
75.60000 4.880
75.62000 6.422
75.64000 2.623
75.66000 3.604
75.68000 1.236
75.70000 2.796
75.72000 3.164
75.74000 3.586
75.76000 2.191
75.78000 1.418
75.80000 1.379
75.82000 2.379
75.84000 0.945
75.86000 1.172
75.88000 0.955
75.90000 1.426
75.92000 0.634
75.94000 3.094
75.96000 -0.299
75.98000 -1.910
76.00000 -1.712
76.02000 1.282
76.04000 1.431
76.06000 1.569
76.08000 1.298
76.10000 -0.924
76.12000 2.174
76.14000 2.309
76.16000 0.803
76.18000 0.885
76.20000 -0.510
76.22000 0.061
76.24000 1.378
76.26000 3.336
76.28000 2.292
76.30000 -0.597
76.32000 2.312
76.34000 0.941
76.36000 0.298
76.38000 0.338
76.40000 -1.040
76.42000 -0.505
76.44000 0.181
76.46000 3.340
76.48000 3.068
76.50000 -0.958
76.52000 0.521
76.54000 1.045
76.56000 3.551
76.58000 3.906
76.60000 2.837
76.62000 3.347
76.64000 5.049
76.66000 4.506
76.68000 3.680
76.70000 1.296
76.72000 0.825
76.74000 1.355
76.76000 -1.928
76.78000 0.283
76.80000 0.298
76.82000 0.325
76.84000 0.810
76.86000 2.649
76.88000 2.084
76.90000 1.703
76.92000 0.564
76.94000 0.103
76.96000 0.806
76.98000 -1.929
77.00000 -1.213
77.02000 3.490
77.04000 0.312
77.06000 0.896
77.08000 0.609
77.10000 1.349
77.12000 1.408
77.14000 3.009
77.16000 4.802
77.18000 3.235
77.20000 2.078
77.22000 2.237
77.24000 0.879
77.26000 1.728
77.28000 3.084
77.30000 -1.931
77.32000 -1.408
77.34000 0.269
77.36000 -1.343
77.38000 -1.214
77.40000 2.321
77.42000 5.385
77.44000 3.199
77.46000 3.797
77.48000 -0.050
77.50000 4.022
77.52000 1.500
77.54000 0.719
77.56000 2.641
77.58000 1.512
77.60000 0.794
77.62000 1.050
77.64000 1.670
77.66000 1.673
77.68000 2.041
77.70000 1.250
77.72000 2.090
77.74000 2.289
77.76000 -1.964
77.78000 -1.182
77.80000 2.478
77.82000 1.746
77.84000 -1.224
77.86000 -0.414
77.88000 2.831
77.90000 0.846
77.92000 -1.346
77.94000 -0.241
77.96000 -0.022
77.98000 1.769
78.00000 2.212
78.02000 4.354
78.04000 4.885
78.06000 2.818
78.08000 0.921
78.10000 1.043
78.12000 0.826
78.14000 0.051
78.16000 -1.189
78.18000 -0.880
78.20000 1.593
78.22000 0.855
78.24000 0.976
78.26000 2.647
78.28000 3.280
78.30000 -1.514
78.32000 -1.697
78.34000 -2.001
78.36000 -1.811
78.38000 -0.626
78.40000 -0.614
78.42000 -0.534
78.44000 -1.324
78.46000 -0.006
78.48000 -0.726
78.50000 -0.535
78.52000 -0.192
78.54000 -0.352
78.56000 0.073
78.58000 1.123
78.60000 -1.946
78.62000 0.286
78.64000 0.900
78.66000 -1.083
78.68000 0.375
78.70000 -1.010
78.72000 0.383
78.74000 2.233
78.76000 0.167
78.78000 1.556
78.80000 4.103
78.82000 -0.186
78.84000 0.639
78.86000 -0.765
78.88000 0.613
78.90000 1.502
78.92000 -0.593
78.94000 0.466
78.96000 -1.456
78.98000 1.635
79.00000 2.238
79.02000 1.318
79.04000 3.435
79.06000 2.956
79.08000 1.485
79.10000 -2.011
79.12000 0.315
79.14000 3.003
79.16000 1.665
79.18000 -1.671
79.20000 1.982
79.22000 2.142
79.24000 -1.209
79.26000 -2.013
79.28000 -0.629
79.30000 -1.316
79.32000 -2.023
79.34000 -0.948
79.36000 -0.406
79.38000 2.767
79.40000 0.279
79.42000 0.327
79.44000 0.416
79.46000 1.065
79.48000 -0.358
79.50000 -1.925
79.52000 -1.924
79.54000 3.771
79.56000 0.525
79.58000 -0.646
79.60000 2.914
79.62000 4.182
79.64000 2.182
79.66000 2.388
79.68000 0.526
79.70000 1.201
79.72000 2.822
79.74000 -1.087
79.76000 -0.939
79.78000 2.703
79.80000 1.108
79.82000 -1.028
79.84000 -1.844
79.86000 -0.030
79.88000 2.545
79.90000 2.606
79.92000 0.761
79.94000 1.366
79.96000 4.268
79.98000 3.291
80.00000 3.048
80.02000 1.131
80.04000 0.233
80.06000 -0.395
80.08000 -0.002
80.10000 0.778
80.12000 2.439
80.14000 5.184
80.16000 2.306
80.18000 4.780
80.20000 1.681
80.22000 3.052
80.24000 3.728
80.26000 2.522
80.28000 -0.524
80.30000 1.802
80.32000 4.434
80.34000 4.170
80.36000 -0.532
80.38000 2.765
80.40000 6.348
80.42000 9.513
80.44000 6.571
80.46000 6.161
80.48000 9.208
80.50000 9.337
80.52000 8.092
80.54000 5.664
80.56000 8.273
80.58000 9.412
80.60000 7.523
80.62000 7.236
80.64000 10.005
80.66000 11.204
80.68000 10.335
80.70000 8.459
80.72000 9.889
80.74000 10.858
80.76000 9.310
80.78000 13.029
80.80000 12.913
80.82000 10.573
80.84000 10.150
80.86000 14.334
80.88000 15.350
80.90000 14.394
80.92000 14.980
80.94000 12.799
80.96000 13.688
80.98000 15.079
81.00000 14.291
81.02000 16.832
81.04000 20.819
81.06000 17.890
81.08000 17.625
81.10000 15.446
81.12000 13.599
81.14000 14.224
81.16000 15.050
81.18000 16.769
81.20000 19.429
81.22000 16.880
81.24000 18.755
81.26000 19.507
81.28000 19.585
81.30000 15.724
81.32000 17.366
81.34000 17.125
81.36000 14.743
81.38000 17.451
81.40000 18.054
81.42000 13.675
81.44000 15.732
81.46000 17.043
81.48000 17.570
81.50000 17.432
81.52000 14.045
81.54000 16.191
81.56000 15.791
81.58000 12.526
81.60000 11.485
81.62000 13.335
81.64000 13.670
81.66000 12.862
81.68000 12.942
81.70000 12.553
81.72000 13.590
81.74000 11.473
81.76000 11.210
81.78000 11.028
81.80000 11.118
81.82000 6.899
81.84000 6.647
81.86000 5.135
81.88000 6.352
81.90000 5.234
81.92000 5.986
81.94000 6.719
81.96000 6.420
81.98000 5.663
82.00000 3.055
82.02000 4.842
82.04000 7.978
82.06000 6.729
82.08000 5.229
82.10000 4.578
82.12000 2.020
82.14000 1.824
82.16000 4.006
82.18000 4.558
82.20000 1.666
82.22000 3.617
82.24000 2.588
82.26000 2.113
82.28000 2.127
82.30000 3.182
82.32000 2.852
82.34000 0.871
82.36000 -2.156
82.38000 -0.135
82.40000 1.367
82.42000 1.976
82.44000 1.245
82.46000 4.320
82.48000 2.257
82.50000 0.155
82.52000 1.232
82.54000 2.126
82.56000 1.275
82.58000 -0.956
82.60000 2.541
82.62000 0.175
82.64000 1.065
82.66000 1.343
82.68000 0.661
82.70000 -0.197
82.72000 -0.402
82.74000 1.407
82.76000 -1.464
82.78000 0.359
82.80000 1.777
82.82000 0.863
82.84000 -0.039
82.86000 -1.349
82.88000 -0.762
82.90000 -0.681
82.92000 -1.780
82.94000 -2.102
82.96000 -1.853
82.98000 -0.096
83.00000 -0.143
83.02000 -0.122
83.04000 2.758
83.06000 2.360
83.08000 1.387
83.10000 3.237
83.12000 4.141
83.14000 5.748
83.16000 5.763
83.18000 2.354
83.20000 -2.071
83.22000 -0.378
83.24000 0.350
83.26000 2.347
83.28000 -0.889
83.30000 -0.486
83.32000 -0.732
83.34000 3.026
83.36000 0.994
83.38000 -0.430
83.40000 1.981
83.42000 3.859
83.44000 2.761
83.46000 1.804
83.48000 2.215
83.50000 3.076
83.52000 5.885
83.54000 4.500
83.56000 0.006
83.58000 0.514
83.60000 2.169
83.62000 0.462
83.64000 0.748
83.66000 2.190
83.68000 2.619
83.70000 3.139
83.72000 -1.078
83.74000 -2.098
83.76000 0.023
83.78000 1.364
83.80000 2.536
83.82000 3.947
83.84000 2.891
83.86000 -0.558
83.88000 -1.105
83.90000 2.141
83.92000 1.681
83.94000 -0.796
83.96000 0.999
83.98000 2.655
84.00000 2.932
84.02000 4.626
84.04000 2.813
84.06000 -0.035
84.08000 0.946
84.10000 2.878
84.12000 0.783
84.14000 4.579
84.16000 3.303
84.18000 2.712
84.20000 3.120
84.22000 2.005
84.24000 3.305
84.26000 5.144
84.28000 7.016
84.30000 7.994
84.32000 8.597
84.34000 8.221
84.36000 1.810
84.38000 1.984
84.40000 7.212
84.42000 12.868
84.44000 10.514
84.46000 6.625
84.48000 8.778
84.50000 9.660
84.52000 6.740
84.54000 9.304
84.56000 8.258
84.58000 10.356
84.60000 11.171
84.62000 13.563
84.64000 11.547
84.66000 9.115
84.68000 13.597
84.70000 15.754
84.72000 17.387
84.74000 12.563
84.76000 13.898
84.78000 14.606
84.80000 18.697
84.82000 15.665
84.84000 14.859
84.86000 17.684
84.88000 19.775
84.90000 18.368
84.92000 19.886
84.94000 20.013
84.96000 17.346
84.98000 18.645
85.00000 15.934
85.02000 20.043
85.04000 24.615
85.06000 20.004
85.08000 18.086
85.10000 17.616
85.12000 19.299
85.14000 18.329
85.16000 18.537
85.18000 22.811
85.20000 23.283
85.22000 20.364
85.24000 21.483
85.26000 19.413
85.28000 20.374
85.30000 17.095
85.32000 18.260
85.34000 18.730
85.36000 17.313
85.38000 17.317
85.40000 22.461
85.42000 23.005
85.44000 20.121
85.46000 18.970
85.48000 17.796
85.50000 14.940
85.52000 14.922
85.54000 17.185
85.56000 18.513
85.58000 16.311
85.60000 13.712
85.62000 13.097
85.64000 16.126
85.66000 15.887
85.68000 11.751
85.70000 9.412
85.72000 7.788
85.74000 8.279
85.76000 10.989
85.78000 11.252
85.80000 10.619
85.82000 8.906
85.84000 7.906
85.86000 10.287
85.88000 11.042
85.90000 8.382
85.92000 6.283
85.94000 5.779
85.96000 8.838
85.98000 11.979
86.00000 7.503
86.02000 5.463
86.04000 6.683
86.06000 7.355
86.08000 6.298
86.10000 7.147
86.12000 2.899
86.14000 5.186
86.16000 2.792
86.18000 3.135
86.20000 6.441
86.22000 1.595
86.24000 1.371
86.26000 1.351
86.28000 2.283
86.30000 0.752
86.32000 0.533
86.34000 -0.822
86.36000 0.573
86.38000 4.045
86.40000 3.138
86.42000 2.126
86.44000 2.400
86.46000 1.373
86.48000 0.756
86.50000 -0.326
86.52000 1.678
86.54000 3.135
86.56000 -1.542
86.58000 -1.932
86.60000 2.969
86.62000 2.728
86.64000 1.861
86.66000 1.183
86.68000 0.505
86.70000 -0.272
86.72000 -1.013
86.74000 0.419
86.76000 0.791
86.78000 1.836
86.80000 -0.517
86.82000 -1.893
86.84000 -0.070
86.86000 1.595
86.88000 0.878
86.90000 0.880
86.92000 0.369
86.94000 -0.696
86.96000 -0.401
86.98000 -0.124
87.00000 1.847
87.02000 -0.774
87.04000 -0.807
87.06000 -0.076
87.08000 -0.182
87.10000 1.594
87.12000 2.161
87.14000 -1.880
87.16000 -0.536
87.18000 0.239
87.20000 1.409
87.22000 0.378
87.24000 -0.307
87.26000 -0.572
87.28000 1.042
87.30000 -0.042
87.32000 1.126
87.34000 2.620
87.36000 3.417
87.38000 3.662
87.40000 4.927
87.42000 4.078
87.44000 0.786
87.46000 -1.314
87.48000 -0.037
87.50000 -0.720
87.52000 1.647
87.54000 3.268
87.56000 0.448
87.58000 -0.522
87.60000 3.471
87.62000 3.242
87.64000 0.615
87.66000 0.467
87.68000 1.459
87.70000 -0.157
87.72000 -0.178
87.74000 0.074
87.76000 -0.754
87.78000 -0.692
87.80000 0.208
87.82000 -1.479
87.84000 -0.769
87.86000 3.292
87.88000 3.244
87.90000 1.281
87.92000 1.115
87.94000 0.124
87.96000 -0.201
87.98000 1.251
88.00000 2.223
88.02000 1.405
88.04000 -0.380
88.06000 -1.559
88.08000 0.113
88.10000 -1.825
88.12000 1.274
88.14000 1.701
88.16000 0.174
88.18000 1.719
88.20000 3.462
88.22000 1.777
88.24000 1.536
88.26000 3.338
88.28000 -0.550
88.30000 0.982
88.32000 1.059
88.34000 2.247
88.36000 5.741
88.38000 4.174
88.40000 4.217
88.42000 5.576
88.44000 4.352
88.46000 3.357
88.48000 2.416
88.50000 1.393
88.52000 0.417
88.54000 1.539
88.56000 3.824
88.58000 1.263
88.60000 1.715
88.62000 1.455
88.64000 -0.916
88.66000 -1.046
88.68000 2.442
88.70000 1.102
88.72000 0.556
88.74000 0.214
88.76000 -1.767
88.78000 1.189
88.80000 0.829
88.82000 2.586
88.84000 1.356
88.86000 2.138
88.88000 0.280
88.90000 2.027
88.92000 2.482
88.94000 2.493
88.96000 2.405
88.98000 1.626
89.00000 0.458
89.02000 1.841
89.04000 3.150
89.06000 6.016
89.08000 4.953
89.10000 4.924
89.12000 8.189
89.14000 5.149
89.16000 -0.120
89.18000 0.342
89.20000 0.975
89.22000 0.580
89.24000 1.595
89.26000 2.163
89.28000 1.601
89.30000 0.380
89.32000 -1.723
89.34000 0.845
89.36000 -1.588
89.38000 -1.800
89.40000 0.245
89.42000 2.813
89.44000 0.941
89.46000 0.939
89.48000 2.248
89.50000 2.356
89.52000 3.518
89.54000 1.863
89.56000 1.746
89.58000 -0.217
89.60000 2.198
89.62000 2.490
89.64000 0.351
89.66000 -1.365
89.68000 -0.280
89.70000 1.531
89.72000 4.600
89.74000 3.329
89.76000 3.925
89.78000 4.911
89.80000 0.626
89.82000 1.724
89.84000 0.077
89.86000 0.497
89.88000 0.456
89.90000 2.737
89.92000 3.077
89.94000 2.391
89.96000 1.710
89.98000 0.744
90.00000 0.655
90.02000 1.928
90.04000 4.366
90.06000 4.632
90.08000 1.359
90.10000 -0.401
90.12000 1.909
90.14000 0.371
90.16000 1.149
90.18000 7.461
90.20000 4.683
90.22000 1.436
90.24000 -0.232
90.26000 1.662
90.28000 3.131
90.30000 6.070
90.32000 4.009
90.34000 2.752
90.36000 2.958
90.38000 0.827
90.40000 0.897
90.42000 1.204
90.44000 1.610
90.46000 2.029
90.48000 -1.777
90.50000 -0.413
90.52000 3.095
90.54000 2.502
90.56000 1.688
90.58000 1.961
90.60000 2.033
90.62000 0.846
90.64000 2.003
90.66000 3.753
90.68000 4.084
90.70000 0.965
90.72000 1.932
90.74000 3.339
90.76000 2.831
90.78000 -0.293
90.80000 -0.799
90.82000 0.468
90.84000 2.188
90.86000 0.939
90.88000 1.755
90.90000 3.132
90.92000 -0.334
90.94000 -1.622
90.96000 2.437
90.98000 4.628
91.00000 2.558
91.02000 2.063
91.04000 -0.387
91.06000 1.513
91.08000 3.337
91.10000 1.824
91.12000 2.494
91.14000 1.138
91.16000 -1.800
91.18000 0.714
91.20000 5.375
91.22000 5.706
91.24000 -0.027
91.26000 0.460
91.28000 2.253
91.30000 0.503
91.32000 -0.355
91.34000 3.489
91.36000 3.964
91.38000 2.553
91.40000 1.576
91.42000 0.793
91.44000 1.155
91.46000 0.484
91.48000 0.072
91.50000 -1.211
91.52000 0.705
91.54000 4.044
91.56000 3.649
91.58000 2.528
91.60000 -1.801
91.62000 -1.649
91.64000 0.954
91.66000 2.594
91.68000 -0.652
91.70000 -0.521
91.72000 3.133
91.74000 3.755
91.76000 2.789
91.78000 3.656
91.80000 0.844
91.82000 3.750
91.84000 3.696
91.86000 1.554
91.88000 1.041
91.90000 0.400
91.92000 -0.370
91.94000 0.362
91.96000 0.086
91.98000 2.661
92.00000 3.656
92.02000 3.562
92.04000 -0.072
92.06000 0.952
92.08000 4.847
92.10000 1.549
92.12000 0.596
92.14000 2.968
92.16000 2.808
92.18000 4.629
92.20000 1.569
92.22000 -0.233
92.24000 1.416
92.26000 5.734
92.28000 4.287
92.30000 0.382
92.32000 0.515
92.34000 0.245
92.36000 -1.802
92.38000 1.692
92.40000 0.299
92.42000 2.239
92.44000 4.427
92.46000 5.290
92.48000 1.715
92.50000 0.109
92.52000 0.490
92.54000 2.190
92.56000 0.580
92.58000 0.868
92.60000 2.050
92.62000 1.722
92.64000 2.834
92.66000 2.069
92.68000 1.273
92.70000 2.371
92.72000 2.853
92.74000 -1.242
92.76000 2.493
92.78000 2.852
92.80000 0.646
92.82000 0.996
92.84000 2.491
92.86000 3.374
92.88000 1.560
92.90000 0.035
92.92000 -1.817
92.94000 -1.361
92.96000 -0.731
92.98000 2.092
93.00000 4.619
93.02000 2.463
93.04000 0.368
93.06000 -0.725
93.08000 0.220
93.10000 1.336
93.12000 2.220
93.14000 2.178
93.16000 0.065
93.18000 3.795
93.20000 6.897
93.22000 4.779
93.24000 4.645
93.26000 3.984
93.28000 1.485
93.30000 1.266
93.32000 3.602
93.34000 3.298
93.36000 2.300
93.38000 1.529
93.40000 -0.586
93.42000 -1.807
93.44000 -1.581
93.46000 3.191
93.48000 4.813
93.50000 2.100
93.52000 2.004
93.54000 3.002
93.56000 3.739
93.58000 3.141
93.60000 1.890
93.62000 3.155
93.64000 1.910
93.66000 -1.089
93.68000 1.989
93.70000 1.930
93.72000 4.242
93.74000 5.848
93.76000 2.876
93.78000 -0.305
93.80000 -0.204
93.82000 -0.119
93.84000 2.775
93.86000 1.583
93.88000 1.486
93.90000 -1.791
93.92000 2.941
93.94000 2.304
93.96000 4.883
93.98000 4.150
94.00000 1.466
94.02000 -0.393
94.04000 -1.784
94.06000 -1.110
94.08000 -1.077
94.10000 -1.365
94.12000 -0.076
94.14000 1.313
94.16000 0.617
94.18000 1.029
94.20000 0.841
94.22000 -1.251
94.24000 -0.268
94.26000 2.093
94.28000 3.958
94.30000 1.143
94.32000 0.254
94.34000 0.417
94.36000 5.208
94.38000 4.592
94.40000 3.244
94.42000 3.848
94.44000 3.730
94.46000 0.218
94.48000 3.531
94.50000 6.356
94.52000 3.234
94.54000 2.286
94.56000 0.752
94.58000 3.147
94.60000 1.188
94.62000 4.033
94.64000 4.100
94.66000 3.208
94.68000 2.513
94.70000 3.045
94.72000 0.307
94.74000 -1.469
94.76000 1.880
94.78000 3.028
94.80000 2.035
94.82000 1.509
94.84000 1.581
94.86000 2.902
94.88000 2.364
94.90000 2.908
94.92000 2.911
94.94000 3.544
94.96000 3.268
94.98000 2.237
95.00000 2.396
95.02000 0.374
95.04000 -1.403
95.06000 -1.343
95.08000 2.743
95.10000 4.396
95.12000 -1.311
95.14000 0.086
95.16000 3.291
95.18000 0.619
95.20000 -0.654
95.22000 0.374
95.24000 2.420
95.26000 -0.600
95.28000 -1.718
95.30000 2.227
95.32000 7.879
95.34000 6.421
95.36000 3.962
95.38000 2.726
95.40000 2.833
95.42000 3.023
95.44000 4.042
95.46000 3.954
95.48000 6.134
95.50000 6.213
95.52000 4.105
95.54000 3.670
95.56000 2.983
95.58000 0.443
95.60000 -0.381
95.62000 1.147
95.64000 2.474
95.66000 3.996
95.68000 5.431
95.70000 2.883
95.72000 0.285
95.74000 1.341
95.76000 1.090
95.78000 2.496
95.80000 -0.441
95.82000 -1.795
95.84000 3.548
95.86000 5.175
95.88000 2.456
95.90000 2.673
95.92000 4.569
95.94000 2.044
95.96000 0.824
95.98000 1.292
96.00000 0.390
96.02000 0.097
96.04000 2.128
96.06000 2.548
96.08000 2.171
96.10000 1.083
96.12000 3.090
96.14000 2.877
96.16000 4.911
96.18000 7.005
96.20000 4.617
96.22000 2.589
96.24000 -1.785
96.26000 2.716
96.28000 5.964
96.30000 5.425
96.32000 4.450
96.34000 1.996
96.36000 2.276
96.38000 2.764
96.40000 4.324
96.42000 5.213
96.44000 4.554
96.46000 4.519
96.48000 6.634
96.50000 4.140
96.52000 2.146
96.54000 6.688
96.56000 2.745
96.58000 3.323
96.60000 2.610
96.62000 0.262
96.64000 1.963
96.66000 4.037
96.68000 5.121
96.70000 6.556
96.72000 2.473
96.74000 -0.805
96.76000 2.166
96.78000 3.540
96.80000 2.479
96.82000 7.998
96.84000 8.770
96.86000 6.230
96.88000 9.330
96.90000 5.209
96.92000 7.166
96.94000 4.534
96.96000 5.111
96.98000 4.784
97.00000 6.768
97.02000 11.020
97.04000 7.265
97.06000 6.904
97.08000 8.576
97.10000 6.657
97.12000 4.650
97.14000 -0.988
97.16000 -1.704
97.18000 6.164
97.20000 7.848
97.22000 6.609
97.24000 6.597
97.26000 5.547
97.28000 2.627
97.30000 1.695
97.32000 3.440
97.34000 5.577
97.36000 5.085
97.38000 5.945
97.40000 7.813
97.42000 8.734
97.44000 7.442
97.46000 6.906
97.48000 5.237
97.50000 7.321
97.52000 9.342
97.54000 5.317
97.56000 3.758
97.58000 4.955
97.60000 4.946
97.62000 2.294
97.64000 3.050
97.66000 4.606
97.68000 1.510
97.70000 2.267
97.72000 5.194
97.74000 5.141
97.76000 6.653
97.78000 4.334
97.80000 5.380
97.82000 6.689
97.84000 7.486
97.86000 6.816
97.88000 11.334
97.90000 9.381
97.92000 -0.012
97.94000 1.986
97.96000 1.998
97.98000 1.201
98.00000 4.676
98.02000 7.227
98.04000 2.663
98.06000 4.941
98.08000 6.414
98.10000 1.261
98.12000 -0.691
98.14000 -0.349
98.16000 3.484
98.18000 2.490
98.20000 4.784
98.22000 6.396
98.24000 4.910
98.26000 -0.740
98.28000 3.915
98.30000 4.611
98.32000 4.744
98.34000 4.344
98.36000 5.038
98.38000 6.441
98.40000 0.614
98.42000 -1.338
98.44000 1.020
98.46000 4.560
98.48000 -1.753
98.50000 1.437
98.52000 2.429
98.54000 5.560
98.56000 -0.570
98.58000 1.552
98.60000 3.228
98.62000 5.730
98.64000 5.832
98.66000 6.202
98.68000 4.118
98.70000 0.398
98.72000 4.308
98.74000 2.189
98.76000 4.081
98.78000 2.285
98.80000 6.358
98.82000 5.566
98.84000 3.854
98.86000 4.304
98.88000 -0.310
98.90000 0.684
98.92000 6.026
98.94000 6.252
98.96000 0.998
98.98000 4.297
99.00000 4.104
99.02000 3.397
99.04000 3.017
99.06000 2.095
99.08000 0.412
99.10000 -0.354
99.12000 2.004
99.14000 2.292
99.16000 2.725
99.18000 4.845
99.20000 1.642
99.22000 5.520
99.24000 8.743
99.26000 11.231
99.28000 5.963
99.30000 -2.165
99.32000 3.226
99.34000 3.251
99.36000 4.756
99.38000 1.809
99.40000 5.628
99.42000 12.289
99.44000 7.344
99.46000 2.545
99.48000 3.460
99.50000 12.259
99.52000 5.395
99.54000 -1.739
99.56000 2.819
99.58000 2.150
99.60000 8.024
99.62000 10.329
99.64000 6.165
99.66000 10.163
99.68000 5.063
99.70000 3.426
99.72000 6.885
99.74000 8.491
99.76000 3.552
99.78000 4.161
99.80000 9.249
99.82000 8.941
99.84000 9.341
99.86000 6.808
99.88000 0.971
99.90000 -1.746
99.92000 1.279
99.94000 -0.930
99.96000 -1.889
99.98000 0.000
