'Id: "0011387" Comment: "Integrate frame 0011387_Au-Ir-Rh_Rh-rich_XRD-Mapping-093-0000.gfrmwith cursor Wedge Cursor #5" Operator: "B?rgel" Anode: "Cu" Wavelength: "1.5406" Scantype: "2Theta (TwoTheta)" TimePerStep: "1" X: "40.5" Y: "-18" Z: "5.95" 
10.00000 0.000
10.02000 -3.080
10.04000 1.836
10.06000 1.405
10.08000 2.384
10.10000 8.234
10.12000 12.355
10.14000 8.674
10.16000 11.363
10.18000 3.667
10.20000 2.526
10.22000 9.943
10.24000 6.458
10.26000 7.431
10.28000 4.693
10.30000 13.829
10.32000 13.095
10.34000 2.001
10.36000 7.400
10.38000 3.972
10.40000 12.871
10.42000 11.682
10.44000 18.302
10.46000 10.065
10.48000 14.233
10.50000 16.045
10.52000 12.186
10.54000 10.707
10.56000 26.205
10.58000 22.245
10.60000 11.645
10.62000 11.813
10.64000 12.156
10.66000 18.298
10.68000 14.458
10.70000 11.476
10.72000 20.967
10.74000 15.990
10.76000 13.081
10.78000 12.148
10.80000 14.600
10.82000 19.780
10.84000 31.565
10.86000 21.676
10.88000 23.552
10.90000 33.598
10.92000 24.225
10.94000 23.845
10.96000 19.433
10.98000 23.532
11.00000 14.049
11.02000 17.558
11.04000 18.186
11.06000 17.715
11.08000 23.840
11.10000 30.980
11.12000 28.115
11.14000 30.043
11.16000 29.877
11.18000 32.821
11.20000 29.727
11.22000 33.468
11.24000 31.642
11.26000 28.777
11.28000 30.067
11.30000 33.079
11.32000 34.952
11.34000 37.774
11.36000 33.354
11.38000 40.468
11.40000 34.506
11.42000 36.400
11.44000 30.191
11.46000 25.161
11.48000 23.593
11.50000 22.826
11.52000 21.705
11.54000 22.449
11.56000 24.590
11.58000 35.255
11.60000 37.802
11.62000 37.738
11.64000 30.819
11.66000 23.709
11.68000 26.945
11.70000 34.104
11.72000 35.314
11.74000 33.343
11.76000 38.669
11.78000 39.283
11.80000 36.129
11.82000 33.862
11.84000 29.569
11.86000 28.393
11.88000 32.920
11.90000 21.946
11.92000 29.751
11.94000 39.570
11.96000 44.492
11.98000 41.766
12.00000 30.986
12.02000 37.638
12.04000 47.178
12.06000 42.253
12.08000 44.470
12.10000 34.876
12.12000 35.296
12.14000 37.822
12.16000 34.604
12.18000 39.492
12.20000 44.375
12.22000 43.066
12.24000 51.490
12.26000 40.925
12.28000 42.329
12.30000 52.547
12.32000 49.306
12.34000 40.429
12.36000 40.522
12.38000 45.707
12.40000 49.325
12.42000 38.878
12.44000 44.456
12.46000 53.751
12.48000 42.429
12.50000 38.563
12.52000 42.811
12.54000 40.977
12.56000 44.508
12.58000 40.765
12.60000 42.108
12.62000 46.871
12.64000 48.464
12.66000 54.365
12.68000 50.036
12.70000 49.748
12.72000 55.817
12.74000 54.805
12.76000 45.585
12.78000 49.011
12.80000 45.267
12.82000 49.442
12.84000 50.997
12.86000 42.786
12.88000 40.319
12.90000 49.350
12.92000 44.888
12.94000 45.167
12.96000 41.771
12.98000 46.554
13.00000 58.428
13.02000 50.346
13.04000 50.953
13.06000 47.485
13.08000 40.339
13.10000 45.141
13.12000 41.304
13.14000 40.715
13.16000 42.087
13.18000 58.290
13.20000 56.290
13.22000 40.894
13.24000 48.049
13.26000 43.192
13.28000 40.578
13.30000 42.107
13.32000 42.821
13.34000 43.098
13.36000 46.938
13.38000 39.663
13.40000 35.961
13.42000 42.920
13.44000 43.243
13.46000 32.015
13.48000 43.558
13.50000 46.794
13.52000 44.384
13.54000 52.344
13.56000 46.065
13.58000 36.199
13.60000 35.291
13.62000 37.470
13.64000 43.712
13.66000 40.838
13.68000 42.574
13.70000 36.946
13.72000 39.442
13.74000 39.258
13.76000 38.327
13.78000 42.160
13.80000 46.899
13.82000 53.530
13.84000 47.615
13.86000 43.269
13.88000 34.481
13.90000 31.937
13.92000 42.024
13.94000 49.964
13.96000 48.566
13.98000 38.157
14.00000 37.160
14.02000 31.071
14.04000 36.607
14.06000 46.113
14.08000 39.710
14.10000 35.961
14.12000 44.184
14.14000 46.065
14.16000 40.775
14.18000 37.992
14.20000 45.046
14.22000 56.206
14.24000 45.156
14.26000 31.802
14.28000 37.626
14.30000 40.346
14.32000 33.219
14.34000 27.865
14.36000 27.118
14.38000 37.118
14.40000 37.046
14.42000 42.473
14.44000 39.516
14.46000 34.640
14.48000 31.620
14.50000 27.216
14.52000 33.945
14.54000 27.847
14.56000 31.592
14.58000 36.669
14.60000 39.596
14.62000 34.688
14.64000 28.109
14.66000 32.279
14.68000 37.472
14.70000 38.768
14.72000 37.211
14.74000 28.513
14.76000 31.894
14.78000 39.274
14.80000 37.361
14.82000 27.743
14.84000 23.267
14.86000 20.939
14.88000 26.157
14.90000 33.207
14.92000 26.772
14.94000 28.586
14.96000 27.855
14.98000 27.191
15.00000 28.496
15.02000 26.694
15.04000 30.687
15.06000 31.157
15.08000 21.458
15.10000 24.595
15.12000 26.380
15.14000 27.221
15.16000 30.121
15.18000 23.274
15.20000 22.752
15.22000 26.513
15.24000 29.008
15.26000 34.226
15.28000 36.431
15.30000 32.428
15.32000 29.325
15.34000 35.076
15.36000 35.262
15.38000 32.357
15.40000 29.409
15.42000 23.754
15.44000 27.571
15.46000 13.722
15.48000 17.202
15.50000 20.067
15.52000 18.555
15.54000 17.221
15.56000 14.506
15.58000 16.099
15.60000 28.135
15.62000 29.493
15.64000 27.364
15.66000 23.486
15.68000 18.349
15.70000 27.638
15.72000 23.791
15.74000 19.167
15.76000 23.936
15.78000 21.937
15.80000 20.386
15.82000 14.948
15.84000 17.191
15.86000 24.830
15.88000 31.989
15.90000 23.869
15.92000 22.745
15.94000 19.217
15.96000 16.180
15.98000 19.529
16.00000 24.766
16.02000 22.030
16.04000 17.903
16.06000 13.541
16.08000 14.439
16.10000 17.399
16.12000 10.651
16.14000 20.905
16.16000 17.312
16.18000 14.907
16.20000 21.472
16.22000 22.483
16.24000 14.737
16.26000 11.191
16.28000 8.255
16.30000 14.523
16.32000 24.115
16.34000 26.875
16.36000 22.125
16.38000 18.999
16.40000 9.362
16.42000 18.166
16.44000 22.367
16.46000 18.236
16.48000 13.437
16.50000 15.962
16.52000 20.757
16.54000 12.866
16.56000 7.499
16.58000 14.580
16.60000 16.093
16.62000 9.678
16.64000 12.392
16.66000 21.296
16.68000 19.562
16.70000 13.044
16.72000 11.437
16.74000 13.264
16.76000 11.596
16.78000 14.289
16.80000 11.921
16.82000 5.911
16.84000 14.054
16.86000 21.207
16.88000 12.919
16.90000 10.846
16.92000 8.248
16.94000 3.152
16.96000 8.073
16.98000 12.923
17.00000 18.698
17.02000 17.311
17.04000 18.615
17.06000 14.970
17.08000 8.125
17.10000 19.577
17.12000 15.207
17.14000 9.993
17.16000 17.333
17.18000 10.574
17.20000 7.979
17.22000 10.251
17.24000 5.866
17.26000 13.560
17.28000 14.294
17.30000 17.887
17.32000 12.812
17.34000 11.777
17.36000 10.518
17.38000 7.574
17.40000 2.495
17.42000 0.418
17.44000 3.114
17.46000 4.943
17.48000 6.110
17.50000 7.505
17.52000 7.410
17.54000 9.852
17.56000 15.041
17.58000 22.816
17.60000 17.154
17.62000 11.235
17.64000 8.344
17.66000 1.935
17.68000 2.268
17.70000 5.224
17.72000 10.589
17.74000 11.102
17.76000 3.324
17.78000 12.571
17.80000 9.224
17.82000 8.336
17.84000 5.785
17.86000 2.455
17.88000 6.601
17.90000 11.702
17.92000 8.157
17.94000 7.108
17.96000 2.388
17.98000 10.881
18.00000 8.959
18.02000 10.415
18.04000 6.739
18.06000 8.607
18.08000 12.447
18.10000 5.993
18.12000 10.830
18.14000 10.278
18.16000 1.249
18.18000 2.581
18.20000 6.530
18.22000 2.563
18.24000 -0.166
18.26000 4.034
18.28000 2.425
18.30000 14.220
18.32000 10.301
18.34000 8.852
18.36000 6.592
18.38000 7.973
18.40000 5.613
18.42000 6.844
18.44000 12.716
18.46000 9.132
18.48000 7.414
18.50000 8.603
18.52000 6.919
18.54000 11.260
18.56000 7.188
18.58000 2.875
18.60000 5.393
18.62000 13.459
18.64000 8.975
18.66000 11.221
18.68000 1.884
18.70000 -3.605
18.72000 -4.195
18.74000 -4.264
18.76000 1.511
18.78000 9.951
18.80000 7.628
18.82000 7.870
18.84000 5.513
18.86000 6.353
18.88000 1.916
18.90000 1.681
18.92000 2.129
18.94000 4.002
18.96000 2.674
18.98000 0.299
19.00000 4.496
19.02000 9.768
19.04000 9.003
19.06000 3.316
19.08000 5.968
19.10000 10.758
19.12000 11.046
19.14000 8.391
19.16000 10.343
19.18000 5.334
19.20000 3.964
19.22000 3.124
19.24000 1.229
19.26000 2.266
19.28000 4.524
19.30000 5.370
19.32000 9.724
19.34000 6.629
19.36000 4.569
19.38000 2.284
19.40000 2.170
19.42000 1.997
19.44000 3.060
19.46000 -3.340
19.48000 3.262
19.50000 9.645
19.52000 10.643
19.54000 8.636
19.56000 -2.237
19.58000 -1.654
19.60000 1.124
19.62000 0.849
19.64000 1.833
19.66000 2.871
19.68000 1.766
19.70000 0.903
19.72000 1.936
19.74000 2.020
19.76000 -4.215
19.78000 0.357
19.80000 6.840
19.82000 4.513
19.84000 11.768
19.86000 12.517
19.88000 8.765
19.90000 10.841
19.92000 7.068
19.94000 6.582
19.96000 4.468
19.98000 13.284
20.00000 10.504
20.02000 6.711
20.04000 3.497
20.06000 1.752
20.08000 0.595
20.10000 2.716
20.12000 3.043
20.14000 2.016
20.16000 0.964
20.18000 0.796
20.20000 3.875
20.22000 8.628
20.24000 8.184
20.26000 4.982
20.28000 2.856
20.30000 3.897
20.32000 3.015
20.34000 -1.441
20.36000 1.769
20.38000 6.906
20.40000 10.689
20.42000 6.828
20.44000 -3.528
20.46000 1.148
20.48000 9.443
20.50000 8.350
20.52000 14.590
20.54000 8.625
20.56000 5.743
20.58000 1.499
20.60000 -1.186
20.62000 -0.362
20.64000 4.301
20.66000 4.561
20.68000 -0.122
20.70000 -3.133
20.72000 0.923
20.74000 6.944
20.76000 4.772
20.78000 6.743
20.80000 7.065
20.82000 8.394
20.84000 8.064
20.86000 7.854
20.88000 1.826
20.90000 -1.672
20.92000 1.944
20.94000 -2.581
20.96000 2.208
20.98000 3.739
21.00000 0.858
21.02000 5.415
21.04000 9.142
21.06000 11.004
21.08000 5.699
21.10000 2.733
21.12000 1.430
21.14000 -4.143
21.16000 -1.754
21.18000 8.986
21.20000 14.787
21.22000 12.748
21.24000 10.543
21.26000 8.865
21.28000 7.666
21.30000 1.657
21.32000 4.477
21.34000 6.553
21.36000 2.654
21.38000 2.130
21.40000 -3.554
21.42000 1.585
21.44000 3.896
21.46000 0.014
21.48000 -2.268
21.50000 0.968
21.52000 5.776
21.54000 0.602
21.56000 1.898
21.58000 4.231
21.60000 4.939
21.62000 -0.819
21.64000 1.498
21.66000 -3.696
21.68000 3.103
21.70000 7.502
21.72000 4.534
21.74000 -0.194
21.76000 4.822
21.78000 7.703
21.80000 6.626
21.82000 5.839
21.84000 -0.240
21.86000 0.472
21.88000 4.722
21.90000 5.461
21.92000 1.182
21.94000 0.194
21.96000 6.638
21.98000 5.536
22.00000 0.633
22.02000 8.008
22.04000 0.598
22.06000 1.614
22.08000 0.373
22.10000 1.671
22.12000 3.911
22.14000 9.467
22.16000 7.872
22.18000 2.084
22.20000 1.382
22.22000 3.361
22.24000 10.211
22.26000 11.758
22.28000 4.094
22.30000 4.794
22.32000 5.534
22.34000 3.029
22.36000 7.685
22.38000 7.290
22.40000 -1.174
22.42000 -3.259
22.44000 -4.069
22.46000 2.054
22.48000 5.362
22.50000 0.226
22.52000 2.261
22.54000 5.466
22.56000 5.691
22.58000 -3.556
22.60000 3.386
22.62000 2.711
22.64000 0.046
22.66000 3.448
22.68000 6.471
22.70000 5.323
22.72000 7.994
22.74000 3.255
22.76000 5.869
22.78000 8.917
22.80000 11.115
22.82000 2.146
22.84000 -3.796
22.86000 -1.686
22.88000 2.615
22.90000 3.488
22.92000 -0.942
22.94000 -4.049
22.96000 4.000
22.98000 9.266
23.00000 6.398
23.02000 8.560
23.04000 6.264
23.06000 0.376
23.08000 1.496
23.10000 0.412
23.12000 -2.447
23.14000 1.195
23.16000 5.607
23.18000 5.810
23.20000 1.408
23.22000 0.650
23.24000 5.601
23.26000 1.558
23.28000 -0.729
23.30000 -1.293
23.32000 -1.206
23.34000 -0.107
23.36000 2.619
23.38000 2.727
23.40000 2.982
23.42000 2.575
23.44000 3.569
23.46000 4.678
23.48000 -2.288
23.50000 0.716
23.52000 1.832
23.54000 -1.118
23.56000 -0.012
23.58000 -0.564
23.60000 7.212
23.62000 9.272
23.64000 12.753
23.66000 4.106
23.68000 -2.834
23.70000 1.832
23.72000 -1.571
23.74000 2.170
23.76000 1.274
23.78000 6.389
23.80000 3.367
23.82000 -3.363
23.84000 -2.788
23.86000 -1.500
23.88000 2.840
23.90000 -0.455
23.92000 1.952
23.94000 0.430
23.96000 -0.667
23.98000 -1.084
24.00000 2.601
24.02000 2.519
24.04000 -0.356
24.06000 1.417
24.08000 -3.993
24.10000 -3.992
24.12000 1.681
24.14000 3.588
24.16000 -0.442
24.18000 -1.693
24.20000 -1.132
24.22000 -0.562
24.24000 2.075
24.26000 3.103
24.28000 2.305
24.30000 2.998
24.32000 2.105
24.34000 5.710
24.36000 1.077
24.38000 2.643
24.40000 2.634
24.42000 5.961
24.44000 0.562
24.46000 -2.323
24.48000 0.999
24.50000 4.071
24.52000 5.046
24.54000 1.148
24.56000 -2.628
24.58000 -1.298
24.60000 0.932
24.62000 -3.249
24.64000 -0.518
24.66000 0.117
24.68000 2.236
24.70000 4.156
24.72000 -1.006
24.74000 1.412
24.76000 2.447
24.78000 7.183
24.80000 7.078
24.82000 7.013
24.84000 2.876
24.86000 -2.981
24.88000 0.814
24.90000 3.482
24.92000 2.719
24.94000 2.887
24.96000 0.420
24.98000 -0.252
25.00000 4.382
25.02000 2.799
25.04000 -2.173
25.06000 -3.752
25.08000 4.887
25.10000 4.130
25.12000 0.710
25.14000 4.442
25.16000 6.297
25.18000 8.656
25.20000 4.460
25.22000 4.970
25.24000 3.034
25.26000 -3.913
25.28000 -0.589
25.30000 3.076
25.32000 -3.458
25.34000 2.652
25.36000 2.161
25.38000 3.705
25.40000 1.126
25.42000 0.667
25.44000 6.037
25.46000 3.349
25.48000 3.332
25.50000 0.825
25.52000 4.143
25.54000 7.412
25.56000 5.832
25.58000 3.462
25.60000 4.202
25.62000 5.204
25.64000 3.501
25.66000 5.868
25.68000 7.955
25.70000 8.900
25.72000 4.948
25.74000 0.773
25.76000 -3.866
25.78000 4.210
25.80000 6.559
25.82000 6.993
25.84000 6.696
25.86000 1.408
25.88000 -2.578
25.90000 -1.422
25.92000 4.851
25.94000 8.826
25.96000 3.204
25.98000 0.869
26.00000 -0.361
26.02000 2.092
26.04000 5.696
26.06000 5.843
26.08000 10.484
26.10000 3.090
26.12000 3.622
26.14000 6.575
26.16000 5.718
26.18000 0.790
26.20000 0.363
26.22000 5.993
26.24000 1.971
26.26000 5.797
26.28000 6.369
26.30000 1.656
26.32000 2.643
26.34000 1.587
26.36000 6.051
26.38000 4.392
26.40000 2.671
26.42000 3.645
26.44000 -0.201
26.46000 1.096
26.48000 0.111
26.50000 -0.855
26.52000 -3.833
26.54000 2.694
26.56000 9.148
26.58000 9.004
26.60000 6.480
26.62000 4.204
26.64000 6.191
26.66000 7.257
26.68000 13.562
26.70000 12.027
26.72000 7.716
26.74000 7.461
26.76000 8.337
26.78000 8.815
26.80000 3.192
26.82000 -0.709
26.84000 4.007
26.86000 8.383
26.88000 5.841
26.90000 -1.070
26.92000 2.600
26.94000 8.225
26.96000 7.165
26.98000 4.248
27.00000 1.862
27.02000 5.008
27.04000 6.628
27.06000 1.561
27.08000 1.345
27.10000 7.856
27.12000 2.745
27.14000 5.546
27.16000 7.869
27.18000 10.303
27.20000 6.280
27.22000 2.218
27.24000 2.288
27.26000 4.368
27.28000 6.168
27.30000 7.457
27.32000 7.446
27.34000 6.516
27.36000 7.151
27.38000 8.384
27.40000 6.826
27.42000 3.812
27.44000 4.052
27.46000 2.734
27.48000 -3.764
27.50000 3.957
27.52000 6.263
27.54000 6.818
27.56000 10.279
27.58000 5.971
27.60000 8.116
27.62000 7.562
27.64000 9.212
27.66000 9.105
27.68000 6.191
27.70000 7.948
27.72000 7.980
27.74000 8.883
27.76000 3.351
27.78000 1.538
27.80000 -1.733
27.82000 5.939
27.84000 10.895
27.86000 5.216
27.88000 4.268
27.90000 2.416
27.92000 10.203
27.94000 10.358
27.96000 2.530
27.98000 2.096
28.00000 5.310
28.02000 8.183
28.04000 11.417
28.06000 9.309
28.08000 6.510
28.10000 5.178
28.12000 1.994
28.14000 -3.733
28.16000 0.909
28.18000 4.824
28.20000 9.380
28.22000 6.396
28.24000 6.737
28.26000 4.444
28.28000 8.050
28.30000 4.215
28.32000 0.980
28.34000 5.384
28.36000 5.652
28.38000 1.695
28.40000 1.053
28.42000 3.348
28.44000 7.113
28.46000 -0.703
28.48000 -3.533
28.50000 1.079
28.52000 3.232
28.54000 5.444
28.56000 5.991
28.58000 10.444
28.60000 6.203
28.62000 5.293
28.64000 6.765
28.66000 6.507
28.68000 6.869
28.70000 6.208
28.72000 2.058
28.74000 5.572
28.76000 3.727
28.78000 5.415
28.80000 3.359
28.82000 6.088
28.84000 6.535
28.86000 7.323
28.88000 7.077
28.90000 8.374
28.92000 7.026
28.94000 2.950
28.96000 -3.481
28.98000 -0.979
29.00000 3.730
29.02000 0.959
29.04000 3.545
29.06000 6.028
29.08000 5.873
29.10000 6.123
29.12000 5.633
29.14000 4.656
29.16000 2.063
29.18000 5.583
29.20000 5.840
29.22000 6.423
29.24000 5.841
29.26000 2.180
29.28000 3.891
29.30000 5.896
29.32000 4.842
29.34000 1.701
29.36000 0.360
29.38000 5.402
29.40000 4.862
29.42000 -0.711
29.44000 0.585
29.46000 3.183
29.48000 4.612
29.50000 5.202
29.52000 3.340
29.54000 5.984
29.56000 3.365
29.58000 0.610
29.60000 5.772
29.62000 4.042
29.64000 3.712
29.66000 6.270
29.68000 4.185
29.70000 7.951
29.72000 5.334
29.74000 -0.364
29.76000 -3.661
29.78000 0.226
29.80000 4.568
29.82000 4.456
29.84000 8.569
29.86000 11.452
29.88000 7.148
29.90000 3.566
29.92000 1.406
29.94000 3.520
29.96000 3.074
29.98000 5.376
30.00000 6.877
30.02000 8.789
30.04000 1.269
30.06000 0.092
30.08000 7.591
30.10000 5.559
30.12000 1.344
30.14000 3.316
30.16000 -0.444
30.18000 -0.492
30.20000 3.451
30.22000 6.141
30.24000 2.558
30.26000 3.560
30.28000 1.466
30.30000 4.136
30.32000 5.581
30.34000 11.100
30.36000 9.031
30.38000 3.954
30.40000 2.336
30.42000 6.803
30.44000 4.728
30.46000 4.020
30.48000 -0.060
30.50000 -0.926
30.52000 -2.318
30.54000 0.033
30.56000 2.805
30.58000 6.120
30.60000 2.916
30.62000 0.329
30.64000 1.359
30.66000 -1.746
30.68000 5.335
30.70000 5.297
30.72000 5.084
30.74000 1.234
30.76000 0.895
30.78000 -3.618
30.80000 2.440
30.82000 4.872
30.84000 5.503
30.86000 4.795
30.88000 3.622
30.90000 8.263
30.92000 6.484
30.94000 0.653
30.96000 1.410
30.98000 5.359
31.00000 4.766
31.02000 6.471
31.04000 4.232
31.06000 1.426
31.08000 2.081
31.10000 3.089
31.12000 4.594
31.14000 2.511
31.16000 2.310
31.18000 3.760
31.20000 4.833
31.22000 5.419
31.24000 5.050
31.26000 5.402
31.28000 6.844
31.30000 0.795
31.32000 -0.328
31.34000 5.990
31.36000 6.717
31.38000 2.383
31.40000 9.169
31.42000 11.074
31.44000 8.483
31.46000 11.820
31.48000 6.765
31.50000 8.498
31.52000 6.338
31.54000 3.987
31.56000 6.589
31.58000 7.591
31.60000 9.032
31.62000 8.683
31.64000 7.488
31.66000 6.926
31.68000 4.914
31.70000 -3.552
31.72000 2.208
31.74000 5.982
31.76000 4.277
31.78000 9.381
31.80000 6.345
31.82000 6.053
31.84000 3.147
31.86000 2.667
31.88000 4.185
31.90000 4.549
31.92000 5.595
31.94000 3.426
31.96000 -0.734
31.98000 3.130
32.00000 12.970
32.02000 12.594
32.04000 5.834
32.06000 6.364
32.08000 8.969
32.10000 7.878
32.12000 1.968
32.14000 2.878
32.16000 4.425
32.18000 6.030
32.20000 6.287
32.22000 4.987
32.24000 5.490
32.26000 3.524
32.28000 4.345
32.30000 4.870
32.32000 3.732
32.34000 8.655
32.36000 5.958
32.38000 2.359
32.40000 5.868
32.42000 5.570
32.44000 1.081
32.46000 0.881
32.48000 1.438
32.50000 0.827
32.52000 5.654
32.54000 4.287
32.56000 8.358
32.58000 12.001
32.60000 8.686
32.62000 5.707
32.64000 5.028
32.66000 0.089
32.68000 -2.245
32.70000 -1.388
32.72000 -0.504
32.74000 -1.777
32.76000 0.981
32.78000 -0.337
32.80000 2.770
32.82000 4.274
32.84000 2.255
32.86000 4.159
32.88000 2.518
32.90000 0.850
32.92000 1.437
32.94000 1.886
32.96000 1.191
32.98000 1.444
33.00000 2.355
33.02000 3.003
33.04000 1.968
33.06000 -0.845
33.08000 -1.829
33.10000 -0.824
33.12000 2.998
33.14000 -2.541
33.16000 -0.622
33.18000 0.551
33.20000 -0.008
33.22000 0.519
33.24000 2.570
33.26000 3.587
33.28000 4.506
33.30000 6.956
33.32000 10.370
33.34000 2.389
33.36000 2.897
33.38000 0.710
33.40000 2.430
33.42000 3.449
33.44000 2.769
33.46000 6.888
33.48000 5.323
33.50000 2.032
33.52000 5.490
33.54000 0.748
33.56000 -0.711
33.58000 3.199
33.60000 7.129
33.62000 8.289
33.64000 4.593
33.66000 3.582
33.68000 1.656
33.70000 4.877
33.72000 5.637
33.74000 0.840
33.76000 4.651
33.78000 7.010
33.80000 4.675
33.82000 2.278
33.84000 7.157
33.86000 9.916
33.88000 1.423
33.90000 0.406
33.92000 6.377
33.94000 9.181
33.96000 7.584
33.98000 6.644
34.00000 2.103
34.02000 5.404
34.04000 6.563
34.06000 2.785
34.08000 4.707
34.10000 4.638
34.12000 8.166
34.14000 6.240
34.16000 5.593
34.18000 5.392
34.20000 10.342
34.22000 8.338
34.24000 7.225
34.26000 7.675
34.28000 1.996
34.30000 2.379
34.32000 8.708
34.34000 7.165
34.36000 5.186
34.38000 2.414
34.40000 4.360
34.42000 7.953
34.44000 8.655
34.46000 5.164
34.48000 3.115
34.50000 1.397
34.52000 6.811
34.54000 9.205
34.56000 8.692
34.58000 7.499
34.60000 7.938
34.62000 1.855
34.64000 -3.438
34.66000 2.606
34.68000 7.534
34.70000 11.130
34.72000 7.818
34.74000 7.219
34.76000 8.545
34.78000 4.954
34.80000 9.512
34.82000 8.327
34.84000 7.530
34.86000 8.272
34.88000 11.619
34.90000 12.236
34.92000 11.263
34.94000 6.205
34.96000 11.367
34.98000 10.879
35.00000 6.124
35.02000 4.576
35.04000 4.755
35.06000 0.778
35.08000 1.011
35.10000 6.492
35.12000 6.103
35.14000 0.377
35.16000 1.017
35.18000 -0.891
35.20000 2.307
35.22000 2.492
35.24000 4.074
35.26000 0.355
35.28000 1.811
35.30000 3.733
35.32000 4.462
35.34000 1.355
35.36000 3.813
35.38000 2.302
35.40000 3.225
35.42000 6.621
35.44000 3.522
35.46000 2.598
35.48000 1.722
35.50000 5.590
35.52000 6.205
35.54000 0.798
35.56000 0.481
35.58000 4.123
35.60000 7.648
35.62000 9.491
35.64000 7.726
35.66000 6.615
35.68000 0.528
35.70000 -1.064
35.72000 -0.246
35.74000 -0.383
35.76000 3.802
35.78000 1.876
35.80000 -1.491
35.82000 2.713
35.84000 7.465
35.86000 5.665
35.88000 3.319
35.90000 5.278
35.92000 5.709
35.94000 3.814
35.96000 5.251
35.98000 8.406
36.00000 9.837
36.02000 1.234
36.04000 2.714
36.06000 -0.135
36.08000 -0.111
36.10000 1.217
36.12000 3.445
36.14000 1.682
36.16000 4.648
36.18000 3.160
36.20000 1.870
36.22000 4.484
36.24000 3.179
36.26000 4.236
36.28000 6.798
36.30000 4.798
36.32000 1.954
36.34000 -3.447
36.36000 1.550
36.38000 -0.690
36.40000 0.886
36.42000 4.600
36.44000 6.734
36.46000 0.965
36.48000 -0.729
36.50000 6.913
36.52000 6.011
36.54000 0.685
36.56000 4.224
36.58000 5.148
36.60000 2.232
36.62000 -1.876
36.64000 1.397
36.66000 2.635
36.68000 6.030
36.70000 7.268
36.72000 5.658
36.74000 4.331
36.76000 3.621
36.78000 3.398
36.80000 -0.753
36.82000 2.922
36.84000 2.606
36.86000 0.410
36.88000 -3.482
36.90000 -2.054
36.92000 -1.914
36.94000 3.700
36.96000 7.700
36.98000 7.891
37.00000 5.391
37.02000 4.571
37.04000 3.111
37.06000 -2.795
37.08000 -2.511
37.10000 0.893
37.12000 -1.231
37.14000 -3.498
37.16000 2.659
37.18000 4.321
37.20000 5.808
37.22000 4.593
37.24000 -0.715
37.26000 1.190
37.28000 -2.234
37.30000 0.126
37.32000 -1.510
37.34000 -0.527
37.36000 3.164
37.38000 1.997
37.40000 -3.315
37.42000 1.100
37.44000 -1.602
37.46000 -3.331
37.48000 -2.324
37.50000 -0.977
37.52000 3.951
37.54000 -0.313
37.56000 -3.240
37.58000 -3.161
37.60000 3.710
37.62000 2.019
37.64000 -0.744
37.66000 -1.884
37.68000 -0.533
37.70000 1.110
37.72000 -3.242
37.74000 1.041
37.76000 -2.171
37.78000 -3.574
37.80000 -3.402
37.82000 0.674
37.84000 -0.356
37.86000 -2.030
37.88000 2.020
37.90000 0.984
37.92000 0.876
37.94000 6.201
37.96000 6.367
37.98000 3.164
38.00000 1.416
38.02000 4.640
38.04000 1.318
38.06000 6.459
38.08000 6.890
38.10000 5.332
38.12000 7.901
38.14000 8.204
38.16000 11.616
38.18000 7.147
38.20000 9.000
38.22000 10.810
38.24000 8.918
38.26000 6.967
38.28000 12.279
38.30000 7.898
38.32000 9.199
38.34000 11.516
38.36000 12.795
38.38000 13.961
38.40000 13.362
38.42000 14.260
38.44000 11.205
38.46000 13.926
38.48000 13.785
38.50000 14.030
38.52000 17.062
38.54000 14.103
38.56000 10.602
38.58000 9.520
38.60000 13.176
38.62000 11.760
38.64000 14.038
38.66000 12.474
38.68000 12.652
38.70000 17.858
38.72000 17.983
38.74000 14.108
38.76000 16.757
38.78000 17.639
38.80000 20.093
38.82000 19.386
38.84000 19.105
38.86000 18.153
38.88000 19.409
38.90000 15.181
38.92000 19.024
38.94000 26.128
38.96000 23.424
38.98000 21.384
39.00000 24.122
39.02000 25.712
39.04000 32.822
39.06000 27.737
39.08000 25.724
39.10000 25.126
39.12000 25.633
39.14000 29.454
39.16000 29.852
39.18000 30.176
39.20000 31.563
39.22000 31.563
39.24000 29.765
39.26000 39.403
39.28000 44.857
39.30000 41.558
39.32000 42.553
39.34000 40.876
39.36000 39.816
39.38000 44.488
39.40000 43.929
39.42000 50.160
39.44000 51.180
39.46000 52.400
39.48000 46.722
39.50000 54.902
39.52000 60.896
39.54000 63.176
39.56000 67.044
39.58000 66.664
39.60000 65.353
39.62000 75.191
39.64000 79.903
39.66000 81.056
39.68000 83.743
39.70000 91.647
39.72000 94.104
39.74000 97.852
39.76000 101.825
39.78000 106.359
39.80000 121.410
39.82000 125.740
39.84000 129.451
39.86000 137.502
39.88000 142.261
39.90000 147.743
39.92000 155.444
39.94000 168.022
39.96000 183.684
39.98000 190.255
40.00000 199.476
40.02000 213.553
40.04000 220.094
40.06000 241.129
40.08000 261.565
40.10000 274.406
40.12000 284.393
40.14000 298.767
40.16000 320.746
40.18000 338.429
40.20000 354.783
40.22000 371.147
40.24000 393.131
40.26000 411.571
40.28000 439.272
40.30000 457.775
40.32000 476.470
40.34000 487.636
40.36000 516.855
40.38000 539.551
40.40000 563.837
40.42000 579.333
40.44000 597.245
40.46000 611.159
40.48000 621.103
40.50000 630.916
40.52000 638.980
40.54000 635.959
40.56000 643.788
40.58000 646.371
40.60000 652.272
40.62000 655.000
40.64000 634.103
40.66000 628.131
40.68000 621.879
40.70000 607.404
40.72000 595.417
40.74000 587.237
40.76000 576.874
40.78000 559.482
40.80000 541.734
40.82000 522.084
40.84000 509.073
40.86000 495.108
40.88000 470.714
40.90000 452.713
40.92000 430.806
40.94000 408.008
40.96000 394.211
40.98000 375.095
41.00000 359.087
41.02000 341.846
41.04000 326.829
41.06000 308.314
41.08000 288.053
41.10000 270.022
41.12000 257.278
41.14000 248.341
41.16000 243.461
41.18000 228.737
41.20000 212.072
41.22000 206.608
41.24000 193.826
41.26000 181.058
41.28000 171.870
41.30000 162.604
41.32000 149.296
41.34000 145.516
41.36000 142.087
41.38000 137.210
41.40000 132.690
41.42000 123.483
41.44000 118.272
41.46000 108.301
41.48000 105.740
41.50000 99.171
41.52000 90.979
41.54000 85.988
41.56000 83.600
41.58000 76.719
41.60000 73.752
41.62000 68.738
41.64000 62.935
41.66000 66.106
41.68000 63.382
41.70000 63.782
41.72000 53.573
41.74000 51.207
41.76000 55.096
41.78000 48.742
41.80000 46.241
41.82000 43.695
41.84000 45.523
41.86000 44.138
41.88000 38.354
41.90000 31.406
41.92000 34.064
41.94000 35.048
41.96000 33.263
41.98000 29.738
42.00000 30.852
42.02000 23.265
42.04000 25.044
42.06000 25.660
42.08000 25.368
42.10000 27.004
42.12000 25.955
42.14000 21.409
42.16000 22.016
42.18000 18.606
42.20000 20.400
42.22000 18.409
42.24000 14.894
42.26000 15.843
42.28000 15.085
42.30000 12.262
42.32000 17.214
42.34000 14.509
42.36000 16.430
42.38000 16.265
42.40000 17.006
42.42000 13.223
42.44000 8.473
42.46000 8.799
42.48000 8.886
42.50000 8.087
42.52000 11.799
42.54000 8.715
42.56000 10.621
42.58000 6.959
42.60000 7.789
42.62000 3.801
42.64000 7.562
42.66000 4.934
42.68000 1.749
42.70000 2.772
42.72000 6.970
42.74000 5.964
42.76000 4.953
42.78000 7.561
42.80000 3.271
42.82000 0.920
42.84000 1.850
42.86000 3.123
42.88000 4.034
42.90000 8.797
42.92000 6.158
42.94000 5.073
42.96000 3.643
42.98000 3.545
43.00000 5.686
43.02000 3.948
43.04000 3.336
43.06000 0.244
43.08000 2.764
43.10000 4.002
43.12000 3.919
43.14000 0.554
43.16000 3.308
43.18000 3.145
43.20000 2.394
43.22000 1.336
43.24000 0.532
43.26000 2.327
43.28000 4.878
43.30000 7.636
43.32000 3.834
43.34000 1.986
43.36000 1.418
43.38000 -1.202
43.40000 -1.133
43.42000 -1.838
43.44000 -1.485
43.46000 0.586
43.48000 0.397
43.50000 1.062
43.52000 4.434
43.54000 2.158
43.56000 -0.159
43.58000 5.204
43.60000 5.153
43.62000 2.244
43.64000 4.379
43.66000 3.065
43.68000 4.848
43.70000 4.708
43.72000 3.176
43.74000 3.694
43.76000 3.590
43.78000 2.419
43.80000 2.876
43.82000 2.903
43.84000 1.012
43.86000 -1.663
43.88000 -3.306
43.90000 -0.991
43.92000 -0.365
43.94000 -2.033
43.96000 0.963
43.98000 2.482
44.00000 2.635
44.02000 1.096
44.04000 3.224
44.06000 4.997
44.08000 3.285
44.10000 0.082
44.12000 0.131
44.14000 0.668
44.16000 3.880
44.18000 2.776
44.20000 -0.179
44.22000 0.600
44.24000 0.226
44.26000 0.327
44.28000 -2.494
44.30000 -1.087
44.32000 0.104
44.34000 0.865
44.36000 -0.267
44.38000 0.895
44.40000 -0.391
44.42000 1.005
44.44000 0.594
44.46000 1.494
44.48000 1.539
44.50000 2.811
44.52000 3.220
44.54000 -0.633
44.56000 -3.276
44.58000 0.134
44.60000 -1.911
44.62000 0.326
44.64000 4.248
44.66000 1.892
44.68000 1.811
44.70000 -1.250
44.72000 -3.271
44.74000 -3.023
44.76000 -1.618
44.78000 -0.815
44.80000 -0.682
44.82000 0.296
44.84000 1.952
44.86000 0.039
44.88000 -2.410
44.90000 -1.137
44.92000 0.021
44.94000 1.493
44.96000 -1.380
44.98000 3.535
45.00000 3.348
45.02000 4.724
45.04000 3.514
45.06000 2.832
45.08000 6.254
45.10000 3.489
45.12000 0.351
45.14000 3.058
45.16000 4.327
45.18000 6.256
45.20000 5.997
45.22000 1.938
45.24000 -1.141
45.26000 2.142
45.28000 4.738
45.30000 2.566
45.32000 2.373
45.34000 -3.253
45.36000 -3.224
45.38000 2.213
45.40000 2.686
45.42000 3.136
45.44000 7.265
45.46000 4.904
45.48000 1.352
45.50000 0.975
45.52000 5.731
45.54000 6.657
45.56000 6.467
45.58000 8.723
45.60000 2.912
45.62000 3.803
45.64000 4.191
45.66000 3.249
45.68000 4.765
45.70000 6.817
45.72000 11.061
45.74000 11.628
45.76000 6.829
45.78000 4.864
45.80000 9.404
45.82000 6.318
45.84000 8.111
45.86000 8.996
45.88000 10.865
45.90000 13.209
45.92000 13.414
45.94000 15.014
45.96000 14.445
45.98000 11.217
46.00000 14.242
46.02000 14.158
46.04000 13.284
46.06000 12.200
46.08000 14.634
46.10000 13.079
46.12000 17.727
46.14000 21.561
46.16000 17.871
46.18000 18.589
46.20000 21.853
46.22000 22.191
46.24000 18.606
46.26000 16.392
46.28000 17.101
46.30000 24.900
46.32000 27.345
46.34000 23.289
46.36000 23.686
46.38000 31.529
46.40000 30.402
46.42000 31.141
46.44000 32.260
46.46000 33.242
46.48000 33.796
46.50000 31.365
46.52000 36.825
46.54000 40.081
46.56000 39.208
46.58000 36.378
46.60000 43.386
46.62000 43.752
46.64000 45.230
46.66000 44.859
46.68000 51.581
46.70000 53.207
46.72000 58.409
46.74000 57.175
46.76000 58.075
46.78000 55.225
46.80000 58.342
46.82000 62.549
46.84000 57.357
46.86000 60.165
46.88000 63.143
46.90000 67.633
46.92000 78.043
46.94000 77.024
46.96000 70.845
46.98000 68.397
47.00000 69.398
47.02000 79.251
47.04000 80.141
47.06000 72.649
47.08000 77.483
47.10000 88.465
47.12000 77.880
47.14000 76.117
47.16000 81.507
47.18000 89.941
47.20000 83.293
47.22000 84.962
47.24000 83.725
47.26000 83.401
47.28000 85.828
47.30000 83.328
47.32000 82.281
47.34000 78.958
47.36000 78.053
47.38000 86.360
47.40000 81.952
47.42000 78.877
47.44000 73.687
47.46000 73.128
47.48000 72.081
47.50000 73.823
47.52000 73.151
47.54000 71.166
47.56000 70.420
47.58000 70.281
47.60000 65.401
47.62000 62.664
47.64000 52.797
47.66000 52.835
47.68000 52.159
47.70000 53.480
47.72000 51.490
47.74000 45.678
47.76000 45.921
47.78000 44.398
47.80000 40.755
47.82000 44.649
47.84000 38.142
47.86000 39.732
47.88000 38.963
47.90000 39.662
47.92000 34.171
47.94000 34.489
47.96000 30.287
47.98000 28.242
48.00000 28.580
48.02000 25.186
48.04000 25.893
48.06000 19.495
48.08000 18.327
48.10000 23.797
48.12000 21.972
48.14000 16.891
48.16000 19.510
48.18000 20.752
48.20000 18.073
48.22000 14.278
48.24000 17.517
48.26000 15.849
48.28000 16.343
48.30000 13.481
48.32000 13.454
48.34000 9.947
48.36000 11.079
48.38000 12.241
48.40000 6.274
48.42000 10.040
48.44000 6.917
48.46000 11.187
48.48000 7.694
48.50000 8.136
48.52000 6.345
48.54000 2.806
48.56000 0.303
48.58000 4.752
48.60000 6.476
48.62000 7.913
48.64000 5.762
48.66000 7.380
48.68000 3.780
48.70000 2.398
48.72000 7.144
48.74000 2.663
48.76000 2.664
48.78000 2.622
48.80000 1.419
48.82000 2.678
48.84000 6.118
48.86000 4.876
48.88000 4.327
48.90000 3.370
48.92000 2.748
48.94000 2.919
48.96000 1.886
48.98000 1.347
49.00000 -2.846
49.02000 -0.640
49.04000 1.250
49.06000 2.289
49.08000 7.868
49.10000 7.173
49.12000 2.077
49.14000 1.080
49.16000 1.371
49.18000 -0.008
49.20000 1.637
49.22000 3.147
49.24000 4.203
49.26000 4.817
49.28000 -2.784
49.30000 1.467
49.32000 1.215
49.34000 2.971
49.36000 4.127
49.38000 1.718
49.40000 2.876
49.42000 1.113
49.44000 0.384
49.46000 0.540
49.48000 2.151
49.50000 2.469
49.52000 0.152
49.54000 3.466
49.56000 6.319
49.58000 4.038
49.60000 3.414
49.62000 4.808
49.64000 0.898
49.66000 0.159
49.68000 2.223
49.70000 0.289
49.72000 1.842
49.74000 3.975
49.76000 4.145
49.78000 1.341
49.80000 -1.005
49.82000 0.929
49.84000 1.716
49.86000 4.655
49.88000 3.283
49.90000 -0.885
49.92000 -0.101
49.94000 1.580
49.96000 -0.007
49.98000 -0.005
50.00000 2.611
50.02000 6.680
50.04000 5.757
50.06000 2.326
50.08000 -0.209
50.10000 1.656
50.12000 -2.203
50.14000 -0.429
50.16000 4.147
50.18000 3.493
50.20000 2.142
50.22000 2.393
50.24000 1.468
50.26000 0.477
50.28000 -2.682
50.30000 3.279
50.32000 6.544
50.34000 5.450
50.36000 3.737
50.38000 1.784
50.40000 -0.508
50.42000 2.251
50.44000 2.701
50.46000 3.766
50.48000 1.172
50.50000 -0.567
50.52000 3.756
50.54000 0.246
50.56000 -1.882
50.58000 3.662
50.60000 2.953
50.62000 2.038
50.64000 -0.573
50.66000 1.994
50.68000 7.031
50.70000 2.811
50.72000 1.713
50.74000 -0.355
50.76000 0.425
50.78000 0.188
50.80000 0.964
50.82000 2.148
50.84000 2.853
50.86000 4.361
50.88000 0.809
50.90000 2.989
50.92000 6.369
50.94000 8.001
50.96000 0.511
50.98000 1.544
51.00000 3.967
51.02000 2.875
51.04000 5.045
51.06000 9.648
51.08000 4.846
51.10000 3.800
51.12000 3.731
51.14000 0.724
51.16000 2.348
51.18000 2.950
51.20000 -1.388
51.22000 0.629
51.24000 2.761
51.26000 2.497
51.28000 1.334
51.30000 5.793
51.32000 3.271
51.34000 3.082
51.36000 7.038
51.38000 7.571
51.40000 5.988
51.42000 3.328
51.44000 4.539
51.46000 6.917
51.48000 1.635
51.50000 -2.614
51.52000 1.499
51.54000 -0.670
51.56000 -1.204
51.58000 -1.079
51.60000 -1.219
51.62000 1.961
51.64000 3.041
51.66000 2.062
51.68000 3.132
51.70000 -0.813
51.72000 0.652
51.74000 2.927
51.76000 3.698
51.78000 4.189
51.80000 5.794
51.82000 5.073
51.84000 2.849
51.86000 3.023
51.88000 4.063
51.90000 4.186
51.92000 -2.028
51.94000 1.678
51.96000 3.197
51.98000 0.482
52.00000 -1.056
52.02000 0.010
52.04000 3.178
52.06000 1.261
52.08000 -0.345
52.10000 5.492
52.12000 4.628
52.14000 1.983
52.16000 2.161
52.18000 1.324
52.20000 0.623
52.22000 -0.926
52.24000 0.906
52.26000 2.791
52.28000 3.391
52.30000 -0.692
52.32000 -1.773
52.34000 0.494
52.36000 5.774
52.38000 5.707
52.40000 6.573
52.42000 2.478
52.44000 0.825
52.46000 5.923
52.48000 1.690
52.50000 -2.582
52.52000 -0.781
52.54000 0.486
52.56000 1.206
52.58000 2.976
52.60000 4.522
52.62000 1.260
52.64000 -2.577
52.66000 -2.106
52.68000 2.805
52.70000 -0.003
52.72000 2.732
52.74000 3.096
52.76000 3.232
52.78000 -1.116
52.80000 0.608
52.82000 0.247
52.84000 2.690
52.86000 5.140
52.88000 2.276
52.90000 1.595
52.92000 3.565
52.94000 2.141
52.96000 -0.515
52.98000 -0.789
53.00000 2.641
53.02000 -0.209
53.04000 1.216
53.06000 6.136
53.08000 8.401
53.10000 5.697
53.12000 3.620
53.14000 3.714
53.16000 -1.063
53.18000 -0.605
53.20000 1.633
53.22000 3.081
53.24000 3.122
53.26000 2.284
53.28000 0.837
53.30000 -2.424
53.32000 0.035
53.34000 -1.906
53.36000 0.871
53.38000 4.111
53.40000 3.521
53.42000 2.992
53.44000 3.538
53.46000 4.921
53.48000 4.144
53.50000 2.600
53.52000 1.557
53.54000 -1.238
53.56000 -1.013
53.58000 1.554
53.60000 2.426
53.62000 -1.063
53.64000 1.289
53.66000 6.174
53.68000 4.777
53.70000 2.512
53.72000 3.532
53.74000 2.066
53.76000 -2.088
53.78000 -2.103
53.80000 0.642
53.82000 4.082
53.84000 0.848
53.86000 2.533
53.88000 2.007
53.90000 0.858
53.92000 4.723
53.94000 -2.239
53.96000 0.691
53.98000 4.936
54.00000 4.476
54.02000 3.508
54.04000 -1.682
54.06000 -0.050
54.08000 1.108
54.10000 4.055
54.12000 2.461
54.14000 2.528
54.16000 2.276
54.18000 2.302
54.20000 4.048
54.22000 2.230
54.24000 3.918
54.26000 0.288
54.28000 -0.008
54.30000 0.795
54.32000 2.411
54.34000 1.160
54.36000 2.462
54.38000 2.262
54.40000 0.199
54.42000 3.224
54.44000 4.899
54.46000 3.903
54.48000 1.210
54.50000 3.648
54.52000 4.171
54.54000 2.547
54.56000 5.814
54.58000 3.016
54.60000 -2.501
54.62000 0.754
54.64000 0.922
54.66000 0.512
54.68000 3.313
54.70000 3.275
54.72000 5.704
54.74000 5.031
54.76000 4.429
54.78000 2.012
54.80000 5.016
54.82000 5.169
54.84000 -0.353
54.86000 1.305
54.88000 0.863
54.90000 0.268
54.92000 1.374
54.94000 5.008
54.96000 1.859
54.98000 -1.318
55.00000 0.818
55.02000 2.469
55.04000 2.611
55.06000 2.768
55.08000 5.363
55.10000 2.893
55.12000 1.015
55.14000 -2.495
55.16000 1.284
55.18000 1.848
55.20000 3.064
55.22000 3.525
55.24000 4.568
55.26000 2.694
55.28000 -1.000
55.30000 2.942
55.32000 4.303
55.34000 4.820
55.36000 1.149
55.38000 3.464
55.40000 1.138
55.42000 0.226
55.44000 4.589
55.46000 1.281
55.48000 -0.549
55.50000 1.052
55.52000 5.083
55.54000 7.516
55.56000 6.002
55.58000 4.950
55.60000 1.399
55.62000 1.398
55.64000 4.912
55.66000 4.442
55.68000 3.069
55.70000 4.088
55.72000 4.173
55.74000 5.086
55.76000 6.520
55.78000 1.341
55.80000 3.195
55.82000 3.298
55.84000 2.916
55.86000 -0.683
55.88000 0.026
55.90000 2.580
55.92000 3.633
55.94000 6.218
55.96000 5.321
55.98000 0.543
56.00000 0.728
56.02000 1.479
56.04000 0.045
56.06000 4.267
56.08000 3.105
56.10000 1.801
56.12000 3.131
56.14000 3.634
56.16000 2.409
56.18000 2.977
56.20000 6.738
56.22000 5.480
56.24000 0.820
56.26000 4.055
56.28000 4.077
56.30000 1.370
56.32000 -1.550
56.34000 2.212
56.36000 3.224
56.38000 0.559
56.40000 3.476
56.42000 5.741
56.44000 -0.312
56.46000 -2.469
56.48000 0.434
56.50000 2.678
56.52000 4.675
56.54000 4.626
56.56000 6.771
56.58000 4.894
56.60000 2.429
56.62000 -0.561
56.64000 -0.762
56.66000 -0.517
56.68000 4.063
56.70000 5.165
56.72000 7.422
56.74000 5.908
56.76000 3.157
56.78000 1.242
56.80000 4.514
56.82000 0.280
56.84000 -2.441
56.86000 1.693
56.88000 5.979
56.90000 4.359
56.92000 2.324
56.94000 3.637
56.96000 8.250
56.98000 7.081
57.00000 5.079
57.02000 3.944
57.04000 2.719
57.06000 2.714
57.08000 2.886
57.10000 2.374
57.12000 3.891
57.14000 2.810
57.16000 -1.996
57.18000 -1.599
57.20000 1.298
57.22000 3.001
57.24000 5.241
57.26000 1.612
57.28000 2.295
57.30000 6.075
57.32000 5.602
57.34000 4.037
57.36000 2.707
57.38000 -1.059
57.40000 -1.745
57.42000 2.516
57.44000 5.716
57.46000 6.354
57.48000 10.068
57.50000 1.091
57.52000 -2.435
57.54000 1.487
57.56000 3.235
57.58000 1.334
57.60000 4.345
57.62000 5.939
57.64000 1.017
57.66000 -0.008
57.68000 1.030
57.70000 0.548
57.72000 0.118
57.74000 -1.590
57.76000 4.089
57.78000 0.745
57.80000 2.906
57.82000 1.656
57.84000 3.863
57.86000 4.563
57.88000 6.313
57.90000 4.320
57.92000 4.479
57.94000 4.438
57.96000 2.961
57.98000 -2.417
58.00000 -1.133
58.02000 1.873
58.04000 1.977
58.06000 -0.021
58.08000 2.209
58.10000 5.368
58.12000 4.337
58.14000 1.935
58.16000 5.871
58.18000 4.521
58.20000 4.016
58.22000 5.897
58.24000 2.321
58.26000 2.104
58.28000 3.991
58.30000 3.505
58.32000 1.634
58.34000 0.314
58.36000 2.618
58.38000 3.020
58.40000 1.119
58.42000 -0.600
58.44000 1.842
58.46000 1.663
58.48000 -1.737
58.50000 -2.411
58.52000 -0.140
58.54000 0.025
58.56000 -1.799
58.58000 0.293
58.60000 1.746
58.62000 1.906
58.64000 1.358
58.66000 -0.457
58.68000 0.461
58.70000 1.062
58.72000 2.523
58.74000 2.839
58.76000 0.887
58.78000 1.613
58.80000 3.487
58.82000 1.434
58.84000 2.109
58.86000 0.019
58.88000 1.314
58.90000 -1.807
58.92000 0.055
58.94000 0.985
58.96000 -0.743
58.98000 -1.117
59.00000 0.165
59.02000 5.276
59.04000 2.890
59.06000 0.130
59.08000 0.397
59.10000 0.557
59.12000 3.242
59.14000 4.131
59.16000 2.650
59.18000 5.554
59.20000 4.843
59.22000 1.232
59.24000 6.190
59.26000 6.542
59.28000 4.074
59.30000 4.041
59.32000 0.598
59.34000 -0.042
59.36000 1.405
59.38000 4.081
59.40000 1.454
59.42000 2.773
59.44000 4.082
59.46000 4.932
59.48000 0.787
59.50000 0.251
59.52000 2.740
59.54000 5.646
59.56000 3.062
59.58000 0.598
59.60000 -2.365
59.62000 -0.973
59.64000 1.776
59.66000 2.814
59.68000 1.333
59.70000 3.538
59.72000 2.827
59.74000 -0.685
59.76000 2.126
59.78000 1.643
59.80000 1.132
59.82000 3.416
59.84000 -0.488
59.86000 3.085
59.88000 3.802
59.90000 2.689
59.92000 2.793
59.94000 5.848
59.96000 4.139
59.98000 7.082
60.00000 2.330
60.02000 1.030
60.04000 2.304
60.06000 4.454
60.08000 1.775
60.10000 1.479
60.12000 1.117
60.14000 -2.346
60.16000 -1.786
60.18000 0.945
60.20000 1.197
60.22000 1.693
60.24000 6.510
60.26000 5.689
60.28000 5.533
60.30000 0.167
60.32000 -0.475
60.34000 1.740
60.36000 1.419
60.38000 1.866
60.40000 3.779
60.42000 1.705
60.44000 -2.332
60.46000 -0.703
60.48000 1.810
60.50000 5.257
60.52000 2.916
60.54000 -0.343
60.56000 5.198
60.58000 8.999
60.60000 7.633
60.62000 5.332
60.64000 2.367
60.66000 2.724
60.68000 3.372
60.70000 4.717
60.72000 7.468
60.74000 5.457
60.76000 2.111
60.78000 2.976
60.80000 0.456
60.82000 -1.257
60.84000 0.722
60.86000 1.080
60.88000 1.572
60.90000 -0.951
60.92000 1.870
60.94000 3.997
60.96000 5.394
60.98000 6.425
61.00000 2.255
61.02000 1.178
61.04000 4.078
61.06000 2.131
61.08000 0.382
61.10000 0.493
61.12000 1.612
61.14000 2.408
61.16000 4.547
61.18000 6.757
61.20000 4.419
61.22000 0.205
61.24000 1.823
61.26000 2.706
61.28000 2.773
61.30000 0.372
61.32000 0.726
61.34000 5.946
61.36000 4.405
61.38000 2.146
61.40000 -0.948
61.42000 0.707
61.44000 1.790
61.46000 2.537
61.48000 0.920
61.50000 3.581
61.52000 3.803
61.54000 4.291
61.56000 5.522
61.58000 3.586
61.60000 3.667
61.62000 5.527
61.64000 1.927
61.66000 3.873
61.68000 1.239
61.70000 1.021
61.72000 2.262
61.74000 5.989
61.76000 6.738
61.78000 1.752
61.80000 1.374
61.82000 1.936
61.84000 4.609
61.86000 6.382
61.88000 9.103
61.90000 6.172
61.92000 3.871
61.94000 3.538
61.96000 -1.782
61.98000 -2.265
62.00000 0.328
62.02000 0.008
62.04000 3.394
62.06000 3.999
62.08000 3.514
62.10000 4.854
62.12000 5.968
62.14000 7.240
62.16000 5.479
62.18000 6.043
62.20000 4.763
62.22000 2.910
62.24000 3.138
62.26000 2.556
62.28000 5.684
62.30000 4.210
62.32000 4.606
62.34000 4.432
62.36000 2.749
62.38000 2.117
62.40000 1.924
62.42000 2.623
62.44000 2.907
62.46000 2.248
62.48000 3.601
62.50000 4.656
62.52000 3.212
62.54000 3.125
62.56000 -2.301
62.58000 -1.149
62.60000 -2.248
62.62000 -0.733
62.64000 1.861
62.66000 1.544
62.68000 1.832
62.70000 0.293
62.72000 -2.198
62.74000 -1.368
62.76000 2.258
62.78000 -0.644
62.80000 0.576
62.82000 4.336
62.84000 -0.222
62.86000 -1.045
62.88000 3.008
62.90000 4.427
62.92000 3.215
62.94000 2.577
62.96000 1.018
62.98000 2.154
63.00000 -0.897
63.02000 1.414
63.04000 5.374
63.06000 4.230
63.08000 1.356
63.10000 2.084
63.12000 4.325
63.14000 4.693
63.16000 0.226
63.18000 0.239
63.20000 0.611
63.22000 2.068
63.24000 4.935
63.26000 2.377
63.28000 2.056
63.30000 -0.376
63.32000 -1.937
63.34000 -2.309
63.36000 2.255
63.38000 3.360
63.40000 2.303
63.42000 1.751
63.44000 2.359
63.46000 2.845
63.48000 5.519
63.50000 2.505
63.52000 0.911
63.54000 1.847
63.56000 2.941
63.58000 1.457
63.60000 -0.975
63.62000 -2.306
63.64000 -0.757
63.66000 -1.190
63.68000 0.309
63.70000 0.231
63.72000 1.813
63.74000 -1.544
63.76000 -0.852
63.78000 -0.643
63.80000 -0.827
63.82000 1.874
63.84000 -0.256
63.86000 0.259
63.88000 3.063
63.90000 2.412
63.92000 3.238
63.94000 0.654
63.96000 -0.092
63.98000 3.432
64.00000 5.086
64.02000 2.741
64.04000 3.632
64.06000 5.460
64.08000 3.160
64.10000 3.168
64.12000 4.431
64.14000 0.407
64.16000 -0.153
64.18000 0.443
64.20000 1.995
64.22000 1.329
64.24000 -0.869
64.26000 -0.942
64.28000 2.101
64.30000 3.628
64.32000 4.078
64.34000 2.158
64.36000 -0.650
64.38000 -1.140
64.40000 3.495
64.42000 2.658
64.44000 3.266
64.46000 -0.169
64.48000 -1.694
64.50000 0.450
64.52000 0.468
64.54000 2.178
64.56000 3.425
64.58000 1.103
64.60000 -1.378
64.62000 -2.304
64.64000 2.437
64.66000 7.266
64.68000 6.355
64.70000 3.559
64.72000 2.524
64.74000 2.853
64.76000 0.114
64.78000 1.311
64.80000 1.242
64.82000 0.033
64.84000 -2.301
64.86000 -0.629
64.88000 1.890
64.90000 1.406
64.92000 1.977
64.94000 3.551
64.96000 4.330
64.98000 1.617
65.00000 1.125
65.02000 0.941
65.04000 4.101
65.06000 2.904
65.08000 4.993
65.10000 3.960
65.12000 3.673
65.14000 3.942
65.16000 0.717
65.18000 0.182
65.20000 -2.011
65.22000 -0.735
65.24000 0.955
65.26000 3.174
65.28000 0.532
65.30000 1.708
65.32000 3.971
65.34000 0.980
65.36000 2.019
65.38000 2.192
65.40000 -2.307
65.42000 1.760
65.44000 0.927
65.46000 0.813
65.48000 1.025
65.50000 -0.043
65.52000 3.106
65.54000 2.060
65.56000 2.859
65.58000 3.022
65.60000 4.598
65.62000 2.702
65.64000 -0.761
65.66000 0.008
65.68000 -1.501
65.70000 -0.375
65.72000 0.044
65.74000 2.163
65.76000 4.070
65.78000 2.592
65.80000 1.095
65.82000 3.259
65.84000 1.113
65.86000 3.403
65.88000 3.159
65.90000 2.661
65.92000 3.518
65.94000 3.956
65.96000 4.532
65.98000 1.881
66.00000 -1.427
66.02000 -0.694
66.04000 1.005
66.06000 2.436
66.08000 0.313
66.10000 -0.036
66.12000 3.907
66.14000 4.006
66.16000 3.222
66.18000 3.447
66.20000 1.932
66.22000 0.329
66.24000 2.528
66.26000 2.230
66.28000 -0.755
66.30000 0.722
66.32000 0.380
66.34000 5.097
66.36000 3.488
66.38000 -1.136
66.40000 1.297
66.42000 2.309
66.44000 -0.338
66.46000 -2.308
66.48000 -0.348
66.50000 1.256
66.52000 0.699
66.54000 0.155
66.56000 3.037
66.58000 2.888
66.60000 0.443
66.62000 2.125
66.64000 -2.276
66.66000 -1.119
66.68000 2.159
66.70000 1.301
66.72000 2.422
66.74000 2.324
66.76000 2.967
66.78000 1.847
66.80000 0.844
66.82000 -0.576
66.84000 0.098
66.86000 1.254
66.88000 -0.230
66.90000 1.252
66.92000 0.736
66.94000 0.551
66.96000 0.823
66.98000 3.930
67.00000 2.229
67.02000 2.203
67.04000 3.953
67.06000 1.752
67.08000 0.810
67.10000 1.066
67.12000 3.146
67.14000 2.418
67.16000 0.301
67.18000 3.294
67.20000 -0.638
67.22000 -1.668
67.24000 -1.187
67.26000 0.167
67.28000 -0.942
67.30000 0.411
67.32000 3.066
67.34000 -1.074
67.36000 -1.044
67.38000 -0.932
67.40000 -1.140
67.42000 2.622
67.44000 -2.355
67.46000 -0.943
67.48000 1.051
67.50000 4.074
67.52000 1.521
67.54000 2.272
67.56000 0.952
67.58000 0.786
67.60000 -1.099
67.62000 -2.249
67.64000 0.772
67.66000 3.013
67.68000 -0.053
67.70000 0.286
67.72000 1.626
67.74000 1.559
67.76000 4.085
67.78000 4.998
67.80000 3.008
67.82000 0.481
67.84000 -1.289
67.86000 0.236
67.88000 1.121
67.90000 -1.413
67.92000 2.633
67.94000 2.316
67.96000 1.813
67.98000 3.635
68.00000 3.608
68.02000 2.924
68.04000 0.312
68.06000 2.708
68.08000 1.695
68.10000 -0.420
68.12000 1.521
68.14000 3.569
68.16000 5.620
68.18000 4.455
68.20000 1.449
68.22000 1.894
68.24000 4.322
68.26000 4.478
68.28000 4.520
68.30000 6.161
68.32000 5.644
68.34000 6.280
68.36000 6.360
68.38000 9.065
68.40000 8.826
68.42000 7.265
68.44000 5.849
68.46000 9.335
68.48000 11.879
68.50000 12.067
68.52000 11.345
68.54000 7.095
68.56000 8.268
68.58000 14.940
68.60000 14.005
68.62000 13.200
68.64000 18.380
68.66000 15.887
68.68000 11.581
68.70000 12.969
68.72000 17.860
68.74000 16.720
68.76000 18.669
68.78000 21.285
68.80000 23.630
68.82000 17.037
68.84000 20.314
68.86000 20.587
68.88000 23.223
68.90000 25.395
68.92000 23.593
68.94000 23.016
68.96000 23.587
68.98000 26.013
69.00000 28.498
69.02000 25.652
69.04000 21.777
69.06000 19.172
69.08000 22.191
69.10000 20.699
69.12000 22.298
69.14000 23.536
69.16000 20.381
69.18000 19.294
69.20000 18.986
69.22000 16.996
69.24000 13.893
69.26000 18.630
69.28000 19.581
69.30000 19.466
69.32000 19.217
69.34000 14.912
69.36000 13.365
69.38000 16.881
69.40000 17.820
69.42000 14.780
69.44000 13.759
69.46000 14.317
69.48000 12.336
69.50000 13.786
69.52000 14.567
69.54000 13.069
69.56000 9.948
69.58000 8.581
69.60000 8.340
69.62000 6.288
69.64000 9.423
69.66000 7.198
69.68000 4.127
69.70000 7.678
69.72000 5.547
69.74000 2.723
69.76000 3.090
69.78000 4.954
69.80000 4.657
69.82000 5.228
69.84000 6.396
69.86000 5.685
69.88000 1.577
69.90000 2.989
69.92000 3.873
69.94000 4.538
69.96000 5.507
69.98000 8.612
70.00000 6.888
70.02000 5.441
70.04000 3.454
70.06000 4.082
70.08000 1.276
70.10000 1.830
70.12000 4.170
70.14000 1.347
70.16000 2.653
70.18000 4.563
70.20000 -0.277
70.22000 1.332
70.24000 4.629
70.26000 5.395
70.28000 1.165
70.30000 1.536
70.32000 1.264
70.34000 2.049
70.36000 1.614
70.38000 3.326
70.40000 0.887
70.42000 1.574
70.44000 2.119
70.46000 1.509
70.48000 2.173
70.50000 0.758
70.52000 3.113
70.54000 3.490
70.56000 6.089
70.58000 6.177
70.60000 3.926
70.62000 2.425
70.64000 1.093
70.66000 3.414
70.68000 2.688
70.70000 -0.049
70.72000 -1.870
70.74000 -2.240
70.76000 -0.093
70.78000 1.663
70.80000 1.046
70.82000 3.338
70.84000 1.656
70.86000 3.526
70.88000 2.898
70.90000 1.824
70.92000 -0.276
70.94000 0.389
70.96000 4.635
70.98000 1.995
71.00000 1.903
71.02000 2.059
71.04000 0.627
71.06000 0.358
71.08000 1.583
71.10000 3.897
71.12000 4.209
71.14000 2.658
71.16000 0.430
71.18000 0.838
71.20000 2.502
71.22000 2.076
71.24000 4.836
71.26000 7.878
71.28000 6.373
71.30000 4.673
71.32000 6.149
71.34000 7.532
71.36000 2.764
71.38000 2.157
71.40000 1.785
71.42000 1.396
71.44000 3.146
71.46000 1.477
71.48000 3.816
71.50000 0.339
71.52000 -0.046
71.54000 1.222
71.56000 -1.385
71.58000 3.249
71.60000 -0.119
71.62000 2.391
71.64000 0.749
71.66000 0.455
71.68000 -0.114
71.70000 -2.213
71.72000 0.243
71.74000 0.931
71.76000 2.493
71.78000 3.992
71.80000 2.650
71.82000 0.018
71.84000 3.586
71.86000 5.303
71.88000 3.047
71.90000 -0.136
71.92000 2.120
71.94000 0.797
71.96000 -0.122
71.98000 1.493
72.00000 0.727
72.02000 4.283
72.04000 3.104
72.06000 1.062
72.08000 2.909
72.10000 -0.319
72.12000 -0.461
72.14000 -0.213
72.16000 -2.198
72.18000 -1.538
72.20000 3.027
72.22000 2.331
72.24000 0.989
72.26000 -0.119
72.28000 0.637
72.30000 1.390
72.32000 -0.075
72.34000 0.535
72.36000 1.524
72.38000 0.653
72.40000 0.294
72.42000 -0.086
72.44000 1.312
72.46000 1.017
72.48000 3.079
72.50000 5.222
72.52000 3.318
72.54000 3.305
72.56000 3.169
72.58000 0.809
72.60000 -0.939
72.62000 1.548
72.64000 -0.884
72.66000 2.174
72.68000 4.546
72.70000 2.618
72.72000 3.682
72.74000 2.766
72.76000 0.881
72.78000 2.102
72.80000 2.109
72.82000 3.583
72.84000 4.365
72.86000 -1.846
72.88000 -2.168
72.90000 -1.907
72.92000 1.307
72.94000 3.429
72.96000 1.487
72.98000 -0.066
73.00000 -0.245
73.02000 -0.933
73.04000 -2.117
73.06000 -0.483
73.08000 -0.444
73.10000 -2.151
73.12000 -0.400
73.14000 -0.290
73.16000 1.653
73.18000 0.725
73.20000 1.101
73.22000 1.207
73.24000 -1.354
73.26000 1.273
73.28000 4.978
73.30000 2.913
73.32000 1.412
73.34000 -0.407
73.36000 2.410
73.38000 1.311
73.40000 2.990
73.42000 2.980
73.44000 4.837
73.46000 0.864
73.48000 0.484
73.50000 1.188
73.52000 4.205
73.54000 -1.115
73.56000 -2.138
73.58000 0.489
73.60000 0.653
73.62000 -0.186
73.64000 -0.117
73.66000 -1.737
73.68000 1.154
73.70000 -1.038
73.72000 -1.543
73.74000 2.980
73.76000 1.744
73.78000 1.722
73.80000 -0.753
73.82000 1.197
73.84000 3.974
73.86000 3.345
73.88000 2.791
73.90000 3.753
73.92000 0.009
73.94000 2.416
73.96000 3.729
73.98000 1.097
74.00000 0.054
74.02000 0.921
74.04000 -0.834
74.06000 -1.945
74.08000 -2.139
74.10000 -0.014
74.12000 1.298
74.14000 3.042
74.16000 3.262
74.18000 1.314
74.20000 2.357
74.22000 0.938
74.24000 3.500
74.26000 -0.082
74.28000 -0.152
74.30000 3.188
74.32000 0.984
74.34000 -1.742
74.36000 0.315
74.38000 5.865
74.40000 4.238
74.42000 3.902
74.44000 4.804
74.46000 3.822
74.48000 3.908
74.50000 5.323
74.52000 4.312
74.54000 2.695
74.56000 1.287
74.58000 0.778
74.60000 1.560
74.62000 0.224
74.64000 2.359
74.66000 2.240
74.68000 0.833
74.70000 3.563
74.72000 2.654
74.74000 1.548
74.76000 0.828
74.78000 -1.289
74.80000 -1.620
74.82000 4.045
74.84000 2.435
74.86000 1.458
74.88000 1.074
74.90000 2.827
74.92000 0.772
74.94000 -0.720
74.96000 1.060
74.98000 -0.119
75.00000 1.256
75.02000 1.058
75.04000 1.898
75.06000 2.291
75.08000 0.671
75.10000 -0.638
75.12000 -1.606
75.14000 -0.417
75.16000 -0.262
75.18000 2.495
75.20000 -1.290
75.22000 2.474
75.24000 2.814
75.26000 2.889
75.28000 1.068
75.30000 0.245
75.32000 -2.136
75.34000 0.374
75.36000 0.782
75.38000 4.468
75.40000 1.704
75.42000 2.184
75.44000 2.290
75.46000 1.164
75.48000 1.663
75.50000 2.657
75.52000 4.521
75.54000 4.885
75.56000 5.163
75.58000 2.562
75.60000 -0.130
75.62000 0.427
75.64000 3.997
75.66000 2.947
75.68000 -0.796
75.70000 0.475
75.72000 5.080
75.74000 8.784
75.76000 2.377
75.78000 5.871
75.80000 4.839
75.82000 0.301
75.84000 -1.410
75.86000 -0.408
75.88000 2.633
75.90000 3.715
75.92000 2.003
75.94000 0.771
75.96000 1.332
75.98000 1.027
76.00000 1.338
76.02000 -0.650
76.04000 2.541
76.06000 1.050
76.08000 1.506
76.10000 3.178
76.12000 0.832
76.14000 2.231
76.16000 -0.428
76.18000 -1.493
76.20000 -0.148
76.22000 2.519
76.24000 2.825
76.26000 -0.828
76.28000 0.690
76.30000 1.409
76.32000 0.878
76.34000 -0.195
76.36000 -1.537
76.38000 -0.804
76.40000 -1.005
76.42000 -1.489
76.44000 1.997
76.46000 3.305
76.48000 2.296
76.50000 -0.233
76.52000 2.602
76.54000 1.440
76.56000 2.052
76.58000 0.997
76.60000 -1.386
76.62000 -0.761
76.64000 4.117
76.66000 4.230
76.68000 1.039
76.70000 -0.750
76.72000 1.597
76.74000 -0.674
76.76000 4.423
76.78000 4.186
76.80000 5.031
76.82000 4.639
76.84000 1.208
76.86000 3.605
76.88000 2.102
76.90000 4.255
76.92000 3.671
76.94000 -0.219
76.96000 0.679
76.98000 4.537
77.00000 10.060
77.02000 7.576
77.04000 6.070
77.06000 3.255
77.08000 3.389
77.10000 5.842
77.12000 4.943
77.14000 3.112
77.16000 2.665
77.18000 5.833
77.20000 6.645
77.22000 2.328
77.24000 1.102
77.26000 1.786
77.28000 2.674
77.30000 6.376
77.32000 6.075
77.34000 6.155
77.36000 9.190
77.38000 8.937
77.40000 6.023
77.42000 1.732
77.44000 -2.080
77.46000 0.081
77.48000 5.867
77.50000 7.390
77.52000 5.589
77.54000 5.393
77.56000 4.731
77.58000 2.824
77.60000 1.417
77.62000 6.811
77.64000 6.332
77.66000 6.446
77.68000 2.136
77.70000 3.945
77.72000 6.460
77.74000 4.399
77.76000 -0.746
77.78000 3.261
77.80000 1.899
77.82000 3.905
77.84000 3.083
77.86000 3.789
77.88000 5.916
77.90000 4.777
77.92000 2.505
77.94000 0.585
77.96000 3.083
77.98000 3.830
78.00000 5.185
78.02000 5.147
78.04000 4.604
78.06000 6.644
78.08000 5.435
78.10000 5.226
78.12000 3.608
78.14000 4.269
78.16000 1.812
78.18000 4.526
78.20000 3.916
78.22000 3.983
78.24000 1.609
78.26000 -0.911
78.28000 -2.121
78.30000 2.085
78.32000 2.593
78.34000 2.453
78.36000 1.520
78.38000 2.203
78.40000 3.749
78.42000 9.222
78.44000 5.779
78.46000 1.476
78.48000 1.705
78.50000 1.268
78.52000 4.239
78.54000 5.303
78.56000 2.106
78.58000 -0.075
78.60000 1.699
78.62000 2.369
78.64000 2.717
78.66000 6.083
78.68000 5.851
78.70000 6.280
78.72000 2.636
78.74000 2.483
78.76000 2.995
78.78000 -0.257
78.80000 3.427
78.82000 2.540
78.84000 6.861
78.86000 2.172
78.88000 3.242
78.90000 2.175
78.92000 0.697
78.94000 -1.560
78.96000 2.004
78.98000 1.742
79.00000 0.338
79.02000 1.724
79.04000 -1.223
79.06000 1.622
79.08000 2.291
79.10000 -1.907
79.12000 -2.182
79.14000 0.182
79.16000 3.527
79.18000 2.572
79.20000 5.981
79.22000 4.318
79.24000 3.911
79.26000 2.729
79.28000 3.298
79.30000 3.557
79.32000 3.281
79.34000 0.178
79.36000 -0.241
79.38000 -1.218
79.40000 1.986
79.42000 2.429
79.44000 4.696
79.46000 3.338
79.48000 3.930
79.50000 1.454
79.52000 4.430
79.54000 3.445
79.56000 5.377
79.58000 4.170
79.60000 -0.914
79.62000 1.051
79.64000 1.901
79.66000 1.999
79.68000 1.736
79.70000 2.366
79.72000 1.759
79.74000 -0.589
79.76000 1.990
79.78000 4.267
79.80000 2.936
79.82000 1.627
79.84000 0.890
79.86000 0.853
79.88000 -0.898
79.90000 3.069
79.92000 4.583
79.94000 4.759
79.96000 5.120
79.98000 1.647
80.00000 2.158
80.02000 0.868
80.04000 0.943
80.06000 4.030
80.08000 0.936
80.10000 -1.631
80.12000 -1.684
80.14000 1.176
80.16000 0.184
80.18000 2.597
80.20000 3.004
80.22000 4.128
80.24000 2.682
80.26000 0.622
80.28000 2.870
80.30000 3.739
80.32000 -2.199
80.34000 -0.399
80.36000 1.041
80.38000 -1.507
80.40000 2.656
80.42000 1.939
80.44000 -1.824
80.46000 -0.363
80.48000 4.992
80.50000 4.553
80.52000 4.268
80.54000 0.741
80.56000 0.420
80.58000 6.824
80.60000 3.579
80.62000 0.225
80.64000 4.256
80.66000 0.954
80.68000 0.884
80.70000 2.817
80.72000 4.320
80.74000 -0.748
80.76000 2.054
80.78000 4.670
80.80000 0.860
80.82000 1.913
80.84000 1.280
80.86000 2.153
80.88000 2.143
80.90000 5.185
80.92000 2.306
80.94000 4.030
80.96000 4.502
80.98000 3.501
81.00000 3.387
81.02000 0.466
81.04000 2.144
81.06000 2.672
81.08000 3.660
81.10000 1.105
81.12000 0.955
81.14000 -2.257
81.16000 1.382
81.18000 2.627
81.20000 4.217
81.22000 3.178
81.24000 5.600
81.26000 4.974
81.28000 0.695
81.30000 1.047
81.32000 3.173
81.34000 5.218
81.36000 3.568
81.38000 1.248
81.40000 -0.763
81.42000 0.615
81.44000 0.390
81.46000 0.183
81.48000 0.748
81.50000 -0.563
81.52000 3.737
81.54000 2.737
81.56000 1.858
81.58000 2.996
81.60000 0.191
81.62000 0.016
81.64000 1.276
81.66000 2.985
81.68000 3.879
81.70000 3.471
81.72000 1.836
81.74000 0.970
81.76000 -1.488
81.78000 -1.763
81.80000 0.945
81.82000 2.014
81.84000 3.825
81.86000 4.348
81.88000 3.803
81.90000 1.513
81.92000 -0.999
81.94000 1.154
81.96000 0.885
81.98000 0.652
82.00000 1.910
82.02000 3.584
82.04000 3.504
82.06000 5.010
82.08000 5.350
82.10000 2.335
82.12000 5.249
82.14000 3.827
82.16000 3.942
82.18000 5.675
82.20000 6.479
82.22000 6.685
82.24000 6.809
82.26000 2.876
82.28000 7.141
82.30000 4.971
82.32000 3.543
82.34000 5.525
82.36000 4.795
82.38000 5.993
82.40000 5.064
82.42000 6.918
82.44000 6.197
82.46000 6.421
82.48000 3.417
82.50000 9.509
82.52000 13.621
82.54000 14.123
82.56000 16.752
82.58000 13.960
82.60000 14.824
82.62000 17.417
82.64000 14.305
82.66000 16.756
82.68000 17.151
82.70000 13.838
82.72000 12.238
82.74000 14.678
82.76000 16.292
82.78000 12.863
82.80000 16.047
82.82000 18.147
82.84000 18.453
82.86000 20.541
82.88000 20.770
82.90000 25.088
82.92000 22.956
82.94000 20.474
82.96000 22.812
82.98000 20.254
83.00000 22.182
83.02000 29.975
83.04000 29.086
83.06000 23.354
83.08000 25.048
83.10000 30.501
83.12000 32.457
83.14000 26.534
83.16000 27.665
83.18000 28.855
83.20000 28.065
83.22000 32.583
83.24000 33.753
83.26000 35.463
83.28000 34.512
83.30000 29.594
83.32000 31.137
83.34000 29.589
83.36000 36.547
83.38000 37.872
83.40000 33.536
83.42000 33.294
83.44000 32.420
83.46000 26.796
83.48000 26.310
83.50000 31.415
83.52000 31.814
83.54000 32.287
83.56000 31.374
83.58000 30.422
83.60000 26.180
83.62000 28.834
83.64000 29.857
83.66000 25.458
83.68000 24.318
83.70000 19.782
83.72000 22.976
83.74000 25.283
83.76000 27.853
83.78000 26.576
83.80000 28.526
83.82000 22.941
83.84000 17.359
83.86000 19.654
83.88000 19.552
83.90000 14.955
83.92000 17.733
83.94000 17.958
83.96000 14.549
83.98000 14.706
84.00000 10.905
84.02000 13.250
84.04000 15.502
84.06000 14.582
84.08000 12.937
84.10000 8.513
84.12000 8.932
84.14000 11.244
84.16000 11.359
84.18000 9.498
84.20000 7.775
84.22000 11.064
84.24000 6.600
84.26000 8.104
84.28000 7.921
84.30000 6.049
84.32000 7.141
84.34000 6.035
84.36000 7.423
84.38000 9.021
84.40000 7.755
84.42000 6.135
84.44000 5.667
84.46000 7.228
84.48000 6.655
84.50000 2.736
84.52000 -0.869
84.54000 3.291
84.56000 6.438
84.58000 5.132
84.60000 5.581
84.62000 4.316
84.64000 2.358
84.66000 2.576
84.68000 2.219
84.70000 6.358
84.72000 3.609
84.74000 2.204
84.76000 5.487
84.78000 3.460
84.80000 0.959
84.82000 -1.228
84.84000 0.229
84.86000 1.430
84.88000 2.272
84.90000 4.508
84.92000 -1.129
84.94000 4.093
84.96000 5.482
84.98000 0.177
85.00000 -2.084
85.02000 1.874
85.04000 1.278
85.06000 0.817
85.08000 -0.018
85.10000 -2.116
85.12000 -1.057
85.14000 -2.142
85.16000 2.978
85.18000 2.447
85.20000 3.169
85.22000 -1.957
85.24000 2.068
85.26000 1.625
85.28000 0.386
85.30000 -1.394
85.32000 0.988
85.34000 0.973
85.36000 4.518
85.38000 1.652
85.40000 3.643
85.42000 3.018
85.44000 1.259
85.46000 -0.543
85.48000 -2.211
85.50000 -0.256
85.52000 5.994
85.54000 2.740
85.56000 -0.448
85.58000 1.725
85.60000 -2.188
85.62000 0.587
85.64000 1.241
85.66000 -0.859
85.68000 -0.037
85.70000 3.033
85.72000 0.965
85.74000 -0.527
85.76000 1.255
85.78000 3.699
85.80000 3.697
85.82000 4.256
85.84000 6.165
85.86000 4.185
85.88000 1.935
85.90000 4.223
85.92000 7.016
85.94000 4.788
85.96000 4.481
85.98000 1.394
86.00000 2.301
86.02000 1.113
86.04000 0.510
86.06000 1.440
86.08000 3.181
86.10000 1.792
86.12000 3.375
86.14000 -0.680
86.16000 -0.140
86.18000 2.344
86.20000 4.664
86.22000 2.690
86.24000 0.984
86.26000 2.158
86.28000 6.271
86.30000 3.914
86.32000 4.021
86.34000 -2.175
86.36000 1.216
86.38000 5.835
86.40000 6.218
86.42000 2.332
86.44000 4.532
86.46000 4.705
86.48000 2.469
86.50000 7.361
86.52000 7.545
86.54000 4.970
86.56000 2.608
86.58000 1.449
86.60000 5.966
86.62000 4.080
86.64000 5.511
86.66000 4.295
86.68000 5.370
86.70000 2.359
86.72000 2.229
86.74000 3.579
86.76000 6.855
86.78000 5.672
86.80000 7.784
86.82000 6.871
86.84000 3.294
86.86000 5.570
86.88000 5.596
86.90000 4.552
86.92000 3.564
86.94000 3.346
86.96000 4.496
86.98000 5.246
87.00000 7.426
87.02000 4.671
87.04000 7.141
87.06000 8.127
87.08000 7.484
87.10000 8.120
87.12000 9.773
87.14000 10.203
87.16000 11.376
87.18000 9.447
87.20000 11.108
87.22000 10.875
87.24000 17.044
87.26000 17.164
87.28000 11.248
87.30000 7.648
87.32000 10.953
87.34000 14.481
87.36000 13.547
87.38000 13.012
87.40000 14.846
87.42000 12.894
87.44000 15.481
87.46000 14.589
87.48000 13.756
87.50000 11.120
87.52000 15.655
87.54000 19.777
87.56000 17.828
87.58000 18.522
87.60000 17.990
87.62000 18.615
87.64000 18.317
87.66000 17.820
87.68000 12.708
87.70000 15.343
87.72000 19.798
87.74000 17.208
87.76000 18.157
87.78000 24.163
87.80000 23.232
87.82000 22.932
87.84000 24.040
87.86000 21.740
87.88000 18.095
87.90000 19.204
87.92000 23.742
87.94000 23.378
87.96000 28.018
87.98000 24.078
88.00000 19.566
88.02000 18.379
88.04000 20.238
88.06000 18.740
88.08000 23.361
88.10000 20.457
88.12000 18.177
88.14000 15.477
88.16000 14.542
88.18000 16.169
88.20000 17.260
88.22000 18.619
88.24000 12.286
88.26000 12.517
88.28000 13.919
88.30000 15.938
88.32000 14.613
88.34000 12.571
88.36000 11.092
88.38000 6.755
88.40000 7.945
88.42000 11.222
88.44000 12.036
88.46000 10.381
88.48000 10.161
88.50000 9.455
88.52000 10.793
88.54000 10.513
88.56000 10.899
88.58000 9.414
88.60000 9.781
88.62000 5.924
88.64000 5.645
88.66000 7.261
88.68000 8.500
88.70000 7.888
88.72000 4.678
88.74000 3.503
88.76000 7.001
88.78000 3.471
88.80000 3.947
88.82000 3.482
88.84000 3.958
88.86000 3.786
88.88000 4.742
88.90000 2.508
88.92000 4.563
88.94000 4.448
88.96000 2.090
88.98000 1.298
89.00000 3.233
89.02000 3.435
89.04000 2.181
89.06000 3.626
89.08000 5.841
89.10000 2.301
89.12000 -1.614
89.14000 -1.281
89.16000 2.278
89.18000 -1.051
89.20000 2.634
89.22000 7.607
89.24000 4.201
89.26000 1.033
89.28000 0.945
89.30000 0.501
89.32000 3.529
89.34000 2.178
89.36000 -0.759
89.38000 1.119
89.40000 3.761
89.42000 2.995
89.44000 0.504
89.46000 -1.181
89.48000 -2.119
89.50000 1.871
89.52000 0.006
89.54000 -0.827
89.56000 1.553
89.58000 -0.752
89.60000 1.685
89.62000 -0.464
89.64000 -1.851
89.66000 -0.249
89.68000 1.964
89.70000 3.745
89.72000 1.660
89.74000 -0.446
89.76000 -0.471
89.78000 0.305
89.80000 3.233
89.82000 4.744
89.84000 2.457
89.86000 3.435
89.88000 -1.249
89.90000 1.748
89.92000 3.464
89.94000 3.491
89.96000 2.878
89.98000 2.035
90.00000 4.397
90.02000 6.041
90.04000 4.017
90.06000 4.351
90.08000 4.555
90.10000 3.962
90.12000 6.816
90.14000 4.286
90.16000 -0.115
90.18000 0.531
90.20000 -1.822
90.22000 -0.376
90.24000 -1.528
90.26000 -1.525
90.28000 0.731
90.30000 0.462
90.32000 1.397
90.34000 1.008
90.36000 -2.053
90.38000 -0.877
90.40000 -0.927
90.42000 1.007
90.44000 5.324
90.46000 5.218
90.48000 5.918
90.50000 1.666
90.52000 0.153
90.54000 -0.096
90.56000 -2.042
90.58000 -0.357
90.60000 0.739
90.62000 1.745
90.64000 8.234
90.66000 4.757
90.68000 2.477
90.70000 0.665
90.72000 0.630
90.74000 -1.034
90.76000 3.636
90.78000 2.526
90.80000 1.470
90.82000 2.631
90.84000 0.777
90.86000 3.124
90.88000 1.714
90.90000 -0.938
90.92000 -1.230
90.94000 -0.022
90.96000 1.572
90.98000 3.170
91.00000 1.867
91.02000 5.650
91.04000 3.403
91.06000 4.349
91.08000 4.693
91.10000 3.661
91.12000 0.990
91.14000 0.123
91.16000 3.268
91.18000 5.992
91.20000 3.618
91.22000 4.191
91.24000 5.745
91.26000 6.287
91.28000 6.942
91.30000 5.396
91.32000 7.043
91.34000 4.495
91.36000 6.268
91.38000 6.510
91.40000 1.348
91.42000 3.252
91.44000 7.580
91.46000 3.232
91.48000 6.848
91.50000 5.072
91.52000 6.981
91.54000 10.725
91.56000 6.686
91.58000 1.713
91.60000 -1.935
91.62000 6.917
91.64000 6.442
91.66000 5.328
91.68000 3.189
91.70000 7.395
91.72000 10.330
91.74000 6.537
91.76000 5.145
91.78000 5.164
91.80000 7.201
91.82000 8.236
91.84000 6.135
91.86000 3.003
91.88000 8.770
91.90000 5.838
91.92000 6.411
91.94000 8.767
91.96000 5.872
91.98000 2.713
92.00000 3.362
92.02000 3.884
92.04000 5.094
92.06000 7.945
92.08000 4.529
92.10000 5.111
92.12000 7.532
92.14000 6.306
92.16000 5.080
92.18000 7.447
92.20000 5.011
92.22000 4.108
92.24000 6.480
92.26000 8.816
92.28000 5.416
92.30000 3.591
92.32000 5.244
92.34000 6.536
92.36000 7.198
92.38000 5.024
92.40000 1.537
92.42000 1.916
92.44000 4.543
92.46000 6.870
92.48000 3.083
92.50000 0.804
92.52000 3.903
92.54000 7.151
92.56000 3.235
92.58000 2.652
92.60000 5.889
92.62000 2.763
92.64000 2.174
92.66000 5.763
92.68000 5.055
92.70000 4.778
92.72000 5.701
92.74000 4.208
92.76000 2.136
92.78000 2.625
92.80000 1.535
92.82000 4.444
92.84000 3.703
92.86000 1.302
92.88000 3.469
92.90000 3.955
92.92000 0.631
92.94000 3.529
92.96000 3.592
92.98000 2.147
93.00000 7.064
93.02000 5.406
93.04000 2.161
93.06000 5.517
93.08000 7.121
93.10000 7.201
93.12000 4.246
93.14000 2.442
93.16000 2.015
93.18000 1.411
93.20000 6.147
93.22000 2.835
93.24000 -2.034
93.26000 0.507
93.28000 1.699
93.30000 5.713
93.32000 7.303
93.34000 6.359
93.36000 3.666
93.38000 2.795
93.40000 4.642
93.42000 -0.051
93.44000 -0.074
93.46000 5.517
93.48000 6.102
93.50000 2.884
93.52000 1.954
93.54000 1.539
93.56000 2.209
93.58000 3.619
93.60000 1.755
93.62000 -1.692
93.64000 -0.813
93.66000 1.385
93.68000 0.515
93.70000 3.177
93.72000 1.863
93.74000 0.098
93.76000 2.816
93.78000 0.100
93.80000 -0.975
93.82000 -1.316
93.84000 0.817
93.86000 2.799
93.88000 4.784
93.90000 2.773
93.92000 4.423
93.94000 8.777
93.96000 6.538
93.98000 2.150
94.00000 2.316
94.02000 6.003
94.04000 5.941
94.06000 0.863
94.08000 -2.062
94.10000 -1.901
94.12000 1.885
94.14000 4.457
94.16000 1.781
94.18000 -0.584
94.20000 0.255
94.22000 5.297
94.24000 1.703
94.26000 6.800
94.28000 5.811
94.30000 6.349
94.32000 3.944
94.34000 -0.648
94.36000 1.974
94.38000 2.989
94.40000 3.506
94.42000 2.684
94.44000 2.085
94.46000 0.705
94.48000 -1.859
94.50000 4.401
94.52000 3.806
94.54000 4.382
94.56000 2.715
94.58000 2.133
94.60000 5.899
94.62000 6.722
94.64000 8.596
94.66000 5.199
94.68000 7.981
94.70000 10.670
94.72000 7.741
94.74000 7.457
94.76000 4.679
94.78000 -2.046
94.80000 1.296
94.82000 1.630
94.84000 -0.203
94.86000 3.366
94.88000 3.991
94.90000 3.789
94.92000 5.758
94.94000 3.109
94.96000 1.701
94.98000 1.223
95.00000 5.159
95.02000 7.045
95.04000 6.489
95.06000 5.252
95.08000 2.595
95.10000 1.310
95.12000 0.494
95.14000 -1.367
95.16000 1.298
95.18000 7.986
95.20000 2.636
95.22000 0.749
95.24000 1.132
95.26000 5.567
95.28000 -0.965
95.30000 -0.189
95.32000 -0.558
95.34000 2.243
95.36000 2.495
95.38000 3.753
95.40000 3.098
95.42000 3.521
95.44000 1.294
95.46000 -0.575
95.48000 2.078
95.50000 3.470
95.52000 5.026
95.54000 1.197
95.56000 3.878
95.58000 1.010
95.60000 -1.578
95.62000 -0.284
95.64000 -0.110
95.66000 1.156
95.68000 5.061
95.70000 5.452
95.72000 0.599
95.74000 1.234
95.76000 2.704
95.78000 0.469
95.80000 1.757
95.82000 4.283
95.84000 0.109
95.86000 3.949
95.88000 6.710
95.90000 3.565
95.92000 2.176
95.94000 1.185
95.96000 -1.547
95.98000 0.941
96.00000 0.822
96.02000 0.681
96.04000 6.141
96.06000 5.295
96.08000 7.049
96.10000 3.840
96.12000 2.329
96.14000 5.451
96.16000 4.918
96.18000 4.883
96.20000 3.983
96.22000 4.988
96.24000 4.143
96.26000 0.739
96.28000 -1.151
96.30000 -0.401
96.32000 4.952
96.34000 3.074
96.36000 -1.669
96.38000 2.413
96.40000 3.855
96.42000 7.134
96.44000 3.754
96.46000 2.066
96.48000 2.881
96.50000 1.773
96.52000 6.882
96.54000 7.979
96.56000 4.239
96.58000 0.892
96.60000 3.785
96.62000 -1.428
96.64000 -2.021
96.66000 3.129
96.68000 4.000
96.70000 7.679
96.72000 5.833
96.74000 6.399
96.76000 7.973
96.78000 5.846
96.80000 6.041
96.82000 3.263
96.84000 3.728
96.86000 9.384
96.88000 4.016
96.90000 6.114
96.92000 2.963
96.94000 -0.963
96.96000 4.326
96.98000 6.815
97.00000 5.733
97.02000 4.120
97.04000 2.625
97.06000 4.425
97.08000 6.024
97.10000 3.204
97.12000 -1.438
97.14000 0.539
97.16000 4.779
97.18000 1.897
97.20000 2.904
97.22000 5.730
97.24000 8.117
97.26000 11.929
97.28000 6.819
97.30000 5.352
97.32000 0.144
97.34000 0.642
97.36000 -1.295
97.38000 3.482
97.40000 6.984
97.42000 5.185
97.44000 3.413
97.46000 0.417
97.48000 1.889
97.50000 7.213
97.52000 8.343
97.54000 6.471
97.56000 5.930
97.58000 4.468
97.60000 5.350
97.62000 1.595
97.64000 2.215
97.66000 4.760
97.68000 2.205
97.70000 0.275
97.72000 2.252
97.74000 3.724
97.76000 6.156
97.78000 9.124
97.80000 8.585
97.82000 7.647
97.84000 8.239
97.86000 9.031
97.88000 5.132
97.90000 6.840
97.92000 12.843
97.94000 7.960
97.96000 9.143
97.98000 6.218
98.00000 3.090
98.02000 5.423
98.04000 3.824
98.06000 1.060
98.08000 -2.004
98.10000 -0.437
98.12000 -0.283
98.14000 -0.705
98.16000 1.262
98.18000 6.660
98.20000 8.131
98.22000 4.201
98.24000 -0.382
98.26000 0.529
98.28000 4.972
98.30000 1.634
98.32000 3.254
98.34000 6.767
98.36000 3.115
98.38000 6.581
98.40000 4.867
98.42000 3.375
98.44000 2.226
98.46000 -0.453
98.48000 -0.311
98.50000 5.771
98.52000 1.448
98.54000 3.672
98.56000 4.771
98.58000 0.532
98.60000 6.162
98.62000 7.942
98.64000 9.149
98.66000 6.269
98.68000 3.962
98.70000 -0.786
98.72000 0.596
98.74000 4.378
98.76000 8.163
98.78000 3.490
98.80000 2.639
98.82000 6.819
98.84000 5.735
98.86000 -1.905
98.88000 1.920
98.90000 7.199
98.92000 9.661
98.94000 5.021
98.96000 2.945
98.98000 3.150
99.00000 5.770
99.02000 4.660
99.04000 -1.972
99.06000 3.598
99.08000 4.339
99.10000 -0.354
99.12000 4.119
99.14000 4.107
99.16000 -1.843
99.18000 0.576
99.20000 4.426
99.22000 5.487
99.24000 0.386
99.26000 3.391
99.28000 2.845
99.30000 10.149
99.32000 4.806
99.34000 -0.569
99.36000 5.290
99.38000 4.614
99.40000 1.650
99.42000 -0.408
99.44000 6.803
99.46000 10.660
99.48000 7.571
99.50000 5.881
99.52000 5.300
99.54000 3.987
99.56000 -0.095
99.58000 1.701
99.60000 13.343
99.62000 8.496
99.64000 6.722
99.66000 4.129
99.68000 0.642
99.70000 1.362
99.72000 -2.001
99.74000 0.809
99.76000 4.121
99.78000 2.425
99.80000 0.411
99.82000 8.737
99.84000 11.510
99.86000 11.572
99.88000 2.654
99.90000 -4.303
99.92000 6.056
99.94000 4.597
99.96000 -2.131
99.98000 0.000
