'Id: "0011388" Comment: "Integrate frame 0011388_Au-Ir-Rh_Rh-rich_XRD-Mapping-260-0000.gfrmwith cursor Wedge Cursor #5" Operator: "B?rgel" Anode: "Cu" Wavelength: "1.5406" Scantype: "2Theta (TwoTheta)" TimePerStep: "1" X: "-40.5" Y: "22.5" Z: "5.95" 
10.00000 0.000
10.02000 -0.321
10.04000 -4.638
10.06000 2.037
10.08000 11.660
10.10000 20.276
10.12000 14.580
10.14000 10.397
10.16000 18.985
10.18000 18.990
10.20000 -1.880
10.22000 4.646
10.24000 6.633
10.26000 8.732
10.28000 10.189
10.30000 6.375
10.32000 17.455
10.34000 6.448
10.36000 0.322
10.38000 -4.484
10.40000 15.415
10.42000 21.371
10.44000 10.096
10.46000 6.905
10.48000 -0.292
10.50000 6.483
10.52000 1.052
10.54000 10.369
10.56000 17.651
10.58000 2.707
10.60000 17.729
10.62000 10.407
10.64000 2.458
10.66000 13.847
10.68000 14.685
10.70000 11.448
10.72000 17.887
10.74000 25.144
10.76000 10.458
10.78000 11.382
10.80000 17.585
10.82000 25.139
10.84000 7.992
10.86000 18.057
10.88000 26.392
10.90000 24.363
10.92000 18.707
10.94000 30.655
10.96000 30.616
10.98000 27.982
11.00000 6.037
11.02000 -0.742
11.04000 14.528
11.06000 12.063
11.08000 16.387
11.10000 23.821
11.12000 19.610
11.14000 27.853
11.16000 31.164
11.18000 19.095
11.20000 10.855
11.22000 3.574
11.24000 8.522
11.26000 8.241
11.28000 22.878
11.30000 7.756
11.32000 -2.648
11.34000 5.878
11.36000 12.647
11.38000 14.770
11.40000 13.626
11.42000 13.398
11.44000 11.471
11.46000 25.736
11.48000 18.758
11.50000 10.901
11.52000 5.411
11.54000 15.269
11.56000 21.981
11.58000 16.087
11.60000 6.135
11.62000 3.324
11.64000 13.671
11.66000 23.193
11.68000 14.017
11.70000 1.309
11.72000 0.406
11.74000 17.068
11.76000 24.308
11.78000 22.582
11.80000 7.967
11.82000 9.796
11.84000 12.602
11.86000 14.086
11.88000 7.180
11.90000 7.438
11.92000 26.041
11.94000 10.402
11.96000 4.593
11.98000 8.516
12.00000 9.364
12.02000 0.697
12.04000 1.232
12.06000 8.832
12.08000 6.269
12.10000 9.707
12.12000 17.788
12.14000 18.325
12.16000 15.196
12.18000 10.756
12.20000 19.260
12.22000 18.869
12.24000 13.324
12.26000 3.687
12.28000 7.006
12.30000 5.507
12.32000 14.350
12.34000 9.228
12.36000 9.297
12.38000 13.443
12.40000 11.666
12.42000 9.742
12.44000 14.899
12.46000 18.500
12.48000 3.478
12.50000 -4.515
12.52000 4.913
12.54000 1.086
12.56000 11.367
12.58000 19.329
12.60000 14.920
12.62000 7.390
12.64000 4.594
12.66000 3.782
12.68000 14.062
12.70000 15.544
12.72000 -0.479
12.74000 1.058
12.76000 10.049
12.78000 14.028
12.80000 13.152
12.82000 4.414
12.84000 7.783
12.86000 8.532
12.88000 9.440
12.90000 1.944
12.92000 4.914
12.94000 5.139
12.96000 -0.724
12.98000 2.883
13.00000 -1.327
13.02000 6.046
13.04000 14.245
13.06000 17.775
13.08000 5.035
13.10000 6.706
13.12000 10.402
13.14000 9.049
13.16000 3.312
13.18000 4.208
13.20000 2.705
13.22000 2.107
13.24000 7.201
13.26000 9.518
13.28000 17.105
13.30000 19.722
13.32000 10.290
13.34000 6.626
13.36000 16.671
13.38000 8.020
13.40000 1.607
13.42000 1.202
13.44000 8.869
13.46000 6.432
13.48000 -2.192
13.50000 1.125
13.52000 10.266
13.54000 5.570
13.56000 4.760
13.58000 18.621
13.60000 8.894
13.62000 1.049
13.64000 0.865
13.66000 -1.472
13.68000 -0.529
13.70000 6.027
13.72000 10.524
13.74000 3.280
13.76000 9.819
13.78000 9.315
13.80000 8.246
13.82000 7.358
13.84000 13.838
13.86000 3.483
13.88000 6.030
13.90000 11.608
13.92000 5.265
13.94000 8.379
13.96000 13.319
13.98000 4.128
14.00000 1.225
14.02000 2.229
14.04000 -3.564
14.06000 -1.271
14.08000 1.352
14.10000 -3.810
14.12000 1.461
14.14000 8.432
14.16000 -3.456
14.18000 7.103
14.20000 1.120
14.22000 -2.791
14.24000 4.147
14.26000 6.481
14.28000 6.673
14.30000 -4.001
14.32000 2.172
14.34000 8.257
14.36000 2.097
14.38000 1.063
14.40000 6.869
14.42000 9.420
14.44000 -0.672
14.46000 1.252
14.48000 0.409
14.50000 2.652
14.52000 10.570
14.54000 4.109
14.56000 4.198
14.58000 5.649
14.60000 5.441
14.62000 12.091
14.64000 7.287
14.66000 -2.187
14.68000 0.969
14.70000 4.612
14.72000 0.090
14.74000 -0.625
14.76000 -0.815
14.78000 -2.621
14.80000 5.590
14.82000 -2.135
14.84000 3.917
14.86000 2.071
14.88000 -2.925
14.90000 8.313
14.92000 9.490
14.94000 1.601
14.96000 4.443
14.98000 3.091
15.00000 6.023
15.02000 4.656
15.04000 3.144
15.06000 5.635
15.08000 7.499
15.10000 5.665
15.12000 5.847
15.14000 3.605
15.16000 -4.499
15.18000 -2.724
15.20000 1.591
15.22000 2.124
15.24000 -1.116
15.26000 -3.414
15.28000 -2.120
15.30000 2.270
15.32000 4.840
15.34000 6.889
15.36000 7.652
15.38000 11.666
15.40000 9.005
15.42000 16.702
15.44000 6.719
15.46000 0.875
15.48000 8.839
15.50000 8.480
15.52000 8.091
15.54000 -2.354
15.56000 1.658
15.58000 -2.387
15.60000 -4.118
15.62000 10.244
15.64000 6.173
15.66000 3.957
15.68000 4.830
15.70000 8.140
15.72000 3.907
15.74000 1.753
15.76000 -4.307
15.78000 3.502
15.80000 10.816
15.82000 14.653
15.84000 11.168
15.86000 9.349
15.88000 3.071
15.90000 -4.440
15.92000 2.410
15.94000 5.460
15.96000 6.769
15.98000 -1.367
16.00000 -1.585
16.02000 1.721
16.04000 7.995
16.06000 8.803
16.08000 9.030
16.10000 5.168
16.12000 9.257
16.14000 13.646
16.16000 9.815
16.18000 8.529
16.20000 10.310
16.22000 7.271
16.24000 8.963
16.26000 8.295
16.28000 10.546
16.30000 13.786
16.32000 7.014
16.34000 2.451
16.36000 8.047
16.38000 3.502
16.40000 -4.433
16.42000 2.387
16.44000 8.062
16.46000 2.208
16.48000 5.204
16.50000 6.381
16.52000 9.794
16.54000 2.694
16.56000 7.742
16.58000 15.422
16.60000 8.558
16.62000 12.703
16.64000 7.723
16.66000 7.396
16.68000 10.832
16.70000 6.171
16.72000 2.211
16.74000 5.194
16.76000 9.742
16.78000 5.636
16.80000 -1.757
16.82000 2.918
16.84000 6.869
16.86000 10.138
16.88000 12.456
16.90000 7.674
16.92000 9.441
16.94000 2.951
16.96000 -2.553
16.98000 7.556
17.00000 6.170
17.02000 8.996
17.04000 3.111
17.06000 3.389
17.08000 0.678
17.10000 4.421
17.12000 5.900
17.14000 4.317
17.16000 2.207
17.18000 4.298
17.20000 3.163
17.22000 7.760
17.24000 5.652
17.26000 3.345
17.28000 11.331
17.30000 7.722
17.32000 2.203
17.34000 5.002
17.36000 8.489
17.38000 4.869
17.40000 2.656
17.42000 4.289
17.44000 1.896
17.46000 -4.389
17.48000 -2.747
17.50000 0.927
17.52000 4.931
17.54000 2.451
17.56000 5.083
17.58000 5.632
17.60000 1.502
17.62000 -2.134
17.64000 -1.811
17.66000 3.568
17.68000 2.520
17.70000 7.419
17.72000 11.797
17.74000 6.422
17.76000 2.130
17.78000 7.199
17.80000 1.443
17.82000 5.795
17.84000 5.820
17.86000 2.370
17.88000 1.215
17.90000 3.980
17.92000 1.155
17.94000 6.217
17.96000 11.430
17.98000 11.956
18.00000 9.679
18.02000 8.715
18.04000 5.418
18.06000 5.753
18.08000 4.343
18.10000 0.148
18.12000 1.403
18.14000 3.907
18.16000 0.503
18.18000 -0.323
18.20000 2.245
18.22000 8.931
18.24000 10.666
18.26000 5.615
18.28000 5.054
18.30000 5.898
18.32000 2.180
18.34000 5.089
18.36000 8.707
18.38000 3.076
18.40000 1.141
18.42000 9.473
18.44000 4.207
18.46000 -0.588
18.48000 -0.290
18.50000 5.587
18.52000 -1.366
18.54000 -4.326
18.56000 0.968
18.58000 4.205
18.60000 -0.431
18.62000 2.830
18.64000 9.419
18.66000 7.060
18.68000 -0.492
18.70000 4.695
18.72000 10.221
18.74000 6.171
18.76000 3.917
18.78000 8.495
18.80000 9.336
18.82000 -0.175
18.84000 0.314
18.86000 2.819
18.88000 -0.442
18.90000 4.939
18.92000 0.687
18.94000 -0.632
18.96000 0.331
18.98000 2.898
19.00000 7.244
19.02000 4.267
19.04000 1.586
19.06000 0.900
19.08000 -0.755
19.10000 0.255
19.12000 7.866
19.14000 5.331
19.16000 6.092
19.18000 11.841
19.20000 14.535
19.22000 6.819
19.24000 -1.121
19.26000 -0.636
19.28000 3.805
19.30000 11.000
19.32000 11.579
19.34000 9.768
19.36000 8.959
19.38000 7.533
19.40000 3.384
19.42000 4.122
19.44000 3.148
19.46000 1.361
19.48000 -1.782
19.50000 0.879
19.52000 2.908
19.54000 3.434
19.56000 6.984
19.58000 4.210
19.60000 -4.250
19.62000 -1.909
19.64000 3.401
19.66000 9.320
19.68000 8.292
19.70000 12.388
19.72000 11.550
19.74000 7.248
19.76000 5.510
19.78000 6.735
19.80000 7.501
19.82000 4.598
19.84000 5.430
19.86000 10.967
19.88000 10.073
19.90000 4.632
19.92000 6.843
19.94000 5.499
19.96000 4.127
19.98000 0.123
20.00000 -2.812
20.02000 4.767
20.04000 9.120
20.06000 9.893
20.08000 4.356
20.10000 -1.956
20.12000 -2.068
20.14000 0.954
20.16000 7.998
20.18000 0.785
20.20000 -0.850
20.22000 3.568
20.24000 -0.409
20.26000 0.952
20.28000 8.719
20.30000 5.770
20.32000 -0.201
20.34000 3.247
20.36000 6.695
20.38000 4.927
20.40000 4.259
20.42000 4.611
20.44000 1.008
20.46000 1.384
20.48000 2.369
20.50000 5.484
20.52000 4.162
20.54000 2.087
20.56000 9.645
20.58000 0.260
20.60000 -4.214
20.62000 3.978
20.64000 8.513
20.66000 13.301
20.68000 11.958
20.70000 5.496
20.72000 -0.364
20.74000 6.594
20.76000 11.509
20.78000 13.991
20.80000 4.066
20.82000 -3.346
20.84000 -4.198
20.86000 0.345
20.88000 2.311
20.90000 0.426
20.92000 4.750
20.94000 6.036
20.96000 1.453
20.98000 5.476
21.00000 4.789
21.02000 -1.301
21.04000 0.989
21.06000 2.390
21.08000 -2.002
21.10000 1.047
21.12000 7.158
21.14000 3.075
21.16000 2.863
21.18000 4.905
21.20000 7.060
21.22000 0.123
21.24000 -0.419
21.26000 2.202
21.28000 0.823
21.30000 2.976
21.32000 10.342
21.34000 10.141
21.36000 5.757
21.38000 -0.255
21.40000 -4.158
21.42000 2.826
21.44000 10.093
21.46000 10.852
21.48000 7.226
21.50000 1.084
21.52000 6.944
21.54000 7.831
21.56000 3.217
21.58000 -1.647
21.60000 -4.148
21.62000 2.134
21.64000 2.782
21.66000 2.976
21.68000 0.878
21.70000 3.520
21.72000 3.533
21.74000 1.080
21.76000 8.321
21.78000 5.868
21.80000 5.401
21.82000 1.749
21.84000 9.406
21.86000 6.984
21.88000 3.203
21.90000 5.102
21.92000 1.848
21.94000 4.625
21.96000 3.991
21.98000 6.692
22.00000 0.162
22.02000 -4.134
22.04000 -0.639
22.06000 2.052
22.08000 -2.933
22.10000 -1.224
22.12000 -1.949
22.14000 -0.291
22.16000 0.168
22.18000 3.139
22.20000 4.795
22.22000 4.167
22.24000 2.533
22.26000 2.512
22.28000 1.381
22.30000 0.572
22.32000 8.408
22.34000 15.142
22.36000 9.440
22.38000 -2.092
22.40000 -1.192
22.42000 4.991
22.44000 -3.663
22.46000 -3.177
22.48000 1.785
22.50000 3.871
22.52000 3.757
22.54000 5.873
22.56000 -1.304
22.58000 -0.809
22.60000 5.084
22.62000 5.318
22.64000 -0.188
22.66000 0.206
22.68000 0.879
22.70000 6.109
22.72000 4.673
22.74000 3.228
22.76000 3.277
22.78000 1.953
22.80000 0.031
22.82000 -0.771
22.84000 1.067
22.86000 7.473
22.88000 2.384
22.90000 -0.972
22.92000 6.419
22.94000 7.683
22.96000 6.418
22.98000 7.389
23.00000 3.621
23.02000 -0.550
23.04000 1.204
23.06000 0.189
23.08000 4.054
23.10000 2.158
23.12000 -1.352
23.14000 -3.494
23.16000 1.201
23.18000 7.428
23.20000 5.433
23.22000 5.625
23.24000 8.573
23.26000 5.636
23.28000 2.783
23.30000 1.773
23.32000 2.149
23.34000 0.820
23.36000 4.678
23.38000 2.178
23.40000 8.875
23.42000 11.281
23.44000 9.609
23.46000 6.540
23.48000 3.420
23.50000 2.915
23.52000 -4.031
23.54000 1.639
23.56000 9.088
23.58000 -0.914
23.60000 1.443
23.62000 8.751
23.64000 10.402
23.66000 1.971
23.68000 1.524
23.70000 4.558
23.72000 2.598
23.74000 5.242
23.76000 5.680
23.78000 7.081
23.80000 0.601
23.82000 3.377
23.84000 3.760
23.86000 3.117
23.88000 3.211
23.90000 2.895
23.92000 4.629
23.94000 3.423
23.96000 -1.255
23.98000 1.293
24.00000 2.929
24.02000 -0.723
24.04000 2.798
24.06000 4.636
24.08000 4.935
24.10000 -2.203
24.12000 -2.503
24.14000 1.359
24.16000 1.968
24.18000 -0.238
24.20000 3.940
24.22000 6.737
24.24000 6.779
24.26000 5.127
24.28000 5.041
24.30000 0.271
24.32000 6.394
24.34000 9.347
24.36000 3.684
24.38000 2.945
24.40000 -3.996
24.42000 -2.223
24.44000 1.927
24.46000 0.017
24.48000 3.509
24.50000 6.110
24.52000 4.083
24.54000 2.328
24.56000 3.053
24.58000 -0.575
24.60000 1.659
24.62000 -3.065
24.64000 -2.655
24.66000 4.071
24.68000 1.596
24.70000 -0.860
24.72000 0.430
24.74000 4.088
24.76000 7.658
24.78000 3.432
24.80000 1.154
24.82000 2.223
24.84000 2.442
24.86000 3.343
24.88000 2.886
24.90000 6.213
24.92000 5.627
24.94000 4.385
24.96000 6.614
24.98000 2.042
25.00000 -2.400
25.02000 -1.143
25.04000 -1.609
25.06000 -1.544
25.08000 -2.661
25.10000 1.060
25.12000 4.851
25.14000 2.924
25.16000 -1.166
25.18000 -0.395
25.20000 3.169
25.22000 3.793
25.24000 5.343
25.26000 6.841
25.28000 -1.417
25.30000 -0.825
25.32000 4.533
25.34000 8.772
25.36000 5.048
25.38000 3.516
25.40000 7.305
25.42000 3.207
25.44000 3.740
25.46000 9.323
25.48000 8.198
25.50000 3.363
25.52000 1.700
25.54000 4.474
25.56000 3.342
25.58000 1.882
25.60000 0.998
25.62000 2.631
25.64000 4.209
25.66000 4.221
25.68000 2.074
25.70000 2.199
25.72000 7.127
25.74000 7.065
25.76000 0.150
25.78000 -3.908
25.80000 -0.877
25.82000 -1.056
25.84000 -0.267
25.86000 9.113
25.88000 5.982
25.90000 4.757
25.92000 6.625
25.94000 5.993
25.96000 3.845
25.98000 3.651
26.00000 0.450
26.02000 0.543
26.04000 5.042
26.06000 4.131
26.08000 2.999
26.10000 4.213
26.12000 8.149
26.14000 6.583
26.16000 4.306
26.18000 4.494
26.20000 -0.861
26.22000 3.626
26.24000 5.042
26.26000 1.743
26.28000 4.002
26.30000 4.200
26.32000 0.346
26.34000 6.248
26.36000 3.368
26.38000 -0.631
26.40000 0.945
26.42000 0.431
26.44000 4.293
26.46000 4.487
26.48000 -1.316
26.50000 -3.877
26.52000 0.657
26.54000 -1.030
26.56000 3.495
26.58000 3.278
26.60000 3.361
26.62000 4.257
26.64000 -0.842
26.66000 5.454
26.68000 1.891
26.70000 2.863
26.72000 2.373
26.74000 6.068
26.76000 7.848
26.78000 3.589
26.80000 2.928
26.82000 6.666
26.84000 3.781
26.86000 1.733
26.88000 2.801
26.90000 6.096
26.92000 3.691
26.94000 0.309
26.96000 5.565
26.98000 1.741
27.00000 4.186
27.02000 2.180
27.04000 1.885
27.06000 -0.593
27.08000 7.390
27.10000 8.852
27.12000 9.140
27.14000 9.543
27.16000 6.246
27.18000 0.473
27.20000 2.357
27.22000 2.896
27.24000 1.633
27.26000 4.085
27.28000 4.747
27.30000 3.463
27.32000 4.846
27.34000 3.739
27.36000 -0.894
27.38000 1.142
27.40000 0.449
27.42000 2.188
27.44000 2.431
27.46000 1.512
27.48000 1.805
27.50000 3.278
27.52000 1.690
27.54000 7.212
27.56000 8.349
27.58000 3.769
27.60000 1.934
27.62000 5.966
27.64000 6.227
27.66000 8.661
27.68000 4.854
27.70000 6.931
27.72000 6.408
27.74000 2.561
27.76000 -0.557
27.78000 -3.414
27.80000 -3.800
27.82000 -2.593
27.84000 1.487
27.86000 2.651
27.88000 4.249
27.90000 1.527
27.92000 2.845
27.94000 3.197
27.96000 3.777
27.98000 4.009
28.00000 4.295
28.02000 4.746
28.04000 1.740
28.06000 4.525
28.08000 5.793
28.10000 3.569
28.12000 6.568
28.14000 9.911
28.16000 9.433
28.18000 9.984
28.20000 5.145
28.22000 3.945
28.24000 3.792
28.26000 4.315
28.28000 5.709
28.30000 3.339
28.32000 1.238
28.34000 4.879
28.36000 6.667
28.38000 1.934
28.40000 1.243
28.42000 0.281
28.44000 2.310
28.46000 4.652
28.48000 3.780
28.50000 2.128
28.52000 4.901
28.54000 5.227
28.56000 1.499
28.58000 -3.768
28.60000 0.635
28.62000 4.297
28.64000 4.969
28.66000 2.977
28.68000 6.330
28.70000 4.565
28.72000 0.718
28.74000 1.136
28.76000 3.992
28.78000 2.538
28.80000 0.293
28.82000 6.062
28.84000 10.530
28.86000 5.374
28.88000 -1.658
28.90000 -0.027
28.92000 0.047
28.94000 -0.330
28.96000 3.088
28.98000 3.079
29.00000 2.738
29.02000 5.034
29.04000 -0.633
29.06000 -3.341
29.08000 3.962
29.10000 -0.347
29.12000 -1.699
29.14000 1.785
29.16000 3.218
29.18000 7.391
29.20000 5.316
29.22000 7.249
29.24000 8.845
29.26000 4.898
29.28000 3.194
29.30000 0.950
29.32000 -3.733
29.34000 1.141
29.36000 5.743
29.38000 7.876
29.40000 2.841
29.42000 -2.601
29.44000 -0.915
29.46000 1.017
29.48000 -2.302
29.50000 1.667
29.52000 -3.029
29.54000 -2.161
29.56000 -3.198
29.58000 -1.481
29.60000 2.736
29.62000 4.216
29.64000 5.216
29.66000 3.470
29.68000 0.710
29.70000 -0.414
29.72000 1.111
29.74000 6.849
29.76000 4.790
29.78000 -1.437
29.80000 -2.362
29.82000 -2.385
29.84000 2.330
29.86000 -1.054
29.88000 4.527
29.90000 3.413
29.92000 -0.608
29.94000 -2.689
29.96000 3.159
29.98000 1.937
30.00000 3.265
30.02000 -0.477
30.04000 2.741
30.06000 5.833
30.08000 4.200
30.10000 4.913
30.12000 1.367
30.14000 1.970
30.16000 4.518
30.18000 6.596
30.20000 4.923
30.22000 4.927
30.24000 4.514
30.26000 3.348
30.28000 4.255
30.30000 4.404
30.32000 5.265
30.34000 2.469
30.36000 -1.608
30.38000 0.000
30.40000 0.174
30.42000 4.396
30.44000 4.078
30.46000 2.081
30.48000 -3.263
30.50000 -2.800
30.52000 -0.854
30.54000 3.506
30.56000 2.231
30.58000 2.460
30.60000 -1.474
30.62000 2.108
30.64000 3.041
30.66000 -3.024
30.68000 -3.685
30.70000 -0.830
30.72000 2.947
30.74000 2.064
30.76000 0.101
30.78000 -1.391
30.80000 -0.720
30.82000 -0.881
30.84000 -2.072
30.86000 -2.738
30.88000 -2.368
30.90000 -0.239
30.92000 -2.967
30.94000 4.449
30.96000 6.542
30.98000 1.790
31.00000 -1.072
31.02000 -3.668
31.04000 2.088
31.06000 10.377
31.08000 8.103
31.10000 2.296
31.12000 5.855
31.14000 1.111
31.16000 3.075
31.18000 0.318
31.20000 1.295
31.22000 1.290
31.24000 2.898
31.26000 3.841
31.28000 -1.596
31.30000 0.092
31.32000 0.140
31.34000 -2.500
31.36000 -3.659
31.38000 0.833
31.40000 4.610
31.42000 4.390
31.44000 -0.007
31.46000 -2.330
31.48000 0.837
31.50000 1.587
31.52000 2.327
31.54000 2.364
31.56000 2.331
31.58000 3.539
31.60000 0.781
31.62000 4.697
31.64000 8.811
31.66000 6.270
31.68000 7.930
31.70000 6.208
31.72000 2.810
31.74000 2.191
31.76000 1.203
31.78000 -1.141
31.80000 0.588
31.82000 0.463
31.84000 -3.387
31.86000 1.581
31.88000 3.913
31.90000 6.422
31.92000 10.016
31.94000 3.551
31.96000 -3.623
31.98000 -3.427
32.00000 -2.948
32.02000 1.937
32.04000 -1.298
32.06000 -3.504
32.08000 -2.920
32.10000 2.613
32.12000 6.688
32.14000 6.233
32.16000 4.279
32.18000 5.018
32.20000 3.098
32.22000 4.072
32.24000 5.004
32.26000 3.215
32.28000 -1.722
32.30000 -1.623
32.32000 0.576
32.34000 -2.756
32.36000 -1.534
32.38000 -2.247
32.40000 -3.611
32.42000 0.424
32.44000 3.179
32.46000 0.217
32.48000 0.835
32.50000 -2.452
32.52000 2.432
32.54000 7.736
32.56000 4.209
32.58000 0.002
32.60000 -2.994
32.62000 1.910
32.64000 0.788
32.66000 2.917
32.68000 2.622
32.70000 1.878
32.72000 2.263
32.74000 2.195
32.76000 -1.496
32.78000 -0.071
32.80000 2.284
32.82000 1.186
32.84000 -1.652
32.86000 -0.042
32.88000 -2.363
32.90000 0.064
32.92000 6.600
32.94000 7.206
32.96000 5.330
32.98000 3.732
33.00000 3.919
33.02000 4.484
33.04000 3.420
33.06000 0.088
33.08000 0.547
33.10000 -1.261
33.12000 -2.736
33.14000 2.415
33.16000 2.786
33.18000 5.811
33.20000 3.724
33.22000 0.719
33.24000 0.118
33.26000 5.141
33.28000 5.424
33.30000 3.019
33.32000 6.412
33.34000 0.918
33.36000 1.418
33.38000 -0.103
33.40000 -2.280
33.42000 2.709
33.44000 7.289
33.46000 5.418
33.48000 0.846
33.50000 0.046
33.52000 -0.369
33.54000 0.047
33.56000 2.929
33.58000 3.288
33.60000 7.585
33.62000 9.927
33.64000 3.583
33.66000 5.026
33.68000 11.030
33.70000 9.896
33.72000 3.122
33.74000 -3.372
33.76000 -3.568
33.78000 1.667
33.80000 8.910
33.82000 9.508
33.84000 6.195
33.86000 6.462
33.88000 12.254
33.90000 10.864
33.92000 6.779
33.94000 7.389
33.96000 7.039
33.98000 6.214
34.00000 1.999
34.02000 1.965
34.04000 6.956
34.06000 7.069
34.08000 9.974
34.10000 11.598
34.12000 9.953
34.14000 8.355
34.16000 7.507
34.18000 6.277
34.20000 4.189
34.22000 -0.037
34.24000 -3.548
34.26000 0.793
34.28000 3.310
34.30000 5.100
34.32000 4.726
34.34000 4.427
34.36000 3.702
34.38000 2.940
34.40000 8.389
34.42000 8.025
34.44000 5.548
34.46000 4.078
34.48000 0.010
34.50000 0.777
34.52000 2.915
34.54000 1.155
34.56000 1.852
34.58000 3.076
34.60000 4.545
34.62000 4.246
34.64000 1.624
34.66000 3.713
34.68000 4.646
34.70000 5.445
34.72000 4.896
34.74000 1.290
34.76000 5.544
34.78000 7.093
34.80000 2.301
34.82000 3.938
34.84000 5.352
34.86000 7.367
34.88000 8.320
34.90000 8.651
34.92000 4.237
34.94000 1.849
34.96000 3.250
34.98000 5.956
35.00000 5.998
35.02000 8.682
35.04000 3.391
35.06000 4.397
35.08000 3.318
35.10000 6.964
35.12000 4.929
35.14000 3.176
35.16000 5.475
35.18000 2.246
35.20000 3.460
35.22000 3.503
35.24000 2.710
35.26000 -1.166
35.28000 0.650
35.30000 -0.804
35.32000 1.291
35.34000 -0.119
35.36000 4.636
35.38000 6.696
35.40000 7.099
35.42000 3.518
35.44000 3.313
35.46000 -3.548
35.48000 -0.589
35.50000 1.030
35.52000 1.594
35.54000 3.761
35.56000 5.982
35.58000 4.023
35.60000 3.105
35.62000 2.202
35.64000 4.932
35.66000 6.396
35.68000 1.401
35.70000 5.312
35.72000 3.552
35.74000 -1.000
35.76000 -2.121
35.78000 0.147
35.80000 4.132
35.82000 5.656
35.84000 -1.266
35.86000 -2.398
35.88000 0.515
35.90000 3.764
35.92000 1.534
35.94000 1.083
35.96000 3.107
35.98000 10.463
36.00000 8.652
36.02000 9.041
36.04000 4.004
36.06000 4.665
36.08000 1.819
36.10000 7.300
36.12000 3.391
36.14000 -0.512
36.16000 -0.982
36.18000 5.149
36.20000 3.679
36.22000 2.359
36.24000 2.377
36.26000 4.253
36.28000 4.540
36.30000 1.602
36.32000 5.750
36.34000 4.654
36.36000 -0.931
36.38000 -3.604
36.40000 -2.416
36.42000 3.558
36.44000 3.997
36.46000 5.423
36.48000 6.421
36.50000 9.740
36.52000 7.258
36.54000 5.578
36.56000 0.160
36.58000 3.784
36.60000 8.945
36.62000 1.146
36.64000 0.707
36.66000 1.691
36.68000 2.304
36.70000 6.024
36.72000 4.199
36.74000 2.099
36.76000 3.858
36.78000 4.304
36.80000 1.688
36.82000 1.537
36.84000 2.465
36.86000 0.056
36.88000 2.831
36.90000 8.789
36.92000 5.290
36.94000 0.216
36.96000 1.702
36.98000 2.897
37.00000 7.729
37.02000 7.713
37.04000 9.374
37.06000 8.467
37.08000 8.003
37.10000 14.619
37.12000 5.886
37.14000 3.361
37.16000 -3.642
37.18000 3.083
37.20000 7.904
37.22000 5.677
37.24000 3.023
37.26000 4.708
37.28000 5.374
37.30000 6.075
37.32000 9.662
37.34000 9.341
37.36000 9.019
37.38000 5.220
37.40000 7.623
37.42000 9.316
37.44000 8.874
37.46000 13.096
37.48000 20.637
37.50000 16.604
37.52000 13.643
37.54000 14.151
37.56000 10.027
37.58000 10.114
37.60000 10.335
37.62000 10.998
37.64000 11.570
37.66000 11.314
37.68000 11.010
37.70000 12.297
37.72000 14.649
37.74000 17.605
37.76000 18.728
37.78000 21.591
37.80000 18.263
37.82000 13.278
37.84000 16.199
37.86000 22.696
37.88000 21.496
37.90000 21.699
37.92000 18.608
37.94000 17.804
37.96000 22.153
37.98000 17.651
38.00000 18.255
38.02000 22.281
38.04000 22.727
38.06000 21.728
38.08000 26.492
38.10000 27.402
38.12000 26.181
38.14000 25.608
38.16000 28.334
38.18000 29.004
38.20000 31.501
38.22000 35.275
38.24000 40.333
38.26000 39.293
38.28000 36.568
38.30000 35.755
38.32000 37.182
38.34000 38.819
38.36000 38.943
38.38000 38.244
38.40000 42.556
38.42000 39.683
38.44000 39.621
38.46000 40.228
38.48000 45.442
38.50000 50.683
38.52000 48.725
38.54000 55.025
38.56000 57.193
38.58000 62.152
38.60000 63.124
38.62000 61.920
38.64000 65.713
38.66000 72.024
38.68000 79.810
38.70000 76.956
38.72000 74.907
38.74000 76.781
38.76000 78.541
38.78000 83.394
38.80000 89.827
38.82000 94.668
38.84000 96.849
38.86000 93.976
38.88000 100.292
38.90000 107.042
38.92000 113.593
38.94000 109.558
38.96000 110.966
38.98000 119.412
39.00000 126.863
39.02000 132.727
39.04000 140.192
39.06000 143.234
39.08000 148.600
39.10000 154.305
39.12000 163.416
39.14000 176.425
39.16000 187.766
39.18000 197.831
39.20000 206.153
39.22000 211.179
39.24000 216.181
39.26000 230.926
39.28000 246.073
39.30000 256.019
39.32000 265.368
39.34000 275.614
39.36000 286.882
39.38000 302.198
39.40000 314.613
39.42000 328.279
39.44000 352.811
39.46000 372.816
39.48000 385.580
39.50000 403.657
39.52000 425.787
39.54000 454.999
39.56000 474.692
39.58000 488.103
39.60000 500.952
39.62000 521.472
39.64000 541.953
39.66000 573.556
39.68000 594.885
39.70000 627.519
39.72000 645.770
39.74000 665.928
39.76000 693.312
39.78000 707.768
39.80000 724.141
39.82000 737.075
39.84000 752.084
39.86000 783.887
39.88000 797.022
39.90000 810.711
39.92000 819.351
39.94000 816.948
39.96000 814.850
39.98000 827.763
40.00000 831.683
40.02000 817.054
40.04000 804.369
40.06000 808.732
40.08000 810.866
40.10000 810.005
40.12000 780.545
40.14000 760.828
40.16000 756.914
40.18000 731.010
40.20000 703.876
40.22000 688.197
40.24000 661.473
40.26000 634.959
40.28000 611.952
40.30000 592.460
40.32000 566.397
40.34000 531.916
40.36000 518.171
40.38000 488.617
40.40000 466.311
40.42000 432.729
40.44000 413.083
40.46000 393.338
40.48000 372.218
40.50000 345.889
40.52000 333.187
40.54000 314.712
40.56000 297.217
40.58000 274.471
40.60000 258.920
40.62000 250.430
40.64000 244.903
40.66000 224.129
40.68000 203.007
40.70000 191.216
40.72000 179.129
40.74000 171.745
40.76000 162.787
40.78000 147.573
40.80000 137.391
40.82000 131.913
40.84000 127.434
40.86000 118.729
40.88000 107.488
40.90000 97.604
40.92000 91.836
40.94000 90.578
40.96000 88.297
40.98000 89.199
41.00000 82.847
41.02000 77.617
41.04000 75.320
41.06000 69.005
41.08000 63.357
41.10000 59.802
41.12000 56.686
41.14000 54.907
41.16000 52.653
41.18000 46.651
41.20000 43.490
41.22000 43.255
41.24000 43.598
41.26000 38.949
41.28000 36.966
41.30000 32.586
41.32000 35.782
41.34000 34.163
41.36000 31.164
41.38000 28.404
41.40000 29.999
41.42000 30.763
41.44000 26.961
41.46000 25.384
41.48000 22.307
41.50000 23.998
41.52000 23.714
41.54000 23.372
41.56000 19.347
41.58000 17.128
41.60000 19.250
41.62000 16.315
41.64000 16.926
41.66000 19.570
41.68000 16.929
41.70000 11.125
41.72000 9.550
41.74000 11.063
41.76000 13.104
41.78000 11.327
41.80000 9.874
41.82000 13.702
41.84000 10.694
41.86000 6.199
41.88000 6.225
41.90000 9.431
41.92000 9.186
41.94000 7.703
41.96000 10.137
41.98000 5.982
42.00000 10.994
42.02000 13.203
42.04000 11.851
42.06000 9.744
42.08000 7.062
42.10000 11.126
42.12000 9.997
42.14000 8.105
42.16000 3.637
42.18000 2.668
42.20000 6.437
42.22000 3.017
42.24000 2.935
42.26000 2.646
42.28000 6.898
42.30000 12.518
42.32000 8.402
42.34000 6.899
42.36000 5.087
42.38000 6.277
42.40000 4.069
42.42000 4.433
42.44000 5.981
42.46000 8.480
42.48000 5.039
42.50000 5.094
42.52000 4.116
42.54000 4.860
42.56000 7.748
42.58000 7.724
42.60000 5.727
42.62000 7.412
42.64000 6.587
42.66000 1.003
42.68000 -3.550
42.70000 0.127
42.72000 6.176
42.74000 8.332
42.76000 9.002
42.78000 6.046
42.80000 0.080
42.82000 1.602
42.84000 2.618
42.86000 6.250
42.88000 7.414
42.90000 5.334
42.92000 4.304
42.94000 5.620
42.96000 6.297
42.98000 5.189
43.00000 2.030
43.02000 0.851
43.04000 -2.274
43.06000 2.938
43.08000 5.355
43.10000 0.528
43.12000 2.530
43.14000 4.650
43.16000 1.105
43.18000 -0.820
43.20000 1.045
43.22000 -0.300
43.24000 0.435
43.26000 6.941
43.28000 4.482
43.30000 4.469
43.32000 -3.540
43.34000 -0.320
43.36000 5.022
43.38000 6.254
43.40000 2.113
43.42000 5.058
43.44000 3.865
43.46000 -0.119
43.48000 3.585
43.50000 1.373
43.52000 2.373
43.54000 3.914
43.56000 0.301
43.58000 -1.235
43.60000 1.986
43.62000 1.420
43.64000 4.940
43.66000 3.928
43.68000 0.899
43.70000 2.558
43.72000 5.470
43.74000 3.793
43.76000 2.865
43.78000 -0.424
43.80000 0.746
43.82000 5.165
43.84000 0.513
43.86000 8.317
43.88000 5.947
43.90000 5.256
43.92000 7.294
43.94000 1.069
43.96000 -2.561
43.98000 -0.779
44.00000 -3.545
44.02000 -3.315
44.04000 0.230
44.06000 3.707
44.08000 3.937
44.10000 1.515
44.12000 -1.346
44.14000 -2.353
44.16000 -1.704
44.18000 2.712
44.20000 3.345
44.22000 1.596
44.24000 0.972
44.26000 -0.910
44.28000 1.795
44.30000 1.104
44.32000 0.346
44.34000 -0.412
44.36000 3.506
44.38000 -0.081
44.40000 1.662
44.42000 8.360
44.44000 5.718
44.46000 1.733
44.48000 1.775
44.50000 11.143
44.52000 9.781
44.54000 5.807
44.56000 5.124
44.58000 5.999
44.60000 1.677
44.62000 -3.564
44.64000 3.906
44.66000 4.856
44.68000 2.109
44.70000 4.195
44.72000 5.154
44.74000 1.248
44.76000 9.780
44.78000 12.201
44.80000 8.876
44.82000 2.680
44.84000 1.367
44.86000 0.033
44.88000 0.141
44.90000 5.337
44.92000 5.530
44.94000 10.977
44.96000 13.756
44.98000 15.773
45.00000 9.150
45.02000 6.170
45.04000 7.643
45.06000 9.145
45.08000 12.833
45.10000 13.620
45.12000 13.814
45.14000 13.924
45.16000 14.394
45.18000 12.457
45.20000 11.964
45.22000 19.340
45.24000 17.488
45.26000 13.696
45.28000 16.559
45.30000 16.863
45.32000 22.315
45.34000 18.229
45.36000 15.690
45.38000 15.782
45.40000 21.902
45.42000 26.147
45.44000 20.566
45.46000 18.727
45.48000 22.031
45.50000 25.966
45.52000 29.314
45.54000 29.398
45.56000 27.341
45.58000 24.192
45.60000 34.100
45.62000 33.413
45.64000 33.671
45.66000 31.823
45.68000 33.716
45.70000 31.895
45.72000 31.977
45.74000 36.871
45.76000 35.705
45.78000 35.401
45.80000 32.274
45.82000 35.546
45.84000 40.922
45.86000 37.568
45.88000 40.087
45.90000 40.206
45.92000 46.858
45.94000 47.060
45.96000 51.863
45.98000 56.848
46.00000 56.530
46.02000 46.397
46.04000 52.901
46.06000 57.274
46.08000 58.422
46.10000 59.531
46.12000 57.779
46.14000 61.535
46.16000 66.874
46.18000 65.824
46.20000 65.910
46.22000 73.064
46.24000 72.418
46.26000 69.598
46.28000 74.686
46.30000 72.969
46.32000 69.136
46.34000 79.974
46.36000 77.244
46.38000 75.018
46.40000 78.917
46.42000 80.887
46.44000 72.598
46.46000 71.413
46.48000 73.754
46.50000 72.082
46.52000 73.616
46.54000 79.882
46.56000 81.341
46.58000 77.934
46.60000 83.528
46.62000 85.206
46.64000 83.199
46.66000 75.600
46.68000 74.807
46.70000 76.630
46.72000 80.716
46.74000 77.258
46.76000 71.330
46.78000 72.315
46.80000 76.967
46.82000 69.778
46.84000 70.156
46.86000 70.538
46.88000 75.052
46.90000 68.324
46.92000 69.968
46.94000 63.599
46.96000 61.964
46.98000 61.635
47.00000 52.128
47.02000 53.684
47.04000 58.425
47.06000 61.593
47.08000 58.200
47.10000 51.549
47.12000 43.852
47.14000 40.838
47.16000 46.611
47.18000 39.728
47.20000 34.405
47.22000 39.178
47.24000 39.632
47.26000 43.251
47.28000 38.752
47.30000 35.129
47.32000 36.010
47.34000 36.361
47.36000 34.376
47.38000 31.693
47.40000 27.458
47.42000 23.608
47.44000 28.906
47.46000 31.229
47.48000 22.957
47.50000 21.066
47.52000 17.720
47.54000 21.445
47.56000 17.495
47.58000 17.568
47.60000 20.447
47.62000 19.705
47.64000 10.525
47.66000 8.850
47.68000 13.808
47.70000 11.021
47.72000 12.158
47.74000 7.599
47.76000 5.070
47.78000 11.746
47.80000 5.965
47.82000 6.613
47.84000 13.530
47.86000 4.526
47.88000 3.135
47.90000 6.773
47.92000 8.717
47.94000 9.765
47.96000 9.773
47.98000 2.801
48.00000 8.668
48.02000 9.469
48.04000 5.869
48.06000 3.761
48.08000 6.702
48.10000 6.354
48.12000 3.362
48.14000 -0.577
48.16000 -1.125
48.18000 1.482
48.20000 5.306
48.22000 9.084
48.24000 13.890
48.26000 4.189
48.28000 2.251
48.30000 4.946
48.32000 10.156
48.34000 6.390
48.36000 -1.952
48.38000 0.398
48.40000 1.704
48.42000 5.037
48.44000 4.546
48.46000 6.617
48.48000 4.094
48.50000 6.503
48.52000 1.200
48.54000 5.126
48.56000 4.444
48.58000 -0.066
48.60000 -1.044
48.62000 0.101
48.64000 7.199
48.66000 3.987
48.68000 4.794
48.70000 7.617
48.72000 4.741
48.74000 -0.958
48.76000 -3.202
48.78000 0.334
48.80000 5.110
48.82000 3.231
48.84000 1.298
48.86000 3.187
48.88000 4.893
48.90000 4.573
48.92000 3.648
48.94000 4.680
48.96000 4.867
48.98000 4.520
49.00000 1.293
49.02000 3.971
49.04000 5.260
49.06000 -1.322
49.08000 3.401
49.10000 2.906
49.12000 3.467
49.14000 7.129
49.16000 12.070
49.18000 11.344
49.20000 1.710
49.22000 1.147
49.24000 3.055
49.26000 -2.447
49.28000 0.745
49.30000 4.025
49.32000 4.050
49.34000 1.123
49.36000 2.999
49.38000 3.680
49.40000 2.753
49.42000 2.468
49.44000 2.663
49.46000 6.573
49.48000 7.526
49.50000 6.073
49.52000 1.374
49.54000 -3.097
49.56000 0.521
49.58000 1.825
49.60000 5.195
49.62000 4.879
49.64000 8.116
49.66000 1.926
49.68000 1.139
49.70000 -0.500
49.72000 1.213
49.74000 2.299
49.76000 8.767
49.78000 5.146
49.80000 5.405
49.82000 2.517
49.84000 3.700
49.86000 5.957
49.88000 5.650
49.90000 6.207
49.92000 7.545
49.94000 3.555
49.96000 -0.091
49.98000 4.069
50.00000 5.545
50.02000 1.644
50.04000 1.708
50.06000 5.206
50.08000 0.783
50.10000 -1.461
50.12000 6.166
50.14000 9.914
50.16000 7.150
50.18000 6.475
50.20000 11.936
50.22000 5.038
50.24000 -0.221
50.26000 1.528
50.28000 2.097
50.30000 1.848
50.32000 4.493
50.34000 2.722
50.36000 3.687
50.38000 6.233
50.40000 0.635
50.42000 -0.096
50.44000 1.617
50.46000 4.691
50.48000 6.085
50.50000 3.082
50.52000 7.002
50.54000 9.538
50.56000 7.410
50.58000 3.596
50.60000 -0.256
50.62000 0.312
50.64000 -0.141
50.66000 4.053
50.68000 6.136
50.70000 2.152
50.72000 2.271
50.74000 3.825
50.76000 3.648
50.78000 3.088
50.80000 0.332
50.82000 8.595
50.84000 6.160
50.86000 11.073
50.88000 6.661
50.90000 10.069
50.92000 6.233
50.94000 5.370
50.96000 6.767
50.98000 9.111
51.00000 9.171
51.02000 7.224
51.04000 1.827
51.06000 -2.990
51.08000 2.862
51.10000 5.568
51.12000 8.450
51.14000 4.840
51.16000 3.731
51.18000 6.038
51.20000 7.248
51.22000 6.391
51.24000 8.327
51.26000 12.019
51.28000 8.503
51.30000 7.768
51.32000 7.413
51.34000 8.636
51.36000 7.394
51.38000 4.494
51.40000 5.615
51.42000 7.754
51.44000 9.629
51.46000 8.746
51.48000 7.148
51.50000 3.736
51.52000 2.412
51.54000 8.483
51.56000 12.010
51.58000 6.804
51.60000 5.413
51.62000 4.227
51.64000 12.490
51.66000 8.815
51.68000 9.659
51.70000 17.017
51.72000 12.171
51.74000 5.260
51.76000 6.763
51.78000 4.514
51.80000 6.878
51.82000 3.697
51.84000 4.259
51.86000 4.252
51.88000 7.736
51.90000 2.260
51.92000 1.373
51.94000 4.861
51.96000 5.899
51.98000 1.656
52.00000 -1.066
52.02000 2.509
52.04000 3.758
52.06000 8.103
52.08000 3.803
52.10000 4.524
52.12000 3.378
52.14000 -0.692
52.16000 -0.471
52.18000 1.412
52.20000 6.751
52.22000 2.226
52.24000 5.362
52.26000 3.792
52.28000 2.583
52.30000 7.658
52.32000 7.283
52.34000 -2.997
52.36000 1.626
52.38000 6.353
52.40000 5.442
52.42000 2.934
52.44000 2.859
52.46000 1.146
52.48000 4.365
52.50000 2.226
52.52000 2.593
52.54000 3.346
52.56000 6.585
52.58000 8.036
52.60000 9.403
52.62000 8.785
52.64000 5.728
52.66000 8.059
52.68000 4.242
52.70000 3.360
52.72000 2.077
52.74000 -2.823
52.76000 1.941
52.78000 1.483
52.80000 3.577
52.82000 0.827
52.84000 -1.954
52.86000 -0.002
52.88000 1.156
52.90000 2.756
52.92000 5.586
52.94000 4.356
52.96000 2.711
52.98000 3.883
53.00000 2.752
53.02000 4.719
53.04000 2.499
53.06000 5.313
53.08000 5.820
53.10000 4.019
53.12000 5.595
53.14000 4.015
53.16000 -0.804
53.18000 2.647
53.20000 2.965
53.22000 4.023
53.24000 4.160
53.26000 3.555
53.28000 9.356
53.30000 2.408
53.32000 -1.343
53.34000 5.403
53.36000 5.972
53.38000 -0.460
53.40000 -2.929
53.42000 2.639
53.44000 1.529
53.46000 3.240
53.48000 3.467
53.50000 5.726
53.52000 2.238
53.54000 2.737
53.56000 6.222
53.58000 8.513
53.60000 5.908
53.62000 8.918
53.64000 11.303
53.66000 7.288
53.68000 4.360
53.70000 5.214
53.72000 6.653
53.74000 1.299
53.76000 9.498
53.78000 11.312
53.80000 10.308
53.82000 7.360
53.84000 9.709
53.86000 6.521
53.88000 9.752
53.90000 9.790
53.92000 5.828
53.94000 2.952
53.96000 5.530
53.98000 8.636
54.00000 9.685
54.02000 8.685
54.04000 2.395
54.06000 0.316
54.08000 0.643
54.10000 5.030
54.12000 10.299
54.14000 7.927
54.16000 5.296
54.18000 1.041
54.20000 0.082
54.22000 5.045
54.24000 6.238
54.26000 2.305
54.28000 3.152
54.30000 1.243
54.32000 3.785
54.34000 4.581
54.36000 3.746
54.38000 8.610
54.40000 0.505
54.42000 0.179
54.44000 2.336
54.46000 1.349
54.48000 1.516
54.50000 4.094
54.52000 -0.029
54.54000 -0.500
54.56000 2.905
54.58000 2.223
54.60000 7.239
54.62000 5.561
54.64000 3.281
54.66000 -0.407
54.68000 5.250
54.70000 6.318
54.72000 -1.936
54.74000 -2.911
54.76000 -2.039
54.78000 7.286
54.80000 5.295
54.82000 -1.843
54.84000 -0.984
54.86000 1.123
54.88000 4.992
54.90000 6.402
54.92000 6.371
54.94000 3.738
54.96000 3.757
54.98000 2.747
55.00000 5.596
55.02000 2.314
55.04000 0.014
55.06000 2.773
55.08000 4.659
55.10000 4.594
55.12000 3.365
55.14000 3.014
55.16000 -0.318
55.18000 -1.466
55.20000 1.018
55.22000 7.437
55.24000 6.446
55.26000 6.773
55.28000 5.611
55.30000 2.368
55.32000 1.441
55.34000 5.238
55.36000 6.007
55.38000 2.627
55.40000 1.723
55.42000 -0.205
55.44000 5.424
55.46000 6.981
55.48000 5.895
55.50000 8.627
55.52000 4.793
55.54000 1.287
55.56000 2.812
55.58000 5.101
55.60000 7.254
55.62000 3.279
55.64000 1.763
55.66000 2.919
55.68000 0.949
55.70000 3.341
55.72000 7.335
55.74000 11.451
55.76000 -2.190
55.78000 -0.536
55.80000 -2.897
55.82000 -2.874
55.84000 4.459
55.86000 5.290
55.88000 2.645
55.90000 2.203
55.92000 -0.179
55.94000 3.244
55.96000 -0.720
55.98000 1.296
56.00000 -0.370
56.02000 0.553
56.04000 6.805
56.06000 4.441
56.08000 -0.147
56.10000 -1.867
56.12000 -1.225
56.14000 5.066
56.16000 3.954
56.18000 1.564
56.20000 1.578
56.22000 -1.879
56.24000 7.371
56.26000 9.121
56.28000 3.502
56.30000 8.739
56.32000 8.531
56.34000 6.186
56.36000 1.658
56.38000 -2.869
56.40000 -1.212
56.42000 2.254
56.44000 6.160
56.46000 2.299
56.48000 0.045
56.50000 3.966
56.52000 3.583
56.54000 -2.213
56.56000 3.661
56.58000 9.544
56.60000 4.842
56.62000 5.392
56.64000 -0.509
56.66000 -1.383
56.68000 1.083
56.70000 2.092
56.72000 5.341
56.74000 5.317
56.76000 8.010
56.78000 5.200
56.80000 0.167
56.82000 2.850
56.84000 0.801
56.86000 4.096
56.88000 3.477
56.90000 3.428
56.92000 -0.573
56.94000 3.024
56.96000 4.465
56.98000 3.744
57.00000 2.559
57.02000 1.605
57.04000 -2.624
57.06000 1.596
57.08000 -1.747
57.10000 -1.484
57.12000 0.402
57.14000 5.870
57.16000 3.994
57.18000 -0.762
57.20000 -1.382
57.22000 2.402
57.24000 3.052
57.26000 2.708
57.28000 2.275
57.30000 0.138
57.32000 5.014
57.34000 8.482
57.36000 8.632
57.38000 4.750
57.40000 3.024
57.42000 0.541
57.44000 -1.217
57.46000 0.823
57.48000 2.393
57.50000 4.176
57.52000 4.948
57.54000 2.200
57.56000 5.247
57.58000 5.347
57.60000 4.497
57.62000 3.906
57.64000 8.843
57.66000 5.862
57.68000 2.021
57.70000 2.194
57.72000 3.585
57.74000 6.884
57.76000 0.207
57.78000 -1.807
57.80000 3.176
57.82000 1.927
57.84000 -2.839
57.86000 2.185
57.88000 2.883
57.90000 4.090
57.92000 4.700
57.94000 5.970
57.96000 -1.169
57.98000 0.117
58.00000 5.107
58.02000 4.736
58.04000 7.971
58.06000 0.594
58.08000 2.455
58.10000 3.962
58.12000 1.138
58.14000 1.800
58.16000 2.896
58.18000 -1.268
58.20000 2.547
58.22000 1.239
58.24000 3.548
58.26000 2.018
58.28000 2.648
58.30000 5.103
58.32000 2.530
58.34000 2.376
58.36000 5.252
58.38000 1.392
58.40000 -0.119
58.42000 -0.085
58.44000 -1.185
58.46000 -1.628
58.48000 -0.452
58.50000 -2.820
58.52000 -0.761
58.54000 9.387
58.56000 7.192
58.58000 10.567
58.60000 1.021
58.62000 -1.846
58.64000 0.321
58.66000 -0.464
58.68000 0.860
58.70000 0.350
58.72000 -2.470
58.74000 1.896
58.76000 8.309
58.78000 7.715
58.80000 -0.140
58.82000 -0.039
58.84000 2.467
58.86000 -0.910
58.88000 -2.808
58.90000 1.114
58.92000 -0.932
58.94000 3.527
58.96000 3.020
58.98000 2.297
59.00000 3.358
59.02000 2.017
59.04000 4.399
59.06000 4.149
59.08000 4.139
59.10000 6.902
59.12000 4.738
59.14000 3.521
59.16000 2.940
59.18000 2.641
59.20000 0.944
59.22000 -1.203
59.24000 -0.162
59.26000 2.582
59.28000 5.299
59.30000 0.067
59.32000 0.536
59.34000 -0.722
59.36000 1.061
59.38000 5.151
59.40000 3.886
59.42000 3.261
59.44000 3.483
59.46000 -0.309
59.48000 -2.270
59.50000 -2.196
59.52000 4.917
59.54000 -1.088
59.56000 1.867
59.58000 1.670
59.60000 5.612
59.62000 6.062
59.64000 3.868
59.66000 2.209
59.68000 0.818
59.70000 2.367
59.72000 0.929
59.74000 2.659
59.76000 7.970
59.78000 6.377
59.80000 0.186
59.82000 0.224
59.84000 4.126
59.86000 0.786
59.88000 0.051
59.90000 1.511
59.92000 3.568
59.94000 0.278
59.96000 0.472
59.98000 3.459
60.00000 5.635
60.02000 3.202
60.04000 5.907
60.06000 8.107
60.08000 5.287
60.10000 -1.056
60.12000 0.607
60.14000 3.189
60.16000 1.324
60.18000 1.585
60.20000 6.258
60.22000 9.733
60.24000 4.775
60.26000 1.265
60.28000 -2.728
60.30000 1.416
60.32000 2.351
60.34000 4.181
60.36000 5.002
60.38000 2.218
60.40000 6.441
60.42000 3.244
60.44000 4.796
60.46000 4.311
60.48000 3.404
60.50000 6.466
60.52000 4.410
60.54000 3.974
60.56000 0.522
60.58000 6.112
60.60000 4.465
60.62000 1.615
60.64000 4.096
60.66000 2.225
60.68000 3.671
60.70000 1.950
60.72000 2.744
60.74000 2.328
60.76000 0.298
60.78000 3.744
60.80000 3.636
60.82000 6.431
60.84000 5.869
60.86000 3.616
60.88000 4.136
60.90000 4.265
60.92000 5.135
60.94000 4.855
60.96000 6.846
60.98000 7.785
61.00000 3.642
61.02000 2.830
61.04000 6.495
61.06000 7.325
61.08000 5.415
61.10000 7.095
61.12000 6.021
61.14000 7.336
61.16000 4.251
61.18000 -2.690
61.20000 5.976
61.22000 4.871
61.24000 -1.575
61.26000 -1.924
61.28000 3.792
61.30000 2.469
61.32000 2.336
61.34000 1.470
61.36000 6.225
61.38000 9.830
61.40000 5.229
61.42000 6.760
61.44000 4.942
61.46000 1.858
61.48000 2.664
61.50000 7.986
61.52000 5.078
61.54000 6.823
61.56000 6.934
61.58000 0.468
61.60000 6.227
61.62000 5.762
61.64000 6.423
61.66000 4.724
61.68000 1.102
61.70000 -0.197
61.72000 2.906
61.74000 1.355
61.76000 -0.115
61.78000 -1.177
61.80000 -2.675
61.82000 -0.598
61.84000 -0.809
61.86000 3.057
61.88000 5.160
61.90000 5.881
61.92000 6.422
61.94000 4.701
61.96000 1.075
61.98000 2.715
62.00000 4.857
62.02000 4.978
62.04000 4.524
62.06000 3.160
62.08000 6.250
62.10000 5.220
62.12000 5.618
62.14000 4.288
62.16000 2.696
62.18000 -1.230
62.20000 5.347
62.22000 8.504
62.24000 0.531
62.26000 3.353
62.28000 4.238
62.30000 2.958
62.32000 -0.138
62.34000 3.077
62.36000 0.654
62.38000 -1.108
62.40000 -0.375
62.42000 2.596
62.44000 3.582
62.46000 -1.034
62.48000 -0.542
62.50000 0.483
62.52000 -0.703
62.54000 -1.007
62.56000 2.801
62.58000 0.594
62.60000 -1.644
62.62000 -1.107
62.64000 2.619
62.66000 0.752
62.68000 2.045
62.70000 5.204
62.72000 3.420
62.74000 2.535
62.76000 2.301
62.78000 4.320
62.80000 2.880
62.82000 -2.681
62.84000 -0.236
62.86000 1.738
62.88000 0.366
62.90000 4.833
62.92000 3.154
62.94000 2.799
62.96000 3.236
62.98000 -0.373
63.00000 2.493
63.02000 2.550
63.04000 3.574
63.06000 0.355
63.08000 -0.352
63.10000 0.430
63.12000 -1.801
63.14000 -1.042
63.16000 2.067
63.18000 6.217
63.20000 4.461
63.22000 4.743
63.24000 6.078
63.26000 7.656
63.28000 7.962
63.30000 6.947
63.32000 2.902
63.34000 3.586
63.36000 4.245
63.38000 3.352
63.40000 7.217
63.42000 9.393
63.44000 7.194
63.46000 3.773
63.48000 2.843
63.50000 3.909
63.52000 3.633
63.54000 -1.114
63.56000 1.315
63.58000 2.555
63.60000 -0.584
63.62000 -2.669
63.64000 3.943
63.66000 7.603
63.68000 4.772
63.70000 8.488
63.72000 5.276
63.74000 4.452
63.76000 4.837
63.78000 6.064
63.80000 5.745
63.82000 4.052
63.84000 1.054
63.86000 0.202
63.88000 0.705
63.90000 6.304
63.92000 2.921
63.94000 5.539
63.96000 3.351
63.98000 0.447
64.00000 3.399
64.02000 0.786
64.04000 -0.159
64.06000 3.625
64.08000 5.056
64.10000 3.113
64.12000 2.463
64.14000 3.996
64.16000 2.275
64.18000 0.035
64.20000 -0.627
64.22000 1.151
64.24000 4.995
64.26000 2.753
64.28000 0.811
64.30000 -0.851
64.32000 -1.672
64.34000 1.993
64.36000 8.539
64.38000 5.183
64.40000 7.159
64.42000 3.233
64.44000 3.779
64.46000 5.638
64.48000 1.696
64.50000 -0.590
64.52000 4.100
64.54000 5.125
64.56000 1.620
64.58000 1.538
64.60000 1.099
64.62000 -2.689
64.64000 -1.153
64.66000 1.334
64.68000 2.686
64.70000 3.989
64.72000 3.504
64.74000 4.005
64.76000 2.409
64.78000 3.451
64.80000 3.991
64.82000 0.854
64.84000 2.270
64.86000 1.918
64.88000 1.383
64.90000 5.322
64.92000 3.975
64.94000 3.760
64.96000 -1.091
64.98000 0.114
65.00000 1.378
65.02000 -1.945
65.04000 -2.711
65.06000 0.479
65.08000 1.108
65.10000 3.381
65.12000 2.666
65.14000 2.255
65.16000 4.980
65.18000 3.860
65.20000 3.116
65.22000 0.489
65.24000 0.368
65.26000 0.539
65.28000 3.089
65.30000 1.961
65.32000 2.134
65.34000 1.428
65.36000 3.561
65.38000 2.558
65.40000 1.053
65.42000 1.543
65.44000 5.890
65.46000 6.715
65.48000 5.492
65.50000 3.387
65.52000 3.844
65.54000 5.107
65.56000 1.526
65.58000 -1.209
65.60000 -2.749
65.62000 0.435
65.64000 1.411
65.66000 1.388
65.68000 8.599
65.70000 7.865
65.72000 6.428
65.74000 5.149
65.76000 5.365
65.78000 3.308
65.80000 0.618
65.82000 -0.077
65.84000 5.132
65.86000 7.721
65.88000 4.899
65.90000 3.403
65.92000 0.135
65.94000 -0.340
65.96000 -0.517
65.98000 2.407
66.00000 4.306
66.02000 3.696
66.04000 2.523
66.06000 4.016
66.08000 2.939
66.10000 4.269
66.12000 3.873
66.14000 0.147
66.16000 -2.773
66.18000 4.133
66.20000 5.702
66.22000 4.531
66.24000 3.529
66.26000 5.356
66.28000 3.493
66.30000 3.308
66.32000 9.014
66.34000 6.270
66.36000 1.237
66.38000 0.563
66.40000 2.245
66.42000 4.649
66.44000 6.755
66.46000 3.374
66.48000 2.899
66.50000 1.258
66.52000 4.610
66.54000 5.746
66.56000 4.686
66.58000 3.703
66.60000 1.598
66.62000 9.064
66.64000 10.314
66.66000 2.406
66.68000 6.384
66.70000 7.490
66.72000 3.178
66.74000 3.121
66.76000 7.056
66.78000 8.668
66.80000 7.944
66.82000 7.834
66.84000 11.335
66.86000 8.377
66.88000 6.893
66.90000 10.021
66.92000 9.256
66.94000 9.607
66.96000 13.574
66.98000 10.475
67.00000 8.537
67.02000 10.429
67.04000 14.560
67.06000 12.603
67.08000 15.059
67.10000 14.521
67.12000 9.916
67.14000 13.601
67.16000 14.407
67.18000 13.257
67.20000 15.014
67.22000 16.350
67.24000 11.472
67.26000 12.884
67.28000 12.810
67.30000 13.673
67.32000 13.358
67.34000 12.378
67.36000 9.237
67.38000 11.932
67.40000 11.703
67.42000 9.007
67.44000 12.541
67.46000 13.486
67.48000 13.601
67.50000 15.881
67.52000 15.284
67.54000 18.115
67.56000 19.673
67.58000 21.218
67.60000 18.441
67.62000 17.283
67.64000 20.423
67.66000 20.387
67.68000 18.720
67.70000 19.255
67.72000 19.048
67.74000 14.672
67.76000 16.393
67.78000 19.800
67.80000 19.421
67.82000 18.701
67.84000 18.540
67.86000 23.017
67.88000 22.604
67.90000 18.841
67.92000 21.549
67.94000 25.621
67.96000 22.125
67.98000 17.290
68.00000 21.171
68.02000 20.846
68.04000 17.119
68.06000 21.324
68.08000 19.026
68.10000 20.631
68.12000 20.542
68.14000 21.884
68.16000 21.728
68.18000 16.433
68.20000 14.148
68.22000 15.795
68.24000 15.854
68.26000 15.450
68.28000 16.363
68.30000 15.284
68.32000 16.440
68.34000 14.888
68.36000 15.019
68.38000 16.811
68.40000 15.081
68.42000 10.568
68.44000 9.010
68.46000 8.869
68.48000 13.209
68.50000 11.189
68.52000 10.825
68.54000 11.618
68.56000 11.738
68.58000 8.684
68.60000 3.986
68.62000 6.367
68.64000 14.795
68.66000 11.872
68.68000 7.289
68.70000 7.933
68.72000 8.510
68.74000 6.771
68.76000 5.505
68.78000 1.920
68.80000 6.671
68.82000 8.130
68.84000 3.595
68.86000 4.481
68.88000 3.566
68.90000 7.379
68.92000 4.984
68.94000 -0.500
68.96000 1.957
68.98000 5.965
69.00000 7.386
69.02000 4.864
69.04000 3.542
69.06000 -0.052
69.08000 3.873
69.10000 2.467
69.12000 2.096
69.14000 -1.011
69.16000 -2.733
69.18000 -0.825
69.20000 1.959
69.22000 2.731
69.24000 1.182
69.26000 -0.319
69.28000 -0.669
69.30000 0.031
69.32000 -2.251
69.34000 1.231
69.36000 0.186
69.38000 2.870
69.40000 3.736
69.42000 -0.556
69.44000 1.377
69.46000 -1.704
69.48000 -0.816
69.50000 2.970
69.52000 1.888
69.54000 4.430
69.56000 3.100
69.58000 5.340
69.60000 2.839
69.62000 3.396
69.64000 2.159
69.66000 5.021
69.68000 0.045
69.70000 -1.569
69.72000 1.279
69.74000 2.711
69.76000 3.600
69.78000 4.491
69.80000 -0.058
69.82000 1.435
69.84000 5.476
69.86000 4.774
69.88000 3.338
69.90000 0.255
69.92000 -2.618
69.94000 -0.033
69.96000 0.848
69.98000 0.885
70.00000 1.033
70.02000 -0.931
70.04000 -1.617
70.06000 4.158
70.08000 4.136
70.10000 7.589
70.12000 4.840
70.14000 3.842
70.16000 4.382
70.18000 5.998
70.20000 4.786
70.22000 3.556
70.24000 4.357
70.26000 0.775
70.28000 0.753
70.30000 0.746
70.32000 5.799
70.34000 2.301
70.36000 -0.482
70.38000 -0.018
70.40000 3.735
70.42000 -0.250
70.44000 -2.615
70.46000 -1.497
70.48000 3.296
70.50000 5.042
70.52000 -0.006
70.54000 -0.470
70.56000 3.217
70.58000 -0.217
70.60000 2.618
70.62000 7.749
70.64000 6.280
70.66000 0.774
70.68000 0.892
70.70000 1.016
70.72000 0.066
70.74000 -0.057
70.76000 3.127
70.78000 8.536
70.80000 6.422
70.82000 2.502
70.84000 1.618
70.86000 3.730
70.88000 3.624
70.90000 4.584
70.92000 6.920
70.94000 7.949
70.96000 2.462
70.98000 -0.413
71.00000 -2.592
71.02000 -0.147
71.04000 -0.886
71.06000 -1.658
71.08000 -1.902
71.10000 3.795
71.12000 0.158
71.14000 0.497
71.16000 -0.658
71.18000 -1.558
71.20000 4.741
71.22000 0.216
71.24000 5.146
71.26000 3.107
71.28000 1.905
71.30000 2.796
71.32000 6.312
71.34000 2.149
71.36000 -0.810
71.38000 -2.573
71.40000 0.577
71.42000 1.550
71.44000 5.158
71.46000 2.468
71.48000 1.652
71.50000 0.035
71.52000 1.003
71.54000 -0.929
71.56000 1.589
71.58000 2.080
71.60000 1.024
71.62000 1.723
71.64000 -0.945
71.66000 -0.677
71.68000 -1.702
71.70000 -0.005
71.72000 2.443
71.74000 -1.341
71.76000 1.061
71.78000 2.960
71.80000 5.112
71.82000 5.517
71.84000 5.081
71.86000 3.110
71.88000 0.427
71.90000 5.126
71.92000 6.429
71.94000 1.932
71.96000 2.369
71.98000 3.049
72.00000 -0.170
72.02000 5.133
72.04000 4.066
72.06000 2.221
72.08000 4.094
72.10000 3.626
72.12000 3.069
72.14000 0.753
72.16000 5.212
72.18000 2.933
72.20000 3.417
72.22000 2.135
72.24000 -0.505
72.26000 -1.907
72.28000 -2.194
72.30000 0.132
72.32000 4.926
72.34000 3.622
72.36000 -2.211
72.38000 0.431
72.40000 -1.058
72.42000 -1.668
72.44000 -1.566
72.46000 1.748
72.48000 4.545
72.50000 1.522
72.52000 -0.744
72.54000 -1.789
72.56000 6.174
72.58000 5.694
72.60000 -2.520
72.62000 -0.447
72.64000 -0.948
72.66000 0.959
72.68000 3.500
72.70000 3.643
72.72000 2.809
72.74000 6.217
72.76000 4.495
72.78000 3.355
72.80000 -2.487
72.82000 -1.299
72.84000 1.293
72.86000 1.153
72.88000 0.828
72.90000 0.476
72.92000 -0.273
72.94000 -0.429
72.96000 1.348
72.98000 5.376
73.00000 5.540
73.02000 2.379
73.04000 6.475
73.06000 7.800
73.08000 7.763
73.10000 7.380
73.12000 3.040
73.14000 -0.264
73.16000 6.578
73.18000 8.477
73.20000 6.393
73.22000 2.449
73.24000 -2.490
73.26000 -0.813
73.28000 1.450
73.30000 0.736
73.32000 4.032
73.34000 3.144
73.36000 1.679
73.38000 5.641
73.40000 7.103
73.42000 1.667
73.44000 2.815
73.46000 3.527
73.48000 3.013
73.50000 5.942
73.52000 5.363
73.54000 3.909
73.56000 -2.470
73.58000 4.053
73.60000 5.661
73.62000 7.075
73.64000 1.747
73.66000 -0.033
73.68000 4.941
73.70000 3.218
73.72000 6.562
73.74000 10.449
73.76000 9.201
73.78000 4.105
73.80000 1.800
73.82000 0.201
73.84000 2.373
73.86000 2.923
73.88000 2.929
73.90000 4.139
73.92000 5.042
73.94000 3.696
73.96000 9.737
73.98000 7.022
74.00000 7.262
74.02000 4.524
74.04000 6.662
74.06000 7.194
74.08000 6.049
74.10000 4.325
74.12000 2.487
74.14000 2.796
74.16000 4.797
74.18000 0.805
74.20000 4.281
74.22000 0.475
74.24000 -2.480
74.26000 0.620
74.28000 2.136
74.30000 3.404
74.32000 4.824
74.34000 2.461
74.36000 3.164
74.38000 0.157
74.40000 -1.292
74.42000 0.483
74.44000 1.568
74.46000 2.548
74.48000 3.034
74.50000 -0.625
74.52000 -0.635
74.54000 1.086
74.56000 7.111
74.58000 8.013
74.60000 5.661
74.62000 3.257
74.64000 2.506
74.66000 5.306
74.68000 4.160
74.70000 5.870
74.72000 3.941
74.74000 0.711
74.76000 1.721
74.78000 -0.856
74.80000 -0.335
74.82000 3.199
74.84000 4.221
74.86000 5.203
74.88000 5.262
74.90000 6.512
74.92000 6.571
74.94000 2.965
74.96000 4.065
74.98000 3.604
75.00000 0.638
75.02000 2.341
75.04000 4.449
75.06000 2.860
75.08000 -2.469
75.10000 3.075
75.12000 4.111
75.14000 4.431
75.16000 7.587
75.18000 9.464
75.20000 3.852
75.22000 4.371
75.24000 7.419
75.26000 9.038
75.28000 9.373
75.30000 5.253
75.32000 4.520
75.34000 0.742
75.36000 4.349
75.38000 8.616
75.40000 3.319
75.42000 2.817
75.44000 4.345
75.46000 4.239
75.48000 6.705
75.50000 6.585
75.52000 6.543
75.54000 4.775
75.56000 10.258
75.58000 1.380
75.60000 1.759
75.62000 7.166
75.64000 6.372
75.66000 4.198
75.68000 -2.448
75.70000 1.016
75.72000 8.168
75.74000 4.281
75.76000 6.307
75.78000 7.511
75.80000 7.282
75.82000 5.320
75.84000 2.849
75.86000 2.233
75.88000 7.662
75.90000 8.961
75.92000 5.294
75.94000 4.804
75.96000 4.158
75.98000 7.311
76.00000 7.012
76.02000 8.611
76.04000 2.170
76.06000 3.153
76.08000 6.451
76.10000 5.664
76.12000 9.561
76.14000 6.083
76.16000 7.578
76.18000 6.504
76.20000 8.071
76.22000 7.493
76.24000 6.321
76.26000 4.953
76.28000 2.975
76.30000 3.099
76.32000 7.442
76.34000 9.868
76.36000 10.338
76.38000 4.467
76.40000 1.840
76.42000 4.511
76.44000 4.347
76.46000 2.245
76.48000 8.798
76.50000 9.335
76.52000 10.159
76.54000 5.237
76.56000 0.421
76.58000 8.943
76.60000 10.122
76.62000 2.610
76.64000 3.087
76.66000 9.823
76.68000 4.719
76.70000 -2.462
76.72000 -0.584
76.74000 1.884
76.76000 3.580
76.78000 4.702
76.80000 5.273
76.82000 5.023
76.84000 6.130
76.86000 5.199
76.88000 9.211
76.90000 5.219
76.92000 5.120
76.94000 7.320
76.96000 5.189
76.98000 6.936
77.00000 7.501
77.02000 2.971
77.04000 4.334
77.06000 3.321
77.08000 2.592
77.10000 5.748
77.12000 4.105
77.14000 4.164
77.16000 4.407
77.18000 4.407
77.20000 3.805
77.22000 7.574
77.24000 2.659
77.26000 3.178
77.28000 4.052
77.30000 1.589
77.32000 0.699
77.34000 -2.183
77.36000 1.703
77.38000 3.585
77.40000 6.276
77.42000 6.427
77.44000 6.846
77.46000 4.200
77.48000 2.346
77.50000 2.324
77.52000 3.247
77.54000 5.613
77.56000 5.444
77.58000 7.797
77.60000 5.608
77.62000 4.958
77.64000 8.399
77.66000 7.677
77.68000 6.567
77.70000 2.480
77.72000 4.419
77.74000 1.033
77.76000 -0.922
77.78000 4.278
77.80000 5.172
77.82000 1.978
77.84000 4.363
77.86000 3.211
77.88000 3.667
77.90000 -1.108
77.92000 -2.525
77.94000 -0.105
77.96000 4.622
77.98000 6.255
78.00000 3.319
78.02000 4.828
78.04000 5.696
78.06000 2.228
78.08000 6.700
78.10000 4.920
78.12000 5.160
78.14000 3.699
78.16000 5.498
78.18000 2.290
78.20000 6.868
78.22000 5.376
78.24000 8.877
78.26000 6.410
78.28000 0.622
78.30000 1.685
78.32000 3.459
78.34000 -0.867
78.36000 0.779
78.38000 5.687
78.40000 7.406
78.42000 -0.029
78.44000 3.823
78.46000 6.253
78.48000 1.639
78.50000 -2.010
78.52000 2.507
78.54000 -0.930
78.56000 -2.569
78.58000 3.793
78.60000 5.096
78.62000 5.482
78.64000 6.958
78.66000 3.273
78.68000 1.828
78.70000 2.071
78.72000 -1.960
78.74000 1.641
78.76000 2.001
78.78000 -1.971
78.80000 5.406
78.82000 2.994
78.84000 4.066
78.86000 5.203
78.88000 4.736
78.90000 3.242
78.92000 1.746
78.94000 -2.614
78.96000 4.515
78.98000 7.801
79.00000 1.479
79.02000 -1.908
79.04000 1.321
79.06000 -0.242
79.08000 2.530
79.10000 2.354
79.12000 1.239
79.14000 1.847
79.16000 3.254
79.18000 0.261
79.20000 -0.133
79.22000 0.328
79.24000 1.766
79.26000 4.971
79.28000 2.822
79.30000 -2.402
79.32000 3.068
79.34000 2.034
79.36000 -2.299
79.38000 -2.420
79.40000 -0.293
79.42000 1.604
79.44000 3.933
79.46000 5.751
79.48000 -0.601
79.50000 2.964
79.52000 7.473
79.54000 2.335
79.56000 -1.214
79.58000 -2.465
79.60000 -0.876
79.62000 -2.674
79.64000 -0.707
79.66000 -2.118
79.68000 1.743
79.70000 -2.680
79.72000 -0.912
79.74000 2.549
79.76000 1.608
79.78000 2.840
79.80000 0.918
79.82000 -0.145
79.84000 0.141
79.86000 4.075
79.88000 3.049
79.90000 -1.211
79.92000 2.216
79.94000 5.462
79.96000 -2.717
79.98000 2.691
80.00000 0.606
80.02000 6.854
80.04000 6.740
80.06000 5.825
80.08000 4.180
80.10000 1.717
80.12000 4.206
80.14000 2.990
80.16000 4.274
80.18000 10.916
80.20000 8.592
80.22000 4.311
80.24000 9.459
80.26000 5.288
80.28000 1.847
80.30000 3.471
80.32000 9.875
80.34000 9.505
80.36000 8.143
80.38000 6.950
80.40000 -0.799
80.42000 1.408
80.44000 1.511
80.46000 1.375
80.48000 -0.078
80.50000 -0.556
80.52000 2.991
80.54000 2.759
80.56000 5.828
80.58000 4.617
80.60000 4.854
80.62000 3.257
80.64000 0.901
80.66000 4.190
80.68000 5.109
80.70000 5.467
80.72000 2.972
80.74000 4.775
80.76000 8.116
80.78000 8.760
80.80000 4.959
80.82000 9.661
80.84000 7.982
80.86000 6.212
80.88000 7.227
80.90000 8.698
80.92000 4.912
80.94000 4.310
80.96000 8.773
80.98000 12.355
81.00000 6.512
81.02000 6.683
81.04000 9.982
81.06000 6.245
81.08000 7.480
81.10000 8.634
81.12000 10.997
81.14000 8.898
81.16000 9.495
81.18000 9.185
81.20000 8.648
81.22000 6.423
81.24000 11.717
81.26000 22.496
81.28000 20.292
81.30000 14.399
81.32000 15.803
81.34000 17.917
81.36000 17.421
81.38000 12.420
81.40000 14.982
81.42000 13.363
81.44000 15.744
81.46000 18.665
81.48000 16.418
81.50000 15.772
81.52000 21.913
81.54000 23.961
81.56000 18.208
81.58000 18.748
81.60000 19.694
81.62000 21.519
81.64000 22.157
81.66000 20.761
81.68000 23.180
81.70000 22.104
81.72000 20.613
81.74000 25.324
81.76000 27.224
81.78000 33.361
81.80000 23.565
81.82000 21.084
81.84000 18.240
81.86000 23.678
81.88000 32.471
81.90000 27.068
81.92000 25.562
81.94000 24.807
81.96000 23.326
81.98000 18.026
82.00000 15.007
82.02000 15.044
82.04000 22.507
82.06000 25.878
82.08000 26.223
82.10000 27.606
82.12000 24.358
82.14000 21.754
82.16000 21.572
82.18000 20.855
82.20000 16.399
82.22000 18.017
82.24000 15.516
82.26000 15.074
82.28000 18.507
82.30000 19.228
82.32000 19.247
82.34000 13.129
82.36000 15.359
82.38000 18.919
82.40000 18.109
82.42000 18.305
82.44000 19.006
82.46000 19.638
82.48000 8.868
82.50000 15.252
82.52000 17.155
82.54000 12.604
82.56000 12.738
82.58000 20.259
82.60000 16.049
82.62000 13.123
82.64000 14.045
82.66000 13.031
82.68000 12.859
82.70000 15.323
82.72000 17.881
82.74000 14.830
82.76000 12.998
82.78000 13.524
82.80000 14.710
82.82000 10.313
82.84000 13.590
82.86000 12.563
82.88000 12.409
82.90000 10.767
82.92000 7.536
82.94000 4.285
82.96000 3.481
82.98000 5.610
83.00000 6.755
83.02000 3.529
83.04000 3.566
83.06000 15.772
83.08000 14.590
83.10000 11.468
83.12000 5.430
83.14000 4.043
83.16000 4.625
83.18000 6.736
83.20000 1.175
83.22000 -0.046
83.24000 -1.996
83.26000 5.525
83.28000 6.283
83.30000 3.601
83.32000 3.903
83.34000 7.376
83.36000 8.229
83.38000 7.598
83.40000 1.942
83.42000 -2.357
83.44000 -0.988
83.46000 3.785
83.48000 8.520
83.50000 4.974
83.52000 5.360
83.54000 1.205
83.56000 1.569
83.58000 -0.484
83.60000 -0.348
83.62000 4.027
83.64000 0.306
83.66000 -2.756
83.68000 1.121
83.70000 2.005
83.72000 0.177
83.74000 3.599
83.76000 7.197
83.78000 8.187
83.80000 5.941
83.82000 1.247
83.84000 3.318
83.86000 5.907
83.88000 6.366
83.90000 6.942
83.92000 1.644
83.94000 -1.960
83.96000 2.556
83.98000 7.982
84.00000 2.496
84.02000 3.427
84.04000 5.591
84.06000 2.912
84.08000 0.228
84.10000 -1.146
84.12000 1.397
84.14000 4.793
84.16000 2.325
84.18000 2.134
84.20000 5.050
84.22000 11.197
84.24000 6.845
84.26000 3.951
84.28000 1.278
84.30000 -2.679
84.32000 5.923
84.34000 5.623
84.36000 3.282
84.38000 9.387
84.40000 9.229
84.42000 9.474
84.44000 9.065
84.46000 4.941
84.48000 4.388
84.50000 4.948
84.52000 4.863
84.54000 7.173
84.56000 3.678
84.58000 6.348
84.60000 2.447
84.62000 0.132
84.64000 3.868
84.66000 4.676
84.68000 4.497
84.70000 2.333
84.72000 5.587
84.74000 12.565
84.76000 14.222
84.78000 9.957
84.80000 7.980
84.82000 8.820
84.84000 4.919
84.86000 5.256
84.88000 5.863
84.90000 5.041
84.92000 9.363
84.94000 6.493
84.96000 9.697
84.98000 6.615
85.00000 5.284
85.02000 2.377
85.04000 6.228
85.06000 7.064
85.08000 13.189
85.10000 16.136
85.12000 12.212
85.14000 11.921
85.16000 13.222
85.18000 13.167
85.20000 8.031
85.22000 10.171
85.24000 14.942
85.26000 12.964
85.28000 14.086
85.30000 18.054
85.32000 19.911
85.34000 23.164
85.36000 21.344
85.38000 25.653
85.40000 29.349
85.42000 25.199
85.44000 17.567
85.46000 22.142
85.48000 27.231
85.50000 29.637
85.52000 29.187
85.54000 27.261
85.56000 20.992
85.58000 30.286
85.60000 22.997
85.62000 21.427
85.64000 32.247
85.66000 40.860
85.68000 41.044
85.70000 38.451
85.72000 43.508
85.74000 40.618
85.76000 37.699
85.78000 39.378
85.80000 40.578
85.82000 40.862
85.84000 38.057
85.86000 41.929
85.88000 45.840
85.90000 45.852
85.92000 46.601
85.94000 44.861
85.96000 44.058
85.98000 48.185
86.00000 50.005
86.02000 49.985
86.04000 47.061
86.06000 45.285
86.08000 48.147
86.10000 48.157
86.12000 52.046
86.14000 48.640
86.16000 45.764
86.18000 47.414
86.20000 48.655
86.22000 49.634
86.24000 50.751
86.26000 57.231
86.28000 47.116
86.30000 41.730
86.32000 43.504
86.34000 44.249
86.36000 41.700
86.38000 38.269
86.40000 41.053
86.42000 43.287
86.44000 45.708
86.46000 45.318
86.48000 40.216
86.50000 36.912
86.52000 41.535
86.54000 43.722
86.56000 37.926
86.58000 38.623
86.60000 34.864
86.62000 32.191
86.64000 34.882
86.66000 33.991
86.68000 31.708
86.70000 27.485
86.72000 31.219
86.74000 28.423
86.76000 29.249
86.78000 32.445
86.80000 32.762
86.82000 27.514
86.84000 29.844
86.86000 25.815
86.88000 26.569
86.90000 24.985
86.92000 24.604
86.94000 24.861
86.96000 13.906
86.98000 13.535
87.00000 18.156
87.02000 22.895
87.04000 23.683
87.06000 16.637
87.08000 15.084
87.10000 11.779
87.12000 14.735
87.14000 13.456
87.16000 10.424
87.18000 11.482
87.20000 12.087
87.22000 8.374
87.24000 9.122
87.26000 10.021
87.28000 9.378
87.30000 7.816
87.32000 7.355
87.34000 5.453
87.36000 9.205
87.38000 7.524
87.40000 12.141
87.42000 6.260
87.44000 5.168
87.46000 3.635
87.48000 7.341
87.50000 0.723
87.52000 5.872
87.54000 5.432
87.56000 7.051
87.58000 3.754
87.60000 3.404
87.62000 3.724
87.64000 2.010
87.66000 7.828
87.68000 8.635
87.70000 7.082
87.72000 6.997
87.74000 7.145
87.76000 3.841
87.78000 2.570
87.80000 5.882
87.82000 4.715
87.84000 6.528
87.86000 6.942
87.88000 2.335
87.90000 -0.479
87.92000 -1.182
87.94000 -2.503
87.96000 -1.697
87.98000 3.208
88.00000 4.253
88.02000 8.174
88.04000 7.071
88.06000 1.512
88.08000 -0.643
88.10000 2.024
88.12000 3.335
88.14000 -0.770
88.16000 -2.463
88.18000 -2.153
88.20000 2.921
88.22000 2.341
88.24000 3.905
88.26000 -0.734
88.28000 -0.228
88.30000 3.139
88.32000 1.168
88.34000 -2.442
88.36000 2.316
88.38000 2.713
88.40000 3.481
88.42000 4.465
88.44000 3.007
88.46000 0.952
88.48000 0.992
88.50000 5.448
88.52000 2.798
88.54000 1.205
88.56000 0.690
88.58000 -0.298
88.60000 4.681
88.62000 2.997
88.64000 5.630
88.66000 4.281
88.68000 1.164
88.70000 -0.127
88.72000 -1.624
88.74000 -0.821
88.76000 2.021
88.78000 2.254
88.80000 2.343
88.82000 -2.398
88.84000 -0.475
88.86000 1.506
88.88000 1.457
88.90000 -2.393
88.92000 2.132
88.94000 2.336
88.96000 0.428
88.98000 0.615
89.00000 3.906
89.02000 6.441
89.04000 5.498
89.06000 7.398
89.08000 0.297
89.10000 0.166
89.12000 4.545
89.14000 0.014
89.16000 0.723
89.18000 4.603
89.20000 1.001
89.22000 0.179
89.24000 2.143
89.26000 5.380
89.28000 2.861
89.30000 3.074
89.32000 1.268
89.34000 7.591
89.36000 6.040
89.38000 4.793
89.40000 2.008
89.42000 1.462
89.44000 1.620
89.46000 0.424
89.48000 6.581
89.50000 7.329
89.52000 2.140
89.54000 2.307
89.56000 2.728
89.58000 6.111
89.60000 3.979
89.62000 1.036
89.64000 7.899
89.66000 2.975
89.68000 -0.094
89.70000 -0.258
89.72000 -1.687
89.74000 3.945
89.76000 3.789
89.78000 3.062
89.80000 -1.026
89.82000 0.304
89.84000 3.745
89.86000 2.429
89.88000 3.380
89.90000 6.009
89.92000 2.874
89.94000 -1.014
89.96000 -0.473
89.98000 6.403
90.00000 10.288
90.02000 8.511
90.04000 6.635
90.06000 3.193
90.08000 1.207
90.10000 8.228
90.12000 7.661
90.14000 -2.170
90.16000 -0.582
90.18000 -0.048
90.20000 0.660
90.22000 2.986
90.24000 4.404
90.26000 2.400
90.28000 2.960
90.30000 7.395
90.32000 8.627
90.34000 3.161
90.36000 3.302
90.38000 8.919
90.40000 5.855
90.42000 5.968
90.44000 5.532
90.46000 7.462
90.48000 11.257
90.50000 7.301
90.52000 3.293
90.54000 7.079
90.56000 3.135
90.58000 -2.295
90.60000 2.163
90.62000 4.766
90.64000 9.525
90.66000 6.454
90.68000 6.532
90.70000 10.838
90.72000 10.439
90.74000 7.381
90.76000 6.958
90.78000 7.251
90.80000 6.948
90.82000 0.555
90.84000 2.803
90.86000 7.877
90.88000 3.115
90.90000 2.620
90.92000 2.372
90.94000 5.064
90.96000 5.374
90.98000 1.932
91.00000 2.242
91.02000 1.668
91.04000 4.594
91.06000 8.727
91.08000 4.223
91.10000 3.968
91.12000 4.308
91.14000 7.711
91.16000 4.354
91.18000 2.298
91.20000 4.650
91.22000 -0.478
91.24000 4.540
91.26000 7.423
91.28000 5.129
91.30000 5.268
91.32000 4.629
91.34000 3.967
91.36000 5.859
91.38000 6.483
91.40000 3.110
91.42000 2.017
91.44000 3.048
91.46000 2.120
91.48000 1.982
91.50000 9.050
91.52000 9.123
91.54000 8.352
91.56000 2.869
91.58000 1.384
91.60000 3.256
91.62000 1.645
91.64000 1.984
91.66000 5.639
91.68000 4.828
91.70000 5.137
91.72000 10.121
91.74000 9.672
91.76000 3.960
91.78000 4.505
91.80000 6.057
91.82000 9.281
91.84000 11.149
91.86000 8.346
91.88000 3.421
91.90000 0.629
91.92000 2.899
91.94000 9.519
91.96000 7.254
91.98000 8.547
92.00000 3.934
92.02000 0.247
92.04000 8.136
92.06000 17.410
92.08000 9.821
92.10000 1.924
92.12000 7.521
92.14000 8.190
92.16000 8.920
92.18000 9.377
92.20000 13.084
92.22000 9.183
92.24000 9.309
92.26000 8.491
92.28000 1.970
92.30000 -2.309
92.32000 -1.137
92.34000 2.442
92.36000 9.052
92.38000 14.262
92.40000 12.076
92.42000 8.017
92.44000 3.820
92.46000 4.470
92.48000 5.764
92.50000 5.957
92.52000 8.728
92.54000 7.997
92.56000 9.379
92.58000 8.107
92.60000 10.862
92.62000 11.203
92.64000 4.237
92.66000 4.753
92.68000 9.494
92.70000 5.527
92.72000 9.685
92.74000 7.582
92.76000 5.658
92.78000 3.900
92.80000 9.546
92.82000 13.436
92.84000 9.899
92.86000 7.905
92.88000 5.702
92.90000 5.877
92.92000 4.845
92.94000 6.799
92.96000 6.728
92.98000 4.241
93.00000 7.900
93.02000 12.349
93.04000 9.507
93.06000 3.934
93.08000 7.325
93.10000 8.623
93.12000 3.321
93.14000 4.608
93.16000 0.431
93.18000 2.083
93.20000 1.075
93.22000 2.673
93.24000 10.419
93.26000 11.601
93.28000 8.336
93.30000 9.166
93.32000 5.945
93.34000 4.094
93.36000 8.326
93.38000 9.071
93.40000 12.732
93.42000 1.543
93.44000 10.748
93.46000 13.099
93.48000 5.660
93.50000 2.699
93.52000 0.073
93.54000 -2.327
93.56000 -0.622
93.58000 1.264
93.60000 8.340
93.62000 7.700
93.64000 11.477
93.66000 7.585
93.68000 1.273
93.70000 -0.353
93.72000 6.605
93.74000 1.647
93.76000 -0.472
93.78000 2.270
93.80000 8.412
93.82000 8.003
93.84000 1.834
93.86000 7.363
93.88000 1.633
93.90000 6.011
93.92000 10.458
93.94000 13.037
93.96000 11.172
93.98000 6.585
94.00000 4.014
94.02000 0.270
94.04000 0.769
94.06000 0.266
94.08000 10.148
94.10000 7.155
94.12000 3.727
94.14000 9.997
94.16000 10.075
94.18000 -0.596
94.20000 2.500
94.22000 4.500
94.24000 7.869
94.26000 4.793
94.28000 0.881
94.30000 2.067
94.32000 1.558
94.34000 4.839
94.36000 5.604
94.38000 1.680
94.40000 -1.111
94.42000 3.690
94.44000 8.014
94.46000 6.905
94.48000 2.195
94.50000 0.755
94.52000 -2.380
94.54000 4.056
94.56000 8.936
94.58000 6.941
94.60000 -0.384
94.62000 -2.381
94.64000 2.695
94.66000 5.011
94.68000 1.447
94.70000 -0.129
94.72000 2.632
94.74000 3.065
94.76000 4.837
94.78000 4.292
94.80000 0.628
94.82000 3.596
94.84000 7.508
94.86000 5.420
94.88000 3.645
94.90000 -1.800
94.92000 1.279
94.94000 -2.393
94.96000 4.705
94.98000 10.778
95.00000 9.978
95.02000 8.116
95.04000 7.245
95.06000 3.887
95.08000 1.899
95.10000 2.223
95.12000 5.348
95.14000 5.940
95.16000 9.912
95.18000 2.905
95.20000 3.593
95.22000 6.430
95.24000 2.563
95.26000 0.385
95.28000 3.224
95.30000 6.320
95.32000 5.052
95.34000 7.848
95.36000 3.080
95.38000 3.757
95.40000 5.844
95.42000 4.163
95.44000 5.835
95.46000 4.852
95.48000 4.614
95.50000 3.009
95.52000 8.342
95.54000 6.573
95.56000 4.852
95.58000 3.461
95.60000 2.935
95.62000 1.881
95.64000 -0.428
95.66000 5.344
95.68000 3.108
95.70000 6.782
95.72000 8.363
95.74000 4.551
95.76000 -1.164
95.78000 -0.627
95.80000 8.113
95.82000 10.006
95.84000 5.906
95.86000 2.766
95.88000 6.207
95.90000 3.863
95.92000 1.140
95.94000 -0.456
95.96000 1.605
95.98000 1.636
96.00000 3.883
96.02000 2.107
96.04000 2.464
96.06000 7.510
96.08000 6.249
96.10000 8.216
96.12000 6.429
96.14000 8.493
96.16000 9.100
96.18000 11.098
96.20000 2.557
96.22000 3.369
96.24000 3.096
96.26000 -1.519
96.28000 -2.373
96.30000 1.356
96.32000 5.375
96.34000 7.657
96.36000 6.107
96.38000 4.154
96.40000 8.484
96.42000 11.279
96.44000 3.334
96.46000 4.466
96.48000 9.234
96.50000 0.834
96.52000 4.558
96.54000 5.146
96.56000 4.874
96.58000 5.794
96.60000 10.459
96.62000 9.017
96.64000 5.041
96.66000 7.433
96.68000 4.940
96.70000 6.437
96.72000 7.320
96.74000 8.687
96.76000 9.617
96.78000 11.735
96.80000 3.713
96.82000 2.123
96.84000 5.259
96.86000 2.270
96.88000 1.616
96.90000 9.869
96.92000 10.443
96.94000 5.209
96.96000 9.765
96.98000 7.933
97.00000 5.175
97.02000 7.262
97.04000 7.263
97.06000 7.999
97.08000 0.938
97.10000 0.299
97.12000 2.782
97.14000 3.655
97.16000 1.612
97.18000 -1.530
97.20000 0.726
97.22000 5.471
97.24000 9.671
97.26000 1.953
97.28000 4.535
97.30000 4.415
97.32000 1.795
97.34000 3.974
97.36000 5.615
97.38000 3.777
97.40000 7.182
97.42000 1.220
97.44000 1.387
97.46000 -0.390
97.48000 0.634
97.50000 5.450
97.52000 8.709
97.54000 7.392
97.56000 9.657
97.58000 9.093
97.60000 9.081
97.62000 6.782
97.64000 -0.674
97.66000 -1.145
97.68000 -2.314
97.70000 6.800
97.72000 10.536
97.74000 5.007
97.76000 3.714
97.78000 3.633
97.80000 5.976
97.82000 12.638
97.84000 12.758
97.86000 13.438
97.88000 19.801
97.90000 13.167
97.92000 7.673
97.94000 2.523
97.96000 -2.448
97.98000 9.106
98.00000 16.267
98.02000 13.244
98.04000 12.656
98.06000 13.433
98.08000 2.270
98.10000 1.620
98.12000 8.673
98.14000 5.421
98.16000 10.657
98.18000 4.210
98.20000 -2.286
98.22000 1.808
98.24000 6.399
98.26000 -1.573
98.28000 5.606
98.30000 9.629
98.32000 21.092
98.34000 17.773
98.36000 7.962
98.38000 8.275
98.40000 4.447
98.42000 4.170
98.44000 9.483
98.46000 15.514
98.48000 5.494
98.50000 7.750
98.52000 2.340
98.54000 4.819
98.56000 4.529
98.58000 -2.278
98.60000 -1.073
98.62000 1.633
98.64000 11.132
98.66000 7.433
98.68000 5.135
98.70000 8.808
98.72000 12.311
98.74000 9.576
98.76000 3.757
98.78000 3.094
98.80000 7.752
98.82000 4.305
98.84000 8.883
98.86000 8.399
98.88000 8.567
98.90000 8.545
98.92000 9.321
98.94000 11.366
98.96000 5.308
98.98000 -1.018
99.00000 6.303
99.02000 10.826
99.04000 11.433
99.06000 12.917
99.08000 5.932
99.10000 4.168
99.12000 11.686
99.14000 22.743
99.16000 8.903
99.18000 5.715
99.20000 7.399
99.22000 6.586
99.24000 9.767
99.26000 5.116
99.28000 0.325
99.30000 8.543
99.32000 9.009
99.34000 2.539
99.36000 11.589
99.38000 10.905
99.40000 9.773
99.42000 8.573
99.44000 7.126
99.46000 14.161
99.48000 10.897
99.50000 -2.137
99.52000 -2.286
99.54000 5.097
99.56000 1.122
99.58000 -0.399
99.60000 2.357
99.62000 -0.611
99.64000 16.805
99.66000 13.450
99.68000 15.217
99.70000 15.115
99.72000 10.101
99.74000 10.914
99.76000 4.328
99.78000 8.302
99.80000 5.600
99.82000 6.543
99.84000 -0.185
99.86000 8.624
99.88000 10.303
99.90000 -4.907
99.92000 -0.197
99.94000 3.833
99.96000 11.333
99.98000 0.000
