'Id: "0011387" Comment: "Integrate frame 0011387_Au-Ir-Rh_Rh-rich_XRD-Mapping-012-0000.gfrmwith cursor Wedge Cursor #5" Operator: "B?rgel" Anode: "Cu" Wavelength: "1.5406" Scantype: "2Theta (TwoTheta)" TimePerStep: "1" X: "-22.5" Y: "-36" Z: "5.95" 
10.00000 0.000
10.02000 -4.861
10.04000 8.514
10.06000 -9.191
10.08000 12.155
10.10000 19.905
10.12000 6.913
10.14000 20.764
10.16000 10.694
10.18000 -6.860
10.20000 12.644
10.22000 19.901
10.24000 32.749
10.26000 50.198
10.28000 32.237
10.30000 14.168
10.32000 20.563
10.34000 21.750
10.36000 19.878
10.38000 9.124
10.40000 20.725
10.42000 12.830
10.44000 15.566
10.46000 32.599
10.48000 36.426
10.50000 14.201
10.52000 15.368
10.54000 18.130
10.56000 27.197
10.58000 5.341
10.60000 -2.389
10.62000 6.663
10.64000 12.585
10.66000 5.476
10.68000 14.990
10.70000 18.606
10.72000 15.631
10.74000 22.272
10.76000 28.541
10.78000 16.480
10.80000 28.170
10.82000 16.201
10.84000 -4.794
10.86000 -2.792
10.88000 -0.127
10.90000 7.025
10.92000 10.718
10.94000 17.222
10.96000 12.777
10.98000 -1.651
11.00000 2.997
11.02000 12.727
11.04000 13.119
11.06000 -0.388
11.08000 13.874
11.10000 12.006
11.12000 21.564
11.14000 13.414
11.16000 17.343
11.18000 17.039
11.20000 15.303
11.22000 7.296
11.24000 11.943
11.26000 18.714
11.28000 29.232
11.30000 7.260
11.32000 12.133
11.34000 1.228
11.36000 -2.097
11.38000 10.193
11.40000 23.715
11.42000 40.027
11.44000 28.105
11.46000 6.871
11.48000 -4.645
11.50000 4.019
11.52000 1.416
11.54000 20.811
11.56000 21.369
11.58000 15.585
11.60000 23.122
11.62000 30.098
11.64000 17.140
11.66000 10.982
11.68000 0.191
11.70000 -0.576
11.72000 4.354
11.74000 2.556
11.76000 0.926
11.78000 1.406
11.80000 11.074
11.82000 23.965
11.84000 19.470
11.86000 16.123
11.88000 23.694
11.90000 27.915
11.92000 21.599
11.94000 28.225
11.96000 15.566
11.98000 7.070
12.00000 4.392
12.02000 9.872
12.04000 17.938
12.06000 21.133
12.08000 20.240
12.10000 5.925
12.12000 0.628
12.14000 3.922
12.16000 16.807
12.18000 26.824
12.20000 19.442
12.22000 6.942
12.24000 13.375
12.26000 1.717
12.28000 3.546
12.30000 7.110
12.32000 16.067
12.34000 3.644
12.36000 2.396
12.38000 12.350
12.40000 20.788
12.42000 14.879
12.44000 21.444
12.46000 16.959
12.48000 11.915
12.50000 4.053
12.52000 -4.743
12.54000 6.799
12.56000 12.962
12.58000 24.625
12.60000 25.996
12.62000 18.772
12.64000 22.931
12.66000 27.072
12.68000 25.199
12.70000 19.139
12.72000 25.874
12.74000 28.140
12.76000 32.086
12.78000 20.219
12.80000 4.660
12.82000 1.580
12.84000 4.103
12.86000 21.797
12.88000 23.212
12.90000 16.096
12.92000 12.674
12.94000 12.026
12.96000 15.266
12.98000 21.651
13.00000 20.775
13.02000 22.600
13.04000 19.405
13.06000 23.819
13.08000 16.235
13.10000 4.575
13.12000 11.146
13.14000 10.590
13.16000 4.594
13.18000 11.527
13.20000 14.792
13.22000 10.101
13.24000 27.094
13.26000 17.989
13.28000 8.839
13.30000 4.443
13.32000 4.865
13.34000 1.962
13.36000 1.681
13.38000 3.111
13.40000 5.114
13.42000 0.230
13.44000 1.521
13.46000 1.899
13.48000 15.739
13.50000 22.261
13.52000 12.030
13.54000 9.415
13.56000 17.478
13.58000 10.660
13.60000 0.616
13.62000 3.284
13.64000 -2.566
13.66000 -4.362
13.68000 -1.960
13.70000 -1.142
13.72000 4.488
13.74000 8.697
13.76000 7.219
13.78000 4.405
13.80000 3.544
13.82000 16.522
13.84000 13.974
13.86000 7.646
13.88000 14.206
13.90000 9.457
13.92000 5.771
13.94000 0.382
13.96000 3.313
13.98000 8.765
14.00000 -1.487
14.02000 5.240
14.04000 16.205
14.06000 14.840
14.08000 9.200
14.10000 -0.921
14.12000 2.122
14.14000 7.825
14.16000 12.111
14.18000 2.212
14.20000 9.272
14.22000 3.616
14.24000 2.094
14.26000 1.940
14.28000 -1.182
14.30000 3.394
14.32000 5.486
14.34000 4.650
14.36000 5.491
14.38000 15.739
14.40000 13.830
14.42000 3.330
14.44000 0.230
14.46000 5.297
14.48000 7.776
14.50000 15.568
14.52000 17.932
14.54000 19.071
14.56000 14.134
14.58000 5.849
14.60000 3.293
14.62000 9.290
14.64000 9.965
14.66000 12.107
14.68000 -0.314
14.70000 8.443
14.72000 10.080
14.74000 7.220
14.76000 13.077
14.78000 24.019
14.80000 16.364
14.82000 0.972
14.84000 -1.782
14.86000 1.583
14.88000 4.752
14.90000 9.649
14.92000 4.360
14.94000 -4.721
14.96000 0.713
14.98000 3.946
15.00000 8.515
15.02000 -1.003
15.04000 5.986
15.06000 15.614
15.08000 16.029
15.10000 5.261
15.12000 9.742
15.14000 11.454
15.16000 11.227
15.18000 13.392
15.20000 17.096
15.22000 9.559
15.24000 7.636
15.26000 5.412
15.28000 8.708
15.30000 4.522
15.32000 8.272
15.34000 12.253
15.36000 2.340
15.38000 3.533
15.40000 4.051
15.42000 1.853
15.44000 5.497
15.46000 3.975
15.48000 1.969
15.50000 5.338
15.52000 4.596
15.54000 -4.708
15.56000 -4.348
15.58000 2.745
15.60000 6.760
15.62000 4.176
15.64000 8.037
15.66000 11.173
15.68000 -0.506
15.70000 -3.201
15.72000 -1.378
15.74000 9.251
15.76000 10.400
15.78000 5.814
15.80000 5.795
15.82000 7.214
15.84000 8.379
15.86000 3.401
15.88000 11.673
15.90000 5.656
15.92000 -3.662
15.94000 -2.532
15.96000 -0.911
15.98000 9.021
16.00000 3.273
16.02000 -0.322
16.04000 7.614
16.06000 14.674
16.08000 6.660
16.10000 11.039
16.12000 -0.783
16.14000 -1.037
16.16000 0.611
16.18000 7.074
16.20000 -1.506
16.22000 -4.708
16.24000 -4.133
16.26000 -4.463
16.28000 -4.686
16.30000 -1.240
16.32000 2.042
16.34000 6.688
16.36000 10.814
16.38000 5.621
16.40000 7.397
16.42000 5.861
16.44000 3.196
16.46000 3.619
16.48000 8.347
16.50000 2.134
16.52000 2.601
16.54000 5.761
16.56000 9.831
16.58000 9.511
16.60000 -0.053
16.62000 3.150
16.64000 3.333
16.66000 2.790
16.68000 1.571
16.70000 3.156
16.72000 9.407
16.74000 4.948
16.76000 -0.820
16.78000 1.434
16.80000 -1.601
16.82000 -3.254
16.84000 -1.439
16.86000 6.350
16.88000 9.728
16.90000 7.741
16.92000 9.918
16.94000 7.728
16.96000 11.091
16.98000 8.197
17.00000 -2.673
17.02000 4.690
17.04000 5.418
17.06000 5.825
17.08000 7.062
17.10000 12.469
17.12000 8.317
17.14000 6.410
17.16000 2.712
17.18000 4.799
17.20000 5.175
17.22000 13.183
17.24000 13.165
17.26000 3.809
17.28000 8.439
17.30000 3.819
17.32000 15.921
17.34000 18.653
17.36000 9.057
17.38000 8.037
17.40000 0.431
17.42000 3.672
17.44000 7.204
17.46000 10.888
17.48000 5.522
17.50000 0.589
17.52000 12.542
17.54000 19.770
17.56000 14.414
17.58000 3.092
17.60000 5.667
17.62000 4.970
17.64000 2.807
17.66000 4.631
17.68000 7.891
17.70000 14.778
17.72000 11.901
17.74000 8.611
17.76000 6.093
17.78000 6.483
17.80000 2.357
17.82000 -2.302
17.84000 0.372
17.86000 7.196
17.88000 10.517
17.90000 11.320
17.92000 4.700
17.94000 8.463
17.96000 12.328
17.98000 8.444
18.00000 1.475
18.02000 6.474
18.04000 7.686
18.06000 3.432
18.08000 7.199
18.10000 6.665
18.12000 4.388
18.14000 -4.535
18.16000 6.140
18.18000 13.151
18.20000 16.286
18.22000 5.872
18.24000 16.849
18.26000 9.629
18.28000 6.529
18.30000 9.577
18.32000 8.785
18.34000 11.903
18.36000 5.746
18.38000 9.387
18.40000 3.762
18.42000 2.170
18.44000 -3.200
18.46000 5.703
18.48000 14.447
18.50000 14.600
18.52000 10.062
18.54000 13.500
18.56000 9.150
18.58000 11.537
18.60000 9.617
18.62000 0.259
18.64000 7.680
18.66000 6.918
18.68000 0.831
18.70000 7.800
18.72000 8.454
18.74000 14.563
18.76000 10.574
18.78000 5.817
18.80000 -0.260
18.82000 -1.889
18.84000 0.118
18.86000 3.132
18.88000 -0.685
18.90000 0.802
18.92000 5.072
18.94000 6.878
18.96000 1.077
18.98000 7.066
19.00000 15.702
19.02000 8.936
19.04000 6.206
19.06000 8.050
19.08000 3.665
19.10000 6.356
19.12000 7.662
19.14000 7.035
19.16000 2.466
19.18000 8.121
19.20000 7.299
19.22000 5.083
19.24000 6.567
19.26000 6.806
19.28000 5.463
19.30000 10.648
19.32000 6.219
19.34000 3.069
19.36000 5.155
19.38000 5.207
19.40000 9.186
19.42000 8.127
19.44000 7.423
19.46000 8.529
19.48000 4.388
19.50000 5.093
19.52000 8.334
19.54000 10.788
19.56000 9.756
19.58000 1.985
19.60000 6.126
19.62000 2.501
19.64000 2.986
19.66000 3.022
19.68000 10.730
19.70000 10.206
19.72000 8.812
19.74000 9.160
19.76000 7.048
19.78000 2.221
19.80000 0.172
19.82000 2.088
19.84000 8.468
19.86000 10.447
19.88000 9.241
19.90000 11.323
19.92000 8.157
19.94000 13.251
19.96000 7.511
19.98000 6.611
20.00000 13.120
20.02000 13.656
20.04000 4.289
20.06000 4.298
20.08000 8.636
20.10000 5.841
20.12000 5.656
20.14000 -4.418
20.16000 -2.876
20.18000 2.715
20.20000 6.433
20.22000 7.415
20.24000 4.618
20.26000 5.622
20.28000 10.205
20.30000 7.759
20.32000 9.749
20.34000 2.336
20.36000 1.631
20.38000 0.969
20.40000 11.245
20.42000 8.720
20.44000 5.979
20.46000 6.874
20.48000 0.519
20.50000 2.315
20.52000 3.003
20.54000 1.287
20.56000 0.533
20.58000 -1.063
20.60000 2.127
20.62000 13.712
20.64000 14.998
20.66000 2.870
20.68000 -0.351
20.70000 2.323
20.72000 -0.431
20.74000 6.572
20.76000 7.203
20.78000 3.149
20.80000 6.955
20.82000 2.163
20.84000 0.944
20.86000 3.935
20.88000 -0.466
20.90000 3.931
20.92000 6.194
20.94000 -1.990
20.96000 -2.858
20.98000 4.375
21.00000 4.489
21.02000 2.857
21.04000 1.639
21.06000 0.317
21.08000 2.572
21.10000 -1.627
21.12000 2.433
21.14000 4.958
21.16000 -1.200
21.18000 -2.942
21.20000 1.779
21.22000 8.093
21.24000 4.659
21.26000 3.177
21.28000 3.179
21.30000 5.338
21.32000 14.324
21.34000 8.555
21.36000 0.968
21.38000 2.315
21.40000 3.406
21.42000 -4.342
21.44000 5.870
21.46000 2.505
21.48000 5.746
21.50000 1.969
21.52000 7.162
21.54000 8.868
21.56000 6.701
21.58000 5.251
21.60000 8.965
21.62000 8.493
21.64000 1.696
21.66000 8.363
21.68000 10.538
21.70000 6.244
21.72000 3.386
21.74000 -0.589
21.76000 3.441
21.78000 3.915
21.80000 5.794
21.82000 4.266
21.84000 8.706
21.86000 -1.122
21.88000 -1.169
21.90000 -3.558
21.92000 -4.321
21.94000 1.987
21.96000 4.105
21.98000 8.332
22.00000 8.586
22.02000 4.756
22.04000 3.740
22.06000 1.986
22.08000 5.895
22.10000 12.014
22.12000 7.127
22.14000 0.977
22.16000 3.153
22.18000 8.943
22.20000 6.071
22.22000 -1.199
22.24000 0.545
22.26000 2.513
22.28000 0.603
22.30000 0.387
22.32000 -1.124
22.34000 -4.307
22.36000 3.555
22.38000 7.814
22.40000 7.047
22.42000 15.293
22.44000 5.252
22.46000 -1.154
22.48000 0.984
22.50000 3.379
22.52000 3.968
22.54000 3.836
22.56000 2.029
22.58000 6.008
22.60000 6.373
22.62000 -1.587
22.64000 -2.586
22.66000 -1.937
22.68000 -3.017
22.70000 -2.484
22.72000 2.819
22.74000 4.337
22.76000 5.154
22.78000 2.179
22.80000 0.821
22.82000 -3.558
22.84000 -3.481
22.86000 -1.457
22.88000 -1.564
22.90000 0.200
22.92000 7.441
22.94000 7.554
22.96000 4.793
22.98000 6.296
23.00000 6.540
23.02000 7.475
23.04000 -1.093
23.06000 -1.130
23.08000 1.705
23.10000 5.007
23.12000 7.890
23.14000 0.921
23.16000 1.483
23.18000 -2.224
23.20000 5.401
23.22000 1.425
23.24000 4.906
23.26000 3.272
23.28000 -2.957
23.30000 -1.528
23.32000 0.858
23.34000 -1.907
23.36000 -0.899
23.38000 0.571
23.40000 0.839
23.42000 3.551
23.44000 7.292
23.46000 8.816
23.48000 11.101
23.50000 11.755
23.52000 5.091
23.54000 -0.185
23.56000 4.861
23.58000 3.098
23.60000 2.142
23.62000 3.305
23.64000 -0.403
23.66000 1.868
23.68000 5.283
23.70000 10.632
23.72000 6.894
23.74000 8.967
23.76000 5.913
23.78000 -0.366
23.80000 -1.342
23.82000 8.317
23.84000 8.034
23.86000 4.487
23.88000 -0.728
23.90000 -4.183
23.92000 -1.253
23.94000 -0.476
23.96000 3.915
23.98000 4.511
24.00000 5.390
24.02000 7.439
24.04000 8.442
24.06000 0.626
24.08000 3.417
24.10000 3.121
24.12000 -1.665
24.14000 -1.722
24.16000 3.578
24.18000 8.528
24.20000 7.087
24.22000 8.043
24.24000 0.692
24.26000 0.127
24.28000 -2.307
24.30000 1.482
24.32000 5.325
24.34000 9.892
24.36000 12.011
24.38000 10.412
24.40000 6.672
24.42000 9.204
24.44000 9.803
24.46000 -1.011
24.48000 -4.079
24.50000 7.211
24.52000 7.951
24.54000 5.322
24.56000 11.828
24.58000 3.348
24.60000 6.461
24.62000 5.301
24.64000 2.667
24.66000 8.838
24.68000 8.464
24.70000 6.766
24.72000 4.287
24.74000 3.730
24.76000 7.848
24.78000 1.743
24.80000 0.663
24.82000 3.507
24.84000 7.673
24.86000 8.999
24.88000 7.922
24.90000 4.080
24.92000 -1.765
24.94000 2.500
24.96000 4.586
24.98000 7.236
25.00000 11.470
25.02000 8.417
25.04000 1.190
25.06000 -4.115
25.08000 1.135
25.10000 1.812
25.12000 0.155
25.14000 8.376
25.16000 10.857
25.18000 4.175
25.20000 1.207
25.22000 -1.919
25.24000 5.202
25.26000 7.238
25.28000 -0.157
25.30000 0.793
25.32000 4.672
25.34000 -2.792
25.36000 3.275
25.38000 0.692
25.40000 -3.458
25.42000 0.420
25.44000 7.900
25.46000 6.828
25.48000 1.032
25.50000 3.019
25.52000 -1.638
25.54000 0.711
25.56000 4.920
25.58000 0.873
25.60000 2.275
25.62000 9.029
25.64000 7.746
25.66000 -0.408
25.68000 -2.791
25.70000 1.069
25.72000 -2.541
25.74000 0.515
25.76000 3.832
25.78000 2.054
25.80000 2.584
25.82000 -0.651
25.84000 -1.590
25.86000 -0.601
25.88000 0.565
25.90000 -0.197
25.92000 0.627
25.94000 -0.344
25.96000 3.355
25.98000 10.477
26.00000 2.889
26.02000 1.488
26.04000 0.761
26.06000 2.509
26.08000 -2.590
26.10000 0.358
26.12000 -2.335
26.14000 1.351
26.16000 6.504
26.18000 6.124
26.20000 6.851
26.22000 2.796
26.24000 -2.130
26.26000 1.664
26.28000 4.213
26.30000 2.470
26.32000 2.456
26.34000 3.026
26.36000 5.300
26.38000 3.048
26.40000 -2.513
26.42000 -3.773
26.44000 -0.967
26.46000 3.923
26.48000 2.455
26.50000 2.502
26.52000 -0.539
26.54000 1.539
26.56000 -4.083
26.58000 -0.069
26.60000 3.137
26.62000 5.852
26.64000 6.478
26.66000 0.866
26.68000 0.412
26.70000 -0.238
26.72000 0.213
26.74000 -2.141
26.76000 -1.422
26.78000 4.480
26.80000 4.098
26.82000 5.570
26.84000 2.028
26.86000 3.209
26.88000 7.272
26.90000 9.287
26.92000 2.761
26.94000 -1.302
26.96000 3.561
26.98000 -4.052
27.00000 -1.014
27.02000 5.127
27.04000 0.825
27.06000 2.576
27.08000 4.377
27.10000 6.007
27.12000 -1.342
27.14000 -1.005
27.16000 2.587
27.18000 -0.727
27.20000 0.880
27.22000 3.153
27.24000 1.801
27.26000 4.040
27.28000 -0.364
27.30000 2.771
27.32000 3.747
27.34000 4.418
27.36000 6.226
27.38000 8.508
27.40000 0.428
27.42000 3.510
27.44000 4.542
27.46000 4.394
27.48000 1.182
27.50000 3.119
27.52000 5.133
27.54000 7.155
27.56000 -0.770
27.58000 1.600
27.60000 2.822
27.62000 3.588
27.64000 3.182
27.66000 -3.910
27.68000 -1.941
27.70000 5.280
27.72000 1.396
27.74000 -1.542
27.76000 3.069
27.78000 2.412
27.80000 -0.928
27.82000 1.934
27.84000 4.631
27.86000 8.932
27.88000 7.294
27.90000 3.914
27.92000 -0.031
27.94000 -1.567
27.96000 -3.986
27.98000 -3.571
28.00000 -1.929
28.02000 1.895
28.04000 3.188
28.06000 8.637
28.08000 0.469
28.10000 1.936
28.12000 3.542
28.14000 -3.265
28.16000 -1.938
28.18000 4.769
28.20000 5.806
28.22000 6.767
28.24000 5.343
28.26000 7.201
28.28000 8.584
28.30000 6.801
28.32000 -0.466
28.34000 -2.930
28.36000 4.344
28.38000 0.106
28.40000 4.876
28.42000 7.270
28.44000 3.238
28.46000 2.976
28.48000 5.535
28.50000 6.389
28.52000 6.956
28.54000 5.491
28.56000 4.266
28.58000 8.306
28.60000 9.165
28.62000 3.176
28.64000 10.767
28.66000 11.333
28.68000 5.421
28.70000 7.241
28.72000 6.168
28.74000 4.369
28.76000 2.320
28.78000 -0.896
28.80000 6.237
28.82000 7.205
28.84000 4.965
28.86000 2.946
28.88000 5.344
28.90000 6.865
28.92000 5.259
28.94000 2.017
28.96000 5.527
28.98000 0.807
29.00000 1.824
29.02000 2.376
29.04000 -3.911
29.06000 -1.994
29.08000 5.281
29.10000 6.827
29.12000 4.314
29.14000 9.352
29.16000 7.936
29.18000 5.768
29.20000 4.084
29.22000 0.577
29.24000 3.198
29.26000 9.797
29.28000 5.910
29.30000 4.681
29.32000 1.262
29.34000 3.061
29.36000 1.630
29.38000 3.435
29.40000 1.582
29.42000 -0.010
29.44000 1.493
29.46000 6.742
29.48000 3.749
29.50000 2.521
29.52000 4.262
29.54000 -1.647
29.56000 -2.823
29.58000 -3.269
29.60000 3.031
29.62000 4.299
29.64000 1.162
29.66000 1.240
29.68000 2.156
29.70000 5.002
29.72000 2.663
29.74000 -3.900
29.76000 -2.769
29.78000 0.414
29.80000 1.524
29.82000 -0.041
29.84000 1.373
29.86000 -0.438
29.88000 4.625
29.90000 4.183
29.92000 1.381
29.94000 1.019
29.96000 -0.755
29.98000 0.898
30.00000 4.901
30.02000 2.077
30.04000 3.599
30.06000 -3.888
30.08000 3.339
30.10000 7.509
30.12000 1.105
30.14000 -1.016
30.16000 -2.009
30.18000 -2.713
30.20000 -0.833
30.22000 2.443
30.24000 0.486
30.26000 3.089
30.28000 3.765
30.30000 1.216
30.32000 -0.460
30.34000 0.656
30.36000 3.932
30.38000 0.450
30.40000 1.242
30.42000 0.843
30.44000 5.015
30.46000 2.898
30.48000 0.405
30.50000 -0.819
30.52000 2.311
30.54000 1.134
30.56000 -1.306
30.58000 4.867
30.60000 5.450
30.62000 2.214
30.64000 -1.794
30.66000 3.589
30.68000 5.769
30.70000 8.296
30.72000 7.171
30.74000 4.547
30.76000 6.388
30.78000 0.893
30.80000 2.288
30.82000 5.295
30.84000 5.667
30.86000 2.270
30.88000 1.062
30.90000 -0.643
30.92000 -3.827
30.94000 1.810
30.96000 6.367
30.98000 10.907
31.00000 6.132
31.02000 3.201
31.04000 -0.214
31.06000 7.758
31.08000 6.567
31.10000 6.011
31.12000 6.452
31.14000 -0.422
31.16000 -2.157
31.18000 1.448
31.20000 5.116
31.22000 2.520
31.24000 -0.943
31.26000 -1.102
31.28000 2.426
31.30000 0.595
31.32000 -1.972
31.34000 -2.813
31.36000 -2.004
31.38000 1.674
31.40000 8.969
31.42000 6.290
31.44000 2.490
31.46000 4.512
31.48000 6.761
31.50000 2.097
31.52000 6.147
31.54000 3.592
31.56000 1.419
31.58000 3.007
31.60000 0.277
31.62000 2.099
31.64000 5.266
31.66000 -0.048
31.68000 0.319
31.70000 0.922
31.72000 0.014
31.74000 -0.454
31.76000 4.220
31.78000 4.192
31.80000 4.581
31.82000 3.298
31.84000 6.567
31.86000 7.687
31.88000 4.483
31.90000 5.941
31.92000 6.804
31.94000 0.505
31.96000 3.306
31.98000 2.548
32.00000 1.125
32.02000 -2.930
32.04000 -1.627
32.06000 3.195
32.08000 6.249
32.10000 2.304
32.12000 1.353
32.14000 7.489
32.16000 2.854
32.18000 -0.701
32.20000 -3.760
32.22000 4.391
32.24000 4.593
32.26000 0.299
32.28000 0.316
32.30000 5.610
32.32000 6.503
32.34000 6.640
32.36000 5.197
32.38000 5.060
32.40000 4.752
32.42000 5.322
32.44000 3.661
32.46000 1.633
32.48000 4.555
32.50000 4.616
32.52000 -3.748
32.54000 2.318
32.56000 8.831
32.58000 8.591
32.60000 0.096
32.62000 -1.268
32.64000 -0.093
32.66000 1.592
32.68000 -3.742
32.70000 -2.788
32.72000 4.825
32.74000 8.052
32.76000 7.055
32.78000 9.592
32.80000 8.148
32.82000 2.842
32.84000 6.137
32.86000 3.583
32.88000 -0.119
32.90000 5.306
32.92000 7.618
32.94000 6.232
32.96000 4.879
32.98000 1.925
33.00000 5.413
33.02000 5.404
33.04000 4.991
33.06000 4.175
33.08000 -3.728
33.10000 -0.764
33.12000 4.817
33.14000 5.375
33.16000 6.295
33.18000 4.546
33.20000 4.344
33.22000 0.436
33.24000 4.979
33.26000 7.120
33.28000 6.809
33.30000 7.988
33.32000 1.716
33.34000 0.089
33.36000 0.686
33.38000 0.432
33.40000 3.233
33.42000 3.108
33.44000 0.130
33.46000 8.851
33.48000 6.709
33.50000 4.068
33.52000 3.721
33.54000 -1.393
33.56000 1.736
33.58000 9.724
33.60000 2.191
33.62000 -0.225
33.64000 1.205
33.66000 3.849
33.68000 5.575
33.70000 1.904
33.72000 -3.707
33.74000 3.458
33.76000 5.916
33.78000 2.145
33.80000 0.944
33.82000 1.777
33.84000 3.474
33.86000 5.523
33.88000 -0.316
33.90000 1.643
33.92000 5.003
33.94000 -0.857
33.96000 1.129
33.98000 4.364
34.00000 4.145
34.02000 5.488
34.04000 6.753
34.06000 0.604
34.08000 1.199
34.10000 2.290
34.12000 4.695
34.14000 3.988
34.16000 5.461
34.18000 8.337
34.20000 8.548
34.22000 8.867
34.24000 2.937
34.26000 1.860
34.28000 1.423
34.30000 5.821
34.32000 5.865
34.34000 4.160
34.36000 1.762
34.38000 -3.425
34.40000 0.059
34.42000 1.545
34.44000 -1.546
34.46000 -1.034
34.48000 -0.627
34.50000 -0.369
34.52000 5.033
34.54000 2.457
34.56000 -1.655
34.58000 -1.409
34.60000 0.202
34.62000 -0.440
34.64000 -1.778
34.66000 -2.607
34.68000 2.823
34.70000 3.394
34.72000 3.963
34.74000 6.449
34.76000 2.828
34.78000 -3.691
34.80000 2.735
34.82000 6.468
34.84000 0.504
34.86000 -1.388
34.88000 -1.399
34.90000 -3.688
34.92000 3.100
34.94000 -1.652
34.96000 1.717
34.98000 8.659
35.00000 3.773
35.02000 -1.117
35.04000 -2.425
35.06000 4.949
35.08000 0.405
35.10000 -1.824
35.12000 1.098
35.14000 1.775
35.16000 2.058
35.18000 -1.772
35.20000 -3.675
35.22000 2.154
35.24000 4.903
35.26000 1.147
35.28000 0.894
35.30000 1.910
35.32000 4.422
35.34000 4.881
35.36000 0.670
35.38000 -1.264
35.40000 1.584
35.42000 4.350
35.44000 4.804
35.46000 0.374
35.48000 -0.269
35.50000 1.069
35.52000 4.621
35.54000 4.692
35.56000 -2.366
35.58000 0.101
35.60000 1.076
35.62000 0.173
35.64000 -2.322
35.66000 3.060
35.68000 5.373
35.70000 3.014
35.72000 6.838
35.74000 3.618
35.76000 -1.079
35.78000 0.497
35.80000 5.329
35.82000 -1.542
35.84000 1.451
35.86000 0.008
35.88000 2.326
35.90000 0.967
35.92000 2.573
35.94000 0.401
35.96000 -0.526
35.98000 2.584
36.00000 5.521
36.02000 2.463
36.04000 6.825
36.06000 9.191
36.08000 10.007
36.10000 4.096
36.12000 1.632
36.14000 0.519
36.16000 6.866
36.18000 5.761
36.20000 3.249
36.22000 4.889
36.24000 5.902
36.26000 5.680
36.28000 4.862
36.30000 7.924
36.32000 14.421
36.34000 6.335
36.36000 1.379
36.38000 4.002
36.40000 9.022
36.42000 0.537
36.44000 -3.616
36.46000 -0.188
36.48000 3.022
36.50000 3.787
36.52000 4.133
36.54000 2.409
36.56000 5.951
36.58000 3.688
36.60000 6.830
36.62000 3.881
36.64000 3.747
36.66000 1.667
36.68000 -2.354
36.70000 -2.131
36.72000 3.521
36.74000 3.128
36.76000 10.619
36.78000 11.929
36.80000 7.901
36.82000 1.711
36.84000 -2.075
36.86000 0.299
36.88000 3.753
36.90000 2.126
36.92000 4.154
36.94000 4.246
36.96000 6.335
36.98000 0.858
37.00000 1.303
37.02000 1.258
37.04000 0.505
37.06000 -0.863
37.08000 -1.564
37.10000 0.782
37.12000 -1.743
37.14000 -3.673
37.16000 0.536
37.18000 2.010
37.20000 -2.488
37.22000 2.059
37.24000 1.347
37.26000 2.389
37.28000 1.491
37.30000 -1.785
37.32000 -0.035
37.34000 -0.550
37.36000 0.229
37.38000 2.019
37.40000 -0.146
37.42000 0.482
37.44000 -3.691
37.46000 -2.618
37.48000 -2.680
37.50000 2.047
37.52000 4.748
37.54000 2.577
37.56000 2.127
37.58000 3.685
37.60000 5.057
37.62000 7.012
37.64000 4.353
37.66000 -2.356
37.68000 -0.161
37.70000 5.700
37.72000 2.850
37.74000 4.383
37.76000 6.093
37.78000 11.989
37.80000 4.004
37.82000 -1.628
37.84000 -0.874
37.86000 -0.029
37.88000 2.069
37.90000 0.718
37.92000 2.505
37.94000 8.528
37.96000 6.691
37.98000 6.129
38.00000 5.389
38.02000 2.049
38.04000 6.732
38.06000 10.297
38.08000 5.617
38.10000 4.714
38.12000 7.401
38.14000 6.539
38.16000 9.598
38.18000 12.393
38.20000 8.096
38.22000 6.643
38.24000 2.424
38.26000 8.620
38.28000 13.583
38.30000 14.226
38.32000 13.666
38.34000 13.753
38.36000 7.565
38.38000 5.160
38.40000 5.985
38.42000 10.973
38.44000 8.665
38.46000 10.179
38.48000 14.119
38.50000 19.399
38.52000 14.499
38.54000 13.153
38.56000 16.782
38.58000 17.491
38.60000 19.115
38.62000 18.300
38.64000 19.297
38.66000 22.208
38.68000 22.228
38.70000 23.800
38.72000 20.703
38.74000 17.395
38.76000 17.882
38.78000 20.790
38.80000 23.384
38.82000 22.969
38.84000 26.596
38.86000 24.479
38.88000 25.559
38.90000 23.364
38.92000 26.370
38.94000 31.587
38.96000 33.069
38.98000 32.347
39.00000 35.122
39.02000 31.004
39.04000 38.164
39.06000 41.920
39.08000 33.542
39.10000 30.973
39.12000 34.476
39.14000 40.151
39.16000 42.915
39.18000 40.907
39.20000 43.700
39.22000 41.372
39.24000 44.857
39.26000 47.669
39.28000 47.405
39.30000 54.324
39.32000 52.543
39.34000 51.670
39.36000 57.117
39.38000 62.107
39.40000 64.396
39.42000 66.072
39.44000 71.086
39.46000 81.257
39.48000 83.348
39.50000 89.674
39.52000 88.367
39.54000 96.485
39.56000 103.876
39.58000 113.696
39.60000 121.128
39.62000 124.086
39.64000 130.857
39.66000 139.292
39.68000 147.957
39.70000 160.103
39.72000 169.460
39.74000 181.504
39.76000 190.512
39.78000 215.181
39.80000 223.531
39.82000 232.593
39.84000 252.708
39.86000 271.785
39.88000 301.442
39.90000 331.069
39.92000 352.689
39.94000 372.834
39.96000 405.971
39.98000 440.150
40.00000 471.851
40.02000 514.324
40.04000 554.416
40.06000 600.268
40.08000 638.651
40.10000 680.890
40.12000 738.650
40.14000 781.992
40.16000 827.021
40.18000 876.614
40.20000 945.768
40.22000 1001.718
40.24000 1062.389
40.26000 1105.149
40.28000 1155.198
40.30000 1206.258
40.32000 1246.092
40.34000 1295.526
40.36000 1317.017
40.38000 1349.085
40.40000 1372.989
40.42000 1376.742
40.44000 1386.376
40.46000 1394.032
40.48000 1386.837
40.50000 1369.020
40.52000 1360.111
40.54000 1356.485
40.56000 1326.786
40.58000 1304.570
40.60000 1276.724
40.62000 1256.103
40.64000 1219.074
40.66000 1186.036
40.68000 1145.496
40.70000 1112.063
40.72000 1074.579
40.74000 1040.986
40.76000 1003.065
40.78000 960.904
40.80000 908.622
40.82000 867.770
40.84000 834.283
40.86000 803.568
40.88000 764.823
40.90000 734.903
40.92000 694.831
40.94000 667.496
40.96000 640.867
40.98000 602.160
41.00000 578.737
41.02000 546.694
41.04000 512.010
41.06000 488.447
41.08000 466.955
41.10000 437.614
41.12000 408.255
41.14000 397.608
41.16000 377.061
41.18000 360.664
41.20000 335.696
41.22000 318.779
41.24000 304.228
41.26000 290.634
41.28000 274.475
41.30000 262.091
41.32000 248.698
41.34000 234.221
41.36000 217.134
41.38000 208.866
41.40000 204.890
41.42000 190.930
41.44000 181.455
41.46000 170.941
41.48000 164.558
41.50000 156.804
41.52000 154.101
41.54000 149.177
41.56000 138.024
41.58000 129.299
41.60000 130.232
41.62000 126.915
41.64000 121.765
41.66000 114.346
41.68000 104.229
41.70000 96.661
41.72000 100.011
41.74000 96.118
41.76000 97.249
41.78000 92.450
41.80000 87.759
41.82000 81.777
41.84000 77.816
41.86000 72.356
41.88000 65.451
41.90000 60.944
41.92000 63.750
41.94000 64.276
41.96000 59.795
41.98000 59.941
42.00000 62.239
42.02000 53.960
42.04000 49.500
42.06000 48.871
42.08000 50.906
42.10000 45.726
42.12000 49.696
42.14000 44.585
42.16000 44.015
42.18000 43.967
42.20000 43.559
42.22000 40.943
42.24000 36.069
42.26000 31.557
42.28000 31.949
42.30000 29.497
42.32000 33.105
42.34000 31.130
42.36000 26.731
42.38000 27.035
42.40000 29.731
42.42000 27.245
42.44000 24.338
42.46000 26.180
42.48000 23.286
42.50000 26.197
42.52000 22.905
42.54000 17.242
42.56000 18.854
42.58000 18.556
42.60000 23.181
42.62000 20.312
42.64000 16.618
42.66000 15.570
42.68000 15.822
42.70000 12.113
42.72000 9.673
42.74000 15.866
42.76000 10.453
42.78000 10.410
42.80000 13.922
42.82000 11.202
42.84000 2.838
42.86000 3.909
42.88000 8.521
42.90000 8.392
42.92000 9.522
42.94000 8.796
42.96000 9.805
42.98000 10.400
43.00000 10.735
43.02000 7.878
43.04000 8.444
43.06000 10.811
43.08000 10.255
43.10000 8.899
43.12000 6.489
43.14000 4.562
43.16000 4.726
43.18000 3.226
43.20000 7.202
43.22000 6.852
43.24000 6.909
43.26000 7.228
43.28000 4.437
43.30000 3.680
43.32000 7.024
43.34000 7.439
43.36000 5.366
43.38000 4.843
43.40000 1.359
43.42000 1.191
43.44000 2.350
43.46000 2.645
43.48000 3.144
43.50000 1.499
43.52000 -0.783
43.54000 -1.277
43.56000 2.815
43.58000 5.584
43.60000 4.361
43.62000 3.680
43.64000 4.689
43.66000 1.991
43.68000 1.689
43.70000 2.887
43.72000 3.638
43.74000 4.464
43.76000 -1.013
43.78000 0.687
43.80000 5.596
43.82000 3.349
43.84000 1.023
43.86000 5.193
43.88000 2.719
43.90000 -0.580
43.92000 -0.439
43.94000 -3.415
43.96000 1.207
43.98000 5.560
44.00000 2.728
44.02000 1.502
44.04000 -1.853
44.06000 4.345
44.08000 1.978
44.10000 -3.068
44.12000 -2.595
44.14000 0.163
44.16000 -0.666
44.18000 -1.738
44.20000 2.563
44.22000 5.731
44.24000 0.400
44.26000 -0.803
44.28000 3.345
44.30000 4.519
44.32000 4.093
44.34000 2.227
44.36000 1.193
44.38000 -0.178
44.40000 0.455
44.42000 2.273
44.44000 -0.594
44.46000 -2.438
44.48000 -3.227
44.50000 -0.813
44.52000 2.405
44.54000 2.824
44.56000 -2.709
44.58000 0.313
44.60000 0.344
44.62000 2.552
44.64000 -0.862
44.66000 -1.601
44.68000 2.073
44.70000 1.722
44.72000 -1.534
44.74000 -0.100
44.76000 -0.116
44.78000 1.278
44.80000 1.192
44.82000 -0.139
44.84000 -0.922
44.86000 0.417
44.88000 1.395
44.90000 0.962
44.92000 0.810
44.94000 1.526
44.96000 2.644
44.98000 1.239
45.00000 -3.319
45.02000 0.963
45.04000 5.000
45.06000 2.771
45.08000 -0.424
45.10000 -1.937
45.12000 -2.654
45.14000 -0.253
45.16000 1.816
45.18000 0.907
45.20000 -0.815
45.22000 0.473
45.24000 2.562
45.26000 4.133
45.28000 2.441
45.30000 4.044
45.32000 4.329
45.34000 -1.225
45.36000 -1.626
45.38000 1.561
45.40000 2.763
45.42000 4.193
45.44000 -0.226
45.46000 0.423
45.48000 2.834
45.50000 3.634
45.52000 5.333
45.54000 2.230
45.56000 5.625
45.58000 2.504
45.60000 2.175
45.62000 4.486
45.64000 8.108
45.66000 6.369
45.68000 4.078
45.70000 6.402
45.72000 10.541
45.74000 14.228
45.76000 8.763
45.78000 6.362
45.80000 10.275
45.82000 8.416
45.84000 6.618
45.86000 5.463
45.88000 9.961
45.90000 7.942
45.92000 10.046
45.94000 11.976
45.96000 14.537
45.98000 15.529
46.00000 11.417
46.02000 13.009
46.04000 15.651
46.06000 14.379
46.08000 14.112
46.10000 17.851
46.12000 19.153
46.14000 18.276
46.16000 20.129
46.18000 25.361
46.20000 27.148
46.22000 25.343
46.24000 23.596
46.26000 23.285
46.28000 23.230
46.30000 23.426
46.32000 25.763
46.34000 26.332
46.36000 30.504
46.38000 33.527
46.40000 33.585
46.42000 36.501
46.44000 37.842
46.46000 39.090
46.48000 45.989
46.50000 49.244
46.52000 49.285
46.54000 48.347
46.56000 54.195
46.58000 58.194
46.60000 60.331
46.62000 65.245
46.64000 66.340
46.66000 66.785
46.68000 64.811
46.70000 65.046
46.72000 69.244
46.74000 78.503
46.76000 81.694
46.78000 86.724
46.80000 90.779
46.82000 93.019
46.84000 94.020
46.86000 96.371
46.88000 94.422
46.90000 97.573
46.92000 104.111
46.94000 105.274
46.96000 109.415
46.98000 116.081
47.00000 117.515
47.02000 117.607
47.04000 123.091
47.06000 120.693
47.08000 121.962
47.10000 123.755
47.12000 121.699
47.14000 121.348
47.16000 123.687
47.18000 124.308
47.20000 120.628
47.22000 121.209
47.24000 120.495
47.26000 126.418
47.28000 124.699
47.30000 116.432
47.32000 113.112
47.34000 109.098
47.36000 103.602
47.38000 95.924
47.40000 87.165
47.42000 92.580
47.44000 88.801
47.46000 87.057
47.48000 86.247
47.50000 79.744
47.52000 75.449
47.54000 74.233
47.56000 73.250
47.58000 70.827
47.60000 68.864
47.62000 64.893
47.64000 55.545
47.66000 55.098
47.68000 55.040
47.70000 53.641
47.72000 51.119
47.74000 48.969
47.76000 47.392
47.78000 45.590
47.80000 41.397
47.82000 37.103
47.84000 37.435
47.86000 33.651
47.88000 30.356
47.90000 30.149
47.92000 31.724
47.94000 27.061
47.96000 22.750
47.98000 21.135
48.00000 23.030
48.02000 16.100
48.04000 18.203
48.06000 16.859
48.08000 15.106
48.10000 13.705
48.12000 14.942
48.14000 15.206
48.16000 13.144
48.18000 13.685
48.20000 13.417
48.22000 13.234
48.24000 12.876
48.26000 8.187
48.28000 7.458
48.30000 11.964
48.32000 9.988
48.34000 6.248
48.36000 6.225
48.38000 9.533
48.40000 8.544
48.42000 7.358
48.44000 3.881
48.46000 4.395
48.48000 6.147
48.50000 1.265
48.52000 4.069
48.54000 6.469
48.56000 3.081
48.58000 0.607
48.60000 0.263
48.62000 1.859
48.64000 3.087
48.66000 -0.393
48.68000 6.257
48.70000 8.309
48.72000 3.182
48.74000 1.919
48.76000 0.278
48.78000 0.589
48.80000 -2.709
48.82000 -0.221
48.84000 4.111
48.86000 5.071
48.88000 3.074
48.90000 0.599
48.92000 -0.163
48.94000 -1.967
48.96000 0.110
48.98000 5.035
49.00000 1.251
49.02000 3.877
49.04000 3.353
49.06000 0.989
49.08000 2.833
49.10000 0.426
49.12000 3.098
49.14000 1.148
49.16000 2.020
49.18000 4.071
49.20000 2.351
49.22000 1.311
49.24000 -1.480
49.26000 -1.304
49.28000 -2.631
49.30000 -0.794
49.32000 3.619
49.34000 5.597
49.36000 0.923
49.38000 2.658
49.40000 0.799
49.42000 1.420
49.44000 -1.062
49.46000 1.422
49.48000 1.862
49.50000 -1.213
49.52000 0.701
49.54000 -0.029
49.56000 -1.410
49.58000 0.714
49.60000 -0.015
49.62000 3.333
49.64000 2.573
49.66000 2.526
49.68000 1.871
49.70000 2.236
49.72000 1.391
49.74000 2.419
49.76000 -0.058
49.78000 -1.859
49.80000 -2.278
49.82000 0.811
49.84000 1.428
49.86000 1.445
49.88000 2.165
49.90000 0.451
49.92000 -2.552
49.94000 0.488
49.96000 0.973
49.98000 1.435
50.00000 1.994
50.02000 2.834
50.04000 1.448
50.06000 -0.508
50.08000 -0.707
50.10000 -1.200
50.12000 1.631
50.14000 -0.304
50.16000 -2.544
50.18000 0.565
50.20000 3.724
50.22000 3.770
50.24000 2.658
50.26000 3.048
50.28000 2.116
50.30000 1.136
50.32000 0.944
50.34000 -1.250
50.36000 1.064
50.38000 3.705
50.40000 -0.715
50.42000 -1.386
50.44000 0.162
50.46000 1.154
50.48000 4.421
50.50000 0.886
50.52000 0.034
50.54000 2.735
50.56000 -1.018
50.58000 1.483
50.60000 2.089
50.62000 2.565
50.64000 -1.846
50.66000 -1.305
50.68000 -0.937
50.70000 -0.090
50.72000 -2.213
50.74000 1.999
50.76000 0.525
50.78000 1.099
50.80000 0.042
50.82000 -0.074
50.84000 -0.912
50.86000 -0.352
50.88000 -1.339
50.90000 2.680
50.92000 6.891
50.94000 2.292
50.96000 0.746
50.98000 0.289
51.00000 1.438
51.02000 2.992
51.04000 2.443
51.06000 1.610
51.08000 -0.534
51.10000 -0.438
51.12000 0.062
51.14000 3.810
51.16000 -1.361
51.18000 -1.915
51.20000 -1.559
51.22000 2.186
51.24000 1.434
51.26000 0.267
51.28000 2.414
51.30000 -1.379
51.32000 -2.439
51.34000 -0.149
51.36000 1.884
51.38000 5.065
51.40000 0.739
51.42000 0.051
51.44000 0.187
51.46000 -1.081
51.48000 2.440
51.50000 2.091
51.52000 1.356
51.54000 3.991
51.56000 1.919
51.58000 1.348
51.60000 -0.448
51.62000 0.073
51.64000 3.248
51.66000 4.300
51.68000 1.713
51.70000 3.379
51.72000 3.796
51.74000 1.612
51.76000 -0.375
51.78000 0.368
51.80000 3.021
51.82000 3.724
51.84000 -0.011
51.86000 -1.167
51.88000 2.204
51.90000 -2.427
51.92000 -0.469
51.94000 0.689
51.96000 1.324
51.98000 2.250
52.00000 1.667
52.02000 1.897
52.04000 0.764
52.06000 0.968
52.08000 -0.510
52.10000 1.430
52.12000 0.088
52.14000 -2.414
52.16000 2.098
52.18000 2.659
52.20000 4.875
52.22000 3.267
52.24000 -1.173
52.26000 -2.319
52.28000 -2.418
52.30000 -1.382
52.32000 -2.271
52.34000 0.320
52.36000 2.293
52.38000 1.695
52.40000 3.971
52.42000 5.508
52.44000 2.153
52.46000 3.215
52.48000 3.065
52.50000 2.566
52.52000 2.384
52.54000 0.459
52.56000 2.888
52.58000 1.654
52.60000 1.596
52.62000 3.805
52.64000 0.747
52.66000 -2.174
52.68000 -0.556
52.70000 -1.598
52.72000 0.911
52.74000 4.522
52.76000 1.448
52.78000 2.388
52.80000 2.510
52.82000 -2.425
52.84000 -1.273
52.86000 -0.466
52.88000 -2.144
52.90000 -0.216
52.92000 1.024
52.94000 1.780
52.96000 1.133
52.98000 0.429
53.00000 0.944
53.02000 0.118
53.04000 1.281
53.06000 0.388
53.08000 3.147
53.10000 0.230
53.12000 -0.679
53.14000 0.309
53.16000 3.869
53.18000 2.113
53.20000 0.833
53.22000 -0.016
53.24000 -2.413
53.26000 -2.130
53.28000 0.082
53.30000 -0.363
53.32000 -0.402
53.34000 0.049
53.36000 1.104
53.38000 3.679
53.40000 -0.073
53.42000 -0.284
53.44000 2.616
53.46000 2.033
53.48000 0.247
53.50000 2.274
53.52000 4.946
53.54000 5.125
53.56000 -0.422
53.58000 -0.085
53.60000 -1.318
53.62000 -1.851
53.64000 -2.401
53.66000 -2.225
53.68000 1.040
53.70000 -0.527
53.72000 -0.664
53.74000 1.103
53.76000 2.025
53.78000 1.762
53.80000 0.977
53.82000 2.527
53.84000 -0.657
53.86000 -2.315
53.88000 -0.441
53.90000 0.564
53.92000 1.733
53.94000 -2.387
53.96000 0.579
53.98000 3.662
54.00000 1.135
54.02000 1.466
54.04000 2.033
54.06000 1.365
54.08000 -0.727
54.10000 -0.981
54.12000 0.317
54.14000 0.616
54.16000 1.653
54.18000 0.798
54.20000 0.767
54.22000 0.631
54.24000 2.986
54.26000 -1.591
54.28000 0.620
54.30000 -0.762
54.32000 -0.547
54.34000 -1.625
54.36000 2.162
54.38000 3.497
54.40000 1.067
54.42000 -0.523
54.44000 0.298
54.46000 0.815
54.48000 0.982
54.50000 -0.719
54.52000 -0.889
54.54000 0.598
54.56000 0.179
54.58000 0.619
54.60000 1.151
54.62000 0.560
54.64000 -0.315
54.66000 -1.598
54.68000 -1.027
54.70000 0.731
54.72000 0.070
54.74000 3.327
54.76000 3.170
54.78000 3.441
54.80000 -0.491
54.82000 0.187
54.84000 3.422
54.86000 1.875
54.88000 0.972
54.90000 1.183
54.92000 2.789
54.94000 -1.794
54.96000 -0.060
54.98000 3.573
55.00000 -1.222
55.02000 -2.308
55.04000 0.691
55.06000 1.142
55.08000 3.582
55.10000 1.681
55.12000 5.300
55.14000 4.102
55.16000 3.820
55.18000 2.950
55.20000 -1.013
55.22000 3.000
55.24000 5.906
55.26000 1.347
55.28000 0.985
55.30000 3.119
55.32000 2.436
55.34000 2.883
55.36000 7.556
55.38000 6.501
55.40000 4.696
55.42000 2.085
55.44000 1.610
55.46000 -0.350
55.48000 4.294
55.50000 4.512
55.52000 1.875
55.54000 3.027
55.56000 2.931
55.58000 1.792
55.60000 1.672
55.62000 2.392
55.64000 6.202
55.66000 7.339
55.68000 4.478
55.70000 3.362
55.72000 1.131
55.74000 1.696
55.76000 4.715
55.78000 -0.583
55.80000 2.780
55.82000 3.662
55.84000 5.332
55.86000 2.702
55.88000 -1.013
55.90000 -2.288
55.92000 2.168
55.94000 5.408
55.96000 4.864
55.98000 2.659
56.00000 -0.335
56.02000 -1.879
56.04000 -0.312
56.06000 1.688
56.08000 4.063
56.10000 4.122
56.12000 0.686
56.14000 1.185
56.16000 0.938
56.18000 1.593
56.20000 0.868
56.22000 0.202
56.24000 -0.591
56.26000 -1.146
56.28000 1.521
56.30000 1.933
56.32000 2.809
56.34000 3.328
56.36000 1.298
56.38000 0.078
56.40000 0.083
56.42000 0.803
56.44000 0.747
56.46000 2.592
56.48000 3.195
56.50000 4.440
56.52000 1.217
56.54000 1.647
56.56000 2.426
56.58000 1.514
56.60000 1.900
56.62000 2.697
56.64000 5.148
56.66000 4.889
56.68000 2.466
56.70000 4.436
56.72000 4.690
56.74000 5.902
56.76000 2.257
56.78000 1.651
56.80000 2.441
56.82000 2.105
56.84000 5.146
56.86000 5.421
56.88000 4.102
56.90000 2.389
56.92000 2.438
56.94000 3.679
56.96000 -0.382
56.98000 -2.011
57.00000 -1.021
57.02000 0.139
57.04000 -2.243
57.06000 -0.455
57.08000 0.199
57.10000 -0.425
57.12000 3.044
57.14000 5.227
57.16000 3.512
57.18000 2.016
57.20000 2.088
57.22000 2.172
57.24000 4.368
57.26000 2.727
57.28000 1.686
57.30000 1.871
57.32000 1.609
57.34000 0.523
57.36000 -2.236
57.38000 -0.248
57.40000 4.470
57.42000 6.972
57.44000 3.719
57.46000 6.128
57.48000 3.767
57.50000 2.452
57.52000 0.945
57.54000 1.199
57.56000 1.416
57.58000 2.468
57.60000 4.789
57.62000 6.052
57.64000 3.455
57.66000 1.169
57.68000 1.090
57.70000 1.773
57.72000 0.633
57.74000 -0.838
57.76000 1.220
57.78000 3.724
57.80000 1.408
57.82000 -0.627
57.84000 2.050
57.86000 2.725
57.88000 1.581
57.90000 0.105
57.92000 -0.022
57.94000 2.025
57.96000 1.330
57.98000 3.709
58.00000 0.874
58.02000 2.953
58.04000 3.807
58.06000 2.998
58.08000 5.056
58.10000 4.550
58.12000 1.166
58.14000 -0.057
58.16000 2.067
58.18000 2.379
58.20000 0.876
58.22000 0.089
58.24000 0.607
58.26000 2.849
58.28000 2.424
58.30000 2.524
58.32000 1.978
58.34000 3.222
58.36000 2.860
58.38000 0.209
58.40000 -2.227
58.42000 -2.176
58.44000 3.248
58.46000 4.706
58.48000 1.604
58.50000 3.425
58.52000 3.368
58.54000 -2.224
58.56000 -1.836
58.58000 -1.114
58.60000 0.509
58.62000 0.793
58.64000 6.120
58.66000 7.618
58.68000 4.653
58.70000 2.674
58.72000 2.876
58.74000 1.328
58.76000 1.270
58.78000 3.123
58.80000 4.103
58.82000 2.306
58.84000 1.837
58.86000 0.202
58.88000 -0.640
58.90000 1.443
58.92000 1.851
58.94000 -2.210
58.96000 1.121
58.98000 5.224
59.00000 2.802
59.02000 -0.330
59.04000 0.658
59.06000 -0.685
59.08000 -2.075
59.10000 0.978
59.12000 -0.472
59.14000 1.071
59.16000 0.242
59.18000 -0.928
59.20000 3.617
59.22000 2.240
59.24000 2.974
59.26000 7.268
59.28000 2.400
59.30000 -0.305
59.32000 2.265
59.34000 0.563
59.36000 -0.419
59.38000 1.683
59.40000 4.627
59.42000 2.589
59.44000 0.140
59.46000 1.489
59.48000 0.754
59.50000 -0.266
59.52000 1.690
59.54000 0.863
59.56000 1.143
59.58000 0.111
59.60000 1.119
59.62000 -0.697
59.64000 -2.188
59.66000 0.824
59.68000 3.126
59.70000 2.990
59.72000 6.376
59.74000 5.258
59.76000 2.782
59.78000 3.141
59.80000 1.580
59.82000 2.046
59.84000 2.325
59.86000 3.513
59.88000 4.508
59.90000 2.151
59.92000 -0.440
59.94000 0.776
59.96000 -0.488
59.98000 0.590
60.00000 3.019
60.02000 1.075
60.04000 -0.780
60.06000 0.016
60.08000 -0.534
60.10000 -0.577
60.12000 1.476
60.14000 1.878
60.16000 4.314
60.18000 -0.387
60.20000 1.064
60.22000 2.808
60.24000 6.178
60.26000 2.276
60.28000 0.085
60.30000 0.298
60.32000 2.206
60.34000 0.917
60.36000 -1.110
60.38000 1.613
60.40000 2.200
60.42000 -1.374
60.44000 -1.154
60.46000 -0.729
60.48000 0.342
60.50000 2.496
60.52000 1.884
60.54000 0.849
60.56000 1.718
60.58000 2.645
60.60000 2.701
60.62000 1.336
60.64000 1.164
60.66000 0.485
60.68000 1.021
60.70000 0.968
60.72000 2.225
60.74000 -0.902
60.76000 1.913
60.78000 3.702
60.80000 4.603
60.82000 0.877
60.84000 1.435
60.86000 3.124
60.88000 2.448
60.90000 1.351
60.92000 2.816
60.94000 3.265
60.96000 1.609
60.98000 0.983
61.00000 7.034
61.02000 1.271
61.04000 -0.064
61.06000 -0.076
61.08000 -2.113
61.10000 -0.687
61.12000 2.025
61.14000 4.996
61.16000 4.991
61.18000 4.119
61.20000 -1.656
61.22000 -0.274
61.24000 2.476
61.26000 2.194
61.28000 0.531
61.30000 3.097
61.32000 6.312
61.34000 5.057
61.36000 1.970
61.38000 1.540
61.40000 1.649
61.42000 1.591
61.44000 3.648
61.46000 3.106
61.48000 -0.490
61.50000 0.232
61.52000 0.401
61.54000 -0.458
61.56000 -2.137
61.58000 0.637
61.60000 3.624
61.62000 1.050
61.64000 0.086
61.66000 -1.357
61.68000 -0.610
61.70000 -0.095
61.72000 -0.143
61.74000 0.030
61.76000 1.565
61.78000 0.357
61.80000 1.379
61.82000 2.853
61.84000 0.265
61.86000 -2.070
61.88000 -1.478
61.90000 1.105
61.92000 5.232
61.94000 1.897
61.96000 0.239
61.98000 2.848
62.00000 2.877
62.02000 1.513
62.04000 -0.088
62.06000 2.295
62.08000 2.911
62.10000 0.847
62.12000 1.337
62.14000 1.171
62.16000 2.978
62.18000 2.634
62.20000 1.670
62.22000 -2.126
62.24000 -1.636
62.26000 2.498
62.28000 1.453
62.30000 3.333
62.32000 -0.491
62.34000 2.275
62.36000 1.340
62.38000 0.242
62.40000 -1.196
62.42000 0.118
62.44000 -1.450
62.46000 -1.137
62.48000 -2.126
62.50000 -1.271
62.52000 2.011
62.54000 1.745
62.56000 1.405
62.58000 4.840
62.60000 1.222
62.62000 0.954
62.64000 2.830
62.66000 2.548
62.68000 2.476
62.70000 0.775
62.72000 -1.013
62.74000 -1.065
62.76000 1.347
62.78000 2.627
62.80000 1.162
62.82000 1.198
62.84000 -1.068
62.86000 -1.524
62.88000 -2.126
62.90000 0.755
62.92000 0.956
62.94000 2.328
62.96000 1.431
62.98000 3.378
63.00000 3.927
63.02000 5.281
63.04000 1.260
63.06000 0.964
63.08000 0.658
63.10000 -0.258
63.12000 -0.402
63.14000 1.529
63.16000 0.762
63.18000 0.152
63.20000 -1.970
63.22000 -0.139
63.24000 -0.053
63.26000 -1.632
63.28000 0.276
63.30000 0.386
63.32000 -0.100
63.34000 1.650
63.36000 0.018
63.38000 -0.553
63.40000 -2.146
63.42000 -2.135
63.44000 0.791
63.46000 2.972
63.48000 -0.505
63.50000 -0.378
63.52000 1.103
63.54000 0.820
63.56000 1.383
63.58000 -0.213
63.60000 0.110
63.62000 0.330
63.64000 0.056
63.66000 1.084
63.68000 -0.985
63.70000 -1.801
63.72000 1.173
63.74000 -0.124
63.76000 -1.558
63.78000 -0.006
63.80000 1.355
63.82000 1.068
63.84000 0.691
63.86000 -0.345
63.88000 -0.407
63.90000 -0.611
63.92000 0.666
63.94000 0.711
63.96000 -2.055
63.98000 -1.657
64.00000 -1.356
64.02000 -1.693
64.04000 1.440
64.06000 2.728
64.08000 1.570
64.10000 -0.734
64.12000 -2.010
64.14000 -0.415
64.16000 -0.402
64.18000 0.135
64.20000 0.376
64.22000 -0.549
64.24000 0.883
64.26000 -2.047
64.28000 -2.070
64.30000 -2.145
64.32000 -1.477
64.34000 -1.442
64.36000 0.803
64.38000 0.451
64.40000 -0.618
64.42000 -1.315
64.44000 0.019
64.46000 -0.214
64.48000 0.481
64.50000 0.794
64.52000 1.204
64.54000 1.496
64.56000 0.877
64.58000 -0.459
64.60000 -1.190
64.62000 -1.746
64.64000 0.489
64.66000 -2.080
64.68000 -2.132
64.70000 -0.936
64.72000 -0.430
64.74000 2.969
64.76000 1.920
64.78000 0.498
64.80000 1.131
64.82000 0.301
64.84000 -1.628
64.86000 -2.130
64.88000 -0.298
64.90000 -0.178
64.92000 -0.867
64.94000 1.806
64.96000 0.972
64.98000 -0.080
65.00000 1.475
65.02000 1.527
65.04000 0.225
65.06000 -0.581
65.08000 0.360
65.10000 1.622
65.12000 1.253
65.14000 2.053
65.16000 -0.391
65.18000 -1.557
65.20000 -0.559
65.22000 1.062
65.24000 2.851
65.26000 -0.921
65.28000 1.565
65.30000 -0.178
65.32000 -0.485
65.34000 1.101
65.36000 2.349
65.38000 2.783
65.40000 -1.218
65.42000 0.824
65.44000 -2.108
65.46000 1.204
65.48000 2.021
65.50000 1.511
65.52000 1.835
65.54000 2.896
65.56000 4.647
65.58000 2.080
65.60000 1.113
65.62000 0.609
65.64000 0.149
65.66000 -1.046
65.68000 0.058
65.70000 1.567
65.72000 1.475
65.74000 1.575
65.76000 1.399
65.78000 0.915
65.80000 -0.202
65.82000 -0.124
65.84000 1.192
65.86000 -0.245
65.88000 -0.290
65.90000 -1.481
65.92000 -1.051
65.94000 -1.584
65.96000 2.314
65.98000 0.024
66.00000 -0.219
66.02000 1.183
66.04000 0.219
66.06000 -0.929
66.08000 0.668
66.10000 -1.240
66.12000 -2.132
66.14000 -2.024
66.16000 -0.144
66.18000 0.990
66.20000 -0.893
66.22000 -1.843
66.24000 -0.188
66.26000 0.187
66.28000 -1.843
66.30000 -0.341
66.32000 0.274
66.34000 0.775
66.36000 1.464
66.38000 -0.218
66.40000 -1.766
66.42000 -0.476
66.44000 -0.105
66.46000 0.409
66.48000 1.087
66.50000 1.454
66.52000 0.730
66.54000 -1.245
66.56000 -0.845
66.58000 -2.123
66.60000 0.601
66.62000 2.287
66.64000 4.698
66.66000 2.857
66.68000 0.532
66.70000 -0.442
66.72000 1.958
66.74000 0.566
66.76000 1.408
66.78000 0.712
66.80000 2.707
66.82000 2.944
66.84000 1.953
66.86000 1.328
66.88000 0.157
66.90000 1.059
66.92000 -1.142
66.94000 -2.103
66.96000 1.704
66.98000 0.511
67.00000 0.724
67.02000 0.576
67.04000 1.397
67.06000 2.473
67.08000 0.055
67.10000 0.310
67.12000 -1.421
67.14000 0.914
67.16000 3.829
67.18000 3.098
67.20000 2.171
67.22000 0.689
67.24000 4.349
67.26000 2.666
67.28000 0.772
67.30000 -1.389
67.32000 1.027
67.34000 2.133
67.36000 1.801
67.38000 2.715
67.40000 0.429
67.42000 -0.173
67.44000 -0.475
67.46000 0.409
67.48000 0.768
67.50000 0.614
67.52000 -0.007
67.54000 -0.716
67.56000 -1.522
67.58000 -1.495
67.60000 -0.761
67.62000 -0.964
67.64000 0.578
67.66000 -0.536
67.68000 0.118
67.70000 0.968
67.72000 1.838
67.74000 0.831
67.76000 -1.540
67.78000 -2.165
67.80000 0.264
67.82000 3.400
67.84000 1.191
67.86000 -1.983
67.88000 -0.259
67.90000 -0.351
67.92000 -0.429
67.94000 1.660
67.96000 2.007
67.98000 1.337
68.00000 -0.180
68.02000 0.213
68.04000 0.218
68.06000 0.659
68.08000 -1.020
68.10000 0.961
68.12000 2.128
68.14000 0.964
68.16000 2.517
68.18000 0.500
68.20000 2.721
68.22000 6.881
68.24000 2.969
68.26000 2.444
68.28000 4.577
68.30000 1.990
68.32000 3.064
68.34000 3.878
68.36000 7.027
68.38000 5.972
68.40000 4.430
68.42000 5.538
68.44000 5.373
68.46000 6.481
68.48000 5.656
68.50000 7.057
68.52000 8.388
68.54000 8.367
68.56000 5.713
68.58000 6.493
68.60000 6.205
68.62000 9.427
68.64000 10.600
68.66000 11.478
68.68000 10.146
68.70000 10.237
68.72000 12.384
68.74000 9.257
68.76000 9.658
68.78000 13.017
68.80000 16.001
68.82000 15.633
68.84000 15.259
68.86000 15.795
68.88000 14.020
68.90000 13.434
68.92000 11.573
68.94000 11.658
68.96000 12.756
68.98000 14.052
69.00000 12.104
69.02000 12.140
69.04000 12.414
69.06000 13.447
69.08000 13.168
69.10000 11.002
69.12000 10.381
69.14000 9.738
69.16000 12.773
69.18000 9.101
69.20000 8.484
69.22000 11.755
69.24000 10.024
69.26000 9.207
69.28000 9.861
69.30000 8.599
69.32000 7.778
69.34000 8.684
69.36000 8.284
69.38000 7.171
69.40000 4.279
69.42000 1.289
69.44000 2.262
69.46000 4.177
69.48000 6.055
69.50000 5.421
69.52000 6.177
69.54000 6.172
69.56000 3.431
69.58000 3.290
69.60000 5.823
69.62000 4.789
69.64000 0.036
69.66000 1.791
69.68000 1.473
69.70000 1.796
69.72000 0.297
69.74000 0.318
69.76000 2.860
69.78000 0.470
69.80000 0.375
69.82000 2.381
69.84000 3.086
69.86000 0.600
69.88000 3.118
69.90000 2.288
69.92000 2.960
69.94000 0.936
69.96000 2.119
69.98000 1.427
70.00000 -1.449
70.02000 -1.358
70.04000 -0.326
70.06000 -0.172
70.08000 -1.004
70.10000 -0.352
70.12000 1.245
70.14000 2.837
70.16000 -0.379
70.18000 0.078
70.20000 1.731
70.22000 -0.257
70.24000 -2.107
70.26000 1.800
70.28000 1.223
70.30000 -1.441
70.32000 0.348
70.34000 1.936
70.36000 1.365
70.38000 1.016
70.40000 -1.415
70.42000 0.947
70.44000 2.091
70.46000 0.492
70.48000 -2.070
70.50000 0.190
70.52000 1.182
70.54000 -1.081
70.56000 2.340
70.58000 2.364
70.60000 3.928
70.62000 -0.246
70.64000 2.940
70.66000 3.935
70.68000 0.701
70.70000 1.117
70.72000 2.140
70.74000 1.406
70.76000 -0.342
70.78000 1.752
70.80000 2.599
70.82000 1.006
70.84000 0.074
70.86000 -1.097
70.88000 -1.708
70.90000 -0.955
70.92000 -0.272
70.94000 2.592
70.96000 5.218
70.98000 5.657
71.00000 3.638
71.02000 -2.010
71.04000 -1.883
71.06000 -1.597
71.08000 1.335
71.10000 3.133
71.12000 4.071
71.14000 3.909
71.16000 3.346
71.18000 3.361
71.20000 2.480
71.22000 -1.980
71.24000 1.042
71.26000 2.706
71.28000 0.198
71.30000 1.306
71.32000 -0.593
71.34000 1.069
71.36000 4.609
71.38000 6.827
71.40000 3.922
71.42000 0.778
71.44000 0.980
71.46000 -0.999
71.48000 1.289
71.50000 1.419
71.52000 4.009
71.54000 3.035
71.56000 0.323
71.58000 2.124
71.60000 3.025
71.62000 1.990
71.64000 2.496
71.66000 2.083
71.68000 1.566
71.70000 3.511
71.72000 2.246
71.74000 1.921
71.76000 4.412
71.78000 0.586
71.80000 -0.772
71.82000 1.198
71.84000 -0.073
71.86000 0.286
71.88000 -0.883
71.90000 -0.854
71.92000 -1.040
71.94000 -1.276
71.96000 -1.095
71.98000 2.030
72.00000 1.280
72.02000 2.088
72.04000 0.157
72.06000 1.542
72.08000 -0.820
72.10000 -1.616
72.12000 -1.969
72.14000 -1.770
72.16000 0.333
72.18000 3.073
72.20000 3.613
72.22000 2.561
72.24000 1.086
72.26000 -0.703
72.28000 1.043
72.30000 3.257
72.32000 1.525
72.34000 2.287
72.36000 -1.789
72.38000 2.279
72.40000 4.653
72.42000 1.018
72.44000 -0.676
72.46000 -0.674
72.48000 0.789
72.50000 0.020
72.52000 1.428
72.54000 -1.939
72.56000 -1.962
72.58000 0.018
72.60000 2.016
72.62000 4.735
72.64000 2.314
72.66000 0.860
72.68000 -0.482
72.70000 1.146
72.72000 3.427
72.74000 0.517
72.76000 -0.955
72.78000 -1.967
72.80000 0.129
72.82000 0.032
72.84000 2.573
72.86000 1.275
72.88000 -1.266
72.90000 -1.299
72.92000 0.538
72.94000 -0.627
72.96000 -1.776
72.98000 0.518
73.00000 -0.011
73.02000 2.020
73.04000 2.268
73.06000 1.313
73.08000 0.635
73.10000 -0.631
73.12000 0.379
73.14000 0.249
73.16000 -1.423
73.18000 -1.965
73.20000 -0.599
73.22000 -1.028
73.24000 0.646
73.26000 1.244
73.28000 0.322
73.30000 0.015
73.32000 2.310
73.34000 0.756
73.36000 0.460
73.38000 1.122
73.40000 1.896
73.42000 1.813
73.44000 -1.145
73.46000 -1.449
73.48000 -0.676
73.50000 1.432
73.52000 0.447
73.54000 1.437
73.56000 -0.991
73.58000 -1.145
73.60000 1.240
73.62000 3.411
73.64000 4.622
73.66000 1.974
73.68000 -0.094
73.70000 -0.008
73.72000 1.778
73.74000 -1.004
73.76000 1.394
73.78000 0.858
73.80000 2.138
73.82000 2.956
73.84000 0.084
73.86000 -1.227
73.88000 1.234
73.90000 3.012
73.92000 2.298
73.94000 1.541
73.96000 1.094
73.98000 -1.793
74.00000 -0.011
74.02000 0.599
74.04000 1.338
74.06000 2.080
74.08000 1.232
74.10000 -0.465
74.12000 -0.616
74.14000 2.474
74.16000 4.138
74.18000 1.376
74.20000 1.455
74.22000 1.275
74.24000 0.083
74.26000 -1.906
74.28000 -1.943
74.30000 3.018
74.32000 2.787
74.34000 0.857
74.36000 -0.771
74.38000 2.145
74.40000 1.494
74.42000 0.678
74.44000 0.194
74.46000 3.527
74.48000 2.096
74.50000 -0.276
74.52000 1.627
74.54000 1.893
74.56000 1.268
74.58000 -1.033
74.60000 0.474
74.62000 2.269
74.64000 2.318
74.66000 1.790
74.68000 2.727
74.70000 2.561
74.72000 0.976
74.74000 -1.541
74.76000 -0.552
74.78000 -1.930
74.80000 -1.553
74.82000 0.499
74.84000 -0.450
74.86000 0.123
74.88000 3.449
74.90000 2.947
74.92000 2.178
74.94000 0.803
74.96000 -0.452
74.98000 1.976
75.00000 3.270
75.02000 2.813
75.04000 0.397
75.06000 0.337
75.08000 -0.943
75.10000 -0.548
75.12000 1.444
75.14000 0.295
75.16000 1.892
75.18000 1.924
75.20000 1.636
75.22000 3.897
75.24000 4.638
75.26000 4.169
75.28000 0.769
75.30000 3.594
75.32000 2.957
75.34000 0.732
75.36000 1.468
75.38000 0.697
75.40000 3.947
75.42000 5.262
75.44000 2.782
75.46000 2.092
75.48000 -1.927
75.50000 -1.289
75.52000 2.654
75.54000 0.609
75.56000 -0.392
75.58000 1.993
75.60000 2.956
75.62000 2.360
75.64000 1.144
75.66000 2.986
75.68000 0.237
75.70000 0.859
75.72000 3.246
75.74000 5.844
75.76000 5.158
75.78000 2.575
75.80000 0.830
75.82000 3.134
75.84000 3.754
75.86000 4.191
75.88000 1.701
75.90000 -1.954
75.92000 0.594
75.94000 2.183
75.96000 -0.418
75.98000 1.146
76.00000 1.793
76.02000 0.738
76.04000 1.493
76.06000 2.212
76.08000 1.370
76.10000 1.862
76.12000 1.507
76.14000 0.388
76.16000 1.405
76.18000 2.118
76.20000 0.838
76.22000 1.737
76.24000 0.992
76.26000 1.408
76.28000 0.458
76.30000 -1.306
76.32000 1.455
76.34000 -1.188
76.36000 0.418
76.38000 0.006
76.40000 -1.097
76.42000 -1.250
76.44000 -1.011
76.46000 2.209
76.48000 -0.362
76.50000 0.058
76.52000 -1.412
76.54000 0.516
76.56000 0.341
76.58000 0.335
76.60000 -1.594
76.62000 -1.712
76.64000 -0.645
76.66000 2.384
76.68000 3.772
76.70000 -0.787
76.72000 3.325
76.74000 1.309
76.76000 0.635
76.78000 -1.019
76.80000 4.138
76.82000 5.041
76.84000 7.238
76.86000 2.737
76.88000 0.987
76.90000 0.187
76.92000 1.751
76.94000 2.054
76.96000 3.574
76.98000 -1.942
77.00000 -0.471
77.02000 2.169
77.04000 2.177
77.06000 1.742
77.08000 3.884
77.10000 4.756
77.12000 2.553
77.14000 1.773
77.16000 2.343
77.18000 2.503
77.20000 1.900
77.22000 2.011
77.24000 0.898
77.26000 -0.635
77.28000 1.642
77.30000 3.415
77.32000 2.104
77.34000 2.508
77.36000 3.815
77.38000 2.986
77.40000 -1.845
77.42000 -0.540
77.44000 0.090
77.46000 2.134
77.48000 1.036
77.50000 2.705
77.52000 4.140
77.54000 3.680
77.56000 -0.340
77.58000 -0.596
77.60000 0.370
77.62000 2.616
77.64000 5.215
77.66000 4.298
77.68000 3.254
77.70000 6.048
77.72000 5.405
77.74000 3.703
77.76000 3.980
77.78000 1.140
77.80000 -0.603
77.82000 0.810
77.84000 1.015
77.86000 0.792
77.88000 0.016
77.90000 -0.369
77.92000 -1.973
77.94000 3.046
77.96000 4.482
77.98000 2.327
78.00000 -0.330
78.02000 -1.792
78.04000 -1.518
78.06000 2.232
78.08000 0.470
78.10000 1.116
78.12000 1.935
78.14000 1.899
78.16000 1.966
78.18000 2.678
78.20000 2.963
78.22000 -1.775
78.24000 0.684
78.26000 2.278
78.28000 -0.099
78.30000 -1.667
78.32000 1.499
78.34000 3.227
78.36000 1.528
78.38000 4.378
78.40000 3.771
78.42000 1.655
78.44000 0.075
78.46000 -0.349
78.48000 -0.848
78.50000 -1.550
78.52000 0.512
78.54000 3.884
78.56000 4.381
78.58000 0.355
78.60000 1.360
78.62000 3.428
78.64000 1.131
78.66000 0.879
78.68000 1.575
78.70000 1.527
78.72000 3.231
78.74000 1.426
78.76000 0.813
78.78000 2.675
78.80000 2.089
78.82000 1.842
78.84000 1.505
78.86000 3.524
78.88000 -0.106
78.90000 -1.416
78.92000 2.558
78.94000 4.316
78.96000 4.944
78.98000 1.802
79.00000 0.426
79.02000 4.667
79.04000 2.250
79.06000 -0.313
79.08000 1.223
79.10000 1.848
79.12000 1.510
79.14000 4.446
79.16000 3.840
79.18000 3.704
79.20000 3.789
79.22000 5.889
79.24000 2.108
79.26000 0.000
79.28000 3.437
79.30000 2.966
79.32000 -1.962
79.34000 0.738
79.36000 3.310
79.38000 5.197
79.40000 3.076
79.42000 4.421
79.44000 5.577
79.46000 2.481
79.48000 4.179
79.50000 2.791
79.52000 0.494
79.54000 -0.473
79.56000 2.337
79.58000 3.635
79.60000 5.079
79.62000 1.302
79.64000 0.841
79.66000 2.908
79.68000 4.655
79.70000 4.571
79.72000 3.919
79.74000 -0.742
79.76000 0.654
79.78000 1.859
79.80000 3.334
79.82000 3.883
79.84000 3.211
79.86000 1.702
79.88000 -2.003
79.90000 -1.492
79.92000 3.177
79.94000 5.345
79.96000 4.702
79.98000 3.866
80.00000 1.762
80.02000 -1.687
80.04000 2.170
80.06000 4.066
80.08000 1.411
80.10000 0.779
80.12000 1.221
80.14000 0.645
80.16000 1.072
80.18000 0.643
80.20000 1.418
80.22000 2.968
80.24000 0.035
80.26000 0.836
80.28000 1.541
80.30000 -1.293
80.32000 -1.675
80.34000 -0.582
80.36000 1.049
80.38000 1.075
80.40000 1.009
80.42000 2.436
80.44000 2.485
80.46000 3.414
80.48000 3.890
80.50000 2.962
80.52000 4.997
80.54000 0.346
80.56000 1.111
80.58000 3.870
80.60000 2.856
80.62000 2.872
80.64000 -2.071
80.66000 -1.493
80.68000 -0.164
80.70000 -0.112
80.72000 -0.496
80.74000 0.664
80.76000 -1.553
80.78000 -1.389
80.80000 1.902
80.82000 0.492
80.84000 3.467
80.86000 1.334
80.88000 -0.410
80.90000 0.671
80.92000 1.367
80.94000 -1.750
80.96000 3.834
80.98000 2.770
81.00000 -1.371
81.02000 0.969
81.04000 0.887
81.06000 2.756
81.08000 1.168
81.10000 0.474
81.12000 1.301
81.14000 3.714
81.16000 1.292
81.18000 -0.897
81.20000 -0.353
81.22000 -1.090
81.24000 -0.705
81.26000 3.718
81.28000 0.530
81.30000 -2.104
81.32000 2.739
81.34000 2.488
81.36000 3.616
81.38000 2.411
81.40000 1.839
81.42000 3.035
81.44000 5.363
81.46000 6.251
81.48000 5.918
81.50000 2.063
81.52000 1.890
81.54000 -1.053
81.56000 3.563
81.58000 5.709
81.60000 2.091
81.62000 0.732
81.64000 0.917
81.66000 3.684
81.68000 3.839
81.70000 3.920
81.72000 5.253
81.74000 3.821
81.76000 4.128
81.78000 4.979
81.80000 3.526
81.82000 0.411
81.84000 5.887
81.86000 4.773
81.88000 2.578
81.90000 4.321
81.92000 6.467
81.94000 5.430
81.96000 4.591
81.98000 5.521
82.00000 7.436
82.02000 3.272
82.04000 4.830
82.06000 8.523
82.08000 10.143
82.10000 10.062
82.12000 9.516
82.14000 10.094
82.16000 7.146
82.18000 8.334
82.20000 7.090
82.22000 8.940
82.24000 14.280
82.26000 14.611
82.28000 14.975
82.30000 12.984
82.32000 15.187
82.34000 16.306
82.36000 15.626
82.38000 16.211
82.40000 19.799
82.42000 26.979
82.44000 27.885
82.46000 26.767
82.48000 29.371
82.50000 31.166
82.52000 31.054
82.54000 30.402
82.56000 30.132
82.58000 32.100
82.60000 34.645
82.62000 35.728
82.64000 41.110
82.66000 41.820
82.68000 43.505
82.70000 38.113
82.72000 39.569
82.74000 43.304
82.76000 44.159
82.78000 46.836
82.80000 52.458
82.82000 51.171
82.84000 49.669
82.86000 48.096
82.88000 54.590
82.90000 59.029
82.92000 55.619
82.94000 55.638
82.96000 55.698
82.98000 56.529
83.00000 61.233
83.02000 60.943
83.04000 59.256
83.06000 57.643
83.08000 53.474
83.10000 55.265
83.12000 52.995
83.14000 54.628
83.16000 60.604
83.18000 60.632
83.20000 58.467
83.22000 55.837
83.24000 54.502
83.26000 58.417
83.28000 56.021
83.30000 55.130
83.32000 51.487
83.34000 53.093
83.36000 55.172
83.38000 53.173
83.40000 51.465
83.42000 48.199
83.44000 43.787
83.46000 42.212
83.48000 45.177
83.50000 39.927
83.52000 37.380
83.54000 45.236
83.56000 42.394
83.58000 34.739
83.60000 32.104
83.62000 30.918
83.64000 29.959
83.66000 34.118
83.68000 32.263
83.70000 28.672
83.72000 26.837
83.74000 28.270
83.76000 28.964
83.78000 26.364
83.80000 22.217
83.82000 23.067
83.84000 22.738
83.86000 18.650
83.88000 16.809
83.90000 17.469
83.92000 16.623
83.94000 17.475
83.96000 17.551
83.98000 16.169
84.00000 13.751
84.02000 14.221
84.04000 15.419
84.06000 16.115
84.08000 14.896
84.10000 12.802
84.12000 11.392
84.14000 5.287
84.16000 3.319
84.18000 3.594
84.20000 4.094
84.22000 4.854
84.24000 5.498
84.26000 2.495
84.28000 5.148
84.30000 4.278
84.32000 4.172
84.34000 2.927
84.36000 4.041
84.38000 5.701
84.40000 4.978
84.42000 4.763
84.44000 0.395
84.46000 0.516
84.48000 -0.295
84.50000 0.508
84.52000 -0.404
84.54000 2.839
84.56000 5.483
84.58000 6.806
84.60000 6.772
84.62000 2.533
84.64000 1.120
84.66000 2.428
84.68000 1.317
84.70000 3.511
84.72000 5.858
84.74000 3.603
84.76000 -0.658
84.78000 -0.625
84.80000 1.366
84.82000 1.204
84.84000 -0.474
84.86000 -0.869
84.88000 1.500
84.90000 2.762
84.92000 -1.610
84.94000 1.625
84.96000 3.234
84.98000 2.920
85.00000 3.648
85.02000 3.455
85.04000 2.460
85.06000 2.015
85.08000 -0.225
85.10000 -0.658
85.12000 -0.031
85.14000 -0.573
85.16000 -2.107
85.18000 -0.059
85.20000 1.044
85.22000 -0.688
85.24000 -0.033
85.26000 -2.101
85.28000 -1.934
85.30000 1.239
85.32000 1.761
85.34000 -0.403
85.36000 2.206
85.38000 4.408
85.40000 1.482
85.42000 -1.301
85.44000 1.082
85.46000 3.995
85.48000 1.409
85.50000 0.485
85.52000 1.957
85.54000 1.315
85.56000 0.907
85.58000 1.323
85.60000 2.294
85.62000 -2.069
85.64000 -0.960
85.66000 1.114
85.68000 2.199
85.70000 2.111
85.72000 2.167
85.74000 -0.367
85.76000 2.694
85.78000 -2.083
85.80000 -0.340
85.82000 3.551
85.84000 3.209
85.86000 4.277
85.88000 3.315
85.90000 3.414
85.92000 0.886
85.94000 0.525
85.96000 2.838
85.98000 1.754
86.00000 0.356
86.02000 -1.208
86.04000 0.582
86.06000 0.837
86.08000 -0.165
86.10000 2.947
86.12000 1.842
86.14000 0.391
86.16000 1.899
86.18000 2.495
86.20000 0.627
86.22000 -0.947
86.24000 -0.712
86.26000 1.171
86.28000 -0.091
86.30000 -0.306
86.32000 -2.139
86.34000 -0.156
86.36000 1.686
86.38000 0.561
86.40000 2.314
86.42000 3.358
86.44000 0.554
86.46000 -1.150
86.48000 -0.394
86.50000 2.786
86.52000 2.159
86.54000 0.973
86.56000 1.859
86.58000 1.901
86.60000 3.920
86.62000 6.780
86.64000 3.514
86.66000 3.832
86.68000 7.269
86.70000 5.532
86.72000 5.632
86.74000 6.896
86.76000 8.355
86.78000 8.118
86.80000 9.405
86.82000 8.584
86.84000 10.993
86.86000 10.956
86.88000 14.431
86.90000 15.738
86.92000 16.732
86.94000 15.862
86.96000 15.076
86.98000 16.868
87.00000 16.723
87.02000 17.600
87.04000 17.490
87.06000 18.823
87.08000 20.631
87.10000 27.601
87.12000 26.158
87.14000 23.823
87.16000 25.917
87.18000 25.096
87.20000 26.919
87.22000 23.829
87.24000 27.261
87.26000 30.890
87.28000 32.926
87.30000 33.896
87.32000 29.388
87.34000 27.712
87.36000 28.868
87.38000 29.546
87.40000 34.226
87.42000 34.069
87.44000 29.387
87.46000 33.618
87.48000 35.107
87.50000 35.667
87.52000 34.413
87.54000 32.374
87.56000 29.441
87.58000 31.332
87.60000 34.238
87.62000 35.875
87.64000 34.364
87.66000 39.229
87.68000 37.224
87.70000 32.442
87.72000 33.723
87.74000 32.780
87.76000 32.691
87.78000 30.163
87.80000 26.770
87.82000 27.962
87.84000 34.525
87.86000 28.728
87.88000 26.545
87.90000 26.926
87.92000 22.204
87.94000 23.407
87.96000 25.138
87.98000 23.036
88.00000 22.718
88.02000 23.994
88.04000 23.522
88.06000 19.377
88.08000 17.500
88.10000 18.844
88.12000 18.424
88.14000 20.253
88.16000 18.335
88.18000 16.218
88.20000 17.444
88.22000 15.511
88.24000 12.350
88.26000 12.771
88.28000 12.943
88.30000 11.214
88.32000 10.365
88.34000 13.654
88.36000 15.142
88.38000 11.062
88.40000 10.927
88.42000 12.859
88.44000 13.449
88.46000 11.827
88.48000 8.707
88.50000 7.199
88.52000 5.735
88.54000 7.666
88.56000 8.648
88.58000 6.609
88.60000 5.188
88.62000 4.331
88.64000 4.606
88.66000 5.083
88.68000 9.091
88.70000 11.467
88.72000 7.076
88.74000 1.735
88.76000 2.052
88.78000 0.679
88.80000 3.222
88.82000 -0.569
88.84000 -2.006
88.86000 4.312
88.88000 4.970
88.90000 5.308
88.92000 5.709
88.94000 4.340
88.96000 4.040
88.98000 4.632
89.00000 6.812
89.02000 5.297
89.04000 2.728
89.06000 2.407
89.08000 3.011
89.10000 2.720
89.12000 4.521
89.14000 3.337
89.16000 -0.846
89.18000 -0.179
89.20000 3.632
89.22000 4.073
89.24000 0.666
89.26000 1.779
89.28000 -1.415
89.30000 0.905
89.32000 -1.944
89.34000 1.232
89.36000 -0.773
89.38000 0.435
89.40000 3.696
89.42000 4.930
89.44000 4.449
89.46000 3.666
89.48000 3.351
89.50000 0.732
89.52000 0.963
89.54000 1.375
89.56000 5.561
89.58000 5.757
89.60000 4.800
89.62000 -1.215
89.64000 -1.932
89.66000 -1.932
89.68000 1.186
89.70000 0.362
89.72000 0.330
89.74000 1.995
89.76000 2.071
89.78000 1.380
89.80000 0.338
89.82000 -0.646
89.84000 0.811
89.86000 1.640
89.88000 1.948
89.90000 -0.749
89.92000 -0.648
89.94000 0.046
89.96000 -0.565
89.98000 0.001
90.00000 2.413
90.02000 2.461
90.04000 -0.286
90.06000 -1.793
90.08000 -0.440
90.10000 -0.710
90.12000 0.844
90.14000 -0.958
90.16000 -1.894
90.18000 0.326
90.20000 -1.455
90.22000 1.114
90.24000 1.578
90.26000 1.098
90.28000 0.850
90.30000 1.238
90.32000 0.097
90.34000 -0.386
90.36000 2.883
90.38000 0.259
90.40000 0.318
90.42000 -0.695
90.44000 2.687
90.46000 1.362
90.48000 1.994
90.50000 4.752
90.52000 5.392
90.54000 3.671
90.56000 1.127
90.58000 -1.873
90.60000 2.149
90.62000 1.253
90.64000 0.404
90.66000 0.815
90.68000 2.994
90.70000 4.760
90.72000 2.567
90.74000 0.686
90.76000 4.600
90.78000 4.296
90.80000 -1.017
90.82000 -0.203
90.84000 1.398
90.86000 4.850
90.88000 6.393
90.90000 2.365
90.92000 0.255
90.94000 0.499
90.96000 -0.364
90.98000 -1.828
91.00000 2.530
91.02000 3.678
91.04000 3.692
91.06000 1.456
91.08000 2.086
91.10000 -0.265
91.12000 -0.642
91.14000 1.956
91.16000 2.702
91.18000 1.046
91.20000 1.560
91.22000 3.840
91.24000 5.569
91.26000 3.736
91.28000 3.720
91.30000 4.861
91.32000 3.654
91.34000 -0.697
91.36000 2.165
91.38000 1.747
91.40000 0.481
91.42000 2.339
91.44000 0.609
91.46000 0.447
91.48000 1.474
91.50000 1.447
91.52000 3.737
91.54000 1.054
91.56000 1.900
91.58000 4.051
91.60000 3.789
91.62000 2.639
91.64000 2.833
91.66000 1.792
91.68000 -0.980
91.70000 0.138
91.72000 0.038
91.74000 3.183
91.76000 3.323
91.78000 3.375
91.80000 2.083
91.82000 1.600
91.84000 6.321
91.86000 0.829
91.88000 0.883
91.90000 -0.779
91.92000 1.321
91.94000 2.862
91.96000 0.376
91.98000 1.338
92.00000 1.619
92.02000 1.227
92.04000 1.294
92.06000 1.845
92.08000 1.239
92.10000 2.257
92.12000 3.883
92.14000 3.394
92.16000 2.674
92.18000 0.098
92.20000 -0.092
92.22000 1.179
92.24000 1.793
92.26000 0.291
92.28000 0.821
92.30000 1.474
92.32000 0.814
92.34000 3.689
92.36000 6.333
92.38000 7.604
92.40000 4.222
92.42000 2.559
92.44000 1.316
92.46000 3.305
92.48000 3.618
92.50000 4.059
92.52000 5.304
92.54000 3.848
92.56000 1.699
92.58000 1.307
92.60000 -1.832
92.62000 -0.634
92.64000 0.999
92.66000 1.283
92.68000 4.541
92.70000 4.129
92.72000 3.878
92.74000 3.369
92.76000 3.984
92.78000 1.812
92.80000 2.848
92.82000 3.261
92.84000 3.889
92.86000 2.316
92.88000 3.969
92.90000 0.625
92.92000 0.893
92.94000 2.305
92.96000 2.800
92.98000 2.812
93.00000 4.117
93.02000 2.884
93.04000 2.752
93.06000 -0.089
93.08000 3.322
93.10000 7.737
93.12000 2.602
93.14000 3.974
93.16000 1.926
93.18000 2.496
93.20000 1.922
93.22000 3.200
93.24000 2.252
93.26000 0.760
93.28000 3.412
93.30000 7.622
93.32000 6.198
93.34000 2.930
93.36000 4.002
93.38000 1.339
93.40000 -1.823
93.42000 5.173
93.44000 4.216
93.46000 3.249
93.48000 2.424
93.50000 3.148
93.52000 6.257
93.54000 0.849
93.56000 0.936
93.58000 1.182
93.60000 3.790
93.62000 3.543
93.64000 2.156
93.66000 1.236
93.68000 4.879
93.70000 3.081
93.72000 4.389
93.74000 4.895
93.76000 3.281
93.78000 4.902
93.80000 7.160
93.82000 5.390
93.84000 4.162
93.86000 2.665
93.88000 3.163
93.90000 2.846
93.92000 5.530
93.94000 5.009
93.96000 5.843
93.98000 1.784
94.00000 1.236
94.02000 -1.849
94.04000 0.363
94.06000 0.975
94.08000 3.091
94.10000 1.606
94.12000 2.443
94.14000 2.077
94.16000 0.744
94.18000 2.462
94.20000 3.349
94.22000 1.544
94.24000 4.097
94.26000 3.517
94.28000 2.123
94.30000 1.294
94.32000 0.035
94.34000 -1.083
94.36000 -1.729
94.38000 -0.371
94.40000 1.035
94.42000 2.655
94.44000 2.953
94.46000 6.971
94.48000 8.688
94.50000 4.034
94.52000 3.630
94.54000 1.579
94.56000 0.574
94.58000 0.919
94.60000 4.330
94.62000 3.795
94.64000 2.764
94.66000 4.019
94.68000 5.149
94.70000 5.282
94.72000 5.869
94.74000 7.077
94.76000 3.382
94.78000 2.098
94.80000 1.610
94.82000 -0.273
94.84000 4.593
94.86000 5.656
94.88000 5.566
94.90000 3.183
94.92000 3.551
94.94000 1.283
94.96000 3.978
94.98000 5.709
95.00000 4.595
95.02000 -0.105
95.04000 -0.018
95.06000 -1.887
95.08000 5.252
95.10000 1.843
95.12000 -1.671
95.14000 2.449
95.16000 2.514
95.18000 3.975
95.20000 6.215
95.22000 -1.888
95.24000 -1.888
95.26000 2.470
95.28000 5.175
95.30000 3.081
95.32000 3.542
95.34000 5.260
95.36000 5.641
95.38000 2.250
95.40000 2.365
95.42000 4.522
95.44000 4.657
95.46000 4.411
95.48000 6.193
95.50000 4.612
95.52000 2.939
95.54000 4.302
95.56000 1.104
95.58000 -0.279
95.60000 -0.142
95.62000 -0.065
95.64000 1.454
95.66000 2.235
95.68000 1.924
95.70000 0.272
95.72000 3.188
95.74000 3.866
95.76000 1.437
95.78000 2.996
95.80000 0.111
95.82000 -0.740
95.84000 0.704
95.86000 -0.369
95.88000 0.811
95.90000 3.267
95.92000 -1.399
95.94000 1.011
95.96000 5.643
95.98000 6.017
96.00000 2.185
96.02000 2.030
96.04000 0.603
96.06000 -1.881
96.08000 -1.447
96.10000 2.204
96.12000 2.673
96.14000 0.653
96.16000 4.512
96.18000 5.943
96.20000 -0.656
96.22000 0.474
96.24000 4.084
96.26000 3.443
96.28000 4.179
96.30000 2.493
96.32000 3.903
96.34000 3.312
96.36000 3.920
96.38000 4.319
96.40000 0.196
96.42000 0.780
96.44000 3.139
96.46000 -1.012
96.48000 2.618
96.50000 5.002
96.52000 4.917
96.54000 7.125
96.56000 1.652
96.58000 5.716
96.60000 5.228
96.62000 1.203
96.64000 0.146
96.66000 5.088
96.68000 5.622
96.70000 4.710
96.72000 1.280
96.74000 -0.521
96.76000 2.225
96.78000 3.978
96.80000 3.628
96.82000 7.854
96.84000 7.496
96.86000 3.729
96.88000 3.702
96.90000 4.321
96.92000 4.502
96.94000 6.228
96.96000 5.576
96.98000 7.895
97.00000 4.264
97.02000 3.693
97.04000 -0.067
97.06000 0.093
97.08000 1.042
97.10000 -1.817
97.12000 4.774
97.14000 8.882
97.16000 5.360
97.18000 2.749
97.20000 6.130
97.22000 5.201
97.24000 10.001
97.26000 6.090
97.28000 5.649
97.30000 6.479
97.32000 9.827
97.34000 5.534
97.36000 2.528
97.38000 5.617
97.40000 3.354
97.42000 2.530
97.44000 -1.414
97.46000 0.044
97.48000 1.496
97.50000 4.726
97.52000 9.443
97.54000 6.235
97.56000 5.481
97.58000 0.955
97.60000 1.286
97.62000 3.837
97.64000 1.612
97.66000 6.075
97.68000 5.889
97.70000 5.480
97.72000 5.045
97.74000 5.513
97.76000 2.554
97.78000 8.615
97.80000 5.223
97.82000 2.125
97.84000 3.038
97.86000 7.616
97.88000 5.353
97.90000 5.135
97.92000 4.812
97.94000 6.887
97.96000 2.916
97.98000 -1.790
98.00000 1.930
98.02000 8.161
98.04000 9.542
98.06000 5.219
98.08000 0.865
98.10000 5.012
98.12000 4.502
98.14000 4.170
98.16000 2.377
98.18000 3.229
98.20000 5.635
98.22000 5.853
98.24000 4.419
98.26000 2.233
98.28000 0.091
98.30000 6.222
98.32000 3.866
98.34000 3.919
98.36000 4.513
98.38000 7.067
98.40000 7.637
98.42000 2.567
98.44000 3.735
98.46000 2.252
98.48000 0.951
98.50000 8.014
98.52000 6.753
98.54000 0.864
98.56000 5.096
98.58000 7.871
98.60000 5.338
98.62000 6.221
98.64000 8.193
98.66000 8.276
98.68000 5.151
98.70000 -3.640
98.72000 4.169
98.74000 7.325
98.76000 5.838
98.78000 1.287
98.80000 3.654
98.82000 4.508
98.84000 -0.750
98.86000 4.224
98.88000 8.740
98.90000 10.990
98.92000 3.309
98.94000 -0.745
98.96000 5.143
98.98000 9.536
99.00000 5.069
99.02000 5.521
99.04000 3.463
99.06000 3.743
99.08000 1.666
99.10000 6.763
99.12000 6.567
99.14000 1.249
99.16000 7.457
99.18000 6.376
99.20000 -2.343
99.22000 4.143
99.24000 6.474
99.26000 8.472
99.28000 10.914
99.30000 5.214
99.32000 7.541
99.34000 5.061
99.36000 5.252
99.38000 10.680
99.40000 2.157
99.42000 3.744
99.44000 2.359
99.46000 6.470
99.48000 6.476
99.50000 2.875
99.52000 3.183
99.54000 4.302
99.56000 11.467
99.58000 8.166
99.60000 5.015
99.62000 5.269
99.64000 4.765
99.66000 1.023
99.68000 3.107
99.70000 8.519
99.72000 5.718
99.74000 5.180
99.76000 6.472
99.78000 10.756
99.80000 13.373
99.82000 7.302
99.84000 2.714
99.86000 -1.768
99.88000 0.248
99.90000 0.584
99.92000 -1.808
99.94000 -1.933
99.96000 1.902
99.98000 0.000
