'Id: "0011389" Comment: "Integrate frame 0011389_Au-Ir-Rh_Au-Rich_XRD_Mapping-285-0000.gfrmwith cursor Wedge Cursor #5" Operator: "B?rgel" Anode: "Cu" Wavelength: "1.5406" Scantype: "2Theta (TwoTheta)" TimePerStep: "1" X: "-9" Y: "27" Z: "5.95" 
10.00000 0.000
10.02000 5.096
10.04000 -4.440
10.06000 7.119
10.08000 17.859
10.10000 23.585
10.12000 13.990
10.14000 8.663
10.16000 18.607
10.18000 -4.353
10.20000 0.237
10.22000 3.668
10.24000 4.328
10.26000 14.006
10.28000 21.091
10.30000 17.862
10.32000 17.298
10.34000 17.139
10.36000 6.188
10.38000 11.335
10.40000 29.216
10.42000 12.931
10.44000 5.011
10.46000 12.327
10.48000 24.252
10.50000 19.727
10.52000 21.577
10.54000 19.097
10.56000 15.765
10.58000 13.503
10.60000 13.024
10.62000 16.020
10.64000 13.891
10.66000 6.296
10.68000 -4.352
10.70000 8.687
10.72000 24.806
10.74000 20.703
10.76000 32.790
10.78000 19.225
10.80000 22.637
10.82000 28.330
10.84000 18.376
10.86000 9.789
10.88000 18.323
10.90000 20.099
10.92000 21.565
10.94000 16.847
10.96000 28.048
10.98000 32.459
11.00000 20.905
11.02000 14.935
11.04000 11.117
11.06000 9.299
11.08000 3.902
11.10000 16.310
11.12000 12.641
11.14000 4.820
11.16000 5.171
11.18000 13.362
11.20000 23.102
11.22000 28.702
11.24000 28.154
11.26000 19.680
11.28000 12.225
11.30000 12.108
11.32000 14.402
11.34000 17.777
11.36000 14.620
11.38000 24.187
11.40000 35.754
11.42000 27.741
11.44000 8.607
11.46000 7.393
11.48000 -0.539
11.50000 5.619
11.52000 11.994
11.54000 17.907
11.56000 29.021
11.58000 26.332
11.60000 19.857
11.62000 22.064
11.64000 15.147
11.66000 11.456
11.68000 6.885
11.70000 8.928
11.72000 10.219
11.74000 2.855
11.76000 3.597
11.78000 12.980
11.80000 21.040
11.82000 12.941
11.84000 15.762
11.86000 25.812
11.88000 24.453
11.90000 7.316
11.92000 12.346
11.94000 16.601
11.96000 14.168
11.98000 13.564
12.00000 12.095
12.02000 9.924
12.04000 9.991
12.06000 12.081
12.08000 15.474
12.10000 7.595
12.12000 12.026
12.14000 17.894
12.16000 13.344
12.18000 13.433
12.20000 17.898
12.22000 5.573
12.24000 5.375
12.26000 19.573
12.28000 20.735
12.30000 18.469
12.32000 10.614
12.34000 7.479
12.36000 12.169
12.38000 9.466
12.40000 8.696
12.42000 14.235
12.44000 16.470
12.46000 8.720
12.48000 10.552
12.50000 21.795
12.52000 11.944
12.54000 18.586
12.56000 19.607
12.58000 6.015
12.60000 13.499
12.62000 17.620
12.64000 20.648
12.66000 17.474
12.68000 11.143
12.70000 13.489
12.72000 10.461
12.74000 7.238
12.76000 8.390
12.78000 16.979
12.80000 15.701
12.82000 5.894
12.84000 10.706
12.86000 12.072
12.88000 19.262
12.90000 13.677
12.92000 -4.481
12.94000 -3.683
12.96000 8.454
12.98000 17.637
13.00000 12.361
13.02000 12.124
13.04000 10.468
13.06000 4.603
13.08000 5.186
13.10000 3.648
13.12000 10.420
13.14000 21.092
13.16000 9.449
13.18000 9.582
13.20000 11.942
13.22000 4.857
13.24000 2.491
13.26000 14.893
13.28000 17.163
13.30000 19.398
13.32000 17.641
13.34000 20.597
13.36000 12.004
13.38000 14.455
13.40000 7.031
13.42000 12.731
13.44000 14.018
13.46000 5.530
13.48000 3.154
13.50000 7.226
13.52000 23.106
13.54000 30.355
13.56000 23.727
13.58000 17.367
13.60000 19.687
13.62000 11.201
13.64000 17.523
13.66000 15.830
13.68000 13.591
13.70000 8.022
13.72000 6.392
13.74000 4.872
13.76000 14.440
13.78000 16.830
13.80000 3.924
13.82000 20.870
13.84000 28.445
13.86000 18.707
13.88000 20.685
13.90000 18.308
13.92000 8.370
13.94000 2.123
13.96000 4.399
13.98000 8.730
14.00000 10.774
14.02000 9.604
14.04000 6.130
14.06000 11.935
14.08000 9.005
14.10000 8.871
14.12000 4.176
14.14000 9.387
14.16000 9.348
14.18000 8.208
14.20000 15.096
14.22000 16.912
14.24000 18.140
14.26000 12.261
14.28000 12.520
14.30000 13.322
14.32000 9.434
14.34000 6.924
14.36000 6.581
14.38000 6.399
14.40000 15.670
14.42000 14.570
14.44000 5.350
14.46000 2.567
14.48000 9.594
14.50000 11.343
14.52000 -0.013
14.54000 -3.703
14.56000 -1.571
14.58000 3.151
14.60000 -1.622
14.62000 10.781
14.64000 22.411
14.66000 -0.563
14.68000 1.588
14.70000 6.199
14.72000 3.324
14.74000 -0.913
14.76000 3.287
14.78000 -2.340
14.80000 -4.516
14.82000 -1.706
14.84000 5.472
14.86000 16.473
14.88000 15.669
14.90000 4.079
14.92000 7.007
14.94000 4.565
14.96000 6.375
14.98000 8.854
15.00000 12.608
15.02000 1.622
15.04000 4.633
15.06000 10.600
15.08000 20.353
15.10000 10.815
15.12000 3.767
15.14000 1.227
15.16000 -0.160
15.18000 1.305
15.20000 1.616
15.22000 0.599
15.24000 1.329
15.26000 0.407
15.28000 5.380
15.30000 2.439
15.32000 13.584
15.34000 11.955
15.36000 14.879
15.38000 24.211
15.40000 22.748
15.42000 17.350
15.44000 20.206
15.46000 23.607
15.48000 18.839
15.50000 8.135
15.52000 14.656
15.54000 11.768
15.56000 16.358
15.58000 11.673
15.60000 7.020
15.62000 5.869
15.64000 6.841
15.66000 11.909
15.68000 6.793
15.70000 6.407
15.72000 7.326
15.74000 3.770
15.76000 8.673
15.78000 11.746
15.80000 5.401
15.82000 -1.778
15.84000 2.422
15.86000 5.409
15.88000 2.704
15.90000 2.598
15.92000 6.484
15.94000 -2.324
15.96000 -0.810
15.98000 -2.266
16.00000 2.351
16.02000 2.912
16.04000 4.596
16.06000 -3.928
16.08000 -0.099
16.10000 5.223
16.12000 8.609
16.14000 7.947
16.16000 1.878
16.18000 -0.996
16.20000 4.699
16.22000 3.551
16.24000 9.834
16.26000 7.981
16.28000 11.760
16.30000 10.097
16.32000 5.903
16.34000 2.745
16.36000 1.959
16.38000 4.733
16.40000 2.894
16.42000 3.591
16.44000 16.294
16.46000 10.637
16.48000 6.069
16.50000 0.222
16.52000 1.035
16.54000 -4.476
16.56000 -3.518
16.58000 13.226
16.60000 12.549
16.62000 4.978
16.64000 8.405
16.66000 10.101
16.68000 11.506
16.70000 10.241
16.72000 -1.221
16.74000 -4.117
16.76000 -2.973
16.78000 7.496
16.80000 9.579
16.82000 12.155
16.84000 6.212
16.86000 3.801
16.88000 1.442
16.90000 1.288
16.92000 3.858
16.94000 5.926
16.96000 -0.250
16.98000 -1.441
17.00000 6.328
17.02000 6.755
17.04000 2.707
17.06000 7.419
17.08000 11.998
17.10000 10.769
17.12000 5.597
17.14000 7.395
17.16000 3.376
17.18000 0.778
17.20000 1.198
17.22000 6.013
17.24000 -1.120
17.26000 2.139
17.28000 3.020
17.30000 5.231
17.32000 10.101
17.34000 14.912
17.36000 10.468
17.38000 9.857
17.40000 9.199
17.42000 10.838
17.44000 1.259
17.46000 0.001
17.48000 -0.073
17.50000 2.292
17.52000 3.817
17.54000 8.887
17.56000 8.117
17.58000 -2.541
17.60000 -4.427
17.62000 1.844
17.64000 2.212
17.66000 5.593
17.68000 2.112
17.70000 6.463
17.72000 7.957
17.74000 0.328
17.76000 -1.218
17.78000 -4.160
17.80000 0.861
17.82000 3.711
17.84000 2.468
17.86000 1.511
17.88000 -0.698
17.90000 6.771
17.92000 6.326
17.94000 6.044
17.96000 3.802
17.98000 10.035
18.00000 11.866
18.02000 4.380
18.04000 -0.395
18.06000 1.946
18.08000 -4.399
18.10000 -1.263
18.12000 2.235
18.14000 3.356
18.16000 5.801
18.18000 3.095
18.20000 4.998
18.22000 8.829
18.24000 -1.597
18.26000 -0.228
18.28000 6.705
18.30000 4.554
18.32000 1.965
18.34000 -1.276
18.36000 3.221
18.38000 -1.596
18.40000 3.541
18.42000 3.069
18.44000 2.324
18.46000 2.672
18.48000 -0.859
18.50000 5.525
18.52000 0.822
18.54000 -2.154
18.56000 8.053
18.58000 7.692
18.60000 -1.950
18.62000 -3.267
18.64000 1.297
18.66000 4.129
18.68000 0.493
18.70000 -0.499
18.72000 2.321
18.74000 0.236
18.76000 -1.852
18.78000 -2.599
18.80000 2.809
18.82000 2.997
18.84000 -0.603
18.86000 4.875
18.88000 9.697
18.90000 9.409
18.92000 -1.343
18.94000 1.524
18.96000 -3.661
18.98000 -1.165
19.00000 0.828
19.02000 5.288
19.04000 8.166
19.06000 4.666
19.08000 -2.472
19.10000 -2.419
19.12000 -1.119
19.14000 1.496
19.16000 0.582
19.18000 0.878
19.20000 5.234
19.22000 9.926
19.24000 4.195
19.26000 1.892
19.28000 1.421
19.30000 3.583
19.32000 -1.159
19.34000 -1.811
19.36000 5.949
19.38000 1.715
19.40000 0.348
19.42000 1.204
19.44000 -0.411
19.46000 -2.040
19.48000 4.054
19.50000 9.834
19.52000 5.239
19.54000 4.079
19.56000 2.777
19.58000 2.082
19.60000 -4.281
19.62000 6.413
19.64000 9.696
19.66000 3.670
19.68000 -0.713
19.70000 -2.887
19.72000 1.124
19.74000 8.471
19.76000 9.573
19.78000 7.197
19.80000 7.339
19.82000 1.303
19.84000 1.896
19.86000 9.351
19.88000 3.464
19.90000 0.177
19.92000 -0.711
19.94000 6.013
19.96000 10.625
19.98000 2.391
20.00000 1.697
20.02000 2.655
20.04000 1.080
20.06000 2.264
20.08000 6.448
20.10000 2.659
20.12000 1.394
20.14000 0.028
20.16000 0.117
20.18000 7.091
20.20000 4.187
20.22000 0.485
20.24000 5.845
20.26000 4.287
20.28000 4.053
20.30000 1.500
20.32000 9.350
20.34000 9.707
20.36000 3.943
20.38000 4.750
20.40000 -0.013
20.42000 0.089
20.44000 12.431
20.46000 15.591
20.48000 10.352
20.50000 11.864
20.52000 8.350
20.54000 5.516
20.56000 7.527
20.58000 6.791
20.60000 7.250
20.62000 3.624
20.64000 5.719
20.66000 8.454
20.68000 9.615
20.70000 2.293
20.72000 -2.669
20.74000 -3.761
20.76000 4.966
20.78000 3.748
20.80000 3.808
20.82000 2.210
20.84000 -1.013
20.86000 1.380
20.88000 3.743
20.90000 3.755
20.92000 6.493
20.94000 6.120
20.96000 5.120
20.98000 5.575
21.00000 7.325
21.02000 5.827
21.04000 2.754
21.06000 9.428
21.08000 4.875
21.10000 6.588
21.12000 5.376
21.14000 1.440
21.16000 -3.478
21.18000 0.139
21.20000 4.773
21.22000 6.084
21.24000 7.644
21.26000 3.856
21.28000 -2.860
21.30000 -0.366
21.32000 4.689
21.34000 6.008
21.36000 4.149
21.38000 2.759
21.40000 -1.903
21.42000 -4.175
21.44000 0.927
21.46000 7.842
21.48000 0.051
21.50000 4.043
21.52000 5.466
21.54000 3.322
21.56000 0.339
21.58000 5.928
21.60000 6.079
21.62000 4.010
21.64000 1.552
21.66000 6.966
21.68000 9.173
21.70000 7.111
21.72000 0.703
21.74000 3.974
21.76000 11.106
21.78000 1.899
21.80000 8.561
21.82000 10.082
21.84000 8.403
21.86000 2.539
21.88000 3.241
21.90000 7.852
21.92000 2.814
21.94000 8.077
21.96000 9.139
21.98000 9.692
22.00000 9.884
22.02000 5.285
22.04000 3.796
22.06000 5.940
22.08000 4.856
22.10000 1.559
22.12000 3.909
22.14000 -0.896
22.16000 -4.118
22.18000 -2.251
22.20000 0.831
22.22000 4.256
22.24000 6.476
22.26000 4.423
22.28000 -0.188
22.30000 2.295
22.32000 4.904
22.34000 5.179
22.36000 7.527
22.38000 11.204
22.40000 10.216
22.42000 5.216
22.44000 5.757
22.46000 2.431
22.48000 -0.431
22.50000 1.112
22.52000 6.460
22.54000 3.287
22.56000 2.141
22.58000 7.031
22.60000 6.721
22.62000 5.749
22.64000 2.389
22.66000 5.820
22.68000 10.156
22.70000 3.824
22.72000 4.150
22.74000 6.056
22.76000 3.640
22.78000 4.860
22.80000 4.829
22.82000 5.145
22.84000 4.120
22.86000 3.100
22.88000 3.165
22.90000 0.358
22.92000 6.252
22.94000 7.260
22.96000 10.582
22.98000 0.481
23.00000 0.853
23.02000 1.356
23.04000 6.834
23.06000 8.656
23.08000 6.617
23.10000 5.358
23.12000 2.949
23.14000 3.606
23.16000 7.705
23.18000 6.697
23.20000 1.790
23.22000 2.405
23.24000 2.204
23.26000 8.199
23.28000 -0.452
23.30000 -2.219
23.32000 -0.248
23.34000 1.686
23.36000 2.948
23.38000 7.916
23.40000 2.327
23.42000 -1.661
23.44000 0.750
23.46000 2.330
23.48000 4.740
23.50000 6.991
23.52000 7.180
23.54000 0.611
23.56000 -1.563
23.58000 3.216
23.60000 6.340
23.62000 7.420
23.64000 0.526
23.66000 2.422
23.68000 3.469
23.70000 7.087
23.72000 9.144
23.74000 7.312
23.76000 3.184
23.78000 5.335
23.80000 6.132
23.82000 3.383
23.84000 -4.031
23.86000 1.838
23.88000 5.256
23.90000 2.417
23.92000 8.867
23.94000 6.875
23.96000 8.802
23.98000 9.268
24.00000 5.563
24.02000 5.187
24.04000 5.733
24.06000 5.344
24.08000 4.163
24.10000 6.226
24.12000 -1.641
24.14000 -0.014
24.16000 6.607
24.18000 0.976
24.20000 0.542
24.22000 1.339
24.24000 -0.508
24.26000 -2.356
24.28000 0.928
24.30000 -1.616
24.32000 0.421
24.34000 2.744
24.36000 5.988
24.38000 6.004
24.40000 2.365
24.42000 5.160
24.44000 2.292
24.46000 1.908
24.48000 7.781
24.50000 1.708
24.52000 3.924
24.54000 -0.920
24.56000 4.182
24.58000 6.430
24.60000 0.455
24.62000 1.494
24.64000 4.426
24.66000 5.537
24.68000 6.400
24.70000 0.393
24.72000 1.010
24.74000 -0.688
24.76000 2.699
24.78000 3.097
24.80000 1.958
24.82000 3.770
24.84000 1.934
24.86000 2.468
24.88000 0.291
24.90000 1.803
24.92000 0.245
24.94000 2.268
24.96000 -1.488
24.98000 -0.103
25.00000 4.921
25.02000 5.099
25.04000 3.628
25.06000 1.870
25.08000 4.336
25.10000 4.255
25.12000 1.015
25.14000 0.512
25.16000 5.199
25.18000 2.822
25.20000 1.162
25.22000 3.245
25.24000 6.622
25.26000 5.370
25.28000 0.693
25.30000 1.759
25.32000 3.080
25.34000 2.331
25.36000 6.724
25.38000 5.058
25.40000 2.810
25.42000 5.761
25.44000 2.965
25.46000 -0.926
25.48000 0.042
25.50000 7.539
25.52000 5.710
25.54000 5.923
25.56000 7.402
25.58000 9.991
25.60000 11.294
25.62000 3.243
25.64000 0.433
25.66000 3.785
25.68000 3.064
25.70000 0.355
25.72000 5.464
25.74000 2.867
25.76000 7.051
25.78000 4.981
25.80000 11.054
25.82000 5.384
25.84000 -1.224
25.86000 5.061
25.88000 1.905
25.90000 6.493
25.92000 2.893
25.94000 0.610
25.96000 4.209
25.98000 9.412
26.00000 2.522
26.02000 3.436
26.04000 2.541
26.06000 5.676
26.08000 8.026
26.10000 9.825
26.12000 5.517
26.14000 2.261
26.16000 -3.897
26.18000 1.879
26.20000 9.104
26.22000 3.178
26.24000 -0.236
26.26000 7.531
26.28000 5.301
26.30000 -1.806
26.32000 0.994
26.34000 6.765
26.36000 5.580
26.38000 7.027
26.40000 3.103
26.42000 1.951
26.44000 7.813
26.46000 5.238
26.48000 7.687
26.50000 4.522
26.52000 1.701
26.54000 2.111
26.56000 3.712
26.58000 6.055
26.60000 5.932
26.62000 6.038
26.64000 2.259
26.66000 0.873
26.68000 5.167
26.70000 6.969
26.72000 5.232
26.74000 2.929
26.76000 0.246
26.78000 -0.005
26.80000 1.537
26.82000 5.373
26.84000 3.790
26.86000 4.428
26.88000 -0.914
26.90000 -1.445
26.92000 0.497
26.94000 3.739
26.96000 7.181
26.98000 7.473
27.00000 8.929
27.02000 3.873
27.04000 0.737
27.06000 2.926
27.08000 0.557
27.10000 6.959
27.12000 6.259
27.14000 4.811
27.16000 2.709
27.18000 0.344
27.20000 1.275
27.22000 2.063
27.24000 1.260
27.26000 -0.003
27.28000 4.143
27.30000 3.511
27.32000 0.884
27.34000 1.393
27.36000 2.225
27.38000 5.478
27.40000 1.876
27.42000 3.991
27.44000 5.100
27.46000 -0.361
27.48000 2.073
27.50000 6.145
27.52000 3.773
27.54000 1.727
27.56000 1.637
27.58000 3.219
27.60000 5.120
27.62000 2.265
27.64000 0.551
27.66000 0.531
27.68000 2.916
27.70000 6.983
27.72000 0.542
27.74000 1.535
27.76000 7.538
27.78000 5.089
27.80000 4.036
27.82000 2.908
27.84000 -1.749
27.86000 -1.391
27.88000 -1.743
27.90000 4.552
27.92000 3.664
27.94000 1.073
27.96000 -3.830
27.98000 -1.471
28.00000 2.794
28.02000 2.261
28.04000 1.362
28.06000 0.809
28.08000 0.576
28.10000 4.564
28.12000 2.398
28.14000 1.655
28.16000 3.732
28.18000 -0.743
28.20000 -0.730
28.22000 1.373
28.24000 3.174
28.26000 4.983
28.28000 0.654
28.30000 1.175
28.32000 1.227
28.34000 1.445
28.36000 5.368
28.38000 5.350
28.40000 2.521
28.42000 1.177
28.44000 0.406
28.46000 1.258
28.48000 -1.573
28.50000 3.177
28.52000 4.488
28.54000 5.325
28.56000 8.148
28.58000 2.985
28.60000 -0.919
28.62000 3.169
28.64000 7.632
28.66000 0.991
28.68000 -3.791
28.70000 0.483
28.72000 6.084
28.74000 8.756
28.76000 5.406
28.78000 1.842
28.80000 2.367
28.82000 3.844
28.84000 -0.415
28.86000 -0.189
28.88000 -1.058
28.90000 5.865
28.92000 2.926
28.94000 -2.332
28.96000 0.952
28.98000 7.319
29.00000 7.163
29.02000 2.591
29.04000 2.400
29.06000 5.244
29.08000 0.258
29.10000 4.411
29.12000 8.584
29.14000 1.528
29.16000 1.850
29.18000 6.304
29.20000 2.669
29.22000 1.573
29.24000 4.024
29.26000 1.647
29.28000 1.465
29.30000 1.603
29.32000 -1.546
29.34000 -0.646
29.36000 -0.133
29.38000 3.547
29.40000 1.535
29.42000 1.867
29.44000 3.169
29.46000 0.807
29.48000 1.424
29.50000 6.887
29.52000 3.918
29.54000 1.697
29.56000 0.237
29.58000 -0.485
29.60000 4.462
29.62000 -0.079
29.64000 -0.537
29.66000 0.061
29.68000 -3.740
29.70000 2.982
29.72000 11.809
29.74000 6.464
29.76000 9.050
29.78000 3.907
29.80000 2.424
29.82000 1.749
29.84000 2.140
29.86000 3.781
29.88000 2.714
29.90000 0.070
29.92000 0.254
29.94000 2.825
29.96000 2.667
29.98000 -1.006
30.00000 4.182
30.02000 5.267
30.04000 2.354
30.06000 -0.921
30.08000 4.940
30.10000 5.530
30.12000 3.759
30.14000 3.067
30.16000 5.393
30.18000 7.097
30.20000 2.500
30.22000 1.712
30.24000 -0.012
30.26000 0.491
30.28000 4.297
30.30000 1.425
30.32000 1.117
30.34000 0.492
30.36000 -3.584
30.38000 -1.624
30.40000 0.166
30.42000 2.674
30.44000 3.298
30.46000 1.086
30.48000 1.485
30.50000 0.318
30.52000 -0.749
30.54000 4.895
30.56000 -0.606
30.58000 -2.750
30.60000 2.201
30.62000 5.277
30.64000 6.358
30.66000 3.347
30.68000 -3.381
30.70000 1.541
30.72000 3.273
30.74000 -1.896
30.76000 -2.336
30.78000 3.718
30.80000 3.384
30.82000 3.308
30.84000 7.374
30.86000 6.954
30.88000 -0.900
30.90000 2.698
30.92000 1.778
30.94000 5.254
30.96000 5.805
30.98000 4.406
31.00000 1.092
31.02000 -1.872
31.04000 4.457
31.06000 2.151
31.08000 4.525
31.10000 2.040
31.12000 -2.393
31.14000 0.961
31.16000 0.677
31.18000 -1.777
31.20000 0.655
31.22000 -3.694
31.24000 -1.121
31.26000 1.557
31.28000 4.177
31.30000 7.457
31.32000 3.481
31.34000 2.420
31.36000 2.451
31.38000 0.465
31.40000 0.673
31.42000 1.987
31.44000 -0.931
31.46000 -0.871
31.48000 2.474
31.50000 0.326
31.52000 2.159
31.54000 2.359
31.56000 0.108
31.58000 -1.695
31.60000 6.607
31.62000 9.733
31.64000 4.861
31.66000 1.846
31.68000 0.032
31.70000 0.494
31.72000 -0.725
31.74000 3.972
31.76000 5.535
31.78000 2.144
31.80000 -1.481
31.82000 1.334
31.84000 1.112
31.86000 0.777
31.88000 -0.480
31.90000 2.785
31.92000 3.821
31.94000 6.317
31.96000 2.859
31.98000 5.538
32.00000 5.331
32.02000 8.911
32.04000 0.361
32.06000 -0.688
32.08000 -1.868
32.10000 -3.657
32.12000 3.489
32.14000 4.278
32.16000 -0.449
32.18000 -1.949
32.20000 0.370
32.22000 2.203
32.24000 0.488
32.26000 0.315
32.28000 -0.216
32.30000 -0.375
32.32000 3.645
32.34000 5.113
32.36000 6.574
32.38000 8.021
32.40000 4.725
32.42000 1.625
32.44000 2.270
32.46000 4.651
32.48000 0.098
32.50000 -3.644
32.52000 4.297
32.54000 1.517
32.56000 4.441
32.58000 3.830
32.60000 5.605
32.62000 2.262
32.64000 1.910
32.66000 -1.837
32.68000 1.031
32.70000 -0.770
32.72000 -1.239
32.74000 0.030
32.76000 -1.805
32.78000 0.969
32.80000 1.526
32.82000 0.956
32.84000 1.620
32.86000 3.460
32.88000 0.117
32.90000 0.963
32.92000 0.444
32.94000 5.362
32.96000 2.093
32.98000 2.814
33.00000 1.579
33.02000 1.135
33.04000 2.751
33.06000 2.767
33.08000 3.188
33.10000 0.765
33.12000 0.487
33.14000 8.146
33.16000 5.858
33.18000 6.052
33.20000 2.383
33.22000 -2.620
33.24000 -2.587
33.26000 -0.485
33.28000 0.747
33.30000 5.303
33.32000 4.646
33.34000 7.724
33.36000 5.998
33.38000 2.718
33.40000 1.839
33.42000 1.411
33.44000 -0.354
33.46000 1.292
33.48000 0.474
33.50000 -1.426
33.52000 3.406
33.54000 5.160
33.56000 3.927
33.58000 1.781
33.60000 3.351
33.62000 3.927
33.64000 3.327
33.66000 2.807
33.68000 2.337
33.70000 6.194
33.72000 2.016
33.74000 0.026
33.76000 0.068
33.78000 3.759
33.80000 4.061
33.82000 2.551
33.84000 0.034
33.86000 2.895
33.88000 6.255
33.90000 8.241
33.92000 5.108
33.94000 8.162
33.96000 8.292
33.98000 4.169
34.00000 1.418
34.02000 -0.394
34.04000 2.638
34.06000 9.864
34.08000 12.672
34.10000 9.801
34.12000 6.769
34.14000 0.374
34.16000 2.071
34.18000 2.059
34.20000 4.220
34.22000 5.668
34.24000 5.047
34.26000 9.471
34.28000 9.187
34.30000 8.960
34.32000 8.567
34.34000 3.248
34.36000 4.778
34.38000 6.740
34.40000 3.626
34.42000 2.575
34.44000 6.540
34.46000 5.035
34.48000 2.258
34.50000 3.652
34.52000 3.913
34.54000 0.219
34.56000 1.619
34.58000 4.548
34.60000 7.530
34.62000 1.615
34.64000 -2.194
34.66000 0.834
34.68000 7.038
34.70000 2.322
34.72000 3.084
34.74000 5.633
34.76000 0.393
34.78000 -0.727
34.80000 2.116
34.82000 4.742
34.84000 3.503
34.86000 0.067
34.88000 -3.610
34.90000 -1.032
34.92000 5.000
34.94000 8.883
34.96000 4.281
34.98000 -0.552
35.00000 2.743
35.02000 2.445
35.04000 3.934
35.06000 4.869
35.08000 6.585
35.10000 4.485
35.12000 -0.543
35.14000 -0.274
35.16000 1.688
35.18000 0.783
35.20000 1.235
35.22000 1.777
35.24000 -1.075
35.26000 6.297
35.28000 6.702
35.30000 1.371
35.32000 2.553
35.34000 2.903
35.36000 4.242
35.38000 3.156
35.40000 6.255
35.42000 6.124
35.44000 4.945
35.46000 5.875
35.48000 -0.800
35.50000 -1.837
35.52000 -3.608
35.54000 -1.804
35.56000 0.421
35.58000 1.478
35.60000 -0.576
35.62000 1.742
35.64000 8.648
35.66000 6.487
35.68000 2.535
35.70000 -0.060
35.72000 2.623
35.74000 6.882
35.76000 0.142
35.78000 -0.450
35.80000 -3.622
35.82000 0.770
35.84000 3.362
35.86000 2.722
35.88000 2.843
35.90000 3.266
35.92000 8.440
35.94000 4.485
35.96000 0.672
35.98000 -1.394
36.00000 -0.267
36.02000 0.752
36.04000 -3.303
36.06000 2.067
36.08000 6.104
36.10000 8.300
36.12000 2.543
36.14000 3.669
36.16000 1.451
36.18000 0.489
36.20000 5.804
36.22000 7.555
36.24000 7.513
36.26000 8.991
36.28000 8.244
36.30000 5.070
36.32000 5.462
36.34000 1.991
36.36000 -0.993
36.38000 0.655
36.40000 6.461
36.42000 8.552
36.44000 11.219
36.46000 8.868
36.48000 1.405
36.50000 5.974
36.52000 7.239
36.54000 5.103
36.56000 6.598
36.58000 7.066
36.60000 7.774
36.62000 10.680
36.64000 8.573
36.66000 7.795
36.68000 9.752
36.70000 9.506
36.72000 6.187
36.74000 5.195
36.76000 7.389
36.78000 9.475
36.80000 8.371
36.82000 11.529
36.84000 10.786
36.86000 11.302
36.88000 5.273
36.90000 5.319
36.92000 10.064
36.94000 9.197
36.96000 3.862
36.98000 3.509
37.00000 13.273
37.02000 11.227
37.04000 11.289
37.06000 15.789
37.08000 13.739
37.10000 12.516
37.12000 11.900
37.14000 14.872
37.16000 14.049
37.18000 14.544
37.20000 16.011
37.22000 13.158
37.24000 12.080
37.26000 17.532
37.28000 19.919
37.30000 18.356
37.32000 23.319
37.34000 25.315
37.36000 26.456
37.38000 19.714
37.40000 14.848
37.42000 15.346
37.44000 15.544
37.46000 19.535
37.48000 23.222
37.50000 23.681
37.52000 24.085
37.54000 28.226
37.56000 28.482
37.58000 27.142
37.60000 26.145
37.62000 23.363
37.64000 24.115
37.66000 22.707
37.68000 23.730
37.70000 24.008
37.72000 27.050
37.74000 27.837
37.76000 26.799
37.78000 27.452
37.80000 31.909
37.82000 37.430
37.84000 37.415
37.86000 34.765
37.88000 36.872
37.90000 34.702
37.92000 42.318
37.94000 45.750
37.96000 44.253
37.98000 39.255
38.00000 41.053
38.02000 47.407
38.04000 53.673
38.06000 53.738
38.08000 50.493
38.10000 53.053
38.12000 51.419
38.14000 57.690
38.16000 56.074
38.18000 57.484
38.20000 63.403
38.22000 65.294
38.24000 68.691
38.26000 75.192
38.28000 77.652
38.30000 81.424
38.32000 81.609
38.34000 78.361
38.36000 84.088
38.38000 90.862
38.40000 96.528
38.42000 99.897
38.44000 105.193
38.46000 117.707
38.48000 128.759
38.50000 135.197
38.52000 136.800
38.54000 145.677
38.56000 155.441
38.58000 161.123
38.60000 168.433
38.62000 178.348
38.64000 191.361
38.66000 204.702
38.68000 214.677
38.70000 230.947
38.72000 239.882
38.74000 240.944
38.76000 256.536
38.78000 262.510
38.80000 273.199
38.82000 287.236
38.84000 297.759
38.86000 306.742
38.88000 315.463
38.90000 320.548
38.92000 316.715
38.94000 315.594
38.96000 314.088
38.98000 314.768
39.00000 317.522
39.02000 318.661
39.04000 310.656
39.06000 302.677
39.08000 303.391
39.10000 285.680
39.12000 275.478
39.14000 260.025
39.16000 255.737
39.18000 246.794
39.20000 232.899
39.22000 217.395
39.24000 214.725
39.26000 211.367
39.28000 201.405
39.30000 180.407
39.32000 164.803
39.34000 165.448
39.36000 158.985
39.38000 147.889
39.40000 138.861
39.42000 128.086
39.44000 122.101
39.46000 114.229
39.48000 107.169
39.50000 105.852
39.52000 97.875
39.54000 91.085
39.56000 85.325
39.58000 82.661
39.60000 82.019
39.62000 78.089
39.64000 64.203
39.66000 57.416
39.68000 64.213
39.70000 60.143
39.72000 59.962
39.74000 58.360
39.76000 52.340
39.78000 49.915
39.80000 48.009
39.82000 42.634
39.84000 38.404
39.86000 36.374
39.88000 35.620
39.90000 32.276
39.92000 32.139
39.94000 28.978
39.96000 30.193
39.98000 33.663
40.00000 34.617
40.02000 30.768
40.04000 30.315
40.06000 30.449
40.08000 33.321
40.10000 32.749
40.12000 28.024
40.14000 27.497
40.16000 24.963
40.18000 22.118
40.20000 21.557
40.22000 21.836
40.24000 21.176
40.26000 20.269
40.28000 24.597
40.30000 23.000
40.32000 19.368
40.34000 17.522
40.36000 16.950
40.38000 15.214
40.40000 13.356
40.42000 12.667
40.44000 13.521
40.46000 14.209
40.48000 9.370
40.50000 12.244
40.52000 16.234
40.54000 14.196
40.56000 13.808
40.58000 12.664
40.60000 11.439
40.62000 10.966
40.64000 15.476
40.66000 17.542
40.68000 10.665
40.70000 9.375
40.72000 9.447
40.74000 11.855
40.76000 8.438
40.78000 7.786
40.80000 6.145
40.82000 6.492
40.84000 5.877
40.86000 7.661
40.88000 8.296
40.90000 9.204
40.92000 7.270
40.94000 5.823
40.96000 6.696
40.98000 5.446
41.00000 5.781
41.02000 7.470
41.04000 10.438
41.06000 4.171
41.08000 3.579
41.10000 2.668
41.12000 2.878
41.14000 6.853
41.16000 5.518
41.18000 6.772
41.20000 5.366
41.22000 3.877
41.24000 3.572
41.26000 3.934
41.28000 1.720
41.30000 5.075
41.32000 6.811
41.34000 4.872
41.36000 8.961
41.38000 7.054
41.40000 3.314
41.42000 2.263
41.44000 0.455
41.46000 -0.871
41.48000 -1.790
41.50000 -0.102
41.52000 6.541
41.54000 8.129
41.56000 2.796
41.58000 3.377
41.60000 1.665
41.62000 3.716
41.64000 4.205
41.66000 3.854
41.68000 3.871
41.70000 6.854
41.72000 6.378
41.74000 2.846
41.76000 2.555
41.78000 -1.213
41.80000 1.641
41.82000 4.134
41.84000 4.138
41.86000 2.954
41.88000 1.353
41.90000 0.408
41.92000 1.857
41.94000 4.722
41.96000 2.241
41.98000 2.212
42.00000 2.352
42.02000 2.987
42.04000 6.282
42.06000 5.682
42.08000 6.281
42.10000 2.740
42.12000 1.712
42.14000 6.660
42.16000 6.383
42.18000 0.338
42.20000 -0.486
42.22000 3.260
42.24000 6.449
42.26000 8.193
42.28000 8.982
42.30000 4.846
42.32000 0.834
42.34000 -3.341
42.36000 -1.579
42.38000 2.039
42.40000 4.018
42.42000 7.085
42.44000 6.526
42.46000 3.828
42.48000 7.314
42.50000 7.064
42.52000 4.423
42.54000 2.373
42.56000 1.534
42.58000 1.257
42.60000 0.514
42.62000 -0.625
42.64000 3.965
42.66000 2.304
42.68000 3.543
42.70000 4.176
42.72000 1.842
42.74000 1.207
42.76000 1.109
42.78000 1.949
42.80000 4.150
42.82000 3.563
42.84000 1.079
42.86000 1.757
42.88000 0.910
42.90000 2.019
42.92000 3.686
42.94000 4.153
42.96000 2.585
42.98000 0.219
43.00000 -0.018
43.02000 1.352
43.04000 6.312
43.06000 4.691
43.08000 2.570
43.10000 2.240
43.12000 -0.111
43.14000 -1.640
43.16000 -1.118
43.18000 -1.727
43.20000 -0.645
43.22000 2.886
43.24000 1.429
43.26000 0.848
43.28000 -0.665
43.30000 -3.295
43.32000 0.801
43.34000 -0.026
43.36000 -1.591
43.38000 -2.415
43.40000 -0.585
43.42000 -1.388
43.44000 2.534
43.46000 3.984
43.48000 7.424
43.50000 5.206
43.52000 1.500
43.54000 1.774
43.56000 2.276
43.58000 0.740
43.60000 -1.820
43.62000 -0.640
43.64000 -0.952
43.66000 0.192
43.68000 2.481
43.70000 5.388
43.72000 1.932
43.74000 0.971
43.76000 0.607
43.78000 -0.816
43.80000 3.042
43.82000 1.577
43.84000 1.025
43.86000 0.245
43.88000 -0.996
43.90000 -0.807
43.92000 -1.897
43.94000 4.197
43.96000 4.209
43.98000 3.982
44.00000 1.530
44.02000 -0.456
44.04000 0.622
44.06000 4.504
44.08000 1.222
44.10000 -2.549
44.12000 -0.106
44.14000 3.559
44.16000 5.006
44.18000 4.315
44.20000 2.937
44.22000 3.924
44.24000 7.358
44.26000 4.541
44.28000 7.212
44.30000 8.188
44.32000 10.098
44.34000 8.667
44.36000 11.256
44.38000 11.876
44.40000 14.817
44.42000 15.921
44.44000 14.447
44.46000 11.144
44.48000 13.550
44.50000 15.036
44.52000 17.033
44.54000 21.996
44.56000 21.265
44.58000 18.844
44.60000 21.704
44.62000 22.303
44.64000 22.446
44.66000 27.121
44.68000 25.051
44.70000 28.303
44.72000 31.234
44.74000 32.261
44.76000 32.585
44.78000 31.261
44.80000 33.109
44.82000 36.341
44.84000 35.392
44.86000 37.671
44.88000 40.426
44.90000 44.746
44.92000 44.968
44.94000 49.368
44.96000 53.527
44.98000 55.176
45.00000 57.946
45.02000 62.305
45.04000 65.664
45.06000 67.889
45.08000 74.155
45.10000 78.517
45.12000 79.370
45.14000 79.173
45.16000 80.513
45.18000 89.667
45.20000 98.922
45.22000 92.966
45.24000 95.710
45.26000 92.543
45.28000 98.714
45.30000 104.269
45.32000 106.307
45.34000 106.548
45.36000 105.951
45.38000 114.344
45.40000 112.944
45.42000 104.134
45.44000 100.648
45.46000 105.216
45.48000 105.831
45.50000 109.570
45.52000 110.055
45.54000 106.747
45.56000 103.364
45.58000 106.783
45.60000 97.815
45.62000 92.993
45.64000 96.697
45.66000 96.767
45.68000 90.194
45.70000 83.411
45.72000 84.178
45.74000 80.246
45.76000 78.691
45.78000 69.802
45.80000 63.874
45.82000 62.147
45.84000 58.488
45.86000 57.406
45.88000 56.764
45.90000 50.926
45.92000 47.241
45.94000 50.445
45.96000 44.988
45.98000 43.838
46.00000 36.332
46.02000 34.214
46.04000 33.074
46.06000 34.147
46.08000 32.625
46.10000 22.777
46.12000 24.231
46.14000 28.872
46.16000 25.575
46.18000 23.623
46.20000 18.825
46.22000 18.743
46.24000 16.239
46.26000 18.743
46.28000 17.773
46.30000 13.300
46.32000 15.264
46.34000 14.717
46.36000 10.582
46.38000 11.461
46.40000 10.544
46.42000 8.016
46.44000 5.266
46.46000 7.313
46.48000 13.578
46.50000 12.296
46.52000 9.627
46.54000 6.976
46.56000 6.176
46.58000 4.252
46.60000 1.933
46.62000 1.666
46.64000 1.447
46.66000 0.773
46.68000 3.109
46.70000 4.869
46.72000 6.549
46.74000 2.113
46.76000 2.592
46.78000 4.673
46.80000 3.671
46.82000 0.421
46.84000 0.699
46.86000 3.708
46.88000 2.630
46.90000 2.370
46.92000 0.131
46.94000 -1.993
46.96000 1.554
46.98000 5.049
47.00000 -1.812
47.02000 -2.893
47.04000 1.282
47.06000 2.636
47.08000 1.250
47.10000 0.038
47.12000 5.489
47.14000 3.824
47.16000 4.661
47.18000 5.679
47.20000 2.791
47.22000 1.324
47.24000 1.991
47.26000 3.364
47.28000 -1.468
47.30000 3.675
47.32000 3.094
47.34000 0.510
47.36000 1.856
47.38000 0.447
47.40000 1.087
47.42000 4.701
47.44000 10.527
47.46000 3.952
47.48000 2.598
47.50000 3.600
47.52000 6.703
47.54000 6.029
47.56000 6.777
47.58000 4.093
47.60000 2.646
47.62000 1.632
47.64000 0.497
47.66000 -2.801
47.68000 0.549
47.70000 0.829
47.72000 1.017
47.74000 0.788
47.76000 1.010
47.78000 1.711
47.80000 1.254
47.82000 1.154
47.84000 -0.509
47.86000 1.239
47.88000 2.231
47.90000 6.849
47.92000 7.958
47.94000 6.549
47.96000 4.896
47.98000 2.923
48.00000 -0.075
48.02000 4.425
48.04000 2.876
48.06000 2.433
48.08000 2.572
48.10000 5.630
48.12000 4.539
48.14000 1.130
48.16000 1.814
48.18000 3.126
48.20000 2.804
48.22000 0.793
48.24000 -0.131
48.26000 -2.516
48.28000 -2.773
48.30000 -1.089
48.32000 -1.155
48.34000 -0.003
48.36000 1.297
48.38000 7.473
48.40000 7.226
48.42000 2.614
48.44000 0.845
48.46000 5.255
48.48000 2.144
48.50000 0.364
48.52000 2.542
48.54000 6.597
48.56000 3.076
48.58000 0.870
48.60000 -0.259
48.62000 0.695
48.64000 0.198
48.66000 -2.321
48.68000 -1.762
48.70000 -0.868
48.72000 1.675
48.74000 -0.721
48.76000 -2.741
48.78000 -1.556
48.80000 1.170
48.82000 5.972
48.84000 1.707
48.86000 1.733
48.88000 5.663
48.90000 7.753
48.92000 5.732
48.94000 2.795
48.96000 2.497
48.98000 0.439
49.00000 0.432
49.02000 5.131
49.04000 7.789
49.06000 3.375
49.08000 4.625
49.10000 3.691
49.12000 3.407
49.14000 2.731
49.16000 -0.622
49.18000 2.177
49.20000 0.032
49.22000 -1.888
49.24000 -1.200
49.26000 0.105
49.28000 0.274
49.30000 -2.028
49.32000 1.841
49.34000 5.417
49.36000 2.040
49.38000 -2.687
49.40000 -0.988
49.42000 2.559
49.44000 2.610
49.46000 1.925
49.48000 4.243
49.50000 2.982
49.52000 2.157
49.54000 1.906
49.56000 0.230
49.58000 3.517
49.60000 3.941
49.62000 2.850
49.64000 3.244
49.66000 4.451
49.68000 6.114
49.70000 7.418
49.72000 2.477
49.74000 3.017
49.76000 6.392
49.78000 5.079
49.80000 3.667
49.82000 2.988
49.84000 4.503
49.86000 2.537
49.88000 5.494
49.90000 2.940
49.92000 4.898
49.94000 1.793
49.96000 -2.667
49.98000 0.497
50.00000 -2.316
50.02000 -0.705
50.04000 2.308
50.06000 4.656
50.08000 4.766
50.10000 0.293
50.12000 3.307
50.14000 6.752
50.16000 3.384
50.18000 1.216
50.20000 3.605
50.22000 5.187
50.24000 4.447
50.26000 4.888
50.28000 7.578
50.30000 8.494
50.32000 6.378
50.34000 0.154
50.36000 2.239
50.38000 6.695
50.40000 4.153
50.42000 3.561
50.44000 0.745
50.46000 0.431
50.48000 4.164
50.50000 4.964
50.52000 0.097
50.54000 2.371
50.56000 0.423
50.58000 -2.215
50.60000 -2.636
50.62000 1.711
50.64000 2.734
50.66000 4.611
50.68000 0.263
50.70000 1.485
50.72000 -0.641
50.74000 2.283
50.76000 4.072
50.78000 0.633
50.80000 1.430
50.82000 3.153
50.84000 0.701
50.86000 -0.191
50.88000 1.921
50.90000 3.452
50.92000 2.829
50.94000 4.686
50.96000 1.444
50.98000 -0.343
51.00000 1.986
51.02000 1.891
51.04000 3.079
51.06000 2.019
51.08000 2.213
51.10000 6.571
51.12000 6.206
51.14000 3.982
51.16000 5.845
51.18000 3.591
51.20000 4.531
51.22000 5.629
51.24000 1.941
51.26000 3.139
51.28000 5.114
51.30000 5.156
51.32000 4.331
51.34000 1.890
51.36000 2.239
51.38000 0.515
51.40000 2.794
51.42000 10.336
51.44000 4.679
51.46000 3.599
51.48000 2.747
51.50000 3.818
51.52000 2.545
51.54000 1.725
51.56000 2.216
51.58000 2.456
51.60000 2.132
51.62000 3.900
51.64000 2.407
51.66000 1.029
51.68000 3.407
51.70000 -0.822
51.72000 2.149
51.74000 -2.628
51.76000 -1.504
51.78000 1.516
51.80000 -0.611
51.82000 -2.586
51.84000 -0.320
51.86000 1.616
51.88000 0.359
51.90000 0.068
51.92000 0.485
51.94000 -0.943
51.96000 0.012
51.98000 7.079
52.00000 2.965
52.02000 -1.135
52.04000 2.107
52.06000 3.289
52.08000 5.140
52.10000 1.858
52.12000 -0.332
52.14000 0.604
52.16000 -1.423
52.18000 1.298
52.20000 1.142
52.22000 1.151
52.24000 3.954
52.26000 -0.275
52.28000 -0.403
52.30000 1.664
52.32000 3.070
52.34000 3.501
52.36000 2.267
52.38000 1.224
52.40000 0.343
52.42000 2.377
52.44000 4.065
52.46000 -2.595
52.48000 -1.300
52.50000 3.912
52.52000 6.211
52.54000 5.690
52.56000 3.803
52.58000 -0.486
52.60000 1.806
52.62000 5.490
52.64000 2.831
52.66000 2.800
52.68000 3.935
52.70000 4.836
52.72000 4.153
52.74000 4.914
52.76000 4.475
52.78000 1.805
52.80000 4.660
52.82000 4.889
52.84000 1.119
52.86000 -1.534
52.88000 -2.443
52.90000 -1.230
52.92000 2.356
52.94000 2.589
52.96000 -2.364
52.98000 0.026
53.00000 2.963
53.02000 3.460
53.04000 3.370
53.06000 1.494
53.08000 1.883
53.10000 0.892
53.12000 1.826
53.14000 4.761
53.16000 3.780
53.18000 3.227
53.20000 2.555
53.22000 1.826
53.24000 2.794
53.26000 1.078
53.28000 2.379
53.30000 1.343
53.32000 -0.669
53.34000 0.872
53.36000 4.090
53.38000 3.612
53.40000 3.284
53.42000 5.088
53.44000 5.113
53.46000 2.036
53.48000 0.348
53.50000 1.119
53.52000 5.113
53.54000 3.098
53.56000 0.348
53.58000 0.879
53.60000 0.955
53.62000 -2.566
53.64000 -0.557
53.66000 0.089
53.68000 2.315
53.70000 3.709
53.72000 5.206
53.74000 6.190
53.76000 4.414
53.78000 3.272
53.80000 4.030
53.82000 4.915
53.84000 4.087
53.86000 3.543
53.88000 2.379
53.90000 2.177
53.92000 1.023
53.94000 4.754
53.96000 5.560
53.98000 4.979
54.00000 1.036
54.02000 1.333
54.04000 -0.430
54.06000 -1.741
54.08000 2.926
54.10000 3.897
54.12000 5.802
54.14000 3.485
54.16000 -0.584
54.18000 -0.473
54.20000 -0.208
54.22000 4.501
54.24000 1.702
54.26000 -2.353
54.28000 -0.698
54.30000 1.604
54.32000 0.249
54.34000 0.056
54.36000 3.576
54.38000 5.418
54.40000 5.165
54.42000 4.226
54.44000 6.675
54.46000 8.211
54.48000 5.518
54.50000 2.329
54.52000 1.520
54.54000 -0.098
54.56000 1.939
54.58000 0.472
54.60000 3.752
54.62000 2.805
54.64000 4.346
54.66000 3.831
54.68000 -1.643
54.70000 -0.175
54.72000 3.848
54.74000 4.442
54.76000 5.040
54.78000 1.619
54.80000 3.237
54.82000 4.511
54.84000 1.953
54.86000 -0.157
54.88000 0.645
54.90000 3.684
54.92000 5.035
54.94000 4.546
54.96000 2.344
54.98000 -0.951
55.00000 0.134
55.02000 1.293
55.04000 5.109
55.06000 0.823
55.08000 2.780
55.10000 5.269
55.12000 -0.972
55.14000 -2.167
55.16000 1.706
55.18000 2.711
55.20000 3.971
55.22000 1.431
55.24000 -2.523
55.26000 -1.454
55.28000 0.850
55.30000 0.567
55.32000 3.778
55.34000 7.809
55.36000 5.951
55.38000 6.372
55.40000 5.797
55.42000 7.188
55.44000 12.425
55.46000 8.476
55.48000 4.886
55.50000 -2.509
55.52000 -1.028
55.54000 0.996
55.56000 6.757
55.58000 6.189
55.60000 2.589
55.62000 7.162
55.64000 8.720
55.66000 6.948
55.68000 7.410
55.70000 3.951
55.72000 3.900
55.74000 4.733
55.76000 1.556
55.78000 3.218
55.80000 1.809
55.82000 -1.081
55.84000 0.941
55.86000 3.266
55.88000 6.899
55.90000 6.746
55.92000 3.395
55.94000 -1.498
55.96000 0.433
55.98000 0.301
56.00000 0.417
56.02000 1.487
56.04000 5.578
56.06000 6.208
56.08000 6.825
56.10000 5.395
56.12000 6.068
56.14000 7.781
56.16000 6.545
56.18000 3.449
56.20000 3.620
56.22000 3.577
56.24000 3.208
56.26000 2.981
56.28000 4.219
56.30000 4.763
56.32000 6.423
56.34000 3.816
56.36000 2.593
56.38000 4.822
56.40000 4.017
56.42000 3.761
56.44000 2.757
56.46000 1.004
56.48000 2.380
56.50000 5.876
56.52000 5.731
56.54000 3.865
56.56000 3.213
56.58000 3.642
56.60000 2.804
56.62000 2.695
56.64000 2.970
56.66000 3.777
56.68000 5.918
56.70000 2.128
56.72000 2.065
56.74000 4.471
56.76000 4.577
56.78000 2.775
56.80000 0.787
56.82000 -0.264
56.84000 4.290
56.86000 3.233
56.88000 2.040
56.90000 -2.458
56.92000 -0.910
56.94000 6.602
56.96000 5.080
56.98000 3.046
57.00000 6.105
57.02000 7.510
57.04000 3.518
57.06000 5.653
57.08000 4.521
57.10000 1.475
57.12000 3.772
57.14000 4.844
57.16000 4.467
57.18000 2.927
57.20000 -0.705
57.22000 -2.463
57.24000 3.270
57.26000 1.131
57.28000 0.271
57.30000 3.660
57.32000 2.202
57.34000 0.305
57.36000 -0.909
57.38000 4.248
57.40000 3.283
57.42000 2.085
57.44000 3.217
57.46000 1.700
57.48000 0.451
57.50000 -1.459
57.52000 -0.627
57.54000 0.314
57.56000 4.350
57.58000 4.920
57.60000 3.450
57.62000 5.381
57.64000 1.069
57.66000 1.202
57.68000 3.889
57.70000 2.168
57.72000 2.888
57.74000 2.688
57.76000 3.526
57.78000 2.109
57.80000 2.001
57.82000 4.208
57.84000 3.050
57.86000 3.843
57.88000 4.013
57.90000 1.704
57.92000 1.775
57.94000 2.434
57.96000 3.074
57.98000 2.577
58.00000 2.738
58.02000 2.568
58.04000 2.182
58.06000 4.679
58.08000 6.662
58.10000 3.090
58.12000 1.997
58.14000 4.790
58.16000 5.830
58.18000 1.326
58.20000 0.738
58.22000 -2.445
58.24000 0.313
58.26000 2.459
58.28000 4.878
58.30000 6.338
58.32000 1.515
58.34000 3.666
58.36000 4.385
58.38000 -0.300
58.40000 -0.794
58.42000 4.086
58.44000 5.749
58.46000 3.771
58.48000 1.548
58.50000 -0.150
58.52000 2.444
58.54000 4.027
58.56000 4.515
58.58000 3.238
58.60000 4.792
58.62000 5.750
58.64000 2.884
58.66000 2.977
58.68000 2.544
58.70000 0.342
58.72000 0.988
58.74000 2.082
58.76000 2.559
58.78000 2.572
58.80000 4.342
58.82000 4.594
58.84000 3.020
58.86000 1.126
58.88000 0.910
58.90000 -2.407
58.92000 -0.411
58.94000 1.175
58.96000 2.268
58.98000 2.164
59.00000 3.486
59.02000 1.427
59.04000 1.408
59.06000 2.306
59.08000 0.963
59.10000 -0.632
59.12000 0.137
59.14000 0.944
59.16000 1.393
59.18000 3.111
59.20000 1.679
59.22000 -0.597
59.24000 1.431
59.26000 3.354
59.28000 -1.241
59.30000 -1.159
59.32000 3.089
59.34000 -1.508
59.36000 -1.609
59.38000 3.864
59.40000 2.484
59.42000 4.122
59.44000 2.604
59.46000 5.439
59.48000 3.801
59.50000 2.014
59.52000 4.105
59.54000 0.481
59.56000 0.965
59.58000 4.414
59.60000 3.976
59.62000 2.705
59.64000 1.738
59.66000 2.468
59.68000 0.710
59.70000 3.506
59.72000 2.075
59.74000 1.211
59.76000 1.470
59.78000 2.125
59.80000 -0.772
59.82000 2.615
59.84000 4.420
59.86000 4.638
59.88000 5.569
59.90000 4.070
59.92000 1.712
59.94000 1.708
59.96000 0.277
59.98000 0.564
60.00000 -2.376
60.02000 2.027
60.04000 3.726
60.06000 3.744
60.08000 3.988
60.10000 0.116
60.12000 2.145
60.14000 4.838
60.16000 3.500
60.18000 0.851
60.20000 0.260
60.22000 -1.828
60.24000 -2.320
60.26000 1.832
60.28000 0.122
60.30000 -1.029
60.32000 0.034
60.34000 1.162
60.36000 -0.913
60.38000 -0.904
60.40000 2.022
60.42000 1.920
60.44000 1.004
60.46000 -2.379
60.48000 -1.733
60.50000 -0.504
60.52000 -1.639
60.54000 -0.321
60.56000 -0.234
60.58000 -1.231
60.60000 0.665
60.62000 1.287
60.64000 4.008
60.66000 5.477
60.68000 3.427
60.70000 -0.689
60.72000 2.194
60.74000 -1.346
60.76000 -1.068
60.78000 2.874
60.80000 0.661
60.82000 3.748
60.84000 1.480
60.86000 -0.043
60.88000 2.909
60.90000 -2.138
60.92000 0.738
60.94000 0.332
60.96000 -0.133
60.98000 -0.390
61.00000 0.413
61.02000 -0.486
61.04000 -1.442
61.06000 1.023
61.08000 2.616
61.10000 3.683
61.12000 5.796
61.14000 4.504
61.16000 2.288
61.18000 1.795
61.20000 0.354
61.22000 2.248
61.24000 3.714
61.26000 6.505
61.28000 0.931
61.30000 1.323
61.32000 1.563
61.34000 -0.661
61.36000 0.877
61.38000 2.013
61.40000 1.216
61.42000 0.696
61.44000 2.016
61.46000 0.783
61.48000 2.042
61.50000 2.229
61.52000 0.603
61.54000 -2.160
61.56000 -0.175
61.58000 0.709
61.60000 4.192
61.62000 2.141
61.64000 2.369
61.66000 0.196
61.68000 1.206
61.70000 2.471
61.72000 1.056
61.74000 1.712
61.76000 2.412
61.78000 3.928
61.80000 0.527
61.82000 -2.326
61.84000 -0.377
61.86000 4.403
61.88000 4.753
61.90000 5.667
61.92000 1.225
61.94000 2.304
61.96000 2.917
61.98000 5.551
62.00000 2.594
62.02000 5.108
62.04000 4.082
62.06000 3.665
62.08000 4.421
62.10000 1.924
62.12000 0.939
62.14000 -0.615
62.16000 -2.304
62.18000 -1.164
62.20000 3.306
62.22000 4.355
62.24000 1.582
62.26000 -2.259
62.28000 -0.766
62.30000 4.919
62.32000 1.864
62.34000 -2.149
62.36000 -0.882
62.38000 0.350
62.40000 0.979
62.42000 2.950
62.44000 2.866
62.46000 2.486
62.48000 2.370
62.50000 1.115
62.52000 -0.275
62.54000 4.228
62.56000 1.087
62.58000 3.825
62.60000 5.365
62.62000 3.418
62.64000 2.026
62.66000 2.315
62.68000 4.517
62.70000 5.429
62.72000 3.410
62.74000 3.877
62.76000 2.795
62.78000 3.967
62.80000 6.368
62.82000 4.348
62.84000 3.341
62.86000 1.076
62.88000 0.654
62.90000 1.838
62.92000 3.329
62.94000 3.181
62.96000 1.099
62.98000 4.352
63.00000 4.308
63.02000 2.348
63.04000 1.333
63.06000 3.381
63.08000 5.839
63.10000 3.294
63.12000 1.690
63.14000 1.749
63.16000 1.414
63.18000 0.278
63.20000 1.302
63.22000 -0.140
63.24000 0.714
63.26000 0.495
63.28000 1.570
63.30000 5.175
63.32000 3.688
63.34000 -0.650
63.36000 -2.288
63.38000 2.315
63.40000 4.094
63.42000 3.563
63.44000 2.216
63.46000 1.935
63.48000 2.779
63.50000 4.354
63.52000 2.728
63.54000 -0.929
63.56000 -0.481
63.58000 2.728
63.60000 2.681
63.62000 3.068
63.64000 5.856
63.66000 3.543
63.68000 3.532
63.70000 2.305
63.72000 0.576
63.74000 -1.743
63.76000 1.982
63.78000 -1.389
63.80000 -2.284
63.82000 0.256
63.84000 0.709
63.86000 2.578
63.88000 3.661
63.90000 1.538
63.92000 3.010
63.94000 3.811
63.96000 0.697
63.98000 -0.212
64.00000 3.616
64.02000 3.038
64.04000 0.161
64.06000 -2.278
64.08000 -2.159
64.10000 -0.211
64.12000 1.808
64.14000 2.915
64.16000 3.156
64.18000 3.475
64.20000 3.262
64.22000 -0.776
64.24000 1.787
64.26000 2.276
64.28000 2.622
64.30000 3.791
64.32000 5.790
64.34000 2.479
64.36000 0.422
64.38000 2.865
64.40000 4.796
64.42000 4.374
64.44000 5.405
64.46000 3.065
64.48000 0.962
64.50000 -2.275
64.52000 -1.455
64.54000 4.121
64.56000 5.853
64.58000 5.272
64.60000 3.962
64.62000 2.451
64.64000 1.978
64.66000 0.855
64.68000 2.480
64.70000 1.384
64.72000 3.939
64.74000 5.517
64.76000 3.893
64.78000 1.653
64.80000 2.224
64.82000 1.479
64.84000 1.848
64.86000 2.107
64.88000 3.298
64.90000 4.321
64.92000 5.683
64.94000 3.781
64.96000 2.596
64.98000 2.980
65.00000 1.041
65.02000 2.656
65.04000 2.323
65.06000 3.383
65.08000 2.969
65.10000 1.810
65.12000 -0.626
65.14000 -1.944
65.16000 -1.279
65.18000 1.950
65.20000 3.321
65.22000 1.959
65.24000 3.418
65.26000 -0.452
65.28000 2.838
65.30000 3.161
65.32000 2.052
65.34000 -2.022
65.36000 0.496
65.38000 1.689
65.40000 2.028
65.42000 2.877
65.44000 3.742
65.46000 3.904
65.48000 3.034
65.50000 3.144
65.52000 0.737
65.54000 2.541
65.56000 2.869
65.58000 2.998
65.60000 2.796
65.62000 1.151
65.64000 7.304
65.66000 7.123
65.68000 4.487
65.70000 1.762
65.72000 1.634
65.74000 3.811
65.76000 4.498
65.78000 2.142
65.80000 5.757
65.82000 7.153
65.84000 7.009
65.86000 6.834
65.88000 6.557
65.90000 7.323
65.92000 7.428
65.94000 8.316
65.96000 6.341
65.98000 5.979
66.00000 3.714
66.02000 8.793
66.04000 11.545
66.06000 11.257
66.08000 9.070
66.10000 6.836
66.12000 5.115
66.14000 5.761
66.16000 7.430
66.18000 3.937
66.20000 4.156
66.22000 5.185
66.24000 6.740
66.26000 8.757
66.28000 5.763
66.30000 2.315
66.32000 3.948
66.34000 2.744
66.36000 4.102
66.38000 4.888
66.40000 2.984
66.42000 3.150
66.44000 4.199
66.46000 3.436
66.48000 2.206
66.50000 2.283
66.52000 4.907
66.54000 2.884
66.56000 -0.098
66.58000 0.819
66.60000 3.897
66.62000 4.991
66.64000 1.763
66.66000 1.808
66.68000 2.679
66.70000 2.655
66.72000 1.505
66.74000 2.582
66.76000 1.637
66.78000 2.234
66.80000 0.257
66.82000 2.879
66.84000 -0.487
66.86000 -1.012
66.88000 -0.274
66.90000 1.686
66.92000 0.866
66.94000 -1.890
66.96000 -0.223
66.98000 0.787
67.00000 3.392
67.02000 1.709
67.04000 5.937
67.06000 2.234
67.08000 3.189
67.10000 1.198
67.12000 1.219
67.14000 1.482
67.16000 0.904
67.18000 -0.095
67.20000 0.516
67.22000 -1.050
67.24000 -2.258
67.26000 1.085
67.28000 0.891
67.30000 1.096
67.32000 2.087
67.34000 0.222
67.36000 -1.261
67.38000 -0.528
67.40000 0.884
67.42000 2.118
67.44000 0.377
67.46000 0.503
67.48000 0.646
67.50000 0.391
67.52000 2.250
67.54000 2.648
67.56000 -0.415
67.58000 -0.752
67.60000 0.293
67.62000 -0.422
67.64000 -2.236
67.66000 -1.645
67.68000 0.477
67.70000 1.101
67.72000 -1.320
67.74000 1.900
67.76000 0.772
67.78000 -0.073
67.80000 -0.398
67.82000 -1.738
67.84000 0.141
67.86000 2.482
67.88000 2.841
67.90000 -0.790
67.92000 1.314
67.94000 0.254
67.96000 0.052
67.98000 -1.239
68.00000 -2.156
68.02000 0.340
68.04000 0.722
68.06000 0.909
68.08000 -0.552
68.10000 0.355
68.12000 0.034
68.14000 -2.201
68.16000 -0.512
68.18000 0.691
68.20000 0.803
68.22000 3.726
68.24000 3.433
68.26000 0.848
68.28000 0.420
68.30000 -1.484
68.32000 -1.757
68.34000 -2.196
68.36000 -1.127
68.38000 -0.925
68.40000 2.080
68.42000 2.049
68.44000 -0.407
68.46000 -1.992
68.48000 -0.269
68.50000 3.244
68.52000 2.610
68.54000 1.673
68.56000 -0.540
68.58000 -1.139
68.60000 1.076
68.62000 0.021
68.64000 -0.785
68.66000 -2.187
68.68000 0.383
68.70000 1.102
68.72000 0.349
68.74000 -0.014
68.76000 2.324
68.78000 2.433
68.80000 -0.183
68.82000 1.173
68.84000 3.168
68.86000 1.209
68.88000 1.718
68.90000 2.202
68.92000 2.055
68.94000 -1.411
68.96000 0.022
68.98000 1.956
69.00000 -0.403
69.02000 0.594
69.04000 0.188
69.06000 -2.170
69.08000 0.378
69.10000 -1.197
69.12000 -1.052
69.14000 1.272
69.16000 0.398
69.18000 -1.209
69.20000 0.537
69.22000 2.137
69.24000 -0.635
69.26000 -0.996
69.28000 -0.705
69.30000 0.067
69.32000 -1.131
69.34000 0.209
69.36000 0.392
69.38000 3.013
69.40000 2.428
69.42000 0.229
69.44000 1.549
69.46000 -0.833
69.48000 0.070
69.50000 -0.233
69.52000 -1.443
69.54000 2.454
69.56000 2.423
69.58000 -0.508
69.60000 1.853
69.62000 2.461
69.64000 -0.813
69.66000 -1.555
69.68000 1.173
69.70000 0.220
69.72000 0.783
69.74000 0.076
69.76000 1.265
69.78000 1.314
69.80000 2.655
69.82000 0.508
69.84000 -0.314
69.86000 -0.225
69.88000 -2.132
69.90000 -1.247
69.92000 -1.425
69.94000 0.227
69.96000 1.612
69.98000 0.842
70.00000 2.661
70.02000 1.601
70.04000 3.315
70.06000 3.693
70.08000 2.708
70.10000 -0.251
70.12000 -1.681
70.14000 -0.173
70.16000 2.456
70.18000 1.532
70.20000 -0.128
70.22000 2.716
70.24000 -0.205
70.26000 -2.101
70.28000 -0.459
70.30000 1.098
70.32000 2.530
70.34000 3.457
70.36000 1.262
70.38000 0.301
70.40000 2.478
70.42000 2.859
70.44000 -0.404
70.46000 0.858
70.48000 2.000
70.50000 4.052
70.52000 5.071
70.54000 2.722
70.56000 -0.170
70.58000 3.576
70.60000 6.508
70.62000 3.930
70.64000 1.513
70.66000 0.338
70.68000 2.385
70.70000 3.279
70.72000 3.213
70.74000 3.084
70.76000 1.668
70.78000 3.085
70.80000 2.623
70.82000 4.951
70.84000 3.324
70.86000 0.244
70.88000 -2.061
70.90000 1.751
70.92000 2.451
70.94000 -0.088
70.96000 2.561
70.98000 3.767
71.00000 3.228
71.02000 2.478
71.04000 1.695
71.06000 -0.260
71.08000 -0.540
71.10000 2.857
71.12000 4.586
71.14000 2.196
71.16000 0.830
71.18000 -0.063
71.20000 1.508
71.22000 2.428
71.24000 2.653
71.26000 4.965
71.28000 2.974
71.30000 -1.266
71.32000 1.873
71.34000 2.224
71.36000 0.737
71.38000 0.086
71.40000 1.279
71.42000 1.250
71.44000 3.937
71.46000 1.826
71.48000 0.582
71.50000 0.368
71.52000 1.756
71.54000 0.855
71.56000 2.890
71.58000 1.862
71.60000 0.440
71.62000 1.819
71.64000 1.922
71.66000 0.309
71.68000 1.188
71.70000 2.658
71.72000 1.597
71.74000 0.672
71.76000 -1.294
71.78000 0.611
71.80000 1.247
71.82000 1.363
71.84000 3.258
71.86000 0.678
71.88000 -1.285
71.90000 -0.568
71.92000 0.561
71.94000 -1.051
71.96000 0.420
71.98000 4.338
72.00000 3.034
72.02000 1.073
72.04000 -0.235
72.06000 -0.034
72.08000 -1.560
72.10000 -0.502
72.12000 1.811
72.14000 1.429
72.16000 -0.678
72.18000 -0.949
72.20000 1.815
72.22000 -0.205
72.24000 -1.852
72.26000 -2.051
72.28000 0.725
72.30000 1.945
72.32000 3.373
72.34000 2.211
72.36000 4.204
72.38000 1.765
72.40000 2.860
72.42000 3.300
72.44000 3.067
72.46000 2.561
72.48000 0.368
72.50000 1.897
72.52000 -0.939
72.54000 -0.225
72.56000 1.790
72.58000 4.543
72.60000 3.734
72.62000 2.090
72.64000 -1.936
72.66000 1.182
72.68000 1.985
72.70000 1.858
72.72000 2.037
72.74000 1.280
72.76000 -0.745
72.78000 2.257
72.80000 2.279
72.82000 1.389
72.84000 1.147
72.86000 2.214
72.88000 -1.237
72.90000 -2.036
72.92000 -0.374
72.94000 -0.860
72.96000 -1.871
72.98000 -0.259
73.00000 -0.301
73.02000 0.178
73.04000 -0.182
73.06000 0.519
73.08000 1.605
73.10000 1.059
73.12000 1.471
73.14000 -0.523
73.16000 2.263
73.18000 2.215
73.20000 1.187
73.22000 3.707
73.24000 4.110
73.26000 2.585
73.28000 3.397
73.30000 4.648
73.32000 4.176
73.34000 2.242
73.36000 1.648
73.38000 -0.789
73.40000 -0.320
73.42000 2.801
73.44000 2.477
73.46000 0.049
73.48000 0.344
73.50000 0.828
73.52000 1.445
73.54000 0.698
73.56000 -2.033
73.58000 -0.562
73.60000 2.739
73.62000 1.101
73.64000 -0.317
73.66000 -2.017
73.68000 2.006
73.70000 2.683
73.72000 2.753
73.74000 -0.317
73.76000 -0.001
73.78000 -0.259
73.80000 -0.926
73.82000 1.619
73.84000 0.715
73.86000 1.911
73.88000 0.372
73.90000 1.372
73.92000 0.469
73.94000 -0.189
73.96000 0.163
73.98000 -1.194
74.00000 0.707
74.02000 0.579
74.04000 1.392
74.06000 -1.641
74.08000 -1.600
74.10000 -0.325
74.12000 -0.812
74.14000 -0.203
74.16000 -0.268
74.18000 0.785
74.20000 1.621
74.22000 0.241
74.24000 -1.895
74.26000 0.994
74.28000 -0.031
74.30000 1.775
74.32000 -1.666
74.34000 -1.979
74.36000 3.985
74.38000 1.585
74.40000 0.282
74.42000 -0.499
74.44000 2.773
74.46000 0.418
74.48000 1.322
74.50000 3.019
74.52000 -1.882
74.54000 -2.048
74.56000 2.058
74.58000 3.182
74.60000 0.230
74.62000 1.095
74.64000 1.186
74.66000 1.201
74.68000 1.066
74.70000 2.087
74.72000 0.799
74.74000 -0.063
74.76000 1.753
74.78000 4.293
74.80000 0.641
74.82000 1.694
74.84000 0.254
74.86000 -1.832
74.88000 -0.518
74.90000 1.224
74.92000 -0.269
74.94000 0.971
74.96000 0.189
74.98000 -1.053
75.00000 0.613
75.02000 -1.069
75.04000 0.474
75.06000 0.070
75.08000 0.359
75.10000 0.235
75.12000 -2.046
75.14000 -0.204
75.16000 0.176
75.18000 2.326
75.20000 1.245
75.22000 1.447
75.24000 1.194
75.26000 -1.085
75.28000 -0.830
75.30000 4.645
75.32000 2.603
75.34000 2.345
75.36000 1.262
75.38000 -0.716
75.40000 1.407
75.42000 2.333
75.44000 3.572
75.46000 2.280
75.48000 -0.205
75.50000 -2.040
75.52000 0.901
75.54000 2.089
75.56000 2.285
75.58000 3.232
75.60000 5.006
75.62000 5.100
75.64000 4.207
75.66000 4.879
75.68000 4.178
75.70000 2.640
75.72000 1.821
75.74000 0.755
75.76000 1.774
75.78000 4.567
75.80000 4.276
75.82000 4.938
75.84000 2.195
75.86000 -0.314
75.88000 1.033
75.90000 0.000
75.92000 1.551
75.94000 0.988
75.96000 3.082
75.98000 3.214
76.00000 2.490
76.02000 4.687
76.04000 3.663
76.06000 1.612
76.08000 1.813
76.10000 2.865
76.12000 0.159
76.14000 0.287
76.16000 -1.488
76.18000 -2.007
76.20000 1.671
76.22000 2.102
76.24000 0.719
76.26000 -1.593
76.28000 0.509
76.30000 2.498
76.32000 4.727
76.34000 4.134
76.36000 2.889
76.38000 2.588
76.40000 5.200
76.42000 4.044
76.44000 -0.067
76.46000 0.838
76.48000 1.396
76.50000 1.055
76.52000 2.520
76.54000 0.776
76.56000 -0.621
76.58000 -0.659
76.60000 1.813
76.62000 4.507
76.64000 1.421
76.66000 2.741
76.68000 3.195
76.70000 2.827
76.72000 0.879
76.74000 2.405
76.76000 4.428
76.78000 3.429
76.80000 3.342
76.82000 2.005
76.84000 2.102
76.86000 1.820
76.88000 1.100
76.90000 2.027
76.92000 1.654
76.94000 -0.514
76.96000 1.865
76.98000 2.469
77.00000 -1.163
77.02000 -1.443
77.04000 0.763
77.06000 2.804
77.08000 -1.753
77.10000 -0.341
77.12000 1.679
77.14000 4.224
77.16000 2.903
77.18000 0.992
77.20000 2.851
77.22000 -0.485
77.24000 0.457
77.26000 3.218
77.28000 3.796
77.30000 3.153
77.32000 -0.610
77.34000 2.256
77.36000 1.928
77.38000 -0.657
77.40000 1.140
77.42000 2.493
77.44000 0.837
77.46000 -0.649
77.48000 4.133
77.50000 4.155
77.52000 1.744
77.54000 -0.262
77.56000 0.682
77.58000 2.621
77.60000 0.390
77.62000 0.949
77.64000 1.442
77.66000 2.112
77.68000 0.129
77.70000 0.415
77.72000 -1.153
77.74000 1.298
77.76000 1.718
77.78000 -0.974
77.80000 1.577
77.82000 6.220
77.84000 3.137
77.86000 2.737
77.88000 2.391
77.90000 5.328
77.92000 3.472
77.94000 -1.730
77.96000 -2.140
77.98000 -0.700
78.00000 4.205
78.02000 4.832
78.04000 5.909
78.06000 1.922
78.08000 3.568
78.10000 3.680
78.12000 1.900
78.14000 1.945
78.16000 1.298
78.18000 2.089
78.20000 1.629
78.22000 2.178
78.24000 1.914
78.26000 3.843
78.28000 -1.290
78.30000 -0.182
78.32000 2.214
78.34000 0.330
78.36000 -1.347
78.38000 0.523
78.40000 1.791
78.42000 2.754
78.44000 -0.623
78.46000 3.677
78.48000 5.851
78.50000 6.338
78.52000 4.098
78.54000 3.951
78.56000 7.313
78.58000 8.268
78.60000 5.613
78.62000 2.966
78.64000 3.576
78.66000 6.404
78.68000 9.704
78.70000 8.877
78.72000 9.298
78.74000 5.873
78.76000 8.792
78.78000 6.759
78.80000 10.209
78.82000 6.812
78.84000 8.641
78.86000 7.601
78.88000 9.876
78.90000 14.441
78.92000 18.809
78.94000 16.464
78.96000 12.255
78.98000 11.091
79.00000 12.120
79.02000 16.922
79.04000 17.178
79.06000 17.681
79.08000 21.333
79.10000 17.321
79.12000 17.925
79.14000 18.130
79.16000 16.310
79.18000 19.365
79.20000 23.234
79.22000 20.877
79.24000 24.361
79.26000 24.562
79.28000 23.278
79.30000 20.280
79.32000 22.592
79.34000 25.863
79.36000 28.026
79.38000 25.027
79.40000 27.845
79.42000 28.889
79.44000 29.837
79.46000 26.562
79.48000 25.978
79.50000 27.793
79.52000 28.537
79.54000 32.788
79.56000 29.599
79.58000 27.134
79.60000 25.798
79.62000 27.275
79.64000 27.705
79.66000 29.475
79.68000 27.419
79.70000 24.694
79.72000 28.727
79.74000 31.287
79.76000 29.475
79.78000 25.578
79.80000 24.360
79.82000 26.417
79.84000 27.056
79.86000 26.194
79.88000 22.476
79.90000 20.569
79.92000 16.785
79.94000 16.610
79.96000 19.743
79.98000 19.875
80.00000 20.972
80.02000 17.059
80.04000 14.191
80.06000 13.775
80.08000 14.552
80.10000 14.240
80.12000 14.165
80.14000 12.292
80.16000 14.180
80.18000 11.286
80.20000 11.184
80.22000 8.595
80.24000 9.588
80.26000 7.769
80.28000 6.672
80.30000 3.930
80.32000 6.883
80.34000 6.094
80.36000 6.907
80.38000 8.780
80.40000 8.556
80.42000 6.304
80.44000 5.990
80.46000 3.095
80.48000 2.827
80.50000 3.257
80.52000 4.801
80.54000 4.190
80.56000 9.142
80.58000 6.867
80.60000 1.924
80.62000 -0.083
80.64000 1.290
80.66000 1.228
80.68000 3.021
80.70000 4.003
80.72000 3.217
80.74000 2.013
80.76000 2.854
80.78000 2.505
80.80000 1.148
80.82000 1.088
80.84000 3.003
80.86000 2.460
80.88000 3.539
80.90000 -0.251
80.92000 -2.309
80.94000 -1.554
80.96000 1.057
80.98000 2.602
81.00000 4.441
81.02000 1.578
81.04000 2.917
81.06000 1.867
81.08000 0.654
81.10000 -0.390
81.12000 4.354
81.14000 4.273
81.16000 2.104
81.18000 3.235
81.20000 1.996
81.22000 4.102
81.24000 2.251
81.26000 -0.758
81.28000 -0.340
81.30000 -0.279
81.32000 0.450
81.34000 1.975
81.36000 1.941
81.38000 -2.317
81.40000 2.288
81.42000 2.265
81.44000 2.811
81.46000 2.359
81.48000 -1.634
81.50000 -1.873
81.52000 0.711
81.54000 3.684
81.56000 2.284
81.58000 5.332
81.60000 3.159
81.62000 -0.632
81.64000 -0.703
81.66000 -2.320
81.68000 0.193
81.70000 3.498
81.72000 4.382
81.74000 4.338
81.76000 2.712
81.78000 2.123
81.80000 1.963
81.82000 2.731
81.84000 6.327
81.86000 3.800
81.88000 3.375
81.90000 3.738
81.92000 5.429
81.94000 7.498
81.96000 5.305
81.98000 6.554
82.00000 3.521
82.02000 1.655
82.04000 1.363
82.06000 0.911
82.08000 1.481
82.10000 5.318
82.12000 7.938
82.14000 9.768
82.16000 5.719
82.18000 8.474
82.20000 3.799
82.22000 5.198
82.24000 5.257
82.26000 8.966
82.28000 5.085
82.30000 5.088
82.32000 5.822
82.34000 7.517
82.36000 8.010
82.38000 6.424
82.40000 11.826
82.42000 13.533
82.44000 8.431
82.46000 5.235
82.48000 9.369
82.50000 8.119
82.52000 9.141
82.54000 11.741
82.56000 12.028
82.58000 10.529
82.60000 9.646
82.62000 11.816
82.64000 12.421
82.66000 10.683
82.68000 13.792
82.70000 13.047
82.72000 15.385
82.74000 15.717
82.76000 16.311
82.78000 19.845
82.80000 19.463
82.82000 20.985
82.84000 19.159
82.86000 20.314
82.88000 22.773
82.90000 21.815
82.92000 21.500
82.94000 22.529
82.96000 26.234
82.98000 29.938
83.00000 33.792
83.02000 30.997
83.04000 31.704
83.06000 31.844
83.08000 34.496
83.10000 39.675
83.12000 39.384
83.14000 38.445
83.16000 43.788
83.18000 41.728
83.20000 38.254
83.22000 41.261
83.24000 44.231
83.26000 51.062
83.28000 54.706
83.30000 52.407
83.32000 50.578
83.34000 57.976
83.36000 52.944
83.38000 57.723
83.40000 54.897
83.42000 57.179
83.44000 62.791
83.46000 63.954
83.48000 63.118
83.50000 59.757
83.52000 60.154
83.54000 64.699
83.56000 63.539
83.58000 60.619
83.60000 58.057
83.62000 65.885
83.64000 62.856
83.66000 58.457
83.68000 59.235
83.70000 61.247
83.72000 60.310
83.74000 56.984
83.76000 55.492
83.78000 58.555
83.80000 55.777
83.82000 54.056
83.84000 56.915
83.86000 55.953
83.88000 54.867
83.90000 46.701
83.92000 43.669
83.94000 40.845
83.96000 41.583
83.98000 42.054
84.00000 38.192
84.02000 43.959
84.04000 40.584
84.06000 36.207
84.08000 32.579
84.10000 31.370
84.12000 30.395
84.14000 30.083
84.16000 29.769
84.18000 25.218
84.20000 24.136
84.22000 20.981
84.24000 21.316
84.26000 19.044
84.28000 19.921
84.30000 18.475
84.32000 18.024
84.34000 18.840
84.36000 13.545
84.38000 12.610
84.40000 13.768
84.42000 14.267
84.44000 12.829
84.46000 11.537
84.48000 7.716
84.50000 9.253
84.52000 10.327
84.54000 7.864
84.56000 6.631
84.58000 8.256
84.60000 7.465
84.62000 10.198
84.64000 6.689
84.66000 2.155
84.68000 3.051
84.70000 2.056
84.72000 2.679
84.74000 5.336
84.76000 5.172
84.78000 3.664
84.80000 6.932
84.82000 6.332
84.84000 6.172
84.86000 2.366
84.88000 -1.744
84.90000 -0.045
84.92000 3.661
84.94000 6.204
84.96000 5.746
84.98000 3.543
85.00000 2.140
85.02000 2.123
85.04000 0.020
85.06000 1.315
85.08000 5.586
85.10000 4.811
85.12000 5.318
85.14000 5.660
85.16000 3.701
85.18000 2.839
85.20000 2.315
85.22000 -2.086
85.24000 2.323
85.26000 3.995
85.28000 5.988
85.30000 5.114
85.32000 6.804
85.34000 4.651
85.36000 0.024
85.38000 3.444
85.40000 -0.731
85.42000 -1.237
85.44000 0.242
85.46000 0.410
85.48000 2.349
85.50000 1.729
85.52000 2.565
85.54000 1.363
85.56000 -2.028
85.58000 1.681
85.60000 1.636
85.62000 3.747
85.64000 3.744
85.66000 3.572
85.68000 1.724
85.70000 1.692
85.72000 -0.882
85.74000 1.978
85.76000 1.182
85.78000 0.788
85.80000 1.177
85.82000 1.807
85.84000 0.900
85.86000 0.459
85.88000 0.421
85.90000 0.324
85.92000 -0.221
85.94000 -1.442
85.96000 0.413
85.98000 0.759
86.00000 2.955
86.02000 1.710
86.04000 3.016
86.06000 1.462
86.08000 3.902
86.10000 3.091
86.12000 1.626
86.14000 1.495
86.16000 2.973
86.18000 0.738
86.20000 -0.293
86.22000 -1.318
86.24000 -1.976
86.26000 -1.138
86.28000 -0.670
86.30000 -0.090
86.32000 -1.600
86.34000 -1.416
86.36000 3.164
86.38000 1.382
86.40000 -0.567
86.42000 1.026
86.44000 1.922
86.46000 3.159
86.48000 1.767
86.50000 1.370
86.52000 -0.945
86.54000 0.696
86.56000 0.551
86.58000 2.484
86.60000 2.044
86.62000 1.052
86.64000 3.036
86.66000 1.187
86.68000 -0.350
86.70000 -1.837
86.72000 2.550
86.74000 3.722
86.76000 4.770
86.78000 3.518
86.80000 1.469
86.82000 0.377
86.84000 -1.020
86.86000 1.869
86.88000 1.063
86.90000 2.825
86.92000 3.368
86.94000 1.581
86.96000 3.045
86.98000 5.490
87.00000 2.936
87.02000 1.000
87.04000 -0.305
87.06000 2.493
87.08000 5.994
87.10000 5.327
87.12000 4.311
87.14000 2.876
87.16000 2.223
87.18000 2.491
87.20000 1.668
87.22000 0.198
87.24000 2.555
87.26000 1.863
87.28000 1.229
87.30000 5.477
87.32000 6.483
87.34000 2.862
87.36000 2.868
87.38000 1.093
87.40000 1.123
87.42000 4.221
87.44000 4.815
87.46000 3.959
87.48000 3.517
87.50000 1.907
87.52000 -0.841
87.54000 -1.857
87.56000 0.697
87.58000 3.926
87.60000 3.178
87.62000 3.765
87.64000 3.239
87.66000 2.209
87.68000 3.057
87.70000 1.607
87.72000 3.387
87.74000 1.995
87.76000 1.431
87.78000 3.404
87.80000 4.931
87.82000 5.589
87.84000 1.668
87.86000 3.319
87.88000 2.406
87.90000 3.317
87.92000 1.877
87.94000 2.410
87.96000 1.954
87.98000 1.780
88.00000 1.977
88.02000 -1.168
88.04000 -1.813
88.06000 -0.420
88.08000 3.403
88.10000 4.147
88.12000 2.509
88.14000 4.790
88.16000 5.972
88.18000 0.486
88.20000 1.246
88.22000 0.758
88.24000 2.264
88.26000 3.291
88.28000 3.050
88.30000 3.063
88.32000 1.519
88.34000 0.732
88.36000 3.660
88.38000 0.926
88.40000 -1.614
88.42000 1.690
88.44000 -1.747
88.46000 1.249
88.48000 1.163
88.50000 2.193
88.52000 2.718
88.54000 3.460
88.56000 1.452
88.58000 2.773
88.60000 1.595
88.62000 2.458
88.64000 -1.822
88.66000 -0.385
88.68000 0.751
88.70000 3.970
88.72000 3.976
88.74000 3.640
88.76000 2.531
88.78000 -0.171
88.80000 1.366
88.82000 2.343
88.84000 2.675
88.86000 -1.218
88.88000 -1.883
88.90000 2.018
88.92000 2.806
88.94000 -0.168
88.96000 -0.195
88.98000 -0.673
89.00000 2.032
89.02000 4.340
89.04000 5.578
89.06000 1.693
89.08000 0.609
89.10000 3.567
89.12000 0.625
89.14000 1.107
89.16000 1.976
89.18000 1.635
89.20000 2.456
89.22000 4.618
89.24000 4.716
89.26000 5.585
89.28000 3.376
89.30000 -0.086
89.32000 1.547
89.34000 2.605
89.36000 0.924
89.38000 3.247
89.40000 4.991
89.42000 2.377
89.44000 3.052
89.46000 1.679
89.48000 3.963
89.50000 3.243
89.52000 4.962
89.54000 3.920
89.56000 2.762
89.58000 7.978
89.60000 6.491
89.62000 8.435
89.64000 7.535
89.66000 5.966
89.68000 7.252
89.70000 4.927
89.72000 6.400
89.74000 4.771
89.76000 5.088
89.78000 4.831
89.80000 6.174
89.82000 5.052
89.84000 3.144
89.86000 3.227
89.88000 0.888
89.90000 3.215
89.92000 3.554
89.94000 3.753
89.96000 4.203
89.98000 3.786
90.00000 4.265
90.02000 4.539
90.04000 2.965
90.06000 1.772
90.08000 2.075
90.10000 6.225
90.12000 6.582
90.14000 3.789
90.16000 7.243
90.18000 7.582
90.20000 2.097
90.22000 -1.797
90.24000 0.490
90.26000 3.113
90.28000 5.034
90.30000 6.634
90.32000 3.429
90.34000 2.659
90.36000 4.958
90.38000 1.859
90.40000 1.257
90.42000 2.220
90.44000 5.934
90.46000 5.587
90.48000 7.040
90.50000 3.445
90.52000 1.609
90.54000 2.276
90.56000 3.819
90.58000 5.216
90.60000 5.502
90.62000 5.973
90.64000 6.621
90.66000 4.521
90.68000 3.792
90.70000 -0.256
90.72000 3.255
90.74000 4.046
90.76000 3.669
90.78000 6.132
90.80000 4.401
90.82000 2.664
90.84000 6.205
90.86000 2.224
90.88000 1.303
90.90000 2.497
90.92000 5.060
90.94000 2.230
90.96000 0.649
90.98000 4.546
91.00000 3.822
91.02000 3.616
91.04000 1.204
91.06000 -1.247
91.08000 0.780
91.10000 2.106
91.12000 -1.227
91.14000 -0.919
91.16000 -1.215
91.18000 3.952
91.20000 3.768
91.22000 2.730
91.24000 3.994
91.26000 3.847
91.28000 3.029
91.30000 -1.503
91.32000 -0.741
91.34000 -0.223
91.36000 3.739
91.38000 0.938
91.40000 -0.700
91.42000 2.106
91.44000 2.498
91.46000 3.963
91.48000 7.196
91.50000 4.519
91.52000 1.818
91.54000 4.686
91.56000 4.507
91.58000 3.533
91.60000 3.160
91.62000 4.183
91.64000 2.828
91.66000 4.385
91.68000 4.205
91.70000 2.397
91.72000 3.098
91.74000 0.867
91.76000 1.259
91.78000 7.142
91.80000 6.946
91.82000 5.655
91.84000 0.164
91.86000 2.366
91.88000 5.399
91.90000 5.680
91.92000 6.056
91.94000 3.244
91.96000 0.963
91.98000 2.940
92.00000 5.249
92.02000 5.926
92.04000 5.841
92.06000 3.275
92.08000 1.023
92.10000 -1.716
92.12000 -1.862
92.14000 6.418
92.16000 4.709
92.18000 3.453
92.20000 4.694
92.22000 4.671
92.24000 2.447
92.26000 1.222
92.28000 2.446
92.30000 3.152
92.32000 1.642
92.34000 2.440
92.36000 3.134
92.38000 4.064
92.40000 2.774
92.42000 5.648
92.44000 4.616
92.46000 3.192
92.48000 4.112
92.50000 5.763
92.52000 0.431
92.54000 0.087
92.56000 3.823
92.58000 5.450
92.60000 4.433
92.62000 0.011
92.64000 -1.083
92.66000 1.229
92.68000 2.177
92.70000 1.737
92.72000 3.540
92.74000 2.338
92.76000 7.495
92.78000 6.905
92.80000 3.392
92.82000 -0.059
92.84000 3.953
92.86000 2.476
92.88000 2.956
92.90000 5.902
92.92000 3.938
92.94000 3.452
92.96000 1.872
92.98000 1.388
93.00000 2.859
93.02000 3.840
93.04000 2.241
93.06000 5.250
93.08000 2.569
93.10000 1.103
93.12000 -1.865
93.14000 -1.121
93.16000 2.062
93.18000 2.704
93.20000 5.358
93.22000 3.465
93.24000 2.550
93.26000 2.440
93.28000 2.866
93.30000 2.750
93.32000 2.289
93.34000 1.109
93.36000 1.742
93.38000 1.133
93.40000 3.199
93.42000 2.129
93.44000 2.605
93.46000 5.684
93.48000 0.761
93.50000 3.357
93.52000 5.088
93.54000 4.078
93.56000 5.746
93.58000 3.798
93.60000 3.139
93.62000 4.574
93.64000 4.937
93.66000 3.016
93.68000 -0.778
93.70000 0.347
93.72000 2.132
93.74000 -0.879
93.76000 0.769
93.78000 3.117
93.80000 3.564
93.82000 1.485
93.84000 5.035
93.86000 1.700
93.88000 2.815
93.90000 0.430
93.92000 4.690
93.94000 4.981
93.96000 1.997
93.98000 1.520
94.00000 0.966
94.02000 1.083
94.04000 5.827
94.06000 4.217
94.08000 0.348
94.10000 3.857
94.12000 1.777
94.14000 -0.398
94.16000 -0.901
94.18000 -1.900
94.20000 -1.135
94.22000 2.113
94.24000 0.879
94.26000 1.601
94.28000 -0.351
94.30000 0.623
94.32000 1.296
94.34000 1.268
94.36000 -0.527
94.38000 3.911
94.40000 5.519
94.42000 4.266
94.44000 4.820
94.46000 0.335
94.48000 1.302
94.50000 4.616
94.52000 3.626
94.54000 2.188
94.56000 1.307
94.58000 2.481
94.60000 1.085
94.62000 0.293
94.64000 4.484
94.66000 5.142
94.68000 0.437
94.70000 1.282
94.72000 4.722
94.74000 -0.703
94.76000 1.448
94.78000 -0.769
94.80000 -0.794
94.82000 1.908
94.84000 1.582
94.86000 -1.807
94.88000 0.471
94.90000 1.589
94.92000 3.387
94.94000 5.431
94.96000 4.810
94.98000 1.800
95.00000 3.579
95.02000 1.681
95.04000 3.926
95.06000 1.285
95.08000 -0.310
95.10000 3.496
95.12000 2.237
95.14000 3.409
95.16000 1.612
95.18000 -0.145
95.20000 6.174
95.22000 4.625
95.24000 1.181
95.26000 0.033
95.28000 -0.656
95.30000 2.487
95.32000 5.967
95.34000 3.926
95.36000 2.648
95.38000 1.113
95.40000 1.390
95.42000 0.062
95.44000 -0.552
95.46000 1.311
95.48000 4.695
95.50000 0.791
95.52000 -1.929
95.54000 -1.171
95.56000 0.196
95.58000 2.200
95.60000 3.358
95.62000 -0.448
95.64000 1.443
95.66000 3.740
95.68000 3.435
95.70000 0.387
95.72000 0.332
95.74000 2.439
95.76000 1.391
95.78000 1.435
95.80000 1.499
95.82000 -1.627
95.84000 0.744
95.86000 0.125
95.88000 2.705
95.90000 3.979
95.92000 5.838
95.94000 1.145
95.96000 2.361
95.98000 5.210
96.00000 0.646
96.02000 6.692
96.04000 4.678
96.06000 0.519
96.08000 -0.133
96.10000 3.399
96.12000 2.738
96.14000 2.381
96.16000 6.539
96.18000 7.734
96.20000 2.304
96.22000 -0.661
96.24000 1.726
96.26000 0.822
96.28000 -1.891
96.30000 -1.141
96.32000 5.161
96.34000 4.596
96.36000 3.743
96.38000 0.743
96.40000 -0.420
96.42000 1.862
96.44000 2.158
96.46000 0.440
96.48000 1.479
96.50000 0.781
96.52000 2.520
96.54000 3.050
96.56000 5.661
96.58000 2.899
96.60000 5.059
96.62000 6.678
96.64000 4.678
96.66000 5.733
96.68000 3.047
96.70000 2.501
96.72000 -1.491
96.74000 0.673
96.76000 2.989
96.78000 5.391
96.80000 7.354
96.82000 5.777
96.84000 3.345
96.86000 4.905
96.88000 8.046
96.90000 9.356
96.92000 7.576
96.94000 4.964
96.96000 4.101
96.98000 8.033
97.00000 4.880
97.02000 5.359
97.04000 5.263
97.06000 7.034
97.08000 3.046
97.10000 1.451
97.12000 1.597
97.14000 -1.827
97.16000 2.058
97.18000 6.785
97.20000 6.408
97.22000 3.266
97.24000 2.245
97.26000 2.651
97.28000 3.057
97.30000 4.971
97.32000 3.692
97.34000 2.769
97.36000 8.855
97.38000 6.695
97.40000 6.926
97.42000 10.322
97.44000 8.828
97.46000 7.220
97.48000 4.148
97.50000 4.539
97.52000 8.003
97.54000 8.372
97.56000 9.722
97.58000 7.128
97.60000 3.588
97.62000 7.848
97.64000 4.062
97.66000 -1.140
97.68000 2.589
97.70000 7.707
97.72000 5.639
97.74000 5.871
97.76000 3.103
97.78000 1.600
97.80000 0.520
97.82000 6.079
97.84000 7.554
97.86000 5.291
97.88000 5.588
97.90000 6.469
97.92000 6.190
97.94000 2.713
97.96000 0.531
97.98000 0.597
98.00000 6.993
98.02000 6.222
98.04000 8.295
98.06000 9.753
98.08000 10.077
98.10000 6.457
98.12000 1.725
98.14000 -1.616
98.16000 4.418
98.18000 4.841
98.20000 3.765
98.22000 9.616
98.24000 4.671
98.26000 1.079
98.28000 1.784
98.30000 0.633
98.32000 -1.840
98.34000 2.194
98.36000 7.591
98.38000 7.015
98.40000 5.132
98.42000 3.688
98.44000 2.002
98.46000 3.255
98.48000 3.533
98.50000 3.865
98.52000 11.070
98.54000 6.449
98.56000 1.735
98.58000 0.274
98.60000 4.624
98.62000 10.803
98.64000 11.003
98.66000 2.441
98.68000 5.372
98.70000 10.371
98.72000 -0.340
98.74000 4.249
98.76000 5.056
98.78000 1.026
98.80000 2.200
98.82000 5.209
98.84000 3.158
98.86000 2.226
98.88000 1.057
98.90000 2.306
98.92000 6.211
98.94000 8.993
98.96000 5.693
98.98000 2.523
99.00000 5.372
99.02000 5.722
99.04000 5.139
99.06000 6.921
99.08000 5.866
99.10000 2.954
99.12000 7.907
99.14000 3.426
99.16000 2.358
99.18000 4.508
99.20000 8.920
99.22000 1.241
99.24000 0.742
99.26000 7.007
99.28000 4.251
99.30000 7.888
99.32000 7.872
99.34000 5.313
99.36000 2.954
99.38000 4.440
99.40000 5.231
99.42000 10.574
99.44000 8.691
99.46000 7.435
99.48000 6.165
99.50000 5.346
99.52000 12.347
99.54000 15.531
99.56000 5.308
99.58000 -2.482
99.60000 3.485
99.62000 7.559
99.64000 2.578
99.66000 3.575
99.68000 8.361
99.70000 7.787
99.72000 4.480
99.74000 6.653
99.76000 7.179
99.78000 5.811
99.80000 6.251
99.82000 -0.203
99.84000 3.259
99.86000 0.887
99.88000 -1.976
99.90000 0.020
99.92000 -0.156
99.94000 0.483
99.96000 3.274
99.98000 0.000
