'Id: "0011389" Comment: "Integrate frame 0011389_Au-Ir-Rh_Au-Rich_XRD_Mapping-145-0000.gfrmwith cursor Wedge Cursor #5" Operator: "B?rgel" Anode: "Cu" Wavelength: "1.5406" Scantype: "2Theta (TwoTheta)" TimePerStep: "1" X: "-4.5" Y: "-4.5" Z: "5.95" 
10.00000 0.000
10.02000 1.061
10.04000 5.061
10.06000 -4.270
10.08000 7.836
10.10000 1.850
10.12000 2.977
10.14000 18.047
10.16000 5.201
10.18000 -4.153
10.20000 10.679
10.22000 16.434
10.24000 5.626
10.26000 -4.129
10.28000 13.244
10.30000 23.785
10.32000 17.118
10.34000 25.275
10.36000 11.301
10.38000 5.725
10.40000 11.913
10.42000 29.093
10.44000 30.050
10.46000 15.745
10.48000 21.213
10.50000 22.376
10.52000 18.501
10.54000 7.600
10.56000 16.878
10.58000 28.422
10.60000 23.810
10.62000 21.294
10.64000 15.268
10.66000 31.318
10.68000 21.002
10.70000 14.918
10.72000 18.546
10.74000 28.654
10.76000 17.919
10.78000 18.480
10.80000 21.351
10.82000 19.974
10.84000 7.133
10.86000 12.301
10.88000 18.198
10.90000 5.322
10.92000 9.004
10.94000 20.455
10.96000 16.969
10.98000 20.223
11.00000 14.785
11.02000 3.178
11.04000 11.831
11.06000 17.695
11.08000 16.115
11.10000 19.308
11.12000 8.234
11.14000 12.002
11.16000 17.557
11.18000 24.098
11.20000 19.455
11.22000 23.543
11.24000 15.060
11.26000 12.642
11.28000 15.829
11.30000 15.330
11.32000 10.111
11.34000 12.845
11.36000 15.440
11.38000 8.100
11.40000 13.048
11.42000 10.227
11.44000 15.836
11.46000 12.689
11.48000 1.624
11.50000 10.481
11.52000 14.256
11.54000 12.448
11.56000 25.998
11.58000 32.633
11.60000 28.831
11.62000 25.900
11.64000 25.078
11.66000 15.429
11.68000 6.857
11.70000 19.013
11.72000 22.445
11.74000 12.328
11.76000 6.548
11.78000 11.120
11.80000 12.823
11.82000 18.216
11.84000 15.401
11.86000 10.792
11.88000 10.544
11.90000 11.907
11.92000 7.756
11.94000 15.287
11.96000 13.241
11.98000 5.655
12.00000 7.246
12.02000 8.774
12.04000 19.994
12.06000 15.621
12.08000 9.449
12.10000 9.980
12.12000 13.128
12.14000 13.893
12.16000 16.024
12.18000 12.754
12.20000 8.227
12.22000 9.914
12.24000 7.613
12.26000 4.887
12.28000 8.084
12.30000 16.291
12.32000 10.483
12.34000 12.786
12.36000 9.864
12.38000 17.984
12.40000 16.315
12.42000 16.514
12.44000 13.363
12.46000 12.580
12.48000 10.190
12.50000 6.001
12.52000 14.555
12.54000 19.830
12.56000 20.862
12.58000 20.035
12.60000 17.868
12.62000 18.234
12.64000 8.849
12.66000 15.587
12.68000 19.321
12.70000 19.881
12.72000 29.493
12.74000 29.352
12.76000 12.162
12.78000 5.929
12.80000 6.711
12.82000 16.830
12.84000 27.144
12.86000 17.875
12.88000 11.627
12.90000 23.943
12.92000 20.374
12.94000 31.131
12.96000 15.756
12.98000 10.429
13.00000 18.020
13.02000 24.527
13.04000 21.940
13.06000 14.884
13.08000 11.022
13.10000 12.342
13.12000 11.956
13.14000 7.497
13.16000 9.522
13.18000 13.809
13.20000 17.414
13.22000 21.464
13.24000 13.213
13.26000 10.950
13.28000 11.060
13.30000 16.011
13.32000 9.880
13.34000 11.820
13.36000 5.809
13.38000 8.184
13.40000 13.040
13.42000 9.621
13.44000 7.803
13.46000 11.209
13.48000 14.637
13.50000 22.342
13.52000 26.937
13.54000 17.117
13.56000 10.246
13.58000 7.993
13.60000 5.548
13.62000 9.872
13.64000 8.914
13.66000 6.521
13.68000 5.689
13.70000 5.493
13.72000 8.803
13.74000 8.879
13.76000 13.548
13.78000 11.309
13.80000 6.225
13.82000 7.806
13.84000 12.497
13.86000 6.549
13.88000 13.066
13.90000 6.303
13.92000 -1.849
13.94000 -2.656
13.96000 2.808
13.98000 5.467
14.00000 -0.110
14.02000 10.463
14.04000 10.303
14.06000 2.098
14.08000 1.750
14.10000 13.412
14.12000 13.475
14.14000 15.171
14.16000 7.350
14.18000 9.689
14.20000 8.628
14.22000 14.909
14.24000 23.009
14.26000 15.664
14.28000 13.529
14.30000 12.282
14.32000 11.923
14.34000 4.771
14.36000 -4.466
14.38000 -3.990
14.40000 12.258
14.42000 3.811
14.44000 1.547
14.46000 8.747
14.48000 5.956
14.50000 7.996
14.52000 8.316
14.54000 9.673
14.56000 4.129
14.58000 0.592
14.60000 4.252
14.62000 8.623
14.64000 9.795
14.66000 12.926
14.68000 11.354
14.70000 15.685
14.72000 16.572
14.74000 11.352
14.76000 13.251
14.78000 17.764
14.80000 11.886
14.82000 1.978
14.84000 -2.914
14.86000 8.868
14.88000 15.638
14.90000 10.486
14.92000 12.508
14.94000 20.601
14.96000 17.311
14.98000 8.046
15.00000 11.860
15.02000 0.620
15.04000 -3.364
15.06000 2.543
15.08000 1.794
15.10000 4.494
15.12000 7.931
15.14000 9.803
15.16000 9.631
15.18000 21.361
15.20000 9.990
15.22000 -4.466
15.24000 7.570
15.26000 12.288
15.28000 7.145
15.30000 9.684
15.32000 11.918
15.34000 8.404
15.36000 10.039
15.38000 18.066
15.40000 13.596
15.42000 2.803
15.44000 4.314
15.46000 4.145
15.48000 -2.716
15.50000 2.206
15.52000 8.299
15.54000 0.835
15.56000 0.733
15.58000 1.096
15.60000 10.049
15.62000 6.993
15.64000 7.775
15.66000 9.041
15.68000 3.312
15.70000 12.709
15.72000 16.042
15.74000 15.282
15.76000 5.654
15.78000 3.745
15.80000 7.310
15.82000 8.939
15.84000 6.063
15.86000 3.693
15.88000 4.061
15.90000 5.659
15.92000 -1.157
15.94000 6.427
15.96000 8.264
15.98000 3.755
16.00000 15.975
16.02000 9.966
16.04000 12.145
16.06000 6.862
16.08000 3.273
16.10000 10.271
16.12000 6.350
16.14000 6.265
16.16000 12.756
16.18000 5.606
16.20000 7.468
16.22000 10.400
16.24000 3.953
16.26000 10.366
16.28000 4.402
16.30000 2.386
16.32000 8.864
16.34000 12.181
16.36000 2.989
16.38000 -0.460
16.40000 2.065
16.42000 -3.798
16.44000 -3.593
16.46000 7.360
16.48000 0.919
16.50000 10.809
16.52000 4.832
16.54000 6.062
16.56000 -0.557
16.58000 0.368
16.60000 2.232
16.62000 2.215
16.64000 0.279
16.66000 1.442
16.68000 5.160
16.70000 7.445
16.72000 11.244
16.74000 8.371
16.76000 6.697
16.78000 6.157
16.80000 7.704
16.82000 4.616
16.84000 1.572
16.86000 6.116
16.88000 6.485
16.90000 4.617
16.92000 7.107
16.94000 6.401
16.96000 0.701
16.98000 -3.622
17.00000 -0.988
17.02000 2.633
17.04000 1.753
17.06000 -3.473
17.08000 -0.546
17.10000 6.232
17.12000 8.334
17.14000 9.090
17.16000 4.516
17.18000 0.646
17.20000 -3.663
17.22000 0.033
17.24000 5.638
17.26000 10.009
17.28000 7.276
17.30000 3.543
17.32000 0.066
17.34000 2.328
17.36000 10.087
17.38000 9.261
17.40000 9.191
17.42000 9.409
17.44000 1.261
17.46000 2.238
17.48000 6.408
17.50000 11.354
17.52000 8.791
17.54000 9.450
17.56000 6.182
17.58000 2.867
17.60000 -1.231
17.62000 8.332
17.64000 6.609
17.66000 0.694
17.68000 1.839
17.70000 4.275
17.72000 10.289
17.74000 6.225
17.76000 7.795
17.78000 6.205
17.80000 4.765
17.82000 4.372
17.84000 1.677
17.86000 3.679
17.88000 2.154
17.90000 4.293
17.92000 9.585
17.94000 9.975
17.96000 12.825
17.98000 9.250
18.00000 5.298
18.02000 6.998
18.04000 0.785
18.06000 2.403
18.08000 9.643
18.10000 7.659
18.12000 10.751
18.14000 4.219
18.16000 0.748
18.18000 4.884
18.20000 8.521
18.22000 11.698
18.24000 5.849
18.26000 0.980
18.28000 6.102
18.30000 10.988
18.32000 7.344
18.34000 4.846
18.36000 4.257
18.38000 7.192
18.40000 -4.283
18.42000 0.332
18.44000 11.701
18.46000 10.031
18.48000 14.363
18.50000 11.534
18.52000 9.154
18.54000 6.925
18.56000 3.387
18.58000 1.215
18.60000 5.478
18.62000 9.130
18.64000 10.941
18.66000 14.956
18.68000 13.276
18.70000 8.128
18.72000 4.747
18.74000 6.147
18.76000 11.983
18.78000 11.686
18.80000 6.836
18.82000 9.602
18.84000 5.873
18.86000 12.277
18.88000 12.552
18.90000 6.503
18.92000 5.233
18.94000 8.811
18.96000 14.383
18.98000 14.082
19.00000 12.983
19.02000 6.643
19.04000 4.824
19.06000 -0.092
19.08000 6.772
19.10000 17.268
19.12000 16.622
19.14000 14.902
19.16000 13.012
19.18000 11.404
19.20000 5.845
19.22000 14.441
19.24000 13.683
19.26000 14.326
19.28000 13.294
19.30000 8.502
19.32000 4.325
19.34000 1.848
19.36000 5.851
19.38000 13.710
19.40000 9.702
19.42000 7.559
19.44000 2.797
19.46000 -4.220
19.48000 3.522
19.50000 8.116
19.52000 7.540
19.54000 12.061
19.56000 15.691
19.58000 10.131
19.60000 5.560
19.62000 7.210
19.64000 12.177
19.66000 11.302
19.68000 9.015
19.70000 6.130
19.72000 7.186
19.74000 13.833
19.76000 17.008
19.78000 6.854
19.80000 3.574
19.82000 1.685
19.84000 8.210
19.86000 11.761
19.88000 6.303
19.90000 2.333
19.92000 2.972
19.94000 -2.926
19.96000 1.013
19.98000 8.290
20.00000 5.289
20.02000 4.582
20.04000 3.194
20.06000 1.801
20.08000 -0.606
20.10000 -3.324
20.12000 6.420
20.14000 13.625
20.16000 5.822
20.18000 10.467
20.20000 4.852
20.22000 3.076
20.24000 4.631
20.26000 7.780
20.28000 7.222
20.30000 -2.371
20.32000 -4.187
20.34000 5.310
20.36000 9.687
20.38000 8.822
20.40000 5.901
20.42000 3.650
20.44000 4.493
20.46000 -0.368
20.48000 8.222
20.50000 3.107
20.52000 8.785
20.54000 10.745
20.56000 12.279
20.58000 10.267
20.60000 4.612
20.62000 0.852
20.64000 9.479
20.66000 10.024
20.68000 1.476
20.70000 4.088
20.72000 6.852
20.74000 2.012
20.76000 12.072
20.78000 9.590
20.80000 9.617
20.82000 7.998
20.84000 6.129
20.86000 5.435
20.88000 1.354
20.90000 0.221
20.92000 8.087
20.94000 9.143
20.96000 10.565
20.98000 6.042
21.00000 -0.223
21.02000 5.520
21.04000 8.084
21.06000 11.001
21.08000 2.735
21.10000 -4.158
21.12000 0.060
21.14000 4.330
21.16000 -0.995
21.18000 2.402
21.20000 14.822
21.22000 11.997
21.24000 0.132
21.26000 0.268
21.28000 5.061
21.30000 4.431
21.32000 9.661
21.34000 6.348
21.36000 2.909
21.38000 5.396
21.40000 3.116
21.42000 5.105
21.44000 3.978
21.46000 3.653
21.48000 7.895
21.50000 6.663
21.52000 11.447
21.54000 10.461
21.56000 8.123
21.58000 2.980
21.60000 4.194
21.62000 2.226
21.64000 -1.082
21.66000 3.166
21.68000 8.673
21.70000 7.736
21.72000 4.248
21.74000 3.153
21.76000 4.237
21.78000 9.266
21.80000 15.686
21.82000 6.773
21.84000 -0.236
21.86000 2.831
21.88000 2.000
21.90000 5.294
21.92000 4.643
21.94000 3.895
21.96000 11.169
21.98000 8.349
22.00000 0.097
22.02000 1.668
22.04000 15.301
22.06000 11.242
22.08000 9.271
22.10000 3.487
22.12000 9.267
22.14000 9.426
22.16000 10.847
22.18000 15.366
22.20000 16.321
22.22000 13.012
22.24000 6.233
22.26000 4.856
22.28000 -2.704
22.30000 -4.068
22.32000 -1.173
22.34000 3.452
22.36000 6.678
22.38000 4.519
22.40000 6.512
22.42000 5.817
22.44000 6.558
22.46000 4.159
22.48000 5.077
22.50000 5.226
22.52000 13.388
22.54000 12.998
22.56000 15.639
22.58000 10.420
22.60000 5.767
22.62000 3.624
22.64000 1.956
22.66000 2.928
22.68000 4.223
22.70000 0.864
22.72000 3.297
22.74000 9.601
22.76000 9.571
22.78000 7.436
22.80000 8.192
22.82000 8.802
22.84000 1.520
22.86000 -2.066
22.88000 0.893
22.90000 2.168
22.92000 2.691
22.94000 3.230
22.96000 6.411
22.98000 4.176
23.00000 4.808
23.02000 7.352
23.04000 4.180
23.06000 1.997
23.08000 3.189
23.10000 0.987
23.12000 -1.841
23.14000 5.122
23.16000 9.345
23.18000 7.538
23.20000 5.139
23.22000 -1.146
23.24000 4.166
23.26000 6.808
23.28000 6.701
23.30000 2.573
23.32000 2.217
23.34000 0.154
23.36000 1.111
23.38000 5.065
23.40000 2.535
23.42000 3.692
23.44000 4.091
23.46000 0.474
23.48000 1.824
23.50000 2.421
23.52000 3.496
23.54000 -3.714
23.56000 -0.709
23.58000 -3.440
23.60000 1.860
23.62000 0.292
23.64000 2.077
23.66000 3.144
23.68000 4.483
23.70000 3.025
23.72000 2.943
23.74000 4.467
23.76000 7.557
23.78000 8.494
23.80000 5.623
23.82000 4.045
23.84000 6.524
23.86000 1.665
23.88000 2.170
23.90000 -4.028
23.92000 -0.124
23.94000 4.632
23.96000 1.493
23.98000 4.540
24.00000 2.185
24.02000 5.407
24.04000 1.104
24.06000 -1.992
24.08000 6.486
24.10000 6.080
24.12000 3.872
24.14000 2.736
24.16000 -3.299
24.18000 2.718
24.20000 5.148
24.22000 4.498
24.24000 1.132
24.26000 4.634
24.28000 -2.898
24.30000 -3.814
24.32000 -4.005
24.34000 -1.742
24.36000 1.090
24.38000 5.824
24.40000 7.759
24.42000 1.207
24.44000 3.125
24.46000 2.826
24.48000 5.921
24.50000 -1.855
24.52000 -0.402
24.54000 4.735
24.56000 1.998
24.58000 2.161
24.60000 1.248
24.62000 4.670
24.64000 4.606
24.66000 1.342
24.68000 1.072
24.70000 -3.035
24.72000 -1.670
24.74000 3.339
24.76000 3.775
24.78000 1.596
24.80000 3.016
24.82000 0.550
24.84000 0.846
24.86000 3.796
24.88000 4.891
24.90000 5.603
24.92000 7.358
24.94000 2.268
24.96000 -2.997
24.98000 0.254
25.00000 1.285
25.02000 2.402
25.04000 -1.532
25.06000 1.908
25.08000 4.038
25.10000 2.042
25.12000 3.729
25.14000 0.375
25.16000 0.727
25.18000 5.703
25.20000 3.137
25.22000 0.046
25.24000 8.153
25.26000 5.725
25.28000 -0.223
25.30000 1.154
25.32000 -3.956
25.34000 0.086
25.36000 -1.838
25.38000 -2.999
25.40000 1.814
25.42000 8.575
25.44000 4.897
25.46000 -3.778
25.48000 1.703
25.50000 5.533
25.52000 4.189
25.54000 3.617
25.56000 -1.793
25.58000 -2.290
25.60000 4.823
25.62000 5.269
25.64000 4.541
25.66000 2.599
25.68000 -1.222
25.70000 3.214
25.72000 0.085
25.74000 2.009
25.76000 -0.345
25.78000 8.220
25.80000 7.140
25.82000 7.171
25.84000 1.002
25.86000 0.555
25.88000 3.192
25.90000 5.969
25.92000 2.462
25.94000 1.403
25.96000 2.633
25.98000 -1.208
26.00000 -1.234
26.02000 5.231
26.04000 4.177
26.06000 4.780
26.08000 8.604
26.10000 9.790
26.12000 2.433
26.14000 -3.143
26.16000 0.566
26.18000 8.290
26.20000 6.414
26.22000 -3.272
26.24000 -2.247
26.26000 2.009
26.28000 1.892
26.30000 4.117
26.32000 -3.223
26.34000 -1.541
26.36000 1.144
26.38000 -0.840
26.40000 2.329
26.42000 5.440
26.44000 4.728
26.46000 3.403
26.48000 -1.103
26.50000 1.953
26.52000 2.963
26.54000 3.535
26.56000 5.582
26.58000 3.459
26.60000 2.104
26.62000 0.532
26.64000 2.998
26.66000 7.583
26.68000 6.354
26.70000 1.051
26.72000 -3.872
26.74000 -1.910
26.76000 -2.488
26.78000 0.275
26.80000 0.948
26.82000 8.116
26.84000 5.079
26.86000 5.544
26.88000 4.202
26.90000 0.583
26.92000 1.145
26.94000 1.053
26.96000 3.925
26.98000 5.903
27.00000 6.467
27.02000 3.762
27.04000 0.598
27.06000 0.940
27.08000 -0.410
27.10000 0.407
27.12000 1.292
27.14000 5.107
27.16000 2.172
27.18000 0.267
27.20000 4.533
27.22000 0.583
27.24000 4.995
27.26000 7.135
27.28000 6.960
27.30000 2.838
27.32000 0.497
27.34000 3.728
27.36000 6.932
27.38000 2.819
27.40000 -0.221
27.42000 0.165
27.44000 3.185
27.46000 3.170
27.48000 -0.533
27.50000 -1.222
27.52000 3.886
27.54000 8.111
27.56000 3.633
27.58000 -2.132
27.60000 -3.652
27.62000 2.293
27.64000 2.896
27.66000 -0.931
27.68000 1.268
27.70000 1.611
27.72000 2.403
27.74000 2.734
27.76000 2.234
27.78000 4.892
27.80000 2.811
27.82000 1.653
27.84000 -0.241
27.86000 1.158
27.88000 5.352
27.90000 2.316
27.92000 -1.652
27.94000 -0.499
27.96000 4.458
27.98000 2.139
28.00000 3.064
28.02000 3.612
28.04000 1.488
28.06000 -3.796
28.08000 1.784
28.10000 1.388
28.12000 -0.113
28.14000 2.931
28.16000 6.309
28.18000 10.819
28.20000 5.320
28.22000 -0.089
28.24000 3.222
28.26000 0.544
28.28000 2.197
28.30000 4.012
28.32000 5.148
28.34000 5.098
28.36000 5.440
28.38000 6.170
28.40000 8.654
28.42000 7.728
28.44000 0.425
28.46000 -2.238
28.48000 0.073
28.50000 5.893
28.52000 7.674
28.54000 5.368
28.56000 5.626
28.58000 2.973
28.60000 1.144
28.62000 -0.479
28.64000 -0.970
28.66000 -3.047
28.68000 2.897
28.70000 -0.640
28.72000 1.246
28.74000 2.880
28.76000 -0.044
28.78000 -0.470
28.80000 7.004
28.82000 4.641
28.84000 2.450
28.86000 4.494
28.88000 2.845
28.90000 3.162
28.92000 7.562
28.94000 1.340
28.96000 -3.741
28.98000 -0.982
29.00000 4.249
29.02000 4.623
29.04000 -1.895
29.06000 -1.206
29.08000 -1.033
29.10000 3.567
29.12000 8.440
29.14000 8.619
29.16000 7.291
29.18000 6.053
29.20000 2.475
29.22000 1.009
29.24000 -3.724
29.26000 -0.375
29.28000 2.306
29.30000 5.085
29.32000 8.650
29.34000 4.469
29.36000 2.534
29.38000 3.383
29.40000 9.551
29.42000 1.399
29.44000 3.133
29.46000 -0.638
29.48000 0.762
29.50000 0.511
29.52000 3.749
29.54000 3.916
29.56000 8.649
29.58000 3.837
29.60000 0.717
29.62000 5.027
29.64000 4.060
29.66000 0.862
29.68000 -1.496
29.70000 2.494
29.72000 1.747
29.74000 1.080
29.76000 2.425
29.78000 10.324
29.80000 4.146
29.82000 0.107
29.84000 -1.161
29.86000 -0.530
29.88000 1.972
29.90000 8.577
29.92000 5.573
29.94000 5.457
29.96000 5.078
29.98000 3.473
30.00000 2.933
30.02000 3.095
30.04000 0.115
30.06000 -0.148
30.08000 0.249
30.10000 -0.349
30.12000 5.188
30.14000 5.124
30.16000 4.181
30.18000 4.881
30.20000 1.184
30.22000 2.159
30.24000 8.169
30.26000 3.684
30.28000 0.656
30.30000 2.404
30.32000 2.488
30.34000 0.888
30.36000 0.980
30.38000 4.300
30.40000 7.980
30.42000 -0.227
30.44000 -0.893
30.46000 2.581
30.48000 4.156
30.50000 -0.294
30.52000 -3.695
30.54000 -3.646
30.56000 -3.282
30.58000 2.806
30.60000 6.148
30.62000 3.910
30.64000 0.195
30.66000 0.257
30.68000 1.099
30.70000 4.232
30.72000 3.511
30.74000 0.799
30.76000 -1.412
30.78000 0.741
30.80000 1.555
30.82000 -3.599
30.84000 -2.786
30.86000 -1.057
30.88000 0.589
30.90000 -1.956
30.92000 -0.511
30.94000 3.291
30.96000 4.155
30.98000 -1.580
31.00000 -1.620
31.02000 0.019
31.04000 -1.139
31.06000 1.818
31.08000 9.128
31.10000 10.086
31.12000 9.599
31.14000 1.653
31.16000 0.437
31.18000 1.986
31.20000 0.892
31.22000 0.964
31.24000 -1.181
31.26000 -3.601
31.28000 -2.663
31.30000 -0.805
31.32000 -0.779
31.34000 -2.182
31.36000 3.176
31.38000 2.412
31.40000 -2.075
31.42000 -2.191
31.44000 3.264
31.46000 8.417
31.48000 8.251
31.50000 5.323
31.52000 2.817
31.54000 2.831
31.56000 4.159
31.58000 2.277
31.60000 2.030
31.62000 1.395
31.64000 -0.947
31.66000 4.694
31.68000 4.874
31.70000 0.715
31.72000 -3.639
31.74000 -2.471
31.76000 0.822
31.78000 1.652
31.80000 6.769
31.82000 6.826
31.84000 3.532
31.86000 -0.605
31.88000 0.728
31.90000 2.124
31.92000 4.081
31.94000 2.320
31.96000 -0.625
31.98000 4.927
32.00000 8.342
32.02000 6.554
32.04000 0.711
32.06000 1.431
32.08000 3.572
32.10000 3.651
32.12000 6.622
32.14000 4.158
32.16000 -1.337
32.18000 -3.605
32.20000 2.850
32.22000 -0.633
32.24000 4.670
32.26000 6.332
32.28000 5.392
32.30000 0.414
32.32000 3.914
32.34000 3.506
32.36000 4.251
32.38000 4.195
32.40000 2.274
32.42000 1.445
32.44000 6.328
32.46000 6.098
32.48000 4.757
32.50000 -1.995
32.52000 -3.602
32.54000 1.151
32.56000 1.893
32.58000 5.304
32.60000 6.038
32.62000 4.870
32.64000 4.153
32.66000 4.434
32.68000 4.657
32.70000 0.753
32.72000 -2.712
32.74000 0.174
32.76000 -0.019
32.78000 -1.520
32.80000 -0.093
32.82000 3.027
32.84000 2.578
32.86000 2.074
32.88000 4.812
32.90000 6.720
32.92000 4.604
32.94000 5.380
32.96000 3.901
32.98000 5.183
33.00000 3.597
33.02000 5.474
33.04000 5.462
33.06000 2.698
33.08000 1.821
33.10000 5.742
33.12000 5.723
33.14000 0.738
33.16000 3.499
33.18000 6.662
33.20000 8.229
33.22000 5.737
33.24000 3.804
33.26000 7.174
33.28000 7.607
33.30000 9.419
33.32000 3.596
33.34000 5.051
33.36000 6.711
33.38000 5.959
33.40000 3.035
33.42000 2.302
33.44000 2.989
33.46000 1.536
33.48000 2.106
33.50000 1.546
33.52000 2.856
33.54000 0.630
33.56000 2.366
33.58000 -1.059
33.60000 -3.592
33.62000 0.579
33.64000 2.862
33.66000 2.719
33.68000 2.074
33.70000 3.888
33.72000 6.113
33.74000 0.431
33.76000 1.627
33.78000 2.315
33.80000 8.141
33.82000 6.418
33.84000 0.908
33.86000 -1.608
33.88000 -0.121
33.90000 0.370
33.92000 5.967
33.94000 8.623
33.96000 5.916
33.98000 2.613
34.00000 2.735
34.02000 -1.170
34.04000 1.620
34.06000 3.336
34.08000 5.124
34.10000 -0.902
34.12000 1.587
34.14000 4.072
34.16000 4.041
34.18000 4.899
34.20000 5.159
34.22000 3.389
34.24000 -3.596
34.26000 -1.773
34.28000 3.817
34.30000 -2.268
34.32000 1.860
34.34000 3.715
34.36000 6.129
34.38000 0.529
34.40000 1.379
34.42000 0.232
34.44000 0.259
34.46000 1.703
34.48000 0.544
34.50000 0.360
34.52000 1.938
34.54000 6.625
34.56000 7.883
34.58000 6.546
34.60000 3.063
34.62000 4.343
34.64000 5.793
34.66000 4.408
34.68000 1.587
34.70000 1.753
34.72000 -1.904
34.74000 -1.988
34.76000 2.296
34.78000 2.810
34.80000 0.532
34.82000 3.877
34.84000 4.171
34.86000 1.246
34.88000 5.004
34.90000 2.854
34.92000 3.131
34.94000 5.525
34.96000 3.509
34.98000 4.583
35.00000 2.960
35.02000 1.724
35.04000 4.993
35.06000 4.947
35.08000 -3.081
35.10000 -1.900
35.12000 1.723
35.14000 2.019
35.16000 0.210
35.18000 -0.812
35.20000 -3.579
35.22000 1.625
35.24000 3.267
35.26000 3.077
35.28000 4.250
35.30000 3.890
35.32000 -0.550
35.34000 -1.986
35.36000 -1.238
35.38000 2.517
35.40000 1.409
35.42000 2.095
35.44000 4.970
35.46000 5.083
35.48000 2.137
35.50000 0.613
35.52000 1.270
35.54000 1.865
35.56000 2.635
35.58000 0.536
35.60000 -0.339
35.62000 0.243
35.64000 -0.312
35.66000 2.751
35.68000 1.882
35.70000 1.206
35.72000 -1.811
35.74000 0.213
35.76000 0.311
35.78000 4.671
35.80000 1.820
35.82000 -2.118
35.84000 -0.034
35.86000 2.121
35.88000 0.278
35.90000 0.761
35.92000 5.735
35.94000 0.308
35.96000 -0.937
35.98000 5.785
36.00000 7.467
36.02000 0.913
36.04000 3.439
36.06000 3.832
36.08000 0.273
36.10000 1.687
36.12000 3.899
36.14000 3.318
36.16000 1.535
36.18000 0.073
36.20000 3.850
36.22000 2.840
36.24000 1.257
36.26000 -3.610
36.28000 -3.546
36.30000 0.029
36.32000 -1.261
36.34000 -1.110
36.36000 -1.235
36.38000 -0.650
36.40000 -0.313
36.42000 -2.695
36.44000 -3.136
36.46000 -0.702
36.48000 1.854
36.50000 3.879
36.52000 4.560
36.54000 7.860
36.56000 8.698
36.58000 4.249
36.60000 1.519
36.62000 2.106
36.64000 -0.709
36.66000 2.385
36.68000 5.438
36.70000 1.187
36.72000 2.389
36.74000 4.768
36.76000 0.519
36.78000 5.033
36.80000 1.215
36.82000 0.856
36.84000 0.653
36.86000 -2.502
36.88000 0.876
36.90000 2.904
36.92000 1.512
36.94000 0.831
36.96000 1.934
36.98000 6.503
37.00000 7.386
37.02000 3.070
37.04000 3.782
37.06000 7.523
37.08000 10.249
37.10000 3.831
37.12000 4.683
37.14000 7.878
37.16000 8.298
37.18000 7.215
37.20000 7.308
37.22000 9.771
37.24000 9.497
37.26000 8.008
37.28000 5.975
37.30000 10.675
37.32000 12.124
37.34000 6.652
37.36000 4.207
37.38000 10.219
37.40000 6.111
37.42000 8.399
37.44000 9.009
37.46000 10.363
37.48000 10.791
37.50000 11.195
37.52000 5.142
37.54000 9.599
37.56000 13.252
37.58000 10.040
37.60000 9.980
37.62000 12.207
37.64000 12.237
37.66000 19.690
37.68000 20.552
37.70000 18.866
37.72000 17.763
37.74000 18.477
37.76000 17.616
37.78000 20.231
37.80000 19.209
37.82000 17.836
37.84000 15.477
37.86000 21.652
37.88000 24.959
37.90000 22.331
37.92000 23.124
37.94000 24.033
37.96000 26.251
37.98000 26.927
38.00000 24.247
38.02000 24.194
38.04000 26.998
38.06000 26.956
38.08000 27.422
38.10000 32.665
38.12000 35.778
38.14000 31.925
38.16000 37.465
38.18000 39.596
38.20000 40.944
38.22000 35.978
38.24000 37.431
38.26000 42.222
38.28000 41.019
38.30000 44.973
38.32000 45.434
38.34000 47.634
38.36000 48.713
38.38000 58.955
38.40000 54.653
38.42000 57.409
38.44000 61.165
38.46000 67.093
38.48000 70.045
38.50000 70.065
38.52000 69.415
38.54000 75.554
38.56000 72.455
38.58000 75.422
38.60000 83.243
38.62000 88.831
38.64000 92.584
38.66000 106.053
38.68000 111.204
38.70000 115.608
38.72000 120.274
38.74000 114.032
38.76000 117.975
38.78000 130.996
38.80000 146.005
38.82000 146.289
38.84000 159.886
38.86000 174.677
38.88000 183.332
38.90000 195.807
38.92000 201.048
38.94000 216.046
38.96000 228.235
38.98000 242.707
39.00000 261.122
39.02000 275.543
39.04000 298.485
39.06000 310.992
39.08000 321.469
39.10000 342.286
39.12000 363.960
39.14000 380.730
39.16000 397.696
39.18000 414.613
39.20000 428.802
39.22000 448.382
39.24000 460.078
39.26000 480.162
39.28000 494.387
39.30000 510.889
39.32000 524.185
39.34000 526.922
39.36000 537.357
39.38000 540.396
39.40000 540.889
39.42000 540.855
39.44000 540.686
39.46000 545.207
39.48000 541.295
39.50000 529.231
39.52000 520.896
39.54000 505.411
39.56000 489.689
39.58000 483.237
39.60000 469.463
39.62000 445.497
39.64000 421.328
39.66000 397.436
39.68000 373.485
39.70000 373.117
39.72000 357.781
39.74000 339.017
39.76000 313.644
39.78000 302.029
39.80000 287.078
39.82000 263.799
39.84000 250.528
39.86000 240.080
39.88000 225.108
39.90000 214.262
39.92000 197.235
39.94000 179.194
39.96000 164.532
39.98000 157.306
40.00000 152.907
40.02000 139.809
40.04000 132.263
40.06000 121.624
40.08000 116.065
40.10000 108.152
40.12000 105.515
40.14000 97.065
40.16000 90.410
40.18000 83.904
40.20000 75.162
40.22000 71.887
40.24000 72.157
40.26000 67.344
40.28000 64.853
40.30000 60.975
40.32000 56.237
40.34000 53.438
40.36000 48.174
40.38000 44.622
40.40000 44.269
40.42000 41.131
40.44000 44.041
40.46000 42.968
40.48000 37.512
40.50000 36.673
40.52000 34.630
40.54000 32.925
40.56000 29.102
40.58000 27.276
40.60000 28.962
40.62000 24.164
40.64000 25.157
40.66000 20.231
40.68000 19.803
40.70000 21.900
40.72000 24.711
40.74000 23.855
40.76000 20.655
40.78000 20.205
40.80000 14.412
40.82000 14.896
40.84000 17.472
40.86000 15.157
40.88000 10.496
40.90000 12.060
40.92000 14.252
40.94000 15.005
40.96000 11.770
40.98000 13.607
41.00000 12.990
41.02000 13.635
41.04000 11.334
41.06000 8.002
41.08000 10.317
41.10000 9.662
41.12000 11.075
41.14000 9.038
41.16000 10.617
41.18000 13.153
41.20000 13.029
41.22000 9.671
41.24000 7.238
41.26000 7.827
41.28000 6.094
41.30000 7.647
41.32000 4.625
41.34000 4.141
41.36000 4.457
41.38000 6.978
41.40000 5.177
41.42000 4.260
41.44000 5.772
41.46000 7.001
41.48000 5.839
41.50000 3.396
41.52000 -1.494
41.54000 -3.439
41.56000 1.321
41.58000 2.196
41.60000 -0.327
41.62000 -2.640
41.64000 -0.296
41.66000 4.202
41.68000 4.743
41.70000 4.751
41.72000 5.197
41.74000 2.294
41.76000 -0.788
41.78000 1.574
41.80000 0.678
41.82000 -1.536
41.84000 -0.255
41.86000 -1.152
41.88000 4.208
41.90000 4.999
41.92000 3.685
41.94000 0.033
41.96000 -1.571
41.98000 -0.774
42.00000 -0.297
42.02000 -0.519
42.04000 -1.528
42.06000 -2.456
42.08000 -0.008
42.10000 2.630
42.12000 2.659
42.14000 -0.318
42.16000 2.154
42.18000 2.803
42.20000 4.155
42.22000 -0.882
42.24000 -1.954
42.26000 0.229
42.28000 1.660
42.30000 0.234
42.32000 -1.039
42.34000 -2.111
42.36000 -0.927
42.38000 2.651
42.40000 -0.214
42.42000 -3.311
42.44000 -0.204
42.46000 -1.167
42.48000 -0.356
42.50000 4.734
42.52000 3.343
42.54000 0.538
42.56000 1.413
42.58000 1.877
42.60000 0.363
42.62000 1.771
42.64000 -0.153
42.66000 -2.978
42.68000 -0.983
42.70000 2.145
42.72000 1.749
42.74000 2.511
42.76000 3.257
42.78000 0.371
42.80000 0.368
42.82000 2.648
42.84000 0.730
42.86000 0.584
42.88000 0.777
42.90000 0.303
42.92000 -1.081
42.94000 -2.225
42.96000 0.003
42.98000 1.788
43.00000 -2.001
43.02000 -1.017
43.04000 0.850
43.06000 0.058
43.08000 -0.224
43.10000 -0.194
43.12000 -0.489
43.14000 2.345
43.16000 -0.230
43.18000 -3.085
43.20000 -1.554
43.22000 0.264
43.24000 0.330
43.26000 2.055
43.28000 1.395
43.30000 1.591
43.32000 2.344
43.34000 3.421
43.36000 1.266
43.38000 -1.042
43.40000 -1.307
43.42000 0.866
43.44000 5.855
43.46000 7.399
43.48000 2.659
43.50000 0.024
43.52000 -1.138
43.54000 2.562
43.56000 3.331
43.58000 -0.256
43.60000 -3.173
43.62000 -2.908
43.64000 5.066
43.66000 2.374
43.68000 0.567
43.70000 4.189
43.72000 2.398
43.74000 -0.650
43.76000 -1.982
43.78000 -1.608
43.80000 0.462
43.82000 1.100
43.84000 1.515
43.86000 0.585
43.88000 0.343
43.90000 -0.766
43.92000 -3.157
43.94000 -1.844
43.96000 1.892
43.98000 -1.317
44.00000 -2.053
44.02000 1.338
44.04000 -2.275
44.06000 0.659
44.08000 -1.000
44.10000 -1.986
44.12000 2.409
44.14000 1.614
44.16000 1.218
44.18000 0.318
44.20000 -1.562
44.22000 -0.560
44.24000 1.626
44.26000 1.240
44.28000 3.984
44.30000 3.656
44.32000 0.720
44.34000 -1.174
44.36000 -3.142
44.38000 -1.027
44.40000 2.485
44.42000 3.366
44.44000 4.271
44.46000 3.298
44.48000 6.066
44.50000 4.270
44.52000 0.514
44.54000 3.412
44.56000 5.206
44.58000 4.449
44.60000 3.258
44.62000 2.627
44.64000 0.224
44.66000 -0.887
44.68000 3.045
44.70000 2.956
44.72000 4.888
44.74000 1.224
44.76000 3.828
44.78000 4.196
44.80000 8.882
44.82000 5.350
44.84000 3.895
44.86000 7.404
44.88000 11.103
44.90000 10.888
44.92000 9.137
44.94000 7.265
44.96000 5.448
44.98000 6.349
45.00000 9.298
45.02000 9.476
45.04000 7.468
45.06000 10.119
45.08000 12.147
45.10000 13.066
45.12000 11.595
45.14000 11.513
45.16000 17.539
45.18000 18.592
45.20000 16.941
45.22000 23.271
45.24000 20.548
45.26000 17.032
45.28000 18.369
45.30000 19.834
45.32000 22.080
45.34000 20.551
45.36000 21.969
45.38000 23.438
45.40000 23.590
45.42000 24.110
45.44000 26.009
45.46000 26.600
45.48000 32.842
45.50000 29.816
45.52000 30.484
45.54000 29.680
45.56000 33.979
45.58000 36.785
45.60000 41.615
45.62000 42.389
45.64000 44.711
45.66000 44.230
45.68000 48.192
45.70000 49.054
45.72000 48.426
45.74000 48.325
45.76000 56.786
45.78000 58.533
45.80000 56.667
45.82000 51.624
45.84000 52.266
45.86000 58.241
45.88000 56.997
45.90000 52.969
45.92000 52.042
45.94000 58.042
45.96000 60.213
45.98000 60.056
46.00000 60.783
46.02000 65.980
46.04000 62.332
46.06000 63.987
46.08000 70.460
46.10000 64.181
46.12000 60.161
46.14000 61.341
46.16000 60.803
46.18000 62.556
46.20000 63.530
46.22000 60.522
46.24000 64.537
46.26000 66.717
46.28000 61.223
46.30000 60.690
46.32000 59.204
46.34000 55.816
46.36000 54.360
46.38000 50.375
46.40000 44.400
46.42000 44.986
46.44000 45.188
46.46000 47.786
46.48000 46.792
46.50000 47.443
46.52000 41.093
46.54000 38.027
46.56000 35.150
46.58000 35.426
46.60000 32.314
46.62000 30.711
46.64000 28.635
46.66000 26.078
46.68000 22.014
46.70000 23.138
46.72000 20.272
46.74000 17.628
46.76000 14.344
46.78000 25.202
46.80000 21.879
46.82000 18.394
46.84000 12.779
46.86000 9.642
46.88000 12.006
46.90000 14.680
46.92000 14.302
46.94000 12.918
46.96000 9.195
46.98000 6.782
47.00000 5.041
47.02000 6.243
47.04000 5.920
47.06000 6.128
47.08000 6.701
47.10000 4.214
47.12000 4.275
47.14000 10.240
47.16000 4.668
47.18000 4.639
47.20000 4.738
47.22000 5.678
47.24000 5.287
47.26000 1.292
47.28000 2.520
47.30000 1.950
47.32000 1.863
47.34000 2.046
47.36000 1.795
47.38000 3.242
47.40000 0.304
47.42000 -2.070
47.44000 1.247
47.46000 3.726
47.48000 3.008
47.50000 1.244
47.52000 2.756
47.54000 4.143
47.56000 3.605
47.58000 5.252
47.60000 6.722
47.62000 6.362
47.64000 3.284
47.66000 1.668
47.68000 4.445
47.70000 1.217
47.72000 -1.515
47.74000 -1.990
47.76000 -2.710
47.78000 4.025
47.80000 3.928
47.82000 5.501
47.84000 -0.050
47.86000 -0.634
47.88000 4.267
47.90000 2.358
47.92000 3.356
47.94000 2.721
47.96000 0.667
47.98000 -1.831
48.00000 1.101
48.02000 0.883
48.04000 0.774
48.06000 4.663
48.08000 3.662
48.10000 1.469
48.12000 4.142
48.14000 2.856
48.16000 2.424
48.18000 1.299
48.20000 3.613
48.22000 0.408
48.24000 3.423
48.26000 1.067
48.28000 -0.264
48.30000 0.698
48.32000 2.451
48.34000 2.529
48.36000 4.932
48.38000 6.872
48.40000 2.561
48.42000 2.717
48.44000 2.962
48.46000 4.311
48.48000 3.754
48.50000 2.204
48.52000 -2.636
48.54000 2.729
48.56000 2.012
48.58000 4.584
48.60000 2.585
48.62000 -0.336
48.64000 -1.308
48.66000 -2.073
48.68000 3.522
48.70000 5.171
48.72000 2.352
48.74000 -1.709
48.76000 2.249
48.78000 1.853
48.80000 -0.900
48.82000 2.487
48.84000 1.833
48.86000 1.778
48.88000 0.215
48.90000 1.480
48.92000 1.594
48.94000 0.601
48.96000 0.423
48.98000 5.435
49.00000 4.062
49.02000 2.400
49.04000 2.572
49.06000 0.101
49.08000 0.402
49.10000 1.750
49.12000 -0.757
49.14000 -0.286
49.16000 3.552
49.18000 8.303
49.20000 5.711
49.22000 2.000
49.24000 1.267
49.26000 1.658
49.28000 -0.925
49.30000 4.817
49.32000 0.794
49.34000 -1.074
49.36000 1.663
49.38000 -1.594
49.40000 1.059
49.42000 1.636
49.44000 -0.064
49.46000 -0.345
49.48000 -0.338
49.50000 -0.016
49.52000 3.108
49.54000 3.624
49.56000 0.711
49.58000 -0.008
49.60000 1.565
49.62000 3.478
49.64000 4.958
49.66000 1.476
49.68000 -0.346
49.70000 4.523
49.72000 2.762
49.74000 2.235
49.76000 1.047
49.78000 5.759
49.80000 7.638
49.82000 3.479
49.84000 3.236
49.86000 3.831
49.88000 3.534
49.90000 2.468
49.92000 0.559
49.94000 3.353
49.96000 1.169
49.98000 2.566
50.00000 1.764
50.02000 2.116
50.04000 0.866
50.06000 1.321
50.08000 -2.536
50.10000 -1.781
50.12000 0.646
50.14000 5.018
50.16000 3.491
50.18000 2.223
50.20000 7.741
50.22000 6.798
50.24000 5.084
50.26000 0.847
50.28000 1.010
50.30000 8.236
50.32000 9.296
50.34000 8.464
50.36000 4.680
50.38000 4.080
50.40000 3.901
50.42000 5.994
50.44000 4.086
50.46000 1.199
50.48000 1.867
50.50000 0.938
50.52000 3.091
50.54000 -2.511
50.56000 1.560
50.58000 3.890
50.60000 2.191
50.62000 1.889
50.64000 2.257
50.66000 5.780
50.68000 4.673
50.70000 1.467
50.72000 1.526
50.74000 1.652
50.76000 4.304
50.78000 2.586
50.80000 3.335
50.82000 1.961
50.84000 -0.863
50.86000 -1.916
50.88000 -1.024
50.90000 4.186
50.92000 3.184
50.94000 4.370
50.96000 3.162
50.98000 4.315
51.00000 1.235
51.02000 2.676
51.04000 4.795
51.06000 2.069
51.08000 -1.273
51.10000 -0.841
51.12000 2.500
51.14000 0.716
51.16000 7.882
51.18000 5.493
51.20000 2.292
51.22000 2.246
51.24000 1.878
51.26000 3.643
51.28000 2.545
51.30000 4.575
51.32000 3.770
51.34000 7.573
51.36000 5.853
51.38000 8.104
51.40000 7.554
51.42000 6.637
51.44000 4.568
51.46000 1.784
51.48000 2.626
51.50000 3.042
51.52000 3.346
51.54000 4.538
51.56000 7.178
51.58000 1.852
51.60000 2.989
51.62000 1.674
51.64000 -0.226
51.66000 0.545
51.68000 -1.916
51.70000 -1.310
51.72000 2.557
51.74000 5.683
51.76000 4.417
51.78000 3.873
51.80000 5.814
51.82000 5.475
51.84000 4.505
51.86000 1.976
51.88000 -2.213
51.90000 -2.470
51.92000 1.918
51.94000 3.640
51.96000 4.796
51.98000 4.921
52.00000 2.464
52.02000 2.212
52.04000 6.170
52.06000 5.384
52.08000 3.233
52.10000 4.353
52.12000 6.732
52.14000 4.131
52.16000 4.405
52.18000 5.189
52.20000 0.337
52.22000 0.350
52.24000 0.844
52.26000 2.991
52.28000 6.487
52.30000 5.833
52.32000 2.312
52.34000 1.961
52.36000 3.364
52.38000 6.548
52.40000 3.169
52.42000 -0.073
52.44000 2.369
52.46000 2.596
52.48000 1.376
52.50000 1.609
52.52000 0.009
52.54000 0.506
52.56000 2.979
52.58000 -0.678
52.60000 3.424
52.62000 3.974
52.64000 -0.364
52.66000 0.488
52.68000 1.903
52.70000 0.537
52.72000 -1.183
52.74000 -0.462
52.76000 0.904
52.78000 2.032
52.80000 4.697
52.82000 3.831
52.84000 -0.468
52.86000 -1.556
52.88000 1.382
52.90000 4.439
52.92000 0.734
52.94000 -2.473
52.96000 -0.963
52.98000 -1.732
53.00000 -0.666
53.02000 2.827
53.04000 3.598
53.06000 4.496
53.08000 0.083
53.10000 -1.757
53.12000 -0.962
53.14000 1.518
53.16000 0.707
53.18000 1.016
53.20000 2.829
53.22000 -1.117
53.24000 4.573
53.26000 1.095
53.28000 -1.439
53.30000 0.791
53.32000 -0.287
53.34000 3.340
53.36000 2.636
53.38000 5.599
53.40000 6.540
53.42000 2.640
53.44000 -0.905
53.46000 -0.109
53.48000 -1.378
53.50000 3.274
53.52000 2.883
53.54000 1.668
53.56000 0.595
53.58000 0.637
53.60000 0.680
53.62000 -0.002
53.64000 1.045
53.66000 -1.081
53.68000 2.193
53.70000 1.494
53.72000 0.418
53.74000 -0.650
53.76000 1.173
53.78000 1.956
53.80000 3.712
53.82000 3.553
53.84000 1.687
53.86000 1.250
53.88000 3.601
53.90000 3.334
53.92000 3.163
53.94000 3.078
53.96000 1.992
53.98000 -0.185
54.00000 -0.228
54.02000 1.380
54.04000 0.908
54.06000 0.326
54.08000 -0.172
54.10000 5.294
54.12000 2.909
54.14000 -0.411
54.16000 -1.813
54.18000 3.800
54.20000 3.997
54.22000 0.946
54.24000 1.232
54.26000 3.395
54.28000 4.037
54.30000 4.349
54.32000 2.108
54.34000 -0.893
54.36000 1.868
54.38000 2.173
54.40000 -0.666
54.42000 1.998
54.44000 -0.886
54.46000 0.922
54.48000 3.631
54.50000 4.835
54.52000 5.181
54.54000 3.428
54.56000 -1.816
54.58000 7.044
54.60000 5.581
54.62000 0.283
54.64000 1.646
54.66000 1.591
54.68000 1.638
54.70000 0.636
54.72000 1.785
54.74000 -2.238
54.76000 -2.407
54.78000 -1.929
54.80000 0.141
54.82000 3.019
54.84000 3.452
54.86000 2.512
54.88000 7.332
54.90000 5.925
54.92000 4.268
54.94000 4.078
54.96000 4.860
54.98000 2.130
55.00000 4.727
55.02000 2.374
55.04000 0.808
55.06000 -0.035
55.08000 2.187
55.10000 3.700
55.12000 2.228
55.14000 4.800
55.16000 3.639
55.18000 2.766
55.20000 1.577
55.22000 0.431
55.24000 -2.406
55.26000 0.178
55.28000 2.963
55.30000 0.480
55.32000 2.464
55.34000 7.166
55.36000 5.985
55.38000 3.121
55.40000 1.817
55.42000 3.361
55.44000 2.713
55.46000 1.181
55.48000 3.255
55.50000 5.191
55.52000 0.068
55.54000 -1.394
55.56000 2.933
55.58000 3.342
55.60000 4.874
55.62000 5.871
55.64000 2.146
55.66000 0.689
55.68000 1.969
55.70000 1.675
55.72000 -1.564
55.74000 0.805
55.76000 -0.389
55.78000 -1.457
55.80000 2.053
55.82000 2.246
55.84000 -2.096
55.86000 -2.402
55.88000 0.458
55.90000 3.965
55.92000 5.214
55.94000 4.782
55.96000 3.727
55.98000 5.233
56.00000 5.059
56.02000 3.286
56.04000 2.754
56.06000 0.658
56.08000 1.230
56.10000 2.563
56.12000 3.121
56.14000 0.442
56.16000 -0.583
56.18000 0.732
56.20000 0.740
56.22000 -1.657
56.24000 -0.774
56.26000 0.460
56.28000 1.946
56.30000 2.377
56.32000 2.262
56.34000 -0.068
56.36000 0.502
56.38000 2.307
56.40000 5.115
56.42000 5.401
56.44000 0.718
56.46000 -0.152
56.48000 0.685
56.50000 3.171
56.52000 4.173
56.54000 1.629
56.56000 -0.497
56.58000 2.942
56.60000 2.545
56.62000 -0.105
56.64000 4.987
56.66000 5.976
56.68000 5.237
56.70000 -0.137
56.72000 -0.739
56.74000 0.049
56.76000 4.370
56.78000 3.690
56.80000 3.299
56.82000 3.286
56.84000 7.127
56.86000 1.210
56.88000 4.209
56.90000 3.143
56.92000 -0.306
56.94000 -2.356
56.96000 3.459
56.98000 4.056
57.00000 4.125
57.02000 5.863
57.04000 0.819
57.06000 0.283
57.08000 0.831
57.10000 2.240
57.12000 2.871
57.14000 3.447
57.16000 1.330
57.18000 -1.110
57.20000 -0.023
57.22000 3.271
57.24000 4.526
57.26000 6.111
57.28000 3.349
57.30000 1.660
57.32000 3.476
57.34000 1.041
57.36000 2.781
57.38000 2.322
57.40000 -2.132
57.42000 -2.345
57.44000 1.885
57.46000 2.131
57.48000 2.435
57.50000 5.144
57.52000 1.854
57.54000 1.513
57.56000 0.107
57.58000 3.800
57.60000 4.101
57.62000 1.091
57.64000 1.999
57.66000 4.352
57.68000 5.488
57.70000 1.396
57.72000 2.627
57.74000 3.663
57.76000 2.103
57.78000 5.598
57.80000 4.312
57.82000 2.612
57.84000 2.143
57.86000 4.126
57.88000 3.359
57.90000 0.703
57.92000 3.041
57.94000 2.446
57.96000 2.977
57.98000 -0.304
58.00000 4.883
58.02000 1.864
58.04000 4.754
58.06000 3.443
58.08000 1.673
58.10000 1.560
58.12000 1.002
58.14000 2.030
58.16000 0.731
58.18000 2.212
58.20000 0.481
58.22000 -0.612
58.24000 0.667
58.26000 2.856
58.28000 1.774
58.30000 2.975
58.32000 4.052
58.34000 3.562
58.36000 2.152
58.38000 0.929
58.40000 3.268
58.42000 3.324
58.44000 0.351
58.46000 2.026
58.48000 2.920
58.50000 0.669
58.52000 3.694
58.54000 5.156
58.56000 1.156
58.58000 -0.431
58.60000 2.934
58.62000 4.302
58.64000 1.496
58.66000 2.319
58.68000 3.345
58.70000 4.347
58.72000 4.333
58.74000 6.232
58.76000 6.194
58.78000 5.771
58.80000 4.780
58.82000 2.751
58.84000 4.108
58.86000 2.332
58.88000 2.169
58.90000 0.478
58.92000 1.600
58.94000 3.013
58.96000 6.754
58.98000 6.325
59.00000 6.752
59.02000 4.964
59.04000 4.936
59.06000 3.692
59.08000 5.790
59.10000 4.554
59.12000 5.602
59.14000 8.301
59.16000 5.438
59.18000 5.082
59.20000 4.534
59.22000 5.625
59.24000 4.144
59.26000 2.305
59.28000 -2.237
59.30000 0.409
59.32000 7.397
59.34000 7.336
59.36000 5.195
59.38000 3.636
59.40000 3.369
59.42000 4.893
59.44000 3.718
59.46000 0.445
59.48000 4.460
59.50000 8.278
59.52000 7.779
59.54000 5.710
59.56000 4.266
59.58000 7.089
59.60000 5.490
59.62000 5.119
59.64000 3.062
59.66000 2.851
59.68000 5.167
59.70000 4.364
59.72000 5.305
59.74000 3.672
59.76000 6.148
59.78000 4.344
59.80000 6.219
59.82000 8.569
59.84000 6.426
59.86000 2.298
59.88000 5.248
59.90000 2.764
59.92000 4.008
59.94000 2.953
59.96000 2.337
59.98000 1.460
60.00000 1.695
60.02000 3.047
60.04000 1.342
60.06000 4.352
60.08000 4.542
60.10000 1.650
60.12000 1.448
60.14000 -0.169
60.16000 -0.441
60.18000 -0.537
60.20000 1.289
60.22000 1.788
60.24000 2.980
60.26000 3.604
60.28000 2.592
60.30000 3.859
60.32000 6.033
60.34000 3.688
60.36000 3.338
60.38000 2.205
60.40000 1.474
60.42000 2.194
60.44000 0.328
60.46000 0.499
60.48000 0.501
60.50000 0.954
60.52000 2.645
60.54000 0.033
60.56000 -0.547
60.58000 4.204
60.60000 7.309
60.62000 4.951
60.64000 3.828
60.66000 1.716
60.68000 7.439
60.70000 5.410
60.72000 1.860
60.74000 1.699
60.76000 1.598
60.78000 0.625
60.80000 2.230
60.82000 2.704
60.84000 -0.102
60.86000 -0.591
60.88000 1.048
60.90000 1.922
60.92000 -0.935
60.94000 -1.373
60.96000 1.187
60.98000 0.234
61.00000 0.314
61.02000 -0.775
61.04000 3.477
61.06000 4.282
61.08000 2.493
61.10000 3.501
61.12000 2.725
61.14000 2.063
61.16000 4.175
61.18000 0.517
61.20000 -0.152
61.22000 3.081
61.24000 0.547
61.26000 4.188
61.28000 0.947
61.30000 2.066
61.32000 4.391
61.34000 4.654
61.36000 1.846
61.38000 3.709
61.40000 2.568
61.42000 3.094
61.44000 2.604
61.46000 3.607
61.48000 3.747
61.50000 3.385
61.52000 4.085
61.54000 2.407
61.56000 1.165
61.58000 3.552
61.60000 5.442
61.62000 0.822
61.64000 -0.179
61.66000 2.009
61.68000 1.996
61.70000 -2.192
61.72000 1.464
61.74000 7.058
61.76000 3.289
61.78000 3.230
61.80000 6.727
61.82000 6.595
61.84000 3.959
61.86000 5.861
61.88000 5.458
61.90000 6.443
61.92000 5.065
61.94000 3.893
61.96000 1.795
61.98000 5.647
62.00000 4.858
62.02000 4.932
62.04000 6.785
62.06000 -0.187
62.08000 -2.195
62.10000 -0.772
62.12000 2.275
62.14000 5.223
62.16000 1.689
62.18000 4.396
62.20000 2.677
62.22000 1.323
62.24000 1.353
62.26000 4.015
62.28000 4.245
62.30000 6.055
62.32000 5.113
62.34000 2.411
62.36000 -0.037
62.38000 0.436
62.40000 4.538
62.42000 4.855
62.44000 2.641
62.46000 -1.171
62.48000 2.231
62.50000 2.814
62.52000 1.361
62.54000 1.498
62.56000 0.032
62.58000 -0.811
62.60000 3.061
62.62000 5.288
62.64000 1.976
62.66000 2.029
62.68000 0.474
62.70000 0.638
62.72000 2.077
62.74000 -0.473
62.76000 0.941
62.78000 3.914
62.80000 4.629
62.82000 1.406
62.84000 3.972
62.86000 2.792
62.88000 2.466
62.90000 2.642
62.92000 2.640
62.94000 2.699
62.96000 0.404
62.98000 -1.108
63.00000 -2.205
63.02000 2.783
63.04000 1.255
63.06000 -0.704
63.08000 0.830
63.10000 2.264
63.12000 0.419
63.14000 3.244
63.16000 0.537
63.18000 0.652
63.20000 1.073
63.22000 2.477
63.24000 2.552
63.26000 0.367
63.28000 -1.071
63.30000 3.357
63.32000 1.226
63.34000 1.874
63.36000 0.847
63.38000 -0.046
63.40000 -0.196
63.42000 1.223
63.44000 0.549
63.46000 -0.030
63.48000 1.012
63.50000 1.554
63.52000 0.767
63.54000 1.283
63.56000 1.121
63.58000 2.584
63.60000 1.539
63.62000 -1.316
63.64000 1.121
63.66000 2.214
63.68000 4.439
63.70000 3.541
63.72000 2.671
63.74000 3.076
63.76000 3.439
63.78000 5.621
63.80000 2.600
63.82000 2.572
63.84000 0.708
63.86000 1.261
63.88000 0.353
63.90000 1.624
63.92000 0.833
63.94000 0.200
63.96000 0.483
63.98000 0.897
64.00000 5.522
64.02000 5.633
64.04000 5.874
64.06000 3.987
64.08000 2.745
64.10000 2.552
64.12000 5.293
64.14000 1.578
64.16000 -2.153
64.18000 -0.424
64.20000 0.777
64.22000 2.935
64.24000 3.073
64.26000 3.500
64.28000 0.758
64.30000 2.087
64.32000 5.781
64.34000 6.531
64.36000 1.829
64.38000 3.772
64.40000 4.988
64.42000 1.907
64.44000 2.953
64.46000 3.089
64.48000 1.460
64.50000 2.908
64.52000 2.699
64.54000 0.799
64.56000 1.719
64.58000 2.597
64.60000 2.534
64.62000 1.625
64.64000 -1.757
64.66000 2.971
64.68000 5.725
64.70000 3.028
64.72000 6.225
64.74000 5.087
64.76000 3.142
64.78000 4.300
64.80000 2.773
64.82000 1.843
64.84000 2.600
64.86000 0.735
64.88000 0.614
64.90000 1.584
64.92000 3.589
64.94000 5.955
64.96000 5.157
64.98000 4.217
65.00000 4.571
65.02000 4.513
65.04000 3.588
65.06000 0.505
65.08000 0.929
65.10000 0.772
65.12000 -0.065
65.14000 1.842
65.16000 3.391
65.18000 -0.011
65.20000 2.512
65.22000 4.742
65.24000 2.772
65.26000 0.556
65.28000 1.835
65.30000 3.146
65.32000 1.318
65.34000 0.020
65.36000 -0.307
65.38000 2.396
65.40000 5.750
65.42000 3.463
65.44000 1.888
65.46000 3.859
65.48000 6.585
65.50000 4.635
65.52000 4.124
65.54000 2.516
65.56000 4.759
65.58000 2.753
65.60000 1.142
65.62000 0.916
65.64000 -2.159
65.66000 0.048
65.68000 3.617
65.70000 5.270
65.72000 3.214
65.74000 3.637
65.76000 3.112
65.78000 5.614
65.80000 4.024
65.82000 1.861
65.84000 -1.792
65.86000 -1.217
65.88000 2.481
65.90000 1.724
65.92000 1.235
65.94000 3.049
65.96000 0.760
65.98000 3.079
66.00000 2.077
66.02000 2.648
66.04000 5.092
66.06000 5.539
66.08000 3.219
66.10000 2.131
66.12000 1.072
66.14000 2.676
66.16000 4.443
66.18000 3.302
66.20000 3.719
66.22000 4.005
66.24000 5.425
66.26000 3.028
66.28000 3.949
66.30000 3.244
66.32000 -0.432
66.34000 2.007
66.36000 4.678
66.38000 1.149
66.40000 -0.447
66.42000 1.483
66.44000 3.301
66.46000 2.412
66.48000 0.791
66.50000 2.753
66.52000 5.992
66.54000 6.688
66.56000 4.219
66.58000 4.417
66.60000 5.479
66.62000 3.851
66.64000 3.312
66.66000 7.093
66.68000 7.684
66.70000 5.833
66.72000 1.556
66.74000 4.236
66.76000 4.625
66.78000 2.455
66.80000 5.182
66.82000 8.514
66.84000 4.483
66.86000 7.121
66.88000 10.230
66.90000 8.140
66.92000 6.394
66.94000 7.077
66.96000 6.867
66.98000 8.543
67.00000 7.527
67.02000 6.743
67.04000 6.601
67.06000 7.848
67.08000 6.267
67.10000 8.329
67.12000 9.177
67.14000 7.455
67.16000 5.354
67.18000 9.272
67.20000 8.341
67.22000 7.109
67.24000 6.892
67.26000 8.096
67.28000 8.161
67.30000 7.614
67.32000 6.739
67.34000 8.674
67.36000 7.345
67.38000 6.437
67.40000 5.874
67.42000 5.659
67.44000 6.398
67.46000 5.162
67.48000 6.051
67.50000 5.876
67.52000 4.183
67.54000 0.484
67.56000 3.905
67.58000 3.145
67.60000 2.287
67.62000 4.200
67.64000 3.929
67.66000 2.472
67.68000 2.152
67.70000 1.819
67.72000 1.366
67.74000 2.110
67.76000 2.429
67.78000 1.663
67.80000 3.598
67.82000 3.435
67.84000 1.269
67.86000 1.915
67.88000 -0.070
67.90000 -0.094
67.92000 -0.629
67.94000 2.225
67.96000 2.777
67.98000 1.257
68.00000 -0.459
68.02000 1.340
68.04000 1.921
68.06000 1.457
68.08000 0.510
68.10000 0.433
68.12000 -0.356
68.14000 -0.988
68.16000 -0.235
68.18000 -1.487
68.20000 -1.483
68.22000 2.121
68.24000 0.855
68.26000 -2.128
68.28000 -0.498
68.30000 1.874
68.32000 1.130
68.34000 1.644
68.36000 1.422
68.38000 0.241
68.40000 -0.520
68.42000 -0.563
68.44000 0.602
68.46000 2.255
68.48000 0.871
68.50000 2.263
68.52000 0.158
68.54000 0.132
68.56000 0.619
68.58000 -0.215
68.60000 -2.087
68.62000 2.854
68.64000 4.167
68.66000 1.199
68.68000 1.566
68.70000 -0.813
68.72000 0.409
68.74000 2.860
68.76000 1.164
68.78000 2.061
68.80000 -1.614
68.82000 -1.406
68.84000 -2.039
68.86000 -2.085
68.88000 -1.099
68.90000 1.019
68.92000 1.436
68.94000 1.066
68.96000 -0.418
68.98000 -0.644
69.00000 0.620
69.02000 -0.344
69.04000 -0.344
69.06000 -0.101
69.08000 1.348
69.10000 -0.828
69.12000 -1.500
69.14000 -0.023
69.16000 0.079
69.18000 1.151
69.20000 0.958
69.22000 0.845
69.24000 -0.803
69.26000 -1.936
69.28000 1.214
69.30000 -0.684
69.32000 -0.004
69.34000 -0.821
69.36000 -0.997
69.38000 0.165
69.40000 1.945
69.42000 1.331
69.44000 3.401
69.46000 0.323
69.48000 0.142
69.50000 2.648
69.52000 1.498
69.54000 1.175
69.56000 1.620
69.58000 0.803
69.60000 1.001
69.62000 2.279
69.64000 2.065
69.66000 0.036
69.68000 -0.294
69.70000 -2.046
69.72000 -1.473
69.74000 -0.122
69.76000 4.232
69.78000 3.256
69.80000 1.535
69.82000 -1.359
69.84000 -1.043
69.86000 -1.141
69.88000 -1.464
69.90000 -0.865
69.92000 0.354
69.94000 0.752
69.96000 1.256
69.98000 2.193
70.00000 2.299
70.02000 3.737
70.04000 0.909
70.06000 -0.895
70.08000 -1.431
70.10000 -0.887
70.12000 -1.419
70.14000 -1.703
70.16000 -1.490
70.18000 0.567
70.20000 0.711
70.22000 -0.722
70.24000 -1.267
70.26000 -1.473
70.28000 -0.544
70.30000 0.348
70.32000 -2.011
70.34000 -0.433
70.36000 -1.202
70.38000 0.156
70.40000 -1.882
70.42000 0.316
70.44000 0.245
70.46000 0.106
70.48000 0.398
70.50000 2.026
70.52000 -1.213
70.54000 -2.005
70.56000 2.923
70.58000 0.706
70.60000 -0.642
70.62000 -1.710
70.64000 -0.430
70.66000 1.405
70.68000 2.561
70.70000 -0.270
70.72000 0.561
70.74000 2.923
70.76000 2.160
70.78000 0.356
70.80000 -0.314
70.82000 1.178
70.84000 1.452
70.86000 2.909
70.88000 -0.040
70.90000 -1.990
70.92000 1.945
70.94000 4.939
70.96000 4.979
70.98000 4.721
71.00000 2.547
71.02000 0.851
71.04000 0.318
71.06000 1.219
71.08000 1.006
71.10000 0.729
71.12000 -1.287
71.14000 -1.984
71.16000 -0.587
71.18000 0.936
71.20000 2.750
71.22000 3.181
71.24000 1.502
71.26000 0.301
71.28000 -1.631
71.30000 0.072
71.32000 1.238
71.34000 2.692
71.36000 0.362
71.38000 -0.057
71.40000 0.200
71.42000 2.865
71.44000 1.674
71.46000 0.851
71.48000 0.418
71.50000 1.175
71.52000 0.100
71.54000 0.669
71.56000 3.215
71.58000 2.462
71.60000 2.515
71.62000 2.379
71.64000 3.794
71.66000 5.721
71.68000 4.775
71.70000 4.796
71.72000 1.292
71.74000 0.800
71.76000 0.353
71.78000 2.554
71.80000 2.871
71.82000 4.325
71.84000 1.229
71.86000 2.336
71.88000 -0.290
71.90000 -1.933
71.92000 -0.494
71.94000 2.735
71.96000 3.934
71.98000 0.857
72.00000 -0.620
72.02000 0.657
72.04000 3.012
72.06000 2.845
72.08000 0.437
72.10000 0.344
72.12000 2.937
72.14000 -0.082
72.16000 0.523
72.18000 1.596
72.20000 1.852
72.22000 3.885
72.24000 1.316
72.26000 2.313
72.28000 4.588
72.30000 3.235
72.32000 2.177
72.34000 2.237
72.36000 3.086
72.38000 2.924
72.40000 1.994
72.42000 1.658
72.44000 1.058
72.46000 1.539
72.48000 2.010
72.50000 1.088
72.52000 3.389
72.54000 4.361
72.56000 2.923
72.58000 -0.269
72.60000 -0.067
72.62000 0.164
72.64000 -0.859
72.66000 0.978
72.68000 1.772
72.70000 1.814
72.72000 -0.891
72.74000 2.082
72.76000 -0.466
72.78000 0.253
72.80000 -1.935
72.82000 -0.400
72.84000 0.967
72.86000 0.118
72.88000 1.758
72.90000 0.989
72.92000 0.793
72.94000 0.905
72.96000 2.518
72.98000 2.070
73.00000 -1.441
73.02000 0.245
73.04000 2.179
73.06000 2.400
73.08000 1.274
73.10000 0.458
73.12000 -0.940
73.14000 1.104
73.16000 2.272
73.18000 0.725
73.20000 1.168
73.22000 1.171
73.24000 0.410
73.26000 -1.924
73.28000 -0.863
73.30000 -0.334
73.32000 0.508
73.34000 1.037
73.36000 0.689
73.38000 2.303
73.40000 2.786
73.42000 1.080
73.44000 1.265
73.46000 0.779
73.48000 0.946
73.50000 0.095
73.52000 -0.017
73.54000 -0.722
73.56000 -0.962
73.58000 -1.835
73.60000 0.419
73.62000 1.465
73.64000 3.788
73.66000 -0.485
73.68000 -0.272
73.70000 1.216
73.72000 2.445
73.74000 4.475
73.76000 3.830
73.78000 0.683
73.80000 1.975
73.82000 3.799
73.84000 3.034
73.86000 2.964
73.88000 3.502
73.90000 2.019
73.92000 -0.771
73.94000 0.501
73.96000 1.876
73.98000 2.104
74.00000 1.956
74.02000 3.473
74.04000 1.888
74.06000 3.711
74.08000 3.698
74.10000 4.344
74.12000 2.705
74.14000 2.468
74.16000 0.292
74.18000 0.251
74.20000 1.586
74.22000 0.867
74.24000 -0.921
74.26000 -1.869
74.28000 3.261
74.30000 5.209
74.32000 4.103
74.34000 3.473
74.36000 6.168
74.38000 4.462
74.40000 2.625
74.42000 0.454
74.44000 2.906
74.46000 3.311
74.48000 3.290
74.50000 4.467
74.52000 2.988
74.54000 2.998
74.56000 4.112
74.58000 1.110
74.60000 -0.540
74.62000 0.481
74.64000 2.692
74.66000 4.917
74.68000 1.949
74.70000 -0.718
74.72000 1.697
74.74000 2.965
74.76000 2.165
74.78000 -0.038
74.80000 2.940
74.82000 2.131
74.84000 0.742
74.86000 0.553
74.88000 0.597
74.90000 0.852
74.92000 -1.251
74.94000 1.413
74.96000 2.243
74.98000 0.547
75.00000 0.314
75.02000 0.968
75.04000 -0.346
75.06000 1.131
75.08000 1.707
75.10000 3.220
75.12000 3.337
75.14000 2.563
75.16000 3.551
75.18000 3.821
75.20000 5.686
75.22000 4.093
75.24000 2.105
75.26000 -1.182
75.28000 0.794
75.30000 -0.394
75.32000 -0.398
75.34000 0.804
75.36000 1.699
75.38000 2.448
75.40000 2.777
75.42000 1.088
75.44000 3.854
75.46000 3.914
75.48000 4.413
75.50000 2.339
75.52000 2.045
75.54000 2.798
75.56000 -1.699
75.58000 0.582
75.60000 4.457
75.62000 0.853
75.64000 1.597
75.66000 0.983
75.68000 0.317
75.70000 -1.914
75.72000 -0.315
75.74000 0.919
75.76000 2.141
75.78000 2.161
75.80000 0.981
75.82000 1.439
75.84000 1.528
75.86000 0.958
75.88000 1.626
75.90000 5.965
75.92000 4.118
75.94000 4.466
75.96000 3.933
75.98000 2.446
76.00000 3.968
76.02000 1.829
76.04000 0.921
76.06000 0.865
76.08000 5.052
76.10000 5.047
76.12000 2.169
76.14000 -1.444
76.16000 1.100
76.18000 1.733
76.20000 0.553
76.22000 1.668
76.24000 2.867
76.26000 2.018
76.28000 0.390
76.30000 1.412
76.32000 1.338
76.34000 3.092
76.36000 -0.057
76.38000 -0.918
76.40000 2.340
76.42000 2.420
76.44000 3.269
76.46000 1.402
76.48000 4.274
76.50000 1.695
76.52000 -1.287
76.54000 -0.445
76.56000 -1.003
76.58000 -1.033
76.60000 0.755
76.62000 5.331
76.64000 1.338
76.66000 1.303
76.68000 0.304
76.70000 1.154
76.72000 2.122
76.74000 -0.598
76.76000 2.929
76.78000 1.127
76.80000 3.928
76.82000 1.515
76.84000 2.362
76.86000 2.461
76.88000 0.407
76.90000 2.233
76.92000 4.081
76.94000 5.323
76.96000 -0.130
76.98000 3.344
77.00000 4.193
77.02000 2.954
77.04000 -1.918
77.06000 0.755
77.08000 -0.458
77.10000 0.106
77.12000 1.540
77.14000 3.344
77.16000 5.232
77.18000 6.917
77.20000 4.605
77.22000 4.221
77.24000 1.023
77.26000 1.628
77.28000 0.542
77.30000 0.447
77.32000 1.562
77.34000 3.019
77.36000 3.216
77.38000 2.456
77.40000 2.346
77.42000 4.926
77.44000 3.759
77.46000 4.702
77.48000 2.106
77.50000 2.080
77.52000 0.988
77.54000 2.662
77.56000 5.571
77.58000 3.040
77.60000 0.999
77.62000 1.328
77.64000 1.493
77.66000 -0.641
77.68000 1.566
77.70000 2.768
77.72000 3.466
77.74000 3.380
77.76000 -0.105
77.78000 -0.360
77.80000 0.666
77.82000 1.169
77.84000 -1.957
77.86000 1.065
77.88000 2.322
77.90000 4.122
77.92000 2.437
77.94000 1.440
77.96000 1.519
77.98000 2.408
78.00000 2.985
78.02000 1.517
78.04000 3.654
78.06000 1.487
78.08000 1.536
78.10000 1.672
78.12000 2.487
78.14000 3.140
78.16000 2.931
78.18000 2.923
78.20000 -0.275
78.22000 0.120
78.24000 1.178
78.26000 0.411
78.28000 1.417
78.30000 1.320
78.32000 -0.601
78.34000 0.421
78.36000 -0.241
78.38000 1.761
78.40000 1.946
78.42000 -0.405
78.44000 1.606
78.46000 0.848
78.48000 1.055
78.50000 4.637
78.52000 1.500
78.54000 -1.973
78.56000 -0.704
78.58000 3.301
78.60000 -0.546
78.62000 0.125
78.64000 0.900
78.66000 0.081
78.68000 1.514
78.70000 1.347
78.72000 1.057
78.74000 -0.260
78.76000 0.674
78.78000 -0.066
78.80000 -0.417
78.82000 1.794
78.84000 1.492
78.86000 2.680
78.88000 4.730
78.90000 5.518
78.92000 0.119
78.94000 -0.213
78.96000 -2.032
78.98000 -1.430
79.00000 1.335
79.02000 2.983
79.04000 -1.953
79.06000 -0.055
79.08000 2.070
79.10000 2.508
79.12000 0.213
79.14000 0.516
79.16000 0.276
79.18000 1.106
79.20000 3.458
79.22000 3.399
79.24000 2.436
79.26000 -0.539
79.28000 -1.186
79.30000 -1.930
79.32000 0.046
79.34000 1.239
79.36000 0.199
79.38000 -1.995
79.40000 -0.428
79.42000 1.177
79.44000 0.455
79.46000 2.473
79.48000 3.965
79.50000 0.993
79.52000 -0.589
79.54000 1.410
79.56000 3.774
79.58000 0.783
79.60000 0.930
79.62000 1.614
79.64000 1.994
79.66000 4.798
79.68000 4.771
79.70000 2.023
79.72000 2.865
79.74000 6.369
79.76000 4.076
79.78000 4.995
79.80000 4.800
79.82000 6.106
79.84000 2.906
79.86000 2.805
79.88000 3.563
79.90000 5.462
79.92000 6.640
79.94000 3.004
79.96000 5.400
79.98000 4.776
80.00000 4.239
80.02000 6.797
80.04000 8.444
80.06000 6.625
80.08000 4.138
80.10000 7.869
80.12000 8.009
80.14000 14.613
80.16000 12.950
80.18000 7.106
80.20000 9.332
80.22000 10.224
80.24000 10.863
80.26000 10.584
80.28000 10.734
80.30000 9.252
80.32000 8.454
80.34000 9.999
80.36000 11.529
80.38000 14.978
80.40000 16.536
80.42000 16.327
80.44000 15.512
80.46000 14.112
80.48000 13.331
80.50000 16.265
80.52000 17.817
80.54000 15.385
80.56000 12.662
80.58000 15.775
80.60000 19.266
80.62000 17.616
80.64000 14.927
80.66000 17.245
80.68000 18.767
80.70000 15.740
80.72000 15.269
80.74000 17.427
80.76000 22.957
80.78000 23.725
80.80000 17.472
80.82000 19.687
80.84000 21.306
80.86000 18.971
80.88000 18.787
80.90000 20.466
80.92000 19.189
80.94000 19.131
80.96000 16.699
80.98000 15.464
81.00000 17.488
81.02000 18.097
81.04000 17.205
81.06000 18.409
81.08000 15.552
81.10000 13.131
81.12000 14.412
81.14000 13.675
81.16000 10.345
81.18000 14.558
81.20000 17.503
81.22000 13.410
81.24000 11.316
81.26000 13.997
81.28000 16.132
81.30000 14.102
81.32000 10.618
81.34000 8.462
81.36000 6.437
81.38000 7.085
81.40000 9.549
81.42000 7.284
81.44000 10.979
81.46000 10.442
81.48000 10.799
81.50000 11.046
81.52000 8.629
81.54000 8.208
81.56000 6.910
81.58000 6.522
81.60000 8.169
81.62000 7.208
81.64000 1.726
81.66000 4.458
81.68000 5.833
81.70000 10.334
81.72000 9.027
81.74000 5.070
81.76000 4.243
81.78000 2.779
81.80000 1.754
81.82000 1.539
81.84000 1.528
81.86000 3.008
81.88000 5.100
81.90000 3.493
81.92000 1.386
81.94000 -0.854
81.96000 5.131
81.98000 6.360
82.00000 5.660
82.02000 1.018
82.04000 2.747
82.06000 6.323
82.08000 3.271
82.10000 2.370
82.12000 8.106
82.14000 5.997
82.16000 3.449
82.18000 1.270
82.20000 2.339
82.22000 2.694
82.24000 0.121
82.26000 3.535
82.28000 3.884
82.30000 0.090
82.32000 -2.104
82.34000 1.389
82.36000 1.888
82.38000 2.110
82.40000 2.693
82.42000 3.952
82.44000 4.212
82.46000 4.122
82.48000 5.024
82.50000 0.311
82.52000 0.198
82.54000 3.770
82.56000 5.234
82.58000 2.550
82.60000 0.993
82.62000 3.714
82.64000 3.722
82.66000 -0.378
82.68000 0.621
82.70000 0.659
82.72000 -0.886
82.74000 -1.198
82.76000 1.190
82.78000 5.071
82.80000 2.254
82.82000 0.860
82.84000 -0.523
82.86000 -2.128
82.88000 -1.782
82.90000 -1.964
82.92000 -1.704
82.94000 2.122
82.96000 0.448
82.98000 0.962
83.00000 0.852
83.02000 1.067
83.04000 1.409
83.06000 0.572
83.08000 1.636
83.10000 1.087
83.12000 0.849
83.14000 0.109
83.16000 1.425
83.18000 6.045
83.20000 0.651
83.22000 -1.701
83.24000 1.565
83.26000 3.720
83.28000 2.044
83.30000 0.614
83.32000 2.322
83.34000 1.330
83.36000 3.419
83.38000 3.785
83.40000 2.775
83.42000 -0.841
83.44000 -2.143
83.46000 -1.145
83.48000 1.604
83.50000 1.197
83.52000 -0.901
83.54000 3.687
83.56000 1.570
83.58000 2.707
83.60000 -0.053
83.62000 1.764
83.64000 2.570
83.66000 3.212
83.68000 5.383
83.70000 8.123
83.72000 7.334
83.74000 4.768
83.76000 5.991
83.78000 3.871
83.80000 6.580
83.82000 9.556
83.84000 9.718
83.86000 8.183
83.88000 8.692
83.90000 7.463
83.92000 5.826
83.94000 8.878
83.96000 10.033
83.98000 11.245
84.00000 9.922
84.02000 9.489
84.04000 11.196
84.06000 12.053
84.08000 9.787
84.10000 12.374
84.12000 16.112
84.14000 16.319
84.16000 15.354
84.18000 16.308
84.20000 15.508
84.22000 18.546
84.24000 19.622
84.26000 19.121
84.28000 16.978
84.30000 15.456
84.32000 19.217
84.34000 19.924
84.36000 27.266
84.38000 19.751
84.40000 21.032
84.42000 21.940
84.44000 22.677
84.46000 18.207
84.48000 20.334
84.50000 24.527
84.52000 26.244
84.54000 25.016
84.56000 30.393
84.58000 24.702
84.60000 29.152
84.62000 29.723
84.64000 25.742
84.66000 25.163
84.68000 25.565
84.70000 25.547
84.72000 23.166
84.74000 19.425
84.76000 18.565
84.78000 24.631
84.80000 26.983
84.82000 22.603
84.84000 24.123
84.86000 22.932
84.88000 25.612
84.90000 28.203
84.92000 28.880
84.94000 25.449
84.96000 20.961
84.98000 21.422
85.00000 23.194
85.02000 21.950
85.04000 20.206
85.06000 18.582
85.08000 21.671
85.10000 22.151
85.12000 21.724
85.14000 19.807
85.16000 18.417
85.18000 17.398
85.20000 15.733
85.22000 12.891
85.24000 13.428
85.26000 14.550
85.28000 18.349
85.30000 15.626
85.32000 16.087
85.34000 12.727
85.36000 13.756
85.38000 11.139
85.40000 9.738
85.42000 8.154
85.44000 9.767
85.46000 11.947
85.48000 8.100
85.50000 7.431
85.52000 9.086
85.54000 6.832
85.56000 6.392
85.58000 5.416
85.60000 6.313
85.62000 5.635
85.64000 5.621
85.66000 5.697
85.68000 2.730
85.70000 2.853
85.72000 1.756
85.74000 1.739
85.76000 2.351
85.78000 4.076
85.80000 2.923
85.82000 2.570
85.84000 2.887
85.86000 2.415
85.88000 2.263
85.90000 1.931
85.92000 -0.939
85.94000 0.788
85.96000 1.965
85.98000 1.288
86.00000 1.863
86.02000 1.152
86.04000 1.455
86.06000 1.903
86.08000 -1.468
86.10000 -1.953
86.12000 -1.509
86.14000 0.604
86.16000 0.779
86.18000 -1.270
86.20000 1.148
86.22000 1.368
86.24000 -1.647
86.26000 0.241
86.28000 -0.895
86.30000 -1.916
86.32000 0.522
86.34000 -0.623
86.36000 0.751
86.38000 0.422
86.40000 -0.567
86.42000 0.724
86.44000 -0.339
86.46000 -1.300
86.48000 1.023
86.50000 1.884
86.52000 0.138
86.54000 -0.733
86.56000 -1.753
86.58000 0.116
86.60000 0.546
86.62000 -1.902
86.64000 1.838
86.66000 3.679
86.68000 -1.290
86.70000 -1.898
86.72000 1.107
86.74000 2.400
86.76000 1.431
86.78000 0.856
86.80000 -0.733
86.82000 0.201
86.84000 1.133
86.86000 1.770
86.88000 0.058
86.90000 -1.032
86.92000 1.802
86.94000 0.542
86.96000 -0.510
86.98000 1.272
87.00000 1.167
87.02000 0.286
87.04000 -0.872
87.06000 0.915
87.08000 -0.666
87.10000 -0.519
87.12000 -0.112
87.14000 -0.604
87.16000 -0.345
87.18000 0.824
87.20000 -0.134
87.22000 -0.202
87.24000 -1.855
87.26000 -0.844
87.28000 0.846
87.30000 1.255
87.32000 -0.447
87.34000 -0.412
87.36000 0.125
87.38000 1.805
87.40000 0.918
87.42000 -0.361
87.44000 0.346
87.46000 1.407
87.48000 0.022
87.50000 0.139
87.52000 0.467
87.54000 -0.974
87.56000 -1.831
87.58000 -1.603
87.60000 0.430
87.62000 1.179
87.64000 0.550
87.66000 0.463
87.68000 -1.157
87.70000 0.499
87.72000 3.459
87.74000 2.236
87.76000 0.756
87.78000 0.807
87.80000 1.848
87.82000 2.118
87.84000 -1.220
87.86000 0.966
87.88000 1.333
87.90000 -0.047
87.92000 -0.636
87.94000 1.326
87.96000 0.484
87.98000 0.776
88.00000 1.109
88.02000 1.908
88.04000 1.586
88.06000 0.009
88.08000 -0.954
88.10000 3.060
88.12000 1.785
88.14000 3.307
88.16000 4.483
88.18000 7.618
88.20000 7.024
88.22000 1.836
88.24000 1.391
88.26000 -1.250
88.28000 -1.799
88.30000 -0.230
88.32000 2.274
88.34000 1.542
88.36000 3.608
88.38000 -0.907
88.40000 -0.759
88.42000 0.599
88.44000 4.668
88.46000 3.234
88.48000 1.429
88.50000 1.670
88.52000 1.502
88.54000 1.211
88.56000 -1.228
88.58000 -1.077
88.60000 1.043
88.62000 0.510
88.64000 0.510
88.66000 1.549
88.68000 0.845
88.70000 0.746
88.72000 0.470
88.74000 -1.807
88.76000 -0.090
88.78000 1.913
88.80000 2.576
88.82000 3.706
88.84000 3.013
88.86000 -0.787
88.88000 1.917
88.90000 1.808
88.92000 0.807
88.94000 1.931
88.96000 -0.264
88.98000 -1.097
89.00000 2.999
89.02000 0.946
89.04000 1.554
89.06000 0.265
89.08000 -0.549
89.10000 0.270
89.12000 1.873
89.14000 1.970
89.16000 -0.200
89.18000 1.830
89.20000 0.704
89.22000 1.588
89.24000 3.491
89.26000 2.515
89.28000 1.310
89.30000 2.169
89.32000 1.910
89.34000 1.718
89.36000 0.793
89.38000 2.468
89.40000 0.444
89.42000 -0.033
89.44000 0.101
89.46000 0.454
89.48000 -0.591
89.50000 3.969
89.52000 4.541
89.54000 0.308
89.56000 2.622
89.58000 2.235
89.60000 0.185
89.62000 4.687
89.64000 0.811
89.66000 -1.775
89.68000 1.586
89.70000 0.918
89.72000 2.583
89.74000 5.851
89.76000 3.653
89.78000 3.205
89.80000 0.937
89.82000 2.383
89.84000 2.690
89.86000 2.922
89.88000 3.143
89.90000 5.317
89.92000 4.312
89.94000 4.237
89.96000 3.345
89.98000 4.418
90.00000 4.089
90.02000 1.577
90.04000 2.100
90.06000 1.973
90.08000 1.484
90.10000 3.011
90.12000 4.514
90.14000 3.887
90.16000 3.124
90.18000 1.713
90.20000 3.785
90.22000 1.050
90.24000 2.701
90.26000 4.139
90.28000 4.365
90.30000 6.195
90.32000 3.720
90.34000 0.144
90.36000 3.472
90.38000 3.821
90.40000 2.041
90.42000 3.555
90.44000 5.042
90.46000 5.995
90.48000 3.752
90.50000 3.585
90.52000 1.617
90.54000 -1.732
90.56000 1.029
90.58000 3.059
90.60000 7.129
90.62000 5.571
90.64000 6.048
90.66000 3.683
90.68000 2.042
90.70000 3.287
90.72000 3.383
90.74000 1.587
90.76000 2.694
90.78000 2.066
90.80000 1.849
90.82000 3.417
90.84000 3.701
90.86000 2.738
90.88000 2.893
90.90000 2.870
90.92000 1.924
90.94000 2.888
90.96000 2.428
90.98000 1.729
91.00000 1.825
91.02000 0.642
91.04000 -0.346
91.06000 1.011
91.08000 -0.322
91.10000 0.370
91.12000 2.601
91.14000 7.479
91.16000 6.539
91.18000 4.537
91.20000 1.566
91.22000 0.253
91.24000 0.743
91.26000 3.401
91.28000 2.729
91.30000 2.773
91.32000 1.330
91.34000 4.029
91.36000 2.309
91.38000 1.601
91.40000 1.886
91.42000 4.242
91.44000 3.416
91.46000 1.460
91.48000 0.806
91.50000 1.855
91.52000 3.210
91.54000 2.534
91.56000 -1.363
91.58000 -1.796
91.60000 -0.689
91.62000 2.911
91.64000 3.350
91.66000 2.998
91.68000 2.311
91.70000 1.923
91.72000 0.326
91.74000 -0.932
91.76000 -1.798
91.78000 -0.026
91.80000 2.379
91.82000 -0.336
91.84000 -1.741
91.86000 0.054
91.88000 -1.806
91.90000 1.807
91.92000 4.123
91.94000 5.196
91.96000 -0.573
91.98000 0.685
92.00000 1.700
92.02000 2.016
92.04000 1.916
92.06000 -0.904
92.08000 -1.289
92.10000 2.200
92.12000 0.986
92.14000 -0.554
92.16000 -1.288
92.18000 0.117
92.20000 -0.688
92.22000 0.355
92.24000 0.619
92.26000 1.341
92.28000 1.951
92.30000 -0.353
92.32000 1.536
92.34000 0.952
92.36000 1.993
92.38000 2.725
92.40000 1.575
92.42000 0.372
92.44000 0.433
92.46000 0.007
92.48000 -0.349
92.50000 0.510
92.52000 3.087
92.54000 1.275
92.56000 1.210
92.58000 0.936
92.60000 -1.821
92.62000 -0.648
92.64000 0.180
92.66000 0.275
92.68000 -0.327
92.70000 -0.790
92.72000 1.771
92.74000 -1.449
92.76000 -0.895
92.78000 -0.132
92.80000 -0.415
92.82000 1.048
92.84000 -0.571
92.86000 -0.909
92.88000 0.306
92.90000 0.562
92.92000 3.086
92.94000 -0.535
92.96000 -0.166
92.98000 4.101
93.00000 0.117
93.02000 1.893
93.04000 4.057
93.06000 1.756
93.08000 0.640
93.10000 1.157
93.12000 -0.872
93.14000 0.565
93.16000 1.372
93.18000 1.317
93.20000 1.525
93.22000 1.138
93.24000 -0.910
93.26000 2.065
93.28000 1.783
93.30000 1.455
93.32000 1.278
93.34000 1.907
93.36000 3.592
93.38000 1.259
93.40000 3.291
93.42000 1.569
93.44000 1.971
93.46000 2.633
93.48000 1.108
93.50000 1.030
93.52000 -1.161
93.54000 0.394
93.56000 1.510
93.58000 0.739
93.60000 2.510
93.62000 -0.134
93.64000 -0.306
93.66000 -0.576
93.68000 -1.433
93.70000 -1.824
93.72000 1.708
93.74000 2.827
93.76000 0.278
93.78000 1.067
93.80000 2.279
93.82000 2.282
93.84000 -0.049
93.86000 -1.460
93.88000 2.368
93.90000 -1.054
93.92000 1.343
93.94000 2.178
93.96000 2.160
93.98000 2.129
94.00000 1.382
94.02000 -0.634
94.04000 2.683
94.06000 4.775
94.08000 5.864
94.10000 5.355
94.12000 3.832
94.14000 2.671
94.16000 2.055
94.18000 0.534
94.20000 0.831
94.22000 1.368
94.24000 3.672
94.26000 5.289
94.28000 3.808
94.30000 2.711
94.32000 4.960
94.34000 2.039
94.36000 -1.300
94.38000 -1.775
94.40000 3.309
94.42000 3.316
94.44000 5.193
94.46000 5.004
94.48000 5.272
94.50000 2.460
94.52000 0.919
94.54000 2.855
94.56000 3.577
94.58000 2.303
94.60000 3.160
94.62000 5.728
94.64000 4.988
94.66000 1.727
94.68000 0.351
94.70000 2.294
94.72000 0.349
94.74000 -0.618
94.76000 2.393
94.78000 2.875
94.80000 4.274
94.82000 2.388
94.84000 3.254
94.86000 0.308
94.88000 0.972
94.90000 3.667
94.92000 5.095
94.94000 6.290
94.96000 4.042
94.98000 4.340
95.00000 5.989
95.02000 1.454
95.04000 0.682
95.06000 0.636
95.08000 1.937
95.10000 1.642
95.12000 3.986
95.14000 5.174
95.16000 1.121
95.18000 0.005
95.20000 -0.460
95.22000 2.243
95.24000 2.953
95.26000 4.190
95.28000 1.420
95.30000 2.792
95.32000 0.193
95.34000 1.963
95.36000 2.163
95.38000 2.004
95.40000 1.469
95.42000 0.905
95.44000 1.069
95.46000 3.204
95.48000 3.148
95.50000 3.649
95.52000 5.242
95.54000 7.530
95.56000 4.982
95.58000 4.624
95.60000 5.279
95.62000 3.159
95.64000 0.502
95.66000 -0.480
95.68000 -0.712
95.70000 1.484
95.72000 4.946
95.74000 5.005
95.76000 1.505
95.78000 -0.946
95.80000 1.259
95.82000 1.553
95.84000 2.352
95.86000 7.320
95.88000 7.579
95.90000 4.685
95.92000 1.094
95.94000 3.084
95.96000 5.036
95.98000 5.882
96.00000 3.090
96.02000 6.411
96.04000 4.276
96.06000 1.207
96.08000 0.537
96.10000 2.202
96.12000 3.760
96.14000 3.630
96.16000 5.503
96.18000 5.112
96.20000 4.193
96.22000 5.229
96.24000 3.733
96.26000 4.149
96.28000 3.362
96.30000 3.418
96.32000 1.605
96.34000 3.842
96.36000 2.917
96.38000 4.220
96.40000 4.173
96.42000 -1.765
96.44000 0.556
96.46000 5.822
96.48000 6.812
96.50000 5.239
96.52000 5.123
96.54000 4.741
96.56000 4.697
96.58000 4.108
96.60000 2.734
96.62000 1.329
96.64000 5.341
96.66000 2.632
96.68000 4.460
96.70000 6.414
96.72000 2.846
96.74000 4.223
96.76000 8.733
96.78000 8.154
96.80000 4.844
96.82000 -0.347
96.84000 3.096
96.86000 5.237
96.88000 7.280
96.90000 8.174
96.92000 6.094
96.94000 0.803
96.96000 1.817
96.98000 3.638
97.00000 -1.148
97.02000 -1.275
97.04000 0.370
97.06000 4.209
97.08000 5.306
97.10000 2.934
97.12000 1.216
97.14000 1.629
97.16000 6.284
97.18000 6.718
97.20000 5.364
97.22000 3.679
97.24000 2.634
97.26000 4.501
97.28000 7.133
97.30000 6.766
97.32000 4.846
97.34000 5.184
97.36000 5.750
97.38000 4.936
97.40000 2.686
97.42000 -0.598
97.44000 -1.784
97.46000 0.516
97.48000 3.249
97.50000 3.930
97.52000 3.119
97.54000 4.569
97.56000 6.800
97.58000 5.046
97.60000 5.502
97.62000 2.257
97.64000 0.792
97.66000 1.541
97.68000 4.351
97.70000 4.889
97.72000 5.343
97.74000 5.748
97.76000 5.101
97.78000 3.110
97.80000 2.420
97.82000 -0.732
97.84000 2.149
97.86000 2.674
97.88000 5.770
97.90000 6.684
97.92000 5.559
97.94000 3.453
97.96000 0.980
97.98000 2.464
98.00000 -0.857
98.02000 2.655
98.04000 4.602
98.06000 -0.037
98.08000 2.027
98.10000 2.560
98.12000 1.579
98.14000 6.693
98.16000 2.324
98.18000 1.741
98.20000 5.327
98.22000 5.037
98.24000 6.023
98.26000 1.927
98.28000 -1.720
98.30000 3.073
98.32000 2.425
98.34000 1.607
98.36000 1.900
98.38000 -0.017
98.40000 0.945
98.42000 -1.793
98.44000 0.019
98.46000 3.908
98.48000 7.565
98.50000 4.231
98.52000 3.151
98.54000 0.354
98.56000 1.471
98.58000 2.902
98.60000 -0.645
98.62000 2.201
98.64000 3.778
98.66000 0.373
98.68000 3.535
98.70000 2.413
98.72000 3.775
98.74000 2.181
98.76000 -1.654
98.78000 3.807
98.80000 6.430
98.82000 4.701
98.84000 -1.541
98.86000 0.529
98.88000 4.915
98.90000 0.097
98.92000 6.408
98.94000 4.156
98.96000 -0.480
98.98000 1.972
99.00000 0.368
99.02000 -1.772
99.04000 2.869
99.06000 5.534
99.08000 7.005
99.10000 2.375
99.12000 -1.511
99.14000 -1.232
99.16000 -0.119
99.18000 -0.080
99.20000 0.182
99.22000 2.750
99.24000 0.886
99.26000 -1.450
99.28000 -1.771
99.30000 -0.170
99.32000 3.247
99.34000 1.383
99.36000 1.838
99.38000 4.264
99.40000 0.910
99.42000 1.814
99.44000 5.082
99.46000 1.145
99.48000 -1.550
99.50000 5.944
99.52000 3.523
99.54000 -0.806
99.56000 5.009
99.58000 11.618
99.60000 12.298
99.62000 3.299
99.64000 5.766
99.66000 2.214
99.68000 1.616
99.70000 3.308
99.72000 2.008
99.74000 4.299
99.76000 6.854
99.78000 8.925
99.80000 1.450
99.82000 0.016
99.84000 0.079
99.86000 2.615
99.88000 -0.319
99.90000 1.763
99.92000 2.305
99.94000 -1.825
99.96000 -1.878
99.98000 0.000
