'Id: "0011389" Comment: "Integrate frame 0011389_Au-Ir-Rh_Au-Rich_XRD_Mapping-244-0000.gfrmwith cursor Wedge Cursor #5" Operator: "B?rgel" Anode: "Cu" Wavelength: "1.5406" Scantype: "2Theta (TwoTheta)" TimePerStep: "1" X: "-27" Y: "18" Z: "5.95" 
10.00000 0.000
10.02000 -7.767
10.04000 7.759
10.06000 15.941
10.08000 0.292
10.10000 22.400
10.12000 28.473
10.14000 13.411
10.16000 -4.602
10.18000 8.283
10.20000 21.805
10.22000 8.981
10.24000 5.967
10.26000 8.369
10.28000 24.408
10.30000 33.436
10.32000 19.907
10.34000 6.433
10.36000 14.868
10.38000 29.251
10.40000 26.551
10.42000 43.803
10.44000 37.482
10.46000 33.296
10.48000 28.462
10.50000 4.413
10.52000 -4.417
10.54000 6.159
10.56000 22.621
10.58000 43.378
10.60000 38.872
10.62000 25.214
10.64000 16.735
10.66000 23.220
10.68000 11.656
10.70000 4.077
10.72000 5.577
10.74000 11.554
10.76000 17.885
10.78000 10.776
10.80000 4.879
10.82000 20.006
10.84000 18.539
10.86000 0.251
10.88000 7.364
10.90000 16.728
10.92000 28.876
10.94000 26.065
10.96000 10.630
10.98000 13.039
11.00000 27.152
11.02000 20.031
11.04000 18.366
11.06000 10.529
11.08000 17.239
11.10000 38.233
11.12000 30.596
11.14000 14.391
11.16000 7.244
11.18000 7.617
11.20000 12.109
11.22000 13.739
11.24000 10.278
11.26000 13.059
11.28000 9.036
11.30000 6.196
11.32000 7.505
11.34000 6.960
11.36000 13.362
11.38000 3.405
11.40000 16.647
11.42000 9.716
11.44000 5.233
11.46000 10.543
11.48000 0.656
11.50000 3.975
11.52000 4.330
11.54000 19.300
11.56000 25.650
11.58000 22.439
11.60000 18.742
11.62000 20.181
11.64000 12.307
11.66000 11.697
11.68000 18.482
11.70000 21.629
11.72000 7.645
11.74000 14.443
11.76000 15.255
11.78000 7.828
11.80000 8.028
11.82000 20.203
11.84000 17.307
11.86000 14.474
11.88000 11.002
11.90000 19.820
11.92000 23.912
11.94000 20.065
11.96000 16.911
11.98000 9.316
12.00000 6.479
12.02000 19.485
12.04000 14.184
12.06000 12.445
12.08000 15.803
12.10000 2.957
12.12000 1.603
12.14000 13.026
12.16000 22.604
12.18000 21.355
12.20000 16.724
12.22000 2.286
12.24000 3.731
12.26000 4.163
12.28000 1.914
12.30000 11.383
12.32000 8.741
12.34000 12.495
12.36000 11.030
12.38000 0.451
12.40000 2.938
12.42000 0.954
12.44000 7.767
12.46000 15.292
12.48000 13.504
12.50000 12.221
12.52000 2.080
12.54000 7.001
12.56000 7.198
12.58000 4.695
12.60000 11.354
12.62000 18.050
12.64000 18.643
12.66000 14.746
12.68000 15.010
12.70000 14.385
12.72000 10.821
12.74000 10.942
12.76000 12.045
12.78000 1.896
12.80000 3.437
12.82000 4.839
12.84000 5.412
12.86000 20.295
12.88000 19.500
12.90000 8.589
12.92000 11.621
12.94000 8.555
12.96000 6.167
12.98000 10.090
13.00000 11.387
13.02000 10.101
13.04000 15.200
13.06000 18.301
13.08000 8.837
13.10000 6.769
13.12000 4.282
13.14000 3.785
13.16000 14.312
13.18000 27.000
13.20000 20.669
13.22000 8.371
13.24000 10.980
13.26000 7.891
13.28000 14.167
13.30000 14.196
13.32000 4.339
13.34000 8.173
13.36000 12.986
13.38000 12.935
13.40000 7.803
13.42000 -1.218
13.44000 2.345
13.46000 5.328
13.48000 11.568
13.50000 21.776
13.52000 11.814
13.54000 5.495
13.56000 5.475
13.58000 17.535
13.60000 9.223
13.62000 6.170
13.64000 8.525
13.66000 10.325
13.68000 13.898
13.70000 10.155
13.72000 17.984
13.74000 7.395
13.76000 4.543
13.78000 1.266
13.80000 1.040
13.82000 1.785
13.84000 5.956
13.86000 9.095
13.88000 2.501
13.90000 2.375
13.92000 5.213
13.94000 15.862
13.96000 17.587
13.98000 17.356
14.00000 5.911
14.02000 1.774
14.04000 9.880
14.06000 11.718
14.08000 1.940
14.10000 2.875
14.12000 3.941
14.14000 7.713
14.16000 8.584
14.18000 9.885
14.20000 9.481
14.22000 11.286
14.24000 15.841
14.26000 -0.263
14.28000 9.535
14.30000 5.833
14.32000 4.779
14.34000 10.613
14.36000 8.564
14.38000 5.991
14.40000 9.013
14.42000 14.953
14.44000 13.834
14.46000 14.823
14.48000 13.328
14.50000 7.007
14.52000 11.639
14.54000 10.954
14.56000 7.259
14.58000 5.483
14.60000 7.176
14.62000 8.334
14.64000 7.539
14.66000 4.151
14.68000 5.674
14.70000 1.153
14.72000 6.385
14.74000 8.365
14.76000 3.201
14.78000 2.101
14.80000 -4.508
14.82000 6.441
14.84000 10.069
14.86000 0.945
14.88000 0.686
14.90000 15.168
14.92000 14.303
14.94000 9.699
14.96000 12.768
14.98000 11.129
15.00000 19.610
15.02000 5.858
15.04000 4.781
15.06000 15.265
15.08000 6.526
15.10000 4.648
15.12000 4.720
15.14000 10.829
15.16000 14.057
15.18000 8.056
15.20000 9.809
15.22000 1.611
15.24000 0.579
15.26000 1.337
15.28000 5.348
15.30000 3.154
15.32000 7.101
15.34000 4.391
15.36000 1.340
15.38000 8.132
15.40000 5.511
15.42000 14.466
15.44000 10.964
15.46000 12.209
15.48000 9.587
15.50000 9.973
15.52000 14.812
15.54000 7.960
15.56000 6.748
15.58000 7.893
15.60000 9.647
15.62000 4.913
15.64000 5.398
15.66000 9.508
15.68000 8.800
15.70000 3.826
15.72000 7.443
15.74000 2.277
15.76000 0.759
15.78000 7.868
15.80000 8.445
15.82000 6.212
15.84000 11.975
15.86000 4.830
15.88000 11.615
15.90000 16.781
15.92000 0.204
15.94000 -4.479
15.96000 4.858
15.98000 6.821
16.00000 -0.213
16.02000 8.295
16.04000 6.564
16.06000 7.402
16.08000 4.225
16.10000 2.530
16.12000 2.903
16.14000 3.317
16.16000 -2.376
16.18000 -0.792
16.20000 5.804
16.22000 20.331
16.24000 11.925
16.26000 14.435
16.28000 11.938
16.30000 11.825
16.32000 11.081
16.34000 9.200
16.36000 15.246
16.38000 8.886
16.40000 8.191
16.42000 2.028
16.44000 -2.456
16.46000 -4.452
16.48000 -3.825
16.50000 -0.047
16.52000 -2.130
16.54000 13.791
16.56000 9.746
16.58000 10.363
16.60000 10.738
16.62000 1.829
16.64000 1.698
16.66000 4.663
16.68000 3.206
16.70000 6.863
16.72000 10.041
16.74000 6.807
16.76000 0.968
16.78000 10.760
16.80000 12.923
16.82000 10.346
16.84000 7.846
16.86000 13.187
16.88000 4.296
16.90000 1.131
16.92000 6.809
16.94000 8.961
16.96000 9.461
16.98000 10.031
17.00000 7.295
17.02000 0.594
17.04000 3.574
17.06000 7.756
17.08000 11.434
17.10000 -0.053
17.12000 2.259
17.14000 5.258
17.16000 6.586
17.18000 9.283
17.20000 10.195
17.22000 14.184
17.24000 10.046
17.26000 1.002
17.28000 -1.128
17.30000 13.756
17.32000 12.575
17.34000 7.683
17.36000 10.631
17.38000 6.389
17.40000 2.515
17.42000 7.787
17.44000 3.520
17.46000 5.946
17.48000 3.473
17.50000 -3.485
17.52000 2.685
17.54000 7.514
17.56000 1.065
17.58000 3.747
17.60000 1.824
17.62000 4.022
17.64000 8.120
17.66000 11.277
17.68000 7.817
17.70000 -1.244
17.72000 5.451
17.74000 1.806
17.76000 -4.369
17.78000 0.937
17.80000 11.145
17.82000 10.658
17.84000 11.272
17.86000 9.632
17.88000 13.703
17.90000 7.941
17.92000 4.344
17.94000 5.445
17.96000 8.094
17.98000 7.352
18.00000 3.787
18.02000 8.582
18.04000 7.723
18.06000 2.158
18.08000 3.917
18.10000 1.114
18.12000 -1.296
18.14000 -0.656
18.16000 8.424
18.18000 7.389
18.20000 3.666
18.22000 0.831
18.24000 7.773
18.26000 13.127
18.28000 7.390
18.30000 0.524
18.32000 7.548
18.34000 6.928
18.36000 -0.313
18.38000 1.535
18.40000 0.971
18.42000 4.063
18.44000 7.485
18.46000 9.581
18.48000 4.311
18.50000 7.605
18.52000 9.036
18.54000 7.657
18.56000 1.919
18.58000 6.571
18.60000 12.476
18.62000 9.867
18.64000 3.893
18.66000 5.297
18.68000 5.768
18.70000 2.900
18.72000 0.023
18.74000 4.575
18.76000 8.408
18.78000 4.603
18.80000 8.829
18.82000 8.551
18.84000 7.370
18.86000 12.090
18.88000 10.390
18.90000 9.297
18.92000 1.619
18.94000 7.266
18.96000 13.911
18.98000 8.208
19.00000 6.296
19.02000 12.588
19.04000 14.588
19.06000 9.425
19.08000 3.319
19.10000 4.524
19.12000 1.833
19.14000 6.496
19.16000 9.342
19.18000 6.184
19.20000 8.421
19.22000 1.818
19.24000 -0.674
19.26000 4.836
19.28000 11.025
19.30000 11.943
19.32000 10.764
19.34000 -4.242
19.36000 -1.203
19.38000 3.293
19.40000 8.531
19.42000 5.312
19.44000 5.145
19.46000 1.466
19.48000 -0.705
19.50000 1.984
19.52000 11.350
19.54000 14.647
19.56000 10.506
19.58000 6.501
19.60000 7.465
19.62000 2.682
19.64000 -3.291
19.66000 0.223
19.68000 1.426
19.70000 2.104
19.72000 -1.839
19.74000 5.832
19.76000 11.333
19.78000 8.300
19.80000 12.160
19.82000 7.541
19.84000 1.520
19.86000 4.607
19.88000 8.337
19.90000 7.681
19.92000 3.437
19.94000 -0.696
19.96000 7.154
19.98000 13.066
20.00000 5.914
20.02000 3.050
20.04000 1.451
20.06000 3.795
20.08000 6.329
20.10000 10.238
20.12000 9.940
20.14000 12.564
20.16000 8.223
20.18000 8.056
20.20000 4.896
20.22000 2.356
20.24000 2.103
20.26000 7.103
20.28000 12.306
20.30000 6.295
20.32000 5.602
20.34000 -0.161
20.36000 7.273
20.38000 11.997
20.40000 6.509
20.42000 10.996
20.44000 12.106
20.46000 9.131
20.48000 2.760
20.50000 3.340
20.52000 6.992
20.54000 5.053
20.56000 4.539
20.58000 3.198
20.60000 6.304
20.62000 4.447
20.64000 6.444
20.66000 5.208
20.68000 -2.102
20.70000 2.920
20.72000 4.618
20.74000 3.701
20.76000 -4.184
20.78000 5.736
20.80000 6.616
20.82000 -3.006
20.84000 -0.604
20.86000 -1.566
20.88000 2.023
20.90000 3.903
20.92000 2.826
20.94000 5.610
20.96000 2.756
20.98000 -1.097
21.00000 1.202
21.02000 9.287
21.04000 6.372
21.06000 5.638
21.08000 6.310
21.10000 5.371
21.12000 2.724
21.14000 8.721
21.16000 7.401
21.18000 13.688
21.20000 13.806
21.22000 9.613
21.24000 8.304
21.26000 7.662
21.28000 3.514
21.30000 3.335
21.32000 0.262
21.34000 -0.197
21.36000 4.686
21.38000 5.010
21.40000 3.345
21.42000 2.803
21.44000 5.514
21.46000 -4.081
21.48000 0.300
21.50000 2.373
21.52000 0.450
21.54000 2.801
21.56000 5.968
21.58000 6.357
21.60000 0.106
21.62000 -0.150
21.64000 1.847
21.66000 1.501
21.68000 1.542
21.70000 -1.726
21.72000 -3.305
21.74000 1.718
21.76000 7.358
21.78000 5.729
21.80000 7.368
21.82000 0.880
21.84000 1.294
21.86000 7.242
21.88000 6.972
21.90000 13.055
21.92000 1.939
21.94000 -0.805
21.96000 7.602
21.98000 2.310
22.00000 1.694
22.02000 6.440
22.04000 2.831
22.06000 1.972
22.08000 1.498
22.10000 1.213
22.12000 8.944
22.14000 9.591
22.16000 5.696
22.18000 3.604
22.20000 7.680
22.22000 9.272
22.24000 7.098
22.26000 2.793
22.28000 2.972
22.30000 5.528
22.32000 8.527
22.34000 7.935
22.36000 7.059
22.38000 -0.765
22.40000 0.089
22.42000 7.144
22.44000 8.688
22.46000 6.711
22.48000 6.952
22.50000 -0.021
22.52000 0.146
22.54000 3.733
22.56000 3.507
22.58000 -4.098
22.60000 2.487
22.62000 0.500
22.64000 -0.302
22.66000 5.186
22.68000 8.774
22.70000 5.933
22.72000 5.264
22.74000 2.390
22.76000 0.761
22.78000 3.616
22.80000 6.118
22.82000 5.134
22.84000 2.153
22.86000 1.348
22.88000 -1.980
22.90000 1.104
22.92000 3.177
22.94000 1.312
22.96000 5.466
22.98000 5.469
23.00000 2.508
23.02000 -3.126
23.04000 -1.294
23.06000 -1.298
23.08000 7.965
23.10000 8.441
23.12000 7.427
23.14000 6.250
23.16000 -0.376
23.18000 -3.871
23.20000 0.380
23.22000 2.929
23.24000 6.556
23.26000 6.219
23.28000 10.723
23.30000 5.634
23.32000 3.839
23.34000 3.712
23.36000 5.632
23.38000 4.803
23.40000 6.695
23.42000 10.556
23.44000 7.002
23.46000 6.405
23.48000 6.119
23.50000 5.484
23.52000 10.615
23.54000 7.245
23.56000 8.624
23.58000 4.580
23.60000 2.715
23.62000 2.225
23.64000 6.515
23.66000 7.812
23.68000 5.352
23.70000 0.112
23.72000 7.639
23.74000 12.801
23.76000 10.469
23.78000 4.386
23.80000 5.923
23.82000 6.230
23.84000 2.367
23.86000 2.067
23.88000 7.164
23.90000 4.939
23.92000 -0.327
23.94000 2.925
23.96000 4.915
23.98000 7.156
24.00000 4.341
24.02000 -3.146
24.04000 0.455
24.06000 4.328
24.08000 9.368
24.10000 9.928
24.12000 -1.242
24.14000 -3.799
24.16000 -3.988
24.18000 1.799
24.20000 6.885
24.22000 4.796
24.24000 7.111
24.26000 3.732
24.28000 4.488
24.30000 3.273
24.32000 1.360
24.34000 2.214
24.36000 2.901
24.38000 7.131
24.40000 5.949
24.42000 9.398
24.44000 8.422
24.46000 -0.533
24.48000 -0.852
24.50000 8.098
24.52000 9.483
24.54000 7.317
24.56000 -0.187
24.58000 -0.935
24.60000 -1.609
24.62000 6.372
24.64000 14.934
24.66000 10.721
24.68000 5.637
24.70000 5.676
24.72000 4.217
24.74000 5.023
24.76000 3.552
24.78000 4.941
24.80000 5.142
24.82000 3.593
24.84000 3.145
24.86000 8.405
24.88000 10.683
24.90000 1.764
24.92000 5.248
24.94000 9.016
24.96000 6.050
24.98000 5.391
25.00000 3.628
25.02000 3.519
25.04000 3.135
25.06000 4.625
25.08000 6.104
25.10000 -2.575
25.12000 -3.927
25.14000 4.651
25.16000 6.508
25.18000 7.910
25.20000 3.913
25.22000 3.509
25.24000 0.397
25.26000 1.405
25.28000 2.713
25.30000 6.464
25.32000 8.302
25.34000 3.227
25.36000 5.135
25.38000 5.936
25.40000 8.432
25.42000 7.488
25.44000 2.653
25.46000 5.548
25.48000 -0.223
25.50000 -3.288
25.52000 -2.720
25.54000 3.678
25.56000 4.487
25.58000 4.410
25.60000 6.367
25.62000 0.370
25.64000 1.007
25.66000 4.729
25.68000 5.860
25.70000 3.856
25.72000 7.584
25.74000 5.218
25.76000 2.343
25.78000 -3.911
25.80000 1.055
25.82000 1.113
25.84000 1.574
25.86000 7.029
25.88000 6.313
25.90000 4.449
25.92000 7.391
25.94000 8.301
25.96000 3.583
25.98000 1.115
26.00000 0.725
26.02000 1.022
26.04000 5.879
26.06000 2.655
26.08000 -3.154
26.10000 -1.977
26.12000 -3.818
26.14000 4.319
26.16000 7.473
26.18000 7.236
26.20000 4.942
26.22000 6.332
26.24000 6.163
26.26000 9.510
26.28000 9.180
26.30000 6.831
26.32000 -1.859
26.34000 4.325
26.36000 5.287
26.38000 5.746
26.40000 10.521
26.42000 8.427
26.44000 6.116
26.46000 3.727
26.48000 10.012
26.50000 8.577
26.52000 8.051
26.54000 3.504
26.56000 4.063
26.58000 4.982
26.60000 2.143
26.62000 4.469
26.64000 4.060
26.66000 1.370
26.68000 2.883
26.70000 5.388
26.72000 1.466
26.74000 -1.921
26.76000 0.301
26.78000 3.659
26.80000 2.741
26.82000 5.697
26.84000 7.055
26.86000 5.282
26.88000 6.929
26.90000 5.145
26.92000 1.245
26.94000 -3.839
26.96000 -2.455
26.98000 0.950
27.00000 3.848
27.02000 4.730
27.04000 3.804
27.06000 6.968
27.08000 8.066
27.10000 5.821
27.12000 2.396
27.14000 8.137
27.16000 8.519
27.18000 8.054
27.20000 8.548
27.22000 9.396
27.24000 4.203
27.26000 -2.250
27.28000 -3.840
27.30000 3.380
27.32000 6.014
27.34000 1.823
27.36000 6.173
27.38000 5.138
27.40000 6.590
27.42000 9.065
27.44000 9.467
27.46000 2.260
27.48000 0.951
27.50000 2.000
27.52000 3.442
27.54000 6.989
27.56000 10.491
27.58000 4.666
27.60000 7.310
27.62000 3.008
27.64000 1.405
27.66000 -2.089
27.68000 2.500
27.70000 3.773
27.72000 5.067
27.74000 -1.712
27.76000 -2.970
27.78000 0.750
27.80000 3.830
27.82000 4.265
27.84000 1.360
27.86000 -0.195
27.88000 -3.829
27.90000 -2.601
27.92000 -0.493
27.94000 -1.460
27.96000 -3.555
27.98000 -1.762
28.00000 1.444
28.02000 5.982
28.04000 10.431
28.06000 6.740
28.08000 0.669
28.10000 3.989
28.12000 -0.809
28.14000 1.406
28.16000 4.770
28.18000 2.913
28.20000 4.296
28.22000 3.726
28.24000 2.194
28.26000 -3.816
28.28000 2.018
28.30000 1.815
28.32000 4.695
28.34000 6.135
28.36000 2.430
28.38000 0.345
28.40000 2.078
28.42000 2.737
28.44000 0.133
28.46000 0.799
28.48000 -0.526
28.50000 4.631
28.52000 1.479
28.54000 -0.948
28.56000 2.952
28.58000 -1.574
28.60000 -3.219
28.62000 5.133
28.64000 6.721
28.66000 6.717
28.68000 5.867
28.70000 1.012
28.72000 2.180
28.74000 7.727
28.76000 3.523
28.78000 4.151
28.80000 1.454
28.82000 0.888
28.84000 8.606
28.86000 6.748
28.88000 5.648
28.90000 1.147
28.92000 -1.641
28.94000 -2.982
28.96000 3.207
28.98000 7.267
29.00000 3.281
29.02000 1.593
29.04000 2.311
29.06000 -0.645
29.08000 0.076
29.10000 -1.224
29.12000 0.871
29.14000 4.320
29.16000 -1.278
29.18000 -0.651
29.20000 1.657
29.22000 3.831
29.24000 4.610
29.26000 4.560
29.28000 6.344
29.30000 6.021
29.32000 2.086
29.34000 3.988
29.36000 4.632
29.38000 -1.297
29.40000 3.028
29.42000 4.438
29.44000 7.221
29.46000 2.063
29.48000 2.268
29.50000 5.906
29.52000 -0.574
29.54000 -0.951
29.56000 3.471
29.58000 1.458
29.60000 -2.721
29.62000 -0.567
29.64000 1.992
29.66000 5.792
29.68000 -1.099
29.70000 -0.332
29.72000 3.655
29.74000 3.759
29.76000 8.198
29.78000 9.881
29.80000 10.341
29.82000 7.600
29.84000 11.888
29.86000 9.655
29.88000 8.104
29.90000 6.962
29.92000 8.896
29.94000 5.694
29.96000 5.620
29.98000 2.894
30.00000 5.663
30.02000 2.236
30.04000 -3.200
30.06000 0.539
30.08000 5.334
30.10000 5.287
30.12000 5.899
30.14000 6.183
30.16000 9.375
30.18000 8.826
30.20000 3.458
30.22000 0.295
30.24000 -1.305
30.26000 -3.670
30.28000 -1.472
30.30000 0.025
30.32000 1.978
30.34000 2.605
30.36000 1.878
30.38000 4.576
30.40000 4.521
30.42000 1.553
30.44000 2.688
30.46000 5.226
30.48000 2.851
30.50000 8.217
30.52000 10.044
30.54000 8.931
30.56000 6.486
30.58000 1.633
30.60000 3.219
30.62000 4.525
30.64000 0.146
30.66000 0.909
30.68000 -0.124
30.70000 -1.460
30.72000 -0.766
30.74000 1.486
30.76000 7.456
30.78000 6.807
30.80000 2.857
30.82000 4.806
30.84000 10.289
30.86000 10.458
30.88000 5.783
30.90000 0.536
30.92000 0.209
30.94000 6.257
30.96000 4.980
30.98000 0.812
31.00000 3.222
31.02000 3.419
31.04000 2.583
31.06000 1.353
31.08000 5.852
31.10000 1.220
31.12000 3.800
31.14000 2.744
31.16000 1.666
31.18000 2.768
31.20000 4.204
31.22000 6.712
31.24000 5.998
31.26000 3.256
31.28000 4.554
31.30000 7.818
31.32000 6.905
31.34000 2.698
31.36000 5.656
31.38000 5.442
31.40000 4.093
31.42000 -0.952
31.44000 2.696
31.46000 3.739
31.48000 -3.649
31.50000 2.754
31.52000 7.107
31.54000 4.495
31.56000 4.511
31.58000 3.404
31.60000 7.361
31.62000 2.345
31.64000 -1.079
31.66000 2.505
31.68000 6.307
31.70000 6.809
31.72000 5.917
31.74000 3.828
31.76000 -1.539
31.78000 -0.887
31.80000 -0.978
31.82000 0.277
31.84000 5.344
31.86000 4.062
31.88000 0.297
31.90000 -0.021
31.92000 3.959
31.94000 3.721
31.96000 6.191
31.98000 4.733
32.00000 2.396
32.02000 4.263
32.04000 3.420
32.06000 4.026
32.08000 -0.976
32.10000 3.683
32.12000 7.558
32.14000 6.565
32.16000 -1.156
32.18000 2.009
32.20000 2.681
32.22000 7.139
32.24000 7.259
32.26000 2.340
32.28000 -2.397
32.30000 -1.009
32.32000 -2.693
32.34000 3.858
32.36000 4.241
32.38000 1.050
32.40000 3.210
32.42000 9.231
32.44000 -0.173
32.46000 -1.389
32.48000 -1.970
32.50000 -3.627
32.52000 0.207
32.54000 5.019
32.56000 7.297
32.58000 9.824
32.60000 3.107
32.62000 1.622
32.64000 0.055
32.66000 2.452
32.68000 2.461
32.70000 3.911
32.72000 9.454
32.74000 5.218
32.76000 0.512
32.78000 -1.334
32.80000 8.973
32.82000 6.554
32.84000 4.510
32.86000 1.647
32.88000 -0.292
32.90000 -0.649
32.92000 5.326
32.94000 6.536
32.96000 4.204
32.98000 4.934
33.00000 4.143
33.02000 4.129
33.04000 0.321
33.06000 -3.111
33.08000 -3.612
33.10000 3.881
33.12000 4.543
33.14000 3.848
33.16000 6.776
33.18000 4.865
33.20000 -1.185
33.22000 0.945
33.24000 0.382
33.26000 -0.491
33.28000 1.936
33.30000 4.264
33.32000 2.471
33.34000 1.154
33.36000 1.704
33.38000 4.197
33.40000 8.207
33.42000 9.233
33.44000 7.202
33.46000 3.241
33.48000 5.973
33.50000 4.007
33.52000 3.728
33.54000 3.560
33.56000 5.545
33.58000 2.303
33.60000 5.661
33.62000 4.082
33.64000 1.582
33.66000 3.304
33.68000 5.727
33.70000 2.776
33.72000 4.816
33.74000 6.441
33.76000 2.410
33.78000 3.032
33.80000 4.314
33.82000 6.517
33.84000 5.410
33.86000 7.619
33.88000 1.786
33.90000 -1.270
33.92000 -3.599
33.94000 3.490
33.96000 2.608
33.98000 5.898
34.00000 8.007
34.02000 6.749
34.04000 8.170
34.06000 6.835
34.08000 4.877
34.10000 8.394
34.12000 7.645
34.14000 3.781
34.16000 7.405
34.18000 9.245
34.20000 9.102
34.22000 7.910
34.24000 3.058
34.26000 1.663
34.28000 2.871
34.30000 2.202
34.32000 1.559
34.34000 -0.461
34.36000 3.354
34.38000 5.194
34.40000 3.265
34.42000 3.924
34.44000 7.009
34.46000 7.476
34.48000 8.275
34.50000 2.439
34.52000 1.555
34.54000 7.089
34.56000 2.927
34.58000 1.518
34.60000 5.485
34.62000 3.689
34.64000 0.566
34.66000 1.890
34.68000 4.786
34.70000 1.905
34.72000 3.118
34.74000 -0.108
34.76000 4.609
34.78000 3.535
34.80000 2.808
34.82000 0.918
34.84000 1.205
34.86000 2.715
34.88000 -0.616
34.90000 2.443
34.92000 3.776
34.94000 1.572
34.96000 0.481
34.98000 0.219
35.00000 2.482
35.02000 3.518
35.04000 4.187
35.06000 6.075
35.08000 5.035
35.10000 1.152
35.12000 -0.304
35.14000 0.377
35.16000 1.906
35.18000 1.961
35.20000 -0.790
35.22000 -3.035
35.24000 2.115
35.26000 2.632
35.28000 -3.599
35.30000 2.672
35.32000 3.980
35.34000 0.571
35.36000 -3.596
35.38000 -2.655
35.40000 -0.279
35.42000 0.771
35.44000 -2.666
35.46000 2.351
35.48000 3.720
35.50000 2.085
35.52000 -0.319
35.54000 3.851
35.56000 3.568
35.58000 1.908
35.60000 1.584
35.62000 -0.190
35.64000 2.796
35.66000 -0.451
35.68000 3.371
35.70000 0.218
35.72000 0.754
35.74000 3.065
35.76000 7.344
35.78000 7.314
35.80000 3.514
35.82000 4.929
35.84000 -1.370
35.86000 6.246
35.88000 5.957
35.90000 -1.250
35.92000 -0.383
35.94000 0.279
35.96000 4.453
35.98000 -0.002
36.00000 -1.538
36.02000 -1.648
36.04000 2.758
36.06000 6.650
36.08000 1.275
36.10000 4.257
36.12000 -0.883
36.14000 -3.643
36.16000 0.467
36.18000 1.925
36.20000 2.272
36.22000 2.723
36.24000 3.093
36.26000 6.030
36.28000 7.467
36.30000 10.503
36.32000 8.301
36.34000 6.412
36.36000 7.452
36.38000 4.926
36.40000 5.273
36.42000 2.399
36.44000 4.846
36.46000 5.748
36.48000 1.901
36.50000 5.685
36.52000 5.256
36.54000 4.103
36.56000 5.151
36.58000 9.287
36.60000 11.528
36.62000 9.090
36.64000 6.977
36.66000 8.271
36.68000 2.173
36.70000 1.882
36.72000 1.458
36.74000 1.593
36.76000 3.915
36.78000 5.765
36.80000 9.042
36.82000 9.293
36.84000 11.832
36.86000 13.240
36.88000 9.279
36.90000 7.346
36.92000 8.879
36.94000 9.265
36.96000 17.129
36.98000 11.529
37.00000 11.181
37.02000 11.519
37.04000 8.514
37.06000 13.951
37.08000 7.567
37.10000 5.887
37.12000 7.656
37.14000 10.616
37.16000 7.955
37.18000 8.842
37.20000 13.860
37.22000 10.182
37.24000 13.868
37.26000 19.165
37.28000 17.197
37.30000 17.595
37.32000 15.577
37.34000 16.468
37.36000 14.793
37.38000 14.078
37.40000 18.511
37.42000 22.915
37.44000 28.475
37.46000 24.152
37.48000 21.927
37.50000 18.407
37.52000 23.600
37.54000 26.061
37.56000 28.538
37.58000 33.872
37.60000 32.006
37.62000 28.457
37.64000 25.577
37.66000 27.739
37.68000 31.671
37.70000 32.693
37.72000 31.700
37.74000 32.760
37.76000 25.694
37.78000 27.807
37.80000 31.655
37.82000 33.388
37.84000 29.624
37.86000 32.169
37.88000 43.239
37.90000 40.539
37.92000 40.448
37.94000 45.235
37.96000 50.290
37.98000 44.696
38.00000 42.801
38.02000 50.508
38.04000 50.827
38.06000 45.737
38.08000 43.895
38.10000 46.319
38.12000 52.669
38.14000 60.264
38.16000 63.980
38.18000 65.099
38.20000 64.643
38.22000 65.803
38.24000 66.524
38.26000 74.793
38.28000 78.487
38.30000 80.847
38.32000 84.624
38.34000 89.497
38.36000 99.640
38.38000 102.836
38.40000 108.831
38.42000 108.300
38.44000 117.399
38.46000 127.706
38.48000 130.293
38.50000 139.022
38.52000 143.622
38.54000 156.941
38.56000 165.965
38.58000 175.565
38.60000 185.774
38.62000 195.582
38.64000 208.425
38.66000 221.442
38.68000 232.168
38.70000 246.663
38.72000 260.815
38.74000 272.644
38.76000 274.820
38.78000 284.219
38.80000 289.863
38.82000 298.760
38.84000 317.029
38.86000 327.093
38.88000 328.666
38.90000 331.093
38.92000 328.917
38.94000 324.455
38.96000 325.161
38.98000 322.222
39.00000 322.927
39.02000 325.872
39.04000 320.034
39.06000 306.450
39.08000 298.752
39.10000 283.822
39.12000 273.727
39.14000 266.474
39.16000 256.219
39.18000 245.609
39.20000 236.170
39.22000 224.904
39.24000 213.191
39.26000 204.371
39.28000 185.968
39.30000 174.402
39.32000 161.949
39.34000 159.948
39.36000 152.179
39.38000 144.453
39.40000 128.940
39.42000 122.146
39.44000 117.358
39.46000 109.073
39.48000 102.851
39.50000 97.802
39.52000 92.574
39.54000 83.688
39.56000 78.831
39.58000 75.322
39.60000 74.716
39.62000 63.660
39.64000 58.127
39.66000 60.468
39.68000 64.300
39.70000 58.074
39.72000 56.600
39.74000 51.652
39.76000 45.039
39.78000 43.949
39.80000 41.828
39.82000 44.352
39.84000 45.404
39.86000 39.386
39.88000 40.346
39.90000 41.536
39.92000 38.730
39.94000 37.460
39.96000 32.527
39.98000 33.149
40.00000 32.839
40.02000 35.613
40.04000 31.061
40.06000 32.720
40.08000 27.861
40.10000 24.695
40.12000 25.471
40.14000 25.574
40.16000 25.401
40.18000 23.891
40.20000 23.281
40.22000 22.858
40.24000 24.147
40.26000 21.314
40.28000 19.588
40.30000 24.463
40.32000 21.401
40.34000 15.217
40.36000 16.084
40.38000 17.873
40.40000 21.182
40.42000 20.312
40.44000 17.358
40.46000 15.741
40.48000 12.426
40.50000 12.853
40.52000 14.831
40.54000 14.609
40.56000 11.950
40.58000 13.465
40.60000 13.680
40.62000 14.622
40.64000 12.793
40.66000 15.211
40.68000 13.090
40.70000 11.076
40.72000 12.335
40.74000 13.844
40.76000 10.413
40.78000 3.143
40.80000 5.965
40.82000 7.185
40.84000 6.199
40.86000 10.483
40.88000 7.489
40.90000 8.138
40.92000 9.451
40.94000 10.713
40.96000 9.015
40.98000 4.695
41.00000 7.810
41.02000 9.808
41.04000 5.669
41.06000 4.934
41.08000 6.551
41.10000 5.881
41.12000 10.372
41.14000 6.795
41.16000 4.442
41.18000 4.580
41.20000 3.969
41.22000 4.109
41.24000 3.543
41.26000 1.923
41.28000 -3.493
41.30000 3.085
41.32000 11.280
41.34000 10.524
41.36000 6.001
41.38000 3.894
41.40000 4.409
41.42000 3.985
41.44000 4.246
41.46000 -2.063
41.48000 1.173
41.50000 4.750
41.52000 4.960
41.54000 7.304
41.56000 6.148
41.58000 3.260
41.60000 4.701
41.62000 4.821
41.64000 3.093
41.66000 2.377
41.68000 5.415
41.70000 4.447
41.72000 -1.257
41.74000 1.521
41.76000 5.612
41.78000 1.742
41.80000 3.437
41.82000 3.782
41.84000 4.937
41.86000 0.843
41.88000 0.656
41.90000 3.995
41.92000 5.389
41.94000 5.807
41.96000 0.353
41.98000 0.627
42.00000 2.934
42.02000 2.351
42.04000 2.144
42.06000 3.318
42.08000 4.371
42.10000 3.224
42.12000 -3.394
42.14000 2.170
42.16000 3.226
42.18000 3.072
42.20000 2.212
42.22000 2.063
42.24000 3.845
42.26000 0.190
42.28000 -0.285
42.30000 2.622
42.32000 1.983
42.34000 1.557
42.36000 -2.156
42.38000 -2.541
42.40000 -3.369
42.42000 2.648
42.44000 5.268
42.46000 4.326
42.48000 1.634
42.50000 1.272
42.52000 -1.072
42.54000 -1.345
42.56000 4.500
42.58000 -0.372
42.60000 -3.229
42.62000 3.217
42.64000 4.828
42.66000 -0.449
42.68000 0.840
42.70000 1.938
42.72000 -3.260
42.74000 -1.748
42.76000 -0.292
42.78000 0.130
42.80000 4.720
42.82000 -0.796
42.84000 -3.338
42.86000 0.297
42.88000 0.245
42.90000 -0.241
42.92000 -1.632
42.94000 2.415
42.96000 1.726
42.98000 2.415
43.00000 -0.873
43.02000 -1.341
43.04000 0.689
43.06000 -2.022
43.08000 0.825
43.10000 -0.023
43.12000 -1.535
43.14000 1.309
43.16000 -1.122
43.18000 -0.329
43.20000 -1.223
43.22000 0.244
43.24000 -0.789
43.26000 1.999
43.28000 1.984
43.30000 2.265
43.32000 -1.999
43.34000 3.380
43.36000 2.002
43.38000 -1.056
43.40000 -2.333
43.42000 -1.470
43.44000 -0.391
43.46000 -1.316
43.48000 1.804
43.50000 -2.786
43.52000 -2.078
43.54000 0.822
43.56000 -3.085
43.58000 -2.945
43.60000 -3.086
43.62000 -1.889
43.64000 1.417
43.66000 2.242
43.68000 6.382
43.70000 3.770
43.72000 1.891
43.74000 -3.294
43.76000 -2.155
43.78000 0.566
43.80000 0.537
43.82000 3.728
43.84000 0.749
43.86000 -2.622
43.88000 -0.519
43.90000 -0.313
43.92000 -1.290
43.94000 -1.126
43.96000 -0.725
43.98000 1.599
44.00000 -2.820
44.02000 3.358
44.04000 2.616
44.06000 3.907
44.08000 5.675
44.10000 6.039
44.12000 8.958
44.14000 6.411
44.16000 4.267
44.18000 1.144
44.20000 1.414
44.22000 2.138
44.24000 4.678
44.26000 5.020
44.28000 3.355
44.30000 3.740
44.32000 5.009
44.34000 5.857
44.36000 4.135
44.38000 5.904
44.40000 8.693
44.42000 14.552
44.44000 13.645
44.46000 10.593
44.48000 11.825
44.50000 13.341
44.52000 17.346
44.54000 13.817
44.56000 9.928
44.58000 15.238
44.60000 19.745
44.62000 18.704
44.64000 22.562
44.66000 24.839
44.68000 25.964
44.70000 29.724
44.72000 28.874
44.74000 27.911
44.76000 29.114
44.78000 34.467
44.80000 36.020
44.82000 32.687
44.84000 35.315
44.86000 36.911
44.88000 37.972
44.90000 42.970
44.92000 42.905
44.94000 47.920
44.96000 50.533
44.98000 54.300
45.00000 62.137
45.02000 60.604
45.04000 58.442
45.06000 62.933
45.08000 67.572
45.10000 70.643
45.12000 74.118
45.14000 71.341
45.16000 77.476
45.18000 79.365
45.20000 78.371
45.22000 90.733
45.24000 90.281
45.26000 89.740
45.28000 93.095
45.30000 93.108
45.32000 95.247
45.34000 94.309
45.36000 92.296
45.38000 97.477
45.40000 93.145
45.42000 91.803
45.44000 87.618
45.46000 90.747
45.48000 93.264
45.50000 90.812
45.52000 88.641
45.54000 85.632
45.56000 80.946
45.58000 79.248
45.60000 79.238
45.62000 79.009
45.64000 75.759
45.66000 69.240
45.68000 69.366
45.70000 67.402
45.72000 63.162
45.74000 62.525
45.76000 63.250
45.78000 55.024
45.80000 49.688
45.82000 45.309
45.84000 43.005
45.86000 45.751
45.88000 42.059
45.90000 35.653
45.92000 32.982
45.94000 35.563
45.96000 28.211
45.98000 27.458
46.00000 25.826
46.02000 26.414
46.04000 28.344
46.06000 23.974
46.08000 17.676
46.10000 19.020
46.12000 19.538
46.14000 20.229
46.16000 19.001
46.18000 17.594
46.20000 14.957
46.22000 12.323
46.24000 10.970
46.26000 11.760
46.28000 12.549
46.30000 6.955
46.32000 3.916
46.34000 0.724
46.36000 5.306
46.38000 4.494
46.40000 7.171
46.42000 5.753
46.44000 4.980
46.46000 8.501
46.48000 6.366
46.50000 3.322
46.52000 0.608
46.54000 -2.996
46.56000 0.590
46.58000 0.358
46.60000 5.259
46.62000 1.406
46.64000 1.049
46.66000 3.967
46.68000 3.360
46.70000 3.259
46.72000 1.628
46.74000 -1.375
46.76000 0.185
46.78000 2.942
46.80000 4.344
46.82000 2.069
46.84000 -1.610
46.86000 2.489
46.88000 -0.167
46.90000 2.147
46.92000 3.819
46.94000 -1.164
46.96000 0.173
46.98000 -1.705
47.00000 2.065
47.02000 5.773
47.04000 3.231
47.06000 1.491
47.08000 1.305
47.10000 2.960
47.12000 1.387
47.14000 -0.582
47.16000 0.708
47.18000 3.048
47.20000 -0.814
47.22000 1.029
47.24000 -1.854
47.26000 -2.859
47.28000 0.555
47.30000 3.406
47.32000 4.628
47.34000 3.165
47.36000 3.260
47.38000 4.337
47.40000 3.660
47.42000 1.642
47.44000 1.068
47.46000 -1.041
47.48000 3.550
47.50000 3.108
47.52000 3.173
47.54000 3.495
47.56000 2.832
47.58000 5.889
47.60000 3.385
47.62000 0.756
47.64000 -1.291
47.66000 1.502
47.68000 4.848
47.70000 1.588
47.72000 -1.877
47.74000 0.573
47.76000 3.609
47.78000 7.075
47.80000 5.402
47.82000 2.122
47.84000 2.425
47.86000 4.726
47.88000 4.178
47.90000 3.234
47.92000 5.463
47.94000 7.025
47.96000 4.354
47.98000 0.209
48.00000 5.973
48.02000 2.791
48.04000 -2.751
48.06000 1.150
48.08000 3.402
48.10000 6.858
48.12000 5.871
48.14000 7.051
48.16000 3.068
48.18000 3.065
48.20000 3.171
48.22000 3.502
48.24000 5.856
48.26000 8.129
48.28000 5.003
48.30000 -1.087
48.32000 -0.841
48.34000 0.698
48.36000 3.865
48.38000 8.991
48.40000 5.577
48.42000 2.339
48.44000 3.691
48.46000 3.789
48.48000 0.219
48.50000 0.906
48.52000 3.021
48.54000 1.501
48.56000 -1.937
48.58000 1.147
48.60000 0.635
48.62000 1.795
48.64000 4.915
48.66000 2.317
48.68000 2.568
48.70000 2.423
48.72000 4.188
48.74000 0.528
48.76000 1.313
48.78000 2.585
48.80000 -1.069
48.82000 0.131
48.84000 5.067
48.86000 -0.244
48.88000 0.245
48.90000 -1.171
48.92000 -2.738
48.94000 2.900
48.96000 0.169
48.98000 2.542
49.00000 3.923
49.02000 -2.734
49.04000 -2.590
49.06000 3.715
49.08000 5.955
49.10000 2.743
49.12000 -2.337
49.14000 -1.827
49.16000 0.873
49.18000 2.816
49.20000 2.686
49.22000 -0.135
49.24000 2.005
49.26000 0.796
49.28000 0.535
49.30000 -1.713
49.32000 0.903
49.34000 4.701
49.36000 -2.369
49.38000 0.750
49.40000 0.593
49.42000 -0.498
49.44000 1.402
49.46000 0.467
49.48000 1.437
49.50000 -0.272
49.52000 4.933
49.54000 9.198
49.56000 2.262
49.58000 1.013
49.60000 3.698
49.62000 1.034
49.64000 -0.875
49.66000 -2.030
49.68000 1.047
49.70000 4.045
49.72000 2.857
49.74000 1.610
49.76000 1.692
49.78000 6.891
49.80000 5.186
49.82000 2.687
49.84000 1.083
49.86000 4.344
49.88000 8.952
49.90000 6.462
49.92000 2.478
49.94000 -0.536
49.96000 -1.106
49.98000 -2.682
50.00000 4.869
50.02000 5.914
50.04000 3.200
50.06000 1.256
50.08000 1.414
50.10000 4.950
50.12000 0.047
50.14000 0.008
50.16000 1.600
50.18000 2.690
50.20000 3.405
50.22000 1.423
50.24000 3.915
50.26000 3.363
50.28000 6.233
50.30000 0.608
50.32000 -2.277
50.34000 2.645
50.36000 7.590
50.38000 2.996
50.40000 3.161
50.42000 6.879
50.44000 5.172
50.46000 2.189
50.48000 1.234
50.50000 -0.386
50.52000 3.802
50.54000 2.011
50.56000 0.283
50.58000 -1.579
50.60000 0.325
50.62000 -2.637
50.64000 0.069
50.66000 4.559
50.68000 1.736
50.70000 7.611
50.72000 9.312
50.74000 10.848
50.76000 4.109
50.78000 2.144
50.80000 3.628
50.82000 4.496
50.84000 3.632
50.86000 2.880
50.88000 1.548
50.90000 -1.570
50.92000 6.795
50.94000 8.063
50.96000 10.255
50.98000 8.725
51.00000 1.349
51.02000 -1.119
51.04000 1.096
51.06000 1.879
51.08000 3.699
51.10000 4.848
51.12000 5.528
51.14000 2.134
51.16000 -0.355
51.18000 3.678
51.20000 3.060
51.22000 1.901
51.24000 6.740
51.26000 5.889
51.28000 5.115
51.30000 3.719
51.32000 2.064
51.34000 1.307
51.36000 0.574
51.38000 1.721
51.40000 -1.109
51.42000 0.228
51.44000 0.221
51.46000 1.967
51.48000 6.172
51.50000 2.620
51.52000 4.057
51.54000 -1.737
51.56000 -0.813
51.58000 0.627
51.60000 1.197
51.62000 1.347
51.64000 -0.130
51.66000 4.342
51.68000 4.831
51.70000 0.544
51.72000 -1.994
51.74000 3.274
51.76000 4.502
51.78000 2.689
51.80000 4.846
51.82000 6.073
51.84000 4.456
51.86000 5.438
51.88000 3.460
51.90000 2.934
51.92000 2.792
51.94000 2.527
51.96000 0.865
51.98000 0.550
52.00000 4.945
52.02000 5.302
52.04000 4.801
52.06000 7.709
52.08000 7.292
52.10000 5.032
52.12000 3.618
52.14000 4.631
52.16000 4.101
52.18000 2.730
52.20000 4.628
52.22000 -2.604
52.24000 -0.907
52.26000 0.695
52.28000 0.415
52.30000 5.948
52.32000 7.687
52.34000 6.148
52.36000 1.879
52.38000 -2.601
52.40000 -1.499
52.42000 0.065
52.44000 1.355
52.46000 3.213
52.48000 2.611
52.50000 6.530
52.52000 3.153
52.54000 1.861
52.56000 4.064
52.58000 3.350
52.60000 -1.354
52.62000 -0.330
52.64000 0.810
52.66000 2.967
52.68000 3.723
52.70000 2.134
52.72000 0.136
52.74000 -0.532
52.76000 1.530
52.78000 0.578
52.80000 -1.559
52.82000 2.696
52.84000 3.043
52.86000 1.401
52.88000 1.953
52.90000 2.600
52.92000 2.352
52.94000 2.615
52.96000 3.534
52.98000 3.337
53.00000 1.795
53.02000 0.707
53.04000 7.884
53.06000 5.273
53.08000 3.503
53.10000 3.476
53.12000 0.332
53.14000 1.722
53.16000 -1.350
53.18000 -0.529
53.20000 3.866
53.22000 5.182
53.24000 2.452
53.26000 -2.572
53.28000 1.303
53.30000 3.439
53.32000 3.439
53.34000 4.855
53.36000 1.762
53.38000 0.529
53.40000 3.203
53.42000 2.311
53.44000 2.665
53.46000 3.878
53.48000 3.017
53.50000 5.061
53.52000 4.705
53.54000 5.961
53.56000 2.362
53.58000 1.428
53.60000 3.434
53.62000 0.851
53.64000 0.216
53.66000 -0.244
53.68000 -1.673
53.70000 0.114
53.72000 -1.287
53.74000 -0.123
53.76000 1.614
53.78000 5.134
53.80000 2.681
53.82000 3.571
53.84000 2.145
53.86000 1.281
53.88000 1.332
53.90000 2.485
53.92000 1.800
53.94000 1.147
53.96000 -0.702
53.98000 2.850
54.00000 2.043
54.02000 0.463
54.04000 -0.032
54.06000 2.072
54.08000 6.254
54.10000 1.530
54.12000 -0.515
54.14000 1.393
54.16000 0.346
54.18000 1.584
54.20000 2.431
54.22000 0.933
54.24000 0.082
54.26000 1.218
54.28000 2.801
54.30000 3.860
54.32000 -2.469
54.34000 -1.109
54.36000 0.211
54.38000 2.566
54.40000 7.905
54.42000 5.959
54.44000 0.508
54.46000 4.982
54.48000 1.922
54.50000 0.255
54.52000 1.924
54.54000 1.790
54.56000 3.410
54.58000 3.601
54.60000 3.887
54.62000 2.713
54.64000 2.729
54.66000 1.638
54.68000 -1.321
54.70000 -1.663
54.72000 -1.824
54.74000 2.402
54.76000 -1.521
54.78000 0.951
54.80000 2.179
54.82000 5.897
54.84000 2.667
54.86000 1.538
54.88000 -0.136
54.90000 1.826
54.92000 3.118
54.94000 1.810
54.96000 1.551
54.98000 1.942
55.00000 2.457
55.02000 -0.954
55.04000 0.008
55.06000 -0.147
55.08000 -2.548
55.10000 2.889
55.12000 6.578
55.14000 1.948
55.16000 1.057
55.18000 1.715
55.20000 1.089
55.22000 -0.061
55.24000 1.437
55.26000 1.588
55.28000 4.027
55.30000 2.454
55.32000 3.655
55.34000 4.271
55.36000 4.806
55.38000 2.821
55.40000 1.773
55.42000 -0.639
55.44000 1.149
55.46000 6.768
55.48000 3.066
55.50000 2.545
55.52000 1.921
55.54000 2.914
55.56000 4.967
55.58000 2.780
55.60000 1.050
55.62000 2.166
55.64000 1.938
55.66000 1.596
55.68000 1.262
55.70000 3.052
55.72000 6.347
55.74000 5.936
55.76000 6.929
55.78000 6.957
55.80000 5.499
55.82000 5.475
55.84000 1.637
55.86000 0.251
55.88000 0.827
55.90000 2.818
55.92000 -0.757
55.94000 -0.004
55.96000 1.566
55.98000 0.483
56.00000 0.403
56.02000 1.496
56.04000 4.825
56.06000 4.638
56.08000 2.622
56.10000 3.638
56.12000 3.209
56.14000 4.208
56.16000 5.061
56.18000 5.330
56.20000 4.668
56.22000 6.035
56.24000 5.217
56.26000 0.131
56.28000 -2.481
56.30000 -2.115
56.32000 1.715
56.34000 3.015
56.36000 4.162
56.38000 4.473
56.40000 7.446
56.42000 8.596
56.44000 2.541
56.46000 5.374
56.48000 6.518
56.50000 2.496
56.52000 3.109
56.54000 2.647
56.56000 3.367
56.58000 2.695
56.60000 6.492
56.62000 6.185
56.64000 3.420
56.66000 3.983
56.68000 2.207
56.70000 3.589
56.72000 6.076
56.74000 3.466
56.76000 -0.172
56.78000 1.790
56.80000 1.071
56.82000 1.290
56.84000 -0.465
56.86000 2.736
56.88000 0.564
56.90000 0.326
56.92000 3.572
56.94000 2.551
56.96000 1.154
56.98000 5.425
57.00000 5.299
57.02000 1.978
57.04000 -0.685
57.06000 -1.259
57.08000 0.929
57.10000 -1.132
57.12000 1.646
57.14000 3.835
57.16000 3.026
57.18000 1.428
57.20000 2.152
57.22000 2.672
57.24000 2.071
57.26000 1.676
57.28000 0.318
57.30000 -0.209
57.32000 -0.713
57.34000 -0.889
57.36000 -1.529
57.38000 2.259
57.40000 5.338
57.42000 -0.431
57.44000 0.244
57.46000 4.851
57.48000 6.078
57.50000 1.973
57.52000 -0.071
57.54000 -0.981
57.56000 3.970
57.58000 5.637
57.60000 4.930
57.62000 4.093
57.64000 3.494
57.66000 -0.716
57.68000 -0.785
57.70000 2.853
57.72000 2.682
57.74000 4.168
57.76000 2.407
57.78000 4.619
57.80000 8.303
57.82000 5.071
57.84000 0.790
57.86000 -0.587
57.88000 0.421
57.90000 5.906
57.92000 2.258
57.94000 0.195
57.96000 2.491
57.98000 6.359
58.00000 6.035
58.02000 1.749
58.04000 2.723
58.06000 3.353
58.08000 1.572
58.10000 3.711
58.12000 6.220
58.14000 6.140
58.16000 4.877
58.18000 0.939
58.20000 0.270
58.22000 2.087
58.24000 4.074
58.26000 3.054
58.28000 -0.260
58.30000 -2.429
58.32000 -0.501
58.34000 -1.062
58.36000 -0.083
58.38000 2.274
58.40000 0.743
58.42000 2.245
58.44000 2.515
58.46000 6.043
58.48000 3.357
58.50000 2.011
58.52000 1.094
58.54000 0.048
58.56000 0.953
58.58000 0.727
58.60000 -2.147
58.62000 1.517
58.64000 2.887
58.66000 3.407
58.68000 4.901
58.70000 3.717
58.72000 3.535
58.74000 1.477
58.76000 -2.330
58.78000 0.801
58.80000 1.568
58.82000 1.519
58.84000 0.716
58.86000 3.463
58.88000 1.843
58.90000 1.419
58.92000 1.054
58.94000 -0.419
58.96000 0.278
58.98000 2.581
59.00000 1.579
59.02000 2.418
59.04000 10.297
59.06000 7.004
59.08000 6.335
59.10000 3.647
59.12000 0.558
59.14000 4.663
59.16000 4.722
59.18000 3.876
59.20000 1.267
59.22000 4.051
59.24000 4.273
59.26000 2.895
59.28000 3.332
59.30000 1.216
59.32000 -0.883
59.34000 3.037
59.36000 3.159
59.38000 1.662
59.40000 5.837
59.42000 2.439
59.44000 3.896
59.46000 2.502
59.48000 3.519
59.50000 -0.572
59.52000 2.499
59.54000 2.935
59.56000 -0.249
59.58000 6.210
59.60000 5.795
59.62000 4.428
59.64000 1.669
59.66000 -2.376
59.68000 2.471
59.70000 5.754
59.72000 4.007
59.74000 2.634
59.76000 4.118
59.78000 6.054
59.80000 6.043
59.82000 3.321
59.84000 6.814
59.86000 5.076
59.88000 2.793
59.90000 7.245
59.92000 4.912
59.94000 3.349
59.96000 0.197
59.98000 0.815
60.00000 0.168
60.02000 1.625
60.04000 4.653
60.06000 2.753
60.08000 3.497
60.10000 3.685
60.12000 -0.986
60.14000 -0.262
60.16000 -2.366
60.18000 0.897
60.20000 6.063
60.22000 3.540
60.24000 3.839
60.26000 3.217
60.28000 2.216
60.30000 4.090
60.32000 0.865
60.34000 2.130
60.36000 1.304
60.38000 -1.714
60.40000 1.283
60.42000 4.509
60.44000 2.086
60.46000 0.450
60.48000 1.100
60.50000 0.764
60.52000 -0.280
60.54000 2.576
60.56000 0.963
60.58000 -1.241
60.60000 1.326
60.62000 2.663
60.64000 0.699
60.66000 0.708
60.68000 -0.216
60.70000 4.393
60.72000 3.205
60.74000 1.270
60.76000 0.694
60.78000 1.009
60.80000 2.630
60.82000 2.976
60.84000 -1.269
60.86000 -0.626
60.88000 1.692
60.90000 2.054
60.92000 3.635
60.94000 1.762
60.96000 1.460
60.98000 1.861
61.00000 -1.161
61.02000 -2.351
61.04000 -1.448
61.06000 0.655
61.08000 2.385
61.10000 6.810
61.12000 2.729
61.14000 0.033
61.16000 2.151
61.18000 3.098
61.20000 2.333
61.22000 1.719
61.24000 5.339
61.26000 8.447
61.28000 4.505
61.30000 1.913
61.32000 2.816
61.34000 1.803
61.36000 -1.610
61.38000 1.792
61.40000 3.353
61.42000 2.212
61.44000 1.925
61.46000 1.570
61.48000 2.080
61.50000 0.000
61.52000 0.081
61.54000 1.604
61.56000 3.374
61.58000 2.479
61.60000 3.387
61.62000 -0.472
61.64000 0.020
61.66000 -0.551
61.68000 -1.235
61.70000 -1.869
61.72000 0.105
61.74000 0.828
61.76000 4.265
61.78000 4.508
61.80000 -0.446
61.82000 0.523
61.84000 3.422
61.86000 0.910
61.88000 0.338
61.90000 0.835
61.92000 4.421
61.94000 -1.803
61.96000 -0.012
61.98000 -2.035
62.00000 -0.566
62.02000 -0.089
62.04000 -0.175
62.06000 -2.044
62.08000 0.533
62.10000 3.395
62.12000 -0.079
62.14000 -2.350
62.16000 -1.849
62.18000 -1.384
62.20000 0.021
62.22000 3.698
62.24000 2.094
62.26000 -1.320
62.28000 3.982
62.30000 1.703
62.32000 0.221
62.34000 -1.279
62.36000 1.350
62.38000 0.083
62.40000 0.453
62.42000 4.158
62.44000 4.027
62.46000 0.462
62.48000 -2.246
62.50000 -2.334
62.52000 -0.378
62.54000 -0.451
62.56000 -1.565
62.58000 -0.007
62.60000 2.356
62.62000 2.398
62.64000 1.899
62.66000 0.103
62.68000 -0.916
62.70000 2.022
62.72000 3.569
62.74000 0.055
62.76000 1.503
62.78000 -0.798
62.80000 -1.348
62.82000 0.092
62.84000 2.029
62.86000 0.777
62.88000 3.635
62.90000 4.213
62.92000 1.544
62.94000 1.827
62.96000 2.669
62.98000 2.354
63.00000 1.427
63.02000 -2.113
63.04000 0.744
63.06000 0.825
63.08000 0.929
63.10000 -0.257
63.12000 0.897
63.14000 0.325
63.16000 0.577
63.18000 -1.150
63.20000 1.234
63.22000 6.028
63.24000 3.002
63.26000 -0.437
63.28000 -1.804
63.30000 -1.093
63.32000 -0.519
63.34000 1.559
63.36000 1.557
63.38000 1.298
63.40000 -0.656
63.42000 -0.461
63.44000 -0.179
63.46000 3.602
63.48000 1.634
63.50000 -2.302
63.52000 -1.245
63.54000 -0.199
63.56000 0.900
63.58000 1.027
63.60000 6.061
63.62000 4.670
63.64000 4.522
63.66000 3.826
63.68000 2.768
63.70000 0.262
63.72000 0.301
63.74000 0.241
63.76000 -0.770
63.78000 -0.959
63.80000 0.597
63.82000 1.860
63.84000 1.708
63.86000 3.373
63.88000 2.847
63.90000 -0.627
63.92000 -1.457
63.94000 0.237
63.96000 3.612
63.98000 2.227
64.00000 1.005
64.02000 1.179
64.04000 1.272
64.06000 -0.488
64.08000 0.512
64.10000 2.957
64.12000 0.599
64.14000 2.649
64.16000 3.118
64.18000 4.383
64.20000 3.280
64.22000 3.298
64.24000 2.460
64.26000 2.617
64.28000 4.920
64.30000 -1.445
64.32000 -2.282
64.34000 0.272
64.36000 2.477
64.38000 0.415
64.40000 -1.845
64.42000 3.101
64.44000 4.454
64.46000 5.518
64.48000 3.624
64.50000 0.835
64.52000 1.294
64.54000 0.614
64.56000 3.993
64.58000 3.134
64.60000 1.944
64.62000 0.151
64.64000 0.629
64.66000 1.881
64.68000 1.080
64.70000 1.491
64.72000 2.290
64.74000 1.928
64.76000 2.452
64.78000 2.733
64.80000 2.968
64.82000 6.205
64.84000 5.395
64.86000 2.950
64.88000 2.403
64.90000 1.519
64.92000 -1.985
64.94000 -2.103
64.96000 3.532
64.98000 3.831
65.00000 1.277
65.02000 0.581
65.04000 1.793
65.06000 0.075
65.08000 1.154
65.10000 3.297
65.12000 3.869
65.14000 2.750
65.16000 0.567
65.18000 1.813
65.20000 2.251
65.22000 0.733
65.24000 3.141
65.26000 2.757
65.28000 3.382
65.30000 4.411
65.32000 2.070
65.34000 0.686
65.36000 -2.320
65.38000 -1.114
65.40000 3.119
65.42000 2.792
65.44000 4.597
65.46000 2.171
65.48000 3.140
65.50000 1.301
65.52000 1.245
65.54000 0.890
65.56000 1.529
65.58000 4.978
65.60000 2.651
65.62000 2.621
65.64000 4.838
65.66000 5.053
65.68000 5.084
65.70000 1.507
65.72000 3.380
65.74000 2.868
65.76000 3.438
65.78000 1.388
65.80000 3.463
65.82000 3.728
65.84000 7.256
65.86000 8.192
65.88000 3.784
65.90000 2.961
65.92000 1.289
65.94000 2.387
65.96000 1.000
65.98000 4.716
66.00000 5.703
66.02000 5.456
66.04000 3.658
66.06000 5.467
66.08000 3.325
66.10000 3.438
66.12000 6.476
66.14000 5.029
66.16000 5.801
66.18000 6.590
66.20000 6.151
66.22000 3.740
66.24000 1.158
66.26000 1.332
66.28000 -0.080
66.30000 0.080
66.32000 2.146
66.34000 2.451
66.36000 4.138
66.38000 3.855
66.40000 4.700
66.42000 2.749
66.44000 3.922
66.46000 2.317
66.48000 2.734
66.50000 3.402
66.52000 3.336
66.54000 1.797
66.56000 1.047
66.58000 2.108
66.60000 5.321
66.62000 1.792
66.64000 0.179
66.66000 0.426
66.68000 4.055
66.70000 5.424
66.72000 2.020
66.74000 2.686
66.76000 1.312
66.78000 2.884
66.80000 -0.723
66.82000 -0.555
66.84000 1.792
66.86000 0.185
66.88000 0.796
66.90000 2.506
66.92000 5.534
66.94000 4.951
66.96000 4.126
66.98000 2.626
67.00000 3.021
67.02000 0.204
67.04000 -0.764
67.06000 -0.978
67.08000 3.411
67.10000 1.099
67.12000 1.138
67.14000 0.030
67.16000 3.629
67.18000 1.954
67.20000 0.292
67.22000 -2.238
67.24000 0.876
67.26000 0.804
67.28000 -2.234
67.30000 0.453
67.32000 2.867
67.34000 4.187
67.36000 2.804
67.38000 2.825
67.40000 5.786
67.42000 3.941
67.44000 1.290
67.46000 1.214
67.48000 -0.854
67.50000 1.766
67.52000 3.604
67.54000 2.969
67.56000 4.539
67.58000 3.526
67.60000 1.340
67.62000 -1.520
67.64000 0.519
67.66000 1.518
67.68000 1.786
67.70000 3.964
67.72000 1.639
67.74000 -0.504
67.76000 0.520
67.78000 0.599
67.80000 -1.807
67.82000 -0.211
67.84000 -0.346
67.86000 3.716
67.88000 1.371
67.90000 -0.127
67.92000 -0.371
67.94000 0.078
67.96000 0.694
67.98000 0.608
68.00000 2.935
68.02000 0.753
68.04000 1.323
68.06000 2.272
68.08000 0.756
68.10000 -0.440
68.12000 -1.333
68.14000 1.076
68.16000 -0.252
68.18000 1.833
68.20000 1.482
68.22000 -1.571
68.24000 -1.964
68.26000 0.958
68.28000 2.257
68.30000 2.372
68.32000 3.032
68.34000 2.036
68.36000 1.065
68.38000 -1.391
68.40000 -2.168
68.42000 2.176
68.44000 2.262
68.46000 3.156
68.48000 5.583
68.50000 3.053
68.52000 1.713
68.54000 3.489
68.56000 2.528
68.58000 1.255
68.60000 2.270
68.62000 0.572
68.64000 2.288
68.66000 2.932
68.68000 0.413
68.70000 0.824
68.72000 2.406
68.74000 1.290
68.76000 1.412
68.78000 0.841
68.80000 1.449
68.82000 1.544
68.84000 0.138
68.86000 -0.815
68.88000 0.316
68.90000 1.291
68.92000 1.401
68.94000 0.610
68.96000 1.167
68.98000 3.210
69.00000 3.962
69.02000 0.310
69.04000 1.096
69.06000 0.975
69.08000 2.616
69.10000 1.607
69.12000 -0.502
69.14000 0.979
69.16000 0.306
69.18000 0.323
69.20000 0.420
69.22000 1.476
69.24000 2.859
69.26000 1.237
69.28000 0.973
69.30000 2.070
69.32000 2.553
69.34000 -0.204
69.36000 -0.497
69.38000 0.608
69.40000 1.101
69.42000 1.675
69.44000 2.180
69.46000 0.910
69.48000 2.866
69.50000 4.505
69.52000 1.489
69.54000 0.377
69.56000 -0.228
69.58000 1.764
69.60000 0.613
69.62000 -2.129
69.64000 1.420
69.66000 2.929
69.68000 2.925
69.70000 1.319
69.72000 -1.349
69.74000 0.593
69.76000 5.045
69.78000 2.012
69.80000 1.758
69.82000 3.977
69.84000 2.382
69.86000 0.919
69.88000 1.214
69.90000 0.254
69.92000 1.594
69.94000 1.288
69.96000 2.776
69.98000 2.378
70.00000 -0.337
70.02000 -0.174
70.04000 0.624
70.06000 2.599
70.08000 2.075
70.10000 2.803
70.12000 1.212
70.14000 -0.290
70.16000 0.563
70.18000 0.383
70.20000 2.857
70.22000 3.499
70.24000 -0.221
70.26000 -0.161
70.28000 -0.101
70.30000 -2.085
70.32000 -0.489
70.34000 -0.229
70.36000 -0.266
70.38000 3.851
70.40000 4.488
70.42000 4.101
70.44000 4.659
70.46000 2.923
70.48000 1.969
70.50000 3.284
70.52000 2.241
70.54000 5.230
70.56000 4.725
70.58000 5.195
70.60000 2.526
70.62000 -0.234
70.64000 0.687
70.66000 1.321
70.68000 1.840
70.70000 1.766
70.72000 4.318
70.74000 4.487
70.76000 3.395
70.78000 4.723
70.80000 2.968
70.82000 -0.021
70.84000 -0.937
70.86000 0.248
70.88000 2.203
70.90000 1.553
70.92000 -1.663
70.94000 0.476
70.96000 2.200
70.98000 1.359
71.00000 2.508
71.02000 0.758
71.04000 1.701
71.06000 2.198
71.08000 1.119
71.10000 2.225
71.12000 2.967
71.14000 3.366
71.16000 1.846
71.18000 1.512
71.20000 2.994
71.22000 1.245
71.24000 0.092
71.26000 1.530
71.28000 0.457
71.30000 0.207
71.32000 2.574
71.34000 3.322
71.36000 2.436
71.38000 2.190
71.40000 4.331
71.42000 3.194
71.44000 5.039
71.46000 2.896
71.48000 4.776
71.50000 4.123
71.52000 3.571
71.54000 1.391
71.56000 1.601
71.58000 1.344
71.60000 -0.261
71.62000 0.247
71.64000 0.941
71.66000 3.703
71.68000 5.799
71.70000 4.023
71.72000 1.453
71.74000 -1.152
71.76000 -2.037
71.78000 1.027
71.80000 0.716
71.82000 2.461
71.84000 1.196
71.86000 2.865
71.88000 4.241
71.90000 2.860
71.92000 1.738
71.94000 -0.672
71.96000 2.938
71.98000 3.992
72.00000 3.332
72.02000 1.582
72.04000 3.197
72.06000 0.044
72.08000 0.559
72.10000 -1.015
72.12000 -0.236
72.14000 2.080
72.16000 0.762
72.18000 1.735
72.20000 0.182
72.22000 0.394
72.24000 3.052
72.26000 3.355
72.28000 4.449
72.30000 4.008
72.32000 2.371
72.34000 -0.533
72.36000 -1.877
72.38000 0.642
72.40000 -0.555
72.42000 -2.019
72.44000 -1.691
72.46000 -0.177
72.48000 2.954
72.50000 4.290
72.52000 3.529
72.54000 1.920
72.56000 1.156
72.58000 0.899
72.60000 1.660
72.62000 0.046
72.64000 -0.147
72.66000 0.403
72.68000 -1.064
72.70000 0.605
72.72000 0.424
72.74000 2.294
72.76000 1.642
72.78000 2.170
72.80000 0.004
72.82000 -1.398
72.84000 -0.084
72.86000 0.874
72.88000 2.366
72.90000 1.345
72.92000 -0.601
72.94000 -1.137
72.96000 0.598
72.98000 1.740
73.00000 -0.848
73.02000 0.806
73.04000 3.821
73.06000 0.326
73.08000 2.069
73.10000 -0.501
73.12000 -2.014
73.14000 0.654
73.16000 1.355
73.18000 0.584
73.20000 1.770
73.22000 5.298
73.24000 3.551
73.26000 2.354
73.28000 2.307
73.30000 3.470
73.32000 0.054
73.34000 -2.005
73.36000 2.908
73.38000 2.221
73.40000 1.836
73.42000 0.409
73.44000 2.067
73.46000 3.024
73.48000 0.383
73.50000 1.640
73.52000 -0.572
73.54000 0.331
73.56000 -0.694
73.58000 1.464
73.60000 -0.022
73.62000 5.404
73.64000 6.100
73.66000 4.861
73.68000 2.659
73.70000 2.505
73.72000 3.850
73.74000 4.058
73.76000 1.957
73.78000 1.173
73.80000 1.476
73.82000 2.473
73.84000 2.863
73.86000 -0.093
73.88000 1.797
73.90000 1.815
73.92000 3.462
73.94000 1.863
73.96000 -0.239
73.98000 -0.712
74.00000 0.533
74.02000 2.592
74.04000 0.400
74.06000 3.128
74.08000 5.344
74.10000 5.264
74.12000 5.164
74.14000 3.843
74.16000 3.618
74.18000 4.389
74.20000 5.466
74.22000 1.544
74.24000 1.100
74.26000 1.431
74.28000 0.658
74.30000 2.255
74.32000 -0.749
74.34000 -1.273
74.36000 0.963
74.38000 3.676
74.40000 0.134
74.42000 -2.033
74.44000 -1.112
74.46000 0.477
74.48000 1.480
74.50000 1.965
74.52000 0.595
74.54000 -1.403
74.56000 -0.686
74.58000 0.302
74.60000 -1.032
74.62000 0.629
74.64000 2.902
74.66000 -1.477
74.68000 -1.531
74.70000 2.158
74.72000 3.482
74.74000 0.108
74.76000 0.281
74.78000 1.605
74.80000 -0.782
74.82000 -0.486
74.84000 -0.747
74.86000 1.380
74.88000 2.717
74.90000 2.939
74.92000 1.407
74.94000 5.028
74.96000 0.603
74.98000 -1.283
75.00000 0.740
75.02000 2.113
75.04000 -1.945
75.06000 -2.040
75.08000 3.136
75.10000 3.680
75.12000 0.608
75.14000 0.330
75.16000 0.139
75.18000 2.394
75.20000 2.193
75.22000 2.945
75.24000 2.109
75.26000 0.647
75.28000 0.877
75.30000 1.527
75.32000 3.378
75.34000 2.912
75.36000 3.614
75.38000 0.030
75.40000 0.498
75.42000 1.257
75.44000 -1.858
75.46000 -2.045
75.48000 0.216
75.50000 0.187
75.52000 2.389
75.54000 2.690
75.56000 1.427
75.58000 5.872
75.60000 3.670
75.62000 0.519
75.64000 0.482
75.66000 0.659
75.68000 -0.403
75.70000 1.242
75.72000 0.348
75.74000 0.062
75.76000 0.616
75.78000 1.436
75.80000 -1.561
75.82000 -2.042
75.84000 2.941
75.86000 3.570
75.88000 0.997
75.90000 0.508
75.92000 -0.012
75.94000 2.974
75.96000 6.907
75.98000 3.408
76.00000 2.212
76.02000 2.579
76.04000 4.324
76.06000 2.125
76.08000 3.970
76.10000 4.217
76.12000 2.193
76.14000 1.015
76.16000 -0.668
76.18000 -0.323
76.20000 1.415
76.22000 2.003
76.24000 2.355
76.26000 1.090
76.28000 1.331
76.30000 1.315
76.32000 0.076
76.34000 3.308
76.36000 2.548
76.38000 1.194
76.40000 3.871
76.42000 5.987
76.44000 4.124
76.46000 5.041
76.48000 8.639
76.50000 6.244
76.52000 4.079
76.54000 1.169
76.56000 2.690
76.58000 2.809
76.60000 1.063
76.62000 3.725
76.64000 4.640
76.66000 8.407
76.68000 4.739
76.70000 -0.822
76.72000 -2.028
76.74000 0.966
76.76000 4.594
76.78000 3.589
76.80000 3.924
76.82000 2.945
76.84000 -1.132
76.86000 -1.631
76.88000 0.656
76.90000 3.021
76.92000 4.374
76.94000 1.480
76.96000 2.339
76.98000 3.716
77.00000 2.597
77.02000 1.354
77.04000 -0.136
77.06000 2.402
77.08000 4.826
77.10000 4.866
77.12000 3.236
77.14000 5.706
77.16000 4.230
77.18000 7.490
77.20000 4.935
77.22000 1.852
77.24000 0.731
77.26000 0.812
77.28000 7.484
77.30000 6.947
77.32000 4.879
77.34000 2.113
77.36000 -1.148
77.38000 0.517
77.40000 2.246
77.42000 0.544
77.44000 0.785
77.46000 -0.369
77.48000 1.309
77.50000 2.053
77.52000 0.958
77.54000 0.221
77.56000 2.685
77.58000 2.812
77.60000 0.282
77.62000 -2.134
77.64000 2.944
77.66000 2.409
77.68000 -0.184
77.70000 1.044
77.72000 3.749
77.74000 2.671
77.76000 3.608
77.78000 0.547
77.80000 4.512
77.82000 6.739
77.84000 5.159
77.86000 0.711
77.88000 2.568
77.90000 2.384
77.92000 -1.864
77.94000 -0.504
77.96000 2.784
77.98000 2.604
78.00000 1.323
78.02000 0.770
78.04000 -0.025
78.06000 1.175
78.08000 1.764
78.10000 2.375
78.12000 0.552
78.14000 2.462
78.16000 -1.331
78.18000 -0.423
78.20000 4.454
78.22000 3.884
78.24000 1.735
78.26000 0.857
78.28000 1.439
78.30000 3.742
78.32000 3.985
78.34000 3.642
78.36000 3.122
78.38000 5.422
78.40000 4.586
78.42000 4.213
78.44000 3.684
78.46000 5.284
78.48000 3.281
78.50000 2.675
78.52000 6.134
78.54000 2.609
78.56000 2.499
78.58000 8.892
78.60000 10.119
78.62000 7.703
78.64000 7.785
78.66000 6.884
78.68000 5.598
78.70000 8.468
78.72000 8.681
78.74000 8.340
78.76000 3.588
78.78000 8.152
78.80000 9.517
78.82000 10.270
78.84000 6.976
78.86000 6.594
78.88000 12.859
78.90000 11.837
78.92000 14.213
78.94000 17.312
78.96000 12.221
78.98000 12.298
79.00000 15.061
79.02000 17.700
79.04000 18.024
79.06000 15.079
79.08000 15.185
79.10000 15.584
79.12000 16.760
79.14000 21.726
79.16000 19.411
79.18000 21.780
79.20000 20.853
79.22000 20.957
79.24000 18.367
79.26000 16.848
79.28000 17.682
79.30000 20.388
79.32000 21.128
79.34000 21.147
79.36000 24.034
79.38000 23.717
79.40000 23.246
79.42000 23.351
79.44000 24.743
79.46000 20.466
79.48000 19.782
79.50000 19.614
79.52000 18.831
79.54000 16.694
79.56000 17.712
79.58000 15.888
79.60000 17.701
79.62000 15.943
79.64000 18.804
79.66000 17.021
79.68000 18.472
79.70000 18.507
79.72000 21.470
79.74000 19.498
79.76000 12.382
79.78000 11.509
79.80000 14.089
79.82000 15.896
79.84000 13.512
79.86000 10.624
79.88000 9.878
79.90000 10.521
79.92000 9.318
79.94000 10.433
79.96000 6.208
79.98000 6.492
80.00000 5.556
80.02000 8.542
80.04000 9.485
80.06000 11.055
80.08000 12.137
80.10000 10.890
80.12000 9.975
80.14000 5.307
80.16000 8.591
80.18000 7.781
80.20000 4.761
80.22000 7.171
80.24000 6.061
80.26000 5.112
80.28000 3.099
80.30000 4.565
80.32000 5.146
80.34000 1.957
80.36000 2.623
80.38000 4.591
80.40000 4.990
80.42000 3.194
80.44000 3.922
80.46000 1.465
80.48000 0.547
80.50000 2.724
80.52000 0.992
80.54000 1.486
80.56000 4.491
80.58000 -0.858
80.60000 -2.026
80.62000 1.268
80.64000 2.097
80.66000 2.205
80.68000 -1.575
80.70000 0.329
80.72000 0.516
80.74000 2.396
80.76000 1.638
80.78000 0.005
80.80000 -0.611
80.82000 -2.337
80.84000 2.494
80.86000 2.362
80.88000 2.696
80.90000 0.283
80.92000 0.235
80.94000 -0.524
80.96000 -0.197
80.98000 3.413
81.00000 2.629
81.02000 -2.214
81.04000 0.440
81.06000 1.077
81.08000 3.282
81.10000 5.834
81.12000 3.428
81.14000 2.879
81.16000 0.854
81.18000 -0.209
81.20000 -2.010
81.22000 -1.132
81.24000 1.073
81.26000 2.801
81.28000 0.037
81.30000 -0.257
81.32000 -1.307
81.34000 -1.044
81.36000 -2.336
81.38000 -0.285
81.40000 2.462
81.42000 1.110
81.44000 0.538
81.46000 2.929
81.48000 4.824
81.50000 6.044
81.52000 4.566
81.54000 3.593
81.56000 1.466
81.58000 1.657
81.60000 2.524
81.62000 0.167
81.64000 0.687
81.66000 4.274
81.68000 4.127
81.70000 2.998
81.72000 -0.056
81.74000 3.722
81.76000 0.204
81.78000 -1.298
81.80000 0.572
81.82000 4.088
81.84000 4.760
81.86000 2.592
81.88000 7.676
81.90000 4.985
81.92000 2.819
81.94000 2.214
81.96000 5.814
81.98000 4.780
82.00000 7.442
82.02000 3.158
82.04000 5.272
82.06000 3.850
82.08000 2.648
82.10000 0.622
82.12000 1.973
82.14000 8.542
82.16000 6.473
82.18000 6.125
82.20000 7.181
82.22000 6.453
82.24000 5.187
82.26000 4.626
82.28000 6.770
82.30000 5.827
82.32000 8.302
82.34000 12.240
82.36000 11.024
82.38000 8.988
82.40000 11.525
82.42000 15.500
82.44000 6.592
82.46000 7.628
82.48000 7.219
82.50000 11.742
82.52000 17.699
82.54000 16.741
82.56000 16.101
82.58000 16.955
82.60000 15.012
82.62000 18.494
82.64000 20.272
82.66000 20.606
82.68000 19.063
82.70000 19.932
82.72000 21.335
82.74000 21.224
82.76000 24.848
82.78000 26.879
82.80000 25.431
82.82000 25.215
82.84000 26.252
82.86000 26.987
82.88000 27.280
82.90000 30.356
82.92000 30.251
82.94000 29.529
82.96000 38.653
82.98000 42.450
83.00000 39.212
83.02000 41.518
83.04000 44.664
83.06000 42.975
83.08000 43.440
83.10000 48.356
83.12000 46.442
83.14000 50.957
83.16000 59.165
83.18000 53.682
83.20000 56.282
83.22000 57.036
83.24000 63.328
83.26000 59.936
83.28000 59.708
83.30000 65.467
83.32000 68.494
83.34000 62.305
83.36000 65.837
83.38000 64.674
83.40000 66.158
83.42000 63.799
83.44000 66.653
83.46000 71.677
83.48000 68.661
83.50000 69.137
83.52000 72.263
83.54000 72.330
83.56000 74.154
83.58000 65.963
83.60000 66.943
83.62000 68.923
83.64000 64.643
83.66000 61.122
83.68000 59.877
83.70000 59.996
83.72000 56.593
83.74000 56.482
83.76000 53.237
83.78000 55.280
83.80000 55.927
83.82000 52.406
83.84000 52.803
83.86000 51.045
83.88000 44.443
83.90000 43.512
83.92000 47.594
83.94000 40.320
83.96000 39.646
83.98000 36.893
84.00000 36.711
84.02000 32.442
84.04000 34.247
84.06000 30.825
84.08000 25.786
84.10000 29.153
84.12000 24.967
84.14000 25.534
84.16000 23.806
84.18000 21.776
84.20000 18.623
84.22000 14.469
84.24000 11.695
84.26000 10.507
84.28000 12.492
84.30000 16.278
84.32000 13.403
84.34000 11.229
84.36000 10.145
84.38000 12.523
84.40000 9.525
84.42000 11.172
84.44000 8.494
84.46000 6.540
84.48000 5.328
84.50000 6.134
84.52000 8.828
84.54000 9.746
84.56000 7.054
84.58000 7.287
84.60000 5.203
84.62000 6.716
84.64000 3.463
84.66000 4.347
84.68000 2.414
84.70000 2.800
84.72000 5.352
84.74000 8.173
84.76000 8.126
84.78000 8.207
84.80000 5.306
84.82000 6.461
84.84000 2.502
84.86000 5.603
84.88000 4.564
84.90000 3.615
84.92000 2.694
84.94000 1.679
84.96000 4.447
84.98000 2.905
85.00000 0.477
85.02000 -0.575
85.04000 -0.154
85.06000 -2.115
85.08000 -0.820
85.10000 0.437
85.12000 2.864
85.14000 3.030
85.16000 1.601
85.18000 1.170
85.20000 0.431
85.22000 0.192
85.24000 0.721
85.26000 -1.293
85.28000 -0.675
85.30000 -0.641
85.32000 -2.072
85.34000 -0.903
85.36000 2.607
85.38000 3.343
85.40000 1.135
85.42000 -0.020
85.44000 0.855
85.46000 -0.239
85.48000 1.005
85.50000 -0.395
85.52000 -1.363
85.54000 0.748
85.56000 1.167
85.58000 2.192
85.60000 4.032
85.62000 0.745
85.64000 2.599
85.66000 4.015
85.68000 2.508
85.70000 0.592
85.72000 2.821
85.74000 1.767
85.76000 2.540
85.78000 -0.754
85.80000 -0.386
85.82000 4.014
85.84000 3.718
85.86000 1.261
85.88000 1.269
85.90000 5.241
85.92000 3.082
85.94000 4.097
85.96000 2.717
85.98000 -0.549
86.00000 -1.256
86.02000 -1.389
86.04000 0.928
86.06000 1.609
86.08000 4.264
86.10000 6.671
86.12000 4.514
86.14000 2.595
86.16000 4.460
86.18000 5.552
86.20000 7.033
86.22000 5.789
86.24000 6.850
86.26000 2.564
86.28000 4.865
86.30000 3.280
86.32000 -1.920
86.34000 -0.541
86.36000 2.762
86.38000 1.426
86.40000 4.665
86.42000 4.325
86.44000 2.523
86.46000 3.873
86.48000 0.413
86.50000 -1.365
86.52000 0.071
86.54000 2.181
86.56000 0.801
86.58000 0.638
86.60000 1.925
86.62000 2.654
86.64000 5.522
86.66000 4.835
86.68000 4.069
86.70000 2.735
86.72000 1.046
86.74000 1.744
86.76000 2.289
86.78000 -0.454
86.80000 -1.319
86.82000 -0.029
86.84000 -0.129
86.86000 2.099
86.88000 3.576
86.90000 4.697
86.92000 3.635
86.94000 0.288
86.96000 0.322
86.98000 -1.446
87.00000 0.956
87.02000 1.840
87.04000 2.438
87.06000 1.496
87.08000 1.349
87.10000 -0.525
87.12000 -1.607
87.14000 -0.237
87.16000 2.179
87.18000 2.027
87.20000 1.820
87.22000 2.900
87.24000 4.461
87.26000 0.474
87.28000 3.258
87.30000 3.231
87.32000 0.904
87.34000 0.852
87.36000 0.349
87.38000 -0.241
87.40000 0.779
87.42000 3.418
87.44000 0.504
87.46000 1.088
87.48000 3.060
87.50000 1.494
87.52000 0.911
87.54000 -0.390
87.56000 -0.252
87.58000 1.817
87.60000 0.489
87.62000 1.688
87.64000 2.803
87.66000 1.428
87.68000 2.020
87.70000 3.650
87.72000 1.201
87.74000 1.870
87.76000 2.685
87.78000 -0.228
87.80000 0.218
87.82000 2.180
87.84000 4.327
87.86000 5.201
87.88000 5.110
87.90000 0.711
87.92000 1.470
87.94000 4.244
87.96000 1.590
87.98000 1.107
88.00000 0.994
88.02000 1.542
88.04000 -1.886
88.06000 0.351
88.08000 1.277
88.10000 1.781
88.12000 3.447
88.14000 4.248
88.16000 0.192
88.18000 1.350
88.20000 3.125
88.22000 5.148
88.24000 2.114
88.26000 1.857
88.28000 0.633
88.30000 2.601
88.32000 2.166
88.34000 0.246
88.36000 4.475
88.38000 2.913
88.40000 2.432
88.42000 2.295
88.44000 -0.817
88.46000 -1.517
88.48000 -0.519
88.50000 1.712
88.52000 0.722
88.54000 0.821
88.56000 2.481
88.58000 1.366
88.60000 0.096
88.62000 0.159
88.64000 -0.664
88.66000 2.925
88.68000 0.172
88.70000 1.163
88.72000 2.669
88.74000 3.262
88.76000 3.613
88.78000 3.534
88.80000 3.470
88.82000 0.763
88.84000 2.934
88.86000 3.314
88.88000 1.334
88.90000 -0.450
88.92000 0.272
88.94000 0.968
88.96000 0.452
88.98000 -0.879
89.00000 0.635
89.02000 2.526
89.04000 2.590
89.06000 3.971
89.08000 -0.680
89.10000 2.896
89.12000 3.539
89.14000 4.219
89.16000 1.842
89.18000 -1.536
89.20000 -1.132
89.22000 1.666
89.24000 0.690
89.26000 -0.766
89.28000 0.677
89.30000 3.389
89.32000 5.980
89.34000 3.448
89.36000 4.051
89.38000 5.575
89.40000 3.480
89.42000 4.239
89.44000 3.220
89.46000 2.500
89.48000 2.541
89.50000 2.270
89.52000 0.992
89.54000 -0.563
89.56000 1.681
89.58000 3.252
89.60000 5.072
89.62000 2.911
89.64000 1.690
89.66000 4.265
89.68000 1.700
89.70000 -1.873
89.72000 0.321
89.74000 1.846
89.76000 3.676
89.78000 3.479
89.80000 0.935
89.82000 3.037
89.84000 0.111
89.86000 1.027
89.88000 0.719
89.90000 2.194
89.92000 3.086
89.94000 2.764
89.96000 3.733
89.98000 4.604
90.00000 4.107
90.02000 2.616
90.04000 1.692
90.06000 3.620
90.08000 6.538
90.10000 4.479
90.12000 3.254
90.14000 -0.256
90.16000 -1.145
90.18000 0.174
90.20000 1.382
90.22000 2.357
90.24000 2.645
90.26000 3.706
90.28000 3.499
90.30000 1.707
90.32000 -0.208
90.34000 2.097
90.36000 2.524
90.38000 -1.228
90.40000 0.907
90.42000 2.526
90.44000 2.467
90.46000 1.748
90.48000 2.461
90.50000 1.552
90.52000 1.408
90.54000 5.960
90.56000 2.726
90.58000 0.422
90.60000 4.134
90.62000 7.598
90.64000 3.303
90.66000 -0.201
90.68000 0.127
90.70000 0.922
90.72000 4.854
90.74000 1.537
90.76000 0.012
90.78000 1.920
90.80000 1.145
90.82000 1.704
90.84000 2.013
90.86000 0.805
90.88000 -1.875
90.90000 1.667
90.92000 5.769
90.94000 4.341
90.96000 1.345
90.98000 3.025
91.00000 1.543
91.02000 1.761
91.04000 2.673
91.06000 2.394
91.08000 2.766
91.10000 1.294
91.12000 3.922
91.14000 5.088
91.16000 2.580
91.18000 1.357
91.20000 4.546
91.22000 4.266
91.24000 4.260
91.26000 3.961
91.28000 4.479
91.30000 6.171
91.32000 8.415
91.34000 7.160
91.36000 5.436
91.38000 0.769
91.40000 0.380
91.42000 2.278
91.44000 3.669
91.46000 3.744
91.48000 5.154
91.50000 5.415
91.52000 5.079
91.54000 4.490
91.56000 4.022
91.58000 4.360
91.60000 0.547
91.62000 -1.855
91.64000 1.514
91.66000 3.862
91.68000 4.343
91.70000 3.000
91.72000 1.311
91.74000 1.927
91.76000 1.894
91.78000 2.535
91.80000 0.337
91.82000 -0.664
91.84000 1.351
91.86000 4.746
91.88000 5.557
91.90000 5.004
91.92000 3.485
91.94000 4.864
91.96000 5.605
91.98000 4.609
92.00000 2.550
92.02000 3.493
92.04000 3.615
92.06000 4.377
92.08000 9.135
92.10000 5.138
92.12000 1.523
92.14000 5.462
92.16000 2.338
92.18000 1.926
92.20000 6.077
92.22000 7.047
92.24000 5.738
92.26000 7.888
92.28000 3.012
92.30000 -0.380
92.32000 -1.859
92.34000 1.584
92.36000 3.768
92.38000 5.858
92.40000 4.997
92.42000 7.371
92.44000 5.289
92.46000 4.416
92.48000 3.015
92.50000 1.951
92.52000 2.784
92.54000 5.009
92.56000 5.213
92.58000 3.629
92.60000 -0.794
92.62000 0.305
92.64000 1.998
92.66000 5.034
92.68000 5.728
92.70000 6.264
92.72000 2.970
92.74000 1.191
92.76000 -0.027
92.78000 2.023
92.80000 3.388
92.82000 1.920
92.84000 4.190
92.86000 4.952
92.88000 6.900
92.90000 1.936
92.92000 2.787
92.94000 6.901
92.96000 2.686
92.98000 0.202
93.00000 0.311
93.02000 2.869
93.04000 5.153
93.06000 3.986
93.08000 -1.159
93.10000 -1.889
93.12000 -1.506
93.14000 1.211
93.16000 -0.486
93.18000 0.517
93.20000 3.209
93.22000 3.973
93.24000 2.475
93.26000 2.767
93.28000 3.351
93.30000 2.646
93.32000 0.700
93.34000 0.806
93.36000 0.623
93.38000 -0.773
93.40000 -0.126
93.42000 0.606
93.44000 4.835
93.46000 5.272
93.48000 3.357
93.50000 3.291
93.52000 4.858
93.54000 4.910
93.56000 6.499
93.58000 4.324
93.60000 3.977
93.62000 4.656
93.64000 6.999
93.66000 4.624
93.68000 1.737
93.70000 3.538
93.72000 3.877
93.74000 1.324
93.76000 3.620
93.78000 1.256
93.80000 -0.291
93.82000 5.564
93.84000 4.476
93.86000 5.875
93.88000 6.151
93.90000 1.623
93.92000 4.751
93.94000 3.480
93.96000 6.842
93.98000 6.322
94.00000 3.367
94.02000 3.963
94.04000 2.954
94.06000 6.145
94.08000 3.820
94.10000 -0.239
94.12000 0.716
94.14000 -0.352
94.16000 1.975
94.18000 3.312
94.20000 4.248
94.22000 3.267
94.24000 2.794
94.26000 0.613
94.28000 2.201
94.30000 4.316
94.32000 5.519
94.34000 5.438
94.36000 4.885
94.38000 6.580
94.40000 3.878
94.42000 2.134
94.44000 3.907
94.46000 -1.870
94.48000 0.421
94.50000 5.116
94.52000 2.875
94.54000 3.265
94.56000 4.819
94.58000 1.889
94.60000 2.907
94.62000 4.813
94.64000 2.294
94.66000 3.091
94.68000 4.280
94.70000 6.502
94.72000 4.889
94.74000 2.963
94.76000 1.840
94.78000 1.831
94.80000 2.763
94.82000 5.169
94.84000 5.599
94.86000 5.139
94.88000 3.092
94.90000 1.040
94.92000 0.079
94.94000 2.121
94.96000 -0.054
94.98000 -0.430
95.00000 0.811
95.02000 4.435
95.04000 3.336
95.06000 3.107
95.08000 0.357
95.10000 1.587
95.12000 4.756
95.14000 3.778
95.16000 4.630
95.18000 4.043
95.20000 0.392
95.22000 3.363
95.24000 4.905
95.26000 2.229
95.28000 2.559
95.30000 2.974
95.32000 1.710
95.34000 3.292
95.36000 3.467
95.38000 2.911
95.40000 1.310
95.42000 0.026
95.44000 2.681
95.46000 3.578
95.48000 5.105
95.50000 2.262
95.52000 1.077
95.54000 2.042
95.56000 1.854
95.58000 4.446
95.60000 5.090
95.62000 1.935
95.64000 -0.593
95.66000 1.318
95.68000 1.437
95.70000 1.706
95.72000 4.751
95.74000 6.027
95.76000 3.760
95.78000 5.574
95.80000 5.680
95.82000 -1.352
95.84000 -1.912
95.86000 -1.126
95.88000 3.017
95.90000 6.203
95.92000 5.148
95.94000 4.685
95.96000 6.402
95.98000 1.973
96.00000 0.394
96.02000 3.323
96.04000 -1.253
96.06000 -0.514
96.08000 0.816
96.10000 2.855
96.12000 3.667
96.14000 2.949
96.16000 2.102
96.18000 4.331
96.20000 1.349
96.22000 -0.831
96.24000 1.455
96.26000 1.592
96.28000 2.293
96.30000 4.679
96.32000 3.401
96.34000 4.985
96.36000 0.972
96.38000 -0.100
96.40000 4.013
96.42000 8.283
96.44000 6.499
96.46000 2.436
96.48000 1.668
96.50000 2.372
96.52000 1.279
96.54000 6.067
96.56000 3.508
96.58000 0.735
96.60000 5.264
96.62000 1.517
96.64000 1.668
96.66000 8.618
96.68000 5.657
96.70000 2.064
96.72000 -0.226
96.74000 3.603
96.76000 1.913
96.78000 2.297
96.80000 1.722
96.82000 0.380
96.84000 5.135
96.86000 -1.282
96.88000 2.131
96.90000 2.980
96.92000 3.361
96.94000 5.083
96.96000 8.299
96.98000 6.085
97.00000 6.366
97.02000 -0.390
97.04000 -1.899
97.06000 1.543
97.08000 1.424
97.10000 2.042
97.12000 2.850
97.14000 3.855
97.16000 2.409
97.18000 3.207
97.20000 5.383
97.22000 4.622
97.24000 2.184
97.26000 1.620
97.28000 4.792
97.30000 7.098
97.32000 5.017
97.34000 0.334
97.36000 -1.317
97.38000 -1.539
97.40000 0.996
97.42000 -0.926
97.44000 -0.073
97.46000 2.089
97.48000 2.040
97.50000 1.879
97.52000 2.072
97.54000 3.290
97.56000 2.930
97.58000 0.200
97.60000 1.596
97.62000 -0.249
97.64000 0.365
97.66000 3.040
97.68000 0.847
97.70000 3.175
97.72000 4.012
97.74000 1.639
97.76000 4.755
97.78000 1.272
97.80000 -0.687
97.82000 -0.018
97.84000 4.203
97.86000 0.951
97.88000 2.865
97.90000 3.012
97.92000 0.590
97.94000 -1.634
97.96000 2.622
97.98000 2.534
98.00000 6.990
98.02000 4.622
98.04000 5.880
98.06000 7.385
98.08000 2.956
98.10000 0.524
98.12000 4.200
98.14000 2.435
98.16000 7.399
98.18000 3.745
98.20000 1.876
98.22000 2.200
98.24000 6.942
98.26000 2.779
98.28000 2.116
98.30000 -0.708
98.32000 0.492
98.34000 6.365
98.36000 9.537
98.38000 3.591
98.40000 0.542
98.42000 2.295
98.44000 9.748
98.46000 5.567
98.48000 3.396
98.50000 5.369
98.52000 3.361
98.54000 4.357
98.56000 6.284
98.58000 6.128
98.60000 -1.883
98.62000 -0.301
98.64000 2.644
98.66000 4.450
98.68000 8.479
98.70000 4.772
98.72000 -1.888
98.74000 1.633
98.76000 5.094
98.78000 4.767
98.80000 5.568
98.82000 2.884
98.84000 3.599
98.86000 7.145
98.88000 0.308
98.90000 0.131
98.92000 9.456
98.94000 8.436
98.96000 4.830
98.98000 1.971
99.00000 1.431
99.02000 1.072
99.04000 8.930
99.06000 4.421
99.08000 8.187
99.10000 5.682
99.12000 -0.514
99.14000 5.386
99.16000 6.110
99.18000 3.928
99.20000 2.995
99.22000 5.678
99.24000 3.771
99.26000 4.050
99.28000 6.059
99.30000 4.908
99.32000 1.646
99.34000 0.883
99.36000 6.402
99.38000 6.266
99.40000 4.406
99.42000 2.894
99.44000 2.957
99.46000 2.435
99.48000 -1.201
99.50000 3.494
99.52000 1.464
99.54000 0.196
99.56000 -1.147
99.58000 5.932
99.60000 6.389
99.62000 8.476
99.64000 5.104
99.66000 6.089
99.68000 4.775
99.70000 1.956
99.72000 -1.893
99.74000 3.270
99.76000 -0.525
99.78000 -1.067
99.80000 7.037
99.82000 17.602
99.84000 14.470
99.86000 10.970
99.88000 1.301
99.90000 -1.941
99.92000 -0.304
99.94000 3.317
99.96000 4.500
99.98000 0.000
