'Id: "0011387" Comment: "Integrate frame 0011387_Au-Ir-Rh_Rh-rich_XRD-Mapping-177-0000.gfrmwith cursor Wedge Cursor #5" Operator: "B?rgel" Anode: "Cu" Wavelength: "1.5406" Scantype: "2Theta (TwoTheta)" TimePerStep: "1" X: "45" Y: "0" Z: "5.95" 
10.00000 0.000
10.02000 2.302
10.04000 -2.496
10.06000 5.553
10.08000 11.991
10.10000 9.420
10.12000 10.016
10.14000 8.562
10.16000 11.095
10.18000 1.241
10.20000 5.513
10.22000 9.778
10.24000 11.125
10.26000 15.902
10.28000 24.156
10.30000 20.989
10.32000 23.347
10.34000 20.399
10.36000 21.297
10.38000 27.609
10.40000 26.599
10.42000 30.235
10.44000 24.239
10.46000 34.969
10.48000 33.534
10.50000 24.583
10.52000 24.537
10.54000 22.726
10.56000 16.089
10.58000 18.299
10.60000 29.161
10.62000 35.191
10.64000 37.485
10.66000 30.190
10.68000 21.929
10.70000 32.097
10.72000 33.524
10.74000 35.989
10.76000 39.182
10.78000 38.913
10.80000 33.126
10.82000 35.260
10.84000 31.609
10.86000 28.337
10.88000 32.768
10.90000 34.942
10.92000 48.961
10.94000 47.775
10.96000 49.044
10.98000 50.066
11.00000 44.090
11.02000 40.668
11.04000 44.401
11.06000 44.357
11.08000 40.899
11.10000 40.148
11.12000 31.295
11.14000 44.011
11.16000 45.152
11.18000 38.556
11.20000 35.536
11.22000 41.669
11.24000 44.170
11.26000 49.095
11.28000 51.519
11.30000 49.628
11.32000 45.187
11.34000 42.316
11.36000 40.897
11.38000 46.335
11.40000 43.501
11.42000 47.942
11.44000 44.944
11.46000 45.000
11.48000 54.790
11.50000 53.716
11.52000 52.421
11.54000 57.354
11.56000 47.652
11.58000 53.635
11.60000 63.742
11.62000 56.528
11.64000 50.701
11.66000 53.053
11.68000 52.250
11.70000 52.037
11.72000 55.883
11.74000 62.434
11.76000 56.173
11.78000 57.822
11.80000 60.431
11.82000 60.620
11.84000 57.969
11.86000 59.675
11.88000 58.906
11.90000 59.178
11.92000 67.268
11.94000 58.585
11.96000 60.199
11.98000 65.924
12.00000 61.334
12.02000 50.950
12.04000 48.944
12.06000 57.407
12.08000 61.223
12.10000 63.137
12.12000 69.758
12.14000 77.000
12.16000 75.561
12.18000 77.692
12.20000 73.610
12.22000 69.901
12.24000 77.311
12.26000 84.444
12.28000 76.831
12.30000 71.517
12.32000 62.109
12.34000 73.529
12.36000 76.903
12.38000 69.867
12.40000 65.722
12.42000 65.056
12.44000 72.467
12.46000 83.251
12.48000 76.798
12.50000 70.736
12.52000 70.100
12.54000 70.063
12.56000 68.126
12.58000 69.472
12.60000 68.262
12.62000 73.311
12.64000 64.315
12.66000 63.468
12.68000 61.489
12.70000 64.129
12.72000 69.211
12.74000 75.631
12.76000 82.225
12.78000 81.595
12.80000 71.054
12.82000 69.525
12.84000 79.698
12.86000 84.687
12.88000 73.811
12.90000 65.508
12.92000 73.644
12.94000 76.513
12.96000 60.975
12.98000 69.871
13.00000 69.920
13.02000 78.525
13.04000 67.350
13.06000 59.308
13.08000 65.676
13.10000 71.757
13.12000 65.666
13.14000 66.316
13.16000 64.769
13.18000 71.070
13.20000 61.331
13.22000 71.967
13.24000 72.883
13.26000 72.276
13.28000 65.958
13.30000 60.374
13.32000 68.620
13.34000 64.359
13.36000 68.439
13.38000 65.852
13.40000 70.979
13.42000 71.276
13.44000 77.927
13.46000 83.096
13.48000 76.127
13.50000 67.292
13.52000 71.712
13.54000 73.207
13.56000 77.563
13.58000 76.241
13.60000 67.600
13.62000 61.231
13.64000 63.835
13.66000 63.111
13.68000 60.553
13.70000 61.435
13.72000 63.686
13.74000 64.582
13.76000 63.531
13.78000 57.430
13.80000 58.132
13.82000 70.514
13.84000 69.268
13.86000 62.819
13.88000 68.384
13.90000 65.675
13.92000 60.076
13.94000 61.075
13.96000 59.752
13.98000 61.679
14.00000 54.066
14.02000 53.699
14.04000 60.740
14.06000 61.450
14.08000 58.221
14.10000 67.063
14.12000 54.819
14.14000 56.874
14.16000 62.845
14.18000 60.454
14.20000 57.347
14.22000 58.908
14.24000 67.460
14.26000 60.786
14.28000 56.443
14.30000 59.576
14.32000 53.482
14.34000 53.824
14.36000 49.942
14.38000 52.148
14.40000 56.886
14.42000 61.386
14.44000 58.499
14.46000 56.378
14.48000 57.044
14.50000 51.138
14.52000 55.651
14.54000 56.478
14.56000 54.024
14.58000 60.541
14.60000 59.922
14.62000 52.851
14.64000 48.103
14.66000 49.363
14.68000 45.294
14.70000 45.250
14.72000 44.907
14.74000 57.119
14.76000 57.639
14.78000 44.245
14.80000 49.740
14.82000 45.062
14.84000 50.409
14.86000 50.973
14.88000 50.477
14.90000 48.235
14.92000 55.536
14.94000 53.333
14.96000 46.156
14.98000 50.783
15.00000 59.443
15.02000 58.184
15.04000 55.206
15.06000 48.381
15.08000 54.896
15.10000 50.610
15.12000 40.305
15.14000 33.001
15.16000 43.649
15.18000 45.495
15.20000 54.630
15.22000 52.579
15.24000 48.175
15.26000 48.700
15.28000 42.753
15.30000 40.540
15.32000 45.409
15.34000 42.810
15.36000 38.480
15.38000 48.257
15.40000 47.320
15.42000 37.538
15.44000 41.306
15.46000 47.218
15.48000 46.594
15.50000 41.976
15.52000 37.040
15.54000 38.168
15.56000 44.215
15.58000 39.562
15.60000 48.996
15.62000 43.329
15.64000 40.613
15.66000 42.943
15.68000 49.930
15.70000 43.997
15.72000 40.228
15.74000 50.517
15.76000 44.633
15.78000 32.875
15.80000 36.937
15.82000 38.247
15.84000 38.255
15.86000 37.681
15.88000 38.294
15.90000 49.175
15.92000 47.109
15.94000 35.254
15.96000 37.496
15.98000 41.636
16.00000 37.791
16.02000 36.858
16.04000 31.300
16.06000 33.395
16.08000 42.928
16.10000 34.929
16.12000 32.833
16.14000 44.109
16.16000 49.377
16.18000 28.890
16.20000 32.886
16.22000 33.094
16.24000 23.820
16.26000 26.970
16.28000 25.366
16.30000 27.122
16.32000 36.613
16.34000 36.768
16.36000 30.096
16.38000 37.540
16.40000 32.967
16.42000 28.136
16.44000 29.442
16.46000 30.607
16.48000 35.031
16.50000 39.398
16.52000 29.962
16.54000 27.566
16.56000 29.120
16.58000 36.327
16.60000 32.190
16.62000 29.410
16.64000 38.412
16.66000 32.237
16.68000 23.494
16.70000 26.812
16.72000 29.217
16.74000 34.469
16.76000 26.914
16.78000 19.206
16.80000 17.939
16.82000 28.678
16.84000 35.921
16.86000 30.793
16.88000 33.190
16.90000 26.866
16.92000 32.329
16.94000 27.090
16.96000 25.702
16.98000 31.808
17.00000 35.415
17.02000 30.632
17.04000 27.471
17.06000 25.315
17.08000 24.012
17.10000 17.124
17.12000 25.074
17.14000 27.284
17.16000 20.995
17.18000 32.777
17.20000 24.696
17.22000 29.579
17.24000 32.247
17.26000 25.964
17.28000 23.866
17.30000 15.788
17.32000 16.177
17.34000 17.695
17.36000 20.301
17.38000 14.981
17.40000 16.379
17.42000 23.977
17.44000 18.795
17.46000 20.941
17.48000 23.601
17.50000 25.998
17.52000 20.539
17.54000 21.907
17.56000 22.835
17.58000 24.987
17.60000 30.145
17.62000 22.648
17.64000 17.954
17.66000 17.695
17.68000 15.843
17.70000 13.885
17.72000 16.946
17.74000 19.577
17.76000 18.578
17.78000 16.095
17.80000 22.572
17.82000 21.696
17.84000 21.507
17.86000 19.307
17.88000 22.653
17.90000 18.170
17.92000 13.126
17.94000 16.038
17.96000 14.715
17.98000 25.629
18.00000 25.022
18.02000 18.486
18.04000 12.905
18.06000 13.119
18.08000 18.900
18.10000 17.620
18.12000 21.425
18.14000 16.787
18.16000 15.990
18.18000 21.045
18.20000 18.508
18.22000 23.205
18.24000 16.632
18.26000 16.626
18.28000 22.022
18.30000 10.841
18.32000 7.121
18.34000 11.000
18.36000 10.707
18.38000 12.706
18.40000 20.502
18.42000 20.420
18.44000 19.099
18.46000 16.156
18.48000 15.807
18.50000 13.846
18.52000 13.724
18.54000 12.591
18.56000 10.507
18.58000 8.319
18.60000 9.405
18.62000 12.276
18.64000 11.508
18.66000 5.148
18.68000 6.464
18.70000 9.057
18.72000 17.140
18.74000 16.044
18.76000 22.002
18.78000 17.078
18.80000 8.809
18.82000 7.639
18.84000 8.335
18.86000 8.015
18.88000 7.629
18.90000 5.860
18.92000 10.288
18.94000 10.752
18.96000 13.099
18.98000 13.546
19.00000 9.020
19.02000 9.409
19.04000 21.893
19.06000 20.226
19.08000 11.429
19.10000 4.920
19.12000 10.839
19.14000 10.728
19.16000 18.644
19.18000 23.141
19.20000 18.941
19.22000 15.285
19.24000 9.888
19.26000 15.547
19.28000 13.650
19.30000 10.518
19.32000 11.567
19.34000 9.015
19.36000 8.547
19.38000 6.194
19.40000 2.192
19.42000 7.526
19.44000 8.810
19.46000 4.862
19.48000 1.390
19.50000 6.081
19.52000 7.926
19.54000 27.459
19.56000 21.977
19.58000 11.770
19.60000 8.170
19.62000 -0.488
19.64000 -1.245
19.66000 9.039
19.68000 7.843
19.70000 4.864
19.72000 7.283
19.74000 11.025
19.76000 7.847
19.78000 8.092
19.80000 7.582
19.82000 6.654
19.84000 3.095
19.86000 2.038
19.88000 6.258
19.90000 10.618
19.92000 10.985
19.94000 6.513
19.96000 10.756
19.98000 12.633
20.00000 15.018
20.02000 13.070
20.04000 3.259
20.06000 -4.173
20.08000 9.321
20.10000 18.756
20.12000 17.684
20.14000 5.731
20.16000 6.641
20.18000 13.455
20.20000 14.220
20.22000 11.546
20.24000 17.196
20.26000 17.713
20.28000 14.350
20.30000 8.120
20.32000 7.351
20.34000 9.725
20.36000 0.005
20.38000 -2.330
20.40000 6.403
20.42000 8.870
20.44000 8.448
20.46000 7.442
20.48000 9.850
20.50000 12.781
20.52000 8.964
20.54000 3.766
20.56000 8.952
20.58000 10.284
20.60000 6.975
20.62000 6.971
20.64000 9.591
20.66000 9.897
20.68000 4.972
20.70000 -3.127
20.72000 -1.649
20.74000 3.690
20.76000 4.756
20.78000 0.780
20.80000 1.663
20.82000 9.576
20.84000 11.396
20.86000 14.335
20.88000 11.813
20.90000 12.711
20.92000 3.242
20.94000 -4.149
20.96000 2.622
20.98000 7.683
21.00000 2.105
21.02000 0.511
21.04000 5.778
21.06000 8.004
21.08000 2.745
21.10000 3.850
21.12000 1.257
21.14000 1.942
21.16000 9.267
21.18000 5.159
21.20000 4.117
21.22000 16.004
21.24000 12.284
21.26000 6.350
21.28000 5.421
21.30000 2.364
21.32000 8.290
21.34000 4.535
21.36000 6.320
21.38000 9.561
21.40000 11.020
21.42000 2.618
21.44000 3.525
21.46000 -0.463
21.48000 1.250
21.50000 5.670
21.52000 9.775
21.54000 3.254
21.56000 6.001
21.58000 4.933
21.60000 1.975
21.62000 1.791
21.64000 3.453
21.66000 8.306
21.68000 4.630
21.70000 6.600
21.72000 10.284
21.74000 8.770
21.76000 5.493
21.78000 4.539
21.80000 1.373
21.82000 7.277
21.84000 3.061
21.86000 2.922
21.88000 3.401
21.90000 2.411
21.92000 1.684
21.94000 10.110
21.96000 5.681
21.98000 2.153
22.00000 6.354
22.02000 -0.140
22.04000 -4.123
22.06000 4.371
22.08000 4.215
22.10000 9.664
22.12000 3.060
22.14000 3.312
22.16000 0.424
22.18000 3.274
22.20000 4.455
22.22000 2.912
22.24000 4.406
22.26000 8.088
22.28000 7.950
22.30000 3.606
22.32000 2.290
22.34000 1.437
22.36000 -2.911
22.38000 -1.413
22.40000 2.172
22.42000 3.403
22.44000 4.779
22.46000 4.814
22.48000 2.382
22.50000 1.060
22.52000 3.745
22.54000 7.122
22.56000 6.419
22.58000 4.505
22.60000 2.486
22.62000 4.296
22.64000 0.827
22.66000 0.680
22.68000 4.417
22.70000 7.041
22.72000 4.370
22.74000 9.976
22.76000 4.856
22.78000 0.720
22.80000 4.319
22.82000 8.518
22.84000 8.547
22.86000 3.650
22.88000 2.780
22.90000 -0.671
22.92000 1.159
22.94000 3.844
22.96000 1.500
22.98000 4.832
23.00000 9.006
23.02000 2.162
23.04000 -1.521
23.06000 0.576
23.08000 6.441
23.10000 9.340
23.12000 3.277
23.14000 2.130
23.16000 -1.837
23.18000 2.365
23.20000 1.951
23.22000 -0.092
23.24000 4.169
23.26000 5.929
23.28000 3.250
23.30000 1.197
23.32000 -1.590
23.34000 -4.027
23.36000 4.482
23.38000 5.054
23.40000 8.618
23.42000 7.063
23.44000 6.992
23.46000 8.201
23.48000 7.443
23.50000 6.357
23.52000 2.060
23.54000 6.101
23.56000 10.537
23.58000 13.088
23.60000 9.948
23.62000 11.761
23.64000 8.106
23.66000 -0.205
23.68000 2.237
23.70000 3.422
23.72000 3.775
23.74000 4.685
23.76000 9.066
23.78000 8.794
23.80000 5.920
23.82000 3.072
23.84000 5.269
23.86000 3.472
23.88000 -1.571
23.90000 -4.004
23.92000 1.621
23.94000 3.556
23.96000 7.544
23.98000 5.401
24.00000 1.272
24.02000 5.595
24.04000 6.094
24.06000 -0.026
24.08000 2.148
24.10000 0.714
24.12000 -0.068
24.14000 3.128
24.16000 2.486
24.18000 5.334
24.20000 5.628
24.22000 7.145
24.24000 4.471
24.26000 -3.006
24.28000 0.320
24.30000 2.071
24.32000 2.820
24.34000 2.540
24.36000 0.772
24.38000 2.881
24.40000 6.333
24.42000 5.310
24.44000 -0.457
24.46000 1.079
24.48000 0.180
24.50000 1.570
24.52000 0.964
24.54000 0.023
24.56000 0.309
24.58000 4.566
24.60000 4.988
24.62000 1.737
24.64000 4.091
24.66000 5.749
24.68000 9.258
24.70000 6.711
24.72000 2.522
24.74000 5.989
24.76000 6.749
24.78000 2.981
24.80000 8.188
24.82000 10.493
24.84000 2.506
24.86000 2.384
24.88000 6.448
24.90000 4.876
24.92000 4.014
24.94000 4.928
24.96000 8.807
24.98000 9.161
25.00000 9.161
25.02000 7.551
25.04000 4.163
25.06000 4.664
25.08000 6.293
25.10000 6.544
25.12000 2.192
25.14000 4.932
25.16000 6.658
25.18000 -0.201
25.20000 -3.860
25.22000 2.205
25.24000 4.370
25.26000 5.859
25.28000 0.217
25.30000 2.230
25.32000 2.114
25.34000 2.781
25.36000 0.866
25.38000 3.633
25.40000 3.659
25.42000 1.829
25.44000 2.155
25.46000 3.887
25.48000 10.097
25.50000 4.918
25.52000 2.020
25.54000 3.317
25.56000 1.008
25.58000 0.026
25.60000 3.309
25.62000 7.060
25.64000 4.354
25.66000 -3.362
25.68000 -3.919
25.70000 4.443
25.72000 6.816
25.74000 3.349
25.76000 4.347
25.78000 1.031
25.80000 4.074
25.82000 2.922
25.84000 1.053
25.86000 -0.136
25.88000 0.363
25.90000 3.739
25.92000 6.384
25.94000 1.290
25.96000 -1.166
25.98000 -2.812
26.00000 -2.305
26.02000 -0.767
26.04000 -2.362
26.06000 -0.955
26.08000 0.235
26.10000 2.494
26.12000 8.008
26.14000 4.339
26.16000 2.027
26.18000 0.812
26.20000 0.768
26.22000 5.954
26.24000 5.806
26.26000 4.622
26.28000 3.983
26.30000 -2.468
26.32000 6.261
26.34000 8.559
26.36000 7.362
26.38000 6.105
26.40000 7.289
26.42000 3.350
26.44000 2.096
26.46000 -2.663
26.48000 -1.556
26.50000 -1.572
26.52000 -0.606
26.54000 -1.938
26.56000 -3.863
26.58000 -3.866
26.60000 2.560
26.62000 5.541
26.64000 8.872
26.66000 9.255
26.68000 8.120
26.70000 -1.588
26.72000 2.742
26.74000 4.967
26.76000 2.808
26.78000 7.659
26.80000 7.548
26.82000 3.053
26.84000 1.791
26.86000 1.012
26.88000 -1.261
26.90000 1.189
26.92000 1.593
26.94000 -2.432
26.96000 -0.418
26.98000 0.099
27.00000 2.338
27.02000 1.211
27.04000 1.361
27.06000 8.148
27.08000 5.477
27.10000 -0.103
27.12000 -0.918
27.14000 -0.618
27.16000 1.194
27.18000 -1.057
27.20000 0.236
27.22000 7.533
27.24000 7.333
27.26000 -2.289
27.28000 -3.824
27.30000 1.379
27.32000 -0.027
27.34000 3.132
27.36000 6.416
27.38000 4.343
27.40000 1.931
27.42000 2.681
27.44000 1.046
27.46000 1.081
27.48000 1.913
27.50000 6.270
27.52000 9.477
27.54000 4.610
27.56000 5.965
27.58000 5.383
27.60000 7.020
27.62000 3.592
27.64000 3.318
27.66000 0.279
27.68000 0.596
27.70000 7.434
27.72000 5.239
27.74000 5.141
27.76000 5.686
27.78000 1.859
27.80000 2.176
27.82000 0.549
27.84000 -0.720
27.86000 3.592
27.88000 2.563
27.90000 0.306
27.92000 3.577
27.94000 5.955
27.96000 7.208
27.98000 4.130
28.00000 1.493
28.02000 4.049
28.04000 2.513
28.06000 2.003
28.08000 2.543
28.10000 9.358
28.12000 3.092
28.14000 -3.794
28.16000 1.140
28.18000 10.056
28.20000 9.665
28.22000 5.615
28.24000 4.292
28.26000 1.992
28.28000 5.533
28.30000 1.133
28.32000 -1.125
28.34000 3.298
28.36000 0.650
28.38000 1.352
28.40000 3.791
28.42000 4.725
28.44000 1.056
28.46000 2.521
28.48000 2.549
28.50000 5.485
28.52000 1.300
28.54000 2.554
28.56000 7.697
28.58000 7.139
28.60000 0.167
28.62000 -2.245
28.64000 -1.321
28.66000 -3.377
28.68000 -0.407
28.70000 2.477
28.72000 0.301
28.74000 5.682
28.76000 1.557
28.78000 -1.073
28.80000 -2.312
28.82000 1.974
28.84000 3.535
28.86000 0.272
28.88000 -2.351
28.90000 4.346
28.92000 -1.470
28.94000 -0.977
28.96000 2.644
28.98000 3.365
29.00000 3.968
29.02000 4.792
29.04000 0.465
29.06000 -0.377
29.08000 3.732
29.10000 9.031
29.12000 2.630
29.14000 1.464
29.16000 3.068
29.18000 1.101
29.20000 7.710
29.22000 7.751
29.24000 8.029
29.26000 4.444
29.28000 4.227
29.30000 4.590
29.32000 3.037
29.34000 1.869
29.36000 2.973
29.38000 4.482
29.40000 3.855
29.42000 -1.319
29.44000 -3.711
29.46000 -1.046
29.48000 -0.313
29.50000 1.323
29.52000 2.289
29.54000 1.077
29.56000 1.959
29.58000 4.095
29.60000 4.705
29.62000 1.422
29.64000 2.005
29.66000 4.444
29.68000 1.724
29.70000 3.627
29.72000 4.306
29.74000 3.802
29.76000 1.641
29.78000 -2.443
29.80000 0.207
29.82000 6.933
29.84000 2.410
29.86000 4.499
29.88000 4.805
29.90000 1.789
29.92000 -0.436
29.94000 3.203
29.96000 2.692
29.98000 2.651
30.00000 0.341
30.02000 0.219
30.04000 4.326
30.06000 3.557
30.08000 0.764
30.10000 0.171
30.12000 6.239
30.14000 10.395
30.16000 6.021
30.18000 2.204
30.20000 -0.393
30.22000 1.908
30.24000 0.400
30.26000 0.330
30.28000 -2.122
30.30000 1.380
30.32000 1.866
30.34000 2.516
30.36000 3.687
30.38000 3.644
30.40000 3.007
30.42000 -1.742
30.44000 0.451
30.46000 2.692
30.48000 1.451
30.50000 -2.688
30.52000 0.899
30.54000 2.285
30.56000 1.604
30.58000 0.759
30.60000 2.900
30.62000 7.427
30.64000 3.757
30.66000 3.842
30.68000 2.182
30.70000 2.514
30.72000 4.817
30.74000 7.759
30.76000 5.664
30.78000 2.120
30.80000 1.635
30.82000 -0.528
30.84000 -0.646
30.86000 4.683
30.88000 2.534
30.90000 2.768
30.92000 6.048
30.94000 5.608
30.96000 3.168
30.98000 5.271
31.00000 6.500
31.02000 6.707
31.04000 2.360
31.06000 1.846
31.08000 5.167
31.10000 5.912
31.12000 0.071
31.14000 1.651
31.16000 3.109
31.18000 0.919
31.20000 4.843
31.22000 12.732
31.24000 11.904
31.26000 10.025
31.28000 9.500
31.30000 5.201
31.32000 4.775
31.34000 5.926
31.36000 2.456
31.38000 0.263
31.40000 0.503
31.42000 4.375
31.44000 -0.900
31.46000 -3.577
31.48000 4.503
31.50000 9.212
31.52000 6.791
31.54000 8.985
31.56000 12.611
31.58000 12.590
31.60000 1.039
31.62000 1.921
31.64000 3.822
31.66000 4.692
31.68000 7.032
31.70000 5.847
31.72000 4.399
31.74000 3.297
31.76000 1.823
31.78000 6.627
31.80000 9.873
31.82000 8.155
31.84000 5.062
31.86000 6.905
31.88000 7.469
31.90000 8.925
31.92000 8.228
31.94000 3.477
31.96000 4.384
31.98000 1.657
32.00000 4.600
32.02000 3.229
32.04000 6.585
32.06000 4.529
32.08000 3.817
32.10000 1.190
32.12000 5.841
32.14000 2.946
32.16000 -0.854
32.18000 -1.395
32.20000 -0.865
32.22000 1.032
32.24000 2.030
32.26000 2.524
32.28000 3.150
32.30000 6.319
32.32000 7.043
32.34000 5.028
32.36000 8.751
32.38000 10.556
32.40000 8.531
32.42000 5.531
32.44000 3.737
32.46000 7.174
32.48000 10.713
32.50000 4.846
32.52000 0.270
32.54000 8.171
32.56000 10.449
32.58000 6.331
32.60000 1.124
32.62000 5.676
32.64000 10.900
32.66000 12.456
32.68000 5.115
32.70000 0.601
32.72000 3.665
32.74000 9.649
32.76000 4.552
32.78000 2.378
32.80000 3.806
32.82000 3.799
32.84000 9.488
32.86000 10.920
32.88000 8.293
32.90000 5.084
32.92000 5.601
32.94000 4.278
32.96000 -0.191
32.98000 0.087
33.00000 4.137
33.02000 8.060
33.04000 12.418
33.06000 9.411
33.08000 3.526
33.10000 5.286
33.12000 1.895
33.14000 -0.298
33.16000 -3.530
33.18000 0.800
33.20000 7.175
33.22000 4.739
33.24000 4.675
33.26000 7.015
33.28000 4.479
33.30000 7.274
33.32000 9.458
33.34000 8.696
33.36000 4.663
33.38000 1.236
33.40000 -0.199
33.42000 4.726
33.44000 5.014
33.46000 0.655
33.48000 2.750
33.50000 2.859
33.52000 4.033
33.54000 3.667
33.56000 4.044
33.58000 3.393
33.60000 6.068
33.62000 5.331
33.64000 0.374
33.66000 1.081
33.68000 4.353
33.70000 3.054
33.72000 0.599
33.74000 0.199
33.76000 0.035
33.78000 2.480
33.80000 2.716
33.82000 3.737
33.84000 4.492
33.86000 8.918
33.88000 7.204
33.90000 1.615
33.92000 3.634
33.94000 1.193
33.96000 5.025
33.98000 0.850
34.00000 1.464
34.02000 3.507
34.04000 2.654
34.06000 6.611
34.08000 9.056
34.10000 7.385
34.12000 7.363
34.14000 2.787
34.16000 2.837
34.18000 3.604
34.20000 3.211
34.22000 2.591
34.24000 5.881
34.26000 4.398
34.28000 1.699
34.30000 3.930
34.32000 -2.917
34.34000 0.297
34.36000 4.220
34.38000 8.620
34.40000 7.889
34.42000 2.707
34.44000 4.040
34.46000 5.425
34.48000 -0.388
34.50000 0.041
34.52000 3.670
34.54000 -1.439
34.56000 0.104
34.58000 3.085
34.60000 3.360
34.62000 5.223
34.64000 0.234
34.66000 1.071
34.68000 -1.190
34.70000 1.342
34.72000 4.177
34.74000 8.739
34.76000 7.229
34.78000 6.487
34.80000 3.770
34.82000 0.211
34.84000 4.476
34.86000 0.770
34.88000 0.531
34.90000 1.177
34.92000 1.744
34.94000 2.158
34.96000 5.801
34.98000 4.945
35.00000 5.039
35.02000 2.995
35.04000 7.967
35.06000 3.341
35.08000 3.243
35.10000 2.125
35.12000 -1.547
35.14000 0.112
35.16000 3.266
35.18000 -2.637
35.20000 -3.494
35.22000 -0.703
35.24000 0.461
35.26000 -1.250
35.28000 0.250
35.30000 -1.444
35.32000 2.373
35.34000 2.083
35.36000 1.980
35.38000 -2.227
35.40000 -1.290
35.42000 0.936
35.44000 0.497
35.46000 -1.875
35.48000 -0.714
35.50000 -3.352
35.52000 -0.703
35.54000 -1.331
35.56000 3.439
35.58000 1.900
35.60000 1.865
35.62000 -0.889
35.64000 1.679
35.66000 3.479
35.68000 1.568
35.70000 -0.980
35.72000 -0.624
35.74000 -0.285
35.76000 2.486
35.78000 -0.217
35.80000 5.172
35.82000 5.755
35.84000 3.078
35.86000 6.659
35.88000 4.495
35.90000 1.279
35.92000 2.896
35.94000 4.657
35.96000 1.669
35.98000 -0.176
36.00000 -1.489
36.02000 -0.726
36.04000 -0.981
36.06000 2.732
36.08000 3.354
36.10000 -3.481
36.12000 4.713
36.14000 9.791
36.16000 3.441
36.18000 -1.477
36.20000 0.244
36.22000 4.676
36.24000 3.810
36.26000 5.784
36.28000 4.489
36.30000 1.353
36.32000 0.563
36.34000 0.520
36.36000 4.319
36.38000 4.958
36.40000 2.957
36.42000 4.580
36.44000 2.733
36.46000 0.724
36.48000 3.409
36.50000 3.217
36.52000 2.083
36.54000 -0.292
36.56000 1.588
36.58000 5.082
36.60000 2.101
36.62000 -0.620
36.64000 1.572
36.66000 3.778
36.68000 -0.388
36.70000 1.587
36.72000 -0.087
36.74000 0.930
36.76000 6.944
36.78000 5.030
36.80000 3.430
36.82000 0.001
36.84000 3.374
36.86000 7.347
36.88000 1.385
36.90000 2.498
36.92000 2.191
36.94000 -0.469
36.96000 -1.882
36.98000 -1.199
37.00000 -0.790
37.02000 -2.918
37.04000 -0.025
37.06000 5.132
37.08000 2.392
37.10000 -2.095
37.12000 0.396
37.14000 -0.626
37.16000 5.551
37.18000 5.974
37.20000 1.228
37.22000 3.936
37.24000 7.492
37.26000 8.361
37.28000 7.797
37.30000 3.034
37.32000 3.533
37.34000 -0.658
37.36000 -2.534
37.38000 1.205
37.40000 5.475
37.42000 6.745
37.44000 3.643
37.46000 -0.650
37.48000 -2.102
37.50000 -3.521
37.52000 4.183
37.54000 2.317
37.56000 0.726
37.58000 3.561
37.60000 2.500
37.62000 5.665
37.64000 3.917
37.66000 1.571
37.68000 4.714
37.70000 3.074
37.72000 1.125
37.74000 1.460
37.76000 5.507
37.78000 3.439
37.80000 6.456
37.82000 6.391
37.84000 5.182
37.86000 2.118
37.88000 1.005
37.90000 3.660
37.92000 7.129
37.94000 11.401
37.96000 9.835
37.98000 6.153
38.00000 7.980
38.02000 8.840
38.04000 9.543
38.06000 2.521
38.08000 2.852
38.10000 5.078
38.12000 6.940
38.14000 6.702
38.16000 6.236
38.18000 8.543
38.20000 11.077
38.22000 9.448
38.24000 12.149
38.26000 15.068
38.28000 15.949
38.30000 9.802
38.32000 7.569
38.34000 8.053
38.36000 12.636
38.38000 10.151
38.40000 15.038
38.42000 13.522
38.44000 13.199
38.46000 17.737
38.48000 20.784
38.50000 12.430
38.52000 14.149
38.54000 18.323
38.56000 11.560
38.58000 14.972
38.60000 17.848
38.62000 16.116
38.64000 14.539
38.66000 15.479
38.68000 17.486
38.70000 19.113
38.72000 21.151
38.74000 17.755
38.76000 16.731
38.78000 18.153
38.80000 20.891
38.82000 22.836
38.84000 23.630
38.86000 26.056
38.88000 26.248
38.90000 22.959
38.92000 25.332
38.94000 26.095
38.96000 28.088
38.98000 24.337
39.00000 23.803
39.02000 23.287
39.04000 25.981
39.06000 29.979
39.08000 28.563
39.10000 31.420
39.12000 33.043
39.14000 32.391
39.16000 33.916
39.18000 38.529
39.20000 39.327
39.22000 39.598
39.24000 39.739
39.26000 40.788
39.28000 47.582
39.30000 43.620
39.32000 45.059
39.34000 48.248
39.36000 52.469
39.38000 55.657
39.40000 56.092
39.42000 57.759
39.44000 56.913
39.46000 61.901
39.48000 63.921
39.50000 75.207
39.52000 77.236
39.54000 76.626
39.56000 79.201
39.58000 83.434
39.60000 89.520
39.62000 88.375
39.64000 94.541
39.66000 95.373
39.68000 103.463
39.70000 112.839
39.72000 112.504
39.74000 119.189
39.76000 121.784
39.78000 126.536
39.80000 131.671
39.82000 140.146
39.84000 150.420
39.86000 162.220
39.88000 171.231
39.90000 176.418
39.92000 187.773
39.94000 194.716
39.96000 208.487
39.98000 218.942
40.00000 224.231
40.02000 238.065
40.04000 255.776
40.06000 267.681
40.08000 287.628
40.10000 303.399
40.12000 312.709
40.14000 328.572
40.16000 343.877
40.18000 358.589
40.20000 366.258
40.22000 384.355
40.24000 397.973
40.26000 421.107
40.28000 435.326
40.30000 446.787
40.32000 463.512
40.34000 474.691
40.36000 488.494
40.38000 503.831
40.40000 505.105
40.42000 518.533
40.44000 526.493
40.46000 542.679
40.48000 543.395
40.50000 529.524
40.52000 535.475
40.54000 537.473
40.56000 538.472
40.58000 538.016
40.60000 533.295
40.62000 530.554
40.64000 525.290
40.66000 516.588
40.68000 492.034
40.70000 484.598
40.72000 472.072
40.74000 457.919
40.76000 452.459
40.78000 443.414
40.80000 425.862
40.82000 411.291
40.84000 398.454
40.86000 380.467
40.88000 358.266
40.90000 338.717
40.92000 330.374
40.94000 319.532
40.96000 301.126
40.98000 297.553
41.00000 283.184
41.02000 262.947
41.04000 254.964
41.06000 243.900
41.08000 227.899
41.10000 210.567
41.12000 204.527
41.14000 193.084
41.16000 187.309
41.18000 180.015
41.20000 167.681
41.22000 156.886
41.24000 148.544
41.26000 137.827
41.28000 136.088
41.30000 132.090
41.32000 125.561
41.34000 117.662
41.36000 111.192
41.38000 108.050
41.40000 106.797
41.42000 99.159
41.44000 90.072
41.46000 84.298
41.48000 76.817
41.50000 74.403
41.52000 74.670
41.54000 74.788
41.56000 72.242
41.58000 66.396
41.60000 61.056
41.62000 58.624
41.64000 53.899
41.66000 54.766
41.68000 53.096
41.70000 55.037
41.72000 50.526
41.74000 41.944
41.76000 39.497
41.78000 41.225
41.80000 40.318
41.82000 34.964
41.84000 34.719
41.86000 30.007
41.88000 31.797
41.90000 27.976
41.92000 30.245
41.94000 28.245
41.96000 24.016
41.98000 22.816
42.00000 22.469
42.02000 18.778
42.04000 19.839
42.06000 19.359
42.08000 18.552
42.10000 17.955
42.12000 16.796
42.14000 15.429
42.16000 16.800
42.18000 17.283
42.20000 17.571
42.22000 22.607
42.24000 15.754
42.26000 12.601
42.28000 12.257
42.30000 10.480
42.32000 14.001
42.34000 11.032
42.36000 10.119
42.38000 9.670
42.40000 6.812
42.42000 7.443
42.44000 11.666
42.46000 6.601
42.48000 5.214
42.50000 11.527
42.52000 10.713
42.54000 6.637
42.56000 6.684
42.58000 5.713
42.60000 4.667
42.62000 5.693
42.64000 5.221
42.66000 6.338
42.68000 7.314
42.70000 3.078
42.72000 3.818
42.74000 3.853
42.76000 5.449
42.78000 6.914
42.80000 8.138
42.82000 5.363
42.84000 3.797
42.86000 -1.343
42.88000 -3.255
42.90000 -1.808
42.92000 0.563
42.94000 6.267
42.96000 3.410
42.98000 3.335
43.00000 2.233
43.02000 -0.305
43.04000 -1.230
43.06000 -0.223
43.08000 -2.084
43.10000 -3.453
43.12000 -0.558
43.14000 1.262
43.16000 4.304
43.18000 3.045
43.20000 1.257
43.22000 3.935
43.24000 2.228
43.26000 1.201
43.28000 2.473
43.30000 2.978
43.32000 -0.354
43.34000 -1.962
43.36000 2.314
43.38000 2.471
43.40000 2.737
43.42000 3.164
43.44000 0.412
43.46000 0.556
43.48000 2.770
43.50000 -0.917
43.52000 -2.389
43.54000 3.487
43.56000 3.084
43.58000 -0.152
43.60000 1.086
43.62000 -0.089
43.64000 0.487
43.66000 -1.545
43.68000 3.610
43.70000 4.563
43.72000 1.924
43.74000 0.842
43.76000 1.423
43.78000 2.034
43.80000 3.356
43.82000 6.848
43.84000 8.330
43.86000 -0.240
43.88000 -3.331
43.90000 0.850
43.92000 1.733
43.94000 6.228
43.96000 3.486
43.98000 1.750
44.00000 3.222
44.02000 4.985
44.04000 5.252
44.06000 -1.510
44.08000 0.245
44.10000 3.241
44.12000 -0.485
44.14000 1.372
44.16000 0.733
44.18000 2.275
44.20000 5.693
44.22000 4.019
44.24000 -0.198
44.26000 -3.328
44.28000 -1.458
44.30000 1.556
44.32000 3.185
44.34000 5.065
44.36000 3.098
44.38000 2.964
44.40000 1.668
44.42000 4.205
44.44000 2.032
44.46000 1.978
44.48000 2.798
44.50000 1.992
44.52000 -3.329
44.54000 -2.773
44.56000 -1.927
44.58000 2.733
44.60000 5.549
44.62000 2.111
44.64000 1.059
44.66000 4.043
44.68000 2.235
44.70000 2.081
44.72000 0.283
44.74000 -2.831
44.76000 -1.028
44.78000 2.012
44.80000 -0.599
44.82000 1.902
44.84000 0.437
44.86000 -3.333
44.88000 -0.313
44.90000 1.820
44.92000 0.756
44.94000 0.749
44.96000 0.117
44.98000 3.918
45.00000 7.849
45.02000 7.254
45.04000 4.368
45.06000 3.509
45.08000 4.418
45.10000 1.155
45.12000 -0.101
45.14000 -1.224
45.16000 1.100
45.18000 -0.355
45.20000 4.466
45.22000 4.609
45.24000 1.454
45.26000 3.612
45.28000 6.179
45.30000 3.566
45.32000 3.630
45.34000 5.129
45.36000 3.660
45.38000 3.354
45.40000 1.155
45.42000 0.694
45.44000 4.667
45.46000 -2.226
45.48000 -2.832
45.50000 2.604
45.52000 3.609
45.54000 0.847
45.56000 8.188
45.58000 11.776
45.60000 10.955
45.62000 10.845
45.64000 8.921
45.66000 7.597
45.68000 5.186
45.70000 7.092
45.72000 9.163
45.74000 7.518
45.76000 11.077
45.78000 10.303
45.80000 8.752
45.82000 4.778
45.84000 3.166
45.86000 8.080
45.88000 10.671
45.90000 9.287
45.92000 11.177
45.94000 15.441
45.96000 13.847
45.98000 12.032
46.00000 16.539
46.02000 14.709
46.04000 17.102
46.06000 15.759
46.08000 16.308
46.10000 19.323
46.12000 21.532
46.14000 21.650
46.16000 24.129
46.18000 22.560
46.20000 22.638
46.22000 27.879
46.24000 26.746
46.26000 27.732
46.28000 25.398
46.30000 28.998
46.32000 28.022
46.34000 29.347
46.36000 32.299
46.38000 33.004
46.40000 36.947
46.42000 41.127
46.44000 36.373
46.46000 37.984
46.48000 44.255
46.50000 40.619
46.52000 44.455
46.54000 45.925
46.56000 46.893
46.58000 47.922
46.60000 44.946
46.62000 44.174
46.64000 50.426
46.66000 53.058
46.68000 52.007
46.70000 50.638
46.72000 54.403
46.74000 56.991
46.76000 60.441
46.78000 58.916
46.80000 57.252
46.82000 62.471
46.84000 67.217
46.86000 64.406
46.88000 60.675
46.90000 58.035
46.92000 63.382
46.94000 72.312
46.96000 71.164
46.98000 72.462
47.00000 73.556
47.02000 75.810
47.04000 79.228
47.06000 72.333
47.08000 71.519
47.10000 72.164
47.12000 76.866
47.14000 79.432
47.16000 75.372
47.18000 81.084
47.20000 73.787
47.22000 68.319
47.24000 71.837
47.26000 75.770
47.28000 68.444
47.30000 71.885
47.32000 71.895
47.34000 72.345
47.36000 72.039
47.38000 73.999
47.40000 67.084
47.42000 67.669
47.44000 72.328
47.46000 66.661
47.48000 62.623
47.50000 59.305
47.52000 58.495
47.54000 56.785
47.56000 54.807
47.58000 48.421
47.60000 56.318
47.62000 55.201
47.64000 47.536
47.66000 43.953
47.68000 43.157
47.70000 45.446
47.72000 51.074
47.74000 42.852
47.76000 40.892
47.78000 36.937
47.80000 43.067
47.82000 38.601
47.84000 34.358
47.86000 37.181
47.88000 39.242
47.90000 33.365
47.92000 32.803
47.94000 36.134
47.96000 30.222
47.98000 27.517
48.00000 22.598
48.02000 23.084
48.04000 21.427
48.06000 18.242
48.08000 17.682
48.10000 18.122
48.12000 18.153
48.14000 16.922
48.16000 17.141
48.18000 15.953
48.20000 11.618
48.22000 13.323
48.24000 11.966
48.26000 7.949
48.28000 11.607
48.30000 12.421
48.32000 9.472
48.34000 10.561
48.36000 8.243
48.38000 8.108
48.40000 9.976
48.42000 8.687
48.44000 9.834
48.46000 10.215
48.48000 8.005
48.50000 6.265
48.52000 5.756
48.54000 10.327
48.56000 7.612
48.58000 8.964
48.60000 9.403
48.62000 8.314
48.64000 7.416
48.66000 6.125
48.68000 3.488
48.70000 1.902
48.72000 1.235
48.74000 4.407
48.76000 3.283
48.78000 4.812
48.80000 -0.183
48.82000 -1.228
48.84000 -0.912
48.86000 -2.967
48.88000 0.625
48.90000 3.446
48.92000 0.565
48.94000 -0.777
48.96000 -2.282
48.98000 2.496
49.00000 1.384
49.02000 0.260
49.04000 2.149
49.06000 4.196
49.08000 3.675
49.10000 2.218
49.12000 2.721
49.14000 2.671
49.16000 0.899
49.18000 -0.480
49.20000 0.087
49.22000 1.123
49.24000 1.430
49.26000 -0.457
49.28000 4.426
49.30000 5.662
49.32000 5.243
49.34000 4.872
49.36000 -2.339
49.38000 0.094
49.40000 0.740
49.42000 4.590
49.44000 4.236
49.46000 1.894
49.48000 4.907
49.50000 5.935
49.52000 2.153
49.54000 -0.450
49.56000 -2.839
49.58000 -0.298
49.60000 2.502
49.62000 3.090
49.64000 5.227
49.66000 7.248
49.68000 9.305
49.70000 2.690
49.72000 0.569
49.74000 1.394
49.76000 -1.429
49.78000 1.983
49.80000 5.081
49.82000 0.946
49.84000 2.452
49.86000 -0.592
49.88000 -0.544
49.90000 0.477
49.92000 -1.812
49.94000 0.780
49.96000 2.323
49.98000 2.638
50.00000 -0.008
50.02000 -2.797
50.04000 -2.067
50.06000 5.036
50.08000 8.896
50.10000 7.125
50.12000 5.203
50.14000 3.186
50.16000 2.679
50.18000 5.010
50.20000 4.030
50.22000 6.665
50.24000 5.756
50.26000 5.632
50.28000 1.199
50.30000 2.274
50.32000 3.262
50.34000 1.737
50.36000 -2.775
50.38000 3.069
50.40000 7.830
50.42000 3.736
50.44000 1.528
50.46000 2.054
50.48000 3.781
50.50000 1.290
50.52000 2.518
50.54000 1.616
50.56000 0.578
50.58000 -1.201
50.60000 1.918
50.62000 2.582
50.64000 3.677
50.66000 2.006
50.68000 2.745
50.70000 2.572
50.72000 3.078
50.74000 0.394
50.76000 1.252
50.78000 -0.169
50.80000 -1.232
50.82000 3.105
50.84000 6.757
50.86000 7.412
50.88000 1.733
50.90000 -1.132
50.92000 -1.967
50.94000 -0.438
50.96000 1.980
50.98000 -0.384
51.00000 3.617
51.02000 5.523
51.04000 1.248
51.06000 3.689
51.08000 2.466
51.10000 -0.788
51.12000 0.404
51.14000 4.265
51.16000 6.091
51.18000 7.934
51.20000 3.699
51.22000 2.623
51.24000 -1.039
51.26000 -1.326
51.28000 6.898
51.30000 2.097
51.32000 1.374
51.34000 3.735
51.36000 4.844
51.38000 5.139
51.40000 5.596
51.42000 0.829
51.44000 5.178
51.46000 5.922
51.48000 8.010
51.50000 7.551
51.52000 3.235
51.54000 -0.736
51.56000 -2.699
51.58000 -1.448
51.60000 3.183
51.62000 7.937
51.64000 8.816
51.66000 7.032
51.68000 4.129
51.70000 3.112
51.72000 1.103
51.74000 3.049
51.76000 3.665
51.78000 1.511
51.80000 -2.697
51.82000 -1.703
51.84000 2.287
51.86000 3.855
51.88000 3.433
51.90000 2.715
51.92000 3.784
51.94000 3.787
51.96000 3.079
51.98000 2.832
52.00000 5.556
52.02000 8.276
52.04000 8.030
52.06000 5.757
52.08000 4.743
52.10000 0.681
52.12000 1.935
52.14000 1.822
52.16000 2.916
52.18000 1.598
52.20000 3.008
52.22000 4.946
52.24000 3.901
52.26000 2.661
52.28000 -0.108
52.30000 1.771
52.32000 2.425
52.34000 5.488
52.36000 1.904
52.38000 6.684
52.40000 -0.159
52.42000 1.188
52.44000 1.445
52.46000 -0.397
52.48000 0.594
52.50000 7.000
52.52000 3.187
52.54000 0.206
52.56000 2.217
52.58000 2.577
52.60000 -0.467
52.62000 -2.662
52.64000 -2.053
52.66000 -1.091
52.68000 2.845
52.70000 1.776
52.72000 0.717
52.74000 2.043
52.76000 2.856
52.78000 6.435
52.80000 5.040
52.82000 3.783
52.84000 6.146
52.86000 6.266
52.88000 5.015
52.90000 7.940
52.92000 8.143
52.94000 4.656
52.96000 2.761
52.98000 4.219
53.00000 5.254
53.02000 3.114
53.04000 3.141
53.06000 4.684
53.08000 7.178
53.10000 12.161
53.12000 11.394
53.14000 7.730
53.16000 8.960
53.18000 7.736
53.20000 3.637
53.22000 4.387
53.24000 0.961
53.26000 1.357
53.28000 -2.607
53.30000 -0.919
53.32000 2.351
53.34000 6.585
53.36000 4.661
53.38000 6.441
53.40000 7.608
53.42000 5.058
53.44000 4.248
53.46000 11.483
53.48000 9.075
53.50000 7.368
53.52000 7.130
53.54000 2.739
53.56000 5.412
53.58000 10.172
53.60000 7.526
53.62000 7.003
53.64000 3.283
53.66000 4.451
53.68000 6.230
53.70000 2.758
53.72000 3.261
53.74000 5.778
53.76000 7.879
53.78000 4.789
53.80000 0.062
53.82000 3.590
53.84000 6.657
53.86000 7.604
53.88000 11.090
53.90000 9.280
53.92000 1.372
53.94000 3.097
53.96000 5.816
53.98000 6.014
54.00000 2.288
54.02000 0.120
54.04000 2.532
54.06000 6.205
54.08000 7.714
54.10000 6.227
54.12000 2.710
54.14000 3.370
54.16000 2.178
54.18000 -2.601
54.20000 2.237
54.22000 5.570
54.24000 3.568
54.26000 4.227
54.28000 1.427
54.30000 3.258
54.32000 2.706
54.34000 6.170
54.36000 3.545
54.38000 0.801
54.40000 -0.311
54.42000 2.798
54.44000 8.667
54.46000 7.069
54.48000 4.799
54.50000 4.109
54.52000 7.975
54.54000 7.661
54.56000 4.578
54.58000 4.278
54.60000 1.698
54.62000 3.913
54.64000 -0.457
54.66000 0.030
54.68000 -1.017
54.70000 2.407
54.72000 3.723
54.74000 2.390
54.76000 2.342
54.78000 6.513
54.80000 4.421
54.82000 2.055
54.84000 7.129
54.86000 5.407
54.88000 5.892
54.90000 5.203
54.92000 1.369
54.94000 4.368
54.96000 2.505
54.98000 0.377
55.00000 4.366
55.02000 5.224
55.04000 7.597
55.06000 3.894
55.08000 -2.592
55.10000 2.345
55.12000 0.415
55.14000 0.442
55.16000 3.639
55.18000 4.209
55.20000 3.522
55.22000 1.819
55.24000 2.975
55.26000 4.735
55.28000 3.108
55.30000 3.481
55.32000 0.492
55.34000 -0.403
55.36000 1.134
55.38000 4.750
55.40000 -1.403
55.42000 -1.452
55.44000 5.359
55.46000 3.621
55.48000 1.150
55.50000 0.081
55.52000 -1.171
55.54000 -0.227
55.56000 0.583
55.58000 3.382
55.60000 3.402
55.62000 4.057
55.64000 6.070
55.66000 3.774
55.68000 2.441
55.70000 2.881
55.72000 -0.171
55.74000 0.223
55.76000 2.452
55.78000 3.050
55.80000 -1.221
55.82000 -0.467
55.84000 -0.722
55.86000 -0.396
55.88000 -1.568
55.90000 0.172
55.92000 0.308
55.94000 1.870
55.96000 1.682
55.98000 -1.206
56.00000 0.090
56.02000 2.509
56.04000 1.395
56.06000 2.551
56.08000 0.387
56.10000 -2.595
56.12000 -1.563
56.14000 -0.638
56.16000 -0.123
56.18000 1.911
56.20000 0.624
56.22000 -1.749
56.24000 1.216
56.26000 1.978
56.28000 4.318
56.30000 7.535
56.32000 3.744
56.34000 -0.583
56.36000 0.350
56.38000 3.533
56.40000 0.708
56.42000 -1.208
56.44000 1.795
56.46000 4.188
56.48000 4.628
56.50000 -0.993
56.52000 -1.215
56.54000 2.421
56.56000 3.426
56.58000 -0.375
56.60000 -1.454
56.62000 2.810
56.64000 2.812
56.66000 1.375
56.68000 0.057
56.70000 0.823
56.72000 8.193
56.74000 4.032
56.76000 1.392
56.78000 3.084
56.80000 0.780
56.82000 -1.318
56.84000 2.318
56.86000 3.507
56.88000 -0.516
56.90000 2.485
56.92000 4.184
56.94000 4.306
56.96000 2.267
56.98000 0.094
57.00000 -1.649
57.02000 3.222
57.04000 2.977
57.06000 -0.770
57.08000 -2.536
57.10000 2.331
57.12000 2.157
57.14000 0.607
57.16000 2.918
57.18000 0.873
57.20000 2.866
57.22000 2.625
57.24000 0.795
57.26000 0.113
57.28000 0.800
57.30000 3.016
57.32000 2.086
57.34000 5.173
57.36000 1.018
57.38000 1.218
57.40000 -0.047
57.42000 -0.809
57.44000 -1.544
57.46000 3.172
57.48000 4.087
57.50000 1.025
57.52000 0.578
57.54000 2.584
57.56000 3.246
57.58000 5.633
57.60000 4.338
57.62000 1.495
57.64000 -2.530
57.66000 -0.140
57.68000 1.662
57.70000 0.835
57.72000 0.577
57.74000 -0.186
57.76000 1.375
57.78000 0.701
57.80000 -0.955
57.82000 -1.132
57.84000 1.464
57.86000 0.197
57.88000 1.050
57.90000 6.865
57.92000 6.457
57.94000 4.007
57.96000 -0.228
57.98000 1.680
58.00000 5.328
58.02000 4.448
58.04000 1.741
58.06000 0.337
58.08000 1.166
58.10000 1.171
58.12000 1.321
58.14000 -1.520
58.16000 3.971
58.18000 0.233
58.20000 1.020
58.22000 3.108
58.24000 0.199
58.26000 0.979
58.28000 5.977
58.30000 2.729
58.32000 -0.380
58.34000 0.338
58.36000 3.030
58.38000 4.460
58.40000 2.690
58.42000 2.182
58.44000 2.436
58.46000 5.429
58.48000 4.188
58.50000 1.914
58.52000 -2.393
58.54000 -1.606
58.56000 2.197
58.58000 4.290
58.60000 1.782
58.62000 1.669
58.64000 2.205
58.66000 3.818
58.68000 0.677
58.70000 2.160
58.72000 0.131
58.74000 -1.408
58.76000 3.723
58.78000 5.236
58.80000 1.541
58.82000 4.870
58.84000 2.595
58.86000 -0.315
58.88000 -1.391
58.90000 -2.497
58.92000 0.190
58.94000 -1.293
58.96000 0.394
58.98000 1.666
59.00000 4.684
59.02000 4.107
59.04000 0.753
59.06000 -0.950
59.08000 -1.105
59.10000 -0.594
59.12000 3.932
59.14000 0.230
59.16000 1.282
59.18000 -1.055
59.20000 -1.828
59.22000 1.958
59.24000 3.701
59.26000 1.388
59.28000 1.624
59.30000 0.728
59.32000 0.384
59.34000 1.813
59.36000 -0.810
59.38000 3.500
59.40000 4.453
59.42000 3.665
59.44000 6.003
59.46000 0.429
59.48000 2.277
59.50000 1.813
59.52000 4.240
59.54000 0.628
59.56000 1.104
59.58000 0.959
59.60000 2.463
59.62000 1.473
59.64000 -0.384
59.66000 0.564
59.68000 1.932
59.70000 5.368
59.72000 3.814
59.74000 3.921
59.76000 -0.247
59.78000 -0.312
59.80000 0.649
59.82000 3.353
59.84000 2.273
59.86000 0.934
59.88000 3.827
59.90000 1.669
59.92000 -1.111
59.94000 -2.451
59.96000 -0.096
59.98000 -2.454
60.00000 0.206
60.02000 3.260
60.04000 0.217
60.06000 1.169
60.08000 -0.268
60.10000 2.074
60.12000 4.734
60.14000 4.848
60.16000 6.248
60.18000 5.163
60.20000 2.481
60.22000 2.574
60.24000 5.180
60.26000 2.390
60.28000 3.742
60.30000 5.349
60.32000 2.337
60.34000 -0.565
60.36000 0.520
60.38000 -1.887
60.40000 0.486
60.42000 2.226
60.44000 5.467
60.46000 5.193
60.48000 1.006
60.50000 0.395
60.52000 -0.703
60.54000 5.483
60.56000 4.807
60.58000 -0.226
60.60000 -0.003
60.62000 1.388
60.64000 3.276
60.66000 2.475
60.68000 4.971
60.70000 3.225
60.72000 1.809
60.74000 2.465
60.76000 1.611
60.78000 0.380
60.80000 0.336
60.82000 4.609
60.84000 5.598
60.86000 0.919
60.88000 1.841
60.90000 0.510
60.92000 3.158
60.94000 4.029
60.96000 1.537
60.98000 3.298
61.00000 3.856
61.02000 2.884
61.04000 3.521
61.06000 4.055
61.08000 3.714
61.10000 7.071
61.12000 3.127
61.14000 2.955
61.16000 2.545
61.18000 3.813
61.20000 5.775
61.22000 5.439
61.24000 4.097
61.26000 5.645
61.28000 4.075
61.30000 -1.121
61.32000 1.131
61.34000 5.533
61.36000 3.301
61.38000 5.873
61.40000 2.933
61.42000 2.226
61.44000 5.036
61.46000 6.136
61.48000 1.105
61.50000 0.475
61.52000 2.351
61.54000 5.131
61.56000 5.008
61.58000 7.293
61.60000 0.847
61.62000 0.456
61.64000 -0.169
61.66000 1.510
61.68000 -2.394
61.70000 -1.186
61.72000 3.355
61.74000 5.527
61.76000 4.563
61.78000 5.030
61.80000 5.446
61.82000 4.930
61.84000 6.651
61.86000 4.069
61.88000 2.128
61.90000 1.854
61.92000 1.272
61.94000 2.868
61.96000 4.207
61.98000 0.690
62.00000 -1.906
62.02000 3.192
62.04000 6.599
62.06000 2.079
62.08000 0.433
62.10000 6.108
62.12000 6.478
62.14000 5.144
62.16000 1.442
62.18000 1.325
62.20000 3.463
62.22000 6.308
62.24000 1.639
62.26000 2.508
62.28000 4.027
62.30000 1.959
62.32000 3.783
62.34000 3.551
62.36000 2.053
62.38000 2.896
62.40000 2.363
62.42000 2.936
62.44000 -0.035
62.46000 -0.931
62.48000 -0.600
62.50000 0.321
62.52000 1.242
62.54000 -0.231
62.56000 -2.405
62.58000 -1.470
62.60000 2.388
62.62000 0.343
62.64000 2.313
62.66000 0.467
62.68000 2.591
62.70000 3.405
62.72000 1.062
62.74000 0.440
62.76000 0.929
62.78000 2.426
62.80000 5.257
62.82000 3.946
62.84000 0.365
62.86000 -0.872
62.88000 1.115
62.90000 1.672
62.92000 -0.299
62.94000 -2.402
62.96000 -0.314
62.98000 0.918
63.00000 1.054
63.02000 1.030
63.04000 3.217
63.06000 4.000
63.08000 4.359
63.10000 2.518
63.12000 1.078
63.14000 0.251
63.16000 1.353
63.18000 2.098
63.20000 4.464
63.22000 5.256
63.24000 3.317
63.26000 2.837
63.28000 1.598
63.30000 -1.181
63.32000 -0.472
63.34000 2.113
63.36000 2.070
63.38000 1.172
63.40000 1.690
63.42000 0.867
63.44000 2.008
63.46000 0.689
63.48000 -0.744
63.50000 0.687
63.52000 2.401
63.54000 3.153
63.56000 2.034
63.58000 0.875
63.60000 1.242
63.62000 0.067
63.64000 0.375
63.66000 0.454
63.68000 0.450
63.70000 1.703
63.72000 2.623
63.74000 2.999
63.76000 2.934
63.78000 3.332
63.80000 2.194
63.82000 1.732
63.84000 -1.375
63.86000 3.269
63.88000 4.657
63.90000 1.321
63.92000 -0.247
63.94000 -0.146
63.96000 2.146
63.98000 4.307
64.00000 4.990
64.02000 1.496
64.04000 -0.324
64.06000 0.387
64.08000 -1.090
64.10000 1.867
64.12000 -0.430
64.14000 -0.058
64.16000 0.317
64.18000 0.600
64.20000 1.453
64.22000 1.353
64.24000 2.108
64.26000 4.042
64.28000 1.911
64.30000 1.263
64.32000 -2.405
64.34000 -0.708
64.36000 4.325
64.38000 1.685
64.40000 4.089
64.42000 2.745
64.44000 2.185
64.46000 4.899
64.48000 4.760
64.50000 0.133
64.52000 1.483
64.54000 4.964
64.56000 3.204
64.58000 2.731
64.60000 3.155
64.62000 1.550
64.64000 1.870
64.66000 1.218
64.68000 0.292
64.70000 -0.861
64.72000 1.526
64.74000 0.426
64.76000 -1.135
64.78000 0.014
64.80000 -1.399
64.82000 -0.981
64.84000 -1.548
64.86000 -0.574
64.88000 -0.498
64.90000 -0.402
64.92000 2.426
64.94000 2.731
64.96000 2.272
64.98000 1.408
65.00000 1.363
65.02000 0.729
65.04000 3.016
65.06000 1.457
65.08000 -0.015
65.10000 0.242
65.12000 4.709
65.14000 4.148
65.16000 1.674
65.18000 1.596
65.20000 8.791
65.22000 5.662
65.24000 1.689
65.26000 3.041
65.28000 5.332
65.30000 2.977
65.32000 0.391
65.34000 2.014
65.36000 1.441
65.38000 -0.766
65.40000 0.645
65.42000 3.481
65.44000 2.712
65.46000 0.798
65.48000 0.250
65.50000 2.799
65.52000 3.867
65.54000 5.560
65.56000 2.882
65.58000 3.204
65.60000 2.194
65.62000 0.369
65.64000 3.480
65.66000 5.941
65.68000 0.118
65.70000 0.261
65.72000 1.402
65.74000 -2.386
65.76000 2.059
65.78000 3.848
65.80000 2.549
65.82000 2.261
65.84000 0.671
65.86000 -2.378
65.88000 0.188
65.90000 2.188
65.92000 3.049
65.94000 4.774
65.96000 3.828
65.98000 1.637
66.00000 -0.123
66.02000 3.338
66.04000 7.470
66.06000 3.031
66.08000 2.559
66.10000 6.473
66.12000 9.516
66.14000 4.828
66.16000 4.689
66.18000 3.702
66.20000 1.900
66.22000 4.065
66.24000 3.900
66.26000 3.355
66.28000 4.424
66.30000 3.603
66.32000 1.932
66.34000 5.931
66.36000 -0.039
66.38000 -2.395
66.40000 1.021
66.42000 1.273
66.44000 3.033
66.46000 1.944
66.48000 2.522
66.50000 1.359
66.52000 1.023
66.54000 1.032
66.56000 1.213
66.58000 -0.660
66.60000 0.883
66.62000 4.538
66.64000 1.585
66.66000 -0.380
66.68000 0.793
66.70000 1.533
66.72000 0.243
66.74000 -2.422
66.76000 -0.485
66.78000 1.678
66.80000 -0.183
66.82000 2.907
66.84000 0.835
66.86000 1.611
66.88000 0.792
66.90000 -0.459
66.92000 -0.166
66.94000 -0.467
66.96000 0.404
66.98000 0.260
67.00000 0.951
67.02000 -2.440
67.04000 -0.388
67.06000 -0.712
67.08000 1.571
67.10000 2.236
67.12000 -0.720
67.14000 1.079
67.16000 3.265
67.18000 2.499
67.20000 3.324
67.22000 3.202
67.24000 2.131
67.26000 1.469
67.28000 1.864
67.30000 3.332
67.32000 0.931
67.34000 -0.508
67.36000 3.300
67.38000 2.901
67.40000 0.879
67.42000 0.831
67.44000 2.269
67.46000 2.943
67.48000 -0.466
67.50000 1.627
67.52000 4.403
67.54000 1.823
67.56000 -1.355
67.58000 -0.226
67.60000 3.197
67.62000 0.999
67.64000 2.863
67.66000 3.063
67.68000 1.354
67.70000 3.262
67.72000 2.319
67.74000 3.122
67.76000 1.683
67.78000 1.233
67.80000 2.111
67.82000 2.617
67.84000 6.429
67.86000 1.787
67.88000 1.384
67.90000 5.226
67.92000 3.604
67.94000 3.057
67.96000 4.910
67.98000 5.929
68.00000 7.846
68.02000 10.154
68.04000 5.043
68.06000 6.575
68.08000 8.287
68.10000 6.483
68.12000 3.835
68.14000 -0.232
68.16000 7.706
68.18000 10.974
68.20000 6.006
68.22000 6.610
68.24000 9.174
68.26000 7.101
68.28000 7.949
68.30000 6.753
68.32000 7.668
68.34000 10.063
68.36000 11.206
68.38000 10.613
68.40000 12.937
68.42000 9.254
68.44000 11.584
68.46000 11.502
68.48000 13.312
68.50000 16.624
68.52000 16.392
68.54000 15.612
68.56000 14.252
68.58000 11.902
68.60000 13.673
68.62000 16.265
68.64000 18.057
68.66000 16.082
68.68000 18.850
68.70000 14.165
68.72000 17.233
68.74000 18.517
68.76000 17.389
68.78000 14.876
68.80000 18.953
68.82000 20.468
68.84000 19.070
68.86000 19.089
68.88000 22.617
68.90000 23.463
68.92000 23.984
68.94000 22.364
68.96000 20.648
68.98000 20.312
69.00000 22.810
69.02000 19.494
69.04000 19.348
69.06000 20.990
69.08000 22.200
69.10000 17.188
69.12000 16.230
69.14000 18.668
69.16000 16.348
69.18000 18.031
69.20000 21.352
69.22000 19.124
69.24000 18.410
69.26000 17.292
69.28000 15.030
69.30000 14.327
69.32000 18.461
69.34000 13.238
69.36000 14.557
69.38000 13.857
69.40000 12.084
69.42000 12.600
69.44000 8.543
69.46000 8.536
69.48000 7.834
69.50000 6.662
69.52000 11.347
69.54000 12.498
69.56000 5.909
69.58000 9.403
69.60000 11.795
69.62000 15.088
69.64000 11.518
69.66000 9.571
69.68000 7.765
69.70000 6.593
69.72000 6.236
69.74000 6.559
69.76000 5.478
69.78000 1.170
69.80000 4.088
69.82000 3.724
69.84000 2.797
69.86000 5.263
69.88000 4.421
69.90000 1.900
69.92000 2.573
69.94000 3.886
69.96000 0.783
69.98000 -0.824
70.00000 -1.084
70.02000 -1.471
70.04000 0.401
70.06000 3.371
70.08000 2.562
70.10000 1.721
70.12000 -0.001
70.14000 -1.569
70.16000 2.030
70.18000 4.571
70.20000 8.172
70.22000 3.471
70.24000 2.469
70.26000 -0.179
70.28000 -0.503
70.30000 -2.399
70.32000 -0.104
70.34000 2.566
70.36000 3.209
70.38000 -0.404
70.40000 -0.193
70.42000 -0.025
70.44000 -2.234
70.46000 -0.408
70.48000 2.554
70.50000 4.665
70.52000 3.015
70.54000 2.247
70.56000 0.125
70.58000 -0.501
70.60000 1.554
70.62000 0.890
70.64000 0.126
70.66000 2.849
70.68000 3.591
70.70000 -2.222
70.72000 -0.135
70.74000 2.400
70.76000 1.788
70.78000 -1.181
70.80000 -2.341
70.82000 0.275
70.84000 2.809
70.86000 3.173
70.88000 4.244
70.90000 2.223
70.92000 1.348
70.94000 0.163
70.96000 4.511
70.98000 5.563
71.00000 0.761
71.02000 1.475
71.04000 5.972
71.06000 6.331
71.08000 4.688
71.10000 5.412
71.12000 2.180
71.14000 3.684
71.16000 5.283
71.18000 2.193
71.20000 -1.745
71.22000 -2.284
71.24000 -0.564
71.26000 2.400
71.28000 6.075
71.30000 2.793
71.32000 4.448
71.34000 6.861
71.36000 3.274
71.38000 -0.898
71.40000 -1.406
71.42000 3.665
71.44000 7.007
71.46000 5.678
71.48000 3.738
71.50000 1.595
71.52000 5.007
71.54000 2.583
71.56000 2.499
71.58000 4.196
71.60000 2.720
71.62000 3.625
71.64000 1.946
71.66000 3.483
71.68000 4.462
71.70000 4.157
71.72000 6.341
71.74000 2.601
71.76000 3.513
71.78000 4.192
71.80000 2.133
71.82000 3.666
71.84000 2.399
71.86000 2.510
71.88000 -0.061
71.90000 -1.298
71.92000 3.335
71.94000 3.729
71.96000 2.061
71.98000 5.095
72.00000 8.458
72.02000 5.116
72.04000 2.448
72.06000 5.389
72.08000 7.953
72.10000 4.456
72.12000 0.982
72.14000 1.077
72.16000 2.992
72.18000 2.230
72.20000 3.322
72.22000 3.876
72.24000 6.674
72.26000 2.644
72.28000 1.562
72.30000 1.081
72.32000 -2.248
72.34000 0.778
72.36000 3.038
72.38000 3.388
72.40000 3.331
72.42000 1.268
72.44000 0.731
72.46000 5.577
72.48000 4.233
72.50000 3.881
72.52000 1.149
72.54000 2.517
72.56000 2.182
72.58000 -1.385
72.60000 -0.841
72.62000 3.405
72.64000 5.289
72.66000 3.589
72.68000 1.216
72.70000 -1.584
72.72000 0.051
72.74000 1.305
72.76000 0.758
72.78000 1.115
72.80000 1.506
72.82000 0.220
72.84000 -0.056
72.86000 1.331
72.88000 1.955
72.90000 3.571
72.92000 2.217
72.94000 3.445
72.96000 1.922
72.98000 3.936
73.00000 0.212
73.02000 1.901
73.04000 2.179
73.06000 2.906
73.08000 6.354
73.10000 6.939
73.12000 3.795
73.14000 3.298
73.16000 3.198
73.18000 2.282
73.20000 -0.748
73.22000 1.000
73.24000 -1.020
73.26000 0.534
73.28000 -0.849
73.30000 0.509
73.32000 3.194
73.34000 2.899
73.36000 4.528
73.38000 3.118
73.40000 3.864
73.42000 6.775
73.44000 5.637
73.46000 3.330
73.48000 0.453
73.50000 -1.210
73.52000 2.124
73.54000 1.360
73.56000 4.796
73.58000 4.863
73.60000 5.799
73.62000 5.379
73.64000 4.725
73.66000 7.623
73.68000 6.572
73.70000 4.114
73.72000 -1.473
73.74000 4.459
73.76000 8.061
73.78000 8.894
73.80000 5.299
73.82000 1.723
73.84000 2.258
73.86000 4.129
73.88000 2.668
73.90000 -2.185
73.92000 0.757
73.94000 5.358
73.96000 5.039
73.98000 5.471
74.00000 6.064
74.02000 4.072
74.04000 5.205
74.06000 -1.731
74.08000 3.102
74.10000 6.850
74.12000 8.421
74.14000 6.055
74.16000 6.361
74.18000 3.546
74.20000 3.828
74.22000 4.801
74.24000 7.079
74.26000 6.273
74.28000 4.431
74.30000 3.180
74.32000 3.115
74.34000 4.574
74.36000 1.552
74.38000 3.463
74.40000 2.885
74.42000 3.018
74.44000 3.727
74.46000 -0.245
74.48000 0.211
74.50000 1.711
74.52000 1.000
74.54000 3.390
74.56000 3.382
74.58000 -1.428
74.60000 2.515
74.62000 2.360
74.64000 2.160
74.66000 1.003
74.68000 6.941
74.70000 7.468
74.72000 7.025
74.74000 7.331
74.76000 0.578
74.78000 4.468
74.80000 5.368
74.82000 2.795
74.84000 1.899
74.86000 0.569
74.88000 2.986
74.90000 2.124
74.92000 0.799
74.94000 3.692
74.96000 5.753
74.98000 1.197
75.00000 -0.151
75.02000 2.305
75.04000 5.640
75.06000 6.069
75.08000 5.784
75.10000 9.658
75.12000 7.573
75.14000 4.019
75.16000 5.413
75.18000 4.840
75.20000 4.394
75.22000 1.572
75.24000 0.639
75.26000 1.842
75.28000 -2.207
75.30000 1.232
75.32000 3.054
75.34000 4.162
75.36000 2.095
75.38000 2.954
75.40000 2.536
75.42000 -2.217
75.44000 1.203
75.46000 3.426
75.48000 2.426
75.50000 1.494
75.52000 2.059
75.54000 1.360
75.56000 2.810
75.58000 0.846
75.60000 0.834
75.62000 0.581
75.64000 2.694
75.66000 1.535
75.68000 0.280
75.70000 3.022
75.72000 3.058
75.74000 4.000
75.76000 0.281
75.78000 2.850
75.80000 2.053
75.82000 2.023
75.84000 6.202
75.86000 6.835
75.88000 2.499
75.90000 1.895
75.92000 4.212
75.94000 5.975
75.96000 5.686
75.98000 3.762
76.00000 3.824
76.02000 0.501
76.04000 3.345
76.06000 1.740
76.08000 -2.206
76.10000 2.477
76.12000 1.961
76.14000 5.709
76.16000 5.081
76.18000 1.827
76.20000 3.806
76.22000 6.855
76.24000 3.579
76.26000 3.295
76.28000 6.751
76.30000 4.227
76.32000 4.360
76.34000 2.282
76.36000 -1.848
76.38000 0.043
76.40000 2.660
76.42000 5.081
76.44000 3.809
76.46000 4.464
76.48000 5.992
76.50000 3.438
76.52000 1.125
76.54000 -1.093
76.56000 -2.205
76.58000 0.921
76.60000 4.541
76.62000 6.435
76.64000 5.821
76.66000 4.335
76.68000 2.387
76.70000 5.099
76.72000 3.157
76.74000 3.567
76.76000 3.320
76.78000 6.739
76.80000 3.550
76.82000 4.256
76.84000 5.918
76.86000 1.885
76.88000 4.341
76.90000 1.709
76.92000 3.247
76.94000 1.849
76.96000 3.249
76.98000 3.606
77.00000 1.030
77.02000 -2.205
77.04000 -0.369
77.06000 3.245
77.08000 3.712
77.10000 5.313
77.12000 6.184
77.14000 5.221
77.16000 3.560
77.18000 5.366
77.20000 4.654
77.22000 2.957
77.24000 1.094
77.26000 -1.196
77.28000 0.536
77.30000 0.379
77.32000 3.467
77.34000 3.404
77.36000 3.883
77.38000 3.026
77.40000 5.643
77.42000 3.551
77.44000 -2.207
77.46000 -0.837
77.48000 4.461
77.50000 8.860
77.52000 7.213
77.54000 3.679
77.56000 4.012
77.58000 3.956
77.60000 2.045
77.62000 2.748
77.64000 5.549
77.66000 3.227
77.68000 5.233
77.70000 3.411
77.72000 1.715
77.74000 2.545
77.76000 2.767
77.78000 3.940
77.80000 5.417
77.82000 5.959
77.84000 3.338
77.86000 0.912
77.88000 1.674
77.90000 1.120
77.92000 0.519
77.94000 1.305
77.96000 2.067
77.98000 1.038
78.00000 -2.240
78.02000 5.551
78.04000 5.856
78.06000 4.326
78.08000 3.360
78.10000 -0.978
78.12000 3.188
78.14000 4.076
78.16000 -0.017
78.18000 3.869
78.20000 5.559
78.22000 3.546
78.24000 1.717
78.26000 2.067
78.28000 2.971
78.30000 6.835
78.32000 6.018
78.34000 2.313
78.36000 2.269
78.38000 -0.761
78.40000 -1.658
78.42000 1.573
78.44000 -2.253
78.46000 -0.477
78.48000 -0.624
78.50000 5.143
78.52000 6.552
78.54000 3.094
78.56000 5.253
78.58000 0.871
78.60000 3.045
78.62000 1.764
78.64000 7.753
78.66000 5.982
78.68000 3.861
78.70000 3.807
78.72000 1.430
78.74000 0.334
78.76000 -2.259
78.78000 -1.935
78.80000 3.198
78.82000 5.057
78.84000 4.225
78.86000 -0.133
78.88000 1.770
78.90000 3.494
78.92000 5.036
78.94000 2.033
78.96000 0.892
78.98000 3.659
79.00000 3.295
79.02000 4.604
79.04000 0.518
79.06000 1.545
79.08000 -0.092
79.10000 1.906
79.12000 5.088
79.14000 6.269
79.16000 1.332
79.18000 -0.751
79.20000 2.782
79.22000 4.359
79.24000 3.863
79.26000 2.022
79.28000 1.943
79.30000 5.103
79.32000 5.291
79.34000 5.587
79.36000 5.051
79.38000 4.332
79.40000 2.845
79.42000 2.419
79.44000 4.733
79.46000 4.850
79.48000 0.507
79.50000 2.938
79.52000 1.255
79.54000 4.932
79.56000 2.516
79.58000 0.203
79.60000 0.521
79.62000 -0.272
79.64000 -1.203
79.66000 5.101
79.68000 1.817
79.70000 1.798
79.72000 -0.576
79.74000 0.496
79.76000 -2.266
79.78000 -1.669
79.80000 0.531
79.82000 0.510
79.84000 3.258
79.86000 6.477
79.88000 4.842
79.90000 2.290
79.92000 -0.270
79.94000 3.413
79.96000 2.870
79.98000 0.816
80.00000 2.789
80.02000 2.590
80.04000 1.511
80.06000 3.495
80.08000 6.567
80.10000 6.264
80.12000 1.655
80.14000 0.070
80.16000 0.665
80.18000 3.545
80.20000 5.461
80.22000 2.180
80.24000 1.127
80.26000 4.451
80.28000 2.150
80.30000 0.056
80.32000 -0.419
80.34000 4.494
80.36000 4.728
80.38000 6.945
80.40000 1.300
80.42000 2.068
80.44000 5.297
80.46000 3.622
80.48000 2.043
80.50000 1.354
80.52000 1.655
80.54000 4.077
80.56000 2.559
80.58000 -0.463
80.60000 3.359
80.62000 4.177
80.64000 0.775
80.66000 3.897
80.68000 3.783
80.70000 3.182
80.72000 3.678
80.74000 -0.449
80.76000 0.550
80.78000 4.004
80.80000 -0.018
80.82000 2.274
80.84000 4.174
80.86000 -1.223
80.88000 1.389
80.90000 -2.322
80.92000 1.638
80.94000 2.402
80.96000 1.387
80.98000 4.659
81.00000 2.142
81.02000 1.265
81.04000 2.459
81.06000 1.737
81.08000 -0.941
81.10000 0.787
81.12000 -0.674
81.14000 2.107
81.16000 0.457
81.18000 0.318
81.20000 -0.228
81.22000 2.164
81.24000 6.076
81.26000 0.511
81.28000 -0.044
81.30000 3.462
81.32000 2.157
81.34000 2.491
81.36000 2.237
81.38000 1.102
81.40000 5.318
81.42000 6.757
81.44000 2.102
81.46000 3.055
81.48000 4.192
81.50000 4.386
81.52000 0.324
81.54000 4.095
81.56000 3.051
81.58000 -0.820
81.60000 3.258
81.62000 2.896
81.64000 -1.324
81.66000 0.858
81.68000 5.743
81.70000 6.131
81.72000 7.675
81.74000 3.919
81.76000 2.646
81.78000 -1.408
81.80000 1.504
81.82000 3.221
81.84000 2.238
81.86000 8.941
81.88000 6.790
81.90000 3.951
81.92000 8.550
81.94000 9.779
81.96000 9.264
81.98000 12.919
82.00000 8.936
82.02000 12.766
82.04000 11.407
82.06000 8.733
82.08000 8.544
82.10000 7.408
82.12000 6.533
82.14000 10.943
82.16000 11.178
82.18000 9.525
82.20000 10.247
82.22000 12.953
82.24000 8.144
82.26000 5.056
82.28000 7.788
82.30000 10.666
82.32000 11.129
82.34000 11.703
82.36000 7.259
82.38000 3.114
82.40000 11.291
82.42000 12.188
82.44000 13.129
82.46000 10.623
82.48000 9.382
82.50000 16.862
82.52000 13.707
82.54000 11.513
82.56000 16.217
82.58000 19.862
82.60000 18.673
82.62000 22.314
82.64000 16.653
82.66000 17.476
82.68000 15.760
82.70000 19.104
82.72000 17.467
82.74000 17.741
82.76000 20.892
82.78000 21.212
82.80000 14.854
82.82000 21.270
82.84000 26.238
82.86000 25.408
82.88000 24.840
82.90000 22.326
82.92000 18.842
82.94000 19.040
82.96000 23.872
82.98000 25.388
83.00000 21.913
83.02000 28.803
83.04000 28.478
83.06000 23.970
83.08000 27.611
83.10000 24.385
83.12000 27.902
83.14000 27.855
83.16000 31.681
83.18000 33.614
83.20000 25.326
83.22000 27.142
83.24000 25.437
83.26000 24.923
83.28000 30.245
83.30000 26.062
83.32000 25.083
83.34000 30.173
83.36000 22.725
83.38000 21.622
83.40000 22.723
83.42000 20.980
83.44000 25.163
83.46000 25.873
83.48000 25.947
83.50000 27.519
83.52000 27.893
83.54000 27.038
83.56000 24.966
83.58000 21.899
83.60000 23.412
83.62000 20.466
83.64000 21.733
83.66000 22.212
83.68000 22.209
83.70000 17.439
83.72000 22.293
83.74000 20.917
83.76000 14.077
83.78000 14.932
83.80000 16.695
83.82000 17.553
83.84000 17.292
83.86000 20.979
83.88000 17.200
83.90000 18.421
83.92000 16.307
83.94000 9.311
83.96000 5.255
83.98000 13.357
84.00000 15.968
84.02000 15.807
84.04000 17.071
84.06000 15.832
84.08000 10.745
84.10000 12.543
84.12000 11.517
84.14000 11.387
84.16000 12.211
84.18000 13.875
84.20000 5.184
84.22000 6.902
84.24000 9.263
84.26000 10.357
84.28000 9.766
84.30000 5.239
84.32000 5.664
84.34000 7.599
84.36000 7.432
84.38000 7.825
84.40000 4.265
84.42000 2.148
84.44000 3.117
84.46000 8.565
84.48000 7.378
84.50000 3.639
84.52000 3.820
84.54000 4.922
84.56000 7.211
84.58000 8.401
84.60000 4.826
84.62000 3.709
84.64000 2.450
84.66000 6.407
84.68000 5.797
84.70000 4.508
84.72000 5.792
84.74000 7.605
84.76000 6.267
84.78000 2.158
84.80000 -1.039
84.82000 0.741
84.84000 6.793
84.86000 4.237
84.88000 2.570
84.90000 1.918
84.92000 -2.354
84.94000 1.180
84.96000 -1.054
84.98000 1.541
85.00000 3.290
85.02000 3.202
85.04000 2.397
85.06000 1.741
85.08000 0.865
85.10000 3.271
85.12000 1.153
85.14000 0.366
85.16000 -0.082
85.18000 2.216
85.20000 -2.333
85.22000 -1.768
85.24000 1.928
85.26000 2.038
85.28000 0.106
85.30000 -2.317
85.32000 -0.806
85.34000 -0.090
85.36000 4.364
85.38000 4.535
85.40000 3.833
85.42000 3.197
85.44000 1.118
85.46000 0.899
85.48000 2.723
85.50000 7.775
85.52000 4.915
85.54000 0.575
85.56000 0.411
85.58000 4.100
85.60000 7.696
85.62000 5.540
85.64000 1.612
85.66000 0.211
85.68000 -2.292
85.70000 0.895
85.72000 1.261
85.74000 -2.291
85.76000 1.028
85.78000 3.160
85.80000 0.232
85.82000 -0.216
85.84000 -1.129
85.86000 5.406
85.88000 6.320
85.90000 3.698
85.92000 3.024
85.94000 0.661
85.96000 0.036
85.98000 4.715
86.00000 3.822
86.02000 0.636
86.04000 -0.953
86.06000 1.339
86.08000 1.661
86.10000 -0.515
86.12000 -1.185
86.14000 -2.128
86.16000 0.590
86.18000 1.194
86.20000 0.640
86.22000 -0.062
86.24000 1.783
86.26000 2.468
86.28000 -0.381
86.30000 2.200
86.32000 6.589
86.34000 3.539
86.36000 3.472
86.38000 6.171
86.40000 2.157
86.42000 5.617
86.44000 5.275
86.46000 1.401
86.48000 -1.977
86.50000 1.776
86.52000 4.835
86.54000 1.917
86.56000 0.291
86.58000 -1.838
86.60000 -0.889
86.62000 2.055
86.64000 0.244
86.66000 -0.889
86.68000 2.007
86.70000 2.970
86.72000 2.176
86.74000 -0.108
86.76000 -1.642
86.78000 3.049
86.80000 5.278
86.82000 7.550
86.84000 1.862
86.86000 2.391
86.88000 3.447
86.90000 4.579
86.92000 2.692
86.94000 3.429
86.96000 9.085
86.98000 9.567
87.00000 6.677
87.02000 3.811
87.04000 4.696
87.06000 3.880
87.08000 3.790
87.10000 2.799
87.12000 5.142
87.14000 10.682
87.16000 14.294
87.18000 9.164
87.20000 6.708
87.22000 8.437
87.24000 12.968
87.26000 7.488
87.28000 11.366
87.30000 17.129
87.32000 12.555
87.34000 12.427
87.36000 15.801
87.38000 11.263
87.40000 11.343
87.42000 14.843
87.44000 17.336
87.46000 16.420
87.48000 19.711
87.50000 14.582
87.52000 14.568
87.54000 15.002
87.56000 15.466
87.58000 11.508
87.60000 18.374
87.62000 16.089
87.64000 12.976
87.66000 19.987
87.68000 18.052
87.70000 12.457
87.72000 14.591
87.74000 18.395
87.76000 17.216
87.78000 20.537
87.80000 19.059
87.82000 19.379
87.84000 15.100
87.86000 16.139
87.88000 13.901
87.90000 13.055
87.92000 13.072
87.94000 16.365
87.96000 13.876
87.98000 11.823
88.00000 14.817
88.02000 10.777
88.04000 10.270
88.06000 9.651
88.08000 10.805
88.10000 10.284
88.12000 10.895
88.14000 10.275
88.16000 8.169
88.18000 10.118
88.20000 5.296
88.22000 11.337
88.24000 12.250
88.26000 11.441
88.28000 6.460
88.30000 8.772
88.32000 7.239
88.34000 7.561
88.36000 4.334
88.38000 5.668
88.40000 3.812
88.42000 7.206
88.44000 4.938
88.46000 6.735
88.48000 3.616
88.50000 6.316
88.52000 7.610
88.54000 6.103
88.56000 2.845
88.58000 -0.729
88.60000 0.223
88.62000 5.943
88.64000 3.645
88.66000 2.138
88.68000 4.857
88.70000 3.388
88.72000 3.727
88.74000 5.152
88.76000 4.077
88.78000 1.468
88.80000 2.692
88.82000 4.534
88.84000 3.139
88.86000 -0.136
88.88000 3.642
88.90000 8.094
88.92000 5.684
88.94000 1.687
88.96000 1.855
88.98000 0.436
89.00000 1.997
89.02000 -0.413
89.04000 -1.014
89.06000 -0.202
89.08000 5.595
89.10000 4.569
89.12000 3.814
89.14000 -0.263
89.16000 -1.268
89.18000 4.390
89.20000 2.952
89.22000 2.478
89.24000 3.550
89.26000 1.744
89.28000 1.773
89.30000 1.904
89.32000 4.669
89.34000 1.019
89.36000 2.631
89.38000 1.626
89.40000 0.670
89.42000 0.493
89.44000 -0.899
89.46000 -2.179
89.48000 -0.110
89.50000 -1.983
89.52000 -0.410
89.54000 2.512
89.56000 0.895
89.58000 1.716
89.60000 0.447
89.62000 0.924
89.64000 0.072
89.66000 4.842
89.68000 0.544
89.70000 -0.552
89.72000 -1.484
89.74000 -2.163
89.76000 0.449
89.78000 1.864
89.80000 4.900
89.82000 3.049
89.84000 1.492
89.86000 -0.042
89.88000 2.705
89.90000 1.172
89.92000 -0.338
89.94000 -0.600
89.96000 0.695
89.98000 2.209
90.00000 1.007
90.02000 0.550
90.04000 4.309
90.06000 6.214
90.08000 4.538
90.10000 1.876
90.12000 -0.031
90.14000 -2.102
90.16000 -0.253
90.18000 5.240
90.20000 3.864
90.22000 3.342
90.24000 3.189
90.26000 1.581
90.28000 2.365
90.30000 -0.104
90.32000 2.259
90.34000 4.493
90.36000 5.670
90.38000 2.021
90.40000 1.339
90.42000 5.583
90.44000 3.643
90.46000 3.854
90.48000 4.774
90.50000 4.844
90.52000 -1.150
90.54000 -1.616
90.56000 -1.403
90.58000 -1.634
90.60000 0.370
90.62000 -2.122
90.64000 -0.664
90.66000 1.919
90.68000 1.532
90.70000 2.316
90.72000 -0.655
90.74000 3.108
90.76000 4.554
90.78000 8.596
90.80000 5.280
90.82000 1.481
90.84000 4.223
90.86000 5.088
90.88000 3.665
90.90000 5.930
90.92000 2.242
90.94000 0.087
90.96000 1.847
90.98000 3.155
91.00000 3.966
91.02000 0.615
91.04000 1.026
91.06000 -2.079
91.08000 0.765
91.10000 2.449
91.12000 1.798
91.14000 0.357
91.16000 -0.572
91.18000 0.710
91.20000 1.695
91.22000 3.930
91.24000 6.110
91.26000 2.662
91.28000 2.985
91.30000 4.694
91.32000 5.240
91.34000 7.250
91.36000 4.120
91.38000 1.829
91.40000 5.949
91.42000 6.670
91.44000 2.006
91.46000 1.562
91.48000 0.581
91.50000 -1.893
91.52000 -1.544
91.54000 0.148
91.56000 -1.555
91.58000 -0.478
91.60000 -1.359
91.62000 -0.174
91.64000 1.972
91.66000 3.807
91.68000 5.928
91.70000 4.806
91.72000 4.667
91.74000 0.264
91.76000 2.641
91.78000 6.314
91.80000 4.732
91.82000 3.086
91.84000 6.030
91.86000 9.667
91.88000 2.072
91.90000 -1.940
91.92000 0.964
91.94000 1.409
91.96000 -1.714
91.98000 2.640
92.00000 6.678
92.02000 4.025
92.04000 3.423
92.06000 1.802
92.08000 -0.341
92.10000 0.410
92.12000 0.095
92.14000 -0.253
92.16000 -0.291
92.18000 4.090
92.20000 6.702
92.22000 1.507
92.24000 -1.875
92.26000 -1.025
92.28000 -1.400
92.30000 3.013
92.32000 6.179
92.34000 4.509
92.36000 3.917
92.38000 5.942
92.40000 5.058
92.42000 -2.113
92.44000 -1.520
92.46000 2.314
92.48000 5.482
92.50000 4.478
92.52000 4.041
92.54000 0.826
92.56000 1.522
92.58000 1.455
92.60000 5.627
92.62000 8.549
92.64000 2.943
92.66000 -0.082
92.68000 0.282
92.70000 0.864
92.72000 5.611
92.74000 3.994
92.76000 3.662
92.78000 0.326
92.80000 0.620
92.82000 3.741
92.84000 4.996
92.86000 5.230
92.88000 6.251
92.90000 8.657
92.92000 8.135
92.94000 3.661
92.96000 1.316
92.98000 -1.621
93.00000 0.653
93.02000 0.244
93.04000 0.040
93.06000 -1.188
93.08000 4.091
93.10000 4.305
93.12000 1.893
93.14000 3.787
93.16000 7.056
93.18000 7.733
93.20000 4.764
93.22000 2.424
93.24000 0.577
93.26000 3.819
93.28000 5.950
93.30000 0.913
93.32000 -2.106
93.34000 1.590
93.36000 0.478
93.38000 2.881
93.40000 0.481
93.42000 -1.390
93.44000 4.906
93.46000 1.071
93.48000 2.236
93.50000 -0.344
93.52000 0.347
93.54000 0.631
93.56000 0.875
93.58000 3.184
93.60000 3.986
93.62000 5.357
93.64000 5.051
93.66000 5.461
93.68000 6.658
93.70000 7.382
93.72000 2.314
93.74000 -0.392
93.76000 2.799
93.78000 2.936
93.80000 4.985
93.82000 6.218
93.84000 4.082
93.86000 3.222
93.88000 2.905
93.90000 1.310
93.92000 6.861
93.94000 9.026
93.96000 7.314
93.98000 5.283
94.00000 2.390
94.02000 -0.154
94.04000 3.443
94.06000 6.488
94.08000 8.993
94.10000 6.976
94.12000 8.846
94.14000 8.545
94.16000 4.304
94.18000 1.629
94.20000 1.385
94.22000 7.301
94.24000 6.711
94.26000 3.601
94.28000 5.970
94.30000 4.173
94.32000 6.847
94.34000 3.456
94.36000 -0.147
94.38000 3.401
94.40000 8.151
94.42000 8.731
94.44000 5.008
94.46000 4.648
94.48000 3.635
94.50000 6.118
94.52000 9.150
94.54000 3.790
94.56000 -1.839
94.58000 3.597
94.60000 6.998
94.62000 6.495
94.64000 6.721
94.66000 7.293
94.68000 10.821
94.70000 5.942
94.72000 2.137
94.74000 -0.597
94.76000 -2.088
94.78000 1.130
94.80000 2.251
94.82000 5.118
94.84000 9.649
94.86000 7.939
94.88000 9.321
94.90000 6.719
94.92000 5.785
94.94000 5.953
94.96000 6.249
94.98000 8.477
95.00000 3.080
95.02000 4.780
95.04000 5.668
95.06000 3.079
95.08000 -0.334
95.10000 3.717
95.12000 9.661
95.14000 7.210
95.16000 2.134
95.18000 6.725
95.20000 4.758
95.22000 6.498
95.24000 3.956
95.26000 3.612
95.28000 5.300
95.30000 6.728
95.32000 6.057
95.34000 8.308
95.36000 7.672
95.38000 2.750
95.40000 8.487
95.42000 6.792
95.44000 1.612
95.46000 3.794
95.48000 7.113
95.50000 6.604
95.52000 5.539
95.54000 2.565
95.56000 5.542
95.58000 7.785
95.60000 6.321
95.62000 0.429
95.64000 0.861
95.66000 -0.758
95.68000 4.190
95.70000 2.963
95.72000 5.751
95.74000 9.041
95.76000 10.848
95.78000 9.525
95.80000 9.945
95.82000 10.154
95.84000 6.864
95.86000 6.259
95.88000 4.030
95.90000 1.776
95.92000 3.708
95.94000 7.018
95.96000 6.205
95.98000 4.707
96.00000 4.839
96.02000 7.984
96.04000 6.813
96.06000 7.472
96.08000 2.455
96.10000 2.691
96.12000 2.381
96.14000 -0.852
96.16000 2.480
96.18000 2.899
96.20000 4.253
96.22000 3.383
96.24000 6.560
96.26000 5.522
96.28000 3.231
96.30000 4.136
96.32000 0.795
96.34000 4.728
96.36000 0.607
96.38000 2.475
96.40000 5.725
96.42000 2.167
96.44000 -2.081
96.46000 0.601
96.48000 4.368
96.50000 3.008
96.52000 4.636
96.54000 5.915
96.56000 7.038
96.58000 4.050
96.60000 4.087
96.62000 0.666
96.64000 7.309
96.66000 10.855
96.68000 5.753
96.70000 3.361
96.72000 3.629
96.74000 2.969
96.76000 5.425
96.78000 3.325
96.80000 4.587
96.82000 2.076
96.84000 3.037
96.86000 6.258
96.88000 3.600
96.90000 4.399
96.92000 8.600
96.94000 2.792
96.96000 7.238
96.98000 5.086
97.00000 5.070
97.02000 9.893
97.04000 6.998
97.06000 1.360
97.08000 2.855
97.10000 4.797
97.12000 7.161
97.14000 7.270
97.16000 7.943
97.18000 9.243
97.20000 7.790
97.22000 4.799
97.24000 7.942
97.26000 5.228
97.28000 4.944
97.30000 1.349
97.32000 1.576
97.34000 6.840
97.36000 7.763
97.38000 0.196
97.40000 0.593
97.42000 4.622
97.44000 9.358
97.46000 7.016
97.48000 4.298
97.50000 7.264
97.52000 4.857
97.54000 3.666
97.56000 8.071
97.58000 6.365
97.60000 5.557
97.62000 -0.494
97.64000 -2.081
97.66000 5.682
97.68000 8.782
97.70000 6.036
97.72000 3.621
97.74000 0.816
97.76000 0.855
97.78000 -1.286
97.80000 4.789
97.82000 8.603
97.84000 8.312
97.86000 3.194
97.88000 6.828
97.90000 8.018
97.92000 6.387
97.94000 5.537
97.96000 4.926
97.98000 6.235
98.00000 7.733
98.02000 4.213
98.04000 -1.417
98.06000 1.543
98.08000 8.505
98.10000 2.893
98.12000 4.923
98.14000 8.880
98.16000 9.958
98.18000 10.694
98.20000 4.768
98.22000 9.697
98.24000 -4.086
98.26000 0.724
98.28000 2.488
98.30000 7.857
98.32000 10.112
98.34000 16.820
98.36000 14.602
98.38000 4.600
98.40000 2.145
98.42000 4.224
98.44000 3.616
98.46000 1.740
98.48000 5.098
98.50000 6.497
98.52000 3.535
98.54000 4.693
98.56000 4.189
98.58000 -0.055
98.60000 2.703
98.62000 2.929
98.64000 3.378
98.66000 10.181
98.68000 6.927
98.70000 5.043
98.72000 -0.800
98.74000 3.915
98.76000 3.360
98.78000 5.669
98.80000 7.047
98.82000 -1.302
98.84000 3.078
98.86000 6.682
98.88000 3.230
98.90000 2.277
98.92000 10.935
98.94000 6.016
98.96000 10.257
98.98000 4.802
99.00000 7.589
99.02000 3.234
99.04000 10.739
99.06000 9.791
99.08000 8.797
99.10000 8.576
99.12000 6.845
99.14000 4.337
99.16000 5.093
99.18000 5.191
99.20000 4.149
99.22000 10.700
99.24000 8.362
99.26000 13.195
99.28000 6.420
99.30000 5.162
99.32000 5.344
99.34000 -0.360
99.36000 12.274
99.38000 5.815
99.40000 2.501
99.42000 4.971
99.44000 9.312
99.46000 4.785
99.48000 0.359
99.50000 2.883
99.52000 7.748
99.54000 3.710
99.56000 -2.034
99.58000 0.782
99.60000 2.675
99.62000 4.705
99.64000 4.627
99.66000 1.284
99.68000 2.036
99.70000 5.278
99.72000 16.434
99.74000 2.754
99.76000 0.713
99.78000 7.101
99.80000 6.726
99.82000 11.646
99.84000 4.594
99.86000 5.071
99.88000 10.320
99.90000 4.113
99.92000 -0.198
99.94000 0.803
99.96000 -2.152
99.98000 0.000
