'Id: "0011389" Comment: "Integrate frame 0011389_Au-Ir-Rh_Au-Rich_XRD_Mapping-241-0000.gfrmwith cursor Wedge Cursor #5" Operator: "B?rgel" Anode: "Cu" Wavelength: "1.5406" Scantype: "2Theta (TwoTheta)" TimePerStep: "1" X: "-40.5" Y: "18" Z: "5.95" 
10.00000 0.000
10.02000 -0.053
10.04000 -4.747
10.06000 1.829
10.08000 1.543
10.10000 12.721
10.12000 17.942
10.14000 22.203
10.16000 21.966
10.18000 7.242
10.20000 16.315
10.22000 13.052
10.24000 -5.587
10.26000 5.949
10.28000 21.737
10.30000 28.249
10.32000 17.985
10.34000 31.676
10.36000 29.042
10.38000 31.408
10.40000 22.292
10.42000 18.632
10.44000 14.139
10.46000 8.741
10.48000 13.745
10.50000 14.991
10.52000 25.675
10.54000 31.795
10.56000 29.771
10.58000 22.177
10.60000 19.063
10.62000 22.842
10.64000 26.678
10.66000 18.718
10.68000 13.408
10.70000 16.585
10.72000 18.920
10.74000 14.929
10.76000 11.742
10.78000 7.937
10.80000 13.093
10.82000 17.694
10.84000 28.204
10.86000 17.616
10.88000 4.839
10.90000 21.493
10.92000 24.267
10.94000 27.505
10.96000 25.810
10.98000 21.520
11.00000 19.804
11.02000 25.351
11.04000 21.458
11.06000 16.467
11.08000 6.761
11.10000 22.388
11.12000 12.399
11.14000 6.891
11.16000 11.375
11.18000 17.504
11.20000 20.805
11.22000 19.003
11.24000 22.018
11.26000 21.696
11.28000 21.533
11.30000 23.274
11.32000 18.230
11.34000 8.212
11.36000 17.460
11.38000 18.265
11.40000 7.534
11.42000 5.743
11.44000 15.147
11.46000 30.288
11.48000 22.985
11.50000 18.016
11.52000 11.377
11.54000 12.722
11.56000 23.537
11.58000 22.931
11.60000 14.417
11.62000 18.756
11.64000 15.316
11.66000 15.407
11.68000 15.040
11.70000 15.032
11.72000 12.660
11.74000 9.083
11.76000 15.282
11.78000 30.662
11.80000 22.486
11.82000 10.706
11.84000 15.192
11.86000 8.057
11.88000 -2.320
11.90000 14.442
11.92000 19.036
11.94000 16.052
11.96000 21.479
11.98000 18.412
12.00000 8.530
12.02000 4.568
12.04000 6.601
12.06000 15.018
12.08000 24.387
12.10000 22.000
12.12000 16.987
12.14000 7.914
12.16000 16.342
12.18000 5.756
12.20000 2.482
12.22000 6.549
12.24000 2.028
12.26000 -1.683
12.28000 8.321
12.30000 8.869
12.32000 8.184
12.34000 9.050
12.36000 2.610
12.38000 -4.540
12.40000 16.984
12.42000 19.182
12.44000 22.041
12.46000 22.990
12.48000 9.618
12.50000 13.797
12.52000 14.094
12.54000 12.409
12.56000 -1.134
12.58000 7.499
12.60000 9.653
12.62000 11.093
12.64000 20.499
12.66000 24.661
12.68000 10.441
12.70000 18.635
12.72000 17.470
12.74000 26.068
12.76000 22.299
12.78000 16.814
12.80000 9.309
12.82000 3.814
12.84000 0.352
12.86000 7.574
12.88000 17.241
12.90000 19.224
12.92000 9.415
12.94000 9.827
12.96000 10.615
12.98000 14.482
13.00000 14.944
13.02000 15.830
13.04000 25.531
13.06000 11.550
13.08000 10.849
13.10000 7.373
13.12000 10.407
13.14000 12.995
13.16000 6.052
13.18000 8.839
13.20000 16.849
13.22000 22.007
13.24000 12.931
13.26000 19.661
13.28000 10.475
13.30000 1.091
13.32000 3.775
13.34000 12.320
13.36000 13.971
13.38000 11.252
13.40000 13.715
13.42000 11.978
13.44000 9.512
13.46000 7.449
13.48000 12.699
13.50000 13.452
13.52000 8.561
13.54000 9.776
13.56000 7.303
13.58000 6.353
13.60000 5.969
13.62000 -4.528
13.64000 0.385
13.66000 18.865
13.68000 18.467
13.70000 6.011
13.72000 12.863
13.74000 20.069
13.76000 18.687
13.78000 11.120
13.80000 11.757
13.82000 19.747
13.84000 18.183
13.86000 17.737
13.88000 9.947
13.90000 6.560
13.92000 7.929
13.94000 -1.950
13.96000 8.847
13.98000 14.228
14.00000 15.597
14.02000 14.854
14.04000 18.151
14.06000 17.323
14.08000 12.910
14.10000 3.462
14.12000 5.982
14.14000 3.390
14.16000 6.575
14.18000 4.755
14.20000 15.146
14.22000 8.484
14.24000 4.657
14.26000 4.928
14.28000 13.355
14.30000 3.157
14.32000 2.309
14.34000 8.446
14.36000 6.915
14.38000 16.648
14.40000 19.955
14.42000 9.918
14.44000 0.960
14.46000 -0.141
14.48000 6.698
14.50000 7.820
14.52000 10.749
14.54000 8.375
14.56000 1.158
14.58000 4.841
14.60000 6.110
14.62000 9.450
14.64000 20.548
14.66000 21.148
14.68000 16.669
14.70000 3.052
14.72000 0.311
14.74000 7.252
14.76000 3.658
14.78000 3.248
14.80000 11.464
14.82000 19.412
14.84000 12.550
14.86000 8.043
14.88000 -0.834
14.90000 4.801
14.92000 4.265
14.94000 14.793
14.96000 15.670
14.98000 1.761
15.00000 13.897
15.02000 19.750
15.04000 12.938
15.06000 9.038
15.08000 11.584
15.10000 9.936
15.12000 -0.218
15.14000 8.025
15.16000 18.172
15.18000 15.032
15.20000 12.872
15.22000 6.456
15.24000 -2.665
15.26000 5.611
15.28000 6.893
15.30000 9.279
15.32000 8.423
15.34000 8.939
15.36000 7.005
15.38000 4.773
15.40000 6.123
15.42000 4.903
15.44000 4.859
15.46000 8.500
15.48000 15.691
15.50000 11.257
15.52000 8.641
15.54000 9.800
15.56000 10.066
15.58000 9.481
15.60000 7.074
15.62000 13.673
15.64000 23.038
15.66000 22.086
15.68000 18.162
15.70000 10.887
15.72000 3.982
15.74000 1.878
15.76000 -1.015
15.78000 4.617
15.80000 7.895
15.82000 16.188
15.84000 19.485
15.86000 12.037
15.88000 5.407
15.90000 4.909
15.92000 11.287
15.94000 10.702
15.96000 11.165
15.98000 12.508
16.00000 16.183
16.02000 18.906
16.04000 16.467
16.06000 10.525
16.08000 4.494
16.10000 2.374
16.12000 10.093
16.14000 7.285
16.16000 2.451
16.18000 11.499
16.20000 11.817
16.22000 8.341
16.24000 11.162
16.26000 11.481
16.28000 7.165
16.30000 3.897
16.32000 3.282
16.34000 9.521
16.36000 16.617
16.38000 2.785
16.40000 2.822
16.42000 11.929
16.44000 7.657
16.46000 -4.410
16.48000 0.450
16.50000 8.209
16.52000 9.922
16.54000 4.664
16.56000 9.466
16.58000 12.251
16.60000 1.330
16.62000 4.249
16.64000 9.105
16.66000 9.661
16.68000 7.478
16.70000 8.224
16.72000 8.205
16.74000 22.782
16.76000 25.847
16.78000 14.477
16.80000 7.851
16.82000 8.199
16.84000 8.644
16.86000 0.808
16.88000 6.984
16.90000 8.450
16.92000 9.942
16.94000 0.682
16.96000 -4.404
16.98000 11.874
17.00000 17.831
17.02000 12.883
17.04000 4.476
17.06000 7.771
17.08000 12.138
17.10000 6.448
17.12000 8.075
17.14000 12.453
17.16000 13.340
17.18000 6.654
17.20000 1.144
17.22000 2.671
17.24000 0.238
17.26000 -0.241
17.28000 3.076
17.30000 1.861
17.32000 6.466
17.34000 10.460
17.36000 16.068
17.38000 9.226
17.40000 0.887
17.42000 0.777
17.44000 0.938
17.46000 -2.018
17.48000 5.639
17.50000 10.156
17.52000 7.913
17.54000 9.472
17.56000 5.217
17.58000 0.582
17.60000 4.973
17.62000 5.897
17.64000 4.899
17.66000 6.287
17.68000 7.303
17.70000 10.931
17.72000 10.436
17.74000 0.896
17.76000 -2.320
17.78000 6.103
17.80000 6.405
17.82000 6.205
17.84000 11.110
17.86000 10.019
17.88000 1.587
17.90000 7.797
17.92000 9.972
17.94000 6.193
17.96000 2.491
17.98000 1.680
18.00000 -0.560
18.02000 6.634
18.04000 3.514
18.06000 4.385
18.08000 13.124
18.10000 5.579
18.12000 5.633
18.14000 4.576
18.16000 3.656
18.18000 5.098
18.20000 4.329
18.22000 2.771
18.24000 6.708
18.26000 5.164
18.28000 0.433
18.30000 -1.081
18.32000 1.197
18.34000 5.589
18.36000 6.845
18.38000 6.526
18.40000 -0.916
18.42000 1.005
18.44000 2.318
18.46000 3.883
18.48000 6.524
18.50000 3.999
18.52000 4.439
18.54000 -3.861
18.56000 -2.350
18.58000 2.883
18.60000 5.619
18.62000 0.893
18.64000 5.657
18.66000 2.570
18.68000 -0.806
18.70000 1.672
18.72000 5.677
18.74000 3.892
18.76000 5.677
18.78000 12.883
18.80000 11.612
18.82000 5.128
18.84000 1.900
18.86000 2.089
18.88000 -4.320
18.90000 2.323
18.92000 6.497
18.94000 4.540
18.96000 6.267
18.98000 9.135
19.00000 7.529
19.02000 -1.045
19.04000 2.032
19.06000 4.012
19.08000 4.950
19.10000 -0.683
19.12000 -0.703
19.14000 2.747
19.16000 4.032
19.18000 0.736
19.20000 -0.983
19.22000 5.670
19.24000 7.754
19.26000 -0.207
19.28000 -0.734
19.30000 4.375
19.32000 4.424
19.34000 -4.194
19.36000 -4.284
19.38000 0.227
19.40000 -1.839
19.42000 3.454
19.44000 0.798
19.46000 9.506
19.48000 5.890
19.50000 4.845
19.52000 2.027
19.54000 2.556
19.56000 6.628
19.58000 6.726
19.60000 4.886
19.62000 5.532
19.64000 2.338
19.66000 1.687
19.68000 0.735
19.70000 3.721
19.72000 7.364
19.74000 13.027
19.76000 6.821
19.78000 7.729
19.80000 4.875
19.82000 3.322
19.84000 4.817
19.86000 5.827
19.88000 5.424
19.90000 5.969
19.92000 9.501
19.94000 13.148
19.96000 9.870
19.98000 14.004
20.00000 7.152
20.02000 0.955
20.04000 1.693
20.06000 -1.962
20.08000 6.465
20.10000 8.782
20.12000 4.301
20.14000 -0.366
20.16000 -1.795
20.18000 3.348
20.20000 6.865
20.22000 3.163
20.24000 -1.752
20.26000 5.472
20.28000 1.340
20.30000 1.540
20.32000 2.971
20.34000 1.180
20.36000 2.560
20.38000 6.199
20.40000 0.579
20.42000 0.060
20.44000 0.228
20.46000 0.982
20.48000 3.083
20.50000 5.965
20.52000 -2.669
20.54000 5.153
20.56000 5.741
20.58000 5.018
20.60000 3.105
20.62000 6.091
20.64000 2.758
20.66000 6.396
20.68000 5.948
20.70000 5.077
20.72000 6.074
20.74000 6.085
20.76000 8.096
20.78000 3.416
20.80000 6.463
20.82000 7.813
20.84000 8.971
20.86000 8.773
20.88000 13.884
20.90000 7.550
20.92000 5.983
20.94000 2.681
20.96000 7.070
20.98000 4.463
21.00000 0.630
21.02000 6.829
21.04000 5.517
21.06000 2.799
21.08000 1.706
21.10000 1.553
21.12000 4.817
21.14000 5.484
21.16000 4.163
21.18000 6.511
21.20000 10.161
21.22000 7.399
21.24000 -1.888
21.26000 -4.164
21.28000 0.226
21.30000 6.846
21.32000 11.823
21.34000 11.841
21.36000 11.770
21.38000 6.895
21.40000 5.890
21.42000 8.227
21.44000 3.978
21.46000 7.675
21.48000 8.957
21.50000 6.520
21.52000 11.046
21.54000 4.414
21.56000 -2.201
21.58000 -0.187
21.60000 3.961
21.62000 2.612
21.64000 3.036
21.66000 10.157
21.68000 7.014
21.70000 2.454
21.72000 3.193
21.74000 1.496
21.76000 1.680
21.78000 3.038
21.80000 2.372
21.82000 -4.042
21.84000 -2.491
21.86000 1.246
21.88000 0.111
21.90000 3.130
21.92000 5.778
21.94000 4.967
21.96000 -1.187
21.98000 5.549
22.00000 5.476
22.02000 2.306
22.04000 -2.363
22.06000 -0.386
22.08000 2.824
22.10000 3.253
22.12000 -0.477
22.14000 -1.775
22.16000 2.209
22.18000 5.563
22.20000 6.499
22.22000 1.402
22.24000 6.868
22.26000 4.038
22.28000 -2.807
22.30000 -3.352
22.32000 -0.235
22.34000 2.640
22.36000 5.356
22.38000 -0.319
22.40000 -2.794
22.42000 -2.016
22.44000 1.110
22.46000 5.334
22.48000 1.093
22.50000 1.954
22.52000 2.210
22.54000 7.895
22.56000 5.067
22.58000 3.922
22.60000 5.448
22.62000 6.193
22.64000 -0.166
22.66000 -2.866
22.68000 -2.777
22.70000 -4.115
22.72000 4.534
22.74000 3.697
22.76000 6.094
22.78000 6.061
22.80000 6.359
22.82000 1.364
22.84000 -0.539
22.86000 -0.601
22.88000 3.042
22.90000 0.178
22.92000 -3.242
22.94000 0.941
22.96000 2.655
22.98000 -3.622
23.00000 -2.711
23.02000 4.554
23.04000 -2.128
23.06000 -2.561
23.08000 -3.032
23.10000 -0.695
23.12000 3.247
23.14000 2.994
23.16000 3.748
23.18000 0.822
23.20000 -2.257
23.22000 2.283
23.24000 1.712
23.26000 1.871
23.28000 3.057
23.30000 1.823
23.32000 2.043
23.34000 3.718
23.36000 5.491
23.38000 -3.036
23.40000 2.161
23.42000 8.706
23.44000 4.755
23.46000 1.547
23.48000 -1.562
23.50000 2.849
23.52000 3.969
23.54000 4.589
23.56000 2.319
23.58000 3.767
23.60000 1.850
23.62000 5.740
23.64000 5.293
23.66000 7.836
23.68000 6.666
23.70000 4.930
23.72000 5.200
23.74000 4.532
23.76000 7.612
23.78000 10.238
23.80000 3.100
23.82000 -1.326
23.84000 -0.868
23.86000 3.091
23.88000 5.496
23.90000 -1.853
23.92000 -0.464
23.94000 1.653
23.96000 -1.099
23.98000 1.505
24.00000 6.806
24.02000 2.686
24.04000 6.142
24.06000 2.705
24.08000 -0.412
24.10000 -2.462
24.12000 1.967
24.14000 2.057
24.16000 3.539
24.18000 12.158
24.20000 13.995
24.22000 2.279
24.24000 3.542
24.26000 5.020
24.28000 1.910
24.30000 7.231
24.32000 12.205
24.34000 6.427
24.36000 -1.188
24.38000 -0.182
24.40000 7.382
24.42000 6.831
24.44000 10.949
24.46000 10.150
24.48000 9.342
24.50000 9.877
24.52000 2.073
24.54000 0.236
24.56000 6.049
24.58000 9.961
24.60000 12.831
24.62000 6.172
24.64000 2.056
24.66000 3.220
24.68000 3.571
24.70000 3.846
24.72000 3.425
24.74000 5.901
24.76000 10.645
24.78000 4.205
24.80000 -3.955
24.82000 2.201
24.84000 5.092
24.86000 7.769
24.88000 6.173
24.90000 4.243
24.92000 -0.332
24.94000 -0.501
24.96000 2.916
24.98000 2.643
25.00000 7.696
25.02000 8.233
25.04000 8.525
25.06000 5.118
25.08000 2.957
25.10000 3.005
25.12000 5.599
25.14000 3.789
25.16000 9.002
25.18000 9.830
25.20000 3.058
25.22000 2.577
25.24000 9.605
25.26000 10.460
25.28000 3.808
25.30000 5.544
25.32000 0.422
25.34000 3.434
25.36000 4.372
25.38000 10.968
25.40000 7.859
25.42000 3.808
25.44000 3.828
25.46000 8.143
25.48000 7.351
25.50000 4.404
25.52000 13.286
25.54000 7.886
25.56000 1.723
25.58000 1.041
25.60000 7.035
25.62000 9.264
25.64000 3.395
25.66000 2.065
25.68000 5.870
25.70000 4.192
25.72000 4.003
25.74000 5.578
25.76000 7.654
25.78000 3.530
25.80000 4.475
25.82000 5.412
25.84000 4.800
25.86000 2.150
25.88000 -2.341
25.90000 3.340
25.92000 6.940
25.94000 1.666
25.96000 -1.197
25.98000 -2.320
26.00000 1.203
26.02000 5.160
26.04000 1.987
26.06000 2.011
26.08000 -0.039
26.10000 -1.062
26.12000 -2.234
26.14000 0.573
26.16000 5.702
26.18000 8.920
26.20000 6.326
26.22000 0.175
26.24000 -3.481
26.26000 -3.907
26.28000 -3.650
26.30000 -0.977
26.32000 1.788
26.34000 -0.119
26.36000 -0.970
26.38000 2.016
26.40000 4.064
26.42000 0.211
26.44000 -0.352
26.46000 0.508
26.48000 0.915
26.50000 1.932
26.52000 5.099
26.54000 6.487
26.56000 1.812
26.58000 -0.748
26.60000 -1.741
26.62000 2.628
26.64000 4.106
26.66000 5.394
26.68000 1.825
26.70000 -3.886
26.72000 -1.442
26.74000 8.014
26.76000 8.093
26.78000 4.511
26.80000 5.385
26.82000 0.950
26.84000 3.230
26.86000 6.445
26.88000 3.686
26.90000 5.028
26.92000 3.737
26.94000 -0.811
26.96000 1.334
26.98000 3.819
27.00000 6.894
27.02000 5.731
27.04000 5.264
27.06000 3.982
27.08000 3.569
27.10000 7.757
27.12000 4.261
27.14000 2.021
27.16000 0.888
27.18000 1.570
27.20000 6.726
27.22000 4.475
27.24000 2.031
27.26000 3.373
27.28000 3.113
27.30000 2.387
27.32000 4.378
27.34000 6.915
27.36000 6.713
27.38000 7.299
27.40000 7.608
27.42000 3.602
27.44000 3.108
27.46000 5.344
27.48000 4.861
27.50000 8.220
27.52000 9.758
27.54000 7.911
27.56000 4.637
27.58000 4.181
27.60000 1.818
27.62000 5.260
27.64000 4.068
27.66000 4.758
27.68000 6.858
27.70000 6.183
27.72000 0.662
27.74000 4.415
27.76000 8.081
27.78000 5.934
27.80000 0.140
27.82000 3.525
27.84000 3.183
27.86000 -1.253
27.88000 -3.819
27.90000 0.362
27.92000 1.817
27.94000 2.965
27.96000 3.916
27.98000 2.507
28.00000 7.042
28.02000 1.918
28.04000 0.234
28.06000 3.714
28.08000 4.784
28.10000 2.932
28.12000 3.350
28.14000 5.976
28.16000 9.007
28.18000 4.170
28.20000 8.051
28.22000 7.397
28.24000 8.218
28.26000 4.741
28.28000 0.059
28.30000 3.125
28.32000 3.328
28.34000 -1.456
28.36000 -3.587
28.38000 1.307
28.40000 3.189
28.42000 0.614
28.44000 5.416
28.46000 1.294
28.48000 6.297
28.50000 3.037
28.52000 2.989
28.54000 5.717
28.56000 7.095
28.58000 4.704
28.60000 1.791
28.62000 0.774
28.64000 1.883
28.66000 2.205
28.68000 0.227
28.70000 -1.349
28.72000 2.292
28.74000 4.054
28.76000 3.278
28.78000 6.530
28.80000 6.960
28.82000 2.529
28.84000 -0.215
28.86000 1.353
28.88000 -0.092
28.90000 1.652
28.92000 5.055
28.94000 4.083
28.96000 2.220
28.98000 1.391
29.00000 1.045
29.02000 6.902
29.04000 4.787
29.06000 4.424
29.08000 4.218
29.10000 3.349
29.12000 2.542
29.14000 1.917
29.16000 1.008
29.18000 -0.488
29.20000 1.972
29.22000 8.663
29.24000 8.546
29.26000 4.840
29.28000 2.561
29.30000 2.952
29.32000 1.964
29.34000 7.964
29.36000 7.065
29.38000 4.196
29.40000 3.583
29.42000 6.450
29.44000 4.891
29.46000 2.193
29.48000 -0.017
29.50000 0.293
29.52000 -3.714
29.54000 2.523
29.56000 7.407
29.58000 2.450
29.60000 3.555
29.62000 3.417
29.64000 6.806
29.66000 2.812
29.68000 4.582
29.70000 2.724
29.72000 3.144
29.74000 -0.870
29.76000 5.456
29.78000 9.609
29.80000 8.878
29.82000 3.607
29.84000 5.647
29.86000 4.677
29.88000 2.292
29.90000 2.209
29.92000 1.442
29.94000 -3.691
29.96000 -1.214
29.98000 3.994
30.00000 4.395
30.02000 7.612
30.04000 8.163
30.06000 8.515
30.08000 5.370
30.10000 -0.240
30.12000 5.647
30.14000 7.716
30.16000 1.425
30.18000 2.966
30.20000 6.996
30.22000 10.331
30.24000 4.124
30.26000 7.149
30.28000 6.066
30.30000 5.178
30.32000 9.144
30.34000 5.881
30.36000 2.798
30.38000 3.714
30.40000 0.655
30.42000 1.510
30.44000 -1.845
30.46000 -0.562
30.48000 -1.017
30.50000 2.722
30.52000 1.203
30.54000 4.074
30.56000 4.894
30.58000 6.352
30.60000 4.672
30.62000 5.288
30.64000 5.350
30.66000 -0.147
30.68000 2.243
30.70000 5.074
30.72000 4.527
30.74000 0.203
30.76000 0.644
30.78000 4.528
30.80000 5.117
30.82000 1.846
30.84000 4.859
30.86000 5.755
30.88000 2.296
30.90000 -1.644
30.92000 1.379
30.94000 2.842
30.96000 0.228
30.98000 0.624
31.00000 2.635
31.02000 -0.981
31.04000 -1.423
31.06000 6.206
31.08000 3.337
31.10000 2.476
31.12000 1.069
31.14000 -1.550
31.16000 0.053
31.18000 1.864
31.20000 5.954
31.22000 1.277
31.24000 2.779
31.26000 0.331
31.28000 -2.593
31.30000 -0.458
31.32000 -0.040
31.34000 -3.291
31.36000 1.702
31.38000 4.722
31.40000 -0.037
31.42000 2.593
31.44000 4.453
31.46000 2.568
31.48000 0.381
31.50000 -1.043
31.52000 -1.390
31.54000 4.616
31.56000 5.142
31.58000 0.397
31.60000 -2.878
31.62000 -0.356
31.64000 -3.380
31.66000 -3.663
31.68000 -0.016
31.70000 -0.829
31.72000 2.149
31.74000 7.190
31.76000 7.806
31.78000 1.756
31.80000 -2.941
31.82000 0.203
31.84000 2.414
31.86000 2.777
31.88000 6.129
31.90000 3.689
31.92000 2.871
31.94000 2.153
31.96000 2.267
31.98000 3.431
32.00000 2.594
32.02000 0.692
32.04000 5.544
32.06000 3.189
32.08000 2.438
32.10000 7.072
32.12000 5.545
32.14000 3.440
32.16000 6.426
32.18000 8.439
32.20000 1.539
32.22000 0.068
32.24000 7.991
32.26000 11.381
32.28000 5.059
32.30000 3.708
32.32000 -0.950
32.34000 -0.314
32.36000 5.592
32.38000 4.130
32.40000 5.337
32.42000 6.373
32.44000 6.628
32.46000 5.205
32.48000 -0.405
32.50000 -3.610
32.52000 -3.610
32.54000 1.992
32.56000 2.573
32.58000 1.541
32.60000 3.616
32.62000 6.501
32.64000 4.761
32.66000 1.683
32.68000 -0.319
32.70000 -2.106
32.72000 3.861
32.74000 -0.139
32.76000 0.629
32.78000 10.071
32.80000 3.766
32.82000 4.095
32.84000 2.629
32.86000 -2.208
32.88000 -3.153
32.90000 1.012
32.92000 3.981
32.94000 4.532
32.96000 1.736
32.98000 0.927
33.00000 5.342
33.02000 4.556
33.04000 1.979
33.06000 1.533
33.08000 4.598
33.10000 6.253
33.12000 0.458
33.14000 -1.164
33.16000 4.014
33.18000 -0.232
33.20000 -3.366
33.22000 -1.168
33.24000 -0.815
33.26000 0.260
33.28000 1.072
33.30000 3.462
33.32000 6.138
33.34000 2.956
33.36000 7.815
33.38000 6.748
33.40000 4.075
33.42000 3.642
33.44000 -0.969
33.46000 3.236
33.48000 0.356
33.50000 1.756
33.52000 7.882
33.54000 8.942
33.56000 1.548
33.58000 -2.484
33.60000 0.108
33.62000 3.262
33.64000 2.857
33.66000 0.497
33.68000 4.089
33.70000 2.704
33.72000 1.172
33.74000 5.607
33.76000 5.827
33.78000 1.521
33.80000 2.000
33.82000 3.155
33.84000 3.591
33.86000 4.062
33.88000 8.930
33.90000 3.301
33.92000 0.744
33.94000 2.475
33.96000 12.959
33.98000 9.449
34.00000 8.918
34.02000 6.486
34.04000 6.392
34.06000 10.054
34.08000 0.486
34.10000 0.575
34.12000 1.050
34.14000 3.050
34.16000 5.333
34.18000 3.454
34.20000 3.677
34.22000 1.608
34.24000 4.153
34.26000 7.425
34.28000 4.008
34.30000 1.972
34.32000 -2.808
34.34000 -3.583
34.36000 -0.794
34.38000 2.242
34.40000 6.609
34.42000 2.564
34.44000 -0.194
34.46000 -0.187
34.48000 1.345
34.50000 5.245
34.52000 4.437
34.54000 4.867
34.56000 3.046
34.58000 2.459
34.60000 2.685
34.62000 7.741
34.64000 9.240
34.66000 8.265
34.68000 1.527
34.70000 -3.599
34.72000 -0.456
34.74000 2.992
34.76000 6.393
34.78000 7.263
34.80000 1.044
34.82000 2.364
34.84000 3.962
34.86000 1.765
34.88000 3.552
34.90000 2.505
34.92000 2.897
34.94000 3.431
34.96000 1.610
34.98000 -0.544
35.00000 -2.448
35.02000 -3.290
35.04000 3.222
35.06000 9.139
35.08000 4.213
35.10000 1.943
35.12000 7.006
35.14000 4.230
35.16000 4.026
35.18000 3.331
35.20000 3.935
35.22000 -0.004
35.24000 -3.598
35.26000 1.915
35.28000 0.782
35.30000 7.526
35.32000 6.958
35.34000 0.882
35.36000 1.073
35.38000 0.303
35.40000 4.880
35.42000 6.393
35.44000 1.677
35.46000 3.119
35.48000 1.416
35.50000 1.178
35.52000 3.047
35.54000 4.192
35.56000 6.669
35.58000 8.273
35.60000 6.277
35.62000 2.975
35.64000 1.624
35.66000 2.761
35.68000 -0.502
35.70000 -1.670
35.72000 -3.312
35.74000 -2.120
35.76000 3.953
35.78000 3.475
35.80000 -2.025
35.82000 -0.446
35.84000 2.048
35.86000 1.755
35.88000 -1.302
35.90000 -2.982
35.92000 -0.777
35.94000 2.750
35.96000 2.088
35.98000 0.479
36.00000 -0.814
36.02000 -0.393
36.04000 0.800
36.06000 3.886
36.08000 -1.805
36.10000 1.213
36.12000 4.135
36.14000 6.555
36.16000 4.810
36.18000 -2.769
36.20000 -2.558
36.22000 -1.702
36.24000 3.182
36.26000 1.334
36.28000 1.937
36.30000 -0.682
36.32000 -1.810
36.34000 -0.443
36.36000 0.145
36.38000 6.275
36.40000 4.565
36.42000 2.150
36.44000 -0.279
36.46000 1.557
36.48000 3.583
36.50000 4.117
36.52000 3.885
36.54000 3.407
36.56000 6.060
36.58000 3.251
36.60000 6.720
36.62000 4.583
36.64000 2.337
36.66000 2.371
36.68000 0.506
36.70000 3.876
36.72000 6.305
36.74000 5.717
36.76000 2.737
36.78000 2.896
36.80000 3.689
36.82000 6.416
36.84000 10.432
36.86000 10.690
36.88000 5.235
36.90000 6.450
36.92000 9.708
36.94000 6.670
36.96000 9.840
36.98000 9.030
37.00000 8.632
37.02000 12.687
37.04000 15.778
37.06000 11.910
37.08000 7.863
37.10000 9.007
37.12000 16.523
37.14000 11.856
37.16000 9.837
37.18000 9.959
37.20000 10.476
37.22000 11.137
37.24000 15.632
37.26000 11.937
37.28000 14.879
37.30000 14.866
37.32000 15.478
37.34000 15.879
37.36000 15.009
37.38000 14.243
37.40000 14.525
37.42000 16.597
37.44000 22.115
37.46000 21.013
37.48000 19.560
37.50000 25.211
37.52000 26.505
37.54000 26.714
37.56000 30.379
37.58000 28.551
37.60000 23.484
37.62000 25.054
37.64000 27.015
37.66000 28.304
37.68000 30.926
37.70000 30.227
37.72000 31.820
37.74000 31.884
37.76000 32.692
37.78000 33.504
37.80000 33.478
37.82000 38.041
37.84000 38.282
37.86000 38.013
37.88000 41.330
37.90000 45.704
37.92000 47.191
37.94000 44.435
37.96000 45.429
37.98000 46.628
38.00000 49.681
38.02000 53.687
38.04000 60.069
38.06000 61.573
38.08000 60.192
38.10000 63.548
38.12000 66.512
38.14000 68.429
38.16000 74.971
38.18000 79.020
38.20000 80.640
38.22000 86.359
38.24000 88.616
38.26000 91.441
38.28000 103.045
38.30000 103.962
38.32000 113.022
38.34000 120.754
38.36000 120.825
38.38000 131.313
38.40000 140.271
38.42000 144.334
38.44000 161.233
38.46000 169.008
38.48000 179.926
38.50000 192.079
38.52000 205.516
38.54000 222.071
38.56000 231.562
38.58000 247.972
38.60000 275.453
38.62000 288.352
38.64000 299.731
38.66000 311.358
38.68000 315.553
38.70000 331.401
38.72000 342.795
38.74000 356.609
38.76000 363.786
38.78000 377.434
38.80000 391.753
38.82000 392.236
38.84000 391.001
38.86000 402.642
38.88000 406.121
38.90000 398.486
38.92000 390.281
38.94000 380.624
38.96000 374.491
38.98000 366.356
39.00000 351.204
39.02000 344.318
39.04000 338.063
39.06000 318.943
39.08000 292.172
39.10000 285.539
39.12000 272.289
39.14000 264.958
39.16000 247.755
39.18000 226.629
39.20000 219.224
39.22000 212.279
39.24000 197.677
39.26000 178.742
39.28000 167.925
39.30000 161.259
39.32000 143.197
39.34000 134.136
39.36000 130.010
39.38000 125.050
39.40000 113.675
39.42000 108.361
39.44000 100.540
39.46000 96.566
39.48000 88.436
39.50000 84.250
39.52000 78.088
39.54000 79.966
39.56000 70.991
39.58000 66.051
39.60000 68.993
39.62000 63.424
39.64000 58.244
39.66000 55.614
39.68000 52.619
39.70000 54.206
39.72000 51.225
39.74000 48.504
39.76000 48.084
39.78000 42.866
39.80000 38.664
39.82000 35.532
39.84000 36.598
39.86000 35.179
39.88000 35.993
39.90000 35.623
39.92000 33.492
39.94000 27.268
39.96000 26.766
39.98000 28.174
40.00000 32.146
40.02000 31.158
40.04000 26.839
40.06000 27.793
40.08000 25.600
40.10000 28.186
40.12000 20.847
40.14000 21.764
40.16000 23.655
40.18000 23.237
40.20000 21.876
40.22000 16.435
40.24000 19.433
40.26000 17.149
40.28000 14.991
40.30000 17.039
40.32000 17.682
40.34000 14.056
40.36000 11.951
40.38000 10.939
40.40000 13.548
40.42000 15.141
40.44000 15.807
40.46000 12.119
40.48000 15.369
40.50000 15.653
40.52000 9.006
40.54000 13.484
40.56000 12.908
40.58000 9.381
40.60000 13.594
40.62000 8.076
40.64000 5.339
40.66000 9.770
40.68000 17.473
40.70000 13.620
40.72000 5.498
40.74000 8.008
40.76000 11.074
40.78000 12.944
40.80000 6.324
40.82000 8.317
40.84000 5.186
40.86000 9.588
40.88000 7.704
40.90000 4.893
40.92000 7.047
40.94000 8.149
40.96000 6.562
40.98000 3.995
41.00000 1.594
41.02000 1.402
41.04000 2.584
41.06000 1.492
41.08000 2.183
41.10000 5.265
41.12000 4.480
41.14000 6.033
41.16000 3.340
41.18000 2.167
41.20000 7.459
41.22000 6.291
41.24000 4.792
41.26000 1.765
41.28000 1.773
41.30000 -0.274
41.32000 -1.418
41.34000 1.991
41.36000 0.413
41.38000 3.461
41.40000 3.666
41.42000 -2.861
41.44000 3.324
41.46000 3.375
41.48000 1.377
41.50000 0.127
41.52000 2.087
41.54000 6.474
41.56000 6.081
41.58000 1.958
41.60000 0.998
41.62000 0.855
41.64000 -0.462
41.66000 1.615
41.68000 4.730
41.70000 5.301
41.72000 2.998
41.74000 3.987
41.76000 2.444
41.78000 -2.456
41.80000 -3.477
41.82000 1.442
41.84000 2.203
41.86000 1.611
41.88000 0.927
41.90000 0.746
41.92000 4.596
41.94000 -0.062
41.96000 0.116
41.98000 0.974
42.00000 3.412
42.02000 1.840
42.04000 0.730
42.06000 2.094
42.08000 0.712
42.10000 -0.430
42.12000 1.027
42.14000 1.446
42.16000 3.351
42.18000 2.664
42.20000 0.827
42.22000 2.993
42.24000 -0.725
42.26000 -1.610
42.28000 1.057
42.30000 2.258
42.32000 0.430
42.34000 -0.813
42.36000 2.185
42.38000 0.631
42.40000 1.880
42.42000 0.210
42.44000 -2.322
42.46000 0.694
42.48000 -0.887
42.50000 -1.982
42.52000 2.490
42.54000 1.190
42.56000 -3.389
42.58000 0.530
42.60000 -1.268
42.62000 3.085
42.64000 2.000
42.66000 -0.840
42.68000 0.097
42.70000 3.555
42.72000 4.184
42.74000 3.838
42.76000 -0.793
42.78000 -1.213
42.80000 1.207
42.82000 -0.762
42.84000 -0.967
42.86000 -0.544
42.88000 -2.414
42.90000 -3.345
42.92000 -2.432
42.94000 2.174
42.96000 1.737
42.98000 1.317
43.00000 -0.916
43.02000 -2.380
43.04000 -1.216
43.06000 0.348
43.08000 0.538
43.10000 0.848
43.12000 1.061
43.14000 3.093
43.16000 2.335
43.18000 -0.390
43.20000 0.966
43.22000 -0.442
43.24000 1.874
43.26000 1.995
43.28000 0.609
43.30000 1.672
43.32000 -0.326
43.34000 0.133
43.36000 3.444
43.38000 0.557
43.40000 0.069
43.42000 -3.313
43.44000 -3.147
43.46000 -2.353
43.48000 -0.759
43.50000 0.649
43.52000 -0.435
43.54000 -2.165
43.56000 2.039
43.58000 2.207
43.60000 3.923
43.62000 4.536
43.64000 4.172
43.66000 4.698
43.68000 3.781
43.70000 3.641
43.72000 4.897
43.74000 0.545
43.76000 -1.814
43.78000 2.043
43.80000 4.070
43.82000 3.803
43.84000 1.101
43.86000 1.977
43.88000 4.864
43.90000 1.726
43.92000 2.434
43.94000 2.158
43.96000 1.307
43.98000 1.530
44.00000 5.546
44.02000 7.285
44.04000 4.081
44.06000 8.412
44.08000 6.413
44.10000 5.969
44.12000 3.480
44.14000 7.573
44.16000 9.823
44.18000 10.010
44.20000 13.506
44.22000 10.127
44.24000 10.315
44.26000 13.562
44.28000 8.284
44.30000 9.845
44.32000 13.067
44.34000 15.487
44.36000 14.036
44.38000 13.665
44.40000 15.374
44.42000 18.359
44.44000 19.461
44.46000 16.807
44.48000 16.621
44.50000 16.041
44.52000 19.166
44.54000 21.001
44.56000 24.318
44.58000 25.100
44.60000 28.182
44.62000 32.269
44.64000 31.444
44.66000 32.255
44.68000 36.623
44.70000 36.884
44.72000 38.981
44.74000 42.409
44.76000 46.152
44.78000 49.030
44.80000 48.114
44.82000 50.100
44.84000 52.374
44.86000 51.382
44.88000 54.665
44.90000 65.779
44.92000 73.990
44.94000 72.984
44.96000 72.746
44.98000 76.652
45.00000 80.921
45.02000 73.438
45.04000 72.846
45.06000 76.629
45.08000 83.382
45.10000 86.759
45.12000 88.339
45.14000 88.511
45.16000 88.606
45.18000 92.122
45.20000 92.385
45.22000 94.665
45.24000 99.126
45.26000 96.899
45.28000 94.687
45.30000 93.344
45.32000 95.643
45.34000 97.195
45.36000 90.147
45.38000 87.243
45.40000 85.498
45.42000 80.128
45.44000 81.369
45.46000 77.340
45.48000 74.741
45.50000 72.936
45.52000 71.132
45.54000 73.405
45.56000 70.880
45.58000 63.535
45.60000 59.678
45.62000 58.037
45.64000 58.470
45.66000 51.789
45.68000 42.681
45.70000 44.672
45.72000 45.426
45.74000 39.679
45.76000 39.072
45.78000 38.485
45.80000 34.791
45.82000 27.428
45.84000 29.116
45.86000 27.546
45.88000 25.691
45.90000 25.423
45.92000 21.910
45.94000 21.290
45.96000 22.185
45.98000 18.877
46.00000 20.248
46.02000 16.499
46.04000 16.343
46.06000 14.175
46.08000 10.356
46.10000 12.503
46.12000 11.089
46.14000 8.531
46.16000 6.163
46.18000 8.291
46.20000 9.330
46.22000 10.821
46.24000 10.181
46.26000 4.980
46.28000 3.974
46.30000 2.687
46.32000 2.228
46.34000 1.585
46.36000 2.015
46.38000 5.764
46.40000 8.022
46.42000 4.908
46.44000 1.309
46.46000 4.796
46.48000 4.373
46.50000 3.570
46.52000 3.657
46.54000 2.608
46.56000 3.445
46.58000 1.696
46.60000 -0.136
46.62000 0.672
46.64000 2.099
46.66000 4.131
46.68000 3.091
46.70000 1.317
46.72000 2.004
46.74000 3.690
46.76000 0.949
46.78000 2.078
46.80000 1.156
46.82000 1.321
46.84000 -0.143
46.86000 -1.241
46.88000 -1.180
46.90000 2.899
46.92000 2.109
46.94000 2.921
46.96000 -1.737
46.98000 -2.913
47.00000 0.313
47.02000 6.082
47.04000 7.504
47.06000 4.987
47.08000 4.651
47.10000 5.146
47.12000 2.585
47.14000 4.543
47.16000 4.190
47.18000 2.767
47.20000 0.867
47.22000 -2.883
47.24000 0.250
47.26000 2.299
47.28000 1.009
47.30000 0.987
47.32000 1.153
47.34000 2.081
47.36000 8.159
47.38000 4.153
47.40000 4.777
47.42000 3.962
47.44000 1.183
47.46000 1.760
47.48000 3.315
47.50000 2.158
47.52000 3.877
47.54000 1.896
47.56000 3.881
47.58000 2.986
47.60000 0.796
47.62000 2.804
47.64000 5.300
47.66000 5.535
47.68000 6.975
47.70000 9.458
47.72000 3.955
47.74000 3.736
47.76000 4.713
47.78000 4.318
47.80000 3.622
47.82000 3.554
47.84000 2.979
47.86000 4.366
47.88000 -0.137
47.90000 2.368
47.92000 4.731
47.94000 2.313
47.96000 5.158
47.98000 5.181
48.00000 7.259
48.02000 6.310
48.04000 0.094
48.06000 -2.808
48.08000 -0.833
48.10000 3.081
48.12000 3.939
48.14000 1.247
48.16000 2.583
48.18000 1.363
48.20000 -2.794
48.22000 8.245
48.24000 8.290
48.26000 6.360
48.28000 4.694
48.30000 3.606
48.32000 5.718
48.34000 5.616
48.36000 4.142
48.38000 4.643
48.40000 10.411
48.42000 8.452
48.44000 5.485
48.46000 6.843
48.48000 4.909
48.50000 2.427
48.52000 6.297
48.54000 2.919
48.56000 -0.892
48.58000 2.252
48.60000 2.297
48.62000 -0.951
48.64000 2.353
48.66000 8.116
48.68000 2.838
48.70000 1.940
48.72000 0.989
48.74000 9.159
48.76000 11.163
48.78000 8.972
48.80000 5.340
48.82000 4.843
48.84000 0.328
48.86000 -2.714
48.88000 3.346
48.90000 9.893
48.92000 6.856
48.94000 5.831
48.96000 7.011
48.98000 6.438
49.00000 5.320
49.02000 5.967
49.04000 5.228
49.06000 6.459
49.08000 3.430
49.10000 0.782
49.12000 2.783
49.14000 6.349
49.16000 9.913
49.18000 5.651
49.20000 5.053
49.22000 7.074
49.24000 3.941
49.26000 -0.327
49.28000 -0.528
49.30000 2.842
49.32000 2.045
49.34000 5.419
49.36000 7.774
49.38000 3.706
49.40000 3.871
49.42000 6.598
49.44000 5.729
49.46000 5.248
49.48000 7.225
49.50000 2.847
49.52000 3.483
49.54000 6.855
49.56000 1.160
49.58000 1.764
49.60000 5.252
49.62000 5.687
49.64000 4.018
49.66000 5.567
49.68000 7.547
49.70000 11.890
49.72000 7.853
49.74000 7.630
49.76000 6.030
49.78000 2.170
49.80000 2.686
49.82000 4.811
49.84000 3.555
49.86000 0.276
49.88000 2.068
49.90000 5.645
49.92000 5.009
49.94000 3.109
49.96000 0.773
49.98000 1.282
50.00000 1.743
50.02000 0.226
50.04000 -0.844
50.06000 -0.804
50.08000 2.409
50.10000 3.822
50.12000 0.897
50.14000 -1.290
50.16000 -0.300
50.18000 1.135
50.20000 -1.454
50.22000 -0.188
50.24000 2.430
50.26000 4.058
50.28000 1.014
50.30000 1.346
50.32000 -1.161
50.34000 1.742
50.36000 5.166
50.38000 8.824
50.40000 4.450
50.42000 2.231
50.44000 2.339
50.46000 -0.228
50.48000 -1.486
50.50000 -2.678
50.52000 0.441
50.54000 0.452
50.56000 1.228
50.58000 0.280
50.60000 2.454
50.62000 7.411
50.64000 5.357
50.66000 1.242
50.68000 -0.532
50.70000 2.890
50.72000 2.673
50.74000 1.681
50.76000 2.640
50.78000 1.907
50.80000 1.115
50.82000 0.897
50.84000 1.402
50.86000 1.634
50.88000 2.005
50.90000 1.611
50.92000 0.398
50.94000 0.111
50.96000 3.695
50.98000 1.021
51.00000 -0.670
51.02000 1.839
51.04000 0.798
51.06000 2.878
51.08000 1.642
51.10000 3.150
51.12000 0.599
51.14000 0.786
51.16000 -1.084
51.18000 -0.848
51.20000 -2.498
51.22000 -2.663
51.24000 0.211
51.26000 2.094
51.28000 1.871
51.30000 3.826
51.32000 0.825
51.34000 3.134
51.36000 4.768
51.38000 2.730
51.40000 2.704
51.42000 -1.392
51.44000 0.552
51.46000 3.463
51.48000 5.399
51.50000 2.323
51.52000 -1.320
51.54000 0.191
51.56000 0.379
51.58000 3.170
51.60000 3.273
51.62000 7.984
51.64000 12.095
51.66000 9.961
51.68000 9.814
51.70000 7.994
51.72000 7.334
51.74000 2.090
51.76000 2.754
51.78000 4.921
51.80000 4.335
51.82000 2.123
51.84000 4.078
51.86000 1.755
51.88000 1.703
51.90000 4.215
51.92000 4.632
51.94000 2.917
51.96000 1.711
51.98000 -0.296
52.00000 4.572
52.02000 2.406
52.04000 2.741
52.06000 2.857
52.08000 4.060
52.10000 3.834
52.12000 -0.470
52.14000 0.555
52.16000 -2.634
52.18000 -1.463
52.20000 4.297
52.22000 6.770
52.24000 5.663
52.26000 6.874
52.28000 4.848
52.30000 0.524
52.32000 2.203
52.34000 4.116
52.36000 2.139
52.38000 -2.632
52.40000 1.900
52.42000 -0.544
52.44000 1.404
52.46000 5.011
52.48000 7.210
52.50000 2.428
52.52000 2.695
52.54000 4.540
52.56000 5.808
52.58000 5.597
52.60000 0.684
52.62000 0.515
52.64000 1.048
52.66000 1.922
52.68000 0.187
52.70000 -0.738
52.72000 2.250
52.74000 6.197
52.76000 3.799
52.78000 4.532
52.80000 0.697
52.82000 0.451
52.84000 0.376
52.86000 0.615
52.88000 -1.593
52.90000 0.921
52.92000 4.152
52.94000 4.342
52.96000 1.444
52.98000 4.000
53.00000 3.109
53.02000 6.657
53.04000 2.261
53.06000 1.933
53.08000 0.693
53.10000 2.364
53.12000 -0.923
53.14000 -0.143
53.16000 1.489
53.18000 1.832
53.20000 2.107
53.22000 1.560
53.24000 0.053
53.26000 -0.496
53.28000 4.644
53.30000 5.687
53.32000 4.816
53.34000 5.822
53.36000 4.290
53.38000 5.105
53.40000 8.904
53.42000 5.628
53.44000 1.932
53.46000 3.817
53.48000 3.941
53.50000 5.897
53.52000 4.954
53.54000 2.345
53.56000 -1.820
53.58000 1.670
53.60000 3.772
53.62000 3.894
53.64000 5.022
53.66000 2.762
53.68000 -1.052
53.70000 -1.154
53.72000 0.950
53.74000 6.797
53.76000 6.224
53.78000 5.774
53.80000 4.366
53.82000 2.261
53.84000 -2.577
53.86000 0.491
53.88000 2.603
53.90000 2.323
53.92000 1.057
53.94000 3.692
53.96000 3.207
53.98000 6.930
54.00000 4.641
54.02000 4.631
54.04000 3.342
54.06000 0.299
54.08000 3.747
54.10000 4.024
54.12000 6.838
54.14000 7.827
54.16000 5.175
54.18000 3.875
54.20000 5.573
54.22000 6.318
54.24000 2.190
54.26000 2.660
54.28000 -1.806
54.30000 2.563
54.32000 3.321
54.34000 4.824
54.36000 4.259
54.38000 2.445
54.40000 1.785
54.42000 4.822
54.44000 7.033
54.46000 3.564
54.48000 3.201
54.50000 2.988
54.52000 3.189
54.54000 6.957
54.56000 4.848
54.58000 4.218
54.60000 4.643
54.62000 3.172
54.64000 3.106
54.66000 0.590
54.68000 3.997
54.70000 5.734
54.72000 8.504
54.74000 4.997
54.76000 2.623
54.78000 2.291
54.80000 4.376
54.82000 0.925
54.84000 1.464
54.86000 5.834
54.88000 7.453
54.90000 3.597
54.92000 0.640
54.94000 1.195
54.96000 2.810
54.98000 2.356
55.00000 3.263
55.02000 4.134
55.04000 0.660
55.06000 1.202
55.08000 3.723
55.10000 5.999
55.12000 10.930
55.14000 9.874
55.16000 7.715
55.18000 6.028
55.20000 4.726
55.22000 2.844
55.24000 6.745
55.26000 6.566
55.28000 6.979
55.30000 4.054
55.32000 4.539
55.34000 4.809
55.36000 3.219
55.38000 1.922
55.40000 -1.923
55.42000 -2.527
55.44000 4.230
55.46000 4.296
55.48000 5.157
55.50000 4.493
55.52000 5.758
55.54000 1.302
55.56000 1.306
55.58000 0.537
55.60000 0.976
55.62000 2.341
55.64000 3.048
55.66000 4.031
55.68000 3.219
55.70000 0.202
55.72000 1.188
55.74000 5.316
55.76000 5.131
55.78000 1.781
55.80000 5.028
55.82000 4.033
55.84000 1.009
55.86000 7.492
55.88000 7.892
55.90000 8.469
55.92000 6.673
55.94000 4.092
55.96000 4.935
55.98000 4.170
56.00000 4.435
56.02000 8.330
56.04000 5.115
56.06000 4.728
56.08000 4.024
56.10000 2.005
56.12000 0.768
56.14000 0.003
56.16000 1.389
56.18000 -1.948
56.20000 2.439
56.22000 -0.835
56.24000 3.445
56.26000 3.842
56.28000 4.736
56.30000 3.763
56.32000 2.115
56.34000 6.584
56.36000 4.402
56.38000 4.257
56.40000 4.534
56.42000 4.006
56.44000 -0.100
56.46000 1.091
56.48000 0.836
56.50000 3.662
56.52000 1.545
56.54000 5.872
56.56000 6.673
56.58000 7.226
56.60000 6.410
56.62000 2.008
56.64000 -2.520
56.66000 1.574
56.68000 -0.882
56.70000 1.286
56.72000 0.920
56.74000 2.760
56.76000 2.963
56.78000 6.486
56.80000 6.237
56.82000 5.831
56.84000 6.425
56.86000 2.287
56.88000 0.042
56.90000 3.956
56.92000 5.118
56.94000 2.885
56.96000 -0.365
56.98000 1.777
57.00000 3.079
57.02000 1.311
57.04000 0.455
57.06000 3.060
57.08000 2.458
57.10000 3.727
57.12000 -1.084
57.14000 1.160
57.16000 3.105
57.18000 4.258
57.20000 2.408
57.22000 2.841
57.24000 3.149
57.26000 4.368
57.28000 0.546
57.30000 -0.760
57.32000 -1.176
57.34000 1.432
57.36000 3.596
57.38000 3.545
57.40000 4.044
57.42000 2.080
57.44000 0.719
57.46000 3.252
57.48000 2.094
57.50000 -1.657
57.52000 1.843
57.54000 2.875
57.56000 3.242
57.58000 -2.500
57.60000 0.910
57.62000 0.179
57.64000 0.905
57.66000 1.933
57.68000 3.080
57.70000 3.678
57.72000 4.133
57.74000 5.414
57.76000 4.358
57.78000 3.296
57.80000 2.967
57.82000 2.431
57.84000 -0.876
57.86000 0.575
57.88000 1.671
57.90000 2.484
57.92000 2.728
57.94000 4.178
57.96000 1.600
57.98000 1.741
58.00000 1.945
58.02000 1.635
58.04000 1.437
58.06000 -0.815
58.08000 0.602
58.10000 1.333
58.12000 1.107
58.14000 1.683
58.16000 3.195
58.18000 -2.134
58.20000 -1.542
58.22000 0.245
58.24000 -2.461
58.26000 -1.107
58.28000 4.457
58.30000 5.412
58.32000 6.016
58.34000 3.359
58.36000 3.629
58.38000 2.163
58.40000 0.112
58.42000 6.423
58.44000 6.587
58.46000 4.062
58.48000 1.236
58.50000 -0.701
58.52000 1.321
58.54000 4.406
58.56000 2.001
58.58000 1.904
58.60000 2.034
58.62000 2.770
58.64000 3.947
58.66000 8.589
58.68000 8.201
58.70000 6.172
58.72000 2.851
58.74000 2.079
58.76000 5.561
58.78000 4.939
58.80000 2.276
58.82000 1.977
58.84000 3.482
58.86000 3.743
58.88000 0.102
58.90000 -0.673
58.92000 -2.436
58.94000 -0.679
58.96000 1.953
58.98000 4.105
59.00000 2.743
59.02000 4.084
59.04000 5.666
59.06000 6.530
59.08000 4.363
59.10000 1.972
59.12000 1.771
59.14000 2.788
59.16000 0.883
59.18000 -0.370
59.20000 1.746
59.22000 7.667
59.24000 7.801
59.26000 2.869
59.28000 0.195
59.30000 -0.447
59.32000 0.550
59.34000 1.019
59.36000 3.612
59.38000 3.710
59.40000 1.829
59.42000 -1.116
59.44000 1.710
59.46000 -1.481
59.48000 -1.024
59.50000 2.913
59.52000 4.286
59.54000 4.397
59.56000 5.350
59.58000 1.781
59.60000 2.543
59.62000 5.875
59.64000 -0.066
59.66000 -0.887
59.68000 -0.114
59.70000 4.345
59.72000 2.754
59.74000 -1.623
59.76000 -0.780
59.78000 2.438
59.80000 1.114
59.82000 0.249
59.84000 -0.069
59.86000 1.552
59.88000 1.162
59.90000 2.175
59.92000 3.541
59.94000 2.836
59.96000 4.928
59.98000 2.614
60.00000 2.147
60.02000 1.612
60.04000 9.580
60.06000 6.175
60.08000 1.154
60.10000 -1.013
60.12000 -1.089
60.14000 -2.077
60.16000 -2.432
60.18000 -1.977
60.20000 -1.315
60.22000 0.934
60.24000 4.837
60.26000 5.061
60.28000 3.173
60.30000 4.384
60.32000 0.678
60.34000 -1.526
60.36000 -1.672
60.38000 -1.209
60.40000 1.005
60.42000 -1.062
60.44000 0.275
60.46000 0.877
60.48000 1.924
60.50000 1.644
60.52000 -0.305
60.54000 1.634
60.56000 -0.988
60.58000 0.081
60.60000 0.656
60.62000 1.818
60.64000 -1.967
60.66000 -0.285
60.68000 0.904
60.70000 1.837
60.72000 -0.573
60.74000 3.358
60.76000 3.998
60.78000 2.315
60.80000 1.621
60.82000 -1.572
60.84000 0.443
60.86000 5.369
60.88000 1.384
60.90000 4.329
60.92000 5.624
60.94000 1.455
60.96000 -1.951
60.98000 -2.388
61.00000 -1.979
61.02000 -1.415
61.04000 0.478
61.06000 2.348
61.08000 4.213
61.10000 2.705
61.12000 3.651
61.14000 2.805
61.16000 1.852
61.18000 0.931
61.20000 0.363
61.22000 2.402
61.24000 3.651
61.26000 0.415
61.28000 2.239
61.30000 0.568
61.32000 3.705
61.34000 2.363
61.36000 3.637
61.38000 0.055
61.40000 -2.107
61.42000 0.837
61.44000 -0.252
61.46000 1.151
61.48000 2.584
61.50000 -0.816
61.52000 0.174
61.54000 -0.308
61.56000 2.732
61.58000 1.299
61.60000 0.320
61.62000 -0.752
61.64000 -1.867
61.66000 1.215
61.68000 2.608
61.70000 -0.477
61.72000 -0.619
61.74000 4.309
61.76000 6.568
61.78000 3.301
61.80000 2.826
61.82000 1.425
61.84000 -1.297
61.86000 -0.043
61.88000 -1.382
61.90000 -1.731
61.92000 3.843
61.94000 1.305
61.96000 0.250
61.98000 1.720
62.00000 0.755
62.02000 -0.850
62.04000 0.091
62.06000 2.191
62.08000 1.639
62.10000 6.645
62.12000 3.253
62.14000 -0.272
62.16000 -0.150
62.18000 -0.953
62.20000 3.756
62.22000 9.967
62.24000 5.491
62.26000 2.571
62.28000 2.849
62.30000 5.427
62.32000 1.550
62.34000 -2.332
62.36000 -1.750
62.38000 0.492
62.40000 0.721
62.42000 1.781
62.44000 1.116
62.46000 -0.668
62.48000 -1.401
62.50000 0.297
62.52000 3.888
62.54000 3.736
62.56000 -0.421
62.58000 4.196
62.60000 5.518
62.62000 4.551
62.64000 1.890
62.66000 6.809
62.68000 7.357
62.70000 3.246
62.72000 0.145
62.74000 4.038
62.76000 3.968
62.78000 -0.241
62.80000 0.552
62.82000 0.291
62.84000 2.170
62.86000 2.149
62.88000 -0.417
62.90000 -2.310
62.92000 2.954
62.94000 3.192
62.96000 2.510
62.98000 5.892
63.00000 5.404
63.02000 4.577
63.04000 2.179
63.06000 1.838
63.08000 0.374
63.10000 0.440
63.12000 1.162
63.14000 3.554
63.16000 4.180
63.18000 3.146
63.20000 1.434
63.22000 3.792
63.24000 3.795
63.26000 4.389
63.28000 1.809
63.30000 3.263
63.32000 4.245
63.34000 5.054
63.36000 0.371
63.38000 0.990
63.40000 4.341
63.42000 2.299
63.44000 -0.795
63.46000 4.499
63.48000 3.484
63.50000 -0.785
63.52000 2.621
63.54000 3.950
63.56000 2.116
63.58000 1.132
63.60000 5.890
63.62000 3.064
63.64000 1.514
63.66000 -1.205
63.68000 1.197
63.70000 3.437
63.72000 1.449
63.74000 0.862
63.76000 0.389
63.78000 -0.366
63.80000 1.372
63.82000 2.786
63.84000 2.408
63.86000 0.990
63.88000 2.622
63.90000 0.586
63.92000 1.099
63.94000 3.306
63.96000 1.893
63.98000 1.588
64.00000 2.575
64.02000 0.136
64.04000 -0.194
64.06000 1.733
64.08000 3.719
64.10000 2.983
64.12000 4.783
64.14000 4.556
64.16000 1.974
64.18000 3.885
64.20000 0.026
64.22000 -2.330
64.24000 -0.314
64.26000 0.808
64.28000 5.473
64.30000 4.548
64.32000 -0.257
64.34000 -0.975
64.36000 0.272
64.38000 0.967
64.40000 -0.432
64.42000 -0.538
64.44000 1.410
64.46000 3.180
64.48000 1.193
64.50000 0.249
64.52000 2.991
64.54000 2.335
64.56000 5.329
64.58000 0.829
64.60000 -0.055
64.62000 1.358
64.64000 3.208
64.66000 4.072
64.68000 0.183
64.70000 -1.252
64.72000 1.328
64.74000 -1.518
64.76000 -0.369
64.78000 -0.223
64.80000 2.628
64.82000 2.828
64.84000 2.511
64.86000 0.081
64.88000 1.801
64.90000 1.465
64.92000 -0.236
64.94000 0.915
64.96000 2.248
64.98000 1.623
65.00000 -0.090
65.02000 -0.572
65.04000 -1.197
65.06000 0.350
65.08000 0.646
65.10000 0.551
65.12000 -0.842
65.14000 -0.135
65.16000 0.914
65.18000 0.465
65.20000 0.217
65.22000 2.895
65.24000 3.536
65.26000 3.703
65.28000 1.903
65.30000 -0.389
65.32000 0.575
65.34000 -0.960
65.36000 2.048
65.38000 3.290
65.40000 4.195
65.42000 4.923
65.44000 4.832
65.46000 5.118
65.48000 2.188
65.50000 2.020
65.52000 3.937
65.54000 3.801
65.56000 3.102
65.58000 3.780
65.60000 2.763
65.62000 3.780
65.64000 5.639
65.66000 7.528
65.68000 4.193
65.70000 2.612
65.72000 1.241
65.74000 3.344
65.76000 3.804
65.78000 6.490
65.80000 3.534
65.82000 3.288
65.84000 3.437
65.86000 4.578
65.88000 3.860
65.90000 3.673
65.92000 3.630
65.94000 5.236
65.96000 4.732
65.98000 6.149
66.00000 4.861
66.02000 3.283
66.04000 5.376
66.06000 8.285
66.08000 4.748
66.10000 4.470
66.12000 4.693
66.14000 3.881
66.16000 2.690
66.18000 0.998
66.20000 -0.016
66.22000 -1.020
66.24000 1.580
66.26000 0.885
66.28000 1.825
66.30000 1.621
66.32000 3.867
66.34000 4.822
66.36000 5.171
66.38000 1.417
66.40000 1.379
66.42000 2.002
66.44000 3.513
66.46000 2.608
66.48000 0.808
66.50000 3.830
66.52000 1.995
66.54000 5.174
66.56000 4.042
66.58000 1.556
66.60000 1.614
66.62000 -0.256
66.64000 -2.296
66.66000 -0.416
66.68000 -0.059
66.70000 -0.787
66.72000 1.000
66.74000 1.915
66.76000 2.574
66.78000 1.610
66.80000 0.489
66.82000 0.123
66.84000 -0.701
66.86000 1.710
66.88000 4.288
66.90000 -0.423
66.92000 -1.494
66.94000 -0.407
66.96000 -2.270
66.98000 -0.352
67.00000 1.169
67.02000 1.275
67.04000 2.836
67.06000 3.190
67.08000 2.943
67.10000 -0.227
67.12000 -0.988
67.14000 1.479
67.16000 -1.385
67.18000 0.110
67.20000 2.761
67.22000 1.257
67.24000 -0.457
67.26000 -0.384
67.28000 3.458
67.30000 1.581
67.32000 1.828
67.34000 2.768
67.36000 2.580
67.38000 2.436
67.40000 2.501
67.42000 2.074
67.44000 3.620
67.46000 3.833
67.48000 4.067
67.50000 2.608
67.52000 1.296
67.54000 3.818
67.56000 0.114
67.58000 -1.334
67.60000 1.527
67.62000 1.681
67.64000 3.299
67.66000 4.381
67.68000 4.554
67.70000 5.439
67.72000 5.261
67.74000 2.833
67.76000 0.825
67.78000 1.706
67.80000 -0.008
67.82000 -2.216
67.84000 -0.990
67.86000 3.291
67.88000 5.031
67.90000 3.021
67.92000 0.953
67.94000 1.042
67.96000 4.765
67.98000 3.109
68.00000 4.199
68.02000 2.886
68.04000 3.030
68.06000 2.815
68.08000 2.392
68.10000 3.098
68.12000 2.131
68.14000 -1.455
68.16000 -1.732
68.18000 0.585
68.20000 3.179
68.22000 2.432
68.24000 1.507
68.26000 2.908
68.28000 0.823
68.30000 -0.621
68.32000 -2.208
68.34000 1.031
68.36000 0.243
68.38000 -0.059
68.40000 -0.421
68.42000 3.437
68.44000 1.145
68.46000 0.643
68.48000 1.539
68.50000 1.038
68.52000 1.333
68.54000 1.498
68.56000 0.521
68.58000 3.348
68.60000 2.318
68.62000 2.495
68.64000 1.434
68.66000 -1.283
68.68000 -1.472
68.70000 0.401
68.72000 -0.096
68.74000 1.080
68.76000 3.067
68.78000 2.274
68.80000 0.751
68.82000 -1.247
68.84000 -0.855
68.86000 -0.315
68.88000 0.377
68.90000 1.871
68.92000 2.974
68.94000 1.753
68.96000 1.714
68.98000 1.222
69.00000 0.921
69.02000 1.700
69.04000 2.439
69.06000 2.700
69.08000 2.991
69.10000 1.113
69.12000 2.109
69.14000 2.780
69.16000 0.021
69.18000 -1.037
69.20000 1.381
69.22000 0.326
69.24000 -1.007
69.26000 -1.867
69.28000 -0.612
69.30000 0.964
69.32000 1.186
69.34000 2.045
69.36000 0.736
69.38000 -1.160
69.40000 -1.354
69.42000 0.195
69.44000 2.009
69.46000 1.182
69.48000 2.264
69.50000 1.717
69.52000 -0.845
69.54000 -1.334
69.56000 -2.193
69.58000 0.601
69.60000 0.399
69.62000 -0.550
69.64000 -1.959
69.66000 -2.063
69.68000 -1.234
69.70000 -2.189
69.72000 -1.401
69.74000 1.119
69.76000 1.964
69.78000 -1.668
69.80000 0.354
69.82000 0.567
69.84000 3.018
69.86000 1.601
69.88000 -0.930
69.90000 -0.432
69.92000 -1.955
69.94000 1.266
69.96000 3.352
69.98000 0.290
70.00000 0.725
70.02000 -1.586
70.04000 -1.717
70.06000 1.235
70.08000 -1.410
70.10000 -2.095
70.12000 0.076
70.14000 2.672
70.16000 1.951
70.18000 2.019
70.20000 -0.895
70.22000 -0.718
70.24000 -0.269
70.26000 3.232
70.28000 6.650
70.30000 2.843
70.32000 2.426
70.34000 2.037
70.36000 1.893
70.38000 1.271
70.40000 -1.203
70.42000 -1.208
70.44000 2.103
70.46000 2.333
70.48000 1.524
70.50000 3.329
70.52000 4.243
70.54000 2.083
70.56000 1.421
70.58000 2.073
70.60000 2.509
70.62000 1.117
70.64000 1.035
70.66000 -0.540
70.68000 2.142
70.70000 4.019
70.72000 3.303
70.74000 0.215
70.76000 -0.596
70.78000 2.063
70.80000 5.162
70.82000 5.201
70.84000 2.420
70.86000 2.872
70.88000 2.791
70.90000 3.734
70.92000 3.847
70.94000 1.837
70.96000 6.561
70.98000 3.206
71.00000 0.943
71.02000 0.411
71.04000 1.023
71.06000 2.650
71.08000 3.224
71.10000 6.632
71.12000 3.702
71.14000 4.473
71.16000 3.304
71.18000 1.791
71.20000 3.984
71.22000 5.747
71.24000 3.223
71.26000 -0.540
71.28000 -2.063
71.30000 1.040
71.32000 0.543
71.34000 0.939
71.36000 1.370
71.38000 2.611
71.40000 0.954
71.42000 0.192
71.44000 3.309
71.46000 4.619
71.48000 2.268
71.50000 2.529
71.52000 4.527
71.54000 5.094
71.56000 4.742
71.58000 2.252
71.60000 3.809
71.62000 2.349
71.64000 2.079
71.66000 2.864
71.68000 2.349
71.70000 6.693
71.72000 3.904
71.74000 2.982
71.76000 5.705
71.78000 0.466
71.80000 0.687
71.82000 2.085
71.84000 6.285
71.86000 5.628
71.88000 1.187
71.90000 -1.238
71.92000 -1.015
71.94000 1.151
71.96000 1.172
71.98000 3.163
72.00000 5.176
72.02000 6.711
72.04000 2.870
72.06000 -0.122
72.08000 0.493
72.10000 1.108
72.12000 2.857
72.14000 0.200
72.16000 1.760
72.18000 1.205
72.20000 -1.465
72.22000 1.449
72.24000 3.767
72.26000 0.477
72.28000 -0.245
72.30000 1.933
72.32000 1.260
72.34000 0.278
72.36000 3.570
72.38000 3.390
72.40000 -1.028
72.42000 -1.182
72.44000 -2.015
72.46000 -0.454
72.48000 1.338
72.50000 2.972
72.52000 2.627
72.54000 2.119
72.56000 4.828
72.58000 2.592
72.60000 -1.142
72.62000 -2.023
72.64000 0.227
72.66000 1.735
72.68000 -0.971
72.70000 2.078
72.72000 2.340
72.74000 -2.043
72.76000 0.199
72.78000 3.263
72.80000 2.625
72.82000 1.104
72.84000 -0.453
72.86000 2.042
72.88000 2.771
72.90000 1.072
72.92000 2.589
72.94000 0.837
72.96000 -1.875
72.98000 0.578
73.00000 2.233
73.02000 2.188
73.04000 2.283
73.06000 5.617
73.08000 4.423
73.10000 3.875
73.12000 2.740
73.14000 3.579
73.16000 1.426
73.18000 0.334
73.20000 2.062
73.22000 1.172
73.24000 1.042
73.26000 -1.840
73.28000 0.133
73.30000 2.635
73.32000 0.392
73.34000 -0.187
73.36000 4.995
73.38000 6.549
73.40000 4.398
73.42000 4.600
73.44000 3.514
73.46000 3.277
73.48000 7.467
73.50000 2.410
73.52000 2.783
73.54000 0.805
73.56000 1.614
73.58000 3.297
73.60000 3.033
73.62000 1.133
73.64000 3.408
73.66000 4.805
73.68000 1.611
73.70000 1.320
73.72000 0.370
73.74000 1.799
73.76000 1.422
73.78000 0.653
73.80000 -0.535
73.82000 2.544
73.84000 3.943
73.86000 6.237
73.88000 4.341
73.90000 3.281
73.92000 5.923
73.94000 4.799
73.96000 1.087
73.98000 0.249
74.00000 5.800
74.02000 5.376
74.04000 3.656
74.06000 2.987
74.08000 3.397
74.10000 2.194
74.12000 2.708
74.14000 2.438
74.16000 1.271
74.18000 1.082
74.20000 -0.320
74.22000 -2.013
74.24000 0.183
74.26000 -0.070
74.28000 3.200
74.30000 0.430
74.32000 1.361
74.34000 2.774
74.36000 2.104
74.38000 1.604
74.40000 2.358
74.42000 2.577
74.44000 1.755
74.46000 1.997
74.48000 2.712
74.50000 5.266
74.52000 7.524
74.54000 5.884
74.56000 5.430
74.58000 2.605
74.60000 0.025
74.62000 -1.758
74.64000 0.558
74.66000 3.896
74.68000 5.036
74.70000 4.571
74.72000 3.934
74.74000 4.027
74.76000 3.449
74.78000 4.580
74.80000 4.600
74.82000 1.851
74.84000 1.972
74.86000 1.177
74.88000 -0.324
74.90000 -0.779
74.92000 -0.006
74.94000 1.588
74.96000 -0.361
74.98000 -0.812
75.00000 -1.442
75.02000 -0.378
75.04000 0.167
75.06000 0.884
75.08000 2.347
75.10000 2.602
75.12000 0.085
75.14000 3.013
75.16000 2.469
75.18000 2.856
75.20000 3.868
75.22000 3.375
75.24000 0.696
75.26000 -0.018
75.28000 1.818
75.30000 2.590
75.32000 2.937
75.34000 4.878
75.36000 3.117
75.38000 2.472
75.40000 -0.386
75.42000 3.092
75.44000 2.384
75.46000 1.655
75.48000 2.028
75.50000 0.829
75.52000 -1.146
75.54000 -0.204
75.56000 3.522
75.58000 6.414
75.60000 7.407
75.62000 5.839
75.64000 3.319
75.66000 -0.044
75.68000 4.218
75.70000 1.022
75.72000 -1.128
75.74000 -2.054
75.76000 0.852
75.78000 1.278
75.80000 -0.005
75.82000 1.987
75.84000 3.151
75.86000 5.007
75.88000 7.014
75.90000 5.110
75.92000 4.931
75.94000 6.597
75.96000 3.560
75.98000 1.004
76.00000 1.177
76.02000 3.011
76.04000 4.042
76.06000 4.922
76.08000 3.125
76.10000 2.645
76.12000 2.131
76.14000 0.519
76.16000 0.116
76.18000 2.029
76.20000 5.454
76.22000 7.740
76.24000 6.849
76.26000 6.174
76.28000 4.103
76.30000 1.323
76.32000 3.176
76.34000 5.160
76.36000 3.668
76.38000 2.102
76.40000 0.706
76.42000 1.420
76.44000 4.803
76.46000 7.663
76.48000 5.550
76.50000 2.656
76.52000 2.793
76.54000 1.345
76.56000 1.891
76.58000 -2.050
76.60000 1.449
76.62000 4.022
76.64000 7.401
76.66000 9.137
76.68000 8.137
76.70000 4.335
76.72000 4.438
76.74000 3.920
76.76000 2.518
76.78000 3.910
76.80000 3.485
76.82000 1.103
76.84000 2.322
76.86000 -0.643
76.88000 2.110
76.90000 1.851
76.92000 2.637
76.94000 4.439
76.96000 3.054
76.98000 4.339
77.00000 6.160
77.02000 3.717
77.04000 3.777
77.06000 3.327
77.08000 0.943
77.10000 2.068
77.12000 -0.254
77.14000 2.102
77.16000 3.257
77.18000 3.502
77.20000 4.078
77.22000 0.955
77.24000 -0.198
77.26000 -1.138
77.28000 2.050
77.30000 -1.325
77.32000 -0.651
77.34000 4.182
77.36000 7.697
77.38000 2.568
77.40000 2.779
77.42000 2.795
77.44000 3.859
77.46000 2.805
77.48000 0.600
77.50000 1.059
77.52000 1.837
77.54000 3.764
77.56000 0.555
77.58000 1.638
77.60000 3.513
77.62000 4.393
77.64000 -2.166
77.66000 3.490
77.68000 5.319
77.70000 3.643
77.72000 2.698
77.74000 3.546
77.76000 2.894
77.78000 -0.476
77.80000 1.704
77.82000 1.473
77.84000 -0.102
77.86000 2.658
77.88000 2.395
77.90000 3.534
77.92000 2.404
77.94000 2.015
77.96000 1.549
77.98000 0.153
78.00000 4.141
78.02000 2.885
78.04000 3.777
78.06000 6.307
78.08000 3.410
78.10000 2.858
78.12000 3.180
78.14000 4.360
78.16000 5.522
78.18000 4.698
78.20000 1.763
78.22000 1.225
78.24000 3.187
78.26000 4.751
78.28000 5.191
78.30000 6.240
78.32000 5.682
78.34000 5.686
78.36000 4.030
78.38000 7.937
78.40000 8.491
78.42000 4.682
78.44000 7.198
78.46000 5.561
78.48000 5.657
78.50000 8.203
78.52000 9.902
78.54000 8.047
78.56000 8.888
78.58000 8.449
78.60000 9.161
78.62000 10.131
78.64000 12.320
78.66000 15.292
78.68000 12.668
78.70000 10.526
78.72000 11.436
78.74000 15.274
78.76000 17.855
78.78000 17.729
78.80000 15.591
78.82000 18.201
78.84000 17.904
78.86000 17.561
78.88000 20.191
78.90000 16.903
78.92000 23.871
78.94000 20.655
78.96000 23.640
78.98000 27.765
79.00000 26.981
79.02000 25.167
79.04000 25.949
79.06000 23.925
79.08000 25.674
79.10000 24.213
79.12000 25.628
79.14000 26.309
79.16000 23.494
79.18000 22.400
79.20000 18.847
79.22000 22.040
79.24000 22.922
79.26000 24.095
79.28000 23.058
79.30000 25.227
79.32000 27.003
79.34000 28.484
79.36000 27.577
79.38000 28.594
79.40000 26.112
79.42000 21.210
79.44000 17.833
79.46000 20.100
79.48000 19.697
79.50000 15.929
79.52000 19.761
79.54000 21.754
79.56000 14.385
79.58000 13.748
79.60000 11.831
79.62000 11.755
79.64000 15.361
79.66000 16.571
79.68000 12.928
79.70000 9.435
79.72000 9.931
79.74000 11.250
79.76000 12.164
79.78000 12.277
79.80000 11.928
79.82000 7.105
79.84000 6.367
79.86000 5.322
79.88000 0.469
79.90000 4.361
79.92000 6.362
79.94000 6.515
79.96000 4.886
79.98000 5.664
80.00000 7.261
80.02000 6.591
80.04000 4.727
80.06000 6.193
80.08000 4.990
80.10000 3.364
80.12000 1.499
80.14000 2.453
80.16000 0.880
80.18000 1.570
80.20000 3.139
80.22000 5.000
80.24000 3.662
80.26000 3.554
80.28000 2.767
80.30000 5.765
80.32000 4.774
80.34000 6.037
80.36000 5.174
80.38000 2.794
80.40000 -1.528
80.42000 3.439
80.44000 5.200
80.46000 5.259
80.48000 4.850
80.50000 3.951
80.52000 2.170
80.54000 -1.000
80.56000 -0.944
80.58000 3.453
80.60000 4.531
80.62000 2.872
80.64000 1.874
80.66000 -2.343
80.68000 3.827
80.70000 5.996
80.72000 2.095
80.74000 2.583
80.76000 2.455
80.78000 3.091
80.80000 2.793
80.82000 1.058
80.84000 1.843
80.86000 3.232
80.88000 2.224
80.90000 2.794
80.92000 0.374
80.94000 -0.213
80.96000 0.489
80.98000 -0.518
81.00000 -1.858
81.02000 1.136
81.04000 5.176
81.06000 3.456
81.08000 2.933
81.10000 4.804
81.12000 2.196
81.14000 0.790
81.16000 -0.038
81.18000 2.810
81.20000 5.526
81.22000 1.073
81.24000 -1.408
81.26000 0.369
81.28000 0.108
81.30000 0.583
81.32000 -2.387
81.34000 -1.094
81.36000 0.419
81.38000 1.066
81.40000 1.582
81.42000 3.752
81.44000 0.342
81.46000 3.085
81.48000 2.138
81.50000 1.515
81.52000 3.421
81.54000 3.427
81.56000 4.148
81.58000 2.144
81.60000 -0.830
81.62000 -2.399
81.64000 -0.659
81.66000 1.800
81.68000 4.394
81.70000 4.122
81.72000 3.228
81.74000 4.709
81.76000 4.513
81.78000 4.364
81.80000 5.882
81.82000 6.640
81.84000 8.207
81.86000 7.952
81.88000 8.883
81.90000 7.241
81.92000 3.504
81.94000 6.932
81.96000 7.252
81.98000 4.019
82.00000 6.543
82.02000 6.192
82.04000 9.934
82.06000 13.307
82.08000 12.524
82.10000 12.770
82.12000 12.181
82.14000 9.337
82.16000 8.166
82.18000 9.300
82.20000 9.066
82.22000 9.944
82.24000 13.997
82.26000 18.113
82.28000 15.925
82.30000 16.587
82.32000 16.089
82.34000 17.042
82.36000 17.907
82.38000 17.455
82.40000 18.711
82.42000 22.180
82.44000 24.092
82.46000 22.073
82.48000 24.002
82.50000 25.674
82.52000 29.413
82.54000 33.016
82.56000 32.809
82.58000 31.950
82.60000 37.079
82.62000 40.666
82.64000 39.143
82.66000 40.296
82.68000 43.453
82.70000 45.362
82.72000 45.578
82.74000 48.285
82.76000 48.751
82.78000 52.520
82.80000 53.323
82.82000 59.900
82.84000 63.312
82.86000 62.529
82.88000 66.216
82.90000 64.309
82.92000 68.474
82.94000 72.343
82.96000 74.430
82.98000 75.436
83.00000 80.448
83.02000 82.016
83.04000 81.432
83.06000 80.448
83.08000 85.753
83.10000 89.382
83.12000 86.605
83.14000 91.587
83.16000 97.616
83.18000 97.591
83.20000 99.446
83.22000 95.157
83.24000 97.355
83.26000 97.250
83.28000 100.719
83.30000 102.257
83.32000 97.684
83.34000 104.473
83.36000 105.227
83.38000 102.477
83.40000 97.379
83.42000 91.843
83.44000 92.501
83.46000 89.493
83.48000 90.452
83.50000 85.434
83.52000 86.671
83.54000 80.412
83.56000 77.362
83.58000 80.870
83.60000 75.335
83.62000 69.483
83.64000 67.317
83.66000 65.338
83.68000 59.051
83.70000 54.445
83.72000 60.438
83.74000 56.757
83.76000 51.980
83.78000 49.514
83.80000 45.141
83.82000 43.279
83.84000 42.698
83.86000 41.240
83.88000 38.552
83.90000 34.658
83.92000 29.000
83.94000 24.444
83.96000 24.185
83.98000 27.063
84.00000 29.235
84.02000 24.607
84.04000 19.375
84.06000 17.112
84.08000 21.105
84.10000 17.214
84.12000 14.986
84.14000 18.923
84.16000 20.465
84.18000 14.802
84.20000 10.976
84.22000 9.769
84.24000 11.773
84.26000 9.145
84.28000 9.262
84.30000 9.895
84.32000 9.528
84.34000 5.956
84.36000 6.069
84.38000 9.082
84.40000 8.405
84.42000 8.123
84.44000 9.529
84.46000 7.729
84.48000 8.118
84.50000 8.238
84.52000 8.216
84.54000 7.328
84.56000 2.268
84.58000 0.441
84.60000 1.811
84.62000 3.731
84.64000 3.712
84.66000 1.857
84.68000 1.296
84.70000 5.486
84.72000 2.232
84.74000 -0.329
84.76000 -2.216
84.78000 0.171
84.80000 1.022
84.82000 1.316
84.84000 3.195
84.86000 1.371
84.88000 -0.165
84.90000 3.003
84.92000 6.168
84.94000 3.900
84.96000 1.445
84.98000 -0.848
85.00000 0.724
85.02000 2.402
85.04000 0.016
85.06000 -0.244
85.08000 0.137
85.10000 3.409
85.12000 4.880
85.14000 -1.778
85.16000 -1.729
85.18000 2.018
85.20000 0.919
85.22000 -0.319
85.24000 0.786
85.26000 1.695
85.28000 1.422
85.30000 1.493
85.32000 2.206
85.34000 -1.531
85.36000 -0.653
85.38000 -1.219
85.40000 0.638
85.42000 0.802
85.44000 -1.362
85.46000 -2.096
85.48000 -1.064
85.50000 -1.460
85.52000 1.264
85.54000 0.200
85.56000 1.542
85.58000 4.904
85.60000 2.323
85.62000 0.464
85.64000 1.667
85.66000 3.354
85.68000 0.459
85.70000 0.888
85.72000 2.537
85.74000 2.994
85.76000 2.439
85.78000 0.632
85.80000 -1.014
85.82000 1.304
85.84000 1.812
85.86000 0.464
85.88000 -0.533
85.90000 1.419
85.92000 1.669
85.94000 5.687
85.96000 3.043
85.98000 2.920
86.00000 3.930
86.02000 1.953
86.04000 1.416
86.06000 -0.539
86.08000 -0.225
86.10000 -1.469
86.12000 -0.095
86.14000 0.949
86.16000 4.700
86.18000 3.781
86.20000 1.217
86.22000 0.294
86.24000 2.765
86.26000 -1.981
86.28000 -0.477
86.30000 1.748
86.32000 0.805
86.34000 1.867
86.36000 2.844
86.38000 4.465
86.40000 4.656
86.42000 4.188
86.44000 3.909
86.46000 4.568
86.48000 4.458
86.50000 7.126
86.52000 4.797
86.54000 6.291
86.56000 5.249
86.58000 0.493
86.60000 -0.135
86.62000 1.213
86.64000 4.669
86.66000 5.718
86.68000 1.979
86.70000 3.359
86.72000 4.725
86.74000 3.199
86.76000 1.636
86.78000 2.593
86.80000 2.500
86.82000 -0.488
86.84000 -1.494
86.86000 1.718
86.88000 2.218
86.90000 -0.328
86.92000 1.666
86.94000 3.671
86.96000 3.079
86.98000 3.209
87.00000 2.898
87.02000 -1.297
87.04000 0.928
87.06000 -0.521
87.08000 1.443
87.10000 -0.436
87.12000 -1.782
87.14000 0.142
87.16000 3.896
87.18000 4.750
87.20000 3.998
87.22000 3.115
87.24000 5.387
87.26000 2.870
87.28000 1.794
87.30000 1.389
87.32000 0.496
87.34000 -1.763
87.36000 -1.956
87.38000 0.470
87.40000 -0.411
87.42000 1.599
87.44000 4.114
87.46000 3.502
87.48000 0.176
87.50000 2.665
87.52000 1.915
87.54000 3.511
87.56000 3.464
87.58000 3.434
87.60000 3.059
87.62000 1.609
87.64000 3.191
87.66000 4.055
87.68000 1.074
87.70000 -1.937
87.72000 2.045
87.74000 5.322
87.76000 0.819
87.78000 -1.491
87.80000 -0.689
87.82000 1.415
87.84000 4.201
87.86000 1.215
87.88000 2.942
87.90000 5.584
87.92000 6.313
87.94000 3.308
87.96000 3.102
87.98000 3.720
88.00000 3.457
88.02000 1.839
88.04000 -0.248
88.06000 -1.333
88.08000 3.027
88.10000 3.955
88.12000 2.262
88.14000 0.855
88.16000 -0.924
88.18000 2.289
88.20000 3.404
88.22000 0.109
88.24000 3.341
88.26000 2.851
88.28000 0.346
88.30000 -1.540
88.32000 -1.945
88.34000 -1.166
88.36000 0.225
88.38000 1.578
88.40000 1.741
88.42000 0.501
88.44000 3.627
88.46000 3.447
88.48000 -1.165
88.50000 1.258
88.52000 2.207
88.54000 6.611
88.56000 1.562
88.58000 0.685
88.60000 4.139
88.62000 4.734
88.64000 0.203
88.66000 -0.749
88.68000 -0.478
88.70000 -0.170
88.72000 -0.730
88.74000 -0.931
88.76000 2.919
88.78000 -0.298
88.80000 -0.913
88.82000 0.261
88.84000 2.597
88.86000 2.589
88.88000 0.888
88.90000 -0.565
88.92000 -0.457
88.94000 0.815
88.96000 0.879
88.98000 0.318
89.00000 4.361
89.02000 3.236
89.04000 1.193
89.06000 1.656
89.08000 1.886
89.10000 -1.920
89.12000 3.462
89.14000 3.483
89.16000 6.400
89.18000 5.246
89.20000 2.423
89.22000 1.024
89.24000 1.492
89.26000 -0.054
89.28000 -0.158
89.30000 -0.999
89.32000 1.364
89.34000 0.672
89.36000 0.753
89.38000 1.340
89.40000 3.153
89.42000 3.174
89.44000 4.699
89.46000 4.661
89.48000 1.904
89.50000 0.487
89.52000 0.447
89.54000 1.469
89.56000 4.538
89.58000 7.241
89.60000 2.018
89.62000 0.086
89.64000 -0.099
89.66000 2.979
89.68000 4.906
89.70000 5.886
89.72000 5.201
89.74000 5.877
89.76000 3.941
89.78000 3.960
89.80000 1.445
89.82000 4.618
89.84000 5.256
89.86000 4.451
89.88000 3.617
89.90000 3.341
89.92000 2.298
89.94000 4.253
89.96000 8.072
89.98000 5.945
90.00000 2.063
90.02000 1.975
90.04000 1.732
90.06000 -0.556
90.08000 -1.862
90.10000 0.616
90.12000 3.749
90.14000 4.315
90.16000 3.681
90.18000 7.325
90.20000 8.087
90.22000 5.336
90.24000 2.638
90.26000 4.861
90.28000 6.278
90.30000 5.022
90.32000 2.836
90.34000 2.908
90.36000 2.799
90.38000 2.579
90.40000 5.969
90.42000 4.784
90.44000 7.412
90.46000 6.001
90.48000 2.674
90.50000 6.433
90.52000 5.572
90.54000 6.061
90.56000 4.953
90.58000 4.586
90.60000 3.658
90.62000 2.176
90.64000 2.762
90.66000 3.186
90.68000 5.292
90.70000 3.780
90.72000 1.933
90.74000 2.547
90.76000 3.435
90.78000 3.507
90.80000 4.611
90.82000 4.418
90.84000 2.157
90.86000 1.759
90.88000 0.101
90.90000 1.950
90.92000 5.668
90.94000 6.159
90.96000 3.643
90.98000 2.527
91.00000 4.387
91.02000 3.644
91.04000 -0.672
91.06000 0.863
91.08000 0.027
91.10000 2.210
91.12000 3.772
91.14000 6.766
91.16000 8.379
91.18000 -0.245
91.20000 -1.079
91.22000 -1.901
91.24000 -1.374
91.26000 2.782
91.28000 3.273
91.30000 2.613
91.32000 1.811
91.34000 -1.086
91.36000 -1.496
91.38000 -0.219
91.40000 2.121
91.42000 2.236
91.44000 3.144
91.46000 1.811
91.48000 4.248
91.50000 8.267
91.52000 6.234
91.54000 3.676
91.56000 2.488
91.58000 5.558
91.60000 4.037
91.62000 3.485
91.64000 4.852
91.66000 -1.898
91.68000 -0.410
91.70000 6.048
91.72000 8.166
91.74000 -0.965
91.76000 -1.904
91.78000 3.229
91.80000 0.551
91.82000 0.913
91.84000 6.173
91.86000 5.508
91.88000 4.807
91.90000 0.661
91.92000 2.145
91.94000 3.367
91.96000 3.805
91.98000 4.651
92.00000 2.690
92.02000 3.105
92.04000 6.637
92.06000 6.167
92.08000 2.073
92.10000 1.885
92.12000 0.890
92.14000 2.205
92.16000 -0.309
92.18000 2.592
92.20000 3.266
92.22000 5.573
92.24000 4.035
92.26000 4.042
92.28000 1.496
92.30000 2.470
92.32000 1.792
92.34000 0.213
92.36000 -1.619
92.38000 -0.012
92.40000 3.103
92.42000 1.794
92.44000 -0.716
92.46000 -1.924
92.48000 1.667
92.50000 1.390
92.52000 -1.500
92.54000 2.153
92.56000 1.485
92.58000 2.534
92.60000 1.767
92.62000 2.266
92.64000 2.437
92.66000 4.142
92.68000 2.433
92.70000 -0.872
92.72000 1.405
92.74000 5.445
92.76000 0.241
92.78000 1.448
92.80000 1.026
92.82000 2.238
92.84000 3.941
92.86000 3.846
92.88000 4.866
92.90000 3.827
92.92000 2.751
92.94000 -1.582
92.96000 -0.600
92.98000 1.892
93.00000 0.825
93.02000 3.263
93.04000 4.623
93.06000 3.537
93.08000 -0.713
93.10000 2.400
93.12000 2.779
93.14000 3.142
93.16000 2.921
93.18000 1.887
93.20000 4.184
93.22000 4.718
93.24000 3.740
93.26000 2.911
93.28000 5.036
93.30000 5.147
93.32000 5.478
93.34000 4.438
93.36000 3.866
93.38000 2.817
93.40000 2.269
93.42000 2.411
93.44000 3.310
93.46000 2.053
93.48000 3.074
93.50000 2.112
93.52000 1.887
93.54000 -1.898
93.56000 -0.005
93.58000 3.206
93.60000 3.615
93.62000 0.398
93.64000 5.570
93.66000 5.958
93.68000 4.288
93.70000 1.764
93.72000 2.706
93.74000 4.716
93.76000 5.691
93.78000 3.138
93.80000 2.746
93.82000 5.252
93.84000 4.827
93.86000 3.282
93.88000 3.806
93.90000 3.382
93.92000 1.722
93.94000 1.702
93.96000 4.286
93.98000 4.161
94.00000 5.762
94.02000 3.922
94.04000 2.864
94.06000 0.927
94.08000 2.895
94.10000 4.733
94.12000 6.721
94.14000 3.451
94.16000 0.440
94.18000 -1.581
94.20000 1.060
94.22000 2.041
94.24000 1.706
94.26000 4.075
94.28000 1.495
94.30000 -0.006
94.32000 2.783
94.34000 7.552
94.36000 7.162
94.38000 2.125
94.40000 -1.302
94.42000 0.240
94.44000 3.795
94.46000 2.389
94.48000 4.237
94.50000 -0.089
94.52000 2.865
94.54000 4.610
94.56000 0.195
94.58000 -1.528
94.60000 2.150
94.62000 4.807
94.64000 4.265
94.66000 5.948
94.68000 6.642
94.70000 4.765
94.72000 2.435
94.74000 -0.836
94.76000 0.822
94.78000 2.162
94.80000 4.391
94.82000 4.708
94.84000 5.694
94.86000 4.819
94.88000 4.228
94.90000 2.748
94.92000 -0.176
94.94000 0.924
94.96000 0.452
94.98000 0.674
95.00000 0.973
95.02000 0.939
95.04000 1.722
95.06000 2.782
95.08000 3.499
95.10000 0.667
95.12000 0.424
95.14000 1.275
95.16000 0.153
95.18000 5.780
95.20000 5.093
95.22000 7.239
95.24000 5.790
95.26000 4.392
95.28000 6.689
95.30000 6.242
95.32000 2.156
95.34000 3.142
95.36000 4.828
95.38000 3.159
95.40000 3.277
95.42000 5.614
95.44000 2.936
95.46000 0.058
95.48000 2.386
95.50000 0.373
95.52000 2.401
95.54000 8.123
95.56000 7.120
95.58000 3.544
95.60000 -0.129
95.62000 -1.907
95.64000 2.019
95.66000 4.619
95.68000 4.209
95.70000 3.816
95.72000 2.806
95.74000 1.663
95.76000 4.918
95.78000 6.922
95.80000 6.419
95.82000 3.109
95.84000 3.965
95.86000 4.770
95.88000 6.176
95.90000 1.677
95.92000 0.927
95.94000 0.029
95.96000 3.312
95.98000 8.596
96.00000 2.929
96.02000 4.573
96.04000 0.684
96.06000 2.916
96.08000 4.326
96.10000 1.410
96.12000 4.418
96.14000 4.220
96.16000 2.440
96.18000 4.385
96.20000 6.860
96.22000 8.363
96.24000 8.816
96.26000 2.221
96.28000 1.100
96.30000 5.347
96.32000 2.387
96.34000 -1.914
96.36000 1.463
96.38000 4.768
96.40000 0.007
96.42000 1.604
96.44000 4.371
96.46000 6.259
96.48000 4.711
96.50000 -0.828
96.52000 -1.294
96.54000 3.583
96.56000 9.843
96.58000 7.433
96.60000 5.335
96.62000 0.875
96.64000 4.267
96.66000 6.339
96.68000 2.035
96.70000 1.790
96.72000 5.180
96.74000 5.174
96.76000 4.877
96.78000 3.396
96.80000 2.201
96.82000 1.598
96.84000 1.701
96.86000 4.552
96.88000 5.669
96.90000 2.610
96.92000 4.236
96.94000 6.014
96.96000 1.210
96.98000 -1.910
97.00000 -1.132
97.02000 -0.701
97.04000 3.238
97.06000 3.070
97.08000 5.606
97.10000 4.162
97.12000 0.326
97.14000 3.809
97.16000 6.795
97.18000 5.372
97.20000 4.797
97.22000 4.126
97.24000 2.250
97.26000 4.444
97.28000 4.741
97.30000 4.589
97.32000 9.390
97.34000 3.174
97.36000 6.844
97.38000 8.596
97.40000 3.542
97.42000 2.328
97.44000 1.298
97.46000 6.869
97.48000 3.215
97.50000 7.464
97.52000 7.845
97.54000 8.003
97.56000 3.519
97.58000 -1.349
97.60000 2.491
97.62000 3.061
97.64000 2.278
97.66000 2.543
97.68000 -0.101
97.70000 4.886
97.72000 8.878
97.74000 3.906
97.76000 -1.542
97.78000 -1.907
97.80000 2.313
97.82000 4.832
97.84000 2.542
97.86000 5.762
97.88000 8.009
97.90000 4.784
97.92000 3.921
97.94000 2.290
97.96000 2.023
97.98000 -0.628
98.00000 1.187
98.02000 8.329
98.04000 7.331
98.06000 3.895
98.08000 0.821
98.10000 4.362
98.12000 2.672
98.14000 3.362
98.16000 4.516
98.18000 6.008
98.20000 1.419
98.22000 -1.276
98.24000 2.803
98.26000 3.083
98.28000 1.962
98.30000 1.195
98.32000 5.083
98.34000 5.449
98.36000 1.072
98.38000 -1.524
98.40000 0.303
98.42000 0.163
98.44000 4.044
98.46000 2.381
98.48000 6.475
98.50000 9.315
98.52000 2.163
98.54000 -1.008
98.56000 2.628
98.58000 4.040
98.60000 7.595
98.62000 6.637
98.64000 8.256
98.66000 12.351
98.68000 10.437
98.70000 2.937
98.72000 -0.438
98.74000 5.528
98.76000 5.754
98.78000 10.092
98.80000 9.813
98.82000 6.950
98.84000 2.987
98.86000 8.909
98.88000 10.938
98.90000 10.162
98.92000 9.490
98.94000 1.810
98.96000 2.440
98.98000 4.045
99.00000 -1.827
99.02000 3.473
99.04000 5.258
99.06000 9.990
99.08000 10.363
99.10000 5.306
99.12000 10.741
99.14000 2.925
99.16000 0.075
99.18000 0.931
99.20000 3.582
99.22000 3.374
99.24000 3.715
99.26000 1.479
99.28000 8.390
99.30000 12.507
99.32000 7.904
99.34000 2.981
99.36000 8.851
99.38000 10.904
99.40000 3.484
99.42000 5.172
99.44000 7.227
99.46000 7.670
99.48000 9.013
99.50000 4.647
99.52000 8.209
99.54000 4.729
99.56000 2.546
99.58000 3.767
99.60000 3.235
99.62000 3.200
99.64000 8.443
99.66000 12.765
99.68000 7.812
99.70000 2.813
99.72000 7.716
99.74000 10.123
99.76000 4.837
99.78000 -1.899
99.80000 -0.881
99.82000 8.544
99.84000 11.317
99.86000 9.121
99.88000 9.804
99.90000 0.657
99.92000 7.113
99.94000 1.487
99.96000 -5.577
99.98000 0.000
