'Id: "0011389" Comment: "Integrate frame 0011389_Au-Ir-Rh_Au-Rich_XRD_Mapping-297-0000.gfrmwith cursor Wedge Cursor #5" Operator: "B?rgel" Anode: "Cu" Wavelength: "1.5406" Scantype: "2Theta (TwoTheta)" TimePerStep: "1" X: "-27" Y: "31.5" Z: "5.95" 
10.00000 0.000
10.02000 9.248
10.04000 -4.628
10.06000 0.627
10.08000 3.348
10.10000 -2.146
10.12000 -0.687
10.14000 4.145
10.16000 26.496
10.18000 34.180
10.20000 11.050
10.22000 6.030
10.24000 16.903
10.26000 16.820
10.28000 10.559
10.30000 6.131
10.32000 9.491
10.34000 13.926
10.36000 25.770
10.38000 8.491
10.40000 -1.821
10.42000 20.063
10.44000 10.330
10.46000 2.654
10.48000 4.580
10.50000 18.794
10.52000 11.975
10.54000 14.717
10.56000 18.586
10.58000 16.729
10.60000 28.904
10.62000 32.263
10.64000 29.147
10.66000 6.153
10.68000 -2.183
10.70000 17.715
10.72000 27.445
10.74000 34.710
10.76000 -0.315
10.78000 -0.927
10.80000 1.831
10.82000 18.208
10.84000 20.965
10.86000 14.734
10.88000 7.414
10.90000 19.570
10.92000 31.616
10.94000 25.342
10.96000 20.313
10.98000 -4.542
11.00000 -4.176
11.02000 12.414
11.04000 21.421
11.06000 11.866
11.08000 23.196
11.10000 25.920
11.12000 3.530
11.14000 18.433
11.16000 22.167
11.18000 14.153
11.20000 18.597
11.22000 7.224
11.24000 7.893
11.26000 25.095
11.28000 28.858
11.30000 19.205
11.32000 18.366
11.34000 1.002
11.36000 -1.723
11.38000 7.314
11.40000 10.941
11.42000 23.924
11.44000 19.000
11.46000 14.290
11.48000 6.026
11.50000 7.542
11.52000 20.809
11.54000 13.250
11.56000 20.889
11.58000 20.131
11.60000 19.041
11.62000 17.338
11.64000 12.599
11.66000 26.082
11.68000 21.924
11.70000 8.926
11.72000 5.272
11.74000 12.801
11.76000 18.035
11.78000 20.776
11.80000 18.280
11.82000 20.922
11.84000 14.193
11.86000 5.975
11.88000 7.369
11.90000 0.910
11.92000 9.828
11.94000 8.365
11.96000 3.107
11.98000 12.141
12.00000 4.121
12.02000 -4.547
12.04000 3.500
12.06000 5.039
12.08000 -0.764
12.10000 9.794
12.12000 18.912
12.14000 14.469
12.16000 28.158
12.18000 18.170
12.20000 0.830
12.22000 7.905
12.24000 9.792
12.26000 18.566
12.28000 27.088
12.30000 27.638
12.32000 23.740
12.34000 23.493
12.36000 14.777
12.38000 13.876
12.40000 16.766
12.42000 16.107
12.44000 15.960
12.46000 19.420
12.48000 15.471
12.50000 25.436
12.52000 23.316
12.54000 15.968
12.56000 22.227
12.58000 20.538
12.60000 8.474
12.62000 10.918
12.64000 10.943
12.66000 8.247
12.68000 13.264
12.70000 23.726
12.72000 20.415
12.74000 17.217
12.76000 11.965
12.78000 10.042
12.80000 9.089
12.82000 14.522
12.84000 11.390
12.86000 1.678
12.88000 4.721
12.90000 12.389
12.92000 11.932
12.94000 17.600
12.96000 24.728
12.98000 20.996
13.00000 17.296
13.02000 19.069
13.04000 22.697
13.06000 9.054
13.08000 10.012
13.10000 9.356
13.12000 2.842
13.14000 3.244
13.16000 13.046
13.18000 20.552
13.20000 11.429
13.22000 12.666
13.24000 5.997
13.26000 -4.557
13.28000 10.052
13.30000 23.516
13.32000 11.312
13.34000 -2.208
13.36000 -4.228
13.38000 -3.196
13.40000 0.969
13.42000 3.754
13.44000 12.360
13.46000 15.125
13.48000 13.840
13.50000 13.265
13.52000 9.406
13.54000 10.681
13.56000 11.320
13.58000 16.139
13.60000 8.842
13.62000 17.964
13.64000 9.268
13.66000 6.939
13.68000 9.941
13.70000 12.108
13.72000 5.793
13.74000 9.077
13.76000 10.591
13.78000 12.956
13.80000 10.595
13.82000 7.524
13.84000 11.187
13.86000 8.614
13.88000 11.207
13.90000 14.138
13.92000 6.150
13.94000 12.860
13.96000 8.061
13.98000 5.750
14.00000 14.206
14.02000 18.923
14.04000 15.651
14.06000 11.618
14.08000 9.789
14.10000 4.398
14.12000 6.468
14.14000 5.043
14.16000 9.099
14.18000 18.141
14.20000 19.370
14.22000 17.257
14.24000 22.450
14.26000 8.104
14.28000 4.739
14.30000 12.159
14.32000 8.480
14.34000 8.149
14.36000 9.307
14.38000 11.491
14.40000 9.583
14.42000 11.552
14.44000 13.623
14.46000 10.664
14.48000 0.712
14.50000 4.570
14.52000 4.801
14.54000 9.267
14.56000 6.385
14.58000 1.092
14.60000 8.897
14.62000 7.735
14.64000 6.836
14.66000 3.302
14.68000 -0.024
14.70000 -4.540
14.72000 -2.679
14.74000 3.987
14.76000 10.821
14.78000 7.091
14.80000 6.874
14.82000 4.124
14.84000 5.110
14.86000 6.366
14.88000 12.207
14.90000 5.315
14.92000 3.052
14.94000 14.613
14.96000 13.914
14.98000 -0.594
15.00000 3.690
15.02000 6.307
15.04000 5.756
15.06000 3.168
15.08000 6.841
15.10000 3.049
15.12000 5.904
15.14000 1.358
15.16000 2.890
15.18000 13.443
15.20000 17.203
15.22000 11.171
15.24000 12.434
15.26000 8.167
15.28000 -2.874
15.30000 -1.178
15.32000 14.731
15.34000 9.626
15.36000 9.424
15.38000 6.213
15.40000 5.967
15.42000 4.171
15.44000 0.929
15.46000 -2.163
15.48000 0.406
15.50000 6.800
15.52000 5.240
15.54000 -1.337
15.56000 4.891
15.58000 5.381
15.60000 6.943
15.62000 4.432
15.64000 2.814
15.66000 10.034
15.68000 9.067
15.70000 5.102
15.72000 6.882
15.74000 2.555
15.76000 1.672
15.78000 8.871
15.80000 5.777
15.82000 2.915
15.84000 4.209
15.86000 12.886
15.88000 3.326
15.90000 0.451
15.92000 8.425
15.94000 7.684
15.96000 8.943
15.98000 4.247
16.00000 2.676
16.02000 6.485
16.04000 10.612
16.06000 8.192
16.08000 4.080
16.10000 7.198
16.12000 4.201
16.14000 2.729
16.16000 -0.796
16.18000 11.405
16.20000 3.774
16.22000 6.464
16.24000 4.816
16.26000 6.700
16.28000 4.295
16.30000 6.276
16.32000 3.387
16.34000 14.291
16.36000 20.465
16.38000 17.556
16.40000 3.826
16.42000 -1.925
16.44000 -3.909
16.46000 -1.767
16.48000 5.994
16.50000 12.526
16.52000 15.333
16.54000 8.336
16.56000 10.351
16.58000 12.847
16.60000 11.549
16.62000 11.855
16.64000 3.932
16.66000 0.764
16.68000 11.227
16.70000 14.619
16.72000 7.905
16.74000 2.251
16.76000 4.762
16.78000 0.411
16.80000 2.019
16.82000 6.066
16.84000 14.023
16.86000 7.384
16.88000 4.643
16.90000 5.798
16.92000 5.831
16.94000 13.275
16.96000 17.347
16.98000 20.703
17.00000 10.481
17.02000 8.368
17.04000 8.927
17.06000 10.135
17.08000 15.698
17.10000 12.862
17.12000 8.362
17.14000 5.391
17.16000 2.337
17.18000 6.064
17.20000 15.656
17.22000 12.353
17.24000 10.710
17.26000 16.607
17.28000 14.375
17.30000 10.578
17.32000 11.445
17.34000 6.332
17.36000 4.045
17.38000 8.834
17.40000 5.241
17.42000 11.149
17.44000 16.533
17.46000 13.998
17.48000 9.511
17.50000 2.440
17.52000 9.732
17.54000 13.992
17.56000 16.316
17.58000 14.120
17.60000 12.773
17.62000 5.611
17.64000 10.764
17.66000 13.948
17.68000 11.820
17.70000 6.808
17.72000 11.790
17.74000 14.823
17.76000 13.508
17.78000 9.226
17.80000 0.412
17.82000 -4.334
17.84000 9.027
17.86000 6.782
17.88000 10.253
17.90000 12.905
17.92000 11.943
17.94000 11.790
17.96000 9.912
17.98000 6.672
18.00000 4.814
18.02000 7.845
18.04000 7.961
18.06000 4.234
18.08000 6.414
18.10000 6.861
18.12000 9.423
18.14000 17.958
18.16000 16.187
18.18000 13.993
18.20000 6.421
18.22000 0.325
18.24000 6.430
18.26000 8.120
18.28000 7.113
18.30000 11.934
18.32000 10.856
18.34000 13.051
18.36000 7.347
18.38000 5.740
18.40000 8.340
18.42000 20.332
18.44000 17.550
18.46000 7.736
18.48000 3.415
18.50000 6.957
18.52000 4.365
18.54000 1.363
18.56000 2.659
18.58000 4.473
18.60000 10.418
18.62000 6.441
18.64000 2.880
18.66000 0.486
18.68000 -4.303
18.70000 8.927
18.72000 9.014
18.74000 2.062
18.76000 0.957
18.78000 -0.549
18.80000 5.856
18.82000 10.961
18.84000 11.684
18.86000 10.023
18.88000 12.126
18.90000 9.415
18.92000 10.080
18.94000 14.733
18.96000 14.550
18.98000 9.611
19.00000 11.013
19.02000 7.679
19.04000 5.039
19.06000 7.778
19.08000 13.549
19.10000 9.797
19.12000 6.180
19.14000 9.255
19.16000 8.133
19.18000 3.209
19.20000 7.662
19.22000 8.013
19.24000 2.678
19.26000 5.562
19.28000 7.910
19.30000 4.931
19.32000 7.808
19.34000 11.123
19.36000 0.333
19.38000 2.311
19.40000 4.434
19.42000 7.099
19.44000 9.073
19.46000 3.200
19.48000 -1.607
19.50000 -4.106
19.52000 4.803
19.54000 7.794
19.56000 4.707
19.58000 6.279
19.60000 3.693
19.62000 0.921
19.64000 5.889
19.66000 1.379
19.68000 1.995
19.70000 0.986
19.72000 -2.730
19.74000 2.370
19.76000 2.120
19.78000 5.035
19.80000 3.787
19.82000 3.328
19.84000 12.975
19.86000 17.077
19.88000 8.452
19.90000 3.000
19.92000 3.063
19.94000 4.506
19.96000 8.180
19.98000 -0.420
20.00000 2.517
20.02000 9.984
20.04000 6.041
20.06000 0.386
20.08000 1.169
20.10000 6.533
20.12000 -0.702
20.14000 5.663
20.16000 5.949
20.18000 13.507
20.20000 1.583
20.22000 -2.786
20.24000 0.772
20.26000 6.532
20.28000 4.956
20.30000 2.486
20.32000 4.708
20.34000 8.052
20.36000 7.723
20.38000 12.843
20.40000 10.000
20.42000 6.177
20.44000 8.223
20.46000 9.800
20.48000 15.022
20.50000 8.644
20.52000 0.984
20.54000 1.373
20.56000 4.631
20.58000 7.429
20.60000 10.026
20.62000 7.786
20.64000 -2.137
20.66000 6.284
20.68000 12.293
20.70000 6.507
20.72000 14.278
20.74000 16.810
20.76000 1.442
20.78000 -1.637
20.80000 7.846
20.82000 11.701
20.84000 6.128
20.86000 0.688
20.88000 10.741
20.90000 11.363
20.92000 3.777
20.94000 -0.175
20.96000 0.538
20.98000 4.070
21.00000 1.115
21.02000 5.458
21.04000 9.646
21.06000 8.527
21.08000 4.647
21.10000 2.962
21.12000 2.988
21.14000 2.392
21.16000 6.608
21.18000 5.474
21.20000 3.614
21.22000 7.704
21.24000 7.904
21.26000 2.724
21.28000 -0.325
21.30000 -4.136
21.32000 8.769
21.34000 0.439
21.36000 5.864
21.38000 8.293
21.40000 8.612
21.42000 12.784
21.44000 13.052
21.46000 8.718
21.48000 15.175
21.50000 10.800
21.52000 11.564
21.54000 5.207
21.56000 3.479
21.58000 13.111
21.60000 7.381
21.62000 11.724
21.64000 13.596
21.66000 10.062
21.68000 11.817
21.70000 18.917
21.72000 10.852
21.74000 2.076
21.76000 5.608
21.78000 12.387
21.80000 9.151
21.82000 9.712
21.84000 7.881
21.86000 5.514
21.88000 0.982
21.90000 1.877
21.92000 4.432
21.94000 4.731
21.96000 4.543
21.98000 11.194
22.00000 10.995
22.02000 3.469
22.04000 4.164
22.06000 3.025
22.08000 2.383
22.10000 1.405
22.12000 3.935
22.14000 6.396
22.16000 6.866
22.18000 3.722
22.20000 8.651
22.22000 7.180
22.24000 5.644
22.26000 5.907
22.28000 7.528
22.30000 8.104
22.32000 9.626
22.34000 7.164
22.36000 5.653
22.38000 6.261
22.40000 6.087
22.42000 9.361
22.44000 12.629
22.46000 11.116
22.48000 6.579
22.50000 7.890
22.52000 8.112
22.54000 10.945
22.56000 11.935
22.58000 3.591
22.60000 2.561
22.62000 5.762
22.64000 1.361
22.66000 6.720
22.68000 5.168
22.70000 9.494
22.72000 9.440
22.74000 6.700
22.76000 5.532
22.78000 4.497
22.80000 10.888
22.82000 15.927
22.84000 17.125
22.86000 8.922
22.88000 10.200
22.90000 6.135
22.92000 5.332
22.94000 6.493
22.96000 11.030
22.98000 12.584
23.00000 9.153
23.02000 8.820
23.04000 10.162
23.06000 9.571
23.08000 6.708
23.10000 6.964
23.12000 -4.031
23.14000 -0.202
23.16000 9.535
23.18000 18.512
23.20000 12.411
23.22000 7.794
23.24000 7.844
23.26000 8.088
23.28000 8.698
23.30000 7.554
23.32000 5.460
23.34000 4.843
23.36000 1.268
23.38000 0.898
23.40000 7.495
23.42000 13.225
23.44000 3.896
23.46000 -1.315
23.48000 2.584
23.50000 5.835
23.52000 4.800
23.54000 9.568
23.56000 3.231
23.58000 -0.181
23.60000 6.273
23.62000 4.600
23.64000 5.314
23.66000 11.909
23.68000 8.667
23.70000 7.946
23.72000 6.585
23.74000 6.848
23.76000 -0.298
23.78000 0.709
23.80000 6.380
23.82000 4.013
23.84000 7.280
23.86000 5.808
23.88000 5.403
23.90000 3.569
23.92000 5.719
23.94000 2.365
23.96000 5.865
23.98000 10.016
24.00000 2.339
24.02000 0.319
24.04000 9.332
24.06000 5.478
24.08000 4.758
24.10000 3.970
24.12000 6.111
24.14000 4.168
24.16000 -3.064
24.18000 1.016
24.20000 1.243
24.22000 3.485
24.24000 -1.395
24.26000 -1.228
24.28000 5.586
24.30000 6.896
24.32000 5.970
24.34000 1.721
24.36000 0.195
24.38000 -0.299
24.40000 2.652
24.42000 6.180
24.44000 14.053
24.46000 5.798
24.48000 0.184
24.50000 2.127
24.52000 0.636
24.54000 7.869
24.56000 9.386
24.58000 4.247
24.60000 -0.835
24.62000 4.769
24.64000 2.971
24.66000 9.041
24.68000 4.130
24.70000 1.717
24.72000 1.644
24.74000 1.121
24.76000 -0.895
24.78000 2.207
24.80000 -2.721
24.82000 -3.987
24.84000 -0.176
24.86000 1.765
24.88000 -1.238
24.90000 3.982
24.92000 2.819
24.94000 2.827
24.96000 6.999
24.98000 -2.400
25.00000 -2.010
25.02000 -1.153
25.04000 -1.252
25.06000 7.166
25.08000 7.622
25.10000 4.888
25.12000 5.483
25.14000 3.762
25.16000 4.037
25.18000 9.443
25.20000 4.038
25.22000 1.514
25.24000 2.436
25.26000 3.903
25.28000 1.796
25.30000 0.935
25.32000 2.304
25.34000 3.096
25.36000 1.896
25.38000 2.840
25.40000 3.067
25.42000 -1.953
25.44000 1.911
25.46000 1.543
25.48000 -2.147
25.50000 -2.435
25.52000 -2.491
25.54000 2.346
25.56000 6.425
25.58000 6.562
25.60000 8.857
25.62000 3.573
25.64000 4.191
25.66000 9.032
25.68000 4.740
25.70000 0.493
25.72000 -2.234
25.74000 -2.367
25.76000 -2.992
25.78000 1.736
25.80000 1.136
25.82000 2.726
25.84000 2.218
25.86000 2.363
25.88000 6.111
25.90000 3.028
25.92000 2.688
25.94000 0.068
25.96000 5.893
25.98000 4.627
26.00000 1.462
26.02000 -3.727
26.04000 -3.946
26.06000 4.177
26.08000 7.244
26.10000 5.062
26.12000 5.454
26.14000 9.498
26.16000 5.034
26.18000 2.332
26.20000 3.634
26.22000 3.502
26.24000 2.579
26.26000 1.415
26.28000 4.751
26.30000 7.643
26.32000 8.078
26.34000 2.335
26.36000 3.420
26.38000 0.440
26.40000 1.893
26.42000 -1.569
26.44000 -2.804
26.46000 -1.769
26.48000 3.647
26.50000 5.205
26.52000 5.590
26.54000 3.301
26.56000 3.959
26.58000 1.019
26.60000 -1.950
26.62000 -1.050
26.64000 -2.556
26.66000 -2.131
26.68000 4.137
26.70000 3.003
26.72000 -3.035
26.74000 -1.827
26.76000 -0.399
26.78000 5.710
26.80000 6.572
26.82000 5.231
26.84000 4.041
26.86000 -2.792
26.88000 -2.615
26.90000 2.337
26.92000 2.111
26.94000 0.313
26.96000 6.481
26.98000 8.300
27.00000 0.815
27.02000 -2.168
27.04000 4.786
27.06000 1.445
27.08000 -2.424
27.10000 -3.877
27.12000 -2.988
27.14000 -0.079
27.16000 3.476
27.18000 6.623
27.20000 0.880
27.22000 -0.049
27.24000 5.649
27.26000 2.212
27.28000 2.719
27.30000 -0.205
27.32000 1.184
27.34000 -0.021
27.36000 -0.022
27.38000 -2.011
27.40000 -0.536
27.42000 2.878
27.44000 1.298
27.46000 3.573
27.48000 3.007
27.50000 2.668
27.52000 5.736
27.54000 7.307
27.56000 4.401
27.58000 4.540
27.60000 4.166
27.62000 6.055
27.64000 2.943
27.66000 -3.845
27.68000 -1.972
27.70000 5.195
27.72000 5.727
27.74000 -1.831
27.76000 -0.284
27.78000 8.360
27.80000 8.929
27.82000 3.537
27.84000 7.115
27.86000 8.675
27.88000 0.424
27.90000 1.597
27.92000 -1.838
27.94000 0.689
27.96000 2.890
27.98000 3.304
28.00000 -1.584
28.02000 -0.057
28.04000 2.162
28.06000 4.772
28.08000 0.998
28.10000 0.043
28.12000 4.939
28.14000 5.483
28.16000 6.744
28.18000 3.715
28.20000 3.947
28.22000 -2.160
28.24000 -0.538
28.26000 0.464
28.28000 6.182
28.30000 2.957
28.32000 1.477
28.34000 -0.126
28.36000 2.623
28.38000 6.735
28.40000 5.248
28.42000 1.575
28.44000 -0.751
28.46000 1.693
28.48000 -0.076
28.50000 2.832
28.52000 5.248
28.54000 9.431
28.56000 3.243
28.58000 1.863
28.60000 2.423
28.62000 2.032
28.64000 3.281
28.66000 1.293
28.68000 3.493
28.70000 5.770
28.72000 5.214
28.74000 -2.265
28.76000 -1.077
28.78000 3.700
28.80000 8.602
28.82000 1.620
28.84000 -1.000
28.86000 4.836
28.88000 0.806
28.90000 6.002
28.92000 7.138
28.94000 3.775
28.96000 -0.416
28.98000 -0.777
29.00000 -1.282
29.02000 -0.730
29.04000 2.421
29.06000 3.049
29.08000 2.458
29.10000 3.029
29.12000 6.488
29.14000 2.633
29.16000 8.247
29.18000 13.862
29.20000 6.452
29.22000 2.372
29.24000 0.640
29.26000 2.328
29.28000 4.511
29.30000 5.858
29.32000 9.756
29.34000 7.231
29.36000 2.936
29.38000 1.934
29.40000 -1.020
29.42000 -0.831
29.44000 -0.761
29.46000 0.603
29.48000 3.402
29.50000 3.444
29.52000 -2.840
29.54000 -3.725
29.56000 -1.185
29.58000 1.449
29.60000 3.362
29.62000 5.533
29.64000 4.937
29.66000 4.479
29.68000 8.377
29.70000 6.755
29.72000 3.208
29.74000 4.651
29.76000 2.032
29.78000 1.058
29.80000 2.505
29.82000 5.294
29.84000 7.680
29.86000 3.523
29.88000 3.535
29.90000 5.790
29.92000 2.205
29.94000 2.026
29.96000 3.590
29.98000 1.194
30.00000 4.312
30.02000 5.843
30.04000 3.227
30.06000 -2.326
30.08000 2.233
30.10000 5.076
30.12000 6.482
30.14000 5.891
30.16000 1.961
30.18000 0.955
30.20000 3.483
30.22000 6.722
30.24000 1.419
30.26000 3.588
30.28000 6.793
30.30000 6.455
30.32000 4.748
30.34000 -1.137
30.36000 -1.421
30.38000 -3.544
30.40000 -0.329
30.42000 1.724
30.44000 3.231
30.46000 -0.336
30.48000 1.146
30.50000 6.356
30.52000 3.359
30.54000 7.741
30.56000 3.520
30.58000 0.011
30.60000 1.108
30.62000 7.183
30.64000 2.708
30.66000 1.080
30.68000 8.927
30.70000 3.714
30.72000 0.542
30.74000 2.813
30.76000 5.934
30.78000 -1.695
30.80000 -2.541
30.82000 -1.417
30.84000 2.811
30.86000 4.947
30.88000 7.308
30.90000 5.219
30.92000 6.867
30.94000 9.918
30.96000 3.651
30.98000 3.535
31.00000 4.075
31.02000 5.900
31.04000 8.027
31.06000 6.051
31.08000 3.316
31.10000 -1.663
31.12000 1.959
31.14000 6.247
31.16000 0.931
31.18000 -3.671
31.20000 1.386
31.22000 -2.158
31.24000 5.889
31.26000 7.977
31.28000 -1.655
31.30000 -0.292
31.32000 3.049
31.34000 4.956
31.36000 3.408
31.38000 2.874
31.40000 -0.437
31.42000 1.187
31.44000 0.800
31.46000 5.408
31.48000 5.629
31.50000 7.979
31.52000 10.803
31.54000 3.745
31.56000 4.826
31.58000 8.963
31.60000 8.949
31.62000 9.077
31.64000 5.019
31.66000 0.334
31.68000 -2.696
31.70000 5.332
31.72000 7.262
31.74000 2.697
31.76000 -0.452
31.78000 -1.260
31.80000 -2.953
31.82000 0.552
31.84000 1.894
31.86000 4.798
31.88000 4.406
31.90000 5.446
31.92000 1.889
31.94000 2.677
31.96000 0.668
31.98000 -3.643
32.00000 -2.546
32.02000 2.248
32.04000 3.744
32.06000 1.188
32.08000 2.061
32.10000 -2.235
32.12000 -2.377
32.14000 -0.568
32.16000 0.924
32.18000 -0.246
32.20000 0.076
32.22000 1.063
32.24000 -0.027
32.26000 3.109
32.28000 -3.644
32.30000 2.656
32.32000 6.775
32.34000 1.013
32.36000 0.872
32.38000 6.806
32.40000 6.687
32.42000 5.930
32.44000 5.619
32.46000 1.239
32.48000 3.789
32.50000 8.361
32.52000 13.100
32.54000 7.016
32.56000 -2.069
32.58000 -0.234
32.60000 -2.292
32.62000 -1.846
32.64000 1.170
32.66000 4.083
32.68000 3.553
32.70000 2.932
32.72000 1.082
32.74000 0.751
32.76000 -2.877
32.78000 -1.750
32.80000 1.169
32.82000 1.859
32.84000 0.702
32.86000 -3.646
32.88000 -2.888
32.90000 0.787
32.92000 2.435
32.94000 3.113
32.96000 -1.792
32.98000 0.140
33.00000 3.617
33.02000 3.616
33.04000 -1.877
33.06000 -0.777
33.08000 1.544
33.10000 -1.173
33.12000 -3.039
33.14000 3.001
33.16000 1.690
33.18000 -1.963
33.20000 -2.545
33.22000 -1.820
33.24000 8.033
33.26000 8.634
33.28000 6.540
33.30000 3.057
33.32000 8.099
33.34000 9.152
33.36000 1.741
33.38000 4.330
33.40000 0.692
33.42000 2.748
33.44000 0.096
33.46000 -2.036
33.48000 3.410
33.50000 4.283
33.52000 1.490
33.54000 -1.277
33.56000 -2.545
33.58000 -2.904
33.60000 -2.485
33.62000 -3.139
33.64000 -0.760
33.66000 -0.947
33.68000 1.740
33.70000 4.291
33.72000 5.250
33.74000 2.069
33.76000 2.719
33.78000 2.335
33.80000 4.952
33.82000 3.475
33.84000 -3.628
33.86000 0.720
33.88000 4.477
33.90000 -1.207
33.92000 3.389
33.94000 0.769
33.96000 3.607
33.98000 5.924
34.00000 2.646
34.02000 2.338
34.04000 3.263
34.06000 2.475
34.08000 7.174
34.10000 -0.315
34.12000 3.488
34.14000 6.942
34.16000 1.573
34.18000 -0.004
34.20000 3.191
34.22000 1.940
34.24000 1.852
34.26000 5.457
34.28000 5.314
34.30000 5.158
34.32000 3.622
34.34000 0.983
34.36000 -0.081
34.38000 4.758
34.40000 10.437
34.42000 7.523
34.44000 0.844
34.46000 -3.615
34.48000 4.247
34.50000 5.038
34.52000 -2.398
34.54000 1.665
34.56000 5.094
34.58000 5.150
34.60000 2.661
34.62000 0.997
34.64000 -0.438
34.66000 2.607
34.68000 4.303
34.70000 3.510
34.72000 1.547
34.74000 3.048
34.76000 0.067
34.78000 -2.975
34.80000 -0.660
34.82000 3.319
34.84000 5.243
34.86000 1.059
34.88000 0.473
34.90000 -2.320
34.92000 -3.632
34.94000 4.426
34.96000 -0.276
34.98000 -1.627
35.00000 -0.239
35.02000 2.191
35.04000 2.498
35.06000 4.160
35.08000 1.162
35.10000 -2.810
35.12000 3.017
35.14000 1.697
35.16000 -1.441
35.18000 1.188
35.20000 1.346
35.22000 3.671
35.24000 0.854
35.26000 -0.887
35.28000 1.404
35.30000 -1.100
35.32000 -1.860
35.34000 -1.565
35.36000 -3.442
35.38000 -3.619
35.40000 -1.214
35.42000 3.290
35.44000 0.397
35.46000 1.861
35.48000 1.354
35.50000 0.102
35.52000 1.826
35.54000 -1.647
35.56000 -1.727
35.58000 -3.663
35.60000 -2.221
35.62000 -0.130
35.64000 -2.286
35.66000 0.456
35.68000 0.015
35.70000 -1.830
35.72000 0.233
35.74000 1.740
35.76000 -0.599
35.78000 -0.864
35.80000 -0.840
35.82000 -2.327
35.84000 2.065
35.86000 -0.079
35.88000 -3.690
35.90000 -1.320
35.92000 0.767
35.94000 -1.113
35.96000 -1.793
35.98000 1.686
36.00000 -0.416
36.02000 -2.846
36.04000 -1.350
36.06000 -2.546
36.08000 -1.543
36.10000 -0.038
36.12000 1.985
36.14000 2.071
36.16000 2.190
36.18000 2.693
36.20000 -0.233
36.22000 -0.591
36.24000 0.702
36.26000 -1.997
36.28000 -2.532
36.30000 0.239
36.32000 -0.338
36.34000 -1.201
36.36000 -0.796
36.38000 -2.522
36.40000 1.719
36.42000 0.412
36.44000 -0.631
36.46000 1.984
36.48000 1.520
36.50000 2.506
36.52000 0.978
36.54000 4.099
36.56000 6.126
36.58000 8.904
36.60000 10.837
36.62000 6.843
36.64000 7.453
36.66000 5.561
36.68000 3.462
36.70000 1.666
36.72000 3.755
36.74000 0.853
36.76000 2.256
36.78000 2.100
36.80000 3.137
36.82000 7.471
36.84000 12.965
36.86000 12.822
36.88000 14.314
36.90000 5.220
36.92000 4.372
36.94000 10.787
36.96000 5.192
36.98000 9.554
37.00000 13.552
37.02000 14.670
37.04000 12.634
37.06000 10.778
37.08000 10.197
37.10000 10.381
37.12000 16.159
37.14000 12.916
37.16000 11.274
37.18000 7.880
37.20000 11.992
37.22000 11.293
37.24000 17.215
37.26000 17.921
37.28000 15.186
37.30000 19.521
37.32000 21.726
37.34000 18.091
37.36000 18.336
37.38000 20.949
37.40000 17.409
37.42000 18.720
37.44000 19.854
37.46000 22.466
37.48000 23.998
37.50000 18.532
37.52000 20.880
37.54000 23.643
37.56000 28.514
37.58000 25.864
37.60000 28.942
37.62000 29.492
37.64000 28.915
37.66000 29.045
37.68000 29.307
37.70000 29.398
37.72000 30.336
37.74000 31.996
37.76000 29.729
37.78000 37.224
37.80000 38.236
37.82000 35.765
37.84000 35.119
37.86000 37.001
37.88000 38.147
37.90000 40.017
37.92000 40.198
37.94000 41.291
37.96000 42.680
37.98000 41.593
38.00000 43.843
38.02000 47.530
38.04000 55.723
38.06000 59.034
38.08000 55.436
38.10000 59.617
38.12000 60.438
38.14000 62.475
38.16000 68.817
38.18000 75.337
38.20000 75.361
38.22000 79.602
38.24000 87.466
38.26000 95.309
38.28000 102.427
38.30000 99.497
38.32000 103.333
38.34000 114.749
38.36000 125.926
38.38000 129.397
38.40000 136.940
38.42000 140.035
38.44000 148.347
38.46000 165.123
38.48000 180.772
38.50000 189.939
38.52000 203.114
38.54000 209.427
38.56000 224.127
38.58000 232.098
38.60000 239.338
38.62000 242.668
38.64000 262.899
38.66000 268.713
38.68000 276.068
38.70000 283.415
38.72000 289.450
38.74000 282.697
38.76000 284.005
38.78000 289.922
38.80000 292.676
38.82000 289.183
38.84000 285.525
38.86000 280.242
38.88000 281.705
38.90000 274.179
38.92000 259.720
38.94000 244.939
38.96000 243.306
38.98000 238.033
39.00000 226.363
39.02000 212.027
39.04000 202.049
39.06000 194.496
39.08000 188.592
39.10000 169.913
39.12000 161.218
39.14000 149.164
39.16000 142.836
39.18000 129.659
39.20000 125.020
39.22000 125.015
39.24000 114.359
39.26000 104.876
39.28000 100.400
39.30000 101.889
39.32000 92.048
39.34000 86.594
39.36000 80.654
39.38000 76.315
39.40000 74.135
39.42000 70.947
39.44000 68.315
39.46000 62.432
39.48000 54.939
39.50000 57.319
39.52000 56.727
39.54000 55.336
39.56000 53.538
39.58000 51.847
39.60000 47.440
39.62000 47.217
39.64000 39.911
39.66000 37.350
39.68000 36.597
39.70000 34.155
39.72000 33.810
39.74000 34.080
39.76000 32.316
39.78000 31.572
39.80000 32.315
39.82000 31.595
39.84000 26.757
39.86000 26.779
39.88000 29.583
39.90000 28.607
39.92000 27.292
39.94000 24.772
39.96000 21.244
39.98000 18.927
40.00000 19.506
40.02000 21.360
40.04000 20.454
40.06000 18.315
40.08000 16.329
40.10000 17.619
40.12000 19.526
40.14000 17.136
40.16000 15.148
40.18000 15.445
40.20000 13.917
40.22000 12.483
40.24000 13.795
40.26000 11.559
40.28000 12.169
40.30000 11.936
40.32000 12.787
40.34000 12.356
40.36000 13.418
40.38000 8.828
40.40000 9.037
40.42000 10.324
40.44000 7.167
40.46000 4.806
40.48000 8.984
40.50000 9.214
40.52000 6.331
40.54000 5.582
40.56000 11.498
40.58000 6.806
40.60000 5.347
40.62000 6.622
40.64000 8.323
40.66000 14.019
40.68000 10.930
40.70000 4.254
40.72000 1.317
40.74000 3.009
40.76000 4.238
40.78000 7.766
40.80000 9.155
40.82000 5.581
40.84000 6.842
40.86000 7.165
40.88000 3.042
40.90000 2.046
40.92000 5.890
40.94000 5.439
40.96000 6.706
40.98000 3.667
41.00000 1.254
41.02000 1.588
41.04000 1.834
41.06000 4.249
41.08000 5.566
41.10000 0.559
41.12000 1.505
41.14000 0.040
41.16000 -0.715
41.18000 1.958
41.20000 3.141
41.22000 3.299
41.24000 0.465
41.26000 0.117
41.28000 -3.538
41.30000 1.454
41.32000 1.736
41.34000 -0.787
41.36000 -1.188
41.38000 -2.007
41.40000 -2.353
41.42000 -1.392
41.44000 -0.602
41.46000 -1.677
41.48000 -0.368
41.50000 5.664
41.52000 3.628
41.54000 -0.615
41.56000 2.024
41.58000 2.129
41.60000 5.165
41.62000 5.127
41.64000 2.289
41.66000 2.465
41.68000 2.118
41.70000 0.280
41.72000 -2.798
41.74000 0.604
41.76000 2.321
41.78000 -0.133
41.80000 0.872
41.82000 -0.186
41.84000 -3.176
41.86000 -1.639
41.88000 0.837
41.90000 -0.730
41.92000 0.332
41.94000 3.613
41.96000 0.041
41.98000 -3.444
42.00000 -0.919
42.02000 0.531
42.04000 -0.217
42.06000 0.760
42.08000 4.392
42.10000 3.912
42.12000 5.715
42.14000 2.037
42.16000 1.730
42.18000 3.928
42.20000 -0.585
42.22000 2.325
42.24000 4.440
42.26000 1.667
42.28000 1.154
42.30000 -2.706
42.32000 -0.215
42.34000 0.279
42.36000 -0.048
42.38000 -1.650
42.40000 2.439
42.42000 2.371
42.44000 -3.390
42.46000 1.724
42.48000 1.679
42.50000 -2.423
42.52000 -2.674
42.54000 -0.341
42.56000 2.051
42.58000 1.491
42.60000 -1.521
42.62000 0.180
42.64000 3.169
42.66000 0.802
42.68000 -2.627
42.70000 1.365
42.72000 4.021
42.74000 1.910
42.76000 -1.316
42.78000 -3.358
42.80000 -1.202
42.82000 -0.479
42.84000 -2.395
42.86000 1.661
42.88000 2.026
42.90000 -1.037
42.92000 -2.452
42.94000 -0.030
42.96000 0.807
42.98000 -0.153
43.00000 -2.939
43.02000 -2.664
43.04000 0.631
43.06000 2.467
43.08000 2.045
43.10000 2.805
43.12000 1.236
43.14000 -0.757
43.16000 1.632
43.18000 -0.316
43.20000 -1.599
43.22000 -0.821
43.24000 -1.979
43.26000 -3.253
43.28000 0.710
43.30000 1.069
43.32000 -2.201
43.34000 -0.587
43.36000 2.021
43.38000 1.391
43.40000 1.242
43.42000 -0.690
43.44000 4.907
43.46000 8.742
43.48000 5.014
43.50000 3.551
43.52000 3.792
43.54000 -1.631
43.56000 -3.307
43.58000 1.544
43.60000 1.955
43.62000 0.445
43.64000 -1.925
43.66000 -0.751
43.68000 3.882
43.70000 2.968
43.72000 1.505
43.74000 2.956
43.76000 1.119
43.78000 3.521
43.80000 0.221
43.82000 2.896
43.84000 4.420
43.86000 6.547
43.88000 2.064
43.90000 3.224
43.92000 5.193
43.94000 3.442
43.96000 6.308
43.98000 5.367
44.00000 6.897
44.02000 9.883
44.04000 11.471
44.06000 13.189
44.08000 10.854
44.10000 8.170
44.12000 7.521
44.14000 10.591
44.16000 7.447
44.18000 5.955
44.20000 9.897
44.22000 12.475
44.24000 13.615
44.26000 12.670
44.28000 11.619
44.30000 15.704
44.32000 17.898
44.34000 15.047
44.36000 18.887
44.38000 24.015
44.40000 20.769
44.42000 23.029
44.44000 21.755
44.46000 25.253
44.48000 26.726
44.50000 27.554
44.52000 32.698
44.54000 33.419
44.56000 30.233
44.58000 36.948
44.60000 38.124
44.62000 41.795
44.64000 44.003
44.66000 46.594
44.68000 51.009
44.70000 58.395
44.72000 57.697
44.74000 53.985
44.76000 61.208
44.78000 63.476
44.80000 66.819
44.82000 73.839
44.84000 77.001
44.86000 79.683
44.88000 83.783
44.90000 89.277
44.92000 93.885
44.94000 94.496
44.96000 96.906
44.98000 100.691
45.00000 103.651
45.02000 104.675
45.04000 103.869
45.06000 108.764
45.08000 110.538
45.10000 113.340
45.12000 110.398
45.14000 111.201
45.16000 105.607
45.18000 107.457
45.20000 102.236
45.22000 101.466
45.24000 99.607
45.26000 104.782
45.28000 101.366
45.30000 96.565
45.32000 92.273
45.34000 92.529
45.36000 91.218
45.38000 85.239
45.40000 78.483
45.42000 74.766
45.44000 72.144
45.46000 69.647
45.48000 63.469
45.50000 57.492
45.52000 58.443
45.54000 54.367
45.56000 50.499
45.58000 47.817
45.60000 44.085
45.62000 43.917
45.64000 38.815
45.66000 38.416
45.68000 38.786
45.70000 34.051
45.72000 33.997
45.74000 31.156
45.76000 28.378
45.78000 20.734
45.80000 22.217
45.82000 23.779
45.84000 24.754
45.86000 21.862
45.88000 25.258
45.90000 19.963
45.92000 14.407
45.94000 14.844
45.96000 9.243
45.98000 9.879
46.00000 4.924
46.02000 8.265
46.04000 9.256
46.06000 9.543
46.08000 10.224
46.10000 5.544
46.12000 11.080
46.14000 8.309
46.16000 6.859
46.18000 7.358
46.20000 1.945
46.22000 4.698
46.24000 4.646
46.26000 8.240
46.28000 8.439
46.30000 6.796
46.32000 5.670
46.34000 1.179
46.36000 4.190
46.38000 4.596
46.40000 -0.684
46.42000 6.808
46.44000 7.729
46.46000 3.186
46.48000 4.864
46.50000 1.736
46.52000 1.284
46.54000 0.670
46.56000 -1.489
46.58000 1.984
46.60000 5.309
46.62000 3.836
46.64000 3.399
46.66000 -2.959
46.68000 -0.450
46.70000 -0.536
46.72000 1.802
46.74000 4.619
46.76000 4.344
46.78000 6.453
46.80000 2.595
46.82000 3.591
46.84000 0.198
46.86000 -2.593
46.88000 -2.923
46.90000 -0.208
46.92000 4.359
46.94000 3.933
46.96000 0.599
46.98000 4.151
47.00000 3.670
47.02000 4.172
47.04000 2.888
47.06000 0.197
47.08000 0.257
47.10000 0.510
47.12000 0.140
47.14000 2.855
47.16000 7.641
47.18000 6.716
47.20000 3.853
47.22000 4.764
47.24000 1.435
47.26000 5.096
47.28000 3.335
47.30000 1.030
47.32000 -0.179
47.34000 0.185
47.36000 -1.268
47.38000 1.686
47.40000 2.344
47.42000 -0.736
47.44000 -2.595
47.46000 -0.310
47.48000 -2.869
47.50000 1.456
47.52000 1.228
47.54000 1.844
47.56000 3.148
47.58000 0.323
47.60000 -2.050
47.62000 2.707
47.64000 -0.940
47.66000 -2.239
47.68000 -1.182
47.70000 -0.881
47.72000 1.354
47.74000 5.438
47.76000 5.116
47.78000 3.106
47.80000 1.872
47.82000 3.973
47.84000 6.341
47.86000 6.189
47.88000 6.159
47.90000 7.207
47.92000 8.441
47.94000 3.777
47.96000 4.224
47.98000 1.626
48.00000 -2.626
48.02000 -2.058
48.04000 -2.807
48.06000 1.925
48.08000 2.032
48.10000 2.717
48.12000 3.940
48.14000 3.407
48.16000 -0.077
48.18000 -0.429
48.20000 3.557
48.22000 3.121
48.24000 3.917
48.26000 2.497
48.28000 3.962
48.30000 4.298
48.32000 3.771
48.34000 2.118
48.36000 0.162
48.38000 -1.165
48.40000 2.349
48.42000 2.760
48.44000 4.535
48.46000 1.132
48.48000 -0.547
48.50000 1.305
48.52000 -1.557
48.54000 0.742
48.56000 2.802
48.58000 3.773
48.60000 -1.980
48.62000 1.251
48.64000 3.874
48.66000 0.619
48.68000 2.043
48.70000 6.181
48.72000 5.699
48.74000 3.135
48.76000 2.780
48.78000 -1.269
48.80000 -2.052
48.82000 1.245
48.84000 -0.886
48.86000 0.666
48.88000 3.243
48.90000 1.590
48.92000 2.659
48.94000 4.940
48.96000 6.122
48.98000 0.857
49.00000 -1.607
49.02000 2.397
49.04000 2.748
49.06000 4.190
49.08000 2.110
49.10000 2.632
49.12000 2.329
49.14000 0.364
49.16000 0.145
49.18000 2.746
49.20000 4.954
49.22000 3.512
49.24000 4.592
49.26000 3.265
49.28000 1.767
49.30000 -0.857
49.32000 2.657
49.34000 6.864
49.36000 2.481
49.38000 2.955
49.40000 2.083
49.42000 2.944
49.44000 3.149
49.46000 1.766
49.48000 3.612
49.50000 4.727
49.52000 6.725
49.54000 4.388
49.56000 3.169
49.58000 1.377
49.60000 1.351
49.62000 1.364
49.64000 -0.874
49.66000 2.455
49.68000 -1.510
49.70000 0.326
49.72000 4.853
49.74000 1.462
49.76000 2.137
49.78000 3.713
49.80000 6.455
49.82000 5.496
49.84000 2.434
49.86000 -0.004
49.88000 7.072
49.90000 5.341
49.92000 3.003
49.94000 1.765
49.96000 4.079
49.98000 4.777
50.00000 4.456
50.02000 3.954
50.04000 5.938
50.06000 1.628
50.08000 -2.670
50.10000 -0.403
50.12000 0.187
50.14000 3.349
50.16000 4.474
50.18000 3.902
50.20000 2.157
50.22000 2.348
50.24000 2.899
50.26000 5.953
50.28000 2.004
50.30000 1.167
50.32000 6.603
50.34000 9.179
50.36000 7.358
50.38000 5.688
50.40000 3.354
50.42000 -0.264
50.44000 1.929
50.46000 4.144
50.48000 2.893
50.50000 4.923
50.52000 7.910
50.54000 1.080
50.56000 -0.433
50.58000 0.508
50.60000 1.629
50.62000 4.535
50.64000 5.157
50.66000 5.485
50.68000 5.270
50.70000 3.292
50.72000 4.907
50.74000 5.174
50.76000 6.074
50.78000 -0.078
50.80000 -0.465
50.82000 1.982
50.84000 4.722
50.86000 5.669
50.88000 5.025
50.90000 2.066
50.92000 5.560
50.94000 5.196
50.96000 4.536
50.98000 3.189
51.00000 2.585
51.02000 3.134
51.04000 3.214
51.06000 0.920
51.08000 -2.239
51.10000 4.458
51.12000 7.549
51.14000 6.509
51.16000 8.746
51.18000 6.352
51.20000 3.402
51.22000 -0.419
51.24000 -0.449
51.26000 1.304
51.28000 6.796
51.30000 9.906
51.32000 8.480
51.34000 5.291
51.36000 0.966
51.38000 3.687
51.40000 -2.618
51.42000 0.545
51.44000 5.768
51.46000 2.451
51.48000 6.428
51.50000 5.418
51.52000 5.097
51.54000 3.142
51.56000 4.374
51.58000 2.540
51.60000 3.614
51.62000 5.171
51.64000 8.882
51.66000 8.013
51.68000 6.523
51.70000 5.324
51.72000 0.007
51.74000 5.505
51.76000 5.092
51.78000 2.577
51.80000 3.193
51.82000 6.775
51.84000 5.363
51.86000 8.776
51.88000 7.417
51.90000 4.100
51.92000 4.271
51.94000 3.193
51.96000 2.306
51.98000 4.988
52.00000 5.002
52.02000 1.631
52.04000 0.442
52.06000 4.919
52.08000 1.249
52.10000 2.311
52.12000 -0.255
52.14000 -1.344
52.16000 -0.335
52.18000 6.317
52.20000 7.339
52.22000 1.627
52.24000 -0.111
52.26000 -2.613
52.28000 -0.774
52.30000 -1.269
52.32000 0.759
52.34000 -0.614
52.36000 -1.209
52.38000 3.565
52.40000 6.530
52.42000 5.070
52.44000 6.952
52.46000 5.588
52.48000 2.951
52.50000 0.835
52.52000 4.418
52.54000 6.760
52.56000 2.559
52.58000 4.061
52.60000 2.511
52.62000 4.824
52.64000 7.316
52.66000 2.630
52.68000 2.764
52.70000 5.939
52.72000 7.590
52.74000 4.696
52.76000 2.160
52.78000 7.112
52.80000 4.942
52.82000 2.105
52.84000 1.986
52.86000 4.260
52.88000 3.268
52.90000 3.523
52.92000 6.503
52.94000 6.291
52.96000 3.422
52.98000 1.653
53.00000 1.120
53.02000 2.455
53.04000 4.668
53.06000 -2.615
53.08000 -0.123
53.10000 3.670
53.12000 5.302
53.14000 8.604
53.16000 11.274
53.18000 5.953
53.20000 2.128
53.22000 2.023
53.24000 -0.998
53.26000 1.635
53.28000 3.203
53.30000 2.527
53.32000 0.905
53.34000 -1.127
53.36000 0.612
53.38000 3.951
53.40000 3.862
53.42000 0.724
53.44000 -2.616
53.46000 1.309
53.48000 3.312
53.50000 1.072
53.52000 1.474
53.54000 2.339
53.56000 2.180
53.58000 -0.788
53.60000 -0.614
53.62000 2.770
53.64000 -0.195
53.66000 2.539
53.68000 5.240
53.70000 1.986
53.72000 -0.031
53.74000 4.495
53.76000 2.562
53.78000 3.371
53.80000 -0.419
53.82000 1.172
53.84000 4.017
53.86000 2.759
53.88000 0.394
53.90000 0.951
53.92000 0.398
53.94000 0.497
53.96000 -0.643
53.98000 2.216
54.00000 1.560
54.02000 3.280
54.04000 3.072
54.06000 -0.187
54.08000 2.810
54.10000 6.299
54.12000 2.532
54.14000 -2.523
54.16000 -2.298
54.18000 4.365
54.20000 4.500
54.22000 1.945
54.24000 -1.413
54.26000 -2.330
54.28000 -2.606
54.30000 0.966
54.32000 2.915
54.34000 4.295
54.36000 -0.402
54.38000 -2.308
54.40000 1.198
54.42000 0.615
54.44000 2.999
54.46000 4.619
54.48000 0.174
54.50000 -0.204
54.52000 1.490
54.54000 5.097
54.56000 2.898
54.58000 1.250
54.60000 3.110
54.62000 4.519
54.64000 2.278
54.66000 -2.088
54.68000 2.097
54.70000 2.228
54.72000 1.860
54.74000 2.831
54.76000 -0.127
54.78000 -0.142
54.80000 0.211
54.82000 0.368
54.84000 -2.582
54.86000 -0.905
54.88000 2.518
54.90000 0.933
54.92000 3.475
54.94000 7.815
54.96000 3.562
54.98000 4.420
55.00000 4.243
55.02000 5.619
55.04000 0.829
55.06000 -1.239
55.08000 -0.933
55.10000 1.999
55.12000 1.403
55.14000 3.635
55.16000 4.904
55.18000 2.233
55.20000 7.069
55.22000 4.917
55.24000 4.116
55.26000 4.104
55.28000 2.133
55.30000 0.397
55.32000 1.898
55.34000 -0.524
55.36000 -1.766
55.38000 -0.762
55.40000 1.571
55.42000 -0.550
55.44000 1.022
55.46000 -0.797
55.48000 1.877
55.50000 1.270
55.52000 -1.135
55.54000 -2.580
55.56000 0.198
55.58000 1.635
55.60000 3.769
55.62000 0.550
55.64000 1.581
55.66000 -1.388
55.68000 -1.036
55.70000 0.630
55.72000 2.321
55.74000 2.476
55.76000 -0.565
55.78000 0.116
55.80000 1.211
55.82000 3.202
55.84000 -1.133
55.86000 -1.117
55.88000 2.052
55.90000 1.099
55.92000 0.102
55.94000 -0.031
55.96000 1.213
55.98000 1.065
56.00000 -0.460
56.02000 1.781
56.04000 2.380
56.06000 2.905
56.08000 -2.129
56.10000 0.002
56.12000 6.114
56.14000 5.648
56.16000 -1.374
56.18000 -0.350
56.20000 0.551
56.22000 1.173
56.24000 -2.553
56.26000 1.033
56.28000 2.314
56.30000 2.853
56.32000 5.506
56.34000 1.982
56.36000 1.392
56.38000 1.687
56.40000 1.562
56.42000 0.358
56.44000 2.658
56.46000 5.438
56.48000 3.674
56.50000 1.543
56.52000 -0.945
56.54000 -1.373
56.56000 0.358
56.58000 4.441
56.60000 2.553
56.62000 0.755
56.64000 1.209
56.66000 2.188
56.68000 2.039
56.70000 -1.163
56.72000 -0.584
56.74000 4.909
56.76000 6.287
56.78000 2.257
56.80000 -0.031
56.82000 2.981
56.84000 5.090
56.86000 3.868
56.88000 3.312
56.90000 1.451
56.92000 -0.055
56.94000 0.359
56.96000 2.781
56.98000 1.777
57.00000 0.343
57.02000 4.639
57.04000 5.204
57.06000 7.293
57.08000 1.087
57.10000 1.920
57.12000 4.027
57.14000 0.071
57.16000 2.119
57.18000 2.755
57.20000 2.055
57.22000 3.237
57.24000 3.553
57.26000 4.254
57.28000 3.572
57.30000 -0.809
57.32000 -1.477
57.34000 3.557
57.36000 5.066
57.38000 0.805
57.40000 2.094
57.42000 2.740
57.44000 4.886
57.46000 -2.466
57.48000 0.674
57.50000 1.758
57.52000 2.396
57.54000 0.332
57.56000 2.732
57.58000 2.525
57.60000 4.946
57.62000 4.466
57.64000 3.722
57.66000 4.420
57.68000 2.299
57.70000 2.993
57.72000 6.721
57.74000 5.832
57.76000 3.181
57.78000 3.308
57.80000 4.365
57.82000 5.306
57.84000 1.970
57.86000 1.957
57.88000 1.046
57.90000 2.046
57.92000 2.618
57.94000 6.047
57.96000 5.375
57.98000 4.573
58.00000 4.579
58.02000 2.551
58.04000 5.664
58.06000 5.908
58.08000 5.383
58.10000 5.951
58.12000 4.269
58.14000 6.395
58.16000 3.735
58.18000 2.640
58.20000 3.508
58.22000 3.491
58.24000 3.550
58.26000 6.138
58.28000 4.879
58.30000 4.909
58.32000 3.956
58.34000 0.251
58.36000 3.913
58.38000 8.560
58.40000 5.329
58.42000 4.360
58.44000 2.480
58.46000 5.598
58.48000 6.656
58.50000 3.432
58.52000 3.030
58.54000 1.914
58.56000 4.861
58.58000 3.063
58.60000 -0.925
58.62000 -2.428
58.64000 2.767
58.66000 2.591
58.68000 3.031
58.70000 1.859
58.72000 2.926
58.74000 6.638
58.76000 3.439
58.78000 2.778
58.80000 4.666
58.82000 4.282
58.84000 0.669
58.86000 0.937
58.88000 2.343
58.90000 2.162
58.92000 3.749
58.94000 4.838
58.96000 1.359
58.98000 3.807
59.00000 5.583
59.02000 8.710
59.04000 4.424
59.06000 0.093
59.08000 2.423
59.10000 6.021
59.12000 2.293
59.14000 3.000
59.16000 -0.544
59.18000 0.755
59.20000 4.182
59.22000 1.771
59.24000 -0.708
59.26000 1.849
59.28000 2.380
59.30000 0.379
59.32000 -0.158
59.34000 2.312
59.36000 1.050
59.38000 0.489
59.40000 3.274
59.42000 3.338
59.44000 0.465
59.46000 3.572
59.48000 2.047
59.50000 0.167
59.52000 4.816
59.54000 7.842
59.56000 3.696
59.58000 -0.478
59.60000 -0.132
59.62000 5.647
59.64000 2.142
59.66000 -1.232
59.68000 -1.128
59.70000 -1.098
59.72000 1.360
59.74000 4.820
59.76000 6.929
59.78000 1.247
59.80000 0.859
59.82000 1.825
59.84000 3.067
59.86000 1.822
59.88000 -0.879
59.90000 3.319
59.92000 0.822
59.94000 2.351
59.96000 2.722
59.98000 1.665
60.00000 -2.271
60.02000 0.473
60.04000 -0.045
60.06000 -1.614
60.08000 3.600
60.10000 4.275
60.12000 5.994
60.14000 3.410
60.16000 -2.395
60.18000 -1.276
60.20000 2.490
60.22000 3.556
60.24000 5.031
60.26000 1.014
60.28000 3.874
60.30000 4.952
60.32000 1.545
60.34000 1.159
60.36000 -1.770
60.38000 -0.013
60.40000 2.995
60.42000 3.875
60.44000 3.394
60.46000 5.158
60.48000 3.384
60.50000 4.180
60.52000 3.854
60.54000 3.689
60.56000 2.169
60.58000 0.845
60.60000 -0.190
60.62000 0.770
60.64000 2.254
60.66000 2.373
60.68000 0.034
60.70000 0.602
60.72000 1.165
60.74000 2.738
60.76000 -0.445
60.78000 -0.917
60.80000 1.060
60.82000 2.702
60.84000 0.459
60.86000 2.341
60.88000 4.415
60.90000 1.512
60.92000 2.216
60.94000 4.843
60.96000 4.138
60.98000 0.583
61.00000 3.884
61.02000 3.641
61.04000 -0.005
61.06000 0.692
61.08000 -1.053
61.10000 -0.707
61.12000 -0.831
61.14000 -0.007
61.16000 0.327
61.18000 2.043
61.20000 3.159
61.22000 3.802
61.24000 3.828
61.26000 1.931
61.28000 3.311
61.30000 2.409
61.32000 1.630
61.34000 1.517
61.36000 -2.345
61.38000 0.514
61.40000 3.167
61.42000 -1.240
61.44000 0.119
61.46000 0.273
61.48000 0.712
61.50000 4.514
61.52000 2.650
61.54000 0.161
61.56000 0.257
61.58000 2.262
61.60000 3.058
61.62000 2.452
61.64000 1.434
61.66000 -0.490
61.68000 -1.279
61.70000 1.000
61.72000 0.529
61.74000 1.088
61.76000 0.251
61.78000 -0.957
61.80000 0.540
61.82000 -1.099
61.84000 -2.356
61.86000 -0.336
61.88000 -0.066
61.90000 -0.514
61.92000 -0.377
61.94000 3.749
61.96000 2.408
61.98000 -0.250
62.00000 -0.131
62.02000 2.386
62.04000 2.122
62.06000 -0.846
62.08000 1.322
62.10000 1.509
62.12000 1.080
62.14000 4.073
62.16000 1.893
62.18000 2.136
62.20000 -0.109
62.22000 -2.253
62.24000 -0.692
62.26000 3.100
62.28000 3.549
62.30000 2.128
62.32000 0.951
62.34000 -0.829
62.36000 1.197
62.38000 0.693
62.40000 3.502
62.42000 2.384
62.44000 3.623
62.46000 0.160
62.48000 -1.956
62.50000 1.594
62.52000 -0.384
62.54000 -1.974
62.56000 1.988
62.58000 0.370
62.60000 2.169
62.62000 2.390
62.64000 -0.161
62.66000 0.412
62.68000 3.213
62.70000 2.268
62.72000 2.447
62.74000 -1.164
62.76000 1.479
62.78000 2.881
62.80000 -0.739
62.82000 1.593
62.84000 4.698
62.86000 5.348
62.88000 3.358
62.90000 1.788
62.92000 1.919
62.94000 4.260
62.96000 3.207
62.98000 2.819
63.00000 -1.313
63.02000 0.182
63.04000 2.800
63.06000 0.835
63.08000 -0.847
63.10000 -2.327
63.12000 -0.760
63.14000 2.180
63.16000 1.230
63.18000 -0.300
63.20000 -0.499
63.22000 -0.453
63.24000 -0.131
63.26000 1.577
63.28000 -0.762
63.30000 0.638
63.32000 1.147
63.34000 1.987
63.36000 3.818
63.38000 0.699
63.40000 1.746
63.42000 5.686
63.44000 4.315
63.46000 0.699
63.48000 1.914
63.50000 3.740
63.52000 -1.066
63.54000 1.529
63.56000 3.478
63.58000 -0.823
63.60000 0.175
63.62000 0.171
63.64000 -1.182
63.66000 0.339
63.68000 1.862
63.70000 0.671
63.72000 -0.966
63.74000 -1.902
63.76000 0.973
63.78000 0.669
63.80000 3.624
63.82000 3.165
63.84000 3.721
63.86000 2.513
63.88000 2.917
63.90000 2.233
63.92000 -0.646
63.94000 3.834
63.96000 3.744
63.98000 3.980
64.00000 2.873
64.02000 0.252
64.04000 -0.666
64.06000 1.937
64.08000 2.228
64.10000 3.199
64.12000 4.990
64.14000 2.690
64.16000 3.648
64.18000 4.665
64.20000 4.114
64.22000 2.021
64.24000 -2.299
64.26000 -1.370
64.28000 2.345
64.30000 2.733
64.32000 4.294
64.34000 3.397
64.36000 1.086
64.38000 2.882
64.40000 3.163
64.42000 2.724
64.44000 3.713
64.46000 1.818
64.48000 0.668
64.50000 1.321
64.52000 5.058
64.54000 0.787
64.56000 -0.815
64.58000 -0.497
64.60000 1.727
64.62000 3.033
64.64000 0.253
64.66000 2.110
64.68000 1.214
64.70000 3.106
64.72000 4.378
64.74000 3.338
64.76000 5.912
64.78000 4.542
64.80000 1.397
64.82000 1.954
64.84000 3.267
64.86000 3.266
64.88000 1.865
64.90000 1.390
64.92000 1.936
64.94000 2.038
64.96000 1.297
64.98000 1.877
65.00000 2.276
65.02000 2.740
65.04000 0.756
65.06000 0.522
65.08000 1.173
65.10000 1.754
65.12000 3.237
65.14000 4.666
65.16000 3.696
65.18000 1.684
65.20000 -0.765
65.22000 2.187
65.24000 5.779
65.26000 4.614
65.28000 5.123
65.30000 2.146
65.32000 2.909
65.34000 2.827
65.36000 7.410
65.38000 7.060
65.40000 4.156
65.42000 3.093
65.44000 4.068
65.46000 0.872
65.48000 4.533
65.50000 3.925
65.52000 2.757
65.54000 6.218
65.56000 2.924
65.58000 4.657
65.60000 4.753
65.62000 7.449
65.64000 5.629
65.66000 5.115
65.68000 6.171
65.70000 4.709
65.72000 3.918
65.74000 5.188
65.76000 4.610
65.78000 6.225
65.80000 6.298
65.82000 5.542
65.84000 5.864
65.86000 3.797
65.88000 4.326
65.90000 4.389
65.92000 2.168
65.94000 1.813
65.96000 2.507
65.98000 1.962
66.00000 4.697
66.02000 4.088
66.04000 5.336
66.06000 3.238
66.08000 1.045
66.10000 -0.141
66.12000 0.596
66.14000 2.724
66.16000 4.965
66.18000 2.190
66.20000 0.540
66.22000 0.701
66.24000 3.194
66.26000 1.899
66.28000 -0.121
66.30000 -1.203
66.32000 1.267
66.34000 -0.559
66.36000 0.077
66.38000 0.573
66.40000 -0.584
66.42000 -1.346
66.44000 0.088
66.46000 1.518
66.48000 1.190
66.50000 0.584
66.52000 0.418
66.54000 1.534
66.56000 -1.491
66.58000 -0.900
66.60000 -1.791
66.62000 0.794
66.64000 -0.464
66.66000 -2.226
66.68000 -1.467
66.70000 0.973
66.72000 -0.698
66.74000 -2.317
66.76000 -1.563
66.78000 0.387
66.80000 -1.849
66.82000 -0.398
66.84000 -1.171
66.86000 2.057
66.88000 0.826
66.90000 -1.298
66.92000 -1.525
66.94000 1.324
66.96000 0.836
66.98000 1.564
67.00000 0.369
67.02000 -0.371
67.04000 -1.255
67.06000 1.009
67.08000 -0.299
67.10000 -0.758
67.12000 1.756
67.14000 1.868
67.16000 1.552
67.18000 -0.913
67.20000 -1.615
67.22000 -0.229
67.24000 0.081
67.26000 1.243
67.28000 1.708
67.30000 0.651
67.32000 -0.406
67.34000 -0.997
67.36000 -0.311
67.38000 0.130
67.40000 0.782
67.42000 -0.400
67.44000 1.262
67.46000 1.311
67.48000 5.029
67.50000 2.662
67.52000 3.763
67.54000 -0.431
67.56000 0.091
67.58000 2.900
67.60000 0.515
67.62000 1.839
67.64000 -0.250
67.66000 -2.242
67.68000 1.922
67.70000 1.861
67.72000 0.682
67.74000 -1.833
67.76000 -1.152
67.78000 1.868
67.80000 1.901
67.82000 2.029
67.84000 1.450
67.86000 1.021
67.88000 -2.232
67.90000 0.456
67.92000 -1.117
67.94000 -2.036
67.96000 1.046
67.98000 0.444
68.00000 1.763
68.02000 0.271
68.04000 -2.226
68.06000 -1.474
68.08000 -1.662
68.10000 0.760
68.12000 3.748
68.14000 2.437
68.16000 0.956
68.18000 1.571
68.20000 2.083
68.22000 1.763
68.24000 1.369
68.26000 -0.318
68.28000 1.063
68.30000 0.399
68.32000 4.446
68.34000 3.822
68.36000 2.185
68.38000 1.618
68.40000 2.763
68.42000 1.015
68.44000 0.513
68.46000 -0.800
68.48000 3.187
68.50000 1.867
68.52000 0.360
68.54000 -1.760
68.56000 -1.423
68.58000 0.916
68.60000 0.580
68.62000 3.565
68.64000 2.168
68.66000 1.998
68.68000 2.416
68.70000 2.977
68.72000 1.674
68.74000 2.931
68.76000 3.813
68.78000 0.951
68.80000 0.620
68.82000 -0.675
68.84000 -0.570
68.86000 -1.967
68.88000 -2.162
68.90000 -0.072
68.92000 0.930
68.94000 1.696
68.96000 1.807
68.98000 2.149
69.00000 2.897
69.02000 3.271
69.04000 1.724
69.06000 -0.734
69.08000 1.669
69.10000 1.568
69.12000 1.442
69.14000 0.488
69.16000 2.494
69.18000 1.513
69.20000 1.637
69.22000 2.170
69.24000 4.085
69.26000 4.438
69.28000 2.521
69.30000 0.794
69.32000 2.488
69.34000 1.281
69.36000 3.200
69.38000 4.929
69.40000 1.553
69.42000 3.221
69.44000 1.110
69.46000 -0.475
69.48000 2.287
69.50000 -0.309
69.52000 -1.453
69.54000 2.135
69.56000 2.258
69.58000 0.836
69.60000 1.309
69.62000 1.228
69.64000 1.193
69.66000 2.985
69.68000 0.459
69.70000 -0.220
69.72000 -0.611
69.74000 1.650
69.76000 -1.590
69.78000 0.603
69.80000 2.041
69.82000 1.719
69.84000 1.869
69.86000 2.154
69.88000 -0.068
69.90000 -1.632
69.92000 -1.261
69.94000 -1.565
69.96000 -2.148
69.98000 -0.049
70.00000 0.973
70.02000 3.040
70.04000 3.763
70.06000 -0.276
70.08000 1.861
70.10000 2.060
70.12000 0.065
70.14000 1.785
70.16000 2.153
70.18000 3.777
70.20000 -1.669
70.22000 1.033
70.24000 4.046
70.26000 2.559
70.28000 -0.452
70.30000 -0.156
70.32000 -0.145
70.34000 1.414
70.36000 0.446
70.38000 -1.379
70.40000 -0.209
70.42000 0.282
70.44000 1.477
70.46000 2.146
70.48000 -0.791
70.50000 2.068
70.52000 -0.788
70.54000 1.191
70.56000 0.978
70.58000 -0.783
70.60000 -1.421
70.62000 -0.125
70.64000 0.161
70.66000 1.515
70.68000 1.871
70.70000 3.444
70.72000 4.645
70.74000 1.992
70.76000 -0.435
70.78000 -0.557
70.80000 0.835
70.82000 2.309
70.84000 1.127
70.86000 1.227
70.88000 1.110
70.90000 0.717
70.92000 -0.940
70.94000 -1.922
70.96000 0.427
70.98000 0.076
71.00000 2.282
71.02000 2.462
71.04000 1.154
71.06000 -0.103
71.08000 -0.421
71.10000 0.465
71.12000 2.062
71.14000 1.899
71.16000 0.323
71.18000 2.454
71.20000 6.141
71.22000 4.164
71.24000 1.136
71.26000 2.804
71.28000 0.380
71.30000 0.741
71.32000 3.885
71.34000 2.557
71.36000 -0.239
71.38000 2.343
71.40000 3.576
71.42000 6.208
71.44000 2.279
71.46000 -0.091
71.48000 2.909
71.50000 1.954
71.52000 3.371
71.54000 1.651
71.56000 2.292
71.58000 3.608
71.60000 3.164
71.62000 0.663
71.64000 3.373
71.66000 3.342
71.68000 0.801
71.70000 0.096
71.72000 -0.243
71.74000 -2.027
71.76000 -0.088
71.78000 2.679
71.80000 4.320
71.82000 4.569
71.84000 3.957
71.86000 1.589
71.88000 3.797
71.90000 5.036
71.92000 3.783
71.94000 4.188
71.96000 1.874
71.98000 1.223
72.00000 1.011
72.02000 1.438
72.04000 0.387
72.06000 0.896
72.08000 3.289
72.10000 1.225
72.12000 0.939
72.14000 0.186
72.16000 2.670
72.18000 4.073
72.20000 3.720
72.22000 2.544
72.24000 0.223
72.26000 2.157
72.28000 0.868
72.30000 3.434
72.32000 2.308
72.34000 -0.062
72.36000 0.589
72.38000 1.788
72.40000 2.010
72.42000 0.119
72.44000 2.908
72.46000 1.486
72.48000 1.017
72.50000 2.162
72.52000 3.442
72.54000 2.957
72.56000 3.582
72.58000 5.306
72.60000 3.530
72.62000 0.841
72.64000 -1.322
72.66000 -0.229
72.68000 -1.367
72.70000 -1.876
72.72000 -0.946
72.74000 0.721
72.76000 0.951
72.78000 1.846
72.80000 1.132
72.82000 3.019
72.84000 6.068
72.86000 0.779
72.88000 -0.382
72.90000 -0.229
72.92000 0.665
72.94000 2.089
72.96000 3.542
72.98000 2.066
73.00000 4.248
73.02000 2.558
73.04000 -2.055
73.06000 -0.980
73.08000 0.923
73.10000 0.751
73.12000 -0.188
73.14000 -1.575
73.16000 0.269
73.18000 2.328
73.20000 0.540
73.22000 5.269
73.24000 5.872
73.26000 0.918
73.28000 -0.130
73.30000 1.067
73.32000 2.316
73.34000 1.330
73.36000 0.131
73.38000 0.536
73.40000 0.444
73.42000 2.619
73.44000 2.518
73.46000 4.742
73.48000 2.146
73.50000 2.003
73.52000 0.866
73.54000 0.105
73.56000 0.173
73.58000 1.247
73.60000 5.642
73.62000 6.917
73.64000 3.996
73.66000 3.325
73.68000 3.048
73.70000 2.267
73.72000 1.487
73.74000 1.915
73.76000 -2.033
73.78000 -0.668
73.80000 1.081
73.82000 2.898
73.84000 5.588
73.86000 4.715
73.88000 1.410
73.90000 2.556
73.92000 4.941
73.94000 3.647
73.96000 4.260
73.98000 4.378
74.00000 1.989
74.02000 3.065
74.04000 3.013
74.06000 2.518
74.08000 3.223
74.10000 2.351
74.12000 4.970
74.14000 4.879
74.16000 0.523
74.18000 3.861
74.20000 5.876
74.22000 2.596
74.24000 0.837
74.26000 1.483
74.28000 5.578
74.30000 4.622
74.32000 3.975
74.34000 0.416
74.36000 1.743
74.38000 1.085
74.40000 -0.210
74.42000 1.111
74.44000 2.272
74.46000 3.218
74.48000 3.975
74.50000 4.120
74.52000 3.600
74.54000 1.499
74.56000 1.568
74.58000 0.098
74.60000 2.987
74.62000 3.562
74.64000 0.839
74.66000 2.913
74.68000 6.315
74.70000 4.349
74.72000 6.760
74.74000 7.401
74.76000 4.470
74.78000 1.977
74.80000 2.790
74.82000 0.783
74.84000 -1.998
74.86000 2.344
74.88000 3.616
74.90000 1.391
74.92000 2.048
74.94000 3.807
74.96000 2.702
74.98000 2.104
75.00000 0.605
75.02000 1.730
75.04000 3.299
75.06000 5.907
75.08000 3.375
75.10000 2.589
75.12000 1.310
75.14000 -0.238
75.16000 1.217
75.18000 5.075
75.20000 5.146
75.22000 3.393
75.24000 0.595
75.26000 3.294
75.28000 4.253
75.30000 2.391
75.32000 0.378
75.34000 1.225
75.36000 1.386
75.38000 2.158
75.40000 1.709
75.42000 2.169
75.44000 2.192
75.46000 0.992
75.48000 1.782
75.50000 3.492
75.52000 2.739
75.54000 3.170
75.56000 2.294
75.58000 1.815
75.60000 0.247
75.62000 2.226
75.64000 2.296
75.66000 4.964
75.68000 2.340
75.70000 2.890
75.72000 4.241
75.74000 0.318
75.76000 -0.999
75.78000 0.682
75.80000 1.835
75.82000 -0.919
75.84000 -0.279
75.86000 3.076
75.88000 2.295
75.90000 2.845
75.92000 5.803
75.94000 5.796
75.96000 3.113
75.98000 0.344
76.00000 1.690
76.02000 2.897
76.04000 2.405
76.06000 4.563
76.08000 1.907
76.10000 1.671
76.12000 1.781
76.14000 3.773
76.16000 2.605
76.18000 2.252
76.20000 2.270
76.22000 -1.111
76.24000 -2.089
76.26000 -0.099
76.28000 1.298
76.30000 1.414
76.32000 0.497
76.34000 0.733
76.36000 1.628
76.38000 3.130
76.40000 4.373
76.42000 1.574
76.44000 2.305
76.46000 4.026
76.48000 3.656
76.50000 1.798
76.52000 -1.371
76.54000 -1.734
76.56000 0.125
76.58000 0.682
76.60000 0.932
76.62000 -1.665
76.64000 2.391
76.66000 2.312
76.68000 5.368
76.70000 6.055
76.72000 3.254
76.74000 5.042
76.76000 5.865
76.78000 0.809
76.80000 2.861
76.82000 2.694
76.84000 0.934
76.86000 1.117
76.88000 -0.313
76.90000 0.476
76.92000 -0.249
76.94000 0.322
76.96000 5.149
76.98000 5.023
77.00000 2.602
77.02000 5.396
77.04000 5.544
77.06000 2.689
77.08000 4.386
77.10000 2.882
77.12000 4.129
77.14000 1.301
77.16000 -2.134
77.18000 -0.042
77.20000 5.486
77.22000 2.805
77.24000 -0.115
77.26000 -0.251
77.28000 -0.896
77.30000 2.442
77.32000 6.130
77.34000 0.426
77.36000 -0.552
77.38000 -1.467
77.40000 0.937
77.42000 2.199
77.44000 3.176
77.46000 -0.821
77.48000 0.633
77.50000 2.494
77.52000 3.744
77.54000 2.180
77.56000 -0.550
77.58000 2.542
77.60000 3.877
77.62000 2.940
77.64000 3.976
77.66000 1.479
77.68000 5.626
77.70000 3.627
77.72000 1.459
77.74000 2.765
77.76000 2.802
77.78000 -1.574
77.80000 0.481
77.82000 2.273
77.84000 0.511
77.86000 1.560
77.88000 1.257
77.90000 2.451
77.92000 4.955
77.94000 5.558
77.96000 4.915
77.98000 2.550
78.00000 2.193
78.02000 1.281
78.04000 0.959
78.06000 3.992
78.08000 4.622
78.10000 5.650
78.12000 6.250
78.14000 7.047
78.16000 7.212
78.18000 6.322
78.20000 2.922
78.22000 4.690
78.24000 4.766
78.26000 6.929
78.28000 7.231
78.30000 7.375
78.32000 8.560
78.34000 11.319
78.36000 10.777
78.38000 13.506
78.40000 12.702
78.42000 15.484
78.44000 17.685
78.46000 18.346
78.48000 18.726
78.50000 13.955
78.52000 13.771
78.54000 16.287
78.56000 17.850
78.58000 18.187
78.60000 15.970
78.62000 18.494
78.64000 17.293
78.66000 13.883
78.68000 18.288
78.70000 23.824
78.72000 25.715
78.74000 26.269
78.76000 27.352
78.78000 26.238
78.80000 28.335
78.82000 29.719
78.84000 24.501
78.86000 31.715
78.88000 31.025
78.90000 26.600
78.92000 27.300
78.94000 27.194
78.96000 25.927
78.98000 25.178
79.00000 29.520
79.02000 30.619
79.04000 28.331
79.06000 24.535
79.08000 21.676
79.10000 25.576
79.12000 28.757
79.14000 31.023
79.16000 25.081
79.18000 25.688
79.20000 27.379
79.22000 25.823
79.24000 23.729
79.26000 19.457
79.28000 17.734
79.30000 18.065
79.32000 19.445
79.34000 15.449
79.36000 12.837
79.38000 14.101
79.40000 15.707
79.42000 20.030
79.44000 17.194
79.46000 14.965
79.48000 12.827
79.50000 13.609
79.52000 11.670
79.54000 11.365
79.56000 11.473
79.58000 11.794
79.60000 10.287
79.62000 10.720
79.64000 10.497
79.66000 9.856
79.68000 9.064
79.70000 11.700
79.72000 7.788
79.74000 6.992
79.76000 5.931
79.78000 3.277
79.80000 2.770
79.82000 5.493
79.84000 8.913
79.86000 4.237
79.88000 2.106
79.90000 5.614
79.92000 6.691
79.94000 5.263
79.96000 3.697
79.98000 0.635
80.00000 2.847
80.02000 -0.513
80.04000 -1.068
80.06000 4.829
80.08000 4.676
80.10000 1.154
80.12000 -1.646
80.14000 0.707
80.16000 1.779
80.18000 3.566
80.20000 -0.241
80.22000 -1.293
80.24000 -0.453
80.26000 0.666
80.28000 0.312
80.30000 0.832
80.32000 3.185
80.34000 4.686
80.36000 3.200
80.38000 1.563
80.40000 2.159
80.42000 -0.032
80.44000 3.388
80.46000 2.192
80.48000 1.722
80.50000 4.035
80.52000 2.367
80.54000 2.758
80.56000 0.227
80.58000 0.114
80.60000 2.266
80.62000 3.744
80.64000 1.905
80.66000 3.701
80.68000 3.473
80.70000 2.210
80.72000 2.173
80.74000 1.973
80.76000 1.291
80.78000 3.848
80.80000 5.906
80.82000 5.881
80.84000 2.375
80.86000 3.033
80.88000 7.815
80.90000 6.070
80.92000 4.318
80.94000 5.961
80.96000 5.880
80.98000 -2.160
81.00000 -2.320
81.02000 2.763
81.04000 4.901
81.06000 5.098
81.08000 3.796
81.10000 5.656
81.12000 4.769
81.14000 2.892
81.16000 7.169
81.18000 6.261
81.20000 6.546
81.22000 7.680
81.24000 6.845
81.26000 6.091
81.28000 3.321
81.30000 4.301
81.32000 4.221
81.34000 6.383
81.36000 4.287
81.38000 2.211
81.40000 0.639
81.42000 8.151
81.44000 9.705
81.46000 0.006
81.48000 0.063
81.50000 1.112
81.52000 6.720
81.54000 7.709
81.56000 7.537
81.58000 6.694
81.60000 7.461
81.62000 7.160
81.64000 4.525
81.66000 7.600
81.68000 8.019
81.70000 6.589
81.72000 8.088
81.74000 9.320
81.76000 15.603
81.78000 10.095
81.80000 9.692
81.82000 7.776
81.84000 9.674
81.86000 11.158
81.88000 7.655
81.90000 8.472
81.92000 10.069
81.94000 10.873
81.96000 7.785
81.98000 15.148
82.00000 16.924
82.02000 15.801
82.04000 12.594
82.06000 16.239
82.08000 13.965
82.10000 15.237
82.12000 13.349
82.14000 14.878
82.16000 18.160
82.18000 18.666
82.20000 21.364
82.22000 17.677
82.24000 21.451
82.26000 25.253
82.28000 24.860
82.30000 23.323
82.32000 19.955
82.34000 22.827
82.36000 30.073
82.38000 26.113
82.40000 25.678
82.42000 27.417
82.44000 31.940
82.46000 33.635
82.48000 30.673
82.50000 33.865
82.52000 37.917
82.54000 36.961
82.56000 38.785
82.58000 44.238
82.60000 38.825
82.62000 44.801
82.64000 49.379
82.66000 48.208
82.68000 50.603
82.70000 47.758
82.72000 51.930
82.74000 60.977
82.76000 61.091
82.78000 59.104
82.80000 62.117
82.82000 68.374
82.84000 69.684
82.86000 72.538
82.88000 70.972
82.90000 69.768
82.92000 75.493
82.94000 79.546
82.96000 83.731
82.98000 77.556
83.00000 74.841
83.02000 75.572
83.04000 76.618
83.06000 79.471
83.08000 82.590
83.10000 86.465
83.12000 86.974
83.14000 87.018
83.16000 92.280
83.18000 85.107
83.20000 84.065
83.22000 84.325
83.24000 82.356
83.26000 84.510
83.28000 83.860
83.30000 77.251
83.32000 76.672
83.34000 74.439
83.36000 69.946
83.38000 74.928
83.40000 68.472
83.42000 67.009
83.44000 64.637
83.46000 62.275
83.48000 61.846
83.50000 59.501
83.52000 54.347
83.54000 49.300
83.56000 52.655
83.58000 50.868
83.60000 41.654
83.62000 39.808
83.64000 41.642
83.66000 39.516
83.68000 33.883
83.70000 30.093
83.72000 28.017
83.74000 28.434
83.76000 27.085
83.78000 25.984
83.80000 28.904
83.82000 25.053
83.84000 23.345
83.86000 21.227
83.88000 21.154
83.90000 21.294
83.92000 22.747
83.94000 16.960
83.96000 12.181
83.98000 16.887
84.00000 17.510
84.02000 12.865
84.04000 13.606
84.06000 9.140
84.08000 10.343
84.10000 10.800
84.12000 10.214
84.14000 8.948
84.16000 8.718
84.18000 9.112
84.20000 9.896
84.22000 7.975
84.24000 5.787
84.26000 3.638
84.28000 2.761
84.30000 6.147
84.32000 6.425
84.34000 6.439
84.36000 4.997
84.38000 6.410
84.40000 3.228
84.42000 2.784
84.44000 4.107
84.46000 2.389
84.48000 5.746
84.50000 1.642
84.52000 2.364
84.54000 1.797
84.56000 0.269
84.58000 1.274
84.60000 2.134
84.62000 0.397
84.64000 1.781
84.66000 4.467
84.68000 0.457
84.70000 -2.159
84.72000 -1.619
84.74000 -1.700
84.76000 -0.058
84.78000 1.322
84.80000 1.361
84.82000 -0.549
84.84000 -1.761
84.86000 2.419
84.88000 3.596
84.90000 2.660
84.92000 0.916
84.94000 1.685
84.96000 1.574
84.98000 2.490
85.00000 0.655
85.02000 1.258
85.04000 0.180
85.06000 0.314
85.08000 2.015
85.10000 0.397
85.12000 4.731
85.14000 4.238
85.16000 6.653
85.18000 2.103
85.20000 -0.420
85.22000 -0.606
85.24000 -0.976
85.26000 0.541
85.28000 2.292
85.30000 0.454
85.32000 -0.148
85.34000 -1.721
85.36000 0.740
85.38000 2.109
85.40000 2.097
85.42000 4.261
85.44000 1.053
85.46000 -0.585
85.48000 0.365
85.50000 0.461
85.52000 3.435
85.54000 0.713
85.56000 2.758
85.58000 1.198
85.60000 2.340
85.62000 1.427
85.64000 -0.289
85.66000 -1.366
85.68000 -0.835
85.70000 0.093
85.72000 5.006
85.74000 1.856
85.76000 0.084
85.78000 3.744
85.80000 2.480
85.82000 -0.707
85.84000 -1.593
85.86000 -2.005
85.88000 2.142
85.90000 1.445
85.92000 -0.344
85.94000 1.679
85.96000 0.763
85.98000 1.090
86.00000 0.284
86.02000 1.107
86.04000 -0.091
86.06000 2.418
86.08000 1.477
86.10000 2.527
86.12000 2.190
86.14000 1.507
86.16000 4.179
86.18000 5.493
86.20000 1.547
86.22000 1.439
86.24000 0.618
86.26000 0.752
86.28000 5.045
86.30000 1.474
86.32000 -0.827
86.34000 -1.993
86.36000 -1.151
86.38000 0.370
86.40000 2.080
86.42000 1.422
86.44000 1.302
86.46000 -1.506
86.48000 0.803
86.50000 2.565
86.52000 1.441
86.54000 1.717
86.56000 2.444
86.58000 2.308
86.60000 1.764
86.62000 0.119
86.64000 -1.985
86.66000 0.332
86.68000 0.858
86.70000 -0.451
86.72000 -0.310
86.74000 -1.446
86.76000 0.967
86.78000 -0.735
86.80000 -1.674
86.82000 -1.121
86.84000 -0.289
86.86000 2.475
86.88000 0.056
86.90000 -1.984
86.92000 -0.728
86.94000 -0.438
86.96000 3.073
86.98000 1.908
87.00000 -0.169
87.02000 -0.753
87.04000 -0.125
87.06000 2.844
87.08000 2.801
87.10000 2.812
87.12000 0.550
87.14000 -1.855
87.16000 1.517
87.18000 2.214
87.20000 1.887
87.22000 0.150
87.24000 1.620
87.26000 -0.555
87.28000 3.091
87.30000 -0.238
87.32000 -0.140
87.34000 0.167
87.36000 -0.605
87.38000 0.960
87.40000 3.504
87.42000 3.480
87.44000 1.777
87.46000 0.530
87.48000 -0.553
87.50000 1.109
87.52000 3.630
87.54000 1.101
87.56000 -0.677
87.58000 0.546
87.60000 -0.826
87.62000 1.387
87.64000 0.607
87.66000 -0.193
87.68000 1.387
87.70000 3.522
87.72000 3.394
87.74000 0.633
87.76000 0.219
87.78000 -1.515
87.80000 0.062
87.82000 0.504
87.84000 0.650
87.86000 2.733
87.88000 2.370
87.90000 2.156
87.92000 0.936
87.94000 0.687
87.96000 -0.326
87.98000 1.024
88.00000 0.854
88.02000 2.437
88.04000 1.912
88.06000 2.400
88.08000 5.935
88.10000 2.571
88.12000 3.179
88.14000 0.877
88.16000 -1.928
88.18000 3.435
88.20000 0.945
88.22000 1.409
88.24000 3.171
88.26000 4.644
88.28000 2.709
88.30000 3.385
88.32000 2.106
88.34000 0.270
88.36000 4.697
88.38000 7.167
88.40000 4.677
88.42000 -0.066
88.44000 1.897
88.46000 3.945
88.48000 2.053
88.50000 0.667
88.52000 -0.588
88.54000 -1.547
88.56000 -0.995
88.58000 3.744
88.60000 5.566
88.62000 2.157
88.64000 2.698
88.66000 3.696
88.68000 1.579
88.70000 3.378
88.72000 1.829
88.74000 -1.894
88.76000 3.235
88.78000 3.709
88.80000 3.904
88.82000 2.368
88.84000 2.243
88.86000 2.331
88.88000 1.034
88.90000 3.266
88.92000 4.250
88.94000 3.656
88.96000 0.536
88.98000 1.876
89.00000 1.627
89.02000 1.258
89.04000 2.158
89.06000 -0.820
89.08000 3.998
89.10000 3.160
89.12000 4.503
89.14000 2.375
89.16000 3.748
89.18000 1.899
89.20000 0.586
89.22000 2.469
89.24000 2.778
89.26000 2.471
89.28000 2.116
89.30000 2.498
89.32000 3.748
89.34000 4.567
89.36000 0.959
89.38000 0.084
89.40000 1.868
89.42000 5.032
89.44000 5.700
89.46000 4.020
89.48000 3.135
89.50000 4.594
89.52000 3.080
89.54000 2.196
89.56000 3.478
89.58000 -1.890
89.60000 0.026
89.62000 3.787
89.64000 0.765
89.66000 -0.512
89.68000 1.981
89.70000 6.622
89.72000 5.242
89.74000 0.618
89.76000 1.001
89.78000 3.601
89.80000 2.261
89.82000 3.625
89.84000 3.766
89.86000 -0.512
89.88000 0.178
89.90000 -0.382
89.92000 2.737
89.94000 4.098
89.96000 3.838
89.98000 3.559
90.00000 3.510
90.02000 3.682
90.04000 3.218
90.06000 1.636
90.08000 2.461
90.10000 4.487
90.12000 2.978
90.14000 1.625
90.16000 0.690
90.18000 -1.836
90.20000 1.186
90.22000 3.133
90.24000 7.850
90.26000 7.838
90.28000 5.458
90.30000 1.121
90.32000 0.146
90.34000 4.107
90.36000 2.373
90.38000 -0.218
90.40000 1.859
90.42000 1.190
90.44000 -0.625
90.46000 -1.880
90.48000 1.621
90.50000 7.715
90.52000 6.705
90.54000 3.418
90.56000 0.152
90.58000 0.477
90.60000 -0.197
90.62000 0.181
90.64000 -1.099
90.66000 -1.301
90.68000 2.791
90.70000 -0.310
90.72000 -1.458
90.74000 -1.129
90.76000 0.907
90.78000 2.528
90.80000 3.474
90.82000 5.486
90.84000 4.046
90.86000 1.669
90.88000 0.847
90.90000 1.677
90.92000 0.977
90.94000 1.595
90.96000 0.117
90.98000 0.852
91.00000 2.624
91.02000 3.052
91.04000 3.600
91.06000 2.900
91.08000 1.670
91.10000 0.907
91.12000 2.286
91.14000 0.799
91.16000 -0.057
91.18000 3.084
91.20000 4.112
91.22000 5.050
91.24000 3.109
91.26000 1.716
91.28000 4.654
91.30000 3.063
91.32000 4.404
91.34000 3.761
91.36000 0.336
91.38000 2.973
91.40000 2.247
91.42000 -1.899
91.44000 -0.458
91.46000 2.833
91.48000 4.482
91.50000 5.358
91.52000 1.863
91.54000 2.670
91.56000 1.566
91.58000 2.666
91.60000 1.200
91.62000 3.522
91.64000 5.963
91.66000 6.117
91.68000 2.535
91.70000 0.417
91.72000 -1.211
91.74000 -1.309
91.76000 -0.433
91.78000 -0.021
91.80000 0.542
91.82000 0.714
91.84000 2.833
91.86000 2.125
91.88000 3.408
91.90000 1.619
91.92000 3.193
91.94000 1.848
91.96000 -1.033
91.98000 1.094
92.00000 3.092
92.02000 1.671
92.04000 2.171
92.06000 3.817
92.08000 2.551
92.10000 1.499
92.12000 4.601
92.14000 1.398
92.16000 1.645
92.18000 2.097
92.20000 3.630
92.22000 0.864
92.24000 3.123
92.26000 5.508
92.28000 3.343
92.30000 2.320
92.32000 2.965
92.34000 0.652
92.36000 3.858
92.38000 7.071
92.40000 5.856
92.42000 4.725
92.44000 -1.409
92.46000 -0.209
92.48000 -1.015
92.50000 -1.090
92.52000 3.608
92.54000 2.577
92.56000 1.044
92.58000 3.421
92.60000 3.494
92.62000 1.476
92.64000 -0.735
92.66000 1.763
92.68000 -0.806
92.70000 2.633
92.72000 3.663
92.74000 1.662
92.76000 2.728
92.78000 2.308
92.80000 2.626
92.82000 -1.917
92.84000 -0.786
92.86000 5.701
92.88000 3.319
92.90000 3.731
92.92000 2.959
92.94000 0.738
92.96000 -1.912
92.98000 0.677
93.00000 3.674
93.02000 5.308
93.04000 4.097
93.06000 5.312
93.08000 3.356
93.10000 2.992
93.12000 1.214
93.14000 0.602
93.16000 3.476
93.18000 3.881
93.20000 3.466
93.22000 4.503
93.24000 5.865
93.26000 4.014
93.28000 3.665
93.30000 2.632
93.32000 2.250
93.34000 4.108
93.36000 4.515
93.38000 3.001
93.40000 0.590
93.42000 -1.910
93.44000 1.291
93.46000 3.014
93.48000 3.113
93.50000 1.243
93.52000 0.889
93.54000 2.040
93.56000 5.349
93.58000 4.425
93.60000 2.193
93.62000 1.570
93.64000 -0.994
93.66000 -0.035
93.68000 3.310
93.70000 1.893
93.72000 0.557
93.74000 2.558
93.76000 2.283
93.78000 2.393
93.80000 2.807
93.82000 0.733
93.84000 2.009
93.86000 2.727
93.88000 1.127
93.90000 1.153
93.92000 -0.441
93.94000 -1.141
93.96000 1.893
93.98000 2.687
94.00000 3.278
94.02000 3.449
94.04000 -0.253
94.06000 0.467
94.08000 2.085
94.10000 0.640
94.12000 -0.497
94.14000 0.690
94.16000 -0.512
94.18000 -1.855
94.20000 -0.922
94.22000 0.056
94.24000 2.286
94.26000 4.344
94.28000 1.376
94.30000 1.514
94.32000 1.739
94.34000 6.189
94.36000 7.076
94.38000 7.346
94.40000 2.251
94.42000 3.353
94.44000 3.282
94.46000 3.491
94.48000 2.686
94.50000 0.974
94.52000 3.855
94.54000 4.386
94.56000 5.745
94.58000 3.424
94.60000 5.442
94.62000 5.431
94.64000 1.511
94.66000 5.221
94.68000 4.476
94.70000 2.431
94.72000 2.682
94.74000 1.870
94.76000 0.881
94.78000 3.166
94.80000 3.199
94.82000 4.963
94.84000 3.920
94.86000 1.294
94.88000 -0.303
94.90000 0.174
94.92000 1.087
94.94000 2.986
94.96000 4.445
94.98000 3.543
95.00000 3.854
95.02000 0.169
95.04000 0.467
95.06000 2.895
95.08000 5.266
95.10000 6.918
95.12000 3.360
95.14000 3.476
95.16000 1.838
95.18000 8.972
95.20000 5.599
95.22000 5.454
95.24000 4.224
95.26000 4.133
95.28000 4.184
95.30000 5.125
95.32000 4.904
95.34000 6.234
95.36000 6.987
95.38000 3.941
95.40000 3.932
95.42000 4.987
95.44000 3.483
95.46000 4.158
95.48000 6.510
95.50000 6.370
95.52000 1.922
95.54000 2.261
95.56000 4.422
95.58000 1.731
95.60000 -1.891
95.62000 1.478
95.64000 5.293
95.66000 3.748
95.68000 2.482
95.70000 5.831
95.72000 8.691
95.74000 4.362
95.76000 4.072
95.78000 3.254
95.80000 5.860
95.82000 3.357
95.84000 8.156
95.86000 8.593
95.88000 3.143
95.90000 3.349
95.92000 5.432
95.94000 3.938
95.96000 3.780
95.98000 9.874
96.00000 4.172
96.02000 1.152
96.04000 2.053
96.06000 4.532
96.08000 2.431
96.10000 3.576
96.12000 -0.807
96.14000 1.851
96.16000 5.880
96.18000 4.539
96.20000 4.461
96.22000 3.248
96.24000 -0.572
96.26000 3.816
96.28000 0.694
96.30000 -0.766
96.32000 3.277
96.34000 3.629
96.36000 4.289
96.38000 1.821
96.40000 5.950
96.42000 4.962
96.44000 0.907
96.46000 3.633
96.48000 5.299
96.50000 2.286
96.52000 4.970
96.54000 4.126
96.56000 6.683
96.58000 3.831
96.60000 0.275
96.62000 3.096
96.64000 2.264
96.66000 1.993
96.68000 0.164
96.70000 5.530
96.72000 6.374
96.74000 4.473
96.76000 3.194
96.78000 5.299
96.80000 3.460
96.82000 -1.068
96.84000 -0.857
96.86000 3.396
96.88000 5.676
96.90000 1.620
96.92000 2.766
96.94000 1.903
96.96000 -1.273
96.98000 1.068
97.00000 6.171
97.02000 5.828
97.04000 7.709
97.06000 5.237
97.08000 4.834
97.10000 4.417
97.12000 4.200
97.14000 -0.174
97.16000 3.269
97.18000 2.461
97.20000 4.793
97.22000 6.921
97.24000 1.924
97.26000 3.022
97.28000 3.250
97.30000 2.159
97.32000 0.203
97.34000 0.261
97.36000 5.518
97.38000 5.414
97.40000 4.691
97.42000 3.156
97.44000 6.659
97.46000 7.429
97.48000 1.254
97.50000 2.012
97.52000 2.066
97.54000 6.585
97.56000 8.412
97.58000 6.503
97.60000 5.871
97.62000 2.647
97.64000 2.623
97.66000 2.504
97.68000 -1.873
97.70000 1.820
97.72000 7.850
97.74000 3.193
97.76000 3.458
97.78000 4.984
97.80000 4.943
97.82000 4.187
97.84000 5.431
97.86000 5.682
97.88000 2.981
97.90000 4.254
97.92000 6.390
97.94000 5.988
97.96000 5.006
97.98000 3.633
98.00000 6.028
98.02000 5.657
98.04000 7.253
98.06000 6.905
98.08000 5.726
98.10000 5.784
98.12000 3.607
98.14000 4.710
98.16000 1.870
98.18000 3.534
98.20000 0.825
98.22000 1.595
98.24000 0.262
98.26000 1.651
98.28000 6.561
98.30000 6.928
98.32000 0.959
98.34000 2.697
98.36000 1.553
98.38000 7.314
98.40000 13.835
98.42000 6.835
98.44000 5.514
98.46000 3.692
98.48000 6.164
98.50000 8.617
98.52000 10.687
98.54000 9.257
98.56000 8.218
98.58000 4.437
98.60000 7.645
98.62000 9.475
98.64000 12.918
98.66000 8.639
98.68000 9.171
98.70000 5.520
98.72000 3.177
98.74000 0.684
98.76000 3.477
98.78000 5.336
98.80000 2.734
98.82000 5.138
98.84000 4.083
98.86000 4.709
98.88000 4.757
98.90000 2.443
98.92000 5.522
98.94000 9.002
98.96000 7.284
98.98000 3.750
99.00000 1.042
99.02000 3.521
99.04000 11.266
99.06000 8.189
99.08000 6.366
99.10000 0.805
99.12000 4.865
99.14000 6.871
99.16000 -1.859
99.18000 2.557
99.20000 6.883
99.22000 8.702
99.24000 6.430
99.26000 7.358
99.28000 8.373
99.30000 6.554
99.32000 5.691
99.34000 6.453
99.36000 9.048
99.38000 10.352
99.40000 6.446
99.42000 4.037
99.44000 1.209
99.46000 -1.432
99.48000 7.377
99.50000 5.291
99.52000 5.301
99.54000 8.925
99.56000 9.323
99.58000 7.598
99.60000 8.857
99.62000 9.467
99.64000 4.742
99.66000 -1.890
99.68000 3.065
99.70000 6.478
99.72000 4.342
99.74000 6.250
99.76000 10.158
99.78000 10.928
99.80000 7.021
99.82000 13.441
99.84000 8.047
99.86000 4.084
99.88000 -1.941
99.90000 3.018
99.92000 8.763
99.94000 11.912
99.96000 14.270
99.98000 0.000
