'Id: "0011387" Comment: "Integrate frame 0011387_Au-Ir-Rh_Rh-rich_XRD-Mapping-276-0000.gfrmwith cursor Wedge Cursor #5" Operator: "B?rgel" Anode: "Cu" Wavelength: "1.5406" Scantype: "2Theta (TwoTheta)" TimePerStep: "1" X: "31.5" Y: "22.5" Z: "5.95" 
10.00000 0.000
10.02000 -3.516
10.04000 -1.110
10.06000 8.937
10.08000 11.875
10.10000 6.852
10.12000 7.880
10.14000 17.729
10.16000 14.553
10.18000 7.804
10.20000 7.870
10.22000 4.922
10.24000 -5.522
10.26000 11.346
10.28000 16.053
10.30000 16.481
10.32000 19.923
10.34000 16.085
10.36000 17.989
10.38000 10.721
10.40000 18.462
10.42000 28.466
10.44000 22.006
10.46000 24.718
10.48000 7.479
10.50000 8.957
10.52000 18.860
10.54000 13.980
10.56000 22.420
10.58000 34.937
10.60000 24.452
10.62000 21.191
10.64000 31.643
10.66000 33.137
10.68000 26.269
10.70000 28.517
10.72000 25.939
10.74000 31.781
10.76000 29.000
10.78000 25.411
10.80000 36.108
10.82000 32.250
10.84000 21.800
10.86000 25.808
10.88000 23.995
10.90000 28.974
10.92000 29.602
10.94000 33.364
10.96000 38.996
10.98000 34.162
11.00000 28.557
11.02000 25.895
11.04000 27.755
11.06000 26.385
11.08000 28.356
11.10000 28.703
11.12000 35.248
11.14000 27.094
11.16000 19.714
11.18000 25.343
11.20000 23.735
11.22000 12.173
11.24000 8.333
11.26000 26.165
11.28000 39.342
11.30000 42.379
11.32000 36.441
11.34000 29.787
11.36000 33.496
11.38000 34.433
11.40000 33.133
11.42000 27.524
11.44000 32.356
11.46000 32.114
11.48000 28.220
11.50000 30.916
11.52000 23.170
11.54000 23.273
11.56000 30.440
11.58000 39.691
11.60000 39.314
11.62000 30.218
11.64000 23.873
11.66000 35.198
11.68000 32.030
11.70000 36.551
11.72000 38.835
11.74000 35.976
11.76000 38.496
11.78000 40.753
11.80000 37.704
11.82000 35.293
11.84000 30.367
11.86000 26.560
11.88000 33.434
11.90000 34.344
11.92000 38.495
11.94000 36.813
11.96000 28.875
11.98000 36.778
12.00000 34.480
12.02000 36.909
12.04000 29.421
12.06000 32.763
12.08000 43.069
12.10000 45.586
12.12000 35.406
12.14000 30.832
12.16000 36.750
12.18000 34.307
12.20000 33.171
12.22000 29.690
12.24000 36.982
12.26000 34.928
12.28000 34.263
12.30000 40.750
12.32000 30.288
12.34000 33.158
12.36000 40.041
12.38000 34.411
12.40000 43.264
12.42000 47.704
12.44000 48.199
12.46000 37.855
12.48000 42.225
12.50000 38.077
12.52000 35.084
12.54000 25.132
12.56000 32.167
12.58000 35.915
12.60000 37.192
12.62000 36.992
12.64000 34.425
12.66000 39.607
12.68000 37.819
12.70000 40.405
12.72000 36.423
12.74000 37.294
12.76000 42.367
12.78000 52.264
12.80000 50.798
12.82000 42.984
12.84000 41.769
12.86000 41.824
12.88000 41.710
12.90000 38.573
12.92000 41.740
12.94000 41.311
12.96000 42.503
12.98000 50.242
13.00000 38.238
13.02000 32.336
13.04000 40.015
13.06000 33.885
13.08000 32.667
13.10000 42.272
13.12000 40.429
13.14000 49.077
13.16000 45.961
13.18000 38.656
13.20000 32.919
13.22000 35.073
13.24000 34.878
13.26000 43.887
13.28000 35.832
13.30000 37.566
13.32000 43.111
13.34000 36.477
13.36000 32.124
13.38000 35.943
13.40000 38.530
13.42000 43.107
13.44000 35.158
13.46000 44.596
13.48000 43.991
13.50000 46.306
13.52000 38.206
13.54000 29.309
13.56000 31.581
13.58000 38.853
13.60000 30.969
13.62000 32.021
13.64000 32.356
13.66000 35.216
13.68000 35.591
13.70000 44.416
13.72000 31.945
13.74000 34.006
13.76000 30.693
13.78000 35.263
13.80000 40.744
13.82000 36.919
13.84000 28.681
13.86000 28.916
13.88000 34.055
13.90000 41.981
13.92000 37.517
13.94000 22.314
13.96000 19.225
13.98000 23.492
14.00000 24.747
14.02000 35.822
14.04000 39.006
14.06000 30.833
14.08000 20.963
14.10000 22.708
14.12000 25.254
14.14000 25.128
14.16000 30.922
14.18000 25.787
14.20000 28.475
14.22000 34.665
14.24000 29.522
14.26000 29.418
14.28000 34.413
14.30000 31.641
14.32000 22.178
14.34000 21.707
14.36000 32.713
14.38000 32.545
14.40000 25.089
14.42000 30.684
14.44000 28.637
14.46000 21.935
14.48000 23.523
14.50000 19.562
14.52000 15.292
14.54000 20.267
14.56000 23.433
14.58000 15.167
14.60000 22.775
14.62000 26.424
14.64000 25.651
14.66000 26.618
14.68000 28.740
14.70000 27.222
14.72000 22.873
14.74000 32.119
14.76000 27.847
14.78000 28.058
14.80000 26.283
14.82000 22.266
14.84000 24.962
14.86000 15.909
14.88000 11.928
14.90000 29.535
14.92000 36.695
14.94000 29.156
14.96000 16.785
14.98000 19.346
15.00000 21.442
15.02000 26.732
15.04000 21.549
15.06000 16.389
15.08000 24.217
15.10000 17.326
15.12000 20.830
15.14000 23.921
15.16000 32.267
15.18000 30.151
15.20000 19.967
15.22000 25.915
15.24000 32.826
15.26000 15.849
15.28000 8.733
15.30000 20.425
15.32000 20.402
15.34000 18.113
15.36000 11.570
15.38000 16.459
15.40000 14.524
15.42000 10.333
15.44000 14.339
15.46000 16.959
15.48000 19.118
15.50000 25.293
15.52000 20.166
15.54000 16.849
15.56000 14.405
15.58000 20.033
15.60000 25.457
15.62000 17.743
15.64000 21.367
15.66000 21.577
15.68000 25.679
15.70000 17.001
15.72000 22.378
15.74000 13.843
15.76000 8.396
15.78000 11.060
15.80000 17.840
15.82000 13.782
15.84000 14.556
15.86000 15.670
15.88000 11.385
15.90000 6.615
15.92000 18.487
15.94000 17.923
15.96000 15.386
15.98000 17.498
16.00000 16.852
16.02000 13.069
16.04000 10.385
16.06000 10.809
16.08000 16.433
16.10000 28.676
16.12000 23.278
16.14000 10.041
16.16000 6.887
16.18000 16.116
16.20000 16.522
16.22000 16.798
16.24000 21.338
16.26000 11.043
16.28000 14.574
16.30000 11.235
16.32000 17.660
16.34000 13.239
16.36000 6.964
16.38000 9.962
16.40000 16.104
16.42000 6.526
16.44000 6.187
16.46000 15.463
16.48000 13.323
16.50000 13.609
16.52000 19.176
16.54000 10.848
16.56000 11.279
16.58000 24.874
16.60000 20.584
16.62000 20.466
16.64000 12.607
16.66000 11.181
16.68000 14.171
16.70000 14.858
16.72000 15.734
16.74000 18.466
16.76000 11.582
16.78000 7.773
16.80000 4.634
16.82000 10.707
16.84000 17.241
16.86000 12.695
16.88000 16.750
16.90000 17.419
16.92000 13.755
16.94000 11.837
16.96000 10.227
16.98000 4.706
17.00000 9.692
17.02000 6.139
17.04000 4.577
17.06000 7.991
17.08000 11.847
17.10000 15.542
17.12000 11.658
17.14000 11.680
17.16000 5.943
17.18000 2.075
17.20000 12.165
17.22000 20.555
17.24000 15.745
17.26000 11.411
17.28000 15.128
17.30000 15.822
17.32000 10.883
17.34000 8.695
17.36000 13.038
17.38000 13.695
17.40000 18.318
17.42000 7.094
17.44000 3.632
17.46000 3.660
17.48000 5.543
17.50000 3.804
17.52000 6.215
17.54000 9.057
17.56000 16.307
17.58000 6.867
17.60000 1.251
17.62000 5.082
17.64000 7.783
17.66000 10.175
17.68000 10.606
17.70000 11.272
17.72000 6.879
17.74000 12.287
17.76000 20.464
17.78000 14.635
17.80000 9.175
17.82000 11.731
17.84000 2.540
17.86000 -1.112
17.88000 5.676
17.90000 5.468
17.92000 8.531
17.94000 4.083
17.96000 3.179
17.98000 4.845
18.00000 6.724
18.02000 1.993
18.04000 1.644
18.06000 2.135
18.08000 1.435
18.10000 7.197
18.12000 9.050
18.14000 13.719
18.16000 8.863
18.18000 -0.460
18.20000 1.343
18.22000 4.871
18.24000 3.062
18.26000 7.041
18.28000 6.547
18.30000 5.365
18.32000 -1.684
18.34000 -1.651
18.36000 0.132
18.38000 1.784
18.40000 -2.469
18.42000 -0.898
18.44000 7.814
18.46000 11.468
18.48000 4.924
18.50000 7.184
18.52000 11.670
18.54000 9.947
18.56000 5.249
18.58000 -0.238
18.60000 4.603
18.62000 6.317
18.64000 10.443
18.66000 9.434
18.68000 10.904
18.70000 3.000
18.72000 3.191
18.74000 6.836
18.76000 8.414
18.78000 13.647
18.80000 7.089
18.82000 4.238
18.84000 1.849
18.86000 2.115
18.88000 0.660
18.90000 -4.288
18.92000 -2.569
18.94000 4.248
18.96000 6.596
18.98000 2.650
19.00000 2.583
19.02000 10.217
19.04000 9.049
19.06000 7.601
19.08000 4.375
19.10000 7.816
19.12000 9.320
19.14000 6.205
19.16000 0.133
19.18000 -0.883
19.20000 0.184
19.22000 2.104
19.24000 4.722
19.26000 10.835
19.28000 13.005
19.30000 10.052
19.32000 4.219
19.34000 3.194
19.36000 4.761
19.38000 5.463
19.40000 4.217
19.42000 4.790
19.44000 -0.585
19.46000 1.946
19.48000 2.866
19.50000 2.009
19.52000 1.550
19.54000 8.583
19.56000 11.386
19.58000 10.743
19.60000 7.436
19.62000 8.138
19.64000 3.688
19.66000 -1.539
19.68000 6.656
19.70000 5.311
19.72000 2.396
19.74000 11.163
19.76000 10.662
19.78000 12.780
19.80000 8.393
19.82000 2.648
19.84000 -2.521
19.86000 -1.774
19.88000 -0.002
19.90000 6.905
19.92000 5.124
19.94000 5.338
19.96000 4.274
19.98000 8.611
20.00000 7.437
20.02000 2.194
20.04000 8.907
20.06000 7.316
20.08000 0.864
20.10000 12.216
20.12000 15.228
20.14000 9.950
20.16000 10.971
20.18000 9.711
20.20000 8.237
20.22000 6.831
20.24000 8.183
20.26000 9.028
20.28000 2.073
20.30000 3.397
20.32000 3.156
20.34000 -1.296
20.36000 -0.557
20.38000 5.653
20.40000 6.087
20.42000 11.613
20.44000 12.713
20.46000 11.097
20.48000 5.686
20.50000 2.851
20.52000 0.590
20.54000 7.205
20.56000 5.716
20.58000 0.253
20.60000 3.508
20.62000 9.128
20.64000 8.813
20.66000 7.136
20.68000 13.783
20.70000 8.261
20.72000 0.473
20.74000 -4.154
20.76000 8.378
20.78000 12.468
20.80000 7.844
20.82000 7.889
20.84000 5.203
20.86000 0.956
20.88000 -0.561
20.90000 6.468
20.92000 11.878
20.94000 7.453
20.96000 6.989
20.98000 8.103
21.00000 8.933
21.02000 8.252
21.04000 8.804
21.06000 4.859
21.08000 5.918
21.10000 8.773
21.12000 8.138
21.14000 4.904
21.16000 8.398
21.18000 11.257
21.20000 11.912
21.22000 7.291
21.24000 5.054
21.26000 1.819
21.28000 1.031
21.30000 7.759
21.32000 11.760
21.34000 8.379
21.36000 4.575
21.38000 3.204
21.40000 3.723
21.42000 5.245
21.44000 9.210
21.46000 6.303
21.48000 11.717
21.50000 13.333
21.52000 8.617
21.54000 2.871
21.56000 7.024
21.58000 6.041
21.60000 2.339
21.62000 -0.726
21.64000 5.729
21.66000 5.072
21.68000 2.725
21.70000 4.394
21.72000 4.390
21.74000 8.996
21.76000 7.129
21.78000 3.352
21.80000 3.651
21.82000 3.523
21.84000 2.066
21.86000 1.657
21.88000 1.507
21.90000 5.438
21.92000 5.811
21.94000 7.789
21.96000 8.489
21.98000 7.903
22.00000 8.895
22.02000 7.128
22.04000 10.666
22.06000 12.945
22.08000 6.207
22.10000 5.918
22.12000 3.199
22.14000 5.598
22.16000 5.873
22.18000 5.077
22.20000 8.324
22.22000 6.830
22.24000 6.555
22.26000 6.871
22.28000 8.557
22.30000 7.419
22.32000 2.726
22.34000 9.049
22.36000 4.709
22.38000 -4.074
22.40000 2.838
22.42000 8.014
22.44000 5.675
22.46000 4.308
22.48000 9.770
22.50000 7.968
22.52000 8.727
22.54000 2.306
22.56000 2.354
22.58000 7.875
22.60000 4.295
22.62000 9.872
22.64000 8.486
22.66000 14.134
22.68000 9.436
22.70000 7.205
22.72000 5.718
22.74000 8.578
22.76000 3.654
22.78000 2.770
22.80000 4.071
22.82000 3.238
22.84000 1.581
22.86000 10.128
22.88000 12.844
22.90000 6.013
22.92000 2.644
22.94000 1.284
22.96000 3.951
22.98000 4.505
23.00000 7.949
23.02000 5.077
23.04000 3.619
23.06000 3.799
23.08000 -0.129
23.10000 -0.845
23.12000 0.963
23.14000 -1.021
23.16000 0.105
23.18000 3.308
23.20000 2.639
23.22000 -1.840
23.24000 2.381
23.26000 3.644
23.28000 5.195
23.30000 13.347
23.32000 7.004
23.34000 3.973
23.36000 3.590
23.38000 2.414
23.40000 2.026
23.42000 4.211
23.44000 5.503
23.46000 11.844
23.48000 3.917
23.50000 -1.697
23.52000 1.538
23.54000 6.101
23.56000 10.380
23.58000 4.620
23.60000 1.798
23.62000 1.841
23.64000 -0.159
23.66000 1.043
23.68000 1.810
23.70000 6.842
23.72000 5.587
23.74000 4.058
23.76000 6.081
23.78000 7.256
23.80000 9.881
23.82000 9.574
23.84000 1.159
23.86000 -0.595
23.88000 -0.698
23.90000 0.122
23.92000 -1.131
23.94000 4.804
23.96000 2.561
23.98000 5.685
24.00000 6.162
24.02000 7.428
24.04000 8.986
24.06000 6.764
24.08000 6.020
24.10000 5.176
24.12000 5.201
24.14000 4.428
24.16000 2.832
24.18000 1.601
24.20000 0.977
24.22000 0.884
24.24000 4.523
24.26000 3.198
24.28000 -0.853
24.30000 -2.712
24.32000 -1.450
24.34000 -1.830
24.36000 0.226
24.38000 -4.016
24.40000 -0.357
24.42000 1.799
24.44000 -1.016
24.46000 5.873
24.48000 -0.134
24.50000 1.344
24.52000 1.957
24.54000 5.723
24.56000 7.999
24.58000 0.499
24.60000 8.097
24.62000 4.329
24.64000 -1.758
24.66000 -1.207
24.68000 1.550
24.70000 2.781
24.72000 2.928
24.74000 3.106
24.76000 0.872
24.78000 1.219
24.80000 2.239
24.82000 6.226
24.84000 -0.844
24.86000 -0.256
24.88000 5.041
24.90000 5.384
24.92000 0.158
24.94000 -1.385
24.96000 -0.740
24.98000 7.452
25.00000 1.221
25.02000 3.352
25.04000 5.379
25.06000 2.298
25.08000 0.293
25.10000 2.951
25.12000 4.119
25.14000 5.099
25.16000 1.716
25.18000 4.704
25.20000 0.592
25.22000 -0.879
25.24000 2.680
25.26000 6.207
25.28000 5.484
25.30000 2.215
25.32000 -3.939
25.34000 2.616
25.36000 6.099
25.38000 7.308
25.40000 6.357
25.42000 4.123
25.44000 0.255
25.46000 -0.596
25.48000 8.393
25.50000 7.632
25.52000 5.857
25.54000 7.564
25.56000 2.937
25.58000 1.235
25.60000 7.433
25.62000 3.116
25.64000 2.176
25.66000 -3.925
25.68000 -2.697
25.70000 0.877
25.72000 0.392
25.74000 4.943
25.76000 7.154
25.78000 6.275
25.80000 2.936
25.82000 6.167
25.84000 5.315
25.86000 2.636
25.88000 1.283
25.90000 3.736
25.92000 -0.692
25.94000 -1.014
25.96000 7.202
25.98000 2.536
26.00000 -1.039
26.02000 -0.990
26.04000 1.995
26.06000 -2.879
26.08000 1.677
26.10000 5.472
26.12000 2.158
26.14000 1.836
26.16000 1.236
26.18000 7.600
26.20000 6.494
26.22000 4.915
26.24000 3.194
26.26000 2.896
26.28000 0.548
26.30000 -0.195
26.32000 3.628
26.34000 0.077
26.36000 -2.021
26.38000 3.058
26.40000 6.507
26.42000 4.193
26.44000 6.485
26.46000 1.094
26.48000 -1.643
26.50000 6.055
26.52000 6.464
26.54000 6.252
26.56000 7.153
26.58000 3.623
26.60000 -1.926
26.62000 0.412
26.64000 0.663
26.66000 3.825
26.68000 -0.039
26.70000 1.332
26.72000 0.791
26.74000 1.835
26.76000 3.815
26.78000 3.028
26.80000 0.783
26.82000 -2.212
26.84000 -0.161
26.86000 2.663
26.88000 0.225
26.90000 2.290
26.92000 4.087
26.94000 4.885
26.96000 4.424
26.98000 0.408
27.00000 6.177
27.02000 7.954
27.04000 5.573
27.06000 5.999
27.08000 -0.774
27.10000 0.304
27.12000 2.791
27.14000 2.815
27.16000 6.284
27.18000 1.590
27.20000 5.423
27.22000 6.179
27.24000 2.939
27.26000 1.980
27.28000 -0.812
27.30000 3.885
27.32000 4.696
27.34000 -2.450
27.36000 -2.342
27.38000 1.512
27.40000 3.061
27.42000 1.641
27.44000 2.725
27.46000 -1.172
27.48000 -1.400
27.50000 -0.099
27.52000 1.042
27.54000 -1.953
27.56000 2.645
27.58000 0.881
27.60000 2.061
27.62000 3.601
27.64000 4.351
27.66000 -0.784
27.68000 2.110
27.70000 9.716
27.72000 7.138
27.74000 3.651
27.76000 3.772
27.78000 1.075
27.80000 4.458
27.82000 6.145
27.84000 4.450
27.86000 7.754
27.88000 4.206
27.90000 4.003
27.92000 1.571
27.94000 5.172
27.96000 0.664
27.98000 8.142
28.00000 9.504
28.02000 8.239
28.04000 4.744
28.06000 2.592
28.08000 5.149
28.10000 -3.768
28.12000 -1.867
28.14000 -0.294
28.16000 4.435
28.18000 5.315
28.20000 9.154
28.22000 9.379
28.24000 6.112
28.26000 5.453
28.28000 9.027
28.30000 3.391
28.32000 3.762
28.34000 4.390
28.36000 5.549
28.38000 4.072
28.40000 -0.879
28.42000 0.888
28.44000 3.280
28.46000 8.013
28.48000 9.799
28.50000 10.213
28.52000 7.909
28.54000 7.534
28.56000 8.528
28.58000 2.998
28.60000 0.313
28.62000 3.959
28.64000 3.698
28.66000 1.462
28.68000 2.678
28.70000 4.189
28.72000 4.089
28.74000 2.687
28.76000 3.164
28.78000 -0.355
28.80000 -2.850
28.82000 3.200
28.84000 3.053
28.86000 5.758
28.88000 2.289
28.90000 5.444
28.92000 7.195
28.94000 3.695
28.96000 0.756
28.98000 1.635
29.00000 0.507
29.02000 4.424
29.04000 5.539
29.06000 2.077
29.08000 -3.742
29.10000 -1.350
29.12000 -2.059
29.14000 4.603
29.16000 0.518
29.18000 -1.406
29.20000 1.830
29.22000 1.268
29.24000 1.794
29.26000 5.782
29.28000 2.387
29.30000 -2.277
29.32000 -0.998
29.34000 0.302
29.36000 3.189
29.38000 -0.144
29.40000 1.821
29.42000 1.267
29.44000 0.913
29.46000 3.837
29.48000 2.403
29.50000 -1.666
29.52000 0.190
29.54000 3.189
29.56000 1.212
29.58000 0.115
29.60000 1.887
29.62000 4.732
29.64000 2.065
29.66000 0.201
29.68000 2.793
29.70000 2.197
29.72000 2.538
29.74000 2.592
29.76000 1.542
29.78000 3.550
29.80000 7.186
29.82000 5.131
29.84000 1.817
29.86000 2.181
29.88000 -1.154
29.90000 -1.560
29.92000 1.430
29.94000 2.716
29.96000 1.810
29.98000 -1.521
30.00000 -2.902
30.02000 -3.728
30.04000 0.360
30.06000 -0.558
30.08000 -2.981
30.10000 1.200
30.12000 4.083
30.14000 2.953
30.16000 0.872
30.18000 1.922
30.20000 0.934
30.22000 2.479
30.24000 3.435
30.26000 -0.242
30.28000 -0.417
30.30000 -0.146
30.32000 -3.150
30.34000 4.942
30.36000 0.736
30.38000 1.106
30.40000 2.926
30.42000 5.699
30.44000 5.326
30.46000 0.841
30.48000 -0.508
30.50000 3.037
30.52000 0.205
30.54000 3.754
30.56000 3.192
30.58000 3.756
30.60000 -2.184
30.62000 -0.565
30.64000 2.408
30.66000 -1.901
30.68000 0.393
30.70000 5.438
30.72000 2.917
30.74000 3.869
30.76000 5.032
30.78000 3.528
30.80000 0.264
30.82000 -2.499
30.84000 -0.338
30.86000 3.578
30.88000 1.130
30.90000 -0.303
30.92000 1.775
30.94000 3.445
30.96000 0.138
30.98000 0.959
31.00000 -0.681
31.02000 6.213
31.04000 0.787
31.06000 -2.398
31.08000 -3.614
31.10000 0.105
31.12000 1.388
31.14000 3.873
31.16000 4.976
31.18000 1.091
31.20000 -3.047
31.22000 1.865
31.24000 5.151
31.26000 2.672
31.28000 0.946
31.30000 -0.347
31.32000 1.194
31.34000 4.197
31.36000 4.811
31.38000 0.044
31.40000 4.846
31.42000 2.128
31.44000 -3.632
31.46000 2.961
31.48000 8.051
31.50000 5.599
31.52000 1.762
31.54000 0.276
31.56000 3.780
31.58000 5.752
31.60000 4.818
31.62000 8.946
31.64000 5.298
31.66000 6.996
31.68000 7.810
31.70000 5.546
31.72000 5.909
31.74000 8.565
31.76000 5.949
31.78000 6.123
31.80000 5.099
31.82000 6.638
31.84000 -0.314
31.86000 1.827
31.88000 4.455
31.90000 4.379
31.92000 5.355
31.94000 0.912
31.96000 2.403
31.98000 0.697
32.00000 -1.442
32.02000 2.161
32.04000 3.509
32.06000 4.908
32.08000 -1.481
32.10000 1.779
32.12000 7.879
32.14000 3.444
32.16000 0.923
32.18000 1.752
32.20000 0.048
32.22000 -0.764
32.24000 1.601
32.26000 3.809
32.28000 1.179
32.30000 -0.874
32.32000 2.393
32.34000 3.034
32.36000 5.535
32.38000 5.054
32.40000 8.774
32.42000 8.132
32.44000 5.043
32.46000 2.307
32.48000 -0.656
32.50000 0.523
32.52000 3.194
32.54000 6.260
32.56000 2.886
32.58000 0.844
32.60000 -3.598
32.62000 -1.794
32.64000 5.074
32.66000 4.785
32.68000 3.812
32.70000 0.187
32.72000 -1.844
32.74000 2.573
32.76000 5.692
32.78000 2.286
32.80000 2.778
32.82000 5.754
32.84000 1.641
32.86000 0.356
32.88000 0.748
32.90000 4.512
32.92000 4.812
32.94000 2.039
32.96000 4.859
32.98000 5.113
33.00000 3.498
33.02000 -0.273
33.04000 -3.366
33.06000 -0.079
33.08000 0.250
33.10000 0.515
33.12000 1.332
33.14000 2.225
33.16000 3.062
33.18000 3.378
33.20000 0.767
33.22000 1.134
33.24000 -0.567
33.26000 -0.503
33.28000 2.601
33.30000 4.611
33.32000 3.571
33.34000 3.635
33.36000 4.669
33.38000 9.842
33.40000 9.078
33.42000 -0.228
33.44000 -1.138
33.46000 -1.125
33.48000 3.112
33.50000 3.341
33.52000 0.202
33.54000 0.888
33.56000 7.033
33.58000 6.613
33.60000 3.034
33.62000 4.143
33.64000 5.374
33.66000 5.510
33.68000 -0.513
33.70000 5.106
33.72000 3.256
33.74000 2.923
33.76000 3.485
33.78000 2.615
33.80000 1.169
33.82000 0.915
33.84000 6.824
33.86000 3.888
33.88000 4.597
33.90000 6.467
33.92000 2.863
33.94000 3.039
33.96000 1.135
33.98000 -1.091
34.00000 1.460
34.02000 9.554
34.04000 8.863
34.06000 5.781
34.08000 -3.575
34.10000 -1.802
34.12000 -2.419
34.14000 3.829
34.16000 5.176
34.18000 1.466
34.20000 3.089
34.22000 2.182
34.24000 3.954
34.26000 7.530
34.28000 1.656
34.30000 4.741
34.32000 8.766
34.34000 5.176
34.36000 2.523
34.38000 5.760
34.40000 1.919
34.42000 1.558
34.44000 1.476
34.46000 1.369
34.48000 3.482
34.50000 4.802
34.52000 3.882
34.54000 3.234
34.56000 0.811
34.58000 0.358
34.60000 -2.511
34.62000 -3.551
34.64000 0.229
34.66000 3.109
34.68000 2.556
34.70000 5.072
34.72000 11.225
34.74000 7.203
34.76000 6.021
34.78000 0.165
34.80000 1.483
34.82000 2.473
34.84000 2.885
34.86000 2.623
34.88000 -1.441
34.90000 1.869
34.92000 6.246
34.94000 4.905
34.96000 0.732
34.98000 0.902
35.00000 5.038
35.02000 3.071
35.04000 -1.926
35.06000 6.309
35.08000 4.800
35.10000 3.243
35.12000 0.269
35.14000 2.077
35.16000 4.679
35.18000 2.007
35.20000 -3.317
35.22000 -3.523
35.24000 -0.847
35.26000 -2.451
35.28000 -1.040
35.30000 -0.737
35.32000 -0.500
35.34000 -0.351
35.36000 2.266
35.38000 3.623
35.40000 2.762
35.42000 6.668
35.44000 5.624
35.46000 7.928
35.48000 3.166
35.50000 -1.539
35.52000 2.228
35.54000 2.253
35.56000 -1.122
35.58000 -0.444
35.60000 7.528
35.62000 8.738
35.64000 1.275
35.66000 1.241
35.68000 1.093
35.70000 4.143
35.72000 2.425
35.74000 4.395
35.76000 2.685
35.78000 0.615
35.80000 0.842
35.82000 -1.545
35.84000 -0.828
35.86000 2.553
35.88000 -1.022
35.90000 1.614
35.92000 0.478
35.94000 -0.439
35.96000 3.158
35.98000 0.640
36.00000 0.760
36.02000 4.984
36.04000 6.321
36.06000 2.694
36.08000 4.578
36.10000 2.141
36.12000 -0.676
36.14000 -1.014
36.16000 1.601
36.18000 3.747
36.20000 3.473
36.22000 5.786
36.24000 6.369
36.26000 5.220
36.28000 0.730
36.30000 -2.276
36.32000 2.391
36.34000 3.065
36.36000 4.102
36.38000 6.097
36.40000 2.922
36.42000 3.986
36.44000 1.162
36.46000 6.185
36.48000 7.036
36.50000 3.383
36.52000 1.246
36.54000 1.711
36.56000 4.433
36.58000 0.410
36.60000 0.033
36.62000 3.407
36.64000 4.285
36.66000 0.099
36.68000 -0.009
36.70000 -0.707
36.72000 1.470
36.74000 0.842
36.76000 -3.566
36.78000 1.061
36.80000 4.614
36.82000 6.451
36.84000 0.784
36.86000 -1.075
36.88000 4.816
36.90000 5.402
36.92000 5.842
36.94000 0.813
36.96000 -0.109
36.98000 -2.464
37.00000 1.646
37.02000 4.737
37.04000 3.737
37.06000 -3.045
37.08000 1.987
37.10000 1.486
37.12000 0.452
37.14000 -0.573
37.16000 -3.565
37.18000 -3.114
37.20000 -0.317
37.22000 6.401
37.24000 6.429
37.26000 1.938
37.28000 1.722
37.30000 1.221
37.32000 4.313
37.34000 5.320
37.36000 7.523
37.38000 7.743
37.40000 1.922
37.42000 8.428
37.44000 4.968
37.46000 -2.363
37.48000 -1.102
37.50000 -1.139
37.52000 -0.511
37.54000 4.686
37.56000 4.757
37.58000 8.078
37.60000 7.485
37.62000 2.558
37.64000 -1.652
37.66000 -1.190
37.68000 0.919
37.70000 1.883
37.72000 6.594
37.74000 6.587
37.76000 6.531
37.78000 6.212
37.80000 8.543
37.82000 14.208
37.84000 6.499
37.86000 5.867
37.88000 6.834
37.90000 8.851
37.92000 7.031
37.94000 9.298
37.96000 14.230
37.98000 5.531
38.00000 4.550
38.02000 9.295
38.04000 12.443
38.06000 12.116
38.08000 6.134
38.10000 2.047
38.12000 0.453
38.14000 6.360
38.16000 12.264
38.18000 10.304
38.20000 10.265
38.22000 12.889
38.24000 13.204
38.26000 10.970
38.28000 11.857
38.30000 13.964
38.32000 13.889
38.34000 15.265
38.36000 14.864
38.38000 17.609
38.40000 17.875
38.42000 18.325
38.44000 23.249
38.46000 22.371
38.48000 22.545
38.50000 19.713
38.52000 17.184
38.54000 15.729
38.56000 18.684
38.58000 21.678
38.60000 23.517
38.62000 20.281
38.64000 20.197
38.66000 22.566
38.68000 24.589
38.70000 27.411
38.72000 30.912
38.74000 28.351
38.76000 29.702
38.78000 33.941
38.80000 34.374
38.82000 33.462
38.84000 35.753
38.86000 33.632
38.88000 38.930
38.90000 38.357
38.92000 40.977
38.94000 44.314
38.96000 39.779
38.98000 38.901
39.00000 40.986
39.02000 41.542
39.04000 41.815
39.06000 48.870
39.08000 47.629
39.10000 52.506
39.12000 55.539
39.14000 56.581
39.16000 55.832
39.18000 60.706
39.20000 63.875
39.22000 61.952
39.24000 70.641
39.26000 73.768
39.28000 75.975
39.30000 75.878
39.32000 84.928
39.34000 87.695
39.36000 88.288
39.38000 94.462
39.40000 99.883
39.42000 102.202
39.44000 108.286
39.46000 114.362
39.48000 121.213
39.50000 129.067
39.52000 134.303
39.54000 143.890
39.56000 145.289
39.58000 152.379
39.60000 153.423
39.62000 159.581
39.64000 164.349
39.66000 181.224
39.68000 194.867
39.70000 207.183
39.72000 218.893
39.74000 213.234
39.76000 223.515
39.78000 242.778
39.80000 246.388
39.82000 258.364
39.84000 277.390
39.86000 293.606
39.88000 312.678
39.90000 320.861
39.92000 331.336
39.94000 348.284
39.96000 360.275
39.98000 377.543
40.00000 393.599
40.02000 403.759
40.04000 428.099
40.06000 443.133
40.08000 451.604
40.10000 470.230
40.12000 484.227
40.14000 491.122
40.16000 500.323
40.18000 508.203
40.20000 515.031
40.22000 522.904
40.24000 522.994
40.26000 530.170
40.28000 526.880
40.30000 525.449
40.32000 538.837
40.34000 535.896
40.36000 527.538
40.38000 520.413
40.40000 516.178
40.42000 519.008
40.44000 514.789
40.46000 501.279
40.48000 483.437
40.50000 469.537
40.52000 459.211
40.54000 439.048
40.56000 431.891
40.58000 425.195
40.60000 411.620
40.62000 388.112
40.64000 365.446
40.66000 350.912
40.68000 329.388
40.70000 317.219
40.72000 311.933
40.74000 305.195
40.76000 290.806
40.78000 271.963
40.80000 255.391
40.82000 240.035
40.84000 229.470
40.86000 221.918
40.88000 217.033
40.90000 202.878
40.92000 187.795
40.94000 179.254
40.96000 173.468
40.98000 163.840
41.00000 159.865
41.02000 146.115
41.04000 139.922
41.06000 131.414
41.08000 126.697
41.10000 121.370
41.12000 116.845
41.14000 108.242
41.16000 104.931
41.18000 101.343
41.20000 93.126
41.22000 87.081
41.24000 82.401
41.26000 78.282
41.28000 74.515
41.30000 69.945
41.32000 70.559
41.34000 64.941
41.36000 62.127
41.38000 56.583
41.40000 57.535
41.42000 54.963
41.44000 55.353
41.46000 45.803
41.48000 42.342
41.50000 39.385
41.52000 40.146
41.54000 36.382
41.56000 36.231
41.58000 30.870
41.60000 26.897
41.62000 25.650
41.64000 26.507
41.66000 24.588
41.68000 24.450
41.70000 27.986
41.72000 24.699
41.74000 20.127
41.76000 22.357
41.78000 17.419
41.80000 16.166
41.82000 19.677
41.84000 18.025
41.86000 18.331
41.88000 18.706
41.90000 14.071
41.92000 15.636
41.94000 16.199
41.96000 13.089
41.98000 12.336
42.00000 8.871
42.02000 8.143
42.04000 10.487
42.06000 9.597
42.08000 8.395
42.10000 8.577
42.12000 6.704
42.14000 5.043
42.16000 6.045
42.18000 8.901
42.20000 8.847
42.22000 7.794
42.24000 5.146
42.26000 7.331
42.28000 10.812
42.30000 8.184
42.32000 6.061
42.34000 7.772
42.36000 6.174
42.38000 7.115
42.40000 5.149
42.42000 7.764
42.44000 4.448
42.46000 3.823
42.48000 3.885
42.50000 9.268
42.52000 4.978
42.54000 1.703
42.56000 3.388
42.58000 1.297
42.60000 1.278
42.62000 1.160
42.64000 1.988
42.66000 -0.092
42.68000 0.010
42.70000 -0.391
42.72000 2.720
42.74000 3.478
42.76000 2.515
42.78000 3.220
42.80000 -3.218
42.82000 -1.245
42.84000 -3.487
42.86000 -2.288
42.88000 -0.541
42.90000 2.374
42.92000 0.709
42.94000 0.682
42.96000 -2.278
42.98000 -2.035
43.00000 -1.872
43.02000 0.305
43.04000 -1.922
43.06000 -3.456
43.08000 0.709
43.10000 -0.418
43.12000 -0.271
43.14000 0.959
43.16000 0.493
43.18000 0.823
43.20000 -2.003
43.22000 4.333
43.24000 4.784
43.26000 4.018
43.28000 1.223
43.30000 -2.160
43.32000 2.715
43.34000 2.120
43.36000 -0.822
43.38000 -0.609
43.40000 -1.263
43.42000 3.846
43.44000 0.576
43.46000 -0.081
43.48000 2.320
43.50000 -2.021
43.52000 1.244
43.54000 2.191
43.56000 -0.611
43.58000 -1.061
43.60000 -3.389
43.62000 0.797
43.64000 4.485
43.66000 4.631
43.68000 2.024
43.70000 3.120
43.72000 6.217
43.74000 4.160
43.76000 4.917
43.78000 0.591
43.80000 3.240
43.82000 3.730
43.84000 5.084
43.86000 4.130
43.88000 5.773
43.90000 4.344
43.92000 2.509
43.94000 -1.168
43.96000 1.339
43.98000 2.830
44.00000 5.019
44.02000 2.239
44.04000 1.208
44.06000 -0.780
44.08000 0.554
44.10000 1.823
44.12000 4.337
44.14000 4.583
44.16000 -0.729
44.18000 -3.344
44.20000 -0.415
44.22000 1.563
44.24000 1.491
44.26000 -0.605
44.28000 -0.688
44.30000 -1.143
44.32000 -1.309
44.34000 1.570
44.36000 0.706
44.38000 -0.017
44.40000 -2.308
44.42000 3.042
44.44000 7.922
44.46000 5.921
44.48000 3.825
44.50000 3.106
44.52000 -0.682
44.54000 0.330
44.56000 -2.813
44.58000 -0.348
44.60000 -1.698
44.62000 -0.411
44.64000 0.395
44.66000 5.315
44.68000 5.536
44.70000 3.992
44.72000 2.600
44.74000 4.257
44.76000 4.301
44.78000 3.274
44.80000 4.753
44.82000 3.300
44.84000 4.696
44.86000 5.411
44.88000 10.951
44.90000 8.665
44.92000 5.578
44.94000 0.698
44.96000 -0.806
44.98000 2.164
45.00000 -0.001
45.02000 2.113
45.04000 7.818
45.06000 3.669
45.08000 1.517
45.10000 4.153
45.12000 7.903
45.14000 5.063
45.16000 5.075
45.18000 6.755
45.20000 2.185
45.22000 0.480
45.24000 4.548
45.26000 3.639
45.28000 3.231
45.30000 11.313
45.32000 4.061
45.34000 7.017
45.36000 6.995
45.38000 8.863
45.40000 9.229
45.42000 5.322
45.44000 12.299
45.46000 11.189
45.48000 9.121
45.50000 9.129
45.52000 12.763
45.54000 16.397
45.56000 16.135
45.58000 13.230
45.60000 14.824
45.62000 17.678
45.64000 16.032
45.66000 15.729
45.68000 15.544
45.70000 18.415
45.72000 23.393
45.74000 19.842
45.76000 21.210
45.78000 19.213
45.80000 18.482
45.82000 21.428
45.84000 21.198
45.86000 18.217
45.88000 20.009
45.90000 28.335
45.92000 29.162
45.94000 31.306
45.96000 28.587
45.98000 26.675
46.00000 27.056
46.02000 38.877
46.04000 46.102
46.06000 34.281
46.08000 35.493
46.10000 38.474
46.12000 36.769
46.14000 38.701
46.16000 39.688
46.18000 39.968
46.20000 39.273
46.22000 46.104
46.24000 47.852
46.26000 45.996
46.28000 46.056
46.30000 51.104
46.32000 49.582
46.34000 53.927
46.36000 58.620
46.38000 64.916
46.40000 64.617
46.42000 63.960
46.44000 65.708
46.46000 65.654
46.48000 69.022
46.50000 63.040
46.52000 69.939
46.54000 70.761
46.56000 68.761
46.58000 68.184
46.60000 73.454
46.62000 75.517
46.64000 73.097
46.66000 74.640
46.68000 83.811
46.70000 84.300
46.72000 75.636
46.74000 74.870
46.76000 79.172
46.78000 80.070
46.80000 84.239
46.82000 81.316
46.84000 83.648
46.86000 77.537
46.88000 79.383
46.90000 85.539
46.92000 86.584
46.94000 85.500
46.96000 82.953
46.98000 83.509
47.00000 85.464
47.02000 83.055
47.04000 87.039
47.06000 83.852
47.08000 87.843
47.10000 85.868
47.12000 81.742
47.14000 84.358
47.16000 80.529
47.18000 86.034
47.20000 82.539
47.22000 80.730
47.24000 75.494
47.26000 75.285
47.28000 77.641
47.30000 76.428
47.32000 73.342
47.34000 70.897
47.36000 65.454
47.38000 62.728
47.40000 67.564
47.42000 69.117
47.44000 63.805
47.46000 58.953
47.48000 56.855
47.50000 57.206
47.52000 51.951
47.54000 46.595
47.56000 48.752
47.58000 49.227
47.60000 49.198
47.62000 46.682
47.64000 47.080
47.66000 40.963
47.68000 37.040
47.70000 40.213
47.72000 43.328
47.74000 39.884
47.76000 32.803
47.78000 30.765
47.80000 31.318
47.82000 32.368
47.84000 29.567
47.86000 29.689
47.88000 25.722
47.90000 23.547
47.92000 23.444
47.94000 23.100
47.96000 22.682
47.98000 17.007
48.00000 13.542
48.02000 19.317
48.04000 17.891
48.06000 16.879
48.08000 16.523
48.10000 15.328
48.12000 11.430
48.14000 11.150
48.16000 9.999
48.18000 9.381
48.20000 9.046
48.22000 10.996
48.24000 11.676
48.26000 7.529
48.28000 4.656
48.30000 7.309
48.32000 1.413
48.34000 5.146
48.36000 7.530
48.38000 7.644
48.40000 8.536
48.42000 9.470
48.44000 6.407
48.46000 6.409
48.48000 13.037
48.50000 12.924
48.52000 3.968
48.54000 5.427
48.56000 8.881
48.58000 6.059
48.60000 2.440
48.62000 6.608
48.64000 7.587
48.66000 7.735
48.68000 9.966
48.70000 5.486
48.72000 0.101
48.74000 -3.005
48.76000 6.239
48.78000 4.982
48.80000 0.455
48.82000 3.644
48.84000 2.983
48.86000 3.448
48.88000 3.449
48.90000 6.944
48.92000 3.500
48.94000 5.245
48.96000 6.082
48.98000 3.089
49.00000 4.509
49.02000 4.486
49.04000 3.762
49.06000 1.700
49.08000 0.348
49.10000 -1.813
49.12000 -2.949
49.14000 3.068
49.16000 3.707
49.18000 2.934
49.20000 -0.354
49.22000 -2.919
49.24000 4.102
49.26000 4.441
49.28000 1.979
49.30000 0.978
49.32000 -2.256
49.34000 -1.985
49.36000 -0.378
49.38000 3.003
49.40000 6.898
49.42000 5.530
49.44000 5.826
49.46000 2.335
49.48000 3.267
49.50000 3.798
49.52000 0.462
49.54000 0.175
49.56000 2.189
49.58000 4.750
49.60000 5.358
49.62000 0.590
49.64000 0.837
49.66000 5.046
49.68000 6.034
49.70000 0.586
49.72000 -2.856
49.74000 1.693
49.76000 3.264
49.78000 1.779
49.80000 3.789
49.82000 0.423
49.84000 1.854
49.86000 6.506
49.88000 5.747
49.90000 3.024
49.92000 0.545
49.94000 1.282
49.96000 0.075
49.98000 2.032
50.00000 2.844
50.02000 -2.125
50.04000 -0.704
50.06000 3.725
50.08000 5.634
50.10000 -2.670
50.12000 -1.277
50.14000 2.300
50.16000 5.361
50.18000 5.662
50.20000 2.637
50.22000 2.433
50.24000 0.272
50.26000 4.641
50.28000 7.761
50.30000 6.047
50.32000 1.098
50.34000 3.977
50.36000 6.862
50.38000 0.834
50.40000 -0.564
50.42000 3.603
50.44000 5.430
50.46000 0.805
50.48000 0.378
50.50000 -0.299
50.52000 -0.584
50.54000 2.165
50.56000 8.933
50.58000 8.936
50.60000 2.689
50.62000 -0.338
50.64000 0.198
50.66000 4.124
50.68000 4.376
50.70000 1.784
50.72000 6.272
50.74000 8.090
50.76000 5.686
50.78000 2.843
50.80000 2.676
50.82000 2.737
50.84000 2.274
50.86000 2.666
50.88000 1.561
50.90000 0.325
50.92000 2.666
50.94000 4.607
50.96000 2.879
50.98000 0.770
51.00000 -0.553
51.02000 0.289
51.04000 -2.762
51.06000 -1.987
51.08000 2.208
51.10000 3.167
51.12000 8.602
51.14000 7.304
51.16000 4.718
51.18000 3.247
51.20000 4.297
51.22000 2.082
51.24000 2.333
51.26000 0.458
51.28000 4.424
51.30000 3.046
51.32000 5.353
51.34000 3.229
51.36000 5.836
51.38000 6.780
51.40000 2.482
51.42000 0.855
51.44000 1.762
51.46000 1.605
51.48000 2.605
51.50000 6.233
51.52000 5.701
51.54000 -1.268
51.56000 -1.446
51.58000 1.867
51.60000 1.632
51.62000 -0.436
51.64000 5.260
51.66000 8.593
51.68000 6.757
51.70000 9.015
51.72000 9.695
51.74000 6.602
51.76000 4.837
51.78000 3.645
51.80000 2.791
51.82000 1.825
51.84000 1.174
51.86000 2.689
51.88000 6.466
51.90000 9.271
51.92000 4.052
51.94000 4.491
51.96000 1.045
51.98000 -1.401
52.00000 0.680
52.02000 3.154
52.04000 -2.742
52.06000 1.848
52.08000 6.801
52.10000 7.750
52.12000 7.166
52.14000 6.105
52.16000 5.267
52.18000 4.687
52.20000 4.076
52.22000 1.711
52.24000 0.299
52.26000 -2.730
52.28000 0.900
52.30000 8.560
52.32000 5.041
52.34000 1.409
52.36000 4.182
52.38000 2.237
52.40000 -2.725
52.42000 -1.325
52.44000 4.868
52.46000 6.242
52.48000 7.393
52.50000 3.545
52.52000 3.429
52.54000 1.486
52.56000 1.426
52.58000 5.233
52.60000 5.992
52.62000 4.997
52.64000 6.905
52.66000 0.849
52.68000 1.465
52.70000 6.422
52.72000 2.160
52.74000 3.705
52.76000 1.251
52.78000 8.882
52.80000 9.000
52.82000 5.789
52.84000 3.944
52.86000 1.540
52.88000 2.785
52.90000 2.499
52.92000 1.299
52.94000 4.343
52.96000 3.256
52.98000 0.938
53.00000 4.450
53.02000 4.014
53.04000 -0.017
53.06000 -1.707
53.08000 1.773
53.10000 0.839
53.12000 0.967
53.14000 0.518
53.16000 1.053
53.18000 -2.712
53.20000 5.097
53.22000 6.963
53.24000 4.844
53.26000 2.666
53.28000 3.842
53.30000 5.914
53.32000 5.082
53.34000 5.616
53.36000 3.748
53.38000 3.058
53.40000 1.713
53.42000 2.430
53.44000 3.662
53.46000 1.846
53.48000 -0.338
53.50000 2.930
53.52000 4.819
53.54000 4.198
53.56000 1.725
53.58000 -0.854
53.60000 -1.738
53.62000 0.619
53.64000 0.789
53.66000 0.376
53.68000 0.218
53.70000 1.521
53.72000 3.807
53.74000 6.527
53.76000 1.141
53.78000 1.107
53.80000 0.226
53.82000 0.044
53.84000 4.195
53.86000 -0.338
53.88000 -0.220
53.90000 1.869
53.92000 0.333
53.94000 0.060
53.96000 0.568
53.98000 -1.361
54.00000 2.139
54.02000 -0.483
54.04000 -2.599
54.06000 1.556
54.08000 2.325
54.10000 -2.697
54.12000 4.368
54.14000 -0.143
54.16000 0.405
54.18000 -1.282
54.20000 -2.697
54.22000 2.140
54.24000 -0.053
54.26000 -0.882
54.28000 -0.540
54.30000 -0.856
54.32000 -0.156
54.34000 0.669
54.36000 4.364
54.38000 4.246
54.40000 3.017
54.42000 3.520
54.44000 5.341
54.46000 1.296
54.48000 -1.475
54.50000 0.647
54.52000 -2.577
54.54000 -2.519
54.56000 3.623
54.58000 0.961
54.60000 -0.883
54.62000 -0.937
54.64000 5.645
54.66000 1.515
54.68000 -1.562
54.70000 0.870
54.72000 0.555
54.74000 0.865
54.76000 3.946
54.78000 3.378
54.80000 8.053
54.82000 0.067
54.84000 0.226
54.86000 1.781
54.88000 -0.523
54.90000 2.471
54.92000 6.513
54.94000 0.843
54.96000 1.725
54.98000 2.524
55.00000 -0.350
55.02000 -1.923
55.04000 -1.568
55.06000 2.389
55.08000 1.295
55.10000 -0.849
55.12000 2.544
55.14000 -0.039
55.16000 1.315
55.18000 1.674
55.20000 -1.913
55.22000 -2.405
55.24000 -2.434
55.26000 4.160
55.28000 2.248
55.30000 4.522
55.32000 2.712
55.34000 0.810
55.36000 3.979
55.38000 4.399
55.40000 3.062
55.42000 4.446
55.44000 2.295
55.46000 4.861
55.48000 2.839
55.50000 -0.615
55.52000 4.858
55.54000 6.544
55.56000 2.548
55.58000 6.299
55.60000 4.953
55.62000 7.627
55.64000 2.355
55.66000 -1.734
55.68000 1.101
55.70000 4.265
55.72000 3.813
55.74000 4.524
55.76000 5.706
55.78000 5.668
55.80000 3.904
55.82000 1.949
55.84000 1.242
55.86000 1.941
55.88000 2.723
55.90000 2.070
55.92000 6.157
55.94000 4.811
55.96000 7.471
55.98000 7.358
56.00000 1.024
56.02000 -0.251
56.04000 -0.238
56.06000 1.471
56.08000 -2.613
56.10000 -0.821
56.12000 3.492
56.14000 2.954
56.16000 4.776
56.18000 5.580
56.20000 2.654
56.22000 5.142
56.24000 5.449
56.26000 0.497
56.28000 3.608
56.30000 7.365
56.32000 7.456
56.34000 2.646
56.36000 -2.597
56.38000 0.965
56.40000 0.730
56.42000 2.820
56.44000 8.533
56.46000 6.656
56.48000 4.934
56.50000 5.080
56.52000 8.922
56.54000 5.034
56.56000 4.025
56.58000 4.385
56.60000 2.150
56.62000 4.466
56.64000 3.516
56.66000 3.860
56.68000 2.205
56.70000 6.013
56.72000 6.003
56.74000 2.078
56.76000 3.364
56.78000 3.775
56.80000 0.151
56.82000 2.364
56.84000 2.150
56.86000 6.254
56.88000 6.944
56.90000 5.990
56.92000 3.336
56.94000 1.732
56.96000 1.011
56.98000 1.787
57.00000 3.368
57.02000 4.092
57.04000 2.163
57.06000 -0.205
57.08000 5.524
57.10000 4.721
57.12000 0.426
57.14000 -1.039
57.16000 1.657
57.18000 5.462
57.20000 3.127
57.22000 4.044
57.24000 4.706
57.26000 0.751
57.28000 2.468
57.30000 2.764
57.32000 -2.274
57.34000 0.739
57.36000 1.357
57.38000 3.349
57.40000 3.943
57.42000 3.894
57.44000 2.838
57.46000 4.014
57.48000 -1.707
57.50000 0.785
57.52000 3.368
57.54000 4.234
57.56000 3.589
57.58000 4.543
57.60000 5.499
57.62000 0.538
57.64000 -1.380
57.66000 3.582
57.68000 2.615
57.70000 1.959
57.72000 2.404
57.74000 0.061
57.76000 0.592
57.78000 1.597
57.80000 -1.351
57.82000 -2.556
57.84000 0.919
57.86000 5.213
57.88000 4.489
57.90000 4.385
57.92000 2.706
57.94000 3.587
57.96000 2.003
57.98000 2.213
58.00000 4.014
58.02000 3.045
58.04000 3.224
58.06000 6.143
58.08000 5.051
58.10000 4.877
58.12000 5.091
58.14000 3.099
58.16000 3.068
58.18000 0.436
58.20000 5.610
58.22000 2.852
58.24000 1.707
58.26000 2.173
58.28000 5.009
58.30000 4.752
58.32000 2.098
58.34000 3.417
58.36000 4.971
58.38000 4.886
58.40000 5.677
58.42000 3.029
58.44000 2.541
58.46000 4.614
58.48000 2.743
58.50000 -0.500
58.52000 0.551
58.54000 3.089
58.56000 6.909
58.58000 1.659
58.60000 1.651
58.62000 0.078
58.64000 4.622
58.66000 3.384
58.68000 3.420
58.70000 1.608
58.72000 -2.542
58.74000 2.358
58.76000 8.442
58.78000 9.033
58.80000 3.433
58.82000 5.495
58.84000 2.084
58.86000 -2.542
58.88000 -2.036
58.90000 4.017
58.92000 1.467
58.94000 4.430
58.96000 4.253
58.98000 2.247
59.00000 6.571
59.02000 3.608
59.04000 2.294
59.06000 5.156
59.08000 1.846
59.10000 0.092
59.12000 0.971
59.14000 1.699
59.16000 -0.011
59.18000 -0.482
59.20000 3.023
59.22000 5.429
59.24000 2.196
59.26000 3.250
59.28000 7.011
59.30000 4.680
59.32000 0.847
59.34000 -0.734
59.36000 0.777
59.38000 0.234
59.40000 1.086
59.42000 -1.243
59.44000 -1.835
59.46000 1.661
59.48000 1.411
59.50000 0.651
59.52000 -1.858
59.54000 -0.206
59.56000 4.779
59.58000 0.958
59.60000 -2.537
59.62000 -1.254
59.64000 -1.261
59.66000 -2.200
59.68000 -0.489
59.70000 2.230
59.72000 1.254
59.74000 2.114
59.76000 1.953
59.78000 4.965
59.80000 4.613
59.82000 2.666
59.84000 3.332
59.86000 -0.096
59.88000 1.158
59.90000 6.326
59.92000 1.980
59.94000 1.291
59.96000 0.699
59.98000 0.766
60.00000 -1.279
60.02000 -0.603
60.04000 -0.385
60.06000 0.398
60.08000 1.973
60.10000 0.471
60.12000 -2.028
60.14000 2.340
60.16000 3.411
60.18000 1.220
60.20000 1.243
60.22000 -0.106
60.24000 -0.156
60.26000 3.729
60.28000 5.634
60.30000 -0.042
60.32000 -1.274
60.34000 -0.485
60.36000 2.409
60.38000 -0.871
60.40000 1.101
60.42000 2.162
60.44000 5.470
60.46000 4.072
60.48000 2.976
60.50000 3.147
60.52000 2.251
60.54000 0.953
60.56000 0.318
60.58000 1.897
60.60000 3.252
60.62000 4.214
60.64000 0.813
60.66000 -2.486
60.68000 -0.106
60.70000 1.929
60.72000 -0.951
60.74000 -2.409
60.76000 0.921
60.78000 2.245
60.80000 5.305
60.82000 4.507
60.84000 2.587
60.86000 7.090
60.88000 3.998
60.90000 -0.248
60.92000 -2.474
60.94000 0.082
60.96000 2.153
60.98000 4.385
61.00000 5.855
61.02000 4.100
61.04000 6.465
61.06000 2.584
61.08000 2.819
61.10000 4.573
61.12000 -0.379
61.14000 -1.583
61.16000 -0.206
61.18000 0.958
61.20000 -1.012
61.22000 -0.619
61.24000 -0.379
61.26000 1.994
61.28000 1.017
61.30000 0.799
61.32000 2.683
61.34000 4.162
61.36000 7.511
61.38000 7.363
61.40000 4.834
61.42000 3.410
61.44000 4.237
61.46000 2.254
61.48000 2.429
61.50000 3.599
61.52000 2.162
61.54000 -1.317
61.56000 0.469
61.58000 1.989
61.60000 2.199
61.62000 7.525
61.64000 5.851
61.66000 3.550
61.68000 1.558
61.70000 -0.735
61.72000 0.737
61.74000 3.875
61.76000 3.698
61.78000 4.745
61.80000 4.012
61.82000 -1.192
61.84000 -2.479
61.86000 -1.755
61.88000 -2.018
61.90000 2.532
61.92000 2.253
61.94000 -1.255
61.96000 -2.479
61.98000 0.409
62.00000 2.072
62.02000 1.358
62.04000 1.869
62.06000 0.762
62.08000 4.090
62.10000 3.794
62.12000 -0.170
62.14000 0.885
62.16000 -0.072
62.18000 1.088
62.20000 -2.475
62.22000 -0.676
62.24000 -2.068
62.26000 -1.514
62.28000 1.821
62.30000 0.605
62.32000 0.442
62.34000 1.802
62.36000 2.349
62.38000 0.839
62.40000 4.299
62.42000 4.724
62.44000 3.503
62.46000 0.947
62.48000 -1.665
62.50000 -1.125
62.52000 1.903
62.54000 0.566
62.56000 1.029
62.58000 0.282
62.60000 -0.837
62.62000 0.172
62.64000 1.442
62.66000 -2.314
62.68000 -1.170
62.70000 2.202
62.72000 0.411
62.74000 0.353
62.76000 0.741
62.78000 3.342
62.80000 0.670
62.82000 -2.470
62.84000 0.792
62.86000 6.528
62.88000 3.242
62.90000 2.175
62.92000 2.124
62.94000 3.513
62.96000 3.418
62.98000 0.140
63.00000 -0.450
63.02000 1.461
63.04000 -0.540
63.06000 0.216
63.08000 1.080
63.10000 -0.175
63.12000 1.482
63.14000 2.801
63.16000 0.655
63.18000 3.345
63.20000 1.584
63.22000 1.240
63.24000 3.190
63.26000 2.686
63.28000 0.627
63.30000 3.035
63.32000 3.451
63.34000 4.779
63.36000 4.578
63.38000 5.488
63.40000 2.817
63.42000 -0.816
63.44000 1.274
63.46000 3.463
63.48000 -0.843
63.50000 -1.630
63.52000 2.532
63.54000 3.959
63.56000 6.504
63.58000 1.136
63.60000 1.827
63.62000 3.387
63.64000 4.126
63.66000 5.504
63.68000 6.465
63.70000 2.030
63.72000 -1.246
63.74000 -1.107
63.76000 -2.424
63.78000 1.478
63.80000 2.606
63.82000 4.113
63.84000 3.164
63.86000 5.763
63.88000 3.712
63.90000 3.580
63.92000 2.108
63.94000 4.673
63.96000 2.791
63.98000 1.344
64.00000 1.129
64.02000 1.388
64.04000 0.148
64.06000 0.402
64.08000 1.682
64.10000 2.725
64.12000 4.735
64.14000 2.725
64.16000 1.331
64.18000 2.994
64.20000 1.391
64.22000 0.880
64.24000 -1.604
64.26000 -1.046
64.28000 0.954
64.30000 1.583
64.32000 -2.456
64.34000 2.523
64.36000 1.640
64.38000 -1.227
64.40000 2.785
64.42000 -0.236
64.44000 0.739
64.46000 0.856
64.48000 1.297
64.50000 -0.459
64.52000 -0.487
64.54000 1.565
64.56000 1.221
64.58000 1.834
64.60000 0.385
64.62000 3.487
64.64000 3.825
64.66000 0.731
64.68000 2.403
64.70000 3.465
64.72000 2.018
64.74000 1.854
64.76000 0.792
64.78000 1.067
64.80000 0.751
64.82000 -1.090
64.84000 -1.596
64.86000 2.311
64.88000 0.355
64.90000 5.490
64.92000 4.019
64.94000 2.277
64.96000 2.261
64.98000 2.701
65.00000 2.252
65.02000 0.201
65.04000 -1.287
65.06000 -0.829
65.08000 2.188
65.10000 0.092
65.12000 3.657
65.14000 6.036
65.16000 2.397
65.18000 -2.473
65.20000 1.304
65.22000 2.746
65.24000 -0.124
65.26000 0.123
65.28000 5.252
65.30000 2.209
65.32000 0.026
65.34000 0.835
65.36000 0.311
65.38000 0.274
65.40000 0.464
65.42000 -0.242
65.44000 -2.474
65.46000 -0.799
65.48000 0.170
65.50000 1.770
65.52000 0.111
65.54000 2.250
65.56000 1.340
65.58000 2.208
65.60000 5.004
65.62000 3.803
65.64000 1.524
65.66000 2.231
65.68000 2.071
65.70000 -1.131
65.72000 1.724
65.74000 2.036
65.76000 4.656
65.78000 4.017
65.80000 3.415
65.82000 1.499
65.84000 -0.001
65.86000 -2.477
65.88000 -2.109
65.90000 -1.019
65.92000 -2.311
65.94000 -1.227
65.96000 2.245
65.98000 2.660
66.00000 2.320
66.02000 -0.438
66.04000 0.477
66.06000 -2.491
66.08000 1.398
66.10000 3.289
66.12000 1.247
66.14000 2.486
66.16000 -0.044
66.18000 1.477
66.20000 2.611
66.22000 1.873
66.24000 3.155
66.26000 0.996
66.28000 0.578
66.30000 0.815
66.32000 -0.935
66.34000 -1.468
66.36000 -0.447
66.38000 2.883
66.40000 1.759
66.42000 2.977
66.44000 3.257
66.46000 0.131
66.48000 -0.127
66.50000 0.527
66.52000 1.127
66.54000 0.593
66.56000 0.035
66.58000 0.159
66.60000 -1.729
66.62000 1.241
66.64000 -2.118
66.66000 -1.859
66.68000 -0.955
66.70000 0.049
66.72000 1.206
66.74000 -2.002
66.76000 0.304
66.78000 1.069
66.80000 3.716
66.82000 2.505
66.84000 4.403
66.86000 4.714
66.88000 2.348
66.90000 2.315
66.92000 2.444
66.94000 1.737
66.96000 -2.522
66.98000 3.145
67.00000 1.945
67.02000 6.273
67.04000 6.874
67.06000 2.727
67.08000 2.775
67.10000 2.206
67.12000 3.838
67.14000 2.672
67.16000 3.807
67.18000 2.832
67.20000 2.373
67.22000 7.867
67.24000 8.477
67.26000 4.424
67.28000 5.102
67.30000 5.696
67.32000 1.217
67.34000 1.336
67.36000 6.102
67.38000 5.859
67.40000 6.245
67.42000 5.109
67.44000 3.817
67.46000 6.873
67.48000 7.828
67.50000 5.947
67.52000 6.113
67.54000 3.826
67.56000 4.090
67.58000 6.312
67.60000 8.565
67.62000 9.267
67.64000 7.607
67.66000 8.012
67.68000 9.185
67.70000 4.218
67.72000 5.452
67.74000 6.430
67.76000 8.711
67.78000 11.844
67.80000 11.270
67.82000 14.243
67.84000 12.205
67.86000 11.833
67.88000 13.415
67.90000 15.037
67.92000 14.534
67.94000 13.326
67.96000 12.301
67.98000 11.579
68.00000 14.106
68.02000 14.510
68.04000 17.523
68.06000 17.716
68.08000 16.799
68.10000 19.851
68.12000 21.460
68.14000 21.515
68.16000 20.365
68.18000 21.623
68.20000 19.994
68.22000 18.052
68.24000 16.673
68.26000 14.656
68.28000 16.993
68.30000 20.406
68.32000 18.077
68.34000 19.492
68.36000 17.572
68.38000 23.015
68.40000 25.395
68.42000 26.257
68.44000 23.559
68.46000 19.867
68.48000 18.937
68.50000 21.616
68.52000 22.887
68.54000 22.077
68.56000 22.509
68.58000 24.574
68.60000 25.715
68.62000 26.058
68.64000 21.517
68.66000 20.716
68.68000 20.439
68.70000 23.679
68.72000 25.908
68.74000 26.676
68.76000 22.762
68.78000 21.315
68.80000 21.247
68.82000 20.587
68.84000 17.708
68.86000 14.173
68.88000 16.803
68.90000 17.044
68.92000 19.381
68.94000 18.916
68.96000 20.386
68.98000 20.043
69.00000 17.170
69.02000 16.685
69.04000 15.192
69.06000 14.537
69.08000 14.579
69.10000 14.028
69.12000 17.302
69.14000 13.476
69.16000 14.323
69.18000 12.765
69.20000 12.543
69.22000 13.167
69.24000 13.618
69.26000 13.102
69.28000 11.670
69.30000 11.790
69.32000 6.398
69.34000 9.844
69.36000 7.412
69.38000 6.766
69.40000 6.811
69.42000 2.891
69.44000 5.297
69.46000 3.682
69.48000 5.547
69.50000 9.958
69.52000 8.328
69.54000 5.376
69.56000 5.878
69.58000 6.476
69.60000 7.595
69.62000 9.203
69.64000 7.536
69.66000 4.283
69.68000 4.081
69.70000 0.567
69.72000 2.201
69.74000 4.110
69.76000 2.030
69.78000 6.008
69.80000 5.173
69.82000 3.092
69.84000 2.983
69.86000 -0.942
69.88000 3.097
69.90000 1.336
69.92000 1.238
69.94000 1.468
69.96000 1.720
69.98000 2.321
70.00000 3.057
70.02000 5.994
70.04000 2.320
70.06000 -2.441
70.08000 1.003
70.10000 3.188
70.12000 2.176
70.14000 1.588
70.16000 0.887
70.18000 2.838
70.20000 2.198
70.22000 2.638
70.24000 0.991
70.26000 1.981
70.28000 3.654
70.30000 0.479
70.32000 -1.507
70.34000 0.496
70.36000 1.122
70.38000 3.112
70.40000 3.102
70.42000 4.280
70.44000 3.806
70.46000 0.667
70.48000 1.817
70.50000 0.223
70.52000 2.891
70.54000 0.087
70.56000 0.018
70.58000 -1.908
70.60000 -1.536
70.62000 0.388
70.64000 3.119
70.66000 2.388
70.68000 2.322
70.70000 2.560
70.72000 5.962
70.74000 4.577
70.76000 1.044
70.78000 -0.134
70.80000 0.350
70.82000 -1.053
70.84000 3.910
70.86000 4.446
70.88000 4.422
70.90000 1.093
70.92000 1.396
70.94000 0.413
70.96000 3.122
70.98000 3.766
71.00000 1.678
71.02000 2.880
71.04000 3.713
71.06000 1.105
71.08000 2.151
71.10000 1.238
71.12000 -0.461
71.14000 0.005
71.16000 2.339
71.18000 -0.125
71.20000 0.297
71.22000 -1.376
71.24000 -0.120
71.26000 0.549
71.28000 3.148
71.30000 4.845
71.32000 1.336
71.34000 4.234
71.36000 1.345
71.38000 2.959
71.40000 2.488
71.42000 -2.133
71.44000 -2.343
71.46000 -0.506
71.48000 0.730
71.50000 2.950
71.52000 -0.486
71.54000 1.219
71.56000 -0.182
71.58000 2.068
71.60000 4.605
71.62000 -1.005
71.64000 2.898
71.66000 3.613
71.68000 4.613
71.70000 -0.861
71.72000 -0.947
71.74000 1.141
71.76000 -0.731
71.78000 0.543
71.80000 0.209
71.82000 1.123
71.84000 0.113
71.86000 0.431
71.88000 3.189
71.90000 1.376
71.92000 2.051
71.94000 3.734
71.96000 5.761
71.98000 -0.336
72.00000 -1.265
72.02000 2.357
72.04000 3.935
72.06000 1.896
72.08000 4.025
72.10000 -0.156
72.12000 3.087
72.14000 4.307
72.16000 4.714
72.18000 1.167
72.20000 -0.735
72.22000 -1.935
72.24000 -1.518
72.26000 -1.175
72.28000 -1.479
72.30000 -0.992
72.32000 1.582
72.34000 5.002
72.36000 2.421
72.38000 -0.551
72.40000 0.890
72.42000 0.068
72.44000 0.991
72.46000 -0.123
72.48000 0.927
72.50000 3.487
72.52000 0.204
72.54000 1.979
72.56000 3.070
72.58000 3.467
72.60000 3.754
72.62000 2.648
72.64000 -0.002
72.66000 0.554
72.68000 2.553
72.70000 -1.486
72.72000 0.255
72.74000 0.767
72.76000 4.077
72.78000 -0.649
72.80000 -0.375
72.82000 -2.299
72.84000 2.842
72.86000 3.008
72.88000 1.227
72.90000 2.838
72.92000 5.800
72.94000 5.412
72.96000 1.140
72.98000 0.392
73.00000 0.281
73.02000 -1.189
73.04000 0.439
73.06000 2.495
73.08000 2.719
73.10000 0.484
73.12000 -0.391
73.14000 -2.295
73.16000 -1.357
73.18000 1.243
73.20000 2.011
73.22000 0.198
73.24000 0.523
73.26000 4.996
73.28000 3.650
73.30000 -1.313
73.32000 -2.290
73.34000 -1.589
73.36000 3.476
73.38000 2.319
73.40000 5.907
73.42000 1.907
73.44000 5.185
73.46000 3.568
73.48000 0.534
73.50000 0.871
73.52000 -2.230
73.54000 -0.519
73.56000 0.629
73.58000 1.395
73.60000 -0.365
73.62000 -0.836
73.64000 0.665
73.66000 0.851
73.68000 0.451
73.70000 -0.063
73.72000 2.138
73.74000 -2.275
73.76000 1.068
73.78000 7.454
73.80000 10.363
73.82000 6.110
73.84000 1.651
73.86000 -1.555
73.88000 1.780
73.90000 4.599
73.92000 5.007
73.94000 5.443
73.96000 4.493
73.98000 5.093
74.00000 2.323
74.02000 5.511
74.04000 9.155
74.06000 4.840
74.08000 5.838
74.10000 6.812
74.12000 4.166
74.14000 2.091
74.16000 2.507
74.18000 3.733
74.20000 0.496
74.22000 -0.513
74.24000 2.339
74.26000 4.195
74.28000 3.747
74.30000 3.168
74.32000 3.673
74.34000 3.918
74.36000 -0.402
74.38000 1.371
74.40000 4.417
74.42000 -0.226
74.44000 -2.272
74.46000 2.374
74.48000 5.448
74.50000 8.052
74.52000 6.059
74.54000 -0.720
74.56000 4.074
74.58000 2.566
74.60000 3.636
74.62000 4.208
74.64000 8.153
74.66000 3.627
74.68000 2.126
74.70000 2.402
74.72000 0.348
74.74000 0.641
74.76000 0.776
74.78000 2.731
74.80000 2.803
74.82000 1.583
74.84000 -0.744
74.86000 2.174
74.88000 4.431
74.90000 4.103
74.92000 4.477
74.94000 1.295
74.96000 -2.271
74.98000 -0.244
75.00000 2.695
75.02000 1.123
75.04000 -2.131
75.06000 -1.171
75.08000 0.981
75.10000 -0.528
75.12000 -0.546
75.14000 1.804
75.16000 0.880
75.18000 2.849
75.20000 6.676
75.22000 4.621
75.24000 0.665
75.26000 1.805
75.28000 2.800
75.30000 2.527
75.32000 4.208
75.34000 2.138
75.36000 2.328
75.38000 2.736
75.40000 3.098
75.42000 3.488
75.44000 -0.150
75.46000 -0.039
75.48000 2.862
75.50000 6.021
75.52000 3.360
75.54000 -0.408
75.56000 5.085
75.58000 2.045
75.60000 -0.101
75.62000 3.782
75.64000 3.415
75.66000 -0.207
75.68000 1.014
75.70000 0.881
75.72000 3.016
75.74000 7.376
75.76000 8.412
75.78000 4.254
75.80000 -0.492
75.82000 0.093
75.84000 3.124
75.86000 4.873
75.88000 0.840
75.90000 6.523
75.92000 2.965
75.94000 2.513
75.96000 2.386
75.98000 1.759
76.00000 4.096
76.02000 4.136
76.04000 3.745
76.06000 0.805
76.08000 0.751
76.10000 1.754
76.12000 -1.983
76.14000 -2.297
76.16000 -0.366
76.18000 -0.635
76.20000 0.553
76.22000 1.349
76.24000 3.315
76.26000 -1.217
76.28000 1.237
76.30000 3.209
76.32000 5.138
76.34000 2.761
76.36000 4.347
76.38000 3.352
76.40000 0.179
76.42000 -1.435
76.44000 -0.307
76.46000 1.456
76.48000 0.939
76.50000 4.746
76.52000 5.362
76.54000 3.725
76.56000 3.270
76.58000 3.017
76.60000 2.276
76.62000 4.075
76.64000 5.376
76.66000 3.675
76.68000 1.968
76.70000 0.900
76.72000 2.732
76.74000 5.105
76.76000 2.771
76.78000 0.574
76.80000 4.278
76.82000 5.676
76.84000 3.880
76.86000 5.391
76.88000 3.213
76.90000 4.458
76.92000 -1.301
76.94000 1.100
76.96000 3.758
76.98000 4.471
77.00000 5.699
77.02000 6.037
77.04000 3.189
77.06000 -0.687
77.08000 -1.181
77.10000 4.769
77.12000 2.269
77.14000 -0.293
77.16000 4.302
77.18000 6.752
77.20000 5.977
77.22000 3.562
77.24000 3.720
77.26000 5.610
77.28000 5.136
77.30000 2.292
77.32000 7.257
77.34000 6.737
77.36000 2.611
77.38000 3.495
77.40000 3.355
77.42000 -2.251
77.44000 1.651
77.46000 7.655
77.48000 4.118
77.50000 3.398
77.52000 4.109
77.54000 2.164
77.56000 2.565
77.58000 1.207
77.60000 0.102
77.62000 -1.735
77.64000 0.525
77.66000 2.364
77.68000 5.888
77.70000 6.920
77.72000 1.536
77.74000 0.426
77.76000 4.857
77.78000 4.728
77.80000 3.862
77.82000 3.669
77.84000 0.921
77.86000 2.596
77.88000 -1.582
77.90000 -0.825
77.92000 -0.948
77.94000 3.383
77.96000 3.949
77.98000 3.335
78.00000 5.458
78.02000 7.320
78.04000 4.140
78.06000 3.206
78.08000 4.420
78.10000 0.070
78.12000 -1.965
78.14000 1.042
78.16000 3.666
78.18000 6.132
78.20000 2.144
78.22000 4.521
78.24000 3.499
78.26000 2.717
78.28000 1.041
78.30000 0.473
78.32000 0.608
78.34000 2.953
78.36000 4.560
78.38000 6.452
78.40000 0.447
78.42000 2.235
78.44000 -0.218
78.46000 1.073
78.48000 2.170
78.50000 1.283
78.52000 1.533
78.54000 1.771
78.56000 2.659
78.58000 5.238
78.60000 1.595
78.62000 -0.728
78.64000 2.354
78.66000 -0.352
78.68000 0.775
78.70000 -0.156
78.72000 -1.276
78.74000 2.202
78.76000 5.940
78.78000 5.250
78.80000 -0.497
78.82000 1.750
78.84000 -0.580
78.86000 -1.951
78.88000 3.687
78.90000 5.852
78.92000 3.180
78.94000 3.203
78.96000 -1.860
78.98000 2.156
79.00000 4.392
79.02000 3.812
79.04000 -0.860
79.06000 -1.896
79.08000 1.085
79.10000 2.982
79.12000 1.664
79.14000 -2.351
79.16000 -0.283
79.18000 -1.358
79.20000 -0.651
79.22000 1.324
79.24000 -0.095
79.26000 0.408
79.28000 3.441
79.30000 3.660
79.32000 4.327
79.34000 3.184
79.36000 1.961
79.38000 -0.884
79.40000 2.632
79.42000 2.539
79.44000 0.244
79.46000 1.885
79.48000 -0.694
79.50000 1.745
79.52000 2.354
79.54000 1.922
79.56000 2.658
79.58000 -0.869
79.60000 0.768
79.62000 -0.024
79.64000 -1.208
79.66000 -1.567
79.68000 0.960
79.70000 4.829
79.72000 1.908
79.74000 0.535
79.76000 0.682
79.78000 1.873
79.80000 2.056
79.82000 7.942
79.84000 6.817
79.86000 3.658
79.88000 -0.462
79.90000 4.193
79.92000 3.259
79.94000 1.743
79.96000 5.991
79.98000 5.451
80.00000 3.322
80.02000 4.477
80.04000 4.565
80.06000 1.477
80.08000 -0.481
80.10000 2.470
80.12000 4.140
80.14000 1.741
80.16000 3.958
80.18000 6.777
80.20000 7.312
80.22000 2.663
80.24000 -2.371
80.26000 0.192
80.28000 0.434
80.30000 3.596
80.32000 2.532
80.34000 4.027
80.36000 1.553
80.38000 1.138
80.40000 0.486
80.42000 -1.894
80.44000 0.491
80.46000 0.764
80.48000 1.286
80.50000 -0.332
80.52000 2.071
80.54000 3.136
80.56000 6.718
80.58000 2.405
80.60000 1.185
80.62000 4.304
80.64000 3.081
80.66000 2.090
80.68000 0.506
80.70000 5.273
80.72000 0.984
80.74000 3.213
80.76000 0.605
80.78000 -1.091
80.80000 2.383
80.82000 1.477
80.84000 -2.432
80.86000 1.479
80.88000 4.859
80.90000 6.217
80.92000 6.388
80.94000 5.716
80.96000 3.664
80.98000 -0.391
81.00000 5.596
81.02000 5.438
81.04000 4.512
81.06000 1.813
81.08000 1.927
81.10000 2.152
81.12000 1.619
81.14000 2.337
81.16000 1.317
81.18000 10.895
81.20000 7.209
81.22000 5.667
81.24000 6.339
81.26000 5.940
81.28000 9.096
81.30000 4.873
81.32000 6.829
81.34000 6.123
81.36000 4.268
81.38000 8.003
81.40000 6.114
81.42000 3.856
81.44000 1.001
81.46000 6.198
81.48000 8.118
81.50000 6.688
81.52000 2.128
81.54000 3.686
81.56000 7.760
81.58000 10.655
81.60000 11.955
81.62000 8.487
81.64000 7.641
81.66000 11.383
81.68000 17.136
81.70000 11.956
81.72000 8.234
81.74000 10.498
81.76000 12.224
81.78000 10.017
81.80000 7.703
81.82000 10.863
81.84000 11.725
81.86000 17.423
81.88000 16.147
81.90000 12.500
81.92000 13.065
81.94000 17.597
81.96000 13.694
81.98000 10.645
82.00000 14.494
82.02000 19.161
82.04000 18.533
82.06000 19.380
82.08000 15.125
82.10000 17.155
82.12000 21.853
82.14000 22.553
82.16000 24.761
82.18000 24.233
82.20000 22.728
82.22000 17.497
82.24000 15.770
82.26000 19.736
82.28000 16.837
82.30000 19.772
82.32000 21.490
82.34000 20.809
82.36000 19.723
82.38000 26.495
82.40000 20.328
82.42000 24.894
82.44000 21.013
82.46000 24.186
82.48000 28.499
82.50000 24.150
82.52000 25.544
82.54000 33.376
82.56000 33.976
82.58000 29.092
82.60000 26.511
82.62000 30.708
82.64000 32.891
82.66000 32.382
82.68000 27.949
82.70000 29.786
82.72000 32.734
82.74000 31.888
82.76000 28.364
82.78000 29.379
82.80000 29.138
82.82000 28.513
82.84000 25.782
82.86000 24.552
82.88000 28.095
82.90000 34.164
82.92000 32.933
82.94000 29.163
82.96000 27.771
82.98000 29.477
83.00000 23.836
83.02000 20.808
83.04000 22.764
83.06000 25.934
83.08000 24.108
83.10000 22.000
83.12000 25.874
83.14000 20.624
83.16000 26.477
83.18000 25.706
83.20000 22.770
83.22000 22.311
83.24000 23.646
83.26000 24.373
83.28000 22.128
83.30000 19.863
83.32000 18.244
83.34000 19.408
83.36000 21.034
83.38000 20.189
83.40000 15.684
83.42000 13.211
83.44000 15.630
83.46000 18.798
83.48000 18.390
83.50000 16.614
83.52000 20.127
83.54000 21.275
83.56000 21.288
83.58000 15.124
83.60000 14.694
83.62000 16.638
83.64000 17.362
83.66000 13.730
83.68000 13.773
83.70000 10.185
83.72000 10.991
83.74000 13.786
83.76000 11.987
83.78000 11.812
83.80000 9.965
83.82000 11.704
83.84000 9.291
83.86000 10.037
83.88000 13.476
83.90000 11.158
83.92000 5.511
83.94000 4.744
83.96000 6.516
83.98000 6.806
84.00000 9.405
84.02000 13.324
84.04000 10.483
84.06000 7.540
84.08000 3.385
84.10000 3.877
84.12000 5.702
84.14000 9.026
84.16000 5.019
84.18000 5.493
84.20000 1.235
84.22000 4.246
84.24000 6.428
84.26000 5.304
84.28000 3.497
84.30000 5.110
84.32000 4.593
84.34000 2.179
84.36000 2.062
84.38000 2.931
84.40000 3.543
84.42000 6.974
84.44000 3.895
84.46000 1.633
84.48000 3.373
84.50000 5.447
84.52000 7.325
84.54000 6.681
84.56000 4.331
84.58000 9.517
84.60000 6.197
84.62000 3.166
84.64000 3.257
84.66000 2.421
84.68000 3.306
84.70000 -2.346
84.72000 2.249
84.74000 6.000
84.76000 3.879
84.78000 5.320
84.80000 5.501
84.82000 7.745
84.84000 5.943
84.86000 0.355
84.88000 0.686
84.90000 2.985
84.92000 6.389
84.94000 3.307
84.96000 7.644
84.98000 5.822
85.00000 1.085
85.02000 4.628
85.04000 5.561
85.06000 4.919
85.08000 2.241
85.10000 4.948
85.12000 1.296
85.14000 4.393
85.16000 1.501
85.18000 5.109
85.20000 6.534
85.22000 7.750
85.24000 7.258
85.26000 6.926
85.28000 -1.581
85.30000 -2.309
85.32000 3.566
85.34000 5.884
85.36000 5.650
85.38000 3.252
85.40000 4.580
85.42000 1.672
85.44000 1.135
85.46000 -0.337
85.48000 -2.324
85.50000 1.991
85.52000 3.727
85.54000 3.316
85.56000 3.968
85.58000 3.454
85.60000 1.477
85.62000 -0.131
85.64000 4.860
85.66000 2.549
85.68000 3.503
85.70000 4.413
85.72000 4.579
85.74000 4.188
85.76000 6.750
85.78000 2.101
85.80000 -1.311
85.82000 2.087
85.84000 1.852
85.86000 1.302
85.88000 0.222
85.90000 3.642
85.92000 6.372
85.94000 4.951
85.96000 1.772
85.98000 7.152
86.00000 4.986
86.02000 3.054
86.04000 2.037
86.06000 0.350
86.08000 2.479
86.10000 8.880
86.12000 6.157
86.14000 3.567
86.16000 3.784
86.18000 6.258
86.20000 7.064
86.22000 4.448
86.24000 -0.022
86.26000 5.226
86.28000 3.951
86.30000 4.032
86.32000 4.752
86.34000 7.228
86.36000 8.610
86.38000 11.724
86.40000 11.027
86.42000 9.558
86.44000 10.160
86.46000 10.395
86.48000 7.173
86.50000 7.852
86.52000 9.984
86.54000 10.129
86.56000 11.589
86.58000 7.782
86.60000 9.196
86.62000 10.334
86.64000 8.428
86.66000 12.305
86.68000 11.742
86.70000 10.051
86.72000 10.283
86.74000 14.483
86.76000 15.515
86.78000 21.157
86.80000 18.754
86.82000 15.292
86.84000 15.530
86.86000 16.280
86.88000 15.155
86.90000 16.951
86.92000 15.373
86.94000 22.509
86.96000 22.026
86.98000 22.168
87.00000 19.665
87.02000 15.879
87.04000 17.048
87.06000 16.560
87.08000 17.632
87.10000 16.867
87.12000 19.479
87.14000 21.477
87.16000 18.688
87.18000 18.219
87.20000 15.996
87.22000 18.644
87.24000 17.379
87.26000 21.413
87.28000 17.142
87.30000 13.257
87.32000 19.656
87.34000 18.183
87.36000 16.501
87.38000 17.405
87.40000 18.237
87.42000 17.241
87.44000 19.081
87.46000 19.079
87.48000 19.817
87.50000 15.358
87.52000 12.708
87.54000 14.329
87.56000 12.499
87.58000 12.852
87.60000 14.546
87.62000 17.297
87.64000 14.641
87.66000 14.453
87.68000 12.385
87.70000 9.695
87.72000 10.466
87.74000 11.970
87.76000 11.372
87.78000 11.524
87.80000 9.254
87.82000 10.845
87.84000 14.470
87.86000 11.656
87.88000 6.119
87.90000 7.162
87.92000 7.633
87.94000 7.698
87.96000 3.792
87.98000 2.964
88.00000 8.612
88.02000 9.901
88.04000 4.905
88.06000 7.370
88.08000 5.964
88.10000 4.571
88.12000 3.196
88.14000 4.785
88.16000 8.045
88.18000 2.977
88.20000 -1.517
88.22000 -1.061
88.24000 3.127
88.26000 4.987
88.28000 11.127
88.30000 6.395
88.32000 4.244
88.34000 4.270
88.36000 6.458
88.38000 2.449
88.40000 3.913
88.42000 7.482
88.44000 5.943
88.46000 4.289
88.48000 3.730
88.50000 4.867
88.52000 7.319
88.54000 0.681
88.56000 0.592
88.58000 3.596
88.60000 8.044
88.62000 8.098
88.64000 6.497
88.66000 3.713
88.68000 5.345
88.70000 6.571
88.72000 -0.502
88.74000 2.943
88.76000 -1.862
88.78000 -1.576
88.80000 4.575
88.82000 6.577
88.84000 5.353
88.86000 6.979
88.88000 10.260
88.90000 9.547
88.92000 7.030
88.94000 8.201
88.96000 3.878
88.98000 -1.295
89.00000 -2.157
89.02000 3.228
89.04000 4.815
89.06000 4.880
89.08000 8.705
89.10000 9.793
89.12000 6.826
89.14000 8.243
89.16000 5.530
89.18000 5.473
89.20000 4.614
89.22000 3.324
89.24000 1.526
89.26000 -0.739
89.28000 2.085
89.30000 7.144
89.32000 6.345
89.34000 2.187
89.36000 4.783
89.38000 9.640
89.40000 4.213
89.42000 2.548
89.44000 2.643
89.46000 3.877
89.48000 3.594
89.50000 2.613
89.52000 1.390
89.54000 4.440
89.56000 2.649
89.58000 1.194
89.60000 2.764
89.62000 2.590
89.64000 7.575
89.66000 7.579
89.68000 5.681
89.70000 2.011
89.72000 -1.180
89.74000 2.551
89.76000 4.224
89.78000 4.976
89.80000 5.061
89.82000 1.883
89.84000 3.272
89.86000 2.697
89.88000 1.015
89.90000 1.737
89.92000 2.364
89.94000 2.274
89.96000 2.427
89.98000 2.330
90.00000 2.920
90.02000 0.396
90.04000 -2.157
90.06000 1.603
90.08000 2.623
90.10000 3.722
90.12000 2.414
90.14000 -0.143
90.16000 3.961
90.18000 3.838
90.20000 2.945
90.22000 3.176
90.24000 4.627
90.26000 2.708
90.28000 6.157
90.30000 5.730
90.32000 2.810
90.34000 1.446
90.36000 3.691
90.38000 3.706
90.40000 4.586
90.42000 2.985
90.44000 0.458
90.46000 1.532
90.48000 3.223
90.50000 3.618
90.52000 8.401
90.54000 7.351
90.56000 5.654
90.58000 2.394
90.60000 0.465
90.62000 -0.838
90.64000 1.607
90.66000 -1.547
90.68000 -0.237
90.70000 5.912
90.72000 2.902
90.74000 -1.779
90.76000 3.550
90.78000 2.595
90.80000 1.654
90.82000 1.519
90.84000 3.548
90.86000 6.088
90.88000 -0.342
90.90000 -0.046
90.92000 4.310
90.94000 3.617
90.96000 -0.543
90.98000 -0.805
91.00000 3.022
91.02000 1.026
91.04000 0.272
91.06000 2.856
91.08000 3.025
91.10000 5.999
91.12000 4.885
91.14000 0.732
91.16000 0.024
91.18000 0.854
91.20000 2.431
91.22000 3.293
91.24000 4.487
91.26000 4.876
91.28000 1.530
91.30000 3.848
91.32000 2.020
91.34000 5.542
91.36000 3.752
91.38000 0.803
91.40000 3.522
91.42000 3.519
91.44000 2.783
91.46000 3.051
91.48000 3.916
91.50000 0.190
91.52000 1.455
91.54000 4.078
91.56000 7.579
91.58000 5.603
91.60000 4.352
91.62000 2.052
91.64000 0.540
91.66000 4.162
91.68000 4.723
91.70000 3.271
91.72000 1.977
91.74000 4.806
91.76000 3.962
91.78000 -2.105
91.80000 0.467
91.82000 3.688
91.84000 5.397
91.86000 3.667
91.88000 5.559
91.90000 5.662
91.92000 7.815
91.94000 3.680
91.96000 1.917
91.98000 0.980
92.00000 3.888
92.02000 0.023
92.04000 2.169
92.06000 7.035
92.08000 8.213
92.10000 6.457
92.12000 5.340
92.14000 3.590
92.16000 2.362
92.18000 2.086
92.20000 -1.633
92.22000 2.782
92.24000 2.199
92.26000 5.961
92.28000 6.466
92.30000 2.000
92.32000 4.690
92.34000 2.330
92.36000 -0.290
92.38000 -0.701
92.40000 5.818
92.42000 5.903
92.44000 5.066
92.46000 2.060
92.48000 3.814
92.50000 0.484
92.52000 1.000
92.54000 5.126
92.56000 6.207
92.58000 2.533
92.60000 -2.148
92.62000 -1.317
92.64000 -1.307
92.66000 -0.916
92.68000 0.496
92.70000 5.057
92.72000 6.926
92.74000 5.990
92.76000 3.595
92.78000 0.503
92.80000 -0.757
92.82000 0.723
92.84000 -0.856
92.86000 3.848
92.88000 0.743
92.90000 1.701
92.92000 0.937
92.94000 0.536
92.96000 0.506
92.98000 4.493
93.00000 5.497
93.02000 1.009
93.04000 3.401
93.06000 3.361
93.08000 4.121
93.10000 5.911
93.12000 5.021
93.14000 2.819
93.16000 3.294
93.18000 3.108
93.20000 1.376
93.22000 2.236
93.24000 6.111
93.26000 5.467
93.28000 3.284
93.30000 4.185
93.32000 3.785
93.34000 2.904
93.36000 3.109
93.38000 2.628
93.40000 0.871
93.42000 1.512
93.44000 -2.164
93.46000 1.425
93.48000 0.088
93.50000 3.014
93.52000 -0.905
93.54000 1.724
93.56000 6.190
93.58000 7.963
93.60000 4.386
93.62000 6.259
93.64000 5.716
93.66000 3.894
93.68000 4.775
93.70000 3.393
93.72000 5.744
93.74000 5.496
93.76000 5.752
93.78000 1.754
93.80000 2.192
93.82000 6.928
93.84000 10.174
93.86000 2.718
93.88000 3.547
93.90000 0.538
93.92000 2.342
93.94000 3.522
93.96000 4.979
93.98000 4.964
94.00000 3.750
94.02000 1.925
94.04000 1.392
94.06000 2.240
94.08000 -2.150
94.10000 2.332
94.12000 10.458
94.14000 8.231
94.16000 2.667
94.18000 3.144
94.20000 0.428
94.22000 -2.166
94.24000 4.122
94.26000 4.162
94.28000 3.936
94.30000 5.196
94.32000 5.983
94.34000 3.270
94.36000 1.726
94.38000 2.498
94.40000 6.608
94.42000 4.732
94.44000 7.171
94.46000 4.033
94.48000 2.091
94.50000 -0.446
94.52000 1.211
94.54000 6.529
94.56000 4.849
94.58000 2.796
94.60000 2.387
94.62000 -2.174
94.64000 1.932
94.66000 4.127
94.68000 3.501
94.70000 4.268
94.72000 4.598
94.74000 -0.433
94.76000 -1.225
94.78000 1.464
94.80000 7.742
94.82000 5.430
94.84000 1.108
94.86000 2.982
94.88000 3.504
94.90000 0.461
94.92000 2.435
94.94000 5.004
94.96000 2.346
94.98000 2.126
95.00000 1.777
95.02000 0.075
95.04000 1.503
95.06000 1.578
95.08000 0.551
95.10000 3.998
95.12000 2.865
95.14000 2.164
95.16000 1.324
95.18000 0.023
95.20000 2.739
95.22000 2.731
95.24000 0.785
95.26000 -1.290
95.28000 1.102
95.30000 3.470
95.32000 6.039
95.34000 3.656
95.36000 0.375
95.38000 0.367
95.40000 -0.240
95.42000 0.648
95.44000 8.167
95.46000 9.155
95.48000 6.041
95.50000 4.155
95.52000 1.756
95.54000 -0.393
95.56000 4.232
95.58000 3.433
95.60000 2.207
95.62000 5.328
95.64000 3.137
95.66000 1.393
95.68000 3.150
95.70000 5.680
95.72000 9.885
95.74000 9.991
95.76000 5.929
95.78000 3.564
95.80000 6.544
95.82000 5.459
95.84000 7.554
95.86000 4.505
95.88000 -2.167
95.90000 1.339
95.92000 8.036
95.94000 3.215
95.96000 5.036
95.98000 0.491
96.00000 3.802
96.02000 3.780
96.04000 3.754
96.06000 4.696
96.08000 3.847
96.10000 0.889
96.12000 0.076
96.14000 3.092
96.16000 2.387
96.18000 6.135
96.20000 10.361
96.22000 4.933
96.24000 5.180
96.26000 7.140
96.28000 8.665
96.30000 4.743
96.32000 3.842
96.34000 5.933
96.36000 -0.590
96.38000 2.728
96.40000 10.293
96.42000 5.213
96.44000 6.894
96.46000 4.984
96.48000 8.150
96.50000 8.524
96.52000 10.833
96.54000 2.139
96.56000 4.296
96.58000 6.883
96.60000 3.831
96.62000 0.883
96.64000 1.514
96.66000 3.802
96.68000 -0.021
96.70000 -2.127
96.72000 3.380
96.74000 7.205
96.76000 6.076
96.78000 5.434
96.80000 6.395
96.82000 6.428
96.84000 8.000
96.86000 6.409
96.88000 1.663
96.90000 4.084
96.92000 9.766
96.94000 5.374
96.96000 8.491
96.98000 9.088
97.00000 3.942
97.02000 8.046
97.04000 12.030
97.06000 10.527
97.08000 11.262
97.10000 1.743
97.12000 -0.959
97.14000 -1.593
97.16000 2.444
97.18000 6.047
97.20000 9.075
97.22000 5.238
97.24000 3.219
97.26000 -0.739
97.28000 0.320
97.30000 2.308
97.32000 8.502
97.34000 7.359
97.36000 4.795
97.38000 8.501
97.40000 10.142
97.42000 4.902
97.44000 -0.130
97.46000 0.377
97.48000 -0.436
97.50000 1.894
97.52000 3.065
97.54000 7.925
97.56000 8.424
97.58000 6.570
97.60000 3.899
97.62000 3.508
97.64000 5.788
97.66000 9.248
97.68000 5.638
97.70000 10.314
97.72000 11.696
97.74000 6.352
97.76000 -2.098
97.78000 1.384
97.80000 3.824
97.82000 2.492
97.84000 2.700
97.86000 3.628
97.88000 6.643
97.90000 -1.227
97.92000 3.502
97.94000 4.948
97.96000 11.032
97.98000 2.808
98.00000 9.976
98.02000 8.891
98.04000 3.659
98.06000 3.718
98.08000 12.638
98.10000 6.466
98.12000 8.136
98.14000 6.174
98.16000 10.154
98.18000 9.320
98.20000 6.190
98.22000 12.574
98.24000 1.038
98.26000 5.372
98.28000 0.652
98.30000 1.043
98.32000 4.588
98.34000 10.568
98.36000 8.684
98.38000 4.879
98.40000 2.669
98.42000 2.994
98.44000 8.258
98.46000 11.581
98.48000 13.621
98.50000 12.222
98.52000 13.581
98.54000 6.652
98.56000 2.494
98.58000 -1.736
98.60000 4.390
98.62000 7.512
98.64000 9.904
98.66000 16.594
98.68000 9.415
98.70000 10.351
98.72000 10.442
98.74000 11.944
98.76000 6.494
98.78000 4.354
98.80000 17.724
98.82000 11.810
98.84000 3.828
98.86000 -2.086
98.88000 4.125
98.90000 8.277
98.92000 7.431
98.94000 9.561
98.96000 10.742
98.98000 4.242
99.00000 2.918
99.02000 1.725
99.04000 0.716
99.06000 3.829
99.08000 3.880
99.10000 4.847
99.12000 3.099
99.14000 4.966
99.16000 2.798
99.18000 0.347
99.20000 1.606
99.22000 0.778
99.24000 -1.762
99.26000 -2.111
99.28000 3.289
99.30000 3.771
99.32000 1.318
99.34000 1.429
99.36000 6.375
99.38000 13.021
99.40000 10.620
99.42000 18.178
99.44000 7.987
99.46000 10.916
99.48000 8.509
99.50000 8.791
99.52000 7.547
99.54000 -0.635
99.56000 -1.927
99.58000 -0.760
99.60000 6.255
99.62000 5.349
99.64000 0.059
99.66000 1.740
99.68000 5.897
99.70000 1.415
99.72000 -2.166
99.74000 7.744
99.76000 2.384
99.78000 7.827
99.80000 15.612
99.82000 16.918
99.84000 4.759
99.86000 -0.518
99.88000 1.232
99.90000 4.466
99.92000 3.154
99.94000 7.533
99.96000 -3.198
99.98000 0.000
