'Id: "0011388" Comment: "Integrate frame 0011388_Au-Ir-Rh_Rh-rich_XRD-Mapping-322-0000.gfrmwith cursor Wedge Cursor #5" Operator: "B?rgel" Anode: "Cu" Wavelength: "1.5406" Scantype: "2Theta (TwoTheta)" TimePerStep: "1" X: "22.5" Y: "36" Z: "5.95" 
10.00000 0.000
10.02000 7.142
10.04000 9.099
10.06000 4.648
10.08000 -3.949
10.10000 1.743
10.12000 -0.426
10.14000 9.361
10.16000 16.097
10.18000 12.551
10.20000 15.884
10.22000 15.318
10.24000 0.823
10.26000 -3.896
10.28000 11.732
10.30000 22.933
10.32000 8.114
10.34000 -8.368
10.36000 10.970
10.38000 12.281
10.40000 14.392
10.42000 20.400
10.44000 30.583
10.46000 18.305
10.48000 5.514
10.50000 15.673
10.52000 3.676
10.54000 19.534
10.56000 18.263
10.58000 25.650
10.60000 28.616
10.62000 34.697
10.64000 23.735
10.66000 19.179
10.68000 23.442
10.70000 31.648
10.72000 17.217
10.74000 26.605
10.76000 29.649
10.78000 22.884
10.80000 20.137
10.82000 23.187
10.84000 16.213
10.86000 14.959
10.88000 21.422
10.90000 17.695
10.92000 29.174
10.94000 36.980
10.96000 36.348
10.98000 20.743
11.00000 12.715
11.02000 18.979
11.04000 10.489
11.06000 22.343
11.08000 25.513
11.10000 36.426
11.12000 19.400
11.14000 10.379
11.16000 19.322
11.18000 22.131
11.20000 11.324
11.22000 22.661
11.24000 31.076
11.26000 32.142
11.28000 28.427
11.30000 22.175
11.32000 12.149
11.34000 14.557
11.36000 12.385
11.38000 17.922
11.40000 23.782
11.42000 22.421
11.44000 26.768
11.46000 24.919
11.48000 14.244
11.50000 14.217
11.52000 10.883
11.54000 18.731
11.56000 24.505
11.58000 20.145
11.60000 11.512
11.62000 24.393
11.64000 22.334
11.66000 14.311
11.68000 20.662
11.70000 22.289
11.72000 18.819
11.74000 19.583
11.76000 17.466
11.78000 11.175
11.80000 25.003
11.82000 31.722
11.84000 29.725
11.86000 18.450
11.88000 16.631
11.90000 15.182
11.92000 29.464
11.94000 25.413
11.96000 15.368
11.98000 24.608
12.00000 23.073
12.02000 18.809
12.04000 21.629
12.06000 26.369
12.08000 20.824
12.10000 38.513
12.12000 38.680
12.14000 22.605
12.16000 12.621
12.18000 13.444
12.20000 18.112
12.22000 32.654
12.24000 33.136
12.26000 22.936
12.28000 16.297
12.30000 16.370
12.32000 15.427
12.34000 15.484
12.36000 22.266
12.38000 16.613
12.40000 5.814
12.42000 14.262
12.44000 21.720
12.46000 22.122
12.48000 19.440
12.50000 20.445
12.52000 18.424
12.54000 20.725
12.56000 27.895
12.58000 34.551
12.60000 26.499
12.62000 18.709
12.64000 14.303
12.66000 12.945
12.68000 18.680
12.70000 18.887
12.72000 32.233
12.74000 27.927
12.76000 30.658
12.78000 27.269
12.80000 24.556
12.82000 21.232
12.84000 27.350
12.86000 25.486
12.88000 24.959
12.90000 21.658
12.92000 23.051
12.94000 25.578
12.96000 33.663
12.98000 30.655
13.00000 17.681
13.02000 21.737
13.04000 28.892
13.06000 23.444
13.08000 22.001
13.10000 22.434
13.12000 22.976
13.14000 24.294
13.16000 23.952
13.18000 18.176
13.20000 7.558
13.22000 19.857
13.24000 22.135
13.26000 13.635
13.28000 8.119
13.30000 9.572
13.32000 10.853
13.34000 15.031
13.36000 10.248
13.38000 22.481
13.40000 24.411
13.42000 17.591
13.44000 18.063
13.46000 20.465
13.48000 33.814
13.50000 34.023
13.52000 21.781
13.54000 20.569
13.56000 18.265
13.58000 20.580
13.60000 20.647
13.62000 19.840
13.64000 13.378
13.66000 12.186
13.68000 22.400
13.70000 23.021
13.72000 18.839
13.74000 14.322
13.76000 17.264
13.78000 9.684
13.80000 10.132
13.82000 11.122
13.84000 18.438
13.86000 21.094
13.88000 20.321
13.90000 12.894
13.92000 4.696
13.94000 11.132
13.96000 12.464
13.98000 2.402
14.00000 11.308
14.02000 20.596
14.04000 6.544
14.06000 5.112
14.08000 14.840
14.10000 12.316
14.12000 11.068
14.14000 20.507
14.16000 15.238
14.18000 16.867
14.20000 12.839
14.22000 4.975
14.24000 5.556
14.26000 10.385
14.28000 14.656
14.30000 14.901
14.32000 13.238
14.34000 9.954
14.36000 9.119
14.38000 10.288
14.40000 8.013
14.42000 14.028
14.44000 12.761
14.46000 13.237
14.48000 16.699
14.50000 13.372
14.52000 12.622
14.54000 2.848
14.56000 7.837
14.58000 14.207
14.60000 14.966
14.62000 8.776
14.64000 13.550
14.66000 8.477
14.68000 3.675
14.70000 6.792
14.72000 2.284
14.74000 8.808
14.76000 9.787
14.78000 20.993
14.80000 16.333
14.82000 8.293
14.84000 10.330
14.86000 4.687
14.88000 4.697
14.90000 8.442
14.92000 13.624
14.94000 10.093
14.96000 11.664
14.98000 11.238
15.00000 1.375
15.02000 5.663
15.04000 14.236
15.06000 8.613
15.08000 10.408
15.10000 5.450
15.12000 7.720
15.14000 6.235
15.16000 2.440
15.18000 3.423
15.20000 12.084
15.22000 12.283
15.24000 8.449
15.26000 14.625
15.28000 16.966
15.30000 8.783
15.32000 14.665
15.34000 10.728
15.36000 11.712
15.38000 15.022
15.40000 10.177
15.42000 6.077
15.44000 8.861
15.46000 7.937
15.48000 1.940
15.50000 9.427
15.52000 12.771
15.54000 14.978
15.56000 13.922
15.58000 7.434
15.60000 1.493
15.62000 -1.937
15.64000 5.818
15.66000 9.816
15.68000 7.775
15.70000 6.768
15.72000 3.563
15.74000 4.178
15.76000 7.942
15.78000 21.326
15.80000 13.444
15.82000 6.686
15.84000 7.874
15.86000 7.869
15.88000 8.150
15.90000 5.120
15.92000 5.828
15.94000 1.532
15.96000 4.754
15.98000 10.290
16.00000 12.535
16.02000 5.382
16.04000 7.424
16.06000 8.807
16.08000 9.020
16.10000 5.671
16.12000 1.945
16.14000 -0.125
16.16000 9.659
16.18000 0.076
16.20000 1.298
16.22000 2.534
16.24000 1.649
16.26000 3.803
16.28000 2.559
16.30000 -0.406
16.32000 0.830
16.34000 7.143
16.36000 4.844
16.38000 4.754
16.40000 21.067
16.42000 16.461
16.44000 7.831
16.46000 12.149
16.48000 8.970
16.50000 4.665
16.52000 3.110
16.54000 7.458
16.56000 2.370
16.58000 0.765
16.60000 3.329
16.62000 8.683
16.64000 2.584
16.66000 2.414
16.68000 11.656
16.70000 12.655
16.72000 1.681
16.74000 -4.432
16.76000 7.141
16.78000 6.576
16.80000 4.184
16.82000 5.037
16.84000 4.215
16.86000 1.842
16.88000 5.621
16.90000 9.336
16.92000 10.038
16.94000 12.164
16.96000 9.713
16.98000 7.217
17.00000 4.139
17.02000 6.066
17.04000 5.755
17.06000 4.165
17.08000 8.385
17.10000 6.147
17.12000 0.546
17.14000 0.867
17.16000 2.311
17.18000 2.065
17.20000 3.097
17.22000 3.714
17.24000 2.549
17.26000 2.948
17.28000 -0.868
17.30000 3.688
17.32000 11.355
17.34000 8.102
17.36000 6.834
17.38000 10.274
17.40000 -1.440
17.42000 4.939
17.44000 1.189
17.46000 -1.741
17.48000 -2.117
17.50000 5.066
17.52000 15.142
17.54000 14.820
17.56000 10.160
17.58000 5.981
17.60000 0.782
17.62000 6.496
17.64000 3.307
17.66000 4.657
17.68000 3.960
17.70000 10.482
17.72000 16.563
17.74000 18.501
17.76000 13.466
17.78000 9.541
17.80000 4.874
17.82000 3.865
17.84000 8.710
17.86000 7.015
17.88000 7.338
17.90000 3.452
17.92000 11.970
17.94000 13.801
17.96000 4.200
17.98000 0.516
18.00000 1.569
18.02000 3.965
18.04000 2.281
18.06000 3.784
18.08000 4.293
18.10000 1.427
18.12000 9.397
18.14000 13.757
18.16000 3.405
18.18000 -4.361
18.20000 -1.164
18.22000 4.848
18.24000 5.325
18.26000 5.373
18.28000 7.081
18.30000 6.289
18.32000 8.696
18.34000 6.655
18.36000 -2.431
18.38000 -2.388
18.40000 2.408
18.42000 3.764
18.44000 4.256
18.46000 10.309
18.48000 11.041
18.50000 11.128
18.52000 6.489
18.54000 7.130
18.56000 2.719
18.58000 5.280
18.60000 5.089
18.62000 5.176
18.64000 -0.860
18.66000 2.681
18.68000 7.123
18.70000 5.706
18.72000 9.154
18.74000 3.016
18.76000 -2.748
18.78000 6.937
18.80000 7.872
18.82000 8.147
18.84000 6.998
18.86000 -3.866
18.88000 -4.338
18.90000 3.481
18.92000 2.682
18.94000 1.824
18.96000 -0.623
18.98000 1.386
19.00000 3.506
19.02000 -3.389
19.04000 0.334
19.06000 3.592
19.08000 1.069
19.10000 4.154
19.12000 3.262
19.14000 2.702
19.16000 7.721
19.18000 4.777
19.20000 3.419
19.22000 4.078
19.24000 2.666
19.26000 7.095
19.28000 8.075
19.30000 5.657
19.32000 0.207
19.34000 -0.456
19.36000 1.085
19.38000 -2.430
19.40000 3.394
19.42000 8.722
19.44000 8.227
19.46000 1.760
19.48000 0.936
19.50000 2.386
19.52000 1.676
19.54000 2.830
19.56000 0.574
19.58000 -0.745
19.60000 9.324
19.62000 6.883
19.64000 3.562
19.66000 -0.450
19.68000 4.015
19.70000 0.317
19.72000 2.153
19.74000 -2.751
19.76000 -4.290
19.78000 -1.755
19.80000 -0.841
19.82000 -1.672
19.84000 0.326
19.86000 6.952
19.88000 12.720
19.90000 9.552
19.92000 9.287
19.94000 1.306
19.96000 -0.978
19.98000 7.827
20.00000 11.319
20.02000 5.903
20.04000 8.887
20.06000 5.231
20.08000 -4.232
20.10000 0.372
20.12000 -0.239
20.14000 1.901
20.16000 2.843
20.18000 3.535
20.20000 7.929
20.22000 4.682
20.24000 9.741
20.26000 8.567
20.28000 10.672
20.30000 11.150
20.32000 10.719
20.34000 10.787
20.36000 6.794
20.38000 -0.824
20.40000 5.483
20.42000 12.663
20.44000 16.408
20.46000 6.452
20.48000 5.203
20.50000 6.344
20.52000 1.277
20.54000 -1.208
20.56000 2.316
20.58000 8.749
20.60000 5.620
20.62000 -4.211
20.64000 3.865
20.66000 12.253
20.68000 11.424
20.70000 -0.726
20.72000 3.425
20.74000 7.597
20.76000 10.925
20.78000 2.107
20.80000 -1.009
20.82000 1.340
20.84000 2.911
20.86000 5.737
20.88000 6.845
20.90000 7.848
20.92000 4.359
20.94000 3.641
20.96000 1.039
20.98000 5.765
21.00000 9.632
21.02000 10.272
21.04000 11.495
21.06000 -2.746
21.08000 -3.102
21.10000 0.140
21.12000 5.484
21.14000 3.141
21.16000 4.117
21.18000 -2.673
21.20000 4.978
21.22000 8.359
21.24000 7.935
21.26000 11.425
21.28000 5.932
21.30000 5.173
21.32000 2.834
21.34000 5.881
21.36000 7.312
21.38000 2.564
21.40000 6.296
21.42000 1.259
21.44000 -1.917
21.46000 4.347
21.48000 5.751
21.50000 4.004
21.52000 9.151
21.54000 5.592
21.56000 -3.463
21.58000 -0.190
21.60000 2.019
21.62000 3.084
21.64000 1.114
21.66000 6.031
21.68000 6.343
21.70000 6.524
21.72000 5.656
21.74000 3.938
21.76000 7.833
21.78000 11.406
21.80000 9.144
21.82000 8.393
21.84000 10.253
21.86000 9.272
21.88000 4.139
21.90000 3.157
21.92000 0.790
21.94000 -4.152
21.96000 -2.595
21.98000 1.396
22.00000 7.234
22.02000 0.874
22.04000 1.464
22.06000 -0.054
22.08000 -0.991
22.10000 -1.515
22.12000 2.364
22.14000 3.173
22.16000 4.468
22.18000 9.674
22.20000 15.039
22.22000 9.313
22.24000 2.048
22.26000 3.656
22.28000 7.192
22.30000 6.412
22.32000 4.409
22.34000 4.719
22.36000 6.300
22.38000 4.317
22.40000 -0.558
22.42000 1.277
22.44000 -4.109
22.46000 -3.594
22.48000 5.523
22.50000 6.897
22.52000 7.468
22.54000 7.570
22.56000 6.596
22.58000 4.827
22.60000 4.088
22.62000 3.206
22.64000 -0.081
22.66000 3.682
22.68000 3.054
22.70000 6.596
22.72000 11.045
22.74000 3.345
22.76000 5.868
22.78000 5.126
22.80000 7.794
22.82000 8.266
22.84000 7.122
22.86000 3.848
22.88000 0.623
22.90000 5.956
22.92000 4.836
22.94000 4.763
22.96000 10.822
22.98000 1.583
23.00000 6.669
23.02000 8.431
23.04000 4.140
23.06000 0.346
23.08000 5.082
23.10000 6.053
23.12000 9.682
23.14000 5.701
23.16000 8.726
23.18000 11.058
23.20000 6.548
23.22000 8.763
23.24000 9.734
23.26000 3.706
23.28000 -1.649
23.30000 4.050
23.32000 1.537
23.34000 -1.122
23.36000 -1.063
23.38000 4.473
23.40000 4.702
23.42000 2.709
23.44000 4.911
23.46000 8.818
23.48000 5.623
23.50000 6.714
23.52000 8.706
23.54000 5.588
23.56000 -0.296
23.58000 3.966
23.60000 8.532
23.62000 9.577
23.64000 -0.287
23.66000 0.351
23.68000 3.377
23.70000 3.657
23.72000 3.297
23.74000 5.246
23.76000 4.499
23.78000 8.315
23.80000 3.618
23.82000 2.253
23.84000 6.642
23.86000 7.935
23.88000 -4.044
23.90000 0.915
23.92000 2.816
23.94000 4.153
23.96000 6.557
23.98000 6.538
24.00000 7.744
24.02000 8.307
24.04000 4.966
24.06000 0.787
24.08000 1.517
24.10000 1.524
24.12000 -4.034
24.14000 1.932
24.16000 6.934
24.18000 7.616
24.20000 5.908
24.22000 -1.103
24.24000 0.371
24.26000 2.479
24.28000 7.664
24.30000 9.920
24.32000 5.434
24.34000 6.710
24.36000 8.846
24.38000 2.771
24.40000 2.220
24.42000 2.644
24.44000 6.054
24.46000 8.316
24.48000 6.858
24.50000 7.056
24.52000 3.187
24.54000 -1.798
24.56000 -3.852
24.58000 -0.275
24.60000 6.975
24.62000 7.609
24.64000 10.532
24.66000 6.595
24.68000 7.201
24.70000 3.161
24.72000 -3.361
24.74000 -4.012
24.76000 1.476
24.78000 5.590
24.80000 0.133
24.82000 3.020
24.84000 13.130
24.86000 11.727
24.88000 5.475
24.90000 6.948
24.92000 6.698
24.94000 4.496
24.96000 2.052
24.98000 -1.400
25.00000 5.840
25.02000 6.590
25.04000 0.811
25.06000 -0.350
25.08000 1.521
25.10000 -3.992
25.12000 -2.646
25.14000 6.234
25.16000 4.074
25.18000 3.247
25.20000 2.888
25.22000 2.223
25.24000 1.554
25.26000 -1.654
25.28000 -0.078
25.30000 1.123
25.32000 -0.129
25.34000 0.632
25.36000 2.852
25.38000 4.446
25.40000 5.074
25.42000 3.503
25.44000 3.080
25.46000 2.321
25.48000 5.839
25.50000 2.809
25.52000 2.595
25.54000 8.375
25.56000 6.394
25.58000 7.606
25.60000 0.856
25.62000 1.603
25.64000 5.754
25.66000 9.681
25.68000 12.450
25.70000 6.986
25.72000 -1.113
25.74000 1.013
25.76000 1.527
25.78000 -3.950
25.80000 0.895
25.82000 2.106
25.84000 1.438
25.86000 -0.478
25.88000 1.454
25.90000 0.829
25.92000 -0.384
25.94000 2.854
25.96000 7.958
25.98000 4.618
26.00000 2.839
26.02000 6.239
26.04000 5.707
26.06000 8.304
26.08000 2.631
26.10000 2.250
26.12000 4.664
26.14000 6.968
26.16000 2.149
26.18000 2.874
26.20000 7.313
26.22000 5.240
26.24000 4.079
26.26000 2.195
26.28000 7.916
26.30000 8.986
26.32000 1.431
26.34000 5.241
26.36000 -3.913
26.38000 0.817
26.40000 4.410
26.42000 -0.843
26.44000 -1.126
26.46000 6.155
26.48000 5.782
26.50000 3.263
26.52000 5.963
26.54000 4.095
26.56000 1.715
26.58000 5.769
26.60000 6.597
26.62000 2.219
26.64000 0.091
26.66000 3.828
26.68000 4.445
26.70000 -2.268
26.72000 -2.196
26.74000 0.629
26.76000 -1.361
26.78000 0.185
26.80000 4.032
26.82000 8.170
26.84000 2.105
26.86000 -3.334
26.88000 -3.341
26.90000 2.168
26.92000 4.559
26.94000 12.095
26.96000 8.929
26.98000 2.111
27.00000 2.263
27.02000 -0.369
27.04000 4.202
27.06000 4.235
27.08000 5.893
27.10000 5.584
27.12000 4.011
27.14000 0.235
27.16000 -2.164
27.18000 3.525
27.20000 1.493
27.22000 -0.499
27.24000 -0.682
27.26000 4.204
27.28000 3.460
27.30000 0.893
27.32000 -3.654
27.34000 -3.103
27.36000 -2.851
27.38000 1.003
27.40000 3.135
27.42000 -3.613
27.44000 -3.884
27.46000 4.064
27.48000 4.358
27.50000 4.104
27.52000 3.125
27.54000 4.307
27.56000 3.614
27.58000 4.286
27.60000 3.352
27.62000 1.749
27.64000 1.063
27.66000 -3.107
27.68000 0.818
27.70000 -1.498
27.72000 -1.109
27.74000 1.891
27.76000 -1.410
27.78000 4.174
27.80000 6.512
27.82000 7.636
27.84000 4.791
27.86000 8.574
27.88000 6.890
27.90000 1.391
27.92000 1.154
27.94000 0.744
27.96000 2.866
27.98000 3.683
28.00000 1.075
28.02000 3.495
28.04000 3.257
28.06000 1.668
28.08000 2.358
28.10000 -3.086
28.12000 0.368
28.14000 2.700
28.16000 4.363
28.18000 -2.891
28.20000 -0.070
28.22000 0.541
28.24000 -2.638
28.26000 0.864
28.28000 1.344
28.30000 4.072
28.32000 -1.951
28.34000 -3.247
28.36000 1.962
28.38000 -1.392
28.40000 3.607
28.42000 4.325
28.44000 1.839
28.46000 -0.710
28.48000 -2.549
28.50000 -2.515
28.52000 -1.003
28.54000 -1.754
28.56000 -2.034
28.58000 -3.848
28.60000 -3.748
28.62000 0.723
28.64000 2.008
28.66000 2.810
28.68000 4.214
28.70000 3.559
28.72000 -1.177
28.74000 0.816
28.76000 0.506
28.78000 -3.282
28.80000 -1.710
28.82000 4.250
28.84000 0.080
28.86000 -2.530
28.88000 6.660
28.90000 4.900
28.92000 -2.366
28.94000 -2.687
28.96000 0.859
28.98000 1.086
29.00000 1.813
29.02000 -1.174
29.04000 3.385
29.06000 3.406
29.08000 0.708
29.10000 0.332
29.12000 0.554
29.14000 -0.764
29.16000 0.434
29.18000 -0.262
29.20000 -1.525
29.22000 1.139
29.24000 -0.469
29.26000 3.876
29.28000 3.936
29.30000 3.660
29.32000 0.092
29.34000 4.680
29.36000 3.362
29.38000 2.770
29.40000 3.732
29.42000 3.285
29.44000 -0.205
29.46000 0.215
29.48000 -2.520
29.50000 0.719
29.52000 4.803
29.54000 8.004
29.56000 6.844
29.58000 2.463
29.60000 3.002
29.62000 2.352
29.64000 2.535
29.66000 3.077
29.68000 6.870
29.70000 6.355
29.72000 8.451
29.74000 0.441
29.76000 -0.104
29.78000 -3.739
29.80000 -0.779
29.82000 3.818
29.84000 -1.371
29.86000 -1.944
29.88000 0.041
29.90000 0.101
29.92000 -0.046
29.94000 -1.748
29.96000 2.523
29.98000 0.274
30.00000 4.493
30.02000 8.602
30.04000 3.463
30.06000 2.808
30.08000 3.522
30.10000 4.078
30.12000 4.723
30.14000 -0.109
30.16000 0.754
30.18000 9.399
30.20000 9.906
30.22000 7.738
30.24000 4.443
30.26000 4.492
30.28000 -1.831
30.30000 -0.073
30.32000 3.851
30.34000 5.724
30.36000 4.065
30.38000 1.769
30.40000 5.935
30.42000 6.909
30.44000 2.405
30.46000 2.303
30.48000 3.685
30.50000 3.375
30.52000 4.196
30.54000 4.294
30.56000 4.494
30.58000 5.268
30.60000 2.469
30.62000 3.720
30.64000 4.860
30.66000 -2.707
30.68000 -3.014
30.70000 6.844
30.72000 7.058
30.74000 3.837
30.76000 1.774
30.78000 4.588
30.80000 0.508
30.82000 -3.698
30.84000 2.025
30.86000 3.209
30.88000 -0.009
30.90000 3.114
30.92000 0.858
30.94000 8.810
30.96000 15.666
30.98000 13.650
31.00000 3.984
31.02000 0.595
31.04000 4.067
31.06000 2.625
31.08000 1.798
31.10000 -1.368
31.12000 -2.843
31.14000 -2.578
31.16000 3.526
31.18000 -0.933
31.20000 -3.378
31.22000 -0.545
31.24000 1.658
31.26000 5.590
31.28000 4.555
31.30000 0.195
31.32000 3.893
31.34000 2.945
31.36000 6.180
31.38000 2.716
31.40000 4.327
31.42000 9.780
31.44000 2.930
31.46000 6.507
31.48000 6.330
31.50000 2.314
31.52000 3.081
31.54000 5.933
31.56000 4.549
31.58000 2.702
31.60000 1.095
31.62000 5.822
31.64000 3.960
31.66000 -0.376
31.68000 0.689
31.70000 5.797
31.72000 6.675
31.74000 3.483
31.76000 0.331
31.78000 -1.289
31.80000 0.287
31.82000 -0.454
31.84000 -0.248
31.86000 1.832
31.88000 6.432
31.90000 8.144
31.92000 9.497
31.94000 6.185
31.96000 2.030
31.98000 -3.465
32.00000 -3.644
32.02000 2.332
32.04000 4.637
32.06000 3.506
32.08000 2.666
32.10000 -0.975
32.12000 3.628
32.14000 -1.142
32.16000 1.268
32.18000 2.764
32.20000 1.180
32.22000 1.781
32.24000 7.922
32.26000 6.640
32.28000 1.438
32.30000 0.414
32.32000 4.822
32.34000 5.075
32.36000 2.937
32.38000 4.150
32.40000 0.771
32.42000 0.663
32.44000 0.326
32.46000 1.211
32.48000 3.483
32.50000 5.155
32.52000 7.155
32.54000 6.770
32.56000 -0.085
32.58000 -2.015
32.60000 3.724
32.62000 3.036
32.64000 0.940
32.66000 1.634
32.68000 -0.272
32.70000 0.191
32.72000 5.156
32.74000 5.343
32.76000 2.769
32.78000 7.011
32.80000 3.742
32.82000 -1.273
32.84000 3.208
32.86000 0.785
32.88000 -0.886
32.90000 -1.079
32.92000 5.973
32.94000 7.330
32.96000 4.668
32.98000 -0.345
33.00000 2.170
33.02000 -0.060
33.04000 -3.636
33.06000 4.278
33.08000 4.061
33.10000 -0.028
33.12000 -1.499
33.14000 1.277
33.16000 1.665
33.18000 7.924
33.20000 5.911
33.22000 -0.907
33.24000 -2.637
33.26000 0.519
33.28000 1.271
33.30000 -3.323
33.32000 -0.527
33.34000 0.066
33.36000 -2.190
33.38000 -1.756
33.40000 4.369
33.42000 4.020
33.44000 -1.200
33.46000 1.550
33.48000 -0.497
33.50000 -1.520
33.52000 2.563
33.54000 3.107
33.56000 2.442
33.58000 -0.215
33.60000 2.835
33.62000 2.686
33.64000 8.933
33.66000 4.335
33.68000 2.295
33.70000 4.722
33.72000 -1.310
33.74000 -1.516
33.76000 -3.221
33.78000 4.239
33.80000 0.058
33.82000 -0.555
33.84000 4.010
33.86000 1.058
33.88000 2.302
33.90000 3.003
33.92000 5.076
33.94000 6.995
33.96000 3.626
33.98000 4.722
34.00000 3.585
34.02000 2.179
34.04000 4.105
34.06000 4.129
34.08000 4.149
34.10000 1.842
34.12000 3.894
34.14000 2.996
34.16000 -0.173
34.18000 2.703
34.20000 3.669
34.22000 3.272
34.24000 0.876
34.26000 -3.612
34.28000 4.991
34.30000 4.739
34.32000 0.318
34.34000 0.227
34.36000 2.749
34.38000 1.089
34.40000 -1.081
34.42000 0.146
34.44000 3.157
34.46000 -3.604
34.48000 -0.215
34.50000 3.131
34.52000 3.142
34.54000 2.769
34.56000 1.708
34.58000 -1.103
34.60000 2.172
34.62000 7.432
34.64000 4.209
34.66000 5.593
34.68000 0.814
34.70000 -0.198
34.72000 5.116
34.74000 1.020
34.76000 4.143
34.78000 8.845
34.80000 2.683
34.82000 -3.601
34.84000 0.572
34.86000 1.451
34.88000 0.451
34.90000 5.827
34.92000 2.564
34.94000 -2.665
34.96000 1.713
34.98000 2.629
35.00000 1.631
35.02000 1.195
35.04000 8.672
35.06000 3.296
35.08000 0.008
35.10000 4.376
35.12000 8.362
35.14000 1.285
35.16000 -2.506
35.18000 0.092
35.20000 4.726
35.22000 1.405
35.24000 -0.067
35.26000 -0.365
35.28000 0.693
35.30000 -3.593
35.32000 -0.985
35.34000 0.660
35.36000 -0.857
35.38000 -0.745
35.40000 2.892
35.42000 3.399
35.44000 7.478
35.46000 4.893
35.48000 5.019
35.50000 7.325
35.52000 2.386
35.54000 5.082
35.56000 4.504
35.58000 1.347
35.60000 -0.684
35.62000 1.983
35.64000 0.531
35.66000 0.536
35.68000 3.045
35.70000 0.493
35.72000 0.542
35.74000 6.131
35.76000 2.215
35.78000 3.606
35.80000 1.201
35.82000 -3.584
35.84000 6.558
35.86000 4.257
35.88000 5.604
35.90000 -0.146
35.92000 6.041
35.94000 7.694
35.96000 0.824
35.98000 1.660
36.00000 5.324
36.02000 6.183
36.04000 9.013
36.06000 1.346
36.08000 1.323
36.10000 7.817
36.12000 3.101
36.14000 5.563
36.16000 8.462
36.18000 6.275
36.20000 3.560
36.22000 4.269
36.24000 5.199
36.26000 8.520
36.28000 11.062
36.30000 4.885
36.32000 -0.323
36.34000 1.663
36.36000 0.315
36.38000 2.488
36.40000 4.075
36.42000 4.440
36.44000 1.482
36.46000 0.468
36.48000 2.417
36.50000 8.514
36.52000 3.287
36.54000 4.247
36.56000 7.136
36.58000 10.204
36.60000 7.599
36.62000 8.903
36.64000 6.395
36.66000 5.432
36.68000 1.390
36.70000 3.203
36.72000 5.177
36.74000 8.848
36.76000 8.443
36.78000 2.846
36.80000 5.458
36.82000 0.461
36.84000 3.683
36.86000 -2.350
36.88000 -3.595
36.90000 5.250
36.92000 7.189
36.94000 10.675
36.96000 6.210
36.98000 3.213
37.00000 6.067
37.02000 -0.814
37.04000 -1.719
37.06000 1.198
37.08000 2.861
37.10000 2.339
37.12000 2.072
37.14000 2.514
37.16000 -0.264
37.18000 -0.308
37.20000 3.604
37.22000 5.877
37.24000 -0.020
37.26000 -1.894
37.28000 0.374
37.30000 2.372
37.32000 5.550
37.34000 8.662
37.36000 3.238
37.38000 1.870
37.40000 2.450
37.42000 6.450
37.44000 2.895
37.46000 1.853
37.48000 -0.087
37.50000 1.545
37.52000 1.074
37.54000 0.792
37.56000 2.446
37.58000 3.599
37.60000 3.462
37.62000 6.521
37.64000 4.558
37.66000 7.084
37.68000 4.899
37.70000 4.527
37.72000 7.258
37.74000 8.207
37.76000 8.867
37.78000 13.420
37.80000 13.585
37.82000 10.844
37.84000 12.987
37.86000 11.872
37.88000 12.292
37.90000 8.947
37.92000 3.337
37.94000 4.896
37.96000 11.473
37.98000 12.998
38.00000 8.960
38.02000 7.473
38.04000 13.053
38.06000 12.314
38.08000 13.426
38.10000 12.931
38.12000 14.432
38.14000 19.241
38.16000 18.251
38.18000 14.647
38.20000 20.478
38.22000 16.838
38.24000 14.012
38.26000 15.788
38.28000 15.781
38.30000 18.321
38.32000 16.158
38.34000 17.405
38.36000 22.926
38.38000 25.151
38.40000 26.151
38.42000 22.148
38.44000 18.076
38.46000 20.878
38.48000 24.097
38.50000 24.131
38.52000 25.370
38.54000 23.761
38.56000 22.479
38.58000 23.768
38.60000 21.711
38.62000 19.442
38.64000 24.197
38.66000 25.119
38.68000 24.950
38.70000 29.482
38.72000 30.834
38.74000 34.576
38.76000 32.896
38.78000 35.335
38.80000 41.474
38.82000 35.323
38.84000 39.647
38.86000 38.251
38.88000 40.806
38.90000 42.440
38.92000 45.073
38.94000 41.676
38.96000 39.511
38.98000 42.496
39.00000 45.972
39.02000 48.717
39.04000 48.068
39.06000 55.540
39.08000 55.538
39.10000 52.884
39.12000 59.767
39.14000 62.219
39.16000 68.427
39.18000 70.795
39.20000 77.089
39.22000 74.665
39.24000 78.167
39.26000 81.453
39.28000 83.777
39.30000 86.503
39.32000 89.121
39.34000 97.478
39.36000 102.382
39.38000 101.172
39.40000 106.675
39.42000 111.848
39.44000 111.226
39.46000 118.741
39.48000 130.356
39.50000 132.052
39.52000 137.453
39.54000 143.402
39.56000 154.017
39.58000 156.679
39.60000 165.203
39.62000 179.462
39.64000 188.970
39.66000 190.296
39.68000 201.562
39.70000 214.667
39.72000 225.285
39.74000 235.941
39.76000 246.845
39.78000 252.008
39.80000 270.033
39.82000 278.499
39.84000 285.920
39.86000 300.502
39.88000 321.217
39.90000 336.548
39.92000 350.447
39.94000 375.170
39.96000 385.284
39.98000 398.745
40.00000 420.272
40.02000 442.192
40.04000 448.729
40.06000 473.833
40.08000 500.557
40.10000 520.810
40.12000 533.650
40.14000 558.065
40.16000 571.418
40.18000 595.399
40.20000 617.010
40.22000 638.152
40.24000 649.185
40.26000 670.500
40.28000 681.510
40.30000 702.633
40.32000 709.144
40.34000 718.714
40.36000 732.220
40.38000 730.250
40.40000 747.959
40.42000 759.461
40.44000 759.070
40.46000 759.904
40.48000 756.744
40.50000 749.086
40.52000 737.111
40.54000 726.419
40.56000 718.487
40.58000 719.517
40.60000 699.527
40.62000 684.402
40.64000 667.912
40.66000 644.359
40.68000 631.126
40.70000 619.418
40.72000 592.309
40.74000 568.331
40.76000 555.875
40.78000 546.075
40.80000 527.556
40.82000 492.193
40.84000 458.377
40.86000 446.575
40.88000 428.448
40.90000 413.281
40.92000 386.868
40.94000 371.874
40.96000 350.978
40.98000 331.026
41.00000 307.383
41.02000 291.220
41.04000 278.821
41.06000 268.543
41.08000 260.090
41.10000 242.133
41.12000 229.952
41.14000 213.794
41.16000 199.574
41.18000 195.024
41.20000 186.651
41.22000 177.101
41.24000 170.740
41.26000 158.620
41.28000 146.545
41.30000 140.156
41.32000 136.191
41.34000 130.163
41.36000 120.522
41.38000 115.337
41.40000 105.575
41.42000 103.466
41.44000 93.944
41.46000 85.589
41.48000 83.674
41.50000 80.554
41.52000 75.674
41.54000 70.767
41.56000 65.220
41.58000 65.272
41.60000 59.481
41.62000 61.700
41.64000 58.905
41.66000 54.973
41.68000 50.248
41.70000 46.122
41.72000 43.508
41.74000 44.316
41.76000 42.834
41.78000 40.099
41.80000 35.431
41.82000 34.253
41.84000 31.282
41.86000 31.956
41.88000 28.945
41.90000 29.329
41.92000 28.103
41.94000 22.808
41.96000 23.003
41.98000 23.625
42.00000 19.228
42.02000 20.186
42.04000 22.309
42.06000 17.952
42.08000 15.948
42.10000 11.450
42.12000 12.353
42.14000 15.471
42.16000 12.568
42.18000 13.606
42.20000 14.539
42.22000 18.289
42.24000 11.539
42.26000 10.073
42.28000 10.915
42.30000 13.343
42.32000 11.427
42.34000 11.773
42.36000 11.081
42.38000 7.599
42.40000 6.146
42.42000 8.196
42.44000 6.574
42.46000 11.541
42.48000 9.274
42.50000 9.806
42.52000 7.478
42.54000 8.447
42.56000 4.404
42.58000 1.573
42.60000 -0.203
42.62000 3.688
42.64000 5.793
42.66000 5.624
42.68000 1.241
42.70000 1.669
42.72000 2.967
42.74000 3.590
42.76000 -2.789
42.78000 -2.043
42.80000 5.131
42.82000 1.715
42.84000 2.684
42.86000 -0.439
42.88000 -0.549
42.90000 -2.222
42.92000 5.050
42.94000 6.096
42.96000 -0.013
42.98000 1.152
43.00000 1.277
43.02000 3.434
43.04000 2.793
43.06000 6.567
43.08000 3.865
43.10000 1.294
43.12000 -0.416
43.14000 -0.431
43.16000 4.182
43.18000 1.974
43.20000 -2.441
43.22000 3.080
43.24000 2.252
43.26000 3.362
43.28000 5.950
43.30000 3.311
43.32000 4.005
43.34000 4.639
43.36000 0.417
43.38000 0.187
43.40000 -0.852
43.42000 -3.602
43.44000 -3.111
43.46000 0.757
43.48000 0.310
43.50000 1.832
43.52000 1.933
43.54000 -3.115
43.56000 -3.052
43.58000 2.099
43.60000 0.955
43.62000 -2.383
43.64000 4.957
43.66000 1.662
43.68000 -0.322
43.70000 7.395
43.72000 9.218
43.74000 0.033
43.76000 -1.948
43.78000 -3.579
43.80000 0.043
43.82000 -1.273
43.84000 -3.576
43.86000 -0.271
43.88000 4.624
43.90000 0.899
43.92000 -2.791
43.94000 -2.529
43.96000 1.393
43.98000 -0.051
44.00000 1.790
44.02000 5.473
44.04000 5.777
44.06000 8.913
44.08000 3.299
44.10000 3.808
44.12000 -2.403
44.14000 -3.559
44.16000 -0.067
44.18000 3.297
44.20000 -1.342
44.22000 -2.275
44.24000 -1.707
44.26000 -2.100
44.28000 1.469
44.30000 5.275
44.32000 0.401
44.34000 1.164
44.36000 2.910
44.38000 0.189
44.40000 0.554
44.42000 -1.610
44.44000 -1.411
44.46000 -1.290
44.48000 -0.613
44.50000 -3.524
44.52000 0.178
44.54000 1.840
44.56000 -0.275
44.58000 3.365
44.60000 1.984
44.62000 1.184
44.64000 6.544
44.66000 -1.245
44.68000 -3.570
44.70000 -3.487
44.72000 -0.508
44.74000 -1.519
44.76000 5.865
44.78000 7.375
44.80000 -0.044
44.82000 1.261
44.84000 4.092
44.86000 1.979
44.88000 -0.430
44.90000 2.014
44.92000 -1.914
44.94000 0.591
44.96000 3.116
44.98000 7.165
45.00000 6.020
45.02000 6.607
45.04000 7.817
45.06000 7.707
45.08000 3.382
45.10000 5.810
45.12000 5.023
45.14000 6.293
45.16000 3.326
45.18000 3.961
45.20000 4.070
45.22000 8.790
45.24000 8.473
45.26000 3.246
45.28000 3.848
45.30000 3.624
45.32000 5.548
45.34000 2.303
45.36000 7.646
45.38000 9.411
45.40000 8.369
45.42000 9.230
45.44000 5.380
45.46000 7.188
45.48000 10.144
45.50000 10.099
45.52000 8.594
45.54000 11.711
45.56000 12.649
45.58000 15.037
45.60000 15.969
45.62000 17.875
45.64000 16.507
45.66000 13.161
45.68000 15.423
45.70000 15.887
45.72000 22.548
45.74000 24.556
45.76000 22.046
45.78000 21.593
45.80000 17.109
45.82000 17.417
45.84000 17.438
45.86000 24.019
45.88000 22.881
45.90000 21.218
45.92000 20.312
45.94000 23.414
45.96000 27.237
45.98000 33.575
46.00000 31.887
46.02000 34.198
46.04000 35.786
46.06000 33.201
46.08000 38.411
46.10000 35.022
46.12000 37.788
46.14000 32.383
46.16000 33.856
46.18000 35.051
46.20000 39.024
46.22000 43.745
46.24000 44.395
46.26000 45.403
46.28000 48.901
46.30000 45.318
46.32000 48.797
46.34000 47.319
46.36000 48.560
46.38000 52.745
46.40000 55.713
46.42000 53.164
46.44000 53.455
46.46000 50.555
46.48000 52.394
46.50000 54.461
46.52000 59.093
46.54000 60.792
46.56000 59.069
46.58000 67.235
46.60000 68.186
46.62000 70.650
46.64000 72.149
46.66000 70.160
46.68000 68.474
46.70000 72.607
46.72000 70.546
46.74000 66.577
46.76000 65.175
46.78000 63.537
46.80000 74.990
46.82000 78.454
46.84000 82.570
46.86000 81.497
46.88000 82.288
46.90000 81.660
46.92000 88.812
46.94000 80.260
46.96000 81.660
46.98000 83.162
47.00000 79.018
47.02000 79.751
47.04000 94.087
47.06000 92.653
47.08000 84.485
47.10000 78.735
47.12000 77.586
47.14000 80.783
47.16000 80.260
47.18000 84.659
47.20000 83.221
47.22000 78.408
47.24000 74.023
47.26000 79.985
47.28000 74.931
47.30000 68.049
47.32000 76.050
47.34000 74.625
47.36000 77.662
47.38000 70.351
47.40000 69.147
47.42000 70.380
47.44000 65.220
47.46000 65.672
47.48000 68.140
47.50000 63.690
47.52000 62.487
47.54000 59.925
47.56000 53.117
47.58000 53.311
47.60000 53.334
47.62000 50.839
47.64000 53.191
47.66000 46.694
47.68000 43.160
47.70000 46.407
47.72000 47.236
47.74000 51.019
47.76000 38.364
47.78000 45.012
47.80000 43.678
47.82000 39.366
47.84000 32.942
47.86000 25.677
47.88000 32.079
47.90000 31.543
47.92000 26.273
47.94000 25.703
47.96000 28.697
47.98000 25.959
48.00000 22.448
48.02000 22.133
48.04000 24.435
48.06000 26.797
48.08000 27.532
48.10000 24.368
48.12000 14.405
48.14000 11.330
48.16000 10.946
48.18000 14.804
48.20000 10.224
48.22000 10.059
48.24000 4.344
48.26000 7.273
48.28000 6.342
48.30000 2.759
48.32000 7.001
48.34000 4.218
48.36000 5.609
48.38000 11.097
48.40000 13.099
48.42000 8.290
48.44000 3.685
48.46000 5.442
48.48000 4.240
48.50000 3.239
48.52000 7.713
48.54000 6.145
48.56000 6.927
48.58000 5.224
48.60000 7.889
48.62000 5.962
48.64000 2.722
48.66000 2.355
48.68000 2.809
48.70000 7.832
48.72000 -0.572
48.74000 -3.287
48.76000 -2.938
48.78000 5.527
48.80000 6.768
48.82000 5.031
48.84000 7.031
48.86000 8.185
48.88000 5.492
48.90000 1.898
48.92000 5.118
48.94000 9.743
48.96000 3.084
48.98000 3.792
49.00000 4.790
49.02000 3.918
49.04000 3.946
49.06000 5.003
49.08000 0.605
49.10000 3.485
49.12000 6.634
49.14000 4.447
49.16000 1.382
49.18000 -0.198
49.20000 0.886
49.22000 -0.437
49.24000 3.185
49.26000 7.561
49.28000 3.652
49.30000 6.903
49.32000 -2.620
49.34000 -2.856
49.36000 -0.225
49.38000 4.004
49.40000 -1.419
49.42000 -0.540
49.44000 4.519
49.46000 -0.877
49.48000 2.018
49.50000 2.278
49.52000 -1.361
49.54000 4.449
49.56000 6.524
49.58000 11.136
49.60000 6.550
49.62000 -0.297
49.64000 -0.767
49.66000 -3.142
49.68000 0.352
49.70000 2.746
49.72000 1.922
49.74000 2.243
49.76000 7.674
49.78000 7.678
49.80000 2.858
49.82000 3.358
49.84000 1.169
49.86000 3.669
49.88000 3.531
49.90000 -0.975
49.92000 0.070
49.94000 0.461
49.96000 0.659
49.98000 2.730
50.00000 0.083
50.02000 -1.383
50.04000 2.701
50.06000 3.405
50.08000 -3.092
50.10000 -0.614
50.12000 4.920
50.14000 1.628
50.16000 2.654
50.18000 8.416
50.20000 11.774
50.22000 11.624
50.24000 6.323
50.26000 7.263
50.28000 3.078
50.30000 3.092
50.32000 2.161
50.34000 -3.065
50.36000 5.170
50.38000 5.340
50.40000 1.615
50.42000 2.966
50.44000 7.487
50.46000 2.778
50.48000 3.254
50.50000 6.722
50.52000 0.082
50.54000 1.169
50.56000 0.420
50.58000 0.960
50.60000 -1.347
50.62000 -0.376
50.64000 3.506
50.66000 2.712
50.68000 0.732
50.70000 2.952
50.72000 3.231
50.74000 10.489
50.76000 2.576
50.78000 -1.377
50.80000 -3.034
50.82000 0.603
50.84000 1.201
50.86000 4.557
50.88000 2.940
50.90000 6.490
50.92000 7.095
50.94000 6.181
50.96000 5.465
50.98000 5.994
51.00000 8.292
51.02000 6.820
51.04000 4.346
51.06000 7.800
51.08000 8.996
51.10000 4.657
51.12000 3.286
51.14000 3.700
51.16000 4.229
51.18000 1.379
51.20000 3.288
51.22000 3.810
51.24000 8.192
51.26000 7.046
51.28000 5.341
51.30000 0.524
51.32000 2.981
51.34000 8.345
51.36000 6.338
51.38000 5.269
51.40000 -1.089
51.42000 -1.942
51.44000 1.662
51.46000 7.360
51.48000 9.589
51.50000 8.412
51.52000 5.724
51.54000 2.099
51.56000 2.979
51.58000 2.179
51.60000 4.186
51.62000 0.573
51.64000 -1.426
51.66000 5.819
51.68000 -0.718
51.70000 -0.999
51.72000 4.277
51.74000 4.524
51.76000 0.719
51.78000 0.931
51.80000 4.321
51.82000 7.713
51.84000 7.129
51.86000 4.541
51.88000 6.706
51.90000 3.346
51.92000 2.506
51.94000 1.356
51.96000 3.594
51.98000 3.614
52.00000 2.524
52.02000 6.000
52.04000 5.008
52.06000 4.114
52.08000 -1.573
52.10000 6.892
52.12000 5.325
52.14000 3.207
52.16000 5.234
52.18000 6.046
52.20000 7.372
52.22000 4.654
52.24000 3.825
52.26000 3.707
52.28000 6.879
52.30000 6.858
52.32000 5.301
52.34000 4.636
52.36000 2.328
52.38000 2.556
52.40000 -0.571
52.42000 2.805
52.44000 2.162
52.46000 -2.460
52.48000 -3.013
52.50000 2.300
52.52000 2.932
52.54000 0.663
52.56000 1.829
52.58000 3.544
52.60000 5.244
52.62000 7.279
52.64000 4.984
52.66000 4.333
52.68000 3.081
52.70000 1.133
52.72000 0.938
52.74000 0.177
52.76000 0.852
52.78000 3.796
52.80000 5.645
52.82000 -2.451
52.84000 -0.696
52.86000 -0.270
52.88000 3.465
52.90000 3.531
52.92000 3.017
52.94000 4.936
52.96000 4.751
52.98000 -1.008
53.00000 0.287
53.02000 4.363
53.04000 6.557
53.06000 2.816
53.08000 0.388
53.10000 1.803
53.12000 5.273
53.14000 6.043
53.16000 4.554
53.18000 -0.603
53.20000 3.038
53.22000 9.055
53.24000 7.612
53.26000 0.407
53.28000 2.125
53.30000 2.115
53.32000 -1.055
53.34000 -2.988
53.36000 -2.272
53.38000 -0.093
53.40000 4.556
53.42000 2.011
53.44000 3.814
53.46000 -2.285
53.48000 -1.476
53.50000 -0.830
53.52000 0.631
53.54000 6.567
53.56000 6.772
53.58000 -0.490
53.60000 -2.977
53.62000 -2.945
53.64000 -1.012
53.66000 2.326
53.68000 2.302
53.70000 -2.770
53.72000 2.922
53.74000 -0.152
53.76000 -2.540
53.78000 3.348
53.80000 3.617
53.82000 3.022
53.84000 0.385
53.86000 3.837
53.88000 2.526
53.90000 -2.973
53.92000 4.344
53.94000 1.145
53.96000 3.245
53.98000 3.437
54.00000 -0.603
54.02000 -0.293
54.04000 4.068
54.06000 3.514
54.08000 3.185
54.10000 0.201
54.12000 -0.982
54.14000 0.774
54.16000 -0.260
54.18000 1.700
54.20000 4.201
54.22000 -2.964
54.24000 2.864
54.26000 3.603
54.28000 2.913
54.30000 1.625
54.32000 5.649
54.34000 4.797
54.36000 6.353
54.38000 5.497
54.40000 1.218
54.42000 -2.958
54.44000 1.787
54.46000 -2.666
54.48000 -2.957
54.50000 -0.332
54.52000 0.986
54.54000 5.684
54.56000 -1.244
54.58000 -0.001
54.60000 1.344
54.62000 4.841
54.64000 5.036
54.66000 2.860
54.68000 1.369
54.70000 1.906
54.72000 3.898
54.74000 4.142
54.76000 6.104
54.78000 4.937
54.80000 5.943
54.82000 1.975
54.84000 -0.602
54.86000 3.681
54.88000 3.543
54.90000 4.599
54.92000 2.618
54.94000 -0.545
54.96000 0.872
54.98000 -2.000
55.00000 2.455
55.02000 9.992
55.04000 6.157
55.06000 3.759
55.08000 -0.741
55.10000 4.246
55.12000 6.810
55.14000 5.165
55.16000 1.970
55.18000 2.042
55.20000 -1.490
55.22000 0.693
55.24000 -0.610
55.26000 7.377
55.28000 5.412
55.30000 0.685
55.32000 3.080
55.34000 4.167
55.36000 1.274
55.38000 2.108
55.40000 0.975
55.42000 4.062
55.44000 2.217
55.46000 -2.166
55.48000 -0.701
55.50000 6.037
55.52000 5.564
55.54000 -2.612
55.56000 2.412
55.58000 4.921
55.60000 11.461
55.62000 5.646
55.64000 -0.783
55.66000 -1.481
55.68000 -2.032
55.70000 -1.844
55.72000 -2.908
55.74000 0.816
55.76000 1.644
55.78000 5.671
55.80000 8.028
55.82000 4.425
55.84000 3.710
55.86000 -2.007
55.88000 1.245
55.90000 3.963
55.92000 4.028
55.94000 4.480
55.96000 5.730
55.98000 5.361
56.00000 8.930
56.02000 7.786
56.04000 0.116
56.06000 -1.476
56.08000 1.606
56.10000 3.936
56.12000 1.616
56.14000 3.611
56.16000 3.978
56.18000 3.282
56.20000 -2.136
56.22000 3.028
56.24000 2.779
56.26000 -0.028
56.28000 -2.823
56.30000 4.615
56.32000 2.316
56.34000 1.681
56.36000 -0.860
56.38000 0.565
56.40000 0.567
56.42000 2.439
56.44000 2.329
56.46000 3.434
56.48000 5.752
56.50000 3.290
56.52000 3.826
56.54000 4.906
56.56000 4.526
56.58000 4.661
56.60000 6.815
56.62000 3.393
56.64000 0.378
56.66000 0.976
56.68000 4.725
56.70000 0.295
56.72000 2.875
56.74000 3.264
56.76000 3.571
56.78000 1.599
56.80000 -2.857
56.82000 2.371
56.84000 11.949
56.86000 7.307
56.88000 5.488
56.90000 8.301
56.92000 6.150
56.94000 2.680
56.96000 8.191
56.98000 2.715
57.00000 -0.292
57.02000 1.033
57.04000 1.345
57.06000 4.011
57.08000 3.785
57.10000 6.295
57.12000 3.278
57.14000 0.382
57.16000 1.194
57.18000 -2.861
57.20000 -2.695
57.22000 0.162
57.24000 1.116
57.26000 0.025
57.28000 0.228
57.30000 3.144
57.32000 2.969
57.34000 0.056
57.36000 2.770
57.38000 4.131
57.40000 3.013
57.42000 1.518
57.44000 -1.836
57.46000 -0.034
57.48000 5.080
57.50000 2.813
57.52000 1.129
57.54000 1.553
57.56000 0.708
57.58000 -2.226
57.60000 1.643
57.62000 4.750
57.64000 5.285
57.66000 5.847
57.68000 1.814
57.70000 1.009
57.72000 0.035
57.74000 4.710
57.76000 5.836
57.78000 2.174
57.80000 -0.025
57.82000 2.826
57.84000 1.657
57.86000 -1.517
57.88000 1.136
57.90000 3.319
57.92000 4.911
57.94000 8.504
57.96000 2.863
57.98000 5.448
58.00000 8.324
58.02000 4.042
58.04000 3.775
58.06000 -0.755
58.08000 -2.844
58.10000 0.143
58.12000 2.986
58.14000 2.445
58.16000 5.272
58.18000 1.441
58.20000 0.860
58.22000 2.130
58.24000 3.067
58.26000 -0.211
58.28000 -0.387
58.30000 -0.643
58.32000 -1.475
58.34000 2.818
58.36000 6.235
58.38000 2.605
58.40000 -0.511
58.42000 -0.637
58.44000 1.214
58.46000 2.629
58.48000 4.975
58.50000 5.019
58.52000 -0.447
58.54000 -2.051
58.56000 2.730
58.58000 5.693
58.60000 8.939
58.62000 6.164
58.64000 2.673
58.66000 2.419
58.68000 -0.477
58.70000 1.769
58.72000 3.137
58.74000 5.471
58.76000 5.931
58.78000 3.773
58.80000 -0.401
58.82000 1.430
58.84000 5.691
58.86000 3.904
58.88000 2.434
58.90000 5.031
58.92000 8.453
58.94000 7.845
58.96000 -2.789
58.98000 -0.400
59.00000 3.695
59.02000 3.789
59.04000 -0.851
59.06000 2.404
59.08000 7.290
59.10000 2.923
59.12000 1.930
59.14000 3.322
59.16000 3.129
59.18000 2.401
59.20000 3.832
59.22000 2.684
59.24000 -0.638
59.26000 2.394
59.28000 0.689
59.30000 6.465
59.32000 5.654
59.34000 2.238
59.36000 1.346
59.38000 -1.145
59.40000 5.023
59.42000 -1.522
59.44000 0.342
59.46000 2.827
59.48000 4.527
59.50000 4.325
59.52000 5.241
59.54000 -0.108
59.56000 4.514
59.58000 5.764
59.60000 4.443
59.62000 3.436
59.64000 -2.776
59.66000 -1.098
59.68000 6.668
59.70000 6.173
59.72000 5.998
59.74000 6.498
59.76000 10.074
59.78000 4.476
59.80000 1.492
59.82000 1.256
59.84000 3.597
59.86000 2.551
59.88000 4.190
59.90000 3.058
59.92000 -0.559
59.94000 4.151
59.96000 11.014
59.98000 5.776
60.00000 5.073
60.02000 3.990
60.04000 4.218
60.06000 6.317
60.08000 9.122
60.10000 7.429
60.12000 1.364
60.14000 4.165
60.16000 0.710
60.18000 -2.749
60.20000 -1.144
60.22000 4.528
60.24000 0.610
60.26000 -2.748
60.28000 1.540
60.30000 4.240
60.32000 4.275
60.34000 -0.741
60.36000 -0.015
60.38000 -1.590
60.40000 2.715
60.42000 -0.156
60.44000 5.415
60.46000 5.307
60.48000 5.992
60.50000 3.386
60.52000 2.930
60.54000 2.220
60.56000 0.198
60.58000 1.516
60.60000 0.591
60.62000 -2.246
60.64000 -0.113
60.66000 0.962
60.68000 -0.116
60.70000 2.890
60.72000 -1.295
60.74000 1.695
60.76000 2.684
60.78000 4.055
60.80000 2.587
60.82000 -1.330
60.84000 -2.421
60.86000 -2.741
60.88000 2.826
60.90000 4.665
60.92000 4.177
60.94000 6.363
60.96000 2.433
60.98000 5.132
61.00000 5.069
61.02000 1.835
61.04000 1.289
61.06000 4.439
61.08000 5.224
61.10000 3.338
61.12000 0.547
61.14000 4.528
61.16000 3.152
61.18000 4.506
61.20000 4.971
61.22000 4.160
61.24000 0.361
61.26000 6.500
61.28000 0.892
61.30000 3.778
61.32000 1.569
61.34000 0.550
61.36000 3.333
61.38000 1.162
61.40000 3.168
61.42000 3.885
61.44000 -1.497
61.46000 1.948
61.48000 3.336
61.50000 4.379
61.52000 2.406
61.54000 -0.603
61.56000 3.576
61.58000 4.627
61.60000 3.082
61.62000 1.079
61.64000 -1.562
61.66000 -2.616
61.68000 0.345
61.70000 2.428
61.72000 1.810
61.74000 1.386
61.76000 -1.575
61.78000 1.247
61.80000 -0.109
61.82000 -1.723
61.84000 1.466
61.86000 -1.499
61.88000 -2.713
61.90000 2.474
61.92000 2.734
61.94000 4.158
61.96000 2.194
61.98000 -2.707
62.00000 -2.036
62.02000 -0.338
62.04000 0.113
62.06000 1.461
62.08000 -1.645
62.10000 3.744
62.12000 4.330
62.14000 0.404
62.16000 1.450
62.18000 -1.437
62.20000 -2.395
62.22000 -1.040
62.24000 5.793
62.26000 3.740
62.28000 4.202
62.30000 2.176
62.32000 1.891
62.34000 5.939
62.36000 2.863
62.38000 0.511
62.40000 7.624
62.42000 6.470
62.44000 2.829
62.46000 3.166
62.48000 3.704
62.50000 -2.673
62.52000 -2.655
62.54000 4.084
62.56000 4.440
62.58000 2.238
62.60000 2.388
62.62000 3.234
62.64000 2.672
62.66000 1.238
62.68000 3.854
62.70000 5.900
62.72000 2.811
62.74000 0.138
62.76000 -0.419
62.78000 -0.962
62.80000 2.076
62.82000 2.488
62.84000 1.925
62.86000 5.229
62.88000 4.377
62.90000 3.870
62.92000 -0.733
62.94000 3.165
62.96000 4.088
62.98000 4.409
63.00000 -0.769
63.02000 4.878
63.04000 5.891
63.06000 6.618
63.08000 1.344
63.10000 3.149
63.12000 6.468
63.14000 1.151
63.16000 -0.300
63.18000 0.931
63.20000 2.088
63.22000 -0.305
63.24000 -0.047
63.26000 1.952
63.28000 5.672
63.30000 5.662
63.32000 0.509
63.34000 -1.980
63.36000 2.065
63.38000 3.479
63.40000 2.303
63.42000 3.281
63.44000 0.289
63.46000 -1.498
63.48000 2.480
63.50000 -0.332
63.52000 -2.227
63.54000 -1.704
63.56000 -2.712
63.58000 -1.369
63.60000 5.143
63.62000 2.022
63.64000 -0.366
63.66000 -2.049
63.68000 -2.467
63.70000 -0.899
63.72000 1.083
63.74000 -1.768
63.76000 1.590
63.78000 2.187
63.80000 2.110
63.82000 -0.467
63.84000 2.274
63.86000 2.556
63.88000 1.506
63.90000 -2.399
63.92000 -1.711
63.94000 0.598
63.96000 2.464
63.98000 1.039
64.00000 2.173
64.02000 2.544
64.04000 -0.118
64.06000 0.516
64.08000 3.457
64.10000 3.101
64.12000 1.947
64.14000 0.964
64.16000 0.130
64.18000 2.393
64.20000 0.000
64.22000 1.198
64.24000 0.720
64.26000 2.450
64.28000 -0.578
64.30000 -2.196
64.32000 -0.746
64.34000 2.164
64.36000 1.442
64.38000 2.827
64.40000 3.892
64.42000 4.718
64.44000 2.754
64.46000 1.049
64.48000 -2.559
64.50000 -2.704
64.52000 4.811
64.54000 3.731
64.56000 -0.610
64.58000 0.241
64.60000 -1.968
64.62000 0.275
64.64000 2.751
64.66000 2.004
64.68000 -2.702
64.70000 -1.153
64.72000 3.033
64.74000 0.245
64.76000 2.894
64.78000 3.550
64.80000 2.815
64.82000 1.090
64.84000 6.699
64.86000 6.412
64.88000 1.030
64.90000 1.519
64.92000 3.684
64.94000 2.497
64.96000 2.056
64.98000 6.680
65.00000 3.220
65.02000 2.675
65.04000 1.705
65.06000 -0.225
65.08000 0.434
65.10000 1.597
65.12000 1.603
65.14000 4.164
65.16000 1.421
65.18000 1.727
65.20000 2.976
65.22000 5.160
65.24000 2.521
65.26000 0.396
65.28000 -0.583
65.30000 2.056
65.32000 4.224
65.34000 3.231
65.36000 3.381
65.38000 1.981
65.40000 -0.614
65.42000 2.527
65.44000 0.873
65.46000 1.975
65.48000 3.327
65.50000 -0.252
65.52000 1.283
65.54000 -2.692
65.56000 2.047
65.58000 3.757
65.60000 1.661
65.62000 -0.209
65.64000 -0.966
65.66000 3.212
65.68000 1.989
65.70000 1.388
65.72000 0.973
65.74000 6.439
65.76000 10.483
65.78000 5.865
65.80000 2.524
65.82000 1.253
65.84000 3.162
65.86000 2.453
65.88000 3.222
65.90000 9.790
65.92000 6.430
65.94000 1.846
65.96000 0.940
65.98000 2.241
66.00000 4.800
66.02000 1.660
66.04000 3.026
66.06000 3.196
66.08000 2.322
66.10000 3.918
66.12000 0.749
66.14000 0.539
66.16000 4.706
66.18000 4.331
66.20000 3.395
66.22000 3.477
66.24000 -2.688
66.26000 5.267
66.28000 6.382
66.30000 1.097
66.32000 5.920
66.34000 5.507
66.36000 9.593
66.38000 1.249
66.40000 0.520
66.42000 -0.023
66.44000 3.324
66.46000 1.458
66.48000 2.501
66.50000 5.925
66.52000 0.679
66.54000 0.867
66.56000 2.193
66.58000 5.896
66.60000 3.870
66.62000 5.961
66.64000 3.369
66.66000 3.507
66.68000 2.376
66.70000 6.170
66.72000 4.543
66.74000 4.391
66.76000 6.148
66.78000 2.558
66.80000 2.189
66.82000 3.182
66.84000 7.929
66.86000 8.948
66.88000 4.209
66.90000 1.957
66.92000 -1.943
66.94000 0.282
66.96000 2.736
66.98000 5.613
67.00000 2.984
67.02000 3.124
67.04000 2.718
67.06000 4.208
67.08000 2.403
67.10000 4.769
67.12000 2.576
67.14000 3.487
67.16000 0.972
67.18000 0.685
67.20000 1.246
67.22000 4.034
67.24000 3.012
67.26000 3.778
67.28000 5.364
67.30000 9.909
67.32000 8.873
67.34000 5.966
67.36000 4.699
67.38000 4.759
67.40000 4.000
67.42000 5.515
67.44000 6.723
67.46000 4.930
67.48000 3.545
67.50000 8.929
67.52000 5.049
67.54000 2.716
67.56000 6.599
67.58000 7.990
67.60000 9.053
67.62000 6.977
67.64000 2.920
67.66000 3.000
67.68000 6.295
67.70000 6.899
67.72000 8.084
67.74000 4.148
67.76000 8.052
67.78000 10.820
67.80000 8.611
67.82000 12.563
67.84000 11.539
67.86000 10.488
67.88000 14.149
67.90000 9.904
67.92000 13.293
67.94000 13.709
67.96000 15.561
67.98000 12.606
68.00000 9.867
68.02000 14.050
68.04000 15.943
68.06000 12.889
68.08000 11.146
68.10000 14.074
68.12000 14.288
68.14000 21.828
68.16000 19.520
68.18000 18.527
68.20000 17.805
68.22000 21.413
68.24000 24.222
68.26000 23.143
68.28000 23.486
68.30000 23.125
68.32000 20.789
68.34000 27.724
68.36000 22.783
68.38000 22.582
68.40000 26.174
68.42000 25.156
68.44000 24.374
68.46000 27.340
68.48000 25.683
68.50000 28.638
68.52000 27.948
68.54000 28.300
68.56000 27.657
68.58000 25.770
68.60000 23.737
68.62000 29.540
68.64000 30.488
68.66000 26.423
68.68000 25.054
68.70000 29.565
68.72000 28.058
68.74000 27.462
68.76000 33.305
68.78000 30.351
68.80000 27.283
68.82000 31.573
68.84000 33.094
68.86000 34.131
68.88000 31.181
68.90000 27.418
68.92000 32.338
68.94000 32.437
68.96000 29.089
68.98000 29.474
69.00000 27.474
69.02000 25.014
69.04000 28.095
69.06000 31.761
69.08000 29.957
69.10000 30.203
69.12000 26.165
69.14000 24.970
69.16000 27.674
69.18000 24.069
69.20000 22.443
69.22000 24.769
69.24000 25.343
69.26000 21.214
69.28000 21.730
69.30000 15.178
69.32000 12.711
69.34000 14.650
69.36000 15.558
69.38000 18.118
69.40000 19.242
69.42000 16.553
69.44000 18.878
69.46000 25.203
69.48000 19.220
69.50000 12.460
69.52000 13.280
69.54000 11.818
69.56000 10.515
69.58000 12.098
69.60000 13.729
69.62000 13.231
69.64000 14.993
69.66000 11.294
69.68000 12.077
69.70000 9.522
69.72000 6.919
69.74000 7.771
69.76000 2.688
69.78000 6.503
69.80000 9.929
69.82000 11.854
69.84000 9.511
69.86000 5.746
69.88000 6.771
69.90000 6.990
69.92000 4.273
69.94000 3.076
69.96000 2.250
69.98000 2.759
70.00000 2.794
70.02000 5.253
70.04000 5.515
70.06000 6.911
70.08000 6.618
70.10000 6.966
70.12000 4.710
70.14000 3.490
70.16000 2.040
70.18000 0.696
70.20000 0.475
70.22000 -1.254
70.24000 1.709
70.26000 0.787
70.28000 1.683
70.30000 1.671
70.32000 3.048
70.34000 -0.119
70.36000 -2.678
70.38000 -1.528
70.40000 -0.417
70.42000 1.872
70.44000 2.037
70.46000 3.993
70.48000 3.656
70.50000 3.755
70.52000 0.532
70.54000 1.245
70.56000 0.349
70.58000 2.770
70.60000 1.741
70.62000 2.209
70.64000 -1.291
70.66000 1.771
70.68000 3.966
70.70000 2.073
70.72000 2.607
70.74000 3.157
70.76000 3.739
70.78000 4.156
70.80000 4.465
70.82000 4.358
70.84000 4.516
70.86000 0.449
70.88000 2.449
70.90000 3.179
70.92000 1.682
70.94000 3.048
70.96000 1.413
70.98000 -2.602
71.00000 0.498
71.02000 2.457
71.04000 -1.922
71.06000 -0.452
71.08000 1.880
71.10000 5.062
71.12000 6.667
71.14000 5.391
71.16000 4.950
71.18000 4.228
71.20000 2.783
71.22000 1.928
71.24000 5.526
71.26000 4.946
71.28000 3.745
71.30000 0.942
71.32000 2.243
71.34000 0.541
71.36000 6.026
71.38000 2.297
71.40000 4.694
71.42000 4.212
71.44000 1.392
71.46000 1.754
71.48000 0.287
71.50000 -2.550
71.52000 3.249
71.54000 4.583
71.56000 6.722
71.58000 5.766
71.60000 5.275
71.62000 7.150
71.64000 9.788
71.66000 2.387
71.68000 1.065
71.70000 1.828
71.72000 -0.155
71.74000 -0.694
71.76000 4.276
71.78000 6.602
71.80000 3.377
71.82000 2.445
71.84000 5.153
71.86000 0.559
71.88000 1.926
71.90000 6.862
71.92000 8.966
71.94000 5.349
71.96000 4.448
71.98000 4.018
72.00000 4.579
72.02000 9.184
72.04000 3.805
72.06000 9.732
72.08000 6.007
72.10000 -0.074
72.12000 3.000
72.14000 1.249
72.16000 0.773
72.18000 0.794
72.20000 1.683
72.22000 1.913
72.24000 -0.344
72.26000 1.952
72.28000 2.498
72.30000 5.835
72.32000 2.765
72.34000 1.021
72.36000 2.106
72.38000 2.237
72.40000 0.815
72.42000 -2.478
72.44000 4.906
72.46000 8.464
72.48000 8.461
72.50000 3.969
72.52000 3.158
72.54000 4.359
72.56000 1.608
72.58000 3.532
72.60000 4.532
72.62000 5.850
72.64000 5.243
72.66000 -1.411
72.68000 0.435
72.70000 7.469
72.72000 2.100
72.74000 1.723
72.76000 0.126
72.78000 3.087
72.80000 2.860
72.82000 -0.482
72.84000 1.637
72.86000 2.261
72.88000 0.539
72.90000 4.396
72.92000 3.933
72.94000 1.518
72.96000 1.795
72.98000 7.664
73.00000 3.410
73.02000 0.206
73.04000 2.487
73.06000 3.400
73.08000 3.860
73.10000 6.343
73.12000 1.969
73.14000 1.560
73.16000 3.359
73.18000 -1.784
73.20000 1.442
73.22000 5.631
73.24000 0.886
73.26000 2.979
73.28000 5.411
73.30000 -0.951
73.32000 2.150
73.34000 1.510
73.36000 5.222
73.38000 -1.051
73.40000 3.287
73.42000 6.847
73.44000 4.266
73.46000 2.182
73.48000 3.490
73.50000 5.265
73.52000 1.547
73.54000 -2.114
73.56000 -2.334
73.58000 0.945
73.60000 0.524
73.62000 1.760
73.64000 2.832
73.66000 -0.313
73.68000 0.458
73.70000 2.373
73.72000 6.506
73.74000 0.740
73.76000 0.889
73.78000 3.412
73.80000 3.509
73.82000 1.859
73.84000 -2.488
73.86000 -1.448
73.88000 3.970
73.90000 4.911
73.92000 4.278
73.94000 0.532
73.96000 2.113
73.98000 2.575
74.00000 1.923
74.02000 2.901
74.04000 0.388
74.06000 -1.265
74.08000 3.748
74.10000 2.584
74.12000 4.299
74.14000 5.743
74.16000 1.947
74.18000 4.314
74.20000 5.717
74.22000 3.898
74.24000 -1.233
74.26000 5.522
74.28000 3.328
74.30000 -0.030
74.32000 -0.308
74.34000 -1.580
74.36000 0.930
74.38000 7.721
74.40000 5.894
74.42000 4.765
74.44000 1.908
74.46000 1.085
74.48000 8.104
74.50000 4.827
74.52000 5.300
74.54000 5.677
74.56000 6.459
74.58000 8.546
74.60000 12.783
74.62000 8.975
74.64000 7.519
74.66000 4.990
74.68000 6.965
74.70000 4.306
74.72000 1.685
74.74000 -2.424
74.76000 -2.326
74.78000 6.753
74.80000 8.905
74.82000 8.083
74.84000 6.886
74.86000 5.773
74.88000 2.419
74.90000 -0.597
74.92000 -0.327
74.94000 4.951
74.96000 3.996
74.98000 1.824
75.00000 5.181
75.02000 8.879
75.04000 10.116
75.06000 9.210
75.08000 6.901
75.10000 2.953
75.12000 -0.377
75.14000 4.404
75.16000 -0.135
75.18000 5.590
75.20000 6.638
75.22000 7.207
75.24000 6.411
75.26000 9.420
75.28000 10.135
75.30000 2.905
75.32000 -2.443
75.34000 2.400
75.36000 4.722
75.38000 7.493
75.40000 3.832
75.42000 3.437
75.44000 1.844
75.46000 1.050
75.48000 5.951
75.50000 3.342
75.52000 5.621
75.54000 8.048
75.56000 6.063
75.58000 9.137
75.60000 3.704
75.62000 6.704
75.64000 7.319
75.66000 3.849
75.68000 2.562
75.70000 3.157
75.72000 1.914
75.74000 3.102
75.76000 6.890
75.78000 9.823
75.80000 5.988
75.82000 4.934
75.84000 2.000
75.86000 4.154
75.88000 1.486
75.90000 0.503
75.92000 1.929
75.94000 6.999
75.96000 8.681
75.98000 6.498
76.00000 1.615
76.02000 0.705
76.04000 0.015
76.06000 1.685
76.08000 -0.623
76.10000 2.951
76.12000 4.461
76.14000 1.202
76.16000 1.704
76.18000 2.438
76.20000 3.534
76.22000 7.046
76.24000 8.431
76.26000 0.033
76.28000 0.241
76.30000 0.264
76.32000 -0.432
76.34000 -0.198
76.36000 2.534
76.38000 1.653
76.40000 0.781
76.42000 1.129
76.44000 0.460
76.46000 -0.032
76.48000 -0.469
76.50000 -0.851
76.52000 2.698
76.54000 1.271
76.56000 2.618
76.58000 0.756
76.60000 -1.915
76.62000 0.565
76.64000 3.469
76.66000 5.804
76.68000 4.028
76.70000 0.548
76.72000 2.920
76.74000 1.836
76.76000 1.600
76.78000 4.565
76.80000 -0.607
76.82000 -1.015
76.84000 -2.378
76.86000 2.517
76.88000 5.977
76.90000 3.273
76.92000 1.817
76.94000 0.280
76.96000 -1.989
76.98000 -1.264
77.00000 -1.809
77.02000 0.327
77.04000 4.813
77.06000 7.001
77.08000 1.206
77.10000 -0.456
77.12000 -2.533
77.14000 2.278
77.16000 2.803
77.18000 6.253
77.20000 6.294
77.22000 3.259
77.24000 -1.340
77.26000 -0.552
77.28000 0.765
77.30000 0.602
77.32000 0.187
77.34000 5.668
77.36000 5.905
77.38000 3.078
77.40000 6.364
77.42000 1.754
77.44000 5.570
77.46000 3.745
77.48000 0.734
77.50000 -2.530
77.52000 0.513
77.54000 -0.650
77.56000 -2.333
77.58000 0.215
77.60000 1.867
77.62000 -0.434
77.64000 4.051
77.66000 1.033
77.68000 5.257
77.70000 0.909
77.72000 -2.084
77.74000 -0.614
77.76000 4.351
77.78000 3.357
77.80000 2.970
77.82000 -1.312
77.84000 -0.779
77.86000 0.089
77.88000 3.606
77.90000 2.454
77.92000 2.722
77.94000 1.642
77.96000 1.549
77.98000 2.390
78.00000 3.040
78.02000 1.738
78.04000 -0.282
78.06000 2.558
78.08000 4.551
78.10000 2.922
78.12000 -2.413
78.14000 -0.485
78.16000 4.070
78.18000 1.664
78.20000 2.414
78.22000 -2.556
78.24000 4.229
78.26000 1.956
78.28000 3.130
78.30000 -0.861
78.32000 -0.786
78.34000 3.467
78.36000 2.517
78.38000 4.552
78.40000 4.507
78.42000 0.527
78.44000 -2.057
78.46000 3.269
78.48000 -0.450
78.50000 -1.642
78.52000 -1.394
78.54000 3.019
78.56000 4.981
78.58000 3.633
78.60000 6.553
78.62000 4.453
78.64000 1.271
78.66000 0.275
78.68000 2.485
78.70000 3.136
78.72000 3.882
78.74000 9.500
78.76000 5.380
78.78000 5.376
78.80000 -1.253
78.82000 1.904
78.84000 4.963
78.86000 1.292
78.88000 1.019
78.90000 -1.307
78.92000 1.370
78.94000 4.181
78.96000 6.377
78.98000 5.290
79.00000 3.669
79.02000 6.972
79.04000 7.445
79.06000 5.029
79.08000 5.767
79.10000 5.239
79.12000 -1.182
79.14000 1.994
79.16000 1.874
79.18000 -2.547
79.20000 -1.213
79.22000 4.469
79.24000 7.658
79.26000 5.499
79.28000 7.616
79.30000 1.314
79.32000 0.289
79.34000 -1.258
79.36000 0.672
79.38000 4.783
79.40000 7.468
79.42000 5.602
79.44000 5.944
79.46000 3.570
79.48000 4.775
79.50000 4.889
79.52000 0.543
79.54000 0.634
79.56000 -0.260
79.58000 7.099
79.60000 10.535
79.62000 4.499
79.64000 3.022
79.66000 1.724
79.68000 7.639
79.70000 6.098
79.72000 1.171
79.74000 3.714
79.76000 6.555
79.78000 6.934
79.80000 1.479
79.82000 -2.574
79.84000 -0.667
79.86000 2.912
79.88000 6.154
79.90000 6.575
79.92000 7.399
79.94000 -0.266
79.96000 3.644
79.98000 9.757
80.00000 8.159
80.02000 5.140
80.04000 6.534
80.06000 5.731
80.08000 0.154
80.10000 -1.837
80.12000 1.868
80.14000 4.942
80.16000 3.601
80.18000 6.894
80.20000 7.668
80.22000 5.186
80.24000 -0.458
80.26000 -0.048
80.28000 1.859
80.30000 -1.487
80.32000 1.841
80.34000 1.441
80.36000 1.287
80.38000 6.501
80.40000 3.914
80.42000 8.795
80.44000 3.905
80.46000 -0.452
80.48000 -2.596
80.50000 2.901
80.52000 3.843
80.54000 0.849
80.56000 6.046
80.58000 9.393
80.60000 6.270
80.62000 4.033
80.64000 6.862
80.66000 4.945
80.68000 3.543
80.70000 -2.603
80.72000 4.206
80.74000 5.570
80.76000 6.651
80.78000 10.581
80.80000 8.286
80.82000 6.659
80.84000 8.797
80.86000 3.934
80.88000 2.364
80.90000 4.974
80.92000 3.576
80.94000 0.933
80.96000 3.885
80.98000 4.447
81.00000 4.882
81.02000 3.946
81.04000 1.533
81.06000 7.019
81.08000 9.511
81.10000 8.048
81.12000 8.224
81.14000 10.825
81.16000 11.035
81.18000 9.727
81.20000 1.842
81.22000 2.885
81.24000 7.623
81.26000 6.329
81.28000 4.064
81.30000 4.605
81.32000 3.539
81.34000 7.241
81.36000 9.332
81.38000 9.421
81.40000 5.504
81.42000 5.130
81.44000 5.537
81.46000 10.429
81.48000 11.474
81.50000 14.454
81.52000 10.095
81.54000 8.222
81.56000 11.828
81.58000 10.639
81.60000 6.703
81.62000 9.026
81.64000 8.501
81.66000 10.372
81.68000 14.535
81.70000 15.830
81.72000 11.859
81.74000 11.502
81.76000 13.860
81.78000 10.563
81.80000 9.134
81.82000 13.359
81.84000 14.762
81.86000 17.499
81.88000 13.213
81.90000 12.438
81.92000 9.550
81.94000 10.550
81.96000 11.011
81.98000 14.858
82.00000 11.978
82.02000 11.340
82.04000 13.799
82.06000 14.948
82.08000 15.710
82.10000 13.314
82.12000 17.239
82.14000 16.825
82.16000 18.489
82.18000 23.762
82.20000 20.825
82.22000 19.016
82.24000 17.448
82.26000 13.524
82.28000 17.979
82.30000 22.121
82.32000 17.880
82.34000 17.980
82.36000 18.581
82.38000 19.941
82.40000 20.947
82.42000 21.424
82.44000 21.094
82.46000 22.230
82.48000 27.619
82.50000 31.548
82.52000 27.406
82.54000 23.647
82.56000 23.634
82.58000 23.014
82.60000 27.471
82.62000 24.742
82.64000 24.973
82.66000 29.860
82.68000 32.851
82.70000 25.972
82.72000 26.917
82.74000 27.282
82.76000 30.100
82.78000 22.404
82.80000 27.119
82.82000 28.117
82.84000 27.730
82.86000 26.158
82.88000 30.243
82.90000 32.197
82.92000 33.323
82.94000 36.410
82.96000 29.052
82.98000 26.426
83.00000 34.486
83.02000 34.213
83.04000 29.034
83.06000 35.849
83.08000 27.151
83.10000 25.551
83.12000 33.786
83.14000 31.752
83.16000 38.160
83.18000 33.128
83.20000 35.381
83.22000 36.877
83.24000 38.190
83.26000 35.876
83.28000 34.370
83.30000 31.934
83.32000 34.799
83.34000 41.452
83.36000 36.206
83.38000 35.609
83.40000 34.023
83.42000 26.201
83.44000 31.722
83.46000 32.663
83.48000 30.764
83.50000 31.580
83.52000 29.429
83.54000 26.318
83.56000 30.360
83.58000 34.334
83.60000 26.872
83.62000 29.227
83.64000 28.599
83.66000 30.774
83.68000 25.188
83.70000 24.932
83.72000 19.496
83.74000 20.695
83.76000 17.556
83.78000 24.530
83.80000 26.494
83.82000 22.692
83.84000 23.094
83.86000 24.416
83.88000 27.456
83.90000 27.129
83.92000 20.846
83.94000 18.836
83.96000 19.779
83.98000 19.809
84.00000 16.365
84.02000 9.241
84.04000 16.928
84.06000 22.419
84.08000 15.055
84.10000 15.990
84.12000 17.932
84.14000 21.458
84.16000 11.165
84.18000 11.607
84.20000 12.285
84.22000 11.041
84.24000 9.688
84.26000 10.033
84.28000 13.211
84.30000 16.404
84.32000 9.770
84.34000 8.532
84.36000 11.003
84.38000 14.352
84.40000 10.800
84.42000 12.245
84.44000 11.995
84.46000 5.948
84.48000 10.425
84.50000 7.379
84.52000 5.625
84.54000 8.472
84.56000 9.055
84.58000 6.089
84.60000 5.881
84.62000 12.550
84.64000 10.453
84.66000 10.401
84.68000 10.928
84.70000 7.412
84.72000 6.839
84.74000 8.508
84.76000 8.676
84.78000 3.052
84.80000 2.678
84.82000 8.387
84.84000 8.950
84.86000 3.092
84.88000 3.207
84.90000 7.593
84.92000 10.026
84.94000 9.964
84.96000 9.614
84.98000 10.882
85.00000 8.329
85.02000 11.569
85.04000 10.051
85.06000 11.461
85.08000 7.347
85.10000 7.076
85.12000 7.783
85.14000 2.773
85.16000 4.283
85.18000 10.846
85.20000 11.920
85.22000 10.469
85.24000 10.504
85.26000 4.302
85.28000 -2.525
85.30000 5.459
85.32000 6.902
85.34000 1.911
85.36000 2.321
85.38000 6.023
85.40000 9.882
85.42000 5.518
85.44000 4.497
85.46000 7.252
85.48000 3.461
85.50000 7.624
85.52000 8.421
85.54000 10.337
85.56000 5.891
85.58000 8.241
85.60000 8.573
85.62000 3.871
85.64000 2.504
85.66000 3.507
85.68000 7.693
85.70000 9.958
85.72000 5.496
85.74000 0.085
85.76000 3.468
85.78000 2.103
85.80000 3.084
85.82000 3.241
85.84000 1.640
85.86000 1.460
85.88000 5.830
85.90000 7.674
85.92000 5.025
85.94000 4.371
85.96000 7.503
85.98000 1.194
86.00000 5.278
86.02000 3.955
86.04000 4.410
86.06000 6.359
86.08000 3.918
86.10000 3.879
86.12000 9.638
86.14000 7.242
86.16000 7.595
86.18000 5.147
86.20000 2.391
86.22000 4.782
86.24000 6.715
86.26000 5.028
86.28000 5.505
86.30000 11.440
86.32000 6.432
86.34000 7.594
86.36000 9.452
86.38000 7.048
86.40000 6.157
86.42000 4.953
86.44000 8.218
86.46000 9.557
86.48000 9.749
86.50000 9.559
86.52000 11.725
86.54000 16.374
86.56000 16.567
86.58000 11.347
86.60000 9.761
86.62000 11.717
86.64000 14.560
86.66000 13.109
86.68000 12.875
86.70000 13.039
86.72000 9.425
86.74000 11.765
86.76000 15.401
86.78000 19.171
86.80000 17.982
86.82000 22.175
86.84000 23.171
86.86000 26.067
86.88000 20.555
86.90000 25.799
86.92000 23.807
86.94000 20.122
86.96000 17.744
86.98000 19.853
87.00000 20.536
87.02000 30.193
87.04000 29.169
87.06000 18.748
87.08000 18.289
87.10000 16.626
87.12000 13.894
87.14000 23.633
87.16000 30.853
87.18000 30.871
87.20000 21.817
87.22000 22.708
87.24000 28.013
87.26000 31.571
87.28000 24.017
87.30000 27.576
87.32000 36.481
87.34000 31.804
87.36000 25.370
87.38000 29.953
87.40000 35.327
87.42000 37.373
87.44000 37.018
87.46000 39.043
87.48000 35.540
87.50000 35.752
87.52000 33.457
87.54000 36.635
87.56000 37.686
87.58000 30.203
87.60000 32.064
87.62000 29.574
87.64000 31.046
87.66000 35.276
87.68000 30.572
87.70000 26.355
87.72000 31.709
87.74000 32.553
87.76000 35.929
87.78000 32.055
87.80000 23.362
87.82000 27.690
87.84000 35.529
87.86000 36.491
87.88000 29.857
87.90000 28.566
87.92000 30.347
87.94000 28.224
87.96000 29.431
87.98000 25.288
88.00000 28.014
88.02000 25.405
88.04000 23.276
88.06000 27.601
88.08000 27.583
88.10000 22.909
88.12000 23.807
88.14000 19.771
88.16000 18.333
88.18000 18.558
88.20000 18.368
88.22000 15.882
88.24000 18.298
88.26000 16.425
88.28000 14.541
88.30000 13.409
88.32000 14.383
88.34000 13.331
88.36000 12.959
88.38000 18.192
88.40000 18.457
88.42000 9.140
88.44000 7.947
88.46000 5.106
88.48000 9.761
88.50000 9.982
88.52000 8.312
88.54000 6.988
88.56000 8.927
88.58000 6.989
88.60000 9.216
88.62000 15.799
88.64000 13.278
88.66000 10.604
88.68000 8.983
88.70000 5.542
88.72000 7.122
88.74000 5.543
88.76000 9.274
88.78000 10.084
88.80000 3.537
88.82000 5.090
88.84000 7.015
88.86000 1.636
88.88000 6.626
88.90000 3.718
88.92000 -2.519
88.94000 -0.154
88.96000 2.601
88.98000 3.449
89.00000 3.929
89.02000 7.519
89.04000 4.254
89.06000 1.992
89.08000 5.534
89.10000 4.965
89.12000 0.817
89.14000 3.728
89.16000 9.019
89.18000 9.398
89.20000 6.736
89.22000 6.782
89.24000 8.286
89.26000 6.379
89.28000 4.491
89.30000 6.511
89.32000 5.998
89.34000 -0.878
89.36000 2.253
89.38000 5.351
89.40000 3.386
89.42000 -0.868
89.44000 -2.448
89.46000 -2.077
89.48000 3.081
89.50000 3.063
89.52000 2.867
89.54000 0.558
89.56000 1.482
89.58000 4.622
89.60000 2.349
89.62000 -0.076
89.64000 6.270
89.66000 4.823
89.68000 2.300
89.70000 2.133
89.72000 -1.873
89.74000 1.198
89.76000 3.248
89.78000 10.447
89.80000 7.409
89.82000 2.499
89.84000 2.173
89.86000 7.252
89.88000 -2.369
89.90000 0.705
89.92000 4.295
89.94000 2.123
89.96000 1.019
89.98000 1.997
90.00000 3.200
90.02000 2.060
90.04000 0.661
90.06000 6.127
90.08000 7.710
90.10000 2.560
90.12000 -0.739
90.14000 2.733
90.16000 -1.319
90.18000 2.402
90.20000 3.412
90.22000 0.610
90.24000 4.300
90.26000 7.181
90.28000 3.061
90.30000 4.176
90.32000 8.401
90.34000 7.803
90.36000 5.064
90.38000 0.837
90.40000 4.709
90.42000 5.686
90.44000 5.290
90.46000 2.395
90.48000 0.700
90.50000 7.738
90.52000 3.838
90.54000 4.272
90.56000 2.612
90.58000 0.312
90.60000 4.630
90.62000 3.374
90.64000 0.850
90.66000 3.098
90.68000 4.348
90.70000 2.662
90.72000 7.388
90.74000 9.963
90.76000 4.158
90.78000 0.428
90.80000 5.243
90.82000 6.627
90.84000 6.490
90.86000 6.403
90.88000 6.153
90.90000 4.345
90.92000 1.718
90.94000 4.092
90.96000 6.937
90.98000 1.294
91.00000 -2.342
91.02000 2.962
91.04000 6.251
91.06000 5.321
91.08000 5.725
91.10000 7.034
91.12000 7.773
91.14000 1.638
91.16000 3.725
91.18000 6.430
91.20000 4.611
91.22000 4.097
91.24000 9.425
91.26000 12.511
91.28000 3.330
91.30000 2.370
91.32000 7.493
91.34000 9.505
91.36000 8.681
91.38000 4.929
91.40000 3.857
91.42000 3.770
91.44000 2.286
91.46000 3.629
91.48000 7.333
91.50000 6.196
91.52000 3.676
91.54000 5.243
91.56000 2.431
91.58000 11.664
91.60000 12.650
91.62000 6.716
91.64000 8.732
91.66000 5.853
91.68000 8.751
91.70000 11.018
91.72000 8.210
91.74000 9.402
91.76000 4.754
91.78000 5.940
91.80000 10.318
91.82000 7.260
91.84000 5.811
91.86000 10.817
91.88000 7.291
91.90000 7.151
91.92000 13.962
91.94000 10.076
91.96000 8.062
91.98000 0.659
92.00000 -2.242
92.02000 3.517
92.04000 7.397
92.06000 6.640
92.08000 6.684
92.10000 9.316
92.12000 6.237
92.14000 10.457
92.16000 7.920
92.18000 9.213
92.20000 6.617
92.22000 8.683
92.24000 6.724
92.26000 0.898
92.28000 3.262
92.30000 7.011
92.32000 2.231
92.34000 6.501
92.36000 10.464
92.38000 9.830
92.40000 10.495
92.42000 10.170
92.44000 4.113
92.46000 4.581
92.48000 8.775
92.50000 9.078
92.52000 7.011
92.54000 -1.439
92.56000 3.755
92.58000 6.402
92.60000 2.715
92.62000 0.903
92.64000 7.443
92.66000 8.346
92.68000 9.380
92.70000 4.644
92.72000 4.073
92.74000 6.094
92.76000 3.079
92.78000 7.373
92.80000 9.988
92.82000 6.223
92.84000 4.771
92.86000 3.148
92.88000 6.109
92.90000 2.555
92.92000 2.493
92.94000 4.357
92.96000 8.200
92.98000 7.443
93.00000 7.365
93.02000 6.469
93.04000 4.388
93.06000 4.534
93.08000 5.206
93.10000 1.465
93.12000 6.753
93.14000 15.261
93.16000 10.279
93.18000 3.076
93.20000 8.291
93.22000 9.954
93.24000 3.338
93.26000 -2.072
93.28000 0.802
93.30000 0.097
93.32000 5.621
93.34000 0.701
93.36000 4.580
93.38000 4.260
93.40000 8.334
93.42000 4.982
93.44000 2.187
93.46000 5.876
93.48000 3.294
93.50000 -2.370
93.52000 2.026
93.54000 2.953
93.56000 -1.966
93.58000 1.500
93.60000 5.620
93.62000 -0.276
93.64000 -0.884
93.66000 5.024
93.68000 7.061
93.70000 8.776
93.72000 6.052
93.74000 1.260
93.76000 4.481
93.78000 -0.828
93.80000 0.487
93.82000 2.247
93.84000 5.411
93.86000 5.966
93.88000 1.806
93.90000 -1.286
93.92000 -0.216
93.94000 2.876
93.96000 1.935
93.98000 4.112
94.00000 6.062
94.02000 1.270
94.04000 2.969
94.06000 5.719
94.08000 4.707
94.10000 -0.714
94.12000 6.116
94.14000 7.670
94.16000 2.328
94.18000 5.323
94.20000 2.258
94.22000 -0.901
94.24000 -0.439
94.26000 0.156
94.28000 2.686
94.30000 0.567
94.32000 4.123
94.34000 9.056
94.36000 5.410
94.38000 5.381
94.40000 3.338
94.42000 0.574
94.44000 -0.631
94.46000 5.216
94.48000 5.844
94.50000 3.288
94.52000 6.968
94.54000 5.480
94.56000 5.091
94.58000 2.204
94.60000 4.332
94.62000 2.970
94.64000 7.171
94.66000 2.643
94.68000 3.157
94.70000 5.196
94.72000 3.126
94.74000 4.521
94.76000 5.679
94.78000 2.305
94.80000 1.560
94.82000 7.666
94.84000 4.558
94.86000 -0.362
94.88000 2.527
94.90000 1.540
94.92000 5.841
94.94000 4.863
94.96000 2.364
94.98000 0.287
95.00000 6.277
95.02000 12.012
95.04000 9.616
95.06000 5.851
95.08000 6.772
95.10000 2.978
95.12000 7.163
95.14000 7.937
95.16000 4.046
95.18000 6.185
95.20000 3.845
95.22000 4.512
95.24000 8.983
95.26000 4.611
95.28000 0.554
95.30000 2.454
95.32000 3.230
95.34000 10.219
95.36000 5.316
95.38000 8.099
95.40000 9.106
95.42000 12.885
95.44000 4.760
95.46000 -2.368
95.48000 7.211
95.50000 11.959
95.52000 12.221
95.54000 12.071
95.56000 12.614
95.58000 8.446
95.60000 5.023
95.62000 -0.737
95.64000 2.697
95.66000 1.035
95.68000 6.441
95.70000 5.925
95.72000 6.090
95.74000 8.000
95.76000 10.209
95.78000 3.188
95.80000 6.060
95.82000 3.832
95.84000 3.719
95.86000 -1.619
95.88000 2.277
95.90000 6.369
95.92000 12.687
95.94000 7.252
95.96000 10.747
95.98000 13.028
96.00000 12.679
96.02000 9.883
96.04000 7.977
96.06000 4.035
96.08000 6.342
96.10000 1.988
96.12000 1.336
96.14000 -2.312
96.16000 5.934
96.18000 12.674
96.20000 11.801
96.22000 10.455
96.24000 14.411
96.26000 10.309
96.28000 8.754
96.30000 7.643
96.32000 4.905
96.34000 9.607
96.36000 10.539
96.38000 5.561
96.40000 9.367
96.42000 8.487
96.44000 8.685
96.46000 11.849
96.48000 11.961
96.50000 6.117
96.52000 12.012
96.54000 6.366
96.56000 9.861
96.58000 16.025
96.60000 12.406
96.62000 4.825
96.64000 5.300
96.66000 10.283
96.68000 5.551
96.70000 10.336
96.72000 9.143
96.74000 7.112
96.76000 3.384
96.78000 8.475
96.80000 7.443
96.82000 4.518
96.84000 3.437
96.86000 8.241
96.88000 10.512
96.90000 -0.553
96.92000 5.714
96.94000 15.519
96.96000 9.564
96.98000 6.340
97.00000 0.593
97.02000 8.141
97.04000 8.148
97.06000 2.193
97.08000 4.148
97.10000 2.202
97.12000 5.019
97.14000 6.084
97.16000 8.875
97.18000 10.452
97.20000 10.888
97.22000 10.946
97.24000 11.043
97.26000 7.641
97.28000 3.496
97.30000 -0.055
97.32000 8.961
97.34000 4.515
97.36000 5.865
97.38000 11.594
97.40000 16.721
97.42000 8.962
97.44000 3.924
97.46000 3.049
97.48000 6.884
97.50000 6.555
97.52000 7.534
97.54000 8.172
97.56000 7.926
97.58000 10.623
97.60000 9.710
97.62000 7.385
97.64000 9.288
97.66000 5.195
97.68000 11.513
97.70000 16.282
97.72000 11.307
97.74000 9.959
97.76000 -1.117
97.78000 -2.282
97.80000 6.400
97.82000 5.677
97.84000 6.253
97.86000 9.192
97.88000 13.096
97.90000 11.099
97.92000 9.443
97.94000 6.876
97.96000 9.662
97.98000 10.035
98.00000 16.412
98.02000 13.570
98.04000 11.170
98.06000 6.367
98.08000 4.476
98.10000 8.133
98.12000 5.403
98.14000 8.364
98.16000 5.030
98.18000 5.881
98.20000 8.388
98.22000 11.481
98.24000 3.916
98.26000 6.737
98.28000 15.272
98.30000 11.919
98.32000 7.047
98.34000 5.592
98.36000 1.115
98.38000 2.110
98.40000 1.204
98.42000 13.907
98.44000 13.151
98.46000 10.186
98.48000 13.611
98.50000 19.946
98.52000 26.289
98.54000 12.619
98.56000 1.043
98.58000 3.984
98.60000 5.370
98.62000 7.188
98.64000 10.148
98.66000 8.390
98.68000 4.671
98.70000 5.319
98.72000 3.520
98.74000 -0.969
98.76000 7.912
98.78000 13.902
98.80000 12.459
98.82000 8.260
98.84000 9.179
98.86000 6.445
98.88000 17.137
98.90000 1.195
98.92000 -1.757
98.94000 1.792
98.96000 17.077
98.98000 11.456
99.00000 11.271
99.02000 14.506
99.04000 6.398
99.06000 8.326
99.08000 0.984
99.10000 13.002
99.12000 9.833
99.14000 6.810
99.16000 11.905
99.18000 19.514
99.20000 15.010
99.22000 11.366
99.24000 10.351
99.26000 12.629
99.28000 6.372
99.30000 8.509
99.32000 6.072
99.34000 2.087
99.36000 1.487
99.38000 2.618
99.40000 11.005
99.42000 4.612
99.44000 -2.185
99.46000 3.061
99.48000 10.459
99.50000 15.995
99.52000 18.893
99.54000 18.839
99.56000 0.150
99.58000 -0.799
99.60000 4.237
99.62000 12.389
99.64000 13.711
99.66000 9.840
99.68000 11.516
99.70000 13.586
99.72000 7.524
99.74000 3.319
99.76000 19.226
99.78000 12.630
99.80000 7.795
99.82000 -7.053
99.84000 12.198
99.86000 18.999
99.88000 8.780
99.90000 16.498
99.92000 1.034
99.94000 14.744
99.96000 11.376
99.98000 0.000
