'Id: "0011389" Comment: "Integrate frame 0011389_Au-Ir-Rh_Au-Rich_XRD_Mapping-032-0000.gfrmwith cursor Wedge Cursor #5" Operator: "B?rgel" Anode: "Cu" Wavelength: "1.5406" Scantype: "2Theta (TwoTheta)" TimePerStep: "1" X: "4.5" Y: "-31.5" Z: "5.95" 
10.00000 0.000
10.02000 0.708
10.04000 -4.193
10.06000 12.378
10.08000 17.846
10.10000 20.912
10.12000 28.072
10.14000 15.320
10.16000 11.252
10.18000 14.264
10.20000 9.153
10.22000 16.117
10.24000 10.962
10.26000 11.092
10.28000 15.560
10.30000 16.527
10.32000 5.433
10.34000 11.702
10.36000 25.181
10.38000 6.410
10.40000 -4.177
10.42000 12.684
10.44000 -0.707
10.46000 10.931
10.48000 18.478
10.50000 10.945
10.52000 -1.117
10.54000 8.228
10.56000 28.051
10.58000 16.372
10.60000 6.997
10.62000 5.936
10.64000 13.085
10.66000 13.057
10.68000 24.761
10.70000 25.769
10.72000 22.207
10.74000 38.900
10.76000 25.298
10.78000 9.879
10.80000 17.513
10.82000 26.056
10.84000 5.097
10.86000 3.522
10.88000 10.458
10.90000 18.508
10.92000 19.380
10.94000 20.439
10.96000 7.480
10.98000 21.638
11.00000 25.183
11.02000 22.133
11.04000 15.066
11.06000 8.271
11.08000 10.126
11.10000 16.086
11.12000 0.961
11.14000 12.245
11.16000 20.877
11.18000 16.418
11.20000 7.708
11.22000 14.068
11.24000 8.974
11.26000 19.365
11.28000 26.154
11.30000 15.415
11.32000 11.777
11.34000 20.265
11.36000 15.040
11.38000 10.913
11.40000 17.144
11.42000 12.447
11.44000 9.459
11.46000 8.301
11.48000 6.573
11.50000 13.377
11.52000 9.418
11.54000 9.719
11.56000 13.233
11.58000 -3.570
11.60000 9.374
11.62000 19.845
11.64000 17.147
11.66000 12.889
11.68000 16.608
11.70000 15.319
11.72000 13.959
11.74000 17.267
11.76000 -2.052
11.78000 -2.901
11.80000 -0.423
11.82000 1.078
11.84000 12.501
11.86000 12.563
11.88000 1.929
11.90000 -1.853
11.92000 7.654
11.94000 10.737
11.96000 12.308
11.98000 17.011
12.00000 11.764
12.02000 8.687
12.04000 18.615
12.06000 11.947
12.08000 11.115
12.10000 18.228
12.12000 13.618
12.14000 7.390
12.16000 11.344
12.18000 14.714
12.20000 17.710
12.22000 8.582
12.24000 12.702
12.26000 13.941
12.28000 12.819
12.30000 18.085
12.32000 8.203
12.34000 11.884
12.36000 9.183
12.38000 10.288
12.40000 18.950
12.42000 16.004
12.44000 10.093
12.46000 6.328
12.48000 9.423
12.50000 12.636
12.52000 9.908
12.54000 14.816
12.56000 17.500
12.58000 16.790
12.60000 24.695
12.62000 19.181
12.64000 13.012
12.66000 10.133
12.68000 1.374
12.70000 10.074
12.72000 17.212
12.74000 16.506
12.76000 16.351
12.78000 12.240
12.80000 13.021
12.82000 -0.160
12.84000 10.012
12.86000 8.968
12.88000 8.502
12.90000 -0.197
12.92000 2.654
12.94000 15.389
12.96000 10.941
12.98000 13.166
13.00000 10.032
13.02000 5.681
13.04000 12.246
13.06000 8.519
13.08000 7.813
13.10000 13.644
13.12000 14.823
13.14000 15.201
13.16000 12.840
13.18000 7.310
13.20000 7.928
13.22000 10.024
13.24000 10.315
13.26000 21.477
13.28000 20.872
13.30000 17.188
13.32000 12.430
13.34000 20.610
13.36000 19.946
13.38000 11.797
13.40000 3.378
13.42000 14.732
13.44000 17.450
13.46000 5.582
13.48000 6.713
13.50000 19.539
13.52000 19.767
13.54000 20.065
13.56000 16.947
13.58000 5.245
13.60000 2.100
13.62000 8.878
13.64000 4.157
13.66000 1.457
13.68000 15.947
13.70000 13.767
13.72000 2.418
13.74000 9.065
13.76000 17.598
13.78000 9.898
13.80000 15.178
13.82000 8.422
13.84000 4.554
13.86000 0.630
13.88000 8.380
13.90000 8.718
13.92000 5.725
13.94000 8.855
13.96000 6.707
13.98000 5.664
14.00000 8.863
14.02000 6.988
14.04000 3.177
14.06000 0.865
14.08000 6.089
14.10000 12.177
14.12000 8.412
14.14000 9.490
14.16000 6.477
14.18000 9.989
14.20000 4.860
14.22000 13.966
14.24000 21.433
14.26000 10.099
14.28000 8.059
14.30000 6.049
14.32000 7.008
14.34000 -2.157
14.36000 7.934
14.38000 1.146
14.40000 -1.794
14.42000 6.837
14.44000 5.721
14.46000 1.545
14.48000 -0.916
14.50000 -2.345
14.52000 3.006
14.54000 8.110
14.56000 4.174
14.58000 4.451
14.60000 10.017
14.62000 19.277
14.64000 13.585
14.66000 9.976
14.68000 12.546
14.70000 10.921
14.72000 13.450
14.74000 4.659
14.76000 8.626
14.78000 7.839
14.80000 4.826
14.82000 12.370
14.84000 14.983
14.86000 10.540
14.88000 3.972
14.90000 7.617
14.92000 16.342
14.94000 13.979
14.96000 11.731
14.98000 4.009
15.00000 14.198
15.02000 12.699
15.04000 8.147
15.06000 9.191
15.08000 8.259
15.10000 7.699
15.12000 10.923
15.14000 10.017
15.16000 8.872
15.18000 4.907
15.20000 4.184
15.22000 5.816
15.24000 3.500
15.26000 1.224
15.28000 3.858
15.30000 4.907
15.32000 0.541
15.34000 -1.382
15.36000 12.739
15.38000 18.659
15.40000 14.747
15.42000 11.910
15.44000 5.371
15.46000 3.919
15.48000 6.075
15.50000 -4.414
15.52000 0.555
15.54000 10.141
15.56000 5.233
15.58000 5.112
15.60000 -1.944
15.62000 -1.863
15.64000 10.206
15.66000 9.172
15.68000 4.886
15.70000 4.327
15.72000 9.999
15.74000 0.180
15.76000 9.427
15.78000 0.310
15.80000 6.611
15.82000 10.753
15.84000 10.944
15.86000 17.090
15.88000 15.270
15.90000 11.873
15.92000 10.589
15.94000 8.474
15.96000 -1.662
15.98000 -4.149
16.00000 7.311
16.02000 5.098
16.04000 2.070
16.06000 13.266
16.08000 10.780
16.10000 13.251
16.12000 13.006
16.14000 10.011
16.16000 5.620
16.18000 3.190
16.20000 10.563
16.22000 6.423
16.24000 8.026
16.26000 8.213
16.28000 5.892
16.30000 5.112
16.32000 0.992
16.34000 6.237
16.36000 11.984
16.38000 19.845
16.40000 12.841
16.42000 8.987
16.44000 16.554
16.46000 10.151
16.48000 6.856
16.50000 8.812
16.52000 -0.980
16.54000 0.016
16.56000 5.804
16.58000 4.939
16.60000 4.748
16.62000 4.868
16.64000 9.325
16.66000 14.355
16.68000 13.372
16.70000 7.704
16.72000 4.071
16.74000 5.341
16.76000 4.128
16.78000 11.482
16.80000 14.193
16.82000 13.279
16.84000 2.758
16.86000 0.680
16.88000 10.769
16.90000 9.553
16.92000 16.360
16.94000 10.329
16.96000 5.778
16.98000 2.002
17.00000 0.843
17.02000 6.974
17.04000 10.083
17.06000 17.384
17.08000 20.454
17.10000 10.791
17.12000 10.934
17.14000 8.455
17.16000 3.841
17.18000 -1.697
17.20000 -4.322
17.22000 5.927
17.24000 12.351
17.26000 14.943
17.28000 9.743
17.30000 13.102
17.32000 18.111
17.34000 19.178
17.36000 12.836
17.38000 16.855
17.40000 14.591
17.42000 14.194
17.44000 8.232
17.46000 2.063
17.48000 -1.019
17.50000 1.186
17.52000 5.361
17.54000 8.658
17.56000 10.755
17.58000 9.024
17.60000 9.191
17.62000 9.450
17.64000 8.693
17.66000 8.732
17.68000 3.857
17.70000 5.364
17.72000 6.804
17.74000 7.540
17.76000 5.670
17.78000 11.338
17.80000 12.566
17.82000 7.441
17.84000 7.412
17.86000 13.509
17.88000 10.388
17.90000 7.533
17.92000 6.840
17.94000 8.580
17.96000 10.459
17.98000 16.474
18.00000 13.512
18.02000 15.311
18.04000 12.277
18.06000 6.220
18.08000 8.208
18.10000 16.502
18.12000 19.323
18.14000 14.187
18.16000 12.230
18.18000 5.441
18.20000 3.422
18.22000 11.185
18.24000 11.306
18.26000 8.149
18.28000 8.118
18.30000 7.265
18.32000 11.927
18.34000 11.020
18.36000 13.508
18.38000 9.873
18.40000 2.731
18.42000 -4.239
18.44000 5.075
18.46000 6.175
18.48000 6.151
18.50000 13.119
18.52000 9.291
18.54000 2.968
18.56000 4.029
18.58000 6.438
18.60000 8.416
18.62000 9.867
18.64000 8.794
18.66000 3.172
18.68000 7.272
18.70000 3.900
18.72000 3.752
18.74000 8.995
18.76000 11.170
18.78000 10.027
18.80000 9.501
18.82000 9.504
18.84000 5.808
18.86000 2.016
18.88000 1.419
18.90000 4.705
18.92000 6.820
18.94000 4.222
18.96000 3.109
18.98000 2.916
19.00000 5.063
19.02000 3.590
19.04000 4.725
19.06000 9.462
19.08000 9.008
19.10000 13.311
19.12000 3.726
19.14000 -2.310
19.16000 0.365
19.18000 -1.605
19.20000 -4.205
19.22000 -1.696
19.24000 3.572
19.26000 6.492
19.28000 -0.507
19.30000 -3.700
19.32000 5.389
19.34000 10.133
19.36000 6.069
19.38000 5.443
19.40000 4.471
19.42000 5.173
19.44000 6.992
19.46000 0.108
19.48000 2.264
19.50000 7.101
19.52000 5.601
19.54000 -3.885
19.56000 -0.240
19.58000 4.573
19.60000 3.106
19.62000 -4.191
19.64000 1.085
19.66000 5.632
19.68000 7.081
19.70000 6.762
19.72000 12.076
19.74000 4.927
19.76000 -2.728
19.78000 3.862
19.80000 1.999
19.82000 3.422
19.84000 6.892
19.86000 7.077
19.88000 7.810
19.90000 2.877
19.92000 5.463
19.94000 8.581
19.96000 3.701
19.98000 -2.029
20.00000 0.255
20.02000 4.983
20.04000 0.032
20.06000 2.714
20.08000 1.710
20.10000 3.445
20.12000 3.863
20.14000 1.506
20.16000 -0.991
20.18000 3.632
20.20000 2.996
20.22000 6.347
20.24000 3.635
20.26000 2.020
20.28000 3.376
20.30000 6.096
20.32000 0.540
20.34000 -0.980
20.36000 2.358
20.38000 1.171
20.40000 2.646
20.42000 -0.264
20.44000 -1.987
20.46000 3.989
20.48000 9.117
20.50000 2.041
20.52000 3.502
20.54000 1.852
20.56000 4.235
20.58000 4.594
20.60000 7.614
20.62000 6.885
20.64000 11.393
20.66000 9.371
20.68000 3.543
20.70000 -3.167
20.72000 -0.278
20.74000 1.801
20.76000 5.294
20.78000 11.448
20.80000 6.841
20.82000 7.329
20.84000 2.552
20.86000 1.779
20.88000 4.884
20.90000 7.109
20.92000 10.348
20.94000 7.180
20.96000 2.282
20.98000 -3.211
21.00000 -1.815
21.02000 2.892
21.04000 1.817
21.06000 4.486
21.08000 1.127
21.10000 -1.441
21.12000 0.941
21.14000 1.184
21.16000 -0.933
21.18000 3.226
21.20000 1.932
21.22000 2.551
21.24000 6.253
21.26000 3.750
21.28000 -2.193
21.30000 -0.328
21.32000 5.012
21.34000 7.471
21.36000 3.412
21.38000 1.205
21.40000 5.475
21.42000 8.733
21.44000 2.200
21.46000 -1.755
21.48000 6.163
21.50000 7.353
21.52000 7.108
21.54000 7.995
21.56000 4.638
21.58000 6.908
21.60000 -0.438
21.62000 1.421
21.64000 3.965
21.66000 -0.017
21.68000 -0.366
21.70000 2.106
21.72000 4.118
21.74000 6.137
21.76000 8.841
21.78000 3.354
21.80000 6.778
21.82000 2.251
21.84000 8.918
21.86000 14.765
21.88000 11.865
21.90000 6.766
21.92000 3.887
21.94000 2.148
21.96000 6.594
21.98000 0.105
22.00000 1.472
22.02000 8.612
22.04000 7.118
22.06000 8.308
22.08000 7.786
22.10000 -4.070
22.12000 -0.244
22.14000 8.565
22.16000 13.940
22.18000 2.870
22.20000 4.374
22.22000 7.148
22.24000 8.110
22.26000 4.268
22.28000 1.586
22.30000 5.940
22.32000 3.868
22.34000 9.091
22.36000 7.937
22.38000 -0.110
22.40000 -3.918
22.42000 -3.297
22.44000 1.510
22.46000 5.292
22.48000 5.048
22.50000 3.026
22.52000 7.243
22.54000 9.828
22.56000 2.551
22.58000 1.360
22.60000 3.082
22.62000 -4.042
22.64000 1.694
22.66000 8.303
22.68000 10.495
22.70000 4.534
22.72000 6.345
22.74000 9.919
22.76000 8.731
22.78000 2.921
22.80000 9.737
22.82000 10.499
22.84000 7.985
22.86000 9.012
22.88000 4.484
22.90000 -1.432
22.92000 1.571
22.94000 2.860
22.96000 -0.334
22.98000 5.336
23.00000 6.245
23.02000 10.026
23.04000 4.198
23.06000 5.233
23.08000 3.729
23.10000 5.943
23.12000 2.151
23.14000 0.215
23.16000 -1.064
23.18000 1.410
23.20000 3.998
23.22000 2.788
23.24000 5.805
23.26000 0.072
23.28000 2.712
23.30000 3.897
23.32000 3.858
23.34000 3.971
23.36000 1.572
23.38000 5.724
23.40000 7.431
23.42000 3.190
23.44000 -4.009
23.46000 1.152
23.48000 1.840
23.50000 5.136
23.52000 5.090
23.54000 -2.290
23.56000 0.311
23.58000 5.675
23.60000 1.206
23.62000 2.411
23.64000 -0.373
23.66000 1.669
23.68000 -3.313
23.70000 -4.000
23.72000 -0.521
23.74000 9.658
23.76000 8.045
23.78000 6.473
23.80000 6.470
23.82000 4.503
23.84000 3.394
23.86000 6.480
23.88000 2.112
23.90000 0.593
23.92000 3.765
23.94000 5.281
23.96000 4.709
23.98000 5.493
24.00000 8.661
24.02000 6.232
24.04000 3.723
24.06000 3.207
24.08000 0.091
24.10000 2.992
24.12000 2.395
24.14000 -3.756
24.16000 -3.176
24.18000 1.407
24.20000 -0.091
24.22000 -1.084
24.24000 1.117
24.26000 -0.538
24.28000 1.285
24.30000 6.307
24.32000 4.551
24.34000 1.051
24.36000 -0.517
24.38000 -2.246
24.40000 -3.646
24.42000 -1.558
24.44000 1.901
24.46000 0.601
24.48000 -0.254
24.50000 -0.401
24.52000 -2.755
24.54000 -0.515
24.56000 -0.594
24.58000 -0.157
24.60000 7.585
24.62000 7.994
24.64000 7.873
24.66000 4.179
24.68000 7.783
24.70000 2.941
24.72000 0.395
24.74000 6.535
24.76000 4.434
24.78000 -2.200
24.80000 3.040
24.82000 6.336
24.84000 -1.027
24.86000 1.651
24.88000 3.287
24.90000 -0.716
24.92000 -1.838
24.94000 -3.917
24.96000 1.968
24.98000 1.204
25.00000 -1.711
25.02000 0.746
25.04000 1.359
25.06000 -0.528
25.08000 0.953
25.10000 3.031
25.12000 2.959
25.14000 0.751
25.16000 0.203
25.18000 5.289
25.20000 3.074
25.22000 0.025
25.24000 0.206
25.26000 -0.647
25.28000 2.632
25.30000 4.332
25.32000 4.661
25.34000 5.265
25.36000 6.662
25.38000 5.654
25.40000 2.879
25.42000 0.514
25.44000 2.355
25.46000 6.995
25.48000 8.381
25.50000 2.452
25.52000 0.013
25.54000 3.216
25.56000 -3.890
25.58000 0.534
25.60000 6.004
25.62000 8.976
25.64000 7.882
25.66000 0.759
25.68000 -2.753
25.70000 0.847
25.72000 3.682
25.74000 7.751
25.76000 9.299
25.78000 4.845
25.80000 -3.875
25.82000 -1.950
25.84000 8.113
25.86000 8.596
25.88000 0.764
25.90000 -3.465
25.92000 3.198
25.94000 1.901
25.96000 0.662
25.98000 1.476
26.00000 2.117
26.02000 0.958
26.04000 3.077
26.06000 3.547
26.08000 2.697
26.10000 0.330
26.12000 -1.841
26.14000 -0.284
26.16000 -1.935
26.18000 -0.477
26.20000 -2.624
26.22000 5.525
26.24000 6.729
26.26000 6.255
26.28000 10.193
26.30000 4.481
26.32000 -0.779
26.34000 -2.630
26.36000 1.168
26.38000 1.107
26.40000 0.648
26.42000 6.978
26.44000 4.528
26.46000 4.195
26.48000 2.498
26.50000 5.331
26.52000 6.169
26.54000 1.571
26.56000 2.179
26.58000 5.461
26.60000 -0.224
26.62000 -2.119
26.64000 1.665
26.66000 1.867
26.68000 -0.753
26.70000 -2.245
26.72000 0.966
26.74000 5.604
26.76000 1.977
26.78000 3.722
26.80000 0.952
26.82000 1.235
26.84000 4.526
26.86000 6.414
26.88000 -1.648
26.90000 -0.978
26.92000 5.713
26.94000 5.681
26.96000 0.881
26.98000 2.332
27.00000 4.561
27.02000 1.008
27.04000 1.103
27.06000 5.650
27.08000 5.023
27.10000 4.597
27.12000 -0.859
27.14000 2.540
27.16000 6.856
27.18000 3.751
27.20000 -2.288
27.22000 4.450
27.24000 5.549
27.26000 4.071
27.28000 5.060
27.30000 3.191
27.32000 6.348
27.34000 8.116
27.36000 3.769
27.38000 4.536
27.40000 1.340
27.42000 -1.930
27.44000 5.546
27.46000 3.188
27.48000 5.793
27.50000 7.745
27.52000 -1.571
27.54000 0.247
27.56000 2.023
27.58000 5.527
27.60000 6.781
27.62000 4.105
27.64000 3.861
27.66000 4.509
27.68000 3.514
27.70000 0.224
27.72000 -1.113
27.74000 2.085
27.76000 2.596
27.78000 2.919
27.80000 5.154
27.82000 2.669
27.84000 -3.746
27.86000 0.850
27.88000 1.708
27.90000 -0.103
27.92000 2.020
27.94000 2.487
27.96000 1.436
27.98000 0.705
28.00000 -1.245
28.02000 1.790
28.04000 9.499
28.06000 2.174
28.08000 2.828
28.10000 7.049
28.12000 5.022
28.14000 1.861
28.16000 6.992
28.18000 8.293
28.20000 5.692
28.22000 8.604
28.24000 10.663
28.26000 4.066
28.28000 3.613
28.30000 3.047
28.32000 1.681
28.34000 1.975
28.36000 2.603
28.38000 4.950
28.40000 6.606
28.42000 4.369
28.44000 2.765
28.46000 7.889
28.48000 4.005
28.50000 1.878
28.52000 5.818
28.54000 2.358
28.56000 5.326
28.58000 7.533
28.60000 6.632
28.62000 3.682
28.64000 4.862
28.66000 9.718
28.68000 4.945
28.70000 0.523
28.72000 2.907
28.74000 5.293
28.76000 3.887
28.78000 3.553
28.80000 1.292
28.82000 1.475
28.84000 5.887
28.86000 9.898
28.88000 6.316
28.90000 -0.317
28.92000 0.396
28.94000 6.388
28.96000 4.524
28.98000 4.008
29.00000 9.073
29.02000 5.114
29.04000 -0.098
29.06000 -1.278
29.08000 0.613
29.10000 -0.278
29.12000 0.577
29.14000 1.687
29.16000 7.494
29.18000 3.708
29.20000 0.574
29.22000 5.513
29.24000 7.049
29.26000 7.327
29.28000 -0.349
29.30000 4.268
29.32000 6.832
29.34000 6.959
29.36000 2.308
29.38000 -1.403
29.40000 -3.677
29.42000 2.536
29.44000 3.191
29.46000 -2.892
29.48000 1.244
29.50000 5.414
29.52000 2.610
29.54000 3.321
29.56000 7.260
29.58000 4.467
29.60000 1.292
29.62000 2.981
29.64000 0.856
29.66000 7.739
29.68000 10.241
29.70000 5.958
29.72000 5.573
29.74000 10.923
29.76000 7.455
29.78000 -3.138
29.80000 3.469
29.82000 7.074
29.84000 1.813
29.86000 1.985
29.88000 1.012
29.90000 -3.081
29.92000 -2.402
29.94000 0.517
29.96000 2.036
29.98000 2.575
30.00000 -3.247
30.02000 -2.075
30.04000 4.452
30.06000 6.714
30.08000 8.380
30.10000 4.527
30.12000 4.826
30.14000 -0.661
30.16000 -1.529
30.18000 0.420
30.20000 2.594
30.22000 -1.406
30.24000 0.211
30.26000 3.367
30.28000 3.032
30.30000 6.323
30.32000 1.753
30.34000 0.694
30.36000 2.040
30.38000 -1.175
30.40000 3.231
30.42000 7.862
30.44000 6.036
30.46000 -0.866
30.48000 0.652
30.50000 3.640
30.52000 1.306
30.54000 0.361
30.56000 0.038
30.58000 1.290
30.60000 3.788
30.62000 8.506
30.64000 4.253
30.66000 -3.632
30.68000 -0.993
30.70000 2.451
30.72000 1.546
30.74000 2.747
30.76000 6.869
30.78000 6.567
30.80000 5.587
30.82000 7.132
30.84000 9.497
30.86000 3.336
30.88000 4.820
30.90000 1.671
30.92000 0.491
30.94000 2.040
30.96000 4.079
30.98000 0.049
31.00000 2.564
31.02000 7.620
31.04000 6.531
31.06000 6.137
31.08000 4.511
31.10000 1.005
31.12000 -2.304
31.14000 -0.300
31.16000 7.390
31.18000 2.460
31.20000 2.965
31.22000 0.768
31.24000 1.666
31.26000 4.218
31.28000 3.051
31.30000 2.803
31.32000 4.838
31.34000 4.614
31.36000 2.893
31.38000 -3.152
31.40000 0.545
31.42000 2.906
31.44000 2.263
31.46000 1.608
31.48000 5.951
31.50000 6.126
31.52000 4.841
31.54000 2.685
31.56000 3.482
31.58000 -0.292
31.60000 -1.742
31.62000 -1.136
31.64000 2.638
31.66000 5.513
31.68000 0.904
31.70000 3.424
31.72000 4.885
31.74000 2.271
31.76000 -1.976
31.78000 -3.594
31.80000 1.145
31.82000 1.002
31.84000 -1.172
31.86000 -0.508
31.88000 2.403
31.90000 1.332
31.92000 3.265
31.94000 1.743
31.96000 3.848
31.98000 -0.163
32.00000 1.840
32.02000 0.837
32.04000 0.986
32.06000 2.193
32.08000 1.941
32.10000 -2.690
32.12000 1.426
32.14000 5.391
32.16000 2.118
32.18000 2.338
32.20000 4.586
32.22000 1.566
32.24000 2.204
32.26000 7.781
32.28000 4.540
32.30000 -0.862
32.32000 -1.089
32.34000 1.440
32.36000 0.010
32.38000 2.943
32.40000 5.286
32.42000 4.271
32.44000 2.149
32.46000 0.125
32.48000 -0.896
32.50000 2.305
32.52000 2.083
32.54000 3.731
32.56000 0.110
32.58000 -0.068
32.60000 2.896
32.62000 3.919
32.64000 -3.572
32.66000 -1.762
32.68000 3.189
32.70000 5.528
32.72000 0.479
32.74000 5.855
32.76000 2.000
32.78000 0.289
32.80000 -1.206
32.82000 2.281
32.84000 0.229
32.86000 0.835
32.88000 -1.039
32.90000 -0.276
32.92000 1.713
32.94000 -1.209
32.96000 2.990
32.98000 1.981
33.00000 2.413
33.02000 -1.258
33.04000 -0.366
33.06000 0.573
33.08000 6.466
33.10000 6.119
33.12000 4.686
33.14000 -0.150
33.16000 -2.514
33.18000 -1.450
33.20000 0.586
33.22000 4.918
33.24000 4.056
33.26000 4.906
33.28000 2.426
33.30000 3.166
33.32000 -0.427
33.34000 4.740
33.36000 -0.318
33.38000 1.038
33.40000 2.221
33.42000 2.303
33.44000 4.853
33.46000 4.282
33.48000 -1.673
33.50000 1.343
33.52000 -1.128
33.54000 0.011
33.56000 1.902
33.58000 5.611
33.60000 2.802
33.62000 4.730
33.64000 6.420
33.66000 4.650
33.68000 9.245
33.70000 7.004
33.72000 6.524
33.74000 -1.039
33.76000 -1.851
33.78000 -1.629
33.80000 1.558
33.82000 4.102
33.84000 4.400
33.86000 1.487
33.88000 2.995
33.90000 4.387
33.92000 3.493
33.94000 1.762
33.96000 3.565
33.98000 2.966
34.00000 2.299
34.02000 -0.884
34.04000 -3.549
34.06000 0.448
34.08000 4.246
34.10000 2.367
34.12000 3.150
34.14000 4.010
34.16000 6.044
34.18000 9.772
34.20000 3.129
34.22000 1.302
34.24000 3.557
34.26000 1.717
34.28000 2.951
34.30000 6.872
34.32000 4.543
34.34000 4.117
34.36000 3.617
34.38000 0.240
34.40000 -0.623
34.42000 3.676
34.44000 5.372
34.46000 5.949
34.48000 4.625
34.50000 4.644
34.52000 2.799
34.54000 1.752
34.56000 3.839
34.58000 4.640
34.60000 1.575
34.62000 0.787
34.64000 2.059
34.66000 -1.322
34.68000 1.261
34.70000 2.330
34.72000 3.052
34.74000 8.312
34.76000 4.875
34.78000 4.164
34.80000 6.502
34.82000 3.946
34.84000 -0.420
34.86000 0.002
34.88000 1.489
34.90000 3.058
34.92000 2.552
34.94000 3.816
34.96000 1.449
34.98000 0.594
35.00000 -1.171
35.02000 1.992
35.04000 -0.069
35.06000 5.094
35.08000 5.406
35.10000 4.802
35.12000 3.278
35.14000 2.989
35.16000 4.607
35.18000 1.509
35.20000 2.701
35.22000 5.024
35.24000 5.555
35.26000 4.245
35.28000 2.782
35.30000 6.130
35.32000 6.814
35.34000 4.090
35.36000 2.858
35.38000 -3.514
35.40000 -0.290
35.42000 2.460
35.44000 2.162
35.46000 1.197
35.48000 1.378
35.50000 4.715
35.52000 3.241
35.54000 0.450
35.56000 -0.578
35.58000 -0.001
35.60000 -0.187
35.62000 -3.509
35.64000 2.492
35.66000 6.518
35.68000 6.158
35.70000 1.733
35.72000 0.246
35.74000 2.757
35.76000 2.318
35.78000 1.614
35.80000 2.434
35.82000 -1.144
35.84000 -1.195
35.86000 0.748
35.88000 4.146
35.90000 6.505
35.92000 6.413
35.94000 2.396
35.96000 3.919
35.98000 -1.616
36.00000 -2.302
36.02000 2.936
36.04000 3.630
36.06000 0.207
36.08000 4.599
36.10000 4.367
36.12000 7.644
36.14000 4.814
36.16000 1.460
36.18000 1.469
36.20000 0.668
36.22000 -2.007
36.24000 1.912
36.26000 4.055
36.28000 0.892
36.30000 -0.257
36.32000 -0.449
36.34000 -0.577
36.36000 1.770
36.38000 1.199
36.40000 -0.398
36.42000 -0.399
36.44000 -3.556
36.46000 1.781
36.48000 1.051
36.50000 -3.568
36.52000 4.120
36.54000 3.360
36.56000 -1.706
36.58000 3.133
36.60000 0.690
36.62000 -0.029
36.64000 0.311
36.66000 2.310
36.68000 2.778
36.70000 -0.148
36.72000 -1.997
36.74000 -0.012
36.76000 0.243
36.78000 1.037
36.80000 -1.381
36.82000 -1.710
36.84000 3.587
36.86000 2.261
36.88000 2.682
36.90000 4.985
36.92000 3.890
36.94000 4.383
36.96000 5.361
36.98000 3.546
37.00000 -0.107
37.02000 2.993
37.04000 -0.291
37.06000 -3.595
37.08000 3.774
37.10000 5.956
37.12000 5.333
37.14000 1.417
37.16000 -1.570
37.18000 3.561
37.20000 -0.750
37.22000 1.705
37.24000 2.278
37.26000 3.522
37.28000 1.149
37.30000 1.243
37.32000 3.730
37.34000 7.393
37.36000 5.916
37.38000 6.623
37.40000 6.222
37.42000 -3.429
37.44000 0.821
37.46000 7.338
37.48000 5.031
37.50000 3.951
37.52000 4.447
37.54000 3.639
37.56000 10.416
37.58000 9.945
37.60000 7.994
37.62000 0.548
37.64000 3.926
37.66000 8.241
37.68000 8.960
37.70000 10.607
37.72000 10.419
37.74000 11.262
37.76000 10.762
37.78000 10.981
37.80000 11.866
37.82000 13.512
37.84000 12.460
37.86000 11.739
37.88000 11.044
37.90000 7.952
37.92000 6.928
37.94000 9.918
37.96000 11.224
37.98000 15.094
38.00000 15.535
38.02000 16.336
38.04000 17.183
38.06000 22.674
38.08000 17.818
38.10000 17.046
38.12000 21.218
38.14000 23.659
38.16000 21.485
38.18000 21.646
38.20000 25.648
38.22000 19.352
38.24000 21.557
38.26000 23.865
38.28000 23.105
38.30000 24.843
38.32000 24.429
38.34000 30.707
38.36000 29.879
38.38000 26.947
38.40000 27.966
38.42000 32.420
38.44000 28.779
38.46000 28.296
38.48000 33.175
38.50000 37.935
38.52000 37.782
38.54000 34.397
38.56000 37.890
38.58000 42.118
38.60000 49.525
38.62000 45.760
38.64000 47.160
38.66000 52.746
38.68000 53.436
38.70000 54.264
38.72000 55.528
38.74000 57.690
38.76000 57.226
38.78000 64.941
38.80000 73.379
38.82000 69.869
38.84000 70.969
38.86000 75.465
38.88000 83.259
38.90000 87.025
38.92000 87.584
38.94000 89.211
38.96000 90.792
38.98000 95.784
39.00000 104.515
39.02000 108.024
39.04000 117.470
39.06000 120.214
39.08000 123.278
39.10000 126.526
39.12000 134.886
39.14000 138.924
39.16000 146.195
39.18000 158.907
39.20000 172.243
39.22000 181.091
39.24000 189.852
39.26000 195.793
39.28000 207.142
39.30000 216.262
39.32000 230.452
39.34000 251.745
39.36000 269.779
39.38000 284.555
39.40000 304.223
39.42000 318.241
39.44000 324.766
39.46000 344.911
39.48000 365.499
39.50000 386.741
39.52000 407.038
39.54000 437.415
39.56000 460.442
39.58000 476.174
39.60000 504.421
39.62000 520.389
39.64000 539.683
39.66000 556.540
39.68000 577.386
39.70000 592.593
39.72000 622.182
39.74000 641.829
39.76000 660.028
39.78000 679.501
39.80000 694.101
39.82000 699.617
39.84000 711.980
39.86000 720.354
39.88000 719.077
39.90000 715.060
39.92000 722.300
39.94000 717.428
39.96000 712.203
39.98000 696.618
40.00000 672.094
40.02000 655.283
40.04000 645.552
40.06000 635.854
40.08000 622.817
40.10000 605.745
40.12000 573.252
40.14000 553.393
40.16000 539.036
40.18000 519.047
40.20000 480.773
40.22000 452.199
40.24000 425.282
40.26000 417.404
40.28000 392.645
40.30000 364.250
40.32000 341.137
40.34000 324.796
40.36000 301.842
40.38000 293.641
40.40000 276.461
40.42000 258.113
40.44000 236.113
40.46000 222.402
40.48000 211.413
40.50000 197.018
40.52000 180.147
40.54000 175.261
40.56000 161.169
40.58000 152.345
40.60000 146.847
40.62000 134.543
40.64000 125.154
40.66000 117.775
40.68000 111.522
40.70000 107.396
40.72000 101.218
40.74000 91.580
40.76000 87.332
40.78000 85.451
40.80000 80.970
40.82000 69.537
40.84000 70.015
40.86000 65.646
40.88000 61.856
40.90000 55.672
40.92000 53.375
40.94000 49.293
40.96000 44.467
40.98000 43.429
41.00000 39.222
41.02000 38.899
41.04000 35.797
41.06000 38.400
41.08000 35.679
41.10000 34.474
41.12000 31.062
41.14000 29.538
41.16000 27.975
41.18000 26.843
41.20000 27.256
41.22000 24.859
41.24000 27.972
41.26000 20.186
41.28000 17.920
41.30000 16.570
41.32000 19.011
41.34000 19.592
41.36000 17.779
41.38000 16.429
41.40000 14.503
41.42000 14.308
41.44000 11.114
41.46000 11.354
41.48000 15.071
41.50000 14.265
41.52000 11.509
41.54000 9.639
41.56000 9.304
41.58000 5.866
41.60000 8.925
41.62000 10.095
41.64000 8.776
41.66000 8.168
41.68000 7.207
41.70000 4.629
41.72000 5.794
41.74000 8.782
41.76000 5.957
41.78000 0.220
41.80000 1.093
41.82000 6.605
41.84000 6.637
41.86000 0.780
41.88000 -3.473
41.90000 2.462
41.92000 4.900
41.94000 2.742
41.96000 0.788
41.98000 3.141
42.00000 2.450
42.02000 1.946
42.04000 0.432
42.06000 2.153
42.08000 2.145
42.10000 1.911
42.12000 1.203
42.14000 -0.260
42.16000 1.659
42.18000 2.031
42.20000 -0.272
42.22000 0.328
42.24000 2.551
42.26000 -1.720
42.28000 -2.108
42.30000 0.028
42.32000 2.532
42.34000 1.390
42.36000 0.908
42.38000 3.231
42.40000 4.373
42.42000 -0.210
42.44000 -3.389
42.46000 0.393
42.48000 0.810
42.50000 -1.113
42.52000 1.159
42.54000 -2.402
42.56000 -2.809
42.58000 1.052
42.60000 0.092
42.62000 0.334
42.64000 -1.744
42.66000 0.580
42.68000 3.351
42.70000 3.274
42.72000 2.228
42.74000 0.480
42.76000 -0.571
42.78000 -1.018
42.80000 -3.325
42.82000 -2.964
42.84000 -0.087
42.86000 0.798
42.88000 -1.062
42.90000 0.881
42.92000 1.117
42.94000 -1.008
42.96000 3.144
42.98000 4.248
43.00000 1.809
43.02000 1.072
43.04000 0.204
43.06000 1.801
43.08000 1.074
43.10000 -1.973
43.12000 -0.854
43.14000 0.492
43.16000 1.122
43.18000 0.476
43.20000 -1.383
43.22000 -3.252
43.24000 -0.016
43.26000 1.643
43.28000 -1.406
43.30000 -2.406
43.32000 0.627
43.34000 1.136
43.36000 2.143
43.38000 2.265
43.40000 2.241
43.42000 1.878
43.44000 1.967
43.46000 1.040
43.48000 2.883
43.50000 2.293
43.52000 -0.684
43.54000 1.577
43.56000 4.333
43.58000 2.596
43.60000 2.166
43.62000 1.508
43.64000 1.419
43.66000 1.991
43.68000 1.627
43.70000 0.007
43.72000 -0.361
43.74000 1.765
43.76000 1.257
43.78000 4.702
43.80000 6.873
43.82000 4.287
43.84000 0.690
43.86000 1.289
43.88000 2.778
43.90000 4.057
43.92000 3.558
43.94000 2.715
43.96000 3.200
43.98000 4.837
44.00000 2.659
44.02000 1.826
44.04000 0.626
44.06000 -3.146
44.08000 -0.359
44.10000 -1.696
44.12000 0.522
44.14000 6.792
44.16000 1.839
44.18000 1.500
44.20000 4.401
44.22000 2.703
44.24000 -0.088
44.26000 3.104
44.28000 3.358
44.30000 2.068
44.32000 0.559
44.34000 -1.084
44.36000 3.143
44.38000 4.407
44.40000 1.988
44.42000 5.607
44.44000 2.331
44.46000 1.873
44.48000 0.835
44.50000 2.379
44.52000 0.645
44.54000 4.273
44.56000 7.430
44.58000 2.781
44.60000 1.805
44.62000 0.644
44.64000 2.491
44.66000 2.238
44.68000 0.703
44.70000 3.984
44.72000 2.052
44.74000 4.516
44.76000 0.188
44.78000 -0.810
44.80000 1.527
44.82000 -0.190
44.84000 3.110
44.86000 3.438
44.88000 4.835
44.90000 4.478
44.92000 3.417
44.94000 3.040
44.96000 0.312
44.98000 -2.673
45.00000 -1.832
45.02000 0.200
45.04000 6.635
45.06000 6.257
45.08000 7.018
45.10000 5.622
45.12000 7.790
45.14000 8.496
45.16000 5.156
45.18000 2.280
45.20000 3.611
45.22000 3.504
45.24000 7.134
45.26000 4.041
45.28000 7.639
45.30000 11.722
45.32000 7.296
45.34000 9.807
45.36000 13.551
45.38000 10.598
45.40000 9.876
45.42000 8.991
45.44000 7.296
45.46000 8.680
45.48000 11.330
45.50000 14.490
45.52000 14.096
45.54000 10.108
45.56000 16.625
45.58000 17.869
45.60000 14.680
45.62000 14.296
45.64000 15.390
45.66000 15.854
45.68000 16.542
45.70000 16.459
45.72000 20.019
45.74000 24.386
45.76000 19.591
45.78000 19.607
45.80000 18.741
45.82000 26.544
45.84000 26.588
45.86000 23.357
45.88000 24.369
45.90000 28.468
45.92000 31.959
45.94000 33.641
45.96000 35.963
45.98000 34.965
46.00000 37.842
46.02000 39.699
46.04000 40.908
46.06000 42.261
46.08000 46.282
46.10000 48.356
46.12000 43.205
46.14000 40.457
46.16000 49.494
46.18000 52.901
46.20000 55.212
46.22000 52.943
46.24000 53.581
46.26000 59.139
46.28000 57.412
46.30000 55.093
46.32000 59.411
46.34000 63.933
46.36000 65.998
46.38000 66.693
46.40000 66.492
46.42000 69.114
46.44000 71.146
46.46000 73.300
46.48000 75.740
46.50000 74.536
46.52000 71.550
46.54000 71.709
46.56000 74.447
46.58000 74.513
46.60000 77.098
46.62000 75.833
46.64000 76.296
46.66000 75.943
46.68000 74.992
46.70000 79.480
46.72000 72.275
46.74000 71.177
46.76000 71.145
46.78000 72.142
46.80000 70.245
46.82000 66.071
46.84000 62.564
46.86000 64.695
46.88000 62.203
46.90000 58.652
46.92000 59.123
46.94000 56.149
46.96000 55.600
46.98000 54.616
47.00000 48.070
47.02000 45.712
47.04000 46.617
47.06000 43.223
47.08000 44.328
47.10000 39.897
47.12000 38.034
47.14000 38.314
47.16000 39.438
47.18000 38.632
47.20000 31.658
47.22000 31.835
47.24000 30.301
47.26000 28.044
47.28000 27.834
47.30000 25.355
47.32000 24.435
47.34000 20.608
47.36000 16.078
47.38000 14.140
47.40000 12.489
47.42000 17.449
47.44000 16.064
47.46000 13.444
47.48000 13.801
47.50000 12.707
47.52000 14.870
47.54000 14.440
47.56000 8.261
47.58000 6.923
47.60000 8.791
47.62000 7.733
47.64000 4.626
47.66000 7.287
47.68000 7.983
47.70000 6.963
47.72000 6.103
47.74000 4.551
47.76000 5.571
47.78000 6.830
47.80000 6.945
47.82000 4.170
47.84000 0.926
47.86000 -2.884
47.88000 6.321
47.90000 4.043
47.92000 3.316
47.94000 2.602
47.96000 4.068
47.98000 2.091
48.00000 4.227
48.02000 3.635
48.04000 3.558
48.06000 4.937
48.08000 3.000
48.10000 4.327
48.12000 6.503
48.14000 -1.081
48.16000 -0.279
48.18000 3.742
48.20000 0.689
48.22000 0.850
48.24000 6.242
48.26000 4.183
48.28000 2.819
48.30000 4.081
48.32000 6.407
48.34000 3.592
48.36000 4.777
48.38000 2.910
48.40000 -2.368
48.42000 -0.566
48.44000 -0.444
48.46000 2.005
48.48000 -2.758
48.50000 -0.755
48.52000 2.789
48.54000 1.740
48.56000 0.370
48.58000 1.752
48.60000 2.618
48.62000 4.617
48.64000 5.404
48.66000 5.454
48.68000 3.308
48.70000 -0.450
48.72000 3.326
48.74000 3.485
48.76000 -2.698
48.78000 1.887
48.80000 5.692
48.82000 2.522
48.84000 4.089
48.86000 5.560
48.88000 2.220
48.90000 2.603
48.92000 2.363
48.94000 3.295
48.96000 0.634
48.98000 0.619
49.00000 -2.082
49.02000 -1.646
49.04000 -1.258
49.06000 5.547
49.08000 4.333
49.10000 4.451
49.12000 1.663
49.14000 -0.085
49.16000 0.857
49.18000 -1.338
49.20000 -2.449
49.22000 -0.853
49.24000 -0.679
49.26000 -0.581
49.28000 0.894
49.30000 5.848
49.32000 2.068
49.34000 0.200
49.36000 3.578
49.38000 3.891
49.40000 1.787
49.42000 3.711
49.44000 8.722
49.46000 3.558
49.48000 2.897
49.50000 3.428
49.52000 3.003
49.54000 4.638
49.56000 4.095
49.58000 1.824
49.60000 -0.233
49.62000 0.136
49.64000 1.446
49.66000 3.776
49.68000 3.359
49.70000 1.483
49.72000 0.129
49.74000 0.654
49.76000 3.511
49.78000 2.903
49.80000 1.200
49.82000 0.259
49.84000 2.585
49.86000 2.321
49.88000 -2.641
49.90000 1.254
49.92000 0.708
49.94000 1.570
49.96000 2.847
49.98000 2.671
50.00000 4.314
50.02000 2.173
50.04000 0.813
50.06000 0.271
50.08000 -0.171
50.10000 -2.628
50.12000 0.159
50.14000 -1.632
50.16000 -1.186
50.18000 -1.848
50.20000 -0.403
50.22000 -1.513
50.24000 1.260
50.26000 -0.123
50.28000 -0.637
50.30000 3.765
50.32000 1.567
50.34000 -0.814
50.36000 -2.389
50.38000 -0.892
50.40000 1.223
50.42000 -2.275
50.44000 -1.889
50.46000 -0.136
50.48000 0.374
50.50000 -1.240
50.52000 2.516
50.54000 0.733
50.56000 -1.415
50.58000 -1.530
50.60000 -1.445
50.62000 -0.652
50.64000 5.911
50.66000 5.297
50.68000 2.130
50.70000 2.383
50.72000 2.911
50.74000 5.466
50.76000 4.681
50.78000 1.913
50.80000 0.164
50.82000 1.848
50.84000 1.122
50.86000 -2.543
50.88000 0.491
50.90000 1.563
50.92000 -1.691
50.94000 -0.742
50.96000 0.431
50.98000 0.823
51.00000 -0.415
51.02000 -2.617
51.04000 -1.661
51.06000 0.815
51.08000 2.086
51.10000 3.957
51.12000 3.642
51.14000 0.824
51.16000 0.894
51.18000 0.518
51.20000 3.720
51.22000 2.207
51.24000 -1.550
51.26000 -0.333
51.28000 1.818
51.30000 2.061
51.32000 -2.604
51.34000 -2.406
51.36000 -1.338
51.38000 0.153
51.40000 -1.302
51.42000 1.045
51.44000 2.604
51.46000 -0.124
51.48000 3.244
51.50000 2.524
51.52000 3.862
51.54000 2.613
51.56000 2.701
51.58000 4.209
51.60000 2.327
51.62000 -0.822
51.64000 -2.585
51.66000 1.423
51.68000 1.919
51.70000 2.780
51.72000 -0.761
51.74000 0.688
51.76000 1.059
51.78000 2.386
51.80000 5.279
51.82000 4.602
51.84000 5.905
51.86000 4.329
51.88000 6.584
51.90000 3.727
51.92000 -2.011
51.94000 0.544
51.96000 6.075
51.98000 1.581
52.00000 -1.826
52.02000 -0.498
52.04000 3.051
52.06000 2.548
52.08000 1.036
52.10000 0.159
52.12000 -1.563
52.14000 2.376
52.16000 1.354
52.18000 -2.341
52.20000 3.494
52.22000 3.374
52.24000 3.209
52.26000 -0.258
52.28000 -1.080
52.30000 3.474
52.32000 2.667
52.34000 2.300
52.36000 2.059
52.38000 2.702
52.40000 4.667
52.42000 3.365
52.44000 4.509
52.46000 2.995
52.48000 3.654
52.50000 4.226
52.52000 2.057
52.54000 -0.771
52.56000 -2.498
52.58000 2.115
52.60000 4.990
52.62000 8.946
52.64000 6.369
52.66000 7.529
52.68000 1.907
52.70000 1.488
52.72000 2.569
52.74000 2.494
52.76000 4.317
52.78000 7.194
52.80000 3.219
52.82000 2.407
52.84000 2.552
52.86000 2.300
52.88000 2.563
52.90000 2.091
52.92000 3.857
52.94000 5.432
52.96000 3.342
52.98000 8.172
53.00000 4.809
53.02000 1.105
53.04000 4.763
53.06000 2.788
53.08000 3.397
53.10000 5.487
53.12000 4.263
53.14000 2.283
53.16000 2.365
53.18000 -1.029
53.20000 0.258
53.22000 1.207
53.24000 4.587
53.26000 3.060
53.28000 4.162
53.30000 2.454
53.32000 3.091
53.34000 1.877
53.36000 0.440
53.38000 -2.405
53.40000 -1.508
53.42000 -0.409
53.44000 -1.101
53.46000 1.509
53.48000 5.711
53.50000 4.775
53.52000 4.981
53.54000 1.714
53.56000 -1.360
53.58000 1.865
53.60000 1.238
53.62000 -2.119
53.64000 -0.831
53.66000 2.636
53.68000 4.499
53.70000 3.236
53.72000 0.857
53.74000 -1.223
53.76000 0.868
53.78000 2.677
53.80000 0.840
53.82000 -0.716
53.84000 1.902
53.86000 -0.107
53.88000 2.811
53.90000 5.307
53.92000 5.774
53.94000 4.807
53.96000 0.086
53.98000 2.334
54.00000 3.745
54.02000 4.041
54.04000 3.391
54.06000 1.811
54.08000 0.380
54.10000 -0.633
54.12000 0.979
54.14000 1.938
54.16000 -2.162
54.18000 -1.890
54.20000 0.958
54.22000 1.414
54.24000 0.450
54.26000 2.389
54.28000 -0.385
54.30000 -2.499
54.32000 0.828
54.34000 4.904
54.36000 4.415
54.38000 5.686
54.40000 2.606
54.42000 2.123
54.44000 4.701
54.46000 0.953
54.48000 -2.036
54.50000 -0.330
54.52000 0.083
54.54000 -2.498
54.56000 0.523
54.58000 1.862
54.60000 4.564
54.62000 6.436
54.64000 0.279
54.66000 -0.400
54.68000 -2.185
54.70000 -1.092
54.72000 0.352
54.74000 2.649
54.76000 0.236
54.78000 0.595
54.80000 3.446
54.82000 1.579
54.84000 0.560
54.86000 0.543
54.88000 0.745
54.90000 -0.039
54.92000 1.677
54.94000 2.033
54.96000 2.970
54.98000 2.221
55.00000 2.319
55.02000 2.002
55.04000 2.239
55.06000 0.160
55.08000 0.983
55.10000 2.311
55.12000 5.408
55.14000 2.023
55.16000 1.514
55.18000 2.020
55.20000 0.776
55.22000 1.931
55.24000 1.133
55.26000 0.830
55.28000 1.481
55.30000 2.140
55.32000 -2.408
55.34000 -2.480
55.36000 -0.221
55.38000 1.509
55.40000 2.563
55.42000 1.453
55.44000 4.022
55.46000 1.498
55.48000 3.050
55.50000 6.340
55.52000 2.570
55.54000 1.384
55.56000 0.338
55.58000 3.987
55.60000 2.958
55.62000 1.499
55.64000 -2.465
55.66000 -1.950
55.68000 -0.944
55.70000 -1.202
55.72000 1.720
55.74000 2.328
55.76000 4.118
55.78000 2.383
55.80000 -0.772
55.82000 -1.263
55.84000 0.818
55.86000 2.181
55.88000 2.752
55.90000 0.574
55.92000 2.835
55.94000 4.714
55.96000 1.178
55.98000 0.912
56.00000 -1.902
56.02000 -1.986
56.04000 -0.787
56.06000 0.371
56.08000 2.294
56.10000 3.185
56.12000 4.225
56.14000 3.568
56.16000 2.546
56.18000 1.290
56.20000 4.609
56.22000 0.630
56.24000 0.273
56.26000 0.635
56.28000 0.119
56.30000 -0.270
56.32000 1.334
56.34000 -0.072
56.36000 -1.787
56.38000 -1.002
56.40000 1.224
56.42000 5.772
56.44000 4.945
56.46000 1.467
56.48000 1.458
56.50000 -0.604
56.52000 4.158
56.54000 4.015
56.56000 3.694
56.58000 3.238
56.60000 1.622
56.62000 0.779
56.64000 -1.498
56.66000 -0.388
56.68000 0.565
56.70000 -1.165
56.72000 -1.727
56.74000 1.619
56.76000 2.531
56.78000 -0.309
56.80000 -1.827
56.82000 -0.295
56.84000 3.036
56.86000 1.982
56.88000 -0.490
56.90000 -0.387
56.92000 0.608
56.94000 3.098
56.96000 2.170
56.98000 2.192
57.00000 0.409
57.02000 1.776
57.04000 3.583
57.06000 1.451
57.08000 1.152
57.10000 1.741
57.12000 3.015
57.14000 5.057
57.16000 3.023
57.18000 -1.097
57.20000 -2.412
57.22000 4.158
57.24000 8.579
57.26000 3.776
57.28000 1.036
57.30000 2.855
57.32000 3.316
57.34000 1.337
57.36000 -2.217
57.38000 1.139
57.40000 1.871
57.42000 1.500
57.44000 2.094
57.46000 8.038
57.48000 5.520
57.50000 1.527
57.52000 0.018
57.54000 0.392
57.56000 0.530
57.58000 3.130
57.60000 3.230
57.62000 1.616
57.64000 -0.040
57.66000 0.580
57.68000 1.752
57.70000 3.362
57.72000 0.406
57.74000 2.642
57.76000 3.468
57.78000 3.499
57.80000 3.317
57.82000 4.214
57.84000 5.314
57.86000 3.682
57.88000 2.185
57.90000 -0.397
57.92000 3.428
57.94000 6.282
57.96000 7.605
57.98000 2.622
58.00000 -2.376
58.02000 -1.628
58.04000 0.375
58.06000 1.604
58.08000 0.791
58.10000 5.381
58.12000 1.339
58.14000 0.205
58.16000 1.806
58.18000 2.662
58.20000 5.657
58.22000 5.257
58.24000 -0.117
58.26000 0.252
58.28000 4.316
58.30000 7.155
58.32000 0.694
58.34000 -0.383
58.36000 3.308
58.38000 5.370
58.40000 4.086
58.42000 6.194
58.44000 5.544
58.46000 2.268
58.48000 0.789
58.50000 1.752
58.52000 1.185
58.54000 -2.315
58.56000 -1.325
58.58000 0.670
58.60000 0.060
58.62000 1.367
58.64000 2.914
58.66000 2.225
58.68000 1.756
58.70000 2.425
58.72000 2.201
58.74000 1.131
58.76000 3.198
58.78000 3.955
58.80000 1.752
58.82000 0.686
58.84000 -0.834
58.86000 0.433
58.88000 5.276
58.90000 5.988
58.92000 3.397
58.94000 3.146
58.96000 0.902
58.98000 1.027
59.00000 3.943
59.02000 3.912
59.04000 1.415
59.06000 3.591
59.08000 2.729
59.10000 1.664
59.12000 0.301
59.14000 3.038
59.16000 2.613
59.18000 1.381
59.20000 2.630
59.22000 4.942
59.24000 2.869
59.26000 3.372
59.28000 2.193
59.30000 1.783
59.32000 1.629
59.34000 0.598
59.36000 0.776
59.38000 4.891
59.40000 5.702
59.42000 0.147
59.44000 -2.315
59.46000 1.422
59.48000 3.539
59.50000 3.287
59.52000 3.208
59.54000 4.363
59.56000 5.351
59.58000 4.728
59.60000 5.522
59.62000 5.724
59.64000 3.837
59.66000 3.144
59.68000 4.311
59.70000 4.368
59.72000 3.015
59.74000 2.597
59.76000 5.970
59.78000 3.625
59.80000 1.950
59.82000 3.627
59.84000 3.871
59.86000 1.383
59.88000 5.960
59.90000 2.890
59.92000 0.445
59.94000 2.888
59.96000 3.570
59.98000 5.224
60.00000 3.945
60.02000 2.467
60.04000 3.163
60.06000 1.918
60.08000 -2.325
60.10000 0.280
60.12000 4.314
60.14000 2.304
60.16000 1.080
60.18000 -1.174
60.20000 -1.824
60.22000 1.286
60.24000 0.749
60.26000 1.543
60.28000 1.519
60.30000 2.360
60.32000 0.397
60.34000 -2.297
60.36000 1.937
60.38000 3.406
60.40000 4.685
60.42000 2.693
60.44000 2.923
60.46000 4.994
60.48000 2.535
60.50000 -0.404
60.52000 0.705
60.54000 -1.965
60.56000 -0.934
60.58000 2.902
60.60000 5.757
60.62000 5.378
60.64000 3.111
60.66000 2.580
60.68000 3.452
60.70000 -1.036
60.72000 0.161
60.74000 1.136
60.76000 0.346
60.78000 -0.853
60.80000 0.564
60.82000 2.058
60.84000 0.556
60.86000 -1.422
60.88000 4.757
60.90000 4.957
60.92000 1.132
60.94000 1.282
60.96000 -0.793
60.98000 1.294
61.00000 2.856
61.02000 4.349
61.04000 3.255
61.06000 -1.831
61.08000 -2.305
61.10000 0.046
61.12000 0.845
61.14000 -0.085
61.16000 0.259
61.18000 -2.299
61.20000 -0.378
61.22000 2.753
61.24000 4.264
61.26000 3.296
61.28000 0.774
61.30000 -0.614
61.32000 2.963
61.34000 -0.845
61.36000 -0.816
61.38000 2.799
61.40000 2.523
61.42000 2.301
61.44000 4.062
61.46000 4.608
61.48000 3.051
61.50000 1.177
61.52000 2.826
61.54000 4.782
61.56000 4.975
61.58000 3.179
61.60000 1.446
61.62000 0.260
61.64000 4.125
61.66000 0.259
61.68000 0.457
61.70000 3.803
61.72000 4.417
61.74000 2.732
61.76000 1.908
61.78000 1.130
61.80000 -2.276
61.82000 4.873
61.84000 5.513
61.86000 3.311
61.88000 4.083
61.90000 6.482
61.92000 4.485
61.94000 2.600
61.96000 1.617
61.98000 2.427
62.00000 2.539
62.02000 1.895
62.04000 5.352
62.06000 3.659
62.08000 2.564
62.10000 2.350
62.12000 2.774
62.14000 0.954
62.16000 1.044
62.18000 0.440
62.20000 4.308
62.22000 1.197
62.24000 6.503
62.26000 3.962
62.28000 1.014
62.30000 2.464
62.32000 2.874
62.34000 4.110
62.36000 2.778
62.38000 2.174
62.40000 0.273
62.42000 1.526
62.44000 4.896
62.46000 2.546
62.48000 2.081
62.50000 4.172
62.52000 -0.095
62.54000 0.515
62.56000 2.149
62.58000 3.104
62.60000 -0.270
62.62000 0.672
62.64000 0.568
62.66000 2.431
62.68000 3.137
62.70000 2.916
62.72000 2.536
62.74000 3.549
62.76000 3.879
62.78000 2.622
62.80000 1.927
62.82000 -2.258
62.84000 0.003
62.86000 -1.095
62.88000 1.352
62.90000 3.593
62.92000 3.455
62.94000 4.497
62.96000 3.636
62.98000 3.108
63.00000 2.657
63.02000 -0.004
63.04000 -2.250
63.06000 0.493
63.08000 2.913
63.10000 2.218
63.12000 2.346
63.14000 4.308
63.16000 3.387
63.18000 3.090
63.20000 4.016
63.22000 4.668
63.24000 5.807
63.26000 1.025
63.28000 -0.687
63.30000 1.640
63.32000 2.177
63.34000 2.695
63.36000 2.835
63.38000 1.820
63.40000 2.325
63.42000 1.716
63.44000 0.042
63.46000 0.009
63.48000 0.233
63.50000 0.170
63.52000 1.263
63.54000 2.479
63.56000 2.349
63.58000 3.170
63.60000 3.056
63.62000 2.101
63.64000 2.647
63.66000 1.242
63.68000 -2.206
63.70000 1.479
63.72000 4.013
63.74000 5.609
63.76000 2.231
63.78000 4.661
63.80000 3.492
63.82000 1.056
63.84000 1.491
63.86000 2.733
63.88000 1.441
63.90000 -0.375
63.92000 0.753
63.94000 0.019
63.96000 2.454
63.98000 2.740
64.00000 4.493
64.02000 -1.089
64.04000 -2.290
64.06000 1.752
64.08000 3.978
64.10000 2.270
64.12000 1.803
64.14000 1.961
64.16000 0.988
64.18000 1.031
64.20000 -1.552
64.22000 1.436
64.24000 1.978
64.26000 0.985
64.28000 2.715
64.30000 3.382
64.32000 0.458
64.34000 -1.447
64.36000 -1.922
64.38000 -0.144
64.40000 0.383
64.42000 1.773
64.44000 1.250
64.46000 1.684
64.48000 0.432
64.50000 0.894
64.52000 -0.402
64.54000 1.795
64.56000 -2.290
64.58000 -1.462
64.60000 0.107
64.62000 -0.019
64.64000 0.218
64.66000 1.880
64.68000 2.704
64.70000 5.748
64.72000 1.932
64.74000 -1.279
64.76000 0.619
64.78000 2.638
64.80000 2.636
64.82000 0.462
64.84000 0.375
64.86000 0.752
64.88000 0.200
64.90000 2.119
64.92000 -0.591
64.94000 1.336
64.96000 0.507
64.98000 0.979
65.00000 2.369
65.02000 -2.298
65.04000 -1.346
65.06000 1.554
65.08000 5.076
65.10000 2.135
65.12000 1.783
65.14000 3.248
65.16000 3.478
65.18000 -0.160
65.20000 -0.377
65.22000 -0.906
65.24000 -0.382
65.26000 1.839
65.28000 0.699
65.30000 0.630
65.32000 2.132
65.34000 3.368
65.36000 1.869
65.38000 1.746
65.40000 0.485
65.42000 3.830
65.44000 2.081
65.46000 1.174
65.48000 2.317
65.50000 1.248
65.52000 -1.690
65.54000 0.573
65.56000 0.510
65.58000 2.641
65.60000 0.419
65.62000 1.210
65.64000 -0.442
65.66000 1.096
65.68000 1.017
65.70000 -0.017
65.72000 -0.176
65.74000 -0.128
65.76000 -2.321
65.78000 -1.056
65.80000 0.300
65.82000 -0.526
65.84000 -0.258
65.86000 1.829
65.88000 0.166
65.90000 0.938
65.92000 -0.082
65.94000 -0.015
65.96000 0.899
65.98000 -1.156
66.00000 -0.410
66.02000 -0.114
66.04000 0.406
66.06000 -0.346
66.08000 2.311
66.10000 1.867
66.12000 -0.320
66.14000 0.218
66.16000 2.880
66.18000 2.513
66.20000 -0.073
66.22000 -2.352
66.24000 2.956
66.26000 2.352
66.28000 0.263
66.30000 -0.180
66.32000 3.227
66.34000 0.213
66.36000 0.277
66.38000 2.264
66.40000 2.177
66.42000 2.633
66.44000 -0.443
66.46000 0.545
66.48000 -1.230
66.50000 -0.052
66.52000 -2.369
66.54000 -0.035
66.56000 0.391
66.58000 -1.101
66.60000 -2.187
66.62000 0.856
66.64000 2.344
66.66000 2.025
66.68000 -0.293
66.70000 2.526
66.72000 2.900
66.74000 2.901
66.76000 5.003
66.78000 2.333
66.80000 2.387
66.82000 -1.767
66.84000 -0.050
66.86000 1.330
66.88000 4.012
66.90000 3.418
66.92000 -0.645
66.94000 1.029
66.96000 2.918
66.98000 1.798
67.00000 4.723
67.02000 6.575
67.04000 2.977
67.06000 4.393
67.08000 4.384
67.10000 4.600
67.12000 4.846
67.14000 3.309
67.16000 3.872
67.18000 5.356
67.20000 6.052
67.22000 6.451
67.24000 4.371
67.26000 4.454
67.28000 7.197
67.30000 9.722
67.32000 7.478
67.34000 5.143
67.36000 7.638
67.38000 8.699
67.40000 10.190
67.42000 9.323
67.44000 7.977
67.46000 9.952
67.48000 13.505
67.50000 12.606
67.52000 12.586
67.54000 12.386
67.56000 14.283
67.58000 13.715
67.60000 10.462
67.62000 13.881
67.64000 13.356
67.66000 13.511
67.68000 13.855
67.70000 19.769
67.72000 18.372
67.74000 16.185
67.76000 15.312
67.78000 13.496
67.80000 15.955
67.82000 19.735
67.84000 16.135
67.86000 15.146
67.88000 16.750
67.90000 15.249
67.92000 16.321
67.94000 17.126
67.96000 19.057
67.98000 17.073
68.00000 17.728
68.02000 16.896
68.04000 12.978
68.06000 15.239
68.08000 17.044
68.10000 14.045
68.12000 12.058
68.14000 12.347
68.16000 13.150
68.18000 9.999
68.20000 12.975
68.22000 13.238
68.24000 13.212
68.26000 12.931
68.28000 10.216
68.30000 8.870
68.32000 11.527
68.34000 12.200
68.36000 8.790
68.38000 8.335
68.40000 8.990
68.42000 6.437
68.44000 5.405
68.46000 6.638
68.48000 7.652
68.50000 10.425
68.52000 6.759
68.54000 5.229
68.56000 3.037
68.58000 6.321
68.60000 6.548
68.62000 4.293
68.64000 2.656
68.66000 4.412
68.68000 3.575
68.70000 2.755
68.72000 0.165
68.74000 0.410
68.76000 4.072
68.78000 2.503
68.80000 1.505
68.82000 0.303
68.84000 2.509
68.86000 2.268
68.88000 4.004
68.90000 2.203
68.92000 1.321
68.94000 -0.238
68.96000 -0.539
68.98000 2.497
69.00000 0.583
69.02000 0.255
69.04000 3.156
69.06000 0.284
69.08000 -1.046
69.10000 -0.145
69.12000 -1.467
69.14000 0.931
69.16000 0.558
69.18000 2.933
69.20000 3.075
69.22000 -0.764
69.24000 -0.432
69.26000 0.976
69.28000 1.242
69.30000 0.557
69.32000 1.519
69.34000 -0.559
69.36000 -2.255
69.38000 -1.385
69.40000 -2.088
69.42000 -0.631
69.44000 1.259
69.46000 3.877
69.48000 2.087
69.50000 1.372
69.52000 -0.194
69.54000 3.103
69.56000 1.692
69.58000 0.820
69.60000 1.483
69.62000 2.329
69.64000 4.124
69.66000 2.919
69.68000 -1.713
69.70000 2.608
69.72000 3.774
69.74000 2.898
69.76000 0.435
69.78000 2.884
69.80000 2.437
69.82000 3.100
69.84000 4.321
69.86000 3.081
69.88000 0.856
69.90000 1.460
69.92000 2.555
69.94000 5.028
69.96000 3.699
69.98000 -2.194
70.00000 -1.075
70.02000 0.934
70.04000 1.874
70.06000 0.859
70.08000 2.188
70.10000 -0.761
70.12000 4.087
70.14000 2.169
70.16000 2.333
70.18000 2.809
70.20000 3.022
70.22000 2.723
70.24000 2.454
70.26000 -1.496
70.28000 0.361
70.30000 3.679
70.32000 2.119
70.34000 -1.214
70.36000 0.498
70.38000 2.089
70.40000 3.498
70.42000 1.079
70.44000 1.909
70.46000 -1.239
70.48000 0.837
70.50000 1.591
70.52000 1.824
70.54000 1.792
70.56000 0.767
70.58000 1.718
70.60000 -1.777
70.62000 0.125
70.64000 0.446
70.66000 -1.638
70.68000 -0.758
70.70000 1.785
70.72000 -0.785
70.74000 1.543
70.76000 1.288
70.78000 1.595
70.80000 2.390
70.82000 2.415
70.84000 2.648
70.86000 4.254
70.88000 7.617
70.90000 1.846
70.92000 -2.199
70.94000 0.423
70.96000 2.830
70.98000 3.956
71.00000 4.432
71.02000 0.155
71.04000 0.858
71.06000 1.304
71.08000 2.009
71.10000 -0.991
71.12000 -1.196
71.14000 1.739
71.16000 3.077
71.18000 -0.110
71.20000 0.796
71.22000 5.545
71.24000 5.529
71.26000 4.550
71.28000 1.919
71.30000 0.563
71.32000 0.690
71.34000 2.792
71.36000 0.382
71.38000 2.912
71.40000 2.475
71.42000 2.466
71.44000 4.964
71.46000 3.230
71.48000 -2.100
71.50000 -2.174
71.52000 -0.582
71.54000 2.992
71.56000 3.868
71.58000 4.345
71.60000 2.009
71.62000 2.017
71.64000 1.334
71.66000 4.521
71.68000 -0.472
71.70000 -1.926
71.72000 1.688
71.74000 4.846
71.76000 2.399
71.78000 0.325
71.80000 0.211
71.82000 0.361
71.84000 2.382
71.86000 4.415
71.88000 -0.292
71.90000 0.232
71.92000 1.907
71.94000 1.342
71.96000 1.639
71.98000 3.963
72.00000 0.974
72.02000 2.867
72.04000 5.244
72.06000 0.150
72.08000 -0.957
72.10000 -0.228
72.12000 -2.133
72.14000 1.667
72.16000 2.082
72.18000 -0.158
72.20000 0.245
72.22000 2.229
72.24000 1.756
72.26000 0.450
72.28000 1.909
72.30000 1.328
72.32000 4.521
72.34000 2.293
72.36000 0.354
72.38000 -2.125
72.40000 -0.998
72.42000 -0.500
72.44000 1.041
72.46000 0.105
72.48000 1.062
72.50000 2.093
72.52000 6.873
72.54000 3.691
72.56000 1.676
72.58000 2.657
72.60000 1.156
72.62000 1.086
72.64000 3.463
72.66000 5.312
72.68000 0.934
72.70000 2.936
72.72000 5.425
72.74000 2.673
72.76000 2.087
72.78000 1.104
72.80000 1.948
72.82000 1.795
72.84000 1.113
72.86000 4.768
72.88000 6.714
72.90000 2.719
72.92000 -0.664
72.94000 2.071
72.96000 0.775
72.98000 -0.366
73.00000 2.776
73.02000 5.907
73.04000 7.120
73.06000 6.899
73.08000 6.651
73.10000 4.605
73.12000 5.715
73.14000 4.106
73.16000 2.422
73.18000 5.773
73.20000 7.861
73.22000 5.407
73.24000 4.634
73.26000 3.290
73.28000 -0.029
73.30000 -2.069
73.32000 3.160
73.34000 6.189
73.36000 4.960
73.38000 1.649
73.40000 3.047
73.42000 -1.298
73.44000 1.529
73.46000 5.313
73.48000 1.728
73.50000 1.596
73.52000 4.513
73.54000 2.336
73.56000 2.930
73.58000 3.900
73.60000 4.749
73.62000 3.755
73.64000 0.037
73.66000 2.064
73.68000 2.644
73.70000 2.514
73.72000 0.699
73.74000 0.806
73.76000 2.591
73.78000 3.395
73.80000 3.930
73.82000 4.869
73.84000 4.659
73.86000 4.826
73.88000 4.156
73.90000 3.354
73.92000 3.135
73.94000 0.237
73.96000 0.503
73.98000 3.108
74.00000 3.162
74.02000 3.826
74.04000 5.506
74.06000 3.298
74.08000 4.588
74.10000 5.177
74.12000 5.044
74.14000 0.258
74.16000 2.830
74.18000 4.032
74.20000 1.581
74.22000 0.954
74.24000 -2.078
74.26000 -0.362
74.28000 2.981
74.30000 6.061
74.32000 3.523
74.34000 6.325
74.36000 2.512
74.38000 0.001
74.40000 3.102
74.42000 1.765
74.44000 0.908
74.46000 0.395
74.48000 2.586
74.50000 1.740
74.52000 2.677
74.54000 1.534
74.56000 3.081
74.58000 0.418
74.60000 -1.971
74.62000 3.536
74.64000 2.926
74.66000 4.290
74.68000 3.402
74.70000 5.004
74.72000 4.126
74.74000 2.479
74.76000 3.204
74.78000 5.218
74.80000 2.059
74.82000 2.162
74.84000 1.508
74.86000 0.024
74.88000 -0.480
74.90000 1.530
74.92000 2.022
74.94000 2.650
74.96000 3.811
74.98000 4.472
75.00000 5.289
75.02000 5.056
75.04000 5.560
75.06000 1.701
75.08000 0.898
75.10000 -0.469
75.12000 -0.154
75.14000 3.141
75.16000 5.584
75.18000 4.530
75.20000 3.852
75.22000 2.508
75.24000 1.599
75.26000 2.278
75.28000 2.517
75.30000 3.235
75.32000 1.930
75.34000 3.140
75.36000 3.971
75.38000 4.263
75.40000 -0.490
75.42000 -2.055
75.44000 1.248
75.46000 2.390
75.48000 2.050
75.50000 0.817
75.52000 2.070
75.54000 3.160
75.56000 0.952
75.58000 4.751
75.60000 6.421
75.62000 6.436
75.64000 -0.257
75.66000 -1.669
75.68000 1.694
75.70000 1.966
75.72000 2.909
75.74000 2.728
75.76000 5.686
75.78000 6.055
75.80000 5.458
75.82000 3.430
75.84000 -0.657
75.86000 1.398
75.88000 3.822
75.90000 2.175
75.92000 2.419
75.94000 3.179
75.96000 4.915
75.98000 6.433
76.00000 3.791
76.02000 3.454
76.04000 3.198
76.06000 -0.404
76.08000 0.327
76.10000 4.566
76.12000 2.885
76.14000 2.203
76.16000 0.503
76.18000 2.253
76.20000 2.620
76.22000 1.226
76.24000 0.286
76.26000 4.605
76.28000 4.559
76.30000 2.623
76.32000 3.028
76.34000 1.921
76.36000 5.179
76.38000 5.463
76.40000 6.640
76.42000 2.751
76.44000 2.950
76.46000 4.804
76.48000 5.558
76.50000 6.111
76.52000 3.522
76.54000 0.075
76.56000 0.748
76.58000 2.706
76.60000 2.925
76.62000 2.789
76.64000 1.761
76.66000 3.263
76.68000 -1.686
76.70000 -1.057
76.72000 -0.348
76.74000 0.279
76.76000 -2.134
76.78000 -0.515
76.80000 -0.548
76.82000 1.535
76.84000 2.226
76.86000 3.991
76.88000 2.128
76.90000 -0.456
76.92000 1.001
76.94000 1.661
76.96000 2.119
76.98000 1.607
77.00000 1.045
77.02000 2.802
77.04000 2.400
77.06000 4.076
77.08000 3.677
77.10000 1.494
77.12000 -0.980
77.14000 3.751
77.16000 4.183
77.18000 2.319
77.20000 8.795
77.22000 7.478
77.24000 3.878
77.26000 4.070
77.28000 4.668
77.30000 5.774
77.32000 5.312
77.34000 3.967
77.36000 -0.401
77.38000 1.236
77.40000 -0.421
77.42000 1.063
77.44000 0.967
77.46000 1.811
77.48000 1.518
77.50000 6.025
77.52000 3.390
77.54000 2.075
77.56000 2.134
77.58000 0.113
77.60000 1.401
77.62000 5.084
77.64000 5.626
77.66000 6.334
77.68000 2.256
77.70000 4.626
77.72000 2.465
77.74000 2.912
77.76000 4.535
77.78000 5.906
77.80000 4.590
77.82000 2.751
77.84000 4.494
77.86000 3.891
77.88000 4.520
77.90000 7.740
77.92000 7.572
77.94000 2.971
77.96000 -2.114
77.98000 -0.891
78.00000 3.220
78.02000 6.431
78.04000 3.173
78.06000 2.233
78.08000 2.955
78.10000 4.608
78.12000 4.994
78.14000 4.135
78.16000 5.450
78.18000 4.177
78.20000 1.978
78.22000 4.448
78.24000 3.757
78.26000 3.202
78.28000 1.868
78.30000 4.311
78.32000 4.578
78.34000 3.802
78.36000 1.285
78.38000 1.256
78.40000 4.044
78.42000 4.454
78.44000 5.706
78.46000 4.014
78.48000 6.147
78.50000 4.725
78.52000 1.941
78.54000 -0.314
78.56000 -0.598
78.58000 -0.676
78.60000 1.770
78.62000 4.627
78.64000 0.586
78.66000 4.382
78.68000 6.181
78.70000 5.411
78.72000 4.194
78.74000 4.185
78.76000 5.014
78.78000 4.079
78.80000 6.797
78.82000 6.160
78.84000 0.005
78.86000 -0.554
78.88000 0.445
78.90000 3.608
78.92000 8.469
78.94000 7.425
78.96000 6.754
78.98000 5.866
79.00000 2.100
79.02000 3.638
79.04000 0.993
79.06000 1.005
79.08000 -2.188
79.10000 4.291
79.12000 1.321
79.14000 -1.499
79.16000 0.351
79.18000 0.092
79.20000 1.305
79.22000 -0.997
79.24000 1.245
79.26000 3.285
79.28000 2.162
79.30000 2.848
79.32000 2.954
79.34000 6.531
79.36000 6.383
79.38000 4.418
79.40000 3.433
79.42000 0.155
79.44000 1.567
79.46000 0.059
79.48000 4.869
79.50000 2.219
79.52000 3.017
79.54000 3.796
79.56000 -0.047
79.58000 1.698
79.60000 0.948
79.62000 2.085
79.64000 3.840
79.66000 4.388
79.68000 1.202
79.70000 -2.227
79.72000 -0.589
79.74000 -1.647
79.76000 5.950
79.78000 4.901
79.80000 4.426
79.82000 2.556
79.84000 4.146
79.86000 3.299
79.88000 3.890
79.90000 2.698
79.92000 -2.243
79.94000 1.917
79.96000 4.919
79.98000 2.352
80.00000 2.372
80.02000 4.817
80.04000 2.698
80.06000 3.853
80.08000 5.723
80.10000 3.788
80.12000 1.993
80.14000 -1.715
80.16000 0.920
80.18000 2.900
80.20000 -0.836
80.22000 -0.547
80.24000 2.956
80.26000 3.400
80.28000 1.442
80.30000 1.502
80.32000 -0.014
80.34000 -2.301
80.36000 -0.886
80.38000 1.601
80.40000 1.795
80.42000 0.372
80.44000 2.068
80.46000 2.521
80.48000 5.850
80.50000 3.656
80.52000 2.519
80.54000 3.674
80.56000 6.189
80.58000 2.693
80.60000 3.587
80.62000 5.159
80.64000 4.866
80.66000 5.248
80.68000 3.603
80.70000 3.324
80.72000 6.191
80.74000 1.279
80.76000 2.187
80.78000 5.612
80.80000 6.879
80.82000 8.885
80.84000 6.812
80.86000 7.665
80.88000 7.734
80.90000 8.486
80.92000 8.504
80.94000 8.743
80.96000 7.361
80.98000 8.255
81.00000 4.393
81.02000 9.606
81.04000 14.185
81.06000 15.327
81.08000 12.006
81.10000 12.404
81.12000 16.595
81.14000 14.011
81.16000 16.941
81.18000 16.215
81.20000 13.633
81.22000 16.207
81.24000 14.857
81.26000 15.336
81.28000 17.360
81.30000 14.756
81.32000 16.371
81.34000 17.009
81.36000 15.899
81.38000 18.727
81.40000 20.715
81.42000 21.131
81.44000 20.806
81.46000 17.857
81.48000 22.931
81.50000 26.048
81.52000 24.191
81.54000 22.591
81.56000 23.832
81.58000 24.848
81.60000 28.066
81.62000 24.571
81.64000 27.804
81.66000 31.124
81.68000 27.271
81.70000 25.760
81.72000 22.289
81.74000 21.408
81.76000 30.505
81.78000 31.686
81.80000 30.327
81.82000 28.557
81.84000 25.408
81.86000 24.426
81.88000 28.951
81.90000 32.105
81.92000 26.966
81.94000 24.798
81.96000 25.742
81.98000 26.828
82.00000 30.027
82.02000 30.812
82.04000 28.273
82.06000 25.838
82.08000 27.434
82.10000 28.475
82.12000 26.045
82.14000 24.221
82.16000 18.412
82.18000 24.718
82.20000 23.036
82.22000 18.515
82.24000 20.220
82.26000 21.928
82.28000 17.672
82.30000 20.835
82.32000 24.592
82.34000 26.302
82.36000 24.565
82.38000 18.508
82.40000 19.320
82.42000 17.355
82.44000 15.215
82.46000 18.639
82.48000 17.412
82.50000 18.135
82.52000 21.736
82.54000 20.719
82.56000 15.654
82.58000 15.773
82.60000 16.580
82.62000 10.685
82.64000 10.893
82.66000 12.948
82.68000 6.561
82.70000 7.485
82.72000 10.917
82.74000 12.390
82.76000 12.878
82.78000 8.489
82.80000 5.261
82.82000 5.033
82.84000 5.855
82.86000 2.953
82.88000 0.851
82.90000 2.659
82.92000 5.954
82.94000 6.857
82.96000 7.786
82.98000 8.132
83.00000 1.672
83.02000 3.867
83.04000 7.832
83.06000 7.592
83.08000 1.882
83.10000 1.400
83.12000 2.821
83.14000 11.501
83.16000 6.062
83.18000 7.837
83.20000 5.861
83.22000 7.626
83.24000 2.016
83.26000 1.408
83.28000 2.164
83.30000 4.419
83.32000 1.287
83.34000 3.585
83.36000 2.635
83.38000 5.170
83.40000 3.656
83.42000 3.596
83.44000 4.076
83.46000 -0.171
83.48000 -0.399
83.50000 2.013
83.52000 3.582
83.54000 4.099
83.56000 3.468
83.58000 1.602
83.60000 4.238
83.62000 2.701
83.64000 3.347
83.66000 4.850
83.68000 6.638
83.70000 8.076
83.72000 5.378
83.74000 3.942
83.76000 2.831
83.78000 1.728
83.80000 1.571
83.82000 2.038
83.84000 -2.257
83.86000 -1.196
83.88000 2.065
83.90000 2.362
83.92000 2.846
83.94000 -0.184
83.96000 1.301
83.98000 1.009
84.00000 1.423
84.02000 -0.120
84.04000 4.471
84.06000 2.655
84.08000 0.663
84.10000 -0.477
84.12000 -1.244
84.14000 -1.214
84.16000 -1.362
84.18000 -0.767
84.20000 2.985
84.22000 2.279
84.24000 1.603
84.26000 0.176
84.28000 -0.290
84.30000 -0.886
84.32000 -1.456
84.34000 1.700
84.36000 0.229
84.38000 -1.635
84.40000 -0.801
84.42000 -1.205
84.44000 0.372
84.46000 -0.584
84.48000 0.376
84.50000 -0.567
84.52000 -2.293
84.54000 -0.875
84.56000 3.963
84.58000 5.537
84.60000 1.793
84.62000 0.808
84.64000 2.654
84.66000 4.914
84.68000 2.559
84.70000 0.832
84.72000 0.782
84.74000 0.838
84.76000 2.435
84.78000 4.141
84.80000 3.452
84.82000 2.849
84.84000 4.844
84.86000 4.057
84.88000 2.932
84.90000 1.420
84.92000 3.437
84.94000 9.276
84.96000 6.722
84.98000 3.511
85.00000 2.529
85.02000 6.233
85.04000 6.917
85.06000 4.269
85.08000 8.511
85.10000 5.124
85.12000 6.214
85.14000 8.397
85.16000 6.437
85.18000 9.451
85.20000 8.751
85.22000 8.645
85.24000 10.541
85.26000 12.036
85.28000 10.783
85.30000 9.482
85.32000 8.784
85.34000 10.706
85.36000 13.947
85.38000 11.447
85.40000 13.087
85.42000 15.154
85.44000 13.543
85.46000 14.024
85.48000 12.244
85.50000 12.695
85.52000 12.446
85.54000 15.274
85.56000 15.865
85.58000 18.540
85.60000 17.395
85.62000 17.316
85.64000 19.630
85.66000 19.324
85.68000 15.513
85.70000 16.627
85.72000 20.267
85.74000 19.061
85.76000 18.632
85.78000 24.841
85.80000 23.041
85.82000 24.796
85.84000 20.175
85.86000 23.843
85.88000 23.586
85.90000 19.759
85.92000 19.954
85.94000 25.074
85.96000 24.376
85.98000 24.449
86.00000 26.868
86.02000 28.396
86.04000 27.203
86.06000 30.589
86.08000 29.684
86.10000 24.131
86.12000 22.551
86.14000 23.923
86.16000 22.286
86.18000 21.911
86.20000 22.349
86.22000 20.407
86.24000 16.172
86.26000 19.995
86.28000 21.951
86.30000 23.324
86.32000 16.995
86.34000 17.213
86.36000 15.832
86.38000 18.167
86.40000 18.098
86.42000 16.912
86.44000 23.840
86.46000 18.042
86.48000 10.980
86.50000 14.023
86.52000 15.780
86.54000 13.524
86.56000 8.075
86.58000 7.977
86.60000 11.408
86.62000 12.469
86.64000 14.200
86.66000 15.075
86.68000 13.153
86.70000 10.114
86.72000 9.339
86.74000 6.710
86.76000 6.413
86.78000 8.730
86.80000 7.154
86.82000 3.059
86.84000 5.460
86.86000 5.993
86.88000 4.961
86.90000 4.894
86.92000 5.852
86.94000 5.765
86.96000 3.530
86.98000 3.323
87.00000 5.638
87.02000 3.141
87.04000 2.882
87.06000 6.462
87.08000 4.469
87.10000 3.017
87.12000 1.845
87.14000 -1.047
87.16000 0.973
87.18000 2.996
87.20000 4.816
87.22000 4.311
87.24000 2.770
87.26000 3.380
87.28000 1.123
87.30000 0.573
87.32000 2.009
87.34000 4.507
87.36000 -0.106
87.38000 -2.113
87.40000 1.777
87.42000 2.956
87.44000 0.964
87.46000 1.802
87.48000 3.589
87.50000 -1.655
87.52000 -0.388
87.54000 0.559
87.56000 3.547
87.58000 1.958
87.60000 3.427
87.62000 3.762
87.64000 3.516
87.66000 2.246
87.68000 1.129
87.70000 -0.198
87.72000 -2.084
87.74000 2.005
87.76000 2.046
87.78000 2.355
87.80000 1.791
87.82000 3.607
87.84000 2.491
87.86000 -0.623
87.88000 0.851
87.90000 1.987
87.92000 1.916
87.94000 1.969
87.96000 -0.800
87.98000 2.043
88.00000 0.079
88.02000 0.085
88.04000 1.164
88.06000 3.795
88.08000 -0.146
88.10000 -2.053
88.12000 1.500
88.14000 2.640
88.16000 4.696
88.18000 2.556
88.20000 -0.126
88.22000 1.174
88.24000 2.134
88.26000 2.239
88.28000 -0.779
88.30000 -0.618
88.32000 -1.716
88.34000 3.016
88.36000 1.604
88.38000 1.023
88.40000 1.831
88.42000 0.163
88.44000 -2.019
88.46000 0.974
88.48000 2.634
88.50000 3.966
88.52000 3.598
88.54000 4.340
88.56000 0.025
88.58000 0.989
88.60000 0.887
88.62000 0.485
88.64000 1.959
88.66000 1.883
88.68000 2.438
88.70000 -1.151
88.72000 0.548
88.74000 3.528
88.76000 4.706
88.78000 1.763
88.80000 2.137
88.82000 1.123
88.84000 3.759
88.86000 0.041
88.88000 1.994
88.90000 0.030
88.92000 3.315
88.94000 3.437
88.96000 0.344
88.98000 1.198
89.00000 0.732
89.02000 0.775
89.04000 1.146
89.06000 0.316
89.08000 -1.973
89.10000 1.619
89.12000 2.087
89.14000 3.889
89.16000 3.586
89.18000 6.075
89.20000 3.310
89.22000 3.409
89.24000 4.636
89.26000 5.961
89.28000 3.202
89.30000 -1.777
89.32000 -0.749
89.34000 5.466
89.36000 -0.398
89.38000 1.887
89.40000 4.634
89.42000 2.828
89.44000 2.140
89.46000 4.911
89.48000 6.569
89.50000 2.971
89.52000 4.051
89.54000 4.548
89.56000 7.609
89.58000 7.131
89.60000 -1.972
89.62000 0.603
89.64000 1.925
89.66000 3.362
89.68000 4.352
89.70000 2.893
89.72000 2.281
89.74000 3.170
89.76000 0.267
89.78000 1.124
89.80000 4.826
89.82000 -0.576
89.84000 1.713
89.86000 3.686
89.88000 1.384
89.90000 1.110
89.92000 1.230
89.94000 0.425
89.96000 0.525
89.98000 2.360
90.00000 2.940
90.02000 3.049
90.04000 4.062
90.06000 3.857
90.08000 3.053
90.10000 2.236
90.12000 1.429
90.14000 0.106
90.16000 -0.089
90.18000 2.476
90.20000 -0.188
90.22000 0.306
90.24000 0.934
90.26000 1.924
90.28000 2.812
90.30000 2.119
90.32000 0.091
90.34000 1.258
90.36000 1.898
90.38000 1.229
90.40000 -1.034
90.42000 -1.992
90.44000 -0.495
90.46000 -0.563
90.48000 3.367
90.50000 4.092
90.52000 7.239
90.54000 5.109
90.56000 1.209
90.58000 0.671
90.60000 0.911
90.62000 1.971
90.64000 1.327
90.66000 1.109
90.68000 5.208
90.70000 4.129
90.72000 1.525
90.74000 -0.140
90.76000 1.760
90.78000 -0.830
90.80000 2.347
90.82000 1.220
90.84000 3.005
90.86000 -0.499
90.88000 -1.993
90.90000 -1.702
90.92000 0.531
90.94000 3.511
90.96000 1.279
90.98000 0.013
91.00000 -0.066
91.02000 1.233
91.04000 1.639
91.06000 1.104
91.08000 -1.419
91.10000 -1.990
91.12000 0.106
91.14000 1.971
91.16000 1.382
91.18000 2.756
91.20000 2.692
91.22000 4.154
91.24000 -1.174
91.26000 -0.718
91.28000 0.939
91.30000 -1.043
91.32000 0.893
91.34000 1.694
91.36000 4.694
91.38000 5.294
91.40000 3.984
91.42000 3.754
91.44000 -0.009
91.46000 1.320
91.48000 0.628
91.50000 3.555
91.52000 4.652
91.54000 4.799
91.56000 3.715
91.58000 4.269
91.60000 4.953
91.62000 4.349
91.64000 1.843
91.66000 2.903
91.68000 1.662
91.70000 3.255
91.72000 6.964
91.74000 1.794
91.76000 2.652
91.78000 1.415
91.80000 1.487
91.82000 0.531
91.84000 1.559
91.86000 -0.281
91.88000 2.115
91.90000 6.862
91.92000 3.399
91.94000 -0.185
91.96000 -0.013
91.98000 4.375
92.00000 2.692
92.02000 1.990
92.04000 2.966
92.06000 3.823
92.08000 3.755
92.10000 -0.137
92.12000 0.399
92.14000 1.962
92.16000 3.255
92.18000 2.218
92.20000 -2.014
92.22000 2.407
92.24000 0.020
92.26000 5.121
92.28000 7.801
92.30000 7.474
92.32000 5.406
92.34000 4.664
92.36000 6.007
92.38000 3.894
92.40000 1.545
92.42000 -1.782
92.44000 3.260
92.46000 3.508
92.48000 3.630
92.50000 2.071
92.52000 0.963
92.54000 3.620
92.56000 5.804
92.58000 6.050
92.60000 3.266
92.62000 0.638
92.64000 3.786
92.66000 2.054
92.68000 3.528
92.70000 6.494
92.72000 1.478
92.74000 0.261
92.76000 0.603
92.78000 1.673
92.80000 6.634
92.82000 3.484
92.84000 -1.970
92.86000 0.826
92.88000 3.884
92.90000 5.474
92.92000 -0.643
92.94000 0.044
92.96000 -1.674
92.98000 1.331
93.00000 2.223
93.02000 0.128
93.04000 -0.410
93.06000 1.459
93.08000 3.690
93.10000 1.193
93.12000 2.220
93.14000 0.580
93.16000 -0.063
93.18000 3.979
93.20000 -1.658
93.22000 -2.015
93.24000 6.537
93.26000 2.138
93.28000 -1.763
93.30000 1.007
93.32000 3.288
93.34000 2.361
93.36000 5.604
93.38000 5.204
93.40000 3.686
93.42000 2.688
93.44000 -1.171
93.46000 2.257
93.48000 5.147
93.50000 3.022
93.52000 4.058
93.54000 2.766
93.56000 1.222
93.58000 -0.578
93.60000 -1.138
93.62000 2.247
93.64000 3.169
93.66000 6.797
93.68000 3.398
93.70000 2.070
93.72000 1.036
93.74000 1.307
93.76000 2.962
93.78000 5.765
93.80000 6.558
93.82000 3.261
93.84000 1.900
93.86000 5.867
93.88000 6.793
93.90000 5.486
93.92000 6.669
93.94000 0.499
93.96000 -0.601
93.98000 0.806
94.00000 2.131
94.02000 5.093
94.04000 2.719
94.06000 -1.976
94.08000 2.104
94.10000 3.915
94.12000 1.601
94.14000 4.555
94.16000 5.527
94.18000 5.555
94.20000 1.944
94.22000 2.148
94.24000 5.014
94.26000 5.614
94.28000 3.339
94.30000 2.496
94.32000 4.571
94.34000 2.787
94.36000 5.357
94.38000 6.555
94.40000 6.646
94.42000 3.726
94.44000 4.854
94.46000 5.469
94.48000 2.851
94.50000 -0.584
94.52000 -0.206
94.54000 4.739
94.56000 6.603
94.58000 6.785
94.60000 7.593
94.62000 3.135
94.64000 3.065
94.66000 4.146
94.68000 5.341
94.70000 1.254
94.72000 3.961
94.74000 0.716
94.76000 4.631
94.78000 9.630
94.80000 10.150
94.82000 4.347
94.84000 0.844
94.86000 6.830
94.88000 6.669
94.90000 1.062
94.92000 2.202
94.94000 4.342
94.96000 7.060
94.98000 5.026
95.00000 3.426
95.02000 3.426
95.04000 3.416
95.06000 4.720
95.08000 3.487
95.10000 4.675
95.12000 2.985
95.14000 2.867
95.16000 1.495
95.18000 -2.001
95.20000 0.707
95.22000 2.942
95.24000 6.753
95.26000 1.417
95.28000 1.245
95.30000 1.710
95.32000 6.157
95.34000 9.337
95.36000 4.538
95.38000 6.524
95.40000 8.972
95.42000 5.090
95.44000 4.656
95.46000 7.534
95.48000 5.914
95.50000 3.209
95.52000 3.804
95.54000 0.589
95.56000 0.488
95.58000 -0.408
95.60000 3.185
95.62000 3.240
95.64000 3.454
95.66000 5.160
95.68000 4.183
95.70000 4.862
95.72000 5.116
95.74000 2.011
95.76000 3.513
95.78000 -1.443
95.80000 -2.028
95.82000 5.738
95.84000 7.106
95.86000 3.840
95.88000 2.243
95.90000 2.415
95.92000 3.348
95.94000 6.318
95.96000 4.054
95.98000 2.656
96.00000 5.186
96.02000 2.067
96.04000 4.671
96.06000 1.312
96.08000 4.564
96.10000 -0.200
96.12000 0.378
96.14000 -0.551
96.16000 -0.864
96.18000 0.726
96.20000 -0.419
96.22000 4.642
96.24000 3.545
96.26000 5.426
96.28000 3.637
96.30000 1.857
96.32000 5.232
96.34000 0.657
96.36000 5.397
96.38000 3.394
96.40000 2.166
96.42000 3.871
96.44000 4.653
96.46000 1.961
96.48000 -2.027
96.50000 3.871
96.52000 6.869
96.54000 4.982
96.56000 6.345
96.58000 3.945
96.60000 3.249
96.62000 8.305
96.64000 4.011
96.66000 0.245
96.68000 3.935
96.70000 2.907
96.72000 4.138
96.74000 3.705
96.76000 3.771
96.78000 0.837
96.80000 6.531
96.82000 7.184
96.84000 5.877
96.86000 4.109
96.88000 5.563
96.90000 6.961
96.92000 3.367
96.94000 6.535
96.96000 4.296
96.98000 3.901
97.00000 5.770
97.02000 1.461
97.04000 1.705
97.06000 1.771
97.08000 2.034
97.10000 7.016
97.12000 7.244
97.14000 7.420
97.16000 3.491
97.18000 4.802
97.20000 6.909
97.22000 7.839
97.24000 9.325
97.26000 1.697
97.28000 1.725
97.30000 -1.977
97.32000 6.790
97.34000 2.784
97.36000 3.276
97.38000 5.266
97.40000 7.876
97.42000 4.011
97.44000 1.877
97.46000 -1.959
97.48000 -1.306
97.50000 5.417
97.52000 4.519
97.54000 4.586
97.56000 5.907
97.58000 6.086
97.60000 5.393
97.62000 2.956
97.64000 0.138
97.66000 -0.390
97.68000 0.974
97.70000 5.582
97.72000 11.568
97.74000 8.754
97.76000 11.552
97.78000 8.653
97.80000 -0.386
97.82000 0.484
97.84000 5.880
97.86000 5.377
97.88000 5.570
97.90000 3.946
97.92000 4.189
97.94000 2.714
97.96000 -1.230
97.98000 -0.787
98.00000 1.345
98.02000 1.823
98.04000 -0.204
98.06000 5.675
98.08000 3.624
98.10000 -1.190
98.12000 -0.963
98.14000 3.542
98.16000 3.119
98.18000 4.355
98.20000 2.788
98.22000 1.365
98.24000 7.144
98.26000 5.461
98.28000 4.539
98.30000 -1.067
98.32000 1.685
98.34000 10.300
98.36000 7.839
98.38000 5.240
98.40000 8.138
98.42000 2.133
98.44000 -1.990
98.46000 1.502
98.48000 5.622
98.50000 7.066
98.52000 8.124
98.54000 6.205
98.56000 5.796
98.58000 7.831
98.60000 1.552
98.62000 4.623
98.64000 8.004
98.66000 4.331
98.68000 4.097
98.70000 3.726
98.72000 -0.129
98.74000 -1.067
98.76000 1.843
98.78000 2.083
98.80000 -1.395
98.82000 0.032
98.84000 5.826
98.86000 8.238
98.88000 4.635
98.90000 -0.034
98.92000 -0.658
98.94000 2.123
98.96000 2.833
98.98000 1.921
99.00000 5.066
99.02000 3.247
99.04000 2.603
99.06000 1.858
99.08000 2.691
99.10000 10.318
99.12000 10.219
99.14000 7.709
99.16000 8.607
99.18000 5.778
99.20000 1.953
99.22000 2.205
99.24000 0.853
99.26000 -1.967
99.28000 4.319
99.30000 5.907
99.32000 6.681
99.34000 1.840
99.36000 -0.849
99.38000 1.064
99.40000 5.940
99.42000 4.854
99.44000 -0.396
99.46000 2.181
99.48000 8.962
99.50000 3.366
99.52000 -0.976
99.54000 5.180
99.56000 5.983
99.58000 0.209
99.60000 2.796
99.62000 7.904
99.64000 2.396
99.66000 6.140
99.68000 1.156
99.70000 7.091
99.72000 7.596
99.74000 6.819
99.76000 -1.394
99.78000 7.041
99.80000 10.169
99.82000 -2.804
99.84000 0.307
99.86000 5.419
99.88000 5.704
99.90000 9.591
99.92000 1.411
99.94000 5.161
99.96000 3.727
99.98000 0.000
