'Id: "0011387" Comment: "Integrate frame 0011387_Au-Ir-Rh_Rh-rich_XRD-Mapping-040-0000.gfrmwith cursor Wedge Cursor #5" Operator: "B?rgel" Anode: "Cu" Wavelength: "1.5406" Scantype: "2Theta (TwoTheta)" TimePerStep: "1" X: "-31.5" Y: "-27" Z: "5.95" 
10.00000 0.000
10.02000 7.503
10.04000 22.214
10.06000 23.741
10.08000 26.006
10.10000 37.838
10.12000 21.000
10.14000 25.053
10.16000 27.787
10.18000 35.471
10.20000 21.831
10.22000 32.119
10.24000 26.609
10.26000 29.039
10.28000 39.452
10.30000 31.289
10.32000 28.266
10.34000 39.850
10.36000 42.744
10.38000 29.295
10.40000 25.198
10.42000 10.649
10.44000 20.162
10.46000 16.618
10.48000 23.588
10.50000 33.972
10.52000 22.920
10.54000 6.210
10.56000 24.678
10.58000 29.724
10.60000 34.030
10.62000 20.555
10.64000 21.569
10.66000 24.901
10.68000 24.105
10.70000 10.107
10.72000 11.133
10.74000 12.622
10.76000 24.127
10.78000 13.900
10.80000 -1.694
10.82000 7.871
10.84000 -4.564
10.86000 1.420
10.88000 11.539
10.90000 18.193
10.92000 18.288
10.94000 24.423
10.96000 17.387
10.98000 2.365
11.00000 12.756
11.02000 16.887
11.04000 10.197
11.06000 16.277
11.08000 7.266
11.10000 15.721
11.12000 31.957
11.14000 18.511
11.16000 9.140
11.18000 14.563
11.20000 21.539
11.22000 22.294
11.24000 16.792
11.26000 22.437
11.28000 19.795
11.30000 3.749
11.32000 10.586
11.34000 6.928
11.36000 8.297
11.38000 16.814
11.40000 9.843
11.42000 17.862
11.44000 18.186
11.46000 8.347
11.48000 1.838
11.50000 5.670
11.52000 10.656
11.54000 6.235
11.56000 10.960
11.58000 27.308
11.60000 14.574
11.62000 11.882
11.64000 13.947
11.66000 15.133
11.68000 10.197
11.70000 15.332
11.72000 17.368
11.74000 19.280
11.76000 7.496
11.78000 15.991
11.80000 13.416
11.82000 9.734
11.84000 6.670
11.86000 15.793
11.88000 21.435
11.90000 5.841
11.92000 6.114
11.94000 7.535
11.96000 20.005
11.98000 8.557
12.00000 9.290
12.02000 16.242
12.04000 22.806
12.06000 19.428
12.08000 8.777
12.10000 11.252
12.12000 0.981
12.14000 -4.606
12.16000 7.327
12.18000 2.473
12.20000 11.439
12.22000 10.782
12.24000 12.775
12.26000 21.079
12.28000 16.544
12.30000 6.096
12.32000 9.232
12.34000 11.993
12.36000 2.329
12.38000 2.147
12.40000 2.230
12.42000 -4.389
12.44000 8.240
12.46000 7.351
12.48000 13.900
12.50000 14.370
12.52000 23.574
12.54000 15.868
12.56000 12.550
12.58000 1.788
12.60000 21.954
12.62000 17.975
12.64000 12.552
12.66000 16.643
12.68000 12.218
12.70000 12.826
12.72000 6.284
12.74000 15.427
12.76000 12.290
12.78000 8.032
12.80000 8.238
12.82000 -2.560
12.84000 5.981
12.86000 9.896
12.88000 16.418
12.90000 3.478
12.92000 1.669
12.94000 -3.349
12.96000 4.109
12.98000 9.920
13.00000 5.719
13.02000 13.339
13.04000 10.086
13.06000 12.873
13.08000 13.184
13.10000 4.840
13.12000 4.012
13.14000 3.640
13.16000 0.514
13.18000 11.084
13.20000 7.513
13.22000 10.478
13.24000 11.823
13.26000 7.788
13.28000 2.177
13.30000 9.036
13.32000 17.473
13.34000 15.438
13.36000 13.357
13.38000 15.233
13.40000 9.994
13.42000 6.380
13.44000 16.395
13.46000 17.260
13.48000 12.258
13.50000 10.267
13.52000 15.200
13.54000 12.886
13.56000 5.466
13.58000 5.487
13.60000 14.353
13.62000 5.705
13.64000 4.785
13.66000 2.707
13.68000 14.883
13.70000 12.013
13.72000 2.455
13.74000 8.655
13.76000 14.126
13.78000 19.010
13.80000 1.591
13.82000 1.977
13.84000 4.623
13.86000 7.196
13.88000 6.523
13.90000 8.905
13.92000 9.701
13.94000 20.374
13.96000 6.030
13.98000 0.780
14.00000 9.312
14.02000 9.352
14.04000 7.530
14.06000 3.043
14.08000 4.336
14.10000 12.684
14.12000 14.474
14.14000 1.143
14.16000 3.657
14.18000 10.351
14.20000 8.227
14.22000 15.448
14.24000 10.670
14.26000 12.122
14.28000 10.172
14.30000 5.671
14.32000 9.250
14.34000 11.135
14.36000 13.083
14.38000 8.516
14.40000 5.648
14.42000 7.930
14.44000 8.363
14.46000 6.670
14.48000 5.338
14.50000 0.966
14.52000 3.502
14.54000 4.619
14.56000 8.578
14.58000 20.997
14.60000 19.011
14.62000 19.549
14.64000 25.106
14.66000 19.644
14.68000 5.538
14.70000 6.200
14.72000 16.210
14.74000 -0.603
14.76000 -4.569
14.78000 0.638
14.80000 8.300
14.82000 6.209
14.84000 5.526
14.86000 4.430
14.88000 5.546
14.90000 -0.978
14.92000 9.675
14.94000 18.553
14.96000 13.226
14.98000 7.387
15.00000 10.398
15.02000 6.636
15.04000 2.640
15.06000 4.209
15.08000 9.195
15.10000 8.289
15.12000 7.857
15.14000 15.824
15.16000 16.942
15.18000 11.652
15.20000 2.404
15.22000 3.393
15.24000 15.882
15.26000 23.676
15.28000 21.112
15.30000 10.761
15.32000 11.325
15.34000 9.166
15.36000 5.914
15.38000 10.042
15.40000 13.023
15.42000 9.657
15.44000 7.690
15.46000 16.900
15.48000 16.335
15.50000 15.684
15.52000 17.979
15.54000 12.640
15.56000 10.829
15.58000 23.061
15.60000 22.067
15.62000 9.059
15.64000 1.672
15.66000 3.892
15.68000 0.426
15.70000 6.428
15.72000 11.551
15.74000 13.699
15.76000 14.934
15.78000 2.708
15.80000 -4.507
15.82000 4.753
15.84000 7.739
15.86000 5.601
15.88000 13.095
15.90000 16.142
15.92000 14.219
15.94000 13.038
15.96000 11.517
15.98000 13.134
16.00000 5.894
16.02000 14.231
16.04000 17.875
16.06000 2.279
16.08000 3.499
16.10000 9.718
16.12000 9.303
16.14000 12.378
16.16000 8.606
16.18000 12.805
16.20000 9.909
16.22000 20.366
16.24000 15.074
16.26000 5.060
16.28000 4.732
16.30000 7.157
16.32000 9.599
16.34000 6.729
16.36000 0.707
16.38000 1.105
16.40000 5.885
16.42000 1.255
16.44000 6.886
16.46000 12.599
16.48000 17.308
16.50000 27.301
16.52000 15.372
16.54000 5.710
16.56000 9.720
16.58000 11.264
16.60000 -4.499
16.62000 4.574
16.64000 -3.164
16.66000 -1.857
16.68000 5.817
16.70000 5.090
16.72000 3.489
16.74000 6.090
16.76000 -0.081
16.78000 12.472
16.80000 8.395
16.82000 5.801
16.84000 9.815
16.86000 4.808
16.88000 9.067
16.90000 20.414
16.92000 9.949
16.94000 2.063
16.96000 1.803
16.98000 2.973
17.00000 7.026
17.02000 9.393
17.04000 11.976
17.06000 6.787
17.08000 1.401
17.10000 1.084
17.12000 -1.624
17.14000 6.742
17.16000 15.820
17.18000 6.898
17.20000 -1.166
17.22000 -0.325
17.24000 4.841
17.26000 11.740
17.28000 11.938
17.30000 4.357
17.32000 -0.034
17.34000 6.622
17.36000 6.287
17.38000 5.959
17.40000 0.752
17.42000 0.451
17.44000 3.201
17.46000 10.030
17.48000 3.212
17.50000 -2.833
17.52000 5.000
17.54000 6.642
17.56000 4.833
17.58000 10.735
17.60000 15.746
17.62000 11.594
17.64000 9.533
17.66000 6.577
17.68000 2.431
17.70000 -1.597
17.72000 0.152
17.74000 0.744
17.76000 5.206
17.78000 1.686
17.80000 3.275
17.82000 11.970
17.84000 8.032
17.86000 -3.070
17.88000 8.067
17.90000 4.699
17.92000 4.982
17.94000 11.494
17.96000 8.175
17.98000 -2.096
18.00000 -2.172
18.02000 -4.435
18.04000 -3.775
18.06000 0.959
18.08000 3.972
18.10000 4.745
18.12000 1.526
18.14000 -0.538
18.16000 1.509
18.18000 2.439
18.20000 5.747
18.22000 6.909
18.24000 2.493
18.26000 3.917
18.28000 -1.468
18.30000 0.104
18.32000 5.382
18.34000 7.524
18.36000 4.180
18.38000 6.386
18.40000 9.420
18.42000 8.000
18.44000 -0.409
18.46000 -1.317
18.48000 3.865
18.50000 1.868
18.52000 -2.258
18.54000 8.874
18.56000 11.891
18.58000 1.429
18.60000 2.831
18.62000 3.476
18.64000 -1.113
18.66000 3.706
18.68000 7.932
18.70000 14.800
18.72000 11.385
18.74000 7.004
18.76000 6.807
18.78000 6.750
18.80000 5.124
18.82000 3.213
18.84000 8.456
18.86000 9.520
18.88000 8.840
18.90000 11.641
18.92000 17.778
18.94000 11.768
18.96000 10.449
18.98000 6.127
19.00000 5.619
19.02000 6.425
19.04000 9.777
19.06000 7.681
19.08000 9.827
19.10000 3.166
19.12000 -4.330
19.14000 0.707
19.16000 5.573
19.18000 12.926
19.20000 11.144
19.22000 3.113
19.24000 1.649
19.26000 3.186
19.28000 11.308
19.30000 9.337
19.32000 10.541
19.34000 4.405
19.36000 3.939
19.38000 6.119
19.40000 8.855
19.42000 7.244
19.44000 9.389
19.46000 13.214
19.48000 9.945
19.50000 10.261
19.52000 5.604
19.54000 3.187
19.56000 2.433
19.58000 6.661
19.60000 10.438
19.62000 6.511
19.64000 12.896
19.66000 13.214
19.68000 -1.497
19.70000 -1.052
19.72000 3.572
19.74000 4.431
19.76000 1.855
19.78000 7.507
19.80000 8.737
19.82000 9.861
19.84000 11.494
19.86000 1.242
19.88000 1.223
19.90000 -1.144
19.92000 0.843
19.94000 2.734
19.96000 5.708
19.98000 5.451
20.00000 4.098
20.02000 1.472
20.04000 5.432
20.06000 5.517
20.08000 8.205
20.10000 6.838
20.12000 11.863
20.14000 8.415
20.16000 7.714
20.18000 9.276
20.20000 7.072
20.22000 0.776
20.24000 -4.279
20.26000 -1.161
20.28000 6.523
20.30000 0.488
20.32000 6.004
20.34000 7.663
20.36000 8.745
20.38000 10.329
20.40000 6.562
20.42000 8.955
20.44000 7.017
20.46000 8.821
20.48000 9.966
20.50000 8.254
20.52000 6.758
20.54000 1.793
20.56000 6.468
20.58000 8.891
20.60000 5.015
20.62000 1.172
20.64000 -4.245
20.66000 6.012
20.68000 14.868
20.70000 13.609
20.72000 3.190
20.74000 0.705
20.76000 13.561
20.78000 10.054
20.80000 6.735
20.82000 8.776
20.84000 7.123
20.86000 10.901
20.88000 8.949
20.90000 -2.116
20.92000 3.351
20.94000 4.009
20.96000 2.723
20.98000 6.781
21.00000 3.898
21.02000 10.619
21.04000 7.011
21.06000 4.331
21.08000 3.512
21.10000 3.018
21.12000 10.076
21.14000 12.969
21.16000 8.070
21.18000 3.415
21.20000 5.390
21.22000 6.613
21.24000 2.780
21.26000 2.256
21.28000 -0.097
21.30000 3.615
21.32000 4.096
21.34000 3.609
21.36000 4.033
21.38000 8.387
21.40000 14.701
21.42000 6.800
21.44000 7.139
21.46000 5.011
21.48000 -4.230
21.50000 -0.930
21.52000 -1.459
21.54000 -1.074
21.56000 7.329
21.58000 4.533
21.60000 1.591
21.62000 1.886
21.64000 8.624
21.66000 5.286
21.68000 3.173
21.70000 5.896
21.72000 6.455
21.74000 8.883
21.76000 8.306
21.78000 4.489
21.80000 4.577
21.82000 7.027
21.84000 1.845
21.86000 -2.993
21.88000 11.563
21.90000 2.584
21.92000 3.261
21.94000 5.468
21.96000 4.823
21.98000 1.472
22.00000 -3.062
22.02000 -1.390
22.04000 8.558
22.06000 9.829
22.08000 7.119
22.10000 -1.197
22.12000 4.112
22.14000 2.714
22.16000 1.557
22.18000 -3.843
22.20000 -2.140
22.22000 -1.370
22.24000 -0.497
22.26000 1.536
22.28000 6.250
22.30000 3.778
22.32000 2.740
22.34000 4.442
22.36000 3.436
22.38000 6.815
22.40000 8.481
22.42000 3.135
22.44000 2.312
22.46000 5.450
22.48000 -0.577
22.50000 -0.608
22.52000 1.705
22.54000 3.606
22.56000 0.141
22.58000 -0.854
22.60000 -2.622
22.62000 3.085
22.64000 4.284
22.66000 -3.565
22.68000 -4.170
22.70000 -0.147
22.72000 0.384
22.74000 -2.319
22.76000 -0.080
22.78000 7.413
22.80000 8.082
22.82000 5.975
22.84000 3.879
22.86000 3.054
22.88000 12.838
22.90000 10.305
22.92000 8.152
22.94000 2.494
22.96000 3.310
22.98000 3.622
23.00000 4.772
23.02000 3.660
23.04000 1.653
23.06000 1.100
23.08000 0.482
23.10000 2.906
23.12000 3.683
23.14000 6.004
23.16000 7.855
23.18000 6.089
23.20000 0.650
23.22000 -0.055
23.24000 6.162
23.26000 8.345
23.28000 1.019
23.30000 -4.110
23.32000 0.775
23.34000 1.722
23.36000 -1.754
23.38000 2.905
23.40000 6.523
23.42000 4.450
23.44000 1.765
23.46000 -2.388
23.48000 2.441
23.50000 7.574
23.52000 5.767
23.54000 0.964
23.56000 2.466
23.58000 4.943
23.60000 8.958
23.62000 6.188
23.64000 6.999
23.66000 7.980
23.68000 10.721
23.70000 5.510
23.72000 4.461
23.74000 5.308
23.76000 4.420
23.78000 3.171
23.80000 0.187
23.82000 -1.023
23.84000 -0.692
23.86000 1.547
23.88000 9.989
23.90000 4.834
23.92000 10.966
23.94000 8.082
23.96000 4.840
23.98000 8.493
24.00000 8.667
24.02000 8.959
24.04000 5.409
24.06000 0.758
24.08000 3.612
24.10000 6.272
24.12000 10.740
24.14000 4.938
24.16000 4.641
24.18000 5.074
24.20000 6.531
24.22000 5.222
24.24000 7.230
24.26000 4.377
24.28000 6.258
24.30000 5.434
24.32000 4.174
24.34000 2.830
24.36000 6.102
24.38000 4.430
24.40000 2.508
24.42000 4.654
24.44000 4.348
24.46000 6.226
24.48000 5.396
24.50000 1.035
24.52000 1.942
24.54000 -0.637
24.56000 5.283
24.58000 9.336
24.60000 2.363
24.62000 1.376
24.64000 -4.012
24.66000 -1.722
24.68000 6.261
24.70000 9.677
24.72000 8.285
24.74000 5.945
24.76000 3.472
24.78000 6.344
24.80000 4.572
24.82000 5.483
24.84000 6.781
24.86000 6.183
24.88000 0.187
24.90000 -0.746
24.92000 4.592
24.94000 4.418
24.96000 4.089
24.98000 4.994
25.00000 5.838
25.02000 9.645
25.04000 9.421
25.06000 7.774
25.08000 5.386
25.10000 1.100
25.12000 -1.464
25.14000 1.790
25.16000 5.738
25.18000 4.721
25.20000 3.774
25.22000 8.804
25.24000 11.570
25.26000 5.372
25.28000 2.958
25.30000 6.925
25.32000 5.909
25.34000 -0.544
25.36000 1.910
25.38000 3.944
25.40000 5.825
25.42000 4.582
25.44000 2.290
25.46000 4.650
25.48000 8.757
25.50000 0.167
25.52000 -1.431
25.54000 3.857
25.56000 1.678
25.58000 5.405
25.60000 9.359
25.62000 4.175
25.64000 6.408
25.66000 5.329
25.68000 5.796
25.70000 4.461
25.72000 8.279
25.74000 7.164
25.76000 4.602
25.78000 0.694
25.80000 1.606
25.82000 8.217
25.84000 4.719
25.86000 5.230
25.88000 5.174
25.90000 6.468
25.92000 8.040
25.94000 6.253
25.96000 6.846
25.98000 0.960
26.00000 -3.810
26.02000 -2.061
26.04000 -1.317
26.06000 3.223
26.08000 4.553
26.10000 4.049
26.12000 2.806
26.14000 2.686
26.16000 0.713
26.18000 -3.946
26.20000 -1.309
26.22000 4.269
26.24000 3.980
26.26000 1.269
26.28000 -0.876
26.30000 1.048
26.32000 0.455
26.34000 -2.395
26.36000 -0.548
26.38000 -0.940
26.40000 -1.456
26.42000 0.605
26.44000 1.589
26.46000 2.973
26.48000 -2.871
26.50000 0.149
26.52000 2.729
26.54000 4.536
26.56000 3.506
26.58000 1.924
26.60000 3.118
26.62000 0.534
26.64000 -3.120
26.66000 -1.880
26.68000 5.566
26.70000 6.004
26.72000 10.843
26.74000 6.508
26.76000 3.745
26.78000 5.939
26.80000 2.765
26.82000 -0.261
26.84000 0.336
26.86000 2.276
26.88000 -2.092
26.90000 -3.688
26.92000 -3.921
26.94000 4.669
26.96000 7.587
26.98000 0.603
27.00000 -1.045
27.02000 -0.058
27.04000 -0.299
27.06000 -0.160
27.08000 -2.190
27.10000 0.959
27.12000 3.747
27.14000 5.111
27.16000 6.678
27.18000 5.139
27.20000 -0.629
27.22000 -0.030
27.24000 -2.121
27.26000 4.385
27.28000 2.816
27.30000 1.417
27.32000 1.186
27.34000 2.228
27.36000 1.290
27.38000 3.726
27.40000 4.908
27.42000 4.043
27.44000 -0.778
27.46000 -3.909
27.48000 0.774
27.50000 2.036
27.52000 3.850
27.54000 2.020
27.56000 3.628
27.58000 0.817
27.60000 0.948
27.62000 2.571
27.64000 -1.600
27.66000 -1.313
27.68000 1.647
27.70000 -0.298
27.72000 5.360
27.74000 2.548
27.76000 0.053
27.78000 0.126
27.80000 -2.180
27.82000 -1.916
27.84000 0.405
27.86000 5.088
27.88000 7.394
27.90000 1.267
27.92000 1.510
27.94000 5.565
27.96000 2.188
27.98000 2.251
28.00000 1.467
28.02000 2.141
28.04000 5.280
28.06000 5.235
28.08000 4.537
28.10000 0.673
28.12000 5.319
28.14000 6.555
28.16000 3.452
28.18000 -1.201
28.20000 4.846
28.22000 -0.683
28.24000 -1.090
28.26000 3.717
28.28000 6.517
28.30000 5.004
28.32000 1.816
28.34000 -0.377
28.36000 -0.441
28.38000 -0.218
28.40000 -1.678
28.42000 4.461
28.44000 2.284
28.46000 3.281
28.48000 5.299
28.50000 4.045
28.52000 3.881
28.54000 10.102
28.56000 4.387
28.58000 2.715
28.60000 0.628
28.62000 4.929
28.64000 6.085
28.66000 0.871
28.68000 -0.361
28.70000 -0.288
28.72000 1.133
28.74000 5.715
28.76000 4.243
28.78000 6.887
28.80000 8.997
28.82000 4.874
28.84000 2.658
28.86000 9.587
28.88000 8.422
28.90000 7.486
28.92000 5.555
28.94000 4.029
28.96000 0.228
28.98000 3.365
29.00000 0.259
29.02000 1.906
29.04000 -3.774
29.06000 1.518
29.08000 1.276
29.10000 -3.661
29.12000 1.799
29.14000 6.859
29.16000 3.631
29.18000 9.873
29.20000 11.672
29.22000 7.811
29.24000 0.857
29.26000 6.536
29.28000 11.400
29.30000 6.918
29.32000 1.812
29.34000 1.761
29.36000 0.769
29.38000 3.790
29.40000 0.184
29.42000 -2.035
29.44000 3.318
29.46000 5.043
29.48000 11.493
29.50000 8.077
29.52000 3.246
29.54000 0.240
29.56000 3.502
29.58000 5.410
29.60000 2.462
29.62000 5.338
29.64000 5.223
29.66000 6.859
29.68000 3.046
29.70000 2.553
29.72000 -0.796
29.74000 -0.209
29.76000 5.001
29.78000 -0.561
29.80000 3.733
29.82000 0.232
29.84000 5.107
29.86000 2.154
29.88000 2.802
29.90000 5.635
29.92000 11.518
29.94000 10.867
29.96000 10.006
29.98000 5.772
30.00000 3.170
30.02000 2.594
30.04000 2.221
30.06000 2.856
30.08000 4.687
30.10000 3.879
30.12000 4.584
30.14000 2.385
30.16000 0.558
30.18000 -1.454
30.20000 -1.974
30.22000 0.601
30.24000 1.888
30.26000 -2.301
30.28000 3.345
30.30000 6.890
30.32000 3.121
30.34000 -2.977
30.36000 -3.736
30.38000 -0.407
30.40000 4.839
30.42000 4.528
30.44000 2.960
30.46000 4.138
30.48000 1.927
30.50000 2.040
30.52000 4.332
30.54000 6.203
30.56000 5.909
30.58000 4.778
30.60000 4.192
30.62000 4.779
30.64000 4.632
30.66000 2.299
30.68000 5.087
30.70000 5.925
30.72000 4.877
30.74000 4.724
30.76000 7.134
30.78000 3.841
30.80000 1.860
30.82000 3.278
30.84000 2.444
30.86000 2.371
30.88000 1.866
30.90000 0.838
30.92000 -1.362
30.94000 -1.776
30.96000 -1.183
30.98000 2.822
31.00000 3.613
31.02000 3.382
31.04000 8.000
31.06000 2.695
31.08000 0.208
31.10000 2.069
31.12000 1.079
31.14000 -3.719
31.16000 -2.138
31.18000 2.407
31.20000 5.987
31.22000 3.862
31.24000 -0.329
31.26000 3.496
31.28000 5.033
31.30000 1.448
31.32000 0.976
31.34000 -2.538
31.36000 0.953
31.38000 4.822
31.40000 2.126
31.42000 -3.375
31.44000 -2.092
31.46000 3.922
31.48000 7.841
31.50000 4.975
31.52000 3.954
31.54000 4.739
31.56000 4.151
31.58000 2.681
31.60000 -0.041
31.62000 -1.548
31.64000 -3.422
31.66000 -2.391
31.68000 3.201
31.70000 3.877
31.72000 1.421
31.74000 -1.263
31.76000 -1.060
31.78000 -1.974
31.80000 -3.675
31.82000 1.514
31.84000 9.283
31.86000 5.580
31.88000 1.129
31.90000 -0.904
31.92000 2.858
31.94000 11.347
31.96000 4.593
31.98000 1.096
32.00000 6.140
32.02000 7.220
32.04000 4.518
32.06000 6.376
32.08000 2.571
32.10000 0.060
32.12000 4.871
32.14000 1.134
32.16000 -0.374
32.18000 1.359
32.20000 4.821
32.22000 4.053
32.24000 8.110
32.26000 2.205
32.28000 4.509
32.30000 1.044
32.32000 0.675
32.34000 1.891
32.36000 2.577
32.38000 5.502
32.40000 0.423
32.42000 1.128
32.44000 2.360
32.46000 0.747
32.48000 0.966
32.50000 -2.125
32.52000 1.267
32.54000 3.183
32.56000 2.838
32.58000 -1.491
32.60000 -3.438
32.62000 2.558
32.64000 5.750
32.66000 8.419
32.68000 4.200
32.70000 2.649
32.72000 6.654
32.74000 5.818
32.76000 4.078
32.78000 -3.629
32.80000 -1.246
32.82000 1.549
32.84000 2.967
32.86000 1.137
32.88000 6.278
32.90000 3.841
32.92000 7.660
32.94000 6.652
32.96000 6.340
32.98000 3.586
33.00000 2.925
33.02000 1.834
33.04000 2.831
33.06000 3.679
33.08000 2.211
33.10000 1.448
33.12000 -0.527
33.14000 -2.338
33.16000 2.903
33.18000 11.885
33.20000 9.231
33.22000 10.119
33.24000 5.090
33.26000 0.769
33.28000 -3.595
33.30000 -1.207
33.32000 0.444
33.34000 2.350
33.36000 0.811
33.38000 0.983
33.40000 3.543
33.42000 3.886
33.44000 6.759
33.46000 5.336
33.48000 7.871
33.50000 5.582
33.52000 0.912
33.54000 -1.468
33.56000 -1.577
33.58000 2.160
33.60000 7.029
33.62000 7.862
33.64000 9.660
33.66000 5.182
33.68000 4.189
33.70000 5.465
33.72000 2.880
33.74000 1.743
33.76000 1.861
33.78000 3.095
33.80000 6.120
33.82000 3.685
33.84000 1.651
33.86000 3.898
33.88000 5.289
33.90000 0.348
33.92000 -1.247
33.94000 6.521
33.96000 3.682
33.98000 2.732
34.00000 4.853
34.02000 2.409
34.04000 0.653
34.06000 2.004
34.08000 6.839
34.10000 10.483
34.12000 6.833
34.14000 0.866
34.16000 1.633
34.18000 -1.094
34.20000 3.131
34.22000 2.995
34.24000 1.464
34.26000 3.690
34.28000 2.392
34.30000 0.308
34.32000 2.128
34.34000 1.092
34.36000 -3.339
34.38000 -3.600
34.40000 -1.562
34.42000 -0.724
34.44000 0.429
34.46000 5.516
34.48000 5.389
34.50000 2.778
34.52000 2.238
34.54000 2.414
34.56000 2.381
34.58000 3.636
34.60000 0.116
34.62000 -1.818
34.64000 0.024
34.66000 -0.302
34.68000 -1.605
34.70000 -2.556
34.72000 -1.572
34.74000 2.571
34.76000 6.202
34.78000 3.701
34.80000 2.176
34.82000 3.029
34.84000 2.961
34.86000 0.811
34.88000 2.571
34.90000 5.448
34.92000 6.815
34.94000 4.458
34.96000 0.381
34.98000 -1.561
35.00000 -1.462
35.02000 -1.818
35.04000 -3.271
35.06000 -1.699
35.08000 -0.361
35.10000 -0.247
35.12000 2.931
35.14000 3.958
35.16000 -0.678
35.18000 0.706
35.20000 -0.063
35.22000 0.857
35.24000 -0.437
35.26000 -1.713
35.28000 -3.230
35.30000 -0.334
35.32000 3.439
35.34000 2.420
35.36000 -2.175
35.38000 1.067
35.40000 1.351
35.42000 1.955
35.44000 -2.524
35.46000 -0.655
35.48000 -1.281
35.50000 -1.505
35.52000 -2.912
35.54000 -2.226
35.56000 1.547
35.58000 -0.166
35.60000 -1.919
35.62000 -3.066
35.64000 -0.411
35.66000 3.137
35.68000 2.861
35.70000 0.198
35.72000 -0.009
35.74000 3.588
35.76000 1.560
35.78000 2.460
35.80000 2.595
35.82000 0.782
35.84000 2.019
35.86000 6.798
35.88000 3.255
35.90000 5.798
35.92000 1.499
35.94000 3.445
35.96000 5.769
35.98000 2.348
36.00000 3.868
36.02000 3.343
36.04000 -1.532
36.06000 -0.308
36.08000 -3.295
36.10000 -0.436
36.12000 -0.998
36.14000 -2.217
36.16000 3.140
36.18000 3.477
36.20000 5.481
36.22000 5.090
36.24000 4.551
36.26000 7.121
36.28000 6.608
36.30000 3.079
36.32000 -2.696
36.34000 -3.520
36.36000 3.494
36.38000 7.251
36.40000 2.752
36.42000 3.195
36.44000 5.669
36.46000 3.664
36.48000 -0.449
36.50000 6.124
36.52000 4.066
36.54000 7.977
36.56000 4.369
36.58000 3.219
36.60000 5.494
36.62000 2.679
36.64000 3.588
36.66000 1.584
36.68000 2.779
36.70000 2.510
36.72000 1.321
36.74000 6.132
36.76000 6.126
36.78000 -0.269
36.80000 -2.813
36.82000 -1.740
36.84000 -1.784
36.86000 0.978
36.88000 3.261
36.90000 5.528
36.92000 4.086
36.94000 3.834
36.96000 5.172
36.98000 1.925
37.00000 -0.283
37.02000 0.818
37.04000 -0.200
37.06000 1.828
37.08000 5.793
37.10000 5.233
37.12000 0.985
37.14000 -3.037
37.16000 -2.190
37.18000 -0.423
37.20000 -2.483
37.22000 -1.131
37.24000 0.165
37.26000 1.412
37.28000 2.206
37.30000 1.263
37.32000 1.571
37.34000 0.061
37.36000 1.404
37.38000 2.385
37.40000 0.967
37.42000 1.103
37.44000 0.441
37.46000 0.264
37.48000 0.797
37.50000 -3.583
37.52000 2.007
37.54000 0.423
37.56000 2.752
37.58000 5.825
37.60000 6.009
37.62000 2.890
37.64000 2.722
37.66000 3.607
37.68000 5.453
37.70000 6.940
37.72000 7.831
37.74000 13.173
37.76000 7.942
37.78000 5.947
37.80000 9.001
37.82000 12.311
37.84000 9.220
37.86000 -0.301
37.88000 -3.622
37.90000 5.108
37.92000 9.540
37.94000 5.714
37.96000 6.660
37.98000 8.074
38.00000 9.159
38.02000 9.696
38.04000 8.206
38.06000 9.573
38.08000 8.351
38.10000 11.161
38.12000 11.585
38.14000 13.745
38.16000 11.422
38.18000 11.351
38.20000 12.410
38.22000 12.308
38.24000 11.200
38.26000 12.207
38.28000 12.529
38.30000 16.836
38.32000 19.349
38.34000 12.767
38.36000 12.121
38.38000 18.713
38.40000 18.693
38.42000 14.658
38.44000 20.755
38.46000 22.030
38.48000 19.296
38.50000 16.406
38.52000 18.706
38.54000 21.380
38.56000 19.613
38.58000 19.174
38.60000 20.832
38.62000 22.918
38.64000 21.535
38.66000 24.153
38.68000 17.794
38.70000 18.856
38.72000 29.231
38.74000 27.846
38.76000 25.933
38.78000 26.711
38.80000 24.897
38.82000 26.625
38.84000 27.025
38.86000 25.760
38.88000 29.408
38.90000 29.871
38.92000 33.089
38.94000 35.756
38.96000 31.184
38.98000 39.472
39.00000 36.087
39.02000 41.119
39.04000 40.496
39.06000 39.050
39.08000 38.911
39.10000 37.085
39.12000 40.017
39.14000 43.882
39.16000 46.093
39.18000 46.079
39.20000 52.334
39.22000 50.714
39.24000 52.797
39.26000 53.900
39.28000 55.271
39.30000 61.167
39.32000 58.472
39.34000 63.035
39.36000 72.576
39.38000 68.505
39.40000 68.872
39.42000 69.368
39.44000 73.684
39.46000 82.698
39.48000 90.280
39.50000 89.056
39.52000 92.479
39.54000 104.243
39.56000 106.780
39.58000 106.658
39.60000 115.958
39.62000 122.806
39.64000 129.408
39.66000 136.033
39.68000 148.561
39.70000 163.954
39.72000 174.416
39.74000 183.679
39.76000 194.098
39.78000 206.077
39.80000 215.798
39.82000 238.077
39.84000 258.471
39.86000 280.326
39.88000 295.848
39.90000 319.981
39.92000 345.846
39.94000 364.893
39.96000 388.847
39.98000 420.650
40.00000 450.263
40.02000 481.266
40.04000 523.846
40.06000 555.601
40.08000 607.503
40.10000 656.659
40.12000 697.384
40.14000 735.589
40.16000 775.193
40.18000 844.767
40.20000 901.506
40.22000 943.215
40.24000 999.287
40.26000 1057.387
40.28000 1093.239
40.30000 1125.361
40.32000 1158.017
40.34000 1198.742
40.36000 1231.568
40.38000 1265.336
40.40000 1282.851
40.42000 1304.179
40.44000 1327.307
40.46000 1312.948
40.48000 1317.905
40.50000 1304.927
40.52000 1295.825
40.54000 1297.888
40.56000 1287.738
40.58000 1254.704
40.60000 1230.310
40.62000 1205.208
40.64000 1185.571
40.66000 1156.284
40.68000 1114.112
40.70000 1072.876
40.72000 1029.376
40.74000 1002.544
40.76000 963.595
40.78000 937.197
40.80000 900.755
40.82000 855.907
40.84000 820.241
40.86000 768.324
40.88000 733.973
40.90000 703.408
40.92000 672.220
40.94000 639.748
40.96000 603.839
40.98000 581.383
41.00000 546.699
41.02000 510.590
41.04000 479.750
41.06000 456.594
41.08000 429.059
41.10000 411.589
41.12000 388.798
41.14000 365.419
41.16000 343.122
41.18000 324.445
41.20000 310.705
41.22000 292.716
41.24000 278.140
41.26000 257.805
41.28000 243.903
41.30000 232.574
41.32000 229.175
41.34000 213.593
41.36000 201.161
41.38000 188.362
41.40000 182.298
41.42000 178.743
41.44000 168.916
41.46000 158.477
41.48000 152.337
41.50000 143.540
41.52000 137.474
41.54000 133.245
41.56000 122.214
41.58000 115.013
41.60000 111.089
41.62000 106.390
41.64000 102.562
41.66000 102.503
41.68000 99.108
41.70000 93.856
41.72000 85.362
41.74000 84.176
41.76000 79.694
41.78000 75.907
41.80000 73.755
41.82000 78.490
41.84000 74.369
41.86000 69.987
41.88000 59.401
41.90000 51.896
41.92000 53.217
41.94000 55.762
41.96000 57.671
41.98000 50.328
42.00000 49.786
42.02000 49.779
42.04000 44.992
42.06000 44.274
42.08000 39.783
42.10000 42.334
42.12000 39.781
42.14000 39.709
42.16000 40.167
42.18000 35.666
42.20000 33.948
42.22000 30.379
42.24000 29.152
42.26000 29.262
42.28000 27.903
42.30000 27.436
42.32000 27.956
42.34000 22.907
42.36000 25.209
42.38000 27.833
42.40000 23.436
42.42000 20.636
42.44000 14.973
42.46000 15.849
42.48000 16.930
42.50000 20.216
42.52000 21.573
42.54000 17.052
42.56000 14.568
42.58000 17.612
42.60000 15.670
42.62000 11.615
42.64000 13.667
42.66000 12.356
42.68000 12.330
42.70000 14.498
42.72000 12.550
42.74000 14.416
42.76000 15.347
42.78000 10.680
42.80000 10.706
42.82000 10.339
42.84000 12.930
42.86000 6.304
42.88000 8.173
42.90000 6.104
42.92000 4.006
42.94000 9.223
42.96000 8.186
42.98000 2.466
43.00000 2.800
43.02000 6.904
43.04000 7.616
43.06000 5.053
43.08000 7.532
43.10000 7.901
43.12000 7.653
43.14000 7.089
43.16000 4.319
43.18000 3.627
43.20000 3.843
43.22000 1.025
43.24000 4.350
43.26000 6.368
43.28000 4.679
43.30000 -0.051
43.32000 0.214
43.34000 -0.135
43.36000 -0.893
43.38000 2.069
43.40000 0.688
43.42000 2.288
43.44000 3.656
43.46000 0.315
43.48000 2.412
43.50000 -0.481
43.52000 3.004
43.54000 3.765
43.56000 0.751
43.58000 0.358
43.60000 2.967
43.62000 0.842
43.64000 4.701
43.66000 2.125
43.68000 0.643
43.70000 3.663
43.72000 4.496
43.74000 -0.137
43.76000 -3.398
43.78000 -0.090
43.80000 3.935
43.82000 1.160
43.84000 3.128
43.86000 1.468
43.88000 1.428
43.90000 -2.400
43.92000 -1.370
43.94000 0.644
43.96000 1.622
43.98000 1.658
44.00000 1.313
44.02000 1.255
44.04000 1.783
44.06000 1.817
44.08000 0.514
44.10000 -0.761
44.12000 0.570
44.14000 0.815
44.16000 1.249
44.18000 -2.111
44.20000 -3.348
44.22000 -1.292
44.24000 -0.069
44.26000 0.974
44.28000 -1.949
44.30000 -1.862
44.32000 0.359
44.34000 -1.123
44.36000 -1.769
44.38000 0.550
44.40000 1.637
44.42000 3.271
44.44000 0.995
44.46000 -3.072
44.48000 -3.317
44.50000 -0.786
44.52000 1.356
44.54000 0.360
44.56000 0.035
44.58000 2.472
44.60000 1.229
44.62000 1.099
44.64000 4.207
44.66000 1.822
44.68000 0.121
44.70000 1.970
44.72000 -0.621
44.74000 -3.284
44.76000 -1.385
44.78000 5.530
44.80000 3.567
44.82000 1.206
44.84000 2.448
44.86000 0.960
44.88000 3.202
44.90000 3.446
44.92000 2.217
44.94000 2.923
44.96000 4.173
44.98000 1.661
45.00000 0.627
45.02000 -0.126
45.04000 -0.739
45.06000 1.582
45.08000 1.415
45.10000 1.733
45.12000 0.922
45.14000 -0.496
45.16000 4.126
45.18000 0.652
45.20000 1.579
45.22000 0.653
45.24000 -1.014
45.26000 -0.568
45.28000 1.531
45.30000 -1.839
45.32000 2.886
45.34000 0.677
45.36000 -1.204
45.38000 -0.753
45.40000 1.697
45.42000 2.065
45.44000 2.235
45.46000 -0.949
45.48000 1.965
45.50000 2.030
45.52000 2.937
45.54000 2.002
45.56000 -0.106
45.58000 3.017
45.60000 0.367
45.62000 0.997
45.64000 5.679
45.66000 7.968
45.68000 5.408
45.70000 4.474
45.72000 3.673
45.74000 5.482
45.76000 4.917
45.78000 7.880
45.80000 8.328
45.82000 10.078
45.84000 11.876
45.86000 13.861
45.88000 11.496
45.90000 9.255
45.92000 15.925
45.94000 15.199
45.96000 17.128
45.98000 15.158
46.00000 17.811
46.02000 13.775
46.04000 17.066
46.06000 16.375
46.08000 16.322
46.10000 19.455
46.12000 20.698
46.14000 22.851
46.16000 25.852
46.18000 25.737
46.20000 28.782
46.22000 27.480
46.24000 29.689
46.26000 33.011
46.28000 30.161
46.30000 29.466
46.32000 28.489
46.34000 33.542
46.36000 38.447
46.38000 37.181
46.40000 41.153
46.42000 45.267
46.44000 42.827
46.46000 51.239
46.48000 53.824
46.50000 56.856
46.52000 62.038
46.54000 60.852
46.56000 60.184
46.58000 63.947
46.60000 66.878
46.62000 72.400
46.64000 75.127
46.66000 72.478
46.68000 82.103
46.70000 87.475
46.72000 89.263
46.74000 99.659
46.76000 99.248
46.78000 104.676
46.80000 112.475
46.82000 116.355
46.84000 120.161
46.86000 127.833
46.88000 124.088
46.90000 127.936
46.92000 136.584
46.94000 143.027
46.96000 140.466
46.98000 141.441
47.00000 145.283
47.02000 150.837
47.04000 158.534
47.06000 159.799
47.08000 161.533
47.10000 164.152
47.12000 173.586
47.14000 167.546
47.16000 158.573
47.18000 155.231
47.20000 153.432
47.22000 158.144
47.24000 151.885
47.26000 145.417
47.28000 148.586
47.30000 144.915
47.32000 138.103
47.34000 133.842
47.36000 138.690
47.38000 135.420
47.40000 127.017
47.42000 118.793
47.44000 116.747
47.46000 113.009
47.48000 110.130
47.50000 105.880
47.52000 104.181
47.54000 93.918
47.56000 90.677
47.58000 81.822
47.60000 80.004
47.62000 76.359
47.64000 75.059
47.66000 67.155
47.68000 60.413
47.70000 59.913
47.72000 54.012
47.74000 54.452
47.76000 54.695
47.78000 51.828
47.80000 49.026
47.82000 43.542
47.84000 43.059
47.86000 41.555
47.88000 41.068
47.90000 32.639
47.92000 32.636
47.94000 31.166
47.96000 29.527
47.98000 27.408
48.00000 28.224
48.02000 24.656
48.04000 19.857
48.06000 19.924
48.08000 19.347
48.10000 18.767
48.12000 15.827
48.14000 15.426
48.16000 13.081
48.18000 14.512
48.20000 12.200
48.22000 12.262
48.24000 9.877
48.26000 7.109
48.28000 4.099
48.30000 9.454
48.32000 7.467
48.34000 4.905
48.36000 5.036
48.38000 2.384
48.40000 0.581
48.42000 1.536
48.44000 3.138
48.46000 2.670
48.48000 2.948
48.50000 -0.130
48.52000 -1.223
48.54000 3.399
48.56000 5.621
48.58000 3.485
48.60000 4.038
48.62000 6.532
48.64000 4.752
48.66000 -2.078
48.68000 1.306
48.70000 2.208
48.72000 3.844
48.74000 0.991
48.76000 0.829
48.78000 2.493
48.80000 0.595
48.82000 -0.279
48.84000 0.652
48.86000 0.463
48.88000 -1.413
48.90000 -1.327
48.92000 -1.570
48.94000 0.625
48.96000 1.294
48.98000 0.460
49.00000 0.478
49.02000 -1.272
49.04000 0.651
49.06000 1.025
49.08000 -2.713
49.10000 -1.710
49.12000 3.002
49.14000 4.129
49.16000 3.947
49.18000 0.894
49.20000 -2.120
49.22000 -1.453
49.24000 -0.558
49.26000 4.512
49.28000 1.018
49.30000 -2.392
49.32000 0.572
49.34000 2.817
49.36000 2.702
49.38000 4.471
49.40000 3.133
49.42000 1.668
49.44000 0.229
49.46000 1.114
49.48000 0.348
49.50000 -0.856
49.52000 -0.845
49.54000 4.017
49.56000 1.547
49.58000 1.701
49.60000 4.843
49.62000 9.875
49.64000 6.573
49.66000 4.016
49.68000 0.992
49.70000 -2.564
49.72000 2.447
49.74000 6.263
49.76000 5.887
49.78000 4.903
49.80000 7.020
49.82000 7.332
49.84000 4.114
49.86000 1.878
49.88000 0.070
49.90000 -0.103
49.92000 4.595
49.94000 1.673
49.96000 0.592
49.98000 2.351
50.00000 1.582
50.02000 2.349
50.04000 4.156
50.06000 1.128
50.08000 -1.151
50.10000 -2.288
50.12000 0.845
50.14000 1.562
50.16000 3.569
50.18000 0.275
50.20000 2.785
50.22000 2.031
50.24000 -1.235
50.26000 0.608
50.28000 -0.575
50.30000 1.027
50.32000 2.997
50.34000 3.416
50.36000 3.285
50.38000 4.388
50.40000 -0.130
50.42000 0.254
50.44000 2.747
50.46000 0.410
50.48000 -0.204
50.50000 -0.135
50.52000 -1.403
50.54000 -1.214
50.56000 -1.580
50.58000 1.273
50.60000 -0.158
50.62000 1.028
50.64000 0.170
50.66000 2.882
50.68000 3.444
50.70000 1.639
50.72000 4.164
50.74000 4.251
50.76000 2.815
50.78000 1.710
50.80000 3.343
50.82000 5.316
50.84000 5.016
50.86000 -1.060
50.88000 -2.470
50.90000 -0.908
50.92000 1.075
50.94000 -0.126
50.96000 3.498
50.98000 1.690
51.00000 0.596
51.02000 0.826
51.04000 2.339
51.06000 5.286
51.08000 4.477
51.10000 2.486
51.12000 -1.819
51.14000 0.993
51.16000 3.656
51.18000 4.135
51.20000 4.658
51.22000 3.414
51.24000 0.942
51.26000 2.513
51.28000 2.738
51.30000 3.387
51.32000 2.096
51.34000 3.707
51.36000 4.040
51.38000 5.626
51.40000 5.734
51.42000 1.535
51.44000 0.689
51.46000 -0.342
51.48000 3.107
51.50000 -0.146
51.52000 -0.336
51.54000 1.788
51.56000 0.628
51.58000 -2.457
51.60000 -1.186
51.62000 3.142
51.64000 2.748
51.66000 3.097
51.68000 1.892
51.70000 0.783
51.72000 -1.098
51.74000 2.074
51.76000 2.262
51.78000 1.383
51.80000 0.750
51.82000 1.938
51.84000 1.087
51.86000 0.458
51.88000 0.974
51.90000 -1.300
51.92000 -0.580
51.94000 2.106
51.96000 2.574
51.98000 3.534
52.00000 2.384
52.02000 0.112
52.04000 -1.659
52.06000 -2.038
52.08000 -1.026
52.10000 -0.646
52.12000 2.019
52.14000 2.931
52.16000 0.067
52.18000 0.460
52.20000 -0.369
52.22000 0.090
52.24000 2.974
52.26000 0.958
52.28000 1.423
52.30000 3.483
52.32000 0.694
52.34000 -2.444
52.36000 -0.490
52.38000 1.873
52.40000 1.654
52.42000 1.787
52.44000 4.581
52.46000 0.694
52.48000 -1.003
52.50000 2.122
52.52000 1.612
52.54000 0.934
52.56000 2.171
52.58000 1.071
52.60000 1.953
52.62000 -0.144
52.64000 -0.135
52.66000 4.385
52.68000 4.796
52.70000 1.354
52.72000 0.641
52.74000 1.904
52.76000 3.686
52.78000 0.652
52.80000 2.832
52.82000 3.944
52.84000 -0.363
52.86000 0.818
52.88000 0.646
52.90000 -0.586
52.92000 -2.418
52.94000 -1.167
52.96000 5.205
52.98000 3.301
53.00000 4.804
53.02000 -0.740
53.04000 0.656
53.06000 -0.159
53.08000 3.577
53.10000 4.091
53.12000 2.263
53.14000 1.384
53.16000 1.283
53.18000 1.205
53.20000 3.494
53.22000 3.983
53.24000 3.071
53.26000 -0.392
53.28000 -0.435
53.30000 1.241
53.32000 -0.048
53.34000 0.158
53.36000 -1.528
53.38000 -1.254
53.40000 2.037
53.42000 -1.160
53.44000 -1.442
53.46000 -1.580
53.48000 3.119
53.50000 4.106
53.52000 3.141
53.54000 -0.470
53.56000 -2.236
53.58000 -2.069
53.60000 0.241
53.62000 3.009
53.64000 2.504
53.66000 1.957
53.68000 3.473
53.70000 3.758
53.72000 2.501
53.74000 -1.082
53.76000 0.303
53.78000 0.451
53.80000 2.701
53.82000 3.155
53.84000 0.211
53.86000 -2.033
53.88000 -0.895
53.90000 -1.780
53.92000 -0.617
53.94000 1.214
53.96000 1.938
53.98000 -0.945
54.00000 -1.925
54.02000 0.050
54.04000 -1.056
54.06000 -2.010
54.08000 -0.561
54.10000 0.457
54.12000 -0.086
54.14000 0.357
54.16000 4.654
54.18000 4.386
54.20000 -2.367
54.22000 2.176
54.24000 0.842
54.26000 2.955
54.28000 2.228
54.30000 3.437
54.32000 3.257
54.34000 1.268
54.36000 3.458
54.38000 4.254
54.40000 0.561
54.42000 1.416
54.44000 -0.706
54.46000 1.482
54.48000 0.768
54.50000 3.369
54.52000 -0.315
54.54000 4.596
54.56000 6.521
54.58000 4.544
54.60000 7.271
54.62000 3.497
54.64000 5.216
54.66000 3.566
54.68000 0.778
54.70000 -0.377
54.72000 -0.169
54.74000 2.947
54.76000 -1.084
54.78000 -2.367
54.80000 -1.653
54.82000 -0.093
54.84000 -1.410
54.86000 -2.127
54.88000 0.496
54.90000 2.792
54.92000 -1.488
54.94000 -1.919
54.96000 1.196
54.98000 -0.636
55.00000 1.416
55.02000 0.609
55.04000 -0.928
55.06000 0.533
55.08000 2.374
55.10000 2.128
55.12000 2.774
55.14000 2.299
55.16000 3.198
55.18000 5.436
55.20000 1.960
55.22000 1.840
55.24000 3.544
55.26000 5.244
55.28000 1.033
55.30000 -1.943
55.32000 0.516
55.34000 0.405
55.36000 -0.763
55.38000 2.107
55.40000 0.361
55.42000 -2.352
55.44000 0.742
55.46000 0.598
55.48000 7.949
55.50000 6.972
55.52000 0.897
55.54000 1.817
55.56000 1.504
55.58000 3.509
55.60000 1.387
55.62000 0.876
55.64000 3.757
55.66000 3.437
55.68000 1.746
55.70000 3.029
55.72000 0.599
55.74000 0.009
55.76000 -2.341
55.78000 0.945
55.80000 2.916
55.82000 2.168
55.84000 -1.579
55.86000 0.732
55.88000 6.113
55.90000 4.503
55.92000 1.825
55.94000 0.469
55.96000 1.763
55.98000 3.074
56.00000 5.743
56.02000 3.622
56.04000 -0.352
56.06000 -0.675
56.08000 1.585
56.10000 1.005
56.12000 0.557
56.14000 0.217
56.16000 2.365
56.18000 2.523
56.20000 4.060
56.22000 0.982
56.24000 4.911
56.26000 3.399
56.28000 2.369
56.30000 5.427
56.32000 4.220
56.34000 1.155
56.36000 1.423
56.38000 6.853
56.40000 6.035
56.42000 4.015
56.44000 -0.097
56.46000 1.471
56.48000 0.212
56.50000 -2.285
56.52000 2.274
56.54000 5.757
56.56000 3.184
56.58000 3.902
56.60000 5.382
56.62000 6.625
56.64000 6.383
56.66000 3.168
56.68000 4.392
56.70000 5.200
56.72000 2.094
56.74000 2.115
56.76000 -1.826
56.78000 -0.553
56.80000 2.382
56.82000 3.704
56.84000 3.185
56.86000 3.805
56.88000 3.467
56.90000 4.258
56.92000 2.293
56.94000 4.250
56.96000 1.175
56.98000 0.276
57.00000 1.488
57.02000 4.415
57.04000 2.449
57.06000 1.542
57.08000 3.785
57.10000 4.474
57.12000 2.234
57.14000 1.993
57.16000 -0.384
57.18000 -2.279
57.20000 -0.141
57.22000 2.520
57.24000 2.294
57.26000 -0.472
57.28000 0.949
57.30000 3.468
57.32000 0.947
57.34000 0.652
57.36000 2.073
57.38000 0.640
57.40000 4.621
57.42000 2.930
57.44000 2.599
57.46000 1.439
57.48000 0.374
57.50000 0.113
57.52000 1.404
57.54000 3.700
57.56000 3.054
57.58000 2.058
57.60000 0.688
57.62000 0.515
57.64000 2.230
57.66000 0.803
57.68000 2.102
57.70000 2.939
57.72000 1.436
57.74000 -0.679
57.76000 1.382
57.78000 5.056
57.80000 5.452
57.82000 3.837
57.84000 2.581
57.86000 2.032
57.88000 2.212
57.90000 1.783
57.92000 1.196
57.94000 0.492
57.96000 0.060
57.98000 1.921
58.00000 3.663
58.02000 2.009
58.04000 1.641
58.06000 -0.713
58.08000 -1.127
58.10000 -1.138
58.12000 -0.852
58.14000 0.707
58.16000 0.794
58.18000 -0.527
58.20000 3.073
58.22000 1.375
58.24000 -1.468
58.26000 -1.119
58.28000 0.024
58.30000 -0.808
58.32000 -2.262
58.34000 0.870
58.36000 -0.931
58.38000 1.570
58.40000 1.669
58.42000 3.822
58.44000 0.771
58.46000 1.280
58.48000 4.080
58.50000 1.947
58.52000 0.416
58.54000 1.197
58.56000 0.475
58.58000 2.750
58.60000 0.902
58.62000 1.047
58.64000 0.733
58.66000 0.738
58.68000 2.976
58.70000 2.607
58.72000 -2.224
58.74000 0.382
58.76000 -1.808
58.78000 -0.616
58.80000 2.782
58.82000 2.839
58.84000 2.708
58.86000 -0.245
58.88000 1.839
58.90000 6.274
58.92000 2.199
58.94000 3.779
58.96000 5.957
58.98000 5.499
59.00000 0.571
59.02000 1.208
59.04000 1.580
59.06000 3.884
59.08000 2.405
59.10000 4.160
59.12000 5.659
59.14000 6.053
59.16000 4.042
59.18000 1.752
59.20000 -0.672
59.22000 -2.218
59.24000 0.827
59.26000 2.399
59.28000 1.104
59.30000 1.611
59.32000 4.372
59.34000 4.464
59.36000 0.898
59.38000 0.500
59.40000 4.064
59.42000 0.114
59.44000 1.141
59.46000 0.024
59.48000 -0.585
59.50000 2.793
59.52000 3.049
59.54000 0.534
59.56000 -1.252
59.58000 -0.386
59.60000 -1.963
59.62000 1.240
59.64000 4.083
59.66000 6.230
59.68000 2.825
59.70000 2.612
59.72000 0.769
59.74000 2.171
59.76000 0.907
59.78000 -2.204
59.80000 0.382
59.82000 -0.340
59.84000 0.136
59.86000 2.545
59.88000 0.244
59.90000 3.307
59.92000 3.627
59.94000 4.192
59.96000 2.309
59.98000 0.056
60.00000 0.175
60.02000 0.435
60.04000 -0.189
60.06000 -1.007
60.08000 -0.796
60.10000 -0.474
60.12000 -1.572
60.14000 -1.280
60.16000 0.696
60.18000 1.192
60.20000 -1.149
60.22000 0.526
60.24000 1.685
60.26000 2.482
60.28000 -0.115
60.30000 0.447
60.32000 0.638
60.34000 2.107
60.36000 0.616
60.38000 1.146
60.40000 0.629
60.42000 2.278
60.44000 -0.051
60.46000 -0.063
60.48000 1.197
60.50000 -1.562
60.52000 -0.183
60.54000 3.593
60.56000 4.453
60.58000 3.715
60.60000 4.289
60.62000 2.630
60.64000 3.093
60.66000 1.850
60.68000 1.072
60.70000 3.129
60.72000 3.105
60.74000 2.550
60.76000 2.209
60.78000 4.973
60.80000 4.566
60.82000 2.916
60.84000 5.094
60.86000 5.474
60.88000 1.174
60.90000 0.842
60.92000 2.352
60.94000 3.249
60.96000 6.175
60.98000 4.792
61.00000 0.267
61.02000 1.014
61.04000 -2.100
61.06000 -2.145
61.08000 2.672
61.10000 2.835
61.12000 2.922
61.14000 1.035
61.16000 2.749
61.18000 2.113
61.20000 -0.089
61.22000 -0.214
61.24000 1.237
61.26000 3.385
61.28000 3.557
61.30000 4.168
61.32000 3.788
61.34000 0.827
61.36000 4.199
61.38000 4.730
61.40000 6.333
61.42000 3.385
61.44000 3.252
61.46000 4.093
61.48000 6.183
61.50000 6.518
61.52000 6.519
61.54000 3.203
61.56000 2.894
61.58000 0.576
61.60000 -2.101
61.62000 -1.157
61.64000 3.134
61.66000 -0.171
61.68000 1.733
61.70000 4.418
61.72000 1.334
61.74000 4.135
61.76000 2.454
61.78000 2.366
61.80000 3.909
61.82000 0.204
61.84000 2.083
61.86000 4.783
61.88000 4.164
61.90000 3.377
61.92000 3.718
61.94000 6.097
61.96000 6.064
61.98000 3.580
62.00000 2.333
62.02000 1.107
62.04000 3.235
62.06000 3.824
62.08000 3.340
62.10000 2.580
62.12000 3.197
62.14000 4.675
62.16000 3.586
62.18000 5.026
62.20000 3.450
62.22000 1.111
62.24000 0.341
62.26000 2.352
62.28000 0.570
62.30000 2.754
62.32000 3.831
62.34000 1.919
62.36000 -1.283
62.38000 -0.356
62.40000 1.748
62.42000 3.606
62.44000 3.062
62.46000 3.421
62.48000 4.806
62.50000 3.217
62.52000 2.134
62.54000 -2.112
62.56000 1.043
62.58000 2.053
62.60000 4.911
62.62000 4.601
62.64000 2.923
62.66000 4.213
62.68000 3.054
62.70000 1.978
62.72000 1.195
62.74000 1.714
62.76000 4.476
62.78000 7.587
62.80000 3.637
62.82000 1.193
62.84000 0.123
62.86000 2.811
62.88000 1.447
62.90000 0.712
62.92000 0.642
62.94000 0.345
62.96000 2.711
62.98000 3.457
63.00000 3.205
63.02000 1.886
63.04000 -1.122
63.06000 2.168
63.08000 4.251
63.10000 2.467
63.12000 2.451
63.14000 3.473
63.16000 0.373
63.18000 2.133
63.20000 1.850
63.22000 2.204
63.24000 3.095
63.26000 0.856
63.28000 -0.559
63.30000 -2.110
63.32000 -0.756
63.34000 1.029
63.36000 0.362
63.38000 2.731
63.40000 3.346
63.42000 -0.122
63.44000 -0.630
63.46000 2.185
63.48000 0.343
63.50000 2.395
63.52000 2.102
63.54000 1.825
63.56000 2.715
63.58000 5.121
63.60000 4.556
63.62000 3.316
63.64000 3.586
63.66000 3.343
63.68000 1.718
63.70000 2.546
63.72000 1.615
63.74000 0.478
63.76000 1.081
63.78000 0.374
63.80000 2.129
63.82000 1.200
63.84000 3.040
63.86000 0.174
63.88000 -2.105
63.90000 -0.292
63.92000 1.264
63.94000 0.886
63.96000 -1.468
63.98000 -0.180
64.00000 -1.829
64.02000 -0.967
64.04000 -0.486
64.06000 -0.317
64.08000 2.237
64.10000 0.811
64.12000 -2.106
64.14000 3.253
64.16000 2.753
64.18000 3.099
64.20000 1.936
64.22000 1.103
64.24000 2.233
64.26000 1.475
64.28000 3.497
64.30000 0.469
64.32000 -1.425
64.34000 -2.113
64.36000 -0.407
64.38000 2.286
64.40000 1.412
64.42000 -1.201
64.44000 2.841
64.46000 1.051
64.48000 0.852
64.50000 0.464
64.52000 0.198
64.54000 2.105
64.56000 0.372
64.58000 -0.582
64.60000 -1.544
64.62000 0.018
64.64000 2.761
64.66000 3.571
64.68000 0.201
64.70000 -1.271
64.72000 2.610
64.74000 1.379
64.76000 -0.258
64.78000 0.548
64.80000 -0.728
64.82000 0.340
64.84000 0.829
64.86000 -1.142
64.88000 -0.007
64.90000 0.538
64.92000 1.490
64.94000 0.645
64.96000 2.444
64.98000 1.507
65.00000 -1.789
65.02000 -2.099
65.04000 0.653
65.06000 1.503
65.08000 3.037
65.10000 2.923
65.12000 2.305
65.14000 1.217
65.16000 1.797
65.18000 3.373
65.20000 1.950
65.22000 -0.036
65.24000 -1.834
65.26000 -0.697
65.28000 0.698
65.30000 1.026
65.32000 -2.083
65.34000 1.574
65.36000 3.223
65.38000 1.267
65.40000 -1.017
65.42000 0.817
65.44000 2.782
65.46000 2.183
65.48000 0.621
65.50000 0.489
65.52000 1.946
65.54000 0.602
65.56000 1.085
65.58000 3.605
65.60000 1.486
65.62000 1.472
65.64000 2.547
65.66000 1.187
65.68000 0.527
65.70000 -2.077
65.72000 -1.055
65.74000 -0.342
65.76000 -0.177
65.78000 -1.508
65.80000 1.016
65.82000 0.861
65.84000 0.465
65.86000 0.960
65.88000 1.034
65.90000 -1.107
65.92000 -0.644
65.94000 3.347
65.96000 3.726
65.98000 1.265
66.00000 0.995
66.02000 1.092
66.04000 -0.774
66.06000 0.987
66.08000 1.491
66.10000 0.857
66.12000 0.973
66.14000 2.877
66.16000 0.207
66.18000 2.142
66.20000 -0.562
66.22000 -1.210
66.24000 -1.671
66.26000 -2.080
66.28000 -1.366
66.30000 0.741
66.32000 0.348
66.34000 1.585
66.36000 2.417
66.38000 0.590
66.40000 -1.773
66.42000 -1.047
66.44000 -1.026
66.46000 -0.540
66.48000 -0.713
66.50000 0.466
66.52000 -0.368
66.54000 0.312
66.56000 0.676
66.58000 -1.539
66.60000 -0.645
66.62000 -0.700
66.64000 -1.004
66.66000 1.123
66.68000 1.419
66.70000 5.079
66.72000 2.107
66.74000 -0.207
66.76000 0.361
66.78000 -0.986
66.80000 0.787
66.82000 3.101
66.84000 2.520
66.86000 1.998
66.88000 1.495
66.90000 -0.279
66.92000 0.000
66.94000 -0.248
66.96000 -0.060
66.98000 0.888
67.00000 1.998
67.02000 0.671
67.04000 -1.194
67.06000 -2.093
67.08000 0.939
67.10000 1.289
67.12000 0.137
67.14000 -2.076
67.16000 -1.614
67.18000 0.526
67.20000 0.398
67.22000 1.237
67.24000 -1.005
67.26000 -0.022
67.28000 -1.244
67.30000 0.549
67.32000 -0.726
67.34000 -1.206
67.36000 -1.373
67.38000 -0.778
67.40000 0.488
67.42000 -2.097
67.44000 -1.605
67.46000 -0.138
67.48000 0.376
67.50000 -1.315
67.52000 -0.978
67.54000 -0.865
67.56000 -1.472
67.58000 -0.926
67.60000 -0.782
67.62000 -1.687
67.64000 0.342
67.66000 0.537
67.68000 -0.628
67.70000 -0.525
67.72000 -2.105
67.74000 -1.543
67.76000 -0.429
67.78000 -0.156
67.80000 1.098
67.82000 0.563
67.84000 0.377
67.86000 0.676
67.88000 1.328
67.90000 3.235
67.92000 1.131
67.94000 0.557
67.96000 -2.114
67.98000 0.898
68.00000 3.686
68.02000 1.303
68.04000 2.622
68.06000 2.193
68.08000 5.007
68.10000 1.648
68.12000 3.054
68.14000 1.474
68.16000 2.240
68.18000 4.209
68.20000 7.058
68.22000 6.856
68.24000 8.277
68.26000 6.222
68.28000 2.333
68.30000 5.080
68.32000 7.709
68.34000 8.214
68.36000 6.537
68.38000 4.094
68.40000 4.351
68.42000 4.807
68.44000 5.350
68.46000 11.771
68.48000 14.223
68.50000 12.326
68.52000 10.194
68.54000 10.474
68.56000 12.517
68.58000 11.968
68.60000 13.028
68.62000 15.288
68.64000 16.593
68.66000 16.627
68.68000 15.597
68.70000 13.497
68.72000 16.657
68.74000 20.918
68.76000 18.617
68.78000 16.506
68.80000 19.650
68.82000 18.259
68.84000 22.124
68.86000 20.339
68.88000 19.047
68.90000 17.510
68.92000 16.993
68.94000 18.861
68.96000 17.415
68.98000 16.846
69.00000 16.473
69.02000 17.520
69.04000 17.639
69.06000 17.803
69.08000 18.215
69.10000 16.275
69.12000 16.625
69.14000 15.122
69.16000 17.397
69.18000 18.528
69.20000 17.684
69.22000 13.670
69.24000 14.744
69.26000 14.094
69.28000 12.889
69.30000 12.596
69.32000 10.510
69.34000 9.123
69.36000 9.699
69.38000 8.834
69.40000 8.505
69.42000 7.523
69.44000 8.364
69.46000 7.997
69.48000 4.977
69.50000 4.462
69.52000 4.762
69.54000 4.309
69.56000 3.996
69.58000 4.889
69.60000 3.907
69.62000 6.487
69.64000 3.374
69.66000 1.575
69.68000 2.881
69.70000 2.140
69.72000 2.511
69.74000 1.674
69.76000 1.302
69.78000 2.361
69.80000 3.219
69.82000 4.736
69.84000 3.096
69.86000 0.287
69.88000 1.375
69.90000 3.237
69.92000 2.312
69.94000 0.531
69.96000 1.120
69.98000 0.514
70.00000 0.304
70.02000 -0.341
70.04000 0.630
70.06000 2.155
70.08000 2.636
70.10000 1.868
70.12000 0.854
70.14000 -0.210
70.16000 -2.001
70.18000 -0.907
70.20000 2.671
70.22000 5.188
70.24000 4.004
70.26000 1.944
70.28000 -1.416
70.30000 -1.289
70.32000 -0.019
70.34000 0.457
70.36000 1.487
70.38000 0.930
70.40000 -1.523
70.42000 -1.079
70.44000 0.202
70.46000 1.745
70.48000 -0.012
70.50000 2.343
70.52000 4.815
70.54000 0.807
70.56000 -0.206
70.58000 2.050
70.60000 2.646
70.62000 3.921
70.64000 0.563
70.66000 -0.898
70.68000 1.306
70.70000 3.953
70.72000 4.974
70.74000 2.414
70.76000 -0.975
70.78000 -1.901
70.80000 1.488
70.82000 3.046
70.84000 2.635
70.86000 1.856
70.88000 1.803
70.90000 1.442
70.92000 2.765
70.94000 1.813
70.96000 2.714
70.98000 1.939
71.00000 1.372
71.02000 0.584
71.04000 0.150
71.06000 1.218
71.08000 2.212
71.10000 2.826
71.12000 4.419
71.14000 1.349
71.16000 1.547
71.18000 0.847
71.20000 2.345
71.22000 4.460
71.24000 4.297
71.26000 4.078
71.28000 3.188
71.30000 3.240
71.32000 2.258
71.34000 3.920
71.36000 3.294
71.38000 3.955
71.40000 2.191
71.42000 1.690
71.44000 3.824
71.46000 3.668
71.48000 4.445
71.50000 5.577
71.52000 4.175
71.54000 3.539
71.56000 3.600
71.58000 0.945
71.60000 -1.834
71.62000 0.625
71.64000 3.369
71.66000 2.393
71.68000 3.117
71.70000 1.038
71.72000 2.678
71.74000 3.213
71.76000 1.073
71.78000 2.106
71.80000 1.959
71.82000 2.982
71.84000 4.853
71.86000 3.866
71.88000 1.189
71.90000 0.106
71.92000 -0.148
71.94000 2.419
71.96000 1.099
71.98000 3.745
72.00000 0.092
72.02000 3.044
72.04000 1.954
72.06000 -0.398
72.08000 -1.118
72.10000 -1.860
72.12000 1.096
72.14000 3.716
72.16000 1.058
72.18000 2.645
72.20000 1.006
72.22000 3.446
72.24000 1.273
72.26000 2.289
72.28000 4.103
72.30000 3.789
72.32000 3.746
72.34000 1.598
72.36000 2.545
72.38000 0.234
72.40000 2.260
72.42000 1.814
72.44000 1.179
72.46000 2.627
72.48000 1.417
72.50000 2.089
72.52000 2.508
72.54000 2.090
72.56000 0.926
72.58000 0.700
72.60000 2.330
72.62000 2.884
72.64000 1.775
72.66000 -0.536
72.68000 1.594
72.70000 2.116
72.72000 2.572
72.74000 -0.191
72.76000 -1.268
72.78000 -1.277
72.80000 -1.623
72.82000 0.899
72.84000 1.358
72.86000 2.789
72.88000 2.354
72.90000 2.329
72.92000 1.208
72.94000 -0.530
72.96000 1.573
72.98000 2.322
73.00000 -1.832
73.02000 -0.128
73.04000 4.479
73.06000 1.702
73.08000 0.817
73.10000 -0.018
73.12000 0.818
73.14000 1.613
73.16000 0.690
73.18000 1.703
73.20000 -0.921
73.22000 1.139
73.24000 -0.696
73.26000 0.474
73.28000 2.286
73.30000 2.475
73.32000 1.039
73.34000 0.454
73.36000 -1.570
73.38000 1.969
73.40000 0.376
73.42000 -1.197
73.44000 0.630
73.46000 2.806
73.48000 1.952
73.50000 -0.030
73.52000 0.208
73.54000 2.236
73.56000 1.468
73.58000 0.588
73.60000 0.058
73.62000 3.853
73.64000 0.317
73.66000 1.087
73.68000 0.380
73.70000 0.124
73.72000 3.463
73.74000 1.516
73.76000 0.165
73.78000 0.598
73.80000 1.923
73.82000 3.040
73.84000 2.425
73.86000 -0.622
73.88000 -1.792
73.90000 1.252
73.92000 2.518
73.94000 2.639
73.96000 1.476
73.98000 2.315
74.00000 3.079
74.02000 1.660
74.04000 -1.792
74.06000 -1.413
74.08000 -0.013
74.10000 1.282
74.12000 1.972
74.14000 0.571
74.16000 0.632
74.18000 0.394
74.20000 0.596
74.22000 3.135
74.24000 1.805
74.26000 1.598
74.28000 2.602
74.30000 0.767
74.32000 2.900
74.34000 1.014
74.36000 -0.101
74.38000 3.226
74.40000 2.062
74.42000 1.606
74.44000 2.755
74.46000 1.380
74.48000 2.254
74.50000 1.740
74.52000 0.671
74.54000 -0.911
74.56000 0.635
74.58000 0.399
74.60000 -1.814
74.62000 -0.353
74.64000 0.449
74.66000 0.481
74.68000 0.761
74.70000 -1.086
74.72000 -0.331
74.74000 0.382
74.76000 0.762
74.78000 3.138
74.80000 0.754
74.82000 -1.149
74.84000 1.339
74.86000 1.496
74.88000 3.399
74.90000 2.701
74.92000 -0.970
74.94000 -1.814
74.96000 -1.540
74.98000 0.645
75.00000 3.764
75.02000 2.549
75.04000 0.771
75.06000 1.286
75.08000 0.654
75.10000 2.122
75.12000 1.920
75.14000 0.307
75.16000 0.032
75.18000 -0.524
75.20000 0.923
75.22000 2.907
75.24000 2.401
75.26000 0.276
75.28000 1.439
75.30000 -0.015
75.32000 2.672
75.34000 1.739
75.36000 1.776
75.38000 0.726
75.40000 3.783
75.42000 4.039
75.44000 3.105
75.46000 -0.078
75.48000 -0.470
75.50000 0.092
75.52000 -1.821
75.54000 0.163
75.56000 1.397
75.58000 -0.716
75.60000 -1.060
75.62000 -1.172
75.64000 -1.195
75.66000 -1.475
75.68000 -0.066
75.70000 -0.356
75.72000 -0.441
75.74000 0.130
75.76000 -1.542
75.78000 1.955
75.80000 2.725
75.82000 2.895
75.84000 1.297
75.86000 3.328
75.88000 2.426
75.90000 0.587
75.92000 2.901
75.94000 2.993
75.96000 1.971
75.98000 0.384
76.00000 0.327
76.02000 1.972
76.04000 2.730
76.06000 3.019
76.08000 2.575
76.10000 0.953
76.12000 0.984
76.14000 5.937
76.16000 4.417
76.18000 2.452
76.20000 1.552
76.22000 2.397
76.24000 0.403
76.26000 2.223
76.28000 4.419
76.30000 1.463
76.32000 -0.342
76.34000 -0.802
76.36000 -1.487
76.38000 -1.796
76.40000 -1.159
76.42000 -1.071
76.44000 -0.439
76.46000 3.582
76.48000 2.418
76.50000 0.552
76.52000 0.430
76.54000 4.308
76.56000 2.654
76.58000 -1.795
76.60000 0.222
76.62000 1.270
76.64000 -0.853
76.66000 0.221
76.68000 3.624
76.70000 3.311
76.72000 2.249
76.74000 -0.942
76.76000 -0.927
76.78000 1.335
76.80000 3.760
76.82000 3.893
76.84000 3.256
76.86000 3.224
76.88000 2.665
76.90000 -0.076
76.92000 1.365
76.94000 1.038
76.96000 1.078
76.98000 1.532
77.00000 2.526
77.02000 1.370
77.04000 0.946
77.06000 0.883
77.08000 -0.006
77.10000 -0.316
77.12000 2.589
77.14000 1.641
77.16000 -0.802
77.18000 2.222
77.20000 2.688
77.22000 2.693
77.24000 2.536
77.26000 3.452
77.28000 1.605
77.30000 3.828
77.32000 5.996
77.34000 3.762
77.36000 3.449
77.38000 3.677
77.40000 1.136
77.42000 -1.826
77.44000 -1.720
77.46000 -0.226
77.48000 2.546
77.50000 3.684
77.52000 -0.149
77.54000 0.788
77.56000 1.677
77.58000 2.009
77.60000 3.839
77.62000 2.375
77.64000 2.140
77.66000 -0.313
77.68000 2.248
77.70000 2.148
77.72000 0.185
77.74000 -0.074
77.76000 -1.467
77.78000 -0.722
77.80000 0.394
77.82000 0.679
77.84000 -1.856
77.86000 -1.040
77.88000 -1.166
77.90000 1.223
77.92000 0.340
77.94000 -1.270
77.96000 0.826
77.98000 1.093
78.00000 2.274
78.02000 1.496
78.04000 -1.317
78.06000 1.811
78.08000 2.216
78.10000 1.566
78.12000 0.952
78.14000 1.297
78.16000 0.801
78.18000 -0.244
78.20000 0.792
78.22000 1.158
78.24000 1.945
78.26000 0.442
78.28000 -1.322
78.30000 -1.706
78.32000 -0.638
78.34000 -1.285
78.36000 -0.447
78.38000 -0.260
78.40000 -0.781
78.42000 -0.299
78.44000 1.417
78.46000 2.500
78.48000 1.048
78.50000 1.554
78.52000 -0.353
78.54000 -1.872
78.56000 -0.465
78.58000 0.737
78.60000 1.246
78.62000 0.007
78.64000 0.744
78.66000 1.272
78.68000 2.110
78.70000 2.442
78.72000 -0.093
78.74000 1.219
78.76000 2.117
78.78000 0.513
78.80000 -0.243
78.82000 -1.068
78.84000 -0.375
78.86000 1.773
78.88000 0.325
78.90000 -0.456
78.92000 2.768
78.94000 2.695
78.96000 2.974
78.98000 2.406
79.00000 1.918
79.02000 -0.155
79.04000 -1.855
79.06000 -0.104
79.08000 3.219
79.10000 2.861
79.12000 1.115
79.14000 1.411
79.16000 3.190
79.18000 3.368
79.20000 3.597
79.22000 0.318
79.24000 1.502
79.26000 0.787
79.28000 -0.043
79.30000 0.964
79.32000 -0.236
79.34000 0.590
79.36000 -0.533
79.38000 1.820
79.40000 0.539
79.42000 0.142
79.44000 1.204
79.46000 3.515
79.48000 1.590
79.50000 0.631
79.52000 2.356
79.54000 1.399
79.56000 1.315
79.58000 1.100
79.60000 0.110
79.62000 2.784
79.64000 0.759
79.66000 0.828
79.68000 -0.528
79.70000 1.400
79.72000 1.846
79.74000 -0.968
79.76000 0.281
79.78000 1.633
79.80000 2.264
79.82000 3.884
79.84000 2.777
79.86000 1.956
79.88000 1.189
79.90000 -0.421
79.92000 4.210
79.94000 3.322
79.96000 1.908
79.98000 2.672
80.00000 2.752
80.02000 3.158
80.04000 4.086
80.06000 3.639
80.08000 2.577
80.10000 -0.049
80.12000 -1.849
80.14000 1.084
80.16000 0.901
80.18000 0.632
80.20000 1.729
80.22000 2.629
80.24000 4.260
80.26000 7.408
80.28000 4.973
80.30000 2.386
80.32000 -0.054
80.34000 0.703
80.36000 2.422
80.38000 1.863
80.40000 -0.220
80.42000 -0.170
80.44000 3.112
80.46000 1.341
80.48000 -1.094
80.50000 1.108
80.52000 -1.912
80.54000 -0.404
80.56000 0.987
80.58000 2.362
80.60000 1.483
80.62000 3.019
80.64000 2.009
80.66000 1.274
80.68000 2.501
80.70000 -0.147
80.72000 1.018
80.74000 0.115
80.76000 -0.366
80.78000 0.230
80.80000 -1.621
80.82000 3.155
80.84000 3.126
80.86000 4.082
80.88000 1.240
80.90000 -0.559
80.92000 0.707
80.94000 0.003
80.96000 2.984
80.98000 -0.111
81.00000 -1.379
81.02000 -0.358
81.04000 0.956
81.06000 0.346
81.08000 -0.961
81.10000 0.751
81.12000 3.094
81.14000 0.542
81.16000 -0.944
81.18000 -0.472
81.20000 -0.026
81.22000 -0.195
81.24000 0.700
81.26000 0.108
81.28000 -0.478
81.30000 -1.476
81.32000 -0.242
81.34000 0.619
81.36000 -1.047
81.38000 0.595
81.40000 2.042
81.42000 0.036
81.44000 -0.899
81.46000 -0.076
81.48000 -0.152
81.50000 3.129
81.52000 2.733
81.54000 3.101
81.56000 -2.027
81.58000 -1.548
81.60000 0.923
81.62000 3.953
81.64000 2.855
81.66000 1.196
81.68000 0.817
81.70000 -0.090
81.72000 -1.004
81.74000 0.305
81.76000 1.635
81.78000 1.007
81.80000 -1.195
81.82000 1.993
81.84000 3.022
81.86000 3.929
81.88000 2.995
81.90000 5.139
81.92000 3.743
81.94000 1.525
81.96000 2.824
81.98000 2.363
82.00000 1.421
82.02000 5.130
82.04000 3.878
82.06000 3.777
82.08000 4.324
82.10000 4.380
82.12000 6.931
82.14000 8.474
82.16000 6.617
82.18000 6.737
82.20000 8.794
82.22000 10.103
82.24000 10.372
82.26000 11.314
82.28000 11.288
82.30000 14.357
82.32000 14.081
82.34000 19.421
82.36000 19.004
82.38000 15.773
82.40000 14.826
82.42000 16.695
82.44000 19.098
82.46000 20.408
82.48000 20.375
82.50000 24.107
82.52000 25.261
82.54000 24.706
82.56000 25.451
82.58000 25.953
82.60000 25.905
82.62000 29.671
82.64000 31.765
82.66000 37.712
82.68000 36.982
82.70000 34.118
82.72000 36.014
82.74000 34.405
82.76000 39.456
82.78000 42.898
82.80000 44.707
82.82000 40.610
82.84000 44.988
82.86000 44.010
82.88000 43.614
82.90000 44.580
82.92000 47.643
82.94000 48.401
82.96000 49.211
82.98000 51.720
83.00000 53.354
83.02000 51.488
83.04000 50.994
83.06000 52.403
83.08000 52.778
83.10000 57.176
83.12000 56.811
83.14000 50.284
83.16000 51.002
83.18000 50.522
83.20000 52.261
83.22000 52.991
83.24000 51.834
83.26000 48.995
83.28000 51.575
83.30000 50.222
83.32000 46.323
83.34000 41.464
83.36000 47.215
83.38000 47.701
83.40000 44.362
83.42000 44.196
83.44000 41.096
83.46000 39.805
83.48000 41.324
83.50000 38.860
83.52000 38.234
83.54000 36.203
83.56000 38.540
83.58000 34.729
83.60000 32.510
83.62000 32.383
83.64000 31.261
83.66000 25.537
83.68000 24.676
83.70000 28.252
83.72000 29.164
83.74000 24.816
83.76000 24.315
83.78000 20.480
83.80000 19.884
83.82000 18.955
83.84000 18.038
83.86000 15.549
83.88000 17.824
83.90000 15.129
83.92000 14.845
83.94000 12.164
83.96000 13.237
83.98000 17.793
84.00000 13.876
84.02000 11.290
84.04000 9.669
84.06000 5.844
84.08000 7.534
84.10000 8.552
84.12000 9.739
84.14000 9.303
84.16000 10.283
84.18000 7.254
84.20000 5.549
84.22000 3.503
84.24000 4.952
84.26000 5.526
84.28000 4.661
84.30000 5.691
84.32000 7.049
84.34000 4.593
84.36000 2.597
84.38000 1.101
84.40000 0.581
84.42000 1.142
84.44000 2.660
84.46000 0.012
84.48000 0.366
84.50000 2.152
84.52000 3.161
84.54000 -0.376
84.56000 2.101
84.58000 5.907
84.60000 4.945
84.62000 5.405
84.64000 2.194
84.66000 -0.208
84.68000 -2.044
84.70000 0.027
84.72000 1.003
84.74000 5.011
84.76000 3.206
84.78000 2.714
84.80000 1.084
84.82000 0.753
84.84000 0.527
84.86000 1.465
84.88000 0.624
84.90000 0.603
84.92000 1.320
84.94000 0.317
84.96000 -0.945
84.98000 2.774
85.00000 3.620
85.02000 3.567
85.04000 -0.718
85.06000 0.206
85.08000 -0.213
85.10000 -0.291
85.12000 -0.632
85.14000 0.246
85.16000 0.409
85.18000 -1.990
85.20000 -0.718
85.22000 -1.079
85.24000 -1.212
85.26000 -1.986
85.28000 1.076
85.30000 0.951
85.32000 -1.566
85.34000 0.225
85.36000 -0.028
85.38000 -1.136
85.40000 -0.178
85.42000 -0.403
85.44000 -0.371
85.46000 0.382
85.48000 -1.704
85.50000 0.629
85.52000 2.523
85.54000 1.885
85.56000 2.880
85.58000 0.728
85.60000 -1.577
85.62000 -0.927
85.64000 1.550
85.66000 2.223
85.68000 0.605
85.70000 -0.139
85.72000 2.981
85.74000 1.714
85.76000 -1.892
85.78000 -1.949
85.80000 -0.625
85.82000 -1.946
85.84000 -0.941
85.86000 1.023
85.88000 2.926
85.90000 0.155
85.92000 3.218
85.94000 2.830
85.96000 0.507
85.98000 -0.687
86.00000 -1.931
86.02000 2.392
86.04000 6.091
86.06000 1.677
86.08000 1.537
86.10000 0.733
86.12000 3.085
86.14000 3.149
86.16000 -1.470
86.18000 0.080
86.20000 4.804
86.22000 4.727
86.24000 2.966
86.26000 3.685
86.28000 4.719
86.30000 2.752
86.32000 1.106
86.34000 0.961
86.36000 -0.045
86.38000 3.971
86.40000 4.843
86.42000 4.234
86.44000 3.229
86.46000 2.320
86.48000 3.981
86.50000 4.312
86.52000 7.856
86.54000 5.490
86.56000 4.081
86.58000 4.090
86.60000 2.997
86.62000 6.639
86.64000 9.888
86.66000 11.098
86.68000 8.810
86.70000 6.468
86.72000 8.313
86.74000 8.406
86.76000 10.983
86.78000 13.670
86.80000 12.228
86.82000 8.437
86.84000 8.919
86.86000 11.144
86.88000 9.245
86.90000 12.191
86.92000 13.339
86.94000 14.942
86.96000 15.376
86.98000 14.085
87.00000 16.269
87.02000 17.963
87.04000 20.535
87.06000 21.304
87.08000 18.083
87.10000 19.142
87.12000 23.736
87.14000 23.948
87.16000 23.663
87.18000 23.766
87.20000 24.355
87.22000 25.341
87.24000 27.978
87.26000 25.132
87.28000 26.657
87.30000 27.830
87.32000 30.411
87.34000 31.156
87.36000 28.876
87.38000 25.184
87.40000 26.780
87.42000 27.983
87.44000 31.883
87.46000 35.953
87.48000 36.347
87.50000 33.441
87.52000 34.057
87.54000 35.154
87.56000 32.770
87.58000 35.122
87.60000 34.333
87.62000 34.466
87.64000 33.543
87.66000 31.928
87.68000 29.451
87.70000 31.638
87.72000 31.576
87.74000 30.501
87.76000 28.623
87.78000 31.888
87.80000 29.610
87.82000 27.020
87.84000 24.777
87.86000 27.825
87.88000 27.666
87.90000 23.923
87.92000 25.889
87.94000 23.906
87.96000 23.616
87.98000 22.919
88.00000 19.972
88.02000 18.701
88.04000 17.638
88.06000 16.349
88.08000 21.222
88.10000 16.521
88.12000 13.505
88.14000 14.519
88.16000 15.713
88.18000 14.805
88.20000 12.186
88.22000 13.013
88.24000 11.953
88.26000 9.272
88.28000 11.868
88.30000 11.277
88.32000 8.025
88.34000 8.545
88.36000 7.012
88.38000 7.066
88.40000 7.693
88.42000 7.679
88.44000 5.877
88.46000 9.517
88.48000 8.572
88.50000 5.648
88.52000 7.029
88.54000 6.154
88.56000 5.517
88.58000 5.392
88.60000 4.238
88.62000 1.604
88.64000 1.443
88.66000 3.568
88.68000 2.646
88.70000 2.638
88.72000 4.965
88.74000 4.123
88.76000 4.558
88.78000 2.741
88.80000 2.342
88.82000 3.290
88.84000 1.872
88.86000 -1.547
88.88000 0.555
88.90000 0.326
88.92000 -0.319
88.94000 2.772
88.96000 2.351
88.98000 -0.508
89.00000 -1.899
89.02000 -0.827
89.04000 0.893
89.06000 0.907
89.08000 2.894
89.10000 -0.344
89.12000 0.734
89.14000 -0.077
89.16000 -0.803
89.18000 -1.344
89.20000 -0.811
89.22000 -0.777
89.24000 -0.198
89.26000 0.794
89.28000 0.255
89.30000 1.574
89.32000 1.289
89.34000 0.020
89.36000 0.218
89.38000 1.942
89.40000 1.626
89.42000 2.682
89.44000 1.506
89.46000 -0.103
89.48000 -0.368
89.50000 0.363
89.52000 1.432
89.54000 0.368
89.56000 -1.585
89.58000 1.501
89.60000 0.673
89.62000 -0.695
89.64000 -1.460
89.66000 1.308
89.68000 -1.759
89.70000 -1.238
89.72000 1.479
89.74000 4.700
89.76000 2.082
89.78000 0.713
89.80000 -0.366
89.82000 0.267
89.84000 -0.535
89.86000 -0.148
89.88000 -1.112
89.90000 2.418
89.92000 0.234
89.94000 -1.779
89.96000 -0.949
89.98000 0.463
90.00000 1.405
90.02000 1.750
90.04000 0.045
90.06000 -1.474
90.08000 0.355
90.10000 0.461
90.12000 0.097
90.14000 0.122
90.16000 2.734
90.18000 3.768
90.20000 -0.306
90.22000 2.220
90.24000 1.954
90.26000 0.997
90.28000 -0.118
90.30000 -0.370
90.32000 -1.743
90.34000 -0.770
90.36000 2.578
90.38000 1.428
90.40000 1.799
90.42000 1.629
90.44000 0.855
90.46000 1.655
90.48000 1.338
90.50000 1.857
90.52000 0.585
90.54000 2.257
90.56000 0.182
90.58000 -1.154
90.60000 -0.426
90.62000 2.631
90.64000 0.112
90.66000 0.523
90.68000 -0.597
90.70000 0.761
90.72000 0.088
90.74000 2.200
90.76000 1.345
90.78000 1.156
90.80000 1.585
90.82000 -0.408
90.84000 1.000
90.86000 -0.706
90.88000 -0.074
90.90000 1.900
90.92000 0.284
90.94000 -0.311
90.96000 0.613
90.98000 0.804
91.00000 0.983
91.02000 1.462
91.04000 -0.028
91.06000 0.924
91.08000 -0.397
91.10000 -0.326
91.12000 -0.724
91.14000 0.363
91.16000 -0.149
91.18000 1.651
91.20000 2.080
91.22000 -0.010
91.24000 -1.597
91.26000 -0.030
91.28000 2.403
91.30000 1.583
91.32000 1.871
91.34000 2.558
91.36000 2.066
91.38000 3.825
91.40000 2.726
91.42000 0.391
91.44000 -1.730
91.46000 0.523
91.48000 0.916
91.50000 0.528
91.52000 0.141
91.54000 0.820
91.56000 3.917
91.58000 1.673
91.60000 0.426
91.62000 4.295
91.64000 2.856
91.66000 -1.589
91.68000 -0.293
91.70000 4.432
91.72000 4.005
91.74000 1.977
91.76000 1.064
91.78000 0.789
91.80000 0.257
91.82000 1.904
91.84000 4.757
91.86000 8.175
91.88000 7.174
91.90000 5.329
91.92000 2.941
91.94000 1.568
91.96000 1.120
91.98000 1.285
92.00000 2.247
92.02000 1.666
92.04000 1.601
92.06000 -0.059
92.08000 0.864
92.10000 1.666
92.12000 0.010
92.14000 3.324
92.16000 3.753
92.18000 4.432
92.20000 2.178
92.22000 0.734
92.24000 3.926
92.26000 3.368
92.28000 0.281
92.30000 -1.704
92.32000 3.317
92.34000 3.767
92.36000 2.691
92.38000 3.948
92.40000 3.950
92.42000 1.945
92.44000 -0.523
92.46000 -1.014
92.48000 0.767
92.50000 1.762
92.52000 3.877
92.54000 2.793
92.56000 -0.025
92.58000 1.592
92.60000 1.219
92.62000 0.107
92.64000 0.966
92.66000 0.211
92.68000 1.596
92.70000 0.815
92.72000 0.836
92.74000 3.468
92.76000 4.117
92.78000 1.941
92.80000 -0.617
92.82000 0.700
92.84000 2.055
92.86000 1.483
92.88000 2.319
92.90000 1.030
92.92000 0.929
92.94000 0.509
92.96000 0.634
92.98000 2.126
93.00000 2.681
93.02000 5.426
93.04000 2.740
93.06000 -0.562
93.08000 -1.394
93.10000 -0.086
93.12000 1.136
93.14000 -0.772
93.16000 -1.597
93.18000 0.373
93.20000 2.253
93.22000 2.293
93.24000 1.083
93.26000 4.575
93.28000 5.091
93.30000 4.319
93.32000 0.804
93.34000 -1.725
93.36000 -1.651
93.38000 0.474
93.40000 -0.349
93.42000 1.912
93.44000 0.565
93.46000 -1.022
93.48000 1.662
93.50000 2.867
93.52000 3.253
93.54000 3.832
93.56000 1.093
93.58000 4.145
93.60000 5.534
93.62000 2.197
93.64000 2.229
93.66000 2.763
93.68000 5.068
93.70000 3.039
93.72000 0.812
93.74000 3.414
93.76000 1.355
93.78000 1.038
93.80000 0.968
93.82000 1.434
93.84000 -0.032
93.86000 0.569
93.88000 1.174
93.90000 3.220
93.92000 1.176
93.94000 0.569
93.96000 2.358
93.98000 3.939
94.00000 2.863
94.02000 4.118
94.04000 5.094
94.06000 1.412
94.08000 -1.070
94.10000 0.736
94.12000 4.283
94.14000 4.112
94.16000 1.787
94.18000 -0.238
94.20000 0.734
94.22000 -1.745
94.24000 1.791
94.26000 0.563
94.28000 3.440
94.30000 5.888
94.32000 3.481
94.34000 1.527
94.36000 4.735
94.38000 0.583
94.40000 0.284
94.42000 2.873
94.44000 4.600
94.46000 4.709
94.48000 5.173
94.50000 1.541
94.52000 2.283
94.54000 0.679
94.56000 -0.282
94.58000 0.957
94.60000 3.567
94.62000 4.551
94.64000 1.727
94.66000 3.756
94.68000 4.160
94.70000 4.302
94.72000 2.534
94.74000 3.758
94.76000 2.410
94.78000 0.159
94.80000 3.032
94.82000 3.607
94.84000 5.306
94.86000 1.501
94.88000 4.882
94.90000 5.367
94.92000 4.385
94.94000 6.877
94.96000 1.642
94.98000 -1.708
95.00000 -0.875
95.02000 -1.353
95.04000 1.856
95.06000 2.781
95.08000 0.125
95.10000 2.424
95.12000 -1.323
95.14000 -0.587
95.16000 -1.718
95.18000 1.635
95.20000 3.286
95.22000 2.402
95.24000 2.925
95.26000 0.842
95.28000 3.734
95.30000 3.006
95.32000 2.385
95.34000 5.781
95.36000 3.545
95.38000 2.086
95.40000 4.903
95.42000 2.622
95.44000 1.124
95.46000 1.969
95.48000 2.939
95.50000 3.668
95.52000 4.407
95.54000 2.658
95.56000 2.360
95.58000 4.343
95.60000 3.543
95.62000 3.094
95.64000 1.776
95.66000 3.264
95.68000 -0.690
95.70000 2.733
95.72000 3.359
95.74000 4.465
95.76000 2.652
95.78000 0.439
95.80000 -0.051
95.82000 3.788
95.84000 2.720
95.86000 1.565
95.88000 2.052
95.90000 3.369
95.92000 4.909
95.94000 1.475
95.96000 1.341
95.98000 -1.726
96.00000 3.645
96.02000 6.052
96.04000 7.018
96.06000 4.564
96.08000 2.636
96.10000 2.480
96.12000 1.806
96.14000 1.361
96.16000 7.243
96.18000 6.864
96.20000 2.911
96.22000 5.228
96.24000 4.821
96.26000 2.772
96.28000 1.253
96.30000 0.818
96.32000 3.355
96.34000 4.069
96.36000 3.348
96.38000 2.839
96.40000 2.325
96.42000 0.212
96.44000 3.741
96.46000 3.854
96.48000 1.454
96.50000 0.908
96.52000 5.073
96.54000 3.778
96.56000 5.034
96.58000 2.467
96.60000 4.933
96.62000 5.737
96.64000 4.480
96.66000 3.093
96.68000 2.409
96.70000 1.131
96.72000 2.360
96.74000 2.500
96.76000 2.219
96.78000 4.419
96.80000 4.966
96.82000 2.232
96.84000 1.590
96.86000 3.984
96.88000 3.082
96.90000 4.092
96.92000 4.502
96.94000 2.073
96.96000 -1.711
96.98000 1.095
97.00000 0.612
97.02000 4.844
97.04000 2.960
97.06000 6.711
97.08000 3.794
97.10000 4.614
97.12000 3.600
97.14000 0.039
97.16000 0.762
97.18000 -0.766
97.20000 1.723
97.22000 2.868
97.24000 4.195
97.26000 1.880
97.28000 2.281
97.30000 2.545
97.32000 3.108
97.34000 3.848
97.36000 3.639
97.38000 2.586
97.40000 3.734
97.42000 3.629
97.44000 1.867
97.46000 0.331
97.48000 3.214
97.50000 2.996
97.52000 5.031
97.54000 5.996
97.56000 5.502
97.58000 7.222
97.60000 3.094
97.62000 0.733
97.64000 0.149
97.66000 2.127
97.68000 4.466
97.70000 3.955
97.72000 2.654
97.74000 4.537
97.76000 2.669
97.78000 2.623
97.80000 5.168
97.82000 1.418
97.84000 2.764
97.86000 0.898
97.88000 3.275
97.90000 4.988
97.92000 4.565
97.94000 0.982
97.96000 -1.672
97.98000 -0.874
98.00000 -0.025
98.02000 2.988
98.04000 5.728
98.06000 3.003
98.08000 2.686
98.10000 3.180
98.12000 3.480
98.14000 5.326
98.16000 8.781
98.18000 7.288
98.20000 4.908
98.22000 0.704
98.24000 5.107
98.26000 5.177
98.28000 0.641
98.30000 1.699
98.32000 0.893
98.34000 1.619
98.36000 1.433
98.38000 0.789
98.40000 2.497
98.42000 1.827
98.44000 -1.447
98.46000 5.204
98.48000 10.347
98.50000 5.851
98.52000 3.804
98.54000 0.489
98.56000 -0.638
98.58000 -0.915
98.60000 4.248
98.62000 4.892
98.64000 6.312
98.66000 8.495
98.68000 6.005
98.70000 2.412
98.72000 4.052
98.74000 1.750
98.76000 2.600
98.78000 0.452
98.80000 3.531
98.82000 3.044
98.84000 0.371
98.86000 1.185
98.88000 3.376
98.90000 6.498
98.92000 4.453
98.94000 5.480
98.96000 7.381
98.98000 7.412
99.00000 6.235
99.02000 0.460
99.04000 0.975
99.06000 1.437
99.08000 2.192
99.10000 0.981
99.12000 1.439
99.14000 3.469
99.16000 4.321
99.18000 3.702
99.20000 3.796
99.22000 1.548
99.24000 1.332
99.26000 2.251
99.28000 -0.248
99.30000 0.363
99.32000 -0.941
99.34000 2.178
99.36000 5.426
99.38000 -1.684
99.40000 1.913
99.42000 4.140
99.44000 3.845
99.46000 3.058
99.48000 5.774
99.50000 5.647
99.52000 2.286
99.54000 0.380
99.56000 5.598
99.58000 11.032
99.60000 8.738
99.62000 11.157
99.64000 6.043
99.66000 2.570
99.68000 3.378
99.70000 -1.374
99.72000 0.585
99.74000 -1.664
99.76000 3.508
99.78000 6.963
99.80000 6.672
99.82000 10.843
99.84000 9.944
99.86000 3.078
99.88000 2.527
99.90000 5.860
99.92000 2.890
99.94000 5.781
99.96000 3.849
99.98000 0.000
