'Id: "0011387" Comment: "Integrate frame 0011387_Au-Ir-Rh_Rh-rich_XRD-Mapping-242-0000.gfrmwith cursor Wedge Cursor #5" Operator: "B?rgel" Anode: "Cu" Wavelength: "1.5406" Scantype: "2Theta (TwoTheta)" TimePerStep: "1" X: "-36" Y: "18" Z: "5.95" 
10.00000 0.000
10.02000 -2.061
10.04000 -4.444
10.06000 -0.953
10.08000 21.135
10.10000 3.910
10.12000 -2.798
10.14000 10.492
10.16000 19.419
10.18000 9.374
10.20000 28.167
10.22000 34.390
10.24000 33.845
10.26000 9.932
10.28000 16.104
10.30000 16.937
10.32000 16.598
10.34000 13.490
10.36000 6.812
10.38000 16.382
10.40000 25.808
10.42000 33.912
10.44000 36.456
10.46000 34.314
10.48000 23.384
10.50000 9.169
10.52000 17.167
10.54000 13.789
10.56000 16.693
10.58000 16.992
10.60000 12.454
10.62000 10.889
10.64000 13.322
10.66000 11.717
10.68000 12.889
10.70000 13.294
10.72000 7.512
10.74000 16.715
10.76000 30.616
10.78000 25.538
10.80000 3.197
10.82000 3.661
10.84000 17.220
10.86000 10.671
10.88000 14.547
10.90000 8.436
10.92000 22.347
10.94000 21.259
10.96000 14.896
10.98000 13.618
11.00000 13.410
11.02000 14.663
11.04000 18.588
11.06000 10.117
11.08000 20.121
11.10000 17.429
11.12000 4.443
11.14000 19.689
11.16000 9.639
11.18000 20.257
11.20000 26.158
11.22000 4.959
11.24000 22.058
11.26000 20.384
11.28000 15.826
11.30000 20.285
11.32000 22.802
11.34000 10.464
11.36000 -5.518
11.38000 11.621
11.40000 0.011
11.42000 11.565
11.44000 16.922
11.46000 12.579
11.48000 15.650
11.50000 11.717
11.52000 5.849
11.54000 15.249
11.56000 7.044
11.58000 13.603
11.60000 34.245
11.62000 18.028
11.64000 5.049
11.66000 4.604
11.68000 16.902
11.70000 11.924
11.72000 8.868
11.74000 15.502
11.76000 15.444
11.78000 9.685
11.80000 11.816
11.82000 17.088
11.84000 13.128
11.86000 18.071
11.88000 8.502
11.90000 -1.469
11.92000 7.724
11.94000 6.526
11.96000 -3.291
11.98000 2.712
12.00000 14.632
12.02000 9.690
12.04000 4.853
12.06000 2.265
12.08000 11.193
12.10000 11.949
12.12000 -4.042
12.14000 -0.584
12.16000 8.468
12.18000 11.497
12.20000 13.506
12.22000 9.470
12.24000 8.521
12.26000 5.526
12.28000 6.566
12.30000 6.591
12.32000 16.254
12.34000 4.517
12.36000 18.026
12.38000 20.006
12.40000 18.223
12.42000 17.446
12.44000 24.623
12.46000 13.388
12.48000 16.863
12.50000 14.036
12.52000 5.120
12.54000 8.662
12.56000 5.316
12.58000 5.274
12.60000 6.675
12.62000 6.004
12.64000 0.026
12.66000 0.740
12.68000 14.042
12.70000 26.496
12.72000 24.252
12.74000 17.410
12.76000 9.260
12.78000 5.393
12.80000 8.865
12.82000 9.513
12.84000 8.659
12.86000 6.752
12.88000 9.308
12.90000 8.188
12.92000 15.107
12.94000 7.701
12.96000 -4.543
12.98000 -1.737
13.00000 0.722
13.02000 -2.728
13.04000 11.388
13.06000 9.776
13.08000 4.886
13.10000 -0.132
13.12000 -0.555
13.14000 6.135
13.16000 16.040
13.18000 -1.623
13.20000 -1.999
13.22000 6.654
13.24000 0.694
13.26000 6.555
13.28000 5.079
13.30000 13.530
13.32000 10.533
13.34000 0.232
13.36000 1.985
13.38000 6.663
13.40000 8.828
13.42000 16.560
13.44000 14.068
13.46000 7.333
13.48000 4.322
13.50000 3.168
13.52000 4.983
13.54000 4.312
13.56000 4.563
13.58000 1.327
13.60000 10.262
13.62000 12.104
13.64000 -2.451
13.66000 -4.531
13.68000 -2.135
13.70000 5.028
13.72000 6.881
13.74000 18.515
13.76000 13.598
13.78000 7.006
13.80000 4.331
13.82000 7.996
13.84000 10.101
13.86000 10.377
13.88000 11.947
13.90000 12.727
13.92000 16.624
13.94000 12.488
13.96000 13.943
13.98000 4.777
14.00000 6.131
14.02000 15.053
14.04000 7.519
14.06000 1.362
14.08000 0.068
14.10000 2.320
14.12000 6.730
14.14000 1.914
14.16000 2.027
14.18000 9.144
14.20000 4.323
14.22000 6.417
14.24000 6.600
14.26000 8.202
14.28000 -3.403
14.30000 -2.201
14.32000 7.614
14.34000 7.611
14.36000 2.590
14.38000 7.528
14.40000 3.830
14.42000 3.366
14.44000 11.518
14.46000 6.442
14.48000 1.196
14.50000 9.378
14.52000 6.705
14.54000 -2.289
14.56000 4.482
14.58000 2.929
14.60000 6.071
14.62000 9.387
14.64000 7.891
14.66000 6.785
14.68000 6.677
14.70000 -4.480
14.72000 10.124
14.74000 18.253
14.76000 16.529
14.78000 12.627
14.80000 5.064
14.82000 0.654
14.84000 10.053
14.86000 9.487
14.88000 10.171
14.90000 10.532
14.92000 5.468
14.94000 13.678
14.96000 13.545
14.98000 1.250
15.00000 7.588
15.02000 5.887
15.04000 5.249
15.06000 6.783
15.08000 9.925
15.10000 12.620
15.12000 12.488
15.14000 10.063
15.16000 4.300
15.18000 14.566
15.20000 11.799
15.22000 7.746
15.24000 10.445
15.26000 6.632
15.28000 12.615
15.30000 9.420
15.32000 15.324
15.34000 15.418
15.36000 9.514
15.38000 6.638
15.40000 4.116
15.42000 4.120
15.44000 16.467
15.46000 16.061
15.48000 3.264
15.50000 0.825
15.52000 4.172
15.54000 5.108
15.56000 9.633
15.58000 7.122
15.60000 5.819
15.62000 -4.451
15.64000 -3.411
15.66000 9.914
15.68000 15.458
15.70000 9.668
15.72000 1.715
15.74000 -0.170
15.76000 8.671
15.78000 10.182
15.80000 13.045
15.82000 5.219
15.84000 9.366
15.86000 11.251
15.88000 7.462
15.90000 3.257
15.92000 8.394
15.94000 2.594
15.96000 10.128
15.98000 11.525
16.00000 5.065
16.02000 13.229
16.04000 9.804
16.06000 2.689
16.08000 6.616
16.10000 1.700
16.12000 -4.428
16.14000 1.580
16.16000 1.567
16.18000 4.757
16.20000 8.453
16.22000 8.964
16.24000 7.027
16.26000 9.453
16.28000 10.756
16.30000 10.305
16.32000 2.454
16.34000 0.547
16.36000 6.698
16.38000 1.653
16.40000 7.217
16.42000 11.293
16.44000 5.000
16.46000 6.212
16.48000 7.854
16.50000 9.999
16.52000 7.397
16.54000 3.933
16.56000 4.987
16.58000 5.308
16.60000 -1.671
16.62000 -2.292
16.64000 7.483
16.66000 12.551
16.68000 14.294
16.70000 10.110
16.72000 2.931
16.74000 2.805
16.76000 8.682
16.78000 18.801
16.80000 16.459
16.82000 15.368
16.84000 9.087
16.86000 5.659
16.88000 1.330
16.90000 1.598
16.92000 2.820
16.94000 6.195
16.96000 1.891
16.98000 3.089
17.00000 3.086
17.02000 1.158
17.04000 7.523
17.06000 5.054
17.08000 6.617
17.10000 11.096
17.12000 13.910
17.14000 7.653
17.16000 12.947
17.18000 16.979
17.20000 9.871
17.22000 8.412
17.24000 14.125
17.26000 13.586
17.28000 11.762
17.30000 2.076
17.32000 6.830
17.34000 10.342
17.36000 11.595
17.38000 12.426
17.40000 2.970
17.42000 -4.355
17.44000 5.601
17.46000 10.633
17.48000 6.626
17.50000 4.027
17.52000 7.478
17.54000 8.272
17.56000 6.224
17.58000 6.475
17.60000 9.883
17.62000 5.128
17.64000 7.312
17.66000 9.273
17.68000 10.473
17.70000 6.938
17.72000 8.844
17.74000 8.979
17.76000 10.674
17.78000 2.024
17.80000 2.279
17.82000 -1.589
17.84000 -1.577
17.86000 4.581
17.88000 11.487
17.90000 11.559
17.92000 12.399
17.94000 7.339
17.96000 3.881
17.98000 -4.343
18.00000 4.844
18.02000 7.801
18.04000 2.883
18.06000 -0.718
18.08000 0.043
18.10000 -0.892
18.12000 -1.680
18.14000 3.401
18.16000 6.337
18.18000 9.063
18.20000 3.459
18.22000 0.934
18.24000 6.695
18.26000 0.765
18.28000 3.311
18.30000 8.716
18.32000 1.573
18.34000 -1.174
18.36000 5.822
18.38000 7.910
18.40000 5.185
18.42000 8.405
18.44000 3.573
18.46000 4.114
18.48000 2.367
18.50000 2.832
18.52000 3.630
18.54000 4.245
18.56000 12.558
18.58000 7.212
18.60000 1.256
18.62000 -1.127
18.64000 -3.577
18.66000 2.582
18.68000 1.173
18.70000 1.900
18.72000 4.974
18.74000 1.742
18.76000 -0.475
18.78000 -2.608
18.80000 -1.122
18.82000 3.447
18.84000 0.714
18.86000 0.655
18.88000 2.247
18.90000 -3.750
18.92000 -4.302
18.94000 2.232
18.96000 -0.300
18.98000 1.143
19.00000 4.348
19.02000 3.400
19.04000 -1.033
19.06000 1.825
19.08000 4.233
19.10000 3.352
19.12000 8.356
19.14000 7.567
19.16000 2.630
19.18000 3.559
19.20000 4.992
19.22000 12.462
19.24000 5.609
19.26000 0.466
19.28000 2.396
19.30000 0.923
19.32000 -4.283
19.34000 1.216
19.36000 3.240
19.38000 0.647
19.40000 5.201
19.42000 8.523
19.44000 8.338
19.46000 3.234
19.48000 2.827
19.50000 5.273
19.52000 9.671
19.54000 7.888
19.56000 6.180
19.58000 2.200
19.60000 1.386
19.62000 -0.745
19.64000 8.125
19.66000 4.432
19.68000 3.229
19.70000 4.611
19.72000 -0.193
19.74000 1.990
19.76000 3.578
19.78000 4.585
19.80000 -0.354
19.82000 3.016
19.84000 6.617
19.86000 -0.070
19.88000 -2.017
19.90000 -0.858
19.92000 -4.058
19.94000 2.814
19.96000 3.040
19.98000 3.764
20.00000 3.595
20.02000 4.501
20.04000 7.419
20.06000 0.659
20.08000 5.287
20.10000 12.658
20.12000 5.731
20.14000 4.737
20.16000 5.020
20.18000 1.563
20.20000 -2.625
20.22000 2.280
20.24000 5.699
20.26000 -1.136
20.28000 2.577
20.30000 6.347
20.32000 -2.581
20.34000 2.336
20.36000 8.822
20.38000 5.753
20.40000 -0.018
20.42000 -2.726
20.44000 -0.741
20.46000 6.004
20.48000 -1.764
20.50000 -0.946
20.52000 -4.224
20.54000 1.422
20.56000 4.727
20.58000 1.231
20.60000 4.133
20.62000 0.176
20.64000 -2.164
20.66000 -0.170
20.68000 1.856
20.70000 4.675
20.72000 1.679
20.74000 0.616
20.76000 2.231
20.78000 5.773
20.80000 8.124
20.82000 4.229
20.84000 3.754
20.86000 1.958
20.88000 -1.076
20.90000 -0.394
20.92000 3.386
20.94000 2.712
20.96000 4.960
20.98000 1.778
21.00000 4.539
21.02000 5.966
21.04000 8.431
21.06000 6.505
21.08000 5.812
21.10000 0.850
21.12000 0.935
21.14000 -1.530
21.16000 5.039
21.18000 0.468
21.20000 -3.648
21.22000 4.464
21.24000 6.709
21.26000 3.838
21.28000 6.359
21.30000 0.340
21.32000 -0.411
21.34000 5.155
21.36000 2.614
21.38000 2.505
21.40000 4.749
21.42000 6.404
21.44000 -0.453
21.46000 9.867
21.48000 6.082
21.50000 4.497
21.52000 -1.362
21.54000 0.198
21.56000 5.255
21.58000 4.950
21.60000 3.694
21.62000 4.988
21.64000 3.323
21.66000 3.623
21.68000 4.740
21.70000 -2.500
21.72000 -4.124
21.74000 -0.122
21.76000 5.236
21.78000 5.291
21.80000 6.275
21.82000 5.273
21.84000 3.151
21.86000 0.178
21.88000 -0.683
21.90000 -1.754
21.92000 3.210
21.94000 3.205
21.96000 2.899
21.98000 8.962
22.00000 3.722
22.02000 4.260
22.04000 -1.972
22.06000 1.518
22.08000 3.727
22.10000 2.985
22.12000 -0.437
22.14000 2.920
22.16000 3.896
22.18000 6.752
22.20000 7.828
22.22000 0.305
22.24000 1.924
22.26000 1.557
22.28000 -3.617
22.30000 2.802
22.32000 4.207
22.34000 3.469
22.36000 0.194
22.38000 -0.839
22.40000 -3.393
22.42000 3.837
22.44000 5.183
22.46000 3.224
22.48000 5.477
22.50000 4.979
22.52000 4.010
22.54000 0.696
22.56000 4.356
22.58000 1.295
22.60000 0.086
22.62000 3.108
22.64000 -0.805
22.66000 3.201
22.68000 4.965
22.70000 8.669
22.72000 2.261
22.74000 5.140
22.76000 6.616
22.78000 0.106
22.80000 1.722
22.82000 -1.336
22.84000 1.726
22.86000 4.448
22.88000 2.119
22.90000 3.366
22.92000 -1.232
22.94000 -2.763
22.96000 -1.357
22.98000 -0.712
23.00000 -0.731
23.02000 -0.515
23.04000 11.058
23.06000 7.209
23.08000 2.341
23.10000 4.704
23.12000 4.704
23.14000 7.167
23.16000 10.585
23.18000 9.007
23.20000 5.230
23.22000 3.769
23.24000 3.521
23.26000 5.467
23.28000 2.774
23.30000 -4.037
23.32000 -1.628
23.34000 -2.511
23.36000 -1.774
23.38000 3.828
23.40000 5.216
23.42000 5.169
23.44000 6.778
23.46000 1.458
23.48000 -0.072
23.50000 7.763
23.52000 10.729
23.54000 11.382
23.56000 8.930
23.58000 4.528
23.60000 1.667
23.62000 3.618
23.64000 2.813
23.66000 6.562
23.68000 8.923
23.70000 7.806
23.72000 9.978
23.74000 8.509
23.76000 7.813
23.78000 1.227
23.80000 -2.146
23.82000 3.180
23.84000 4.250
23.86000 -4.008
23.88000 2.812
23.90000 -0.730
23.92000 0.213
23.94000 -0.741
23.96000 0.488
23.98000 2.109
24.00000 1.584
24.02000 4.636
24.04000 4.787
24.06000 7.168
24.08000 5.988
24.10000 2.458
24.12000 0.002
24.14000 -2.649
24.16000 -0.895
24.18000 6.412
24.20000 10.402
24.22000 5.962
24.24000 2.847
24.26000 5.730
24.28000 6.929
24.30000 0.642
24.32000 -0.372
24.34000 1.984
24.36000 2.168
24.38000 1.208
24.40000 -1.417
24.42000 3.468
24.44000 2.733
24.46000 3.062
24.48000 4.204
24.50000 1.924
24.52000 8.137
24.54000 5.352
24.56000 6.401
24.58000 0.565
24.60000 0.111
24.62000 0.501
24.64000 -3.022
24.66000 -0.036
24.68000 4.946
24.70000 3.881
24.72000 3.507
24.74000 3.672
24.76000 6.709
24.78000 4.950
24.80000 8.533
24.82000 10.117
24.84000 10.056
24.86000 7.132
24.88000 1.341
24.90000 5.791
24.92000 6.137
24.94000 3.414
24.96000 4.918
24.98000 3.440
25.00000 4.586
25.02000 2.083
25.04000 -1.007
25.06000 -0.049
25.08000 1.796
25.10000 0.279
25.12000 7.541
25.14000 4.111
25.16000 0.028
25.18000 2.583
25.20000 4.929
25.22000 3.651
25.24000 1.034
25.26000 1.259
25.28000 2.727
25.30000 5.774
25.32000 4.118
25.34000 0.965
25.36000 -3.927
25.38000 -1.239
25.40000 5.201
25.42000 5.851
25.44000 5.269
25.46000 1.957
25.48000 0.817
25.50000 -1.037
25.52000 1.623
25.54000 0.744
25.56000 1.146
25.58000 -1.518
25.60000 6.315
25.62000 1.359
25.64000 0.543
25.66000 0.966
25.68000 3.411
25.70000 4.541
25.72000 2.596
25.74000 4.264
25.76000 7.133
25.78000 5.586
25.80000 2.795
25.82000 0.814
25.84000 -0.192
25.86000 1.396
25.88000 -0.179
25.90000 0.969
25.92000 2.303
25.94000 -3.721
25.96000 -1.862
25.98000 1.004
26.00000 1.336
26.02000 1.355
26.04000 3.576
26.06000 5.717
26.08000 6.622
26.10000 1.716
26.12000 2.520
26.14000 4.982
26.16000 4.888
26.18000 3.077
26.20000 2.683
26.22000 2.252
26.24000 4.110
26.26000 5.064
26.28000 3.103
26.30000 4.300
26.32000 5.687
26.34000 2.270
26.36000 1.837
26.38000 1.999
26.40000 -1.195
26.42000 -0.185
26.44000 -0.762
26.46000 5.977
26.48000 4.482
26.50000 5.842
26.52000 4.472
26.54000 2.361
26.56000 6.551
26.58000 0.273
26.60000 1.722
26.62000 7.704
26.64000 5.719
26.66000 3.086
26.68000 2.690
26.70000 1.947
26.72000 -3.854
26.74000 3.228
26.76000 9.376
26.78000 3.948
26.80000 1.491
26.82000 -1.238
26.84000 3.581
26.86000 6.847
26.88000 2.407
26.90000 7.336
26.92000 6.273
26.94000 1.554
26.96000 3.805
26.98000 4.782
27.00000 4.850
27.02000 1.219
27.04000 3.549
27.06000 2.742
27.08000 -0.063
27.10000 2.258
27.12000 4.718
27.14000 1.027
27.16000 1.161
27.18000 -0.619
27.20000 -0.070
27.22000 2.642
27.24000 8.033
27.26000 8.997
27.28000 4.605
27.30000 -2.117
27.32000 -0.516
27.34000 -2.366
27.36000 3.493
27.38000 1.344
27.40000 -0.537
27.42000 0.207
27.44000 -3.317
27.46000 0.264
27.48000 6.987
27.50000 4.041
27.52000 3.522
27.54000 0.768
27.56000 -0.637
27.58000 1.079
27.60000 2.939
27.62000 3.580
27.64000 0.570
27.66000 -3.822
27.68000 -3.525
27.70000 2.717
27.72000 8.158
27.74000 0.266
27.76000 0.056
27.78000 7.644
27.80000 5.015
27.82000 4.805
27.84000 4.871
27.86000 9.403
27.88000 3.041
27.90000 6.151
27.92000 2.923
27.94000 -0.176
27.96000 0.753
27.98000 4.433
28.00000 -0.195
28.02000 -1.651
28.04000 -2.318
28.06000 3.734
28.08000 4.743
28.10000 1.863
28.12000 2.406
28.14000 -3.668
28.16000 0.105
28.18000 -2.368
28.20000 -2.539
28.22000 4.542
28.24000 4.514
28.26000 3.166
28.28000 3.165
28.30000 3.614
28.32000 1.146
28.34000 0.088
28.36000 0.473
28.38000 -3.398
28.40000 -3.775
28.42000 -2.835
28.44000 6.679
28.46000 1.422
28.48000 -1.570
28.50000 3.411
28.52000 5.921
28.54000 8.428
28.56000 4.499
28.58000 -1.690
28.60000 -1.224
28.62000 -0.159
28.64000 6.894
28.66000 2.619
28.68000 0.796
28.70000 3.579
28.72000 6.684
28.74000 3.238
28.76000 -0.626
28.78000 3.408
28.80000 8.102
28.82000 5.849
28.84000 -2.922
28.86000 1.152
28.88000 0.708
28.90000 -1.384
28.92000 2.396
28.94000 4.396
28.96000 3.769
28.98000 3.752
29.00000 0.745
29.02000 2.488
29.04000 0.282
29.06000 2.294
29.08000 3.954
29.10000 2.121
29.12000 -2.730
29.14000 -2.628
29.16000 -3.720
29.18000 0.175
29.20000 2.525
29.22000 2.578
29.24000 0.478
29.26000 9.113
29.28000 5.383
29.30000 0.889
29.32000 2.326
29.34000 6.908
29.36000 2.134
29.38000 0.459
29.40000 -0.039
29.42000 0.951
29.44000 0.359
29.46000 3.803
29.48000 4.286
29.50000 1.661
29.52000 1.230
29.54000 4.900
29.56000 1.421
29.58000 -1.160
29.60000 1.217
29.62000 -0.109
29.64000 -1.697
29.66000 -1.116
29.68000 2.455
29.70000 5.193
29.72000 3.924
29.74000 4.263
29.76000 3.387
29.78000 -3.075
29.80000 0.804
29.82000 -1.910
29.84000 1.565
29.86000 4.243
29.88000 1.814
29.90000 -3.713
29.92000 -1.267
29.94000 4.452
29.96000 5.962
29.98000 1.129
30.00000 -0.967
30.02000 0.049
30.04000 4.945
30.06000 2.160
30.08000 0.892
30.10000 -2.821
30.12000 1.041
30.14000 4.004
30.16000 0.056
30.18000 -0.106
30.20000 0.541
30.22000 -1.269
30.24000 -2.416
30.26000 -2.755
30.28000 -1.431
30.30000 -1.379
30.32000 -0.051
30.34000 -1.875
30.36000 1.451
30.38000 4.688
30.40000 3.557
30.42000 1.779
30.44000 2.862
30.46000 -0.275
30.48000 2.713
30.50000 2.508
30.52000 0.738
30.54000 -1.925
30.56000 -3.072
30.58000 -0.924
30.60000 -1.865
30.62000 -3.034
30.64000 -1.051
30.66000 -1.513
30.68000 4.738
30.70000 3.979
30.72000 3.950
30.74000 1.653
30.76000 3.835
30.78000 4.075
30.80000 5.894
30.82000 3.330
30.84000 4.728
30.86000 0.883
30.88000 -1.719
30.90000 1.113
30.92000 0.684
30.94000 5.493
30.96000 7.289
30.98000 5.075
31.00000 2.481
31.02000 4.638
31.04000 5.814
31.06000 2.114
31.08000 2.837
31.10000 2.276
31.12000 2.272
31.14000 -1.599
31.16000 -2.606
31.18000 -1.418
31.20000 -2.463
31.22000 -0.410
31.24000 -1.802
31.26000 -0.109
31.28000 -0.184
31.30000 -2.489
31.32000 -2.338
31.34000 0.627
31.36000 1.754
31.38000 1.335
31.40000 -3.118
31.42000 -1.749
31.44000 0.246
31.46000 -0.195
31.48000 -0.893
31.50000 -2.229
31.52000 -1.677
31.54000 7.702
31.56000 6.494
31.58000 3.088
31.60000 0.936
31.62000 -3.610
31.64000 0.082
31.66000 2.371
31.68000 4.335
31.70000 5.273
31.72000 3.304
31.74000 1.490
31.76000 0.361
31.78000 4.384
31.80000 5.544
31.82000 6.991
31.84000 5.104
31.86000 1.010
31.88000 -0.602
31.90000 1.043
31.92000 0.512
31.94000 -0.571
31.96000 -0.511
31.98000 6.088
32.00000 3.889
32.02000 -1.477
32.04000 1.434
32.06000 3.464
32.08000 2.181
32.10000 6.011
32.12000 0.995
32.14000 -1.957
32.16000 4.811
32.18000 10.595
32.20000 -0.047
32.22000 -2.488
32.24000 0.277
32.26000 -2.824
32.28000 -0.041
32.30000 -3.334
32.32000 1.542
32.34000 2.243
32.36000 2.399
32.38000 -1.932
32.40000 -0.795
32.42000 8.646
32.44000 5.309
32.46000 4.153
32.48000 3.570
32.50000 2.136
32.52000 -1.313
32.54000 -0.213
32.56000 3.675
32.58000 4.848
32.60000 4.110
32.62000 8.769
32.64000 4.588
32.66000 4.310
32.68000 5.940
32.70000 6.710
32.72000 6.784
32.74000 6.049
32.76000 2.528
32.78000 6.823
32.80000 0.451
32.82000 -1.324
32.84000 1.011
32.86000 6.959
32.88000 2.446
32.90000 -3.583
32.92000 -3.583
32.94000 -1.499
32.96000 0.479
32.98000 -0.027
33.00000 0.350
33.02000 0.411
33.04000 0.619
33.06000 3.733
33.08000 5.093
33.10000 2.911
33.12000 -1.061
33.14000 -1.167
33.16000 4.552
33.18000 1.069
33.20000 -0.574
33.22000 0.262
33.24000 -0.084
33.26000 3.052
33.28000 0.933
33.30000 -0.997
33.32000 1.269
33.34000 3.512
33.36000 1.621
33.38000 1.924
33.40000 3.946
33.42000 2.297
33.44000 1.063
33.46000 5.055
33.48000 3.098
33.50000 -3.585
33.52000 -0.691
33.54000 4.319
33.56000 5.861
33.58000 1.458
33.60000 1.761
33.62000 3.628
33.64000 2.360
33.66000 2.958
33.68000 1.309
33.70000 -0.393
33.72000 -1.424
33.74000 2.913
33.76000 9.452
33.78000 4.430
33.80000 0.251
33.82000 0.278
33.84000 1.167
33.86000 0.051
33.88000 4.340
33.90000 1.217
33.92000 2.940
33.94000 4.859
33.96000 9.275
33.98000 4.347
34.00000 2.253
34.02000 2.207
34.04000 4.276
34.06000 2.822
34.08000 1.030
34.10000 2.135
34.12000 7.546
34.14000 3.313
34.16000 3.773
34.18000 3.501
34.20000 4.214
34.22000 5.164
34.24000 4.170
34.26000 3.295
34.28000 3.530
34.30000 0.692
34.32000 -0.096
34.34000 -0.595
34.36000 0.938
34.38000 3.507
34.40000 -0.530
34.42000 -0.027
34.44000 2.047
34.46000 3.854
34.48000 0.677
34.50000 1.043
34.52000 2.921
34.54000 4.834
34.56000 2.324
34.58000 2.829
34.60000 3.859
34.62000 1.846
34.64000 -0.531
34.66000 0.527
34.68000 2.740
34.70000 5.573
34.72000 0.844
34.74000 -0.494
34.76000 1.460
34.78000 5.306
34.80000 3.366
34.82000 0.171
34.84000 -0.477
34.86000 1.656
34.88000 -3.550
34.90000 -0.846
34.92000 1.600
34.94000 -3.547
34.96000 1.642
34.98000 2.663
35.00000 0.653
35.02000 4.394
35.04000 2.583
35.06000 -0.525
35.08000 2.029
35.10000 -0.827
35.12000 1.487
35.14000 -0.113
35.16000 2.664
35.18000 2.407
35.20000 0.484
35.22000 0.011
35.24000 1.373
35.26000 2.732
35.28000 2.930
35.30000 2.025
35.32000 2.117
35.34000 -0.451
35.36000 1.966
35.38000 3.390
35.40000 5.871
35.42000 0.132
35.44000 1.619
35.46000 5.386
35.48000 7.819
35.50000 6.855
35.52000 4.276
35.54000 -0.781
35.56000 2.837
35.58000 3.347
35.60000 0.992
35.62000 0.967
35.64000 4.002
35.66000 2.986
35.68000 1.460
35.70000 1.151
35.72000 -1.040
35.74000 -3.523
35.76000 2.139
35.78000 2.336
35.80000 6.616
35.82000 3.350
35.84000 -0.343
35.86000 -0.146
35.88000 -3.533
35.90000 0.952
35.92000 3.532
35.94000 5.738
35.96000 5.904
35.98000 0.373
36.00000 0.394
36.02000 0.275
36.04000 1.900
36.06000 2.901
36.08000 2.129
36.10000 -0.871
36.12000 4.793
36.14000 1.835
36.16000 1.506
36.18000 7.941
36.20000 11.006
36.22000 3.925
36.24000 3.544
36.26000 1.300
36.28000 -1.654
36.30000 -1.541
36.32000 0.573
36.34000 -1.601
36.36000 -1.061
36.38000 -3.255
36.40000 0.721
36.42000 1.658
36.44000 -1.463
36.46000 0.871
36.48000 -0.055
36.50000 0.230
36.52000 0.487
36.54000 -1.163
36.56000 -1.275
36.58000 2.448
36.60000 0.215
36.62000 -0.568
36.64000 2.623
36.66000 1.786
36.68000 1.773
36.70000 2.832
36.72000 -1.707
36.74000 -1.232
36.76000 3.655
36.78000 -0.287
36.80000 -3.568
36.82000 3.675
36.84000 3.057
36.86000 3.755
36.88000 4.090
36.90000 3.570
36.92000 1.207
36.94000 4.471
36.96000 -0.116
36.98000 -2.911
37.00000 -2.052
37.02000 -1.091
37.04000 0.894
37.06000 0.704
37.08000 -0.746
37.10000 -1.750
37.12000 2.218
37.14000 5.141
37.16000 3.687
37.18000 4.879
37.20000 4.069
37.22000 5.027
37.24000 5.270
37.26000 5.214
37.28000 3.018
37.30000 -0.911
37.32000 0.487
37.34000 -0.253
37.36000 -1.089
37.38000 2.935
37.40000 2.162
37.42000 0.222
37.44000 -1.441
37.46000 2.969
37.48000 6.706
37.50000 8.412
37.52000 7.312
37.54000 0.073
37.56000 -0.502
37.58000 3.088
37.60000 4.409
37.62000 2.487
37.64000 0.113
37.66000 1.685
37.68000 2.676
37.70000 4.011
37.72000 8.848
37.74000 5.510
37.76000 7.281
37.78000 6.786
37.80000 7.745
37.82000 7.117
37.84000 5.678
37.86000 5.115
37.88000 9.015
37.90000 11.511
37.92000 10.622
37.94000 9.024
37.96000 10.269
37.98000 13.484
38.00000 12.476
38.02000 12.878
38.04000 17.408
38.06000 17.230
38.08000 16.087
38.10000 14.215
38.12000 19.452
38.14000 22.421
38.16000 16.894
38.18000 13.150
38.20000 16.175
38.22000 18.704
38.24000 21.889
38.26000 22.774
38.28000 23.081
38.30000 23.486
38.32000 21.314
38.34000 22.853
38.36000 18.660
38.38000 20.140
38.40000 24.198
38.42000 28.086
38.44000 26.392
38.46000 31.605
38.48000 30.344
38.50000 32.637
38.52000 33.775
38.54000 30.867
38.56000 31.218
38.58000 37.249
38.60000 36.941
38.62000 37.723
38.64000 44.059
38.66000 47.610
38.68000 44.792
38.70000 52.562
38.72000 50.381
38.74000 47.991
38.76000 49.166
38.78000 53.800
38.80000 51.431
38.82000 58.496
38.84000 60.134
38.86000 62.123
38.88000 61.511
38.90000 60.086
38.92000 66.248
38.94000 65.849
38.96000 70.902
38.98000 74.096
39.00000 79.884
39.02000 85.317
39.04000 93.115
39.06000 91.864
39.08000 88.166
39.10000 92.432
39.12000 103.385
39.14000 112.454
39.16000 111.676
39.18000 113.218
39.20000 117.323
39.22000 130.015
39.24000 131.427
39.26000 137.187
39.28000 141.968
39.30000 146.429
39.32000 158.964
39.34000 164.591
39.36000 173.898
39.38000 178.944
39.40000 186.395
39.42000 200.286
39.44000 215.225
39.46000 224.096
39.48000 233.196
39.50000 245.802
39.52000 258.218
39.54000 268.185
39.56000 284.657
39.58000 305.417
39.60000 318.701
39.62000 326.711
39.64000 347.798
39.66000 368.721
39.68000 381.341
39.70000 407.029
39.72000 435.024
39.74000 458.555
39.76000 479.033
39.78000 497.814
39.80000 525.431
39.82000 553.939
39.84000 581.312
39.86000 602.543
39.88000 620.905
39.90000 668.815
39.92000 694.404
39.94000 710.165
39.96000 734.110
39.98000 754.273
40.00000 765.581
40.02000 780.741
40.04000 799.805
40.06000 815.084
40.08000 844.811
40.10000 857.511
40.12000 854.480
40.14000 848.692
40.16000 849.884
40.18000 852.552
40.20000 848.348
40.22000 842.846
40.24000 831.891
40.26000 822.085
40.28000 808.427
40.30000 795.338
40.32000 772.672
40.34000 753.895
40.36000 736.661
40.38000 704.527
40.40000 682.121
40.42000 662.567
40.44000 634.662
40.46000 607.644
40.48000 588.255
40.50000 568.486
40.52000 536.589
40.54000 505.769
40.56000 484.794
40.58000 464.762
40.60000 441.687
40.62000 421.872
40.64000 398.330
40.66000 384.748
40.68000 361.101
40.70000 334.069
40.72000 327.394
40.74000 309.892
40.76000 281.264
40.78000 271.953
40.80000 255.882
40.82000 241.805
40.84000 225.237
40.86000 213.238
40.88000 202.142
40.90000 192.940
40.92000 179.213
40.94000 167.494
40.96000 167.205
40.98000 157.068
41.00000 142.716
41.02000 131.962
41.04000 119.350
41.06000 112.754
41.08000 111.600
41.10000 104.093
41.12000 95.899
41.14000 94.380
41.16000 89.402
41.18000 81.866
41.20000 83.252
41.22000 73.735
41.24000 71.770
41.26000 73.590
41.28000 69.993
41.30000 61.448
41.32000 61.914
41.34000 55.290
41.36000 54.161
41.38000 54.724
41.40000 49.734
41.42000 46.636
41.44000 43.647
41.46000 41.288
41.48000 42.469
41.50000 35.407
41.52000 32.986
41.54000 31.104
41.56000 30.240
41.58000 30.465
41.60000 27.918
41.62000 29.500
41.64000 33.636
41.66000 30.637
41.68000 25.636
41.70000 23.996
41.72000 23.348
41.74000 20.719
41.76000 20.208
41.78000 14.380
41.80000 15.171
41.82000 15.292
41.84000 18.962
41.86000 17.221
41.88000 15.141
41.90000 10.835
41.92000 10.582
41.94000 14.382
41.96000 10.700
41.98000 8.635
42.00000 8.672
42.02000 9.781
42.04000 11.537
42.06000 13.324
42.08000 9.875
42.10000 5.284
42.12000 6.231
42.14000 12.812
42.16000 8.139
42.18000 2.116
42.20000 4.628
42.22000 7.857
42.24000 1.841
42.26000 4.976
42.28000 6.338
42.30000 3.340
42.32000 5.514
42.34000 3.770
42.36000 1.919
42.38000 7.741
42.40000 6.451
42.42000 4.091
42.44000 -2.407
42.46000 -2.363
42.48000 1.323
42.50000 3.917
42.52000 6.146
42.54000 4.600
42.56000 5.857
42.58000 1.802
42.60000 1.103
42.62000 -0.661
42.64000 0.872
42.66000 0.631
42.68000 -3.496
42.70000 0.402
42.72000 2.278
42.74000 1.300
42.76000 0.871
42.78000 2.261
42.80000 3.917
42.82000 -3.035
42.84000 -3.004
42.86000 -1.571
42.88000 -0.344
42.90000 -0.225
42.92000 -1.763
42.94000 1.299
42.96000 -2.054
42.98000 -0.996
43.00000 3.697
43.02000 -0.913
43.04000 0.519
43.06000 -0.444
43.08000 -0.049
43.10000 -2.516
43.12000 -1.240
43.14000 2.379
43.16000 -1.808
43.18000 -2.698
43.20000 -1.239
43.22000 1.017
43.24000 -0.133
43.26000 1.593
43.28000 0.662
43.30000 -0.403
43.32000 1.605
43.34000 -0.843
43.36000 -2.733
43.38000 -0.489
43.40000 4.142
43.42000 2.590
43.44000 -1.375
43.46000 -0.151
43.48000 -1.596
43.50000 -1.938
43.52000 -0.867
43.54000 2.759
43.56000 1.296
43.58000 -0.127
43.60000 2.218
43.62000 0.633
43.64000 -2.504
43.66000 -3.381
43.68000 -1.815
43.70000 0.510
43.72000 -0.208
43.74000 -0.936
43.76000 0.476
43.78000 1.139
43.80000 1.592
43.82000 -0.399
43.84000 -0.437
43.86000 2.220
43.88000 2.557
43.90000 -3.145
43.92000 -1.292
43.94000 -2.346
43.96000 -3.350
43.98000 -1.186
44.00000 1.981
44.02000 -1.587
44.04000 0.786
44.06000 3.728
44.08000 -0.351
44.10000 -0.696
44.12000 1.750
44.14000 4.545
44.16000 5.332
44.18000 3.501
44.20000 0.639
44.22000 4.238
44.24000 6.345
44.26000 0.589
44.28000 -0.429
44.30000 -1.575
44.32000 0.283
44.34000 0.398
44.36000 3.127
44.38000 7.355
44.40000 2.169
44.42000 -3.337
44.44000 -1.823
44.46000 1.756
44.48000 -0.616
44.50000 -1.213
44.52000 0.923
44.54000 4.478
44.56000 4.129
44.58000 7.477
44.60000 4.578
44.62000 2.696
44.64000 2.903
44.66000 2.585
44.68000 4.846
44.70000 1.513
44.72000 0.334
44.74000 2.348
44.76000 1.794
44.78000 1.070
44.80000 5.492
44.82000 5.679
44.84000 4.269
44.86000 0.665
44.88000 4.664
44.90000 6.603
44.92000 5.921
44.94000 -1.567
44.96000 1.947
44.98000 1.651
45.00000 3.763
45.02000 3.836
45.04000 2.445
45.06000 4.404
45.08000 6.197
45.10000 11.663
45.12000 9.502
45.14000 7.745
45.16000 7.616
45.18000 8.964
45.20000 9.866
45.22000 8.652
45.24000 8.577
45.26000 14.886
45.28000 18.410
45.30000 14.371
45.32000 13.170
45.34000 11.109
45.36000 11.149
45.38000 14.838
45.40000 16.095
45.42000 17.464
45.44000 19.433
45.46000 21.396
45.48000 27.002
45.50000 26.391
45.52000 21.737
45.54000 20.425
45.56000 26.561
45.58000 27.115
45.60000 30.555
45.62000 32.825
45.64000 30.368
45.66000 28.783
45.68000 31.610
45.70000 34.374
45.72000 31.352
45.74000 31.193
45.76000 27.775
45.78000 29.184
45.80000 34.749
45.82000 39.989
45.84000 42.255
45.86000 42.621
45.88000 41.167
45.90000 41.353
45.92000 43.949
45.94000 50.692
45.96000 54.669
45.98000 55.596
46.00000 58.942
46.02000 61.754
46.04000 63.648
46.06000 64.660
46.08000 68.752
46.10000 69.747
46.12000 71.389
46.14000 73.174
46.16000 75.403
46.18000 79.344
46.20000 77.885
46.22000 83.222
46.24000 87.468
46.26000 87.870
46.28000 88.123
46.30000 84.774
46.32000 94.753
46.34000 93.166
46.36000 99.493
46.38000 100.069
46.40000 107.207
46.42000 113.765
46.44000 112.390
46.46000 114.822
46.48000 118.659
46.50000 116.316
46.52000 115.292
46.54000 123.225
46.56000 134.189
46.58000 134.254
46.60000 133.572
46.62000 139.227
46.64000 139.007
46.66000 140.913
46.68000 148.865
46.70000 154.036
46.72000 149.172
46.74000 147.930
46.76000 152.112
46.78000 151.363
46.80000 153.280
46.82000 148.853
46.84000 148.068
46.86000 149.176
46.88000 146.443
46.90000 149.927
46.92000 157.656
46.94000 152.661
46.96000 154.107
46.98000 148.876
47.00000 142.567
47.02000 146.975
47.04000 138.170
47.06000 137.144
47.08000 134.441
47.10000 128.455
47.12000 120.862
47.14000 110.525
47.16000 111.232
47.18000 113.880
47.20000 112.630
47.22000 111.107
47.24000 105.245
47.26000 98.751
47.28000 98.731
47.30000 98.488
47.32000 91.010
47.34000 85.003
47.36000 77.368
47.38000 74.262
47.40000 70.788
47.42000 72.723
47.44000 67.110
47.46000 62.658
47.48000 59.900
47.50000 57.706
47.52000 55.474
47.54000 51.548
47.56000 46.690
47.58000 46.916
47.60000 43.647
47.62000 39.294
47.64000 36.837
47.66000 36.790
47.68000 33.908
47.70000 37.623
47.72000 31.906
47.74000 27.710
47.76000 32.727
47.78000 28.745
47.80000 25.377
47.82000 22.670
47.84000 24.969
47.86000 21.499
47.88000 22.234
47.90000 24.522
47.92000 25.272
47.94000 20.092
47.96000 18.439
47.98000 15.605
48.00000 12.787
48.02000 11.162
48.04000 11.750
48.06000 10.842
48.08000 11.771
48.10000 4.638
48.12000 7.908
48.14000 8.137
48.16000 9.938
48.18000 8.381
48.20000 10.397
48.22000 9.518
48.24000 7.131
48.26000 5.027
48.28000 7.946
48.30000 8.043
48.32000 7.673
48.34000 8.755
48.36000 6.429
48.38000 7.934
48.40000 6.811
48.42000 9.557
48.44000 6.079
48.46000 4.615
48.48000 7.764
48.50000 8.571
48.52000 6.532
48.54000 8.697
48.56000 6.810
48.58000 5.385
48.60000 7.455
48.62000 5.660
48.64000 -2.882
48.66000 -0.656
48.68000 5.969
48.70000 6.926
48.72000 4.670
48.74000 4.115
48.76000 0.951
48.78000 5.083
48.80000 7.545
48.82000 3.126
48.84000 4.530
48.86000 6.788
48.88000 0.720
48.90000 -2.844
48.92000 -0.263
48.94000 5.920
48.96000 9.615
48.98000 6.932
49.00000 5.073
49.02000 1.815
49.04000 3.651
49.06000 5.593
49.08000 3.958
49.10000 4.452
49.12000 -0.497
49.14000 0.523
49.16000 0.781
49.18000 0.199
49.20000 1.326
49.22000 2.098
49.24000 4.204
49.26000 2.855
49.28000 4.572
49.30000 9.011
49.32000 2.759
49.34000 3.593
49.36000 4.191
49.38000 4.297
49.40000 -0.392
49.42000 2.476
49.44000 2.897
49.46000 1.901
49.48000 -1.684
49.50000 1.489
49.52000 7.964
49.54000 8.509
49.56000 9.548
49.58000 6.053
49.60000 6.604
49.62000 6.377
49.64000 1.726
49.66000 4.310
49.68000 1.444
49.70000 3.460
49.72000 5.209
49.74000 3.375
49.76000 0.715
49.78000 1.014
49.80000 0.538
49.82000 4.461
49.84000 8.385
49.86000 7.233
49.88000 4.054
49.90000 -2.755
49.92000 3.207
49.94000 5.938
49.96000 3.693
49.98000 -1.786
50.00000 0.511
50.02000 2.388
50.04000 2.983
50.06000 -1.375
50.08000 -1.164
50.10000 0.628
50.12000 1.844
50.14000 0.134
50.16000 3.237
50.18000 3.243
50.20000 -1.662
50.22000 -1.743
50.24000 -0.057
50.26000 1.008
50.28000 1.437
50.30000 3.692
50.32000 1.005
50.34000 1.026
50.36000 -0.522
50.38000 -1.277
50.40000 0.368
50.42000 -0.340
50.44000 -2.374
50.46000 -0.804
50.48000 0.215
50.50000 0.164
50.52000 2.345
50.54000 -0.096
50.56000 -2.714
50.58000 -2.102
50.60000 1.810
50.62000 3.364
50.64000 2.599
50.66000 1.786
50.68000 2.920
50.70000 -0.045
50.72000 0.524
50.74000 3.523
50.76000 1.608
50.78000 1.147
50.80000 -0.618
50.82000 2.302
50.84000 0.812
50.86000 3.539
50.88000 1.827
50.90000 -1.288
50.92000 1.292
50.94000 0.766
50.96000 2.046
50.98000 3.008
51.00000 4.316
51.02000 2.052
51.04000 0.228
51.06000 0.153
51.08000 -1.416
51.10000 -0.870
51.12000 3.276
51.14000 3.716
51.16000 6.964
51.18000 7.301
51.20000 1.438
51.22000 5.554
51.24000 5.294
51.26000 1.218
51.28000 2.322
51.30000 5.839
51.32000 5.144
51.34000 3.837
51.36000 2.095
51.38000 2.594
51.40000 3.622
51.42000 3.721
51.44000 6.669
51.46000 6.117
51.48000 8.607
51.50000 8.570
51.52000 6.119
51.54000 -0.653
51.56000 -0.716
51.58000 -2.312
51.60000 1.169
51.62000 2.051
51.64000 0.129
51.66000 -2.655
51.68000 1.420
51.70000 4.247
51.72000 -0.120
51.74000 3.677
51.76000 7.200
51.78000 4.986
51.80000 4.658
51.82000 3.795
51.84000 1.918
51.86000 0.636
51.88000 3.355
51.90000 2.091
51.92000 2.186
51.94000 2.225
51.96000 -0.059
51.98000 -1.827
52.00000 0.950
52.02000 4.053
52.04000 1.650
52.06000 1.904
52.08000 3.530
52.10000 4.932
52.12000 3.337
52.14000 1.770
52.16000 0.538
52.18000 1.909
52.20000 2.753
52.22000 1.030
52.24000 2.398
52.26000 1.939
52.28000 5.708
52.30000 9.219
52.32000 10.873
52.34000 6.611
52.36000 4.056
52.38000 4.532
52.40000 0.532
52.42000 0.269
52.44000 -1.420
52.46000 -2.216
52.48000 -0.744
52.50000 -0.243
52.52000 -1.019
52.54000 0.387
52.56000 -0.800
52.58000 0.383
52.60000 0.686
52.62000 -2.180
52.64000 -1.600
52.66000 -2.628
52.68000 0.279
52.70000 2.369
52.72000 4.518
52.74000 1.672
52.76000 5.681
52.78000 5.097
52.80000 3.333
52.82000 0.308
52.84000 -0.503
52.86000 -2.175
52.88000 0.647
52.90000 3.580
52.92000 3.335
52.94000 1.944
52.96000 1.139
52.98000 1.334
53.00000 0.091
53.02000 0.360
53.04000 -2.134
53.06000 1.629
53.08000 4.515
53.10000 4.313
53.12000 0.993
53.14000 2.008
53.16000 2.864
53.18000 0.965
53.20000 -1.142
53.22000 -0.691
53.24000 3.561
53.26000 5.293
53.28000 3.122
53.30000 -0.451
53.32000 0.468
53.34000 4.368
53.36000 5.480
53.38000 0.651
53.40000 1.527
53.42000 1.063
53.44000 3.032
53.46000 0.470
53.48000 -1.324
53.50000 -0.849
53.52000 0.908
53.54000 1.448
53.56000 1.279
53.58000 -0.524
53.60000 0.772
53.62000 -1.249
53.64000 4.661
53.66000 2.254
53.68000 -2.594
53.70000 -2.497
53.72000 0.646
53.74000 -1.453
53.76000 3.408
53.78000 6.558
53.80000 2.365
53.82000 2.874
53.84000 0.337
53.86000 -0.017
53.88000 -1.569
53.90000 -0.252
53.92000 2.212
53.94000 3.768
53.96000 -0.085
53.98000 2.236
54.00000 2.454
54.02000 1.663
54.04000 2.050
54.06000 7.578
54.08000 4.772
54.10000 -1.314
54.12000 -0.529
54.14000 4.893
54.16000 2.960
54.18000 2.103
54.20000 2.578
54.22000 0.725
54.24000 1.585
54.26000 -0.489
54.28000 0.282
54.30000 -1.915
54.32000 -2.195
54.34000 2.025
54.36000 2.913
54.38000 4.201
54.40000 1.914
54.42000 3.252
54.44000 2.869
54.46000 2.074
54.48000 3.597
54.50000 2.347
54.52000 3.037
54.54000 6.578
54.56000 2.871
54.58000 0.273
54.60000 2.316
54.62000 1.769
54.64000 1.945
54.66000 4.318
54.68000 4.856
54.70000 1.238
54.72000 -0.931
54.74000 2.657
54.76000 3.601
54.78000 3.827
54.80000 1.519
54.82000 4.572
54.84000 7.030
54.86000 3.840
54.88000 4.946
54.90000 3.621
54.92000 0.714
54.94000 0.279
54.96000 2.336
54.98000 2.638
55.00000 1.187
55.02000 -0.587
55.04000 3.731
55.06000 3.533
55.08000 1.366
55.10000 2.044
55.12000 -2.519
55.14000 -0.403
55.16000 0.366
55.18000 3.662
55.20000 0.335
55.22000 2.144
55.24000 2.199
55.26000 2.904
55.28000 1.572
55.30000 2.044
55.32000 -0.148
55.34000 1.855
55.36000 -0.676
55.38000 0.433
55.40000 1.792
55.42000 3.869
55.44000 1.990
55.46000 1.947
55.48000 2.702
55.50000 3.635
55.52000 2.023
55.54000 1.712
55.56000 2.414
55.58000 2.965
55.60000 4.672
55.62000 4.335
55.64000 4.946
55.66000 7.364
55.68000 3.967
55.70000 1.094
55.72000 -1.778
55.74000 0.090
55.76000 6.598
55.78000 5.219
55.80000 4.270
55.82000 3.533
55.84000 1.759
55.86000 -0.439
55.88000 -0.734
55.90000 1.859
55.92000 3.780
55.94000 3.895
55.96000 2.772
55.98000 5.179
56.00000 0.907
56.02000 -1.162
56.04000 -2.287
56.06000 0.121
56.08000 1.582
56.10000 5.740
56.12000 4.955
56.14000 0.135
56.16000 5.059
56.18000 8.853
56.20000 4.749
56.22000 3.123
56.24000 3.592
56.26000 6.830
56.28000 2.323
56.30000 1.949
56.32000 2.350
56.34000 0.293
56.36000 3.356
56.38000 4.520
56.40000 1.996
56.42000 3.140
56.44000 3.538
56.46000 4.038
56.48000 0.307
56.50000 3.424
56.52000 2.279
56.54000 1.206
56.56000 3.144
56.58000 8.071
56.60000 6.088
56.62000 -2.485
56.64000 1.727
56.66000 7.721
56.68000 11.049
56.70000 5.210
56.72000 3.635
56.74000 6.204
56.76000 4.535
56.78000 5.288
56.80000 3.465
56.82000 5.441
56.84000 6.162
56.86000 4.703
56.88000 1.759
56.90000 2.981
56.92000 0.073
56.94000 -2.484
56.96000 1.287
56.98000 5.315
57.00000 4.983
57.02000 4.991
57.04000 3.514
57.06000 2.307
57.08000 -1.485
57.10000 1.869
57.12000 1.702
57.14000 3.295
57.16000 3.510
57.18000 2.162
57.20000 3.323
57.22000 1.212
57.24000 0.534
57.26000 4.158
57.28000 2.733
57.30000 1.168
57.32000 2.282
57.34000 -0.251
57.36000 0.834
57.38000 5.205
57.40000 8.246
57.42000 6.361
57.44000 4.497
57.46000 6.436
57.48000 7.049
57.50000 4.889
57.52000 3.144
57.54000 3.431
57.56000 0.078
57.58000 1.391
57.60000 0.367
57.62000 3.328
57.64000 1.507
57.66000 0.564
57.68000 3.608
57.70000 4.853
57.72000 2.534
57.74000 -0.280
57.76000 3.578
57.78000 5.623
57.80000 4.449
57.82000 6.179
57.84000 8.575
57.86000 2.931
57.88000 2.422
57.90000 4.549
57.92000 4.614
57.94000 7.082
57.96000 6.419
57.98000 3.808
58.00000 5.937
58.02000 5.571
58.04000 -1.512
58.06000 -2.414
58.08000 1.410
58.10000 4.423
58.12000 3.597
58.14000 0.241
58.16000 3.521
58.18000 6.381
58.20000 1.681
58.22000 2.389
58.24000 3.085
58.26000 0.076
58.28000 3.182
58.30000 5.771
58.32000 6.145
58.34000 5.297
58.36000 3.309
58.38000 2.517
58.40000 5.420
58.42000 3.040
58.44000 4.966
58.46000 5.787
58.48000 4.921
58.50000 4.959
58.52000 3.090
58.54000 1.689
58.56000 1.196
58.58000 2.731
58.60000 1.534
58.62000 3.904
58.64000 2.388
58.66000 3.034
58.68000 4.116
58.70000 4.192
58.72000 5.036
58.74000 0.056
58.76000 0.693
58.78000 3.678
58.80000 7.344
58.82000 4.782
58.84000 2.487
58.86000 3.184
58.88000 4.800
58.90000 0.449
58.92000 -2.409
58.94000 -2.093
58.96000 2.008
58.98000 4.053
59.00000 6.083
59.02000 -1.752
59.04000 -0.066
59.06000 1.594
59.08000 2.959
59.10000 0.463
59.12000 2.159
59.14000 0.226
59.16000 0.028
59.18000 -1.947
59.20000 2.080
59.22000 4.807
59.24000 3.305
59.26000 3.333
59.28000 4.000
59.30000 1.510
59.32000 0.640
59.34000 4.341
59.36000 3.695
59.38000 0.157
59.40000 0.161
59.42000 0.293
59.44000 0.111
59.46000 -0.024
59.48000 -2.397
59.50000 -0.535
59.52000 3.819
59.54000 5.804
59.56000 6.191
59.58000 4.604
59.60000 2.171
59.62000 1.589
59.64000 4.268
59.66000 4.606
59.68000 5.539
59.70000 7.161
59.72000 6.404
59.74000 2.485
59.76000 0.737
59.78000 0.223
59.80000 4.878
59.82000 2.519
59.84000 3.123
59.86000 3.172
59.88000 3.824
59.90000 4.221
59.92000 2.158
59.94000 2.834
59.96000 2.604
59.98000 2.399
60.00000 1.208
60.02000 1.918
60.04000 -1.073
60.06000 3.113
60.08000 5.754
60.10000 5.387
60.12000 4.702
60.14000 -0.532
60.16000 1.195
60.18000 3.319
60.20000 3.598
60.22000 0.155
60.24000 0.676
60.26000 2.530
60.28000 3.736
60.30000 4.465
60.32000 4.941
60.34000 1.166
60.36000 0.571
60.38000 -0.540
60.40000 1.049
60.42000 2.480
60.44000 3.231
60.46000 4.533
60.48000 0.155
60.50000 -2.357
60.52000 1.404
60.54000 1.406
60.56000 1.580
60.58000 6.735
60.60000 5.703
60.62000 3.660
60.64000 2.541
60.66000 -0.047
60.68000 -1.149
60.70000 0.559
60.72000 3.807
60.74000 2.553
60.76000 0.982
60.78000 3.547
60.80000 5.166
60.82000 4.128
60.84000 2.170
60.86000 3.972
60.88000 -1.525
60.90000 -1.664
60.92000 1.952
60.94000 3.616
60.96000 0.681
60.98000 1.340
61.00000 2.605
61.02000 3.662
61.04000 1.829
61.06000 1.098
61.08000 -1.431
61.10000 -2.053
61.12000 3.299
61.14000 5.152
61.16000 0.949
61.18000 1.145
61.20000 4.449
61.22000 4.636
61.24000 1.100
61.26000 1.141
61.28000 1.833
61.30000 6.520
61.32000 3.577
61.34000 0.866
61.36000 -0.159
61.38000 1.909
61.40000 4.606
61.42000 2.111
61.44000 0.493
61.46000 2.760
61.48000 5.156
61.50000 1.759
61.52000 -0.384
61.54000 -0.867
61.56000 -2.375
61.58000 0.483
61.60000 1.093
61.62000 -1.122
61.64000 -0.936
61.66000 0.285
61.68000 -0.629
61.70000 1.080
61.72000 2.356
61.74000 0.282
61.76000 1.741
61.78000 -0.247
61.80000 -2.369
61.82000 1.896
61.84000 2.563
61.86000 -1.252
61.88000 2.044
61.90000 4.689
61.92000 1.545
61.94000 0.910
61.96000 2.343
61.98000 1.661
62.00000 4.649
62.02000 4.979
62.04000 1.294
62.06000 2.356
62.08000 2.750
62.10000 2.605
62.12000 2.488
62.14000 3.232
62.16000 1.761
62.18000 0.760
62.20000 4.397
62.22000 2.255
62.24000 -0.546
62.26000 -2.123
62.28000 -0.550
62.30000 -0.888
62.32000 1.773
62.34000 -0.398
62.36000 0.594
62.38000 -1.708
62.40000 1.439
62.42000 0.159
62.44000 -2.351
62.46000 0.950
62.48000 2.614
62.50000 0.821
62.52000 0.864
62.54000 3.448
62.56000 -0.205
62.58000 0.207
62.60000 2.528
62.62000 1.101
62.64000 -0.378
62.66000 -0.205
62.68000 0.762
62.70000 0.493
62.72000 -0.440
62.74000 1.934
62.76000 3.247
62.78000 1.925
62.80000 2.797
62.82000 5.873
62.84000 4.242
62.86000 -1.163
62.88000 -0.845
62.90000 -2.356
62.92000 -1.892
62.94000 -1.542
62.96000 -1.092
62.98000 1.583
63.00000 0.389
63.02000 1.251
63.04000 0.501
63.06000 1.272
63.08000 2.059
63.10000 3.693
63.12000 1.330
63.14000 -0.997
63.16000 -1.841
63.18000 -0.449
63.20000 0.166
63.22000 2.378
63.24000 3.507
63.26000 -0.162
63.28000 2.190
63.30000 0.304
63.32000 2.196
63.34000 0.135
63.36000 -0.967
63.38000 -1.043
63.40000 2.396
63.42000 2.386
63.44000 3.468
63.46000 3.838
63.48000 -0.555
63.50000 1.482
63.52000 0.711
63.54000 0.273
63.56000 1.442
63.58000 3.048
63.60000 -1.063
63.62000 0.504
63.64000 4.267
63.66000 1.496
63.68000 -0.736
63.70000 0.561
63.72000 2.397
63.74000 4.836
63.76000 2.174
63.78000 2.008
63.80000 -0.429
63.82000 1.253
63.84000 0.189
63.86000 -1.120
63.88000 -2.344
63.90000 -1.680
63.92000 1.144
63.94000 0.239
63.96000 2.098
63.98000 4.582
64.00000 4.518
64.02000 0.523
64.04000 2.725
64.06000 1.755
64.08000 -0.109
64.10000 0.539
64.12000 1.763
64.14000 1.353
64.16000 1.218
64.18000 -2.158
64.20000 1.751
64.22000 2.248
64.24000 4.626
64.26000 5.714
64.28000 -0.249
64.30000 0.738
64.32000 2.239
64.34000 3.278
64.36000 2.400
64.38000 1.253
64.40000 0.132
64.42000 -0.290
64.44000 -0.555
64.46000 0.674
64.48000 0.279
64.50000 0.045
64.52000 0.314
64.54000 2.648
64.56000 2.769
64.58000 -0.871
64.60000 0.226
64.62000 0.296
64.64000 -0.628
64.66000 -1.822
64.68000 -2.371
64.70000 -0.707
64.72000 -1.909
64.74000 0.003
64.76000 2.783
64.78000 1.183
64.80000 -1.350
64.82000 -1.151
64.84000 -0.276
64.86000 1.322
64.88000 2.311
64.90000 1.103
64.92000 2.990
64.94000 3.043
64.96000 2.846
64.98000 2.616
65.00000 1.320
65.02000 0.731
65.04000 0.644
65.06000 -1.032
65.08000 -0.742
65.10000 -0.139
65.12000 0.418
65.14000 0.601
65.16000 -0.245
65.18000 -1.660
65.20000 -1.751
65.22000 -2.369
65.24000 -0.273
65.26000 1.509
65.28000 2.010
65.30000 3.829
65.32000 1.240
65.34000 0.651
65.36000 2.076
65.38000 5.844
65.40000 -2.367
65.42000 -0.511
65.44000 2.415
65.46000 0.557
65.48000 0.685
65.50000 2.898
65.52000 3.301
65.54000 2.007
65.56000 4.134
65.58000 3.342
65.60000 2.715
65.62000 1.760
65.64000 -0.496
65.66000 2.365
65.68000 3.576
65.70000 1.780
65.72000 1.502
65.74000 -0.771
65.76000 1.491
65.78000 2.902
65.80000 2.435
65.82000 0.823
65.84000 -1.200
65.86000 2.462
65.88000 1.959
65.90000 -1.824
65.92000 -2.381
65.94000 0.760
65.96000 1.697
65.98000 1.579
66.00000 1.421
66.02000 2.480
66.04000 5.883
66.06000 3.312
66.08000 -0.223
66.10000 2.559
66.12000 0.100
66.14000 0.244
66.16000 1.952
66.18000 4.688
66.20000 5.217
66.22000 3.031
66.24000 -2.141
66.26000 0.855
66.28000 2.356
66.30000 1.446
66.32000 -0.071
66.34000 -0.441
66.36000 0.020
66.38000 3.797
66.40000 2.049
66.42000 1.254
66.44000 0.342
66.46000 -1.140
66.48000 1.189
66.50000 2.030
66.52000 -0.816
66.54000 0.032
66.56000 -0.576
66.58000 -0.127
66.60000 -2.463
66.62000 -1.869
66.64000 1.098
66.66000 -0.195
66.68000 0.622
66.70000 3.387
66.72000 4.188
66.74000 -0.321
66.76000 1.590
66.78000 1.559
66.80000 2.599
66.82000 3.049
66.84000 0.445
66.86000 3.409
66.88000 4.042
66.90000 -0.183
66.92000 1.822
66.94000 1.315
66.96000 3.755
66.98000 4.750
67.00000 3.220
67.02000 5.044
67.04000 6.291
67.06000 4.621
67.08000 1.653
67.10000 1.086
67.12000 5.384
67.14000 5.895
67.16000 3.384
67.18000 2.595
67.20000 3.593
67.22000 1.891
67.24000 5.118
67.26000 6.593
67.28000 8.157
67.30000 4.290
67.32000 3.959
67.34000 6.755
67.36000 6.141
67.38000 10.767
67.40000 12.046
67.42000 11.917
67.44000 10.660
67.46000 15.259
67.48000 8.137
67.50000 6.639
67.52000 10.634
67.54000 11.216
67.56000 10.919
67.58000 7.930
67.60000 10.426
67.62000 12.241
67.64000 10.899
67.66000 14.571
67.68000 14.089
67.70000 13.606
67.72000 15.815
67.74000 15.922
67.76000 15.191
67.78000 13.061
67.80000 14.606
67.82000 15.666
67.84000 17.041
67.86000 16.852
67.88000 18.459
67.90000 19.815
67.92000 15.599
67.94000 16.488
67.96000 22.473
67.98000 24.779
68.00000 20.981
68.02000 22.145
68.04000 26.528
68.06000 26.471
68.08000 21.413
68.10000 23.419
68.12000 20.698
68.14000 21.298
68.16000 19.807
68.18000 21.778
68.20000 22.741
68.22000 24.970
68.24000 24.080
68.26000 30.006
68.28000 29.829
68.30000 27.154
68.32000 25.916
68.34000 25.658
68.36000 26.045
68.38000 24.336
68.40000 25.410
68.42000 29.335
68.44000 25.318
68.46000 22.874
68.48000 29.739
68.50000 33.675
68.52000 28.215
68.54000 26.254
68.56000 26.748
68.58000 22.928
68.60000 22.564
68.62000 22.894
68.64000 24.980
68.66000 22.792
68.68000 21.302
68.70000 19.737
68.72000 21.787
68.74000 22.645
68.76000 20.899
68.78000 19.165
68.80000 18.324
68.82000 18.149
68.84000 23.037
68.86000 19.677
68.88000 20.403
68.90000 17.256
68.92000 13.806
68.94000 13.681
68.96000 12.775
68.98000 11.298
69.00000 10.492
69.02000 9.603
69.04000 10.044
69.06000 11.651
69.08000 12.567
69.10000 9.499
69.12000 7.449
69.14000 9.469
69.16000 7.411
69.18000 5.415
69.20000 8.019
69.22000 9.217
69.24000 6.809
69.26000 5.517
69.28000 5.853
69.30000 2.968
69.32000 2.918
69.34000 2.904
69.36000 3.791
69.38000 2.412
69.40000 2.268
69.42000 2.493
69.44000 4.993
69.46000 3.495
69.48000 1.937
69.50000 0.532
69.52000 1.961
69.54000 3.398
69.56000 4.304
69.58000 2.851
69.60000 1.808
69.62000 0.498
69.64000 1.573
69.66000 1.923
69.68000 -0.628
69.70000 -1.663
69.72000 -2.376
69.74000 1.659
69.76000 0.285
69.78000 0.003
69.80000 3.373
69.82000 0.748
69.84000 0.260
69.86000 0.131
69.88000 -2.086
69.90000 -0.420
69.92000 -0.748
69.94000 -1.915
69.96000 0.039
69.98000 -1.694
70.00000 -0.705
70.02000 -0.933
70.04000 -1.479
70.06000 -2.337
70.08000 1.052
70.10000 0.942
70.12000 -2.340
70.14000 -0.491
70.16000 2.712
70.18000 1.922
70.20000 2.402
70.22000 -0.691
70.24000 -1.097
70.26000 1.192
70.28000 2.686
70.30000 2.821
70.32000 2.971
70.34000 0.325
70.36000 -2.314
70.38000 1.178
70.40000 -0.077
70.42000 3.505
70.44000 4.865
70.46000 1.395
70.48000 -0.365
70.50000 1.385
70.52000 -1.218
70.54000 -0.178
70.56000 -0.027
70.58000 3.347
70.60000 3.587
70.62000 1.958
70.64000 0.918
70.66000 -1.006
70.68000 0.120
70.70000 1.531
70.72000 0.705
70.74000 -0.689
70.76000 3.322
70.78000 5.929
70.80000 5.523
70.82000 0.988
70.84000 2.087
70.86000 2.344
70.88000 3.043
70.90000 3.317
70.92000 5.066
70.94000 3.783
70.96000 4.027
70.98000 1.534
71.00000 -2.245
71.02000 2.349
71.04000 0.670
71.06000 -1.412
71.08000 -0.096
71.10000 1.986
71.12000 2.556
71.14000 4.766
71.16000 2.124
71.18000 -0.795
71.20000 0.553
71.22000 5.609
71.24000 6.011
71.26000 3.797
71.28000 0.690
71.30000 2.516
71.32000 1.939
71.34000 6.143
71.36000 5.840
71.38000 4.386
71.40000 2.850
71.42000 1.273
71.44000 -0.209
71.46000 2.079
71.48000 -1.880
71.50000 -1.733
71.52000 1.024
71.54000 2.137
71.56000 1.587
71.58000 1.137
71.60000 2.369
71.62000 3.608
71.64000 4.431
71.66000 4.808
71.68000 2.759
71.70000 -2.232
71.72000 -2.195
71.74000 -0.701
71.76000 0.126
71.78000 5.548
71.80000 1.164
71.82000 0.807
71.84000 4.053
71.86000 0.998
71.88000 -0.298
71.90000 2.079
71.92000 4.188
71.94000 -0.948
71.96000 -2.220
71.98000 0.583
72.00000 0.677
72.02000 -0.713
72.04000 -0.637
72.06000 -1.463
72.08000 3.365
72.10000 2.616
72.12000 4.202
72.14000 4.056
72.16000 4.464
72.18000 0.083
72.20000 -0.728
72.22000 1.737
72.24000 4.069
72.26000 4.103
72.28000 5.450
72.30000 4.296
72.32000 4.364
72.34000 4.577
72.36000 4.125
72.38000 2.397
72.40000 4.000
72.42000 -1.455
72.44000 -2.070
72.46000 -0.120
72.48000 0.480
72.50000 -1.416
72.52000 -2.186
72.54000 1.310
72.56000 0.743
72.58000 4.178
72.60000 8.024
72.62000 5.813
72.64000 6.432
72.66000 2.077
72.68000 3.364
72.70000 5.145
72.72000 2.808
72.74000 4.813
72.76000 4.382
72.78000 0.943
72.80000 1.102
72.82000 1.332
72.84000 0.023
72.86000 3.461
72.88000 6.149
72.90000 4.631
72.92000 0.106
72.94000 -2.173
72.96000 -0.476
72.98000 2.497
73.00000 0.819
73.02000 1.890
73.04000 3.642
73.06000 1.181
73.08000 5.415
73.10000 3.612
73.12000 0.413
73.14000 3.540
73.16000 9.936
73.18000 9.997
73.20000 5.150
73.22000 1.278
73.24000 0.641
73.26000 4.706
73.28000 4.055
73.30000 0.526
73.32000 -0.332
73.34000 0.695
73.36000 0.019
73.38000 1.976
73.40000 5.242
73.42000 3.560
73.44000 4.215
73.46000 4.642
73.48000 5.344
73.50000 5.154
73.52000 6.005
73.54000 4.332
73.56000 0.940
73.58000 2.148
73.60000 1.992
73.62000 -0.897
73.64000 2.511
73.66000 4.741
73.68000 1.429
73.70000 -0.989
73.72000 -0.367
73.74000 -2.163
73.76000 0.147
73.78000 1.452
73.80000 3.119
73.82000 2.009
73.84000 2.395
73.86000 2.780
73.88000 1.225
73.90000 2.312
73.92000 0.552
73.94000 -0.886
73.96000 1.488
73.98000 1.256
74.00000 2.041
74.02000 1.354
74.04000 2.982
74.06000 4.381
74.08000 5.320
74.10000 4.507
74.12000 3.258
74.14000 2.522
74.16000 2.197
74.18000 3.345
74.20000 5.148
74.22000 5.093
74.24000 2.882
74.26000 2.271
74.28000 1.805
74.30000 4.613
74.32000 0.086
74.34000 -2.144
74.36000 1.383
74.38000 4.387
74.40000 7.637
74.42000 4.554
74.44000 3.289
74.46000 3.752
74.48000 0.066
74.50000 -0.673
74.52000 5.391
74.54000 4.353
74.56000 3.421
74.58000 4.886
74.60000 5.630
74.62000 4.175
74.64000 3.665
74.66000 5.972
74.68000 0.568
74.70000 2.323
74.72000 1.842
74.74000 2.781
74.76000 5.605
74.78000 4.492
74.80000 2.872
74.82000 4.848
74.84000 8.090
74.86000 6.268
74.88000 5.898
74.90000 4.586
74.92000 6.897
74.94000 5.219
74.96000 5.155
74.98000 4.213
75.00000 -0.569
75.02000 0.738
75.04000 4.018
75.06000 5.846
75.08000 2.538
75.10000 2.572
75.12000 -2.142
75.14000 3.305
75.16000 4.759
75.18000 2.033
75.20000 3.163
75.22000 5.671
75.24000 3.910
75.26000 2.663
75.28000 4.202
75.30000 0.372
75.32000 2.003
75.34000 2.403
75.36000 2.839
75.38000 4.466
75.40000 1.558
75.42000 2.784
75.44000 -0.371
75.46000 -2.166
75.48000 2.644
75.50000 0.112
75.52000 4.951
75.54000 2.948
75.56000 3.380
75.58000 5.631
75.60000 2.010
75.62000 4.703
75.64000 6.280
75.66000 5.102
75.68000 0.020
75.70000 2.861
75.72000 1.692
75.74000 3.839
75.76000 7.021
75.78000 2.416
75.80000 -0.596
75.82000 4.349
75.84000 0.586
75.86000 1.333
75.88000 2.592
75.90000 6.034
75.92000 7.784
75.94000 3.354
75.96000 -1.180
75.98000 -0.298
76.00000 3.184
76.02000 2.015
76.04000 -0.140
76.06000 1.581
76.08000 3.546
76.10000 5.432
76.12000 -0.604
76.14000 4.524
76.16000 4.716
76.18000 4.510
76.20000 2.218
76.22000 4.608
76.24000 2.502
76.26000 4.718
76.28000 1.028
76.30000 0.756
76.32000 0.799
76.34000 3.815
76.36000 2.385
76.38000 3.363
76.40000 2.907
76.42000 4.047
76.44000 5.529
76.46000 2.278
76.48000 -2.179
76.50000 0.505
76.52000 3.099
76.54000 1.859
76.56000 3.772
76.58000 2.433
76.60000 5.319
76.62000 4.313
76.64000 2.151
76.66000 2.871
76.68000 -0.100
76.70000 1.020
76.72000 -1.676
76.74000 -2.185
76.76000 0.397
76.78000 1.208
76.80000 1.226
76.82000 -1.268
76.84000 -0.018
76.86000 1.078
76.88000 1.012
76.90000 4.494
76.92000 4.188
76.94000 3.293
76.96000 3.158
76.98000 4.405
77.00000 5.167
77.02000 -1.637
77.04000 3.425
77.06000 2.605
77.08000 1.571
77.10000 -1.252
77.12000 0.959
77.14000 4.106
77.16000 4.433
77.18000 6.446
77.20000 6.167
77.22000 8.853
77.24000 7.283
77.26000 4.930
77.28000 3.155
77.30000 -0.175
77.32000 1.687
77.34000 4.546
77.36000 3.423
77.38000 1.631
77.40000 -1.752
77.42000 1.398
77.44000 2.829
77.46000 2.523
77.48000 -1.426
77.50000 -0.942
77.52000 2.364
77.54000 5.273
77.56000 6.589
77.58000 7.009
77.60000 6.985
77.62000 3.560
77.64000 1.959
77.66000 6.673
77.68000 5.489
77.70000 3.023
77.72000 3.129
77.74000 2.859
77.76000 3.087
77.78000 4.395
77.80000 4.513
77.82000 2.890
77.84000 8.334
77.86000 7.758
77.88000 6.363
77.90000 2.710
77.92000 0.033
77.94000 1.225
77.96000 2.730
77.98000 1.995
78.00000 2.901
78.02000 6.726
78.04000 7.140
78.06000 2.416
78.08000 3.849
78.10000 1.459
78.12000 -2.176
78.14000 0.730
78.16000 6.293
78.18000 6.768
78.20000 6.557
78.22000 6.754
78.24000 8.712
78.26000 7.887
78.28000 6.360
78.30000 4.520
78.32000 4.562
78.34000 3.317
78.36000 4.169
78.38000 9.034
78.40000 7.140
78.42000 5.756
78.44000 2.984
78.46000 7.385
78.48000 5.500
78.50000 -0.772
78.52000 1.197
78.54000 3.897
78.56000 1.860
78.58000 -0.841
78.60000 -0.041
78.62000 -0.139
78.64000 2.484
78.66000 1.548
78.68000 0.224
78.70000 1.947
78.72000 6.276
78.74000 2.855
78.76000 -0.334
78.78000 2.140
78.80000 1.244
78.82000 3.719
78.84000 6.508
78.86000 6.346
78.88000 3.335
78.90000 7.359
78.92000 6.018
78.94000 2.341
78.96000 -1.752
78.98000 -0.642
79.00000 4.413
79.02000 4.249
79.04000 3.219
79.06000 5.796
79.08000 5.521
79.10000 7.911
79.12000 2.966
79.14000 0.529
79.16000 1.736
79.18000 2.170
79.20000 2.758
79.22000 0.054
79.24000 0.792
79.26000 2.976
79.28000 3.038
79.30000 0.447
79.32000 -1.500
79.34000 4.751
79.36000 1.755
79.38000 -0.171
79.40000 5.189
79.42000 4.776
79.44000 1.380
79.46000 2.959
79.48000 6.576
79.50000 8.718
79.52000 8.156
79.54000 5.138
79.56000 2.798
79.58000 2.019
79.60000 5.825
79.62000 10.759
79.64000 6.777
79.66000 0.919
79.68000 2.719
79.70000 3.211
79.72000 -2.274
79.74000 -1.412
79.76000 6.520
79.78000 5.330
79.80000 0.451
79.82000 0.713
79.84000 2.849
79.86000 0.374
79.88000 1.569
79.90000 2.108
79.92000 3.549
79.94000 5.707
79.96000 1.196
79.98000 4.408
80.00000 6.002
80.02000 1.230
80.04000 0.635
80.06000 3.702
80.08000 6.117
80.10000 2.713
80.12000 1.094
80.14000 -0.241
80.16000 -1.198
80.18000 0.615
80.20000 -1.648
80.22000 -0.237
80.24000 1.527
80.26000 1.903
80.28000 0.934
80.30000 3.133
80.32000 1.582
80.34000 1.905
80.36000 4.293
80.38000 1.860
80.40000 4.434
80.42000 2.519
80.44000 -1.365
80.46000 -1.030
80.48000 -0.795
80.50000 0.822
80.52000 2.956
80.54000 -2.414
80.56000 0.382
80.58000 3.431
80.60000 5.842
80.62000 2.671
80.64000 0.546
80.66000 2.295
80.68000 0.672
80.70000 5.635
80.72000 3.677
80.74000 5.162
80.76000 1.613
80.78000 3.120
80.80000 1.436
80.82000 1.425
80.84000 2.219
80.86000 1.435
80.88000 7.369
80.90000 7.975
80.92000 2.150
80.94000 5.272
80.96000 6.957
80.98000 0.490
81.00000 2.357
81.02000 4.022
81.04000 5.272
81.06000 3.080
81.08000 1.885
81.10000 1.691
81.12000 4.802
81.14000 6.938
81.16000 3.415
81.18000 3.100
81.20000 3.354
81.22000 5.589
81.24000 7.561
81.26000 9.746
81.28000 9.241
81.30000 8.363
81.32000 5.285
81.34000 10.437
81.36000 11.037
81.38000 14.133
81.40000 8.162
81.42000 12.257
81.44000 8.839
81.46000 11.260
81.48000 11.733
81.50000 14.805
81.52000 12.019
81.54000 18.693
81.56000 14.847
81.58000 15.116
81.60000 16.036
81.62000 16.899
81.64000 18.259
81.66000 19.070
81.68000 16.039
81.70000 18.051
81.72000 16.015
81.74000 17.013
81.76000 15.487
81.78000 16.550
81.80000 23.219
81.82000 19.801
81.84000 19.147
81.86000 24.945
81.88000 22.608
81.90000 20.901
81.92000 22.877
81.94000 24.991
81.96000 24.417
81.98000 23.286
82.00000 17.515
82.02000 20.970
82.04000 22.764
82.06000 26.848
82.08000 23.542
82.10000 23.235
82.12000 23.183
82.14000 29.412
82.16000 34.026
82.18000 33.733
82.20000 30.640
82.22000 26.463
82.24000 31.361
82.26000 34.485
82.28000 38.867
82.30000 39.210
82.32000 30.102
82.34000 32.449
82.36000 33.888
82.38000 38.516
82.40000 39.433
82.42000 39.068
82.44000 39.358
82.46000 40.952
82.48000 42.403
82.50000 36.996
82.52000 35.630
82.54000 32.585
82.56000 33.255
82.58000 32.652
82.60000 34.987
82.62000 37.842
82.64000 31.461
82.66000 27.265
82.68000 32.351
82.70000 32.586
82.72000 30.553
82.74000 31.046
82.76000 30.780
82.78000 36.803
82.80000 31.433
82.82000 26.744
82.84000 24.080
82.86000 27.018
82.88000 31.170
82.90000 27.569
82.92000 26.313
82.94000 26.565
82.96000 29.741
82.98000 23.237
83.00000 24.165
83.02000 18.560
83.04000 19.507
83.06000 21.230
83.08000 23.061
83.10000 21.568
83.12000 19.534
83.14000 16.709
83.16000 17.449
83.18000 17.954
83.20000 15.623
83.22000 12.873
83.24000 15.507
83.26000 14.887
83.28000 16.154
83.30000 15.487
83.32000 17.848
83.34000 12.511
83.36000 7.075
83.38000 7.533
83.40000 7.878
83.42000 7.660
83.44000 9.015
83.46000 11.574
83.48000 15.055
83.50000 12.737
83.52000 8.748
83.54000 5.690
83.56000 3.603
83.58000 4.804
83.60000 4.073
83.62000 5.364
83.64000 9.312
83.66000 8.109
83.68000 3.269
83.70000 4.181
83.72000 1.425
83.74000 3.621
83.76000 1.145
83.78000 5.320
83.80000 2.678
83.82000 0.066
83.84000 -1.433
83.86000 2.299
83.88000 4.794
83.90000 2.864
83.92000 4.239
83.94000 4.434
83.96000 6.650
83.98000 2.169
84.00000 1.005
84.02000 1.219
84.04000 0.182
84.06000 2.000
84.08000 -0.799
84.10000 -0.564
84.12000 -0.724
84.14000 3.434
84.16000 0.851
84.18000 2.144
84.20000 2.017
84.22000 0.327
84.24000 1.914
84.26000 1.295
84.28000 -2.362
84.30000 -0.875
84.32000 0.643
84.34000 1.049
84.36000 0.719
84.38000 0.637
84.40000 0.440
84.42000 1.733
84.44000 -1.524
84.46000 1.920
84.48000 3.499
84.50000 4.183
84.52000 3.452
84.54000 3.018
84.56000 5.538
84.58000 2.836
84.60000 -0.705
84.62000 -0.516
84.64000 0.302
84.66000 -0.474
84.68000 -0.475
84.70000 2.100
84.72000 2.613
84.74000 -0.449
84.76000 -0.092
84.78000 -1.174
84.80000 3.452
84.82000 0.391
84.84000 -0.488
84.86000 -0.568
84.88000 -2.060
84.90000 0.993
84.92000 0.867
84.94000 0.368
84.96000 -0.757
84.98000 0.999
85.00000 0.904
85.02000 4.083
85.04000 2.345
85.06000 5.055
85.08000 7.858
85.10000 2.659
85.12000 1.672
85.14000 2.964
85.16000 4.310
85.18000 3.179
85.20000 7.620
85.22000 4.941
85.24000 -0.307
85.26000 0.840
85.28000 -2.274
85.30000 2.697
85.32000 6.194
85.34000 6.016
85.36000 3.957
85.38000 1.847
85.40000 -0.603
85.42000 6.136
85.44000 7.362
85.46000 7.595
85.48000 5.251
85.50000 7.641
85.52000 6.665
85.54000 3.097
85.56000 3.038
85.58000 3.305
85.60000 3.663
85.62000 4.825
85.64000 5.095
85.66000 6.861
85.68000 8.453
85.70000 12.006
85.72000 9.076
85.74000 9.194
85.76000 8.862
85.78000 8.731
85.80000 11.502
85.82000 11.207
85.84000 11.706
85.86000 9.407
85.88000 11.544
85.90000 12.654
85.92000 12.997
85.94000 11.730
85.96000 15.613
85.98000 15.101
86.00000 13.869
86.02000 14.503
86.04000 12.520
86.06000 15.780
86.08000 17.439
86.10000 18.162
86.12000 15.723
86.14000 17.005
86.16000 18.057
86.18000 19.780
86.20000 19.463
86.22000 18.672
86.24000 15.058
86.26000 14.696
86.28000 17.334
86.30000 20.459
86.32000 21.404
86.34000 20.390
86.36000 22.852
86.38000 22.657
86.40000 24.969
86.42000 24.761
86.44000 25.108
86.46000 25.144
86.48000 24.465
86.50000 29.261
86.52000 21.271
86.54000 27.598
86.56000 28.237
86.58000 27.299
86.60000 27.744
86.62000 29.677
86.64000 29.455
86.66000 29.699
86.68000 27.906
86.70000 28.254
86.72000 29.396
86.74000 33.462
86.76000 31.412
86.78000 29.302
86.80000 25.395
86.82000 31.551
86.84000 32.843
86.86000 31.915
86.88000 25.598
86.90000 23.909
86.92000 25.294
86.94000 22.945
86.96000 23.424
86.98000 28.065
87.00000 30.784
87.02000 27.139
87.04000 24.290
87.06000 26.092
87.08000 26.189
87.10000 20.791
87.12000 23.275
87.14000 23.962
87.16000 26.644
87.18000 22.296
87.20000 15.345
87.22000 17.222
87.24000 24.215
87.26000 21.660
87.28000 18.206
87.30000 16.437
87.32000 15.886
87.34000 17.615
87.36000 16.331
87.38000 12.684
87.40000 12.542
87.42000 12.134
87.44000 12.911
87.46000 10.140
87.48000 5.539
87.50000 10.507
87.52000 7.063
87.54000 8.654
87.56000 7.992
87.58000 6.423
87.60000 4.599
87.62000 4.631
87.64000 6.731
87.66000 8.594
87.68000 2.793
87.70000 7.819
87.72000 6.536
87.74000 3.922
87.76000 4.132
87.78000 3.540
87.80000 5.809
87.82000 6.322
87.84000 4.966
87.86000 4.042
87.88000 0.404
87.90000 5.068
87.92000 4.415
87.94000 3.282
87.96000 2.861
87.98000 3.103
88.00000 4.945
88.02000 -0.416
88.04000 -2.222
88.06000 1.917
88.08000 -0.263
88.10000 4.839
88.12000 4.228
88.14000 0.205
88.16000 -1.725
88.18000 0.149
88.20000 -2.168
88.22000 1.182
88.24000 4.641
88.26000 3.456
88.28000 1.759
88.30000 5.469
88.32000 4.858
88.34000 4.699
88.36000 3.367
88.38000 2.763
88.40000 0.867
88.42000 2.661
88.44000 5.279
88.46000 1.649
88.48000 -0.348
88.50000 1.802
88.52000 2.457
88.54000 2.092
88.56000 5.982
88.58000 3.912
88.60000 2.746
88.62000 -1.300
88.64000 -2.125
88.66000 0.997
88.68000 4.958
88.70000 4.516
88.72000 4.571
88.74000 5.346
88.76000 0.618
88.78000 1.781
88.80000 2.646
88.82000 2.786
88.84000 2.692
88.86000 3.160
88.88000 1.224
88.90000 3.425
88.92000 2.145
88.94000 1.191
88.96000 -0.457
88.98000 1.542
89.00000 1.005
89.02000 3.646
89.04000 6.402
89.06000 -0.455
89.08000 -0.253
89.10000 1.752
89.12000 7.522
89.14000 2.425
89.16000 0.666
89.18000 1.613
89.20000 4.334
89.22000 5.097
89.24000 0.100
89.26000 0.252
89.28000 1.341
89.30000 1.464
89.32000 3.944
89.34000 6.612
89.36000 2.341
89.38000 5.097
89.40000 2.590
89.42000 3.759
89.44000 0.367
89.46000 -2.056
89.48000 -0.516
89.50000 3.497
89.52000 4.470
89.54000 1.838
89.56000 1.242
89.58000 6.724
89.60000 6.686
89.62000 5.212
89.64000 6.898
89.66000 5.195
89.68000 0.555
89.70000 2.301
89.72000 4.287
89.74000 4.381
89.76000 0.094
89.78000 4.035
89.80000 1.115
89.82000 1.834
89.84000 3.068
89.86000 0.335
89.88000 0.217
89.90000 2.861
89.92000 2.311
89.94000 -0.363
89.96000 -0.633
89.98000 2.936
90.00000 3.762
90.02000 2.273
90.04000 2.982
90.06000 1.441
90.08000 2.691
90.10000 4.253
90.12000 6.055
90.14000 5.062
90.16000 10.342
90.18000 3.489
90.20000 0.742
90.22000 2.307
90.24000 4.801
90.26000 2.524
90.28000 3.271
90.30000 3.045
90.32000 1.697
90.34000 2.432
90.36000 2.496
90.38000 1.217
90.40000 1.943
90.42000 3.669
90.44000 2.751
90.46000 -1.600
90.48000 0.454
90.50000 2.367
90.52000 4.684
90.54000 3.103
90.56000 1.200
90.58000 5.609
90.60000 5.269
90.62000 0.211
90.64000 -0.312
90.66000 3.214
90.68000 8.426
90.70000 4.912
90.72000 3.113
90.74000 3.559
90.76000 2.756
90.78000 2.739
90.80000 2.001
90.82000 -2.047
90.84000 0.758
90.86000 1.787
90.88000 0.229
90.90000 2.598
90.92000 -1.681
90.94000 -1.437
90.96000 -2.038
90.98000 1.818
91.00000 5.351
91.02000 2.970
91.04000 1.813
91.06000 4.035
91.08000 1.768
91.10000 -0.408
91.12000 3.372
91.14000 7.118
91.16000 6.811
91.18000 4.527
91.20000 3.987
91.22000 5.832
91.24000 2.425
91.26000 1.394
91.28000 3.796
91.30000 2.387
91.32000 1.706
91.34000 -0.800
91.36000 0.322
91.38000 3.038
91.40000 4.228
91.42000 2.302
91.44000 3.744
91.46000 2.022
91.48000 5.745
91.50000 6.722
91.52000 6.626
91.54000 6.002
91.56000 5.415
91.58000 1.099
91.60000 -0.697
91.62000 0.402
91.64000 2.123
91.66000 2.792
91.68000 3.102
91.70000 2.943
91.72000 2.844
91.74000 1.622
91.76000 0.768
91.78000 3.093
91.80000 0.731
91.82000 -2.033
91.84000 0.622
91.86000 0.325
91.88000 3.529
91.90000 0.348
91.92000 1.912
91.94000 1.055
91.96000 1.147
91.98000 7.197
92.00000 11.055
92.02000 8.438
92.04000 1.522
92.06000 -2.043
92.08000 5.186
92.10000 4.930
92.12000 -0.375
92.14000 1.073
92.16000 3.473
92.18000 4.371
92.20000 2.879
92.22000 3.454
92.24000 1.914
92.26000 4.445
92.28000 4.758
92.30000 4.734
92.32000 0.209
92.34000 0.879
92.36000 1.846
92.38000 4.233
92.40000 5.362
92.42000 3.212
92.44000 2.234
92.46000 4.722
92.48000 2.422
92.50000 -0.584
92.52000 3.622
92.54000 3.867
92.56000 3.260
92.58000 4.737
92.60000 6.243
92.62000 5.179
92.64000 1.728
92.66000 0.746
92.68000 2.539
92.70000 3.989
92.72000 1.242
92.74000 1.092
92.76000 5.595
92.78000 5.878
92.80000 0.613
92.82000 -2.023
92.84000 -0.677
92.86000 2.257
92.88000 0.671
92.90000 2.983
92.92000 6.076
92.94000 3.148
92.96000 2.468
92.98000 2.792
93.00000 1.792
93.02000 0.538
93.04000 -1.492
93.06000 4.586
93.08000 3.072
93.10000 1.377
93.12000 1.938
93.14000 3.828
93.16000 -0.413
93.18000 1.757
93.20000 1.430
93.22000 0.688
93.24000 -1.326
93.26000 -2.080
93.28000 2.936
93.30000 7.718
93.32000 2.823
93.34000 2.080
93.36000 3.170
93.38000 1.166
93.40000 1.431
93.42000 2.035
93.44000 2.461
93.46000 4.261
93.48000 1.797
93.50000 3.286
93.52000 1.924
93.54000 3.802
93.56000 5.123
93.58000 4.237
93.60000 4.176
93.62000 3.661
93.64000 4.558
93.66000 2.382
93.68000 1.785
93.70000 3.565
93.72000 -1.448
93.74000 1.157
93.76000 3.828
93.78000 3.433
93.80000 0.313
93.82000 2.525
93.84000 0.860
93.86000 -0.341
93.88000 2.191
93.90000 3.265
93.92000 2.084
93.94000 3.304
93.96000 6.008
93.98000 2.386
94.00000 2.964
94.02000 7.090
94.04000 2.999
94.06000 -0.001
94.08000 -0.547
94.10000 -1.129
94.12000 0.909
94.14000 5.002
94.16000 4.781
94.18000 5.836
94.20000 5.752
94.22000 3.178
94.24000 3.476
94.26000 1.508
94.28000 3.094
94.30000 -0.470
94.32000 -2.059
94.34000 0.844
94.36000 2.202
94.38000 8.706
94.40000 8.211
94.42000 2.490
94.44000 3.357
94.46000 5.200
94.48000 5.198
94.50000 0.819
94.52000 0.450
94.54000 3.845
94.56000 1.711
94.58000 -0.543
94.60000 1.497
94.62000 5.193
94.64000 6.577
94.66000 7.852
94.68000 6.816
94.70000 2.947
94.72000 3.345
94.74000 3.703
94.76000 3.129
94.78000 3.271
94.80000 2.149
94.82000 2.740
94.84000 1.105
94.86000 2.306
94.88000 6.196
94.90000 4.033
94.92000 7.434
94.94000 7.072
94.96000 6.952
94.98000 4.617
95.00000 2.281
95.02000 1.657
95.04000 3.574
95.06000 5.208
95.08000 0.435
95.10000 3.178
95.12000 2.974
95.14000 1.791
95.16000 7.473
95.18000 7.354
95.20000 5.118
95.22000 3.001
95.24000 1.737
95.26000 2.046
95.28000 2.314
95.30000 2.947
95.32000 7.780
95.34000 3.534
95.36000 0.174
95.38000 1.999
95.40000 3.530
95.42000 4.242
95.44000 3.163
95.46000 2.134
95.48000 0.110
95.50000 0.155
95.52000 3.169
95.54000 3.189
95.56000 2.082
95.58000 0.554
95.60000 -0.290
95.62000 6.545
95.64000 6.240
95.66000 6.250
95.68000 8.249
95.70000 8.223
95.72000 4.504
95.74000 7.519
95.76000 9.208
95.78000 5.536
95.80000 3.916
95.82000 4.507
95.84000 5.678
95.86000 9.381
95.88000 8.763
95.90000 6.182
95.92000 4.746
95.94000 9.211
95.96000 6.338
95.98000 1.859
96.00000 -2.022
96.02000 7.139
96.04000 12.666
96.06000 11.105
96.08000 7.511
96.10000 1.753
96.12000 2.649
96.14000 3.962
96.16000 3.329
96.18000 5.924
96.20000 5.214
96.22000 5.600
96.24000 6.495
96.26000 4.495
96.28000 1.293
96.30000 2.664
96.32000 3.115
96.34000 2.802
96.36000 2.359
96.38000 4.507
96.40000 8.303
96.42000 8.325
96.44000 5.826
96.46000 0.607
96.48000 0.148
96.50000 4.841
96.52000 7.996
96.54000 6.050
96.56000 7.161
96.58000 5.812
96.60000 3.373
96.62000 7.852
96.64000 12.180
96.66000 9.497
96.68000 5.960
96.70000 7.526
96.72000 5.788
96.74000 4.033
96.76000 4.416
96.78000 2.195
96.80000 6.717
96.82000 5.794
96.84000 3.918
96.86000 3.226
96.88000 2.712
96.90000 6.599
96.92000 6.810
96.94000 9.938
96.96000 10.580
96.98000 6.683
97.00000 7.506
97.02000 8.744
97.04000 8.931
97.06000 9.302
97.08000 7.610
97.10000 4.211
97.12000 5.031
97.14000 7.856
97.16000 3.022
97.18000 5.455
97.20000 8.542
97.22000 10.116
97.24000 9.963
97.26000 5.470
97.28000 6.739
97.30000 10.839
97.32000 3.518
97.34000 3.107
97.36000 3.373
97.38000 8.270
97.40000 13.252
97.42000 9.580
97.44000 9.562
97.46000 1.289
97.48000 3.055
97.50000 9.335
97.52000 9.885
97.54000 10.606
97.56000 10.271
97.58000 11.987
97.60000 8.919
97.62000 4.175
97.64000 6.124
97.66000 11.727
97.68000 11.658
97.70000 4.516
97.72000 8.370
97.74000 9.918
97.76000 4.509
97.78000 -1.933
97.80000 2.782
97.82000 2.915
97.84000 6.591
97.86000 4.941
97.88000 6.640
97.90000 8.117
97.92000 7.337
97.94000 5.908
97.96000 8.235
97.98000 7.351
98.00000 6.706
98.02000 14.730
98.04000 8.940
98.06000 4.452
98.08000 3.814
98.10000 3.600
98.12000 6.166
98.14000 12.681
98.16000 11.443
98.18000 7.456
98.20000 1.466
98.22000 6.900
98.24000 5.611
98.26000 -1.959
98.28000 2.972
98.30000 9.807
98.32000 8.507
98.34000 5.702
98.36000 6.846
98.38000 10.089
98.40000 2.889
98.42000 -1.588
98.44000 -0.998
98.46000 5.580
98.48000 11.588
98.50000 5.211
98.52000 7.587
98.54000 11.983
98.56000 8.586
98.58000 11.594
98.60000 9.148
98.62000 7.519
98.64000 3.207
98.66000 11.551
98.68000 9.234
98.70000 2.380
98.72000 1.621
98.74000 9.774
98.76000 6.713
98.78000 3.429
98.80000 3.946
98.82000 8.059
98.84000 6.933
98.86000 5.129
98.88000 10.563
98.90000 5.781
98.92000 7.035
98.94000 8.701
98.96000 6.449
98.98000 6.422
99.00000 11.488
99.02000 -1.945
99.04000 -1.984
99.06000 0.418
99.08000 9.644
99.10000 3.040
99.12000 6.531
99.14000 5.788
99.16000 1.788
99.18000 4.295
99.20000 3.959
99.22000 1.506
99.24000 6.780
99.26000 8.030
99.28000 2.882
99.30000 2.043
99.32000 8.912
99.34000 14.323
99.36000 11.107
99.38000 4.568
99.40000 -0.697
99.42000 2.442
99.44000 1.127
99.46000 1.200
99.48000 8.778
99.50000 7.368
99.52000 9.363
99.54000 0.495
99.56000 2.472
99.58000 -2.073
99.60000 1.991
99.62000 -1.635
99.64000 5.134
99.66000 8.852
99.68000 2.007
99.70000 1.922
99.72000 2.150
99.74000 0.855
99.76000 8.810
99.78000 7.612
99.80000 7.157
99.82000 9.231
99.84000 -2.831
99.86000 1.180
99.88000 -2.167
99.90000 -1.682
99.92000 5.638
99.94000 1.512
99.96000 -2.281
99.98000 0.000
