'Id: "0011388" Comment: "Integrate frame 0011388_Au-Ir-Rh_Rh-rich_XRD-Mapping-193-0000.gfrmwith cursor Wedge Cursor #5" Operator: "B?rgel" Anode: "Cu" Wavelength: "1.5406" Scantype: "2Theta (TwoTheta)" TimePerStep: "1" X: "22.5" Y: "4.5" Z: "5.95" 
10.00000 0.000
10.02000 4.675
10.04000 -0.295
10.06000 -3.591
10.08000 7.522
10.10000 17.921
10.12000 14.041
10.14000 9.256
10.16000 7.739
10.18000 12.236
10.20000 5.362
10.22000 5.772
10.24000 -2.830
10.26000 5.067
10.28000 21.972
10.30000 6.232
10.32000 7.484
10.34000 -0.064
10.36000 9.164
10.38000 8.397
10.40000 12.438
10.42000 27.230
10.44000 9.768
10.46000 13.864
10.48000 15.355
10.50000 11.468
10.52000 6.380
10.54000 16.107
10.56000 18.553
10.58000 28.805
10.60000 17.906
10.62000 15.275
10.64000 8.921
10.66000 13.582
10.68000 12.288
10.70000 3.109
10.72000 14.571
10.74000 24.729
10.76000 19.390
10.78000 23.069
10.80000 15.740
10.82000 12.773
10.84000 13.021
10.86000 4.745
10.88000 1.206
10.90000 10.606
10.92000 28.992
10.94000 31.097
10.96000 21.154
10.98000 18.088
11.00000 15.534
11.02000 18.079
11.04000 15.028
11.06000 12.722
11.08000 16.778
11.10000 26.664
11.12000 19.429
11.14000 16.627
11.16000 20.487
11.18000 20.695
11.20000 22.888
11.22000 16.893
11.24000 24.091
11.26000 34.313
11.28000 30.870
11.30000 31.985
11.32000 30.997
11.34000 25.651
11.36000 30.941
11.38000 22.990
11.40000 17.394
11.42000 13.734
11.44000 8.570
11.46000 22.563
11.48000 25.866
11.50000 23.420
11.52000 14.336
11.54000 20.223
11.56000 33.673
11.58000 32.683
11.60000 30.622
11.62000 31.562
11.64000 39.031
11.66000 25.130
11.68000 28.504
11.70000 19.880
11.72000 20.221
11.74000 28.865
11.76000 35.342
11.78000 37.384
11.80000 39.655
11.82000 16.326
11.84000 8.495
11.86000 23.270
11.88000 23.392
11.90000 17.450
11.92000 27.333
11.94000 34.368
11.96000 36.835
11.98000 29.937
12.00000 40.826
12.02000 33.271
12.04000 24.015
12.06000 37.019
12.08000 33.640
12.10000 16.643
12.12000 11.201
12.14000 20.024
12.16000 29.746
12.18000 21.405
12.20000 21.641
12.22000 17.621
12.24000 11.737
12.26000 27.774
12.28000 39.111
12.30000 30.961
12.32000 37.507
12.34000 28.653
12.36000 21.046
12.38000 27.980
12.40000 32.236
12.42000 21.356
12.44000 29.227
12.46000 37.030
12.48000 35.384
12.50000 31.746
12.52000 34.638
12.54000 28.875
12.56000 34.117
12.58000 31.837
12.60000 25.408
12.62000 37.485
12.64000 37.008
12.66000 31.661
12.68000 26.264
12.70000 29.986
12.72000 40.072
12.74000 50.870
12.76000 49.904
12.78000 33.166
12.80000 23.324
12.82000 35.758
12.84000 32.151
12.86000 27.185
12.88000 23.251
12.90000 27.303
12.92000 20.117
12.94000 22.571
12.96000 28.930
12.98000 30.782
13.00000 28.022
13.02000 26.132
13.04000 22.154
13.06000 23.214
13.08000 24.434
13.10000 23.119
13.12000 26.795
13.14000 26.199
13.16000 24.948
13.18000 30.962
13.20000 31.780
13.22000 27.882
13.24000 27.320
13.26000 29.876
13.28000 26.755
13.30000 37.945
13.32000 32.599
13.34000 29.764
13.36000 29.247
13.38000 30.098
13.40000 32.155
13.42000 28.714
13.44000 30.082
13.46000 13.785
13.48000 11.212
13.50000 17.396
13.52000 25.466
13.54000 24.725
13.56000 24.211
13.58000 23.385
13.60000 25.259
13.62000 21.382
13.64000 25.038
13.66000 27.691
13.68000 30.533
13.70000 24.767
13.72000 16.860
13.74000 12.876
13.76000 17.173
13.78000 12.703
13.80000 15.624
13.82000 20.433
13.84000 19.719
13.86000 21.583
13.88000 22.426
13.90000 17.994
13.92000 14.476
13.94000 24.970
13.96000 26.274
13.98000 19.046
14.00000 19.581
14.02000 31.126
14.04000 20.066
14.06000 24.426
14.08000 29.681
14.10000 30.459
14.12000 31.111
14.14000 22.084
14.16000 12.015
14.18000 27.142
14.20000 30.131
14.22000 25.207
14.24000 21.801
14.26000 23.026
14.28000 29.091
14.30000 32.751
14.32000 23.633
14.34000 17.895
14.36000 19.674
14.38000 9.504
14.40000 12.628
14.42000 24.775
14.44000 27.394
14.46000 18.107
14.48000 17.522
14.50000 23.694
14.52000 18.309
14.54000 25.410
14.56000 25.043
14.58000 21.857
14.60000 27.063
14.62000 22.329
14.64000 17.661
14.66000 14.324
14.68000 22.514
14.70000 32.896
14.72000 14.823
14.74000 5.375
14.76000 10.144
14.78000 21.491
14.80000 22.883
14.82000 16.428
14.84000 21.115
14.86000 27.081
14.88000 17.247
14.90000 7.466
14.92000 9.930
14.94000 11.258
14.96000 13.097
14.98000 17.692
15.00000 17.312
15.02000 7.437
15.04000 16.839
15.06000 22.699
15.08000 16.800
15.10000 23.989
15.12000 20.817
15.14000 10.806
15.16000 9.458
15.18000 8.092
15.20000 13.442
15.22000 14.066
15.24000 14.079
15.26000 17.884
15.28000 13.443
15.30000 8.856
15.32000 9.167
15.34000 3.930
15.36000 8.311
15.38000 17.555
15.40000 19.637
15.42000 26.232
15.44000 19.969
15.46000 18.554
15.48000 16.041
15.50000 14.595
15.52000 9.365
15.54000 10.612
15.56000 19.168
15.58000 23.215
15.60000 23.657
15.62000 27.757
15.64000 18.499
15.66000 22.241
15.68000 23.896
15.70000 15.357
15.72000 7.716
15.74000 7.608
15.76000 14.790
15.78000 14.034
15.80000 8.717
15.82000 11.337
15.84000 10.038
15.86000 0.900
15.88000 5.503
15.90000 16.663
15.92000 12.267
15.94000 11.982
15.96000 12.886
15.98000 11.316
16.00000 16.217
16.02000 16.903
16.04000 5.887
16.06000 6.390
16.08000 5.736
16.10000 11.119
16.12000 9.641
16.14000 7.877
16.16000 3.403
16.18000 3.433
16.20000 9.724
16.22000 6.834
16.24000 2.054
16.26000 6.079
16.28000 13.551
16.30000 4.926
16.32000 4.250
16.34000 10.942
16.36000 16.794
16.38000 16.117
16.40000 10.365
16.42000 6.569
16.44000 15.934
16.46000 27.196
16.48000 18.421
16.50000 14.485
16.52000 12.237
16.54000 9.391
16.56000 12.524
16.58000 8.438
16.60000 6.285
16.62000 9.517
16.64000 5.777
16.66000 4.785
16.68000 6.274
16.70000 20.873
16.72000 10.028
16.74000 12.708
16.76000 12.364
16.78000 10.515
16.80000 8.734
16.82000 1.981
16.84000 7.195
16.86000 3.292
16.88000 2.950
16.90000 15.453
16.92000 18.677
16.94000 17.254
16.96000 19.549
16.98000 16.160
17.00000 10.095
17.02000 6.223
17.04000 11.297
17.06000 14.830
17.08000 15.536
17.10000 12.516
17.12000 14.194
17.14000 18.745
17.16000 8.013
17.18000 7.057
17.20000 11.073
17.22000 11.004
17.24000 2.776
17.26000 5.273
17.28000 2.012
17.30000 6.585
17.32000 13.136
17.34000 10.386
17.36000 12.846
17.38000 11.519
17.40000 13.626
17.42000 14.125
17.44000 6.093
17.46000 4.965
17.48000 2.297
17.50000 2.949
17.52000 7.573
17.54000 10.555
17.56000 9.441
17.58000 6.978
17.60000 2.107
17.62000 8.826
17.64000 9.595
17.66000 -3.006
17.68000 -0.646
17.70000 5.234
17.72000 13.272
17.74000 14.413
17.76000 12.449
17.78000 13.278
17.80000 11.350
17.82000 3.588
17.84000 8.783
17.86000 10.891
17.88000 12.344
17.90000 10.716
17.92000 2.794
17.94000 8.217
17.96000 12.263
17.98000 12.158
18.00000 12.068
18.02000 5.811
18.04000 12.970
18.06000 19.524
18.08000 7.971
18.10000 1.465
18.12000 4.169
18.14000 10.654
18.16000 7.051
18.18000 11.750
18.20000 10.057
18.22000 -4.280
18.24000 3.904
18.26000 13.524
18.28000 13.897
18.30000 14.440
18.32000 11.137
18.34000 3.249
18.36000 5.145
18.38000 7.707
18.40000 10.929
18.42000 7.874
18.44000 5.261
18.46000 4.320
18.48000 7.180
18.50000 7.505
18.52000 13.255
18.54000 11.694
18.56000 8.495
18.58000 2.147
18.60000 3.906
18.62000 4.161
18.64000 15.101
18.66000 17.990
18.68000 11.617
18.70000 7.481
18.72000 9.178
18.74000 7.703
18.76000 3.408
18.78000 6.909
18.80000 7.231
18.82000 4.668
18.84000 6.075
18.86000 9.266
18.88000 13.982
18.90000 15.742
18.92000 10.738
18.94000 1.669
18.96000 5.969
18.98000 14.470
19.00000 15.786
19.02000 11.712
19.04000 14.064
19.06000 5.933
19.08000 -0.551
19.10000 3.408
19.12000 7.077
19.14000 5.572
19.16000 4.110
19.18000 3.711
19.20000 -0.302
19.22000 2.674
19.24000 3.934
19.26000 7.396
19.28000 5.357
19.30000 10.500
19.32000 8.485
19.34000 6.865
19.36000 4.911
19.38000 4.889
19.40000 7.666
19.42000 8.990
19.44000 4.826
19.46000 5.891
19.48000 2.779
19.50000 5.482
19.52000 11.302
19.54000 7.198
19.56000 5.641
19.58000 7.421
19.60000 3.029
19.62000 3.634
19.64000 5.721
19.66000 -0.618
19.68000 1.300
19.70000 -2.442
19.72000 2.555
19.74000 6.296
19.76000 -0.772
19.78000 6.713
19.80000 11.007
19.82000 10.388
19.84000 7.463
19.86000 7.407
19.88000 17.044
19.90000 10.421
19.92000 5.493
19.94000 4.250
19.96000 7.322
19.98000 11.130
20.00000 4.739
20.02000 4.611
20.04000 -3.915
20.06000 -4.222
20.08000 4.964
20.10000 10.598
20.12000 12.429
20.14000 6.179
20.16000 -0.072
20.18000 7.929
20.20000 11.122
20.22000 3.691
20.24000 1.836
20.26000 3.151
20.28000 3.685
20.30000 7.674
20.32000 7.122
20.34000 6.056
20.36000 8.650
20.38000 5.217
20.40000 7.601
20.42000 -3.639
20.44000 -0.193
20.46000 0.135
20.48000 4.869
20.50000 4.005
20.52000 2.468
20.54000 2.687
20.56000 2.769
20.58000 -0.774
20.60000 -1.028
20.62000 2.439
20.64000 2.851
20.66000 13.478
20.68000 3.961
20.70000 9.606
20.72000 1.987
20.74000 0.179
20.76000 -4.196
20.78000 6.586
20.80000 7.806
20.82000 6.350
20.84000 4.495
20.86000 0.402
20.88000 5.604
20.90000 9.167
20.92000 7.027
20.94000 0.766
20.96000 4.658
20.98000 8.189
21.00000 6.118
21.02000 3.733
21.04000 12.402
21.06000 7.890
21.08000 2.044
21.10000 6.032
21.12000 3.191
21.14000 0.155
21.16000 -1.861
21.18000 -2.926
21.20000 5.900
21.22000 5.788
21.24000 2.877
21.26000 4.723
21.28000 6.331
21.30000 8.603
21.32000 7.035
21.34000 3.536
21.36000 3.054
21.38000 -2.543
21.40000 -3.416
21.42000 0.722
21.44000 3.486
21.46000 4.569
21.48000 1.027
21.50000 2.588
21.52000 6.618
21.54000 6.146
21.56000 1.411
21.58000 -2.241
21.60000 -4.182
21.62000 -2.167
21.64000 -1.223
21.66000 0.712
21.68000 2.917
21.70000 3.397
21.72000 5.623
21.74000 7.374
21.76000 0.027
21.78000 -1.955
21.80000 0.509
21.82000 5.134
21.84000 4.536
21.86000 4.664
21.88000 2.023
21.90000 3.292
21.92000 1.943
21.94000 5.654
21.96000 -0.575
21.98000 0.160
22.00000 3.690
22.02000 5.242
22.04000 1.660
22.06000 -2.053
22.08000 4.437
22.10000 3.936
22.12000 -0.054
22.14000 -3.766
22.16000 -1.058
22.18000 5.711
22.20000 4.329
22.22000 5.595
22.24000 6.040
22.26000 4.975
22.28000 6.438
22.30000 1.333
22.32000 -2.581
22.34000 1.261
22.36000 8.049
22.38000 7.730
22.40000 3.384
22.42000 2.411
22.44000 3.642
22.46000 3.045
22.48000 2.011
22.50000 -0.884
22.52000 2.738
22.54000 0.503
22.56000 1.412
22.58000 0.917
22.60000 3.714
22.62000 1.957
22.64000 -0.339
22.66000 3.780
22.68000 -1.034
22.70000 -1.497
22.72000 0.576
22.74000 1.508
22.76000 1.564
22.78000 -0.959
22.80000 -0.490
22.82000 1.159
22.84000 3.076
22.86000 -3.173
22.88000 0.834
22.90000 5.807
22.92000 1.681
22.94000 -2.876
22.96000 0.697
22.98000 0.871
23.00000 -1.744
23.02000 -2.040
23.04000 1.535
23.06000 2.785
23.08000 1.378
23.10000 -0.122
23.12000 -2.241
23.14000 0.304
23.16000 6.409
23.18000 6.966
23.20000 2.041
23.22000 1.758
23.24000 -1.934
23.26000 1.505
23.28000 2.649
23.30000 2.571
23.32000 1.232
23.34000 1.254
23.36000 2.251
23.38000 6.901
23.40000 1.805
23.42000 -3.859
23.44000 -4.063
23.46000 -3.236
23.48000 -1.122
23.50000 -2.184
23.52000 5.514
23.54000 10.772
23.56000 4.980
23.58000 2.917
23.60000 6.439
23.62000 4.786
23.64000 2.572
23.66000 4.394
23.68000 3.716
23.70000 -0.610
23.72000 2.025
23.74000 6.630
23.76000 4.919
23.78000 6.571
23.80000 8.003
23.82000 5.396
23.84000 1.525
23.86000 5.211
23.88000 6.248
23.90000 -1.018
23.92000 5.018
23.94000 5.853
23.96000 -0.796
23.98000 -2.211
24.00000 2.938
24.02000 3.760
24.04000 6.254
24.06000 3.243
24.08000 2.706
24.10000 6.111
24.12000 7.697
24.14000 9.750
24.16000 4.311
24.18000 2.028
24.20000 6.182
24.22000 4.385
24.24000 2.259
24.26000 6.891
24.28000 6.814
24.30000 9.300
24.32000 4.795
24.34000 3.669
24.36000 4.250
24.38000 3.544
24.40000 5.810
24.42000 4.816
24.44000 7.739
24.46000 7.372
24.48000 -0.316
24.50000 4.998
24.52000 2.070
24.54000 -3.987
24.56000 -1.796
24.58000 0.915
24.60000 3.383
24.62000 3.487
24.64000 4.191
24.66000 2.486
24.68000 4.635
24.70000 3.481
24.72000 3.944
24.74000 9.540
24.76000 10.042
24.78000 7.847
24.80000 10.528
24.82000 4.712
24.84000 7.442
24.86000 6.643
24.88000 -3.954
24.90000 -3.221
24.92000 -0.101
24.94000 3.401
24.96000 3.889
24.98000 7.048
25.00000 7.097
25.02000 7.933
25.04000 3.036
25.06000 4.904
25.08000 5.416
25.10000 8.674
25.12000 10.234
25.14000 5.727
25.16000 2.732
25.18000 4.576
25.20000 1.225
25.22000 1.728
25.24000 3.845
25.26000 3.531
25.28000 6.031
25.30000 9.699
25.32000 7.410
25.34000 7.708
25.36000 2.217
25.38000 -0.669
25.40000 -3.908
25.42000 5.016
25.44000 7.297
25.46000 11.981
25.48000 12.363
25.50000 6.024
25.52000 8.526
25.54000 7.003
25.56000 11.884
25.58000 11.594
25.60000 1.733
25.62000 1.385
25.64000 3.250
25.66000 0.264
25.68000 1.552
25.70000 7.627
25.72000 5.383
25.74000 3.370
25.76000 3.476
25.78000 7.998
25.80000 7.157
25.82000 5.091
25.84000 2.379
25.86000 6.806
25.88000 5.137
25.90000 2.065
25.92000 -0.842
25.94000 3.535
25.96000 10.005
25.98000 4.071
26.00000 -0.499
26.02000 3.071
26.04000 4.271
26.06000 3.323
26.08000 7.662
26.10000 7.666
26.12000 5.318
26.14000 2.751
26.16000 4.422
26.18000 1.340
26.20000 1.941
26.22000 4.166
26.24000 8.661
26.26000 5.557
26.28000 2.454
26.30000 4.783
26.32000 7.335
26.34000 3.224
26.36000 0.012
26.38000 -0.658
26.40000 3.134
26.42000 7.395
26.44000 7.183
26.46000 4.405
26.48000 2.377
26.50000 5.916
26.52000 4.462
26.54000 -2.745
26.56000 8.168
26.58000 7.060
26.60000 2.026
26.62000 0.395
26.64000 -3.880
26.66000 -2.021
26.68000 2.774
26.70000 1.493
26.72000 2.541
26.74000 6.511
26.76000 0.506
26.78000 -2.159
26.80000 3.793
26.82000 3.799
26.84000 4.184
26.86000 -0.815
26.88000 -0.161
26.90000 2.432
26.92000 5.025
26.94000 2.593
26.96000 3.719
26.98000 6.960
27.00000 1.710
27.02000 3.701
27.04000 4.678
27.06000 4.102
27.08000 7.243
27.10000 9.793
27.12000 8.834
27.14000 6.680
27.16000 4.597
27.18000 4.354
27.20000 4.939
27.22000 1.464
27.24000 1.423
27.26000 -0.046
27.28000 -3.371
27.30000 -3.842
27.32000 0.556
27.34000 9.192
27.36000 8.526
27.38000 3.436
27.40000 0.618
27.42000 -1.199
27.44000 3.497
27.46000 0.860
27.48000 -3.645
27.50000 -0.247
27.52000 3.157
27.54000 8.224
27.56000 13.173
27.58000 13.559
27.60000 1.796
27.62000 3.578
27.64000 9.673
27.66000 8.817
27.68000 5.061
27.70000 -2.158
27.72000 2.090
27.74000 5.667
27.76000 5.171
27.78000 1.424
27.80000 -2.686
27.82000 0.617
27.84000 4.206
27.86000 5.144
27.88000 2.198
27.90000 1.221
27.92000 -2.507
27.94000 -2.219
27.96000 -3.799
27.98000 -0.051
28.00000 3.141
28.02000 12.748
28.04000 7.328
28.06000 4.824
28.08000 5.342
28.10000 6.249
28.12000 5.997
28.14000 1.985
28.16000 2.778
28.18000 5.578
28.20000 8.204
28.22000 6.964
28.24000 8.625
28.26000 8.716
28.28000 8.686
28.30000 0.438
28.32000 3.561
28.34000 1.939
28.36000 0.930
28.38000 -0.899
28.40000 3.592
28.42000 5.533
28.44000 3.166
28.46000 5.024
28.48000 9.459
28.50000 7.599
28.52000 7.148
28.54000 8.931
28.56000 6.247
28.58000 5.739
28.60000 2.980
28.62000 2.471
28.64000 2.666
28.66000 4.697
28.68000 4.929
28.70000 8.410
28.72000 3.834
28.74000 3.346
28.76000 4.908
28.78000 2.070
28.80000 3.881
28.82000 2.101
28.84000 4.213
28.86000 4.678
28.88000 1.012
28.90000 -3.756
28.92000 2.508
28.94000 5.112
28.96000 3.052
28.98000 7.245
29.00000 4.620
29.02000 1.591
29.04000 -0.814
29.06000 0.439
29.08000 0.483
29.10000 3.853
29.12000 1.133
29.14000 3.446
29.16000 6.603
29.18000 5.575
29.20000 5.913
29.22000 13.160
29.24000 10.333
29.26000 3.160
29.28000 3.248
29.30000 3.107
29.32000 4.794
29.34000 -0.246
29.36000 1.380
29.38000 0.387
29.40000 0.889
29.42000 4.102
29.44000 4.915
29.46000 4.416
29.48000 2.495
29.50000 2.383
29.52000 7.495
29.54000 1.696
29.56000 -1.507
29.58000 -0.563
29.60000 3.967
29.62000 3.852
29.64000 4.322
29.66000 4.783
29.68000 2.915
29.70000 2.824
29.72000 1.849
29.74000 3.952
29.76000 1.950
29.78000 -1.713
29.80000 2.700
29.82000 4.458
29.84000 9.505
29.86000 9.497
29.88000 4.826
29.90000 3.015
29.92000 3.987
29.94000 7.051
29.96000 6.499
29.98000 6.266
30.00000 0.722
30.02000 4.397
30.04000 9.609
30.06000 2.693
30.08000 -3.692
30.10000 -1.979
30.12000 5.558
30.14000 5.817
30.16000 5.563
30.18000 -0.687
30.20000 4.268
30.22000 3.471
30.24000 -1.312
30.26000 -1.234
30.28000 3.833
30.30000 0.648
30.32000 0.835
30.34000 -1.051
30.36000 -1.617
30.38000 -1.362
30.40000 1.896
30.42000 5.159
30.44000 9.562
30.46000 9.218
30.48000 1.891
30.50000 -3.677
30.52000 -2.432
30.54000 2.819
30.56000 -2.323
30.58000 0.022
30.60000 -0.496
30.62000 0.677
30.64000 -2.238
30.66000 1.191
30.68000 0.876
30.70000 2.242
30.72000 2.116
30.74000 2.665
30.76000 2.462
30.78000 2.682
30.80000 2.734
30.82000 6.035
30.84000 7.069
30.86000 1.767
30.88000 0.104
30.90000 5.484
30.92000 5.566
30.94000 3.907
30.96000 3.783
30.98000 2.379
31.00000 1.163
31.02000 4.201
31.04000 2.980
31.06000 7.285
31.08000 2.643
31.10000 2.850
31.12000 3.129
31.14000 5.958
31.16000 7.470
31.18000 4.051
31.20000 8.164
31.22000 2.125
31.24000 -1.664
31.26000 -1.146
31.28000 -2.441
31.30000 -3.627
31.32000 2.295
31.34000 3.786
31.36000 5.190
31.38000 3.330
31.40000 2.129
31.42000 1.170
31.44000 1.613
31.46000 -1.240
31.48000 2.727
31.50000 6.002
31.52000 2.017
31.54000 6.276
31.56000 4.705
31.58000 0.845
31.60000 1.044
31.62000 -0.789
31.64000 1.743
31.66000 3.726
31.68000 3.870
31.70000 4.706
31.72000 2.344
31.74000 6.312
31.76000 6.177
31.78000 2.639
31.80000 2.106
31.82000 0.818
31.84000 0.193
31.86000 -1.797
31.88000 -1.822
31.90000 1.385
31.92000 2.139
31.94000 4.367
31.96000 6.606
31.98000 3.755
32.00000 1.167
32.02000 -2.107
32.04000 6.063
32.06000 4.243
32.08000 4.813
32.10000 6.471
32.12000 1.109
32.14000 6.312
32.16000 6.540
32.18000 4.412
32.20000 3.861
32.22000 3.191
32.24000 4.004
32.26000 0.923
32.28000 -1.451
32.30000 -2.953
32.32000 2.005
32.34000 1.302
32.36000 0.468
32.38000 -0.629
32.40000 0.682
32.42000 -1.667
32.44000 -3.062
32.46000 -0.402
32.48000 -2.061
32.50000 -1.998
32.52000 -3.513
32.54000 -1.204
32.56000 -3.610
32.58000 -2.978
32.60000 -0.094
32.62000 -2.193
32.64000 -3.038
32.66000 -0.065
32.68000 -0.777
32.70000 -1.382
32.72000 3.409
32.74000 0.515
32.76000 -2.824
32.78000 -1.023
32.80000 -0.510
32.82000 2.032
32.84000 2.233
32.86000 -1.057
32.88000 -0.631
32.90000 3.063
32.92000 4.324
32.94000 2.532
32.96000 5.994
32.98000 1.190
33.00000 0.157
33.02000 -0.464
33.04000 0.984
33.06000 -3.463
33.08000 -2.892
33.10000 -1.989
33.12000 -1.834
33.14000 2.010
33.16000 2.162
33.18000 -1.159
33.20000 0.449
33.22000 3.919
33.24000 1.878
33.26000 2.449
33.28000 -2.252
33.30000 -3.607
33.32000 -1.658
33.34000 4.143
33.36000 4.743
33.38000 7.905
33.40000 8.909
33.42000 4.727
33.44000 2.445
33.46000 -0.463
33.48000 -1.995
33.50000 0.419
33.52000 5.293
33.54000 0.537
33.56000 -0.474
33.58000 -0.040
33.60000 4.749
33.62000 7.963
33.64000 9.704
33.66000 1.773
33.68000 -2.348
33.70000 -2.559
33.72000 -1.990
33.74000 -0.485
33.76000 1.011
33.78000 0.085
33.80000 1.551
33.82000 -0.814
33.84000 -0.916
33.86000 0.019
33.88000 1.660
33.90000 1.909
33.92000 -1.137
33.94000 -3.201
33.96000 3.844
33.98000 4.998
34.00000 3.316
34.02000 2.531
34.04000 1.408
34.06000 4.503
34.08000 1.174
34.10000 0.626
34.12000 -3.595
34.14000 -1.757
34.16000 2.577
34.18000 4.453
34.20000 2.674
34.22000 3.772
34.24000 0.077
34.26000 -1.717
34.28000 1.718
34.30000 3.510
34.32000 2.371
34.34000 -0.333
34.36000 4.990
34.38000 4.848
34.40000 0.650
34.42000 4.785
34.44000 3.534
34.46000 4.370
34.48000 5.824
34.50000 5.847
34.52000 3.483
34.54000 -3.578
34.56000 0.351
34.58000 1.715
34.60000 -0.750
34.62000 -0.062
34.64000 1.788
34.66000 -0.919
34.68000 -1.623
34.70000 2.751
34.72000 7.674
34.74000 5.426
34.76000 3.362
34.78000 0.784
34.80000 2.212
34.82000 4.039
34.84000 5.721
34.86000 0.990
34.88000 -3.557
34.90000 2.971
34.92000 -0.523
34.94000 -2.539
34.96000 -2.471
34.98000 0.835
35.00000 2.128
35.02000 -0.059
35.04000 1.134
35.06000 -1.118
35.08000 -1.501
35.10000 -3.216
35.12000 2.084
35.14000 4.801
35.16000 2.925
35.18000 4.566
35.20000 5.918
35.22000 2.253
35.24000 -1.291
35.26000 0.074
35.28000 -0.966
35.30000 1.411
35.32000 1.921
35.34000 2.401
35.36000 0.431
35.38000 1.621
35.40000 0.904
35.42000 -1.381
35.44000 -0.386
35.46000 0.146
35.48000 -1.036
35.50000 1.065
35.52000 -0.020
35.54000 -0.292
35.56000 -0.525
35.58000 -0.213
35.60000 4.410
35.62000 2.149
35.64000 3.352
35.66000 3.724
35.68000 1.428
35.70000 2.604
35.72000 0.561
35.74000 3.455
35.76000 0.019
35.78000 -3.528
35.80000 2.382
35.82000 1.016
35.84000 6.739
35.86000 7.594
35.88000 4.673
35.90000 7.035
35.92000 6.258
35.94000 6.814
35.96000 3.563
35.98000 4.091
36.00000 0.546
36.02000 3.328
36.04000 5.843
36.06000 5.042
36.08000 0.228
36.10000 2.064
36.12000 2.011
36.14000 -3.515
36.16000 -0.966
36.18000 2.629
36.20000 1.878
36.22000 0.624
36.24000 2.512
36.26000 1.974
36.28000 -0.525
36.30000 -1.132
36.32000 2.751
36.34000 0.955
36.36000 1.278
36.38000 6.176
36.40000 7.582
36.42000 3.520
36.44000 3.843
36.46000 1.352
36.48000 -1.278
36.50000 1.910
36.52000 4.123
36.54000 4.756
36.56000 2.310
36.58000 2.340
36.60000 -1.801
36.62000 0.522
36.64000 1.522
36.66000 -0.758
36.68000 3.777
36.70000 2.191
36.72000 -1.686
36.74000 -1.858
36.76000 -1.285
36.78000 1.214
36.80000 3.807
36.82000 0.197
36.84000 -2.742
36.86000 -0.220
36.88000 4.350
36.90000 3.471
36.92000 -0.247
36.94000 1.332
36.96000 6.778
36.98000 5.259
37.00000 3.621
37.02000 5.349
37.04000 2.869
37.06000 -2.466
37.08000 -2.188
37.10000 2.971
37.12000 4.285
37.14000 1.556
37.16000 1.807
37.18000 1.111
37.20000 0.469
37.22000 2.082
37.24000 -0.116
37.26000 0.912
37.28000 0.280
37.30000 -2.362
37.32000 -1.793
37.34000 4.295
37.36000 3.494
37.38000 -3.206
37.40000 -3.573
37.42000 0.767
37.44000 5.612
37.46000 6.219
37.48000 4.347
37.50000 3.391
37.52000 3.318
37.54000 2.798
37.56000 4.380
37.58000 2.445
37.60000 7.083
37.62000 4.234
37.64000 2.946
37.66000 -0.024
37.68000 1.299
37.70000 1.594
37.72000 6.908
37.74000 6.153
37.76000 3.000
37.78000 1.818
37.80000 5.828
37.82000 5.685
37.84000 3.758
37.86000 3.183
37.88000 3.770
37.90000 0.097
37.92000 -0.355
37.94000 5.565
37.96000 11.897
37.98000 6.580
38.00000 4.285
38.02000 1.691
38.04000 2.429
38.06000 5.484
38.08000 0.764
38.10000 7.759
38.12000 9.867
38.14000 9.988
38.16000 8.067
38.18000 8.601
38.20000 8.248
38.22000 9.315
38.24000 11.767
38.26000 13.073
38.28000 10.746
38.30000 12.483
38.32000 12.727
38.34000 12.478
38.36000 17.585
38.38000 11.747
38.40000 11.501
38.42000 13.474
38.44000 14.781
38.46000 17.351
38.48000 15.785
38.50000 16.063
38.52000 13.780
38.54000 12.654
38.56000 13.031
38.58000 16.018
38.60000 18.718
38.62000 18.057
38.64000 16.400
38.66000 24.400
38.68000 27.907
38.70000 24.822
38.72000 19.013
38.74000 16.502
38.76000 17.149
38.78000 16.592
38.80000 17.105
38.82000 22.395
38.84000 19.061
38.86000 22.965
38.88000 23.409
38.90000 23.271
38.92000 22.970
38.94000 23.254
38.96000 23.849
38.98000 27.654
39.00000 33.188
39.02000 27.727
39.04000 32.383
39.06000 38.727
39.08000 40.079
39.10000 39.032
39.12000 36.770
39.14000 36.871
39.16000 40.405
39.18000 41.826
39.20000 44.692
39.22000 43.749
39.24000 47.426
39.26000 46.181
39.28000 47.852
39.30000 50.580
39.32000 50.158
39.34000 50.880
39.36000 59.353
39.38000 58.507
39.40000 54.930
39.42000 56.730
39.44000 54.780
39.46000 61.394
39.48000 69.660
39.50000 71.711
39.52000 76.890
39.54000 79.106
39.56000 79.579
39.58000 87.312
39.60000 100.336
39.62000 99.129
39.64000 102.383
39.66000 107.765
39.68000 109.360
39.70000 117.158
39.72000 125.769
39.74000 133.376
39.76000 140.174
39.78000 145.337
39.80000 146.661
39.82000 144.724
39.84000 157.856
39.86000 169.136
39.88000 175.739
39.90000 187.359
39.92000 191.646
39.94000 202.314
39.96000 208.366
39.98000 217.427
40.00000 227.215
40.02000 233.177
40.04000 244.277
40.06000 266.411
40.08000 278.383
40.10000 291.879
40.12000 300.555
40.14000 312.243
40.16000 326.728
40.18000 344.907
40.20000 361.554
40.22000 369.788
40.24000 387.817
40.26000 403.221
40.28000 420.315
40.30000 433.424
40.32000 447.305
40.34000 469.324
40.36000 482.571
40.38000 492.914
40.40000 508.041
40.42000 530.256
40.44000 541.734
40.46000 543.736
40.48000 555.541
40.50000 560.952
40.52000 577.699
40.54000 583.807
40.56000 590.676
40.58000 592.177
40.60000 609.539
40.62000 613.290
40.64000 603.883
40.66000 605.935
40.68000 590.230
40.70000 583.271
40.72000 580.134
40.74000 577.972
40.76000 573.695
40.78000 571.308
40.80000 555.897
40.82000 543.128
40.84000 531.166
40.86000 498.948
40.88000 487.280
40.90000 469.080
40.92000 458.411
40.94000 450.512
40.96000 434.770
40.98000 420.320
41.00000 408.978
41.02000 390.587
41.04000 372.155
41.06000 353.769
41.08000 340.057
41.10000 323.225
41.12000 311.300
41.14000 298.527
41.16000 282.918
41.18000 271.338
41.20000 263.395
41.22000 253.959
41.24000 235.674
41.26000 219.680
41.28000 209.194
41.30000 202.629
41.32000 193.655
41.34000 185.856
41.36000 169.716
41.38000 159.511
41.40000 153.855
41.42000 139.375
41.44000 137.956
41.46000 136.413
41.48000 121.398
41.50000 115.987
41.52000 114.265
41.54000 113.737
41.56000 103.241
41.58000 90.203
41.60000 91.649
41.62000 88.257
41.64000 82.481
41.66000 82.914
41.68000 78.162
41.70000 71.477
41.72000 70.201
41.74000 63.752
41.76000 59.313
41.78000 54.088
41.80000 51.032
41.82000 54.940
41.84000 52.297
41.86000 48.048
41.88000 47.127
41.90000 44.818
41.92000 42.256
41.94000 44.910
41.96000 40.108
41.98000 35.419
42.00000 31.854
42.02000 30.678
42.04000 32.645
42.06000 28.263
42.08000 28.201
42.10000 28.077
42.12000 26.251
42.14000 22.698
42.16000 19.653
42.18000 10.303
42.20000 17.410
42.22000 23.965
42.24000 17.130
42.26000 14.983
42.28000 15.821
42.30000 14.293
42.32000 17.798
42.34000 15.192
42.36000 11.877
42.38000 11.825
42.40000 10.277
42.42000 12.803
42.44000 8.324
42.46000 13.542
42.48000 10.669
42.50000 6.616
42.52000 10.675
42.54000 14.292
42.56000 15.497
42.58000 12.049
42.60000 2.734
42.62000 6.580
42.64000 6.517
42.66000 8.767
42.68000 9.452
42.70000 8.191
42.72000 10.493
42.74000 7.594
42.76000 3.569
42.78000 5.011
42.80000 5.824
42.82000 3.849
42.84000 5.238
42.86000 -0.533
42.88000 0.387
42.90000 0.478
42.92000 0.836
42.94000 4.508
42.96000 4.597
42.98000 3.061
43.00000 2.587
43.02000 1.616
43.04000 8.883
43.06000 3.014
43.08000 -0.063
43.10000 2.906
43.12000 1.038
43.14000 -2.025
43.16000 1.525
43.18000 0.762
43.20000 5.567
43.22000 8.082
43.24000 5.026
43.26000 5.629
43.28000 2.402
43.30000 0.430
43.32000 2.747
43.34000 6.102
43.36000 1.613
43.38000 -1.471
43.40000 0.700
43.42000 -0.198
43.44000 0.625
43.46000 4.041
43.48000 1.757
43.50000 -0.723
43.52000 -0.313
43.54000 -3.532
43.56000 0.058
43.58000 0.701
43.60000 -0.230
43.62000 -1.686
43.64000 0.477
43.66000 4.635
43.68000 6.118
43.70000 6.202
43.72000 8.088
43.74000 9.016
43.76000 7.090
43.78000 3.305
43.80000 0.041
43.82000 2.876
43.84000 3.562
43.86000 4.206
43.88000 0.575
43.90000 -2.526
43.92000 1.875
43.94000 2.603
43.96000 3.079
43.98000 10.127
44.00000 4.735
44.02000 -3.499
44.04000 -2.012
44.06000 -0.688
44.08000 1.638
44.10000 0.224
44.12000 -1.451
44.14000 1.609
44.16000 3.110
44.18000 2.392
44.20000 1.730
44.22000 1.825
44.24000 3.274
44.26000 0.402
44.28000 -0.938
44.30000 -1.223
44.32000 -1.068
44.34000 3.302
44.36000 1.111
44.38000 0.330
44.40000 3.597
44.42000 -2.810
44.44000 0.502
44.46000 -3.033
44.48000 -3.488
44.50000 1.520
44.52000 5.602
44.54000 1.255
44.56000 0.558
44.58000 2.304
44.60000 2.567
44.62000 3.989
44.64000 4.436
44.66000 4.592
44.68000 3.848
44.70000 2.883
44.72000 -3.433
44.74000 0.988
44.76000 8.089
44.78000 4.612
44.80000 0.731
44.82000 -2.986
44.84000 0.623
44.86000 2.270
44.88000 2.778
44.90000 3.063
44.92000 2.674
44.94000 -0.426
44.96000 1.142
44.98000 5.881
45.00000 4.107
45.02000 3.205
45.04000 0.430
45.06000 3.538
45.08000 6.035
45.10000 1.626
45.12000 2.756
45.14000 4.129
45.16000 8.064
45.18000 11.923
45.20000 3.452
45.22000 7.691
45.24000 2.905
45.26000 2.161
45.28000 2.722
45.30000 5.593
45.32000 10.220
45.34000 9.291
45.36000 13.912
45.38000 12.999
45.40000 4.848
45.42000 4.710
45.44000 5.868
45.46000 13.989
45.48000 5.918
45.50000 6.131
45.52000 8.723
45.54000 11.615
45.56000 8.274
45.58000 8.663
45.60000 10.442
45.62000 12.245
45.64000 14.065
45.66000 9.723
45.68000 10.550
45.70000 11.771
45.72000 12.311
45.74000 11.578
45.76000 17.607
45.78000 18.844
45.80000 13.039
45.82000 13.594
45.84000 13.895
45.86000 10.838
45.88000 15.195
45.90000 22.362
45.92000 19.193
45.94000 16.372
45.96000 16.228
45.98000 18.982
46.00000 20.380
46.02000 20.038
46.04000 25.467
46.06000 26.112
46.08000 23.153
46.10000 27.878
46.12000 24.497
46.14000 27.474
46.16000 31.956
46.18000 24.302
46.20000 32.835
46.22000 32.971
46.24000 31.469
46.26000 39.074
46.28000 37.295
46.30000 36.009
46.32000 35.848
46.34000 34.545
46.36000 38.902
46.38000 39.353
46.40000 41.119
46.42000 41.961
46.44000 38.464
46.46000 45.805
46.48000 48.747
46.50000 47.757
46.52000 45.823
46.54000 46.237
46.56000 47.663
46.58000 48.003
46.60000 49.728
46.62000 52.732
46.64000 54.915
46.66000 51.741
46.68000 56.826
46.70000 60.915
46.72000 58.924
46.74000 61.866
46.76000 65.171
46.78000 62.543
46.80000 59.947
46.82000 58.206
46.84000 71.530
46.86000 67.982
46.88000 68.152
46.90000 64.315
46.92000 73.871
46.94000 71.105
46.96000 69.554
46.98000 70.342
47.00000 77.363
47.02000 78.966
47.04000 76.153
47.06000 75.857
47.08000 75.326
47.10000 80.996
47.12000 76.114
47.14000 74.353
47.16000 75.411
47.18000 71.431
47.20000 72.762
47.22000 77.545
47.24000 73.298
47.26000 75.598
47.28000 75.264
47.30000 72.637
47.32000 79.356
47.34000 81.122
47.36000 75.325
47.38000 81.237
47.40000 81.782
47.42000 83.996
47.44000 73.431
47.46000 72.461
47.48000 72.584
47.50000 69.173
47.52000 75.411
47.54000 77.696
47.56000 66.577
47.58000 60.087
47.60000 64.114
47.62000 64.388
47.64000 63.384
47.66000 59.428
47.68000 57.117
47.70000 46.911
47.72000 53.105
47.74000 57.055
47.76000 54.684
47.78000 49.679
47.80000 40.678
47.82000 44.233
47.84000 45.568
47.86000 40.376
47.88000 40.060
47.90000 40.339
47.92000 38.408
47.94000 33.291
47.96000 30.680
47.98000 33.984
48.00000 35.082
48.02000 42.550
48.04000 33.934
48.06000 23.425
48.08000 26.398
48.10000 28.823
48.12000 27.108
48.14000 22.263
48.16000 23.387
48.18000 23.030
48.20000 23.294
48.22000 20.504
48.24000 19.202
48.26000 22.922
48.28000 26.650
48.30000 25.980
48.32000 22.299
48.34000 19.005
48.36000 17.807
48.38000 14.711
48.40000 18.486
48.42000 14.483
48.44000 12.195
48.46000 9.960
48.48000 10.570
48.50000 7.159
48.52000 8.225
48.54000 8.041
48.56000 4.697
48.58000 3.630
48.60000 7.528
48.62000 11.652
48.64000 12.116
48.66000 6.977
48.68000 2.330
48.70000 7.546
48.72000 8.018
48.74000 7.182
48.76000 7.102
48.78000 1.993
48.80000 2.409
48.82000 8.511
48.84000 13.550
48.86000 11.199
48.88000 10.394
48.90000 6.013
48.92000 3.718
48.94000 5.434
48.96000 10.303
48.98000 11.666
49.00000 11.330
49.02000 8.442
49.04000 7.895
49.06000 4.783
49.08000 3.459
49.10000 4.179
49.12000 7.666
49.14000 7.262
49.16000 0.548
49.18000 2.852
49.20000 6.180
49.22000 6.945
49.24000 6.732
49.26000 0.431
49.28000 3.734
49.30000 6.837
49.32000 4.876
49.34000 7.590
49.36000 5.342
49.38000 6.073
49.40000 6.999
49.42000 -3.067
49.44000 0.981
49.46000 13.401
49.48000 11.402
49.50000 9.378
49.52000 5.180
49.54000 8.945
49.56000 10.056
49.58000 9.441
49.60000 1.981
49.62000 3.738
49.64000 9.956
49.66000 11.936
49.68000 4.685
49.70000 6.434
49.72000 4.536
49.74000 3.544
49.76000 1.786
49.78000 7.487
49.80000 8.999
49.82000 2.554
49.84000 0.520
49.86000 -0.422
49.88000 3.466
49.90000 4.057
49.92000 0.556
49.94000 -0.597
49.96000 -2.194
49.98000 4.593
50.00000 10.180
50.02000 2.622
50.04000 1.879
50.06000 0.644
50.08000 2.171
50.10000 2.125
50.12000 4.260
50.14000 4.849
50.16000 5.597
50.18000 0.133
50.20000 0.169
50.22000 0.456
50.24000 -0.680
50.26000 0.374
50.28000 4.203
50.30000 3.985
50.32000 3.312
50.34000 6.446
50.36000 5.833
50.38000 6.773
50.40000 4.068
50.42000 6.389
50.44000 4.498
50.46000 -0.184
50.48000 1.398
50.50000 0.110
50.52000 -2.486
50.54000 3.312
50.56000 -0.733
50.58000 -1.604
50.60000 -0.833
50.62000 1.037
50.64000 5.510
50.66000 7.416
50.68000 9.914
50.70000 5.796
50.72000 -0.156
50.74000 2.685
50.76000 3.741
50.78000 -3.002
50.80000 3.076
50.82000 2.582
50.84000 -0.931
50.86000 -1.194
50.88000 0.018
50.90000 5.231
50.92000 4.642
50.94000 6.034
50.96000 1.756
50.98000 -2.915
51.00000 1.270
51.02000 3.748
51.04000 9.526
51.06000 6.818
51.08000 5.524
51.10000 3.498
51.12000 6.984
51.14000 0.533
51.16000 2.293
51.18000 2.953
51.20000 1.245
51.22000 0.691
51.24000 -1.247
51.26000 1.259
51.28000 -2.976
51.30000 0.609
51.32000 2.902
51.34000 0.862
51.36000 3.213
51.38000 4.563
51.40000 2.292
51.42000 -0.591
51.44000 1.859
51.46000 3.626
51.48000 6.907
51.50000 5.381
51.52000 -2.934
51.54000 1.784
51.56000 2.112
51.58000 0.355
51.60000 -1.421
51.62000 3.578
51.64000 6.059
51.66000 4.011
51.68000 -1.379
51.70000 0.332
51.72000 1.034
51.74000 0.290
51.76000 4.499
51.78000 7.804
51.80000 4.411
51.82000 3.320
51.84000 8.038
51.86000 1.802
51.88000 -2.924
51.90000 0.358
51.92000 3.256
51.94000 5.426
51.96000 5.878
51.98000 2.169
52.00000 3.831
52.02000 7.050
52.04000 8.411
52.06000 5.116
52.08000 -1.507
52.10000 2.688
52.12000 6.455
52.14000 3.317
52.16000 4.903
52.18000 6.546
52.20000 0.825
52.22000 -1.771
52.24000 1.087
52.26000 1.244
52.28000 1.948
52.30000 4.919
52.32000 6.574
52.34000 3.350
52.36000 -0.553
52.38000 3.945
52.40000 6.546
52.42000 7.162
52.44000 5.821
52.46000 -0.901
52.48000 1.800
52.50000 -0.193
52.52000 2.932
52.54000 7.832
52.56000 5.936
52.58000 4.650
52.60000 4.183
52.62000 -0.977
52.64000 0.360
52.66000 4.231
52.68000 0.773
52.70000 -0.744
52.72000 -2.120
52.74000 -0.224
52.76000 5.386
52.78000 5.334
52.80000 1.486
52.82000 3.753
52.84000 4.332
52.86000 9.537
52.88000 6.656
52.90000 5.962
52.92000 4.076
52.94000 6.128
52.96000 8.098
52.98000 5.600
53.00000 4.159
53.02000 1.078
53.04000 3.000
53.06000 2.196
53.08000 -2.917
53.10000 1.566
53.12000 3.269
53.14000 2.758
53.16000 4.007
53.18000 7.557
53.20000 -0.571
53.22000 1.517
53.24000 6.757
53.26000 4.504
53.28000 7.287
53.30000 7.477
53.32000 7.895
53.34000 4.151
53.36000 0.599
53.38000 0.823
53.40000 -0.510
53.42000 -0.103
53.44000 4.738
53.46000 3.118
53.48000 1.451
53.50000 1.848
53.52000 4.544
53.54000 6.719
53.56000 5.253
53.58000 4.115
53.60000 0.984
53.62000 -2.704
53.64000 -1.642
53.66000 -0.357
53.68000 3.055
53.70000 -0.599
53.72000 -1.480
53.74000 2.074
53.76000 7.151
53.78000 1.966
53.80000 4.146
53.82000 2.019
53.84000 -1.196
53.86000 2.419
53.88000 6.309
53.90000 5.229
53.92000 2.264
53.94000 2.026
53.96000 5.555
53.98000 7.660
54.00000 0.657
54.02000 1.878
54.04000 -0.381
54.06000 4.928
54.08000 3.326
54.10000 0.533
54.12000 4.245
54.14000 7.894
54.16000 9.000
54.18000 4.887
54.20000 -1.136
54.22000 -1.592
54.24000 -2.860
54.26000 -0.713
54.28000 2.293
54.30000 2.149
54.32000 9.378
54.34000 10.174
54.36000 2.107
54.38000 1.877
54.40000 1.420
54.42000 -0.936
54.44000 -1.788
54.46000 2.435
54.48000 5.442
54.50000 2.413
54.52000 -0.660
54.54000 7.466
54.56000 3.858
54.58000 5.753
54.60000 3.632
54.62000 4.375
54.64000 9.692
54.66000 5.266
54.68000 0.228
54.70000 -0.181
54.72000 1.130
54.74000 -2.249
54.76000 2.231
54.78000 0.117
54.80000 0.124
54.82000 1.318
54.84000 3.133
54.86000 -2.840
54.88000 0.144
54.90000 -1.486
54.92000 0.217
54.94000 4.750
54.96000 2.950
54.98000 2.400
55.00000 3.561
55.02000 5.313
55.04000 6.654
55.06000 4.077
55.08000 5.333
55.10000 2.714
55.12000 3.854
55.14000 4.438
55.16000 8.477
55.18000 3.604
55.20000 2.976
55.22000 5.185
55.24000 -1.568
55.26000 0.661
55.28000 5.089
55.30000 2.653
55.32000 0.142
55.34000 0.878
55.36000 4.738
55.38000 2.741
55.40000 1.177
55.42000 3.160
55.44000 3.702
55.46000 5.191
55.48000 2.453
55.50000 -0.133
55.52000 1.151
55.54000 2.298
55.56000 -0.125
55.58000 3.367
55.60000 2.592
55.62000 2.954
55.64000 4.077
55.66000 4.156
55.68000 5.073
55.70000 3.956
55.72000 0.763
55.74000 4.061
55.76000 8.311
55.78000 1.432
55.80000 1.883
55.82000 3.836
55.84000 7.204
55.86000 6.689
55.88000 3.651
55.90000 2.311
55.92000 1.098
55.94000 3.690
55.96000 0.993
55.98000 3.602
56.00000 3.921
56.02000 1.755
56.04000 0.201
56.06000 0.198
56.08000 -1.682
56.10000 -2.809
56.12000 1.760
56.14000 3.485
56.16000 5.306
56.18000 2.929
56.20000 3.218
56.22000 2.830
56.24000 1.803
56.26000 6.560
56.28000 3.663
56.30000 -0.093
56.32000 0.702
56.34000 -0.887
56.36000 -0.515
56.38000 3.308
56.40000 -0.058
56.42000 1.540
56.44000 2.552
56.46000 3.990
56.48000 3.351
56.50000 0.493
56.52000 2.910
56.54000 4.958
56.56000 8.474
56.58000 4.747
56.60000 5.542
56.62000 6.770
56.64000 -0.418
56.66000 0.456
56.68000 -1.242
56.70000 -2.793
56.72000 1.750
56.74000 9.474
56.76000 11.222
56.78000 7.452
56.80000 7.028
56.82000 3.417
56.84000 4.928
56.86000 2.792
56.88000 -2.784
56.90000 1.082
56.92000 1.535
56.94000 3.289
56.96000 0.723
56.98000 2.337
57.00000 -0.411
57.02000 3.062
57.04000 9.807
57.06000 7.865
57.08000 7.418
57.10000 5.110
57.12000 1.341
57.14000 0.696
57.16000 4.478
57.18000 9.885
57.20000 11.939
57.22000 6.452
57.24000 0.655
57.26000 0.518
57.28000 3.577
57.30000 1.635
57.32000 6.004
57.34000 4.506
57.36000 4.734
57.38000 3.877
57.40000 7.324
57.42000 7.625
57.44000 1.716
57.46000 4.009
57.48000 2.726
57.50000 6.343
57.52000 4.990
57.54000 6.435
57.56000 7.069
57.58000 8.017
57.60000 7.348
57.62000 9.991
57.64000 7.593
57.66000 7.766
57.68000 7.370
57.70000 6.163
57.72000 5.850
57.74000 4.984
57.76000 7.228
57.78000 5.000
57.80000 6.360
57.82000 8.118
57.84000 6.306
57.86000 5.799
57.88000 5.239
57.90000 3.168
57.92000 -1.711
57.94000 2.676
57.96000 8.584
57.98000 8.341
58.00000 9.405
58.02000 6.143
58.04000 1.670
58.06000 -2.701
58.08000 3.799
58.10000 8.496
58.12000 0.688
58.14000 4.626
58.16000 5.310
58.18000 6.473
58.20000 2.970
58.22000 2.938
58.24000 3.274
58.26000 4.052
58.28000 3.782
58.30000 5.094
58.32000 1.133
58.34000 0.399
58.36000 3.982
58.38000 5.936
58.40000 4.459
58.42000 6.900
58.44000 6.079
58.46000 1.129
58.48000 -0.280
58.50000 -0.375
58.52000 4.970
58.54000 8.112
58.56000 4.037
58.58000 8.417
58.60000 4.016
58.62000 4.231
58.64000 4.524
58.66000 3.469
58.68000 3.382
58.70000 5.325
58.72000 4.288
58.74000 10.241
58.76000 5.353
58.78000 7.920
58.80000 6.205
58.82000 4.397
58.84000 8.255
58.86000 6.586
58.88000 2.729
58.90000 1.889
58.92000 3.910
58.94000 5.029
58.96000 0.328
58.98000 2.058
59.00000 3.539
59.02000 1.695
59.04000 1.208
59.06000 5.753
59.08000 5.374
59.10000 3.312
59.12000 2.838
59.14000 0.570
59.16000 5.167
59.18000 6.328
59.20000 11.602
59.22000 7.360
59.24000 5.242
59.26000 1.739
59.28000 5.332
59.30000 4.586
59.32000 5.342
59.34000 4.733
59.36000 -1.505
59.38000 0.802
59.40000 5.579
59.42000 10.963
59.44000 8.744
59.46000 3.846
59.48000 0.981
59.50000 2.232
59.52000 2.714
59.54000 3.386
59.56000 5.431
59.58000 8.204
59.60000 3.286
59.62000 -2.335
59.64000 -2.689
59.66000 2.723
59.68000 5.214
59.70000 2.878
59.72000 1.880
59.74000 1.600
59.76000 -0.357
59.78000 0.739
59.80000 2.376
59.82000 4.547
59.84000 1.534
59.86000 -2.674
59.88000 -1.686
59.90000 -0.545
59.92000 5.182
59.94000 9.350
59.96000 1.357
59.98000 1.330
60.00000 3.928
60.02000 7.390
60.04000 5.422
60.06000 2.379
60.08000 3.880
60.10000 3.617
60.12000 0.636
60.14000 1.513
60.16000 -0.213
60.18000 -0.832
60.20000 1.683
60.22000 4.019
60.24000 5.513
60.26000 4.904
60.28000 3.235
60.30000 2.480
60.32000 2.198
60.34000 0.703
60.36000 -0.963
60.38000 0.373
60.40000 0.373
60.42000 2.105
60.44000 6.581
60.46000 3.683
60.48000 1.796
60.50000 4.045
60.52000 3.340
60.54000 4.525
60.56000 5.830
60.58000 6.612
60.60000 10.499
60.62000 8.864
60.64000 4.363
60.66000 1.431
60.68000 2.348
60.70000 3.983
60.72000 0.755
60.74000 2.203
60.76000 2.290
60.78000 1.245
60.80000 5.361
60.82000 1.652
60.84000 4.705
60.86000 2.999
60.88000 6.547
60.90000 2.643
60.92000 3.771
60.94000 7.713
60.96000 4.198
60.98000 -2.620
61.00000 4.149
61.02000 5.837
61.04000 5.713
61.06000 8.407
61.08000 5.450
61.10000 5.169
61.12000 4.876
61.14000 6.002
61.16000 1.744
61.18000 4.791
61.20000 1.753
61.22000 3.388
61.24000 5.039
61.26000 4.145
61.28000 4.698
61.30000 4.123
61.32000 2.711
61.34000 1.832
61.36000 4.708
61.38000 3.032
61.40000 0.016
61.42000 -2.631
61.44000 4.980
61.46000 4.504
61.48000 4.457
61.50000 -0.673
61.52000 3.163
61.54000 9.089
61.56000 4.008
61.58000 0.154
61.60000 0.207
61.62000 2.638
61.64000 6.342
61.66000 2.291
61.68000 1.895
61.70000 4.669
61.72000 -0.772
61.74000 -1.375
61.76000 2.578
61.78000 5.623
61.80000 7.679
61.82000 2.431
61.84000 5.664
61.86000 1.586
61.88000 0.714
61.90000 4.126
61.92000 1.358
61.94000 -2.640
61.96000 -2.347
61.98000 0.492
62.00000 1.961
62.02000 3.327
62.04000 3.448
62.06000 1.743
62.08000 4.190
62.10000 -1.238
62.12000 -0.373
62.14000 -0.625
62.16000 1.993
62.18000 -0.725
62.20000 -2.081
62.22000 4.427
62.24000 3.507
62.26000 0.740
62.28000 2.926
62.30000 -0.944
62.32000 -2.637
62.34000 -0.687
62.36000 -0.894
62.38000 0.086
62.40000 0.084
62.42000 -1.937
62.44000 -2.625
62.46000 1.416
62.48000 -0.073
62.50000 0.276
62.52000 4.877
62.54000 5.333
62.56000 3.998
62.58000 4.708
62.60000 3.183
62.62000 4.435
62.64000 1.067
62.66000 -0.328
62.68000 -2.321
62.70000 2.103
62.72000 6.177
62.74000 5.365
62.76000 0.257
62.78000 -1.893
62.80000 -0.841
62.82000 -0.357
62.84000 3.356
62.86000 4.274
62.88000 0.326
62.90000 3.665
62.92000 6.282
62.94000 3.983
62.96000 1.997
62.98000 6.076
63.00000 3.218
63.02000 4.504
63.04000 3.028
63.06000 4.465
63.08000 2.852
63.10000 2.665
63.12000 0.196
63.14000 0.396
63.16000 1.765
63.18000 1.574
63.20000 1.308
63.22000 3.853
63.24000 3.531
63.26000 0.717
63.28000 -0.486
63.30000 1.791
63.32000 3.602
63.34000 3.305
63.36000 0.448
63.38000 0.439
63.40000 -0.371
63.42000 -1.413
63.44000 -2.593
63.46000 -0.449
63.48000 2.323
63.50000 3.594
63.52000 2.841
63.54000 5.027
63.56000 3.955
63.58000 -1.670
63.60000 -2.069
63.62000 0.618
63.64000 5.949
63.66000 4.791
63.68000 5.559
63.70000 4.266
63.72000 2.173
63.74000 2.582
63.76000 2.427
63.78000 -1.000
63.80000 -2.602
63.82000 -1.924
63.84000 1.717
63.86000 4.820
63.88000 0.055
63.90000 2.902
63.92000 4.183
63.94000 -1.821
63.96000 1.862
63.98000 2.156
64.00000 3.967
64.02000 4.083
64.04000 3.867
64.06000 1.211
64.08000 1.666
64.10000 4.381
64.12000 4.731
64.14000 5.061
64.16000 2.359
64.18000 4.302
64.20000 2.468
64.22000 4.374
64.24000 3.384
64.26000 3.003
64.28000 1.130
64.30000 -1.533
64.32000 -0.899
64.34000 3.812
64.36000 1.643
64.38000 2.105
64.40000 6.869
64.42000 2.225
64.44000 -2.611
64.46000 -1.986
64.48000 -1.409
64.50000 2.055
64.52000 3.322
64.54000 -0.887
64.56000 2.184
64.58000 0.828
64.60000 0.626
64.62000 4.273
64.64000 4.861
64.66000 2.651
64.68000 3.416
64.70000 3.995
64.72000 2.816
64.74000 0.144
64.76000 1.513
64.78000 5.130
64.80000 2.633
64.82000 -2.250
64.84000 0.853
64.86000 0.634
64.88000 0.962
64.90000 0.959
64.92000 -0.816
64.94000 -2.625
64.96000 -0.616
64.98000 0.610
65.00000 2.364
65.02000 5.501
65.04000 0.870
65.06000 2.183
65.08000 2.317
65.10000 1.130
65.12000 -0.208
65.14000 -1.479
65.16000 0.552
65.18000 2.971
65.20000 2.754
65.22000 -0.339
65.24000 1.008
65.26000 1.932
65.28000 2.954
65.30000 4.536
65.32000 2.249
65.34000 2.918
65.36000 0.993
65.38000 -0.501
65.40000 -1.083
65.42000 -1.502
65.44000 -0.877
65.46000 0.738
65.48000 1.593
65.50000 0.818
65.52000 0.768
65.54000 1.588
65.56000 3.022
65.58000 2.065
65.60000 0.354
65.62000 0.032
65.64000 0.889
65.66000 0.416
65.68000 1.098
65.70000 1.768
65.72000 2.781
65.74000 -0.294
65.76000 -2.519
65.78000 0.294
65.80000 -0.223
65.82000 -2.220
65.84000 -0.935
65.86000 2.950
65.88000 3.970
65.90000 3.377
65.92000 5.775
65.94000 7.724
65.96000 3.121
65.98000 -1.406
66.00000 -0.892
66.02000 1.672
66.04000 2.441
66.06000 0.811
66.08000 -0.771
66.10000 0.919
66.12000 -0.932
66.14000 0.616
66.16000 3.307
66.18000 3.016
66.20000 -2.630
66.22000 0.241
66.24000 4.179
66.26000 2.778
66.28000 0.414
66.30000 0.988
66.32000 3.197
66.34000 1.795
66.36000 1.899
66.38000 3.048
66.40000 2.635
66.42000 0.426
66.44000 1.482
66.46000 2.485
66.48000 0.842
66.50000 -0.551
66.52000 0.949
66.54000 1.706
66.56000 -1.083
66.58000 2.622
66.60000 -0.449
66.62000 -0.092
66.64000 2.141
66.66000 1.951
66.68000 2.775
66.70000 3.565
66.72000 4.704
66.74000 5.846
66.76000 7.411
66.78000 9.479
66.80000 3.159
66.82000 2.657
66.84000 5.899
66.86000 2.872
66.88000 2.986
66.90000 0.229
66.92000 -2.641
66.94000 0.230
66.96000 0.279
66.98000 3.710
67.00000 1.312
67.02000 1.295
67.04000 1.979
67.06000 3.937
67.08000 3.682
67.10000 2.751
67.12000 2.110
67.14000 1.488
67.16000 2.365
67.18000 0.478
67.20000 1.865
67.22000 1.762
67.24000 0.060
67.26000 -0.051
67.28000 -0.522
67.30000 0.235
67.32000 1.064
67.34000 0.299
67.36000 0.234
67.38000 -0.205
67.40000 1.815
67.42000 2.696
67.44000 6.393
67.46000 5.255
67.48000 5.327
67.50000 5.463
67.52000 7.199
67.54000 7.117
67.56000 6.968
67.58000 5.426
67.60000 4.152
67.62000 2.944
67.64000 1.312
67.66000 1.908
67.68000 3.121
67.70000 2.085
67.72000 7.105
67.74000 9.181
67.76000 3.105
67.78000 0.942
67.80000 3.114
67.82000 5.060
67.84000 8.560
67.86000 4.136
67.88000 3.963
67.90000 7.657
67.92000 7.700
67.94000 6.683
67.96000 7.738
67.98000 7.823
68.00000 8.142
68.02000 10.827
68.04000 17.944
68.06000 15.944
68.08000 11.826
68.10000 6.061
68.12000 5.525
68.14000 9.563
68.16000 16.866
68.18000 12.690
68.20000 9.001
68.22000 11.220
68.24000 12.570
68.26000 15.178
68.28000 16.489
68.30000 14.701
68.32000 12.704
68.34000 11.541
68.36000 11.934
68.38000 11.555
68.40000 13.140
68.42000 12.119
68.44000 14.785
68.46000 18.811
68.48000 19.808
68.50000 18.173
68.52000 22.263
68.54000 22.341
68.56000 21.505
68.58000 24.665
68.60000 19.515
68.62000 24.009
68.64000 25.706
68.66000 22.466
68.68000 24.084
68.70000 25.058
68.72000 30.772
68.74000 29.158
68.76000 25.927
68.78000 20.590
68.80000 20.070
68.82000 24.960
68.84000 28.326
68.86000 28.150
68.88000 27.301
68.90000 26.552
68.92000 26.502
68.94000 27.274
68.96000 31.173
68.98000 32.369
69.00000 25.876
69.02000 25.969
69.04000 29.564
69.06000 31.186
69.08000 30.326
69.10000 29.917
69.12000 32.906
69.14000 28.091
69.16000 24.339
69.18000 24.734
69.20000 20.431
69.22000 26.859
69.24000 26.742
69.26000 27.226
69.28000 22.368
69.30000 23.313
69.32000 24.203
69.34000 23.588
69.36000 20.679
69.38000 23.237
69.40000 23.222
69.42000 16.342
69.44000 17.090
69.46000 17.798
69.48000 19.908
69.50000 19.530
69.52000 17.169
69.54000 18.180
69.56000 22.539
69.58000 19.700
69.60000 18.671
69.62000 17.523
69.64000 19.038
69.66000 16.838
69.68000 15.982
69.70000 14.532
69.72000 15.471
69.74000 9.625
69.76000 7.022
69.78000 14.274
69.80000 13.875
69.82000 7.961
69.84000 9.070
69.86000 12.495
69.88000 15.072
69.90000 10.478
69.92000 9.273
69.94000 8.719
69.96000 8.391
69.98000 5.603
70.00000 4.117
70.02000 3.531
70.04000 6.550
70.06000 6.591
70.08000 4.573
70.10000 4.263
70.12000 4.162
70.14000 6.053
70.16000 2.441
70.18000 -1.436
70.20000 5.844
70.22000 2.112
70.24000 2.768
70.26000 5.961
70.28000 3.132
70.30000 3.148
70.32000 0.803
70.34000 1.768
70.36000 -1.655
70.38000 -1.880
70.40000 -1.693
70.42000 0.137
70.44000 -2.632
70.46000 2.097
70.48000 -1.616
70.50000 6.952
70.52000 9.353
70.54000 2.138
70.56000 5.493
70.58000 5.974
70.60000 4.500
70.62000 1.873
70.64000 -1.223
70.66000 2.923
70.68000 2.109
70.70000 3.182
70.72000 2.028
70.74000 3.472
70.76000 2.640
70.78000 2.587
70.80000 -1.981
70.82000 -0.688
70.84000 2.401
70.86000 3.048
70.88000 3.925
70.90000 -0.930
70.92000 0.788
70.94000 3.400
70.96000 5.963
70.98000 6.421
71.00000 3.413
71.02000 3.631
71.04000 3.298
71.06000 -0.131
71.08000 -0.506
71.10000 1.846
71.12000 1.804
71.14000 1.604
71.16000 2.205
71.18000 1.984
71.20000 2.476
71.22000 4.605
71.24000 1.506
71.26000 2.411
71.28000 7.879
71.30000 -0.546
71.32000 -0.405
71.34000 -2.523
71.36000 2.388
71.38000 2.350
71.40000 -0.007
71.42000 -0.518
71.44000 3.771
71.46000 3.467
71.48000 4.177
71.50000 8.226
71.52000 8.220
71.54000 5.265
71.56000 4.002
71.58000 5.167
71.60000 -0.041
71.62000 -2.509
71.64000 3.181
71.66000 2.916
71.68000 1.608
71.70000 2.064
71.72000 1.897
71.74000 0.929
71.76000 2.535
71.78000 2.158
71.80000 -0.103
71.82000 1.027
71.84000 1.493
71.86000 -1.117
71.88000 -1.261
71.90000 -0.596
71.92000 -1.544
71.94000 3.810
71.96000 -0.287
71.98000 4.718
72.00000 5.740
72.02000 0.396
72.04000 -0.979
72.06000 3.095
72.08000 0.116
72.10000 0.977
72.12000 1.765
72.14000 1.949
72.16000 6.847
72.18000 10.988
72.20000 4.519
72.22000 5.229
72.24000 1.456
72.26000 -2.456
72.28000 -0.494
72.30000 1.134
72.32000 7.224
72.34000 5.686
72.36000 -0.280
72.38000 -2.460
72.40000 -2.310
72.42000 0.115
72.44000 -0.226
72.46000 1.917
72.48000 3.620
72.50000 1.239
72.52000 2.991
72.54000 5.287
72.56000 3.941
72.58000 0.519
72.60000 3.137
72.62000 5.443
72.64000 5.622
72.66000 -1.035
72.68000 0.868
72.70000 1.556
72.72000 7.261
72.74000 1.201
72.76000 -1.320
72.78000 -0.458
72.80000 4.279
72.82000 3.480
72.84000 4.222
72.86000 4.250
72.88000 1.346
72.90000 -0.914
72.92000 3.842
72.94000 -1.937
72.96000 3.515
72.98000 7.493
73.00000 5.896
73.02000 6.744
73.04000 0.481
73.06000 -2.143
73.08000 -0.299
73.10000 2.291
73.12000 4.253
73.14000 -0.463
73.16000 -1.279
73.18000 0.207
73.20000 2.281
73.22000 3.627
73.24000 4.035
73.26000 3.566
73.28000 1.864
73.30000 1.506
73.32000 2.419
73.34000 0.124
73.36000 2.126
73.38000 1.715
73.40000 1.281
73.42000 2.892
73.44000 0.679
73.46000 0.781
73.48000 -0.096
73.50000 -0.413
73.52000 1.683
73.54000 4.855
73.56000 5.862
73.58000 7.818
73.60000 1.863
73.62000 1.894
73.64000 3.591
73.66000 7.376
73.68000 2.029
73.70000 0.247
73.72000 -0.595
73.74000 6.056
73.76000 3.875
73.78000 4.291
73.80000 2.142
73.82000 3.564
73.84000 3.779
73.86000 4.067
73.88000 -2.424
73.90000 -0.366
73.92000 4.237
73.94000 3.105
73.96000 2.679
73.98000 3.553
74.00000 2.543
74.02000 2.487
74.04000 0.558
74.06000 2.776
74.08000 4.247
74.10000 3.926
74.12000 0.500
74.14000 2.334
74.16000 6.341
74.18000 10.018
74.20000 6.750
74.22000 4.825
74.24000 7.016
74.26000 3.604
74.28000 -0.270
74.30000 2.206
74.32000 2.386
74.34000 5.084
74.36000 1.237
74.38000 -2.411
74.40000 -1.637
74.42000 2.506
74.44000 7.512
74.46000 6.837
74.48000 2.305
74.50000 -1.464
74.52000 2.370
74.54000 7.335
74.56000 4.936
74.58000 5.233
74.60000 8.389
74.62000 3.494
74.64000 3.149
74.66000 2.734
74.68000 1.495
74.70000 -2.409
74.72000 2.903
74.74000 3.148
74.76000 1.395
74.78000 2.000
74.80000 3.371
74.82000 6.105
74.84000 6.148
74.86000 8.930
74.88000 3.867
74.90000 3.064
74.92000 3.285
74.94000 4.063
74.96000 -2.409
74.98000 -0.823
75.00000 3.046
75.02000 0.701
75.04000 1.565
75.06000 0.274
75.08000 1.783
75.10000 2.221
75.12000 2.196
75.14000 5.180
75.16000 1.727
75.18000 0.840
75.20000 1.157
75.22000 2.167
75.24000 1.875
75.26000 5.894
75.28000 4.212
75.30000 1.765
75.32000 0.422
75.34000 1.263
75.36000 2.840
75.38000 3.594
75.40000 4.931
75.42000 4.035
75.44000 3.907
75.46000 4.915
75.48000 1.176
75.50000 4.573
75.52000 4.065
75.54000 6.652
75.56000 1.294
75.58000 0.387
75.60000 3.766
75.62000 2.160
75.64000 2.923
75.66000 1.143
75.68000 2.734
75.70000 6.709
75.72000 6.152
75.74000 3.230
75.76000 3.869
75.78000 0.977
75.80000 1.154
75.82000 2.038
75.84000 0.317
75.86000 2.930
75.88000 1.316
75.90000 8.277
75.92000 5.270
75.94000 4.278
75.96000 4.296
75.98000 6.272
76.00000 9.840
76.02000 4.982
76.04000 1.941
76.06000 3.762
76.08000 -1.057
76.10000 -2.411
76.12000 -0.369
76.14000 3.579
76.16000 1.572
76.18000 7.516
76.20000 5.069
76.22000 4.548
76.24000 6.747
76.26000 4.390
76.28000 7.193
76.30000 4.201
76.32000 1.399
76.34000 2.859
76.36000 4.811
76.38000 1.887
76.40000 1.075
76.42000 3.109
76.44000 5.692
76.46000 7.383
76.48000 7.139
76.50000 4.094
76.52000 4.894
76.54000 3.824
76.56000 1.508
76.58000 6.429
76.60000 4.863
76.62000 2.900
76.64000 3.853
76.66000 4.074
76.68000 5.757
76.70000 5.116
76.72000 6.673
76.74000 7.812
76.76000 2.353
76.78000 5.441
76.80000 6.908
76.82000 5.647
76.84000 9.576
76.86000 6.214
76.88000 2.131
76.90000 -2.390
76.92000 -1.747
76.94000 5.726
76.96000 4.745
76.98000 1.231
77.00000 0.586
77.02000 4.751
77.04000 9.546
77.06000 7.202
77.08000 5.030
77.10000 8.462
77.12000 10.016
77.14000 6.548
77.16000 5.992
77.18000 7.164
77.20000 7.484
77.22000 6.942
77.24000 6.695
77.26000 -1.145
77.28000 3.238
77.30000 3.770
77.32000 5.617
77.34000 8.119
77.36000 6.979
77.38000 3.341
77.40000 5.717
77.42000 5.812
77.44000 6.728
77.46000 5.812
77.48000 8.919
77.50000 9.256
77.52000 7.754
77.54000 8.279
77.56000 5.788
77.58000 2.470
77.60000 -2.400
77.62000 -0.872
77.64000 8.026
77.66000 6.468
77.68000 6.331
77.70000 7.218
77.72000 2.785
77.74000 3.202
77.76000 6.122
77.78000 -0.998
77.80000 -1.869
77.82000 3.294
77.84000 3.771
77.86000 3.178
77.88000 4.790
77.90000 6.905
77.92000 3.573
77.94000 7.051
77.96000 0.941
77.98000 4.957
78.00000 4.208
78.02000 4.034
78.04000 6.085
78.06000 8.104
78.08000 9.027
78.10000 8.183
78.12000 5.149
78.14000 9.531
78.16000 3.865
78.18000 4.371
78.20000 5.005
78.22000 7.286
78.24000 5.837
78.26000 3.949
78.28000 8.396
78.30000 6.871
78.32000 2.177
78.34000 2.227
78.36000 2.275
78.38000 1.410
78.40000 4.371
78.42000 3.767
78.44000 5.394
78.46000 8.017
78.48000 4.129
78.50000 2.222
78.52000 1.400
78.54000 8.217
78.56000 11.021
78.58000 10.462
78.60000 6.226
78.62000 6.899
78.64000 7.466
78.66000 2.498
78.68000 5.270
78.70000 7.773
78.72000 6.835
78.74000 2.183
78.76000 1.026
78.78000 1.887
78.80000 5.850
78.82000 2.245
78.84000 5.562
78.86000 8.463
78.88000 9.520
78.90000 7.337
78.92000 6.414
78.94000 2.631
78.96000 4.891
78.98000 4.911
79.00000 7.233
79.02000 8.574
79.04000 5.906
79.06000 -2.397
79.08000 1.605
79.10000 5.213
79.12000 6.793
79.14000 9.036
79.16000 9.824
79.18000 7.105
79.20000 7.791
79.22000 5.689
79.24000 6.699
79.26000 6.831
79.28000 10.893
79.30000 7.118
79.32000 8.384
79.34000 8.825
79.36000 7.888
79.38000 0.304
79.40000 1.836
79.42000 5.598
79.44000 7.214
79.46000 15.041
79.48000 10.979
79.50000 6.270
79.52000 9.655
79.54000 8.549
79.56000 0.448
79.58000 1.820
79.60000 2.876
79.62000 5.916
79.64000 10.167
79.66000 10.422
79.68000 4.170
79.70000 4.417
79.72000 2.145
79.74000 2.341
79.76000 5.226
79.78000 3.770
79.80000 3.399
79.82000 3.156
79.84000 4.095
79.86000 8.863
79.88000 10.518
79.90000 3.120
79.92000 4.668
79.94000 1.480
79.96000 -1.279
79.98000 -1.191
80.00000 2.266
80.02000 4.950
80.04000 5.532
80.06000 6.264
80.08000 6.923
80.10000 -0.067
80.12000 3.692
80.14000 5.214
80.16000 -0.334
80.18000 0.703
80.20000 3.611
80.22000 3.286
80.24000 4.219
80.26000 3.333
80.28000 3.390
80.30000 0.740
80.32000 2.256
80.34000 2.733
80.36000 6.280
80.38000 4.459
80.40000 0.924
80.42000 3.414
80.44000 2.186
80.46000 -0.334
80.48000 -2.481
80.50000 4.732
80.52000 6.735
80.54000 5.990
80.56000 1.615
80.58000 4.795
80.60000 3.068
80.62000 2.962
80.64000 5.651
80.66000 9.016
80.68000 10.338
80.70000 10.123
80.72000 7.077
80.74000 8.172
80.76000 6.738
80.78000 4.361
80.80000 7.554
80.82000 8.173
80.84000 2.678
80.86000 0.618
80.88000 4.064
80.90000 1.507
80.92000 0.481
80.94000 3.347
80.96000 1.265
80.98000 -2.513
81.00000 3.634
81.02000 3.684
81.04000 8.297
81.06000 7.188
81.08000 -1.012
81.10000 6.376
81.12000 7.794
81.14000 8.204
81.16000 7.608
81.18000 11.059
81.20000 12.769
81.22000 8.640
81.24000 6.971
81.26000 4.389
81.28000 3.093
81.30000 6.204
81.32000 3.172
81.34000 1.239
81.36000 4.222
81.38000 7.859
81.40000 7.402
81.42000 2.482
81.44000 1.850
81.46000 3.902
81.48000 4.791
81.50000 11.227
81.52000 12.576
81.54000 11.801
81.56000 8.592
81.58000 5.413
81.60000 4.350
81.62000 5.582
81.64000 3.728
81.66000 0.026
81.68000 1.889
81.70000 2.283
81.72000 6.928
81.74000 9.894
81.76000 5.868
81.78000 4.226
81.80000 8.630
81.82000 10.473
81.84000 7.223
81.86000 6.972
81.88000 4.798
81.90000 5.393
81.92000 4.213
81.94000 4.164
81.96000 3.262
81.98000 4.479
82.00000 7.020
82.02000 4.317
82.04000 11.729
82.06000 11.042
82.08000 14.002
82.10000 8.911
82.12000 5.084
82.14000 9.700
82.16000 11.675
82.18000 8.084
82.20000 2.423
82.22000 4.111
82.24000 7.597
82.26000 9.244
82.28000 6.912
82.30000 6.980
82.32000 8.213
82.34000 11.578
82.36000 17.387
82.38000 11.862
82.40000 8.390
82.42000 9.275
82.44000 14.150
82.46000 11.136
82.48000 16.919
82.50000 14.374
82.52000 8.984
82.54000 13.078
82.56000 22.081
82.58000 13.910
82.60000 13.710
82.62000 20.349
82.64000 21.189
82.66000 16.172
82.68000 16.104
82.70000 16.457
82.72000 18.593
82.74000 20.648
82.76000 18.449
82.78000 19.529
82.80000 18.595
82.82000 21.263
82.84000 23.079
82.86000 18.160
82.88000 21.899
82.90000 20.180
82.92000 18.801
82.94000 18.762
82.96000 21.876
82.98000 19.453
83.00000 20.595
83.02000 22.440
83.04000 22.159
83.06000 20.351
83.08000 25.294
83.10000 24.919
83.12000 22.097
83.14000 19.647
83.16000 24.132
83.18000 26.816
83.20000 32.479
83.22000 30.710
83.24000 26.893
83.26000 25.910
83.28000 28.219
83.30000 25.510
83.32000 25.585
83.34000 28.265
83.36000 33.773
83.38000 32.033
83.40000 29.202
83.42000 27.028
83.44000 30.503
83.46000 36.002
83.48000 37.357
83.50000 27.759
83.52000 27.129
83.54000 30.861
83.56000 26.973
83.58000 27.020
83.60000 27.309
83.62000 26.537
83.64000 26.545
83.66000 29.319
83.68000 28.605
83.70000 26.438
83.72000 26.465
83.74000 29.135
83.76000 22.865
83.78000 22.202
83.80000 27.525
83.82000 27.402
83.84000 24.252
83.86000 26.250
83.88000 23.590
83.90000 20.615
83.92000 20.265
83.94000 19.257
83.96000 17.233
83.98000 15.423
84.00000 15.753
84.02000 19.752
84.04000 16.186
84.06000 19.326
84.08000 16.882
84.10000 20.882
84.12000 15.147
84.14000 9.344
84.16000 14.157
84.18000 17.046
84.20000 12.414
84.22000 12.194
84.24000 11.552
84.26000 13.613
84.28000 14.100
84.30000 15.643
84.32000 10.634
84.34000 7.774
84.36000 13.596
84.38000 14.147
84.40000 11.061
84.42000 7.923
84.44000 5.298
84.46000 6.647
84.48000 11.517
84.50000 3.731
84.52000 3.188
84.54000 8.514
84.56000 9.453
84.58000 6.155
84.60000 11.071
84.62000 9.041
84.64000 9.748
84.66000 7.773
84.68000 9.110
84.70000 10.757
84.72000 6.855
84.74000 0.589
84.76000 7.419
84.78000 8.844
84.80000 7.390
84.82000 4.613
84.84000 4.921
84.86000 3.146
84.88000 1.255
84.90000 2.349
84.92000 4.311
84.94000 6.637
84.96000 6.424
84.98000 3.640
85.00000 3.652
85.02000 4.061
85.04000 0.971
85.06000 4.493
85.08000 1.639
85.10000 1.696
85.12000 -0.756
85.14000 4.300
85.16000 4.760
85.18000 6.602
85.20000 3.563
85.22000 2.479
85.24000 -2.565
85.26000 -2.564
85.28000 9.424
85.30000 8.862
85.32000 5.498
85.34000 4.368
85.36000 0.706
85.38000 -0.208
85.40000 2.404
85.42000 3.820
85.44000 -1.040
85.46000 -2.554
85.48000 -0.870
85.50000 -0.750
85.52000 -1.543
85.54000 -2.263
85.56000 0.518
85.58000 -2.552
85.60000 0.074
85.62000 3.198
85.64000 -1.453
85.66000 2.239
85.68000 1.471
85.70000 0.524
85.72000 1.092
85.74000 3.725
85.76000 0.774
85.78000 0.787
85.80000 0.954
85.82000 -1.113
85.84000 -0.186
85.86000 2.404
85.88000 1.918
85.90000 0.594
85.92000 -0.705
85.94000 0.208
85.96000 1.969
85.98000 -1.356
86.00000 -0.472
86.02000 -1.661
86.04000 0.229
86.06000 -1.401
86.08000 0.311
86.10000 0.137
86.12000 1.095
86.14000 4.792
86.16000 1.358
86.18000 3.171
86.20000 4.803
86.22000 4.722
86.24000 6.357
86.26000 2.491
86.28000 1.549
86.30000 1.789
86.32000 2.566
86.34000 2.059
86.36000 -0.502
86.38000 -2.514
86.40000 -0.907
86.42000 3.896
86.44000 9.081
86.46000 4.773
86.48000 3.034
86.50000 5.236
86.52000 6.578
86.54000 1.548
86.56000 8.099
86.58000 8.074
86.60000 3.753
86.62000 4.358
86.64000 7.464
86.66000 5.987
86.68000 2.986
86.70000 0.790
86.72000 4.039
86.74000 6.892
86.76000 2.178
86.78000 4.561
86.80000 8.887
86.82000 6.150
86.84000 10.409
86.86000 5.019
86.88000 4.946
86.90000 -0.062
86.92000 6.432
86.94000 7.579
86.96000 5.097
86.98000 3.933
87.00000 8.997
87.02000 9.276
87.04000 4.956
87.06000 7.615
87.08000 6.634
87.10000 10.727
87.12000 7.663
87.14000 10.253
87.16000 8.162
87.18000 10.442
87.20000 10.849
87.22000 10.954
87.24000 11.507
87.26000 11.391
87.28000 12.474
87.30000 11.309
87.32000 13.149
87.34000 15.988
87.36000 13.323
87.38000 15.942
87.40000 17.957
87.42000 19.797
87.44000 14.960
87.46000 13.878
87.48000 18.734
87.50000 20.518
87.52000 15.287
87.54000 19.842
87.56000 22.846
87.58000 21.108
87.60000 15.356
87.62000 15.647
87.64000 17.342
87.66000 18.975
87.68000 23.297
87.70000 17.718
87.72000 20.646
87.74000 24.360
87.76000 21.585
87.78000 18.335
87.80000 18.654
87.82000 18.016
87.84000 20.247
87.86000 24.568
87.88000 26.862
87.90000 25.152
87.92000 24.240
87.94000 29.331
87.96000 25.498
87.98000 19.949
88.00000 23.580
88.02000 22.266
88.04000 23.271
88.06000 25.588
88.08000 17.958
88.10000 20.315
88.12000 29.306
88.14000 26.168
88.16000 26.671
88.18000 20.836
88.20000 27.577
88.22000 27.029
88.24000 26.334
88.26000 19.487
88.28000 15.334
88.30000 19.818
88.32000 20.508
88.34000 22.000
88.36000 24.020
88.38000 19.952
88.40000 16.321
88.42000 17.058
88.44000 17.206
88.46000 16.000
88.48000 19.321
88.50000 16.921
88.52000 14.143
88.54000 12.072
88.56000 11.129
88.58000 15.612
88.60000 13.011
88.62000 8.150
88.64000 9.850
88.66000 10.968
88.68000 11.831
88.70000 8.083
88.72000 12.889
88.74000 14.302
88.76000 13.517
88.78000 8.906
88.80000 7.923
88.82000 11.776
88.84000 13.110
88.86000 10.264
88.88000 6.589
88.90000 6.809
88.92000 4.450
88.94000 4.407
88.96000 9.486
88.98000 14.249
89.00000 11.435
89.02000 10.431
89.04000 7.661
89.06000 9.263
89.08000 6.824
89.10000 8.284
89.12000 3.323
89.14000 -0.985
89.16000 0.703
89.18000 3.170
89.20000 8.235
89.22000 5.865
89.24000 7.594
89.26000 10.676
89.28000 6.925
89.30000 5.250
89.32000 0.250
89.34000 2.908
89.36000 3.721
89.38000 -0.592
89.40000 2.320
89.42000 5.717
89.44000 5.303
89.46000 2.427
89.48000 0.979
89.50000 2.360
89.52000 7.174
89.54000 1.405
89.56000 -0.582
89.58000 -2.378
89.60000 3.293
89.62000 4.325
89.64000 8.820
89.66000 6.728
89.68000 5.690
89.70000 2.233
89.72000 2.839
89.74000 10.622
89.76000 9.831
89.78000 1.874
89.80000 2.745
89.82000 2.845
89.84000 3.736
89.86000 0.307
89.88000 1.883
89.90000 4.674
89.92000 7.208
89.94000 4.882
89.96000 0.589
89.98000 3.167
90.00000 4.499
90.02000 2.507
90.04000 2.652
90.06000 0.064
90.08000 -0.140
90.10000 6.999
90.12000 2.261
90.14000 1.641
90.16000 5.424
90.18000 3.447
90.20000 -0.677
90.22000 1.864
90.24000 5.967
90.26000 4.440
90.28000 9.497
90.30000 4.744
90.32000 -2.110
90.34000 -2.320
90.36000 5.516
90.38000 2.158
90.40000 0.939
90.42000 3.461
90.44000 0.895
90.46000 3.393
90.48000 4.860
90.50000 1.674
90.52000 -1.276
90.54000 1.508
90.56000 4.291
90.58000 4.189
90.60000 4.360
90.62000 4.285
90.64000 2.290
90.66000 -0.088
90.68000 5.099
90.70000 4.274
90.72000 5.361
90.74000 5.261
90.76000 5.875
90.78000 4.156
90.80000 0.530
90.82000 0.724
90.84000 -0.769
90.86000 0.116
90.88000 -2.318
90.90000 -0.252
90.92000 6.333
90.94000 4.032
90.96000 3.722
90.98000 5.755
91.00000 5.107
91.02000 4.609
91.04000 3.516
91.06000 7.191
91.08000 4.433
91.10000 4.193
91.12000 1.324
91.14000 -1.115
91.16000 0.989
91.18000 2.460
91.20000 0.396
91.22000 3.424
91.24000 2.345
91.26000 1.957
91.28000 2.763
91.30000 3.570
91.32000 3.411
91.34000 6.252
91.36000 0.839
91.38000 1.389
91.40000 2.058
91.42000 3.678
91.44000 0.958
91.46000 4.666
91.48000 4.981
91.50000 4.355
91.52000 1.519
91.54000 0.554
91.56000 1.930
91.58000 0.788
91.60000 -0.411
91.62000 -0.136
91.64000 -0.436
91.66000 -2.324
91.68000 0.485
91.70000 1.983
91.72000 1.581
91.74000 -0.250
91.76000 1.553
91.78000 5.853
91.80000 3.132
91.82000 7.903
91.84000 6.598
91.86000 3.476
91.88000 0.547
91.90000 -0.153
91.92000 3.804
91.94000 3.491
91.96000 2.651
91.98000 2.332
92.00000 2.732
92.02000 12.009
92.04000 9.233
92.06000 8.742
92.08000 0.010
92.10000 -1.471
92.12000 -2.181
92.14000 1.907
92.16000 1.682
92.18000 5.338
92.20000 8.401
92.22000 5.895
92.24000 -0.918
92.26000 0.778
92.28000 -0.432
92.30000 -0.146
92.32000 3.326
92.34000 9.831
92.36000 2.209
92.38000 8.698
92.40000 5.115
92.42000 8.276
92.44000 6.551
92.46000 4.022
92.48000 3.350
92.50000 4.757
92.52000 0.343
92.54000 -0.541
92.56000 1.892
92.58000 0.779
92.60000 2.049
92.62000 0.812
92.64000 2.313
92.66000 0.281
92.68000 -2.295
92.70000 2.108
92.72000 1.000
92.74000 3.528
92.76000 10.925
92.78000 11.142
92.80000 5.843
92.82000 5.003
92.84000 5.678
92.86000 5.150
92.88000 8.009
92.90000 2.075
92.92000 -0.053
92.94000 3.176
92.96000 3.748
92.98000 1.682
93.00000 0.934
93.02000 1.000
93.04000 3.831
93.06000 7.343
93.08000 -2.451
93.10000 4.330
93.12000 7.729
93.14000 5.218
93.16000 4.677
93.18000 0.868
93.20000 4.988
93.22000 6.608
93.24000 2.924
93.26000 -1.273
93.28000 3.619
93.30000 6.049
93.32000 5.987
93.34000 9.142
93.36000 7.650
93.38000 6.023
93.40000 4.805
93.42000 2.229
93.44000 -1.348
93.46000 4.052
93.48000 4.358
93.50000 1.030
93.52000 0.248
93.54000 5.073
93.56000 2.743
93.58000 1.883
93.60000 7.800
93.62000 7.097
93.64000 4.511
93.66000 7.473
93.68000 3.507
93.70000 6.203
93.72000 3.238
93.74000 -2.291
93.76000 -1.193
93.78000 1.647
93.80000 5.169
93.82000 6.416
93.84000 8.476
93.86000 5.832
93.88000 -0.387
93.90000 1.227
93.92000 1.773
93.94000 0.335
93.96000 2.951
93.98000 2.154
94.00000 7.390
94.02000 10.471
94.04000 4.844
94.06000 3.389
94.08000 5.850
94.10000 10.435
94.12000 12.342
94.14000 9.226
94.16000 7.479
94.18000 2.558
94.20000 11.310
94.22000 7.584
94.24000 2.924
94.26000 -2.166
94.28000 -2.316
94.30000 1.418
94.32000 4.343
94.34000 8.650
94.36000 7.173
94.38000 6.465
94.40000 4.245
94.42000 3.181
94.44000 3.325
94.46000 4.013
94.48000 6.309
94.50000 5.428
94.52000 3.765
94.54000 1.752
94.56000 0.137
94.58000 2.445
94.60000 1.956
94.62000 3.474
94.64000 6.169
94.66000 12.694
94.68000 7.396
94.70000 4.433
94.72000 1.952
94.74000 -0.084
94.76000 -1.770
94.78000 2.077
94.80000 5.068
94.82000 1.423
94.84000 2.408
94.86000 4.170
94.88000 4.898
94.90000 5.544
94.92000 5.233
94.94000 4.047
94.96000 5.175
94.98000 6.902
95.00000 8.923
95.02000 3.186
95.04000 1.068
95.06000 2.283
95.08000 0.075
95.10000 0.761
95.12000 5.699
95.14000 6.145
95.16000 -1.130
95.18000 5.725
95.20000 4.744
95.22000 -0.019
95.24000 -1.474
95.26000 0.309
95.28000 -0.918
95.30000 -2.315
95.32000 0.912
95.34000 -1.888
95.36000 2.337
95.38000 6.268
95.40000 0.061
95.42000 -1.393
95.44000 -1.190
95.46000 1.001
95.48000 5.942
95.50000 5.383
95.52000 4.192
95.54000 3.077
95.56000 4.391
95.58000 5.586
95.60000 3.679
95.62000 5.672
95.64000 9.480
95.66000 7.645
95.68000 -0.307
95.70000 6.545
95.72000 4.002
95.74000 3.474
95.76000 1.737
95.78000 4.425
95.80000 -2.317
95.82000 0.202
95.84000 5.367
95.86000 3.780
95.88000 9.450
95.90000 10.970
95.92000 4.914
95.94000 2.272
95.96000 4.297
95.98000 9.374
96.00000 7.157
96.02000 1.515
96.04000 4.426
96.06000 12.467
96.08000 7.475
96.10000 -1.756
96.12000 -0.018
96.14000 8.435
96.16000 8.218
96.18000 7.524
96.20000 2.988
96.22000 5.754
96.24000 9.707
96.26000 6.388
96.28000 4.784
96.30000 6.607
96.32000 2.556
96.34000 0.307
96.36000 9.040
96.38000 9.987
96.40000 12.638
96.42000 7.139
96.44000 2.682
96.46000 6.446
96.48000 6.461
96.50000 7.067
96.52000 4.787
96.54000 -0.698
96.56000 -1.353
96.58000 3.782
96.60000 11.763
96.62000 8.955
96.64000 7.389
96.66000 3.720
96.68000 -2.279
96.70000 3.401
96.72000 8.567
96.74000 5.391
96.76000 1.553
96.78000 6.627
96.80000 10.307
96.82000 10.689
96.84000 5.402
96.86000 2.056
96.88000 4.936
96.90000 6.044
96.92000 9.431
96.94000 7.362
96.96000 11.892
96.98000 10.475
97.00000 11.030
97.02000 11.608
97.04000 1.068
97.06000 3.793
97.08000 4.717
97.10000 -2.234
97.12000 0.942
97.14000 2.808
97.16000 5.628
97.18000 7.235
97.20000 9.219
97.22000 12.730
97.24000 10.231
97.26000 4.955
97.28000 5.068
97.30000 12.543
97.32000 14.470
97.34000 8.244
97.36000 5.341
97.38000 12.829
97.40000 11.821
97.42000 7.277
97.44000 7.672
97.46000 6.134
97.48000 7.792
97.50000 6.712
97.52000 4.414
97.54000 0.023
97.56000 4.769
97.58000 5.851
97.60000 6.059
97.62000 3.312
97.64000 5.447
97.66000 7.901
97.68000 17.932
97.70000 16.806
97.72000 14.137
97.74000 8.349
97.76000 3.678
97.78000 8.473
97.80000 6.855
97.82000 11.767
97.84000 15.511
97.86000 14.495
97.88000 8.630
97.90000 -2.215
97.92000 1.158
97.94000 6.671
97.96000 12.121
97.98000 10.812
98.00000 10.108
98.02000 12.874
98.04000 10.738
98.06000 11.450
98.08000 14.794
98.10000 8.539
98.12000 0.076
98.14000 1.217
98.16000 8.442
98.18000 8.595
98.20000 4.043
98.22000 0.404
98.24000 4.230
98.26000 5.146
98.28000 9.914
98.30000 11.338
98.32000 15.439
98.34000 10.094
98.36000 10.319
98.38000 9.010
98.40000 10.713
98.42000 6.085
98.44000 2.153
98.46000 7.589
98.48000 2.652
98.50000 9.387
98.52000 11.167
98.54000 10.435
98.56000 4.266
98.58000 7.814
98.60000 12.045
98.62000 13.033
98.64000 15.256
98.66000 15.394
98.68000 11.998
98.70000 8.733
98.72000 8.543
98.74000 15.061
98.76000 5.945
98.78000 10.200
98.80000 9.766
98.82000 7.697
98.84000 6.451
98.86000 6.506
98.88000 12.778
98.90000 14.631
98.92000 13.825
98.94000 9.141
98.96000 7.384
98.98000 6.111
99.00000 4.824
99.02000 11.656
99.04000 14.687
99.06000 19.364
99.08000 14.826
99.10000 10.563
99.12000 11.622
99.14000 15.412
99.16000 3.635
99.18000 -2.113
99.20000 0.310
99.22000 7.714
99.24000 15.143
99.26000 8.642
99.28000 12.544
99.30000 12.326
99.32000 5.405
99.34000 14.583
99.36000 16.631
99.38000 5.788
99.40000 7.739
99.42000 7.309
99.44000 11.566
99.46000 8.307
99.48000 14.226
99.50000 10.401
99.52000 10.947
99.54000 9.898
99.56000 13.758
99.58000 5.479
99.60000 12.632
99.62000 7.375
99.64000 9.856
99.66000 13.631
99.68000 12.251
99.70000 11.239
99.72000 7.344
99.74000 -0.523
99.76000 3.618
99.78000 18.614
99.80000 7.393
99.82000 5.531
99.84000 6.454
99.86000 -2.224
99.88000 0.657
99.90000 4.499
99.92000 4.121
99.94000 11.058
99.96000 12.345
99.98000 0.000
