'Id: "0011389" Comment: "Integrate frame 0011389_Au-Ir-Rh_Au-Rich_XRD_Mapping-305-0000.gfrmwith cursor Wedge Cursor #5" Operator: "B?rgel" Anode: "Cu" Wavelength: "1.5406" Scantype: "2Theta (TwoTheta)" TimePerStep: "1" X: "9" Y: "31.5" Z: "5.95" 
10.00000 0.000
10.02000 -0.354
10.04000 -7.093
10.06000 4.230
10.08000 12.167
10.10000 27.899
10.12000 46.809
10.14000 37.754
10.16000 19.470
10.18000 -5.536
10.20000 7.100
10.22000 9.056
10.24000 16.497
10.26000 23.254
10.28000 15.597
10.30000 14.655
10.32000 5.960
10.34000 20.487
10.36000 36.875
10.38000 22.065
10.40000 -0.214
10.42000 13.054
10.44000 13.792
10.46000 1.369
10.48000 5.874
10.50000 4.990
10.52000 17.038
10.54000 14.834
10.56000 0.546
10.58000 14.099
10.60000 11.911
10.62000 -2.411
10.64000 -1.983
10.66000 5.931
10.68000 13.307
10.70000 11.491
10.72000 20.851
10.74000 15.781
10.76000 9.065
10.78000 -4.257
10.80000 7.942
10.82000 11.286
10.84000 3.560
10.86000 7.301
10.88000 5.980
10.90000 16.878
10.92000 10.188
10.94000 12.432
10.96000 16.355
10.98000 13.275
11.00000 10.808
11.02000 17.754
11.04000 10.547
11.06000 1.581
11.08000 13.857
11.10000 11.172
11.12000 12.849
11.14000 2.568
11.16000 8.964
11.18000 14.138
11.20000 8.529
11.22000 12.010
11.24000 22.446
11.26000 28.106
11.28000 22.923
11.30000 12.725
11.32000 17.194
11.34000 18.498
11.36000 9.793
11.38000 7.659
11.40000 14.129
11.42000 7.723
11.44000 6.299
11.46000 12.914
11.48000 2.318
11.50000 2.562
11.52000 19.199
11.54000 22.663
11.56000 13.990
11.58000 19.150
11.60000 18.088
11.62000 21.872
11.64000 8.610
11.66000 9.704
11.68000 22.650
11.70000 23.793
11.72000 26.676
11.74000 26.331
11.76000 22.297
11.78000 27.221
11.80000 29.875
11.82000 25.279
11.84000 5.776
11.86000 1.540
11.88000 0.330
11.90000 3.327
11.92000 18.722
11.94000 15.278
11.96000 13.069
11.98000 8.826
12.00000 3.126
12.02000 14.292
12.04000 16.852
12.06000 18.558
12.08000 18.611
12.10000 12.599
12.12000 7.573
12.14000 18.903
12.16000 17.298
12.18000 13.350
12.20000 15.484
12.22000 16.076
12.24000 15.545
12.26000 18.108
12.28000 21.735
12.30000 20.418
12.32000 7.395
12.34000 10.213
12.36000 13.348
12.38000 15.207
12.40000 16.643
12.42000 11.254
12.44000 -0.648
12.46000 15.548
12.48000 19.102
12.50000 13.006
12.52000 18.884
12.54000 10.283
12.56000 7.352
12.58000 16.206
12.60000 27.670
12.62000 31.497
12.64000 21.571
12.66000 12.204
12.68000 17.675
12.70000 18.026
12.72000 15.760
12.74000 16.111
12.76000 12.009
12.78000 10.991
12.80000 14.142
12.82000 17.611
12.84000 22.037
12.86000 21.915
12.88000 12.851
12.90000 7.620
12.92000 8.881
12.94000 13.160
12.96000 11.250
12.98000 13.519
13.00000 20.778
13.02000 17.257
13.04000 17.669
13.06000 22.367
13.08000 11.855
13.10000 13.951
13.12000 19.992
13.14000 20.940
13.16000 21.639
13.18000 13.919
13.20000 10.388
13.22000 11.933
13.24000 10.946
13.26000 15.859
13.28000 13.990
13.30000 16.492
13.32000 15.428
13.34000 11.268
13.36000 21.278
13.38000 30.342
13.40000 30.065
13.42000 21.804
13.44000 18.356
13.46000 20.872
13.48000 24.904
13.50000 27.153
13.52000 18.898
13.54000 16.091
13.56000 21.310
13.58000 16.005
13.60000 7.964
13.62000 13.181
13.64000 12.002
13.66000 7.223
13.68000 15.734
13.70000 14.118
13.72000 12.963
13.74000 12.707
13.76000 13.479
13.78000 11.924
13.80000 11.397
13.82000 18.441
13.84000 15.213
13.86000 8.808
13.88000 3.450
13.90000 11.618
13.92000 10.939
13.94000 16.463
13.96000 11.137
13.98000 7.271
14.00000 4.272
14.02000 8.932
14.04000 18.985
14.06000 17.584
14.08000 14.942
14.10000 22.120
14.12000 15.812
14.14000 2.292
14.16000 4.419
14.18000 9.202
14.20000 6.615
14.22000 8.111
14.24000 11.755
14.26000 9.874
14.28000 15.299
14.30000 17.505
14.32000 18.494
14.34000 14.970
14.36000 12.242
14.38000 22.022
14.40000 6.124
14.42000 5.632
14.44000 15.707
14.46000 20.026
14.48000 12.713
14.50000 6.180
14.52000 2.833
14.54000 1.630
14.56000 11.932
14.58000 19.377
14.60000 18.989
14.62000 4.536
14.64000 6.020
14.66000 15.747
14.68000 8.102
14.70000 -2.186
14.72000 4.882
14.74000 -0.259
14.76000 5.866
14.78000 10.745
14.80000 10.028
14.82000 15.952
14.84000 14.339
14.86000 11.839
14.88000 6.769
14.90000 7.701
14.92000 9.535
14.94000 9.199
14.96000 10.597
14.98000 12.438
15.00000 13.661
15.02000 18.378
15.04000 11.447
15.06000 7.146
15.08000 5.292
15.10000 9.436
15.12000 14.942
15.14000 15.236
15.16000 7.719
15.18000 14.600
15.20000 7.873
15.22000 9.083
15.24000 -1.411
15.26000 -0.498
15.28000 6.367
15.30000 11.526
15.32000 7.951
15.34000 5.884
15.36000 0.553
15.38000 2.067
15.40000 3.697
15.42000 9.529
15.44000 13.196
15.46000 11.069
15.48000 14.654
15.50000 14.243
15.52000 6.889
15.54000 6.753
15.56000 1.581
15.58000 4.822
15.60000 8.520
15.62000 6.334
15.64000 10.657
15.66000 10.351
15.68000 7.895
15.70000 8.404
15.72000 13.516
15.74000 7.136
15.76000 8.246
15.78000 9.996
15.80000 8.164
15.82000 6.440
15.84000 2.168
15.86000 -0.780
15.88000 0.425
15.90000 10.972
15.92000 8.744
15.94000 2.476
15.96000 4.688
15.98000 1.252
16.00000 -0.003
16.02000 10.435
16.04000 14.351
16.06000 5.745
16.08000 -0.758
16.10000 7.990
16.12000 4.159
16.14000 0.079
16.16000 11.667
16.18000 11.744
16.20000 10.048
16.22000 11.529
16.24000 12.215
16.26000 4.823
16.28000 1.345
16.30000 -4.461
16.32000 2.838
16.34000 8.987
16.36000 4.960
16.38000 0.799
16.40000 -1.185
16.42000 5.640
16.44000 13.617
16.46000 20.924
16.48000 6.166
16.50000 1.835
16.52000 -4.307
16.54000 2.358
16.56000 6.265
16.58000 8.203
16.60000 8.058
16.62000 21.737
16.64000 13.743
16.66000 4.276
16.68000 3.733
16.70000 3.414
16.72000 4.884
16.74000 8.092
16.76000 11.041
16.78000 10.322
16.80000 7.370
16.82000 5.255
16.84000 1.009
16.86000 6.013
16.88000 4.819
16.90000 10.311
16.92000 4.020
16.94000 7.047
16.96000 4.599
16.98000 1.445
17.00000 -2.787
17.02000 8.172
17.04000 14.873
17.06000 8.237
17.08000 4.149
17.10000 6.160
17.12000 2.310
17.14000 6.163
17.16000 3.805
17.18000 1.645
17.20000 11.821
17.22000 10.617
17.24000 4.321
17.26000 4.124
17.28000 5.758
17.30000 7.318
17.32000 15.581
17.34000 11.135
17.36000 7.880
17.38000 0.531
17.40000 -0.235
17.42000 4.169
17.44000 10.086
17.46000 6.291
17.48000 11.764
17.50000 10.894
17.52000 9.524
17.54000 4.225
17.56000 5.767
17.58000 6.981
17.60000 3.614
17.62000 7.321
17.64000 5.979
17.66000 1.325
17.68000 2.213
17.70000 7.566
17.72000 12.188
17.74000 7.084
17.76000 1.511
17.78000 0.081
17.80000 -4.406
17.82000 0.999
17.84000 3.515
17.86000 6.897
17.88000 7.311
17.90000 6.104
17.92000 4.088
17.94000 2.204
17.96000 4.707
17.98000 6.281
18.00000 4.836
18.02000 6.766
18.04000 6.221
18.06000 6.594
18.08000 4.803
18.10000 4.401
18.12000 7.266
18.14000 6.156
18.16000 4.623
18.18000 3.666
18.20000 4.770
18.22000 -0.611
18.24000 7.400
18.26000 8.473
18.28000 2.239
18.30000 -3.084
18.32000 3.936
18.34000 0.127
18.36000 -1.426
18.38000 2.057
18.40000 7.375
18.42000 12.016
18.44000 0.830
18.46000 2.527
18.48000 4.850
18.50000 14.269
18.52000 6.892
18.54000 1.074
18.56000 2.426
18.58000 1.346
18.60000 -2.698
18.62000 -4.350
18.64000 1.215
18.66000 5.206
18.68000 -0.834
18.70000 -1.178
18.72000 0.132
18.74000 3.591
18.76000 2.598
18.78000 1.521
18.80000 1.046
18.82000 2.594
18.84000 -0.005
18.86000 1.684
18.88000 5.403
18.90000 7.887
18.92000 2.008
18.94000 5.027
18.96000 2.831
18.98000 5.024
19.00000 -3.049
19.02000 -2.432
19.04000 3.573
19.06000 8.053
19.08000 5.914
19.10000 -0.838
19.12000 -3.859
19.14000 -4.131
19.16000 -4.314
19.18000 -0.990
19.20000 -0.232
19.22000 2.036
19.24000 8.829
19.26000 10.548
19.28000 11.690
19.30000 8.387
19.32000 1.871
19.34000 4.927
19.36000 8.187
19.38000 6.956
19.40000 6.994
19.42000 8.578
19.44000 4.784
19.46000 6.629
19.48000 7.803
19.50000 1.436
19.52000 4.416
19.54000 2.154
19.56000 0.140
19.58000 4.920
19.60000 4.584
19.62000 -4.291
19.64000 1.653
19.66000 10.107
19.68000 6.122
19.70000 7.902
19.72000 11.475
19.74000 5.507
19.76000 2.679
19.78000 -0.905
19.80000 -4.174
19.82000 -0.436
19.84000 0.904
19.86000 3.558
19.88000 3.474
19.90000 6.826
19.92000 2.452
19.94000 3.367
19.96000 -2.121
19.98000 4.770
20.00000 11.004
20.02000 12.482
20.04000 7.655
20.06000 3.646
20.08000 6.574
20.10000 -2.109
20.12000 1.179
20.14000 3.516
20.16000 3.266
20.18000 6.269
20.20000 3.036
20.22000 5.711
20.24000 5.789
20.26000 2.791
20.28000 1.252
20.30000 10.447
20.32000 10.732
20.34000 -0.301
20.36000 3.441
20.38000 5.783
20.40000 9.166
20.42000 9.273
20.44000 4.503
20.46000 0.413
20.48000 1.301
20.50000 4.707
20.52000 7.986
20.54000 4.124
20.56000 12.507
20.58000 11.368
20.60000 8.439
20.62000 8.862
20.64000 3.588
20.66000 4.711
20.68000 -1.566
20.70000 -3.324
20.72000 1.840
20.74000 4.907
20.76000 -0.473
20.78000 7.303
20.80000 1.043
20.82000 1.738
20.84000 1.276
20.86000 0.108
20.88000 -1.561
20.90000 3.248
20.92000 9.737
20.94000 3.398
20.96000 -0.055
20.98000 -4.199
21.00000 -1.096
21.02000 1.081
21.04000 -3.383
21.06000 -3.657
21.08000 2.810
21.10000 5.956
21.12000 4.571
21.14000 8.677
21.16000 5.380
21.18000 -0.699
21.20000 -1.925
21.22000 -2.716
21.24000 0.482
21.26000 5.749
21.28000 11.251
21.30000 16.525
21.32000 12.168
21.34000 -2.157
21.36000 -2.249
21.38000 3.731
21.40000 6.637
21.42000 3.318
21.44000 3.998
21.46000 2.304
21.48000 -4.175
21.50000 2.337
21.52000 4.781
21.54000 4.948
21.56000 8.741
21.58000 4.987
21.60000 4.816
21.62000 2.298
21.64000 7.608
21.66000 13.612
21.68000 7.807
21.70000 4.684
21.72000 9.891
21.74000 4.413
21.76000 3.534
21.78000 0.645
21.80000 4.767
21.82000 -0.575
21.84000 3.405
21.86000 2.652
21.88000 -3.116
21.90000 -2.802
21.92000 0.180
21.94000 5.833
21.96000 3.433
21.98000 6.277
22.00000 5.367
22.02000 4.202
22.04000 -1.921
22.06000 3.657
22.08000 0.011
22.10000 2.442
22.12000 2.077
22.14000 7.688
22.16000 5.641
22.18000 -0.760
22.20000 -0.901
22.22000 -1.155
22.24000 1.236
22.26000 5.975
22.28000 3.786
22.30000 0.399
22.32000 5.993
22.34000 5.985
22.36000 10.653
22.38000 5.480
22.40000 4.943
22.42000 5.809
22.44000 -0.094
22.46000 0.268
22.48000 5.268
22.50000 13.121
22.52000 4.886
22.54000 1.910
22.56000 -0.007
22.58000 2.130
22.60000 -1.260
22.62000 2.568
22.64000 6.780
22.66000 8.527
22.68000 3.724
22.70000 -3.572
22.72000 -0.313
22.74000 6.631
22.76000 5.784
22.78000 2.110
22.80000 0.040
22.82000 4.090
22.84000 0.876
22.86000 7.651
22.88000 11.170
22.90000 7.027
22.92000 5.579
22.94000 -1.033
22.96000 2.953
22.98000 1.956
23.00000 8.685
23.02000 5.742
23.04000 -0.512
23.06000 2.221
23.08000 4.453
23.10000 1.993
23.12000 1.378
23.14000 4.595
23.16000 0.948
23.18000 6.045
23.20000 9.738
23.22000 6.249
23.24000 2.221
23.26000 3.319
23.28000 12.529
23.30000 8.690
23.32000 0.586
23.34000 1.846
23.36000 2.446
23.38000 2.110
23.40000 5.052
23.42000 3.641
23.44000 6.904
23.46000 9.149
23.48000 2.055
23.50000 5.916
23.52000 8.138
23.54000 2.857
23.56000 1.238
23.58000 0.733
23.60000 8.024
23.62000 8.723
23.64000 8.340
23.66000 3.814
23.68000 3.544
23.70000 6.714
23.72000 1.958
23.74000 -0.363
23.76000 -3.700
23.78000 -0.991
23.80000 3.292
23.82000 6.435
23.84000 11.038
23.86000 6.822
23.88000 -4.022
23.90000 -3.647
23.92000 2.709
23.94000 5.133
23.96000 8.176
23.98000 12.364
24.00000 7.646
24.02000 -1.834
24.04000 1.965
24.06000 7.010
24.08000 6.537
24.10000 8.093
24.12000 1.663
24.14000 1.651
24.16000 4.729
24.18000 4.849
24.20000 6.605
24.22000 5.371
24.24000 2.670
24.26000 4.883
24.28000 7.561
24.30000 4.370
24.32000 -1.411
24.34000 -0.550
24.36000 -0.357
24.38000 0.549
24.40000 1.435
24.42000 0.126
24.44000 -4.007
24.46000 -2.531
24.48000 3.298
24.50000 6.145
24.52000 4.097
24.54000 4.337
24.56000 4.823
24.58000 1.765
24.60000 4.907
24.62000 5.981
24.64000 8.660
24.66000 3.580
24.68000 -0.903
24.70000 0.894
24.72000 -0.601
24.74000 -0.271
24.76000 3.156
24.78000 8.428
24.80000 5.468
24.82000 2.630
24.84000 6.655
24.86000 8.594
24.88000 4.582
24.90000 8.932
24.92000 4.113
24.94000 -1.709
24.96000 1.982
24.98000 3.994
25.00000 6.129
25.02000 7.034
25.04000 11.500
25.06000 8.526
25.08000 4.649
25.10000 4.772
25.12000 2.010
25.14000 4.766
25.16000 6.262
25.18000 6.382
25.20000 4.909
25.22000 4.861
25.24000 2.920
25.26000 -0.307
25.28000 0.434
25.30000 -0.883
25.32000 6.906
25.34000 5.376
25.36000 1.990
25.38000 1.551
25.40000 6.650
25.42000 10.879
25.44000 3.919
25.46000 2.824
25.48000 3.948
25.50000 -3.952
25.52000 0.192
25.54000 7.593
25.56000 4.534
25.58000 -1.377
25.60000 5.136
25.62000 4.286
25.64000 6.847
25.66000 3.788
25.68000 4.619
25.70000 4.268
25.72000 3.539
25.74000 4.345
25.76000 -1.670
25.78000 -0.198
25.80000 0.439
25.82000 0.785
25.84000 7.755
25.86000 8.445
25.88000 8.320
25.90000 5.629
25.92000 5.364
25.94000 0.995
25.96000 0.570
25.98000 -2.136
26.00000 0.786
26.02000 -1.754
26.04000 2.414
26.06000 4.568
26.08000 4.336
26.10000 5.736
26.12000 1.733
26.14000 -2.557
26.16000 -2.180
26.18000 -2.326
26.20000 -2.063
26.22000 0.847
26.24000 4.165
26.26000 4.261
26.28000 2.489
26.30000 4.853
26.32000 4.888
26.34000 3.925
26.36000 1.103
26.38000 2.054
26.40000 1.176
26.42000 6.275
26.44000 6.471
26.46000 4.697
26.48000 3.917
26.50000 6.418
26.52000 5.832
26.54000 -3.283
26.56000 -3.913
26.58000 -1.428
26.60000 0.075
26.62000 9.849
26.64000 4.643
26.66000 -0.981
26.68000 4.252
26.70000 8.722
26.72000 6.061
26.74000 8.107
26.76000 6.064
26.78000 4.426
26.80000 1.514
26.82000 -2.275
26.84000 -2.818
26.86000 1.130
26.88000 0.878
26.90000 4.167
26.92000 0.819
26.94000 2.084
26.96000 2.679
26.98000 4.917
27.00000 7.060
27.02000 5.606
27.04000 5.217
27.06000 5.992
27.08000 6.741
27.10000 5.293
27.12000 5.600
27.14000 5.188
27.16000 3.229
27.18000 0.981
27.20000 1.685
27.22000 2.343
27.24000 4.506
27.26000 4.522
27.28000 4.440
27.30000 11.149
27.32000 4.492
27.34000 3.777
27.36000 9.842
27.38000 10.203
27.40000 5.911
27.42000 -0.507
27.44000 -0.658
27.46000 4.520
27.48000 1.483
27.50000 -1.262
27.52000 -0.345
27.54000 1.055
27.56000 -3.863
27.58000 -0.883
27.60000 9.326
27.62000 9.153
27.64000 2.931
27.66000 6.697
27.68000 4.173
27.70000 6.102
27.72000 2.129
27.74000 0.255
27.76000 -2.135
27.78000 -0.843
27.80000 1.233
27.82000 4.234
27.84000 1.082
27.86000 0.760
27.88000 2.518
27.90000 0.287
27.92000 -1.910
27.94000 1.391
27.96000 6.243
27.98000 3.507
28.00000 1.045
28.02000 4.006
28.04000 6.331
28.06000 6.634
28.08000 7.268
28.10000 4.905
28.12000 -0.427
28.14000 2.060
28.16000 2.989
28.18000 2.366
28.20000 1.548
28.22000 8.974
28.24000 12.377
28.26000 6.086
28.28000 4.238
28.30000 1.635
28.32000 1.801
28.34000 5.463
28.36000 7.614
28.38000 5.761
28.40000 4.746
28.42000 1.862
28.44000 -2.146
28.46000 -3.794
28.48000 0.023
28.50000 1.534
28.52000 5.072
28.54000 11.292
28.56000 4.563
28.58000 6.521
28.60000 6.308
28.62000 1.359
28.64000 0.703
28.66000 4.140
28.68000 3.643
28.70000 6.517
28.72000 2.330
28.74000 -1.105
28.76000 0.012
28.78000 2.791
28.80000 3.309
28.82000 2.929
28.84000 2.980
28.86000 2.456
28.88000 2.258
28.90000 1.834
28.92000 0.119
28.94000 3.463
28.96000 5.975
28.98000 2.581
29.00000 1.079
29.02000 0.623
29.04000 8.594
29.06000 8.197
29.08000 9.603
29.10000 9.876
29.12000 1.466
29.14000 1.466
29.16000 3.327
29.18000 6.441
29.20000 10.577
29.22000 9.052
29.24000 10.322
29.26000 12.955
29.28000 7.767
29.30000 1.373
29.32000 -3.745
29.34000 0.222
29.36000 -0.716
29.38000 3.424
29.40000 5.351
29.42000 7.465
29.44000 3.000
29.46000 1.737
29.48000 1.859
29.50000 7.723
29.52000 6.853
29.54000 0.644
29.56000 2.003
29.58000 7.022
29.60000 -0.747
29.62000 1.003
29.64000 4.123
29.66000 5.476
29.68000 1.226
29.70000 3.021
29.72000 7.305
29.74000 5.709
29.76000 7.944
29.78000 7.959
29.80000 8.794
29.82000 2.056
29.84000 4.916
29.86000 9.177
29.88000 6.430
29.90000 6.789
29.92000 9.055
29.94000 5.704
29.96000 3.655
29.98000 3.812
30.00000 6.131
30.02000 10.313
30.04000 12.304
30.06000 5.206
30.08000 8.401
30.10000 7.117
30.12000 5.008
30.14000 2.420
30.16000 6.892
30.18000 8.526
30.20000 5.041
30.22000 2.358
30.24000 2.372
30.26000 6.152
30.28000 10.470
30.30000 10.477
30.32000 11.327
30.34000 9.040
30.36000 8.393
30.38000 6.899
30.40000 2.128
30.42000 -3.696
30.44000 2.271
30.46000 7.357
30.48000 8.229
30.50000 9.081
30.52000 7.672
30.54000 5.412
30.56000 1.609
30.58000 7.136
30.60000 7.238
30.62000 1.826
30.64000 1.444
30.66000 7.335
30.68000 1.634
30.70000 5.364
30.72000 7.337
30.74000 5.415
30.76000 8.708
30.78000 10.299
30.80000 7.778
30.82000 7.226
30.84000 6.980
30.86000 6.133
30.88000 -1.648
30.90000 2.406
30.92000 0.566
30.94000 -0.652
30.96000 1.108
30.98000 2.483
31.00000 7.449
31.02000 5.278
31.04000 6.644
31.06000 6.579
31.08000 1.502
31.10000 2.436
31.12000 5.623
31.14000 10.057
31.16000 4.623
31.18000 1.768
31.20000 7.115
31.22000 3.796
31.24000 1.830
31.26000 1.194
31.28000 4.457
31.30000 5.773
31.32000 3.297
31.34000 1.596
31.36000 1.639
31.38000 1.545
31.40000 2.693
31.42000 1.530
31.44000 1.324
31.46000 5.408
31.48000 8.765
31.50000 8.601
31.52000 2.656
31.54000 -2.485
31.56000 0.063
31.58000 3.286
31.60000 3.514
31.62000 2.652
31.64000 4.206
31.66000 7.864
31.68000 6.159
31.70000 2.001
31.72000 -1.997
31.74000 -0.827
31.76000 -2.430
31.78000 -1.130
31.80000 -0.367
31.82000 2.964
31.84000 0.340
31.86000 4.874
31.88000 8.447
31.90000 7.690
31.92000 7.009
31.94000 6.845
31.96000 6.897
31.98000 1.421
32.00000 2.034
32.02000 4.831
32.04000 0.779
32.06000 -1.199
32.08000 2.023
32.10000 3.339
32.12000 3.515
32.14000 5.179
32.16000 2.295
32.18000 1.880
32.20000 1.490
32.22000 1.044
32.24000 -3.663
32.26000 -2.174
32.28000 3.099
32.30000 5.359
32.32000 5.292
32.34000 2.452
32.36000 0.464
32.38000 1.193
32.40000 3.381
32.42000 2.359
32.44000 2.144
32.46000 -3.054
32.48000 0.253
32.50000 2.492
32.52000 0.880
32.54000 1.059
32.56000 2.173
32.58000 2.593
32.60000 -0.406
32.62000 4.045
32.64000 3.659
32.66000 6.222
32.68000 4.790
32.70000 6.284
32.72000 2.374
32.74000 3.006
32.76000 4.469
32.78000 6.626
32.80000 4.150
32.82000 0.123
32.84000 2.059
32.86000 1.528
32.88000 -2.624
32.90000 -3.654
32.92000 0.168
32.94000 1.165
32.96000 0.991
32.98000 3.059
33.00000 6.690
33.02000 5.630
33.04000 3.084
33.06000 2.811
33.08000 1.876
33.10000 -0.480
33.12000 3.746
33.14000 -3.296
33.16000 -1.011
33.18000 2.730
33.20000 4.169
33.22000 2.976
33.24000 2.703
33.26000 -2.002
33.28000 -0.736
33.30000 1.566
33.32000 3.151
33.34000 -1.202
33.36000 -0.661
33.38000 3.378
33.40000 0.593
33.42000 0.741
33.44000 5.730
33.46000 5.798
33.48000 4.118
33.50000 3.863
33.52000 3.880
33.54000 2.202
33.56000 -0.443
33.58000 0.507
33.60000 4.028
33.62000 3.061
33.64000 2.933
33.66000 5.352
33.68000 6.117
33.70000 5.656
33.72000 5.729
33.74000 5.660
33.76000 0.915
33.78000 -0.811
33.80000 -0.261
33.82000 3.575
33.84000 3.753
33.86000 2.162
33.88000 1.158
33.90000 -1.124
33.92000 0.311
33.94000 5.515
33.96000 7.075
33.98000 4.293
34.00000 -0.942
34.02000 0.988
34.04000 5.009
34.06000 7.616
34.08000 6.138
34.10000 2.932
34.12000 1.951
34.14000 -1.467
34.16000 1.758
34.18000 7.798
34.20000 14.461
34.22000 13.382
34.24000 6.589
34.26000 5.994
34.28000 10.226
34.30000 12.460
34.32000 7.618
34.34000 6.936
34.36000 4.444
34.38000 3.300
34.40000 4.763
34.42000 9.672
34.44000 3.354
34.46000 1.469
34.48000 2.762
34.50000 5.682
34.52000 7.405
34.54000 8.975
34.56000 4.220
34.58000 1.434
34.60000 5.316
34.62000 4.013
34.64000 7.123
34.66000 9.143
34.68000 6.318
34.70000 7.372
34.72000 5.412
34.74000 8.115
34.76000 5.893
34.78000 -3.602
34.80000 5.356
34.82000 5.527
34.84000 1.658
34.86000 4.842
34.88000 1.621
34.90000 4.713
34.92000 7.533
34.94000 5.825
34.96000 2.872
34.98000 2.738
35.00000 2.214
35.02000 3.524
35.04000 3.584
35.06000 7.542
35.08000 2.696
35.10000 0.547
35.12000 0.311
35.14000 0.790
35.16000 3.067
35.18000 2.859
35.20000 0.147
35.22000 4.980
35.24000 3.504
35.26000 4.926
35.28000 10.001
35.30000 6.918
35.32000 -0.804
35.34000 3.155
35.36000 0.757
35.38000 0.393
35.40000 -3.626
35.42000 0.175
35.44000 0.786
35.46000 0.528
35.48000 2.869
35.50000 4.150
35.52000 5.844
35.54000 1.496
35.56000 -0.940
35.58000 -2.729
35.60000 1.501
35.62000 4.191
35.64000 0.709
35.66000 2.664
35.68000 1.065
35.70000 3.306
35.72000 3.306
35.74000 0.755
35.76000 -3.649
35.78000 -3.339
35.80000 6.431
35.82000 0.348
35.84000 0.798
35.86000 5.890
35.88000 2.738
35.90000 1.836
35.92000 0.295
35.94000 2.265
35.96000 2.936
35.98000 0.772
36.00000 0.499
36.02000 0.333
36.04000 1.564
36.06000 1.485
36.08000 3.053
36.10000 1.523
36.12000 3.816
36.14000 4.777
36.16000 3.839
36.18000 -1.204
36.20000 0.349
36.22000 4.742
36.24000 1.651
36.26000 1.122
36.28000 -3.645
36.30000 -3.685
36.32000 4.043
36.34000 5.506
36.36000 -0.065
36.38000 0.080
36.40000 2.240
36.42000 4.155
36.44000 0.914
36.46000 3.508
36.48000 0.388
36.50000 2.869
36.52000 4.744
36.54000 1.976
36.56000 4.053
36.58000 9.401
36.60000 7.638
36.62000 1.717
36.64000 1.176
36.66000 3.060
36.68000 4.105
36.70000 6.728
36.72000 7.288
36.74000 3.995
36.76000 4.758
36.78000 2.419
36.80000 5.191
36.82000 -1.077
36.84000 -0.241
36.86000 -0.011
36.88000 -0.325
36.90000 0.857
36.92000 6.931
36.94000 9.403
36.96000 7.765
36.98000 8.856
37.00000 8.129
37.02000 5.392
37.04000 5.248
37.06000 8.702
37.08000 8.983
37.10000 8.430
37.12000 11.705
37.14000 8.308
37.16000 9.738
37.18000 12.094
37.20000 8.465
37.22000 7.920
37.24000 14.489
37.26000 14.248
37.28000 13.702
37.30000 16.176
37.32000 20.202
37.34000 19.741
37.36000 18.305
37.38000 17.962
37.40000 17.803
37.42000 21.469
37.44000 16.183
37.46000 18.007
37.48000 18.772
37.50000 17.965
37.52000 13.106
37.54000 15.674
37.56000 21.652
37.58000 23.752
37.60000 23.366
37.62000 21.375
37.64000 22.484
37.66000 20.309
37.68000 16.961
37.70000 22.160
37.72000 25.007
37.74000 27.344
37.76000 27.242
37.78000 29.595
37.80000 32.373
37.82000 31.748
37.84000 28.492
37.86000 30.731
37.88000 30.839
37.90000 36.419
37.92000 38.239
37.94000 36.453
37.96000 33.665
37.98000 36.087
38.00000 35.834
38.02000 37.833
38.04000 41.032
38.06000 41.309
38.08000 43.260
38.10000 44.371
38.12000 49.669
38.14000 50.452
38.16000 48.216
38.18000 48.527
38.20000 48.363
38.22000 50.019
38.24000 57.004
38.26000 59.848
38.28000 62.748
38.30000 60.092
38.32000 65.265
38.34000 74.995
38.36000 75.479
38.38000 77.671
38.40000 83.121
38.42000 85.058
38.44000 87.678
38.46000 86.088
38.48000 89.919
38.50000 94.812
38.52000 103.846
38.54000 114.010
38.56000 118.571
38.58000 122.376
38.60000 131.106
38.62000 140.286
38.64000 148.986
38.66000 156.232
38.68000 158.962
38.70000 166.766
38.72000 181.274
38.74000 195.784
38.76000 210.778
38.78000 220.504
38.80000 229.613
38.82000 236.081
38.84000 251.987
38.86000 266.699
38.88000 277.942
38.90000 284.960
38.92000 295.956
38.94000 308.652
38.96000 310.834
38.98000 320.719
39.00000 335.913
39.02000 344.790
39.04000 342.994
39.06000 347.534
39.08000 343.436
39.10000 341.861
39.12000 346.539
39.14000 339.668
39.16000 329.952
39.18000 323.787
39.20000 327.729
39.22000 322.028
39.24000 301.765
39.26000 298.695
39.28000 291.775
39.30000 270.938
39.32000 257.964
39.34000 248.023
39.36000 233.877
39.38000 230.416
39.40000 225.632
39.42000 204.040
39.44000 188.598
39.46000 182.290
39.48000 173.313
39.50000 162.809
39.52000 154.856
39.54000 148.330
39.56000 140.562
39.58000 128.477
39.60000 125.688
39.62000 106.904
39.64000 96.965
39.66000 91.765
39.68000 95.747
39.70000 85.846
39.72000 83.071
39.74000 80.464
39.76000 74.417
39.78000 70.109
39.80000 63.813
39.82000 62.185
39.84000 59.087
39.86000 57.554
39.88000 54.625
39.90000 47.916
39.92000 45.426
39.94000 43.416
39.96000 44.282
39.98000 41.201
40.00000 39.141
40.02000 37.362
40.04000 35.651
40.06000 35.611
40.08000 35.419
40.10000 34.810
40.12000 33.060
40.14000 31.054
40.16000 25.209
40.18000 25.579
40.20000 28.577
40.22000 26.543
40.24000 19.391
40.26000 18.192
40.28000 18.877
40.30000 18.424
40.32000 17.927
40.34000 14.089
40.36000 15.274
40.38000 14.110
40.40000 14.545
40.42000 13.943
40.44000 15.133
40.46000 17.979
40.48000 20.888
40.50000 16.476
40.52000 14.652
40.54000 19.032
40.56000 15.366
40.58000 11.643
40.60000 16.680
40.62000 11.141
40.64000 7.777
40.66000 7.349
40.68000 9.064
40.70000 10.098
40.72000 7.513
40.74000 6.818
40.76000 4.967
40.78000 9.295
40.80000 9.391
40.82000 5.363
40.84000 5.051
40.86000 6.696
40.88000 8.449
40.90000 5.492
40.92000 6.057
40.94000 3.700
40.96000 3.803
40.98000 4.691
41.00000 2.774
41.02000 0.110
41.04000 -0.381
41.06000 0.239
41.08000 3.509
41.10000 3.780
41.12000 2.443
41.14000 1.714
41.16000 5.333
41.18000 5.022
41.20000 1.817
41.22000 1.848
41.24000 0.766
41.26000 2.722
41.28000 0.895
41.30000 -0.260
41.32000 0.995
41.34000 -0.976
41.36000 0.689
41.38000 1.865
41.40000 0.033
41.42000 0.600
41.44000 1.572
41.46000 2.791
41.48000 3.965
41.50000 -0.664
41.52000 -2.070
41.54000 -1.852
41.56000 -0.169
41.58000 -0.907
41.60000 0.239
41.62000 -0.005
41.64000 0.573
41.66000 1.858
41.68000 0.516
41.70000 2.791
41.72000 5.522
41.74000 0.286
41.76000 -3.252
41.78000 -0.432
41.80000 -1.543
41.82000 0.790
41.84000 2.653
41.86000 -1.972
41.88000 -3.438
41.90000 -1.348
41.92000 -0.771
41.94000 -1.364
41.96000 -0.974
41.98000 -0.367
42.00000 0.887
42.02000 -2.191
42.04000 -0.606
42.06000 4.748
42.08000 4.035
42.10000 1.058
42.12000 1.201
42.14000 1.101
42.16000 2.129
42.18000 -0.727
42.20000 2.210
42.22000 4.754
42.24000 -0.537
42.26000 0.692
42.28000 -1.449
42.30000 -0.761
42.32000 -0.803
42.34000 0.528
42.36000 -2.267
42.38000 -3.343
42.40000 0.660
42.42000 -0.180
42.44000 2.231
42.46000 -0.969
42.48000 1.781
42.50000 4.523
42.52000 4.887
42.54000 0.770
42.56000 3.045
42.58000 1.402
42.60000 2.107
42.62000 6.129
42.64000 4.632
42.66000 3.761
42.68000 3.259
42.70000 1.032
42.72000 2.007
42.74000 0.745
42.76000 -1.618
42.78000 0.270
42.80000 1.143
42.82000 2.540
42.84000 2.980
42.86000 0.773
42.88000 -1.716
42.90000 1.175
42.92000 4.108
42.94000 2.153
42.96000 4.071
42.98000 6.611
43.00000 1.780
43.02000 -3.260
43.04000 -2.195
43.06000 0.876
43.08000 4.151
43.10000 4.753
43.12000 3.985
43.14000 0.021
43.16000 3.437
43.18000 3.562
43.20000 4.589
43.22000 1.368
43.24000 2.157
43.26000 2.429
43.28000 6.023
43.30000 3.505
43.32000 5.210
43.34000 2.616
43.36000 -0.036
43.38000 2.011
43.40000 0.442
43.42000 1.044
43.44000 -1.723
43.46000 -1.828
43.48000 -0.415
43.50000 -1.535
43.52000 -1.513
43.54000 -2.221
43.56000 0.151
43.58000 1.995
43.60000 3.707
43.62000 1.609
43.64000 -1.353
43.66000 0.761
43.68000 4.201
43.70000 3.201
43.72000 2.872
43.74000 -1.220
43.76000 -0.731
43.78000 0.610
43.80000 1.498
43.82000 1.559
43.84000 3.144
43.86000 1.105
43.88000 -0.951
43.90000 -0.963
43.92000 1.955
43.94000 6.364
43.96000 2.890
43.98000 0.957
44.00000 0.914
44.02000 6.031
44.04000 5.265
44.06000 4.243
44.08000 3.218
44.10000 1.614
44.12000 3.105
44.14000 6.952
44.16000 3.470
44.18000 3.791
44.20000 4.904
44.22000 3.871
44.24000 1.373
44.26000 3.656
44.28000 8.106
44.30000 10.131
44.32000 4.681
44.34000 6.657
44.36000 10.352
44.38000 10.877
44.40000 6.494
44.42000 3.852
44.44000 8.746
44.46000 7.601
44.48000 6.152
44.50000 9.320
44.52000 8.369
44.54000 7.812
44.56000 15.288
44.58000 16.530
44.60000 17.401
44.62000 15.881
44.64000 12.796
44.66000 13.489
44.68000 12.603
44.70000 13.237
44.72000 14.410
44.74000 14.145
44.76000 18.555
44.78000 22.075
44.80000 25.038
44.82000 23.994
44.84000 25.768
44.86000 29.371
44.88000 27.870
44.90000 26.983
44.92000 29.335
44.94000 32.072
44.96000 30.760
44.98000 35.650
45.00000 36.958
45.02000 38.153
45.04000 41.364
45.06000 40.699
45.08000 34.343
45.10000 45.360
45.12000 51.165
45.14000 49.863
45.16000 51.403
45.18000 52.523
45.20000 56.997
45.22000 62.031
45.24000 64.640
45.26000 65.754
45.28000 67.085
45.30000 71.240
45.32000 76.422
45.34000 76.914
45.36000 79.802
45.38000 87.188
45.40000 91.576
45.42000 87.445
45.44000 90.093
45.46000 89.150
45.48000 94.460
45.50000 95.552
45.52000 98.110
45.54000 104.824
45.56000 106.033
45.58000 104.408
45.60000 98.068
45.62000 96.349
45.64000 99.728
45.66000 105.834
45.68000 102.764
45.70000 102.675
45.72000 98.781
45.74000 99.213
45.76000 99.640
45.78000 98.259
45.80000 95.908
45.82000 91.518
45.84000 92.043
45.86000 90.520
45.88000 87.430
45.90000 82.975
45.92000 82.610
45.94000 77.632
45.96000 74.642
45.98000 68.984
46.00000 65.018
46.02000 69.076
46.04000 65.398
46.06000 58.612
46.08000 53.007
46.10000 50.334
46.12000 51.328
46.14000 49.654
46.16000 44.787
46.18000 45.932
46.20000 44.547
46.22000 38.419
46.24000 33.844
46.26000 35.852
46.28000 36.137
46.30000 31.194
46.32000 30.475
46.34000 25.178
46.36000 23.676
46.38000 22.676
46.40000 21.748
46.42000 25.346
46.44000 20.499
46.46000 17.837
46.48000 18.596
46.50000 18.425
46.52000 12.441
46.54000 13.672
46.56000 14.291
46.58000 11.697
46.60000 9.921
46.62000 8.945
46.64000 8.879
46.66000 6.181
46.68000 2.983
46.70000 9.060
46.72000 11.406
46.74000 9.302
46.76000 11.397
46.78000 8.451
46.80000 1.640
46.82000 3.626
46.84000 6.743
46.86000 4.367
46.88000 -0.347
46.90000 6.709
46.92000 4.419
46.94000 -1.435
46.96000 -1.677
46.98000 1.562
47.00000 5.202
47.02000 1.166
47.04000 -0.102
47.06000 -2.207
47.08000 -0.643
47.10000 -2.894
47.12000 -0.125
47.14000 6.420
47.16000 5.799
47.18000 0.152
47.20000 -0.707
47.22000 0.992
47.24000 -0.693
47.26000 -0.138
47.28000 -2.103
47.30000 -0.921
47.32000 -2.219
47.34000 -0.104
47.36000 2.969
47.38000 3.742
47.40000 1.824
47.42000 -1.641
47.44000 -0.609
47.46000 1.904
47.48000 1.152
47.50000 -0.690
47.52000 -2.431
47.54000 -1.610
47.56000 1.162
47.58000 2.751
47.60000 4.222
47.62000 4.507
47.64000 5.936
47.66000 1.908
47.68000 1.106
47.70000 3.231
47.72000 -2.787
47.74000 3.471
47.76000 3.389
47.78000 -2.480
47.80000 1.193
47.82000 2.324
47.84000 1.881
47.86000 -0.754
47.88000 1.606
47.90000 4.644
47.92000 3.807
47.94000 2.213
47.96000 2.043
47.98000 2.212
48.00000 1.707
48.02000 0.357
48.04000 -0.046
48.06000 2.814
48.08000 3.955
48.10000 2.371
48.12000 -2.102
48.14000 2.127
48.16000 4.039
48.18000 2.364
48.20000 4.645
48.22000 2.927
48.24000 0.745
48.26000 2.766
48.28000 3.784
48.30000 2.230
48.32000 0.955
48.34000 1.758
48.36000 -2.749
48.38000 -1.927
48.40000 3.465
48.42000 7.468
48.44000 3.677
48.46000 1.328
48.48000 -0.880
48.50000 -2.223
48.52000 -1.857
48.54000 -0.267
48.56000 -1.785
48.58000 -2.736
48.60000 1.113
48.62000 2.848
48.64000 3.492
48.66000 4.009
48.68000 2.721
48.70000 2.063
48.72000 2.777
48.74000 3.594
48.76000 3.564
48.78000 3.765
48.80000 4.175
48.82000 4.479
48.84000 1.705
48.86000 -0.999
48.88000 -0.296
48.90000 -2.285
48.92000 2.793
48.94000 2.595
48.96000 4.950
48.98000 1.153
49.00000 -1.754
49.02000 1.409
49.04000 2.692
49.06000 2.235
49.08000 -0.256
49.10000 -0.459
49.12000 -0.110
49.14000 2.948
49.16000 3.918
49.18000 3.352
49.20000 3.837
49.22000 -0.241
49.24000 -0.732
49.26000 -2.678
49.28000 3.362
49.30000 2.994
49.32000 1.729
49.34000 -0.369
49.36000 -1.653
49.38000 3.793
49.40000 4.729
49.42000 2.328
49.44000 1.427
49.46000 0.291
49.48000 1.417
49.50000 3.378
49.52000 1.741
49.54000 -1.391
49.56000 4.217
49.58000 6.585
49.60000 2.629
49.62000 1.855
49.64000 3.792
49.66000 2.196
49.68000 2.695
49.70000 1.307
49.72000 0.945
49.74000 -2.066
49.76000 -0.346
49.78000 5.149
49.80000 2.021
49.82000 6.441
49.84000 4.872
49.86000 0.970
49.88000 -0.191
49.90000 4.920
49.92000 0.605
49.94000 -1.460
49.96000 0.980
49.98000 1.541
50.00000 -0.857
50.02000 0.770
50.04000 5.226
50.06000 5.534
50.08000 4.966
50.10000 -1.922
50.12000 -2.631
50.14000 2.280
50.16000 2.984
50.18000 2.277
50.20000 3.716
50.22000 6.884
50.24000 1.298
50.26000 1.311
50.28000 1.601
50.30000 0.049
50.32000 -0.152
50.34000 -1.014
50.36000 -1.423
50.38000 3.376
50.40000 1.840
50.42000 0.075
50.44000 1.086
50.46000 3.376
50.48000 -0.666
50.50000 2.556
50.52000 4.990
50.54000 3.627
50.56000 3.157
50.58000 2.167
50.60000 2.048
50.62000 -1.181
50.64000 3.538
50.66000 4.032
50.68000 1.368
50.70000 1.841
50.72000 3.740
50.74000 3.496
50.76000 4.983
50.78000 4.577
50.80000 8.559
50.82000 3.743
50.84000 -0.391
50.86000 -0.862
50.88000 2.342
50.90000 4.693
50.92000 5.288
50.94000 0.230
50.96000 1.904
50.98000 0.962
51.00000 2.080
51.02000 2.231
51.04000 -0.561
51.06000 -0.934
51.08000 -1.653
51.10000 0.510
51.12000 2.666
51.14000 9.564
51.16000 8.938
51.18000 5.634
51.20000 4.742
51.22000 3.708
51.24000 1.227
51.26000 -0.102
51.28000 2.907
51.30000 -0.085
51.32000 -0.438
51.34000 1.854
51.36000 5.083
51.38000 5.997
51.40000 2.179
51.42000 3.932
51.44000 3.826
51.46000 -0.332
51.48000 4.321
51.50000 8.880
51.52000 5.108
51.54000 5.754
51.56000 2.104
51.58000 -2.546
51.60000 -1.500
51.62000 4.228
51.64000 4.222
51.66000 2.682
51.68000 3.285
51.70000 1.976
51.72000 2.741
51.74000 3.229
51.76000 7.142
51.78000 6.467
51.80000 4.174
51.82000 4.807
51.84000 -0.130
51.86000 4.072
51.88000 2.542
51.90000 1.707
51.92000 4.545
51.94000 6.436
51.96000 5.504
51.98000 5.367
52.00000 3.510
52.02000 4.522
52.04000 4.873
52.06000 1.609
52.08000 0.598
52.10000 3.887
52.12000 7.786
52.14000 6.222
52.16000 2.901
52.18000 3.374
52.20000 0.432
52.22000 0.429
52.24000 1.406
52.26000 3.011
52.28000 5.534
52.30000 4.337
52.32000 4.386
52.34000 2.499
52.36000 3.106
52.38000 5.299
52.40000 3.513
52.42000 2.666
52.44000 1.284
52.46000 -2.556
52.48000 -0.602
52.50000 4.377
52.52000 3.920
52.54000 3.473
52.56000 3.645
52.58000 1.808
52.60000 2.155
52.62000 2.201
52.64000 2.376
52.66000 0.949
52.68000 2.143
52.70000 6.248
52.72000 4.459
52.74000 6.512
52.76000 4.653
52.78000 3.904
52.80000 3.307
52.82000 2.304
52.84000 4.168
52.86000 1.566
52.88000 1.251
52.90000 1.100
52.92000 1.708
52.94000 -2.562
52.96000 -2.255
52.98000 2.896
53.00000 3.796
53.02000 -0.501
53.04000 0.090
53.06000 5.473
53.08000 4.546
53.10000 2.731
53.12000 2.672
53.14000 1.771
53.16000 0.418
53.18000 3.224
53.20000 3.176
53.22000 2.605
53.24000 0.718
53.26000 1.064
53.28000 0.642
53.30000 0.195
53.32000 1.137
53.34000 0.514
53.36000 0.991
53.38000 0.236
53.40000 3.146
53.42000 3.980
53.44000 -0.114
53.46000 -0.451
53.48000 2.929
53.50000 0.636
53.52000 -0.087
53.54000 -0.800
53.56000 -1.327
53.58000 -1.686
53.60000 -2.365
53.62000 -1.341
53.64000 -2.550
53.66000 1.862
53.68000 4.468
53.70000 5.616
53.72000 1.935
53.74000 4.718
53.76000 5.548
53.78000 3.875
53.80000 -0.940
53.82000 -1.852
53.84000 -0.568
53.86000 4.022
53.88000 2.978
53.90000 1.574
53.92000 -0.771
53.94000 0.505
53.96000 1.145
53.98000 1.761
54.00000 0.287
54.02000 -2.251
54.04000 3.897
54.06000 6.270
54.08000 0.528
54.10000 0.586
54.12000 2.591
54.14000 5.084
54.16000 4.741
54.18000 4.594
54.20000 2.565
54.22000 1.526
54.24000 3.919
54.26000 2.850
54.28000 2.848
54.30000 2.030
54.32000 1.222
54.34000 2.873
54.36000 1.708
54.38000 -1.452
54.40000 -0.628
54.42000 1.843
54.44000 3.422
54.46000 6.554
54.48000 4.205
54.50000 4.298
54.52000 2.020
54.54000 0.392
54.56000 1.802
54.58000 2.110
54.60000 2.229
54.62000 -0.773
54.64000 1.110
54.66000 2.156
54.68000 1.907
54.70000 4.755
54.72000 10.040
54.74000 6.915
54.76000 2.592
54.78000 0.237
54.80000 2.502
54.82000 5.557
54.84000 2.051
54.86000 1.066
54.88000 4.819
54.90000 7.167
54.92000 0.100
54.94000 3.100
54.96000 4.485
54.98000 6.193
55.00000 4.085
55.02000 2.357
55.04000 3.071
55.06000 1.951
55.08000 3.342
55.10000 1.628
55.12000 0.734
55.14000 1.474
55.16000 0.897
55.18000 2.082
55.20000 4.363
55.22000 6.222
55.24000 7.585
55.26000 1.153
55.28000 1.349
55.30000 5.818
55.32000 4.882
55.34000 5.906
55.36000 7.904
55.38000 4.889
55.40000 7.357
55.42000 7.221
55.44000 9.350
55.46000 8.810
55.48000 5.227
55.50000 6.867
55.52000 6.786
55.54000 4.849
55.56000 -2.429
55.58000 3.709
55.60000 5.952
55.62000 5.661
55.64000 4.055
55.66000 3.258
55.68000 5.222
55.70000 6.371
55.72000 6.348
55.74000 7.461
55.76000 3.665
55.78000 3.528
55.80000 3.891
55.82000 3.592
55.84000 6.952
55.86000 7.535
55.88000 5.401
55.90000 5.317
55.92000 2.535
55.94000 7.611
55.96000 3.908
55.98000 2.211
56.00000 4.411
56.02000 3.894
56.04000 5.559
56.06000 4.329
56.08000 3.178
56.10000 2.058
56.12000 2.528
56.14000 3.707
56.16000 3.391
56.18000 7.718
56.20000 4.357
56.22000 5.574
56.24000 6.455
56.26000 2.264
56.28000 2.490
56.30000 3.668
56.32000 1.748
56.34000 3.655
56.36000 3.788
56.38000 3.639
56.40000 2.100
56.42000 1.110
56.44000 2.295
56.46000 4.227
56.48000 4.577
56.50000 2.680
56.52000 2.372
56.54000 6.575
56.56000 6.429
56.58000 4.985
56.60000 5.618
56.62000 6.196
56.64000 5.046
56.66000 0.306
56.68000 0.748
56.70000 1.304
56.72000 1.240
56.74000 2.693
56.76000 1.057
56.78000 2.225
56.80000 4.152
56.82000 4.690
56.84000 4.154
56.86000 6.184
56.88000 7.321
56.90000 1.824
56.92000 2.240
56.94000 3.214
56.96000 0.562
56.98000 -1.210
57.00000 -2.244
57.02000 -0.129
57.04000 2.672
57.06000 1.274
57.08000 5.256
57.10000 6.280
57.12000 6.076
57.14000 7.648
57.16000 7.110
57.18000 8.211
57.20000 6.739
57.22000 1.588
57.24000 -0.755
57.26000 2.726
57.28000 -1.145
57.30000 -2.425
57.32000 0.441
57.34000 -0.811
57.36000 -0.595
57.38000 1.890
57.40000 0.792
57.42000 3.555
57.44000 3.067
57.46000 0.331
57.48000 -1.704
57.50000 -1.206
57.52000 -0.753
57.54000 2.938
57.56000 2.776
57.58000 0.154
57.60000 2.718
57.62000 -0.084
57.64000 0.925
57.66000 3.721
57.68000 2.023
57.70000 3.961
57.72000 5.638
57.74000 5.764
57.76000 7.430
57.78000 3.456
57.80000 4.693
57.82000 5.497
57.84000 3.315
57.86000 3.610
57.88000 4.676
57.90000 1.201
57.92000 0.518
57.94000 2.420
57.96000 2.408
57.98000 5.791
58.00000 7.600
58.02000 4.995
58.04000 5.326
58.06000 2.695
58.08000 0.624
58.10000 1.517
58.12000 0.773
58.14000 2.619
58.16000 -2.365
58.18000 2.254
58.20000 4.700
58.22000 -0.063
58.24000 1.585
58.26000 0.717
58.28000 -0.888
58.30000 2.629
58.32000 6.049
58.34000 2.891
58.36000 -0.222
58.38000 2.086
58.40000 1.566
58.42000 2.666
58.44000 1.828
58.46000 0.387
58.48000 0.325
58.50000 3.763
58.52000 1.258
58.54000 2.702
58.56000 5.701
58.58000 4.683
58.60000 4.097
58.62000 5.224
58.64000 2.207
58.66000 1.721
58.68000 1.615
58.70000 3.475
58.72000 6.636
58.74000 2.143
58.76000 1.015
58.78000 0.561
58.80000 1.481
58.82000 1.960
58.84000 1.997
58.86000 3.371
58.88000 3.455
58.90000 3.091
58.92000 1.790
58.94000 2.856
58.96000 3.308
58.98000 -0.654
59.00000 2.017
59.02000 2.723
59.04000 2.908
59.06000 3.353
59.08000 4.016
59.10000 2.531
59.12000 -2.363
59.14000 -0.348
59.16000 1.851
59.18000 3.344
59.20000 1.668
59.22000 1.500
59.24000 1.250
59.26000 -0.220
59.28000 0.420
59.30000 1.936
59.32000 3.589
59.34000 2.076
59.36000 2.859
59.38000 4.764
59.40000 3.893
59.42000 6.484
59.44000 4.296
59.46000 1.950
59.48000 -1.599
59.50000 -0.431
59.52000 5.511
59.54000 0.735
59.56000 1.231
59.58000 1.390
59.60000 -2.367
59.62000 1.388
59.64000 0.218
59.66000 1.130
59.68000 -1.239
59.70000 -0.122
59.72000 -0.597
59.74000 -1.498
59.76000 0.032
59.78000 -1.188
59.80000 -0.529
59.82000 -0.370
59.84000 -1.296
59.86000 1.765
59.88000 2.255
59.90000 1.380
59.92000 3.153
59.94000 5.388
59.96000 1.700
59.98000 -1.277
60.00000 -0.087
60.02000 1.167
60.04000 0.117
60.06000 2.381
60.08000 1.271
60.10000 -0.724
60.12000 -1.844
60.14000 -0.025
60.16000 -0.014
60.18000 -0.018
60.20000 3.971
60.22000 5.732
60.24000 4.772
60.26000 5.596
60.28000 2.397
60.30000 -0.711
60.32000 -0.832
60.34000 3.783
60.36000 0.868
60.38000 -0.112
60.40000 -0.428
60.42000 1.436
60.44000 2.733
60.46000 5.105
60.48000 2.610
60.50000 3.627
60.52000 0.304
60.54000 -0.633
60.56000 -0.955
60.58000 1.102
60.60000 -1.183
60.62000 -2.329
60.64000 1.892
60.66000 1.248
60.68000 1.044
60.70000 0.658
60.72000 3.094
60.74000 2.187
60.76000 1.085
60.78000 1.662
60.80000 2.121
60.82000 5.130
60.84000 2.307
60.86000 -0.370
60.88000 -0.024
60.90000 1.876
60.92000 1.497
60.94000 1.033
60.96000 -1.233
60.98000 0.505
61.00000 1.712
61.02000 1.786
61.04000 5.013
61.06000 5.397
61.08000 2.010
61.10000 3.662
61.12000 3.493
61.14000 1.900
61.16000 0.600
61.18000 -0.235
61.20000 2.263
61.22000 4.777
61.24000 2.337
61.26000 6.650
61.28000 5.254
61.30000 1.216
61.32000 0.063
61.34000 2.497
61.36000 4.171
61.38000 4.475
61.40000 3.640
61.42000 -1.454
61.44000 -1.730
61.46000 -1.650
61.48000 -0.785
61.50000 0.849
61.52000 -0.636
61.54000 1.562
61.56000 -2.315
61.58000 0.040
61.60000 2.443
61.62000 0.917
61.64000 -1.000
61.66000 3.582
61.68000 4.057
61.70000 0.981
61.72000 -0.359
61.74000 -0.603
61.76000 2.849
61.78000 2.152
61.80000 -0.525
61.82000 2.333
61.84000 4.343
61.86000 2.157
61.88000 -1.045
61.90000 2.102
61.92000 2.426
61.94000 -0.034
61.96000 0.124
61.98000 0.467
62.00000 -0.329
62.02000 4.550
62.04000 7.350
62.06000 0.369
62.08000 -2.299
62.10000 -2.278
62.12000 2.043
62.14000 3.734
62.16000 5.529
62.18000 2.149
62.20000 3.115
62.22000 3.478
62.24000 3.883
62.26000 2.566
62.28000 2.004
62.30000 4.075
62.32000 4.966
62.34000 4.201
62.36000 4.201
62.38000 3.198
62.40000 1.978
62.42000 3.916
62.44000 3.669
62.46000 2.241
62.48000 2.157
62.50000 -2.130
62.52000 0.163
62.54000 -2.279
62.56000 -1.734
62.58000 -0.304
62.60000 3.656
62.62000 5.122
62.64000 3.330
62.66000 2.544
62.68000 3.740
62.70000 0.118
62.72000 3.488
62.74000 2.484
62.76000 0.146
62.78000 0.013
62.80000 3.130
62.82000 2.930
62.84000 1.169
62.86000 -0.265
62.88000 1.670
62.90000 1.459
62.92000 -0.183
62.94000 4.779
62.96000 4.430
62.98000 -0.566
63.00000 0.442
63.02000 0.261
63.04000 3.748
63.06000 4.730
63.08000 0.773
63.10000 0.056
63.12000 1.024
63.14000 3.861
63.16000 3.044
63.18000 1.512
63.20000 -0.849
63.22000 0.305
63.24000 0.626
63.26000 -0.396
63.28000 0.237
63.30000 -0.286
63.32000 -0.242
63.34000 -2.269
63.36000 -0.805
63.38000 1.368
63.40000 0.925
63.42000 1.938
63.44000 5.425
63.46000 3.726
63.48000 0.688
63.50000 1.076
63.52000 1.550
63.54000 1.309
63.56000 5.205
63.58000 3.490
63.60000 0.368
63.62000 1.142
63.64000 0.898
63.66000 0.807
63.68000 1.714
63.70000 2.183
63.72000 0.114
63.74000 -1.135
63.76000 2.873
63.78000 7.034
63.80000 4.936
63.82000 2.128
63.84000 2.520
63.86000 0.414
63.88000 -1.670
63.90000 -0.606
63.92000 2.086
63.94000 2.342
63.96000 -0.185
63.98000 1.248
64.00000 3.035
64.02000 0.712
64.04000 -0.416
64.06000 -1.868
64.08000 2.426
64.10000 0.882
64.12000 0.689
64.14000 3.807
64.16000 2.024
64.18000 -1.084
64.20000 -0.675
64.22000 -1.067
64.24000 -0.628
64.26000 -1.313
64.28000 -1.670
64.30000 -0.395
64.32000 2.409
64.34000 1.831
64.36000 0.231
64.38000 -0.575
64.40000 -2.293
64.42000 -1.666
64.44000 -1.325
64.46000 -0.045
64.48000 0.361
64.50000 -0.829
64.52000 -0.301
64.54000 -0.325
64.56000 0.990
64.58000 1.533
64.60000 1.312
64.62000 1.795
64.64000 -1.199
64.66000 2.112
64.68000 0.877
64.70000 -1.852
64.72000 -1.630
64.74000 -1.031
64.76000 -0.347
64.78000 2.479
64.80000 1.021
64.82000 -0.174
64.84000 0.278
64.86000 -0.434
64.88000 -0.322
64.90000 -1.207
64.92000 -0.109
64.94000 0.172
64.96000 -1.202
64.98000 -1.491
65.00000 -2.309
65.02000 2.404
65.04000 1.276
65.06000 -0.705
65.08000 -2.090
65.10000 -1.386
65.12000 0.969
65.14000 1.362
65.16000 -0.488
65.18000 -1.362
65.20000 1.403
65.22000 2.914
65.24000 0.830
65.26000 1.317
65.28000 2.405
65.30000 0.933
65.32000 -0.668
65.34000 0.207
65.36000 0.171
65.38000 0.371
65.40000 1.587
65.42000 0.685
65.44000 1.146
65.46000 -1.022
65.48000 1.252
65.50000 2.484
65.52000 0.732
65.54000 1.304
65.56000 0.009
65.58000 -1.954
65.60000 -2.316
65.62000 1.680
65.64000 5.662
65.66000 2.648
65.68000 2.499
65.70000 4.043
65.72000 3.309
65.74000 0.885
65.76000 -0.566
65.78000 2.951
65.80000 2.603
65.82000 0.223
65.84000 0.358
65.86000 4.006
65.88000 3.565
65.90000 5.768
65.92000 3.364
65.94000 3.315
65.96000 2.135
65.98000 4.831
66.00000 7.319
66.02000 5.441
66.04000 1.621
66.06000 0.336
66.08000 2.487
66.10000 4.658
66.12000 6.136
66.14000 4.915
66.16000 4.877
66.18000 8.162
66.20000 6.987
66.22000 5.919
66.24000 6.139
66.26000 7.231
66.28000 3.680
66.30000 6.235
66.32000 9.438
66.34000 5.525
66.36000 6.552
66.38000 5.159
66.40000 6.261
66.42000 6.914
66.44000 7.911
66.46000 7.805
66.48000 6.656
66.50000 7.333
66.52000 7.862
66.54000 8.131
66.56000 5.165
66.58000 6.604
66.60000 5.195
66.62000 7.081
66.64000 6.211
66.66000 5.365
66.68000 7.428
66.70000 6.287
66.72000 6.144
66.74000 6.603
66.76000 5.871
66.78000 4.999
66.80000 3.458
66.82000 5.773
66.84000 7.146
66.86000 5.581
66.88000 2.218
66.90000 1.601
66.92000 2.816
66.94000 3.318
66.96000 2.339
66.98000 4.676
67.00000 5.517
67.02000 3.955
67.04000 1.814
67.06000 -0.265
67.08000 4.107
67.10000 2.876
67.12000 2.415
67.14000 3.828
67.16000 1.361
67.18000 -0.803
67.20000 0.530
67.22000 2.117
67.24000 1.129
67.26000 -0.459
67.28000 -1.274
67.30000 -1.728
67.32000 0.040
67.34000 0.590
67.36000 1.066
67.38000 3.860
67.40000 2.683
67.42000 2.540
67.44000 3.856
67.46000 3.341
67.48000 1.751
67.50000 4.466
67.52000 1.956
67.54000 0.365
67.56000 -0.078
67.58000 -2.219
67.60000 1.140
67.62000 2.685
67.64000 3.089
67.66000 1.473
67.68000 2.998
67.70000 3.937
67.72000 2.852
67.74000 1.166
67.76000 0.009
67.78000 2.909
67.80000 0.875
67.82000 0.104
67.84000 -2.078
67.86000 -0.228
67.88000 2.434
67.90000 0.539
67.92000 0.008
67.94000 1.026
67.96000 1.204
67.98000 1.323
68.00000 -0.532
68.02000 0.520
68.04000 2.142
68.06000 0.528
68.08000 -0.483
68.10000 0.473
68.12000 1.947
68.14000 1.399
68.16000 0.936
68.18000 2.145
68.20000 3.830
68.22000 4.408
68.24000 4.110
68.26000 1.883
68.28000 1.805
68.30000 1.878
68.32000 0.652
68.34000 2.169
68.36000 1.310
68.38000 1.913
68.40000 2.748
68.42000 3.198
68.44000 1.458
68.46000 0.961
68.48000 3.938
68.50000 4.621
68.52000 1.606
68.54000 -2.131
68.56000 0.634
68.58000 2.719
68.60000 1.989
68.62000 1.449
68.64000 -0.141
68.66000 1.766
68.68000 3.082
68.70000 2.272
68.72000 -0.409
68.74000 1.165
68.76000 2.455
68.78000 -0.158
68.80000 -0.744
68.82000 5.265
68.84000 5.501
68.86000 3.974
68.88000 3.261
68.90000 2.733
68.92000 0.475
68.94000 1.927
68.96000 3.623
68.98000 2.225
69.00000 2.259
69.02000 2.545
69.04000 -0.803
69.06000 -2.113
69.08000 0.615
69.10000 2.914
69.12000 3.640
69.14000 2.219
69.16000 1.760
69.18000 4.099
69.20000 2.298
69.22000 -0.216
69.24000 2.501
69.26000 2.474
69.28000 3.438
69.30000 3.514
69.32000 1.722
69.34000 2.604
69.36000 3.377
69.38000 2.146
69.40000 3.390
69.42000 2.470
69.44000 2.009
69.46000 3.561
69.48000 3.881
69.50000 0.698
69.52000 1.301
69.54000 2.293
69.56000 4.029
69.58000 4.580
69.60000 4.260
69.62000 2.735
69.64000 0.060
69.66000 -0.276
69.68000 1.854
69.70000 1.747
69.72000 2.036
69.74000 2.342
69.76000 3.935
69.78000 6.633
69.80000 2.468
69.82000 0.085
69.84000 -1.157
69.86000 2.268
69.88000 2.009
69.90000 1.164
69.92000 0.428
69.94000 -2.088
69.96000 -0.065
69.98000 1.828
70.00000 0.368
70.02000 3.283
70.04000 4.134
70.06000 2.015
70.08000 3.527
70.10000 2.699
70.12000 1.913
70.14000 2.757
70.16000 3.300
70.18000 -0.402
70.20000 1.463
70.22000 2.468
70.24000 0.526
70.26000 0.489
70.28000 2.279
70.30000 3.967
70.32000 1.760
70.34000 5.212
70.36000 5.377
70.38000 3.004
70.40000 2.125
70.42000 1.794
70.44000 1.438
70.46000 1.836
70.48000 0.735
70.50000 -0.008
70.52000 1.746
70.54000 3.701
70.56000 4.398
70.58000 3.176
70.60000 5.148
70.62000 3.451
70.64000 2.579
70.66000 5.469
70.68000 1.839
70.70000 -0.861
70.72000 4.467
70.74000 2.499
70.76000 1.609
70.78000 2.247
70.80000 2.952
70.82000 4.086
70.84000 4.575
70.86000 4.692
70.88000 4.983
70.90000 3.489
70.92000 -2.021
70.94000 1.594
70.96000 5.441
70.98000 3.257
71.00000 2.813
71.02000 2.346
71.04000 1.529
71.06000 4.261
71.08000 6.662
71.10000 7.454
71.12000 5.634
71.14000 5.333
71.16000 3.697
71.18000 5.304
71.20000 4.895
71.22000 1.517
71.24000 2.561
71.26000 1.356
71.28000 1.743
71.30000 2.938
71.32000 5.330
71.34000 3.599
71.36000 4.337
71.38000 4.173
71.40000 4.088
71.42000 3.259
71.44000 2.836
71.46000 2.268
71.48000 1.351
71.50000 1.281
71.52000 3.934
71.54000 2.238
71.56000 3.393
71.58000 1.823
71.60000 3.992
71.62000 5.099
71.64000 7.662
71.66000 6.897
71.68000 5.564
71.70000 4.034
71.72000 0.528
71.74000 1.508
71.76000 1.798
71.78000 -1.319
71.80000 -1.982
71.82000 0.342
71.84000 6.002
71.86000 4.131
71.88000 1.473
71.90000 3.018
71.92000 3.432
71.94000 4.267
71.96000 2.547
71.98000 2.015
72.00000 3.289
72.02000 1.648
72.04000 0.715
72.06000 1.041
72.08000 -0.047
72.10000 -1.718
72.12000 -1.021
72.14000 -0.292
72.16000 0.636
72.18000 3.029
72.20000 1.639
72.22000 0.812
72.24000 0.971
72.26000 1.211
72.28000 1.703
72.30000 -1.918
72.32000 -0.707
72.34000 1.822
72.36000 2.615
72.38000 3.770
72.40000 1.922
72.42000 1.394
72.44000 1.377
72.46000 -0.455
72.48000 1.070
72.50000 0.266
72.52000 0.098
72.54000 0.491
72.56000 2.689
72.58000 0.500
72.60000 0.576
72.62000 1.464
72.64000 0.320
72.66000 1.389
72.68000 1.879
72.70000 3.896
72.72000 4.009
72.74000 1.439
72.76000 -0.277
72.78000 1.246
72.80000 3.407
72.82000 3.319
72.84000 -0.795
72.86000 -1.532
72.88000 0.045
72.90000 1.579
72.92000 -0.346
72.94000 2.449
72.96000 0.667
72.98000 0.549
73.00000 -0.131
73.02000 1.072
73.04000 0.841
73.06000 -1.379
73.08000 0.184
73.10000 2.477
73.12000 3.549
73.14000 0.958
73.16000 -1.382
73.18000 -1.100
73.20000 -0.919
73.22000 0.506
73.24000 1.233
73.26000 0.592
73.28000 0.055
73.30000 0.588
73.32000 0.319
73.34000 -2.001
73.36000 0.009
73.38000 0.894
73.40000 -1.141
73.42000 0.584
73.44000 1.698
73.46000 3.391
73.48000 2.453
73.50000 -0.354
73.52000 -1.059
73.54000 0.817
73.56000 0.702
73.58000 1.974
73.60000 0.243
73.62000 -1.910
73.64000 1.582
73.66000 1.910
73.68000 2.049
73.70000 0.760
73.72000 0.602
73.74000 3.615
73.76000 4.335
73.78000 3.554
73.80000 4.354
73.82000 3.275
73.84000 2.816
73.86000 1.581
73.88000 0.096
73.90000 0.135
73.92000 1.463
73.94000 2.298
73.96000 0.675
73.98000 -1.683
74.00000 -1.225
74.02000 2.363
74.04000 3.076
74.06000 -0.062
74.08000 0.603
74.10000 1.143
74.12000 -2.003
74.14000 -1.251
74.16000 0.477
74.18000 0.052
74.20000 1.996
74.22000 3.149
74.24000 2.004
74.26000 2.337
74.28000 -0.973
74.30000 -1.354
74.32000 0.054
74.34000 0.096
74.36000 -0.180
74.38000 -0.472
74.40000 0.862
74.42000 0.129
74.44000 -0.166
74.46000 0.160
74.48000 4.803
74.50000 5.059
74.52000 2.119
74.54000 3.402
74.56000 -0.580
74.58000 0.648
74.60000 -0.964
74.62000 -0.982
74.64000 -0.103
74.66000 3.395
74.68000 2.011
74.70000 -2.007
74.72000 -1.763
74.74000 0.046
74.76000 -0.329
74.78000 0.736
74.80000 5.041
74.82000 1.591
74.84000 2.008
74.86000 0.613
74.88000 3.093
74.90000 -0.314
74.92000 0.433
74.94000 0.332
74.96000 0.392
74.98000 2.870
75.00000 3.368
75.02000 2.466
75.04000 1.814
75.06000 2.723
75.08000 1.525
75.10000 2.359
75.12000 -0.535
75.14000 -1.111
75.16000 1.540
75.18000 -1.684
75.20000 -1.995
75.22000 -0.754
75.24000 1.517
75.26000 2.772
75.28000 2.092
75.30000 -0.173
75.32000 3.507
75.34000 2.612
75.36000 0.728
75.38000 1.648
75.40000 3.505
75.42000 3.053
75.44000 2.003
75.46000 -1.985
75.48000 -0.861
75.50000 2.174
75.52000 -0.353
75.54000 0.217
75.56000 3.332
75.58000 3.787
75.60000 2.478
75.62000 1.550
75.64000 5.123
75.66000 3.499
75.68000 1.738
75.70000 1.558
75.72000 3.056
75.74000 -0.394
75.76000 2.316
75.78000 2.352
75.80000 4.677
75.82000 1.586
75.84000 2.935
75.86000 3.239
75.88000 1.545
75.90000 2.402
75.92000 2.106
75.94000 1.608
75.96000 0.004
75.98000 3.336
76.00000 6.236
76.02000 5.195
76.04000 2.263
76.06000 1.680
76.08000 0.588
76.10000 1.804
76.12000 1.485
76.14000 1.587
76.16000 -1.978
76.18000 -0.138
76.20000 2.800
76.22000 2.096
76.24000 3.439
76.26000 2.658
76.28000 2.919
76.30000 2.130
76.32000 3.130
76.34000 5.536
76.36000 2.193
76.38000 2.664
76.40000 4.324
76.42000 4.465
76.44000 3.989
76.46000 3.167
76.48000 3.663
76.50000 5.763
76.52000 3.963
76.54000 3.551
76.56000 2.437
76.58000 0.604
76.60000 0.526
76.62000 1.461
76.64000 1.201
76.66000 1.728
76.68000 4.245
76.70000 1.373
76.72000 5.266
76.74000 5.574
76.76000 1.167
76.78000 0.546
76.80000 5.747
76.82000 3.866
76.84000 0.297
76.86000 -2.018
76.88000 -0.904
76.90000 0.542
76.92000 3.528
76.94000 0.345
76.96000 0.995
76.98000 5.551
77.00000 3.581
77.02000 2.615
77.04000 3.004
77.06000 1.271
77.08000 5.002
77.10000 2.830
77.12000 0.828
77.14000 3.122
77.16000 2.291
77.18000 0.579
77.20000 0.675
77.22000 2.077
77.24000 4.672
77.26000 3.112
77.28000 1.950
77.30000 3.608
77.32000 2.768
77.34000 3.013
77.36000 2.215
77.38000 2.139
77.40000 1.837
77.42000 0.325
77.44000 0.211
77.46000 0.134
77.48000 -1.058
77.50000 2.766
77.52000 5.237
77.54000 6.025
77.56000 2.578
77.58000 -0.347
77.60000 0.201
77.62000 -0.126
77.64000 0.746
77.66000 3.269
77.68000 5.506
77.70000 5.095
77.72000 4.412
77.74000 2.392
77.76000 5.156
77.78000 3.803
77.80000 1.187
77.82000 1.911
77.84000 3.323
77.86000 2.127
77.88000 -0.967
77.90000 0.806
77.92000 2.132
77.94000 1.980
77.96000 4.012
77.98000 0.833
78.00000 -2.086
78.02000 -0.738
78.04000 0.332
78.06000 2.136
78.08000 5.279
78.10000 2.157
78.12000 1.259
78.14000 3.006
78.16000 6.148
78.18000 2.711
78.20000 -0.257
78.22000 0.469
78.24000 2.065
78.26000 -0.200
78.28000 -1.169
78.30000 -1.009
78.32000 -1.225
78.34000 0.608
78.36000 -0.089
78.38000 -1.068
78.40000 0.356
78.42000 3.230
78.44000 2.087
78.46000 1.844
78.48000 1.624
78.50000 3.293
78.52000 4.219
78.54000 3.390
78.56000 1.544
78.58000 2.301
78.60000 1.616
78.62000 0.876
78.64000 0.602
78.66000 4.301
78.68000 5.405
78.70000 2.750
78.72000 4.521
78.74000 5.996
78.76000 1.483
78.78000 4.528
78.80000 6.507
78.82000 6.507
78.84000 7.110
78.86000 4.356
78.88000 3.286
78.90000 4.589
78.92000 5.028
78.94000 6.788
78.96000 3.633
78.98000 3.447
79.00000 3.186
79.02000 3.093
79.04000 3.091
79.06000 4.514
79.08000 6.317
79.10000 6.074
79.12000 5.241
79.14000 6.516
79.16000 7.762
79.18000 7.774
79.20000 8.580
79.22000 10.193
79.24000 10.337
79.26000 13.538
79.28000 13.075
79.30000 11.635
79.32000 11.917
79.34000 11.828
79.36000 12.172
79.38000 14.993
79.40000 15.184
79.42000 14.200
79.44000 15.747
79.46000 16.463
79.48000 16.571
79.50000 17.832
79.52000 16.902
79.54000 19.275
79.56000 21.413
79.58000 20.510
79.60000 21.163
79.62000 20.690
79.64000 22.859
79.66000 22.827
79.68000 22.374
79.70000 24.599
79.72000 20.481
79.74000 22.765
79.76000 24.227
79.78000 22.723
79.80000 22.321
79.82000 25.473
79.84000 29.310
79.86000 30.169
79.88000 29.850
79.90000 32.456
79.92000 28.434
79.94000 29.530
79.96000 26.786
79.98000 31.035
80.00000 26.154
80.02000 28.076
80.04000 27.076
80.06000 24.767
80.08000 26.471
80.10000 29.269
80.12000 31.084
80.14000 29.590
80.16000 29.015
80.18000 25.954
80.20000 25.443
80.22000 25.655
80.24000 25.795
80.26000 20.496
80.28000 22.378
80.30000 19.062
80.32000 22.024
80.34000 26.098
80.36000 26.692
80.38000 27.587
80.40000 25.478
80.42000 21.197
80.44000 17.664
80.46000 17.833
80.48000 17.614
80.50000 14.892
80.52000 20.006
80.54000 16.298
80.56000 15.179
80.58000 13.368
80.60000 12.207
80.62000 11.334
80.64000 10.276
80.66000 13.437
80.68000 19.069
80.70000 14.847
80.72000 9.360
80.74000 10.589
80.76000 8.296
80.78000 9.536
80.80000 12.366
80.82000 11.072
80.84000 7.542
80.86000 4.926
80.88000 6.430
80.90000 7.674
80.92000 2.490
80.94000 3.408
80.96000 3.786
80.98000 3.128
81.00000 6.463
81.02000 5.779
81.04000 6.311
81.06000 10.561
81.08000 9.915
81.10000 4.149
81.12000 5.750
81.14000 4.117
81.16000 0.804
81.18000 6.921
81.20000 6.010
81.22000 4.752
81.24000 3.347
81.26000 0.142
81.28000 1.746
81.30000 1.482
81.32000 3.689
81.34000 2.063
81.36000 -2.262
81.38000 -0.311
81.40000 1.550
81.42000 3.691
81.44000 5.099
81.46000 4.871
81.48000 4.298
81.50000 3.315
81.52000 3.080
81.54000 3.997
81.56000 3.685
81.58000 4.333
81.60000 2.691
81.62000 3.143
81.64000 -0.011
81.66000 2.468
81.68000 3.132
81.70000 0.969
81.72000 0.848
81.74000 0.533
81.76000 2.418
81.78000 3.717
81.80000 2.852
81.82000 1.802
81.84000 3.074
81.86000 4.756
81.88000 2.243
81.90000 -1.421
81.92000 2.305
81.94000 4.015
81.96000 -0.670
81.98000 -1.822
82.00000 0.455
82.02000 4.240
82.04000 -0.576
82.06000 2.089
82.08000 3.705
82.10000 4.884
82.12000 1.415
82.14000 1.333
82.16000 3.162
82.18000 1.811
82.20000 2.781
82.22000 6.331
82.24000 1.222
82.26000 2.969
82.28000 2.790
82.30000 0.234
82.32000 -0.373
82.34000 2.924
82.36000 4.747
82.38000 2.634
82.40000 4.051
82.42000 3.033
82.44000 4.825
82.46000 3.216
82.48000 1.320
82.50000 -2.236
82.52000 2.805
82.54000 4.540
82.56000 5.637
82.58000 7.144
82.60000 2.724
82.62000 4.519
82.64000 6.768
82.66000 6.681
82.68000 4.602
82.70000 7.058
82.72000 8.343
82.74000 12.348
82.76000 8.143
82.78000 7.418
82.80000 8.745
82.82000 11.125
82.84000 11.033
82.86000 9.300
82.88000 8.921
82.90000 7.203
82.92000 5.565
82.94000 10.070
82.96000 12.899
82.98000 14.381
83.00000 15.890
83.02000 14.064
83.04000 14.933
83.06000 12.761
83.08000 15.944
83.10000 15.770
83.12000 14.569
83.14000 11.621
83.16000 16.487
83.18000 16.032
83.20000 18.932
83.22000 20.465
83.24000 18.957
83.26000 17.635
83.28000 18.391
83.30000 20.628
83.32000 23.051
83.34000 22.846
83.36000 23.478
83.38000 27.497
83.40000 26.491
83.42000 19.365
83.44000 20.552
83.46000 25.977
83.48000 30.747
83.50000 29.070
83.52000 28.328
83.54000 27.874
83.56000 26.745
83.58000 33.102
83.60000 32.761
83.62000 36.336
83.64000 39.391
83.66000 38.011
83.68000 37.582
83.70000 40.638
83.72000 46.433
83.74000 41.724
83.76000 38.126
83.78000 38.198
83.80000 41.987
83.82000 42.256
83.84000 44.328
83.86000 43.353
83.88000 47.480
83.90000 49.346
83.92000 42.819
83.94000 39.501
83.96000 48.018
83.98000 47.839
84.00000 42.747
84.02000 43.993
84.04000 42.291
84.06000 41.106
84.08000 39.453
84.10000 43.440
84.12000 44.517
84.14000 48.620
84.16000 49.007
84.18000 42.522
84.20000 40.158
84.22000 38.778
84.24000 41.154
84.26000 39.785
84.28000 37.327
84.30000 35.804
84.32000 34.324
84.34000 29.901
84.36000 30.157
84.38000 30.173
84.40000 25.451
84.42000 24.390
84.44000 26.751
84.46000 27.544
84.48000 26.284
84.50000 24.559
84.52000 22.670
84.54000 19.827
84.56000 23.252
84.58000 17.719
84.60000 16.928
84.62000 18.930
84.64000 18.855
84.66000 16.219
84.68000 15.739
84.70000 14.459
84.72000 15.008
84.74000 13.959
84.76000 14.503
84.78000 14.631
84.80000 9.903
84.82000 9.179
84.84000 11.022
84.86000 11.631
84.88000 9.451
84.90000 8.137
84.92000 6.702
84.94000 8.294
84.96000 10.959
84.98000 7.832
85.00000 8.412
85.02000 5.370
85.04000 1.584
85.06000 2.909
85.08000 0.396
85.10000 1.489
85.12000 5.483
85.14000 5.879
85.16000 6.135
85.18000 1.369
85.20000 0.930
85.22000 5.383
85.24000 6.196
85.26000 4.452
85.28000 3.266
85.30000 4.023
85.32000 4.169
85.34000 -0.847
85.36000 -0.863
85.38000 -1.824
85.40000 -2.035
85.42000 2.851
85.44000 2.807
85.46000 1.749
85.48000 1.357
85.50000 2.669
85.52000 4.821
85.54000 2.694
85.56000 1.773
85.58000 2.722
85.60000 -0.109
85.62000 1.513
85.64000 3.230
85.66000 0.200
85.68000 1.273
85.70000 3.116
85.72000 3.320
85.74000 3.203
85.76000 1.924
85.78000 1.840
85.80000 4.589
85.82000 2.926
85.84000 1.490
85.86000 1.679
85.88000 2.073
85.90000 0.807
85.92000 0.612
85.94000 1.174
85.96000 0.395
85.98000 1.786
86.00000 2.219
86.02000 4.349
86.04000 2.745
86.06000 -1.642
86.08000 -1.950
86.10000 -1.309
86.12000 1.276
86.14000 1.771
86.16000 1.138
86.18000 0.824
86.20000 2.351
86.22000 1.439
86.24000 1.542
86.26000 2.761
86.28000 5.017
86.30000 4.511
86.32000 2.135
86.34000 -1.883
86.36000 -0.164
86.38000 0.418
86.40000 0.766
86.42000 1.871
86.44000 -0.122
86.46000 0.904
86.48000 0.873
86.50000 2.841
86.52000 4.396
86.54000 -0.194
86.56000 0.588
86.58000 3.052
86.60000 3.748
86.62000 4.825
86.64000 0.154
86.66000 -1.411
86.68000 1.911
86.70000 2.951
86.72000 0.874
86.74000 3.950
86.76000 1.935
86.78000 1.980
86.80000 0.111
86.82000 -0.087
86.84000 4.303
86.86000 1.362
86.88000 -1.902
86.90000 1.755
86.92000 2.091
86.94000 2.455
86.96000 2.225
86.98000 1.119
87.00000 -0.942
87.02000 2.266
87.04000 2.335
87.06000 3.537
87.08000 4.780
87.10000 1.657
87.12000 0.720
87.14000 -0.049
87.16000 -1.784
87.18000 1.071
87.20000 4.525
87.22000 5.474
87.24000 3.053
87.26000 3.690
87.28000 -0.797
87.30000 0.816
87.32000 2.158
87.34000 1.442
87.36000 2.355
87.38000 1.242
87.40000 2.929
87.42000 3.319
87.44000 3.224
87.46000 2.712
87.48000 3.605
87.50000 1.043
87.52000 -0.465
87.54000 -1.667
87.56000 2.717
87.58000 4.359
87.60000 2.262
87.62000 -0.997
87.64000 0.964
87.66000 3.763
87.68000 1.291
87.70000 -1.420
87.72000 -1.522
87.74000 0.413
87.76000 4.894
87.78000 4.771
87.80000 2.065
87.82000 2.285
87.84000 5.780
87.86000 6.569
87.88000 2.105
87.90000 0.752
87.92000 3.009
87.94000 2.588
87.96000 3.327
87.98000 5.133
88.00000 2.544
88.02000 2.531
88.04000 1.705
88.06000 0.719
88.08000 -1.574
88.10000 2.602
88.12000 1.600
88.14000 0.692
88.16000 -0.054
88.18000 1.316
88.20000 1.654
88.22000 1.769
88.24000 2.964
88.26000 4.099
88.28000 4.104
88.30000 3.485
88.32000 2.426
88.34000 -1.844
88.36000 0.304
88.38000 1.518
88.40000 1.434
88.42000 1.442
88.44000 1.563
88.46000 3.228
88.48000 3.418
88.50000 4.249
88.52000 1.111
88.54000 -0.412
88.56000 1.697
88.58000 3.631
88.60000 0.815
88.62000 2.764
88.64000 3.944
88.66000 0.021
88.68000 1.539
88.70000 0.759
88.72000 0.539
88.74000 -0.807
88.76000 0.871
88.78000 -1.369
88.80000 2.650
88.82000 2.133
88.84000 -0.275
88.86000 3.474
88.88000 2.414
88.90000 3.266
88.92000 1.013
88.94000 -0.756
88.96000 0.993
88.98000 2.686
89.00000 3.068
89.02000 3.072
89.04000 -0.306
89.06000 0.053
89.08000 2.091
89.10000 2.885
89.12000 1.558
89.14000 3.216
89.16000 0.516
89.18000 0.277
89.20000 1.022
89.22000 2.151
89.24000 1.163
89.26000 0.662
89.28000 2.177
89.30000 1.354
89.32000 1.901
89.34000 1.560
89.36000 -0.285
89.38000 -1.880
89.40000 0.281
89.42000 2.887
89.44000 1.358
89.46000 -0.559
89.48000 0.738
89.50000 1.603
89.52000 0.688
89.54000 1.376
89.56000 2.674
89.58000 2.892
89.60000 -0.979
89.62000 1.913
89.64000 1.797
89.66000 0.213
89.68000 0.114
89.70000 2.349
89.72000 0.162
89.74000 -0.054
89.76000 1.839
89.78000 3.302
89.80000 1.625
89.82000 -1.882
89.84000 -0.552
89.86000 0.752
89.88000 0.222
89.90000 0.105
89.92000 -0.890
89.94000 -0.300
89.96000 0.707
89.98000 0.664
90.00000 1.054
90.02000 1.571
90.04000 -0.049
90.06000 -0.525
90.08000 0.956
90.10000 -0.093
90.12000 -1.285
90.14000 -1.743
90.16000 -0.890
90.18000 -0.871
90.20000 -0.765
90.22000 1.261
90.24000 0.092
90.26000 -1.471
90.28000 3.362
90.30000 2.778
90.32000 2.191
90.34000 1.703
90.36000 1.582
90.38000 -0.928
90.40000 2.295
90.42000 1.945
90.44000 -0.262
90.46000 0.320
90.48000 3.171
90.50000 1.634
90.52000 2.330
90.54000 2.137
90.56000 3.851
90.58000 3.095
90.60000 2.543
90.62000 1.354
90.64000 1.008
90.66000 1.449
90.68000 -0.425
90.70000 -0.295
90.72000 -1.198
90.74000 1.159
90.76000 -1.066
90.78000 -1.867
90.80000 -0.501
90.82000 3.027
90.84000 3.003
90.86000 -1.598
90.88000 0.529
90.90000 2.243
90.92000 0.564
90.94000 -1.478
90.96000 -1.654
90.98000 1.183
91.00000 5.200
91.02000 1.839
91.04000 0.671
91.06000 -0.123
91.08000 -0.759
91.10000 -0.516
91.12000 -0.163
91.14000 -0.672
91.16000 4.138
91.18000 7.683
91.20000 4.381
91.22000 2.360
91.24000 2.153
91.26000 3.612
91.28000 4.441
91.30000 1.576
91.32000 2.730
91.34000 2.500
91.36000 2.800
91.38000 2.580
91.40000 0.705
91.42000 -1.315
91.44000 -1.865
91.46000 -0.535
91.48000 -1.739
91.50000 4.535
91.52000 5.375
91.54000 2.726
91.56000 2.241
91.58000 3.231
91.60000 1.256
91.62000 -1.133
91.64000 -1.141
91.66000 1.843
91.68000 1.075
91.70000 -0.087
91.72000 0.466
91.74000 -0.998
91.76000 1.069
91.78000 1.895
91.80000 -0.239
91.82000 2.063
91.84000 4.977
91.86000 4.761
91.88000 2.357
91.90000 3.531
91.92000 1.678
91.94000 0.340
91.96000 -1.115
91.98000 1.735
92.00000 0.933
92.02000 4.555
92.04000 5.923
92.06000 1.320
92.08000 1.473
92.10000 2.121
92.12000 0.008
92.14000 0.131
92.16000 1.789
92.18000 3.001
92.20000 3.954
92.22000 4.328
92.24000 4.429
92.26000 0.620
92.28000 0.283
92.30000 0.085
92.32000 1.044
92.34000 -0.387
92.36000 -0.405
92.38000 -0.235
92.40000 -0.052
92.42000 0.377
92.44000 -0.097
92.46000 -1.857
92.48000 -1.483
92.50000 6.155
92.52000 4.777
92.54000 5.855
92.56000 2.288
92.58000 -0.388
92.60000 -1.244
92.62000 -0.187
92.64000 1.158
92.66000 2.829
92.68000 6.019
92.70000 4.403
92.72000 3.256
92.74000 1.010
92.76000 -0.132
92.78000 1.154
92.80000 -0.379
92.82000 -0.563
92.84000 -0.906
92.86000 2.726
92.88000 5.084
92.90000 2.182
92.92000 0.663
92.94000 1.435
92.96000 0.348
92.98000 2.736
93.00000 4.272
93.02000 3.713
93.04000 3.483
93.06000 4.270
93.08000 3.807
93.10000 2.633
93.12000 2.208
93.14000 3.471
93.16000 2.959
93.18000 2.770
93.20000 1.920
93.22000 6.737
93.24000 4.170
93.26000 1.769
93.28000 3.668
93.30000 3.643
93.32000 4.608
93.34000 3.760
93.36000 4.302
93.38000 4.847
93.40000 3.592
93.42000 1.527
93.44000 3.646
93.46000 2.496
93.48000 0.926
93.50000 -1.467
93.52000 1.849
93.54000 2.880
93.56000 2.711
93.58000 0.638
93.60000 2.194
93.62000 4.425
93.64000 6.241
93.66000 3.639
93.68000 0.199
93.70000 0.835
93.72000 3.284
93.74000 2.292
93.76000 0.968
93.78000 5.708
93.80000 3.833
93.82000 -0.355
93.84000 4.477
93.86000 4.601
93.88000 4.318
93.90000 1.618
93.92000 2.939
93.94000 7.129
93.96000 7.230
93.98000 3.863
94.00000 5.095
94.02000 7.042
94.04000 4.533
94.06000 6.531
94.08000 4.347
94.10000 2.258
94.12000 4.768
94.14000 2.829
94.16000 -1.818
94.18000 4.030
94.20000 6.704
94.22000 6.380
94.24000 3.618
94.26000 1.668
94.28000 2.521
94.30000 3.553
94.32000 4.383
94.34000 1.175
94.36000 4.085
94.38000 7.746
94.40000 5.701
94.42000 3.991
94.44000 3.395
94.46000 3.975
94.48000 7.003
94.50000 7.285
94.52000 7.572
94.54000 3.739
94.56000 1.284
94.58000 3.521
94.60000 2.447
94.62000 2.255
94.64000 4.433
94.66000 4.836
94.68000 4.044
94.70000 5.601
94.72000 2.059
94.74000 2.498
94.76000 1.354
94.78000 1.071
94.80000 2.634
94.82000 2.965
94.84000 3.313
94.86000 3.239
94.88000 4.965
94.90000 6.103
94.92000 3.133
94.94000 0.473
94.96000 0.109
94.98000 0.980
95.00000 4.263
95.02000 7.723
95.04000 6.028
95.06000 2.396
95.08000 6.012
95.10000 7.133
95.12000 3.513
95.14000 5.576
95.16000 2.721
95.18000 5.177
95.20000 3.967
95.22000 3.356
95.24000 3.302
95.26000 5.392
95.28000 3.963
95.30000 3.013
95.32000 0.166
95.34000 2.227
95.36000 6.524
95.38000 5.492
95.40000 1.949
95.42000 2.568
95.44000 3.451
95.46000 2.641
95.48000 4.711
95.50000 3.041
95.52000 3.719
95.54000 7.052
95.56000 3.531
95.58000 3.925
95.60000 3.878
95.62000 4.049
95.64000 2.784
95.66000 1.812
95.68000 4.562
95.70000 4.706
95.72000 5.348
95.74000 4.530
95.76000 5.532
95.78000 2.005
95.80000 -0.399
95.82000 0.806
95.84000 1.614
95.86000 1.017
95.88000 -0.541
95.90000 1.255
95.92000 1.607
95.94000 -1.860
95.96000 1.545
95.98000 8.153
96.00000 4.937
96.02000 3.364
96.04000 2.527
96.06000 0.560
96.08000 3.930
96.10000 6.602
96.12000 6.966
96.14000 5.220
96.16000 7.399
96.18000 7.352
96.20000 1.178
96.22000 4.821
96.24000 7.115
96.26000 4.726
96.28000 5.396
96.30000 5.291
96.32000 0.973
96.34000 3.004
96.36000 1.292
96.38000 4.872
96.40000 6.949
96.42000 2.608
96.44000 1.529
96.46000 3.722
96.48000 6.872
96.50000 7.763
96.52000 5.655
96.54000 4.678
96.56000 6.074
96.58000 6.925
96.60000 6.295
96.62000 5.360
96.64000 3.376
96.66000 2.095
96.68000 8.473
96.70000 7.931
96.72000 5.517
96.74000 1.758
96.76000 -1.809
96.78000 2.621
96.80000 5.243
96.82000 3.064
96.84000 5.717
96.86000 4.212
96.88000 5.329
96.90000 6.724
96.92000 6.740
96.94000 3.068
96.96000 4.796
96.98000 1.795
97.00000 -0.105
97.02000 2.518
97.04000 6.277
97.06000 7.785
97.08000 4.582
97.10000 6.851
97.12000 5.915
97.14000 4.838
97.16000 3.376
97.18000 5.549
97.20000 6.641
97.22000 8.250
97.24000 0.949
97.26000 -0.162
97.28000 3.134
97.30000 7.531
97.32000 4.796
97.34000 -1.117
97.36000 -0.762
97.38000 6.957
97.40000 6.434
97.42000 6.955
97.44000 4.736
97.46000 3.835
97.48000 2.519
97.50000 2.757
97.52000 3.324
97.54000 0.855
97.56000 7.092
97.58000 9.963
97.60000 4.534
97.62000 4.678
97.64000 6.376
97.66000 7.400
97.68000 3.764
97.70000 2.885
97.72000 4.471
97.74000 2.260
97.76000 1.911
97.78000 2.252
97.80000 7.334
97.82000 5.325
97.84000 8.601
97.86000 7.934
97.88000 8.077
97.90000 8.636
97.92000 1.799
97.94000 0.328
97.96000 6.279
97.98000 4.006
98.00000 2.679
98.02000 3.455
98.04000 4.718
98.06000 6.989
98.08000 5.781
98.10000 0.703
98.12000 3.874
98.14000 2.585
98.16000 6.355
98.18000 5.416
98.20000 2.604
98.22000 9.366
98.24000 4.770
98.26000 2.550
98.28000 5.173
98.30000 5.251
98.32000 2.127
98.34000 3.062
98.36000 3.702
98.38000 7.010
98.40000 3.452
98.42000 2.639
98.44000 7.184
98.46000 5.099
98.48000 -0.474
98.50000 1.650
98.52000 2.746
98.54000 2.264
98.56000 -1.788
98.58000 2.492
98.60000 4.269
98.62000 8.544
98.64000 6.951
98.66000 7.766
98.68000 7.525
98.70000 6.277
98.72000 2.437
98.74000 -0.622
98.76000 4.599
98.78000 9.183
98.80000 11.997
98.82000 8.788
98.84000 5.107
98.86000 -1.263
98.88000 -1.410
98.90000 1.943
98.92000 5.554
98.94000 5.453
98.96000 4.206
98.98000 -1.392
99.00000 1.674
99.02000 6.143
99.04000 6.924
99.06000 8.834
99.08000 7.573
99.10000 5.468
99.12000 -0.177
99.14000 -1.477
99.16000 1.760
99.18000 6.214
99.20000 0.485
99.22000 6.197
99.24000 5.131
99.26000 4.528
99.28000 4.831
99.30000 4.234
99.32000 1.208
99.34000 1.490
99.36000 1.375
99.38000 4.521
99.40000 6.421
99.42000 0.627
99.44000 -1.861
99.46000 1.861
99.48000 3.091
99.50000 2.243
99.52000 5.008
99.54000 4.034
99.56000 1.431
99.58000 2.755
99.60000 0.999
99.62000 3.308
99.64000 2.107
99.66000 1.123
99.68000 6.507
99.70000 -1.901
99.72000 2.963
99.74000 1.764
99.76000 -1.623
99.78000 -1.085
99.80000 5.169
99.82000 -1.236
99.84000 -1.947
99.86000 2.244
99.88000 1.971
99.90000 4.612
99.92000 1.262
99.94000 3.768
99.96000 -2.100
99.98000 0.000
