'Id: "0011389" Comment: "Integrate frame 0011389_Au-Ir-Rh_Au-Rich_XRD_Mapping-226-0000.gfrmwith cursor Wedge Cursor #5" Operator: "B?rgel" Anode: "Cu" Wavelength: "1.5406" Scantype: "2Theta (TwoTheta)" TimePerStep: "1" X: "-18" Y: "13.5" Z: "5.95" 
10.00000 0.000
10.02000 -4.503
10.04000 -4.468
10.06000 4.346
10.08000 3.150
10.10000 4.663
10.12000 3.237
10.14000 13.300
10.16000 12.845
10.18000 18.461
10.20000 15.025
10.22000 34.277
10.24000 18.812
10.26000 4.560
10.28000 14.729
10.30000 32.397
10.32000 12.437
10.34000 12.009
10.36000 -4.348
10.38000 7.991
10.40000 26.515
10.42000 14.784
10.44000 31.821
10.46000 39.274
10.48000 2.468
10.50000 14.388
10.52000 7.523
10.54000 3.215
10.56000 9.664
10.58000 25.005
10.60000 23.076
10.62000 26.139
10.64000 27.320
10.66000 31.386
10.68000 18.189
10.70000 1.949
10.72000 9.301
10.74000 8.546
10.76000 16.909
10.78000 26.133
10.80000 21.834
10.82000 16.353
10.84000 13.640
10.86000 12.186
10.88000 26.920
10.90000 25.998
10.92000 20.278
10.94000 14.399
10.96000 13.782
10.98000 34.654
11.00000 38.948
11.02000 18.700
11.04000 11.103
11.06000 20.315
11.08000 16.892
11.10000 10.607
11.12000 25.702
11.14000 28.218
11.16000 6.854
11.18000 12.116
11.20000 23.005
11.22000 18.482
11.24000 18.476
11.26000 14.571
11.28000 28.201
11.30000 27.738
11.32000 20.681
11.34000 3.449
11.36000 4.755
11.38000 16.097
11.40000 16.911
11.42000 17.306
11.44000 22.546
11.46000 12.941
11.48000 16.815
11.50000 25.500
11.52000 24.613
11.54000 19.127
11.56000 4.500
11.58000 4.097
11.60000 18.855
11.62000 26.001
11.64000 19.538
11.66000 15.468
11.68000 13.317
11.70000 7.670
11.72000 9.528
11.74000 17.805
11.76000 11.716
11.78000 17.815
11.80000 10.281
11.82000 5.799
11.84000 12.584
11.86000 8.021
11.88000 6.623
11.90000 7.294
11.92000 18.146
11.94000 29.175
11.96000 18.169
11.98000 9.943
12.00000 11.836
12.02000 13.052
12.04000 11.586
12.06000 16.013
12.08000 20.117
12.10000 23.017
12.12000 9.751
12.14000 11.012
12.16000 14.696
12.18000 19.315
12.20000 26.109
12.22000 22.393
12.24000 27.863
12.26000 25.472
12.28000 12.989
12.30000 9.353
12.32000 18.869
12.34000 11.976
12.36000 -0.308
12.38000 -3.479
12.40000 16.249
12.42000 19.553
12.44000 1.179
12.46000 4.933
12.48000 16.649
12.50000 10.983
12.52000 17.908
12.54000 5.573
12.56000 6.733
12.58000 20.356
12.60000 25.556
12.62000 26.427
12.64000 16.108
12.66000 12.898
12.68000 11.922
12.70000 13.020
12.72000 12.215
12.74000 14.727
12.76000 25.969
12.78000 28.678
12.80000 21.358
12.82000 7.950
12.84000 7.874
12.86000 11.291
12.88000 11.803
12.90000 14.634
12.92000 10.920
12.94000 8.366
12.96000 12.574
12.98000 6.033
13.00000 10.789
13.02000 26.249
13.04000 15.720
13.06000 13.934
13.08000 11.617
13.10000 15.296
13.12000 19.252
13.14000 20.836
13.16000 21.190
13.18000 25.898
13.20000 26.512
13.22000 14.026
13.24000 13.461
13.26000 16.060
13.28000 12.528
13.30000 7.978
13.32000 14.079
13.34000 16.406
13.36000 19.054
13.38000 18.161
13.40000 17.161
13.42000 16.024
13.44000 5.575
13.46000 6.270
13.48000 6.662
13.50000 12.180
13.52000 22.325
13.54000 21.526
13.56000 16.802
13.58000 5.029
13.60000 3.029
13.62000 8.955
13.64000 17.861
13.66000 15.006
13.68000 8.315
13.70000 11.783
13.72000 17.042
13.74000 14.487
13.76000 12.435
13.78000 22.865
13.80000 21.843
13.82000 12.055
13.84000 19.306
13.86000 17.193
13.88000 5.330
13.90000 -1.636
13.92000 -4.477
13.94000 1.849
13.96000 4.168
13.98000 15.924
14.00000 20.004
14.02000 11.453
14.04000 7.675
14.06000 12.487
14.08000 10.520
14.10000 17.172
14.12000 14.667
14.14000 13.650
14.16000 5.737
14.18000 9.363
14.20000 17.581
14.22000 9.784
14.24000 16.585
14.26000 18.800
14.28000 7.051
14.30000 11.600
14.32000 14.178
14.34000 11.997
14.36000 18.404
14.38000 23.903
14.40000 17.811
14.42000 8.791
14.44000 15.617
14.46000 18.819
14.48000 18.344
14.50000 8.784
14.52000 8.494
14.54000 8.794
14.56000 11.397
14.58000 14.110
14.60000 14.969
14.62000 15.490
14.64000 9.704
14.66000 13.670
14.68000 17.407
14.70000 14.794
14.72000 11.801
14.74000 7.825
14.76000 4.674
14.78000 6.075
14.80000 8.843
14.82000 9.703
14.84000 12.790
14.86000 7.100
14.88000 0.969
14.90000 0.109
14.92000 0.081
14.94000 6.490
14.96000 5.096
14.98000 3.912
15.00000 6.402
15.02000 1.215
15.04000 10.154
15.06000 15.425
15.08000 21.149
15.10000 22.724
15.12000 20.558
15.14000 13.018
15.16000 4.734
15.18000 4.622
15.20000 9.083
15.22000 9.951
15.24000 14.014
15.26000 7.067
15.28000 2.700
15.30000 0.068
15.32000 2.625
15.34000 11.177
15.36000 8.625
15.38000 20.458
15.40000 12.347
15.42000 -2.734
15.44000 4.502
15.46000 8.601
15.48000 13.192
15.50000 7.752
15.52000 7.134
15.54000 8.517
15.56000 11.327
15.58000 11.155
15.60000 10.983
15.62000 15.422
15.64000 13.501
15.66000 2.331
15.68000 9.992
15.70000 0.326
15.72000 4.546
15.74000 5.825
15.76000 9.917
15.78000 14.126
15.80000 6.028
15.82000 5.114
15.84000 5.794
15.86000 7.337
15.88000 19.696
15.90000 10.522
15.92000 6.758
15.94000 -4.307
15.96000 -4.457
15.98000 6.918
16.00000 10.000
16.02000 5.667
16.04000 0.721
16.06000 1.764
16.08000 -0.164
16.10000 6.782
16.12000 8.029
16.14000 6.728
16.16000 8.962
16.18000 7.070
16.20000 5.083
16.22000 4.498
16.24000 7.456
16.26000 14.063
16.28000 4.512
16.30000 -4.449
16.32000 1.502
16.34000 11.922
16.36000 3.571
16.38000 3.537
16.40000 0.219
16.42000 2.891
16.44000 9.436
16.46000 18.276
16.48000 9.734
16.50000 1.791
16.52000 7.078
16.54000 13.293
16.56000 15.750
16.58000 5.322
16.60000 0.557
16.62000 6.655
16.64000 3.636
16.66000 -3.538
16.68000 -3.173
16.70000 3.028
16.72000 -2.310
16.74000 -2.485
16.76000 -2.803
16.78000 4.286
16.80000 11.347
16.82000 14.056
16.84000 16.810
16.86000 10.616
16.88000 14.085
16.90000 8.914
16.92000 5.628
16.94000 7.153
16.96000 5.490
16.98000 -1.887
17.00000 2.093
17.02000 8.258
17.04000 3.212
17.06000 1.879
17.08000 6.904
17.10000 11.338
17.12000 8.274
17.14000 7.216
17.16000 9.269
17.18000 0.653
17.20000 1.395
17.22000 4.071
17.24000 10.900
17.26000 9.767
17.28000 3.926
17.30000 8.844
17.32000 13.044
17.34000 11.772
17.36000 12.355
17.38000 17.326
17.40000 11.709
17.42000 10.504
17.44000 9.115
17.46000 6.867
17.48000 7.484
17.50000 6.510
17.52000 7.238
17.54000 -0.858
17.56000 -4.410
17.58000 5.879
17.60000 11.876
17.62000 7.444
17.64000 10.059
17.66000 7.192
17.68000 5.118
17.70000 6.921
17.72000 5.869
17.74000 3.669
17.76000 1.767
17.78000 -1.046
17.80000 0.438
17.82000 -1.562
17.84000 2.051
17.86000 3.793
17.88000 -2.324
17.90000 2.659
17.92000 12.552
17.94000 9.453
17.96000 3.557
17.98000 7.610
18.00000 0.850
18.02000 -2.673
18.04000 7.454
18.06000 9.510
18.08000 1.305
18.10000 1.063
18.12000 9.747
18.14000 10.375
18.16000 4.113
18.18000 3.393
18.20000 8.486
18.22000 11.292
18.24000 -0.070
18.26000 1.240
18.28000 4.237
18.30000 9.694
18.32000 2.673
18.34000 -3.833
18.36000 -1.619
18.38000 2.175
18.40000 -0.754
18.42000 1.802
18.44000 -0.737
18.46000 7.025
18.48000 2.129
18.50000 6.368
18.52000 3.906
18.54000 2.688
18.56000 3.735
18.58000 0.743
18.60000 4.645
18.62000 10.038
18.64000 3.031
18.66000 3.129
18.68000 2.946
18.70000 8.081
18.72000 5.251
18.74000 2.625
18.76000 10.029
18.78000 10.458
18.80000 6.293
18.82000 9.232
18.84000 0.369
18.86000 1.847
18.88000 4.909
18.90000 7.779
18.92000 6.322
18.94000 3.645
18.96000 -0.428
18.98000 0.052
19.00000 2.166
19.02000 4.106
19.04000 -0.805
19.06000 -4.297
19.08000 4.228
19.10000 -0.279
19.12000 0.672
19.14000 3.710
19.16000 1.263
19.18000 1.178
19.20000 7.297
19.22000 1.746
19.24000 -2.244
19.26000 3.899
19.28000 6.089
19.30000 5.686
19.32000 -2.408
19.34000 -2.031
19.36000 7.302
19.38000 3.387
19.40000 2.334
19.42000 5.283
19.44000 9.386
19.46000 2.082
19.48000 2.525
19.50000 -4.219
19.52000 -1.648
19.54000 -0.910
19.56000 0.129
19.58000 5.181
19.60000 8.427
19.62000 5.548
19.64000 2.210
19.66000 2.087
19.68000 -0.353
19.70000 2.729
19.72000 3.594
19.74000 5.682
19.76000 4.169
19.78000 1.673
19.80000 1.233
19.82000 -1.471
19.84000 1.797
19.86000 5.583
19.88000 0.330
19.90000 3.944
19.92000 1.868
19.94000 5.883
19.96000 3.790
19.98000 8.040
20.00000 4.301
20.02000 0.904
20.04000 9.419
20.06000 7.007
20.08000 5.745
20.10000 1.046
20.12000 -2.385
20.14000 3.889
20.16000 4.700
20.18000 4.085
20.20000 -0.255
20.22000 -4.238
20.24000 -1.116
20.26000 4.667
20.28000 1.707
20.30000 1.191
20.32000 3.689
20.34000 6.021
20.36000 6.246
20.38000 -2.969
20.40000 -0.368
20.42000 0.129
20.44000 8.157
20.46000 9.718
20.48000 7.954
20.50000 0.638
20.52000 -1.052
20.54000 -0.007
20.56000 0.100
20.58000 0.590
20.60000 -4.081
20.62000 8.644
20.64000 4.060
20.66000 3.882
20.68000 4.604
20.70000 -0.241
20.72000 2.948
20.74000 -3.370
20.76000 -3.556
20.78000 5.009
20.80000 2.108
20.82000 0.425
20.84000 1.511
20.86000 -1.684
20.88000 -4.207
20.90000 1.063
20.92000 10.349
20.94000 12.272
20.96000 9.377
20.98000 -0.333
21.00000 0.402
21.02000 -0.334
21.04000 4.733
21.06000 2.834
21.08000 5.687
21.10000 5.982
21.12000 4.822
21.14000 6.924
21.16000 6.927
21.18000 10.380
21.20000 7.651
21.22000 -0.095
21.24000 2.754
21.26000 1.000
21.28000 -0.716
21.30000 5.572
21.32000 7.363
21.34000 -2.727
21.36000 -4.188
21.38000 1.963
21.40000 3.621
21.42000 3.566
21.44000 6.091
21.46000 0.327
21.48000 5.108
21.50000 -1.617
21.52000 0.328
21.54000 6.243
21.56000 10.139
21.58000 12.818
21.60000 4.094
21.62000 0.807
21.64000 0.317
21.66000 6.564
21.68000 7.927
21.70000 8.242
21.72000 4.515
21.74000 -0.487
21.76000 -3.466
21.78000 1.198
21.80000 -0.897
21.82000 0.877
21.84000 8.409
21.86000 2.554
21.88000 -0.650
21.90000 1.474
21.92000 -2.416
21.94000 2.200
21.96000 -1.128
21.98000 -0.736
22.00000 0.265
22.02000 -3.475
22.04000 -2.742
22.06000 1.533
22.08000 3.439
22.10000 8.957
22.12000 9.282
22.14000 5.614
22.16000 4.325
22.18000 7.137
22.20000 4.300
22.22000 4.166
22.24000 3.690
22.26000 5.504
22.28000 0.631
22.30000 -2.170
22.32000 -2.467
22.34000 0.471
22.36000 3.983
22.38000 5.067
22.40000 5.524
22.42000 1.550
22.44000 10.242
22.46000 10.743
22.48000 7.123
22.50000 0.586
22.52000 1.400
22.54000 6.986
22.56000 6.855
22.58000 5.141
22.60000 0.195
22.62000 3.070
22.64000 -0.784
22.66000 -3.479
22.68000 -3.149
22.70000 -4.101
22.72000 2.261
22.74000 5.515
22.76000 7.416
22.78000 7.913
22.80000 3.072
22.82000 1.828
22.84000 1.572
22.86000 2.993
22.88000 2.774
22.90000 -4.087
22.92000 4.948
22.94000 4.289
22.96000 0.358
22.98000 0.718
23.00000 0.693
23.02000 5.734
23.04000 3.067
23.06000 1.588
23.08000 1.649
23.10000 -2.042
23.12000 3.854
23.14000 4.891
23.16000 2.257
23.18000 1.622
23.20000 1.705
23.22000 -2.266
23.24000 1.262
23.26000 1.773
23.28000 6.141
23.30000 10.896
23.32000 8.337
23.34000 8.632
23.36000 3.122
23.38000 7.641
23.40000 9.023
23.42000 7.924
23.44000 1.973
23.46000 2.139
23.48000 3.805
23.50000 6.917
23.52000 8.104
23.54000 6.190
23.56000 10.367
23.58000 12.327
23.60000 8.607
23.62000 3.629
23.64000 6.932
23.66000 2.917
23.68000 -3.297
23.70000 4.557
23.72000 9.773
23.74000 8.899
23.76000 5.513
23.78000 2.902
23.80000 -0.874
23.82000 -0.702
23.84000 3.119
23.86000 8.533
23.88000 2.905
23.90000 5.193
23.92000 7.173
23.94000 5.508
23.96000 1.468
23.98000 5.688
24.00000 5.507
24.02000 2.164
24.04000 6.714
24.06000 6.910
24.08000 8.809
24.10000 3.351
24.12000 3.327
24.14000 -0.511
24.16000 -0.984
24.18000 7.278
24.20000 9.771
24.22000 5.202
24.24000 8.360
24.26000 5.636
24.28000 7.643
24.30000 10.230
24.32000 3.811
24.34000 3.143
24.36000 7.239
24.38000 7.766
24.40000 6.220
24.42000 5.113
24.44000 4.103
24.46000 4.062
24.48000 3.714
24.50000 3.975
24.52000 -3.964
24.54000 3.936
24.56000 7.093
24.58000 2.970
24.60000 7.213
24.62000 3.691
24.64000 5.728
24.66000 5.191
24.68000 9.070
24.70000 7.906
24.72000 5.711
24.74000 7.562
24.76000 7.734
24.78000 2.823
24.80000 4.690
24.82000 3.506
24.84000 6.112
24.86000 -1.709
24.88000 0.131
24.90000 1.578
24.92000 4.520
24.94000 5.985
24.96000 5.856
24.98000 6.819
25.00000 5.712
25.02000 7.394
25.04000 8.298
25.06000 9.188
25.08000 4.173
25.10000 6.920
25.12000 7.962
25.14000 1.318
25.16000 5.156
25.18000 -0.768
25.20000 -3.696
25.22000 1.312
25.24000 6.473
25.26000 8.920
25.28000 2.722
25.30000 6.006
25.32000 2.886
25.34000 2.189
25.36000 5.611
25.38000 0.625
25.40000 3.196
25.42000 7.926
25.44000 7.149
25.46000 3.292
25.48000 7.907
25.50000 5.847
25.52000 4.633
25.54000 9.291
25.56000 5.098
25.58000 8.446
25.60000 5.501
25.62000 4.718
25.64000 -1.121
25.66000 1.749
25.68000 1.168
25.70000 4.214
25.72000 1.424
25.74000 -0.246
25.76000 1.909
25.78000 3.500
25.80000 3.707
25.82000 6.593
25.84000 8.914
25.86000 5.218
25.88000 2.613
25.90000 3.936
25.92000 2.429
25.94000 0.110
25.96000 5.706
25.98000 6.007
26.00000 10.055
26.02000 4.002
26.04000 -3.909
26.06000 -0.694
26.08000 2.998
26.10000 5.793
26.12000 4.457
26.14000 2.781
26.16000 5.186
26.18000 2.092
26.20000 2.989
26.22000 2.675
26.24000 3.066
26.26000 3.591
26.28000 5.264
26.30000 -1.072
26.32000 4.912
26.34000 7.864
26.36000 0.238
26.38000 2.396
26.40000 -1.524
26.42000 2.603
26.44000 7.307
26.46000 7.795
26.48000 11.574
26.50000 6.475
26.52000 4.688
26.54000 1.284
26.56000 -0.564
26.58000 0.585
26.60000 2.039
26.62000 2.406
26.64000 0.714
26.66000 4.029
26.68000 3.264
26.70000 4.774
26.72000 0.855
26.74000 2.739
26.76000 7.566
26.78000 3.627
26.80000 1.274
26.82000 0.065
26.84000 0.158
26.86000 2.903
26.88000 4.757
26.90000 7.655
26.92000 7.042
26.94000 5.361
26.96000 3.705
26.98000 0.587
27.00000 2.860
27.02000 -1.818
27.04000 -1.335
27.06000 -2.377
27.08000 0.873
27.10000 -1.502
27.12000 0.726
27.14000 -2.573
27.16000 1.125
27.18000 3.427
27.20000 2.712
27.22000 6.959
27.24000 7.708
27.26000 6.878
27.28000 6.364
27.30000 2.442
27.32000 1.803
27.34000 5.795
27.36000 6.843
27.38000 4.759
27.40000 3.958
27.42000 4.945
27.44000 -2.956
27.46000 -2.501
27.48000 0.282
27.50000 0.741
27.52000 1.673
27.54000 2.046
27.56000 4.082
27.58000 7.227
27.60000 10.796
27.62000 3.570
27.64000 2.433
27.66000 7.675
27.68000 6.810
27.70000 7.818
27.72000 9.366
27.74000 6.261
27.76000 6.000
27.78000 9.644
27.80000 7.730
27.82000 -0.533
27.84000 -3.408
27.86000 1.627
27.88000 3.796
27.90000 1.442
27.92000 -3.820
27.94000 -0.282
27.96000 4.761
27.98000 8.446
28.00000 7.652
28.02000 5.578
28.04000 3.104
28.06000 2.250
28.08000 3.093
28.10000 2.145
28.12000 3.956
28.14000 3.396
28.16000 4.006
28.18000 3.975
28.20000 -1.038
28.22000 -0.438
28.24000 -1.853
28.26000 -3.797
28.28000 2.544
28.30000 4.243
28.32000 4.533
28.34000 3.896
28.36000 -1.030
28.38000 1.232
28.40000 3.873
28.42000 4.083
28.44000 8.227
28.46000 6.661
28.48000 3.412
28.50000 1.267
28.52000 4.283
28.54000 5.589
28.56000 5.286
28.58000 1.876
28.60000 -2.127
28.62000 0.665
28.64000 5.264
28.66000 4.645
28.68000 5.035
28.70000 5.352
28.72000 2.259
28.74000 -1.914
28.76000 -0.580
28.78000 2.311
28.80000 6.344
28.82000 9.211
28.84000 0.947
28.86000 1.328
28.88000 5.891
28.90000 1.522
28.92000 -2.398
28.94000 -3.478
28.96000 -1.641
28.98000 -1.022
29.00000 2.104
29.02000 1.763
29.04000 0.253
29.06000 3.229
29.08000 0.812
29.10000 2.828
29.12000 3.268
29.14000 1.695
29.16000 3.541
29.18000 0.049
29.20000 0.442
29.22000 5.906
29.24000 7.509
29.26000 5.103
29.28000 5.250
29.30000 1.695
29.32000 -3.758
29.34000 -1.029
29.36000 5.576
29.38000 2.187
29.40000 4.274
29.42000 3.820
29.44000 5.564
29.46000 1.421
29.48000 0.583
29.50000 -0.231
29.52000 0.288
29.54000 4.247
29.56000 5.197
29.58000 5.615
29.60000 2.858
29.62000 -1.378
29.64000 1.476
29.66000 5.214
29.68000 8.725
29.70000 8.859
29.72000 3.422
29.74000 2.810
29.76000 3.424
29.78000 3.388
29.80000 3.707
29.82000 3.671
29.84000 2.428
29.86000 1.213
29.88000 0.434
29.90000 -3.303
29.92000 1.214
29.94000 5.309
29.96000 3.575
29.98000 2.461
30.00000 7.555
30.02000 6.468
30.04000 4.375
30.06000 0.149
30.08000 2.616
30.10000 2.057
30.12000 3.372
30.14000 6.528
30.16000 9.452
30.18000 5.846
30.20000 2.630
30.22000 6.671
30.24000 9.032
30.26000 3.875
30.28000 -0.153
30.30000 3.007
30.32000 3.133
30.34000 4.936
30.36000 6.921
30.38000 8.007
30.40000 3.560
30.42000 -2.399
30.44000 -1.667
30.46000 5.264
30.48000 4.362
30.50000 0.441
30.52000 0.557
30.54000 3.513
30.56000 5.505
30.58000 3.780
30.60000 4.350
30.62000 13.433
30.64000 9.789
30.66000 -0.565
30.68000 -1.226
30.70000 4.184
30.72000 3.801
30.74000 5.465
30.76000 0.757
30.78000 1.514
30.80000 1.449
30.82000 -2.301
30.84000 -1.414
30.86000 3.127
30.88000 2.021
30.90000 2.162
30.92000 0.912
30.94000 4.669
30.96000 6.074
30.98000 1.776
31.00000 5.051
31.02000 4.165
31.04000 6.396
31.06000 5.908
31.08000 2.437
31.10000 1.781
31.12000 1.942
31.14000 3.362
31.16000 4.210
31.18000 0.399
31.20000 0.709
31.22000 -0.152
31.24000 2.625
31.26000 7.060
31.28000 7.106
31.30000 5.568
31.32000 9.399
31.34000 6.542
31.36000 2.342
31.38000 6.920
31.40000 6.142
31.42000 6.246
31.44000 -3.625
31.46000 -0.962
31.48000 9.025
31.50000 6.580
31.52000 7.187
31.54000 8.198
31.56000 5.493
31.58000 3.691
31.60000 0.685
31.62000 -1.582
31.64000 -0.466
31.66000 2.028
31.68000 3.298
31.70000 4.866
31.72000 3.188
31.74000 4.657
31.76000 5.782
31.78000 4.876
31.80000 8.153
31.82000 5.176
31.84000 -0.380
31.86000 -1.104
31.88000 0.189
31.90000 4.074
31.92000 6.473
31.94000 1.723
31.96000 1.558
31.98000 -0.283
32.00000 4.687
32.02000 3.052
32.04000 -0.069
32.06000 5.590
32.08000 6.447
32.10000 2.955
32.12000 -0.063
32.14000 4.005
32.16000 7.179
32.18000 3.079
32.20000 3.001
32.22000 4.708
32.24000 4.585
32.26000 6.632
32.28000 9.300
32.30000 3.832
32.32000 2.514
32.34000 2.923
32.36000 1.287
32.38000 1.777
32.40000 3.676
32.42000 9.040
32.44000 6.065
32.46000 0.916
32.48000 4.172
32.50000 3.129
32.52000 6.841
32.54000 1.769
32.56000 -0.534
32.58000 1.838
32.60000 5.783
32.62000 -1.999
32.64000 1.708
32.66000 5.660
32.68000 0.669
32.70000 -3.616
32.72000 2.721
32.74000 8.267
32.76000 5.363
32.78000 3.620
32.80000 5.985
32.82000 6.876
32.84000 6.567
32.86000 -0.937
32.88000 1.185
32.90000 5.558
32.92000 9.402
32.94000 1.637
32.96000 3.968
32.98000 3.022
33.00000 5.468
33.02000 3.840
33.04000 5.209
33.06000 2.684
33.08000 6.676
33.10000 9.498
33.12000 3.132
33.14000 0.076
33.16000 1.607
33.18000 3.737
33.20000 1.174
33.22000 2.599
33.24000 6.217
33.26000 7.538
33.28000 9.203
33.30000 7.214
33.32000 2.122
33.34000 -1.835
33.36000 -3.622
33.38000 2.058
33.40000 3.527
33.42000 -0.046
33.44000 -0.672
33.46000 1.707
33.48000 0.088
33.50000 0.361
33.52000 4.885
33.54000 6.181
33.56000 -0.610
33.58000 1.013
33.60000 0.696
33.62000 5.047
33.64000 8.152
33.66000 5.826
33.68000 5.847
33.70000 3.391
33.72000 3.563
33.74000 4.222
33.76000 -0.558
33.78000 5.576
33.80000 5.177
33.82000 2.794
33.84000 3.906
33.86000 1.292
33.88000 0.939
33.90000 4.886
33.92000 7.503
33.94000 7.790
33.96000 4.271
33.98000 2.027
34.00000 3.867
34.02000 8.729
34.04000 0.713
34.06000 -2.705
34.08000 0.231
34.10000 10.022
34.12000 5.498
34.14000 3.042
34.16000 8.644
34.18000 10.548
34.20000 5.106
34.22000 5.246
34.24000 0.063
34.26000 -0.295
34.28000 -0.594
34.30000 0.309
34.32000 2.435
34.34000 2.680
34.36000 3.350
34.38000 7.279
34.40000 2.784
34.42000 5.960
34.44000 2.171
34.46000 -1.846
34.48000 -1.676
34.50000 1.538
34.52000 3.131
34.54000 4.566
34.56000 2.831
34.58000 0.578
34.60000 2.778
34.62000 1.561
34.64000 5.665
34.66000 0.808
34.68000 2.914
34.70000 1.836
34.72000 1.911
34.74000 -1.269
34.76000 -3.608
34.78000 -2.294
34.80000 3.534
34.82000 1.316
34.84000 4.277
34.86000 4.842
34.88000 -1.477
34.90000 0.762
34.92000 7.578
34.94000 2.069
34.96000 -0.573
34.98000 0.162
35.00000 -0.443
35.02000 2.693
35.04000 0.217
35.06000 3.384
35.08000 1.133
35.10000 0.841
35.12000 -0.740
35.14000 -0.688
35.16000 2.442
35.18000 2.561
35.20000 1.845
35.22000 0.753
35.24000 5.123
35.26000 6.566
35.28000 2.977
35.30000 3.020
35.32000 4.454
35.34000 5.492
35.36000 7.433
35.38000 1.680
35.40000 2.037
35.42000 3.482
35.44000 -0.019
35.46000 1.492
35.48000 2.689
35.50000 3.540
35.52000 -0.057
35.54000 1.883
35.56000 1.196
35.58000 4.986
35.60000 9.389
35.62000 1.948
35.64000 -3.601
35.66000 -3.607
35.68000 2.189
35.70000 0.259
35.72000 4.549
35.74000 5.893
35.76000 5.777
35.78000 7.950
35.80000 6.810
35.82000 2.120
35.84000 6.176
35.86000 4.616
35.88000 1.061
35.90000 4.314
35.92000 1.925
35.94000 -0.785
35.96000 0.345
35.98000 -3.627
36.00000 0.512
36.02000 2.455
36.04000 3.018
36.06000 5.968
36.08000 5.078
36.10000 -0.449
36.12000 4.361
36.14000 5.022
36.16000 3.015
36.18000 1.886
36.20000 5.633
36.22000 6.231
36.24000 11.363
36.26000 5.048
36.28000 3.331
36.30000 3.871
36.32000 2.684
36.34000 5.552
36.36000 6.148
36.38000 3.013
36.40000 0.304
36.42000 2.669
36.44000 2.381
36.46000 3.035
36.48000 0.038
36.50000 1.104
36.52000 -3.433
36.54000 -2.939
36.56000 -1.512
36.58000 3.861
36.60000 -0.681
36.62000 5.271
36.64000 5.442
36.66000 5.705
36.68000 4.582
36.70000 4.277
36.72000 2.406
36.74000 2.424
36.76000 1.584
36.78000 3.244
36.80000 2.918
36.82000 6.954
36.84000 9.549
36.86000 7.945
36.88000 8.550
36.90000 5.704
36.92000 0.965
36.94000 5.095
36.96000 7.942
36.98000 7.191
37.00000 6.082
37.02000 8.064
37.04000 10.252
37.06000 8.396
37.08000 6.562
37.10000 8.091
37.12000 11.912
37.14000 14.272
37.16000 10.598
37.18000 13.561
37.20000 16.250
37.22000 11.407
37.24000 12.849
37.26000 16.050
37.28000 19.099
37.30000 17.253
37.32000 16.478
37.34000 10.615
37.36000 10.925
37.38000 15.002
37.40000 14.601
37.42000 18.696
37.44000 15.513
37.46000 16.496
37.48000 15.291
37.50000 14.933
37.52000 15.731
37.54000 17.784
37.56000 17.273
37.58000 19.010
37.60000 15.139
37.62000 16.357
37.64000 24.911
37.66000 25.833
37.68000 32.032
37.70000 29.069
37.72000 27.825
37.74000 27.463
37.76000 26.140
37.78000 28.383
37.80000 32.229
37.82000 29.206
37.84000 32.513
37.86000 35.237
37.88000 30.289
37.90000 29.688
37.92000 33.160
37.94000 33.730
37.96000 33.856
37.98000 32.896
38.00000 37.915
38.02000 39.304
38.04000 45.721
38.06000 40.971
38.08000 37.782
38.10000 41.393
38.12000 45.548
38.14000 53.060
38.16000 58.288
38.18000 56.183
38.20000 55.536
38.22000 53.115
38.24000 56.328
38.26000 59.437
38.28000 64.504
38.30000 71.658
38.32000 66.406
38.34000 75.780
38.36000 77.076
38.38000 79.920
38.40000 83.061
38.42000 88.339
38.44000 92.424
38.46000 99.266
38.48000 101.452
38.50000 110.357
38.52000 117.249
38.54000 123.351
38.56000 130.485
38.58000 133.364
38.60000 145.692
38.62000 159.441
38.64000 165.933
38.66000 172.794
38.68000 176.236
38.70000 183.760
38.72000 200.192
38.74000 215.151
38.76000 227.303
38.78000 237.893
38.80000 243.897
38.82000 262.162
38.84000 273.962
38.86000 285.167
38.88000 293.938
38.90000 303.973
38.92000 312.440
38.94000 314.435
38.96000 324.521
38.98000 341.051
39.00000 345.790
39.02000 340.620
39.04000 347.690
39.06000 350.636
39.08000 342.254
39.10000 332.969
39.12000 333.002
39.14000 333.892
39.16000 333.399
39.18000 326.918
39.20000 317.522
39.22000 305.387
39.24000 297.785
39.26000 289.940
39.28000 279.126
39.30000 268.950
39.32000 250.258
39.34000 232.726
39.36000 225.762
39.38000 211.406
39.40000 194.486
39.42000 186.074
39.44000 175.418
39.46000 167.221
39.48000 159.210
39.50000 147.481
39.52000 138.294
39.54000 134.840
39.56000 127.883
39.58000 117.383
39.60000 110.431
39.62000 105.999
39.64000 102.603
39.66000 93.175
39.68000 84.980
39.70000 82.951
39.72000 73.435
39.74000 73.580
39.76000 70.223
39.78000 64.584
39.80000 63.799
39.82000 59.271
39.84000 48.662
39.86000 48.932
39.88000 50.453
39.90000 45.499
39.92000 43.749
39.94000 42.097
39.96000 44.507
39.98000 45.497
40.00000 44.200
40.02000 38.035
40.04000 40.900
40.06000 43.249
40.08000 38.070
40.10000 34.670
40.12000 35.611
40.14000 31.585
40.16000 28.258
40.18000 27.057
40.20000 26.723
40.22000 25.254
40.24000 20.964
40.26000 20.782
40.28000 21.495
40.30000 24.060
40.32000 25.510
40.34000 24.464
40.36000 19.162
40.38000 22.632
40.40000 18.571
40.42000 16.380
40.44000 18.475
40.46000 22.660
40.48000 18.781
40.50000 12.041
40.52000 6.824
40.54000 7.597
40.56000 13.702
40.58000 13.454
40.60000 14.091
40.62000 9.308
40.64000 10.611
40.66000 11.734
40.68000 14.283
40.70000 12.114
40.72000 11.258
40.74000 9.623
40.76000 6.693
40.78000 8.966
40.80000 9.037
40.82000 9.830
40.84000 10.513
40.86000 10.652
40.88000 7.398
40.90000 3.638
40.92000 7.866
40.94000 8.365
40.96000 7.936
40.98000 8.457
41.00000 9.622
41.02000 7.500
41.04000 6.503
41.06000 2.921
41.08000 1.586
41.10000 4.795
41.12000 7.383
41.14000 2.673
41.16000 2.781
41.18000 3.409
41.20000 2.381
41.22000 3.197
41.24000 2.261
41.26000 3.193
41.28000 7.513
41.30000 4.608
41.32000 3.775
41.34000 2.052
41.36000 5.385
41.38000 6.011
41.40000 2.977
41.42000 2.996
41.44000 4.480
41.46000 0.649
41.48000 0.553
41.50000 -0.557
41.52000 -2.434
41.54000 0.875
41.56000 3.755
41.58000 0.969
41.60000 2.053
41.62000 1.639
41.64000 0.798
41.66000 -1.778
41.68000 -0.104
41.70000 -1.623
41.72000 0.720
41.74000 2.608
41.76000 1.768
41.78000 2.497
41.80000 1.039
41.82000 2.383
41.84000 3.220
41.86000 4.028
41.88000 3.784
41.90000 0.446
41.92000 2.118
41.94000 6.286
41.96000 1.712
41.98000 -3.353
42.00000 -1.176
42.02000 0.710
42.04000 0.395
42.06000 -3.388
42.08000 -0.059
42.10000 3.766
42.12000 2.251
42.14000 -0.731
42.16000 1.953
42.18000 3.233
42.20000 0.549
42.22000 2.459
42.24000 3.274
42.26000 3.730
42.28000 9.469
42.30000 9.474
42.32000 6.128
42.34000 2.581
42.36000 0.240
42.38000 -2.409
42.40000 -1.027
42.42000 -0.780
42.44000 1.801
42.46000 2.923
42.48000 1.901
42.50000 1.950
42.52000 2.223
42.54000 1.281
42.56000 1.281
42.58000 2.507
42.60000 0.394
42.62000 -2.041
42.64000 -0.509
42.66000 -0.339
42.68000 5.449
42.70000 1.406
42.72000 -0.814
42.74000 -3.330
42.76000 -1.222
42.78000 -2.286
42.80000 -0.702
42.82000 6.202
42.84000 5.355
42.86000 3.046
42.88000 2.132
42.90000 1.907
42.92000 4.000
42.94000 1.504
42.96000 1.407
42.98000 0.599
43.00000 -0.065
43.02000 -0.643
43.04000 -1.289
43.06000 3.055
43.08000 0.908
43.10000 -2.040
43.12000 2.141
43.14000 7.133
43.16000 5.808
43.18000 -1.045
43.20000 -2.031
43.22000 0.023
43.24000 3.308
43.26000 3.535
43.28000 -0.480
43.30000 -1.567
43.32000 -0.232
43.34000 -1.084
43.36000 -1.308
43.38000 -3.256
43.40000 -1.331
43.42000 0.102
43.44000 3.636
43.46000 1.818
43.48000 3.553
43.50000 3.185
43.52000 1.937
43.54000 -0.829
43.56000 -0.240
43.58000 3.305
43.60000 1.636
43.62000 0.030
43.64000 -2.311
43.66000 3.194
43.68000 5.904
43.70000 4.484
43.72000 4.697
43.74000 4.083
43.76000 2.012
43.78000 5.129
43.80000 2.340
43.82000 3.017
43.84000 3.609
43.86000 6.308
43.88000 3.383
43.90000 1.060
43.92000 2.163
43.94000 4.237
43.96000 3.777
43.98000 -3.214
44.00000 1.549
44.02000 6.416
44.04000 8.908
44.06000 5.184
44.08000 1.983
44.10000 5.279
44.12000 3.273
44.14000 5.018
44.16000 7.098
44.18000 6.698
44.20000 5.818
44.22000 5.160
44.24000 2.818
44.26000 1.472
44.28000 5.230
44.30000 6.720
44.32000 6.268
44.34000 5.097
44.36000 8.410
44.38000 11.251
44.40000 7.571
44.42000 11.828
44.44000 8.105
44.46000 5.179
44.48000 6.314
44.50000 11.515
44.52000 13.537
44.54000 14.323
44.56000 16.475
44.58000 17.439
44.60000 17.643
44.62000 16.033
44.64000 13.214
44.66000 14.821
44.68000 18.454
44.70000 17.997
44.72000 17.671
44.74000 20.432
44.76000 18.347
44.78000 24.055
44.80000 20.783
44.82000 17.367
44.84000 23.767
44.86000 26.936
44.88000 29.314
44.90000 28.075
44.92000 31.525
44.94000 32.828
44.96000 33.252
44.98000 37.425
45.00000 39.361
45.02000 40.650
45.04000 42.661
45.06000 50.195
45.08000 47.063
45.10000 48.239
45.12000 47.475
45.14000 50.160
45.16000 54.694
45.18000 55.845
45.20000 56.761
45.22000 59.410
45.24000 60.643
45.26000 63.915
45.28000 63.049
45.30000 68.352
45.32000 76.064
45.34000 79.104
45.36000 78.690
45.38000 80.208
45.40000 82.711
45.42000 85.133
45.44000 86.915
45.46000 90.492
45.48000 88.920
45.50000 91.700
45.52000 90.344
45.54000 92.701
45.56000 94.545
45.58000 89.866
45.60000 90.717
45.62000 90.129
45.64000 86.433
45.66000 87.054
45.68000 91.446
45.70000 89.923
45.72000 83.100
45.74000 77.633
45.76000 80.036
45.78000 81.677
45.80000 74.532
45.82000 74.952
45.84000 71.443
45.86000 70.591
45.88000 64.785
45.90000 64.041
45.92000 62.821
45.94000 57.938
45.96000 51.677
45.98000 55.330
46.00000 51.574
46.02000 49.345
46.04000 49.604
46.06000 42.544
46.08000 39.176
46.10000 37.379
46.12000 37.486
46.14000 31.467
46.16000 33.643
46.18000 32.948
46.20000 28.354
46.22000 26.789
46.24000 24.938
46.26000 23.511
46.28000 24.139
46.30000 25.973
46.32000 19.118
46.34000 17.527
46.36000 17.310
46.38000 12.167
46.40000 12.322
46.42000 14.316
46.44000 14.612
46.46000 15.330
46.48000 11.785
46.50000 9.867
46.52000 11.644
46.54000 9.395
46.56000 8.291
46.58000 8.657
46.60000 8.860
46.62000 9.471
46.64000 7.974
46.66000 5.457
46.68000 4.265
46.70000 0.088
46.72000 1.565
46.74000 5.263
46.76000 6.905
46.78000 4.358
46.80000 5.077
46.82000 0.800
46.84000 3.244
46.86000 6.085
46.88000 2.075
46.90000 2.244
46.92000 5.013
46.94000 4.207
46.96000 3.491
46.98000 4.121
47.00000 -0.762
47.02000 -2.877
47.04000 -1.092
47.06000 4.912
47.08000 5.383
47.10000 4.857
47.12000 4.157
47.14000 5.100
47.16000 8.134
47.18000 3.222
47.20000 0.828
47.22000 1.768
47.24000 0.628
47.26000 -0.716
47.28000 3.527
47.30000 2.383
47.32000 -0.915
47.34000 0.967
47.36000 1.254
47.38000 2.825
47.40000 1.877
47.42000 -1.122
47.44000 3.568
47.46000 5.416
47.48000 2.471
47.50000 0.872
47.52000 -0.823
47.54000 -2.821
47.56000 1.032
47.58000 -0.677
47.60000 1.416
47.62000 4.224
47.64000 1.642
47.66000 1.588
47.68000 -0.103
47.70000 -1.557
47.72000 4.570
47.74000 1.227
47.76000 -1.664
47.78000 1.740
47.80000 1.874
47.82000 4.626
47.84000 1.386
47.86000 2.121
47.88000 4.623
47.90000 2.757
47.92000 2.782
47.94000 2.706
47.96000 3.385
47.98000 4.496
48.00000 1.963
48.02000 3.265
48.04000 6.151
48.06000 9.062
48.08000 5.504
48.10000 6.818
48.12000 4.527
48.14000 0.833
48.16000 -2.739
48.18000 0.165
48.20000 2.586
48.22000 6.453
48.24000 3.743
48.26000 3.727
48.28000 0.465
48.30000 -2.724
48.32000 1.633
48.34000 0.834
48.36000 4.869
48.38000 5.645
48.40000 4.234
48.42000 0.482
48.44000 -0.780
48.46000 1.719
48.48000 3.859
48.50000 2.313
48.52000 -0.744
48.54000 -2.175
48.56000 1.461
48.58000 -2.709
48.60000 1.248
48.62000 5.186
48.64000 2.227
48.66000 3.793
48.68000 -0.732
48.70000 -2.498
48.72000 2.157
48.74000 3.150
48.76000 1.026
48.78000 2.043
48.80000 2.460
48.82000 -1.000
48.84000 -1.526
48.86000 2.317
48.88000 -0.161
48.90000 1.558
48.92000 2.993
48.94000 1.310
48.96000 3.974
48.98000 8.015
49.00000 5.981
49.02000 7.484
49.04000 4.699
49.06000 0.916
49.08000 2.250
49.10000 2.994
49.12000 5.226
49.14000 4.644
49.16000 5.347
49.18000 1.896
49.20000 0.827
49.22000 3.936
49.24000 0.845
49.26000 4.155
49.28000 7.468
49.30000 2.231
49.32000 2.821
49.34000 6.622
49.36000 5.160
49.38000 5.812
49.40000 3.244
49.42000 1.867
49.44000 -0.718
49.46000 -2.644
49.48000 -0.632
49.50000 2.365
49.52000 3.237
49.54000 9.878
49.56000 11.325
49.58000 6.745
49.60000 1.472
49.62000 1.715
49.64000 2.485
49.66000 4.814
49.68000 1.905
49.70000 2.664
49.72000 2.984
49.74000 4.111
49.76000 3.307
49.78000 3.485
49.80000 1.293
49.82000 3.435
49.84000 2.528
49.86000 2.094
49.88000 4.515
49.90000 5.933
49.92000 3.628
49.94000 3.575
49.96000 3.349
49.98000 2.684
50.00000 2.331
50.02000 1.108
50.04000 2.893
50.06000 1.343
50.08000 0.949
50.10000 5.979
50.12000 3.116
50.14000 -1.921
50.16000 -1.512
50.18000 2.435
50.20000 2.828
50.22000 2.914
50.24000 6.209
50.26000 1.685
50.28000 -2.641
50.30000 1.477
50.32000 2.447
50.34000 6.904
50.36000 4.494
50.38000 2.884
50.40000 3.814
50.42000 0.316
50.44000 -0.327
50.46000 0.562
50.48000 3.094
50.50000 4.367
50.52000 5.894
50.54000 1.525
50.56000 -1.527
50.58000 4.127
50.60000 4.549
50.62000 5.160
50.64000 1.252
50.66000 0.605
50.68000 0.534
50.70000 1.734
50.72000 1.904
50.74000 3.023
50.76000 -1.452
50.78000 -1.657
50.80000 -1.879
50.82000 0.517
50.84000 0.348
50.86000 2.997
50.88000 5.689
50.90000 4.779
50.92000 1.415
50.94000 1.781
50.96000 2.547
50.98000 -0.474
51.00000 0.921
51.02000 5.114
51.04000 5.492
51.06000 3.875
51.08000 2.355
51.10000 1.748
51.12000 0.398
51.14000 -0.469
51.16000 -1.032
51.18000 -2.632
51.20000 -0.292
51.22000 -0.782
51.24000 0.536
51.26000 -0.700
51.28000 0.047
51.30000 4.817
51.32000 1.088
51.34000 0.731
51.36000 -1.452
51.38000 1.250
51.40000 -0.690
51.42000 1.425
51.44000 0.305
51.46000 0.357
51.48000 1.764
51.50000 -0.251
51.52000 -1.455
51.54000 0.646
51.56000 2.558
51.58000 -1.549
51.60000 -0.134
51.62000 -2.100
51.64000 -0.165
51.66000 -1.333
51.68000 -0.132
51.70000 1.009
51.72000 3.621
51.74000 4.242
51.76000 1.250
51.78000 4.931
51.80000 5.094
51.82000 1.971
51.84000 -0.166
51.86000 1.339
51.88000 2.753
51.90000 1.986
51.92000 5.747
51.94000 5.666
51.96000 6.251
51.98000 -0.797
52.00000 2.404
52.02000 2.323
52.04000 -0.016
52.06000 1.854
52.08000 -2.595
52.10000 -2.414
52.12000 -0.168
52.14000 5.990
52.16000 5.916
52.18000 4.642
52.20000 8.464
52.22000 4.132
52.24000 6.261
52.26000 3.134
52.28000 0.486
52.30000 2.432
52.32000 4.554
52.34000 6.489
52.36000 3.591
52.38000 2.518
52.40000 0.629
52.42000 4.066
52.44000 5.021
52.46000 7.662
52.48000 5.822
52.50000 2.997
52.52000 2.924
52.54000 -1.889
52.56000 1.678
52.58000 3.041
52.60000 1.080
52.62000 1.790
52.64000 1.373
52.66000 -2.276
52.68000 1.678
52.70000 0.290
52.72000 -0.214
52.74000 3.015
52.76000 6.542
52.78000 3.234
52.80000 4.243
52.82000 0.353
52.84000 -2.574
52.86000 -1.366
52.88000 0.823
52.90000 5.413
52.92000 2.438
52.94000 2.775
52.96000 0.242
52.98000 1.094
53.00000 0.856
53.02000 4.018
53.04000 4.204
53.06000 0.429
53.08000 -1.637
53.10000 1.988
53.12000 2.197
53.14000 3.271
53.16000 -0.612
53.18000 0.866
53.20000 2.857
53.22000 2.751
53.24000 -2.199
53.26000 1.057
53.28000 3.633
53.30000 4.896
53.32000 4.122
53.34000 2.916
53.36000 4.437
53.38000 0.507
53.40000 -1.744
53.42000 -0.123
53.44000 -0.524
53.46000 2.690
53.48000 2.006
53.50000 5.977
53.52000 4.296
53.54000 2.960
53.56000 -1.117
53.58000 0.599
53.60000 -1.027
53.62000 0.874
53.64000 1.295
53.66000 0.976
53.68000 -0.453
53.70000 -1.944
53.72000 -1.699
53.74000 1.083
53.76000 -0.922
53.78000 4.217
53.80000 2.394
53.82000 1.793
53.84000 5.545
53.86000 2.638
53.88000 -1.545
53.90000 0.712
53.92000 3.737
53.94000 -1.118
53.96000 -1.022
53.98000 -2.398
54.00000 0.232
54.02000 -0.334
54.04000 -0.962
54.06000 0.044
54.08000 -1.488
54.10000 0.052
54.12000 -1.438
54.14000 0.415
54.16000 1.926
54.18000 -1.150
54.20000 -1.501
54.22000 2.433
54.24000 4.343
54.26000 6.021
54.28000 1.575
54.30000 -0.443
54.32000 2.689
54.34000 7.507
54.36000 4.846
54.38000 3.042
54.40000 -1.403
54.42000 -2.555
54.44000 1.958
54.46000 -1.168
54.48000 0.285
54.50000 2.471
54.52000 0.070
54.54000 -1.702
54.56000 -0.342
54.58000 1.917
54.60000 2.346
54.62000 0.344
54.64000 0.509
54.66000 0.098
54.68000 0.519
54.70000 -0.501
54.72000 2.879
54.74000 2.972
54.76000 6.111
54.78000 2.087
54.80000 0.563
54.82000 -0.207
54.84000 -2.422
54.86000 1.961
54.88000 3.511
54.90000 5.412
54.92000 0.377
54.94000 -2.525
54.96000 0.960
54.98000 5.814
55.00000 3.975
55.02000 -1.104
55.04000 3.016
55.06000 2.797
55.08000 4.091
55.10000 1.590
55.12000 0.266
55.14000 5.145
55.16000 3.072
55.18000 0.412
55.20000 1.663
55.22000 2.355
55.24000 4.295
55.26000 3.134
55.28000 0.020
55.30000 3.113
55.32000 0.613
55.34000 0.963
55.36000 -0.184
55.38000 1.605
55.40000 3.396
55.42000 1.477
55.44000 0.573
55.46000 -1.293
55.48000 0.506
55.50000 7.404
55.52000 4.782
55.54000 -1.859
55.56000 -2.388
55.58000 -2.504
55.60000 1.785
55.62000 1.495
55.64000 -1.566
55.66000 2.092
55.68000 4.990
55.70000 0.473
55.72000 2.203
55.74000 1.614
55.76000 3.883
55.78000 2.509
55.80000 2.357
55.82000 4.836
55.84000 2.825
55.86000 -0.030
55.88000 -0.140
55.90000 -0.582
55.92000 -0.986
55.94000 0.887
55.96000 4.291
55.98000 4.760
56.00000 1.626
56.02000 0.273
56.04000 1.384
56.06000 5.061
56.08000 3.149
56.10000 2.642
56.12000 1.701
56.14000 2.388
56.16000 2.827
56.18000 4.529
56.20000 1.497
56.22000 2.244
56.24000 5.658
56.26000 3.172
56.28000 2.449
56.30000 4.351
56.32000 6.426
56.34000 4.278
56.36000 7.923
56.38000 8.490
56.40000 1.891
56.42000 -1.449
56.44000 -1.541
56.46000 2.404
56.48000 6.845
56.50000 5.932
56.52000 3.991
56.54000 6.125
56.56000 3.015
56.58000 4.328
56.60000 8.717
56.62000 6.091
56.64000 1.070
56.66000 -2.427
56.68000 2.102
56.70000 6.227
56.72000 6.012
56.74000 5.004
56.76000 1.783
56.78000 -0.216
56.80000 -0.037
56.82000 3.133
56.84000 5.628
56.86000 7.050
56.88000 4.173
56.90000 6.163
56.92000 3.673
56.94000 1.707
56.96000 6.477
56.98000 4.947
57.00000 5.965
57.02000 4.721
57.04000 5.551
57.06000 3.496
57.08000 4.725
57.10000 6.441
57.12000 4.947
57.14000 0.235
57.16000 -0.662
57.18000 2.294
57.20000 1.647
57.22000 1.570
57.24000 3.099
57.26000 1.685
57.28000 2.042
57.30000 1.646
57.32000 3.222
57.34000 -0.222
57.36000 1.809
57.38000 2.753
57.40000 3.163
57.42000 1.013
57.44000 6.996
57.46000 9.441
57.48000 3.689
57.50000 0.548
57.52000 5.286
57.54000 3.821
57.56000 3.177
57.58000 0.974
57.60000 0.534
57.62000 3.757
57.64000 6.556
57.66000 -1.328
57.68000 -2.355
57.70000 1.026
57.72000 4.972
57.74000 2.606
57.76000 0.263
57.78000 -0.274
57.80000 1.569
57.82000 1.066
57.84000 3.358
57.86000 1.768
57.88000 3.658
57.90000 3.689
57.92000 3.871
57.94000 2.692
57.96000 5.996
57.98000 2.025
58.00000 0.741
58.02000 4.824
58.04000 6.695
58.06000 2.926
58.08000 3.355
58.10000 2.415
58.12000 0.403
58.14000 -2.405
58.16000 0.960
58.18000 2.682
58.20000 4.986
58.22000 4.166
58.24000 0.925
58.26000 -0.052
58.28000 -0.983
58.30000 2.283
58.32000 6.569
58.34000 4.989
58.36000 3.340
58.38000 2.834
58.40000 2.572
58.42000 4.188
58.44000 3.797
58.46000 1.292
58.48000 2.356
58.50000 4.630
58.52000 4.856
58.54000 2.154
58.56000 -0.808
58.58000 -1.207
58.60000 -1.721
58.62000 2.907
58.64000 2.127
58.66000 4.363
58.68000 3.875
58.70000 3.330
58.72000 2.997
58.74000 2.920
58.76000 6.148
58.78000 3.151
58.80000 2.081
58.82000 7.924
58.84000 4.011
58.86000 -0.230
58.88000 1.887
58.90000 3.194
58.92000 1.525
58.94000 -1.011
58.96000 0.366
58.98000 3.076
59.00000 1.856
59.02000 0.446
59.04000 2.192
59.06000 1.464
59.08000 1.314
59.10000 -0.351
59.12000 5.034
59.14000 3.559
59.16000 1.147
59.18000 1.878
59.20000 0.248
59.22000 3.105
59.24000 4.943
59.26000 3.052
59.28000 2.153
59.30000 7.555
59.32000 6.882
59.34000 7.865
59.36000 6.465
59.38000 2.385
59.40000 0.037
59.42000 1.224
59.44000 0.828
59.46000 3.475
59.48000 2.054
59.50000 3.054
59.52000 -1.785
59.54000 7.735
59.56000 7.250
59.58000 0.491
59.60000 -1.329
59.62000 1.852
59.64000 1.686
59.66000 0.545
59.68000 0.415
59.70000 -0.630
59.72000 2.610
59.74000 1.786
59.76000 3.055
59.78000 4.592
59.80000 2.525
59.82000 0.864
59.84000 -2.353
59.86000 0.014
59.88000 4.931
59.90000 4.925
59.92000 2.149
59.94000 1.672
59.96000 2.125
59.98000 2.758
60.00000 0.994
60.02000 0.561
60.04000 0.302
60.06000 3.872
60.08000 2.060
60.10000 0.045
60.12000 3.554
60.14000 4.552
60.16000 3.566
60.18000 3.373
60.20000 -2.337
60.22000 0.075
60.24000 3.921
60.26000 3.390
60.28000 2.093
60.30000 2.736
60.32000 -1.768
60.34000 -0.372
60.36000 0.454
60.38000 2.658
60.40000 5.634
60.42000 2.935
60.44000 0.361
60.46000 0.272
60.48000 1.296
60.50000 2.024
60.52000 0.285
60.54000 2.041
60.56000 3.651
60.58000 6.046
60.60000 4.751
60.62000 6.159
60.64000 5.368
60.66000 3.697
60.68000 4.389
60.70000 2.607
60.72000 1.710
60.74000 1.534
60.76000 4.534
60.78000 3.933
60.80000 4.509
60.82000 5.242
60.84000 -2.100
60.86000 -2.266
60.88000 -1.084
60.90000 1.558
60.92000 4.898
60.94000 2.595
60.96000 3.588
60.98000 -0.606
61.00000 -0.422
61.02000 -1.734
61.04000 0.652
61.06000 3.000
61.08000 4.256
61.10000 5.144
61.12000 1.716
61.14000 -1.510
61.16000 -2.323
61.18000 -0.144
61.20000 4.427
61.22000 6.199
61.24000 6.704
61.26000 5.317
61.28000 2.030
61.30000 2.448
61.32000 2.385
61.34000 2.272
61.36000 3.763
61.38000 0.345
61.40000 4.196
61.42000 4.150
61.44000 4.355
61.46000 1.952
61.48000 -0.877
61.50000 0.847
61.52000 2.444
61.54000 2.310
61.56000 0.040
61.58000 2.447
61.60000 -0.367
61.62000 1.949
61.64000 0.219
61.66000 -0.147
61.68000 1.969
61.70000 1.939
61.72000 2.002
61.74000 1.588
61.76000 -0.729
61.78000 -0.422
61.80000 0.551
61.82000 1.659
61.84000 0.499
61.86000 2.971
61.88000 1.281
61.90000 0.011
61.92000 0.728
61.94000 0.711
61.96000 0.605
61.98000 1.164
62.00000 0.512
62.02000 1.525
62.04000 8.002
62.06000 5.288
62.08000 2.302
62.10000 2.359
62.12000 2.981
62.14000 0.356
62.16000 -1.415
62.18000 -0.692
62.20000 -2.165
62.22000 1.806
62.24000 3.114
62.26000 0.928
62.28000 -0.791
62.30000 -0.167
62.32000 0.062
62.34000 3.079
62.36000 3.387
62.38000 0.065
62.40000 0.500
62.42000 2.634
62.44000 5.079
62.46000 -1.358
62.48000 -0.786
62.50000 3.066
62.52000 4.097
62.54000 2.878
62.56000 4.354
62.58000 1.251
62.60000 0.010
62.62000 -0.267
62.64000 -1.724
62.66000 1.901
62.68000 2.125
62.70000 0.798
62.72000 -2.274
62.74000 -0.314
62.76000 2.580
62.78000 -0.623
62.80000 2.972
62.82000 2.108
62.84000 1.290
62.86000 2.034
62.88000 6.555
62.90000 5.174
62.92000 3.180
62.94000 3.342
62.96000 1.845
62.98000 -0.183
63.00000 -1.027
63.02000 2.377
63.04000 5.152
63.06000 0.166
63.08000 -2.192
63.10000 -1.822
63.12000 -0.969
63.14000 1.063
63.16000 3.679
63.18000 3.017
63.20000 4.299
63.22000 4.236
63.24000 4.763
63.26000 3.152
63.28000 1.912
63.30000 1.499
63.32000 0.235
63.34000 0.686
63.36000 0.800
63.38000 -2.211
63.40000 -2.090
63.42000 -0.601
63.44000 1.168
63.46000 -0.316
63.48000 -2.284
63.50000 0.667
63.52000 3.236
63.54000 2.041
63.56000 1.880
63.58000 1.016
63.60000 1.416
63.62000 1.524
63.64000 1.700
63.66000 -0.863
63.68000 0.289
63.70000 -0.458
63.72000 1.965
63.74000 -0.426
63.76000 1.713
63.78000 0.805
63.80000 -0.423
63.82000 2.661
63.84000 3.974
63.86000 0.631
63.88000 -0.812
63.90000 2.485
63.92000 3.099
63.94000 0.119
63.96000 -2.080
63.98000 2.943
64.00000 3.723
64.02000 1.034
64.04000 -0.560
64.06000 2.099
64.08000 1.443
64.10000 1.874
64.12000 4.523
64.14000 4.942
64.16000 2.044
64.18000 -1.378
64.20000 -1.150
64.22000 0.506
64.24000 1.727
64.26000 2.478
64.28000 1.566
64.30000 2.864
64.32000 -1.763
64.34000 -1.329
64.36000 2.043
64.38000 3.448
64.40000 5.919
64.42000 0.809
64.44000 2.315
64.46000 2.560
64.48000 0.450
64.50000 -0.948
64.52000 0.399
64.54000 0.617
64.56000 0.930
64.58000 1.947
64.60000 0.461
64.62000 1.072
64.64000 0.454
64.66000 -1.258
64.68000 -2.300
64.70000 -0.273
64.72000 0.646
64.74000 -1.475
64.76000 -0.587
64.78000 -1.500
64.80000 0.160
64.82000 2.071
64.84000 -0.755
64.86000 1.859
64.88000 1.814
64.90000 -0.446
64.92000 -0.970
64.94000 0.411
64.96000 -0.494
64.98000 -1.396
65.00000 -1.013
65.02000 1.765
65.04000 1.898
65.06000 -0.687
65.08000 1.233
65.10000 4.869
65.12000 2.960
65.14000 1.401
65.16000 1.726
65.18000 0.104
65.20000 0.290
65.22000 1.690
65.24000 1.736
65.26000 2.447
65.28000 4.765
65.30000 5.711
65.32000 -0.184
65.34000 -0.051
65.36000 -2.283
65.38000 -0.711
65.40000 0.383
65.42000 0.684
65.44000 2.748
65.46000 3.279
65.48000 1.160
65.50000 3.232
65.52000 4.432
65.54000 2.923
65.56000 2.565
65.58000 2.073
65.60000 -0.307
65.62000 2.412
65.64000 2.379
65.66000 3.424
65.68000 3.127
65.70000 -0.329
65.72000 1.965
65.74000 2.436
65.76000 4.934
65.78000 3.712
65.80000 2.115
65.82000 2.634
65.84000 3.740
65.86000 2.619
65.88000 1.523
65.90000 1.684
65.92000 1.697
65.94000 3.540
65.96000 6.630
65.98000 4.328
66.00000 6.984
66.02000 7.523
66.04000 3.753
66.06000 1.870
66.08000 3.996
66.10000 4.839
66.12000 7.469
66.14000 4.509
66.16000 4.242
66.18000 5.919
66.20000 7.105
66.22000 5.614
66.24000 5.587
66.26000 7.349
66.28000 7.731
66.30000 9.046
66.32000 8.786
66.34000 6.603
66.36000 4.603
66.38000 3.736
66.40000 2.870
66.42000 2.404
66.44000 5.556
66.46000 5.663
66.48000 1.146
66.50000 -0.374
66.52000 4.082
66.54000 4.419
66.56000 3.836
66.58000 4.241
66.60000 1.981
66.62000 3.938
66.64000 3.708
66.66000 3.492
66.68000 3.665
66.70000 2.691
66.72000 3.333
66.74000 1.940
66.76000 0.129
66.78000 2.462
66.80000 4.484
66.82000 2.995
66.84000 3.623
66.86000 -0.521
66.88000 1.452
66.90000 0.204
66.92000 2.726
66.94000 0.311
66.96000 0.621
66.98000 -0.368
67.00000 3.529
67.02000 0.493
67.04000 1.543
67.06000 0.483
67.08000 -0.376
67.10000 -1.659
67.12000 1.857
67.14000 -0.495
67.16000 -1.512
67.18000 -0.286
67.20000 2.853
67.22000 0.752
67.24000 -0.145
67.26000 -0.517
67.28000 1.695
67.30000 1.233
67.32000 0.999
67.34000 2.029
67.36000 0.113
67.38000 0.434
67.40000 0.707
67.42000 0.663
67.44000 0.586
67.46000 -0.944
67.48000 0.246
67.50000 0.806
67.52000 0.833
67.54000 1.439
67.56000 -1.092
67.58000 -0.109
67.60000 -0.565
67.62000 -1.586
67.64000 -1.165
67.66000 0.501
67.68000 -0.148
67.70000 -0.352
67.72000 2.266
67.74000 3.203
67.76000 1.361
67.78000 0.266
67.80000 1.112
67.82000 0.006
67.84000 -1.085
67.86000 -1.288
67.88000 0.564
67.90000 0.636
67.92000 -1.432
67.94000 0.444
67.96000 -0.549
67.98000 -2.174
68.00000 -0.178
68.02000 1.509
68.04000 0.488
68.06000 2.597
68.08000 5.099
68.10000 5.569
68.12000 3.958
68.14000 1.358
68.16000 -1.283
68.18000 1.669
68.20000 0.051
68.22000 -1.061
68.24000 -1.867
68.26000 -0.073
68.28000 -0.444
68.30000 0.026
68.32000 -0.502
68.34000 0.525
68.36000 -1.242
68.38000 -2.167
68.40000 -0.134
68.42000 -0.034
68.44000 1.204
68.46000 1.418
68.48000 3.655
68.50000 2.458
68.52000 1.199
68.54000 0.341
68.56000 1.964
68.58000 1.499
68.60000 1.094
68.62000 0.114
68.64000 -1.270
68.66000 -0.154
68.68000 1.756
68.70000 2.091
68.72000 0.386
68.74000 0.389
68.76000 -2.164
68.78000 -0.549
68.80000 1.748
68.82000 0.079
68.84000 -1.042
68.86000 -0.361
68.88000 1.695
68.90000 2.201
68.92000 2.212
68.94000 -0.527
68.96000 -0.299
68.98000 -1.004
69.00000 -1.902
69.02000 0.636
69.04000 0.258
69.06000 0.338
69.08000 0.753
69.10000 0.841
69.12000 1.047
69.14000 -0.030
69.16000 0.513
69.18000 1.447
69.20000 3.023
69.22000 1.227
69.24000 -0.315
69.26000 -1.495
69.28000 0.562
69.30000 -1.868
69.32000 -1.522
69.34000 2.679
69.36000 3.053
69.38000 0.249
69.40000 -0.731
69.42000 1.447
69.44000 0.649
69.46000 2.297
69.48000 0.367
69.50000 1.064
69.52000 -0.233
69.54000 -2.120
69.56000 1.152
69.58000 1.960
69.60000 3.271
69.62000 2.082
69.64000 1.084
69.66000 0.759
69.68000 0.239
69.70000 -0.506
69.72000 -0.485
69.74000 0.528
69.76000 1.766
69.78000 2.025
69.80000 3.584
69.82000 1.571
69.84000 0.117
69.86000 -0.137
69.88000 1.024
69.90000 1.108
69.92000 -0.882
69.94000 -2.097
69.96000 1.128
69.98000 7.019
70.00000 5.176
70.02000 1.301
70.04000 -2.093
70.06000 -1.791
70.08000 2.630
70.10000 3.222
70.12000 -0.083
70.14000 -0.951
70.16000 2.938
70.18000 3.939
70.20000 2.304
70.22000 1.056
70.24000 1.265
70.26000 0.906
70.28000 2.809
70.30000 2.319
70.32000 2.668
70.34000 1.853
70.36000 0.838
70.38000 1.009
70.40000 0.878
70.42000 -0.922
70.44000 0.297
70.46000 0.367
70.48000 1.916
70.50000 3.339
70.52000 1.355
70.54000 -0.999
70.56000 0.880
70.58000 2.889
70.60000 3.042
70.62000 2.021
70.64000 2.560
70.66000 3.995
70.68000 0.848
70.70000 -0.822
70.72000 -1.865
70.74000 -0.423
70.76000 0.690
70.78000 3.132
70.80000 2.571
70.82000 0.864
70.84000 3.279
70.86000 2.410
70.88000 2.437
70.90000 -0.562
70.92000 -1.758
70.94000 -2.078
70.96000 1.863
70.98000 2.201
71.00000 1.336
71.02000 0.364
71.04000 0.151
71.06000 1.623
71.08000 1.226
71.10000 0.872
71.12000 -1.408
71.14000 -0.086
71.16000 0.538
71.18000 1.507
71.20000 -0.642
71.22000 -1.022
71.24000 0.678
71.26000 4.349
71.28000 2.321
71.30000 -0.551
71.32000 0.478
71.34000 2.635
71.36000 3.011
71.38000 3.460
71.40000 -0.184
71.42000 -0.561
71.44000 2.595
71.46000 -0.207
71.48000 0.929
71.50000 3.480
71.52000 5.347
71.54000 2.093
71.56000 3.414
71.58000 2.476
71.60000 2.357
71.62000 1.294
71.64000 -0.111
71.66000 -1.040
71.68000 0.733
71.70000 1.696
71.72000 2.729
71.74000 2.002
71.76000 2.893
71.78000 2.177
71.80000 0.993
71.82000 0.636
71.84000 0.138
71.86000 -0.016
71.88000 0.053
71.90000 0.772
71.92000 -2.037
71.94000 0.983
71.96000 3.106
71.98000 4.151
72.00000 1.966
72.02000 0.649
72.04000 1.670
72.06000 2.544
72.08000 2.549
72.10000 1.227
72.12000 0.838
72.14000 1.160
72.16000 0.938
72.18000 0.999
72.20000 2.944
72.22000 0.477
72.24000 -1.172
72.26000 -0.969
72.28000 4.306
72.30000 3.656
72.32000 4.819
72.34000 4.508
72.36000 3.657
72.38000 1.917
72.40000 -0.263
72.42000 0.214
72.44000 2.653
72.46000 2.242
72.48000 -0.583
72.50000 0.291
72.52000 2.552
72.54000 3.111
72.56000 -2.002
72.58000 -0.196
72.60000 4.311
72.62000 3.826
72.64000 -1.057
72.66000 1.274
72.68000 0.969
72.70000 1.254
72.72000 2.290
72.74000 2.334
72.76000 1.520
72.78000 3.930
72.80000 3.690
72.82000 3.198
72.84000 -0.136
72.86000 -1.744
72.88000 3.013
72.90000 3.784
72.92000 4.161
72.94000 0.919
72.96000 1.027
72.98000 1.716
73.00000 3.615
73.02000 2.059
73.04000 1.879
73.06000 1.777
73.08000 2.697
73.10000 2.028
73.12000 2.325
73.14000 4.111
73.16000 5.274
73.18000 2.339
73.20000 1.060
73.22000 1.208
73.24000 1.992
73.26000 2.070
73.28000 2.334
73.30000 3.918
73.32000 5.288
73.34000 5.757
73.36000 4.501
73.38000 2.061
73.40000 -0.275
73.42000 -1.971
73.44000 1.258
73.46000 4.413
73.48000 2.294
73.50000 1.333
73.52000 -0.105
73.54000 3.270
73.56000 6.505
73.58000 2.464
73.60000 2.001
73.62000 1.143
73.64000 1.420
73.66000 0.354
73.68000 2.225
73.70000 5.001
73.72000 4.332
73.74000 0.142
73.76000 0.967
73.78000 0.753
73.80000 2.051
73.82000 2.240
73.84000 3.728
73.86000 6.342
73.88000 4.076
73.90000 4.082
73.92000 2.500
73.94000 -0.623
73.96000 1.707
73.98000 3.471
74.00000 1.640
74.02000 2.897
74.04000 0.961
74.06000 0.239
74.08000 0.170
74.10000 -0.666
74.12000 -0.323
74.14000 2.352
74.16000 3.382
74.18000 2.835
74.20000 0.973
74.22000 0.823
74.24000 -0.134
74.26000 0.385
74.28000 0.837
74.30000 0.179
74.32000 0.294
74.34000 0.280
74.36000 2.690
74.38000 0.474
74.40000 1.645
74.42000 2.797
74.44000 -1.113
74.46000 -2.016
74.48000 -1.723
74.50000 1.562
74.52000 2.663
74.54000 4.940
74.56000 2.255
74.58000 0.860
74.60000 1.334
74.62000 -1.625
74.64000 -0.599
74.66000 0.072
74.68000 0.983
74.70000 -0.597
74.72000 -1.960
74.74000 1.800
74.76000 2.160
74.78000 3.482
74.80000 2.706
74.82000 4.167
74.84000 0.976
74.86000 4.037
74.88000 3.525
74.90000 3.101
74.92000 -0.149
74.94000 2.191
74.96000 3.090
74.98000 2.888
75.00000 4.038
75.02000 1.537
75.04000 0.090
75.06000 -0.543
75.08000 4.488
75.10000 0.725
75.12000 0.416
75.14000 0.905
75.16000 3.317
75.18000 2.594
75.20000 -1.195
75.22000 -2.028
75.24000 1.166
75.26000 0.239
75.28000 2.992
75.30000 1.881
75.32000 2.407
75.34000 1.367
75.36000 2.396
75.38000 2.216
75.40000 3.262
75.42000 0.985
75.44000 0.497
75.46000 -0.575
75.48000 0.548
75.50000 1.080
75.52000 -1.252
75.54000 -0.304
75.56000 -0.808
75.58000 -0.518
75.60000 1.114
75.62000 2.008
75.64000 3.885
75.66000 2.055
75.68000 -0.895
75.70000 0.073
75.72000 0.945
75.74000 1.149
75.76000 -0.067
75.78000 3.593
75.80000 0.620
75.82000 0.035
75.84000 2.154
75.86000 2.775
75.88000 1.230
75.90000 0.432
75.92000 1.223
75.94000 -0.709
75.96000 1.584
75.98000 5.073
76.00000 2.566
76.02000 2.682
76.04000 2.942
76.06000 -2.008
76.08000 -1.194
76.10000 2.344
76.12000 6.047
76.14000 2.150
76.16000 -0.426
76.18000 -1.586
76.20000 0.266
76.22000 2.920
76.24000 4.592
76.26000 0.991
76.28000 0.053
76.30000 0.143
76.32000 -2.027
76.34000 -1.017
76.36000 0.458
76.38000 3.467
76.40000 0.593
76.42000 1.040
76.44000 5.081
76.46000 6.484
76.48000 2.052
76.50000 1.198
76.52000 1.959
76.54000 3.016
76.56000 2.141
76.58000 0.294
76.60000 -0.285
76.62000 1.103
76.64000 4.709
76.66000 5.274
76.68000 2.814
76.70000 1.044
76.72000 1.064
76.74000 0.438
76.76000 -1.114
76.78000 -2.021
76.80000 1.425
76.82000 4.798
76.84000 1.823
76.86000 -0.967
76.88000 -0.394
76.90000 -0.512
76.92000 -0.347
76.94000 0.841
76.96000 -0.453
76.98000 -1.663
77.00000 0.065
77.02000 -0.341
77.04000 0.148
77.06000 3.534
77.08000 2.625
77.10000 6.612
77.12000 3.369
77.14000 4.144
77.16000 3.301
77.18000 2.062
77.20000 0.868
77.22000 3.265
77.24000 3.149
77.26000 2.452
77.28000 1.480
77.30000 2.582
77.32000 2.195
77.34000 5.894
77.36000 2.825
77.38000 -0.583
77.40000 3.171
77.42000 1.260
77.44000 -1.175
77.46000 -2.080
77.48000 -1.335
77.50000 0.149
77.52000 2.668
77.54000 1.066
77.56000 2.409
77.58000 -1.201
77.60000 1.511
77.62000 3.256
77.64000 1.334
77.66000 3.295
77.68000 2.196
77.70000 -1.126
77.72000 1.988
77.74000 2.460
77.76000 5.484
77.78000 3.135
77.80000 2.093
77.82000 2.149
77.84000 -0.613
77.86000 1.558
77.88000 0.893
77.90000 -2.110
77.92000 2.431
77.94000 2.105
77.96000 -0.339
77.98000 2.185
78.00000 0.434
78.02000 2.302
78.04000 1.684
78.06000 2.672
78.08000 0.101
78.10000 -1.767
78.12000 1.993
78.14000 0.143
78.16000 0.452
78.18000 0.986
78.20000 -0.383
78.22000 -0.144
78.24000 0.167
78.26000 -1.385
78.28000 -0.691
78.30000 -1.873
78.32000 -0.654
78.34000 0.138
78.36000 1.127
78.38000 1.182
78.40000 1.766
78.42000 1.983
78.44000 -1.351
78.46000 5.290
78.48000 4.097
78.50000 1.019
78.52000 -1.441
78.54000 -1.324
78.56000 1.112
78.58000 -1.352
78.60000 -0.580
78.62000 1.795
78.64000 0.365
78.66000 2.472
78.68000 4.876
78.70000 3.787
78.72000 4.600
78.74000 0.034
78.76000 1.679
78.78000 3.215
78.80000 1.763
78.82000 3.739
78.84000 0.985
78.86000 0.595
78.88000 3.340
78.90000 5.241
78.92000 6.077
78.94000 1.748
78.96000 1.869
78.98000 7.282
79.00000 7.665
79.02000 4.638
79.04000 4.695
79.06000 4.953
79.08000 3.878
79.10000 5.467
79.12000 9.621
79.14000 6.775
79.16000 9.981
79.18000 9.029
79.20000 7.391
79.22000 6.747
79.24000 10.391
79.26000 11.640
79.28000 11.124
79.30000 10.294
79.32000 9.227
79.34000 8.754
79.36000 10.914
79.38000 12.777
79.40000 15.886
79.42000 15.653
79.44000 14.360
79.46000 16.235
79.48000 15.967
79.50000 17.996
79.52000 20.071
79.54000 16.257
79.56000 14.932
79.58000 14.991
79.60000 19.801
79.62000 16.288
79.64000 16.910
79.66000 19.114
79.68000 21.343
79.70000 18.194
79.72000 17.007
79.74000 18.733
79.76000 21.783
79.78000 23.237
79.80000 19.717
79.82000 18.952
79.84000 22.713
79.86000 18.952
79.88000 19.235
79.90000 19.568
79.92000 18.501
79.94000 18.027
79.96000 16.824
79.98000 17.325
80.00000 19.541
80.02000 19.353
80.04000 18.071
80.06000 19.661
80.08000 20.412
80.10000 19.371
80.12000 14.852
80.14000 15.009
80.16000 18.315
80.18000 17.509
80.20000 14.590
80.22000 13.500
80.24000 11.997
80.26000 14.348
80.28000 15.731
80.30000 13.132
80.32000 13.026
80.34000 8.497
80.36000 7.411
80.38000 8.659
80.40000 11.814
80.42000 10.872
80.44000 7.814
80.46000 11.388
80.48000 10.588
80.50000 10.923
80.52000 9.076
80.54000 8.424
80.56000 9.812
80.58000 8.881
80.60000 5.784
80.62000 2.502
80.64000 3.527
80.66000 4.322
80.68000 3.484
80.70000 4.232
80.72000 4.469
80.74000 5.505
80.76000 7.000
80.78000 1.640
80.80000 2.815
80.82000 7.610
80.84000 7.622
80.86000 3.798
80.88000 6.753
80.90000 2.546
80.92000 1.177
80.94000 2.516
80.96000 2.300
80.98000 0.081
81.00000 -0.730
81.02000 0.799
81.04000 0.793
81.06000 -2.285
81.08000 -1.914
81.10000 0.175
81.12000 4.060
81.14000 -1.211
81.16000 -0.994
81.18000 -1.209
81.20000 0.525
81.22000 -0.796
81.24000 -0.525
81.26000 2.101
81.28000 0.487
81.30000 1.148
81.32000 0.779
81.34000 2.421
81.36000 4.124
81.38000 -0.388
81.40000 -0.707
81.42000 1.195
81.44000 -2.147
81.46000 -1.278
81.48000 1.050
81.50000 7.313
81.52000 5.711
81.54000 5.206
81.56000 5.809
81.58000 -1.309
81.60000 -2.167
81.62000 1.006
81.64000 -2.275
81.66000 1.440
81.68000 1.568
81.70000 1.309
81.72000 0.663
81.74000 1.921
81.76000 4.251
81.78000 2.093
81.80000 1.386
81.82000 1.442
81.84000 2.942
81.86000 3.200
81.88000 0.893
81.90000 0.859
81.92000 0.514
81.94000 -2.188
81.96000 -0.695
81.98000 0.749
82.00000 -0.881
82.02000 0.776
82.04000 -2.276
82.06000 2.636
82.08000 4.307
82.10000 2.559
82.12000 -0.296
82.14000 0.178
82.16000 2.375
82.18000 3.196
82.20000 1.530
82.22000 2.861
82.24000 1.925
82.26000 7.558
82.28000 7.803
82.30000 4.972
82.32000 4.540
82.34000 7.783
82.36000 1.418
82.38000 -1.432
82.40000 2.734
82.42000 6.693
82.44000 3.553
82.46000 2.809
82.48000 2.029
82.50000 2.028
82.52000 2.934
82.54000 6.934
82.56000 6.050
82.58000 7.665
82.60000 9.261
82.62000 7.153
82.64000 5.269
82.66000 9.667
82.68000 10.867
82.70000 9.888
82.72000 7.884
82.74000 9.340
82.76000 6.920
82.78000 9.141
82.80000 7.797
82.82000 10.978
82.84000 13.780
82.86000 11.562
82.88000 12.849
82.90000 12.362
82.92000 13.873
82.94000 11.994
82.96000 15.244
82.98000 16.200
83.00000 18.188
83.02000 18.576
83.04000 21.737
83.06000 20.590
83.08000 16.115
83.10000 15.982
83.12000 21.753
83.14000 23.128
83.16000 22.579
83.18000 20.743
83.20000 24.493
83.22000 24.966
83.24000 28.934
83.26000 28.571
83.28000 30.032
83.30000 31.348
83.32000 26.786
83.34000 31.478
83.36000 34.209
83.38000 31.992
83.40000 31.168
83.42000 37.760
83.44000 40.228
83.46000 40.160
83.48000 40.540
83.50000 36.689
83.52000 35.672
83.54000 38.572
83.56000 41.786
83.58000 44.435
83.60000 43.186
83.62000 44.444
83.64000 46.066
83.66000 48.137
83.68000 52.172
83.70000 53.595
83.72000 51.479
83.74000 49.861
83.76000 48.797
83.78000 51.740
83.80000 50.647
83.82000 51.299
83.84000 50.944
83.86000 51.256
83.88000 53.562
83.90000 50.267
83.92000 49.469
83.94000 47.369
83.96000 52.222
83.98000 52.206
84.00000 46.142
84.02000 45.476
84.04000 49.367
84.06000 41.792
84.08000 39.076
84.10000 40.430
84.12000 39.266
84.14000 37.549
84.16000 36.310
84.18000 34.936
84.20000 32.436
84.22000 29.767
84.24000 30.075
84.26000 30.509
84.28000 30.168
84.30000 27.821
84.32000 25.955
84.34000 23.876
84.36000 23.905
84.38000 23.765
84.40000 26.101
84.42000 23.041
84.44000 21.404
84.46000 20.841
84.48000 21.084
84.50000 17.528
84.52000 16.346
84.54000 18.448
84.56000 15.427
84.58000 13.500
84.60000 9.367
84.62000 8.068
84.64000 7.905
84.66000 8.498
84.68000 9.994
84.70000 11.714
84.72000 10.257
84.74000 7.271
84.76000 3.777
84.78000 5.637
84.80000 5.216
84.82000 4.444
84.84000 5.686
84.86000 3.521
84.88000 3.183
84.90000 1.940
84.92000 1.892
84.94000 1.912
84.96000 2.276
84.98000 1.395
85.00000 0.709
85.02000 4.060
85.04000 3.479
85.06000 3.932
85.08000 2.901
85.10000 1.902
85.12000 1.417
85.14000 1.840
85.16000 1.676
85.18000 2.648
85.20000 3.458
85.22000 3.453
85.24000 3.186
85.26000 -1.090
85.28000 -2.079
85.30000 2.448
85.32000 4.059
85.34000 1.095
85.36000 -1.581
85.38000 -2.066
85.40000 -0.396
85.42000 0.064
85.44000 1.695
85.46000 1.442
85.48000 -0.874
85.50000 -0.822
85.52000 -0.152
85.54000 -0.671
85.56000 1.120
85.58000 -0.212
85.60000 -0.672
85.62000 0.288
85.64000 0.856
85.66000 -0.723
85.68000 0.727
85.70000 3.256
85.72000 1.339
85.74000 -1.435
85.76000 -0.578
85.78000 0.040
85.80000 -1.797
85.82000 -1.838
85.84000 -0.625
85.86000 0.177
85.88000 3.353
85.90000 1.777
85.92000 -1.004
85.94000 0.380
85.96000 2.273
85.98000 3.566
86.00000 4.163
86.02000 1.900
86.04000 0.714
86.06000 2.368
86.08000 0.240
86.10000 -0.999
86.12000 1.526
86.14000 1.092
86.16000 0.379
86.18000 -1.007
86.20000 1.128
86.22000 -0.803
86.24000 -1.962
86.26000 -0.227
86.28000 -1.230
86.30000 -0.216
86.32000 0.844
86.34000 1.705
86.36000 -1.954
86.38000 -0.208
86.40000 -0.179
86.42000 0.977
86.44000 -0.551
86.46000 -1.475
86.48000 0.061
86.50000 0.011
86.52000 -0.434
86.54000 -0.081
86.56000 -1.950
86.58000 -0.432
86.60000 0.100
86.62000 2.450
86.64000 1.760
86.66000 2.427
86.68000 1.808
86.70000 3.068
86.72000 1.147
86.74000 1.819
86.76000 2.352
86.78000 1.264
86.80000 5.286
86.82000 1.645
86.84000 1.042
86.86000 2.288
86.88000 1.070
86.90000 -0.296
86.92000 0.836
86.94000 2.352
86.96000 1.130
86.98000 0.430
87.00000 3.893
87.02000 -1.182
87.04000 -0.430
87.06000 -1.449
87.08000 1.741
87.10000 3.226
87.12000 3.255
87.14000 3.956
87.16000 0.898
87.18000 -1.926
87.20000 -1.557
87.22000 -0.854
87.24000 1.831
87.26000 1.864
87.28000 1.653
87.30000 -0.214
87.32000 -0.244
87.34000 0.727
87.36000 0.846
87.38000 2.242
87.40000 0.976
87.42000 -1.910
87.44000 0.565
87.46000 1.509
87.48000 0.520
87.50000 -0.758
87.52000 1.694
87.54000 2.530
87.56000 0.899
87.58000 0.850
87.60000 2.119
87.62000 1.137
87.64000 -0.702
87.66000 0.689
87.68000 1.464
87.70000 -1.312
87.72000 -1.434
87.74000 -0.606
87.76000 0.184
87.78000 0.828
87.80000 3.072
87.82000 1.154
87.84000 0.839
87.86000 0.287
87.88000 0.748
87.90000 3.309
87.92000 3.393
87.94000 0.796
87.96000 1.638
87.98000 0.710
88.00000 0.359
88.02000 0.880
88.04000 1.023
88.06000 0.804
88.08000 0.377
88.10000 -0.432
88.12000 1.465
88.14000 -0.546
88.16000 2.056
88.18000 4.552
88.20000 1.296
88.22000 1.381
88.24000 5.707
88.26000 7.255
88.28000 5.984
88.30000 4.968
88.32000 -0.131
88.34000 -1.871
88.36000 0.822
88.38000 2.386
88.40000 3.464
88.42000 1.503
88.44000 3.772
88.46000 5.463
88.48000 2.323
88.50000 0.515
88.52000 0.276
88.54000 0.477
88.56000 0.349
88.58000 0.776
88.60000 0.920
88.62000 1.564
88.64000 -0.394
88.66000 -1.166
88.68000 2.155
88.70000 1.396
88.72000 3.123
88.74000 3.220
88.76000 0.702
88.78000 -1.726
88.80000 0.578
88.82000 5.558
88.84000 4.146
88.86000 3.384
88.88000 0.499
88.90000 1.278
88.92000 -1.585
88.94000 1.632
88.96000 2.024
88.98000 4.420
89.00000 4.694
89.02000 6.876
89.04000 1.716
89.06000 4.500
89.08000 -0.364
89.10000 2.209
89.12000 2.108
89.14000 -1.117
89.16000 -1.869
89.18000 0.841
89.20000 2.234
89.22000 0.494
89.24000 1.329
89.26000 1.283
89.28000 3.621
89.30000 4.894
89.32000 0.881
89.34000 3.845
89.36000 3.697
89.38000 2.667
89.40000 -1.559
89.42000 -0.177
89.44000 0.691
89.46000 -1.730
89.48000 0.559
89.50000 1.541
89.52000 -0.464
89.54000 -0.288
89.56000 1.489
89.58000 3.933
89.60000 2.545
89.62000 -0.714
89.64000 -0.256
89.66000 1.483
89.68000 0.109
89.70000 0.392
89.72000 -0.556
89.74000 -0.276
89.76000 1.597
89.78000 1.613
89.80000 -1.511
89.82000 -1.071
89.84000 -0.310
89.86000 1.302
89.88000 3.848
89.90000 1.564
89.92000 2.238
89.94000 2.722
89.96000 0.845
89.98000 2.390
90.00000 5.222
90.02000 3.814
90.04000 -0.233
90.06000 -1.445
90.08000 -1.886
90.10000 0.915
90.12000 1.805
90.14000 5.677
90.16000 2.362
90.18000 0.472
90.20000 -0.648
90.22000 -0.366
90.24000 1.255
90.26000 2.440
90.28000 2.725
90.30000 -0.058
90.32000 0.023
90.34000 3.021
90.36000 5.795
90.38000 5.211
90.40000 2.514
90.42000 3.202
90.44000 1.696
90.46000 1.957
90.48000 2.367
90.50000 1.210
90.52000 1.280
90.54000 4.387
90.56000 2.991
90.58000 0.643
90.60000 0.574
90.62000 0.062
90.64000 -1.884
90.66000 -0.631
90.68000 -1.112
90.70000 -0.285
90.72000 0.989
90.74000 4.683
90.76000 3.646
90.78000 3.299
90.80000 0.537
90.82000 0.466
90.84000 -0.257
90.86000 1.754
90.88000 3.480
90.90000 3.441
90.92000 -1.883
90.94000 -1.793
90.96000 2.482
90.98000 0.821
91.00000 -1.786
91.02000 2.120
91.04000 2.281
91.06000 3.719
91.08000 5.102
91.10000 6.592
91.12000 5.288
91.14000 2.052
91.16000 0.469
91.18000 1.431
91.20000 -0.447
91.22000 1.090
91.24000 0.347
91.26000 1.450
91.28000 1.770
91.30000 0.005
91.32000 1.557
91.34000 0.641
91.36000 2.392
91.38000 3.396
91.40000 1.544
91.42000 0.305
91.44000 2.450
91.46000 0.883
91.48000 1.071
91.50000 2.457
91.52000 2.128
91.54000 1.029
91.56000 1.001
91.58000 2.045
91.60000 2.679
91.62000 0.189
91.64000 2.677
91.66000 4.065
91.68000 2.355
91.70000 -0.299
91.72000 0.487
91.74000 3.680
91.76000 3.766
91.78000 -1.877
91.80000 0.846
91.82000 0.981
91.84000 1.979
91.86000 1.483
91.88000 1.172
91.90000 3.268
91.92000 1.021
91.94000 1.321
91.96000 0.601
91.98000 0.267
92.00000 3.677
92.02000 3.377
92.04000 4.155
92.06000 1.899
92.08000 0.295
92.10000 2.053
92.12000 2.410
92.14000 1.129
92.16000 0.821
92.18000 2.829
92.20000 0.740
92.22000 1.159
92.24000 -0.199
92.26000 -0.395
92.28000 -1.198
92.30000 -0.152
92.32000 3.348
92.34000 2.651
92.36000 6.254
92.38000 6.283
92.40000 1.596
92.42000 1.715
92.44000 -0.092
92.46000 -1.079
92.48000 1.121
92.50000 -0.781
92.52000 0.272
92.54000 0.620
92.56000 0.083
92.58000 1.268
92.60000 0.079
92.62000 1.387
92.64000 0.058
92.66000 -0.897
92.68000 -1.099
92.70000 0.963
92.72000 0.139
92.74000 -0.286
92.76000 0.795
92.78000 -0.588
92.80000 -0.129
92.82000 -1.184
92.84000 -0.787
92.86000 1.499
92.88000 -0.003
92.90000 3.009
92.92000 1.036
92.94000 2.069
92.96000 6.060
92.98000 3.860
93.00000 2.375
93.02000 4.303
93.04000 3.297
93.06000 3.487
93.08000 0.866
93.10000 -0.871
93.12000 5.410
93.14000 2.345
93.16000 0.313
93.18000 3.383
93.20000 1.352
93.22000 -1.065
93.24000 -1.211
93.26000 1.446
93.28000 5.535
93.30000 3.453
93.32000 0.798
93.34000 -1.900
93.36000 -0.388
93.38000 1.717
93.40000 1.391
93.42000 0.808
93.44000 1.442
93.46000 2.823
93.48000 -0.172
93.50000 1.864
93.52000 3.589
93.54000 1.492
93.56000 4.252
93.58000 3.904
93.60000 5.355
93.62000 2.245
93.64000 0.598
93.66000 1.573
93.68000 1.869
93.70000 1.736
93.72000 5.533
93.74000 4.705
93.76000 2.481
93.78000 0.779
93.80000 -0.052
93.82000 1.159
93.84000 6.159
93.86000 3.977
93.88000 3.479
93.90000 2.509
93.92000 4.159
93.94000 7.379
93.96000 7.162
93.98000 4.860
94.00000 6.434
94.02000 5.793
94.04000 1.360
94.06000 -1.853
94.08000 -0.225
94.10000 1.522
94.12000 2.828
94.14000 4.932
94.16000 3.684
94.18000 5.353
94.20000 4.248
94.22000 1.167
94.24000 4.121
94.26000 6.020
94.28000 6.740
94.30000 6.131
94.32000 5.717
94.34000 3.213
94.36000 6.482
94.38000 5.903
94.40000 3.688
94.42000 4.958
94.44000 3.901
94.46000 5.582
94.48000 6.029
94.50000 3.306
94.52000 4.290
94.54000 4.744
94.56000 2.739
94.58000 3.539
94.60000 0.452
94.62000 1.744
94.64000 2.611
94.66000 3.763
94.68000 3.621
94.70000 1.733
94.72000 1.323
94.74000 4.958
94.76000 5.941
94.78000 7.395
94.80000 9.200
94.82000 4.743
94.84000 -0.135
94.86000 4.862
94.88000 9.740
94.90000 6.486
94.92000 4.804
94.94000 2.865
94.96000 3.991
94.98000 2.347
95.00000 3.278
95.02000 5.697
95.04000 3.058
95.06000 3.231
95.08000 -1.879
95.10000 1.190
95.12000 3.299
95.14000 7.281
95.16000 7.127
95.18000 6.790
95.20000 6.653
95.22000 3.759
95.24000 6.355
95.26000 4.898
95.28000 6.698
95.30000 3.752
95.32000 0.431
95.34000 3.740
95.36000 2.419
95.38000 -1.555
95.40000 1.147
95.42000 4.541
95.44000 5.012
95.46000 -0.567
95.48000 0.904
95.50000 3.972
95.52000 3.459
95.54000 1.130
95.56000 -0.517
95.58000 1.348
95.60000 4.199
95.62000 -0.542
95.64000 0.310
95.66000 -1.514
95.68000 2.093
95.70000 -0.221
95.72000 1.422
95.74000 1.766
95.76000 4.961
95.78000 1.641
95.80000 3.985
95.82000 3.102
95.84000 3.085
95.86000 6.968
95.88000 4.997
95.90000 4.506
95.92000 1.627
95.94000 2.856
95.96000 -0.127
95.98000 0.096
96.00000 2.815
96.02000 4.525
96.04000 4.753
96.06000 4.016
96.08000 0.828
96.10000 3.125
96.12000 2.654
96.14000 1.108
96.16000 0.775
96.18000 0.549
96.20000 1.797
96.22000 1.317
96.24000 2.354
96.26000 1.855
96.28000 5.963
96.30000 6.921
96.32000 1.105
96.34000 2.979
96.36000 -0.198
96.38000 -1.462
96.40000 1.892
96.42000 3.002
96.44000 5.024
96.46000 4.736
96.48000 3.235
96.50000 2.386
96.52000 3.704
96.54000 3.059
96.56000 -1.871
96.58000 -0.937
96.60000 1.055
96.62000 3.667
96.64000 1.253
96.66000 3.141
96.68000 4.355
96.70000 4.510
96.72000 4.531
96.74000 2.743
96.76000 3.787
96.78000 6.689
96.80000 7.850
96.82000 2.947
96.84000 4.785
96.86000 5.276
96.88000 4.790
96.90000 9.247
96.92000 3.969
96.94000 4.091
96.96000 4.024
96.98000 4.705
97.00000 7.858
97.02000 7.916
97.04000 7.236
97.06000 8.259
97.08000 3.416
97.10000 2.116
97.12000 5.519
97.14000 2.968
97.16000 4.979
97.18000 2.960
97.20000 1.978
97.22000 6.658
97.24000 6.093
97.26000 4.340
97.28000 4.765
97.30000 0.508
97.32000 5.150
97.34000 2.697
97.36000 1.502
97.38000 4.127
97.40000 3.810
97.42000 1.810
97.44000 8.356
97.46000 4.006
97.48000 3.179
97.50000 1.879
97.52000 1.338
97.54000 4.626
97.56000 7.894
97.58000 5.614
97.60000 2.449
97.62000 4.648
97.64000 2.048
97.66000 5.941
97.68000 6.881
97.70000 7.877
97.72000 5.708
97.74000 5.354
97.76000 3.756
97.78000 10.277
97.80000 4.971
97.82000 3.424
97.84000 5.985
97.86000 8.508
97.88000 11.336
97.90000 12.313
97.92000 8.788
97.94000 5.886
97.96000 6.022
97.98000 3.219
98.00000 -1.792
98.02000 5.036
98.04000 6.363
98.06000 4.287
98.08000 5.726
98.10000 3.382
98.12000 6.810
98.14000 7.095
98.16000 8.791
98.18000 7.674
98.20000 7.432
98.22000 -0.131
98.24000 -1.784
98.26000 2.502
98.28000 4.429
98.30000 4.960
98.32000 1.982
98.34000 9.312
98.36000 7.395
98.38000 4.823
98.40000 -0.702
98.42000 1.130
98.44000 2.426
98.46000 2.712
98.48000 7.742
98.50000 9.378
98.52000 11.190
98.54000 6.198
98.56000 0.389
98.58000 -0.026
98.60000 1.255
98.62000 2.483
98.64000 7.577
98.66000 8.895
98.68000 6.682
98.70000 0.066
98.72000 3.002
98.74000 6.343
98.76000 4.385
98.78000 9.562
98.80000 3.721
98.82000 12.039
98.84000 9.138
98.86000 -0.767
98.88000 -1.808
98.90000 1.071
98.92000 6.223
98.94000 -0.635
98.96000 -0.292
98.98000 1.652
99.00000 9.103
99.02000 5.193
99.04000 2.021
99.06000 2.855
99.08000 6.781
99.10000 5.301
99.12000 3.943
99.14000 7.592
99.16000 6.888
99.18000 9.016
99.20000 8.331
99.22000 5.375
99.24000 0.845
99.26000 -1.257
99.28000 0.234
99.30000 1.746
99.32000 2.924
99.34000 7.789
99.36000 2.173
99.38000 -0.647
99.40000 0.195
99.42000 3.422
99.44000 2.890
99.46000 0.627
99.48000 5.921
99.50000 4.754
99.52000 0.292
99.54000 0.671
99.56000 2.938
99.58000 8.023
99.60000 4.022
99.62000 0.622
99.64000 6.574
99.66000 4.580
99.68000 3.690
99.70000 0.933
99.72000 -1.323
99.74000 -1.866
99.76000 -0.159
99.78000 13.205
99.80000 8.440
99.82000 11.182
99.84000 5.264
99.86000 4.500
99.88000 0.991
99.90000 4.740
99.92000 5.065
99.94000 8.256
99.96000 -2.034
99.98000 0.000
