'Id: "0011389" Comment: "Integrate frame 0011389_Au-Ir-Rh_Au-Rich_XRD_Mapping-235-0000.gfrmwith cursor Wedge Cursor #5" Operator: "B?rgel" Anode: "Cu" Wavelength: "1.5406" Scantype: "2Theta (TwoTheta)" TimePerStep: "1" X: "22.5" Y: "13.5" Z: "5.95" 
10.00000 0.000
10.02000 -3.715
10.04000 0.662
10.06000 -2.614
10.08000 -3.694
10.10000 13.413
10.12000 18.120
10.14000 16.224
10.16000 11.145
10.18000 -7.813
10.20000 7.084
10.22000 23.286
10.24000 18.673
10.26000 12.198
10.28000 15.706
10.30000 8.343
10.32000 14.306
10.34000 24.122
10.36000 11.801
10.38000 9.337
10.40000 15.668
10.42000 22.615
10.44000 27.055
10.46000 23.216
10.48000 21.431
10.50000 -1.965
10.52000 15.989
10.54000 12.357
10.56000 13.700
10.58000 19.440
10.60000 19.958
10.62000 28.716
10.64000 23.598
10.66000 13.934
10.68000 13.873
10.70000 12.098
10.72000 23.807
10.74000 17.589
10.76000 21.448
10.78000 27.390
10.80000 20.809
10.82000 29.310
10.84000 33.855
10.86000 34.842
10.88000 27.379
10.90000 27.856
10.92000 17.925
10.94000 31.370
10.96000 32.922
10.98000 17.284
11.00000 20.803
11.02000 17.372
11.04000 15.598
11.06000 20.822
11.08000 26.115
11.10000 31.978
11.12000 15.602
11.14000 8.232
11.16000 20.282
11.18000 26.774
11.20000 17.468
11.22000 15.520
11.24000 25.528
11.26000 14.136
11.28000 24.616
11.30000 29.962
11.32000 27.718
11.34000 25.765
11.36000 26.153
11.38000 34.999
11.40000 29.373
11.42000 32.441
11.44000 26.950
11.46000 18.670
11.48000 20.645
11.50000 23.647
11.52000 21.153
11.54000 24.737
11.56000 37.575
11.58000 28.354
11.60000 32.296
11.62000 36.984
11.64000 33.699
11.66000 22.290
11.68000 33.666
11.70000 41.633
11.72000 23.451
11.74000 19.892
11.76000 30.748
11.78000 41.672
11.80000 44.474
11.82000 33.421
11.84000 30.344
11.86000 23.813
11.88000 20.225
11.90000 29.030
11.92000 19.906
11.94000 17.656
11.96000 22.295
11.98000 19.374
12.00000 23.687
12.02000 19.908
12.04000 13.896
12.06000 30.842
12.08000 17.616
12.10000 8.523
12.12000 21.099
12.14000 26.383
12.16000 25.454
12.18000 27.120
12.20000 18.538
12.22000 17.841
12.24000 26.635
12.26000 34.332
12.28000 42.598
12.30000 47.435
12.32000 26.826
12.34000 22.439
12.36000 40.079
12.38000 30.207
12.40000 29.448
12.42000 23.997
12.44000 32.440
12.46000 28.649
12.48000 16.595
12.50000 27.103
12.52000 27.440
12.54000 40.164
12.56000 32.965
12.58000 30.492
12.60000 23.908
12.62000 27.555
12.64000 29.833
12.66000 26.352
12.68000 19.672
12.70000 26.969
12.72000 33.626
12.74000 32.048
12.76000 30.113
12.78000 30.894
12.80000 35.184
12.82000 32.612
12.84000 30.851
12.86000 25.251
12.88000 29.522
12.90000 29.586
12.92000 31.291
12.94000 41.992
12.96000 37.571
12.98000 31.283
13.00000 31.302
13.02000 24.435
13.04000 29.630
13.06000 33.649
13.08000 33.089
13.10000 30.677
13.12000 33.347
13.14000 38.307
13.16000 36.341
13.18000 35.710
13.20000 43.823
13.22000 39.142
13.24000 25.687
13.26000 21.547
13.28000 32.410
13.30000 26.903
13.32000 19.726
13.34000 22.948
13.36000 27.630
13.38000 25.686
13.40000 29.529
13.42000 31.119
13.44000 27.127
13.46000 28.316
13.48000 31.526
13.50000 29.902
13.52000 32.632
13.54000 32.614
13.56000 17.352
13.58000 25.042
13.60000 27.918
13.62000 30.888
13.64000 33.598
13.66000 28.222
13.68000 31.288
13.70000 35.711
13.72000 28.178
13.74000 22.238
13.76000 19.309
13.78000 21.490
13.80000 23.097
13.82000 22.883
13.84000 17.791
13.86000 28.143
13.88000 31.894
13.90000 24.640
13.92000 23.592
13.94000 24.137
13.96000 30.905
13.98000 27.233
14.00000 23.587
14.02000 30.440
14.04000 24.197
14.06000 29.742
14.08000 33.348
14.10000 29.145
14.12000 18.405
14.14000 24.947
14.16000 29.470
14.18000 13.269
14.20000 19.036
14.22000 27.965
14.24000 21.408
14.26000 20.550
14.28000 18.798
14.30000 22.130
14.32000 22.077
14.34000 23.379
14.36000 22.196
14.38000 20.609
14.40000 22.177
14.42000 19.771
14.44000 21.589
14.46000 26.088
14.48000 19.604
14.50000 15.284
14.52000 19.101
14.54000 22.443
14.56000 17.148
14.58000 16.700
14.60000 26.152
14.62000 18.668
14.64000 14.983
14.66000 11.374
14.68000 13.152
14.70000 11.583
14.72000 19.565
14.74000 20.839
14.76000 18.315
14.78000 16.470
14.80000 20.549
14.82000 11.217
14.84000 3.735
14.86000 6.334
14.88000 15.033
14.90000 17.759
14.92000 21.455
14.94000 24.419
14.96000 19.487
14.98000 27.337
15.00000 31.506
15.02000 22.125
15.04000 10.394
15.06000 14.254
15.08000 13.948
15.10000 13.549
15.12000 8.986
15.14000 12.562
15.16000 11.382
15.18000 16.013
15.20000 23.271
15.22000 22.392
15.24000 26.234
15.26000 22.070
15.28000 17.007
15.30000 16.168
15.32000 14.165
15.34000 13.798
15.36000 13.157
15.38000 14.475
15.40000 13.021
15.42000 16.736
15.44000 16.346
15.46000 13.262
15.48000 12.510
15.50000 15.899
15.52000 19.644
15.54000 13.691
15.56000 14.036
15.58000 2.291
15.60000 7.554
15.62000 11.717
15.64000 18.638
15.66000 17.878
15.68000 13.996
15.70000 8.635
15.72000 16.270
15.74000 21.209
15.76000 15.810
15.78000 20.918
15.80000 11.381
15.82000 5.137
15.84000 7.092
15.86000 15.171
15.88000 18.864
15.90000 13.415
15.92000 7.595
15.94000 8.266
15.96000 10.541
15.98000 17.938
16.00000 18.856
16.02000 11.923
16.04000 11.278
16.06000 8.203
16.08000 1.767
16.10000 -1.904
16.12000 3.127
16.14000 11.304
16.16000 13.670
16.18000 14.517
16.20000 6.495
16.22000 15.996
16.24000 8.451
16.26000 7.524
16.28000 4.819
16.30000 8.068
16.32000 9.356
16.34000 7.853
16.36000 7.509
16.38000 8.677
16.40000 8.304
16.42000 10.187
16.44000 12.450
16.46000 17.018
16.48000 19.454
16.50000 15.097
16.52000 8.686
16.54000 5.228
16.56000 9.865
16.58000 14.935
16.60000 11.639
16.62000 17.011
16.64000 19.076
16.66000 20.137
16.68000 14.516
16.70000 12.954
16.72000 17.589
16.74000 11.429
16.76000 8.551
16.78000 8.964
16.80000 6.930
16.82000 8.721
16.84000 10.238
16.86000 5.173
16.88000 0.257
16.90000 2.490
16.92000 10.068
16.94000 13.015
16.96000 12.692
16.98000 15.201
17.00000 16.016
17.02000 18.474
17.04000 20.148
17.06000 11.579
17.08000 -4.406
17.10000 6.000
17.12000 9.914
17.14000 12.178
17.16000 13.583
17.18000 17.246
17.20000 19.460
17.22000 14.645
17.24000 5.562
17.26000 9.270
17.28000 12.210
17.30000 3.543
17.32000 3.319
17.34000 -1.524
17.36000 -2.517
17.38000 8.024
17.40000 5.298
17.42000 9.633
17.44000 10.629
17.46000 9.866
17.48000 12.524
17.50000 11.896
17.52000 6.319
17.54000 7.727
17.56000 2.434
17.58000 -0.874
17.60000 -4.392
17.62000 0.147
17.64000 3.145
17.66000 6.420
17.68000 8.688
17.70000 9.396
17.72000 7.814
17.74000 13.012
17.76000 13.681
17.78000 8.119
17.80000 4.723
17.82000 6.847
17.84000 7.052
17.86000 2.560
17.88000 -0.063
17.90000 3.457
17.92000 2.095
17.94000 6.484
17.96000 3.979
17.98000 3.507
18.00000 8.072
18.02000 8.602
18.04000 3.474
18.06000 2.137
18.08000 2.914
18.10000 7.552
18.12000 11.583
18.14000 8.835
18.16000 1.332
18.18000 -0.284
18.20000 -1.212
18.22000 4.241
18.24000 4.246
18.26000 10.493
18.28000 6.775
18.30000 7.832
18.32000 10.701
18.34000 12.142
18.36000 4.667
18.38000 5.646
18.40000 2.271
18.42000 0.799
18.44000 0.466
18.46000 0.973
18.48000 5.354
18.50000 3.679
18.52000 7.130
18.54000 12.474
18.56000 12.529
18.58000 4.146
18.60000 4.215
18.62000 4.643
18.64000 5.501
18.66000 -1.128
18.68000 -4.332
18.70000 2.892
18.72000 4.150
18.74000 1.077
18.76000 3.538
18.78000 6.154
18.80000 -1.518
18.82000 -0.426
18.84000 7.838
18.86000 10.555
18.88000 7.800
18.90000 1.664
18.92000 2.382
18.94000 3.910
18.96000 2.239
18.98000 0.776
19.00000 0.389
19.02000 3.838
19.04000 4.962
19.06000 8.754
19.08000 10.740
19.10000 10.892
19.12000 11.351
19.14000 11.363
19.16000 6.027
19.18000 2.342
19.20000 0.921
19.22000 -1.509
19.24000 -1.735
19.26000 3.631
19.28000 1.691
19.30000 1.257
19.32000 4.453
19.34000 3.008
19.36000 4.492
19.38000 6.557
19.40000 0.956
19.42000 1.802
19.44000 5.652
19.46000 6.450
19.48000 -1.813
19.50000 -0.765
19.52000 8.236
19.54000 11.705
19.56000 10.580
19.58000 2.524
19.60000 4.045
19.62000 5.425
19.64000 -0.096
19.66000 -4.283
19.68000 3.725
19.70000 8.494
19.72000 2.581
19.74000 -0.136
19.76000 7.051
19.78000 6.988
19.80000 0.957
19.82000 5.359
19.84000 2.600
19.86000 4.568
19.88000 5.314
19.90000 0.937
19.92000 3.086
19.94000 8.176
19.96000 2.369
19.98000 -3.011
20.00000 4.386
20.02000 -2.700
20.04000 -4.267
20.06000 1.134
20.08000 -1.736
20.10000 0.634
20.12000 6.462
20.14000 5.581
20.16000 6.279
20.18000 4.109
20.20000 1.590
20.22000 6.243
20.24000 10.043
20.26000 9.973
20.28000 8.262
20.30000 4.673
20.32000 -0.660
20.34000 2.522
20.36000 6.481
20.38000 0.170
20.40000 0.243
20.42000 0.997
20.44000 3.983
20.46000 3.003
20.48000 0.923
20.50000 -0.509
20.52000 7.149
20.54000 13.990
20.56000 8.732
20.58000 4.772
20.60000 2.490
20.62000 7.277
20.64000 8.214
20.66000 5.634
20.68000 6.398
20.70000 7.062
20.72000 5.692
20.74000 4.131
20.76000 9.192
20.78000 8.332
20.80000 5.053
20.82000 6.987
20.84000 7.033
20.86000 5.051
20.88000 1.437
20.90000 3.982
20.92000 -0.310
20.94000 -0.321
20.96000 -0.403
20.98000 7.454
21.00000 10.639
21.02000 10.618
21.04000 7.019
21.06000 1.127
21.08000 -4.210
21.10000 0.707
21.12000 12.883
21.14000 13.554
21.16000 4.280
21.18000 5.200
21.20000 3.223
21.22000 3.823
21.24000 3.129
21.26000 1.332
21.28000 1.086
21.30000 3.260
21.32000 5.979
21.34000 5.430
21.36000 2.779
21.38000 0.201
21.40000 1.841
21.42000 4.621
21.44000 6.519
21.46000 5.524
21.48000 3.513
21.50000 4.990
21.52000 3.467
21.54000 1.434
21.56000 2.415
21.58000 7.426
21.60000 -0.024
21.62000 -2.316
21.64000 3.722
21.66000 2.007
21.68000 5.673
21.70000 3.833
21.72000 2.251
21.74000 -0.172
21.76000 3.844
21.78000 4.718
21.80000 4.722
21.82000 3.294
21.84000 6.049
21.86000 4.072
21.88000 5.283
21.90000 8.111
21.92000 2.439
21.94000 -3.001
21.96000 6.902
21.98000 7.931
22.00000 3.425
22.02000 4.248
22.04000 0.290
22.06000 -3.762
22.08000 -2.936
22.10000 2.949
22.12000 9.744
22.14000 5.904
22.16000 6.256
22.18000 1.700
22.20000 1.331
22.22000 2.978
22.24000 6.296
22.26000 5.749
22.28000 0.761
22.30000 2.444
22.32000 6.537
22.34000 4.777
22.36000 -4.132
22.38000 0.779
22.40000 -3.204
22.42000 -2.519
22.44000 1.314
22.46000 0.412
22.48000 3.102
22.50000 4.910
22.52000 6.759
22.54000 9.096
22.56000 5.644
22.58000 0.271
22.60000 6.380
22.62000 9.462
22.64000 3.582
22.66000 10.226
22.68000 9.587
22.70000 4.071
22.72000 0.124
22.74000 6.026
22.76000 5.176
22.78000 -0.694
22.80000 3.144
22.82000 2.597
22.84000 6.967
22.86000 1.817
22.88000 2.212
22.90000 9.821
22.92000 12.294
22.94000 8.049
22.96000 4.380
22.98000 8.977
23.00000 6.932
23.02000 3.086
23.04000 5.050
23.06000 3.261
23.08000 8.062
23.10000 6.036
23.12000 5.834
23.14000 5.267
23.16000 -0.505
23.18000 0.720
23.20000 0.966
23.22000 0.955
23.24000 1.216
23.26000 3.551
23.28000 4.535
23.30000 1.375
23.32000 3.197
23.34000 -1.541
23.36000 -3.122
23.38000 4.224
23.40000 8.829
23.42000 6.898
23.44000 7.167
23.46000 9.592
23.48000 9.275
23.50000 5.092
23.52000 2.279
23.54000 6.071
23.56000 1.888
23.58000 -4.048
23.60000 1.508
23.62000 5.387
23.64000 4.702
23.66000 3.309
23.68000 3.853
23.70000 7.360
23.72000 9.266
23.74000 1.993
23.76000 -3.618
23.78000 -0.301
23.80000 -3.190
23.82000 0.842
23.84000 -3.759
23.86000 -0.638
23.88000 1.803
23.90000 -0.530
23.92000 3.436
23.94000 9.843
23.96000 8.197
23.98000 4.896
24.00000 6.791
24.02000 3.540
24.04000 -1.040
24.06000 4.975
24.08000 3.842
24.10000 1.621
24.12000 0.777
24.14000 5.428
24.16000 7.578
24.18000 2.545
24.20000 -2.949
24.22000 -1.073
24.24000 0.503
24.26000 3.839
24.28000 2.018
24.30000 2.575
24.32000 -1.088
24.34000 -2.827
24.36000 -0.173
24.38000 2.002
24.40000 4.990
24.42000 2.980
24.44000 7.916
24.46000 3.226
24.48000 -4.015
24.50000 4.632
24.52000 9.235
24.54000 3.884
24.56000 4.317
24.58000 2.789
24.60000 5.258
24.62000 5.767
24.64000 1.536
24.66000 -3.494
24.68000 7.752
24.70000 10.261
24.72000 12.323
24.74000 8.459
24.76000 6.627
24.78000 3.002
24.80000 3.454
24.82000 4.744
24.84000 3.784
24.86000 5.923
24.88000 8.305
24.90000 7.358
24.92000 6.217
24.94000 3.856
24.96000 -0.016
24.98000 1.064
25.00000 3.509
25.02000 1.395
25.04000 2.493
25.06000 8.244
25.08000 3.904
25.10000 5.560
25.12000 0.374
25.14000 6.201
25.16000 3.070
25.18000 -2.419
25.20000 2.851
25.22000 1.266
25.24000 5.999
25.26000 5.379
25.28000 3.826
25.30000 2.548
25.32000 2.429
25.34000 -3.338
25.36000 1.320
25.38000 8.665
25.40000 2.458
25.42000 -2.835
25.44000 2.769
25.46000 2.099
25.48000 4.379
25.50000 2.459
25.52000 3.517
25.54000 -2.377
25.56000 -2.402
25.58000 4.936
25.60000 7.538
25.62000 2.860
25.64000 2.819
25.66000 -1.251
25.68000 -3.954
25.70000 -0.745
25.72000 1.151
25.74000 5.910
25.76000 5.382
25.78000 3.094
25.80000 -1.814
25.82000 -0.481
25.84000 2.404
25.86000 8.878
25.88000 5.426
25.90000 1.505
25.92000 -1.856
25.94000 4.509
25.96000 6.121
25.98000 2.391
26.00000 3.005
26.02000 2.911
26.04000 7.849
26.06000 4.288
26.08000 7.235
26.10000 7.935
26.12000 7.099
26.14000 6.508
26.16000 3.947
26.18000 5.236
26.20000 4.182
26.22000 2.339
26.24000 -3.922
26.26000 -0.753
26.28000 6.348
26.30000 5.583
26.32000 2.549
26.34000 1.199
26.36000 3.424
26.38000 1.813
26.40000 -0.568
26.42000 -1.742
26.44000 0.981
26.46000 -1.620
26.48000 4.546
26.50000 4.915
26.52000 -0.085
26.54000 3.543
26.56000 6.718
26.58000 5.822
26.60000 4.880
26.62000 1.834
26.64000 2.498
26.66000 2.115
26.68000 4.108
26.70000 4.556
26.72000 6.387
26.74000 11.092
26.76000 11.878
26.78000 3.270
26.80000 5.959
26.82000 9.231
26.84000 4.433
26.86000 6.404
26.88000 6.128
26.90000 5.770
26.92000 10.756
26.94000 9.850
26.96000 0.279
26.98000 -2.718
27.00000 1.774
27.02000 2.179
27.04000 1.709
27.06000 3.532
27.08000 1.980
27.10000 2.810
27.12000 0.876
27.14000 5.153
27.16000 3.869
27.18000 1.174
27.20000 7.325
27.22000 12.041
27.24000 12.132
27.26000 5.659
27.28000 1.480
27.30000 4.528
27.32000 8.245
27.34000 10.760
27.36000 9.164
27.38000 7.012
27.40000 8.961
27.42000 5.128
27.44000 6.228
27.46000 6.481
27.48000 2.618
27.50000 6.436
27.52000 5.844
27.54000 6.843
27.56000 6.437
27.58000 6.164
27.60000 4.605
27.62000 4.059
27.64000 9.191
27.66000 7.817
27.68000 9.424
27.70000 3.518
27.72000 0.245
27.74000 0.717
27.76000 4.613
27.78000 8.406
27.80000 6.987
27.82000 4.319
27.84000 2.306
27.86000 1.932
27.88000 5.896
27.90000 5.829
27.92000 1.224
27.94000 -3.802
27.96000 1.527
27.98000 4.363
28.00000 5.238
28.02000 6.858
28.04000 7.266
28.06000 6.325
28.08000 4.586
28.10000 5.127
28.12000 0.648
28.14000 -3.406
28.16000 1.719
28.18000 -1.229
28.20000 1.730
28.22000 4.096
28.24000 1.533
28.26000 6.618
28.28000 7.072
28.30000 8.495
28.32000 9.610
28.34000 5.706
28.36000 3.134
28.38000 -0.429
28.40000 5.009
28.42000 5.368
28.44000 2.136
28.46000 7.564
28.48000 4.186
28.50000 2.801
28.52000 5.628
28.54000 13.461
28.56000 8.214
28.58000 1.495
28.60000 1.731
28.62000 5.371
28.64000 4.900
28.66000 -1.914
28.68000 0.534
28.70000 3.617
28.72000 2.431
28.74000 2.727
28.76000 4.382
28.78000 7.627
28.80000 7.102
28.82000 4.841
28.84000 3.415
28.86000 2.172
28.88000 5.887
28.90000 1.268
28.92000 1.862
28.94000 6.251
28.96000 5.336
28.98000 2.917
29.00000 5.221
29.02000 4.304
29.04000 1.850
29.06000 1.530
29.08000 1.111
29.10000 3.681
29.12000 4.263
29.14000 0.623
29.16000 -3.772
29.18000 -0.991
29.20000 4.072
29.22000 10.049
29.24000 3.623
29.26000 5.287
29.28000 4.244
29.30000 6.142
29.32000 7.954
29.34000 5.362
29.36000 4.628
29.38000 5.020
29.40000 3.506
29.42000 5.559
29.44000 4.664
29.46000 3.633
29.48000 1.023
29.50000 6.193
29.52000 5.070
29.54000 3.756
29.56000 5.704
29.58000 6.367
29.60000 5.251
29.62000 4.784
29.64000 6.612
29.66000 7.333
29.68000 2.643
29.70000 -0.458
29.72000 5.138
29.74000 1.685
29.76000 7.662
29.78000 7.174
29.80000 4.317
29.82000 0.349
29.84000 8.220
29.86000 5.821
29.88000 4.197
29.90000 6.345
29.92000 6.032
29.94000 9.352
29.96000 7.890
29.98000 8.890
30.00000 3.200
30.02000 1.450
30.04000 1.577
30.06000 3.616
30.08000 7.525
30.10000 4.793
30.12000 3.191
30.14000 6.500
30.16000 7.043
30.18000 6.123
30.20000 10.347
30.22000 11.378
30.24000 7.222
30.26000 8.139
30.28000 6.839
30.30000 4.467
30.32000 6.598
30.34000 6.112
30.36000 10.830
30.38000 9.850
30.40000 5.968
30.42000 4.398
30.44000 1.616
30.46000 -3.664
30.48000 -1.103
30.50000 4.670
30.52000 7.124
30.54000 7.943
30.56000 10.794
30.58000 8.599
30.60000 5.579
30.62000 8.410
30.64000 5.202
30.66000 2.862
30.68000 5.423
30.70000 6.677
30.72000 6.806
30.74000 4.904
30.76000 7.684
30.78000 5.820
30.80000 3.906
30.82000 5.128
30.84000 11.382
30.86000 8.680
30.88000 3.724
30.90000 2.928
30.92000 5.289
30.94000 10.071
30.96000 10.108
30.98000 7.717
31.00000 6.490
31.02000 8.309
31.04000 12.508
31.06000 11.126
31.08000 14.773
31.10000 7.690
31.12000 3.843
31.14000 5.465
31.16000 5.264
31.18000 5.332
31.20000 -1.644
31.22000 -3.659
31.24000 -0.843
31.26000 3.482
31.28000 1.259
31.30000 3.910
31.32000 5.187
31.34000 4.152
31.36000 5.790
31.38000 6.089
31.40000 7.164
31.42000 9.281
31.44000 9.925
31.46000 7.236
31.48000 0.225
31.50000 2.417
31.52000 5.568
31.54000 5.624
31.56000 5.360
31.58000 4.270
31.60000 7.113
31.62000 9.263
31.64000 7.348
31.66000 5.799
31.68000 4.226
31.70000 1.883
31.72000 4.435
31.74000 3.268
31.76000 0.877
31.78000 5.359
31.80000 7.155
31.82000 7.695
31.84000 8.383
31.86000 1.977
31.88000 4.870
31.90000 9.687
31.92000 8.815
31.94000 6.598
31.96000 4.062
31.98000 4.530
32.00000 -2.028
32.02000 4.671
32.04000 3.771
32.06000 -2.655
32.08000 -0.894
32.10000 6.586
32.12000 6.406
32.14000 4.957
32.16000 4.808
32.18000 9.228
32.20000 6.394
32.22000 1.278
32.24000 8.452
32.26000 8.247
32.28000 9.436
32.30000 6.591
32.32000 3.332
32.34000 4.118
32.36000 5.966
32.38000 2.150
32.40000 2.276
32.42000 4.298
32.44000 4.333
32.46000 -1.619
32.48000 -3.035
32.50000 1.944
32.52000 0.191
32.54000 5.888
32.56000 0.939
32.58000 2.158
32.60000 1.296
32.62000 -1.798
32.64000 -3.636
32.66000 2.498
32.68000 9.836
32.70000 8.200
32.72000 9.509
32.74000 8.713
32.76000 3.745
32.78000 0.533
32.80000 2.492
32.82000 2.485
32.84000 2.051
32.86000 3.945
32.88000 5.263
32.90000 4.779
32.92000 3.136
32.94000 -0.626
32.96000 2.350
32.98000 4.103
33.00000 1.407
33.02000 4.266
33.04000 3.213
33.06000 2.523
33.08000 2.360
33.10000 4.439
33.12000 3.329
33.14000 6.740
33.16000 8.856
33.18000 3.595
33.20000 3.558
33.22000 1.986
33.24000 4.450
33.26000 6.878
33.28000 9.067
33.30000 7.528
33.32000 9.925
33.34000 6.745
33.36000 4.371
33.38000 3.662
33.40000 0.966
33.42000 7.590
33.44000 2.639
33.46000 -0.173
33.48000 -0.461
33.50000 5.616
33.52000 7.093
33.54000 6.291
33.56000 6.835
33.58000 4.688
33.60000 3.558
33.62000 10.356
33.64000 6.779
33.66000 5.026
33.68000 4.511
33.70000 4.928
33.72000 5.867
33.74000 -0.280
33.76000 -0.906
33.78000 -1.723
33.80000 -0.550
33.82000 -0.666
33.84000 3.557
33.86000 5.399
33.88000 0.110
33.90000 -2.814
33.92000 1.497
33.94000 6.937
33.96000 4.115
33.98000 7.101
34.00000 3.717
34.02000 -2.375
34.04000 3.710
34.06000 6.629
34.08000 4.465
34.10000 3.696
34.12000 5.049
34.14000 4.279
34.16000 4.314
34.18000 6.724
34.20000 7.997
34.22000 7.310
34.24000 4.668
34.26000 -0.173
34.28000 0.049
34.30000 4.587
34.32000 6.305
34.34000 3.525
34.36000 3.476
34.38000 0.759
34.40000 1.872
34.42000 -0.649
34.44000 0.703
34.46000 0.224
34.48000 -2.841
34.50000 -3.639
34.52000 1.038
34.54000 2.465
34.56000 1.387
34.58000 0.538
34.60000 -0.992
34.62000 2.235
34.64000 2.130
34.66000 0.957
34.68000 6.596
34.70000 0.992
34.72000 -1.453
34.74000 2.245
34.76000 0.939
34.78000 -2.645
34.80000 -3.628
34.82000 0.139
34.84000 4.650
34.86000 2.426
34.88000 4.177
34.90000 1.295
34.92000 3.906
34.94000 5.309
34.96000 -0.029
34.98000 2.134
35.00000 1.245
35.02000 4.434
35.04000 5.160
35.06000 0.946
35.08000 3.605
35.10000 1.729
35.12000 -2.824
35.14000 2.131
35.16000 4.194
35.18000 4.142
35.20000 3.520
35.22000 3.012
35.24000 -0.874
35.26000 2.903
35.28000 4.134
35.30000 5.454
35.32000 1.768
35.34000 4.847
35.36000 4.604
35.38000 -0.422
35.40000 -3.600
35.42000 2.305
35.44000 5.834
35.46000 6.010
35.48000 3.544
35.50000 9.304
35.52000 11.068
35.54000 4.940
35.56000 0.677
35.58000 0.464
35.60000 1.250
35.62000 3.685
35.64000 -0.764
35.66000 1.997
35.68000 3.110
35.70000 1.403
35.72000 -2.495
35.74000 -1.823
35.76000 1.621
35.78000 5.747
35.80000 6.541
35.82000 1.131
35.84000 -1.542
35.86000 1.481
35.88000 5.548
35.90000 2.291
35.92000 1.908
35.94000 2.560
35.96000 4.239
35.98000 4.502
36.00000 3.234
36.02000 6.794
36.04000 3.917
36.06000 2.687
36.08000 2.802
36.10000 5.536
36.12000 4.757
36.14000 7.198
36.16000 5.345
36.18000 4.748
36.20000 3.318
36.22000 8.221
36.24000 7.109
36.26000 7.099
36.28000 6.158
36.30000 4.803
36.32000 2.203
36.34000 2.921
36.36000 5.643
36.38000 5.831
36.40000 5.227
36.42000 7.048
36.44000 4.727
36.46000 2.204
36.48000 -3.636
36.50000 0.916
36.52000 5.928
36.54000 4.144
36.56000 4.361
36.58000 4.558
36.60000 12.484
36.62000 10.237
36.64000 5.477
36.66000 5.059
36.68000 1.182
36.70000 4.251
36.72000 2.985
36.74000 4.947
36.76000 5.415
36.78000 7.379
36.80000 11.489
36.82000 9.192
36.84000 6.095
36.86000 10.262
36.88000 4.280
36.90000 2.880
36.92000 6.520
36.94000 4.914
36.96000 3.997
36.98000 1.888
37.00000 1.565
37.02000 5.692
37.04000 6.783
37.06000 8.297
37.08000 10.985
37.10000 8.097
37.12000 2.881
37.14000 6.267
37.16000 6.460
37.18000 11.240
37.20000 12.523
37.22000 8.099
37.24000 5.036
37.26000 5.919
37.28000 8.784
37.30000 6.760
37.32000 8.929
37.34000 10.105
37.36000 9.718
37.38000 9.964
37.40000 6.997
37.42000 3.602
37.44000 8.521
37.46000 10.839
37.48000 19.052
37.50000 12.018
37.52000 10.089
37.54000 10.577
37.56000 12.693
37.58000 12.833
37.60000 14.043
37.62000 17.146
37.64000 16.787
37.66000 14.805
37.68000 15.299
37.70000 16.204
37.72000 18.495
37.74000 16.515
37.76000 14.723
37.78000 19.080
37.80000 20.538
37.82000 29.949
37.84000 23.699
37.86000 19.421
37.88000 20.890
37.90000 26.113
37.92000 27.729
37.94000 25.450
37.96000 20.545
37.98000 24.135
38.00000 31.056
38.02000 25.654
38.04000 28.931
38.06000 36.900
38.08000 37.853
38.10000 33.548
38.12000 35.300
38.14000 30.689
38.16000 30.933
38.18000 35.931
38.20000 36.336
38.22000 38.335
38.24000 40.381
38.26000 44.777
38.28000 49.699
38.30000 51.832
38.32000 47.598
38.34000 50.341
38.36000 56.661
38.38000 59.697
38.40000 60.593
38.42000 58.686
38.44000 62.924
38.46000 65.205
38.48000 69.725
38.50000 69.479
38.52000 76.356
38.54000 79.387
38.56000 82.826
38.58000 81.689
38.60000 77.841
38.62000 84.173
38.64000 91.787
38.66000 101.262
38.68000 104.289
38.70000 113.409
38.72000 119.427
38.74000 127.643
38.76000 126.384
38.78000 130.983
38.80000 140.045
38.82000 147.410
38.84000 155.515
38.86000 164.003
38.88000 172.887
38.90000 185.737
38.92000 200.104
38.94000 212.572
38.96000 224.032
38.98000 234.389
39.00000 246.769
39.02000 266.138
39.04000 288.937
39.06000 304.460
39.08000 313.572
39.10000 335.764
39.12000 353.180
39.14000 362.120
39.16000 384.147
39.18000 404.638
39.20000 431.572
39.22000 446.501
39.24000 472.981
39.26000 491.608
39.28000 495.454
39.30000 511.600
39.32000 525.753
39.34000 541.702
39.36000 548.185
39.38000 558.329
39.40000 557.955
39.42000 558.227
39.44000 569.069
39.46000 579.010
39.48000 579.088
39.50000 563.870
39.52000 559.621
39.54000 546.653
39.56000 532.384
39.58000 518.055
39.60000 503.465
39.62000 499.672
39.64000 474.190
39.66000 452.066
39.68000 437.711
39.70000 412.420
39.72000 390.659
39.74000 375.267
39.76000 362.070
39.78000 341.705
39.80000 313.415
39.82000 295.075
39.84000 284.576
39.86000 272.096
39.88000 254.304
39.90000 234.961
39.92000 220.916
39.94000 209.866
39.96000 195.462
39.98000 182.863
40.00000 165.683
40.02000 157.960
40.04000 153.599
40.06000 137.980
40.08000 128.032
40.10000 117.860
40.12000 112.464
40.14000 102.028
40.16000 95.387
40.18000 92.934
40.20000 92.548
40.22000 88.336
40.24000 78.796
40.26000 73.903
40.28000 71.160
40.30000 64.846
40.32000 59.102
40.34000 60.885
40.36000 53.530
40.38000 50.866
40.40000 48.140
40.42000 47.809
40.44000 45.751
40.46000 38.040
40.48000 34.807
40.50000 36.966
40.52000 34.828
40.54000 33.112
40.56000 37.581
40.58000 28.677
40.60000 29.735
40.62000 28.145
40.64000 24.504
40.66000 26.352
40.68000 27.210
40.70000 19.761
40.72000 16.952
40.74000 20.063
40.76000 22.516
40.78000 22.123
40.80000 15.302
40.82000 13.950
40.84000 15.479
40.86000 13.826
40.88000 11.514
40.90000 11.253
40.92000 11.843
40.94000 12.275
40.96000 13.383
40.98000 11.045
41.00000 9.094
41.02000 11.450
41.04000 11.646
41.06000 7.109
41.08000 7.725
41.10000 8.030
41.12000 6.203
41.14000 5.168
41.16000 7.540
41.18000 10.967
41.20000 9.489
41.22000 4.887
41.24000 5.675
41.26000 3.098
41.28000 1.196
41.30000 5.248
41.32000 1.646
41.34000 1.481
41.36000 3.681
41.38000 2.818
41.40000 2.379
41.42000 1.621
41.44000 2.472
41.46000 4.115
41.48000 2.527
41.50000 3.991
41.52000 7.797
41.54000 4.346
41.56000 3.718
41.58000 3.887
41.60000 2.842
41.62000 4.002
41.64000 3.253
41.66000 -1.636
41.68000 -0.433
41.70000 1.660
41.72000 3.196
41.74000 -0.308
41.76000 2.376
41.78000 2.668
41.80000 0.444
41.82000 -0.640
41.84000 -0.041
41.86000 0.295
41.88000 0.890
41.90000 0.408
41.92000 1.438
41.94000 1.612
41.96000 0.415
41.98000 -1.712
42.00000 0.639
42.02000 -1.168
42.04000 1.728
42.06000 -1.064
42.08000 0.256
42.10000 -2.898
42.12000 -1.471
42.14000 3.491
42.16000 -0.621
42.18000 1.742
42.20000 0.741
42.22000 0.039
42.24000 3.785
42.26000 4.142
42.28000 1.137
42.30000 0.747
42.32000 -2.653
42.34000 -3.294
42.36000 -1.741
42.38000 1.842
42.40000 5.486
42.42000 4.277
42.44000 0.035
42.46000 -0.873
42.48000 1.736
42.50000 -1.087
42.52000 -3.265
42.54000 2.365
42.56000 5.245
42.58000 3.767
42.60000 0.910
42.62000 0.658
42.64000 1.454
42.66000 1.279
42.68000 1.152
42.70000 3.841
42.72000 2.570
42.74000 3.393
42.76000 0.919
42.78000 -1.309
42.80000 0.984
42.82000 2.237
42.84000 1.557
42.86000 4.031
42.88000 -0.374
42.90000 0.093
42.92000 1.961
42.94000 1.263
42.96000 1.783
42.98000 0.208
43.00000 0.391
43.02000 0.174
43.04000 4.075
43.06000 -1.955
43.08000 -0.035
43.10000 1.664
43.12000 1.333
43.14000 -1.001
43.16000 3.632
43.18000 1.392
43.20000 -0.522
43.22000 0.870
43.24000 -2.516
43.26000 -0.620
43.28000 -0.249
43.30000 0.157
43.32000 1.081
43.34000 1.611
43.36000 -1.643
43.38000 0.473
43.40000 5.843
43.42000 5.864
43.44000 4.444
43.46000 1.044
43.48000 0.110
43.50000 0.268
43.52000 2.364
43.54000 2.901
43.56000 0.412
43.58000 -1.811
43.60000 -3.128
43.62000 0.081
43.64000 1.422
43.66000 -2.344
43.68000 -0.103
43.70000 3.300
43.72000 3.059
43.74000 2.734
43.76000 1.430
43.78000 3.309
43.80000 3.941
43.82000 5.092
43.84000 2.426
43.86000 0.814
43.88000 0.994
43.90000 0.842
43.92000 0.636
43.94000 1.822
43.96000 0.882
43.98000 -0.481
44.00000 1.198
44.02000 3.837
44.04000 3.964
44.06000 -0.668
44.08000 -0.785
44.10000 -0.067
44.12000 0.958
44.14000 -1.063
44.16000 1.555
44.18000 -0.278
44.20000 -0.079
44.22000 1.455
44.24000 2.787
44.26000 2.973
44.28000 -0.952
44.30000 -3.106
44.32000 -0.599
44.34000 -1.558
44.36000 2.216
44.38000 1.106
44.40000 0.924
44.42000 3.064
44.44000 4.494
44.46000 3.510
44.48000 0.870
44.50000 4.672
44.52000 6.795
44.54000 3.371
44.56000 2.296
44.58000 4.946
44.60000 0.941
44.62000 3.141
44.64000 1.538
44.66000 -0.668
44.68000 0.293
44.70000 3.420
44.72000 3.415
44.74000 1.478
44.76000 0.247
44.78000 4.401
44.80000 3.614
44.82000 4.315
44.84000 9.536
44.86000 11.259
44.88000 10.790
44.90000 11.583
44.92000 10.609
44.94000 12.710
44.96000 10.591
44.98000 8.012
45.00000 8.266
45.02000 7.920
45.04000 9.562
45.06000 16.734
45.08000 13.809
45.10000 11.920
45.12000 14.020
45.14000 16.016
45.16000 12.717
45.18000 14.935
45.20000 12.938
45.22000 17.030
45.24000 19.259
45.26000 23.563
45.28000 19.615
45.30000 21.010
45.32000 22.362
45.34000 20.128
45.36000 19.865
45.38000 24.552
45.40000 26.534
45.42000 30.828
45.44000 29.723
45.46000 25.710
45.48000 26.629
45.50000 29.974
45.52000 32.077
45.54000 33.637
45.56000 34.965
45.58000 37.788
45.60000 40.842
45.62000 43.508
45.64000 40.454
45.66000 44.132
45.68000 45.594
45.70000 42.305
45.72000 40.744
45.74000 45.102
45.76000 44.089
45.78000 47.326
45.80000 48.819
45.82000 49.369
45.84000 50.376
45.86000 52.502
45.88000 52.300
45.90000 54.196
45.92000 54.949
45.94000 60.712
45.96000 57.050
45.98000 61.257
46.00000 65.901
46.02000 61.525
46.04000 61.991
46.06000 67.266
46.08000 68.256
46.10000 66.111
46.12000 58.673
46.14000 60.581
46.16000 63.251
46.18000 71.250
46.20000 71.914
46.22000 64.827
46.24000 66.915
46.26000 64.723
46.28000 63.260
46.30000 59.522
46.32000 56.048
46.34000 57.558
46.36000 54.567
46.38000 50.283
46.40000 49.565
46.42000 50.565
46.44000 47.383
46.46000 48.008
46.48000 47.532
46.50000 44.575
46.52000 43.525
46.54000 42.896
46.56000 42.859
46.58000 39.248
46.60000 35.353
46.62000 33.836
46.64000 31.647
46.66000 28.831
46.68000 28.396
46.70000 23.836
46.72000 26.285
46.74000 28.917
46.76000 27.397
46.78000 22.075
46.80000 18.665
46.82000 19.577
46.84000 19.240
46.86000 13.844
46.88000 13.856
46.90000 15.044
46.92000 15.663
46.94000 15.240
46.96000 12.597
46.98000 8.638
47.00000 10.362
47.02000 13.171
47.04000 8.112
47.06000 8.057
47.08000 6.112
47.10000 7.351
47.12000 8.697
47.14000 7.415
47.16000 7.615
47.18000 7.604
47.20000 5.547
47.22000 4.492
47.24000 2.492
47.26000 5.371
47.28000 2.840
47.30000 2.619
47.32000 -0.860
47.34000 0.923
47.36000 2.640
47.38000 4.358
47.40000 2.667
47.42000 -2.581
47.44000 0.578
47.46000 3.266
47.48000 2.828
47.50000 -2.430
47.52000 -1.824
47.54000 0.572
47.56000 -0.533
47.58000 0.352
47.60000 -0.597
47.62000 -0.557
47.64000 0.472
47.66000 -0.296
47.68000 -1.083
47.70000 -1.216
47.72000 -2.277
47.74000 -0.192
47.76000 3.255
47.78000 0.585
47.80000 -0.348
47.82000 1.853
47.84000 1.203
47.86000 -2.696
47.88000 2.014
47.90000 3.220
47.92000 3.308
47.94000 -0.310
47.96000 -0.710
47.98000 0.504
48.00000 2.713
48.02000 -2.666
48.04000 2.317
48.06000 3.182
48.08000 0.521
48.10000 4.998
48.12000 4.079
48.14000 1.731
48.16000 2.788
48.18000 1.703
48.20000 -0.185
48.22000 2.832
48.24000 3.491
48.26000 1.086
48.28000 4.106
48.30000 2.090
48.32000 -0.590
48.34000 2.940
48.36000 2.090
48.38000 2.022
48.40000 -0.255
48.42000 -0.671
48.44000 -1.942
48.46000 -0.048
48.48000 1.823
48.50000 1.028
48.52000 -1.303
48.54000 -2.409
48.56000 -2.614
48.58000 -0.982
48.60000 2.161
48.62000 5.102
48.64000 0.264
48.66000 -0.148
48.68000 2.804
48.70000 3.553
48.72000 5.915
48.74000 6.830
48.76000 3.723
48.78000 3.337
48.80000 2.994
48.82000 2.026
48.84000 0.794
48.86000 1.603
48.88000 0.366
48.90000 -2.580
48.92000 -0.671
48.94000 2.516
48.96000 1.861
48.98000 -0.482
49.00000 1.713
49.02000 2.668
49.04000 1.071
49.06000 1.735
49.08000 2.332
49.10000 -1.339
49.12000 1.006
49.14000 0.469
49.16000 2.851
49.18000 3.142
49.20000 2.103
49.22000 -1.539
49.24000 2.619
49.26000 4.851
49.28000 1.293
49.30000 2.533
49.32000 3.546
49.34000 5.828
49.36000 2.322
49.38000 3.158
49.40000 3.956
49.42000 4.749
49.44000 4.832
49.46000 0.263
49.48000 -2.531
49.50000 -1.780
49.52000 1.311
49.54000 2.776
49.56000 3.936
49.58000 2.700
49.60000 0.728
49.62000 1.773
49.64000 4.412
49.66000 4.481
49.68000 1.915
49.70000 0.433
49.72000 1.644
49.74000 0.984
49.76000 2.086
49.78000 4.917
49.80000 7.563
49.82000 -0.233
49.84000 -0.612
49.86000 1.351
49.88000 2.713
49.90000 7.047
49.92000 3.951
49.94000 1.356
49.96000 0.967
49.98000 2.020
50.00000 4.210
50.02000 5.118
50.04000 2.656
50.06000 0.504
50.08000 0.435
50.10000 0.940
50.12000 3.317
50.14000 1.017
50.16000 2.359
50.18000 2.395
50.20000 4.751
50.22000 5.390
50.24000 -1.002
50.26000 1.457
50.28000 0.675
50.30000 -2.486
50.32000 0.041
50.34000 0.943
50.36000 4.213
50.38000 4.476
50.40000 3.940
50.42000 4.696
50.44000 2.162
50.46000 -0.830
50.48000 2.398
50.50000 2.264
50.52000 -2.481
50.54000 -0.680
50.56000 2.123
50.58000 1.585
50.60000 1.518
50.62000 0.865
50.64000 0.385
50.66000 -0.739
50.68000 -2.462
50.70000 -0.847
50.72000 0.229
50.74000 3.352
50.76000 3.408
50.78000 2.686
50.80000 4.242
50.82000 3.561
50.84000 4.022
50.86000 1.709
50.88000 -0.319
50.90000 0.635
50.92000 1.516
50.94000 1.781
50.96000 2.595
50.98000 2.818
51.00000 -0.793
51.02000 3.133
51.04000 2.577
51.06000 2.157
51.08000 1.546
51.10000 2.699
51.12000 5.872
51.14000 5.049
51.16000 4.659
51.18000 6.734
51.20000 6.830
51.22000 4.599
51.24000 4.259
51.26000 3.899
51.28000 5.388
51.30000 4.807
51.32000 4.625
51.34000 2.310
51.36000 7.060
51.38000 6.069
51.40000 3.149
51.42000 -0.387
51.44000 -2.438
51.46000 -0.776
51.48000 5.791
51.50000 7.288
51.52000 5.904
51.54000 4.357
51.56000 1.642
51.58000 2.644
51.60000 1.413
51.62000 -2.358
51.64000 -0.615
51.66000 2.120
51.68000 2.979
51.70000 4.295
51.72000 1.871
51.74000 -0.653
51.76000 0.271
51.78000 2.466
51.80000 5.257
51.82000 3.819
51.84000 2.410
51.86000 -0.364
51.88000 0.794
51.90000 5.277
51.92000 3.118
51.94000 0.200
51.96000 1.488
51.98000 2.646
52.00000 -0.809
52.02000 0.141
52.04000 3.959
52.06000 3.444
52.08000 6.495
52.10000 5.287
52.12000 3.762
52.14000 2.359
52.16000 2.587
52.18000 4.195
52.20000 4.276
52.22000 3.406
52.24000 1.582
52.26000 -0.111
52.28000 3.137
52.30000 1.750
52.32000 -0.662
52.34000 1.703
52.36000 0.486
52.38000 2.664
52.40000 1.895
52.42000 3.096
52.44000 -0.184
52.46000 -0.381
52.48000 1.413
52.50000 1.360
52.52000 3.218
52.54000 0.501
52.56000 1.622
52.58000 1.981
52.60000 2.666
52.62000 0.841
52.64000 2.093
52.66000 -1.240
52.68000 0.712
52.70000 1.499
52.72000 1.786
52.74000 2.221
52.76000 1.842
52.78000 0.231
52.80000 -2.431
52.82000 -0.906
52.84000 1.729
52.86000 3.490
52.88000 5.565
52.90000 3.040
52.92000 2.692
52.94000 6.887
52.96000 4.957
52.98000 3.078
53.00000 5.072
53.02000 4.302
53.04000 3.015
53.06000 -1.260
53.08000 1.315
53.10000 1.112
53.12000 2.973
53.14000 2.267
53.16000 0.183
53.18000 1.392
53.20000 2.293
53.22000 1.288
53.24000 0.038
53.26000 0.012
53.28000 -1.593
53.30000 0.501
53.32000 2.284
53.34000 1.343
53.36000 -2.434
53.38000 0.829
53.40000 3.522
53.42000 -0.633
53.44000 -1.059
53.46000 -0.413
53.48000 -2.433
53.50000 2.056
53.52000 0.647
53.54000 0.638
53.56000 2.018
53.58000 0.448
53.60000 -0.875
53.62000 0.129
53.64000 -1.217
53.66000 1.557
53.68000 2.915
53.70000 -0.652
53.72000 0.985
53.74000 0.663
53.76000 -1.370
53.78000 -2.211
53.80000 1.123
53.82000 4.033
53.84000 0.221
53.86000 -1.327
53.88000 -2.121
53.90000 -0.470
53.92000 -2.422
53.94000 -0.202
53.96000 2.187
53.98000 3.298
54.00000 -0.559
54.02000 2.684
54.04000 -0.701
54.06000 -1.258
54.08000 2.352
54.10000 1.235
54.12000 -0.627
54.14000 2.017
54.16000 1.142
54.18000 2.265
54.20000 1.094
54.22000 2.805
54.24000 1.829
54.26000 -1.323
54.28000 -0.806
54.30000 0.955
54.32000 4.317
54.34000 2.173
54.36000 4.572
54.38000 5.336
54.40000 0.493
54.42000 -1.801
54.44000 1.212
54.46000 0.934
54.48000 -2.400
54.50000 0.437
54.52000 -0.795
54.54000 -2.331
54.56000 2.537
54.58000 2.156
54.60000 0.999
54.62000 1.464
54.64000 1.757
54.66000 0.553
54.68000 0.180
54.70000 2.941
54.72000 3.092
54.74000 -0.053
54.76000 1.309
54.78000 0.047
54.80000 1.407
54.82000 1.250
54.84000 1.544
54.86000 0.573
54.88000 1.009
54.90000 4.366
54.92000 2.928
54.94000 0.027
54.96000 1.423
54.98000 1.179
55.00000 1.188
55.02000 2.376
55.04000 4.291
55.06000 2.722
55.08000 -0.757
55.10000 -0.243
55.12000 1.696
55.14000 3.068
55.16000 3.064
55.18000 0.402
55.20000 -2.352
55.22000 2.528
55.24000 1.529
55.26000 0.830
55.28000 0.072
55.30000 2.643
55.32000 0.474
55.34000 1.164
55.36000 4.524
55.38000 -0.630
55.40000 2.184
55.42000 4.173
55.44000 4.207
55.46000 3.342
55.48000 2.550
55.50000 1.963
55.52000 0.269
55.54000 3.878
55.56000 -1.229
55.58000 -0.430
55.60000 5.691
55.62000 1.205
55.64000 -0.322
55.66000 2.966
55.68000 2.267
55.70000 3.378
55.72000 2.925
55.74000 1.644
55.76000 1.250
55.78000 2.358
55.80000 0.055
55.82000 1.116
55.84000 2.926
55.86000 3.124
55.88000 2.540
55.90000 2.274
55.92000 -0.336
55.94000 0.800
55.96000 0.307
55.98000 -0.211
56.00000 1.389
56.02000 -0.371
56.04000 -1.179
56.06000 -1.482
56.08000 2.105
56.10000 -0.979
56.12000 1.235
56.14000 1.315
56.16000 0.995
56.18000 2.415
56.20000 3.447
56.22000 2.324
56.24000 3.791
56.26000 2.467
56.28000 4.847
56.30000 2.204
56.32000 0.530
56.34000 -1.499
56.36000 0.012
56.38000 -1.647
56.40000 -0.868
56.42000 3.169
56.44000 -0.891
56.46000 -0.664
56.48000 0.004
56.50000 -0.070
56.52000 -2.348
56.54000 1.129
56.56000 1.831
56.58000 2.344
56.60000 3.523
56.62000 6.177
56.64000 2.914
56.66000 0.228
56.68000 -0.357
56.70000 -1.063
56.72000 0.435
56.74000 0.435
56.76000 -0.596
56.78000 3.291
56.80000 -0.831
56.82000 0.854
56.84000 -0.826
56.86000 -0.465
56.88000 -0.737
56.90000 3.013
56.92000 0.995
56.94000 -0.493
56.96000 1.531
56.98000 2.411
57.00000 0.676
57.02000 -0.676
57.04000 1.248
57.06000 1.614
57.08000 3.733
57.10000 3.887
57.12000 0.596
57.14000 -1.160
57.16000 -1.382
57.18000 0.024
57.20000 0.598
57.22000 0.411
57.24000 0.617
57.26000 -1.752
57.28000 -0.709
57.30000 0.477
57.32000 1.331
57.34000 -0.619
57.36000 -0.122
57.38000 0.858
57.40000 4.634
57.42000 4.754
57.44000 4.199
57.46000 2.795
57.48000 1.822
57.50000 0.795
57.52000 1.654
57.54000 2.913
57.56000 0.372
57.58000 1.751
57.60000 2.740
57.62000 1.352
57.64000 1.567
57.66000 2.281
57.68000 0.905
57.70000 2.467
57.72000 2.060
57.74000 1.087
57.76000 0.742
57.78000 1.302
57.80000 1.097
57.82000 3.830
57.84000 5.087
57.86000 2.701
57.88000 0.176
57.90000 3.414
57.92000 5.541
57.94000 2.657
57.96000 2.668
57.98000 1.946
58.00000 3.416
58.02000 3.660
58.04000 -1.016
58.06000 -2.276
58.08000 3.251
58.10000 3.048
58.12000 3.567
58.14000 6.614
58.16000 7.601
58.18000 3.221
58.20000 2.234
58.22000 7.665
58.24000 4.102
58.26000 4.163
58.28000 5.477
58.30000 2.456
58.32000 4.197
58.34000 2.584
58.36000 1.732
58.38000 3.562
58.40000 2.182
58.42000 0.833
58.44000 1.560
58.46000 3.052
58.48000 4.161
58.50000 3.575
58.52000 3.299
58.54000 0.649
58.56000 2.887
58.58000 1.963
58.60000 0.017
58.62000 1.705
58.64000 0.998
58.66000 0.043
58.68000 0.213
58.70000 0.117
58.72000 2.216
58.74000 2.057
58.76000 2.335
58.78000 2.785
58.80000 0.877
58.82000 1.391
58.84000 2.138
58.86000 2.219
58.88000 3.724
58.90000 -0.202
58.92000 2.378
58.94000 4.751
58.96000 2.902
58.98000 2.954
59.00000 2.282
59.02000 2.547
59.04000 4.073
59.06000 2.785
59.08000 0.553
59.10000 0.677
59.12000 3.687
59.14000 0.611
59.16000 1.090
59.18000 -1.544
59.20000 2.684
59.22000 0.662
59.24000 -2.263
59.26000 4.121
59.28000 6.556
59.30000 3.614
59.32000 -1.348
59.34000 0.681
59.36000 1.572
59.38000 0.282
59.40000 0.298
59.42000 -2.026
59.44000 -2.256
59.46000 -0.415
59.48000 2.029
59.50000 0.624
59.52000 1.135
59.54000 2.346
59.56000 2.675
59.58000 0.547
59.60000 3.116
59.62000 2.851
59.64000 2.945
59.66000 3.878
59.68000 3.406
59.70000 -0.043
59.72000 1.463
59.74000 2.855
59.76000 0.937
59.78000 1.022
59.80000 2.387
59.82000 3.164
59.84000 0.703
59.86000 1.216
59.88000 -1.199
59.90000 1.530
59.92000 2.694
59.94000 2.437
59.96000 2.401
59.98000 4.259
60.00000 0.212
60.02000 0.941
60.04000 2.542
60.06000 3.674
60.08000 3.329
60.10000 0.060
60.12000 0.183
60.14000 1.430
60.16000 0.214
60.18000 -0.182
60.20000 1.324
60.22000 -0.891
60.24000 -1.880
60.26000 2.188
60.28000 6.571
60.30000 3.195
60.32000 -2.226
60.34000 1.077
60.36000 0.611
60.38000 -0.133
60.40000 1.389
60.42000 5.118
60.44000 3.005
60.46000 2.737
60.48000 3.103
60.50000 5.265
60.52000 5.769
60.54000 4.453
60.56000 1.396
60.58000 1.511
60.60000 2.838
60.62000 0.533
60.64000 -0.119
60.66000 2.017
60.68000 3.646
60.70000 2.545
60.72000 3.197
60.74000 3.422
60.76000 3.938
60.78000 4.350
60.80000 2.437
60.82000 1.119
60.84000 1.548
60.86000 0.800
60.88000 0.592
60.90000 -1.292
60.92000 0.228
60.94000 3.139
60.96000 3.167
60.98000 2.148
61.00000 -1.108
61.02000 1.698
61.04000 2.851
61.06000 3.134
61.08000 2.341
61.10000 0.136
61.12000 -1.340
61.14000 2.227
61.16000 1.606
61.18000 2.373
61.20000 2.224
61.22000 2.827
61.24000 5.434
61.26000 3.807
61.28000 1.847
61.30000 2.546
61.32000 3.013
61.34000 1.884
61.36000 2.850
61.38000 3.094
61.40000 0.660
61.42000 -2.174
61.44000 2.576
61.46000 4.146
61.48000 2.744
61.50000 3.412
61.52000 4.283
61.54000 1.609
61.56000 0.452
61.58000 3.564
61.60000 2.013
61.62000 1.860
61.64000 2.921
61.66000 0.398
61.68000 1.957
61.70000 2.284
61.72000 1.740
61.74000 2.800
61.76000 4.254
61.78000 2.323
61.80000 1.132
61.82000 1.984
61.84000 0.001
61.86000 2.275
61.88000 3.930
61.90000 0.956
61.92000 -1.065
61.94000 -2.190
61.96000 1.381
61.98000 4.012
62.00000 7.395
62.02000 7.731
62.04000 0.604
62.06000 -0.737
62.08000 -0.642
62.10000 0.327
62.12000 0.164
62.14000 2.104
62.16000 2.622
62.18000 3.100
62.20000 1.736
62.22000 -0.680
62.24000 2.739
62.26000 2.311
62.28000 -0.437
62.30000 -0.279
62.32000 0.494
62.34000 -0.992
62.36000 0.463
62.38000 0.267
62.40000 -1.540
62.42000 -0.840
62.44000 -0.240
62.46000 -2.198
62.48000 -1.905
62.50000 -1.151
62.52000 0.865
62.54000 1.768
62.56000 0.615
62.58000 0.592
62.60000 0.877
62.62000 -0.007
62.64000 2.043
62.66000 0.156
62.68000 -0.137
62.70000 0.691
62.72000 0.801
62.74000 0.849
62.76000 0.326
62.78000 0.884
62.80000 -0.837
62.82000 -0.746
62.84000 0.189
62.86000 0.152
62.88000 0.176
62.90000 -1.425
62.92000 0.204
62.94000 2.168
62.96000 0.132
62.98000 -1.563
63.00000 -1.609
63.02000 2.431
63.04000 0.950
63.06000 0.886
63.08000 2.605
63.10000 1.874
63.12000 -2.187
63.14000 -0.806
63.16000 0.367
63.18000 -1.589
63.20000 -0.520
63.22000 0.760
63.24000 1.596
63.26000 -0.373
63.28000 -0.327
63.30000 0.337
63.32000 1.081
63.34000 2.169
63.36000 1.247
63.38000 0.529
63.40000 -2.190
63.42000 0.108
63.44000 1.118
63.46000 -0.286
63.48000 -1.189
63.50000 -1.948
63.52000 3.361
63.54000 2.963
63.56000 -0.369
63.58000 0.001
63.60000 0.354
63.62000 0.511
63.64000 1.933
63.66000 2.156
63.68000 0.199
63.70000 -0.302
63.72000 2.890
63.74000 0.510
63.76000 0.590
63.78000 0.798
63.80000 1.068
63.82000 4.444
63.84000 2.743
63.86000 1.425
63.88000 0.246
63.90000 0.916
63.92000 2.076
63.94000 2.170
63.96000 1.904
63.98000 1.868
64.00000 2.065
64.02000 0.567
64.04000 -0.237
64.06000 1.650
64.08000 0.198
64.10000 0.730
64.12000 4.280
64.14000 1.980
64.16000 -0.278
64.18000 -2.181
64.20000 1.912
64.22000 2.722
64.24000 1.309
64.26000 0.346
64.28000 1.356
64.30000 2.070
64.32000 0.501
64.34000 -1.367
64.36000 -0.934
64.38000 -0.484
64.40000 1.366
64.42000 0.589
64.44000 0.249
64.46000 0.390
64.48000 -0.862
64.50000 -0.990
64.52000 1.074
64.54000 2.399
64.56000 3.132
64.58000 1.971
64.60000 2.646
64.62000 0.029
64.64000 -1.397
64.66000 -0.652
64.68000 1.169
64.70000 0.474
64.72000 -2.171
64.74000 -1.258
64.76000 1.497
64.78000 0.148
64.80000 2.182
64.82000 1.720
64.84000 2.436
64.86000 2.106
64.88000 1.491
64.90000 2.917
64.92000 -1.439
64.94000 0.530
64.96000 -0.087
64.98000 -0.062
65.00000 -0.536
65.02000 -1.716
65.04000 -0.876
65.06000 0.723
65.08000 1.513
65.10000 0.489
65.12000 1.940
65.14000 4.932
65.16000 0.247
65.18000 -2.160
65.20000 -1.918
65.22000 0.685
65.24000 2.411
65.26000 1.996
65.28000 2.830
65.30000 -0.243
65.32000 1.189
65.34000 1.338
65.36000 -0.245
65.38000 0.598
65.40000 1.936
65.42000 2.398
65.44000 1.871
65.46000 2.767
65.48000 2.890
65.50000 1.469
65.52000 0.428
65.54000 -0.806
65.56000 0.276
65.58000 2.063
65.60000 -0.228
65.62000 -2.180
65.64000 -0.602
65.66000 0.691
65.68000 3.483
65.70000 -0.155
65.72000 -2.183
65.74000 -1.513
65.76000 -1.567
65.78000 -1.201
65.80000 1.700
65.82000 2.646
65.84000 3.966
65.86000 1.815
65.88000 1.866
65.90000 1.672
65.92000 2.521
65.94000 2.758
65.96000 1.565
65.98000 -0.913
66.00000 -0.987
66.02000 -0.365
66.04000 -0.110
66.06000 1.405
66.08000 0.218
66.10000 0.279
66.12000 1.353
66.14000 -0.310
66.16000 0.054
66.18000 -0.354
66.20000 1.824
66.22000 0.078
66.24000 1.768
66.26000 1.219
66.28000 1.695
66.30000 3.011
66.32000 2.622
66.34000 3.135
66.36000 2.342
66.38000 3.389
66.40000 5.180
66.42000 6.928
66.44000 3.867
66.46000 2.347
66.48000 3.448
66.50000 2.420
66.52000 1.221
66.54000 3.855
66.56000 5.766
66.58000 2.535
66.60000 5.092
66.62000 4.773
66.64000 4.961
66.66000 6.185
66.68000 6.898
66.70000 6.132
66.72000 2.569
66.74000 4.477
66.76000 6.136
66.78000 7.002
66.80000 7.521
66.82000 5.902
66.84000 10.592
66.86000 7.053
66.88000 5.968
66.90000 7.295
66.92000 6.033
66.94000 5.993
66.96000 8.485
66.98000 10.140
67.00000 8.742
67.02000 9.900
67.04000 11.225
67.06000 9.075
67.08000 8.672
67.10000 11.267
67.12000 9.992
67.14000 7.247
67.16000 8.303
67.18000 10.677
67.20000 10.343
67.22000 8.653
67.24000 10.133
67.26000 8.855
67.28000 7.971
67.30000 9.661
67.32000 10.426
67.34000 11.396
67.36000 10.723
67.38000 8.350
67.40000 8.155
67.42000 7.280
67.44000 4.915
67.46000 6.285
67.48000 6.863
67.50000 7.036
67.52000 7.228
67.54000 5.047
67.56000 5.910
67.58000 7.306
67.60000 7.978
67.62000 8.174
67.64000 6.196
67.66000 2.162
67.68000 2.085
67.70000 2.838
67.72000 1.285
67.74000 -0.331
67.76000 2.295
67.78000 1.721
67.80000 1.192
67.82000 4.000
67.84000 2.723
67.86000 2.938
67.88000 1.461
67.90000 1.082
67.92000 1.241
67.94000 1.648
67.96000 1.211
67.98000 -0.028
68.00000 3.737
68.02000 2.302
68.04000 -1.110
68.06000 -0.806
68.08000 1.059
68.10000 1.311
68.12000 1.363
68.14000 0.660
68.16000 -2.067
68.18000 -1.867
68.20000 0.161
68.22000 1.461
68.24000 0.859
68.26000 1.202
68.28000 -1.350
68.30000 -1.228
68.32000 -0.100
68.34000 3.068
68.36000 1.090
68.38000 0.203
68.40000 -1.927
68.42000 -2.081
68.44000 -1.632
68.46000 -1.628
68.48000 0.117
68.50000 3.395
68.52000 0.722
68.54000 -0.846
68.56000 1.017
68.58000 0.084
68.60000 -0.762
68.62000 1.775
68.64000 2.577
68.66000 0.377
68.68000 -0.010
68.70000 0.475
68.72000 0.863
68.74000 2.061
68.76000 -0.451
68.78000 -0.963
68.80000 -2.018
68.82000 -1.685
68.84000 1.736
68.86000 0.973
68.88000 -0.962
68.90000 -1.403
68.92000 -2.051
68.94000 0.714
68.96000 1.645
68.98000 0.849
69.00000 1.720
69.02000 0.843
69.04000 0.008
69.06000 -0.446
69.08000 -0.517
69.10000 -1.132
69.12000 -1.013
69.14000 -0.317
69.16000 -0.456
69.18000 3.505
69.20000 3.207
69.22000 0.474
69.24000 1.980
69.26000 1.628
69.28000 1.071
69.30000 1.499
69.32000 1.512
69.34000 0.214
69.36000 0.460
69.38000 0.139
69.40000 -0.622
69.42000 -2.022
69.44000 -1.893
69.46000 -0.071
69.48000 -1.489
69.50000 0.021
69.52000 -1.187
69.54000 -2.023
69.56000 0.972
69.58000 1.572
69.60000 1.032
69.62000 2.491
69.64000 0.240
69.66000 0.171
69.68000 0.050
69.70000 -1.713
69.72000 1.217
69.74000 1.775
69.76000 -1.354
69.78000 -0.470
69.80000 1.687
69.82000 1.923
69.84000 1.584
69.86000 0.755
69.88000 1.045
69.90000 -0.594
69.92000 -0.747
69.94000 -1.661
69.96000 0.025
69.98000 -1.286
70.00000 -1.838
70.02000 0.018
70.04000 1.487
70.06000 -0.191
70.08000 -0.009
70.10000 -0.724
70.12000 -0.154
70.14000 1.640
70.16000 2.564
70.18000 1.471
70.20000 -0.219
70.22000 -0.552
70.24000 -0.852
70.26000 -0.129
70.28000 -1.460
70.30000 0.106
70.32000 0.597
70.34000 0.640
70.36000 -0.737
70.38000 1.248
70.40000 0.177
70.42000 0.973
70.44000 1.092
70.46000 -0.731
70.48000 -1.994
70.50000 0.625
70.52000 -1.189
70.54000 -1.764
70.56000 -0.887
70.58000 0.689
70.60000 1.832
70.62000 2.167
70.64000 3.810
70.66000 1.827
70.68000 0.562
70.70000 1.100
70.72000 0.086
70.74000 -1.240
70.76000 -1.981
70.78000 -0.268
70.80000 0.759
70.82000 1.775
70.84000 2.810
70.86000 1.475
70.88000 -0.856
70.90000 0.766
70.92000 0.970
70.94000 -1.182
70.96000 0.947
70.98000 1.464
71.00000 -0.417
71.02000 0.133
71.04000 3.850
71.06000 1.555
71.08000 0.372
71.10000 -0.120
71.12000 -0.107
71.14000 1.084
71.16000 -0.366
71.18000 2.275
71.20000 3.981
71.22000 5.585
71.24000 4.323
71.26000 -1.943
71.28000 1.434
71.30000 4.525
71.32000 3.119
71.34000 2.280
71.36000 1.506
71.38000 2.719
71.40000 2.321
71.42000 1.518
71.44000 1.516
71.46000 2.827
71.48000 1.193
71.50000 1.893
71.52000 1.938
71.54000 2.003
71.56000 0.342
71.58000 0.904
71.60000 1.817
71.62000 0.758
71.64000 0.932
71.66000 2.178
71.68000 -0.061
71.70000 2.450
71.72000 3.271
71.74000 -0.523
71.76000 -1.321
71.78000 1.107
71.80000 3.049
71.82000 0.384
71.84000 0.316
71.86000 1.521
71.88000 2.179
71.90000 3.990
71.92000 -0.553
71.94000 0.199
71.96000 -0.034
71.98000 -1.260
72.00000 0.114
72.02000 -1.903
72.04000 0.704
72.06000 1.529
72.08000 0.781
72.10000 -0.592
72.12000 1.328
72.14000 2.242
72.16000 2.278
72.18000 1.440
72.20000 2.114
72.22000 4.233
72.24000 2.669
72.26000 0.997
72.28000 2.177
72.30000 0.681
72.32000 1.358
72.34000 0.692
72.36000 1.381
72.38000 1.532
72.40000 1.938
72.42000 2.905
72.44000 1.966
72.46000 -1.119
72.48000 -1.910
72.50000 -1.583
72.52000 0.826
72.54000 2.266
72.56000 1.728
72.58000 0.683
72.60000 0.137
72.62000 -0.847
72.64000 0.503
72.66000 1.926
72.68000 1.166
72.70000 0.900
72.72000 1.591
72.74000 1.856
72.76000 0.996
72.78000 -0.715
72.80000 0.173
72.82000 1.606
72.84000 1.364
72.86000 1.723
72.88000 3.811
72.90000 4.270
72.92000 2.619
72.94000 1.679
72.96000 1.737
72.98000 1.129
73.00000 -0.182
73.02000 0.150
73.04000 1.508
73.06000 0.345
73.08000 -0.362
73.10000 1.606
73.12000 1.274
73.14000 1.668
73.16000 -0.331
73.18000 1.302
73.20000 3.544
73.22000 1.088
73.24000 0.149
73.26000 0.062
73.28000 1.765
73.30000 2.127
73.32000 2.730
73.34000 -0.821
73.36000 1.334
73.38000 0.238
73.40000 -0.101
73.42000 1.198
73.44000 1.038
73.46000 -1.885
73.48000 -0.570
73.50000 0.091
73.52000 1.064
73.54000 3.806
73.56000 2.594
73.58000 2.983
73.60000 2.080
73.62000 2.022
73.64000 1.441
73.66000 -1.300
73.68000 -1.874
73.70000 1.328
73.72000 3.915
73.74000 0.208
73.76000 -0.673
73.78000 -0.768
73.80000 -1.847
73.82000 -1.267
73.84000 1.099
73.86000 1.308
73.88000 2.176
73.90000 2.172
73.92000 -0.563
73.94000 1.405
73.96000 3.484
73.98000 3.736
74.00000 1.091
74.02000 -0.474
74.04000 1.387
74.06000 -0.871
74.08000 1.293
74.10000 2.363
74.12000 1.247
74.14000 -1.000
74.16000 0.858
74.18000 0.069
74.20000 0.514
74.22000 -0.231
74.24000 0.140
74.26000 0.873
74.28000 -1.611
74.30000 -0.034
74.32000 2.643
74.34000 3.736
74.36000 1.941
74.38000 1.269
74.40000 1.177
74.42000 1.977
74.44000 1.565
74.46000 3.198
74.48000 1.317
74.50000 -1.873
74.52000 -1.680
74.54000 0.233
74.56000 1.333
74.58000 -0.072
74.60000 -0.311
74.62000 2.449
74.64000 1.847
74.66000 1.825
74.68000 2.164
74.70000 2.859
74.72000 3.712
74.74000 -0.139
74.76000 -0.784
74.78000 1.157
74.80000 -0.339
74.82000 0.527
74.84000 0.738
74.86000 1.470
74.88000 1.469
74.90000 0.824
74.92000 -1.305
74.94000 2.039
74.96000 3.189
74.98000 3.818
75.00000 2.268
75.02000 1.216
75.04000 1.853
75.06000 1.256
75.08000 1.462
75.10000 1.087
75.12000 2.113
75.14000 2.000
75.16000 1.346
75.18000 2.849
75.20000 3.112
75.22000 2.404
75.24000 0.973
75.26000 4.194
75.28000 2.072
75.30000 3.517
75.32000 2.756
75.34000 -1.558
75.36000 -1.858
75.38000 -0.401
75.40000 3.047
75.42000 0.854
75.44000 1.363
75.46000 2.451
75.48000 1.029
75.50000 1.593
75.52000 1.087
75.54000 1.718
75.56000 2.456
75.58000 3.309
75.60000 1.145
75.62000 -0.665
75.64000 -1.261
75.66000 0.199
75.68000 0.402
75.70000 -0.423
75.72000 1.227
75.74000 4.142
75.76000 2.210
75.78000 0.031
75.80000 -1.033
75.82000 2.172
75.84000 3.533
75.86000 0.686
75.88000 2.612
75.90000 3.876
75.92000 5.928
75.94000 7.189
75.96000 4.288
75.98000 0.398
76.00000 1.103
76.02000 2.984
76.04000 2.480
76.06000 -0.284
76.08000 -1.898
76.10000 1.615
76.12000 1.958
76.14000 0.114
76.16000 -0.034
76.18000 -1.639
76.20000 -1.635
76.22000 4.309
76.24000 6.197
76.26000 4.870
76.28000 2.819
76.30000 4.051
76.32000 2.527
76.34000 -1.100
76.36000 -1.394
76.38000 -1.904
76.40000 1.956
76.42000 2.327
76.44000 2.630
76.46000 5.600
76.48000 5.613
76.50000 2.256
76.52000 -0.905
76.54000 -0.993
76.56000 0.439
76.58000 1.292
76.60000 3.163
76.62000 5.559
76.64000 2.574
76.66000 2.158
76.68000 0.118
76.70000 0.921
76.72000 0.495
76.74000 3.090
76.76000 3.538
76.78000 0.324
76.80000 -0.820
76.82000 3.917
76.84000 1.951
76.86000 3.475
76.88000 2.937
76.90000 -0.665
76.92000 -0.169
76.94000 2.099
76.96000 2.246
76.98000 3.453
77.00000 5.948
77.02000 3.651
77.04000 2.107
77.06000 -0.271
77.08000 1.631
77.10000 2.058
77.12000 5.378
77.14000 2.324
77.16000 -1.881
77.18000 -0.600
77.20000 2.028
77.22000 3.217
77.24000 3.423
77.26000 2.163
77.28000 4.605
77.30000 3.753
77.32000 2.577
77.34000 -0.001
77.36000 1.968
77.38000 4.083
77.40000 4.535
77.42000 2.553
77.44000 1.639
77.46000 5.669
77.48000 3.948
77.50000 3.460
77.52000 2.191
77.54000 0.802
77.56000 1.263
77.58000 2.125
77.60000 0.808
77.62000 3.482
77.64000 5.138
77.66000 5.544
77.68000 5.069
77.70000 5.469
77.72000 3.406
77.74000 3.090
77.76000 4.372
77.78000 0.566
77.80000 -0.776
77.82000 -1.621
77.84000 -1.875
77.86000 3.482
77.88000 6.284
77.90000 5.431
77.92000 5.475
77.94000 4.317
77.96000 3.998
77.98000 3.795
78.00000 3.188
78.02000 0.691
78.04000 2.440
78.06000 3.360
78.08000 2.094
78.10000 4.830
78.12000 3.976
78.14000 4.429
78.16000 2.595
78.18000 2.431
78.20000 2.098
78.22000 5.678
78.24000 1.211
78.26000 2.403
78.28000 0.063
78.30000 0.327
78.32000 -0.236
78.34000 2.649
78.36000 3.027
78.38000 3.703
78.40000 3.339
78.42000 -0.246
78.44000 -0.764
78.46000 -1.671
78.48000 -0.293
78.50000 0.224
78.52000 0.748
78.54000 0.232
78.56000 0.871
78.58000 1.307
78.60000 3.401
78.62000 1.187
78.64000 0.391
78.66000 1.575
78.68000 2.412
78.70000 0.593
78.72000 1.276
78.74000 1.175
78.76000 1.179
78.78000 0.628
78.80000 -0.149
78.82000 1.587
78.84000 -0.801
78.86000 2.036
78.88000 1.291
78.90000 0.594
78.92000 -0.765
78.94000 -1.165
78.96000 1.807
78.98000 0.814
79.00000 2.266
79.02000 0.230
79.04000 0.596
79.06000 2.155
79.08000 1.445
79.10000 2.636
79.12000 -1.975
79.14000 -2.002
79.16000 -0.791
79.18000 0.864
79.20000 3.137
79.22000 3.077
79.24000 1.784
79.26000 0.871
79.28000 0.185
79.30000 1.066
79.32000 -0.170
79.34000 0.873
79.36000 1.092
79.38000 0.889
79.40000 -0.435
79.42000 0.250
79.44000 1.679
79.46000 1.873
79.48000 2.787
79.50000 3.412
79.52000 3.491
79.54000 1.328
79.56000 3.675
79.58000 5.236
79.60000 4.734
79.62000 2.344
79.64000 4.126
79.66000 3.840
79.68000 2.283
79.70000 2.017
79.72000 1.033
79.74000 0.499
79.76000 3.759
79.78000 3.857
79.80000 2.886
79.82000 3.689
79.84000 4.425
79.86000 5.900
79.88000 5.266
79.90000 -0.600
79.92000 -0.633
79.94000 7.428
79.96000 4.678
79.98000 3.416
80.00000 5.012
80.02000 3.013
80.04000 4.584
80.06000 5.454
80.08000 8.945
80.10000 8.157
80.12000 5.831
80.14000 8.940
80.16000 11.106
80.18000 8.301
80.20000 7.127
80.22000 8.587
80.24000 7.838
80.26000 8.618
80.28000 12.364
80.30000 9.949
80.32000 13.519
80.34000 9.512
80.36000 10.237
80.38000 11.315
80.40000 12.449
80.42000 13.102
80.44000 11.606
80.46000 12.334
80.48000 13.677
80.50000 10.193
80.52000 9.068
80.54000 10.185
80.56000 12.277
80.58000 15.169
80.60000 16.037
80.62000 13.958
80.64000 16.957
80.66000 14.024
80.68000 12.817
80.70000 14.117
80.72000 13.116
80.74000 14.431
80.76000 16.407
80.78000 15.827
80.80000 19.261
80.82000 17.778
80.84000 17.058
80.86000 17.243
80.88000 18.188
80.90000 18.204
80.92000 17.906
80.94000 19.204
80.96000 17.669
80.98000 14.575
81.00000 13.674
81.02000 14.593
81.04000 17.496
81.06000 19.362
81.08000 16.485
81.10000 17.833
81.12000 16.454
81.14000 17.127
81.16000 15.650
81.18000 15.234
81.20000 12.721
81.22000 13.641
81.24000 16.746
81.26000 19.656
81.28000 15.423
81.30000 12.350
81.32000 13.774
81.34000 17.111
81.36000 17.573
81.38000 18.890
81.40000 15.755
81.42000 12.215
81.44000 10.522
81.46000 11.362
81.48000 10.698
81.50000 12.669
81.52000 11.932
81.54000 11.045
81.56000 11.312
81.58000 9.859
81.60000 7.874
81.62000 5.516
81.64000 7.251
81.66000 4.886
81.68000 6.451
81.70000 9.619
81.72000 12.707
81.74000 10.081
81.76000 7.333
81.78000 5.040
81.80000 4.911
81.82000 6.876
81.84000 3.283
81.86000 4.982
81.88000 4.195
81.90000 4.358
81.92000 4.342
81.94000 6.427
81.96000 6.784
81.98000 6.380
82.00000 5.255
82.02000 3.672
82.04000 5.371
82.06000 1.502
82.08000 0.430
82.10000 3.509
82.12000 5.759
82.14000 5.258
82.16000 4.254
82.18000 4.204
82.20000 2.425
82.22000 1.805
82.24000 -1.043
82.26000 -2.096
82.28000 -0.435
82.30000 3.093
82.32000 4.022
82.34000 3.556
82.36000 2.867
82.38000 0.836
82.40000 0.407
82.42000 0.760
82.44000 -0.282
82.46000 -1.903
82.48000 -0.490
82.50000 -2.077
82.52000 2.066
82.54000 2.924
82.56000 -1.565
82.58000 -0.235
82.60000 -2.072
82.62000 -0.055
82.64000 -0.240
82.66000 0.931
82.68000 0.864
82.70000 0.352
82.72000 0.208
82.74000 2.519
82.76000 0.640
82.78000 2.204
82.80000 -0.488
82.82000 -0.217
82.84000 -1.415
82.86000 -0.791
82.88000 -1.187
82.90000 1.207
82.92000 3.133
82.94000 1.402
82.96000 1.137
82.98000 1.866
83.00000 -0.083
83.02000 0.725
83.04000 -0.616
83.06000 -2.047
83.08000 -1.294
83.10000 0.577
83.12000 1.344
83.14000 1.343
83.16000 -0.181
83.18000 -1.521
83.20000 0.947
83.22000 1.253
83.24000 0.893
83.26000 0.914
83.28000 1.108
83.30000 -0.199
83.32000 2.647
83.34000 2.649
83.36000 0.822
83.38000 1.271
83.40000 0.446
83.42000 1.246
83.44000 2.170
83.46000 2.460
83.48000 0.948
83.50000 1.701
83.52000 1.897
83.54000 1.817
83.56000 -0.441
83.58000 -0.028
83.60000 0.898
83.62000 -0.134
83.64000 1.018
83.66000 2.261
83.68000 0.680
83.70000 1.421
83.72000 0.656
83.74000 4.764
83.76000 1.838
83.78000 2.848
83.80000 2.105
83.82000 2.983
83.84000 5.734
83.86000 7.209
83.88000 3.873
83.90000 6.362
83.92000 6.839
83.94000 8.048
83.96000 8.039
83.98000 10.119
84.00000 8.596
84.02000 4.753
84.04000 4.650
84.06000 3.739
84.08000 5.487
84.10000 5.472
84.12000 5.350
84.14000 6.501
84.16000 6.136
84.18000 6.936
84.20000 6.932
84.22000 7.026
84.24000 6.606
84.26000 6.599
84.28000 7.371
84.30000 8.685
84.32000 9.804
84.34000 12.038
84.36000 12.418
84.38000 12.514
84.40000 14.085
84.42000 16.503
84.44000 11.857
84.46000 11.646
84.48000 12.894
84.50000 14.760
84.52000 17.224
84.54000 20.078
84.56000 17.804
84.58000 16.429
84.60000 13.516
84.62000 14.916
84.64000 17.840
84.66000 19.216
84.68000 17.337
84.70000 18.607
84.72000 21.508
84.74000 23.555
84.76000 20.202
84.78000 18.657
84.80000 21.300
84.82000 20.002
84.84000 16.965
84.86000 14.361
84.88000 16.654
84.90000 19.856
84.92000 20.517
84.94000 19.331
84.96000 19.041
84.98000 19.902
85.00000 17.824
85.02000 17.195
85.04000 16.911
85.06000 16.199
85.08000 19.833
85.10000 22.099
85.12000 18.170
85.14000 16.973
85.16000 18.476
85.18000 15.846
85.20000 14.641
85.22000 13.492
85.24000 11.210
85.26000 13.184
85.28000 12.675
85.30000 12.927
85.32000 12.531
85.34000 15.051
85.36000 13.651
85.38000 12.063
85.40000 13.175
85.42000 11.281
85.44000 7.608
85.46000 8.831
85.48000 7.741
85.50000 5.305
85.52000 8.156
85.54000 7.323
85.56000 4.779
85.58000 4.618
85.60000 3.832
85.62000 6.890
85.64000 6.613
85.66000 7.121
85.68000 5.399
85.70000 5.035
85.72000 3.255
85.74000 5.346
85.76000 1.177
85.78000 2.444
85.80000 4.454
85.82000 4.238
85.84000 1.455
85.86000 -0.055
85.88000 0.582
85.90000 3.010
85.92000 3.308
85.94000 3.334
85.96000 2.255
85.98000 2.961
86.00000 1.441
86.02000 -0.805
86.04000 -1.922
86.06000 0.293
86.08000 1.773
86.10000 2.807
86.12000 1.806
86.14000 1.166
86.16000 1.022
86.18000 0.905
86.20000 2.593
86.22000 -0.163
86.24000 0.329
86.26000 1.087
86.28000 2.352
86.30000 -0.335
86.32000 -0.085
86.34000 3.162
86.36000 2.663
86.38000 2.380
86.40000 1.108
86.42000 1.414
86.44000 0.623
86.46000 1.060
86.48000 1.612
86.50000 3.773
86.52000 2.131
86.54000 -0.861
86.56000 -1.103
86.58000 -1.842
86.60000 -0.825
86.62000 -0.911
86.64000 1.384
86.66000 4.396
86.68000 0.027
86.70000 -1.829
86.72000 0.644
86.74000 1.198
86.76000 1.396
86.78000 2.369
86.80000 3.363
86.82000 2.682
86.84000 1.591
86.86000 0.345
86.88000 0.403
86.90000 0.262
86.92000 2.636
86.94000 1.199
86.96000 1.695
86.98000 1.795
87.00000 1.456
87.02000 2.772
87.04000 3.057
87.06000 1.741
87.08000 0.976
87.10000 2.089
87.12000 2.212
87.14000 1.600
87.16000 2.083
87.18000 -1.785
87.20000 2.059
87.22000 -1.279
87.24000 -1.429
87.26000 2.497
87.28000 3.738
87.30000 1.290
87.32000 2.216
87.34000 2.910
87.36000 0.840
87.38000 1.041
87.40000 1.844
87.42000 1.481
87.44000 2.167
87.46000 1.519
87.48000 0.120
87.50000 1.361
87.52000 0.773
87.54000 -0.029
87.56000 0.871
87.58000 -0.811
87.60000 1.132
87.62000 1.744
87.64000 -0.158
87.66000 0.832
87.68000 1.600
87.70000 3.707
87.72000 4.630
87.74000 2.644
87.76000 2.941
87.78000 4.918
87.80000 2.838
87.82000 2.318
87.84000 4.449
87.86000 4.895
87.88000 2.446
87.90000 2.319
87.92000 -0.093
87.94000 1.855
87.96000 2.122
87.98000 -1.759
88.00000 1.036
88.02000 1.187
88.04000 0.342
88.06000 4.016
88.08000 2.475
88.10000 4.235
88.12000 4.407
88.14000 1.366
88.16000 -0.320
88.18000 0.261
88.20000 0.304
88.22000 1.064
88.24000 -1.753
88.26000 -0.917
88.28000 1.010
88.30000 4.407
88.32000 2.460
88.34000 0.045
88.36000 0.959
88.38000 2.889
88.40000 4.340
88.42000 0.610
88.44000 2.213
88.46000 5.140
88.48000 4.037
88.50000 1.238
88.52000 1.102
88.54000 1.191
88.56000 2.054
88.58000 1.634
88.60000 5.797
88.62000 0.427
88.64000 2.900
88.66000 1.470
88.68000 3.673
88.70000 4.088
88.72000 6.647
88.74000 5.734
88.76000 3.235
88.78000 2.743
88.80000 0.666
88.82000 -0.142
88.84000 0.877
88.86000 -1.142
88.88000 -0.254
88.90000 3.238
88.92000 2.682
88.94000 1.812
88.96000 1.680
88.98000 1.742
89.00000 1.573
89.02000 2.924
89.04000 1.947
89.06000 1.378
89.08000 -0.053
89.10000 -1.485
89.12000 -1.747
89.14000 0.761
89.16000 4.249
89.18000 1.698
89.20000 0.102
89.22000 1.079
89.24000 3.371
89.26000 1.901
89.28000 2.163
89.30000 1.115
89.32000 0.617
89.34000 0.590
89.36000 0.215
89.38000 -0.246
89.40000 -0.860
89.42000 1.904
89.44000 3.723
89.46000 3.198
89.48000 1.789
89.50000 0.513
89.52000 0.660
89.54000 2.316
89.56000 2.045
89.58000 3.467
89.60000 0.802
89.62000 -1.736
89.64000 0.031
89.66000 0.822
89.68000 -0.025
89.70000 1.897
89.72000 4.749
89.74000 3.546
89.76000 1.723
89.78000 0.292
89.80000 2.940
89.82000 0.771
89.84000 -1.728
89.86000 2.130
89.88000 4.051
89.90000 2.848
89.92000 1.557
89.94000 2.284
89.96000 2.103
89.98000 1.286
90.00000 1.687
90.02000 1.671
90.04000 0.935
90.06000 1.799
90.08000 4.599
90.10000 2.555
90.12000 2.193
90.14000 2.469
90.16000 -0.624
90.18000 3.138
90.20000 4.079
90.22000 2.459
90.24000 3.702
90.26000 2.028
90.28000 4.057
90.30000 1.537
90.32000 -0.578
90.34000 1.365
90.36000 1.054
90.38000 3.286
90.40000 3.325
90.42000 2.004
90.44000 0.760
90.46000 1.669
90.48000 2.651
90.50000 4.663
90.52000 4.065
90.54000 0.666
90.56000 -1.741
90.58000 0.402
90.60000 1.427
90.62000 0.048
90.64000 0.854
90.66000 3.529
90.68000 1.794
90.70000 2.402
90.72000 4.365
90.74000 7.497
90.76000 4.770
90.78000 1.001
90.80000 1.996
90.82000 1.756
90.84000 0.390
90.86000 1.065
90.88000 2.201
90.90000 0.515
90.92000 0.780
90.94000 0.869
90.96000 1.766
90.98000 3.668
91.00000 2.207
91.02000 1.458
91.04000 1.870
91.06000 0.269
91.08000 -0.634
91.10000 2.917
91.12000 1.361
91.14000 -1.508
91.16000 -1.124
91.18000 0.435
91.20000 2.080
91.22000 1.621
91.24000 2.867
91.26000 1.587
91.28000 0.281
91.30000 0.113
91.32000 0.598
91.34000 2.622
91.36000 1.212
91.38000 1.101
91.40000 0.539
91.42000 0.988
91.44000 1.275
91.46000 1.947
91.48000 3.809
91.50000 3.595
91.52000 1.789
91.54000 1.114
91.56000 1.274
91.58000 -0.448
91.60000 1.403
91.62000 0.031
91.64000 -0.625
91.66000 0.170
91.68000 2.140
91.70000 1.954
91.72000 0.725
91.74000 1.346
91.76000 0.508
91.78000 -1.767
91.80000 -1.110
91.82000 0.449
91.84000 2.548
91.86000 2.574
91.88000 2.284
91.90000 3.045
91.92000 1.332
91.94000 3.410
91.96000 1.120
91.98000 -1.484
92.00000 -1.258
92.02000 1.847
92.04000 1.148
92.06000 -0.016
92.08000 -0.224
92.10000 -1.767
92.12000 1.286
92.14000 0.738
92.16000 2.540
92.18000 1.474
92.20000 2.114
92.22000 2.394
92.24000 -0.890
92.26000 1.657
92.28000 2.247
92.30000 3.652
92.32000 3.444
92.34000 0.451
92.36000 0.265
92.38000 2.379
92.40000 2.823
92.42000 0.029
92.44000 0.296
92.46000 1.243
92.48000 0.929
92.50000 0.735
92.52000 1.042
92.54000 1.997
92.56000 5.837
92.58000 6.377
92.60000 4.940
92.62000 4.266
92.64000 2.381
92.66000 3.352
92.68000 3.308
92.70000 4.399
92.72000 1.591
92.74000 -0.951
92.76000 0.599
92.78000 1.861
92.80000 3.588
92.82000 3.584
92.84000 3.825
92.86000 3.858
92.88000 1.723
92.90000 -1.264
92.92000 -0.838
92.94000 0.975
92.96000 1.116
92.98000 1.244
93.00000 0.042
93.02000 0.410
93.04000 -1.739
93.06000 -0.970
93.08000 3.548
93.10000 3.516
93.12000 2.176
93.14000 0.926
93.16000 2.015
93.18000 2.681
93.20000 1.652
93.22000 0.705
93.24000 4.517
93.26000 1.530
93.28000 0.578
93.30000 0.231
93.32000 2.103
93.34000 -0.548
93.36000 0.146
93.38000 3.213
93.40000 3.303
93.42000 7.307
93.44000 8.028
93.46000 2.919
93.48000 2.870
93.50000 0.996
93.52000 3.618
93.54000 1.080
93.56000 2.001
93.58000 5.467
93.60000 4.752
93.62000 2.616
93.64000 4.418
93.66000 8.282
93.68000 6.978
93.70000 6.480
93.72000 6.571
93.74000 7.248
93.76000 7.411
93.78000 6.657
93.80000 7.140
93.82000 1.245
93.84000 0.857
93.86000 4.461
93.88000 4.861
93.90000 -1.714
93.92000 2.707
93.94000 5.585
93.96000 4.330
93.98000 5.861
94.00000 4.007
94.02000 3.188
94.04000 1.524
94.06000 3.205
94.08000 3.109
94.10000 4.037
94.12000 3.136
94.14000 1.946
94.16000 3.494
94.18000 2.794
94.20000 2.746
94.22000 1.138
94.24000 3.791
94.26000 7.641
94.28000 4.902
94.30000 1.653
94.32000 -0.272
94.34000 2.081
94.36000 4.516
94.38000 0.550
94.40000 2.603
94.42000 4.467
94.44000 4.902
94.46000 0.753
94.48000 2.176
94.50000 4.374
94.52000 1.190
94.54000 3.678
94.56000 6.016
94.58000 3.195
94.60000 3.516
94.62000 4.120
94.64000 -0.646
94.66000 0.634
94.68000 5.116
94.70000 2.486
94.72000 1.185
94.74000 4.207
94.76000 3.662
94.78000 0.654
94.80000 1.176
94.82000 3.948
94.84000 5.311
94.86000 2.065
94.88000 -0.332
94.90000 2.523
94.92000 1.180
94.94000 2.395
94.96000 6.328
94.98000 3.927
95.00000 2.537
95.02000 2.134
95.04000 -1.044
95.06000 -1.779
95.08000 3.220
95.10000 4.768
95.12000 2.873
95.14000 0.085
95.16000 -0.257
95.18000 2.437
95.20000 3.487
95.22000 4.452
95.24000 4.233
95.26000 0.993
95.28000 1.009
95.30000 -0.778
95.32000 -1.784
95.34000 0.337
95.36000 3.345
95.38000 4.444
95.40000 3.356
95.42000 2.609
95.44000 1.531
95.46000 0.636
95.48000 1.510
95.50000 0.948
95.52000 0.222
95.54000 3.059
95.56000 4.078
95.58000 2.981
95.60000 1.968
95.62000 2.751
95.64000 0.546
95.66000 1.834
95.68000 1.636
95.70000 2.218
95.72000 1.806
95.74000 3.148
95.76000 2.410
95.78000 -0.334
95.80000 2.014
95.82000 2.534
95.84000 1.522
95.86000 3.538
95.88000 1.867
95.90000 1.461
95.92000 1.068
95.94000 2.755
95.96000 0.959
95.98000 0.976
96.00000 1.205
96.02000 1.335
96.04000 1.005
96.06000 1.096
96.08000 2.645
96.10000 5.468
96.12000 -1.103
96.14000 -1.772
96.16000 1.215
96.18000 2.386
96.20000 3.161
96.22000 1.718
96.24000 2.310
96.26000 4.977
96.28000 7.834
96.30000 2.679
96.32000 -0.826
96.34000 -0.098
96.36000 0.108
96.38000 5.236
96.40000 3.291
96.42000 2.375
96.44000 0.701
96.46000 2.124
96.48000 1.466
96.50000 0.983
96.52000 2.911
96.54000 0.190
96.56000 1.499
96.58000 -0.900
96.60000 -1.163
96.62000 4.268
96.64000 1.834
96.66000 6.461
96.68000 4.451
96.70000 4.409
96.72000 4.734
96.74000 1.958
96.76000 2.285
96.78000 0.976
96.80000 2.236
96.82000 2.888
96.84000 0.588
96.86000 0.565
96.88000 2.641
96.90000 0.036
96.92000 -0.193
96.94000 2.539
96.96000 -0.098
96.98000 1.868
97.00000 2.146
97.02000 4.900
97.04000 4.654
97.06000 4.964
97.08000 4.467
97.10000 3.079
97.12000 3.284
97.14000 -0.198
97.16000 -1.136
97.18000 -1.779
97.20000 -0.199
97.22000 0.816
97.24000 0.494
97.26000 -1.526
97.28000 2.444
97.30000 2.820
97.32000 -0.278
97.34000 -0.421
97.36000 -1.196
97.38000 2.114
97.40000 5.966
97.42000 5.587
97.44000 3.868
97.46000 0.895
97.48000 2.529
97.50000 4.448
97.52000 0.417
97.54000 2.975
97.56000 5.274
97.58000 2.869
97.60000 3.379
97.62000 2.759
97.64000 -1.487
97.66000 1.282
97.68000 -1.188
97.70000 2.907
97.72000 4.067
97.74000 4.039
97.76000 0.899
97.78000 2.006
97.80000 2.848
97.82000 2.265
97.84000 3.173
97.86000 3.464
97.88000 1.514
97.90000 0.419
97.92000 -0.001
97.94000 2.191
97.96000 0.914
97.98000 -1.717
98.00000 3.390
98.02000 1.506
98.04000 6.383
98.06000 5.272
98.08000 -0.576
98.10000 -0.883
98.12000 1.195
98.14000 0.131
98.16000 8.588
98.18000 8.356
98.20000 0.762
98.22000 0.744
98.24000 0.105
98.26000 -1.717
98.28000 1.343
98.30000 4.094
98.32000 4.535
98.34000 3.332
98.36000 0.339
98.38000 2.107
98.40000 5.049
98.42000 1.175
98.44000 0.820
98.46000 4.907
98.48000 2.887
98.50000 6.910
98.52000 2.657
98.54000 7.474
98.56000 7.962
98.58000 6.782
98.60000 -2.431
98.62000 2.323
98.64000 3.370
98.66000 0.324
98.68000 2.034
98.70000 4.509
98.72000 6.228
98.74000 5.152
98.76000 6.062
98.78000 4.929
98.80000 4.444
98.82000 7.626
98.84000 5.600
98.86000 4.947
98.88000 4.760
98.90000 -0.285
98.92000 -0.879
98.94000 4.406
98.96000 2.584
98.98000 2.007
99.00000 4.021
99.02000 4.683
99.04000 2.035
99.06000 5.441
99.08000 0.337
99.10000 5.363
99.12000 3.724
99.14000 6.218
99.16000 7.260
99.18000 7.526
99.20000 0.113
99.22000 0.364
99.24000 -0.859
99.26000 7.293
99.28000 5.395
99.30000 1.076
99.32000 3.811
99.34000 0.935
99.36000 2.995
99.38000 2.337
99.40000 -0.108
99.42000 2.096
99.44000 4.092
99.46000 1.912
99.48000 3.895
99.50000 1.675
99.52000 1.080
99.54000 2.606
99.56000 5.051
99.58000 9.795
99.60000 14.453
99.62000 10.890
99.64000 11.695
99.66000 10.270
99.68000 9.881
99.70000 8.509
99.72000 2.829
99.74000 2.826
99.76000 4.892
99.78000 2.447
99.80000 6.225
99.82000 -1.126
99.84000 -1.705
99.86000 1.110
99.88000 1.653
99.90000 1.163
99.92000 4.204
99.94000 -1.124
99.96000 -1.915
99.98000 0.000
