'Id: "0011387" Comment: "Integrate frame 0011387_Au-Ir-Rh_Rh-rich_XRD-Mapping-293-0000.gfrmwith cursor Wedge Cursor #5" Operator: "B?rgel" Anode: "Cu" Wavelength: "1.5406" Scantype: "2Theta (TwoTheta)" TimePerStep: "1" X: "27" Y: "27" Z: "5.95" 
10.00000 0.000
10.02000 12.566
10.04000 5.084
10.06000 -3.553
10.08000 8.645
10.10000 22.856
10.12000 25.937
10.14000 29.553
10.16000 31.529
10.18000 27.531
10.20000 26.028
10.22000 13.215
10.24000 11.305
10.26000 18.436
10.28000 5.069
10.30000 12.756
10.32000 22.435
10.34000 24.732
10.36000 21.182
10.38000 25.156
10.40000 28.957
10.42000 35.054
10.44000 30.747
10.46000 24.365
10.48000 19.850
10.50000 18.108
10.52000 31.985
10.54000 32.498
10.56000 27.226
10.58000 16.178
10.60000 25.381
10.62000 34.167
10.64000 32.963
10.66000 26.199
10.68000 34.378
10.70000 36.187
10.72000 37.414
10.74000 36.381
10.76000 23.622
10.78000 18.963
10.80000 33.505
10.82000 39.393
10.84000 36.609
10.86000 31.229
10.88000 30.373
10.90000 26.080
10.92000 28.290
10.94000 37.648
10.96000 28.801
10.98000 24.202
11.00000 20.061
11.02000 27.728
11.04000 26.348
11.06000 24.614
11.08000 28.954
11.10000 30.830
11.12000 31.984
11.14000 21.732
11.16000 30.542
11.18000 32.576
11.20000 24.125
11.22000 27.284
11.24000 24.202
11.26000 26.758
11.28000 33.570
11.30000 29.529
11.32000 20.870
11.34000 26.952
11.36000 28.678
11.38000 18.961
11.40000 31.074
11.42000 46.158
11.44000 45.186
11.46000 39.665
11.48000 25.605
11.50000 29.652
11.52000 36.062
11.54000 32.915
11.56000 42.565
11.58000 36.395
11.60000 38.701
11.62000 40.986
11.64000 29.900
11.66000 27.565
11.68000 29.702
11.70000 43.207
11.72000 32.749
11.74000 32.210
11.76000 28.558
11.78000 33.528
11.80000 30.215
11.82000 29.677
11.84000 28.272
11.86000 31.298
11.88000 24.835
11.90000 23.542
11.92000 26.350
11.94000 27.262
11.96000 22.592
11.98000 32.252
12.00000 32.374
12.02000 41.249
12.04000 38.099
12.06000 34.183
12.08000 48.486
12.10000 40.431
12.12000 31.295
12.14000 40.689
12.16000 41.630
12.18000 34.402
12.20000 29.657
12.22000 25.286
12.24000 22.269
12.26000 28.300
12.28000 37.213
12.30000 30.594
12.32000 37.700
12.34000 42.449
12.36000 46.651
12.38000 42.196
12.40000 26.516
12.42000 16.686
12.44000 27.106
12.46000 31.312
12.48000 32.519
12.50000 37.602
12.52000 40.983
12.54000 32.307
12.56000 32.491
12.58000 32.179
12.60000 28.914
12.62000 33.614
12.64000 37.457
12.66000 39.917
12.68000 34.209
12.70000 30.042
12.72000 31.571
12.74000 28.953
12.76000 35.841
12.78000 37.543
12.80000 37.976
12.82000 39.940
12.84000 37.551
12.86000 30.787
12.88000 36.047
12.90000 27.688
12.92000 26.079
12.94000 28.637
12.96000 29.501
12.98000 29.891
13.00000 30.727
13.02000 35.124
13.04000 26.556
13.06000 31.296
13.08000 34.604
13.10000 33.447
13.12000 25.517
13.14000 24.212
13.16000 32.628
13.18000 32.785
13.20000 33.403
13.22000 23.927
13.24000 25.046
13.26000 32.493
13.28000 20.109
13.30000 25.190
13.32000 32.162
13.34000 22.816
13.36000 24.462
13.38000 32.862
13.40000 37.305
13.42000 35.044
13.44000 40.385
13.46000 38.641
13.48000 36.478
13.50000 38.470
13.52000 30.892
13.54000 25.946
13.56000 29.318
13.58000 33.361
13.60000 19.763
13.62000 21.264
13.64000 21.781
13.66000 18.326
13.68000 16.632
13.70000 20.709
13.72000 36.375
13.74000 29.930
13.76000 29.603
13.78000 29.644
13.80000 26.519
13.82000 29.675
13.84000 28.552
13.86000 30.306
13.88000 32.104
13.90000 28.649
13.92000 36.253
13.94000 31.892
13.96000 26.652
13.98000 30.541
14.00000 28.515
14.02000 25.378
14.04000 27.984
14.06000 25.691
14.08000 25.983
14.10000 22.570
14.12000 29.302
14.14000 27.163
14.16000 28.382
14.18000 24.784
14.20000 27.888
14.22000 33.170
14.24000 34.761
14.26000 29.271
14.28000 24.445
14.30000 28.083
14.32000 25.248
14.34000 16.846
14.36000 19.732
14.38000 19.676
14.40000 20.894
14.42000 22.184
14.44000 17.141
14.46000 22.331
14.48000 25.454
14.50000 20.910
14.52000 17.782
14.54000 16.814
14.56000 28.977
14.58000 20.379
14.60000 18.684
14.62000 22.727
14.64000 24.953
14.66000 14.983
14.68000 16.100
14.70000 22.510
14.72000 28.057
14.74000 23.742
14.76000 16.330
14.78000 25.517
14.80000 32.986
14.82000 30.714
14.84000 26.561
14.86000 17.247
14.88000 21.225
14.90000 15.172
14.92000 18.787
14.94000 28.513
14.96000 15.519
14.98000 10.504
15.00000 14.860
15.02000 16.325
15.04000 12.386
15.06000 12.141
15.08000 3.602
15.10000 10.746
15.12000 16.579
15.14000 24.234
15.16000 17.841
15.18000 13.527
15.20000 14.455
15.22000 8.744
15.24000 8.733
15.26000 12.817
15.28000 19.865
15.30000 24.648
15.32000 26.706
15.34000 20.005
15.36000 8.268
15.38000 6.903
15.40000 11.987
15.42000 8.618
15.44000 7.340
15.46000 12.568
15.48000 17.050
15.50000 17.617
15.52000 17.829
15.54000 16.246
15.56000 13.229
15.58000 20.714
15.60000 12.702
15.62000 9.223
15.64000 11.594
15.66000 17.827
15.68000 14.993
15.70000 13.385
15.72000 14.903
15.74000 10.906
15.76000 3.454
15.78000 15.232
15.80000 15.829
15.82000 20.563
15.84000 20.371
15.86000 20.078
15.88000 16.393
15.90000 14.603
15.92000 13.566
15.94000 8.028
15.96000 12.839
15.98000 9.530
16.00000 10.148
16.02000 11.143
16.04000 13.283
16.06000 10.646
16.08000 5.201
16.10000 0.440
16.12000 4.442
16.14000 9.370
16.16000 11.554
16.18000 3.956
16.20000 1.291
16.22000 1.743
16.24000 2.476
16.26000 5.699
16.28000 9.781
16.30000 11.655
16.32000 6.380
16.34000 10.701
16.36000 8.609
16.38000 9.710
16.40000 0.897
16.42000 -2.784
16.44000 -0.667
16.46000 1.982
16.48000 4.260
16.50000 3.463
16.52000 7.152
16.54000 8.989
16.56000 8.282
16.58000 -1.879
16.60000 -4.427
16.62000 5.558
16.64000 5.624
16.66000 6.472
16.68000 1.111
16.70000 -2.922
16.72000 2.811
16.74000 4.801
16.76000 7.248
16.78000 12.294
16.80000 15.458
16.82000 13.067
16.84000 10.423
16.86000 8.332
16.88000 8.931
16.90000 8.943
16.92000 3.958
16.94000 -3.892
16.96000 -3.595
16.98000 1.137
17.00000 6.646
17.02000 5.710
17.04000 2.089
17.06000 -2.106
17.08000 0.175
17.10000 -3.325
17.12000 -0.310
17.14000 2.275
17.16000 1.422
17.18000 4.111
17.20000 9.635
17.22000 10.239
17.24000 10.950
17.26000 9.025
17.28000 -0.439
17.30000 -3.013
17.32000 3.912
17.34000 -1.261
17.36000 0.336
17.38000 5.491
17.40000 6.067
17.42000 9.689
17.44000 6.117
17.46000 4.451
17.48000 -0.452
17.50000 -2.007
17.52000 5.113
17.54000 4.898
17.56000 5.480
17.58000 5.717
17.60000 9.447
17.62000 4.026
17.64000 8.163
17.66000 10.959
17.68000 3.990
17.70000 5.863
17.72000 11.742
17.74000 11.665
17.76000 8.070
17.78000 7.648
17.80000 10.182
17.82000 2.167
17.84000 -0.573
17.86000 -1.251
17.88000 6.333
17.90000 6.289
17.92000 -2.463
17.94000 2.010
17.96000 2.344
17.98000 10.670
18.00000 12.602
18.02000 1.283
18.04000 -1.183
18.06000 0.486
18.08000 -1.335
18.10000 0.305
18.12000 7.577
18.14000 3.662
18.16000 -3.249
18.18000 1.152
18.20000 3.879
18.22000 7.165
18.24000 7.318
18.26000 -1.686
18.28000 -0.650
18.30000 2.445
18.32000 7.541
18.34000 0.447
18.36000 1.905
18.38000 2.973
18.40000 7.482
18.42000 4.855
18.44000 2.698
18.46000 4.959
18.48000 6.254
18.50000 0.604
18.52000 6.953
18.54000 5.363
18.56000 7.234
18.58000 6.753
18.60000 4.609
18.62000 1.736
18.64000 2.650
18.66000 1.646
18.68000 -2.411
18.70000 -3.960
18.72000 -3.944
18.74000 -1.414
18.76000 -4.335
18.78000 0.863
18.80000 1.513
18.82000 5.873
18.84000 10.913
18.86000 10.110
18.88000 6.600
18.90000 1.968
18.92000 2.473
18.94000 1.140
18.96000 10.234
18.98000 11.713
19.00000 10.991
19.02000 9.354
19.04000 6.818
19.06000 -1.468
19.08000 -4.310
19.10000 -3.516
19.12000 0.100
19.14000 -0.269
19.16000 1.741
19.18000 1.702
19.20000 0.285
19.22000 4.013
19.24000 4.482
19.26000 -0.929
19.28000 1.424
19.30000 5.313
19.32000 8.621
19.34000 9.433
19.36000 7.460
19.38000 5.652
19.40000 5.141
19.42000 0.277
19.44000 -4.282
19.46000 0.534
19.48000 0.787
19.50000 -1.895
19.52000 3.729
19.54000 6.488
19.56000 10.175
19.58000 7.962
19.60000 9.555
19.62000 11.567
19.64000 4.816
19.66000 5.691
19.68000 2.668
19.70000 -0.852
19.72000 4.746
19.74000 1.056
19.76000 7.914
19.78000 6.946
19.80000 3.575
19.82000 6.968
19.84000 8.066
19.86000 5.613
19.88000 2.188
19.90000 -4.264
19.92000 0.112
19.94000 2.410
19.96000 7.511
19.98000 4.521
20.00000 5.132
20.02000 5.406
20.04000 0.737
20.06000 10.420
20.08000 5.648
20.10000 2.280
20.12000 6.049
20.14000 4.799
20.16000 6.516
20.18000 1.250
20.20000 1.658
20.22000 8.311
20.24000 7.308
20.26000 1.338
20.28000 -0.775
20.30000 1.555
20.32000 5.479
20.34000 6.863
20.36000 10.733
20.38000 10.750
20.40000 9.611
20.42000 2.389
20.44000 -4.079
20.46000 4.639
20.48000 0.803
20.50000 1.247
20.52000 2.945
20.54000 1.709
20.56000 5.715
20.58000 7.823
20.60000 6.060
20.62000 4.382
20.64000 1.627
20.66000 3.350
20.68000 8.506
20.70000 2.646
20.72000 1.318
20.74000 3.002
20.76000 1.383
20.78000 4.228
20.80000 5.258
20.82000 5.972
20.84000 1.354
20.86000 -4.226
20.88000 -3.117
20.90000 3.796
20.92000 4.777
20.94000 4.427
20.96000 3.904
20.98000 4.228
21.00000 2.424
21.02000 -0.290
21.04000 -3.442
21.06000 0.428
21.08000 5.868
21.10000 10.443
21.12000 3.599
21.14000 0.635
21.16000 2.192
21.18000 1.520
21.20000 3.188
21.22000 1.951
21.24000 5.961
21.26000 -3.921
21.28000 -3.535
21.30000 -1.003
21.32000 0.759
21.34000 2.500
21.36000 6.650
21.38000 3.267
21.40000 4.269
21.42000 4.481
21.44000 -2.076
21.46000 1.862
21.48000 10.933
21.50000 5.693
21.52000 -1.641
21.54000 1.673
21.56000 1.957
21.58000 -0.327
21.60000 0.124
21.62000 0.420
21.64000 5.200
21.66000 7.115
21.68000 8.289
21.70000 5.255
21.72000 3.027
21.74000 2.535
21.76000 2.905
21.78000 -0.864
21.80000 -4.189
21.82000 4.323
21.84000 8.038
21.86000 2.527
21.88000 2.470
21.90000 1.122
21.92000 1.850
21.94000 3.309
21.96000 -0.640
21.98000 7.213
22.00000 8.072
22.02000 -1.156
22.04000 0.526
22.06000 2.574
22.08000 1.672
22.10000 4.456
22.12000 4.616
22.14000 2.552
22.16000 1.802
22.18000 1.772
22.20000 -0.841
22.22000 -2.553
22.24000 2.750
22.26000 1.440
22.28000 1.344
22.30000 5.521
22.32000 5.909
22.34000 -1.306
22.36000 -0.408
22.38000 1.203
22.40000 -2.153
22.42000 -2.630
22.44000 0.168
22.46000 2.429
22.48000 7.683
22.50000 7.644
22.52000 5.174
22.54000 1.383
22.56000 2.927
22.58000 2.883
22.60000 4.759
22.62000 3.329
22.64000 2.915
22.66000 6.524
22.68000 4.858
22.70000 3.901
22.72000 0.689
22.74000 -0.438
22.76000 -4.126
22.78000 3.207
22.80000 6.483
22.82000 5.330
22.84000 6.648
22.86000 5.539
22.88000 0.426
22.90000 2.848
22.92000 -0.360
22.94000 0.639
22.96000 6.671
22.98000 4.951
23.00000 3.094
23.02000 0.077
23.04000 1.360
23.06000 5.022
23.08000 5.013
23.10000 5.616
23.12000 6.002
23.14000 6.265
23.16000 11.453
23.18000 9.231
23.20000 5.699
23.22000 4.156
23.24000 -1.591
23.26000 -2.388
23.28000 -0.830
23.30000 2.160
23.32000 4.825
23.34000 1.447
23.36000 2.055
23.38000 1.325
23.40000 0.560
23.42000 -2.761
23.44000 -0.075
23.46000 5.503
23.48000 4.197
23.50000 3.914
23.52000 4.030
23.54000 3.993
23.56000 1.115
23.58000 2.815
23.60000 4.360
23.62000 -1.865
23.64000 0.443
23.66000 1.087
23.68000 2.686
23.70000 -0.811
23.72000 -0.543
23.74000 2.217
23.76000 -4.056
23.78000 2.631
23.80000 7.374
23.82000 4.344
23.84000 4.805
23.86000 0.370
23.88000 1.615
23.90000 2.839
23.92000 2.210
23.94000 1.719
23.96000 0.761
23.98000 3.436
24.00000 1.044
24.02000 5.937
24.04000 7.657
24.06000 9.478
24.08000 7.195
24.10000 4.897
24.12000 3.832
24.14000 -1.390
24.16000 0.743
24.18000 3.490
24.20000 -0.429
24.22000 -4.033
24.24000 2.096
24.26000 4.459
24.28000 6.449
24.30000 1.703
24.32000 -2.984
24.34000 0.035
24.36000 3.807
24.38000 -0.378
24.40000 -3.242
24.42000 -1.880
24.44000 2.424
24.46000 -0.981
24.48000 2.296
24.50000 4.806
24.52000 2.618
24.54000 5.738
24.56000 6.230
24.58000 4.069
24.60000 4.750
24.62000 3.343
24.64000 2.412
24.66000 0.192
24.68000 1.462
24.70000 1.829
24.72000 1.759
24.74000 5.118
24.76000 4.159
24.78000 4.351
24.80000 0.691
24.82000 3.062
24.84000 5.923
24.86000 6.672
24.88000 6.462
24.90000 4.711
24.92000 0.058
24.94000 2.409
24.96000 -0.281
24.98000 -0.717
25.00000 -2.087
25.02000 -3.825
25.04000 -3.659
25.06000 -1.304
25.08000 6.958
25.10000 3.782
25.12000 4.514
25.14000 5.591
25.16000 3.838
25.18000 3.138
25.20000 2.740
25.22000 3.882
25.24000 6.876
25.26000 7.056
25.28000 6.338
25.30000 1.815
25.32000 2.822
25.34000 6.030
25.36000 8.614
25.38000 5.788
25.40000 7.714
25.42000 2.376
25.44000 1.498
25.46000 4.493
25.48000 1.951
25.50000 -0.391
25.52000 5.390
25.54000 2.843
25.56000 1.690
25.58000 7.012
25.60000 4.288
25.62000 3.903
25.64000 2.342
25.66000 6.408
25.68000 6.666
25.70000 7.099
25.72000 4.582
25.74000 0.310
25.76000 0.656
25.78000 7.665
25.80000 12.977
25.82000 5.535
25.84000 2.173
25.86000 4.516
25.88000 3.704
25.90000 7.026
25.92000 2.630
25.94000 4.598
25.96000 5.258
25.98000 -0.381
26.00000 2.707
26.02000 5.042
26.04000 8.435
26.06000 5.068
26.08000 4.027
26.10000 2.999
26.12000 2.464
26.14000 4.805
26.16000 2.158
26.18000 7.853
26.20000 6.836
26.22000 7.815
26.24000 7.803
26.26000 3.737
26.28000 6.093
26.30000 2.777
26.32000 -2.207
26.34000 0.117
26.36000 2.882
26.38000 1.246
26.40000 -0.816
26.42000 -3.881
26.44000 -1.407
26.46000 6.991
26.48000 9.428
26.50000 9.146
26.52000 5.792
26.54000 1.768
26.56000 5.183
26.58000 1.802
26.60000 3.073
26.62000 6.418
26.64000 5.831
26.66000 2.331
26.68000 3.133
26.70000 3.042
26.72000 3.660
26.74000 1.993
26.76000 0.830
26.78000 1.079
26.80000 7.378
26.82000 6.427
26.84000 5.838
26.86000 7.732
26.88000 7.424
26.90000 4.101
26.92000 6.477
26.94000 7.824
26.96000 4.229
26.98000 5.020
27.00000 5.519
27.02000 5.579
27.04000 1.303
27.06000 4.568
27.08000 4.564
27.10000 2.523
27.12000 1.859
27.14000 5.251
27.16000 6.658
27.18000 10.931
27.20000 8.454
27.22000 6.066
27.24000 4.197
27.26000 2.556
27.28000 1.307
27.30000 4.261
27.32000 -1.802
27.34000 -0.643
27.36000 0.236
27.38000 2.173
27.40000 1.005
27.42000 6.803
27.44000 11.416
27.46000 0.862
27.48000 -2.134
27.50000 0.498
27.52000 3.835
27.54000 4.684
27.56000 0.562
27.58000 1.430
27.60000 -1.016
27.62000 -3.710
27.64000 -1.809
27.66000 3.592
27.68000 4.201
27.70000 4.749
27.72000 3.286
27.74000 4.866
27.76000 2.093
27.78000 1.286
27.80000 -0.449
27.82000 0.560
27.84000 -0.401
27.86000 4.181
27.88000 4.061
27.90000 6.040
27.92000 0.109
27.94000 -0.056
27.96000 -0.304
27.98000 3.709
28.00000 2.803
28.02000 6.074
28.04000 3.087
28.06000 4.482
28.08000 6.429
28.10000 5.889
28.12000 -2.174
28.14000 0.227
28.16000 5.203
28.18000 5.557
28.20000 -1.405
28.22000 2.159
28.24000 4.859
28.26000 3.587
28.28000 -0.399
28.30000 -3.812
28.32000 -1.228
28.34000 2.010
28.36000 1.971
28.38000 1.261
28.40000 2.343
28.42000 7.408
28.44000 5.371
28.46000 -0.534
28.48000 2.378
28.50000 3.239
28.52000 4.868
28.54000 7.546
28.56000 2.866
28.58000 2.178
28.60000 0.743
28.62000 3.307
28.64000 4.780
28.66000 1.331
28.68000 1.924
28.70000 5.083
28.72000 0.690
28.74000 1.932
28.76000 4.668
28.78000 2.889
28.80000 -0.536
28.82000 -0.032
28.84000 6.854
28.86000 5.469
28.88000 3.033
28.90000 1.200
28.92000 1.037
28.94000 0.895
28.96000 -0.939
28.98000 1.841
29.00000 4.206
29.02000 4.728
29.04000 4.232
29.06000 4.681
29.08000 1.343
29.10000 0.856
29.12000 3.051
29.14000 -2.453
29.16000 -2.517
29.18000 1.797
29.20000 0.549
29.22000 3.376
29.24000 3.625
29.26000 9.182
29.28000 7.788
29.30000 4.699
29.32000 -1.835
29.34000 -0.090
29.36000 3.751
29.38000 4.893
29.40000 7.900
29.42000 4.872
29.44000 1.609
29.46000 5.027
29.48000 8.272
29.50000 3.591
29.52000 4.507
29.54000 6.334
29.56000 4.744
29.58000 8.719
29.60000 7.598
29.62000 7.983
29.64000 9.452
29.66000 7.733
29.68000 3.129
29.70000 2.392
29.72000 6.467
29.74000 3.397
29.76000 -1.114
29.78000 4.505
29.80000 6.264
29.82000 13.946
29.84000 9.687
29.86000 6.985
29.88000 9.811
29.90000 8.538
29.92000 7.734
29.94000 8.914
29.96000 17.079
29.98000 12.905
30.00000 10.351
30.02000 5.342
30.04000 -0.534
30.06000 -3.662
30.08000 0.909
30.10000 2.878
30.12000 5.553
30.14000 7.008
30.16000 4.373
30.18000 9.781
30.20000 5.115
30.22000 8.353
30.24000 11.508
30.26000 9.874
30.28000 7.465
30.30000 10.280
30.32000 2.739
30.34000 -0.538
30.36000 1.531
30.38000 8.929
30.40000 8.691
30.42000 6.786
30.44000 3.603
30.46000 4.078
30.48000 3.032
30.50000 8.625
30.52000 7.342
30.54000 3.514
30.56000 5.356
30.58000 10.604
30.60000 9.945
30.62000 10.123
30.64000 7.762
30.66000 7.199
30.68000 4.684
30.70000 4.896
30.72000 3.331
30.74000 0.974
30.76000 -1.534
30.78000 2.261
30.80000 2.009
30.82000 -3.203
30.84000 0.666
30.86000 4.528
30.88000 4.276
30.90000 -2.157
30.92000 -1.349
30.94000 4.535
30.96000 7.692
30.98000 3.577
31.00000 1.548
31.02000 5.230
31.04000 2.412
31.06000 1.637
31.08000 2.724
31.10000 4.750
31.12000 -0.353
31.14000 0.695
31.16000 1.473
31.18000 -0.705
31.20000 3.345
31.22000 2.083
31.24000 2.832
31.26000 -0.473
31.28000 1.419
31.30000 6.337
31.32000 7.606
31.34000 8.520
31.36000 7.052
31.38000 4.753
31.40000 1.150
31.42000 3.321
31.44000 1.284
31.46000 4.010
31.48000 7.191
31.50000 8.257
31.52000 3.536
31.54000 -1.322
31.56000 -1.844
31.58000 -1.370
31.60000 -3.331
31.62000 3.186
31.64000 1.843
31.66000 -3.646
31.68000 1.176
31.70000 0.173
31.72000 -1.635
31.74000 0.638
31.76000 6.819
31.78000 1.155
31.80000 -1.283
31.82000 -1.501
31.84000 1.778
31.86000 2.516
31.88000 2.677
31.90000 0.552
31.92000 2.978
31.94000 3.216
31.96000 -2.487
31.98000 -2.044
32.00000 -2.974
32.02000 -3.431
32.04000 1.192
32.06000 -0.231
32.08000 3.748
32.10000 5.230
32.12000 7.289
32.14000 4.185
32.16000 0.924
32.18000 2.299
32.20000 -1.155
32.22000 -0.201
32.24000 8.108
32.26000 1.799
32.28000 -0.590
32.30000 4.693
32.32000 4.419
32.34000 0.495
32.36000 3.449
32.38000 3.267
32.40000 1.942
32.42000 2.003
32.44000 1.004
32.46000 -0.058
32.48000 5.305
32.50000 6.168
32.52000 7.082
32.54000 5.212
32.56000 1.717
32.58000 4.113
32.60000 1.356
32.62000 -1.028
32.64000 4.833
32.66000 4.148
32.68000 -2.377
32.70000 0.823
32.72000 0.670
32.74000 6.266
32.76000 4.272
32.78000 2.170
32.80000 0.341
32.82000 6.073
32.84000 7.140
32.86000 1.143
32.88000 2.133
32.90000 4.263
32.92000 5.969
32.94000 4.243
32.96000 1.534
32.98000 1.892
33.00000 1.585
33.02000 1.858
33.04000 -0.347
33.06000 -3.596
33.08000 -3.253
33.10000 0.524
33.12000 -0.965
33.14000 1.607
33.16000 4.219
33.18000 4.061
33.20000 2.887
33.22000 -0.451
33.24000 -1.032
33.26000 2.192
33.28000 4.525
33.30000 2.033
33.32000 -0.557
33.34000 0.317
33.36000 -0.685
33.38000 -2.628
33.40000 2.257
33.42000 5.775
33.44000 7.433
33.46000 2.724
33.48000 -2.371
33.50000 0.603
33.52000 2.595
33.54000 1.804
33.56000 0.490
33.58000 1.239
33.60000 3.488
33.62000 8.979
33.64000 6.409
33.66000 4.932
33.68000 5.086
33.70000 3.190
33.72000 7.019
33.74000 8.244
33.76000 4.759
33.78000 0.448
33.80000 4.626
33.82000 8.658
33.84000 2.967
33.86000 4.734
33.88000 1.523
33.90000 -1.144
33.92000 2.964
33.94000 4.068
33.96000 8.721
33.98000 9.256
34.00000 2.401
34.02000 -1.329
34.04000 3.299
34.06000 1.976
34.08000 3.409
34.10000 4.701
34.12000 2.901
34.14000 1.529
34.16000 0.100
34.18000 -1.160
34.20000 6.978
34.22000 7.063
34.24000 5.870
34.26000 1.379
34.28000 0.990
34.30000 -2.322
34.32000 0.573
34.34000 0.746
34.36000 -2.311
34.38000 -2.931
34.40000 3.982
34.42000 5.345
34.44000 4.831
34.46000 -0.026
34.48000 1.574
34.50000 -0.895
34.52000 1.099
34.54000 -0.126
34.56000 5.942
34.58000 5.437
34.60000 2.480
34.62000 -0.701
34.64000 -3.574
34.66000 -0.714
34.68000 1.950
34.70000 -2.423
34.72000 -2.831
34.74000 2.049
34.76000 0.260
34.78000 -1.458
34.80000 5.666
34.82000 4.942
34.84000 1.631
34.86000 1.734
34.88000 3.006
34.90000 3.305
34.92000 1.588
34.94000 -0.196
34.96000 3.200
34.98000 -0.748
35.00000 1.294
35.02000 5.062
35.04000 -0.562
35.06000 -1.299
35.08000 -3.566
35.10000 2.788
35.12000 1.701
35.14000 0.264
35.16000 3.171
35.18000 3.737
35.20000 -1.391
35.22000 -0.092
35.24000 3.572
35.26000 -1.410
35.28000 3.052
35.30000 1.129
35.32000 -2.762
35.34000 0.470
35.36000 3.246
35.38000 3.938
35.40000 0.488
35.42000 1.440
35.44000 0.557
35.46000 3.092
35.48000 2.840
35.50000 1.020
35.52000 -3.188
35.54000 0.503
35.56000 4.341
35.58000 0.550
35.60000 -0.197
35.62000 4.923
35.64000 5.642
35.66000 2.292
35.68000 0.550
35.70000 0.049
35.72000 3.980
35.74000 10.178
35.76000 7.134
35.78000 0.633
35.80000 4.036
35.82000 -1.920
35.84000 -3.469
35.86000 5.096
35.88000 2.920
35.90000 -0.345
35.92000 -0.798
35.94000 5.069
35.96000 4.438
35.98000 0.733
36.00000 -3.543
36.02000 1.227
36.04000 5.966
36.06000 7.650
36.08000 9.543
36.10000 6.447
36.12000 3.478
36.14000 7.089
36.16000 5.996
36.18000 0.334
36.20000 1.410
36.22000 4.818
36.24000 8.478
36.26000 7.030
36.28000 7.332
36.30000 3.501
36.32000 -1.159
36.34000 2.543
36.36000 2.674
36.38000 3.793
36.40000 0.303
36.42000 1.919
36.44000 4.266
36.46000 2.313
36.48000 -2.162
36.50000 0.239
36.52000 -0.909
36.54000 -1.955
36.56000 -2.928
36.58000 1.184
36.60000 3.430
36.62000 1.293
36.64000 -2.533
36.66000 -1.096
36.68000 3.294
36.70000 5.066
36.72000 -0.648
36.74000 -2.503
36.76000 -0.159
36.78000 -1.446
36.80000 -1.833
36.82000 -3.599
36.84000 1.449
36.86000 1.023
36.88000 1.118
36.90000 4.949
36.92000 1.339
36.94000 -1.658
36.96000 1.255
36.98000 0.278
37.00000 -0.839
37.02000 1.859
37.04000 2.700
37.06000 1.747
37.08000 0.056
37.10000 -3.619
37.12000 -3.009
37.14000 0.494
37.16000 0.330
37.18000 -0.014
37.20000 1.588
37.22000 0.574
37.24000 -2.944
37.26000 -1.284
37.28000 1.927
37.30000 0.122
37.32000 2.163
37.34000 4.797
37.36000 0.717
37.38000 -3.649
37.40000 -2.977
37.42000 -1.362
37.44000 1.243
37.46000 6.598
37.48000 5.379
37.50000 3.066
37.52000 -0.061
37.54000 -2.508
37.56000 1.029
37.58000 7.326
37.60000 5.181
37.62000 0.416
37.64000 -0.030
37.66000 -0.495
37.68000 -3.344
37.70000 0.464
37.72000 3.086
37.74000 2.375
37.76000 0.654
37.78000 -0.619
37.80000 3.757
37.82000 3.729
37.84000 4.324
37.86000 8.073
37.88000 8.125
37.90000 7.163
37.92000 4.908
37.94000 5.841
37.96000 6.146
37.98000 10.330
38.00000 6.237
38.02000 1.972
38.04000 6.670
38.06000 6.894
38.08000 7.186
38.10000 12.483
38.12000 11.629
38.14000 14.806
38.16000 16.205
38.18000 18.674
38.20000 11.949
38.22000 7.458
38.24000 13.327
38.26000 12.962
38.28000 9.448
38.30000 7.480
38.32000 9.489
38.34000 15.343
38.36000 11.197
38.38000 13.477
38.40000 13.984
38.42000 15.989
38.44000 15.532
38.46000 21.562
38.48000 20.922
38.50000 17.200
38.52000 20.874
38.54000 21.562
38.56000 22.419
38.58000 22.935
38.60000 22.588
38.62000 23.171
38.64000 32.189
38.66000 28.903
38.68000 25.035
38.70000 31.074
38.72000 31.248
38.74000 30.081
38.76000 31.561
38.78000 34.867
38.80000 33.390
38.82000 30.534
38.84000 41.345
38.86000 43.773
38.88000 39.802
38.90000 39.440
38.92000 44.255
38.94000 41.135
38.96000 38.335
38.98000 46.592
39.00000 49.896
39.02000 47.200
39.04000 51.101
39.06000 55.514
39.08000 58.376
39.10000 61.407
39.12000 65.953
39.14000 66.264
39.16000 68.818
39.18000 73.646
39.20000 72.923
39.22000 74.569
39.24000 78.649
39.26000 77.171
39.28000 85.828
39.30000 91.084
39.32000 91.097
39.34000 104.445
39.36000 107.195
39.38000 110.723
39.40000 120.123
39.42000 126.947
39.44000 126.842
39.46000 130.334
39.48000 138.700
39.50000 148.774
39.52000 165.804
39.54000 167.652
39.56000 168.617
39.58000 174.206
39.60000 189.745
39.62000 199.430
39.64000 209.610
39.66000 219.597
39.68000 226.512
39.70000 239.196
39.72000 257.275
39.74000 273.774
39.76000 274.561
39.78000 291.593
39.80000 310.702
39.82000 323.031
39.84000 336.560
39.86000 353.118
39.88000 368.531
39.90000 386.464
39.92000 401.059
39.94000 414.395
39.96000 435.361
39.98000 442.853
40.00000 445.484
40.02000 465.185
40.04000 481.792
40.06000 505.983
40.08000 518.616
40.10000 527.386
40.12000 535.834
40.14000 538.042
40.16000 546.256
40.18000 549.102
40.20000 548.818
40.22000 545.488
40.24000 552.648
40.26000 550.980
40.28000 557.066
40.30000 547.046
40.32000 541.027
40.34000 537.950
40.36000 528.288
40.38000 516.300
40.40000 506.874
40.42000 492.251
40.44000 490.057
40.46000 474.240
40.48000 457.000
40.50000 439.834
40.52000 426.321
40.54000 412.450
40.56000 396.217
40.58000 380.878
40.60000 362.147
40.62000 349.441
40.64000 339.757
40.66000 322.527
40.68000 300.808
40.70000 287.780
40.72000 278.780
40.74000 269.441
40.76000 253.009
40.78000 239.422
40.80000 221.597
40.82000 208.974
40.84000 188.471
40.86000 184.034
40.88000 174.607
40.90000 170.566
40.92000 163.182
40.94000 155.007
40.96000 150.234
40.98000 139.307
41.00000 132.990
41.02000 123.281
41.04000 118.125
41.06000 111.286
41.08000 109.625
41.10000 100.418
41.12000 97.663
41.14000 86.038
41.16000 82.721
41.18000 78.943
41.20000 71.522
41.22000 71.597
41.24000 64.403
41.26000 56.599
41.28000 55.136
41.30000 54.889
41.32000 55.083
41.34000 58.534
41.36000 52.496
41.38000 50.842
41.40000 45.698
41.42000 38.614
41.44000 40.298
41.46000 43.131
41.48000 41.164
41.50000 37.907
41.52000 35.821
41.54000 31.788
41.56000 31.486
41.58000 27.453
41.60000 26.763
41.62000 25.006
41.64000 22.300
41.66000 19.336
41.68000 14.547
41.70000 19.078
41.72000 18.919
41.74000 21.165
41.76000 21.527
41.78000 14.569
41.80000 12.582
41.82000 9.031
41.84000 10.937
41.86000 14.772
41.88000 16.162
41.90000 10.765
41.92000 11.824
41.94000 14.845
41.96000 12.812
41.98000 11.091
42.00000 14.554
42.02000 13.922
42.04000 7.977
42.06000 8.869
42.08000 6.116
42.10000 6.492
42.12000 5.718
42.14000 3.704
42.16000 2.194
42.18000 0.444
42.20000 2.286
42.22000 2.678
42.24000 0.507
42.26000 4.383
42.28000 6.278
42.30000 3.899
42.32000 3.772
42.34000 3.276
42.36000 1.547
42.38000 2.556
42.40000 4.861
42.42000 4.189
42.44000 -0.498
42.46000 1.020
42.48000 3.298
42.50000 1.329
42.52000 1.058
42.54000 1.682
42.56000 1.572
42.58000 1.499
42.60000 5.822
42.62000 4.447
42.64000 0.770
42.66000 -0.360
42.68000 2.566
42.70000 1.363
42.72000 -1.716
42.74000 4.081
42.76000 -1.146
42.78000 -0.769
42.80000 1.736
42.82000 0.659
42.84000 2.490
42.86000 1.315
42.88000 3.712
42.90000 0.565
42.92000 1.446
42.94000 3.520
42.96000 4.901
42.98000 2.038
43.00000 -1.750
43.02000 -3.465
43.04000 -3.243
43.06000 -1.614
43.08000 1.537
43.10000 2.600
43.12000 -0.792
43.14000 -2.657
43.16000 -2.438
43.18000 -0.107
43.20000 -0.945
43.22000 -2.545
43.24000 0.695
43.26000 -2.434
43.28000 -2.118
43.30000 2.577
43.32000 2.071
43.34000 -0.943
43.36000 4.672
43.38000 2.515
43.40000 0.538
43.42000 0.207
43.44000 1.316
43.46000 -0.775
43.48000 -0.956
43.50000 2.861
43.52000 1.950
43.54000 -0.271
43.56000 -0.078
43.58000 5.600
43.60000 9.472
43.62000 2.585
43.64000 1.749
43.66000 3.977
43.68000 5.122
43.70000 3.753
43.72000 1.413
43.74000 0.027
43.76000 -3.374
43.78000 -2.923
43.80000 3.097
43.82000 5.304
43.84000 5.745
43.86000 2.563
43.88000 4.099
43.90000 3.274
43.92000 3.094
43.94000 0.427
43.96000 1.509
43.98000 3.657
44.00000 3.706
44.02000 0.488
44.04000 3.377
44.06000 8.608
44.08000 5.915
44.10000 8.877
44.12000 6.260
44.14000 5.580
44.16000 2.742
44.18000 -0.914
44.20000 -3.348
44.22000 4.118
44.24000 5.305
44.26000 2.979
44.28000 4.613
44.30000 7.722
44.32000 10.012
44.34000 6.481
44.36000 1.841
44.38000 2.060
44.40000 3.096
44.42000 2.105
44.44000 5.537
44.46000 6.853
44.48000 -1.489
44.50000 1.246
44.52000 -2.627
44.54000 2.148
44.56000 6.146
44.58000 2.862
44.60000 1.321
44.62000 4.335
44.64000 3.603
44.66000 0.731
44.68000 0.403
44.70000 -1.012
44.72000 6.440
44.74000 10.503
44.76000 6.310
44.78000 5.039
44.80000 0.095
44.82000 1.003
44.84000 3.717
44.86000 5.193
44.88000 3.039
44.90000 5.196
44.92000 9.465
44.94000 8.532
44.96000 8.362
44.98000 8.995
45.00000 4.674
45.02000 3.604
45.04000 0.989
45.06000 -0.159
45.08000 6.631
45.10000 8.836
45.12000 7.431
45.14000 6.640
45.16000 7.467
45.18000 6.268
45.20000 10.760
45.22000 5.116
45.24000 7.706
45.26000 12.420
45.28000 9.604
45.30000 7.437
45.32000 11.609
45.34000 13.177
45.36000 15.003
45.38000 14.045
45.40000 13.826
45.42000 13.976
45.44000 15.973
45.46000 19.593
45.48000 19.375
45.50000 16.597
45.52000 19.141
45.54000 19.536
45.56000 14.789
45.58000 17.980
45.60000 17.828
45.62000 20.074
45.64000 20.357
45.66000 18.530
45.68000 16.009
45.70000 17.160
45.72000 25.584
45.74000 27.587
45.76000 26.980
45.78000 30.184
45.80000 28.449
45.82000 32.247
45.84000 31.451
45.86000 28.296
45.88000 29.925
45.90000 29.561
45.92000 30.260
45.94000 29.927
45.96000 39.531
45.98000 35.691
46.00000 38.749
46.02000 35.456
46.04000 43.929
46.06000 41.513
46.08000 44.870
46.10000 43.326
46.12000 42.480
46.14000 45.538
46.16000 51.882
46.18000 51.007
46.20000 49.025
46.22000 50.143
46.24000 49.492
46.26000 49.685
46.28000 55.286
46.30000 60.370
46.32000 59.524
46.34000 66.278
46.36000 72.409
46.38000 67.760
46.40000 67.099
46.42000 71.595
46.44000 75.039
46.46000 77.356
46.48000 68.877
46.50000 70.895
46.52000 75.745
46.54000 73.266
46.56000 68.798
46.58000 81.736
46.60000 90.768
46.62000 83.969
46.64000 83.548
46.66000 84.222
46.68000 84.397
46.70000 83.772
46.72000 85.425
46.74000 93.044
46.76000 94.901
46.78000 92.412
46.80000 86.820
46.82000 86.660
46.84000 92.480
46.86000 89.412
46.88000 90.541
46.90000 94.177
46.92000 89.422
46.94000 87.411
46.96000 88.988
46.98000 91.925
47.00000 86.964
47.02000 86.780
47.04000 85.618
47.06000 84.181
47.08000 79.953
47.10000 84.567
47.12000 85.574
47.14000 87.900
47.16000 82.512
47.18000 78.590
47.20000 81.341
47.22000 77.043
47.24000 74.796
47.26000 79.018
47.28000 78.113
47.30000 69.683
47.32000 67.552
47.34000 66.214
47.36000 65.058
47.38000 70.212
47.40000 63.420
47.42000 54.406
47.44000 55.504
47.46000 53.211
47.48000 53.109
47.50000 49.295
47.52000 47.070
47.54000 48.768
47.56000 47.928
47.58000 42.971
47.60000 47.666
47.62000 44.395
47.64000 41.369
47.66000 39.823
47.68000 35.824
47.70000 32.960
47.72000 29.196
47.74000 36.914
47.76000 36.608
47.78000 33.932
47.80000 32.296
47.82000 31.807
47.84000 26.434
47.86000 25.499
47.88000 18.366
47.90000 12.837
47.92000 12.787
47.94000 16.569
47.96000 17.763
47.98000 14.002
48.00000 16.926
48.02000 14.403
48.04000 15.969
48.06000 15.963
48.08000 16.419
48.10000 16.577
48.12000 13.248
48.14000 13.055
48.16000 10.797
48.18000 9.384
48.20000 14.933
48.22000 8.823
48.24000 5.580
48.26000 4.262
48.28000 8.887
48.30000 10.281
48.32000 11.287
48.34000 10.996
48.36000 9.551
48.38000 3.005
48.40000 8.187
48.42000 7.400
48.44000 10.744
48.46000 7.019
48.48000 6.033
48.50000 7.282
48.52000 7.726
48.54000 1.340
48.56000 0.014
48.58000 -0.841
48.60000 0.633
48.62000 0.988
48.64000 3.770
48.66000 2.424
48.68000 0.749
48.70000 1.362
48.72000 1.172
48.74000 -0.718
48.76000 1.773
48.78000 3.259
48.80000 0.629
48.82000 -0.850
48.84000 0.410
48.86000 3.873
48.88000 4.676
48.90000 4.381
48.92000 -1.020
48.94000 3.012
48.96000 0.090
48.98000 0.313
49.00000 1.856
49.02000 3.271
49.04000 4.969
49.06000 5.821
49.08000 1.927
49.10000 0.436
49.12000 3.961
49.14000 4.446
49.16000 1.331
49.18000 -2.921
49.20000 -0.134
49.22000 3.399
49.24000 2.883
49.26000 2.405
49.28000 2.348
49.30000 5.589
49.32000 3.443
49.34000 1.323
49.36000 -0.329
49.38000 2.773
49.40000 3.779
49.42000 3.843
49.44000 4.386
49.46000 3.183
49.48000 1.327
49.50000 -2.206
49.52000 -1.029
49.54000 0.462
49.56000 -2.291
49.58000 3.266
49.60000 4.453
49.62000 2.270
49.64000 4.182
49.66000 7.592
49.68000 5.962
49.70000 2.093
49.72000 0.168
49.74000 -0.814
49.76000 -2.875
49.78000 0.815
49.80000 4.188
49.82000 4.154
49.84000 -0.300
49.86000 2.725
49.88000 2.341
49.90000 3.179
49.92000 1.591
49.94000 2.890
49.96000 0.939
49.98000 0.068
50.00000 1.596
50.02000 4.650
50.04000 6.242
50.06000 1.171
50.08000 1.096
50.10000 1.866
50.12000 3.809
50.14000 5.072
50.16000 1.905
50.18000 4.273
50.20000 6.590
50.22000 5.163
50.24000 4.614
50.26000 4.079
50.28000 2.322
50.30000 -1.411
50.32000 -2.849
50.34000 0.539
50.36000 2.749
50.38000 2.618
50.40000 0.080
50.42000 3.955
50.44000 5.131
50.46000 2.627
50.48000 6.257
50.50000 4.069
50.52000 -0.333
50.54000 2.092
50.56000 5.622
50.58000 6.897
50.60000 1.442
50.62000 3.698
50.64000 6.620
50.66000 1.453
50.68000 1.165
50.70000 -1.850
50.72000 1.201
50.74000 7.969
50.76000 6.260
50.78000 5.494
50.80000 5.822
50.82000 6.069
50.84000 4.596
50.86000 0.995
50.88000 -2.804
50.90000 -1.803
50.92000 4.859
50.94000 9.195
50.96000 8.655
50.98000 5.453
51.00000 2.682
51.02000 3.877
51.04000 6.835
51.06000 7.355
51.08000 5.967
51.10000 2.578
51.12000 1.369
51.14000 -1.186
51.16000 1.790
51.18000 6.323
51.20000 3.213
51.22000 -0.829
51.24000 2.933
51.26000 4.452
51.28000 -1.294
51.30000 -2.239
51.32000 -1.280
51.34000 4.433
51.36000 5.492
51.38000 4.230
51.40000 0.161
51.42000 3.180
51.44000 0.635
51.46000 -2.295
51.48000 0.499
51.50000 1.470
51.52000 3.288
51.54000 2.778
51.56000 0.633
51.58000 -2.248
51.60000 -1.986
51.62000 1.247
51.64000 -1.212
51.66000 0.744
51.68000 5.852
51.70000 5.148
51.72000 2.912
51.74000 -1.522
51.76000 -0.949
51.78000 0.786
51.80000 4.555
51.82000 4.134
51.84000 2.326
51.86000 2.687
51.88000 0.274
51.90000 -1.820
51.92000 1.434
51.94000 3.751
51.96000 -0.305
51.98000 3.279
52.00000 -1.319
52.02000 2.590
52.04000 2.233
52.06000 1.341
52.08000 2.061
52.10000 2.388
52.12000 4.814
52.14000 4.649
52.16000 2.611
52.18000 0.903
52.20000 3.393
52.22000 -1.067
52.24000 3.970
52.26000 5.831
52.28000 3.545
52.30000 5.805
52.32000 8.387
52.34000 9.888
52.36000 5.703
52.38000 4.559
52.40000 3.343
52.42000 1.831
52.44000 4.128
52.46000 7.823
52.48000 8.293
52.50000 3.623
52.52000 0.974
52.54000 6.356
52.56000 9.209
52.58000 6.512
52.60000 9.364
52.62000 6.210
52.64000 2.808
52.66000 -0.708
52.68000 -2.689
52.70000 2.450
52.72000 4.481
52.74000 3.147
52.76000 6.758
52.78000 2.681
52.80000 0.784
52.82000 -0.459
52.84000 -0.752
52.86000 3.237
52.88000 4.293
52.90000 3.018
52.92000 2.147
52.94000 3.107
52.96000 3.843
52.98000 1.739
53.00000 6.145
53.02000 6.644
53.04000 1.803
53.06000 0.692
53.08000 2.286
53.10000 -0.054
53.12000 1.213
53.14000 6.185
53.16000 0.350
53.18000 3.772
53.20000 4.551
53.22000 3.029
53.24000 1.147
53.26000 4.626
53.28000 4.805
53.30000 3.106
53.32000 3.121
53.34000 1.936
53.36000 0.608
53.38000 2.350
53.40000 3.094
53.42000 2.431
53.44000 2.809
53.46000 5.970
53.48000 4.390
53.50000 4.012
53.52000 3.228
53.54000 1.621
53.56000 4.954
53.58000 2.395
53.60000 1.197
53.62000 1.057
53.64000 -0.156
53.66000 2.339
53.68000 3.575
53.70000 6.073
53.72000 5.158
53.74000 2.038
53.76000 -1.033
53.78000 -1.822
53.80000 4.085
53.82000 7.369
53.84000 6.059
53.86000 1.152
53.88000 1.775
53.90000 4.506
53.92000 2.000
53.94000 5.408
53.96000 3.699
53.98000 0.806
54.00000 0.868
54.02000 0.764
54.04000 4.823
54.06000 4.135
54.08000 5.733
54.10000 4.755
54.12000 4.974
54.14000 -2.003
54.16000 0.628
54.18000 0.936
54.20000 -1.192
54.22000 0.972
54.24000 -1.880
54.26000 -1.170
54.28000 1.103
54.30000 4.930
54.32000 1.996
54.34000 -0.223
54.36000 -2.711
54.38000 1.830
54.40000 4.172
54.42000 3.932
54.44000 5.025
54.46000 2.001
54.48000 -0.316
54.50000 1.836
54.52000 4.563
54.54000 5.447
54.56000 2.180
54.58000 1.441
54.60000 4.441
54.62000 6.079
54.64000 1.445
54.66000 1.586
54.68000 2.106
54.70000 1.313
54.72000 4.509
54.74000 3.045
54.76000 0.155
54.78000 2.751
54.80000 0.437
54.82000 0.823
54.84000 -0.463
54.86000 1.031
54.88000 7.529
54.90000 1.708
54.92000 3.438
54.94000 -2.067
54.96000 2.066
54.98000 5.241
55.00000 8.972
55.02000 4.968
55.04000 0.822
55.06000 2.849
55.08000 7.175
55.10000 2.465
55.12000 -0.107
55.14000 0.871
55.16000 -0.504
55.18000 4.889
55.20000 5.890
55.22000 4.162
55.24000 1.352
55.26000 5.548
55.28000 1.329
55.30000 4.736
55.32000 6.094
55.34000 3.289
55.36000 0.028
55.38000 1.281
55.40000 1.447
55.42000 3.092
55.44000 2.075
55.46000 3.223
55.48000 1.604
55.50000 5.374
55.52000 7.033
55.54000 6.493
55.56000 1.192
55.58000 0.612
55.60000 4.386
55.62000 8.241
55.64000 3.862
55.66000 2.381
55.68000 3.391
55.70000 3.029
55.72000 3.327
55.74000 4.418
55.76000 1.055
55.78000 0.249
55.80000 3.754
55.82000 2.760
55.84000 -2.603
55.86000 1.717
55.88000 3.375
55.90000 6.565
55.92000 8.457
55.94000 6.120
55.96000 3.129
55.98000 7.665
56.00000 7.780
56.02000 3.194
56.04000 3.296
56.06000 8.962
56.08000 4.309
56.10000 7.391
56.12000 6.999
56.14000 11.220
56.16000 10.293
56.18000 5.972
56.20000 4.188
56.22000 3.958
56.24000 5.191
56.26000 6.673
56.28000 9.092
56.30000 3.894
56.32000 6.033
56.34000 6.544
56.36000 3.046
56.38000 0.259
56.40000 3.894
56.42000 6.883
56.44000 9.116
56.46000 4.437
56.48000 4.192
56.50000 4.441
56.52000 6.131
56.54000 4.174
56.56000 -2.578
56.58000 -1.126
56.60000 8.399
56.62000 7.225
56.64000 7.429
56.66000 2.433
56.68000 1.534
56.70000 6.288
56.72000 4.631
56.74000 1.809
56.76000 4.153
56.78000 4.109
56.80000 4.662
56.82000 7.994
56.84000 6.314
56.86000 0.813
56.88000 -0.541
56.90000 3.620
56.92000 7.083
56.94000 7.259
56.96000 6.483
56.98000 2.169
57.00000 4.359
57.02000 5.085
57.04000 0.903
57.06000 2.973
57.08000 0.235
57.10000 4.758
57.12000 4.816
57.14000 5.384
57.16000 4.402
57.18000 3.805
57.20000 1.475
57.22000 3.780
57.24000 6.843
57.26000 7.677
57.28000 7.985
57.30000 11.030
57.32000 11.703
57.34000 5.753
57.36000 2.631
57.38000 3.143
57.40000 3.166
57.42000 2.803
57.44000 1.259
57.46000 1.684
57.48000 7.765
57.50000 5.102
57.52000 2.787
57.54000 0.862
57.56000 5.894
57.58000 1.458
57.60000 0.304
57.62000 -1.190
57.64000 3.133
57.66000 4.053
57.68000 3.566
57.70000 3.060
57.72000 5.356
57.74000 3.233
57.76000 1.317
57.78000 -2.569
57.80000 -0.774
57.82000 4.282
57.84000 5.616
57.86000 1.732
57.88000 4.251
57.90000 4.142
57.92000 2.666
57.94000 3.451
57.96000 5.336
57.98000 4.744
58.00000 5.612
58.02000 9.679
58.04000 5.472
58.06000 2.508
58.08000 -1.028
58.10000 -2.570
58.12000 -0.744
58.14000 2.752
58.16000 -1.595
58.18000 -1.754
58.20000 1.138
58.22000 2.151
58.24000 1.547
58.26000 6.938
58.28000 2.604
58.30000 4.165
58.32000 7.134
58.34000 3.801
58.36000 5.713
58.38000 3.083
58.40000 0.685
58.42000 0.063
58.44000 3.681
58.46000 9.050
58.48000 10.913
58.50000 4.238
58.52000 4.966
58.54000 5.811
58.56000 3.817
58.58000 2.851
58.60000 3.954
58.62000 1.854
58.64000 3.322
58.66000 4.677
58.68000 3.738
58.70000 -2.569
58.72000 -1.530
58.74000 4.443
58.76000 4.296
58.78000 3.671
58.80000 1.095
58.82000 -1.774
58.84000 -0.471
58.86000 0.136
58.88000 -1.691
58.90000 2.541
58.92000 4.739
58.94000 1.301
58.96000 2.809
58.98000 4.886
59.00000 1.427
59.02000 -1.195
59.04000 -1.919
59.06000 -0.779
59.08000 4.034
59.10000 6.872
59.12000 3.330
59.14000 -2.250
59.16000 2.637
59.18000 0.715
59.20000 -1.110
59.22000 -0.050
59.24000 -0.086
59.26000 4.958
59.28000 8.001
59.30000 8.929
59.32000 2.871
59.34000 1.919
59.36000 -0.733
59.38000 2.014
59.40000 2.850
59.42000 2.323
59.44000 1.494
59.46000 0.306
59.48000 1.934
59.50000 -2.557
59.52000 0.149
59.54000 1.613
59.56000 0.261
59.58000 -0.486
59.60000 -0.951
59.62000 0.979
59.64000 3.189
59.66000 2.270
59.68000 3.868
59.70000 3.632
59.72000 1.389
59.74000 1.843
59.76000 2.038
59.78000 2.739
59.80000 -1.416
59.82000 1.183
59.84000 2.087
59.86000 -2.149
59.88000 0.630
59.90000 0.934
59.92000 3.255
59.94000 7.777
59.96000 4.517
59.98000 0.416
60.00000 -0.638
60.02000 3.999
60.04000 3.163
60.06000 4.536
60.08000 2.206
60.10000 0.622
60.12000 -1.059
60.14000 2.709
60.16000 8.172
60.18000 6.157
60.20000 5.613
60.22000 3.477
60.24000 1.365
60.26000 0.228
60.28000 3.415
60.30000 1.479
60.32000 3.413
60.34000 3.581
60.36000 2.354
60.38000 1.591
60.40000 -2.505
60.42000 -0.506
60.44000 0.559
60.46000 2.408
60.48000 4.718
60.50000 3.818
60.52000 5.732
60.54000 8.192
60.56000 7.900
60.58000 5.272
60.60000 4.299
60.62000 3.779
60.64000 2.159
60.66000 3.845
60.68000 0.849
60.70000 -1.703
60.72000 3.277
60.74000 0.443
60.76000 -0.210
60.78000 1.329
60.80000 4.803
60.82000 1.264
60.84000 2.383
60.86000 2.977
60.88000 2.772
60.90000 1.333
60.92000 0.991
60.94000 0.080
60.96000 4.523
60.98000 7.165
61.00000 6.728
61.02000 2.800
61.04000 4.153
61.06000 1.053
61.08000 -1.452
61.10000 -0.341
61.12000 2.714
61.14000 4.770
61.16000 6.944
61.18000 4.380
61.20000 4.306
61.22000 4.653
61.24000 2.254
61.26000 -2.049
61.28000 3.814
61.30000 6.185
61.32000 4.598
61.34000 5.992
61.36000 5.125
61.38000 5.451
61.40000 2.103
61.42000 4.391
61.44000 4.178
61.46000 3.384
61.48000 5.770
61.50000 6.592
61.52000 8.324
61.54000 7.493
61.56000 5.318
61.58000 0.801
61.60000 5.892
61.62000 4.255
61.64000 4.603
61.66000 10.296
61.68000 10.388
61.70000 4.372
61.72000 -2.412
61.74000 -0.245
61.76000 6.910
61.78000 9.534
61.80000 9.223
61.82000 7.787
61.84000 6.362
61.86000 6.030
61.88000 7.272
61.90000 7.499
61.92000 6.223
61.94000 5.152
61.96000 3.843
61.98000 3.554
62.00000 1.032
62.02000 1.783
62.04000 3.985
62.06000 7.330
62.08000 3.240
62.10000 4.344
62.12000 1.570
62.14000 2.005
62.16000 7.700
62.18000 5.413
62.20000 3.020
62.22000 4.358
62.24000 5.815
62.26000 7.036
62.28000 8.112
62.30000 5.410
62.32000 2.143
62.34000 5.432
62.36000 5.844
62.38000 5.945
62.40000 6.131
62.42000 5.073
62.44000 6.162
62.46000 4.819
62.48000 2.294
62.50000 3.740
62.52000 4.751
62.54000 0.764
62.56000 1.653
62.58000 0.494
62.60000 8.024
62.62000 6.068
62.64000 4.502
62.66000 4.078
62.68000 2.892
62.70000 2.446
62.72000 -0.236
62.74000 5.207
62.76000 2.644
62.78000 1.761
62.80000 4.250
62.82000 6.669
62.84000 5.831
62.86000 6.125
62.88000 3.384
62.90000 0.679
62.92000 -0.137
62.94000 -2.443
62.96000 3.806
62.98000 4.040
63.00000 4.125
63.02000 4.862
63.04000 4.730
63.06000 6.546
63.08000 2.914
63.10000 2.400
63.12000 3.768
63.14000 0.035
63.16000 2.645
63.18000 -1.273
63.20000 0.926
63.22000 3.672
63.24000 3.649
63.26000 7.708
63.28000 7.284
63.30000 8.610
63.32000 4.167
63.34000 2.683
63.36000 4.327
63.38000 3.708
63.40000 5.546
63.42000 5.262
63.44000 3.275
63.46000 0.577
63.48000 3.787
63.50000 0.589
63.52000 4.388
63.54000 5.953
63.56000 3.993
63.58000 3.268
63.60000 3.294
63.62000 3.016
63.64000 0.737
63.66000 0.893
63.68000 2.681
63.70000 4.790
63.72000 6.084
63.74000 -0.482
63.76000 1.016
63.78000 -0.920
63.80000 -1.324
63.82000 -1.353
63.84000 4.115
63.86000 3.843
63.88000 2.370
63.90000 1.552
63.92000 4.031
63.94000 2.510
63.96000 0.787
63.98000 2.832
64.00000 3.982
64.02000 1.122
64.04000 1.339
64.06000 4.927
64.08000 4.219
64.10000 2.294
64.12000 3.314
64.14000 3.904
64.16000 0.494
64.18000 3.538
64.20000 5.316
64.22000 3.445
64.24000 0.628
64.26000 2.246
64.28000 3.680
64.30000 5.004
64.32000 4.019
64.34000 1.394
64.36000 1.346
64.38000 3.040
64.40000 5.520
64.42000 7.329
64.44000 4.256
64.46000 4.042
64.48000 1.685
64.50000 5.131
64.52000 3.573
64.54000 2.921
64.56000 3.653
64.58000 4.099
64.60000 2.094
64.62000 1.098
64.64000 2.945
64.66000 1.874
64.68000 -0.621
64.70000 1.751
64.72000 3.253
64.74000 4.833
64.76000 5.114
64.78000 8.408
64.80000 5.434
64.82000 3.738
64.84000 -2.423
64.86000 0.284
64.88000 3.249
64.90000 4.729
64.92000 4.397
64.94000 0.961
64.96000 1.143
64.98000 1.737
65.00000 0.770
65.02000 1.118
65.04000 3.382
65.06000 7.796
65.08000 7.081
65.10000 5.519
65.12000 7.316
65.14000 5.907
65.16000 4.928
65.18000 2.321
65.20000 2.616
65.22000 2.042
65.24000 3.257
65.26000 4.087
65.28000 5.506
65.30000 4.548
65.32000 0.616
65.34000 1.735
65.36000 4.128
65.38000 3.846
65.40000 -0.617
65.42000 1.433
65.44000 2.248
65.46000 1.107
65.48000 2.999
65.50000 1.807
65.52000 1.688
65.54000 3.269
65.56000 2.907
65.58000 1.260
65.60000 2.019
65.62000 -0.544
65.64000 -0.141
65.66000 0.429
65.68000 0.058
65.70000 -0.072
65.72000 -0.080
65.74000 3.902
65.76000 3.559
65.78000 0.283
65.80000 -1.495
65.82000 0.043
65.84000 1.181
65.86000 -0.351
65.88000 0.113
65.90000 0.919
65.92000 3.496
65.94000 4.217
65.96000 0.495
65.98000 -2.498
66.00000 2.413
66.02000 4.285
66.04000 6.057
66.06000 0.368
66.08000 -0.639
66.10000 1.552
66.12000 1.313
66.14000 0.311
66.16000 2.430
66.18000 0.532
66.20000 1.123
66.22000 -0.420
66.24000 -0.175
66.26000 2.594
66.28000 2.044
66.30000 4.029
66.32000 2.700
66.34000 0.550
66.36000 0.849
66.38000 1.485
66.40000 -0.362
66.42000 -0.558
66.44000 0.306
66.46000 3.252
66.48000 2.478
66.50000 -0.648
66.52000 -1.896
66.54000 -2.557
66.56000 -1.377
66.58000 -0.124
66.60000 -2.449
66.62000 -0.343
66.64000 0.010
66.66000 -0.544
66.68000 -1.320
66.70000 -0.107
66.72000 -1.418
66.74000 -0.722
66.76000 -2.575
66.78000 -1.141
66.80000 0.241
66.82000 1.299
66.84000 0.016
66.86000 3.611
66.88000 2.882
66.90000 3.800
66.92000 0.234
66.94000 -1.638
66.96000 0.800
66.98000 -0.287
67.00000 3.570
67.02000 4.966
67.04000 3.707
67.06000 2.529
67.08000 1.168
67.10000 -0.231
67.12000 1.128
67.14000 1.366
67.16000 0.344
67.18000 2.004
67.20000 2.467
67.22000 5.830
67.24000 4.862
67.26000 4.252
67.28000 3.423
67.30000 -0.142
67.32000 1.560
67.34000 2.537
67.36000 4.367
67.38000 4.489
67.40000 2.385
67.42000 7.961
67.44000 7.482
67.46000 8.237
67.48000 10.351
67.50000 8.031
67.52000 10.680
67.54000 7.076
67.56000 9.119
67.58000 9.779
67.60000 10.531
67.62000 9.947
67.64000 8.018
67.66000 8.434
67.68000 9.411
67.70000 13.571
67.72000 11.245
67.74000 9.296
67.76000 11.828
67.78000 13.135
67.80000 14.826
67.82000 14.601
67.84000 17.620
67.86000 16.175
67.88000 15.602
67.90000 15.624
67.92000 10.735
67.94000 10.119
67.96000 17.314
67.98000 20.475
68.00000 22.366
68.02000 19.253
68.04000 17.865
68.06000 15.439
68.08000 12.792
68.10000 15.461
68.12000 18.556
68.14000 17.219
68.16000 18.877
68.18000 17.227
68.20000 12.774
68.22000 17.816
68.24000 21.790
68.26000 21.844
68.28000 19.800
68.30000 18.847
68.32000 20.561
68.34000 22.441
68.36000 23.655
68.38000 26.241
68.40000 23.093
68.42000 22.061
68.44000 22.062
68.46000 25.819
68.48000 26.004
68.50000 24.987
68.52000 20.886
68.54000 23.280
68.56000 22.037
68.58000 21.232
68.60000 21.682
68.62000 23.553
68.64000 26.802
68.66000 23.196
68.68000 16.785
68.70000 18.351
68.72000 19.469
68.74000 20.239
68.76000 20.620
68.78000 17.211
68.80000 15.643
68.82000 15.863
68.84000 16.746
68.86000 19.438
68.88000 19.499
68.90000 18.035
68.92000 14.802
68.94000 13.690
68.96000 15.184
68.98000 12.893
69.00000 13.492
69.02000 16.596
69.04000 13.954
69.06000 12.275
69.08000 11.661
69.10000 8.019
69.12000 10.980
69.14000 8.573
69.16000 9.043
69.18000 6.330
69.20000 6.147
69.22000 8.435
69.24000 9.291
69.26000 6.545
69.28000 6.750
69.30000 6.463
69.32000 5.485
69.34000 9.457
69.36000 7.331
69.38000 7.880
69.40000 8.404
69.42000 8.513
69.44000 3.008
69.46000 2.316
69.48000 6.350
69.50000 9.356
69.52000 10.307
69.54000 8.007
69.56000 4.076
69.58000 0.098
69.60000 2.159
69.62000 6.612
69.64000 9.615
69.66000 5.407
69.68000 4.319
69.70000 1.095
69.72000 -0.465
69.74000 0.209
69.76000 1.899
69.78000 2.998
69.80000 2.472
69.82000 5.989
69.84000 2.478
69.86000 -0.512
69.88000 1.315
69.90000 2.083
69.92000 -0.598
69.94000 0.541
69.96000 -0.211
69.98000 -2.362
70.00000 -1.087
70.02000 2.194
70.04000 2.332
70.06000 2.332
70.08000 2.063
70.10000 3.380
70.12000 5.019
70.14000 4.914
70.16000 1.926
70.18000 0.288
70.20000 -1.877
70.22000 -2.445
70.24000 0.394
70.26000 2.217
70.28000 3.782
70.30000 3.485
70.32000 1.818
70.34000 -0.226
70.36000 -1.487
70.38000 2.055
70.40000 0.638
70.42000 2.410
70.44000 4.739
70.46000 1.904
70.48000 1.293
70.50000 2.696
70.52000 0.690
70.54000 1.132
70.56000 1.718
70.58000 -0.469
70.60000 1.084
70.62000 5.463
70.64000 1.077
70.66000 -2.388
70.68000 1.139
70.70000 2.916
70.72000 5.195
70.74000 5.455
70.76000 3.436
70.78000 1.229
70.80000 3.679
70.82000 7.220
70.84000 9.359
70.86000 4.178
70.88000 -2.381
70.90000 1.048
70.92000 4.045
70.94000 10.017
70.96000 5.573
70.98000 3.600
71.00000 2.623
71.02000 4.370
71.04000 5.036
71.06000 4.710
71.08000 0.755
71.10000 0.389
71.12000 2.287
71.14000 0.285
71.16000 0.055
71.18000 0.264
71.20000 -0.736
71.22000 3.822
71.24000 3.928
71.26000 3.665
71.28000 5.200
71.30000 4.153
71.32000 0.261
71.34000 -0.779
71.36000 -2.356
71.38000 -0.564
71.40000 3.479
71.42000 1.560
71.44000 4.515
71.46000 6.128
71.48000 2.163
71.50000 3.684
71.52000 5.510
71.54000 4.425
71.56000 4.717
71.58000 3.952
71.60000 2.580
71.62000 1.406
71.64000 0.485
71.66000 -0.494
71.68000 1.893
71.70000 1.237
71.72000 -2.285
71.74000 -2.338
71.76000 3.846
71.78000 5.280
71.80000 2.622
71.82000 2.984
71.84000 3.829
71.86000 2.551
71.88000 -1.050
71.90000 2.117
71.92000 1.499
71.94000 5.151
71.96000 2.490
71.98000 2.229
72.00000 -0.134
72.02000 0.325
72.04000 0.922
72.06000 1.589
72.08000 3.778
72.10000 0.260
72.12000 2.149
72.14000 2.144
72.16000 -0.254
72.18000 1.871
72.20000 2.360
72.22000 -0.348
72.24000 2.524
72.26000 5.654
72.28000 4.032
72.30000 1.782
72.32000 2.003
72.34000 4.855
72.36000 4.554
72.38000 2.901
72.40000 3.580
72.42000 4.406
72.44000 -0.128
72.46000 -2.312
72.48000 0.734
72.50000 2.273
72.52000 -0.598
72.54000 1.113
72.56000 4.328
72.58000 5.165
72.60000 6.726
72.62000 8.512
72.64000 6.889
72.66000 0.669
72.68000 3.351
72.70000 6.002
72.72000 3.388
72.74000 2.035
72.76000 -1.137
72.78000 -2.312
72.80000 -0.231
72.82000 2.981
72.84000 6.170
72.86000 8.468
72.88000 4.601
72.90000 1.396
72.92000 1.803
72.94000 3.429
72.96000 -0.847
72.98000 3.245
73.00000 4.685
73.02000 4.039
73.04000 2.296
73.06000 -0.223
73.08000 0.759
73.10000 3.357
73.12000 5.135
73.14000 2.014
73.16000 -0.706
73.18000 1.220
73.20000 1.021
73.22000 3.099
73.24000 0.875
73.26000 3.057
73.28000 4.256
73.30000 1.650
73.32000 -0.698
73.34000 0.440
73.36000 1.269
73.38000 4.292
73.40000 4.471
73.42000 7.286
73.44000 6.705
73.46000 6.222
73.48000 3.239
73.50000 2.374
73.52000 6.495
73.54000 5.235
73.56000 3.960
73.58000 0.455
73.60000 2.293
73.62000 5.670
73.64000 4.451
73.66000 1.974
73.68000 1.930
73.70000 2.733
73.72000 2.937
73.74000 1.858
73.76000 -0.572
73.78000 -1.835
73.80000 0.287
73.82000 3.281
73.84000 5.536
73.86000 4.050
73.88000 5.809
73.90000 8.305
73.92000 4.657
73.94000 4.172
73.96000 5.134
73.98000 8.138
74.00000 5.507
74.02000 1.506
74.04000 -1.905
74.06000 -0.739
74.08000 1.476
74.10000 4.135
74.12000 5.418
74.14000 4.884
74.16000 5.255
74.18000 -2.256
74.20000 -1.637
74.22000 1.965
74.24000 2.606
74.26000 6.082
74.28000 3.781
74.30000 1.665
74.32000 3.860
74.34000 4.885
74.36000 6.829
74.38000 6.320
74.40000 3.882
74.42000 8.175
74.44000 6.020
74.46000 9.650
74.48000 6.605
74.50000 6.402
74.52000 0.035
74.54000 1.354
74.56000 -0.111
74.58000 1.291
74.60000 1.354
74.62000 5.442
74.64000 5.857
74.66000 3.064
74.68000 1.217
74.70000 0.552
74.72000 3.255
74.74000 0.768
74.76000 1.643
74.78000 4.493
74.80000 4.214
74.82000 2.064
74.84000 -2.107
74.86000 1.904
74.88000 3.965
74.90000 8.229
74.92000 2.818
74.94000 0.608
74.96000 0.465
74.98000 1.663
75.00000 3.718
75.02000 0.472
75.04000 0.160
75.06000 -2.282
75.08000 0.990
75.10000 -0.103
75.12000 1.465
75.14000 1.877
75.16000 7.493
75.18000 6.134
75.20000 5.552
75.22000 3.883
75.24000 3.441
75.26000 3.495
75.28000 0.296
75.30000 -1.016
75.32000 1.628
75.34000 7.615
75.36000 4.532
75.38000 2.049
75.40000 1.241
75.42000 -0.363
75.44000 3.511
75.46000 4.245
75.48000 -0.478
75.50000 1.039
75.52000 4.601
75.54000 5.716
75.56000 0.632
75.58000 -0.954
75.60000 -0.291
75.62000 3.090
75.64000 0.202
75.66000 3.396
75.68000 2.623
75.70000 4.298
75.72000 1.845
75.74000 -0.174
75.76000 -0.679
75.78000 3.242
75.80000 2.809
75.82000 8.678
75.84000 7.025
75.86000 1.850
75.88000 1.344
75.90000 3.985
75.92000 4.184
75.94000 5.450
75.96000 1.471
75.98000 2.565
76.00000 -0.480
76.02000 0.002
76.04000 2.684
76.06000 1.331
76.08000 3.075
76.10000 1.763
76.12000 1.277
76.14000 -2.324
76.16000 -1.628
76.18000 0.464
76.20000 2.742
76.22000 1.502
76.24000 0.424
76.26000 4.740
76.28000 4.007
76.30000 1.751
76.32000 1.351
76.34000 0.560
76.36000 1.803
76.38000 2.466
76.40000 3.515
76.42000 0.272
76.44000 -0.454
76.46000 2.713
76.48000 2.993
76.50000 0.994
76.52000 2.964
76.54000 3.103
76.56000 -0.537
76.58000 1.517
76.60000 3.281
76.62000 4.989
76.64000 1.198
76.66000 3.905
76.68000 2.105
76.70000 0.010
76.72000 -1.453
76.74000 -2.183
76.76000 -0.390
76.78000 2.197
76.80000 3.659
76.82000 5.500
76.84000 -1.931
76.86000 -0.223
76.88000 0.603
76.90000 -1.276
76.92000 1.550
76.94000 -0.401
76.96000 -2.033
76.98000 -0.492
77.00000 3.138
77.02000 3.646
77.04000 1.087
77.06000 0.317
77.08000 -1.384
77.10000 3.220
77.12000 5.511
77.14000 0.997
77.16000 -0.927
77.18000 1.687
77.20000 2.951
77.22000 3.313
77.24000 2.930
77.26000 4.717
77.28000 0.967
77.30000 1.400
77.32000 4.328
77.34000 5.335
77.36000 2.800
77.38000 3.636
77.40000 6.596
77.42000 6.577
77.44000 6.761
77.46000 4.856
77.48000 3.694
77.50000 1.939
77.52000 3.873
77.54000 4.588
77.56000 3.696
77.58000 6.323
77.60000 4.021
77.62000 1.634
77.64000 0.500
77.66000 7.180
77.68000 3.221
77.70000 1.082
77.72000 -0.546
77.74000 0.383
77.76000 5.401
77.78000 4.806
77.80000 4.201
77.82000 5.288
77.84000 0.284
77.86000 -2.303
77.88000 3.696
77.90000 2.577
77.92000 -0.338
77.94000 1.747
77.96000 4.675
77.98000 3.503
78.00000 -1.403
78.02000 -1.654
78.04000 2.307
78.06000 5.385
78.08000 2.206
78.10000 0.069
78.12000 1.539
78.14000 1.260
78.16000 1.494
78.18000 5.335
78.20000 7.164
78.22000 4.226
78.24000 2.850
78.26000 2.515
78.28000 5.126
78.30000 4.995
78.32000 0.929
78.34000 -0.804
78.36000 3.348
78.38000 -0.028
78.40000 -2.338
78.42000 -1.238
78.44000 -1.024
78.46000 -0.837
78.48000 -1.188
78.50000 -0.447
78.52000 2.531
78.54000 2.741
78.56000 -0.799
78.58000 2.544
78.60000 2.949
78.62000 5.395
78.64000 8.314
78.66000 2.561
78.68000 1.214
78.70000 3.928
78.72000 3.779
78.74000 2.887
78.76000 1.569
78.78000 1.913
78.80000 0.078
78.82000 -2.353
78.84000 3.812
78.86000 5.354
78.88000 4.652
78.90000 4.649
78.92000 3.673
78.94000 1.591
78.96000 -2.104
78.98000 -2.355
79.00000 -1.529
79.02000 2.112
79.04000 0.901
79.06000 3.195
79.08000 7.398
79.10000 2.694
79.12000 2.040
79.14000 -0.327
79.16000 -0.771
79.18000 1.556
79.20000 0.004
79.22000 1.005
79.24000 0.682
79.26000 -0.021
79.28000 0.268
79.30000 4.828
79.32000 2.145
79.34000 1.052
79.36000 3.344
79.38000 2.013
79.40000 3.028
79.42000 3.079
79.44000 1.724
79.46000 2.348
79.48000 1.555
79.50000 2.651
79.52000 2.562
79.54000 4.453
79.56000 8.123
79.58000 5.654
79.60000 -0.918
79.62000 -0.042
79.64000 1.786
79.66000 0.870
79.68000 3.814
79.70000 5.101
79.72000 4.185
79.74000 4.575
79.76000 3.067
79.78000 7.402
79.80000 4.263
79.82000 3.267
79.84000 3.280
79.86000 5.165
79.88000 1.139
79.90000 -0.034
79.92000 3.060
79.94000 -0.371
79.96000 2.172
79.98000 2.837
80.00000 5.003
80.02000 3.385
80.04000 5.216
80.06000 4.911
80.08000 2.482
80.10000 -0.558
80.12000 -2.393
80.14000 5.697
80.16000 4.658
80.18000 8.045
80.20000 5.890
80.22000 3.448
80.24000 0.699
80.26000 4.807
80.28000 2.446
80.30000 3.693
80.32000 3.470
80.34000 1.564
80.36000 0.879
80.38000 1.076
80.40000 -0.067
80.42000 1.098
80.44000 5.255
80.46000 2.776
80.48000 6.511
80.50000 3.084
80.52000 0.644
80.54000 -1.610
80.56000 1.817
80.58000 1.532
80.60000 1.286
80.62000 -0.901
80.64000 2.407
80.66000 2.798
80.68000 3.243
80.70000 4.265
80.72000 1.327
80.74000 2.465
80.76000 2.041
80.78000 3.701
80.80000 3.796
80.82000 3.025
80.84000 3.861
80.86000 3.000
80.88000 3.092
80.90000 6.237
80.92000 8.300
80.94000 5.758
80.96000 5.437
80.98000 1.319
81.00000 0.838
81.02000 4.532
81.04000 6.510
81.06000 8.054
81.08000 7.772
81.10000 4.528
81.12000 8.011
81.14000 4.026
81.16000 2.620
81.18000 6.250
81.20000 5.227
81.22000 4.256
81.24000 3.214
81.26000 1.713
81.28000 2.481
81.30000 3.584
81.32000 3.931
81.34000 3.535
81.36000 2.502
81.38000 3.284
81.40000 7.117
81.42000 8.297
81.44000 8.577
81.46000 3.856
81.48000 7.119
81.50000 9.555
81.52000 11.560
81.54000 10.995
81.56000 10.424
81.58000 15.490
81.60000 12.560
81.62000 12.907
81.64000 7.460
81.66000 8.562
81.68000 11.258
81.70000 10.632
81.72000 8.866
81.74000 11.922
81.76000 15.836
81.78000 16.870
81.80000 18.849
81.82000 16.961
81.84000 13.219
81.86000 13.441
81.88000 16.540
81.90000 17.183
81.92000 16.067
81.94000 21.292
81.96000 20.547
81.98000 18.639
82.00000 16.142
82.02000 16.092
82.04000 12.969
82.06000 17.357
82.08000 17.596
82.10000 15.445
82.12000 21.389
82.14000 25.007
82.16000 24.619
82.18000 26.842
82.20000 31.846
82.22000 28.335
82.24000 17.248
82.26000 20.783
82.28000 22.371
82.30000 20.472
82.32000 24.209
82.34000 25.075
82.36000 25.305
82.38000 24.711
82.40000 22.882
82.42000 19.508
82.44000 25.982
82.46000 24.370
82.48000 22.693
82.50000 20.733
82.52000 24.547
82.54000 23.413
82.56000 25.422
82.58000 24.311
82.60000 24.225
82.62000 28.346
82.64000 26.313
82.66000 30.272
82.68000 27.782
82.70000 26.006
82.72000 27.156
82.74000 27.262
82.76000 31.287
82.78000 26.428
82.80000 28.444
82.82000 30.479
82.84000 31.986
82.86000 24.138
82.88000 24.498
82.90000 26.242
82.92000 29.504
82.94000 21.812
82.96000 19.116
82.98000 24.148
83.00000 25.895
83.02000 28.173
83.04000 24.274
83.06000 19.328
83.08000 22.770
83.10000 19.722
83.12000 20.684
83.14000 24.085
83.16000 26.373
83.18000 21.593
83.20000 21.871
83.22000 21.445
83.24000 19.209
83.26000 18.261
83.28000 14.538
83.30000 17.532
83.32000 15.939
83.34000 16.162
83.36000 14.165
83.38000 12.205
83.40000 14.888
83.42000 14.131
83.44000 11.223
83.46000 15.091
83.48000 10.632
83.50000 9.055
83.52000 11.841
83.54000 9.357
83.56000 11.207
83.58000 10.991
83.60000 4.996
83.62000 5.818
83.64000 9.838
83.66000 2.836
83.68000 4.331
83.70000 9.004
83.72000 10.765
83.74000 8.266
83.76000 6.807
83.78000 9.387
83.80000 12.003
83.82000 9.010
83.84000 7.402
83.86000 9.382
83.88000 8.989
83.90000 9.239
83.92000 8.627
83.94000 6.810
83.96000 5.936
83.98000 8.963
84.00000 5.146
84.02000 3.342
84.04000 5.272
84.06000 6.169
84.08000 4.237
84.10000 9.387
84.12000 11.372
84.14000 8.864
84.16000 7.457
84.18000 3.603
84.20000 5.371
84.22000 5.304
84.24000 4.728
84.26000 0.397
84.28000 1.853
84.30000 2.245
84.32000 0.355
84.34000 -0.971
84.36000 -2.452
84.38000 -0.357
84.40000 -0.887
84.42000 2.269
84.44000 1.790
84.46000 3.858
84.48000 2.553
84.50000 2.818
84.52000 7.790
84.54000 4.415
84.56000 5.817
84.58000 8.646
84.60000 6.537
84.62000 3.302
84.64000 4.635
84.66000 5.906
84.68000 7.359
84.70000 8.814
84.72000 7.594
84.74000 6.939
84.76000 1.300
84.78000 0.739
84.80000 -0.001
84.82000 -0.426
84.84000 -1.244
84.86000 2.443
84.88000 -1.828
84.90000 -1.618
84.92000 2.270
84.94000 5.730
84.96000 3.797
84.98000 3.318
85.00000 4.451
85.02000 3.260
85.04000 0.898
85.06000 1.703
85.08000 4.155
85.10000 4.579
85.12000 6.603
85.14000 6.098
85.16000 3.005
85.18000 0.333
85.20000 -0.182
85.22000 3.137
85.24000 3.630
85.26000 3.423
85.28000 4.348
85.30000 6.234
85.32000 8.475
85.34000 5.017
85.36000 4.293
85.38000 1.944
85.40000 0.513
85.42000 -2.332
85.44000 -1.151
85.46000 4.364
85.48000 9.752
85.50000 7.019
85.52000 7.594
85.54000 4.413
85.56000 1.697
85.58000 2.805
85.60000 6.854
85.62000 9.112
85.64000 5.940
85.66000 7.050
85.68000 4.252
85.70000 1.632
85.72000 3.103
85.74000 2.175
85.76000 4.092
85.78000 4.576
85.80000 2.428
85.82000 10.740
85.84000 7.664
85.86000 6.256
85.88000 7.806
85.90000 6.464
85.92000 6.372
85.94000 5.159
85.96000 4.380
85.98000 2.736
86.00000 7.048
86.02000 7.038
86.04000 7.284
86.06000 6.862
86.08000 8.321
86.10000 4.809
86.12000 8.070
86.14000 10.868
86.16000 8.438
86.18000 5.668
86.20000 8.451
86.22000 12.899
86.24000 10.897
86.26000 14.170
86.28000 13.606
86.30000 16.492
86.32000 16.529
86.34000 12.558
86.36000 13.021
86.38000 15.033
86.40000 13.100
86.42000 11.986
86.44000 10.465
86.46000 11.277
86.48000 10.469
86.50000 11.772
86.52000 14.295
86.54000 11.252
86.56000 12.108
86.58000 16.372
86.60000 18.398
86.62000 15.929
86.64000 17.174
86.66000 18.857
86.68000 19.368
86.70000 17.481
86.72000 16.446
86.74000 17.351
86.76000 12.628
86.78000 16.101
86.80000 18.859
86.82000 18.732
86.84000 16.773
86.86000 17.295
86.88000 12.414
86.90000 17.232
86.92000 20.081
86.94000 17.827
86.96000 19.335
86.98000 18.931
87.00000 21.052
87.02000 17.730
87.04000 17.448
87.06000 11.688
87.08000 13.011
87.10000 17.990
87.12000 21.391
87.14000 19.617
87.16000 12.447
87.18000 12.654
87.20000 14.379
87.22000 15.093
87.24000 17.678
87.26000 21.026
87.28000 19.804
87.30000 18.212
87.32000 18.039
87.34000 16.450
87.36000 15.344
87.38000 17.704
87.40000 18.217
87.42000 16.668
87.44000 17.202
87.46000 16.235
87.48000 17.299
87.50000 14.094
87.52000 14.068
87.54000 10.543
87.56000 13.199
87.58000 13.093
87.60000 11.671
87.62000 9.373
87.64000 10.691
87.66000 14.918
87.68000 13.631
87.70000 11.111
87.72000 7.009
87.74000 7.198
87.76000 9.623
87.78000 11.263
87.80000 9.879
87.82000 5.524
87.84000 7.339
87.86000 7.442
87.88000 5.599
87.90000 4.828
87.92000 9.181
87.94000 7.636
87.96000 5.280
87.98000 4.824
88.00000 3.118
88.02000 3.413
88.04000 4.330
88.06000 5.302
88.08000 10.697
88.10000 8.234
88.12000 4.198
88.14000 8.523
88.16000 6.528
88.18000 5.531
88.20000 6.422
88.22000 -0.406
88.24000 1.241
88.26000 0.687
88.28000 -2.277
88.30000 2.874
88.32000 4.183
88.34000 7.161
88.36000 4.154
88.38000 2.599
88.40000 3.086
88.42000 1.355
88.44000 5.385
88.46000 2.988
88.48000 0.039
88.50000 1.008
88.52000 6.956
88.54000 3.651
88.56000 -0.513
88.58000 4.023
88.60000 6.838
88.62000 6.936
88.64000 -2.250
88.66000 -0.124
88.68000 2.742
88.70000 3.563
88.72000 8.637
88.74000 9.722
88.76000 3.638
88.78000 2.068
88.80000 1.597
88.82000 1.458
88.84000 0.564
88.86000 2.327
88.88000 4.509
88.90000 -0.571
88.92000 4.209
88.94000 4.320
88.96000 2.516
88.98000 -0.389
89.00000 0.189
89.02000 -1.661
89.04000 -2.225
89.06000 3.888
89.08000 2.663
89.10000 1.081
89.12000 5.361
89.14000 5.441
89.16000 -0.929
89.18000 -0.750
89.20000 2.590
89.22000 2.092
89.24000 3.695
89.26000 2.930
89.28000 0.043
89.30000 0.617
89.32000 2.314
89.34000 0.743
89.36000 -1.198
89.38000 -0.035
89.40000 2.044
89.42000 1.939
89.44000 3.470
89.46000 0.396
89.48000 -0.657
89.50000 -2.107
89.52000 0.989
89.54000 0.814
89.56000 1.032
89.58000 0.423
89.60000 -0.784
89.62000 1.119
89.64000 1.375
89.66000 0.097
89.68000 1.210
89.70000 5.309
89.72000 3.933
89.74000 -0.565
89.76000 -2.183
89.78000 1.374
89.80000 3.975
89.82000 8.148
89.84000 4.488
89.86000 3.295
89.88000 3.941
89.90000 4.174
89.92000 0.377
89.94000 -1.482
89.96000 0.042
89.98000 1.716
90.00000 2.145
90.02000 1.459
90.04000 0.736
90.06000 4.759
90.08000 8.984
90.10000 6.051
90.12000 6.789
90.14000 6.678
90.16000 7.215
90.18000 5.261
90.20000 2.840
90.22000 4.020
90.24000 3.662
90.26000 3.578
90.28000 1.920
90.30000 3.760
90.32000 3.680
90.34000 0.512
90.36000 -2.135
90.38000 1.456
90.40000 3.265
90.42000 7.912
90.44000 8.263
90.46000 9.642
90.48000 4.686
90.50000 4.218
90.52000 1.074
90.54000 1.528
90.56000 8.612
90.58000 9.013
90.60000 5.606
90.62000 5.067
90.64000 6.190
90.66000 4.428
90.68000 0.871
90.70000 4.168
90.72000 7.543
90.74000 2.576
90.76000 6.590
90.78000 7.095
90.80000 9.282
90.82000 6.130
90.84000 0.585
90.86000 4.933
90.88000 8.679
90.90000 7.557
90.92000 8.557
90.94000 2.884
90.96000 1.844
90.98000 3.808
91.00000 -0.613
91.02000 -1.485
91.04000 1.708
91.06000 -2.152
91.08000 -1.146
91.10000 2.317
91.12000 2.771
91.14000 1.021
91.16000 2.619
91.18000 1.712
91.20000 -0.051
91.22000 0.567
91.24000 2.785
91.26000 5.238
91.28000 7.282
91.30000 5.848
91.32000 -2.149
91.34000 -1.568
91.36000 4.999
91.38000 4.070
91.40000 1.049
91.42000 -0.362
91.44000 2.163
91.46000 2.683
91.48000 2.196
91.50000 3.256
91.52000 5.608
91.54000 6.851
91.56000 7.025
91.58000 6.111
91.60000 2.949
91.62000 4.111
91.64000 3.364
91.66000 4.643
91.68000 3.938
91.70000 2.035
91.72000 -0.741
91.74000 -2.167
91.76000 0.359
91.78000 0.319
91.80000 5.755
91.82000 2.266
91.84000 1.791
91.86000 2.247
91.88000 0.396
91.90000 3.760
91.92000 1.048
91.94000 3.238
91.96000 7.365
91.98000 4.974
92.00000 2.271
92.02000 3.136
92.04000 1.125
92.06000 1.688
92.08000 1.109
92.10000 2.870
92.12000 -1.199
92.14000 3.145
92.16000 1.638
92.18000 3.235
92.20000 -1.419
92.22000 3.768
92.24000 3.296
92.26000 -2.182
92.28000 0.335
92.30000 3.266
92.32000 4.218
92.34000 2.889
92.36000 3.843
92.38000 1.852
92.40000 2.932
92.42000 4.906
92.44000 -2.190
92.46000 1.563
92.48000 8.243
92.50000 6.149
92.52000 1.860
92.54000 3.034
92.56000 3.123
92.58000 2.043
92.60000 -0.405
92.62000 0.580
92.64000 -1.332
92.66000 0.147
92.68000 0.065
92.70000 2.626
92.72000 6.449
92.74000 5.054
92.76000 0.308
92.78000 2.517
92.80000 0.714
92.82000 2.395
92.84000 4.977
92.86000 6.394
92.88000 4.008
92.90000 6.014
92.92000 4.408
92.94000 2.722
92.96000 5.174
92.98000 2.880
93.00000 1.938
93.02000 4.256
93.04000 2.275
93.06000 -1.341
93.08000 2.266
93.10000 4.507
93.12000 -2.205
93.14000 1.510
93.16000 -0.114
93.18000 -0.157
93.20000 -1.521
93.22000 2.857
93.24000 9.076
93.26000 3.798
93.28000 3.164
93.30000 1.858
93.32000 5.125
93.34000 1.682
93.36000 3.621
93.38000 2.101
93.40000 3.265
93.42000 4.794
93.44000 5.534
93.46000 4.373
93.48000 4.217
93.50000 0.890
93.52000 3.940
93.54000 2.856
93.56000 -1.086
93.58000 3.332
93.60000 4.534
93.62000 0.944
93.64000 -1.158
93.66000 0.912
93.68000 0.640
93.70000 3.467
93.72000 3.496
93.74000 -1.151
93.76000 -0.856
93.78000 0.974
93.80000 2.254
93.82000 0.214
93.84000 3.858
93.86000 0.743
93.88000 0.859
93.90000 3.116
93.92000 -1.270
93.94000 -0.598
93.96000 2.939
93.98000 2.407
94.00000 8.458
94.02000 7.010
94.04000 3.993
94.06000 3.217
94.08000 3.166
94.10000 0.770
94.12000 2.932
94.14000 3.998
94.16000 1.584
94.18000 1.554
94.20000 4.032
94.22000 0.255
94.24000 0.474
94.26000 1.960
94.28000 6.310
94.30000 2.138
94.32000 -0.506
94.34000 1.001
94.36000 4.047
94.38000 2.474
94.40000 1.417
94.42000 0.420
94.44000 0.715
94.46000 2.507
94.48000 7.238
94.50000 3.705
94.52000 1.846
94.54000 7.902
94.56000 5.716
94.58000 4.682
94.60000 4.695
94.62000 4.163
94.64000 3.153
94.66000 2.967
94.68000 5.325
94.70000 5.733
94.72000 4.339
94.74000 -0.820
94.76000 -2.158
94.78000 3.802
94.80000 5.987
94.82000 3.989
94.84000 1.584
94.86000 3.904
94.88000 10.172
94.90000 11.589
94.92000 11.095
94.94000 6.626
94.96000 6.755
94.98000 4.551
95.00000 -0.099
95.02000 4.496
95.04000 0.425
95.06000 -0.160
95.08000 3.456
95.10000 7.541
95.12000 4.408
95.14000 2.254
95.16000 6.020
95.18000 6.749
95.20000 3.171
95.22000 3.444
95.24000 4.042
95.26000 6.178
95.28000 2.870
95.30000 2.332
95.32000 -0.260
95.34000 -1.304
95.36000 -0.266
95.38000 5.293
95.40000 3.941
95.42000 5.300
95.44000 0.922
95.46000 1.626
95.48000 2.719
95.50000 3.192
95.52000 2.250
95.54000 5.717
95.56000 5.419
95.58000 3.041
95.60000 4.870
95.62000 4.193
95.64000 0.884
95.66000 -0.145
95.68000 -0.478
95.70000 5.648
95.72000 6.440
95.74000 9.734
95.76000 8.766
95.78000 7.515
95.80000 9.061
95.82000 10.295
95.84000 3.937
95.86000 4.703
95.88000 3.955
95.90000 6.745
95.92000 2.402
95.94000 3.249
95.96000 3.790
95.98000 2.161
96.00000 3.559
96.02000 3.976
96.04000 0.988
96.06000 -0.386
96.08000 2.601
96.10000 5.699
96.12000 0.761
96.14000 7.771
96.16000 6.655
96.18000 3.320
96.20000 3.053
96.22000 3.374
96.24000 1.869
96.26000 4.044
96.28000 3.349
96.30000 5.739
96.32000 6.995
96.34000 1.681
96.36000 4.945
96.38000 3.535
96.40000 6.644
96.42000 4.866
96.44000 1.137
96.46000 0.469
96.48000 4.279
96.50000 6.129
96.52000 3.355
96.54000 5.249
96.56000 7.425
96.58000 5.962
96.60000 6.785
96.62000 5.176
96.64000 5.084
96.66000 6.933
96.68000 4.622
96.70000 2.859
96.72000 -0.775
96.74000 0.499
96.76000 3.737
96.78000 3.021
96.80000 -2.164
96.82000 -1.176
96.84000 9.102
96.86000 8.381
96.88000 2.983
96.90000 1.993
96.92000 7.969
96.94000 4.524
96.96000 5.214
96.98000 9.232
97.00000 4.729
97.02000 3.867
97.04000 -1.361
97.06000 4.468
97.08000 1.172
97.10000 -1.319
97.12000 3.166
97.14000 6.681
97.16000 10.466
97.18000 4.035
97.20000 -0.351
97.22000 -0.385
97.24000 3.967
97.26000 3.834
97.28000 2.940
97.30000 7.480
97.32000 6.066
97.34000 8.122
97.36000 8.949
97.38000 6.915
97.40000 2.225
97.42000 3.052
97.44000 2.848
97.46000 1.691
97.48000 7.326
97.50000 5.650
97.52000 11.715
97.54000 8.402
97.56000 10.184
97.58000 11.262
97.60000 11.095
97.62000 7.215
97.64000 7.029
97.66000 2.792
97.68000 1.448
97.70000 6.478
97.72000 4.166
97.74000 6.998
97.76000 15.259
97.78000 6.780
97.80000 1.367
97.82000 4.678
97.84000 5.562
97.86000 9.746
97.88000 12.622
97.90000 6.343
97.92000 6.989
97.94000 3.753
97.96000 0.162
97.98000 4.239
98.00000 8.014
98.02000 12.289
98.04000 15.825
98.06000 11.078
98.08000 2.917
98.10000 7.354
98.12000 12.400
98.14000 13.762
98.16000 4.183
98.18000 -2.091
98.20000 5.144
98.22000 9.166
98.24000 2.489
98.26000 4.332
98.28000 0.611
98.30000 6.045
98.32000 1.732
98.34000 0.947
98.36000 12.399
98.38000 13.860
98.40000 10.202
98.42000 5.718
98.44000 1.709
98.46000 3.441
98.48000 3.464
98.50000 2.491
98.52000 1.244
98.54000 8.685
98.56000 9.426
98.58000 5.817
98.60000 8.042
98.62000 3.929
98.64000 11.428
98.66000 21.862
98.68000 17.475
98.70000 7.219
98.72000 6.475
98.74000 5.280
98.76000 5.601
98.78000 5.495
98.80000 8.003
98.82000 8.686
98.84000 5.780
98.86000 7.530
98.88000 6.608
98.90000 1.876
98.92000 -0.788
98.94000 4.381
98.96000 14.838
98.98000 6.345
99.00000 11.112
99.02000 10.337
99.04000 6.177
99.06000 2.944
99.08000 2.599
99.10000 -1.166
99.12000 -2.096
99.14000 3.459
99.16000 7.102
99.18000 4.902
99.20000 9.211
99.22000 2.591
99.24000 3.757
99.26000 2.023
99.28000 9.401
99.30000 9.477
99.32000 4.381
99.34000 7.820
99.36000 4.752
99.38000 2.838
99.40000 3.774
99.42000 4.601
99.44000 1.563
99.46000 1.544
99.48000 2.391
99.50000 3.831
99.52000 8.159
99.54000 2.127
99.56000 0.682
99.58000 -0.380
99.60000 7.161
99.62000 6.456
99.64000 7.071
99.66000 1.459
99.68000 1.269
99.70000 7.842
99.72000 6.424
99.74000 8.139
99.76000 13.949
99.78000 7.008
99.80000 5.129
99.82000 10.490
99.84000 1.752
99.86000 5.078
99.88000 4.658
99.90000 -2.195
99.92000 0.950
99.94000 1.025
99.96000 -2.302
99.98000 0.000
