'Id: "0011387" Comment: "Integrate frame 0011387_Au-Ir-Rh_Rh-rich_XRD-Mapping-205-0000.gfrmwith cursor Wedge Cursor #5" Operator: "B?rgel" Anode: "Cu" Wavelength: "1.5406" Scantype: "2Theta (TwoTheta)" TimePerStep: "1" X: "-18" Y: "9" Z: "5.95" 
10.00000 0.000
10.02000 2.025
10.04000 0.520
10.06000 15.080
10.08000 24.845
10.10000 17.627
10.12000 12.901
10.14000 15.322
10.16000 3.189
10.18000 8.443
10.20000 -4.341
10.22000 -3.861
10.24000 6.583
10.26000 20.976
10.28000 26.842
10.30000 22.244
10.32000 11.774
10.34000 13.446
10.36000 1.927
10.38000 2.603
10.40000 14.146
10.42000 21.168
10.44000 11.770
10.46000 -3.253
10.48000 9.200
10.50000 9.963
10.52000 0.188
10.54000 3.466
10.56000 11.991
10.58000 33.919
10.60000 10.769
10.62000 -6.797
10.64000 11.870
10.66000 20.258
10.68000 0.496
10.70000 6.023
10.72000 8.169
10.74000 25.863
10.76000 13.204
10.78000 7.249
10.80000 25.644
10.82000 11.344
10.84000 4.349
10.86000 21.687
10.88000 16.350
10.90000 5.841
10.92000 12.634
10.94000 24.031
10.96000 15.491
10.98000 15.413
11.00000 8.255
11.02000 10.134
11.04000 16.776
11.06000 5.785
11.08000 4.091
11.10000 10.952
11.12000 8.982
11.14000 7.574
11.16000 7.902
11.18000 9.298
11.20000 12.149
11.22000 13.442
11.24000 9.041
11.26000 15.292
11.28000 12.408
11.30000 12.438
11.32000 0.571
11.34000 1.297
11.36000 11.539
11.38000 6.235
11.40000 14.740
11.42000 7.638
11.44000 -0.038
11.46000 2.604
11.48000 -1.722
11.50000 9.870
11.52000 11.681
11.54000 7.072
11.56000 6.878
11.58000 0.039
11.60000 8.425
11.62000 19.367
11.64000 18.554
11.66000 20.002
11.68000 21.030
11.70000 18.920
11.72000 7.840
11.74000 14.213
11.76000 14.559
11.78000 14.485
11.80000 20.293
11.82000 15.968
11.84000 3.614
11.86000 1.599
11.88000 -4.407
11.90000 2.906
11.92000 29.314
11.94000 36.348
11.96000 20.782
11.98000 17.128
12.00000 12.985
12.02000 7.857
12.04000 13.068
12.06000 24.588
12.08000 24.748
12.10000 22.802
12.12000 7.662
12.14000 12.471
12.16000 15.720
12.18000 14.375
12.20000 12.708
12.22000 9.676
12.24000 2.523
12.26000 11.006
12.28000 14.837
12.30000 9.496
12.32000 11.937
12.34000 14.845
12.36000 21.843
12.38000 22.827
12.40000 24.305
12.42000 21.652
12.44000 17.572
12.46000 15.787
12.48000 21.812
12.50000 16.367
12.52000 9.069
12.54000 7.446
12.56000 11.190
12.58000 8.549
12.60000 12.997
12.62000 15.079
12.64000 12.578
12.66000 17.745
12.68000 20.560
12.70000 17.132
12.72000 19.574
12.74000 23.737
12.76000 12.271
12.78000 13.460
12.80000 18.671
12.82000 23.133
12.84000 21.841
12.86000 21.921
12.88000 10.741
12.90000 -4.411
12.92000 5.234
12.94000 14.608
12.96000 11.976
12.98000 11.769
13.00000 4.408
13.02000 6.260
13.04000 12.040
13.06000 4.838
13.08000 18.327
13.10000 19.353
13.12000 11.205
13.14000 12.945
13.16000 18.582
13.18000 19.257
13.20000 23.529
13.22000 22.896
13.24000 16.090
13.26000 8.237
13.28000 18.824
13.30000 19.254
13.32000 16.395
13.34000 12.303
13.36000 12.695
13.38000 24.180
13.40000 27.850
13.42000 15.620
13.44000 25.437
13.46000 20.636
13.48000 18.743
13.50000 22.555
13.52000 13.015
13.54000 9.028
13.56000 8.603
13.58000 14.697
13.60000 9.262
13.62000 17.190
13.64000 16.139
13.66000 10.592
13.68000 4.474
13.70000 4.290
13.72000 9.733
13.74000 18.116
13.76000 21.371
13.78000 21.530
13.80000 18.157
13.82000 5.146
13.84000 12.231
13.86000 6.321
13.88000 9.282
13.90000 11.148
13.92000 5.804
13.94000 5.181
13.96000 7.624
13.98000 11.178
14.00000 21.582
14.02000 19.970
14.04000 11.813
14.06000 11.181
14.08000 11.457
14.10000 5.321
14.12000 5.551
14.14000 12.614
14.16000 20.670
14.18000 7.065
14.20000 8.518
14.22000 19.243
14.24000 21.244
14.26000 18.315
14.28000 11.995
14.30000 6.049
14.32000 9.586
14.34000 16.019
14.36000 4.214
14.38000 7.958
14.40000 14.172
14.42000 12.844
14.44000 11.314
14.46000 7.851
14.48000 9.790
14.50000 8.366
14.52000 15.758
14.54000 13.795
14.56000 14.489
14.58000 16.778
14.60000 16.723
14.62000 4.779
14.64000 10.132
14.66000 4.003
14.68000 15.352
14.70000 17.112
14.72000 6.449
14.74000 7.468
14.76000 11.270
14.78000 16.275
14.80000 11.150
14.82000 7.084
14.84000 9.843
14.86000 6.741
14.88000 11.076
14.90000 13.799
14.92000 16.735
14.94000 14.999
14.96000 10.991
14.98000 5.261
15.00000 4.450
15.02000 7.668
15.04000 8.956
15.06000 10.979
15.08000 12.539
15.10000 1.732
15.12000 -4.439
15.14000 5.681
15.16000 9.433
15.18000 5.107
15.20000 4.709
15.22000 7.834
15.24000 6.765
15.26000 12.341
15.28000 13.030
15.30000 10.059
15.32000 9.037
15.34000 9.848
15.36000 4.367
15.38000 15.096
15.40000 8.921
15.42000 4.408
15.44000 7.624
15.46000 10.431
15.48000 13.675
15.50000 7.300
15.52000 3.921
15.54000 3.939
15.56000 9.421
15.58000 10.524
15.60000 12.658
15.62000 11.097
15.64000 7.784
15.66000 11.368
15.68000 16.517
15.70000 11.323
15.72000 -1.769
15.74000 8.173
15.76000 4.725
15.78000 8.604
15.80000 8.339
15.82000 7.885
15.84000 15.768
15.86000 10.639
15.88000 4.739
15.90000 5.353
15.92000 9.491
15.94000 9.229
15.96000 11.638
15.98000 3.368
16.00000 0.759
16.02000 10.124
16.04000 7.268
16.06000 3.584
16.08000 6.302
16.10000 13.547
16.12000 13.064
16.14000 9.289
16.16000 6.319
16.18000 8.133
16.20000 3.541
16.22000 13.056
16.24000 15.927
16.26000 16.364
16.28000 4.578
16.30000 -1.282
16.32000 3.671
16.34000 1.728
16.36000 -4.372
16.38000 7.328
16.40000 7.224
16.42000 8.709
16.44000 7.750
16.46000 14.929
16.48000 7.773
16.50000 4.278
16.52000 5.834
16.54000 4.627
16.56000 3.736
16.58000 14.784
16.60000 12.757
16.62000 18.562
16.64000 11.805
16.66000 17.945
16.68000 11.827
16.70000 7.058
16.72000 4.894
16.74000 10.886
16.76000 7.916
16.78000 0.168
16.80000 -1.021
16.82000 5.083
16.84000 -4.350
16.86000 1.953
16.88000 3.081
16.90000 8.745
16.92000 12.003
16.94000 13.018
16.96000 16.757
16.98000 16.004
17.00000 15.204
17.02000 18.232
17.04000 14.155
17.06000 7.067
17.08000 -0.306
17.10000 6.700
17.12000 8.973
17.14000 5.611
17.16000 3.239
17.18000 5.027
17.20000 3.232
17.22000 6.465
17.24000 4.506
17.26000 5.358
17.28000 13.177
17.30000 11.212
17.32000 13.438
17.34000 1.112
17.36000 4.302
17.38000 -0.028
17.40000 3.432
17.42000 7.034
17.44000 0.730
17.46000 0.351
17.48000 4.541
17.50000 8.092
17.52000 5.932
17.54000 12.840
17.56000 10.188
17.58000 7.402
17.60000 14.199
17.62000 6.702
17.64000 0.882
17.66000 13.105
17.68000 3.891
17.70000 0.248
17.72000 5.671
17.74000 9.917
17.76000 -1.422
17.78000 7.782
17.80000 17.814
17.82000 9.706
17.84000 11.310
17.86000 7.322
17.88000 9.284
17.90000 2.481
17.92000 2.186
17.94000 4.631
17.96000 8.453
17.98000 8.382
18.00000 5.248
18.02000 2.907
18.04000 -1.091
18.06000 4.080
18.08000 4.371
18.10000 -1.952
18.12000 -2.055
18.14000 -1.140
18.16000 -0.590
18.18000 -3.373
18.20000 1.797
18.22000 6.196
18.24000 8.172
18.26000 11.426
18.28000 0.916
18.30000 -2.499
18.32000 3.050
18.34000 4.403
18.36000 2.240
18.38000 1.859
18.40000 0.152
18.42000 -0.287
18.44000 6.151
18.46000 6.589
18.48000 7.023
18.50000 6.740
18.52000 2.131
18.54000 10.617
18.56000 4.189
18.58000 -1.527
18.60000 0.589
18.62000 5.307
18.64000 1.111
18.66000 7.230
18.68000 2.561
18.70000 2.520
18.72000 4.776
18.74000 3.625
18.76000 7.410
18.78000 9.526
18.80000 7.585
18.82000 9.037
18.84000 12.552
18.86000 6.479
18.88000 6.975
18.90000 0.168
18.92000 0.840
18.94000 8.021
18.96000 14.002
18.98000 5.672
19.00000 -2.138
19.02000 -4.281
19.04000 0.778
19.06000 8.529
19.08000 9.495
19.10000 2.717
19.12000 0.662
19.14000 2.454
19.16000 4.929
19.18000 3.897
19.20000 3.584
19.22000 4.881
19.24000 -3.604
19.26000 -2.052
19.28000 3.290
19.30000 -0.808
19.32000 2.216
19.34000 8.765
19.36000 5.031
19.38000 3.505
19.40000 4.415
19.42000 4.190
19.44000 1.806
19.46000 8.078
19.48000 6.933
19.50000 0.966
19.52000 2.629
19.54000 5.176
19.56000 6.213
19.58000 2.647
19.60000 6.633
19.62000 7.164
19.64000 5.215
19.66000 10.121
19.68000 4.796
19.70000 3.303
19.72000 12.245
19.74000 14.100
19.76000 8.626
19.78000 7.660
19.80000 9.925
19.82000 13.356
19.84000 12.131
19.86000 5.095
19.88000 -4.194
19.90000 -0.488
19.92000 2.455
19.94000 3.491
19.96000 4.231
19.98000 6.275
20.00000 10.669
20.02000 3.375
20.04000 4.636
20.06000 7.630
20.08000 8.398
20.10000 3.956
20.12000 0.249
20.14000 -3.701
20.16000 2.908
20.18000 4.465
20.20000 9.587
20.22000 8.938
20.24000 7.202
20.26000 6.974
20.28000 3.434
20.30000 5.392
20.32000 7.004
20.34000 6.366
20.36000 7.668
20.38000 10.319
20.40000 12.827
20.42000 6.316
20.44000 7.718
20.46000 5.311
20.48000 1.496
20.50000 4.981
20.52000 10.162
20.54000 7.888
20.56000 5.732
20.58000 1.331
20.60000 -2.741
20.62000 3.599
20.64000 9.288
20.66000 4.894
20.68000 13.302
20.70000 9.560
20.72000 6.228
20.74000 5.951
20.76000 3.958
20.78000 5.807
20.80000 -4.138
20.82000 2.623
20.84000 5.967
20.86000 9.969
20.88000 11.397
20.90000 6.574
20.92000 7.857
20.94000 7.917
20.96000 6.309
20.98000 7.763
21.00000 8.223
21.02000 7.037
21.04000 5.520
21.06000 1.948
21.08000 3.584
21.10000 8.491
21.12000 14.873
21.14000 9.183
21.16000 2.930
21.18000 7.627
21.20000 -0.440
21.22000 -1.367
21.24000 6.018
21.26000 5.746
21.28000 3.582
21.30000 5.978
21.32000 3.326
21.34000 8.101
21.36000 4.243
21.38000 0.604
21.40000 5.032
21.42000 9.839
21.44000 2.705
21.46000 4.530
21.48000 6.329
21.50000 6.529
21.52000 9.059
21.54000 1.336
21.56000 5.641
21.58000 8.037
21.60000 1.437
21.62000 1.430
21.64000 5.370
21.66000 3.561
21.68000 4.561
21.70000 3.745
21.72000 7.822
21.74000 3.657
21.76000 0.180
21.78000 -2.839
21.80000 -3.712
21.82000 4.754
21.84000 3.119
21.86000 1.116
21.88000 0.681
21.90000 1.824
21.92000 0.105
21.94000 -4.125
21.96000 -0.756
21.98000 6.403
22.00000 2.401
22.02000 3.300
22.04000 11.033
22.06000 3.794
22.08000 3.471
22.10000 5.761
22.12000 1.157
22.14000 2.407
22.16000 7.043
22.18000 -2.608
22.20000 4.546
22.22000 6.330
22.24000 3.462
22.26000 0.905
22.28000 -1.613
22.30000 1.750
22.32000 3.336
22.34000 1.863
22.36000 9.680
22.38000 8.757
22.40000 5.126
22.42000 3.104
22.44000 -3.687
22.46000 -0.768
22.48000 -3.006
22.50000 -4.099
22.52000 -0.126
22.54000 2.250
22.56000 2.820
22.58000 8.887
22.60000 3.385
22.62000 -3.180
22.64000 -1.165
22.66000 5.873
22.68000 7.514
22.70000 1.308
22.72000 -1.886
22.74000 5.523
22.76000 7.633
22.78000 -3.570
22.80000 2.119
22.82000 3.249
22.84000 4.270
22.86000 7.517
22.88000 5.571
22.90000 4.491
22.92000 1.615
22.94000 -0.834
22.96000 1.030
22.98000 6.657
23.00000 9.827
23.02000 5.475
23.04000 2.351
23.06000 2.189
23.08000 13.737
23.10000 13.304
23.12000 8.164
23.14000 -0.622
23.16000 1.413
23.18000 0.753
23.20000 2.769
23.22000 6.840
23.24000 8.765
23.26000 7.379
23.28000 4.736
23.30000 6.572
23.32000 5.482
23.34000 6.457
23.36000 5.029
23.38000 4.777
23.40000 5.058
23.42000 2.682
23.44000 2.286
23.46000 1.646
23.48000 -2.881
23.50000 -4.017
23.52000 4.671
23.54000 8.945
23.56000 6.063
23.58000 5.152
23.60000 4.755
23.62000 7.392
23.64000 8.773
23.66000 5.689
23.68000 3.976
23.70000 5.542
23.72000 8.741
23.74000 6.606
23.76000 2.855
23.78000 7.016
23.80000 6.669
23.82000 9.295
23.84000 3.679
23.86000 -1.134
23.88000 3.419
23.90000 13.778
23.92000 7.680
23.94000 9.215
23.96000 5.061
23.98000 7.796
24.00000 4.132
24.02000 0.337
24.04000 5.474
24.06000 4.743
24.08000 1.916
24.10000 4.851
24.12000 8.900
24.14000 6.036
24.16000 -0.822
24.18000 -2.713
24.20000 0.460
24.22000 1.926
24.24000 0.819
24.26000 4.840
24.28000 2.855
24.30000 -1.898
24.32000 0.656
24.34000 2.340
24.36000 4.127
24.38000 4.679
24.40000 3.619
24.42000 4.614
24.44000 2.405
24.46000 5.262
24.48000 7.015
24.50000 1.588
24.52000 0.960
24.54000 6.548
24.56000 8.772
24.58000 7.459
24.60000 -0.906
24.62000 -2.520
24.64000 -3.978
24.66000 1.451
24.68000 0.611
24.70000 3.091
24.72000 2.815
24.74000 0.671
24.76000 -1.565
24.78000 0.614
24.80000 -2.866
24.82000 -0.713
24.84000 4.699
24.86000 5.180
24.88000 2.083
24.90000 1.447
24.92000 -1.115
24.94000 2.415
24.96000 1.823
24.98000 1.283
25.00000 5.242
25.02000 -3.609
25.04000 -1.595
25.06000 0.455
25.08000 1.667
25.10000 4.741
25.12000 -0.188
25.14000 -1.796
25.16000 2.821
25.18000 -0.497
25.20000 -2.281
25.22000 1.868
25.24000 0.634
25.26000 0.477
25.28000 -0.578
25.30000 -1.574
25.32000 0.228
25.34000 5.215
25.36000 0.524
25.38000 1.630
25.40000 5.334
25.42000 4.078
25.44000 0.463
25.46000 -1.308
25.48000 0.838
25.50000 -1.047
25.52000 0.980
25.54000 0.520
25.56000 4.742
25.58000 7.871
25.60000 6.250
25.62000 4.641
25.64000 2.668
25.66000 2.413
25.68000 2.301
25.70000 1.463
25.72000 -3.899
25.74000 -3.430
25.76000 -0.381
25.78000 4.688
25.80000 10.062
25.82000 3.061
25.84000 0.177
25.86000 1.915
25.88000 7.573
25.90000 0.268
25.92000 3.159
25.94000 -0.390
25.96000 3.066
25.98000 -0.388
26.00000 7.322
26.02000 6.603
26.04000 -0.983
26.06000 -0.336
26.08000 3.538
26.10000 8.315
26.12000 5.309
26.14000 4.534
26.16000 -0.957
26.18000 -3.035
26.20000 0.834
26.22000 1.000
26.24000 4.446
26.26000 3.695
26.28000 2.153
26.30000 3.653
26.32000 6.679
26.34000 5.553
26.36000 -0.317
26.38000 -2.573
26.40000 1.633
26.42000 0.858
26.44000 0.851
26.46000 1.026
26.48000 1.843
26.50000 4.164
26.52000 3.131
26.54000 0.102
26.56000 -0.301
26.58000 0.537
26.60000 -0.455
26.62000 -2.089
26.64000 -3.286
26.66000 1.857
26.68000 4.898
26.70000 5.999
26.72000 5.240
26.74000 -2.184
26.76000 1.223
26.78000 2.788
26.80000 6.412
26.82000 4.104
26.84000 5.039
26.86000 4.866
26.88000 3.785
26.90000 4.460
26.92000 4.442
26.94000 1.067
26.96000 -2.342
26.98000 -2.642
27.00000 4.570
27.02000 8.043
27.04000 9.878
27.06000 4.239
27.08000 4.121
27.10000 1.770
27.12000 -0.952
27.14000 0.675
27.16000 0.055
27.18000 0.968
27.20000 -3.835
27.22000 -2.722
27.24000 4.062
27.26000 2.308
27.28000 3.469
27.30000 4.530
27.32000 3.469
27.34000 3.872
27.36000 3.516
27.38000 3.300
27.40000 5.314
27.42000 4.164
27.44000 1.014
27.46000 4.234
27.48000 0.650
27.50000 3.641
27.52000 0.402
27.54000 2.056
27.56000 6.116
27.58000 6.715
27.60000 4.652
27.62000 3.319
27.64000 0.306
27.66000 2.697
27.68000 5.357
27.70000 5.295
27.72000 8.154
27.74000 5.481
27.76000 0.452
27.78000 4.708
27.80000 4.042
27.82000 0.477
27.84000 3.881
27.86000 6.232
27.88000 5.512
27.90000 6.084
27.92000 3.917
27.94000 5.846
27.96000 11.105
27.98000 5.508
28.00000 3.995
28.02000 4.780
28.04000 7.325
28.06000 0.875
28.08000 6.447
28.10000 4.422
28.12000 5.949
28.14000 8.944
28.16000 10.039
28.18000 5.822
28.20000 3.319
28.22000 2.204
28.24000 4.370
28.26000 4.961
28.28000 3.082
28.30000 5.460
28.32000 12.585
28.34000 12.286
28.36000 12.516
28.38000 9.324
28.40000 6.506
28.42000 6.620
28.44000 1.729
28.46000 -3.696
28.48000 0.318
28.50000 3.497
28.52000 6.458
28.54000 5.838
28.56000 4.913
28.58000 8.990
28.60000 7.563
28.62000 6.043
28.64000 4.764
28.66000 8.934
28.68000 9.022
28.70000 6.178
28.72000 0.035
28.74000 -1.298
28.76000 1.937
28.78000 8.823
28.80000 9.591
28.82000 8.027
28.84000 6.982
28.86000 6.955
28.88000 6.885
28.90000 4.146
28.92000 6.905
28.94000 4.321
28.96000 8.643
28.98000 7.745
29.00000 6.354
29.02000 4.956
29.04000 8.052
29.06000 5.211
29.08000 0.988
29.10000 4.302
29.12000 2.449
29.14000 3.355
29.16000 4.773
29.18000 8.017
29.20000 2.610
29.22000 6.591
29.24000 9.104
29.26000 4.078
29.28000 -1.095
29.30000 3.828
29.32000 8.443
29.34000 5.820
29.36000 3.575
29.38000 5.198
29.40000 5.703
29.42000 0.501
29.44000 -0.591
29.46000 4.963
29.48000 1.337
29.50000 2.680
29.52000 0.588
29.54000 0.732
29.56000 -1.625
29.58000 4.120
29.60000 4.503
29.62000 -1.096
29.64000 0.751
29.66000 5.186
29.68000 2.437
29.70000 1.858
29.72000 3.663
29.74000 4.838
29.76000 5.540
29.78000 2.731
29.80000 1.180
29.82000 0.228
29.84000 1.027
29.86000 4.795
29.88000 3.954
29.90000 -1.692
29.92000 4.446
29.94000 8.569
29.96000 4.277
29.98000 5.045
30.00000 4.482
30.02000 6.755
30.04000 4.649
30.06000 6.623
30.08000 5.977
30.10000 4.111
30.12000 0.335
30.14000 1.256
30.16000 7.136
30.18000 3.935
30.20000 2.167
30.22000 0.443
30.24000 -0.042
30.26000 0.407
30.28000 3.558
30.30000 2.278
30.32000 4.268
30.34000 6.814
30.36000 8.560
30.38000 4.407
30.40000 2.153
30.42000 1.580
30.44000 5.392
30.46000 4.213
30.48000 0.849
30.50000 4.011
30.52000 3.385
30.54000 2.685
30.56000 -0.367
30.58000 -0.699
30.60000 0.244
30.62000 4.852
30.64000 4.353
30.66000 3.843
30.68000 3.259
30.70000 3.107
30.72000 5.327
30.74000 6.333
30.76000 5.268
30.78000 6.402
30.80000 0.876
30.82000 -3.639
30.84000 -0.580
30.86000 8.810
30.88000 3.724
30.90000 1.613
30.92000 6.801
30.94000 8.627
30.96000 1.732
30.98000 4.777
31.00000 0.107
31.02000 -2.623
31.04000 -3.626
31.06000 1.426
31.08000 1.983
31.10000 6.910
31.12000 5.483
31.14000 1.096
31.16000 1.578
31.18000 1.079
31.20000 2.229
31.22000 2.037
31.24000 1.675
31.26000 -1.599
31.28000 1.445
31.30000 1.012
31.32000 -0.437
31.34000 5.484
31.36000 -1.622
31.38000 0.668
31.40000 -1.956
31.42000 1.861
31.44000 4.620
31.46000 0.428
31.48000 6.422
31.50000 3.552
31.52000 2.567
31.54000 -0.424
31.56000 1.097
31.58000 4.194
31.60000 2.029
31.62000 5.572
31.64000 3.948
31.66000 0.344
31.68000 1.842
31.70000 -0.639
31.72000 -0.489
31.74000 1.374
31.76000 6.240
31.78000 -0.114
31.80000 -3.594
31.82000 0.035
31.84000 2.002
31.86000 4.464
31.88000 4.490
31.90000 7.238
31.92000 5.853
31.94000 7.211
31.96000 11.901
31.98000 7.640
32.00000 2.742
32.02000 4.440
32.04000 5.444
32.06000 5.447
32.08000 -0.586
32.10000 1.004
32.12000 6.748
32.14000 4.865
32.16000 -0.761
32.18000 -2.986
32.20000 -0.616
32.22000 -0.864
32.24000 0.163
32.26000 1.689
32.28000 -1.332
32.30000 0.728
32.32000 3.329
32.34000 3.355
32.36000 5.941
32.38000 2.900
32.40000 -1.804
32.42000 0.435
32.44000 0.801
32.46000 -0.649
32.48000 2.773
32.50000 4.157
32.52000 5.224
32.54000 3.877
32.56000 -2.103
32.58000 -3.570
32.60000 -3.571
32.62000 -0.121
32.64000 0.984
32.66000 0.481
32.68000 6.067
32.70000 8.304
32.72000 0.231
32.74000 4.347
32.76000 2.119
32.78000 1.729
32.80000 3.872
32.82000 1.111
32.84000 1.197
32.86000 -0.409
32.88000 -1.880
32.90000 -1.346
32.92000 -1.531
32.94000 -1.462
32.96000 2.778
32.98000 1.596
33.00000 4.763
33.02000 5.305
33.04000 1.295
33.06000 0.299
33.08000 -0.318
33.10000 -0.042
33.12000 1.654
33.14000 -0.796
33.16000 1.094
33.18000 1.605
33.20000 2.510
33.22000 4.479
33.24000 7.043
33.26000 4.450
33.28000 5.383
33.30000 0.016
33.32000 -3.574
33.34000 1.929
33.36000 5.723
33.38000 2.030
33.40000 -1.231
33.42000 -1.408
33.44000 0.947
33.46000 -0.462
33.48000 -0.765
33.50000 3.072
33.52000 3.971
33.54000 0.799
33.56000 4.816
33.58000 2.757
33.60000 3.144
33.62000 5.825
33.64000 -3.027
33.66000 -2.763
33.68000 2.257
33.70000 3.526
33.72000 4.919
33.74000 5.187
33.76000 5.876
33.78000 6.392
33.80000 -0.448
33.82000 -2.700
33.84000 -0.743
33.86000 3.772
33.88000 6.330
33.90000 4.700
33.92000 5.569
33.94000 4.667
33.96000 2.667
33.98000 2.969
34.00000 5.426
34.02000 8.806
34.04000 5.294
34.06000 3.012
34.08000 -0.958
34.10000 1.755
34.12000 -0.865
34.14000 -1.489
34.16000 -1.514
34.18000 -0.400
34.20000 -1.722
34.22000 -1.543
34.24000 3.166
34.26000 3.705
34.28000 4.665
34.30000 1.062
34.32000 0.858
34.34000 0.773
34.36000 0.293
34.38000 -0.070
34.40000 2.801
34.42000 1.429
34.44000 3.348
34.46000 5.078
34.48000 -1.055
34.50000 0.758
34.52000 1.973
34.54000 1.684
34.56000 2.317
34.58000 3.630
34.60000 0.377
34.62000 -1.984
34.64000 -3.537
34.66000 0.201
34.68000 3.630
34.70000 -0.084
34.72000 3.985
34.74000 3.542
34.76000 0.712
34.78000 1.071
34.80000 5.532
34.82000 1.343
34.84000 2.657
34.86000 2.738
34.88000 -1.093
34.90000 -2.095
34.92000 2.485
34.94000 9.149
34.96000 4.012
34.98000 2.484
35.00000 -1.945
35.02000 1.085
35.04000 4.952
35.06000 1.849
35.08000 -3.531
35.10000 2.059
35.12000 3.123
35.14000 2.621
35.16000 2.876
35.18000 0.863
35.20000 -1.840
35.22000 0.399
35.24000 2.753
35.26000 1.536
35.28000 1.014
35.30000 -1.161
35.32000 -0.780
35.34000 0.042
35.36000 4.623
35.38000 4.569
35.40000 0.795
35.42000 2.449
35.44000 1.237
35.46000 1.943
35.48000 0.805
35.50000 -2.606
35.52000 -2.906
35.54000 -3.232
35.56000 1.819
35.58000 2.660
35.60000 4.642
35.62000 0.365
35.64000 -3.526
35.66000 -0.412
35.68000 -0.810
35.70000 -1.857
35.72000 0.547
35.74000 1.770
35.76000 4.225
35.78000 2.782
35.80000 0.206
35.82000 0.535
35.84000 0.572
35.86000 4.042
35.88000 4.899
35.90000 3.637
35.92000 1.336
35.94000 8.383
35.96000 5.029
35.98000 3.815
36.00000 0.870
36.02000 -0.870
36.04000 -2.287
36.06000 -0.957
36.08000 -0.052
36.10000 1.242
36.12000 0.448
36.14000 1.191
36.16000 1.590
36.18000 1.107
36.20000 2.125
36.22000 2.241
36.24000 5.132
36.26000 2.221
36.28000 0.315
36.30000 5.726
36.32000 2.205
36.34000 -0.429
36.36000 4.419
36.38000 6.752
36.40000 5.117
36.42000 2.542
36.44000 0.355
36.46000 -3.515
36.48000 -0.762
36.50000 2.404
36.52000 0.483
36.54000 -2.664
36.56000 -1.402
36.58000 -0.746
36.60000 -0.284
36.62000 3.164
36.64000 3.762
36.66000 0.420
36.68000 -0.321
36.70000 1.288
36.72000 4.319
36.74000 1.217
36.76000 -0.277
36.78000 0.689
36.80000 -0.597
36.82000 -2.979
36.84000 -0.543
36.86000 3.302
36.88000 1.044
36.90000 -0.841
36.92000 -2.219
36.94000 0.914
36.96000 1.817
36.98000 2.887
37.00000 2.699
37.02000 2.176
37.04000 2.697
37.06000 4.486
37.08000 3.765
37.10000 -0.319
37.12000 2.594
37.14000 4.836
37.16000 -0.269
37.18000 -3.578
37.20000 -1.276
37.22000 -1.050
37.24000 -0.415
37.26000 2.718
37.28000 3.937
37.30000 -1.717
37.32000 -1.649
37.34000 0.079
37.36000 0.280
37.38000 -2.562
37.40000 -1.307
37.42000 -3.338
37.44000 -0.905
37.46000 5.058
37.48000 4.621
37.50000 0.329
37.52000 -2.696
37.54000 1.809
37.56000 0.502
37.58000 -0.405
37.60000 -1.561
37.62000 -3.634
37.64000 -3.222
37.66000 0.769
37.68000 1.063
37.70000 2.589
37.72000 2.753
37.74000 4.349
37.76000 2.788
37.78000 2.657
37.80000 2.434
37.82000 6.122
37.84000 8.146
37.86000 3.864
37.88000 3.836
37.90000 0.452
37.92000 1.357
37.94000 4.505
37.96000 6.601
37.98000 7.727
38.00000 6.843
38.02000 10.392
38.04000 12.054
38.06000 11.289
38.08000 10.322
38.10000 9.695
38.12000 5.821
38.14000 7.532
38.16000 14.087
38.18000 16.360
38.20000 17.397
38.22000 21.072
38.24000 18.987
38.26000 17.511
38.28000 16.155
38.30000 15.432
38.32000 9.801
38.34000 12.148
38.36000 17.236
38.38000 15.941
38.40000 22.938
38.42000 22.452
38.44000 23.947
38.46000 21.550
38.48000 21.097
38.50000 17.735
38.52000 24.671
38.54000 26.272
38.56000 16.098
38.58000 18.519
38.60000 24.163
38.62000 22.301
38.64000 24.748
38.66000 29.039
38.68000 28.999
38.70000 32.056
38.72000 31.618
38.74000 29.531
38.76000 31.936
38.78000 32.046
38.80000 34.121
38.82000 34.086
38.84000 38.850
38.86000 38.095
38.88000 43.693
38.90000 45.806
38.92000 43.183
38.94000 48.266
38.96000 47.639
38.98000 48.367
39.00000 45.256
39.02000 55.005
39.04000 57.961
39.06000 59.630
39.08000 57.330
39.10000 66.044
39.12000 63.874
39.14000 66.969
39.16000 69.857
39.18000 69.641
39.20000 74.124
39.22000 77.244
39.24000 82.828
39.26000 86.493
39.28000 90.396
39.30000 100.150
39.32000 101.043
39.34000 105.948
39.36000 107.199
39.38000 110.218
39.40000 117.265
39.42000 126.356
39.44000 134.826
39.46000 136.185
39.48000 150.272
39.50000 157.726
39.52000 159.861
39.54000 163.962
39.56000 172.336
39.58000 182.860
39.60000 197.692
39.62000 206.654
39.64000 214.708
39.66000 225.133
39.68000 250.450
39.70000 263.850
39.72000 277.984
39.74000 296.683
39.76000 304.963
39.78000 331.431
39.80000 342.542
39.82000 363.911
39.84000 385.366
39.86000 410.361
39.88000 429.011
39.90000 450.479
39.92000 475.958
39.94000 507.746
39.96000 533.797
39.98000 559.448
40.00000 573.121
40.02000 594.290
40.04000 633.050
40.06000 660.425
40.08000 677.022
40.10000 701.046
40.12000 727.055
40.14000 746.756
40.16000 764.352
40.18000 774.959
40.20000 784.821
40.22000 788.450
40.24000 804.312
40.26000 813.961
40.28000 812.103
40.30000 810.241
40.32000 809.162
40.34000 799.477
40.36000 796.167
40.38000 796.509
40.40000 777.331
40.42000 759.907
40.44000 747.176
40.46000 731.970
40.48000 706.231
40.50000 677.828
40.52000 672.204
40.54000 654.783
40.56000 619.885
40.58000 595.559
40.60000 571.678
40.62000 554.676
40.64000 533.957
40.66000 504.360
40.68000 481.634
40.70000 455.581
40.72000 431.454
40.74000 415.531
40.76000 392.909
40.78000 365.287
40.80000 348.241
40.82000 328.735
40.84000 311.697
40.86000 305.616
40.88000 285.488
40.90000 271.203
40.92000 261.194
40.94000 248.478
40.96000 233.232
40.98000 217.143
41.00000 196.343
41.02000 189.958
41.04000 180.384
41.06000 167.659
41.08000 159.928
41.10000 150.408
41.12000 139.116
41.14000 133.634
41.16000 128.815
41.18000 121.763
41.20000 113.002
41.22000 108.770
41.24000 97.692
41.26000 93.537
41.28000 86.154
41.30000 83.488
41.32000 79.885
41.34000 78.121
41.36000 80.183
41.38000 71.992
41.40000 70.411
41.42000 65.402
41.44000 60.777
41.46000 57.479
41.48000 52.208
41.50000 51.137
41.52000 47.772
41.54000 42.256
41.56000 39.686
41.58000 44.290
41.60000 45.707
41.62000 44.733
41.64000 38.368
41.66000 31.613
41.68000 31.556
41.70000 33.520
41.72000 33.842
41.74000 31.174
41.76000 26.840
41.78000 25.235
41.80000 26.178
41.82000 18.895
41.84000 18.053
41.86000 20.022
41.88000 18.850
41.90000 18.250
41.92000 20.282
41.94000 23.287
41.96000 20.684
41.98000 17.116
42.00000 12.602
42.02000 6.586
42.04000 14.054
42.06000 16.891
42.08000 7.434
42.10000 11.562
42.12000 7.168
42.14000 6.657
42.16000 7.810
42.18000 9.377
42.20000 15.030
42.22000 12.637
42.24000 6.726
42.26000 7.569
42.28000 7.275
42.30000 4.762
42.32000 1.366
42.34000 2.376
42.36000 1.351
42.38000 6.060
42.40000 5.388
42.42000 4.522
42.44000 6.194
42.46000 3.799
42.48000 3.877
42.50000 3.254
42.52000 1.893
42.54000 3.597
42.56000 3.717
42.58000 1.876
42.60000 4.320
42.62000 4.667
42.64000 6.780
42.66000 1.135
42.68000 1.874
42.70000 2.263
42.72000 3.597
42.74000 2.016
42.76000 0.501
42.78000 -2.146
42.80000 0.619
42.82000 -2.052
42.84000 -1.722
42.86000 -0.529
42.88000 2.019
42.90000 0.731
42.92000 0.106
42.94000 0.059
42.96000 2.730
42.98000 -1.670
43.00000 -2.006
43.02000 -1.174
43.04000 -0.059
43.06000 0.589
43.08000 2.948
43.10000 2.855
43.12000 2.787
43.14000 0.006
43.16000 -3.294
43.18000 -2.936
43.20000 -3.444
43.22000 -1.131
43.24000 -0.634
43.26000 0.755
43.28000 -0.260
43.30000 1.344
43.32000 0.199
43.34000 0.104
43.36000 -0.196
43.38000 -1.149
43.40000 -1.647
43.42000 1.235
43.44000 0.839
43.46000 1.448
43.48000 -0.517
43.50000 -3.208
43.52000 -1.105
43.54000 -0.315
43.56000 2.652
43.58000 1.156
43.60000 4.365
43.62000 3.626
43.64000 -3.262
43.66000 -3.409
43.68000 -3.403
43.70000 -2.116
43.72000 -2.666
43.74000 -1.145
43.76000 2.352
43.78000 -2.353
43.80000 -3.244
43.82000 -1.691
43.84000 1.310
43.86000 1.320
43.88000 -0.875
43.90000 0.260
43.92000 0.029
43.94000 2.983
43.96000 0.638
43.98000 -1.637
44.00000 -3.384
44.02000 -2.635
44.04000 0.762
44.06000 1.017
44.08000 -3.119
44.10000 -3.377
44.12000 -0.110
44.14000 -0.017
44.16000 -3.188
44.18000 -2.014
44.20000 -2.976
44.22000 -3.370
44.24000 0.991
44.26000 2.224
44.28000 3.423
44.30000 -0.049
44.32000 2.024
44.34000 1.009
44.36000 2.300
44.38000 -0.613
44.40000 1.410
44.42000 2.833
44.44000 1.838
44.46000 0.441
44.48000 0.110
44.50000 2.508
44.52000 3.071
44.54000 2.113
44.56000 1.720
44.58000 -2.593
44.60000 -2.989
44.62000 0.967
44.64000 -0.751
44.66000 1.750
44.68000 3.236
44.70000 4.700
44.72000 3.925
44.74000 -2.724
44.76000 4.362
44.78000 3.670
44.80000 -1.305
44.82000 -3.341
44.84000 1.989
44.86000 3.493
44.88000 1.173
44.90000 0.302
44.92000 3.380
44.94000 1.618
44.96000 6.747
44.98000 1.290
45.00000 2.137
45.02000 5.101
45.04000 2.264
45.06000 2.341
45.08000 3.223
45.10000 4.730
45.12000 5.066
45.14000 4.670
45.16000 5.514
45.18000 3.330
45.20000 1.130
45.22000 3.379
45.24000 4.785
45.26000 3.175
45.28000 6.498
45.30000 11.380
45.32000 10.519
45.34000 13.355
45.36000 7.679
45.38000 5.227
45.40000 9.640
45.42000 12.806
45.44000 13.841
45.46000 13.353
45.48000 13.052
45.50000 17.555
45.52000 15.838
45.54000 17.921
45.56000 23.461
45.58000 20.023
45.60000 21.069
45.62000 19.205
45.64000 16.234
45.66000 18.642
45.68000 19.653
45.70000 21.606
45.72000 23.682
45.74000 23.681
45.76000 24.668
45.78000 25.377
45.80000 25.251
45.82000 30.039
45.84000 30.486
45.86000 28.908
45.88000 30.682
45.90000 31.796
45.92000 33.753
45.94000 36.511
45.96000 38.877
45.98000 37.841
46.00000 44.491
46.02000 47.500
46.04000 43.760
46.06000 41.960
46.08000 47.811
46.10000 49.994
46.12000 52.324
46.14000 55.270
46.16000 60.113
46.18000 65.276
46.20000 63.989
46.22000 62.967
46.24000 62.444
46.26000 67.189
46.28000 73.888
46.30000 70.952
46.32000 75.201
46.34000 80.101
46.36000 77.083
46.38000 78.878
46.40000 93.302
46.42000 93.295
46.44000 96.456
46.46000 95.625
46.48000 103.934
46.50000 102.661
46.52000 108.090
46.54000 115.086
46.56000 112.425
46.58000 114.937
46.60000 116.325
46.62000 119.267
46.64000 130.007
46.66000 134.484
46.68000 132.692
46.70000 131.375
46.72000 142.196
46.74000 138.223
46.76000 142.049
46.78000 142.294
46.80000 145.837
46.82000 150.788
46.84000 157.013
46.86000 151.714
46.88000 150.396
46.90000 148.991
46.92000 146.455
46.94000 153.260
46.96000 155.043
46.98000 158.789
47.00000 152.318
47.02000 147.667
47.04000 147.924
47.06000 142.601
47.08000 149.227
47.10000 149.169
47.12000 139.081
47.14000 139.573
47.16000 137.866
47.18000 132.214
47.20000 130.561
47.22000 120.679
47.24000 111.084
47.26000 110.317
47.28000 106.784
47.30000 108.680
47.32000 102.548
47.34000 92.717
47.36000 92.577
47.38000 90.365
47.40000 89.344
47.42000 86.790
47.44000 85.760
47.46000 75.251
47.48000 72.220
47.50000 67.815
47.52000 66.885
47.54000 67.908
47.56000 67.712
47.58000 59.755
47.60000 54.466
47.62000 54.750
47.64000 50.937
47.66000 41.196
47.68000 42.091
47.70000 38.921
47.72000 37.558
47.74000 30.445
47.76000 30.813
47.78000 31.791
47.80000 29.706
47.82000 30.652
47.84000 29.872
47.86000 25.788
47.88000 21.924
47.90000 18.859
47.92000 23.111
47.94000 24.351
47.96000 23.918
47.98000 24.939
48.00000 18.077
48.02000 10.323
48.04000 13.666
48.06000 18.042
48.08000 15.473
48.10000 18.136
48.12000 18.656
48.14000 17.256
48.16000 13.101
48.18000 14.678
48.20000 11.437
48.22000 7.673
48.24000 2.895
48.26000 3.315
48.28000 5.834
48.30000 2.936
48.32000 -0.489
48.34000 -0.008
48.36000 2.777
48.38000 0.838
48.40000 0.700
48.42000 2.018
48.44000 5.447
48.46000 7.157
48.48000 4.756
48.50000 6.793
48.52000 7.635
48.54000 6.053
48.56000 5.164
48.58000 3.280
48.60000 -0.094
48.62000 0.632
48.64000 0.304
48.66000 3.189
48.68000 6.389
48.70000 4.952
48.72000 0.278
48.74000 -2.950
48.76000 -1.701
48.78000 -1.142
48.80000 0.297
48.82000 1.851
48.84000 7.394
48.86000 1.946
48.88000 1.996
48.90000 3.057
48.92000 2.052
48.94000 3.938
48.96000 1.158
48.98000 1.099
49.00000 3.612
49.02000 3.016
49.04000 0.808
49.06000 0.863
49.08000 -1.159
49.10000 -2.141
49.12000 -0.379
49.14000 2.389
49.16000 5.011
49.18000 2.040
49.20000 -2.879
49.22000 3.706
49.24000 4.860
49.26000 1.021
49.28000 4.141
49.30000 4.404
49.32000 2.438
49.34000 1.641
49.36000 1.074
49.38000 0.671
49.40000 3.378
49.42000 4.313
49.44000 -2.422
49.46000 -1.472
49.48000 -1.684
49.50000 -1.020
49.52000 -1.253
49.54000 -1.490
49.56000 -2.760
49.58000 2.385
49.60000 3.135
49.62000 1.920
49.64000 1.643
49.66000 1.260
49.68000 0.748
49.70000 3.065
49.72000 -1.084
49.74000 0.217
49.76000 0.370
49.78000 2.980
49.80000 2.861
49.82000 -0.633
49.84000 1.804
49.86000 2.844
49.88000 5.145
49.90000 2.608
49.92000 4.202
49.94000 1.846
49.96000 5.533
49.98000 8.221
50.00000 2.116
50.02000 1.243
50.04000 4.238
50.06000 1.145
50.08000 1.379
50.10000 3.290
50.12000 3.687
50.14000 4.158
50.16000 -2.721
50.18000 0.538
50.20000 2.093
50.22000 2.751
50.24000 1.741
50.26000 2.626
50.28000 0.929
50.30000 0.872
50.32000 0.489
50.34000 2.143
50.36000 2.682
50.38000 1.603
50.40000 4.795
50.42000 3.460
50.44000 1.157
50.46000 0.536
50.48000 -0.704
50.50000 2.721
50.52000 4.201
50.54000 6.763
50.56000 4.966
50.58000 1.086
50.60000 3.617
50.62000 2.121
50.64000 0.512
50.66000 0.749
50.68000 0.748
50.70000 3.896
50.72000 2.228
50.74000 0.387
50.76000 3.270
50.78000 1.617
50.80000 -2.712
50.82000 1.652
50.84000 0.875
50.86000 -0.595
50.88000 -0.461
50.90000 2.280
50.92000 2.310
50.94000 5.357
50.96000 4.089
50.98000 0.423
51.00000 -0.268
51.02000 -1.051
51.04000 -0.504
51.06000 2.152
51.08000 -0.470
51.10000 0.842
51.12000 0.289
51.14000 4.659
51.16000 2.149
51.18000 4.215
51.20000 2.234
51.22000 1.783
51.24000 3.831
51.26000 0.464
51.28000 0.261
51.30000 -1.282
51.32000 2.071
51.34000 -0.581
51.36000 -1.846
51.38000 2.580
51.40000 2.851
51.42000 0.398
51.44000 -0.655
51.46000 -1.757
51.48000 -2.686
51.50000 1.283
51.52000 4.151
51.54000 1.947
51.56000 3.444
51.58000 2.579
51.60000 2.871
51.62000 2.413
51.64000 1.173
51.66000 4.632
51.68000 6.934
51.70000 3.645
51.72000 -0.404
51.74000 -0.747
51.76000 3.818
51.78000 1.309
51.80000 -1.355
51.82000 1.422
51.84000 2.770
51.86000 4.875
51.88000 3.198
51.90000 -1.083
51.92000 0.213
51.94000 1.034
51.96000 4.711
51.98000 0.428
52.00000 -2.083
52.02000 2.535
52.04000 2.161
52.06000 1.878
52.08000 0.631
52.10000 0.543
52.12000 1.754
52.14000 1.877
52.16000 1.268
52.18000 3.790
52.20000 0.733
52.22000 -1.852
52.24000 -1.273
52.26000 1.971
52.28000 5.917
52.30000 1.872
52.32000 4.989
52.34000 5.832
52.36000 4.224
52.38000 6.033
52.40000 8.126
52.42000 5.133
52.44000 2.394
52.46000 5.097
52.48000 6.061
52.50000 1.462
52.52000 0.364
52.54000 2.684
52.56000 3.048
52.58000 -0.628
52.60000 -2.339
52.62000 -0.855
52.64000 -2.591
52.66000 6.194
52.68000 7.379
52.70000 8.031
52.72000 6.406
52.74000 2.676
52.76000 4.752
52.78000 6.100
52.80000 2.300
52.82000 1.368
52.84000 1.023
52.86000 4.251
52.88000 5.124
52.90000 0.648
52.92000 3.515
52.94000 3.325
52.96000 2.192
52.98000 0.763
53.00000 0.285
53.02000 -2.291
53.04000 1.210
53.06000 -1.435
53.08000 1.767
53.10000 2.042
53.12000 0.710
53.14000 -2.606
53.16000 1.384
53.18000 4.749
53.20000 0.054
53.22000 -0.027
53.24000 0.951
53.26000 0.080
53.28000 4.072
53.30000 1.147
53.32000 1.767
53.34000 1.684
53.36000 3.603
53.38000 1.576
53.40000 2.259
53.42000 3.441
53.44000 4.491
53.46000 4.919
53.48000 2.164
53.50000 1.347
53.52000 4.997
53.54000 2.788
53.56000 4.160
53.58000 2.514
53.60000 -1.144
53.62000 -1.810
53.64000 -1.651
53.66000 0.352
53.68000 -0.028
53.70000 0.593
53.72000 2.011
53.74000 3.386
53.76000 1.301
53.78000 1.295
53.80000 0.803
53.82000 1.954
53.84000 2.966
53.86000 0.129
53.88000 2.691
53.90000 0.488
53.92000 1.923
53.94000 4.343
53.96000 -0.166
53.98000 -1.282
54.00000 2.328
54.02000 2.725
54.04000 -0.338
54.06000 3.115
54.08000 6.060
54.10000 2.100
54.12000 2.785
54.14000 1.905
54.16000 0.536
54.18000 -0.279
54.20000 1.041
54.22000 2.974
54.24000 0.736
54.26000 -2.429
54.28000 2.335
54.30000 0.689
54.32000 -0.776
54.34000 4.700
54.36000 4.484
54.38000 3.458
54.40000 4.555
54.42000 5.897
54.44000 3.237
54.46000 0.029
54.48000 -1.806
54.50000 2.333
54.52000 1.127
54.54000 0.390
54.56000 -0.012
54.58000 1.278
54.60000 -1.002
54.62000 -1.430
54.64000 -0.592
54.66000 -0.481
54.68000 0.092
54.70000 0.135
54.72000 0.525
54.74000 1.833
54.76000 -0.205
54.78000 -1.637
54.80000 2.140
54.82000 -2.577
54.84000 -1.683
54.86000 1.506
54.88000 0.611
54.90000 -0.727
54.92000 1.726
54.94000 0.896
54.96000 3.963
54.98000 4.213
55.00000 -0.574
55.02000 1.734
55.04000 3.757
55.06000 7.130
55.08000 4.220
55.10000 1.721
55.12000 0.402
55.14000 -0.247
55.16000 1.381
55.18000 -0.182
55.20000 3.931
55.22000 -0.782
55.24000 -2.537
55.26000 8.067
55.28000 7.510
55.30000 3.425
55.32000 3.485
55.34000 3.662
55.36000 -0.459
55.38000 1.301
55.40000 1.104
55.42000 1.850
55.44000 4.226
55.46000 4.097
55.48000 2.570
55.50000 3.812
55.52000 4.685
55.54000 4.132
55.56000 4.698
55.58000 7.337
55.60000 3.178
55.62000 2.713
55.64000 1.084
55.66000 2.378
55.68000 6.362
55.70000 3.243
55.72000 0.631
55.74000 0.349
55.76000 4.986
55.78000 7.477
55.80000 5.706
55.82000 5.569
55.84000 4.496
55.86000 6.323
55.88000 4.785
55.90000 1.108
55.92000 4.282
55.94000 6.951
55.96000 3.387
55.98000 0.908
56.00000 -0.413
56.02000 1.387
56.04000 1.679
56.06000 1.380
56.08000 4.278
56.10000 8.050
56.12000 5.379
56.14000 3.441
56.16000 0.672
56.18000 -2.472
56.20000 3.906
56.22000 5.629
56.24000 6.669
56.26000 6.530
56.28000 5.822
56.30000 3.590
56.32000 3.633
56.34000 8.183
56.36000 6.584
56.38000 3.700
56.40000 0.947
56.42000 0.380
56.44000 6.290
56.46000 6.255
56.48000 4.326
56.50000 3.608
56.52000 2.440
56.54000 3.862
56.56000 4.530
56.58000 2.520
56.60000 1.918
56.62000 4.467
56.64000 4.210
56.66000 5.905
56.68000 2.454
56.70000 3.393
56.72000 1.382
56.74000 -2.480
56.76000 -1.239
56.78000 0.213
56.80000 0.906
56.82000 4.635
56.84000 4.479
56.86000 1.596
56.88000 0.364
56.90000 1.780
56.92000 3.046
56.94000 6.815
56.96000 5.588
56.98000 4.158
57.00000 -1.370
57.02000 -1.888
57.04000 3.755
57.06000 3.815
57.08000 5.282
57.10000 6.654
57.12000 5.470
57.14000 7.605
57.16000 6.707
57.18000 6.482
57.20000 4.282
57.22000 6.761
57.24000 7.195
57.26000 1.954
57.28000 2.818
57.30000 0.828
57.32000 2.013
57.34000 3.717
57.36000 1.870
57.38000 -2.461
57.40000 1.482
57.42000 7.258
57.44000 4.551
57.46000 1.651
57.48000 3.823
57.50000 2.035
57.52000 1.573
57.54000 3.463
57.56000 1.291
57.58000 0.179
57.60000 4.159
57.62000 3.671
57.64000 2.039
57.66000 2.646
57.68000 1.422
57.70000 -0.618
57.72000 4.589
57.74000 5.594
57.76000 5.215
57.78000 5.848
57.80000 3.179
57.82000 2.261
57.84000 3.901
57.86000 3.518
57.88000 3.214
57.90000 2.454
57.92000 2.616
57.94000 0.252
57.96000 -1.335
57.98000 2.856
58.00000 -1.443
58.02000 0.968
58.04000 3.187
58.06000 4.001
58.08000 6.016
58.10000 -0.213
58.12000 3.935
58.14000 4.316
58.16000 5.001
58.18000 8.403
58.20000 4.414
58.22000 1.666
58.24000 2.436
58.26000 3.464
58.28000 0.328
58.30000 2.057
58.32000 1.470
58.34000 0.094
58.36000 1.738
58.38000 1.011
58.40000 0.590
58.42000 1.593
58.44000 0.352
58.46000 3.863
58.48000 3.097
58.50000 3.392
58.52000 2.608
58.54000 4.692
58.56000 6.771
58.58000 4.780
58.60000 1.365
58.62000 2.289
58.64000 -0.698
58.66000 1.221
58.68000 4.251
58.70000 6.394
58.72000 2.409
58.74000 -2.415
58.76000 -0.154
58.78000 3.633
58.80000 6.605
58.82000 5.483
58.84000 5.883
58.86000 1.806
58.88000 1.746
58.90000 5.104
58.92000 4.937
58.94000 1.713
58.96000 3.218
58.98000 3.475
59.00000 1.768
59.02000 3.897
59.04000 5.728
59.06000 2.123
59.08000 2.589
59.10000 5.397
59.12000 2.208
59.14000 5.180
59.16000 5.767
59.18000 2.634
59.20000 0.627
59.22000 0.425
59.24000 0.746
59.26000 1.158
59.28000 0.620
59.30000 1.784
59.32000 4.188
59.34000 4.253
59.36000 5.181
59.38000 6.184
59.40000 3.065
59.42000 -0.173
59.44000 1.532
59.46000 2.986
59.48000 2.098
59.50000 4.861
59.52000 3.241
59.54000 -1.930
59.56000 -2.421
59.58000 -2.072
59.60000 0.068
59.62000 4.282
59.64000 5.063
59.66000 -1.345
59.68000 -0.420
59.70000 3.814
59.72000 -1.701
59.74000 -2.116
59.76000 -1.034
59.78000 0.334
59.80000 1.993
59.82000 0.949
59.84000 0.363
59.86000 0.489
59.88000 -0.099
59.90000 -2.007
59.92000 -0.645
59.94000 4.807
59.96000 5.409
59.98000 7.420
60.00000 3.970
60.02000 -1.546
60.04000 -1.232
60.06000 -1.852
60.08000 3.736
60.10000 6.079
60.12000 3.492
60.14000 -0.261
60.16000 1.271
60.18000 -0.134
60.20000 1.484
60.22000 4.479
60.24000 3.733
60.26000 5.822
60.28000 6.977
60.30000 4.249
60.32000 5.555
60.34000 3.422
60.36000 6.244
60.38000 3.440
60.40000 5.928
60.42000 4.831
60.44000 0.470
60.46000 0.368
60.48000 -1.729
60.50000 -0.171
60.52000 -0.168
60.54000 -2.361
60.56000 5.398
60.58000 10.526
60.60000 5.722
60.62000 4.358
60.64000 4.355
60.66000 6.441
60.68000 4.963
60.70000 2.741
60.72000 1.953
60.74000 4.283
60.76000 4.683
60.78000 4.849
60.80000 3.455
60.82000 3.210
60.84000 5.871
60.86000 1.711
60.88000 -1.894
60.90000 1.396
60.92000 5.448
60.94000 6.244
60.96000 5.217
60.98000 3.695
61.00000 2.156
61.02000 0.449
61.04000 3.026
61.06000 2.364
61.08000 4.432
61.10000 6.207
61.12000 3.239
61.14000 -1.047
61.16000 -1.770
61.18000 0.258
61.20000 2.626
61.22000 2.389
61.24000 2.066
61.26000 1.902
61.28000 1.012
61.30000 0.640
61.32000 0.430
61.34000 4.475
61.36000 3.191
61.38000 3.063
61.40000 3.066
61.42000 0.672
61.44000 1.076
61.46000 1.227
61.48000 2.803
61.50000 5.009
61.52000 3.484
61.54000 0.052
61.56000 -2.128
61.58000 2.088
61.60000 1.228
61.62000 3.080
61.64000 4.475
61.66000 4.348
61.68000 4.367
61.70000 4.222
61.72000 4.874
61.74000 2.675
61.76000 3.613
61.78000 4.660
61.80000 4.729
61.82000 1.785
61.84000 1.483
61.86000 0.824
61.88000 3.590
61.90000 0.945
61.92000 2.588
61.94000 6.521
61.96000 3.331
61.98000 0.775
62.00000 3.308
62.02000 4.010
62.04000 2.902
62.06000 2.020
62.08000 -2.326
62.10000 2.749
62.12000 5.302
62.14000 3.735
62.16000 0.241
62.18000 1.885
62.20000 3.145
62.22000 3.615
62.24000 4.441
62.26000 4.758
62.28000 3.423
62.30000 0.850
62.32000 0.154
62.34000 7.956
62.36000 7.352
62.38000 5.309
62.40000 0.534
62.42000 3.184
62.44000 2.945
62.46000 -1.992
62.48000 1.423
62.50000 4.739
62.52000 3.894
62.54000 4.878
62.56000 3.887
62.58000 3.326
62.60000 3.438
62.62000 0.262
62.64000 0.480
62.66000 -2.327
62.68000 2.785
62.70000 6.421
62.72000 1.630
62.74000 3.014
62.76000 0.303
62.78000 -0.144
62.80000 3.190
62.82000 3.105
62.84000 2.615
62.86000 2.241
62.88000 4.313
62.90000 1.860
62.92000 3.719
62.94000 5.464
62.96000 3.788
62.98000 0.320
63.00000 -2.322
63.02000 0.502
63.04000 2.621
63.06000 1.708
63.08000 -1.637
63.10000 0.874
63.12000 3.058
63.14000 2.092
63.16000 4.463
63.18000 5.163
63.20000 4.917
63.22000 3.678
63.24000 1.992
63.26000 6.065
63.28000 4.465
63.30000 3.512
63.32000 0.683
63.34000 1.991
63.36000 2.463
63.38000 1.744
63.40000 2.532
63.42000 2.784
63.44000 2.032
63.46000 1.289
63.48000 1.940
63.50000 3.570
63.52000 2.672
63.54000 -2.176
63.56000 0.010
63.58000 2.205
63.60000 3.205
63.62000 2.397
63.64000 1.076
63.66000 3.779
63.68000 2.248
63.70000 1.049
63.72000 2.104
63.74000 0.070
63.76000 -1.815
63.78000 0.488
63.80000 -0.914
63.82000 -2.307
63.84000 0.109
63.86000 1.549
63.88000 0.223
63.90000 1.406
63.92000 2.068
63.94000 -0.018
63.96000 1.844
63.98000 3.175
64.00000 1.403
64.02000 2.747
64.04000 6.197
64.06000 1.631
64.08000 2.313
64.10000 2.114
64.12000 -0.990
64.14000 1.889
64.16000 2.968
64.18000 -1.228
64.20000 0.641
64.22000 0.306
64.24000 1.041
64.26000 1.440
64.28000 1.246
64.30000 0.573
64.32000 2.446
64.34000 -0.386
64.36000 3.030
64.38000 2.460
64.40000 2.017
64.42000 2.285
64.44000 4.304
64.46000 3.597
64.48000 -1.402
64.50000 -1.069
64.52000 -2.303
64.54000 -0.941
64.56000 4.841
64.58000 2.220
64.60000 -0.490
64.62000 -2.318
64.64000 0.793
64.66000 -0.728
64.68000 2.760
64.70000 4.035
64.72000 3.631
64.74000 4.190
64.76000 2.568
64.78000 -0.453
64.80000 1.454
64.82000 0.098
64.84000 1.038
64.86000 4.010
64.88000 0.682
64.90000 1.239
64.92000 3.345
64.94000 0.935
64.96000 -0.548
64.98000 0.346
65.00000 0.086
65.02000 0.593
65.04000 1.159
65.06000 1.053
65.08000 0.271
65.10000 2.350
65.12000 4.073
65.14000 3.829
65.16000 4.709
65.18000 1.278
65.20000 0.559
65.22000 0.886
65.24000 2.535
65.26000 1.923
65.28000 2.395
65.30000 3.775
65.32000 4.457
65.34000 2.214
65.36000 2.292
65.38000 5.169
65.40000 4.089
65.42000 2.976
65.44000 0.688
65.46000 -1.596
65.48000 -2.299
65.50000 2.288
65.52000 3.893
65.54000 7.237
65.56000 8.602
65.58000 6.709
65.60000 4.790
65.62000 1.447
65.64000 2.439
65.66000 3.964
65.68000 1.124
65.70000 -2.294
65.72000 1.013
65.74000 1.394
65.76000 3.025
65.78000 6.008
65.80000 2.914
65.82000 2.386
65.84000 0.452
65.86000 2.041
65.88000 1.301
65.90000 0.689
65.92000 0.921
65.94000 0.275
65.96000 -0.009
65.98000 0.783
66.00000 0.873
66.02000 3.590
66.04000 1.768
66.06000 2.412
66.08000 2.760
66.10000 3.008
66.12000 2.221
66.14000 1.814
66.16000 1.762
66.18000 1.556
66.20000 2.912
66.22000 2.555
66.24000 1.568
66.26000 2.082
66.28000 3.714
66.30000 1.945
66.32000 -0.749
66.34000 -2.329
66.36000 4.424
66.38000 5.252
66.40000 2.029
66.42000 -1.153
66.44000 0.332
66.46000 0.391
66.48000 2.554
66.50000 1.816
66.52000 0.747
66.54000 -0.266
66.56000 2.214
66.58000 4.113
66.60000 3.801
66.62000 2.979
66.64000 1.298
66.66000 1.374
66.68000 3.737
66.70000 4.589
66.72000 2.816
66.74000 4.578
66.76000 3.722
66.78000 3.255
66.80000 3.450
66.82000 2.059
66.84000 2.935
66.86000 -2.337
66.88000 2.069
66.90000 3.412
66.92000 0.180
66.94000 1.945
66.96000 -0.171
66.98000 1.066
67.00000 2.763
67.02000 1.885
67.04000 2.998
67.06000 5.930
67.08000 4.505
67.10000 0.769
67.12000 2.691
67.14000 1.858
67.16000 2.972
67.18000 4.464
67.20000 4.116
67.22000 4.486
67.24000 3.508
67.26000 7.490
67.28000 4.756
67.30000 3.601
67.32000 3.833
67.34000 4.314
67.36000 6.793
67.38000 4.143
67.40000 2.824
67.42000 4.629
67.44000 5.270
67.46000 6.314
67.48000 5.636
67.50000 5.875
67.52000 5.731
67.54000 6.597
67.56000 6.433
67.58000 8.672
67.60000 9.391
67.62000 8.611
67.64000 10.976
67.66000 9.721
67.68000 12.287
67.70000 11.235
67.72000 12.235
67.74000 10.813
67.76000 10.547
67.78000 9.216
67.80000 11.803
67.82000 9.867
67.84000 12.588
67.86000 14.220
67.88000 12.451
67.90000 13.865
67.92000 13.041
67.94000 15.966
67.96000 17.164
67.98000 20.949
68.00000 20.363
68.02000 17.510
68.04000 21.372
68.06000 17.947
68.08000 16.036
68.10000 16.785
68.12000 16.972
68.14000 19.789
68.16000 22.674
68.18000 25.826
68.20000 28.831
68.22000 26.241
68.24000 24.491
68.26000 27.917
68.28000 26.523
68.30000 28.562
68.32000 29.132
68.34000 32.605
68.36000 31.199
68.38000 30.927
68.40000 31.056
68.42000 31.619
68.44000 33.553
68.46000 32.093
68.48000 28.402
68.50000 30.248
68.52000 30.604
68.54000 28.127
68.56000 25.882
68.58000 28.391
68.60000 30.625
68.62000 31.569
68.64000 31.779
68.66000 33.204
68.68000 31.237
68.70000 33.024
68.72000 30.120
68.74000 30.627
68.76000 29.839
68.78000 28.582
68.80000 28.914
68.82000 28.254
68.84000 27.863
68.86000 28.609
68.88000 29.017
68.90000 28.933
68.92000 26.651
68.94000 28.606
68.96000 25.286
68.98000 21.962
69.00000 20.657
69.02000 22.798
69.04000 21.545
69.06000 20.471
69.08000 18.217
69.10000 17.519
69.12000 17.752
69.14000 16.752
69.16000 16.675
69.18000 16.904
69.20000 14.546
69.22000 13.088
69.24000 12.078
69.26000 9.976
69.28000 11.618
69.30000 9.404
69.32000 9.034
69.34000 10.177
69.36000 9.421
69.38000 8.378
69.40000 8.231
69.42000 8.892
69.44000 7.679
69.46000 6.687
69.48000 8.927
69.50000 7.232
69.52000 4.896
69.54000 5.717
69.56000 6.071
69.58000 6.053
69.60000 3.982
69.62000 3.979
69.64000 4.094
69.66000 4.342
69.68000 5.196
69.70000 3.803
69.72000 4.144
69.74000 3.355
69.76000 3.912
69.78000 1.329
69.80000 0.433
69.82000 1.868
69.84000 1.796
69.86000 6.377
69.88000 3.469
69.90000 2.712
69.92000 3.922
69.94000 2.491
69.96000 4.097
69.98000 2.070
70.00000 3.467
70.02000 5.146
70.04000 4.431
70.06000 0.344
70.08000 -2.170
70.10000 1.511
70.12000 3.084
70.14000 4.652
70.16000 4.170
70.18000 4.065
70.20000 2.405
70.22000 2.681
70.24000 2.218
70.26000 1.805
70.28000 4.963
70.30000 4.120
70.32000 6.322
70.34000 3.042
70.36000 -0.447
70.38000 1.779
70.40000 1.654
70.42000 2.464
70.44000 2.665
70.46000 1.516
70.48000 2.821
70.50000 3.988
70.52000 1.707
70.54000 2.022
70.56000 0.344
70.58000 2.487
70.60000 2.887
70.62000 3.445
70.64000 -0.104
70.66000 -0.367
70.68000 3.125
70.70000 5.019
70.72000 2.814
70.74000 2.291
70.76000 1.567
70.78000 -2.124
70.80000 1.761
70.82000 1.956
70.84000 2.750
70.86000 3.320
70.88000 1.612
70.90000 1.075
70.92000 0.711
70.94000 2.181
70.96000 0.325
70.98000 0.700
71.00000 1.003
71.02000 3.592
71.04000 4.654
71.06000 3.428
71.08000 3.970
71.10000 3.370
71.12000 1.172
71.14000 0.080
71.16000 3.423
71.18000 3.415
71.20000 1.039
71.22000 2.765
71.24000 3.485
71.26000 -2.072
71.28000 1.359
71.30000 0.879
71.32000 0.489
71.34000 2.465
71.36000 0.912
71.38000 1.354
71.40000 -1.091
71.42000 -1.138
71.44000 1.106
71.46000 2.301
71.48000 2.341
71.50000 1.072
71.52000 0.489
71.54000 0.882
71.56000 0.899
71.58000 0.712
71.60000 2.572
71.62000 2.445
71.64000 1.436
71.66000 1.429
71.68000 2.057
71.70000 3.307
71.72000 -0.436
71.74000 -1.066
71.76000 -1.222
71.78000 1.330
71.80000 1.408
71.82000 -0.231
71.84000 -1.849
71.86000 1.272
71.88000 0.474
71.90000 2.960
71.92000 2.073
71.94000 1.407
71.96000 2.885
71.98000 2.062
72.00000 1.450
72.02000 3.131
72.04000 6.333
72.06000 5.595
72.08000 6.444
72.10000 3.591
72.12000 0.575
72.14000 2.584
72.16000 -0.128
72.18000 -0.685
72.20000 2.713
72.22000 0.901
72.24000 -2.031
72.26000 3.226
72.28000 6.541
72.30000 2.708
72.32000 3.822
72.34000 1.905
72.36000 6.456
72.38000 7.448
72.40000 7.730
72.42000 4.738
72.44000 4.692
72.46000 5.843
72.48000 2.785
72.50000 2.213
72.52000 0.961
72.54000 1.216
72.56000 1.082
72.58000 0.990
72.60000 3.930
72.62000 2.933
72.64000 1.439
72.66000 0.275
72.68000 2.171
72.70000 4.925
72.72000 4.375
72.74000 3.125
72.76000 5.424
72.78000 6.274
72.80000 3.602
72.82000 0.906
72.84000 0.542
72.86000 2.734
72.88000 1.639
72.90000 2.294
72.92000 1.689
72.94000 3.858
72.96000 2.501
72.98000 1.550
73.00000 -1.982
73.02000 -0.898
73.04000 2.915
73.06000 1.593
73.08000 1.146
73.10000 3.355
73.12000 5.955
73.14000 4.104
73.16000 -0.078
73.18000 -0.273
73.20000 2.381
73.22000 3.331
73.24000 1.228
73.26000 2.795
73.28000 2.946
73.30000 0.497
73.32000 2.062
73.34000 5.419
73.36000 3.149
73.38000 -0.646
73.40000 -1.990
73.42000 2.497
73.44000 4.307
73.46000 4.698
73.48000 2.226
73.50000 -1.103
73.52000 0.198
73.54000 1.985
73.56000 2.147
73.58000 0.229
73.60000 2.680
73.62000 3.033
73.64000 2.704
73.66000 2.799
73.68000 3.688
73.70000 1.084
73.72000 1.882
73.74000 4.643
73.76000 3.867
73.78000 3.558
73.80000 3.220
73.82000 1.063
73.84000 0.158
73.86000 0.576
73.88000 1.095
73.90000 0.765
73.92000 -0.227
73.94000 1.066
73.96000 2.205
73.98000 1.649
74.00000 2.676
74.02000 0.777
74.04000 2.445
74.06000 4.037
74.08000 1.961
74.10000 1.305
74.12000 3.506
74.14000 -0.450
74.16000 -1.993
74.18000 -1.163
74.20000 1.953
74.22000 0.444
74.24000 0.480
74.26000 2.399
74.28000 -0.133
74.30000 0.127
74.32000 -0.632
74.34000 1.841
74.36000 1.959
74.38000 0.190
74.40000 0.552
74.42000 -1.992
74.44000 -0.828
74.46000 1.142
74.48000 3.616
74.50000 3.940
74.52000 5.187
74.54000 0.535
74.56000 1.449
74.58000 1.335
74.60000 3.617
74.62000 1.160
74.64000 -1.630
74.66000 0.863
74.68000 2.696
74.70000 4.231
74.72000 1.378
74.74000 1.915
74.76000 4.617
74.78000 1.408
74.80000 -1.043
74.82000 0.417
74.84000 0.908
74.86000 -0.444
74.88000 -1.233
74.90000 -0.847
74.92000 1.753
74.94000 0.062
74.96000 2.109
74.98000 1.010
75.00000 -2.005
75.02000 -0.374
75.04000 4.808
75.06000 4.477
75.08000 5.634
75.10000 5.486
75.12000 3.372
75.14000 1.243
75.16000 0.074
75.18000 -1.891
75.20000 -0.390
75.22000 0.186
75.24000 1.537
75.26000 5.663
75.28000 4.541
75.30000 3.808
75.32000 2.321
75.34000 4.264
75.36000 3.731
75.38000 1.714
75.40000 1.121
75.42000 -0.234
75.44000 -1.653
75.46000 1.760
75.48000 2.553
75.50000 5.634
75.52000 2.016
75.54000 -0.061
75.56000 2.532
75.58000 2.837
75.60000 2.401
75.62000 4.362
75.64000 0.449
75.66000 1.573
75.68000 4.164
75.70000 2.031
75.72000 0.849
75.74000 3.039
75.76000 6.669
75.78000 4.329
75.80000 0.634
75.82000 0.073
75.84000 0.069
75.86000 0.181
75.88000 1.433
75.90000 5.567
75.92000 2.999
75.94000 -0.099
75.96000 2.191
75.98000 -1.567
76.00000 -1.974
76.02000 3.312
76.04000 3.301
76.06000 1.393
76.08000 0.387
76.10000 3.359
76.12000 2.908
76.14000 2.866
76.16000 0.514
76.18000 1.995
76.20000 2.096
76.22000 1.437
76.24000 1.053
76.26000 4.123
76.28000 1.271
76.30000 0.198
76.32000 1.031
76.34000 4.295
76.36000 0.522
76.38000 -1.741
76.40000 0.809
76.42000 -0.155
76.44000 -0.128
76.46000 1.958
76.48000 5.329
76.50000 4.403
76.52000 2.400
76.54000 0.056
76.56000 2.428
76.58000 2.083
76.60000 -0.388
76.62000 -0.636
76.64000 0.707
76.66000 -0.459
76.68000 2.209
76.70000 2.658
76.72000 1.595
76.74000 2.217
76.76000 3.987
76.78000 0.362
76.80000 1.472
76.82000 1.970
76.84000 3.213
76.86000 1.496
76.88000 0.658
76.90000 -0.146
76.92000 -0.482
76.94000 1.094
76.96000 -0.394
76.98000 -0.633
77.00000 2.153
77.02000 0.639
77.04000 0.169
77.06000 1.265
77.08000 0.880
77.10000 -2.029
77.12000 -1.973
77.14000 -0.112
77.16000 1.375
77.18000 3.557
77.20000 3.225
77.22000 1.433
77.24000 5.448
77.26000 5.598
77.28000 1.147
77.30000 0.460
77.32000 0.670
77.34000 2.351
77.36000 2.933
77.38000 1.569
77.40000 -1.216
77.42000 -1.306
77.44000 -0.374
77.46000 2.795
77.48000 0.877
77.50000 -1.182
77.52000 1.842
77.54000 2.585
77.56000 2.037
77.58000 1.087
77.60000 1.359
77.62000 0.257
77.64000 2.765
77.66000 4.199
77.68000 -0.005
77.70000 -1.732
77.72000 -0.377
77.74000 -2.013
77.76000 -0.614
77.78000 2.159
77.80000 -0.223
77.82000 -0.030
77.84000 0.024
77.86000 0.072
77.88000 2.355
77.90000 3.134
77.92000 0.569
77.94000 0.405
77.96000 1.131
77.98000 1.972
78.00000 1.635
78.02000 0.422
78.04000 2.046
78.06000 5.085
78.08000 2.888
78.10000 4.285
78.12000 5.396
78.14000 4.464
78.16000 2.809
78.18000 2.749
78.20000 2.621
78.22000 3.962
78.24000 2.938
78.26000 -0.038
78.28000 -1.997
78.30000 -0.107
78.32000 1.854
78.34000 4.999
78.36000 3.815
78.38000 2.715
78.40000 5.604
78.42000 2.810
78.44000 2.175
78.46000 1.258
78.48000 3.543
78.50000 3.156
78.52000 3.662
78.54000 4.177
78.56000 6.474
78.58000 3.204
78.60000 1.461
78.62000 0.111
78.64000 -0.578
78.66000 -0.009
78.68000 0.670
78.70000 1.872
78.72000 2.330
78.74000 3.190
78.76000 3.271
78.78000 2.296
78.80000 1.144
78.82000 2.654
78.84000 0.561
78.86000 1.827
78.88000 1.921
78.90000 2.035
78.92000 0.915
78.94000 1.633
78.96000 2.411
78.98000 1.234
79.00000 2.234
79.02000 -1.436
79.04000 -2.072
79.06000 -0.922
79.08000 0.167
79.10000 -1.785
79.12000 -1.668
79.14000 -1.160
79.16000 -0.081
79.18000 0.407
79.20000 0.220
79.22000 -1.576
79.24000 2.519
79.26000 6.065
79.28000 3.755
79.30000 0.421
79.32000 -1.553
79.34000 2.538
79.36000 8.197
79.38000 4.294
79.40000 2.565
79.42000 -1.073
79.44000 0.600
79.46000 5.367
79.48000 5.752
79.50000 0.324
79.52000 -0.105
79.54000 1.121
79.56000 1.518
79.58000 2.395
79.60000 1.173
79.62000 0.095
79.64000 1.399
79.66000 4.001
79.68000 -0.815
79.70000 -1.312
79.72000 1.488
79.74000 -0.430
79.76000 1.102
79.78000 1.909
79.80000 3.222
79.82000 0.180
79.84000 1.538
79.86000 2.699
79.88000 5.913
79.90000 4.005
79.92000 2.819
79.94000 0.957
79.96000 0.011
79.98000 2.839
80.00000 1.161
80.02000 -2.103
80.04000 -0.442
80.06000 1.531
80.08000 -1.487
80.10000 -0.257
80.12000 0.381
80.14000 1.363
80.16000 -2.077
80.18000 -0.420
80.20000 3.142
80.22000 -1.013
80.24000 1.186
80.26000 3.170
80.28000 2.798
80.30000 5.201
80.32000 2.831
80.34000 2.913
80.36000 2.873
80.38000 1.459
80.40000 3.217
80.42000 5.129
80.44000 3.275
80.46000 2.797
80.48000 1.265
80.50000 1.438
80.52000 0.600
80.54000 1.558
80.56000 0.785
80.58000 -0.754
80.60000 4.651
80.62000 7.357
80.64000 4.484
80.66000 1.647
80.68000 0.634
80.70000 3.607
80.72000 2.219
80.74000 5.895
80.76000 3.753
80.78000 6.102
80.80000 4.775
80.82000 -2.132
80.84000 0.487
80.86000 3.620
80.88000 2.700
80.90000 5.562
80.92000 5.766
80.94000 6.048
80.96000 4.276
80.98000 -0.091
81.00000 1.851
81.02000 3.064
81.04000 6.104
81.06000 6.407
81.08000 4.866
81.10000 5.947
81.12000 6.455
81.14000 6.724
81.16000 5.154
81.18000 5.301
81.20000 3.207
81.22000 5.194
81.24000 2.125
81.26000 4.247
81.28000 5.816
81.30000 6.932
81.32000 4.816
81.34000 4.903
81.36000 4.022
81.38000 7.259
81.40000 3.645
81.42000 9.058
81.44000 9.200
81.46000 9.278
81.48000 9.848
81.50000 10.052
81.52000 8.576
81.54000 9.147
81.56000 8.310
81.58000 9.478
81.60000 6.994
81.62000 8.403
81.64000 7.872
81.66000 8.663
81.68000 12.339
81.70000 12.503
81.72000 15.395
81.74000 15.721
81.76000 10.826
81.78000 8.440
81.80000 11.513
81.82000 15.283
81.84000 17.686
81.86000 16.832
81.88000 16.383
81.90000 15.863
81.92000 14.486
81.94000 15.033
81.96000 16.102
81.98000 12.906
82.00000 11.223
82.02000 19.652
82.04000 19.922
82.06000 19.971
82.08000 20.275
82.10000 20.427
82.12000 21.251
82.14000 18.297
82.16000 19.150
82.18000 19.553
82.20000 23.145
82.22000 28.394
82.24000 28.209
82.26000 25.383
82.28000 26.099
82.30000 26.985
82.32000 27.342
82.34000 29.332
82.36000 27.700
82.38000 27.495
82.40000 35.268
82.42000 33.283
82.44000 30.167
82.46000 31.889
82.48000 32.169
82.50000 31.087
82.52000 32.589
82.54000 32.196
82.56000 31.909
82.58000 36.813
82.60000 36.710
82.62000 35.259
82.64000 35.311
82.66000 35.449
82.68000 35.441
82.70000 37.031
82.72000 37.948
82.74000 37.526
82.76000 39.361
82.78000 37.872
82.80000 33.877
82.82000 35.968
82.84000 35.503
82.86000 37.253
82.88000 35.999
82.90000 35.578
82.92000 35.277
82.94000 32.281
82.96000 30.081
82.98000 30.223
83.00000 26.815
83.02000 27.025
83.04000 30.253
83.06000 30.175
83.08000 31.063
83.10000 32.207
83.12000 29.065
83.14000 29.191
83.16000 26.984
83.18000 27.215
83.20000 28.093
83.22000 29.430
83.24000 28.039
83.26000 27.379
83.28000 25.112
83.30000 20.406
83.32000 19.274
83.34000 21.321
83.36000 21.518
83.38000 16.541
83.40000 15.950
83.42000 15.070
83.44000 14.898
83.46000 17.861
83.48000 15.956
83.50000 13.869
83.52000 13.133
83.54000 15.224
83.56000 13.982
83.58000 9.854
83.60000 6.306
83.62000 7.239
83.64000 9.914
83.66000 9.179
83.68000 8.721
83.70000 7.673
83.72000 10.373
83.74000 10.294
83.76000 7.717
83.78000 4.064
83.80000 3.222
83.82000 6.319
83.84000 5.124
83.86000 3.284
83.88000 4.141
83.90000 1.078
83.92000 -1.044
83.94000 -0.046
83.96000 -0.345
83.98000 5.279
84.00000 3.412
84.02000 1.848
84.04000 6.020
84.06000 5.056
84.08000 3.969
84.10000 0.935
84.12000 0.074
84.14000 -1.762
84.16000 2.135
84.18000 3.405
84.20000 0.981
84.22000 2.846
84.24000 1.655
84.26000 0.613
84.28000 1.950
84.30000 -2.180
84.32000 1.936
84.34000 2.397
84.36000 0.117
84.38000 -2.081
84.40000 0.449
84.42000 3.677
84.44000 3.657
84.46000 1.320
84.48000 2.718
84.50000 2.158
84.52000 2.044
84.54000 0.265
84.56000 -2.149
84.58000 -0.975
84.60000 0.470
84.62000 5.072
84.64000 4.779
84.66000 0.848
84.68000 -0.931
84.70000 0.197
84.72000 -1.252
84.74000 -1.189
84.76000 1.005
84.78000 2.342
84.80000 0.817
84.82000 -0.627
84.84000 0.596
84.86000 1.940
84.88000 3.056
84.90000 4.708
84.92000 3.282
84.94000 3.176
84.96000 1.776
84.98000 -0.659
85.00000 -2.091
85.02000 -2.034
85.04000 0.391
85.06000 1.787
85.08000 3.021
85.10000 1.284
85.12000 3.684
85.14000 0.994
85.16000 3.623
85.18000 5.520
85.20000 6.694
85.22000 4.104
85.24000 1.027
85.26000 -1.001
85.28000 0.787
85.30000 -1.717
85.32000 0.032
85.34000 -1.142
85.36000 0.959
85.38000 0.565
85.40000 -1.283
85.42000 3.542
85.44000 -0.750
85.46000 -2.075
85.48000 0.166
85.50000 0.712
85.52000 3.385
85.54000 2.099
85.56000 2.656
85.58000 5.596
85.60000 2.309
85.62000 -0.452
85.64000 1.417
85.66000 1.691
85.68000 2.690
85.70000 2.323
85.72000 1.557
85.74000 3.770
85.76000 3.143
85.78000 1.926
85.80000 1.917
85.82000 -0.838
85.84000 0.914
85.86000 2.050
85.88000 1.412
85.90000 0.045
85.92000 -2.106
85.94000 2.368
85.96000 4.399
85.98000 3.469
86.00000 3.351
86.02000 4.107
86.04000 1.569
86.06000 0.861
86.08000 2.949
86.10000 3.261
86.12000 1.647
86.14000 3.388
86.16000 5.567
86.18000 3.648
86.20000 5.052
86.22000 4.803
86.24000 6.004
86.26000 6.319
86.28000 5.604
86.30000 7.080
86.32000 10.641
86.34000 10.183
86.36000 6.958
86.38000 9.270
86.40000 6.731
86.42000 10.325
86.44000 11.124
86.46000 8.994
86.48000 10.472
86.50000 5.741
86.52000 6.788
86.54000 10.048
86.56000 8.533
86.58000 11.756
86.60000 15.710
86.62000 15.933
86.64000 15.109
86.66000 16.586
86.68000 15.242
86.70000 15.839
86.72000 18.490
86.74000 17.621
86.76000 15.253
86.78000 17.570
86.80000 21.088
86.82000 17.981
86.84000 14.235
86.86000 14.578
86.88000 16.906
86.90000 22.627
86.92000 21.085
86.94000 17.073
86.96000 15.165
86.98000 14.884
87.00000 18.872
87.02000 20.349
87.04000 28.123
87.06000 27.784
87.08000 17.138
87.10000 14.074
87.12000 15.784
87.14000 18.965
87.16000 21.077
87.18000 20.559
87.20000 20.662
87.22000 17.010
87.24000 18.769
87.26000 19.579
87.28000 17.663
87.30000 17.108
87.32000 21.175
87.34000 17.530
87.36000 15.231
87.38000 13.125
87.40000 12.908
87.42000 14.234
87.44000 14.834
87.46000 16.212
87.48000 15.396
87.50000 9.094
87.52000 9.653
87.54000 9.319
87.56000 12.150
87.58000 13.264
87.60000 11.582
87.62000 7.775
87.64000 7.561
87.66000 10.397
87.68000 9.921
87.70000 9.293
87.72000 11.286
87.74000 6.849
87.76000 5.503
87.78000 8.466
87.80000 7.494
87.82000 7.043
87.84000 6.317
87.86000 6.935
87.88000 2.951
87.90000 1.726
87.92000 6.174
87.94000 5.679
87.96000 1.934
87.98000 3.176
88.00000 2.223
88.02000 2.073
88.04000 2.386
88.06000 2.025
88.08000 4.228
88.10000 5.422
88.12000 4.008
88.14000 3.528
88.16000 4.278
88.18000 1.095
88.20000 2.617
88.22000 1.375
88.24000 2.546
88.26000 3.142
88.28000 2.355
88.30000 3.405
88.32000 0.014
88.34000 1.460
88.36000 2.117
88.38000 3.814
88.40000 0.448
88.42000 -1.115
88.44000 -1.327
88.46000 -1.490
88.48000 0.101
88.50000 0.060
88.52000 -0.313
88.54000 1.964
88.56000 1.349
88.58000 0.271
88.60000 -0.735
88.62000 0.326
88.64000 -0.699
88.66000 -2.008
88.68000 -2.007
88.70000 1.535
88.72000 2.589
88.74000 -0.309
88.76000 -0.665
88.78000 2.591
88.80000 0.275
88.82000 -0.107
88.84000 1.751
88.86000 2.804
88.88000 3.103
88.90000 0.699
88.92000 1.706
88.94000 3.144
88.96000 2.154
88.98000 -0.953
89.00000 -0.467
89.02000 -1.530
89.04000 -0.843
89.06000 -0.808
89.08000 0.524
89.10000 4.409
89.12000 3.890
89.14000 2.423
89.16000 -0.379
89.18000 -0.496
89.20000 5.049
89.22000 5.910
89.24000 3.696
89.26000 0.546
89.28000 -0.138
89.30000 2.097
89.32000 3.139
89.34000 0.864
89.36000 -1.339
89.38000 -1.703
89.40000 -0.416
89.42000 -0.804
89.44000 -0.884
89.46000 -1.902
89.48000 0.158
89.50000 3.060
89.52000 1.206
89.54000 -0.431
89.56000 -0.607
89.58000 1.119
89.60000 3.103
89.62000 9.123
89.64000 3.614
89.66000 -1.867
89.68000 -1.507
89.70000 1.889
89.72000 4.833
89.74000 4.077
89.76000 1.736
89.78000 0.758
89.80000 2.469
89.82000 3.345
89.84000 3.743
89.86000 0.642
89.88000 1.870
89.90000 -0.866
89.92000 0.267
89.94000 0.534
89.96000 1.287
89.98000 3.366
90.00000 4.270
90.02000 3.446
90.04000 3.395
90.06000 3.668
90.08000 2.380
90.10000 2.611
90.12000 0.345
90.14000 1.588
90.16000 2.716
90.18000 -1.895
90.20000 3.521
90.22000 1.755
90.24000 -1.305
90.26000 -0.192
90.28000 1.527
90.30000 -0.507
90.32000 -0.672
90.34000 1.983
90.36000 2.772
90.38000 2.655
90.40000 4.041
90.42000 3.117
90.44000 -0.420
90.46000 3.301
90.48000 1.234
90.50000 -1.803
90.52000 -0.893
90.54000 1.407
90.56000 0.309
90.58000 2.178
90.60000 2.584
90.62000 2.647
90.64000 -0.308
90.66000 -1.193
90.68000 -0.972
90.70000 2.382
90.72000 3.780
90.74000 1.774
90.76000 2.114
90.78000 1.408
90.80000 1.638
90.82000 2.616
90.84000 2.765
90.86000 3.473
90.88000 1.513
90.90000 0.411
90.92000 0.197
90.94000 -0.156
90.96000 -0.121
90.98000 1.534
91.00000 2.214
91.02000 2.251
91.04000 2.709
91.06000 0.288
91.08000 3.703
91.10000 5.022
91.12000 4.186
91.14000 5.622
91.16000 0.008
91.18000 -1.894
91.20000 0.348
91.22000 2.775
91.24000 2.803
91.26000 1.384
91.28000 0.482
91.30000 -0.089
91.32000 2.485
91.34000 6.066
91.36000 6.618
91.38000 0.182
91.40000 -1.759
91.42000 3.035
91.44000 3.494
91.46000 4.246
91.48000 1.834
91.50000 -0.751
91.52000 -1.871
91.54000 2.816
91.56000 4.270
91.58000 3.757
91.60000 4.783
91.62000 5.388
91.64000 4.924
91.66000 5.571
91.68000 5.597
91.70000 1.447
91.72000 0.057
91.74000 4.001
91.76000 1.726
91.78000 1.626
91.80000 3.204
91.82000 1.402
91.84000 2.383
91.86000 3.004
91.88000 1.424
91.90000 3.837
91.92000 1.155
91.94000 2.426
91.96000 1.738
91.98000 0.542
92.00000 3.374
92.02000 3.984
92.04000 4.869
92.06000 2.030
92.08000 5.070
92.10000 0.800
92.12000 1.652
92.14000 -1.872
92.16000 2.810
92.18000 4.956
92.20000 3.742
92.22000 4.489
92.24000 0.513
92.26000 -0.492
92.28000 1.977
92.30000 1.364
92.32000 1.163
92.34000 3.932
92.36000 0.603
92.38000 2.451
92.40000 6.353
92.42000 6.153
92.44000 2.407
92.46000 1.304
92.48000 3.052
92.50000 0.942
92.52000 4.791
92.54000 3.366
92.56000 0.577
92.58000 -0.652
92.60000 1.340
92.62000 -1.010
92.64000 0.287
92.66000 -1.698
92.68000 -1.184
92.70000 1.524
92.72000 4.783
92.74000 4.694
92.76000 5.224
92.78000 4.423
92.80000 2.242
92.82000 1.272
92.84000 4.212
92.86000 4.832
92.88000 4.286
92.90000 1.974
92.92000 1.953
92.94000 1.757
92.96000 -0.342
92.98000 -0.921
93.00000 0.870
93.02000 2.021
93.04000 1.456
93.06000 1.508
93.08000 1.395
93.10000 0.644
93.12000 2.627
93.14000 -1.412
93.16000 2.806
93.18000 0.898
93.20000 5.323
93.22000 2.954
93.24000 1.685
93.26000 3.993
93.28000 0.498
93.30000 -0.884
93.32000 -1.900
93.34000 1.004
93.36000 3.595
93.38000 -0.381
93.40000 -1.897
93.42000 0.577
93.44000 3.674
93.46000 5.144
93.48000 3.991
93.50000 5.156
93.52000 1.425
93.54000 4.266
93.56000 2.538
93.58000 1.896
93.60000 4.296
93.62000 3.035
93.64000 1.613
93.66000 0.098
93.68000 3.019
93.70000 0.691
93.72000 0.609
93.74000 2.013
93.76000 3.876
93.78000 5.161
93.80000 5.310
93.82000 2.642
93.84000 3.571
93.86000 4.270
93.88000 -0.193
93.90000 -0.775
93.92000 3.569
93.94000 0.093
93.96000 0.617
93.98000 1.121
94.00000 4.560
94.02000 4.326
94.04000 1.203
94.06000 2.622
94.08000 1.777
94.10000 -0.083
94.12000 4.638
94.14000 4.062
94.16000 5.901
94.18000 4.277
94.20000 1.260
94.22000 1.407
94.24000 3.939
94.26000 3.574
94.28000 5.365
94.30000 6.525
94.32000 6.286
94.34000 3.849
94.36000 3.342
94.38000 5.332
94.40000 3.094
94.42000 4.807
94.44000 7.453
94.46000 5.284
94.48000 1.885
94.50000 1.434
94.52000 0.919
94.54000 4.448
94.56000 3.350
94.58000 3.783
94.60000 3.380
94.62000 5.576
94.64000 5.672
94.66000 0.878
94.68000 -1.857
94.70000 2.128
94.72000 1.474
94.74000 2.881
94.76000 3.419
94.78000 2.458
94.80000 -1.616
94.82000 -0.697
94.84000 0.399
94.86000 2.263
94.88000 2.809
94.90000 1.915
94.92000 5.108
94.94000 3.298
94.96000 1.510
94.98000 1.681
95.00000 3.149
95.02000 4.391
95.04000 3.050
95.06000 2.451
95.08000 1.036
95.10000 -1.876
95.12000 3.210
95.14000 5.883
95.16000 5.665
95.18000 6.101
95.20000 6.509
95.22000 7.358
95.24000 3.988
95.26000 1.818
95.28000 3.274
95.30000 3.710
95.32000 6.058
95.34000 3.205
95.36000 5.780
95.38000 3.874
95.40000 -0.494
95.42000 3.130
95.44000 2.902
95.46000 5.848
95.48000 3.465
95.50000 2.497
95.52000 4.616
95.54000 5.281
95.56000 2.797
95.58000 -0.525
95.60000 0.324
95.62000 2.020
95.64000 4.322
95.66000 7.403
95.68000 2.927
95.70000 -1.013
95.72000 0.871
95.74000 6.617
95.76000 5.018
95.78000 0.194
95.80000 1.331
95.82000 2.596
95.84000 -1.576
95.86000 -0.189
95.88000 4.052
95.90000 1.404
95.92000 1.691
95.94000 2.942
95.96000 1.171
95.98000 3.000
96.00000 6.082
96.02000 8.042
96.04000 5.952
96.06000 5.008
96.08000 4.721
96.10000 3.908
96.12000 3.624
96.14000 1.126
96.16000 6.420
96.18000 4.519
96.20000 6.169
96.22000 3.288
96.24000 -1.889
96.26000 2.746
96.28000 1.473
96.30000 -1.879
96.32000 0.998
96.34000 4.005
96.36000 2.578
96.38000 4.797
96.40000 2.932
96.42000 3.791
96.44000 -0.288
96.46000 -0.338
96.48000 3.045
96.50000 5.512
96.52000 1.834
96.54000 1.233
96.56000 7.559
96.58000 5.941
96.60000 4.375
96.62000 1.736
96.64000 2.446
96.66000 0.701
96.68000 1.154
96.70000 3.584
96.72000 3.611
96.74000 2.428
96.76000 3.667
96.78000 2.282
96.80000 2.748
96.82000 5.213
96.84000 2.484
96.86000 4.582
96.88000 7.856
96.90000 8.701
96.92000 6.379
96.94000 -1.254
96.96000 2.242
96.98000 1.431
97.00000 -0.324
97.02000 1.559
97.04000 0.687
97.06000 2.293
97.08000 1.359
97.10000 2.130
97.12000 1.450
97.14000 0.779
97.16000 1.552
97.18000 1.229
97.20000 2.233
97.22000 8.889
97.24000 0.443
97.26000 -1.675
97.28000 -0.297
97.30000 2.001
97.32000 3.608
97.34000 1.441
97.36000 2.717
97.38000 3.631
97.40000 3.731
97.42000 0.432
97.44000 3.784
97.46000 5.930
97.48000 2.993
97.50000 -0.637
97.52000 -0.244
97.54000 1.761
97.56000 3.885
97.58000 1.051
97.60000 0.224
97.62000 -1.415
97.64000 2.174
97.66000 9.024
97.68000 5.222
97.70000 4.862
97.72000 7.319
97.74000 5.858
97.76000 2.985
97.78000 -1.885
97.80000 0.918
97.82000 2.279
97.84000 3.497
97.86000 5.863
97.88000 5.094
97.90000 0.569
97.92000 3.047
97.94000 0.791
97.96000 1.733
97.98000 0.599
98.00000 4.511
98.02000 3.565
98.04000 4.527
98.06000 4.258
98.08000 2.543
98.10000 2.328
98.12000 2.933
98.14000 4.936
98.16000 10.787
98.18000 -1.137
98.20000 0.685
98.22000 4.685
98.24000 0.411
98.26000 0.555
98.28000 4.960
98.30000 4.745
98.32000 1.049
98.34000 -0.940
98.36000 -1.225
98.38000 0.328
98.40000 -0.921
98.42000 -1.305
98.44000 3.839
98.46000 6.068
98.48000 2.468
98.50000 3.404
98.52000 4.178
98.54000 7.071
98.56000 2.517
98.58000 5.190
98.60000 6.217
98.62000 6.051
98.64000 6.779
98.66000 6.636
98.68000 0.229
98.70000 4.179
98.72000 11.326
98.74000 8.302
98.76000 3.636
98.78000 4.264
98.80000 5.098
98.82000 1.236
98.84000 -1.814
98.86000 -0.151
98.88000 4.050
98.90000 3.394
98.92000 9.118
98.94000 13.057
98.96000 6.671
98.98000 2.140
99.00000 6.409
99.02000 2.937
99.04000 0.609
99.06000 1.709
99.08000 5.428
99.10000 4.403
99.12000 4.779
99.14000 8.035
99.16000 8.649
99.18000 5.090
99.20000 8.489
99.22000 4.902
99.24000 4.201
99.26000 -1.777
99.28000 -0.207
99.30000 1.042
99.32000 2.292
99.34000 4.938
99.36000 13.769
99.38000 10.574
99.40000 7.684
99.42000 1.782
99.44000 1.607
99.46000 2.195
99.48000 3.614
99.50000 11.319
99.52000 11.428
99.54000 8.499
99.56000 8.750
99.58000 -1.768
99.60000 5.282
99.62000 5.239
99.64000 4.210
99.66000 0.557
99.68000 1.866
99.70000 12.022
99.72000 12.772
99.74000 11.327
99.76000 10.110
99.78000 4.642
99.80000 5.442
99.82000 2.216
99.84000 -5.099
99.86000 7.193
99.88000 7.899
99.90000 8.054
99.92000 2.254
99.94000 5.818
99.96000 7.314
99.98000 0.000
