'Id: "0011387" Comment: "Integrate frame 0011387_Au-Ir-Rh_Rh-rich_XRD-Mapping-284-0000.gfrmwith cursor Wedge Cursor #5" Operator: "B?rgel" Anode: "Cu" Wavelength: "1.5406" Scantype: "2Theta (TwoTheta)" TimePerStep: "1" X: "-13.5" Y: "27" Z: "5.95" 
10.00000 0.000
10.02000 -4.596
10.04000 -0.627
10.06000 -2.579
10.08000 -4.518
10.10000 -4.510
10.12000 -1.033
10.14000 0.651
10.16000 -0.230
10.18000 -4.480
10.20000 9.366
10.22000 -4.470
10.24000 -4.199
10.26000 14.035
10.28000 -3.365
10.30000 -2.504
10.32000 2.963
10.34000 7.056
10.36000 14.027
10.38000 1.896
10.40000 17.028
10.42000 7.380
10.44000 14.119
10.46000 18.071
10.48000 6.576
10.50000 0.025
10.52000 5.803
10.54000 8.484
10.56000 8.241
10.58000 5.005
10.60000 6.227
10.62000 11.624
10.64000 11.522
10.66000 5.549
10.68000 -3.282
10.70000 -1.500
10.72000 4.994
10.74000 11.832
10.76000 20.095
10.78000 4.210
10.80000 7.356
10.82000 13.478
10.84000 -2.981
10.86000 -4.458
10.88000 5.844
10.90000 7.776
10.92000 7.285
10.94000 16.110
10.96000 12.107
10.98000 -2.980
11.00000 -3.650
11.02000 4.690
11.04000 16.319
11.06000 8.965
11.08000 4.076
11.10000 -4.473
11.12000 2.322
11.14000 0.603
11.16000 -2.779
11.18000 4.293
11.20000 24.245
11.22000 21.805
11.24000 7.306
11.26000 7.736
11.28000 2.121
11.30000 7.129
11.32000 -0.996
11.34000 -4.487
11.36000 0.666
11.38000 7.521
11.40000 16.032
11.42000 6.482
11.44000 5.769
11.46000 7.210
11.48000 6.736
11.50000 9.301
11.52000 6.694
11.54000 2.021
11.56000 7.047
11.58000 5.800
11.60000 13.451
11.62000 3.157
11.64000 4.342
11.66000 2.055
11.68000 2.664
11.70000 3.553
11.72000 -3.076
11.74000 1.448
11.76000 7.963
11.78000 0.233
11.80000 -4.508
11.82000 10.700
11.84000 4.537
11.86000 7.111
11.88000 20.398
11.90000 5.408
11.92000 5.677
11.94000 3.201
11.96000 8.642
11.98000 7.960
12.00000 10.937
12.02000 9.329
12.04000 7.614
12.06000 9.923
12.08000 0.301
12.10000 13.630
12.12000 12.673
12.14000 4.737
12.16000 2.050
12.18000 3.209
12.20000 11.860
12.22000 1.335
12.24000 -0.294
12.26000 7.180
12.28000 8.118
12.30000 7.879
12.32000 11.335
12.34000 14.397
12.36000 11.172
12.38000 1.679
12.40000 14.314
12.42000 2.714
12.44000 4.107
12.46000 7.454
12.48000 7.199
12.50000 2.922
12.52000 3.078
12.54000 3.298
12.56000 8.644
12.58000 15.612
12.60000 21.879
12.62000 8.640
12.64000 7.799
12.66000 17.381
12.68000 10.766
12.70000 8.906
12.72000 10.169
12.74000 9.307
12.76000 12.215
12.78000 13.498
12.80000 14.533
12.82000 6.544
12.84000 -1.319
12.86000 -4.526
12.88000 5.083
12.90000 9.158
12.92000 7.671
12.94000 9.319
12.96000 8.148
12.98000 1.232
13.00000 7.644
13.02000 10.609
13.04000 5.453
13.06000 3.462
13.08000 7.733
13.10000 4.356
13.12000 3.365
13.14000 13.735
13.16000 9.220
13.18000 2.553
13.20000 0.651
13.22000 6.673
13.24000 11.998
13.26000 8.705
13.28000 15.119
13.30000 16.870
13.32000 15.317
13.34000 7.141
13.36000 15.991
13.38000 14.305
13.40000 10.358
13.42000 12.944
13.44000 3.137
13.46000 1.701
13.48000 14.520
13.50000 14.656
13.52000 13.543
13.54000 13.757
13.56000 9.022
13.58000 3.870
13.60000 3.448
13.62000 -4.524
13.64000 0.551
13.66000 2.172
13.68000 -2.711
13.70000 11.408
13.72000 12.591
13.74000 7.954
13.76000 14.257
13.78000 7.247
13.80000 0.836
13.82000 6.803
13.84000 1.587
13.86000 -3.817
13.88000 0.064
13.90000 11.002
13.92000 19.075
13.94000 8.103
13.96000 -1.335
13.98000 -2.235
14.00000 -3.030
14.02000 6.289
14.04000 8.461
14.06000 4.383
14.08000 5.572
14.10000 6.476
14.12000 6.935
14.14000 9.585
14.16000 4.420
14.18000 -4.138
14.20000 6.670
14.22000 9.530
14.24000 -0.278
14.26000 4.631
14.28000 -0.860
14.30000 1.181
14.32000 6.640
14.34000 4.707
14.36000 -2.242
14.38000 3.485
14.40000 4.665
14.42000 9.897
14.44000 13.701
14.46000 5.828
14.48000 13.588
14.50000 19.301
14.52000 4.106
14.54000 -0.848
14.56000 5.587
14.58000 4.848
14.60000 7.997
14.62000 8.283
14.64000 2.296
14.66000 0.759
14.68000 8.177
14.70000 3.203
14.72000 -1.510
14.74000 -0.732
14.76000 -0.120
14.78000 -1.044
14.80000 5.199
14.82000 3.861
14.84000 10.677
14.86000 5.742
14.88000 -2.223
14.90000 0.248
14.92000 7.552
14.94000 3.025
14.96000 3.405
14.98000 13.332
15.00000 14.288
15.02000 4.020
15.04000 2.462
15.06000 -0.340
15.08000 1.657
15.10000 4.956
15.12000 -1.388
15.14000 -4.499
15.16000 0.850
15.18000 7.319
15.20000 5.370
15.22000 6.394
15.24000 1.802
15.26000 -3.474
15.28000 5.183
15.30000 13.708
15.32000 8.255
15.34000 9.885
15.36000 5.078
15.38000 6.524
15.40000 3.430
15.42000 4.676
15.44000 6.414
15.46000 4.944
15.48000 7.002
15.50000 10.993
15.52000 10.093
15.54000 -0.106
15.56000 1.405
15.58000 9.471
15.60000 4.679
15.62000 2.304
15.64000 5.328
15.66000 2.856
15.68000 -0.019
15.70000 5.746
15.72000 11.758
15.74000 7.794
15.76000 9.329
15.78000 6.837
15.80000 -1.504
15.82000 0.239
15.84000 10.283
15.86000 7.027
15.88000 10.855
15.90000 6.709
15.92000 9.971
15.94000 0.979
15.96000 -4.463
15.98000 -2.031
16.00000 3.884
16.02000 1.199
16.04000 3.880
16.06000 5.192
16.08000 1.193
16.10000 4.810
16.12000 10.400
16.14000 4.718
16.16000 3.013
16.18000 7.794
16.20000 -0.197
16.22000 2.006
16.24000 2.891
16.26000 1.489
16.28000 1.482
16.30000 4.930
16.32000 9.839
16.34000 3.835
16.36000 0.272
16.38000 7.859
16.40000 2.316
16.42000 1.970
16.44000 -3.070
16.46000 1.304
16.48000 2.684
16.50000 8.195
16.52000 11.769
16.54000 7.637
16.56000 12.502
16.58000 15.615
16.60000 11.651
16.62000 9.981
16.64000 8.412
16.66000 7.081
16.68000 7.017
16.70000 5.478
16.72000 2.509
16.74000 11.846
16.76000 13.495
16.78000 12.714
16.80000 2.833
16.82000 -0.508
16.84000 6.488
16.86000 10.367
16.88000 11.430
16.90000 9.038
16.92000 11.161
16.94000 13.023
16.96000 14.178
16.98000 8.107
17.00000 3.704
17.02000 13.239
17.04000 10.604
17.06000 5.314
17.08000 4.899
17.10000 2.446
17.12000 6.198
17.14000 10.441
17.16000 1.909
17.18000 3.448
17.20000 10.758
17.22000 15.947
17.24000 3.392
17.26000 -0.948
17.28000 13.289
17.30000 20.963
17.32000 14.421
17.34000 14.206
17.36000 10.322
17.38000 13.354
17.40000 12.214
17.42000 8.976
17.44000 8.943
17.46000 14.893
17.48000 14.354
17.50000 2.037
17.52000 -2.872
17.54000 1.667
17.56000 1.705
17.58000 2.097
17.60000 -0.595
17.62000 -0.113
17.64000 -4.319
17.66000 8.970
17.68000 12.145
17.70000 10.870
17.72000 9.937
17.74000 7.958
17.76000 9.198
17.78000 6.948
17.80000 0.547
17.82000 7.331
17.84000 15.253
17.86000 7.738
17.88000 7.403
17.90000 8.488
17.92000 4.976
17.94000 3.857
17.96000 9.340
17.98000 9.884
18.00000 5.085
18.02000 -2.836
18.04000 5.471
18.06000 7.732
18.08000 3.904
18.10000 6.473
18.12000 8.854
18.14000 6.792
18.16000 4.914
18.18000 9.472
18.20000 4.588
18.22000 12.164
18.24000 2.189
18.26000 6.533
18.28000 12.501
18.30000 9.535
18.32000 8.250
18.34000 11.017
18.36000 2.472
18.38000 7.219
18.40000 12.893
18.42000 9.804
18.44000 6.559
18.46000 4.312
18.48000 3.229
18.50000 4.168
18.52000 11.754
18.54000 11.215
18.56000 10.496
18.58000 11.430
18.60000 9.369
18.62000 8.905
18.64000 12.349
18.66000 7.119
18.68000 2.993
18.70000 5.301
18.72000 8.119
18.74000 9.644
18.76000 11.692
18.78000 4.179
18.80000 2.627
18.82000 3.950
18.84000 3.278
18.86000 8.429
18.88000 11.565
18.90000 10.049
18.92000 10.120
18.94000 14.221
18.96000 11.183
18.98000 5.851
19.00000 0.605
19.02000 2.416
19.04000 3.645
19.06000 1.113
19.08000 5.897
19.10000 7.153
19.12000 1.459
19.14000 1.661
19.16000 10.191
19.18000 3.260
19.20000 5.469
19.22000 4.164
19.24000 4.790
19.26000 6.203
19.28000 5.918
19.30000 1.407
19.32000 5.856
19.34000 8.392
19.36000 8.997
19.38000 8.798
19.40000 10.438
19.42000 6.652
19.44000 6.846
19.46000 0.448
19.48000 11.014
19.50000 4.045
19.52000 -0.084
19.54000 8.442
19.56000 6.787
19.58000 4.595
19.60000 9.727
19.62000 11.513
19.64000 7.035
19.66000 9.009
19.68000 12.537
19.70000 9.609
19.72000 15.604
19.74000 6.992
19.76000 2.724
19.78000 2.701
19.80000 5.153
19.82000 9.863
19.84000 9.448
19.86000 7.981
19.88000 -0.118
19.90000 2.734
19.92000 -0.964
19.94000 2.621
19.96000 4.027
19.98000 4.886
20.00000 8.011
20.02000 2.771
20.04000 1.639
20.06000 5.423
20.08000 5.441
20.10000 0.897
20.12000 -1.698
20.14000 4.535
20.16000 5.740
20.18000 -0.307
20.20000 -4.200
20.22000 5.985
20.24000 11.118
20.26000 11.524
20.28000 5.584
20.30000 2.907
20.32000 1.197
20.34000 2.940
20.36000 9.761
20.38000 17.191
20.40000 5.567
20.42000 5.159
20.44000 5.440
20.46000 9.803
20.48000 9.537
20.50000 5.260
20.52000 7.866
20.54000 7.802
20.56000 6.384
20.58000 6.984
20.60000 5.856
20.62000 1.095
20.64000 5.078
20.66000 8.338
20.68000 8.956
20.70000 7.135
20.72000 1.399
20.74000 9.682
20.76000 5.341
20.78000 5.128
20.80000 5.687
20.82000 9.213
20.84000 5.272
20.86000 4.073
20.88000 1.307
20.90000 -2.111
20.92000 7.750
20.94000 7.691
20.96000 3.813
20.98000 2.053
21.00000 -0.821
21.02000 -1.593
21.04000 4.770
21.06000 0.931
21.08000 -0.871
21.10000 2.785
21.12000 4.621
21.14000 3.238
21.16000 11.827
21.18000 12.280
21.20000 3.248
21.22000 2.053
21.24000 0.452
21.26000 -0.911
21.28000 6.126
21.30000 6.899
21.32000 2.575
21.34000 -2.503
21.36000 -2.131
21.38000 2.193
21.40000 2.085
21.42000 1.924
21.44000 9.394
21.46000 10.468
21.48000 8.768
21.50000 5.041
21.52000 7.485
21.54000 -0.438
21.56000 -0.604
21.58000 7.763
21.60000 7.787
21.62000 4.525
21.64000 7.948
21.66000 9.922
21.68000 6.327
21.70000 -3.743
21.72000 -4.140
21.74000 4.960
21.76000 6.899
21.78000 0.230
21.80000 4.771
21.82000 8.546
21.84000 11.533
21.86000 6.816
21.88000 6.919
21.90000 3.215
21.92000 7.730
21.94000 9.049
21.96000 5.397
21.98000 3.228
22.00000 3.527
22.02000 9.041
22.04000 2.480
22.06000 3.115
22.08000 0.608
22.10000 -0.771
22.12000 8.211
22.14000 7.455
22.16000 3.854
22.18000 4.674
22.20000 5.988
22.22000 7.802
22.24000 2.784
22.26000 6.680
22.28000 10.467
22.30000 7.435
22.32000 5.161
22.34000 5.024
22.36000 7.204
22.38000 13.475
22.40000 8.173
22.42000 9.665
22.44000 12.580
22.46000 8.974
22.48000 3.200
22.50000 -4.097
22.52000 -2.279
22.54000 3.610
22.56000 9.936
22.58000 6.018
22.60000 10.828
22.62000 7.543
22.64000 5.989
22.66000 4.175
22.68000 9.008
22.70000 8.210
22.72000 8.961
22.74000 5.545
22.76000 4.993
22.78000 7.298
22.80000 -0.705
22.82000 -3.497
22.84000 3.037
22.86000 0.069
22.88000 -0.388
22.90000 7.991
22.92000 4.345
22.94000 1.053
22.96000 4.732
22.98000 2.779
23.00000 -0.069
23.02000 5.727
23.04000 2.106
23.06000 -4.063
23.08000 1.670
23.10000 5.242
23.12000 0.397
23.14000 1.790
23.16000 1.015
23.18000 3.161
23.20000 1.505
23.22000 5.847
23.24000 9.246
23.26000 6.186
23.28000 2.048
23.30000 4.660
23.32000 -1.002
23.34000 -4.050
23.36000 6.003
23.38000 9.393
23.40000 2.510
23.42000 3.235
23.44000 6.702
23.46000 4.386
23.48000 0.390
23.50000 -1.357
23.52000 -0.139
23.54000 2.791
23.56000 3.971
23.58000 3.361
23.60000 -1.977
23.62000 0.498
23.64000 3.770
23.66000 2.519
23.68000 3.044
23.70000 4.680
23.72000 7.299
23.74000 7.878
23.76000 1.831
23.78000 -1.560
23.80000 -2.647
23.82000 -1.536
23.84000 0.005
23.86000 8.994
23.88000 8.479
23.90000 2.995
23.92000 1.165
23.94000 0.291
23.96000 2.169
23.98000 3.326
24.00000 3.954
24.02000 -0.835
24.04000 0.456
24.06000 5.731
24.08000 7.269
24.10000 0.417
24.12000 -2.898
24.14000 2.734
24.16000 4.720
24.18000 10.627
24.20000 6.878
24.22000 4.199
24.24000 -1.995
24.26000 1.216
24.28000 2.056
24.30000 0.943
24.32000 4.080
24.34000 7.748
24.36000 6.220
24.38000 6.530
24.40000 0.698
24.42000 0.449
24.44000 7.477
24.46000 6.040
24.48000 0.883
24.50000 -0.644
24.52000 -0.829
24.54000 -3.995
24.56000 -2.489
24.58000 -0.535
24.60000 4.782
24.62000 1.157
24.64000 5.111
24.66000 6.361
24.68000 0.232
24.70000 2.308
24.72000 9.933
24.74000 5.202
24.76000 3.311
24.78000 7.673
24.80000 7.101
24.82000 -1.568
24.84000 4.103
24.86000 3.102
24.88000 3.121
24.90000 4.031
24.92000 4.406
24.94000 11.133
24.96000 4.847
24.98000 3.626
25.00000 -0.272
25.02000 -0.080
25.04000 -1.127
25.06000 4.350
25.08000 7.344
25.10000 7.652
25.12000 3.831
25.14000 1.828
25.16000 1.176
25.18000 3.942
25.20000 2.282
25.22000 1.048
25.24000 5.107
25.26000 5.416
25.28000 7.420
25.30000 3.625
25.32000 1.922
25.34000 -0.867
25.36000 2.923
25.38000 6.113
25.40000 8.759
25.42000 6.554
25.44000 9.294
25.46000 4.796
25.48000 7.833
25.50000 3.839
25.52000 -2.229
25.54000 -0.783
25.56000 -2.466
25.58000 -3.916
25.60000 0.671
25.62000 7.260
25.64000 12.122
25.66000 6.942
25.68000 6.889
25.70000 8.963
25.72000 0.207
25.74000 -1.957
25.76000 1.945
25.78000 6.075
25.80000 7.811
25.82000 4.901
25.84000 4.572
25.86000 -0.576
25.88000 2.663
25.90000 6.701
25.92000 2.443
25.94000 4.766
25.96000 9.120
25.98000 2.881
26.00000 -1.390
26.02000 -2.599
26.04000 4.506
26.06000 5.285
26.08000 4.383
26.10000 6.917
26.12000 5.565
26.14000 6.159
26.16000 3.439
26.18000 1.941
26.20000 -0.005
26.22000 1.580
26.24000 6.414
26.26000 7.348
26.28000 5.157
26.30000 6.179
26.32000 3.737
26.34000 3.343
26.36000 2.078
26.38000 1.861
26.40000 2.554
26.42000 5.922
26.44000 1.032
26.46000 -2.286
26.48000 2.001
26.50000 2.871
26.52000 4.234
26.54000 2.416
26.56000 -1.023
26.58000 -3.865
26.60000 -0.027
26.62000 2.755
26.64000 5.369
26.66000 2.489
26.68000 5.276
26.70000 2.915
26.72000 5.344
26.74000 3.213
26.76000 6.113
26.78000 9.158
26.80000 6.894
26.82000 5.342
26.84000 3.477
26.86000 1.121
26.88000 3.636
26.90000 3.438
26.92000 -0.062
26.94000 -2.198
26.96000 1.831
26.98000 5.804
27.00000 3.541
27.02000 2.274
27.04000 2.283
27.06000 0.768
27.08000 4.790
27.10000 2.779
27.12000 -1.463
27.14000 -3.402
27.16000 3.454
27.18000 5.345
27.20000 6.142
27.22000 2.696
27.24000 0.836
27.26000 0.723
27.28000 0.136
27.30000 2.363
27.32000 3.479
27.34000 2.574
27.36000 0.188
27.38000 2.761
27.40000 2.181
27.42000 3.264
27.44000 5.089
27.46000 5.493
27.48000 3.742
27.50000 0.068
27.52000 4.486
27.54000 4.792
27.56000 -0.701
27.58000 1.517
27.60000 2.499
27.62000 4.123
27.64000 4.947
27.66000 1.745
27.68000 -1.200
27.70000 0.233
27.72000 2.792
27.74000 4.683
27.76000 1.377
27.78000 0.629
27.80000 0.687
27.82000 -2.487
27.84000 -1.365
27.86000 -1.646
27.88000 -1.787
27.90000 -2.127
27.92000 2.046
27.94000 2.687
27.96000 2.801
27.98000 5.732
28.00000 5.752
28.02000 3.176
28.04000 0.754
28.06000 -1.186
28.08000 2.075
28.10000 2.737
28.12000 3.819
28.14000 1.168
28.16000 -0.433
28.18000 0.997
28.20000 2.251
28.22000 5.650
28.24000 4.186
28.26000 3.496
28.28000 3.465
28.30000 3.556
28.32000 5.523
28.34000 8.825
28.36000 3.508
28.38000 -1.456
28.40000 -1.788
28.42000 5.449
28.44000 3.827
28.46000 5.560
28.48000 5.761
28.50000 3.994
28.52000 2.849
28.54000 0.869
28.56000 2.629
28.58000 -0.028
28.60000 2.766
28.62000 1.797
28.64000 1.762
28.66000 4.011
28.68000 -3.762
28.70000 3.812
28.72000 6.444
28.74000 5.876
28.76000 5.519
28.78000 2.335
28.80000 -3.756
28.82000 1.057
28.84000 3.393
28.86000 2.253
28.88000 0.321
28.90000 0.090
28.92000 -1.410
28.94000 0.773
28.96000 1.608
28.98000 1.330
29.00000 3.214
29.02000 3.100
29.04000 5.271
29.06000 5.007
29.08000 2.765
29.10000 3.469
29.12000 4.432
29.14000 -2.165
29.16000 0.190
29.18000 4.300
29.20000 7.512
29.22000 6.203
29.24000 2.516
29.26000 0.828
29.28000 3.767
29.30000 0.787
29.32000 -3.458
29.34000 -3.190
29.36000 -3.151
29.38000 -2.059
29.40000 0.098
29.42000 0.616
29.44000 -1.236
29.46000 0.819
29.48000 3.804
29.50000 4.790
29.52000 1.534
29.54000 -1.119
29.56000 2.553
29.58000 1.721
29.60000 2.721
29.62000 4.898
29.64000 3.579
29.66000 1.743
29.68000 6.849
29.70000 6.404
29.72000 5.378
29.74000 4.720
29.76000 0.555
29.78000 -3.718
29.80000 -0.195
29.82000 0.218
29.84000 0.897
29.86000 1.261
29.88000 -0.525
29.90000 -2.719
29.92000 2.679
29.94000 3.427
29.96000 2.139
29.98000 -0.903
30.00000 -0.645
30.02000 2.461
30.04000 3.026
30.06000 2.537
30.08000 0.599
30.10000 4.473
30.12000 1.859
30.14000 3.900
30.16000 1.732
30.18000 4.155
30.20000 3.689
30.22000 3.957
30.24000 2.275
30.26000 0.419
30.28000 3.101
30.30000 1.819
30.32000 -1.747
30.34000 -0.236
30.36000 2.484
30.38000 4.238
30.40000 -3.583
30.42000 -3.351
30.44000 3.134
30.46000 -3.297
30.48000 -0.860
30.50000 2.248
30.52000 1.824
30.54000 0.455
30.56000 4.344
30.58000 3.858
30.60000 3.029
30.62000 1.326
30.64000 -1.002
30.66000 -2.303
30.68000 0.176
30.70000 2.406
30.72000 4.722
30.74000 -0.467
30.76000 0.310
30.78000 -0.713
30.80000 2.592
30.82000 4.044
30.84000 6.356
30.86000 2.729
30.88000 2.306
30.90000 3.576
30.92000 3.337
30.94000 2.044
30.96000 3.020
30.98000 4.261
31.00000 5.452
31.02000 0.729
31.04000 -0.926
31.06000 -0.968
31.08000 2.554
31.10000 -2.019
31.12000 -3.642
31.14000 -0.665
31.16000 1.470
31.18000 3.603
31.20000 2.509
31.22000 4.757
31.24000 8.102
31.26000 7.149
31.28000 -3.227
31.30000 -0.867
31.32000 1.090
31.34000 9.840
31.36000 11.761
31.38000 7.032
31.40000 3.496
31.42000 3.204
31.44000 -2.230
31.46000 0.296
31.48000 3.851
31.50000 2.264
31.52000 5.183
31.54000 4.634
31.56000 1.159
31.58000 1.730
31.60000 3.048
31.62000 2.244
31.64000 3.357
31.66000 2.395
31.68000 4.298
31.70000 6.383
31.72000 2.779
31.74000 -3.095
31.76000 2.569
31.78000 1.988
31.80000 3.971
31.82000 3.857
31.84000 2.697
31.86000 0.851
31.88000 3.862
31.90000 3.530
31.92000 -0.080
31.94000 1.092
31.96000 7.359
31.98000 5.466
32.00000 3.327
32.02000 0.823
32.04000 -0.455
32.06000 3.085
32.08000 3.024
32.10000 -1.260
32.12000 3.355
32.14000 5.192
32.16000 6.455
32.18000 5.295
32.20000 5.426
32.22000 0.101
32.24000 -0.532
32.26000 -2.516
32.28000 -0.163
32.30000 0.896
32.32000 -3.588
32.34000 2.849
32.36000 3.288
32.38000 0.748
32.40000 1.619
32.42000 2.793
32.44000 6.246
32.46000 8.176
32.48000 7.343
32.50000 2.717
32.52000 1.627
32.54000 1.770
32.56000 3.356
32.58000 -1.983
32.60000 -0.178
32.62000 4.952
32.64000 2.792
32.66000 2.670
32.68000 4.396
32.70000 8.110
32.72000 4.907
32.74000 2.688
32.76000 3.140
32.78000 1.356
32.80000 3.007
32.82000 4.999
32.84000 3.703
32.86000 5.555
32.88000 2.800
32.90000 0.988
32.92000 3.558
32.94000 2.542
32.96000 4.657
32.98000 4.790
33.00000 -1.557
33.02000 0.566
33.04000 1.252
33.06000 1.529
33.08000 -2.900
33.10000 0.089
33.12000 0.092
33.14000 0.196
33.16000 4.442
33.18000 -0.485
33.20000 0.589
33.22000 -1.571
33.24000 5.381
33.26000 6.594
33.28000 5.495
33.30000 2.559
33.32000 2.008
33.34000 2.968
33.36000 -0.940
33.38000 3.847
33.40000 3.578
33.42000 2.644
33.44000 0.405
33.46000 -3.583
33.48000 2.343
33.50000 6.310
33.52000 7.421
33.54000 -2.393
33.56000 -0.158
33.58000 0.757
33.60000 5.520
33.62000 7.165
33.64000 7.016
33.66000 1.175
33.68000 3.364
33.70000 5.175
33.72000 -0.386
33.74000 -0.632
33.76000 0.375
33.78000 2.230
33.80000 10.435
33.82000 6.685
33.84000 3.976
33.86000 1.797
33.88000 -0.187
33.90000 -1.694
33.92000 0.893
33.94000 -2.258
33.96000 -0.422
33.98000 3.859
34.00000 -0.539
34.02000 4.763
34.04000 6.922
34.06000 7.079
34.08000 7.577
34.10000 2.801
34.12000 1.367
34.14000 4.773
34.16000 2.722
34.18000 4.995
34.20000 2.804
34.22000 6.716
34.24000 9.207
34.26000 3.912
34.28000 -2.336
34.30000 0.779
34.32000 2.649
34.34000 1.894
34.36000 4.157
34.38000 6.176
34.40000 4.180
34.42000 -0.803
34.44000 1.603
34.46000 5.049
34.48000 10.104
34.50000 1.531
34.52000 -1.402
34.54000 1.686
34.56000 1.097
34.58000 -0.642
34.60000 3.515
34.62000 2.994
34.64000 5.861
34.66000 9.001
34.68000 5.551
34.70000 2.426
34.72000 5.231
34.74000 4.389
34.76000 10.781
34.78000 7.352
34.80000 3.449
34.82000 2.508
34.84000 3.742
34.86000 4.279
34.88000 2.193
34.90000 0.243
34.92000 2.028
34.94000 -0.202
34.96000 -0.075
34.98000 -0.512
35.00000 0.344
35.02000 -3.540
35.04000 -2.389
35.06000 0.874
35.08000 2.705
35.10000 1.452
35.12000 3.663
35.14000 0.715
35.16000 5.729
35.18000 -2.153
35.20000 -1.115
35.22000 -1.567
35.24000 -1.577
35.26000 7.492
35.28000 9.328
35.30000 4.000
35.32000 3.822
35.34000 4.796
35.36000 3.836
35.38000 2.335
35.40000 6.374
35.42000 3.010
35.44000 0.435
35.46000 4.206
35.48000 2.306
35.50000 3.899
35.52000 3.893
35.54000 1.058
35.56000 3.274
35.58000 2.510
35.60000 -0.531
35.62000 -3.548
35.64000 -1.651
35.66000 -0.372
35.68000 0.274
35.70000 3.094
35.72000 6.544
35.74000 5.939
35.76000 1.428
35.78000 2.825
35.80000 2.062
35.82000 -0.906
35.84000 5.811
35.86000 1.583
35.88000 -2.526
35.90000 -3.557
35.92000 6.185
35.94000 2.985
35.96000 0.503
35.98000 -0.825
36.00000 -1.562
36.02000 -1.791
36.04000 -1.787
36.06000 -0.914
36.08000 -0.903
36.10000 -0.648
36.12000 2.861
36.14000 4.913
36.16000 0.941
36.18000 -2.994
36.20000 3.569
36.22000 2.459
36.24000 6.848
36.26000 7.369
36.28000 2.911
36.30000 2.068
36.32000 -1.199
36.34000 -3.571
36.36000 2.130
36.38000 2.543
36.40000 4.172
36.42000 0.174
36.44000 3.520
36.46000 3.357
36.48000 5.774
36.50000 7.983
36.52000 4.579
36.54000 3.549
36.56000 2.675
36.58000 4.316
36.60000 -0.118
36.62000 2.463
36.64000 2.005
36.66000 1.446
36.68000 -0.036
36.70000 3.074
36.72000 1.592
36.74000 -1.678
36.76000 3.869
36.78000 1.895
36.80000 -1.353
36.82000 3.940
36.84000 5.020
36.86000 4.335
36.88000 6.691
36.90000 5.638
36.92000 2.886
36.94000 1.212
36.96000 1.955
36.98000 1.376
37.00000 -3.604
37.02000 4.045
37.04000 8.349
37.06000 1.018
37.08000 3.502
37.10000 5.328
37.12000 -2.549
37.14000 2.696
37.16000 4.107
37.18000 -0.063
37.20000 0.074
37.22000 2.943
37.24000 0.031
37.26000 -0.917
37.28000 3.908
37.30000 7.081
37.32000 4.611
37.34000 6.291
37.36000 6.820
37.38000 2.026
37.40000 2.779
37.42000 2.085
37.44000 4.896
37.46000 3.276
37.48000 6.307
37.50000 5.829
37.52000 5.560
37.54000 11.418
37.56000 13.321
37.58000 11.409
37.60000 11.037
37.62000 8.800
37.64000 10.147
37.66000 7.890
37.68000 1.284
37.70000 5.225
37.72000 8.651
37.74000 11.051
37.76000 14.405
37.78000 13.834
37.80000 14.270
37.82000 9.114
37.84000 7.612
37.86000 4.871
37.88000 7.885
37.90000 10.023
37.92000 9.812
37.94000 10.684
37.96000 13.144
37.98000 15.750
38.00000 21.938
38.02000 14.623
38.04000 12.437
38.06000 11.235
38.08000 12.804
38.10000 11.286
38.12000 16.987
38.14000 18.467
38.16000 17.543
38.18000 19.654
38.20000 22.502
38.22000 25.277
38.24000 21.552
38.26000 15.384
38.28000 22.481
38.30000 22.111
38.32000 28.096
38.34000 36.641
38.36000 34.296
38.38000 32.756
38.40000 32.542
38.42000 29.920
38.44000 31.800
38.46000 30.352
38.48000 38.034
38.50000 40.117
38.52000 36.032
38.54000 35.169
38.56000 36.561
38.58000 38.844
38.60000 43.269
38.62000 43.520
38.64000 49.687
38.66000 49.010
38.68000 52.881
38.70000 55.456
38.72000 52.398
38.74000 57.375
38.76000 61.561
38.78000 57.651
38.80000 59.838
38.82000 66.369
38.84000 69.086
38.86000 65.244
38.88000 70.551
38.90000 72.251
38.92000 77.953
38.94000 85.518
38.96000 86.229
38.98000 88.188
39.00000 94.688
39.02000 91.289
39.04000 97.454
39.06000 102.872
39.08000 110.838
39.10000 115.931
39.12000 127.923
39.14000 126.319
39.16000 128.713
39.18000 137.284
39.20000 147.744
39.22000 150.739
39.24000 151.647
39.26000 165.527
39.28000 175.956
39.30000 181.830
39.32000 190.031
39.34000 197.897
39.36000 209.933
39.38000 215.796
39.40000 226.833
39.42000 236.381
39.44000 252.937
39.46000 275.533
39.48000 281.575
39.50000 291.690
39.52000 308.913
39.54000 330.992
39.56000 338.969
39.58000 347.758
39.60000 370.625
39.62000 388.399
39.64000 412.046
39.66000 432.859
39.68000 459.593
39.70000 476.969
39.72000 496.804
39.74000 518.848
39.76000 533.093
39.78000 559.657
39.80000 578.135
39.82000 601.058
39.84000 619.562
39.86000 637.152
39.88000 663.116
39.90000 683.621
39.92000 694.754
39.94000 697.225
39.96000 703.158
39.98000 717.177
40.00000 718.141
40.02000 726.134
40.04000 724.062
40.06000 721.590
40.08000 729.722
40.10000 729.589
40.12000 713.379
40.14000 710.447
40.16000 697.143
40.18000 681.165
40.20000 672.690
40.22000 658.904
40.24000 646.604
40.26000 631.390
40.28000 620.880
40.30000 600.047
40.32000 571.941
40.34000 546.446
40.36000 519.852
40.38000 503.889
40.40000 485.551
40.42000 470.612
40.44000 449.883
40.46000 425.596
40.48000 402.576
40.50000 396.179
40.52000 385.186
40.54000 358.610
40.56000 330.770
40.58000 304.704
40.60000 295.671
40.62000 283.171
40.64000 268.024
40.66000 243.024
40.68000 232.179
40.70000 220.778
40.72000 216.149
40.74000 208.852
40.76000 196.249
40.78000 186.986
40.80000 177.629
40.82000 158.199
40.84000 147.546
40.86000 144.833
40.88000 133.647
40.90000 123.546
40.92000 121.100
40.94000 119.957
40.96000 110.301
40.98000 100.133
41.00000 94.095
41.02000 91.017
41.04000 86.813
41.06000 81.851
41.08000 75.270
41.10000 71.649
41.12000 71.899
41.14000 64.986
41.16000 59.651
41.18000 58.158
41.20000 54.678
41.22000 52.247
41.24000 43.472
41.26000 46.857
41.28000 46.161
41.30000 43.681
41.32000 46.085
41.34000 43.387
41.36000 41.242
41.38000 41.035
41.40000 34.280
41.42000 37.312
41.44000 35.366
41.46000 29.961
41.48000 25.971
41.50000 29.604
41.52000 26.482
41.54000 23.914
41.56000 25.129
41.58000 22.651
41.60000 15.992
41.62000 16.119
41.64000 17.352
41.66000 15.626
41.68000 16.164
41.70000 16.327
41.72000 18.141
41.74000 19.615
41.76000 16.674
41.78000 9.762
41.80000 8.308
41.82000 14.244
41.84000 12.059
41.86000 11.299
41.88000 10.537
41.90000 9.430
41.92000 6.491
41.94000 9.116
41.96000 10.330
41.98000 7.109
42.00000 4.625
42.02000 5.619
42.04000 8.359
42.06000 5.410
42.08000 5.918
42.10000 1.188
42.12000 0.093
42.14000 3.570
42.16000 6.449
42.18000 6.194
42.20000 5.102
42.22000 7.045
42.24000 6.185
42.26000 2.522
42.28000 2.543
42.30000 6.263
42.32000 2.595
42.34000 5.307
42.36000 8.061
42.38000 10.150
42.40000 6.230
42.42000 -0.758
42.44000 3.474
42.46000 8.654
42.48000 3.148
42.50000 1.837
42.52000 2.399
42.54000 2.527
42.56000 3.370
42.58000 4.745
42.60000 4.317
42.62000 2.956
42.64000 2.849
42.66000 4.580
42.68000 5.173
42.70000 3.297
42.72000 6.033
42.74000 1.312
42.76000 -3.433
42.78000 5.363
42.80000 3.085
42.82000 1.784
42.84000 1.017
42.86000 4.356
42.88000 3.672
42.90000 3.045
42.92000 6.156
42.94000 5.340
42.96000 2.535
42.98000 1.341
43.00000 1.512
43.02000 5.933
43.04000 7.557
43.06000 5.123
43.08000 1.306
43.10000 -0.012
43.12000 -3.396
43.14000 -0.921
43.16000 1.532
43.18000 2.282
43.20000 -0.442
43.22000 2.499
43.24000 0.608
43.26000 3.273
43.28000 3.805
43.30000 -1.997
43.32000 -1.258
43.34000 -0.087
43.36000 -0.255
43.38000 -0.917
43.40000 -1.539
43.42000 1.578
43.44000 4.994
43.46000 4.550
43.48000 3.310
43.50000 5.286
43.52000 4.048
43.54000 1.762
43.56000 -0.046
43.58000 2.312
43.60000 0.592
43.62000 -1.980
43.64000 -3.308
43.66000 -3.361
43.68000 -0.811
43.70000 0.004
43.72000 3.225
43.74000 -1.354
43.76000 -0.109
43.78000 -1.385
43.80000 -2.789
43.82000 -1.072
43.84000 1.700
43.86000 1.798
43.88000 0.846
43.90000 -0.695
43.92000 0.681
43.94000 -0.291
43.96000 -1.788
43.98000 -1.438
44.00000 -1.256
44.02000 -3.089
44.04000 -1.993
44.06000 -0.282
44.08000 -3.343
44.10000 1.630
44.12000 1.527
44.14000 -2.021
44.16000 0.140
44.18000 1.685
44.20000 3.705
44.22000 4.541
44.24000 0.835
44.26000 1.116
44.28000 2.804
44.30000 -1.224
44.32000 -1.028
44.34000 2.482
44.36000 3.776
44.38000 6.164
44.40000 4.647
44.42000 2.441
44.44000 7.831
44.46000 6.867
44.48000 2.936
44.50000 4.679
44.52000 3.650
44.54000 5.489
44.56000 5.038
44.58000 2.399
44.60000 2.809
44.62000 2.900
44.64000 2.322
44.66000 1.966
44.68000 -1.012
44.70000 -3.345
44.72000 -2.678
44.74000 0.011
44.76000 8.431
44.78000 5.681
44.80000 4.114
44.82000 4.037
44.84000 4.017
44.86000 7.213
44.88000 4.934
44.90000 1.601
44.92000 5.455
44.94000 8.073
44.96000 6.356
44.98000 6.513
45.00000 8.784
45.02000 15.928
45.04000 10.178
45.06000 8.730
45.08000 7.862
45.10000 11.435
45.12000 11.992
45.14000 9.369
45.16000 8.225
45.18000 10.989
45.20000 16.916
45.22000 17.371
45.24000 9.724
45.26000 11.906
45.28000 13.649
45.30000 10.829
45.32000 12.984
45.34000 14.884
45.36000 15.544
45.38000 17.103
45.40000 13.385
45.42000 15.415
45.44000 19.063
45.46000 22.732
45.48000 20.573
45.50000 18.742
45.52000 23.380
45.54000 22.771
45.56000 27.437
45.58000 28.110
45.60000 25.967
45.62000 29.866
45.64000 28.160
45.66000 29.274
45.68000 38.513
45.70000 37.432
45.72000 36.758
45.74000 38.359
45.76000 43.311
45.78000 40.836
45.80000 39.979
45.82000 44.198
45.84000 45.904
45.86000 45.619
45.88000 47.764
45.90000 57.243
45.92000 48.374
45.94000 53.911
45.96000 57.477
45.98000 61.385
46.00000 64.048
46.02000 63.150
46.04000 62.226
46.06000 67.311
46.08000 63.426
46.10000 63.333
46.12000 64.740
46.14000 70.474
46.16000 75.481
46.18000 76.856
46.20000 80.254
46.22000 82.334
46.24000 78.796
46.26000 81.848
46.28000 83.828
46.30000 85.841
46.32000 94.477
46.34000 94.224
46.36000 94.713
46.38000 98.024
46.40000 99.708
46.42000 103.056
46.44000 105.830
46.46000 104.292
46.48000 109.268
46.50000 112.440
46.52000 106.866
46.54000 116.687
46.56000 118.758
46.58000 118.416
46.60000 121.970
46.62000 123.764
46.64000 120.357
46.66000 121.979
46.68000 123.361
46.70000 122.049
46.72000 127.750
46.74000 129.061
46.76000 125.561
46.78000 131.382
46.80000 132.354
46.82000 126.077
46.84000 126.922
46.86000 117.797
46.88000 117.044
46.90000 118.283
46.92000 115.942
46.94000 117.481
46.96000 114.501
46.98000 112.709
47.00000 109.241
47.02000 112.335
47.04000 109.854
47.06000 94.440
47.08000 96.504
47.10000 101.036
47.12000 92.161
47.14000 92.921
47.16000 89.106
47.18000 87.586
47.20000 84.818
47.22000 76.448
47.24000 76.284
47.26000 70.008
47.28000 72.326
47.30000 75.254
47.32000 68.522
47.34000 63.021
47.36000 58.770
47.38000 60.211
47.40000 57.295
47.42000 53.984
47.44000 51.974
47.46000 44.345
47.48000 42.849
47.50000 43.477
47.52000 44.843
47.54000 42.305
47.56000 38.295
47.58000 36.908
47.60000 33.330
47.62000 31.288
47.64000 32.328
47.66000 31.298
47.68000 28.183
47.70000 24.954
47.72000 22.939
47.74000 18.763
47.76000 23.700
47.78000 19.502
47.80000 20.856
47.82000 19.594
47.84000 20.825
47.86000 15.651
47.88000 15.477
47.90000 15.397
47.92000 14.585
47.94000 13.124
47.96000 9.939
47.98000 10.292
48.00000 11.426
48.02000 12.045
48.04000 9.734
48.06000 6.308
48.08000 9.242
48.10000 9.606
48.12000 3.065
48.14000 2.668
48.16000 11.002
48.18000 6.333
48.20000 3.950
48.22000 3.200
48.24000 4.707
48.26000 3.909
48.28000 -0.404
48.30000 0.222
48.32000 3.685
48.34000 2.014
48.36000 2.982
48.38000 2.949
48.40000 0.272
48.42000 3.224
48.44000 2.695
48.46000 6.440
48.48000 3.979
48.50000 0.239
48.52000 0.319
48.54000 -2.941
48.56000 1.666
48.58000 -0.109
48.60000 -1.025
48.62000 0.300
48.64000 -1.274
48.66000 3.525
48.68000 4.705
48.70000 0.320
48.72000 -2.007
48.74000 3.360
48.76000 -0.590
48.78000 5.368
48.80000 4.460
48.82000 0.096
48.84000 -2.363
48.86000 -2.414
48.88000 2.258
48.90000 0.261
48.92000 -2.866
48.94000 3.199
48.96000 8.767
48.98000 7.761
49.00000 4.510
49.02000 1.208
49.04000 3.870
49.06000 1.483
49.08000 0.373
49.10000 -0.682
49.12000 2.452
49.14000 4.537
49.16000 5.162
49.18000 3.284
49.20000 -1.761
49.22000 -2.818
49.24000 2.190
49.26000 1.546
49.28000 3.100
49.30000 1.674
49.32000 0.906
49.34000 0.750
49.36000 0.349
49.38000 1.032
49.40000 2.770
49.42000 4.016
49.44000 2.539
49.46000 5.074
49.48000 5.081
49.50000 3.410
49.52000 -1.122
49.54000 -2.789
49.56000 -1.063
49.58000 0.732
49.60000 2.400
49.62000 4.709
49.64000 5.148
49.66000 2.792
49.68000 1.671
49.70000 2.175
49.72000 1.472
49.74000 2.212
49.76000 0.676
49.78000 -0.572
49.80000 0.318
49.82000 3.535
49.84000 4.572
49.86000 7.888
49.88000 4.279
49.90000 3.460
49.92000 2.865
49.94000 1.523
49.96000 -1.419
49.98000 1.103
50.00000 4.936
50.02000 5.927
50.04000 5.766
50.06000 3.130
50.08000 2.977
50.10000 -0.460
50.12000 0.000
50.14000 2.862
50.16000 1.585
50.18000 2.843
50.20000 1.068
50.22000 1.757
50.24000 4.204
50.26000 5.471
50.28000 3.361
50.30000 2.410
50.32000 4.381
50.34000 -0.001
50.36000 -2.335
50.38000 -1.069
50.40000 -0.181
50.42000 -2.727
50.44000 -0.843
50.46000 3.357
50.48000 1.717
50.50000 5.193
50.52000 3.475
50.54000 3.250
50.56000 2.342
50.58000 -1.620
50.60000 -1.090
50.62000 1.262
50.64000 -1.286
50.66000 -0.400
50.68000 1.849
50.70000 3.613
50.72000 0.558
50.74000 0.603
50.76000 0.663
50.78000 1.902
50.80000 9.347
50.82000 7.431
50.84000 7.811
50.86000 2.410
50.88000 0.662
50.90000 1.107
50.92000 3.493
50.94000 3.940
50.96000 4.948
50.98000 3.839
51.00000 0.733
51.02000 2.668
51.04000 4.103
51.06000 8.308
51.08000 5.663
51.10000 8.758
51.12000 6.430
51.14000 1.457
51.16000 0.793
51.18000 -2.674
51.20000 5.256
51.22000 8.063
51.24000 -0.214
51.26000 4.970
51.28000 5.431
51.30000 5.540
51.32000 2.024
51.34000 0.276
51.36000 2.747
51.38000 2.189
51.40000 4.308
51.42000 7.092
51.44000 9.080
51.46000 6.350
51.48000 2.068
51.50000 3.946
51.52000 4.193
51.54000 1.468
51.56000 0.326
51.58000 1.460
51.60000 -1.756
51.62000 -1.510
51.64000 0.451
51.66000 -0.898
51.68000 1.760
51.70000 -1.387
51.72000 3.418
51.74000 3.563
51.76000 0.416
51.78000 -1.437
51.80000 5.960
51.82000 3.130
51.84000 0.815
51.86000 -0.746
51.88000 -2.239
51.90000 -0.759
51.92000 5.413
51.94000 2.612
51.96000 -1.155
51.98000 1.107
52.00000 0.366
52.02000 3.683
52.04000 3.656
52.06000 3.559
52.08000 2.607
52.10000 0.146
52.12000 1.708
52.14000 1.352
52.16000 3.453
52.18000 4.999
52.20000 2.989
52.22000 4.766
52.24000 4.668
52.26000 -1.001
52.28000 -2.653
52.30000 -0.810
52.32000 1.730
52.34000 -0.448
52.36000 4.465
52.38000 3.361
52.40000 2.378
52.42000 -0.011
52.44000 2.229
52.46000 6.249
52.48000 9.560
52.50000 5.087
52.52000 2.276
52.54000 1.320
52.56000 4.335
52.58000 4.052
52.60000 4.442
52.62000 1.331
52.64000 2.319
52.66000 4.648
52.68000 4.541
52.70000 3.943
52.72000 2.699
52.74000 2.001
52.76000 3.888
52.78000 -0.338
52.80000 0.195
52.82000 2.852
52.84000 1.239
52.86000 0.856
52.88000 3.559
52.90000 5.362
52.92000 8.055
52.94000 2.801
52.96000 -2.626
52.98000 -0.050
53.00000 2.145
53.02000 5.446
53.04000 4.316
53.06000 2.571
53.08000 3.433
53.10000 3.803
53.12000 5.454
53.14000 7.468
53.16000 4.819
53.18000 -1.688
53.20000 0.476
53.22000 1.778
53.24000 2.035
53.26000 6.111
53.28000 2.605
53.30000 -1.933
53.32000 -0.279
53.34000 4.542
53.36000 1.194
53.38000 4.066
53.40000 2.012
53.42000 2.615
53.44000 1.715
53.46000 4.373
53.48000 3.402
53.50000 -0.611
53.52000 -0.470
53.54000 3.344
53.56000 3.149
53.58000 0.197
53.60000 -2.534
53.62000 0.985
53.64000 1.622
53.66000 4.129
53.68000 1.739
53.70000 5.439
53.72000 6.695
53.74000 2.364
53.76000 2.810
53.78000 2.647
53.80000 1.672
53.82000 -0.547
53.84000 4.190
53.86000 5.099
53.88000 0.637
53.90000 1.613
53.92000 -0.188
53.94000 1.877
53.96000 5.990
53.98000 7.716
54.00000 6.212
54.02000 3.547
54.04000 6.920
54.06000 8.617
54.08000 3.754
54.10000 -2.588
54.12000 0.572
54.14000 1.883
54.16000 3.947
54.18000 2.161
54.20000 2.644
54.22000 2.322
54.24000 3.169
54.26000 4.265
54.28000 1.008
54.30000 -2.010
54.32000 -1.023
54.34000 3.932
54.36000 3.145
54.38000 4.450
54.40000 1.772
54.42000 -0.694
54.44000 1.752
54.46000 2.717
54.48000 2.282
54.50000 -0.311
54.52000 -0.329
54.54000 2.377
54.56000 3.132
54.58000 6.718
54.60000 4.984
54.62000 3.100
54.64000 3.519
54.66000 2.197
54.68000 3.637
54.70000 4.222
54.72000 2.918
54.74000 5.358
54.76000 6.512
54.78000 2.733
54.80000 1.867
54.82000 8.533
54.84000 4.193
54.86000 3.638
54.88000 2.406
54.90000 4.346
54.92000 6.957
54.94000 4.895
54.96000 5.083
54.98000 1.881
55.00000 -2.552
55.02000 -1.068
55.04000 2.065
55.06000 3.059
55.08000 2.215
55.10000 3.579
55.12000 5.096
55.14000 5.394
55.16000 0.042
55.18000 4.507
55.20000 4.597
55.22000 5.644
55.24000 7.097
55.26000 3.881
55.28000 3.979
55.30000 6.021
55.32000 5.159
55.34000 6.807
55.36000 3.839
55.38000 4.583
55.40000 7.108
55.42000 -0.414
55.44000 -0.689
55.46000 1.911
55.48000 4.065
55.50000 3.706
55.52000 2.842
55.54000 -0.191
55.56000 1.359
55.58000 3.199
55.60000 4.530
55.62000 1.863
55.64000 -0.492
55.66000 -0.913
55.68000 1.262
55.70000 -0.082
55.72000 1.335
55.74000 1.331
55.76000 5.081
55.78000 1.230
55.80000 4.309
55.82000 2.141
55.84000 1.705
55.86000 3.307
55.88000 3.573
55.90000 5.721
55.92000 5.846
55.94000 0.918
55.96000 -0.099
55.98000 2.519
56.00000 0.292
56.02000 1.777
56.04000 3.038
56.06000 0.667
56.08000 3.647
56.10000 3.351
56.12000 3.911
56.14000 6.973
56.16000 4.087
56.18000 3.598
56.20000 5.553
56.22000 2.623
56.24000 2.871
56.26000 -1.236
56.28000 3.129
56.30000 -1.231
56.32000 0.466
56.34000 0.867
56.36000 3.926
56.38000 5.016
56.40000 5.789
56.42000 5.279
56.44000 4.284
56.46000 0.464
56.48000 2.230
56.50000 3.419
56.52000 3.437
56.54000 1.307
56.56000 2.629
56.58000 4.313
56.60000 1.372
56.62000 2.579
56.64000 -1.868
56.66000 -0.899
56.68000 4.800
56.70000 5.278
56.72000 3.755
56.74000 3.155
56.76000 3.498
56.78000 2.494
56.80000 5.766
56.82000 5.909
56.84000 6.543
56.86000 8.371
56.88000 6.436
56.90000 6.008
56.92000 5.871
56.94000 2.581
56.96000 -2.478
56.98000 -0.239
57.00000 0.661
57.02000 4.193
57.04000 2.928
57.06000 -0.155
57.08000 1.446
57.10000 1.124
57.12000 5.609
57.14000 5.673
57.16000 0.330
57.18000 0.704
57.20000 1.170
57.22000 0.269
57.24000 -1.548
57.26000 2.346
57.28000 3.828
57.30000 3.583
57.32000 0.002
57.34000 1.815
57.36000 -0.004
57.38000 2.245
57.40000 1.909
57.42000 2.909
57.44000 -2.232
57.46000 0.646
57.48000 5.010
57.50000 5.060
57.52000 1.121
57.54000 2.854
57.56000 5.294
57.58000 5.384
57.60000 2.951
57.62000 3.183
57.64000 2.232
57.66000 2.321
57.68000 3.633
57.70000 2.394
57.72000 1.387
57.74000 7.376
57.76000 6.985
57.78000 7.437
57.80000 6.718
57.82000 3.535
57.84000 1.575
57.86000 2.335
57.88000 4.404
57.90000 2.951
57.92000 -0.632
57.94000 -0.050
57.96000 1.331
57.98000 3.707
58.00000 4.618
58.02000 8.666
58.04000 3.819
58.06000 2.276
58.08000 0.588
58.10000 0.724
58.12000 0.950
58.14000 3.045
58.16000 -0.388
58.18000 0.588
58.20000 1.421
58.22000 3.113
58.24000 4.825
58.26000 4.545
58.28000 3.080
58.30000 1.572
58.32000 1.618
58.34000 2.420
58.36000 3.916
58.38000 6.636
58.40000 2.055
58.42000 -2.449
58.44000 2.125
58.46000 5.757
58.48000 9.846
58.50000 7.569
58.52000 2.268
58.54000 -0.051
58.56000 5.777
58.58000 4.115
58.60000 2.914
58.62000 2.495
58.64000 1.951
58.66000 4.747
58.68000 0.223
58.70000 -0.945
58.72000 0.972
58.74000 0.809
58.76000 2.498
58.78000 3.954
58.80000 5.759
58.82000 3.790
58.84000 2.135
58.86000 -2.139
58.88000 -1.211
58.90000 2.160
58.92000 5.764
58.94000 7.225
58.96000 2.726
58.98000 5.461
59.00000 1.018
59.02000 -0.295
59.04000 0.850
59.06000 -1.495
59.08000 2.202
59.10000 5.001
59.12000 3.150
59.14000 3.565
59.16000 1.051
59.18000 0.549
59.20000 2.333
59.22000 5.050
59.24000 0.361
59.26000 1.104
59.28000 -1.658
59.30000 1.741
59.32000 -0.176
59.34000 -0.193
59.36000 0.843
59.38000 4.446
59.40000 2.884
59.42000 1.383
59.44000 0.813
59.46000 4.128
59.48000 5.169
59.50000 2.499
59.52000 3.246
59.54000 5.439
59.56000 2.074
59.58000 -0.168
59.60000 0.159
59.62000 1.122
59.64000 1.687
59.66000 1.061
59.68000 1.685
59.70000 0.391
59.72000 1.107
59.74000 2.690
59.76000 -0.202
59.78000 -0.119
59.80000 5.111
59.82000 8.152
59.84000 7.301
59.86000 3.330
59.88000 1.479
59.90000 -1.989
59.92000 -1.951
59.94000 0.976
59.96000 -0.518
59.98000 0.705
60.00000 -0.683
60.02000 3.824
60.04000 2.140
60.06000 3.079
60.08000 4.132
60.10000 0.539
60.12000 -2.060
60.14000 0.461
60.16000 1.421
60.18000 5.698
60.20000 6.452
60.22000 1.992
60.24000 -1.089
60.26000 0.800
60.28000 -2.404
60.30000 2.139
60.32000 6.326
60.34000 4.378
60.36000 1.956
60.38000 2.527
60.40000 2.371
60.42000 2.335
60.44000 2.223
60.46000 5.136
60.48000 7.856
60.50000 5.558
60.52000 4.787
60.54000 9.071
60.56000 1.450
60.58000 -2.396
60.60000 -1.008
60.62000 1.296
60.64000 2.956
60.66000 0.737
60.68000 -0.355
60.70000 -0.775
60.72000 1.489
60.74000 4.017
60.76000 5.061
60.78000 4.728
60.80000 6.627
60.82000 4.061
60.84000 -0.415
60.86000 1.833
60.88000 1.015
60.90000 1.939
60.92000 0.887
60.94000 2.728
60.96000 4.257
60.98000 3.287
61.00000 1.566
61.02000 1.894
61.04000 2.409
61.06000 2.532
61.08000 1.066
61.10000 3.674
61.12000 5.928
61.14000 5.111
61.16000 1.896
61.18000 1.397
61.20000 3.827
61.22000 5.684
61.24000 2.136
61.26000 0.804
61.28000 1.393
61.30000 -1.748
61.32000 1.371
61.34000 1.805
61.36000 1.334
61.38000 1.587
61.40000 2.586
61.42000 2.174
61.44000 3.471
61.46000 5.164
61.48000 2.658
61.50000 0.726
61.52000 5.226
61.54000 5.838
61.56000 5.172
61.58000 1.339
61.60000 1.260
61.62000 2.746
61.64000 0.127
61.66000 0.020
61.68000 1.287
61.70000 -1.776
61.72000 -2.377
61.74000 -0.475
61.76000 -1.238
61.78000 -0.160
61.80000 3.441
61.82000 -1.657
61.84000 -0.752
61.86000 3.712
61.88000 2.974
61.90000 -0.168
61.92000 0.446
61.94000 0.474
61.96000 2.930
61.98000 1.562
62.00000 5.318
62.02000 1.783
62.04000 1.802
62.06000 0.943
62.08000 -1.533
62.10000 1.639
62.12000 4.439
62.14000 5.445
62.16000 4.602
62.18000 1.015
62.20000 -0.728
62.22000 -1.259
62.24000 0.414
62.26000 2.358
62.28000 2.201
62.30000 2.433
62.32000 0.439
62.34000 -2.386
62.36000 0.954
62.38000 -1.193
62.40000 0.670
62.42000 1.088
62.44000 2.058
62.46000 0.760
62.48000 0.782
62.50000 1.620
62.52000 1.542
62.54000 -0.171
62.56000 3.247
62.58000 -0.279
62.60000 2.184
62.62000 2.475
62.64000 3.415
62.66000 3.548
62.68000 2.931
62.70000 0.258
62.72000 0.798
62.74000 -1.083
62.76000 -1.507
62.78000 -2.333
62.80000 0.501
62.82000 1.756
62.84000 -2.022
62.86000 -2.385
62.88000 -0.277
62.90000 4.067
62.92000 -0.329
62.94000 0.468
62.96000 -0.084
62.98000 -0.637
63.00000 1.080
63.02000 3.826
63.04000 0.825
63.06000 -0.215
63.08000 0.859
63.10000 0.131
63.12000 2.508
63.14000 5.605
63.16000 3.893
63.18000 2.564
63.20000 3.127
63.22000 3.704
63.24000 3.278
63.26000 4.017
63.28000 2.802
63.30000 2.205
63.32000 1.600
63.34000 3.181
63.36000 3.047
63.38000 -0.031
63.40000 -2.372
63.42000 -0.617
63.44000 1.221
63.46000 0.465
63.48000 -0.053
63.50000 4.847
63.52000 2.452
63.54000 -1.572
63.56000 -1.389
63.58000 -0.374
63.60000 -1.307
63.62000 1.511
63.64000 2.365
63.66000 1.031
63.68000 0.001
63.70000 -0.227
63.72000 1.666
63.74000 1.448
63.76000 4.421
63.78000 2.366
63.80000 2.319
63.82000 4.156
63.84000 -1.479
63.86000 1.128
63.88000 -2.005
63.90000 -2.380
63.92000 1.310
63.94000 0.492
63.96000 3.595
63.98000 1.969
64.00000 1.157
64.02000 -1.446
64.04000 1.471
64.06000 0.933
64.08000 3.585
64.10000 1.345
64.12000 2.614
64.14000 4.340
64.16000 4.069
64.18000 0.489
64.20000 0.165
64.22000 -0.275
64.24000 -1.188
64.26000 1.562
64.28000 1.303
64.30000 0.754
64.32000 0.393
64.34000 -2.386
64.36000 0.521
64.38000 3.344
64.40000 5.401
64.42000 2.940
64.44000 4.088
64.46000 3.517
64.48000 2.920
64.50000 2.704
64.52000 2.159
64.54000 3.056
64.56000 3.385
64.58000 2.965
64.60000 1.333
64.62000 1.406
64.64000 0.347
64.66000 1.820
64.68000 2.220
64.70000 -0.918
64.72000 1.252
64.74000 0.462
64.76000 0.721
64.78000 1.318
64.80000 -0.378
64.82000 0.218
64.84000 -0.700
64.86000 -0.376
64.88000 -2.421
64.90000 -0.549
64.92000 0.358
64.94000 -2.424
64.96000 0.783
64.98000 -0.324
65.00000 2.216
65.02000 1.922
65.04000 3.134
65.06000 3.201
65.08000 0.216
65.10000 -1.511
65.12000 -2.432
65.14000 0.124
65.16000 1.626
65.18000 1.255
65.20000 -0.161
65.22000 1.419
65.24000 2.178
65.26000 -0.634
65.28000 2.240
65.30000 -0.804
65.32000 -0.438
65.34000 0.022
65.36000 -1.858
65.38000 1.145
65.40000 0.581
65.42000 1.021
65.44000 1.141
65.46000 2.947
65.48000 3.336
65.50000 2.534
65.52000 0.412
65.54000 1.883
65.56000 -0.674
65.58000 1.911
65.60000 1.533
65.62000 -0.231
65.64000 -2.009
65.66000 0.572
65.68000 1.093
65.70000 0.662
65.72000 -2.295
65.74000 -1.995
65.76000 -0.182
65.78000 -1.141
65.80000 -2.446
65.82000 1.000
65.84000 0.435
65.86000 1.123
65.88000 0.120
65.90000 -0.919
65.92000 1.155
65.94000 1.082
65.96000 -2.459
65.98000 -0.146
66.00000 3.782
66.02000 -0.372
66.04000 -0.190
66.06000 1.072
66.08000 4.330
66.10000 2.157
66.12000 2.073
66.14000 0.940
66.16000 -0.286
66.18000 -0.445
66.20000 -1.316
66.22000 -0.777
66.24000 2.886
66.26000 1.402
66.28000 0.708
66.30000 0.046
66.32000 0.301
66.34000 1.887
66.36000 2.458
66.38000 0.302
66.40000 1.274
66.42000 3.369
66.44000 2.541
66.46000 1.334
66.48000 0.497
66.50000 0.673
66.52000 1.046
66.54000 1.491
66.56000 0.523
66.58000 3.116
66.60000 2.678
66.62000 0.880
66.64000 0.955
66.66000 2.251
66.68000 2.055
66.70000 1.685
66.72000 3.022
66.74000 2.949
66.76000 3.161
66.78000 0.920
66.80000 0.097
66.82000 -0.386
66.84000 0.643
66.86000 3.107
66.88000 4.695
66.90000 4.247
66.92000 4.365
66.94000 2.666
66.96000 4.148
66.98000 7.865
67.00000 6.147
67.02000 7.234
67.04000 4.803
67.06000 3.325
67.08000 2.960
67.10000 2.487
67.12000 7.503
67.14000 9.052
67.16000 7.917
67.18000 5.247
67.20000 3.810
67.22000 5.021
67.24000 8.554
67.26000 10.153
67.28000 8.835
67.30000 9.912
67.32000 7.949
67.34000 5.222
67.36000 7.068
67.38000 7.720
67.40000 10.760
67.42000 10.741
67.44000 8.607
67.46000 8.591
67.48000 10.575
67.50000 11.148
67.52000 8.859
67.54000 12.087
67.56000 13.348
67.58000 13.073
67.60000 13.582
67.62000 14.470
67.64000 13.299
67.66000 17.066
67.68000 16.127
67.70000 15.591
67.72000 15.950
67.74000 17.873
67.76000 20.106
67.78000 20.306
67.80000 18.698
67.82000 21.441
67.84000 19.635
67.86000 19.449
67.88000 23.821
67.90000 22.235
67.92000 22.928
67.94000 22.470
67.96000 19.140
67.98000 20.057
68.00000 24.729
68.02000 25.491
68.04000 25.259
68.06000 18.789
68.08000 19.608
68.10000 21.317
68.12000 25.746
68.14000 23.117
68.16000 22.012
68.18000 25.896
68.20000 25.099
68.22000 23.484
68.24000 24.877
68.26000 23.888
68.28000 25.522
68.30000 26.549
68.32000 24.908
68.34000 23.748
68.36000 23.560
68.38000 25.063
68.40000 23.395
68.42000 25.333
68.44000 26.582
68.46000 23.172
68.48000 22.803
68.50000 25.479
68.52000 23.311
68.54000 20.191
68.56000 17.576
68.58000 17.882
68.60000 19.321
68.62000 17.242
68.64000 18.297
68.66000 18.398
68.68000 17.721
68.70000 17.327
68.72000 15.836
68.74000 14.421
68.76000 17.165
68.78000 17.791
68.80000 15.553
68.82000 9.918
68.84000 12.887
68.86000 12.829
68.88000 10.926
68.90000 11.248
68.92000 11.226
68.94000 8.903
68.96000 5.896
68.98000 5.520
69.00000 6.600
69.02000 7.966
69.04000 8.327
69.06000 7.832
69.08000 7.802
69.10000 7.983
69.12000 8.412
69.14000 7.820
69.16000 6.070
69.18000 3.219
69.20000 0.216
69.22000 1.847
69.24000 4.803
69.26000 5.140
69.28000 6.834
69.30000 0.426
69.32000 0.543
69.34000 1.878
69.36000 4.739
69.38000 0.691
69.40000 0.527
69.42000 0.163
69.44000 0.606
69.46000 -0.484
69.48000 2.134
69.50000 1.695
69.52000 -0.190
69.54000 3.018
69.56000 6.263
69.58000 2.564
69.60000 3.042
69.62000 0.494
69.64000 0.034
69.66000 -1.087
69.68000 -1.096
69.70000 2.645
69.72000 4.343
69.74000 2.459
69.76000 3.677
69.78000 1.528
69.80000 4.199
69.82000 4.166
69.84000 1.530
69.86000 1.631
69.88000 -0.924
69.90000 0.423
69.92000 2.247
69.94000 2.255
69.96000 2.374
69.98000 0.333
70.00000 -2.343
70.02000 -0.607
70.04000 6.438
70.06000 4.197
70.08000 0.522
70.10000 0.356
70.12000 3.608
70.14000 3.147
70.16000 3.408
70.18000 -0.584
70.20000 -2.305
70.22000 1.129
70.24000 2.786
70.26000 1.489
70.28000 2.675
70.30000 3.866
70.32000 0.761
70.34000 2.213
70.36000 0.807
70.38000 2.571
70.40000 3.656
70.42000 0.044
70.44000 1.751
70.46000 3.745
70.48000 4.857
70.50000 2.821
70.52000 1.385
70.54000 3.126
70.56000 2.703
70.58000 2.596
70.60000 3.572
70.62000 5.797
70.64000 0.973
70.66000 -1.099
70.68000 0.653
70.70000 1.739
70.72000 5.213
70.74000 5.812
70.76000 1.000
70.78000 4.220
70.80000 5.857
70.82000 3.814
70.84000 4.954
70.86000 3.650
70.88000 0.381
70.90000 -2.300
70.92000 0.976
70.94000 2.184
70.96000 0.724
70.98000 2.829
71.00000 1.653
71.02000 3.039
71.04000 1.573
71.06000 -0.312
71.08000 -1.479
71.10000 1.737
71.12000 0.435
71.14000 1.149
71.16000 0.729
71.18000 -0.991
71.20000 -1.434
71.22000 1.169
71.24000 -0.292
71.26000 1.277
71.28000 3.395
71.30000 1.608
71.32000 -1.840
71.34000 0.077
71.36000 -0.260
71.38000 -0.668
71.40000 2.168
71.42000 3.791
71.44000 3.102
71.46000 7.252
71.48000 4.322
71.50000 0.693
71.52000 -0.598
71.54000 -1.307
71.56000 -2.274
71.58000 1.876
71.60000 2.964
71.62000 0.434
71.64000 1.708
71.66000 -0.766
71.68000 0.922
71.70000 2.813
71.72000 1.289
71.74000 2.605
71.76000 4.205
71.78000 6.428
71.80000 4.310
71.82000 2.830
71.84000 -0.162
71.86000 2.271
71.88000 1.619
71.90000 2.753
71.92000 3.809
71.94000 1.691
71.96000 -0.591
71.98000 -1.413
72.00000 4.333
72.02000 0.180
72.04000 1.261
72.06000 -0.918
72.08000 3.423
72.10000 4.627
72.12000 1.981
72.14000 1.980
72.16000 2.532
72.18000 5.420
72.20000 -2.247
72.22000 4.035
72.24000 5.778
72.26000 2.689
72.28000 4.516
72.30000 4.810
72.32000 4.894
72.34000 3.869
72.36000 0.391
72.38000 1.246
72.40000 2.805
72.42000 6.595
72.44000 5.126
72.46000 4.553
72.48000 0.593
72.50000 -1.578
72.52000 0.283
72.54000 1.933
72.56000 -0.510
72.58000 -2.018
72.60000 0.235
72.62000 1.603
72.64000 0.194
72.66000 2.232
72.68000 2.759
72.70000 1.415
72.72000 2.535
72.74000 4.227
72.76000 4.024
72.78000 1.418
72.80000 1.744
72.82000 2.390
72.84000 4.028
72.86000 1.624
72.88000 2.740
72.90000 4.141
72.92000 6.701
72.94000 1.941
72.96000 -2.210
72.98000 1.401
73.00000 4.400
73.02000 0.868
73.04000 1.436
73.06000 0.982
73.08000 0.511
73.10000 1.942
73.12000 7.173
73.14000 3.867
73.16000 1.613
73.18000 -0.885
73.20000 -0.491
73.22000 0.087
73.24000 3.773
73.26000 3.268
73.28000 0.138
73.30000 0.750
73.32000 -1.111
73.34000 0.060
73.36000 4.654
73.38000 1.795
73.40000 1.809
73.42000 3.129
73.44000 4.706
73.46000 3.640
73.48000 -0.992
73.50000 -0.644
73.52000 -1.315
73.54000 0.915
73.56000 -0.356
73.58000 2.620
73.60000 5.831
73.62000 4.258
73.64000 5.230
73.66000 4.813
73.68000 1.393
73.70000 -2.210
73.72000 1.271
73.74000 0.180
73.76000 0.853
73.78000 1.305
73.80000 1.228
73.82000 2.235
73.84000 -1.692
73.86000 1.736
73.88000 4.441
73.90000 3.869
73.92000 5.999
73.94000 -0.111
73.96000 -0.657
73.98000 3.788
74.00000 1.779
74.02000 1.344
74.04000 6.559
74.06000 1.876
74.08000 -0.509
74.10000 3.268
74.12000 -2.206
74.14000 0.293
74.16000 6.675
74.18000 9.659
74.20000 7.310
74.22000 4.643
74.24000 1.912
74.26000 2.056
74.28000 4.437
74.30000 2.163
74.32000 4.602
74.34000 3.183
74.36000 3.069
74.38000 -0.008
74.40000 4.294
74.42000 5.414
74.44000 -0.181
74.46000 2.053
74.48000 3.371
74.50000 3.431
74.52000 5.433
74.54000 2.886
74.56000 6.692
74.58000 4.856
74.60000 7.697
74.62000 6.240
74.64000 2.634
74.66000 1.120
74.68000 3.663
74.70000 3.284
74.72000 1.158
74.74000 1.408
74.76000 6.381
74.78000 3.994
74.80000 1.086
74.82000 0.302
74.84000 2.415
74.86000 3.704
74.88000 4.469
74.90000 1.708
74.92000 2.783
74.94000 4.322
74.96000 0.446
74.98000 -0.169
75.00000 -0.184
75.02000 -0.820
75.04000 1.989
75.06000 -1.323
75.08000 -2.210
75.10000 -0.862
75.12000 0.054
75.14000 3.003
75.16000 4.088
75.18000 2.900
75.20000 0.569
75.22000 2.286
75.24000 4.634
75.26000 6.078
75.28000 3.306
75.30000 2.987
75.32000 0.775
75.34000 4.401
75.36000 4.637
75.38000 4.881
75.40000 5.788
75.42000 5.034
75.44000 3.951
75.46000 -1.064
75.48000 1.024
75.50000 4.080
75.52000 1.973
75.54000 3.624
75.56000 -0.018
75.58000 0.600
75.60000 -0.070
75.62000 0.752
75.64000 -0.061
75.66000 4.080
75.68000 4.169
75.70000 4.705
75.72000 5.315
75.74000 1.145
75.76000 -1.434
75.78000 1.239
75.80000 2.200
75.82000 1.225
75.84000 -0.169
75.86000 -2.215
75.88000 1.634
75.90000 0.596
75.92000 1.005
75.94000 0.759
75.96000 4.529
75.98000 3.221
76.00000 4.757
76.02000 4.146
76.04000 4.660
76.06000 -1.701
76.08000 -1.559
76.10000 -2.190
76.12000 -2.231
76.14000 0.059
76.16000 2.153
76.18000 1.492
76.20000 2.786
76.22000 0.589
76.24000 4.275
76.26000 5.564
76.28000 3.974
76.30000 0.288
76.32000 1.088
76.34000 3.374
76.36000 5.397
76.38000 3.443
76.40000 -0.198
76.42000 -0.306
76.44000 1.184
76.46000 2.487
76.48000 1.179
76.50000 1.823
76.52000 2.820
76.54000 4.072
76.56000 1.558
76.58000 -2.246
76.60000 0.341
76.62000 0.708
76.64000 -0.818
76.66000 -1.605
76.68000 -2.180
76.70000 2.642
76.72000 5.279
76.74000 2.918
76.76000 -0.400
76.78000 3.900
76.80000 6.562
76.82000 7.099
76.84000 1.848
76.86000 1.371
76.88000 -0.602
76.90000 0.941
76.92000 1.995
76.94000 5.069
76.96000 3.838
76.98000 -1.716
77.00000 -1.450
77.02000 3.805
77.04000 3.783
77.06000 0.279
77.08000 2.027
77.10000 3.841
77.12000 3.746
77.14000 4.869
77.16000 9.059
77.18000 7.727
77.20000 1.708
77.22000 2.234
77.24000 2.771
77.26000 3.779
77.28000 1.883
77.30000 1.958
77.32000 2.132
77.34000 0.725
77.36000 1.172
77.38000 0.881
77.40000 -2.234
77.42000 2.297
77.44000 4.493
77.46000 3.775
77.48000 -1.619
77.50000 0.337
77.52000 3.788
77.54000 6.768
77.56000 8.946
77.58000 2.834
77.60000 2.632
77.62000 2.094
77.64000 1.118
77.66000 0.676
77.68000 1.836
77.70000 1.015
77.72000 3.679
77.74000 6.138
77.76000 5.113
77.78000 5.253
77.80000 1.015
77.82000 1.475
77.84000 0.945
77.86000 1.353
77.88000 1.536
77.90000 2.285
77.92000 1.138
77.94000 0.518
77.96000 4.367
77.98000 4.410
78.00000 4.651
78.02000 4.079
78.04000 2.524
78.06000 4.662
78.08000 5.256
78.10000 1.257
78.12000 -2.215
78.14000 2.312
78.16000 3.084
78.18000 0.643
78.20000 0.950
78.22000 -0.915
78.24000 0.990
78.26000 2.579
78.28000 1.185
78.30000 2.122
78.32000 2.471
78.34000 2.677
78.36000 4.251
78.38000 4.014
78.40000 8.130
78.42000 4.725
78.44000 1.305
78.46000 4.488
78.48000 5.990
78.50000 5.464
78.52000 3.153
78.54000 3.279
78.56000 3.952
78.58000 5.840
78.60000 7.532
78.62000 6.310
78.64000 4.855
78.66000 3.365
78.68000 1.948
78.70000 4.355
78.72000 3.032
78.74000 0.007
78.76000 1.008
78.78000 2.666
78.80000 3.650
78.82000 3.827
78.84000 3.835
78.86000 1.688
78.88000 1.588
78.90000 1.563
78.92000 3.039
78.94000 0.752
78.96000 2.335
78.98000 1.727
79.00000 -0.507
79.02000 0.049
79.04000 -0.467
79.06000 2.197
79.08000 4.413
79.10000 2.380
79.12000 -1.637
79.14000 -1.913
79.16000 -2.306
79.18000 -1.864
79.20000 0.046
79.22000 -1.108
79.24000 -1.225
79.26000 3.691
79.28000 4.449
79.30000 0.163
79.32000 1.512
79.34000 1.198
79.36000 2.999
79.38000 2.518
79.40000 3.715
79.42000 2.755
79.44000 -2.047
79.46000 -0.167
79.48000 2.483
79.50000 3.361
79.52000 4.617
79.54000 1.924
79.56000 0.101
79.58000 3.568
79.60000 0.053
79.62000 1.282
79.64000 0.056
79.66000 -1.489
79.68000 1.086
79.70000 -0.590
79.72000 1.061
79.74000 0.498
79.76000 0.275
79.78000 1.534
79.80000 -0.595
79.82000 2.119
79.84000 7.866
79.86000 3.948
79.88000 4.079
79.90000 0.354
79.92000 -1.745
79.94000 0.890
79.96000 4.049
79.98000 1.536
80.00000 1.567
80.02000 1.046
80.04000 -1.290
80.06000 -2.396
80.08000 -0.669
80.10000 1.569
80.12000 4.812
80.14000 1.778
80.16000 -2.023
80.18000 0.811
80.20000 1.794
80.22000 2.445
80.24000 1.359
80.26000 -0.093
80.28000 -0.196
80.30000 -1.141
80.32000 4.328
80.34000 4.963
80.36000 1.793
80.38000 4.353
80.40000 7.883
80.42000 4.247
80.44000 1.868
80.46000 3.864
80.48000 -0.424
80.50000 -0.350
80.52000 -2.433
80.54000 5.907
80.56000 11.831
80.58000 6.864
80.60000 6.930
80.62000 3.880
80.64000 1.861
80.66000 5.227
80.68000 6.965
80.70000 6.524
80.72000 -0.288
80.74000 3.389
80.76000 8.174
80.78000 6.408
80.80000 7.052
80.82000 6.328
80.84000 4.177
80.86000 2.324
80.88000 3.292
80.90000 6.940
80.92000 7.635
80.94000 5.516
80.96000 9.584
80.98000 7.108
81.00000 5.550
81.02000 8.915
81.04000 9.274
81.06000 9.523
81.08000 7.799
81.10000 5.756
81.12000 10.758
81.14000 12.653
81.16000 11.287
81.18000 11.934
81.20000 10.970
81.22000 10.911
81.24000 12.777
81.26000 11.879
81.28000 9.826
81.30000 14.308
81.32000 12.603
81.34000 14.859
81.36000 13.122
81.38000 17.049
81.40000 16.088
81.42000 17.439
81.44000 20.041
81.46000 16.347
81.48000 13.157
81.50000 12.240
81.52000 14.438
81.54000 17.501
81.56000 16.807
81.58000 12.582
81.60000 18.242
81.62000 18.887
81.64000 19.958
81.66000 22.221
81.68000 21.009
81.70000 24.697
81.72000 29.043
81.74000 25.034
81.76000 20.850
81.78000 23.772
81.80000 30.149
81.82000 28.166
81.84000 24.662
81.86000 25.610
81.88000 30.072
81.90000 27.350
81.92000 30.483
81.94000 27.765
81.96000 24.065
81.98000 28.833
82.00000 30.779
82.02000 34.657
82.04000 34.596
82.06000 31.595
82.08000 25.713
82.10000 33.618
82.12000 33.873
82.14000 32.735
82.16000 33.370
82.18000 31.344
82.20000 35.008
82.22000 34.607
82.24000 32.494
82.26000 25.977
82.28000 31.026
82.30000 32.953
82.32000 36.406
82.34000 33.598
82.36000 30.863
82.38000 34.896
82.40000 32.847
82.42000 29.021
82.44000 32.484
82.46000 33.920
82.48000 34.394
82.50000 30.551
82.52000 27.220
82.54000 28.740
82.56000 30.691
82.58000 29.022
82.60000 26.697
82.62000 28.252
82.64000 32.396
82.66000 29.057
82.68000 29.123
82.70000 26.319
82.72000 25.340
82.74000 26.168
82.76000 22.958
82.78000 18.610
82.80000 16.252
82.82000 22.941
82.84000 23.854
82.86000 22.717
82.88000 20.944
82.90000 21.221
82.92000 22.505
82.94000 19.223
82.96000 16.702
82.98000 16.918
83.00000 17.580
83.02000 16.181
83.04000 21.147
83.06000 19.287
83.08000 7.696
83.10000 12.979
83.12000 15.935
83.14000 15.440
83.16000 10.690
83.18000 6.813
83.20000 5.683
83.22000 6.325
83.24000 10.651
83.26000 8.083
83.28000 10.473
83.30000 8.240
83.32000 9.350
83.34000 8.801
83.36000 8.813
83.38000 11.010
83.40000 8.479
83.42000 5.167
83.44000 4.993
83.46000 0.231
83.48000 -1.994
83.50000 0.737
83.52000 2.237
83.54000 1.192
83.56000 1.114
83.58000 2.330
83.60000 4.069
83.62000 2.867
83.64000 5.840
83.66000 5.177
83.68000 4.619
83.70000 2.068
83.72000 2.937
83.74000 4.148
83.76000 5.062
83.78000 1.902
83.80000 -0.078
83.82000 2.509
83.84000 8.031
83.86000 7.211
83.88000 1.619
83.90000 -1.118
83.92000 1.730
83.94000 2.891
83.96000 2.484
83.98000 2.266
84.00000 4.409
84.02000 1.093
84.04000 1.388
84.06000 3.457
84.08000 4.319
84.10000 6.243
84.12000 3.151
84.14000 1.295
84.16000 -2.346
84.18000 3.899
84.20000 4.316
84.22000 2.743
84.24000 3.615
84.26000 5.689
84.28000 4.156
84.30000 -0.216
84.32000 1.471
84.34000 -2.327
84.36000 -2.342
84.38000 1.054
84.40000 5.887
84.42000 3.508
84.44000 0.353
84.46000 4.551
84.48000 1.707
84.50000 0.738
84.52000 0.273
84.54000 1.950
84.56000 2.021
84.58000 5.376
84.60000 0.282
84.62000 3.666
84.64000 3.851
84.66000 1.855
84.68000 0.842
84.70000 -2.335
84.72000 0.847
84.74000 4.181
84.76000 5.535
84.78000 4.939
84.80000 3.637
84.82000 3.127
84.84000 1.246
84.86000 -1.826
84.88000 -2.340
84.90000 -1.751
84.92000 0.824
84.94000 1.771
84.96000 3.072
84.98000 2.299
85.00000 2.907
85.02000 1.990
85.04000 1.147
85.06000 4.871
85.08000 4.260
85.10000 2.852
85.12000 5.170
85.14000 4.537
85.16000 3.701
85.18000 4.807
85.20000 0.298
85.22000 0.318
85.24000 1.582
85.26000 2.556
85.28000 3.628
85.30000 2.588
85.32000 1.776
85.34000 4.707
85.36000 1.842
85.38000 3.234
85.40000 4.883
85.42000 1.920
85.44000 1.914
85.46000 6.714
85.48000 4.655
85.50000 3.884
85.52000 5.283
85.54000 3.767
85.56000 4.679
85.58000 6.429
85.60000 8.751
85.62000 3.738
85.64000 2.493
85.66000 6.648
85.68000 10.174
85.70000 9.312
85.72000 11.441
85.74000 10.962
85.76000 9.665
85.78000 10.683
85.80000 11.120
85.82000 10.539
85.84000 10.764
85.86000 9.609
85.88000 5.711
85.90000 6.222
85.92000 13.996
85.94000 12.397
85.96000 12.645
85.98000 15.385
86.00000 14.051
86.02000 15.809
86.04000 16.629
86.06000 13.845
86.08000 15.169
86.10000 15.877
86.12000 16.105
86.14000 15.424
86.16000 14.679
86.18000 12.347
86.20000 15.398
86.22000 20.610
86.24000 21.783
86.26000 18.081
86.28000 19.065
86.30000 24.200
86.32000 25.420
86.34000 21.991
86.36000 26.005
86.38000 24.721
86.40000 19.447
86.42000 16.267
86.44000 23.693
86.46000 24.305
86.48000 22.936
86.50000 24.699
86.52000 21.657
86.54000 24.720
86.56000 28.108
86.58000 25.673
86.60000 25.105
86.62000 18.880
86.64000 18.268
86.66000 20.814
86.68000 26.383
86.70000 23.750
86.72000 21.249
86.74000 19.463
86.76000 18.800
86.78000 19.690
86.80000 17.089
86.82000 15.121
86.84000 17.785
86.86000 16.901
86.88000 12.801
86.90000 11.660
86.92000 14.816
86.94000 13.822
86.96000 18.228
86.98000 17.774
87.00000 13.256
87.02000 8.761
87.04000 11.062
87.06000 14.391
87.08000 14.568
87.10000 9.660
87.12000 9.528
87.14000 9.719
87.16000 7.176
87.18000 7.334
87.20000 9.410
87.22000 6.875
87.24000 6.695
87.26000 9.495
87.28000 9.313
87.30000 5.792
87.32000 5.044
87.34000 3.423
87.36000 10.432
87.38000 10.008
87.40000 10.618
87.42000 14.183
87.44000 12.878
87.46000 6.087
87.48000 4.136
87.50000 6.146
87.52000 8.904
87.54000 4.533
87.56000 6.152
87.58000 5.223
87.60000 1.267
87.62000 -1.409
87.64000 2.709
87.66000 9.246
87.68000 3.513
87.70000 1.186
87.72000 3.503
87.74000 1.077
87.76000 2.419
87.78000 4.311
87.80000 2.798
87.82000 3.219
87.84000 6.323
87.86000 1.707
87.88000 2.320
87.90000 2.664
87.92000 4.887
87.94000 3.798
87.96000 -1.121
87.98000 0.418
88.00000 0.361
88.02000 -0.067
88.04000 -2.210
88.06000 0.402
88.08000 1.769
88.10000 1.413
88.12000 -0.127
88.14000 0.880
88.16000 -0.483
88.18000 -0.302
88.20000 1.959
88.22000 2.135
88.24000 -0.351
88.26000 2.928
88.28000 3.481
88.30000 1.556
88.32000 -1.962
88.34000 0.969
88.36000 -2.161
88.38000 2.584
88.40000 4.249
88.42000 1.518
88.44000 4.473
88.46000 2.360
88.48000 3.979
88.50000 -0.889
88.52000 -0.142
88.54000 3.009
88.56000 3.660
88.58000 2.241
88.60000 1.536
88.62000 0.747
88.64000 -1.428
88.66000 -0.468
88.68000 1.291
88.70000 2.167
88.72000 1.845
88.74000 -0.328
88.76000 3.184
88.78000 5.096
88.80000 1.812
88.82000 0.324
88.84000 1.078
88.86000 1.359
88.88000 1.821
88.90000 2.444
88.92000 4.167
88.94000 4.559
88.96000 3.573
88.98000 2.069
89.00000 4.776
89.02000 4.567
89.04000 1.638
89.06000 -1.040
89.08000 2.045
89.10000 1.328
89.12000 4.036
89.14000 1.699
89.16000 1.908
89.18000 6.596
89.20000 5.618
89.22000 5.838
89.24000 4.197
89.26000 4.630
89.28000 2.556
89.30000 1.700
89.32000 6.698
89.34000 7.231
89.36000 6.165
89.38000 5.748
89.40000 5.071
89.42000 4.405
89.44000 0.863
89.46000 -2.023
89.48000 2.384
89.50000 5.486
89.52000 6.580
89.54000 4.879
89.56000 9.796
89.58000 6.798
89.60000 3.167
89.62000 6.725
89.64000 10.759
89.66000 11.300
89.68000 2.730
89.70000 5.263
89.72000 4.311
89.74000 7.076
89.76000 5.251
89.78000 2.877
89.80000 0.169
89.82000 -2.060
89.84000 3.172
89.86000 2.004
89.88000 6.265
89.90000 8.017
89.92000 6.394
89.94000 1.648
89.96000 3.741
89.98000 8.077
90.00000 8.800
90.02000 7.884
90.04000 7.160
90.06000 4.273
90.08000 -1.196
90.10000 -0.937
90.12000 -0.039
90.14000 0.075
90.16000 2.726
90.18000 1.024
90.20000 0.711
90.22000 1.426
90.24000 0.224
90.26000 1.255
90.28000 0.342
90.30000 3.310
90.32000 3.149
90.34000 -1.454
90.36000 0.252
90.38000 0.802
90.40000 1.117
90.42000 2.140
90.44000 2.792
90.46000 2.527
90.48000 3.959
90.50000 3.762
90.52000 2.986
90.54000 0.368
90.56000 2.261
90.58000 3.796
90.60000 1.540
90.62000 1.025
90.64000 2.637
90.66000 2.542
90.68000 1.976
90.70000 0.430
90.72000 0.188
90.74000 1.158
90.76000 2.938
90.78000 2.301
90.80000 -0.433
90.82000 -0.364
90.84000 -0.224
90.86000 4.163
90.88000 4.488
90.90000 2.409
90.92000 -0.052
90.94000 2.716
90.96000 2.888
90.98000 3.557
91.00000 0.668
91.02000 3.814
91.04000 2.697
91.06000 -1.020
91.08000 0.178
91.10000 2.053
91.12000 3.810
91.14000 8.645
91.16000 7.613
91.18000 -1.019
91.20000 -1.394
91.22000 -0.632
91.24000 2.496
91.26000 1.218
91.28000 3.620
91.30000 1.029
91.32000 2.921
91.34000 4.743
91.36000 5.374
91.38000 4.907
91.40000 4.853
91.42000 1.165
91.44000 0.363
91.46000 2.365
91.48000 3.927
91.50000 2.310
91.52000 3.309
91.54000 -0.089
91.56000 0.465
91.58000 -2.084
91.60000 -0.875
91.62000 3.885
91.64000 2.230
91.66000 4.662
91.68000 4.172
91.70000 1.301
91.72000 2.160
91.74000 4.033
91.76000 3.665
91.78000 0.757
91.80000 -0.479
91.82000 5.098
91.84000 5.665
91.86000 3.594
91.88000 6.150
91.90000 -0.986
91.92000 -1.019
91.94000 2.575
91.96000 3.515
91.98000 2.449
92.00000 1.011
92.02000 3.018
92.04000 5.572
92.06000 1.693
92.08000 0.587
92.10000 4.411
92.12000 -1.033
92.14000 0.302
92.16000 6.343
92.18000 6.623
92.20000 5.458
92.22000 3.553
92.24000 0.057
92.26000 -0.355
92.28000 0.566
92.30000 0.784
92.32000 -1.754
92.34000 2.680
92.36000 3.176
92.38000 8.883
92.40000 11.367
92.42000 6.650
92.44000 2.654
92.46000 -1.204
92.48000 -0.370
92.50000 3.763
92.52000 2.227
92.54000 2.169
92.56000 3.437
92.58000 4.845
92.60000 6.783
92.62000 7.307
92.64000 1.679
92.66000 0.032
92.68000 2.510
92.70000 6.379
92.72000 4.226
92.74000 6.365
92.76000 8.619
92.78000 5.164
92.80000 3.742
92.82000 7.966
92.84000 4.774
92.86000 -2.054
92.88000 3.867
92.90000 7.201
92.92000 7.779
92.94000 7.804
92.96000 5.249
92.98000 6.123
93.00000 7.093
93.02000 5.546
93.04000 4.673
93.06000 7.532
93.08000 8.056
93.10000 2.785
93.12000 2.240
93.14000 2.687
93.16000 3.582
93.18000 3.263
93.20000 4.841
93.22000 2.496
93.24000 4.544
93.26000 1.097
93.28000 0.908
93.30000 -0.213
93.32000 0.648
93.34000 3.260
93.36000 3.548
93.38000 7.138
93.40000 8.669
93.42000 3.290
93.44000 1.692
93.46000 1.831
93.48000 2.678
93.50000 5.634
93.52000 8.154
93.54000 7.478
93.56000 10.998
93.58000 7.008
93.60000 5.136
93.62000 2.723
93.64000 2.580
93.66000 5.038
93.68000 1.536
93.70000 0.403
93.72000 5.548
93.74000 2.974
93.76000 2.331
93.78000 4.877
93.80000 2.298
93.82000 3.312
93.84000 6.545
93.86000 7.715
93.88000 10.463
93.90000 9.969
93.92000 8.579
93.94000 6.549
93.96000 6.532
93.98000 4.085
94.00000 -2.059
94.02000 3.119
94.04000 4.208
94.06000 2.672
94.08000 1.496
94.10000 4.045
94.12000 6.840
94.14000 4.199
94.16000 2.545
94.18000 2.303
94.20000 3.363
94.22000 6.055
94.24000 5.988
94.26000 1.937
94.28000 0.713
94.30000 4.347
94.32000 6.265
94.34000 4.403
94.36000 2.419
94.38000 1.391
94.40000 2.991
94.42000 -0.347
94.44000 1.840
94.46000 2.566
94.48000 3.273
94.50000 3.921
94.52000 5.264
94.54000 9.811
94.56000 4.228
94.58000 -0.386
94.60000 5.499
94.62000 7.680
94.64000 2.477
94.66000 5.448
94.68000 5.264
94.70000 3.815
94.72000 3.441
94.74000 8.237
94.76000 6.811
94.78000 6.823
94.80000 4.796
94.82000 7.416
94.84000 5.241
94.86000 3.434
94.88000 2.197
94.90000 3.406
94.92000 3.101
94.94000 2.555
94.96000 0.485
94.98000 0.597
95.00000 5.640
95.02000 3.342
95.04000 1.681
95.06000 0.913
95.08000 3.835
95.10000 3.998
95.12000 3.757
95.14000 5.203
95.16000 6.571
95.18000 4.317
95.20000 2.718
95.22000 0.010
95.24000 -0.075
95.26000 1.272
95.28000 3.779
95.30000 3.428
95.32000 2.990
95.34000 4.680
95.36000 3.366
95.38000 4.931
95.40000 5.856
95.42000 4.580
95.44000 1.903
95.46000 -0.266
95.48000 1.666
95.50000 5.577
95.52000 9.716
95.54000 7.915
95.56000 4.493
95.58000 3.094
95.60000 5.230
95.62000 0.418
95.64000 1.525
95.66000 0.923
95.68000 -2.113
95.70000 3.888
95.72000 5.973
95.74000 4.514
95.76000 1.148
95.78000 -0.348
95.80000 -0.074
95.82000 5.356
95.84000 6.082
95.86000 2.745
95.88000 7.258
95.90000 4.060
95.92000 -0.600
95.94000 5.851
95.96000 8.137
95.98000 6.202
96.00000 1.858
96.02000 2.809
96.04000 11.731
96.06000 11.111
96.08000 5.515
96.10000 5.030
96.12000 4.761
96.14000 8.644
96.16000 4.027
96.18000 5.272
96.20000 2.449
96.22000 8.894
96.24000 13.976
96.26000 12.035
96.28000 6.759
96.30000 3.808
96.32000 1.119
96.34000 4.416
96.36000 1.869
96.38000 -0.881
96.40000 -2.071
96.42000 2.811
96.44000 2.640
96.46000 9.398
96.48000 3.731
96.50000 2.484
96.52000 7.860
96.54000 10.098
96.56000 8.738
96.58000 8.287
96.60000 7.557
96.62000 3.111
96.64000 -0.213
96.66000 6.695
96.68000 9.067
96.70000 10.054
96.72000 7.819
96.74000 5.115
96.76000 1.105
96.78000 4.857
96.80000 6.601
96.82000 7.015
96.84000 6.759
96.86000 8.453
96.88000 7.707
96.90000 6.784
96.92000 4.952
96.94000 2.241
96.96000 6.014
96.98000 7.715
97.00000 3.556
97.02000 6.314
97.04000 7.005
97.06000 2.459
97.08000 8.864
97.10000 3.988
97.12000 -0.180
97.14000 1.760
97.16000 6.676
97.18000 7.222
97.20000 7.913
97.22000 8.071
97.24000 7.342
97.26000 1.762
97.28000 -2.017
97.30000 5.074
97.32000 6.793
97.34000 4.510
97.36000 8.846
97.38000 6.212
97.40000 12.804
97.42000 10.346
97.44000 8.099
97.46000 5.122
97.48000 6.246
97.50000 11.179
97.52000 6.089
97.54000 4.552
97.56000 12.217
97.58000 14.344
97.60000 6.349
97.62000 8.580
97.64000 7.060
97.66000 10.589
97.68000 6.024
97.70000 3.886
97.72000 5.310
97.74000 6.455
97.76000 3.886
97.78000 5.554
97.80000 6.011
97.82000 8.294
97.84000 14.092
97.86000 12.069
97.88000 8.071
97.90000 7.911
97.92000 9.266
97.94000 0.238
97.96000 -2.014
97.98000 2.918
98.00000 5.133
98.02000 5.705
98.04000 5.299
98.06000 8.708
98.08000 7.518
98.10000 3.713
98.12000 3.567
98.14000 5.986
98.16000 6.483
98.18000 11.604
98.20000 6.363
98.22000 5.139
98.24000 3.940
98.26000 5.939
98.28000 1.016
98.30000 4.926
98.32000 7.237
98.34000 12.727
98.36000 8.123
98.38000 6.968
98.40000 1.055
98.42000 1.427
98.44000 6.078
98.46000 10.344
98.48000 9.284
98.50000 2.605
98.52000 0.333
98.54000 7.752
98.56000 12.829
98.58000 4.385
98.60000 -0.946
98.62000 0.255
98.64000 1.426
98.66000 6.565
98.68000 4.872
98.70000 6.873
98.72000 6.638
98.74000 6.760
98.76000 9.275
98.78000 15.015
98.80000 10.534
98.82000 11.868
98.84000 4.029
98.86000 11.729
98.88000 5.998
98.90000 7.999
98.92000 14.652
98.94000 6.186
98.96000 6.327
98.98000 -0.060
99.00000 6.290
99.02000 5.534
99.04000 0.909
99.06000 -1.509
99.08000 2.961
99.10000 5.519
99.12000 7.171
99.14000 12.386
99.16000 0.459
99.18000 0.646
99.20000 14.071
99.22000 6.823
99.24000 3.857
99.26000 11.160
99.28000 7.868
99.30000 5.762
99.32000 3.336
99.34000 8.366
99.36000 3.771
99.38000 -5.142
99.40000 8.685
99.42000 6.784
99.44000 11.517
99.46000 17.459
99.48000 15.408
99.50000 10.542
99.52000 6.183
99.54000 7.488
99.56000 12.887
99.58000 7.764
99.60000 3.880
99.62000 -1.973
99.64000 4.487
99.66000 11.970
99.68000 14.115
99.70000 9.419
99.72000 6.583
99.74000 -0.384
99.76000 7.718
99.78000 12.220
99.80000 14.899
99.82000 9.388
99.84000 14.438
99.86000 3.799
99.88000 -2.092
99.90000 4.127
99.92000 8.759
99.94000 -5.522
99.96000 1.868
99.98000 0.000
