'Id: "0011387" Comment: "Integrate frame 0011387_Au-Ir-Rh_Rh-rich_XRD-Mapping-308-0000.gfrmwith cursor Wedge Cursor #5" Operator: "B?rgel" Anode: "Cu" Wavelength: "1.5406" Scantype: "2Theta (TwoTheta)" TimePerStep: "1" X: "22.5" Y: "31.5" Z: "5.95" 
10.00000 0.000
10.02000 5.873
10.04000 17.651
10.06000 14.890
10.08000 13.152
10.10000 9.382
10.12000 -3.921
10.14000 3.955
10.16000 2.657
10.18000 9.910
10.20000 -3.504
10.22000 -3.935
10.24000 10.903
10.26000 6.315
10.28000 3.433
10.30000 10.436
10.32000 14.126
10.34000 19.410
10.36000 16.815
10.38000 16.408
10.40000 1.194
10.42000 4.142
10.44000 12.063
10.46000 14.433
10.48000 10.436
10.50000 1.595
10.52000 4.474
10.54000 13.386
10.56000 10.408
10.58000 12.932
10.60000 16.236
10.62000 13.993
10.64000 13.330
10.66000 24.649
10.68000 20.823
10.70000 11.626
10.72000 4.954
10.74000 10.332
10.76000 4.829
10.78000 13.015
10.80000 12.708
10.82000 8.615
10.84000 18.142
10.86000 16.679
10.88000 16.637
10.90000 17.249
10.92000 19.118
10.94000 14.415
10.96000 17.194
10.98000 5.432
11.00000 8.481
11.02000 10.693
11.04000 6.630
11.06000 14.513
11.08000 14.370
11.10000 13.849
11.12000 2.287
11.14000 5.903
11.16000 11.603
11.18000 7.634
11.20000 19.829
11.22000 18.351
11.24000 16.471
11.26000 6.585
11.28000 9.545
11.30000 22.978
11.32000 19.037
11.34000 11.293
11.36000 10.525
11.38000 13.438
11.40000 15.770
11.42000 21.031
11.44000 17.016
11.46000 5.962
11.48000 20.637
11.50000 7.135
11.52000 10.362
11.54000 18.672
11.56000 16.160
11.58000 20.681
11.60000 26.956
11.62000 18.222
11.64000 9.952
11.66000 16.496
11.68000 17.900
11.70000 2.856
11.72000 0.808
11.74000 9.985
11.76000 19.025
11.78000 21.985
11.80000 13.420
11.82000 9.157
11.84000 2.391
11.86000 12.230
11.88000 11.612
11.90000 11.714
11.92000 24.868
11.94000 22.697
11.96000 16.376
11.98000 12.191
12.00000 22.954
12.02000 14.614
12.04000 9.723
12.06000 12.543
12.08000 16.451
12.10000 24.229
12.12000 20.573
12.14000 13.948
12.16000 11.049
12.18000 18.536
12.20000 14.743
12.22000 13.998
12.24000 11.455
12.26000 11.870
12.28000 24.762
12.30000 19.388
12.32000 27.561
12.34000 32.225
12.36000 36.544
12.38000 30.639
12.40000 22.661
12.42000 22.376
12.44000 13.465
12.46000 9.458
12.48000 22.806
12.50000 29.585
12.52000 15.501
12.54000 13.389
12.56000 25.354
12.58000 32.564
12.60000 24.423
12.62000 22.248
12.64000 23.617
12.66000 22.812
12.68000 24.144
12.70000 22.323
12.72000 25.421
12.74000 24.963
12.76000 30.262
12.78000 34.999
12.80000 18.295
12.82000 19.953
12.84000 23.592
12.86000 15.814
12.88000 26.272
12.90000 15.669
12.92000 9.510
12.94000 19.672
12.96000 21.093
12.98000 23.656
13.00000 13.614
13.02000 19.476
13.04000 27.199
13.06000 32.851
13.08000 24.747
13.10000 14.858
13.12000 16.534
13.14000 21.953
13.16000 20.353
13.18000 17.928
13.20000 8.896
13.22000 11.901
13.24000 11.801
13.26000 11.408
13.28000 16.707
13.30000 14.440
13.32000 5.208
13.34000 11.568
13.36000 20.762
13.38000 11.591
13.40000 15.761
13.42000 21.941
13.44000 25.295
13.46000 18.075
13.48000 4.206
13.50000 1.821
13.52000 13.350
13.54000 21.635
13.56000 14.422
13.58000 12.925
13.60000 17.864
13.62000 15.505
13.64000 15.632
13.66000 17.087
13.68000 4.702
13.70000 18.790
13.72000 12.179
13.74000 -1.892
13.76000 4.938
13.78000 20.714
13.80000 13.804
13.82000 7.460
13.84000 10.461
13.86000 11.058
13.88000 19.718
13.90000 20.951
13.92000 18.851
13.94000 18.983
13.96000 26.449
13.98000 16.030
14.00000 16.809
14.02000 17.306
14.04000 17.422
14.06000 16.599
14.08000 19.096
14.10000 9.161
14.12000 14.131
14.14000 20.688
14.16000 21.842
14.18000 16.358
14.20000 8.697
14.22000 11.031
14.24000 15.669
14.26000 21.277
14.28000 25.624
14.30000 21.793
14.32000 23.121
14.34000 18.551
14.36000 23.210
14.38000 8.678
14.40000 13.721
14.42000 11.247
14.44000 17.133
14.46000 11.730
14.48000 15.949
14.50000 8.261
14.52000 2.603
14.54000 12.256
14.56000 28.733
14.58000 12.578
14.60000 9.460
14.62000 9.441
14.64000 20.306
14.66000 16.201
14.68000 21.602
14.70000 16.062
14.72000 10.360
14.74000 16.008
14.76000 17.310
14.78000 12.867
14.80000 12.328
14.82000 9.793
14.84000 12.401
14.86000 20.416
14.88000 22.954
14.90000 23.754
14.92000 15.431
14.94000 11.804
14.96000 12.836
14.98000 9.103
15.00000 12.960
15.02000 20.713
15.04000 21.250
15.06000 16.666
15.08000 11.204
15.10000 11.394
15.12000 9.403
15.14000 9.774
15.16000 13.837
15.18000 13.556
15.20000 18.971
15.22000 13.793
15.24000 8.033
15.26000 7.208
15.28000 8.234
15.30000 15.513
15.32000 7.170
15.34000 3.425
15.36000 10.894
15.38000 20.025
15.40000 13.532
15.42000 8.017
15.44000 10.549
15.46000 8.432
15.48000 11.216
15.50000 5.840
15.52000 18.771
15.54000 18.775
15.56000 13.277
15.58000 13.382
15.60000 12.952
15.62000 9.320
15.64000 9.883
15.66000 15.070
15.68000 18.383
15.70000 15.579
15.72000 13.384
15.74000 16.187
15.76000 10.418
15.78000 7.296
15.80000 12.763
15.82000 14.455
15.84000 11.539
15.86000 15.920
15.88000 16.535
15.90000 7.008
15.92000 8.882
15.94000 12.437
15.96000 8.948
15.98000 11.201
16.00000 18.200
16.02000 18.267
16.04000 13.349
16.06000 0.905
16.08000 2.763
16.10000 8.630
16.12000 16.251
16.14000 14.297
16.16000 14.246
16.18000 7.579
16.20000 9.389
16.22000 9.130
16.24000 8.238
16.26000 9.145
16.28000 7.004
16.30000 5.171
16.32000 6.736
16.34000 7.407
16.36000 6.898
16.38000 10.851
16.40000 13.485
16.42000 19.171
16.44000 7.444
16.46000 4.211
16.48000 5.160
16.50000 6.761
16.52000 12.762
16.54000 12.385
16.56000 11.526
16.58000 11.161
16.60000 6.971
16.62000 6.000
16.64000 3.914
16.66000 -0.325
16.68000 -0.087
16.70000 -0.266
16.72000 11.071
16.74000 13.061
16.76000 9.821
16.78000 10.940
16.80000 2.633
16.82000 -4.398
16.84000 2.895
16.86000 3.836
16.88000 10.536
16.90000 6.296
16.92000 6.917
16.94000 9.792
16.96000 9.890
16.98000 13.792
17.00000 6.048
17.02000 10.154
17.04000 7.165
17.06000 3.630
17.08000 10.968
17.10000 13.192
17.12000 11.533
17.14000 0.959
17.16000 0.870
17.18000 5.788
17.20000 6.898
17.22000 4.462
17.24000 5.976
17.26000 1.479
17.28000 -0.003
17.30000 2.309
17.32000 3.979
17.34000 11.479
17.36000 8.057
17.38000 4.097
17.40000 6.399
17.42000 3.015
17.44000 -1.762
17.46000 0.106
17.48000 7.016
17.50000 7.713
17.52000 6.268
17.54000 13.664
17.56000 18.858
17.58000 6.249
17.60000 8.238
17.62000 7.964
17.64000 9.966
17.66000 2.562
17.68000 -0.034
17.70000 6.540
17.72000 6.812
17.74000 3.799
17.76000 1.033
17.78000 7.189
17.80000 2.431
17.82000 1.130
17.84000 2.562
17.86000 2.187
17.88000 2.978
17.90000 0.822
17.92000 4.357
17.94000 6.417
17.96000 2.888
17.98000 5.918
18.00000 1.939
18.02000 3.821
18.04000 8.874
18.06000 3.696
18.08000 0.726
18.10000 6.567
18.12000 7.461
18.14000 10.000
18.16000 17.922
18.18000 13.966
18.20000 17.376
18.22000 13.706
18.24000 7.116
18.26000 1.704
18.28000 7.101
18.30000 9.129
18.32000 6.510
18.34000 7.153
18.36000 2.492
18.38000 8.393
18.40000 9.671
18.42000 6.450
18.44000 5.276
18.46000 5.466
18.48000 0.993
18.50000 -4.342
18.52000 3.174
18.54000 0.261
18.56000 5.322
18.58000 8.665
18.60000 1.002
18.62000 5.969
18.64000 7.054
18.66000 1.069
18.68000 8.764
18.70000 6.469
18.72000 2.745
18.74000 5.879
18.76000 -2.606
18.78000 -2.342
18.80000 10.336
18.82000 8.088
18.84000 6.571
18.86000 0.289
18.88000 -1.303
18.90000 8.516
18.92000 7.127
18.94000 5.900
18.96000 5.486
18.98000 2.944
19.00000 9.271
19.02000 11.099
19.04000 5.130
19.06000 -1.151
19.08000 -4.303
19.10000 5.713
19.12000 8.372
19.14000 8.027
19.16000 12.112
19.18000 7.915
19.20000 10.256
19.22000 11.343
19.24000 8.686
19.26000 7.653
19.28000 2.183
19.30000 -0.900
19.32000 2.180
19.34000 6.289
19.36000 1.923
19.38000 2.949
19.40000 3.317
19.42000 -1.538
19.44000 -0.584
19.46000 -0.379
19.48000 3.942
19.50000 3.863
19.52000 3.386
19.54000 4.289
19.56000 9.099
19.58000 5.035
19.60000 3.973
19.62000 2.529
19.64000 8.372
19.66000 6.148
19.68000 6.242
19.70000 11.515
19.72000 11.429
19.74000 9.540
19.76000 12.399
19.78000 8.724
19.80000 7.768
19.82000 6.802
19.84000 8.109
19.86000 8.935
19.88000 7.784
19.90000 11.353
19.92000 7.051
19.94000 1.281
19.96000 2.598
19.98000 0.088
20.00000 2.097
20.02000 10.288
20.04000 8.487
20.06000 9.674
20.08000 18.026
20.10000 8.314
20.12000 7.984
20.14000 7.197
20.16000 5.068
20.18000 0.642
20.20000 1.144
20.22000 -4.238
20.24000 -3.740
20.26000 3.062
20.28000 6.229
20.30000 2.125
20.32000 -1.421
20.34000 0.290
20.36000 7.754
20.38000 8.862
20.40000 4.793
20.42000 3.395
20.44000 0.582
20.46000 0.893
20.48000 5.716
20.50000 9.376
20.52000 7.062
20.54000 4.645
20.56000 -0.408
20.58000 0.175
20.60000 1.468
20.62000 -0.815
20.64000 -0.624
20.66000 9.485
20.68000 8.341
20.70000 8.489
20.72000 10.211
20.74000 5.742
20.76000 5.444
20.78000 7.877
20.80000 1.518
20.82000 2.567
20.84000 5.143
20.86000 6.123
20.88000 2.828
20.90000 4.379
20.92000 0.816
20.94000 6.047
20.96000 3.223
20.98000 -2.777
21.00000 1.754
21.02000 3.826
21.04000 8.189
21.06000 4.985
21.08000 4.238
21.10000 10.999
21.12000 6.980
21.14000 -1.318
21.16000 -1.147
21.18000 -0.582
21.20000 0.311
21.22000 7.646
21.24000 7.396
21.26000 4.306
21.28000 1.915
21.30000 8.236
21.32000 8.621
21.34000 4.700
21.36000 10.012
21.38000 7.522
21.40000 4.324
21.42000 1.010
21.44000 -1.496
21.46000 -0.554
21.48000 5.626
21.50000 8.817
21.52000 7.808
21.54000 8.392
21.56000 2.508
21.58000 3.313
21.60000 3.512
21.62000 -0.774
21.64000 1.678
21.66000 8.845
21.68000 6.028
21.70000 -0.602
21.72000 -1.189
21.74000 6.327
21.76000 2.279
21.78000 -0.281
21.80000 4.229
21.82000 8.325
21.84000 2.700
21.86000 4.354
21.88000 5.347
21.90000 5.963
21.92000 8.271
21.94000 9.617
21.96000 13.517
21.98000 13.526
22.00000 10.976
22.02000 8.632
22.04000 10.183
22.06000 9.120
22.08000 8.634
22.10000 0.080
22.12000 -4.128
22.14000 1.025
22.16000 5.439
22.18000 1.722
22.20000 3.840
22.22000 4.151
22.24000 5.410
22.26000 6.728
22.28000 8.098
22.30000 8.944
22.32000 6.259
22.34000 -0.254
22.36000 -4.121
22.38000 6.319
22.40000 15.663
22.42000 20.162
22.44000 8.450
22.46000 1.245
22.48000 5.476
22.50000 9.818
22.52000 7.246
22.54000 7.960
22.56000 -0.403
22.58000 -1.001
22.60000 2.216
22.62000 4.565
22.64000 8.767
22.66000 -4.026
22.68000 0.235
22.70000 4.046
22.72000 5.770
22.74000 4.543
22.76000 10.253
22.78000 9.475
22.80000 1.803
22.82000 2.652
22.84000 2.370
22.86000 6.391
22.88000 8.545
22.90000 6.220
22.92000 4.852
22.94000 6.460
22.96000 5.689
22.98000 6.160
23.00000 3.074
23.02000 -0.603
23.04000 -0.953
23.06000 3.010
23.08000 7.396
23.10000 8.057
23.12000 -0.107
23.14000 -4.087
23.16000 0.952
23.18000 2.833
23.20000 7.306
23.22000 8.476
23.24000 5.326
23.26000 5.884
23.28000 10.692
23.30000 11.899
23.32000 5.637
23.34000 2.331
23.36000 0.669
23.38000 -1.449
23.40000 -0.640
23.42000 5.192
23.44000 3.161
23.46000 4.078
23.48000 6.435
23.50000 6.237
23.52000 5.201
23.54000 1.634
23.56000 4.794
23.58000 3.348
23.60000 4.971
23.62000 5.226
23.64000 8.756
23.66000 8.525
23.68000 2.574
23.70000 1.770
23.72000 1.144
23.74000 -1.540
23.76000 3.757
23.78000 4.066
23.80000 5.082
23.82000 1.624
23.84000 4.351
23.86000 3.492
23.88000 0.769
23.90000 3.968
23.92000 4.602
23.94000 1.589
23.96000 -0.853
23.98000 5.824
24.00000 5.232
24.02000 -1.880
24.04000 5.415
24.06000 5.790
24.08000 1.988
24.10000 7.160
24.12000 6.789
24.14000 0.152
24.16000 1.798
24.18000 0.152
24.20000 -3.600
24.22000 -4.043
24.24000 3.528
24.26000 5.714
24.28000 4.969
24.30000 5.358
24.32000 0.890
24.34000 3.615
24.36000 1.380
24.38000 -1.994
24.40000 0.721
24.42000 1.759
24.44000 0.855
24.46000 0.553
24.48000 4.220
24.50000 2.385
24.52000 -3.615
24.54000 -3.370
24.56000 -3.428
24.58000 -3.952
24.60000 -0.331
24.62000 -2.916
24.64000 -1.006
24.66000 3.909
24.68000 6.936
24.70000 6.408
24.72000 4.780
24.74000 1.985
24.76000 3.497
24.78000 1.661
24.80000 2.106
24.82000 7.059
24.84000 -0.101
24.86000 -0.638
24.88000 1.745
24.90000 5.366
24.92000 2.615
24.94000 1.078
24.96000 -2.682
24.98000 -3.998
25.00000 4.182
25.02000 4.146
25.04000 9.225
25.06000 9.405
25.08000 4.480
25.10000 2.510
25.12000 0.605
25.14000 2.614
25.16000 3.607
25.18000 6.687
25.20000 8.271
25.22000 6.396
25.24000 8.146
25.26000 2.408
25.28000 1.491
25.30000 2.453
25.32000 6.097
25.34000 -0.754
25.36000 0.644
25.38000 -1.141
25.40000 0.881
25.42000 6.584
25.44000 3.418
25.46000 0.170
25.48000 6.183
25.50000 5.001
25.52000 -1.892
25.54000 -3.951
25.56000 3.418
25.58000 0.998
25.60000 5.255
25.62000 3.062
25.64000 1.705
25.66000 3.448
25.68000 9.218
25.70000 7.508
25.72000 3.381
25.74000 -1.276
25.76000 1.766
25.78000 3.305
25.80000 -0.393
25.82000 -2.804
25.84000 1.008
25.86000 4.403
25.88000 1.241
25.90000 -2.166
25.92000 -1.056
25.94000 -2.119
25.96000 2.794
25.98000 -2.493
26.00000 -2.194
26.02000 -0.913
26.04000 3.179
26.06000 -0.418
26.08000 2.550
26.10000 4.641
26.12000 4.895
26.14000 7.376
26.16000 10.154
26.18000 6.591
26.20000 5.517
26.22000 4.011
26.24000 4.375
26.26000 1.687
26.28000 1.541
26.30000 5.072
26.32000 -0.227
26.34000 -0.347
26.36000 -1.228
26.38000 -1.499
26.40000 -2.059
26.42000 -3.914
26.44000 5.685
26.46000 0.714
26.48000 -2.373
26.50000 3.145
26.52000 -0.503
26.54000 -3.480
26.56000 0.402
26.58000 7.229
26.60000 3.995
26.62000 3.746
26.64000 5.115
26.66000 4.873
26.68000 0.327
26.70000 -0.910
26.72000 5.368
26.74000 4.176
26.76000 1.707
26.78000 7.028
26.80000 11.042
26.82000 9.454
26.84000 8.021
26.86000 2.196
26.88000 -0.653
26.90000 -0.369
26.92000 0.491
26.94000 3.949
26.96000 5.249
26.98000 2.052
27.00000 3.593
27.02000 11.807
27.04000 8.806
27.06000 2.827
27.08000 2.281
27.10000 -3.862
27.12000 3.862
27.14000 4.941
27.16000 2.577
27.18000 3.515
27.20000 7.657
27.22000 10.218
27.24000 10.349
27.26000 7.080
27.28000 4.031
27.30000 7.948
27.32000 4.346
27.34000 -1.466
27.36000 6.585
27.38000 6.798
27.40000 8.054
27.42000 3.159
27.44000 1.940
27.46000 5.199
27.48000 6.527
27.50000 3.483
27.52000 4.018
27.54000 9.415
27.56000 7.581
27.58000 4.609
27.60000 0.060
27.62000 0.289
27.64000 2.147
27.66000 -3.134
27.68000 1.272
27.70000 4.040
27.72000 3.615
27.74000 2.150
27.76000 4.388
27.78000 7.570
27.80000 4.521
27.82000 2.956
27.84000 6.303
27.86000 8.064
27.88000 2.078
27.90000 2.204
27.92000 6.919
27.94000 3.568
27.96000 2.108
27.98000 4.243
28.00000 4.624
28.02000 2.389
28.04000 4.154
28.06000 4.771
28.08000 5.882
28.10000 3.154
28.12000 4.472
28.14000 7.797
28.16000 6.834
28.18000 10.504
28.20000 5.936
28.22000 7.908
28.24000 4.154
28.26000 5.686
28.28000 6.728
28.30000 8.543
28.32000 0.537
28.34000 3.713
28.36000 3.417
28.38000 2.640
28.40000 2.566
28.42000 -0.505
28.44000 -1.187
28.46000 3.527
28.48000 1.257
28.50000 3.742
28.52000 6.330
28.54000 8.683
28.56000 8.253
28.58000 2.088
28.60000 -2.879
28.62000 -3.762
28.64000 0.822
28.66000 4.158
28.68000 6.997
28.70000 10.126
28.72000 2.736
28.74000 0.568
28.76000 6.135
28.78000 6.596
28.80000 5.938
28.82000 4.923
28.84000 0.928
28.86000 7.305
28.88000 8.943
28.90000 7.030
28.92000 8.348
28.94000 3.387
28.96000 3.028
28.98000 3.001
29.00000 2.663
29.02000 3.595
29.04000 0.917
29.06000 2.764
29.08000 3.439
29.10000 7.126
29.12000 6.442
29.14000 2.307
29.16000 5.612
29.18000 3.276
29.20000 1.937
29.22000 8.122
29.24000 11.440
29.26000 7.316
29.28000 1.679
29.30000 -1.014
29.32000 0.127
29.34000 3.267
29.36000 6.951
29.38000 7.912
29.40000 12.275
29.42000 6.071
29.44000 0.400
29.46000 3.201
29.48000 2.180
29.50000 5.213
29.52000 6.725
29.54000 2.865
29.56000 4.999
29.58000 4.365
29.60000 4.036
29.62000 1.627
29.64000 2.901
29.66000 2.013
29.68000 5.700
29.70000 5.941
29.72000 0.900
29.74000 -0.965
29.76000 1.358
29.78000 -2.698
29.80000 3.248
29.82000 3.239
29.84000 -0.926
29.86000 1.671
29.88000 8.030
29.90000 8.666
29.92000 5.521
29.94000 5.016
29.96000 3.577
29.98000 0.563
30.00000 3.900
30.02000 4.883
30.04000 1.235
30.06000 5.586
30.08000 2.765
30.10000 7.527
30.12000 4.330
30.14000 -2.754
30.16000 2.493
30.18000 8.406
30.20000 3.852
30.22000 5.023
30.24000 3.634
30.26000 4.812
30.28000 3.861
30.30000 2.078
30.32000 4.441
30.34000 7.242
30.36000 9.712
30.38000 5.227
30.40000 4.947
30.42000 3.869
30.44000 6.706
30.46000 3.317
30.48000 1.264
30.50000 3.278
30.52000 9.188
30.54000 2.577
30.56000 4.325
30.58000 3.662
30.60000 5.116
30.62000 4.373
30.64000 8.071
30.66000 3.647
30.68000 3.555
30.70000 8.566
30.72000 4.648
30.74000 7.954
30.76000 7.751
30.78000 4.090
30.80000 2.259
30.82000 4.143
30.84000 4.817
30.86000 10.029
30.88000 12.069
30.90000 7.129
30.92000 -0.358
30.94000 -3.622
30.96000 4.925
30.98000 9.340
31.00000 7.645
31.02000 9.832
31.04000 10.378
31.06000 10.065
31.08000 8.934
31.10000 8.209
31.12000 7.409
31.14000 7.451
31.16000 6.380
31.18000 4.367
31.20000 5.390
31.22000 1.203
31.24000 7.495
31.26000 9.716
31.28000 8.469
31.30000 11.144
31.32000 9.275
31.34000 6.721
31.36000 3.666
31.38000 6.996
31.40000 5.433
31.42000 1.935
31.44000 -0.827
31.46000 -2.105
31.48000 4.212
31.50000 6.830
31.52000 6.085
31.54000 6.613
31.56000 4.691
31.58000 3.718
31.60000 4.857
31.62000 1.769
31.64000 -0.285
31.66000 2.582
31.68000 2.749
31.70000 -1.248
31.72000 -0.022
31.74000 1.979
31.76000 3.930
31.78000 1.616
31.80000 2.518
31.82000 3.510
31.84000 1.003
31.86000 2.584
31.88000 5.652
31.90000 1.397
31.92000 0.403
31.94000 2.879
31.96000 2.817
31.98000 0.563
32.00000 -0.700
32.02000 0.538
32.04000 2.090
32.06000 1.608
32.08000 -1.427
32.10000 -0.347
32.12000 3.836
32.14000 4.786
32.16000 -1.991
32.18000 0.839
32.20000 6.036
32.22000 1.809
32.24000 1.947
32.26000 -1.287
32.28000 -1.863
32.30000 2.913
32.32000 0.879
32.34000 -1.736
32.36000 -3.635
32.38000 1.045
32.40000 -2.100
32.42000 -0.825
32.44000 1.281
32.46000 -0.389
32.48000 3.808
32.50000 0.069
32.52000 -2.338
32.54000 3.914
32.56000 1.733
32.58000 -0.660
32.60000 -0.677
32.62000 2.228
32.64000 3.694
32.66000 4.843
32.68000 2.203
32.70000 3.517
32.72000 -0.913
32.74000 2.525
32.76000 -0.494
32.78000 -1.841
32.80000 0.724
32.82000 2.159
32.84000 1.338
32.86000 2.030
32.88000 -0.035
32.90000 -0.809
32.92000 -0.170
32.94000 2.314
32.96000 -0.277
32.98000 -0.023
33.00000 -1.236
33.02000 0.367
33.04000 3.068
33.06000 1.027
33.08000 -1.158
33.10000 0.575
33.12000 0.218
33.14000 1.845
33.16000 1.076
33.18000 -1.671
33.20000 -0.409
33.22000 -1.489
33.24000 -0.784
33.26000 3.096
33.28000 1.682
33.30000 4.999
33.32000 5.632
33.34000 3.823
33.36000 -3.385
33.38000 -2.888
33.40000 8.329
33.42000 7.642
33.44000 3.988
33.46000 3.945
33.48000 5.809
33.50000 4.726
33.52000 6.554
33.54000 7.128
33.56000 4.634
33.58000 2.265
33.60000 5.386
33.62000 0.075
33.64000 -0.980
33.66000 2.591
33.68000 -2.446
33.70000 -3.606
33.72000 1.573
33.74000 -0.625
33.76000 7.300
33.78000 10.454
33.80000 3.740
33.82000 2.659
33.84000 4.480
33.86000 3.334
33.88000 3.054
33.90000 4.162
33.92000 5.088
33.94000 1.244
33.96000 4.634
33.98000 8.369
34.00000 1.067
34.02000 -1.760
34.04000 2.944
34.06000 5.208
34.08000 4.100
34.10000 4.188
34.12000 4.205
34.14000 7.789
34.16000 2.336
34.18000 0.381
34.20000 1.669
34.22000 6.217
34.24000 2.783
34.26000 0.274
34.28000 2.954
34.30000 5.874
34.32000 9.565
34.34000 7.560
34.36000 4.426
34.38000 0.564
34.40000 3.877
34.42000 2.063
34.44000 3.649
34.46000 13.146
34.48000 11.033
34.50000 4.781
34.52000 3.268
34.54000 6.789
34.56000 5.973
34.58000 4.815
34.60000 0.830
34.62000 3.142
34.64000 3.075
34.66000 3.966
34.68000 4.038
34.70000 4.706
34.72000 8.987
34.74000 9.428
34.76000 4.531
34.78000 -1.264
34.80000 6.068
34.82000 7.143
34.84000 7.877
34.86000 8.184
34.88000 5.430
34.90000 0.820
34.92000 -3.532
34.94000 -3.061
34.96000 3.365
34.98000 6.533
35.00000 8.005
35.02000 10.122
35.04000 3.285
35.06000 2.388
35.08000 1.748
35.10000 2.753
35.12000 2.645
35.14000 0.626
35.16000 7.382
35.18000 9.204
35.20000 3.079
35.22000 4.675
35.24000 4.181
35.26000 4.930
35.28000 6.206
35.30000 5.328
35.32000 3.352
35.34000 1.052
35.36000 2.331
35.38000 -2.553
35.40000 2.491
35.42000 4.569
35.44000 2.072
35.46000 2.081
35.48000 0.117
35.50000 1.011
35.52000 5.744
35.54000 10.415
35.56000 8.943
35.58000 5.309
35.60000 6.469
35.62000 6.571
35.64000 3.547
35.66000 4.425
35.68000 6.008
35.70000 2.359
35.72000 7.105
35.74000 5.795
35.76000 5.884
35.78000 5.514
35.80000 7.789
35.82000 6.397
35.84000 7.113
35.86000 7.991
35.88000 7.958
35.90000 6.907
35.92000 0.397
35.94000 1.720
35.96000 1.556
35.98000 5.956
36.00000 1.764
36.02000 0.017
36.04000 4.611
36.06000 7.332
36.08000 8.437
36.10000 8.261
36.12000 6.667
36.14000 0.905
36.16000 0.762
36.18000 -3.526
36.20000 2.568
36.22000 12.026
36.24000 9.524
36.26000 8.996
36.28000 6.491
36.30000 3.818
36.32000 3.563
36.34000 2.659
36.36000 4.114
36.38000 3.765
36.40000 1.489
36.42000 4.710
36.44000 3.102
36.46000 2.406
36.48000 2.533
36.50000 1.646
36.52000 4.191
36.54000 2.294
36.56000 -2.012
36.58000 1.695
36.60000 7.453
36.62000 3.382
36.64000 0.837
36.66000 0.362
36.68000 0.106
36.70000 3.560
36.72000 5.317
36.74000 0.833
36.76000 0.357
36.78000 0.756
36.80000 0.817
36.82000 0.797
36.84000 2.568
36.86000 1.812
36.88000 0.422
36.90000 2.024
36.92000 3.149
36.94000 2.906
36.96000 -1.730
36.98000 -1.431
37.00000 -1.106
37.02000 -3.581
37.04000 2.321
37.06000 1.032
37.08000 0.196
37.10000 0.646
37.12000 1.131
37.14000 3.198
37.16000 2.573
37.18000 3.034
37.20000 -1.423
37.22000 0.476
37.24000 2.217
37.26000 5.740
37.28000 -1.154
37.30000 1.441
37.32000 -1.045
37.34000 -3.648
37.36000 -1.775
37.38000 0.322
37.40000 0.531
37.42000 -0.915
37.44000 4.876
37.46000 5.143
37.48000 5.380
37.50000 -0.368
37.52000 0.908
37.54000 1.968
37.56000 -1.774
37.58000 0.987
37.60000 7.622
37.62000 3.672
37.64000 1.682
37.66000 1.590
37.68000 -0.018
37.70000 4.556
37.72000 2.629
37.74000 6.596
37.76000 4.538
37.78000 1.027
37.80000 5.744
37.82000 1.596
37.84000 5.267
37.86000 9.975
37.88000 9.337
37.90000 8.260
37.92000 15.334
37.94000 11.182
37.96000 7.912
37.98000 11.205
38.00000 10.851
38.02000 10.110
38.04000 13.968
38.06000 10.700
38.08000 10.663
38.10000 8.850
38.12000 10.001
38.14000 14.569
38.16000 15.786
38.18000 13.958
38.20000 16.200
38.22000 14.525
38.24000 12.903
38.26000 18.902
38.28000 20.587
38.30000 15.438
38.32000 13.777
38.34000 17.571
38.36000 22.340
38.38000 18.290
38.40000 17.078
38.42000 20.830
38.44000 22.170
38.46000 23.086
38.48000 20.961
38.50000 22.414
38.52000 21.184
38.54000 28.598
38.56000 27.684
38.58000 27.160
38.60000 24.623
38.62000 28.198
38.64000 30.773
38.66000 30.268
38.68000 35.431
38.70000 36.641
38.72000 39.605
38.74000 37.955
38.76000 37.263
38.78000 42.363
38.80000 47.642
38.82000 46.187
38.84000 47.753
38.86000 44.674
38.88000 43.462
38.90000 47.823
38.92000 53.611
38.94000 52.981
38.96000 53.936
38.98000 58.674
39.00000 64.684
39.02000 66.785
39.04000 70.362
39.06000 70.083
39.08000 76.045
39.10000 79.378
39.12000 80.431
39.14000 80.017
39.16000 86.768
39.18000 84.446
39.20000 89.117
39.22000 89.749
39.24000 103.062
39.26000 105.726
39.28000 108.113
39.30000 109.563
39.32000 116.616
39.34000 126.591
39.36000 131.458
39.38000 139.122
39.40000 141.212
39.42000 144.510
39.44000 158.917
39.46000 166.599
39.48000 179.399
39.50000 189.899
39.52000 191.857
39.54000 203.384
39.56000 218.083
39.58000 225.570
39.60000 238.107
39.62000 246.947
39.64000 257.448
39.66000 272.101
39.68000 283.469
39.70000 300.349
39.72000 315.843
39.74000 330.982
39.76000 339.891
39.78000 352.533
39.80000 372.813
39.82000 390.735
39.84000 400.807
39.86000 418.369
39.88000 437.408
39.90000 455.013
39.92000 471.735
39.94000 482.476
39.96000 495.432
39.98000 512.637
40.00000 528.415
40.02000 543.537
40.04000 560.021
40.06000 565.209
40.08000 573.185
40.10000 581.922
40.12000 585.572
40.14000 587.039
40.16000 575.055
40.18000 574.280
40.20000 568.834
40.22000 575.483
40.24000 577.908
40.26000 565.832
40.28000 548.265
40.30000 540.255
40.32000 535.351
40.34000 515.245
40.36000 499.471
40.38000 504.649
40.40000 481.366
40.42000 459.086
40.44000 451.723
40.46000 429.226
40.48000 412.349
40.50000 390.685
40.52000 374.576
40.54000 359.989
40.56000 352.469
40.58000 338.654
40.60000 321.307
40.62000 304.226
40.64000 287.934
40.66000 271.042
40.68000 256.559
40.70000 242.825
40.72000 223.897
40.74000 222.295
40.76000 211.273
40.78000 199.550
40.80000 183.203
40.82000 169.322
40.84000 168.636
40.86000 164.425
40.88000 150.684
40.90000 140.088
40.92000 137.441
40.94000 131.449
40.96000 121.916
40.98000 107.254
41.00000 102.748
41.02000 100.930
41.04000 98.769
41.06000 92.944
41.08000 87.520
41.10000 83.865
41.12000 81.201
41.14000 74.202
41.16000 69.889
41.18000 64.780
41.20000 59.813
41.22000 58.250
41.24000 53.149
41.26000 51.033
41.28000 45.181
41.30000 46.610
41.32000 45.283
41.34000 42.540
41.36000 41.528
41.38000 36.390
41.40000 29.986
41.42000 36.827
41.44000 31.778
41.46000 30.031
41.48000 31.392
41.50000 29.788
41.52000 27.656
41.54000 24.884
41.56000 24.023
41.58000 26.595
41.60000 20.519
41.62000 21.837
41.64000 19.103
41.66000 14.887
41.68000 10.751
41.70000 16.250
41.72000 15.482
41.74000 13.802
41.76000 14.090
41.78000 15.257
41.80000 15.645
41.82000 14.004
41.84000 8.006
41.86000 10.285
41.88000 12.300
41.90000 8.275
41.92000 7.979
41.94000 8.908
41.96000 5.208
41.98000 3.141
42.00000 3.934
42.02000 2.525
42.04000 3.953
42.06000 9.544
42.08000 11.541
42.10000 10.678
42.12000 13.069
42.14000 9.389
42.16000 2.751
42.18000 5.131
42.20000 2.631
42.22000 0.594
42.24000 3.462
42.26000 2.767
42.28000 3.536
42.30000 7.342
42.32000 5.132
42.34000 4.048
42.36000 2.619
42.38000 5.548
42.40000 5.809
42.42000 3.526
42.44000 0.875
42.46000 0.875
42.48000 0.040
42.50000 1.696
42.52000 6.672
42.54000 2.337
42.56000 -1.344
42.58000 -0.084
42.60000 -1.092
42.62000 -3.513
42.64000 0.590
42.66000 2.477
42.68000 2.753
42.70000 2.174
42.72000 -1.415
42.74000 0.285
42.76000 6.838
42.78000 4.569
42.80000 1.672
42.82000 3.395
42.84000 1.598
42.86000 4.489
42.88000 5.758
42.90000 -1.513
42.92000 -0.617
42.94000 2.605
42.96000 4.226
42.98000 4.387
43.00000 3.337
43.02000 -1.975
43.04000 1.691
43.06000 1.186
43.08000 3.097
43.10000 2.574
43.12000 -3.439
43.14000 0.793
43.16000 1.509
43.18000 -1.564
43.20000 -1.713
43.22000 -0.938
43.24000 -1.533
43.26000 4.545
43.28000 2.026
43.30000 -0.358
43.32000 -1.818
43.34000 -0.360
43.36000 2.892
43.38000 2.324
43.40000 -0.817
43.42000 -1.089
43.44000 1.158
43.46000 -1.244
43.48000 -0.064
43.50000 2.563
43.52000 2.705
43.54000 0.775
43.56000 -3.262
43.58000 2.898
43.60000 2.376
43.62000 0.921
43.64000 -1.560
43.66000 -2.162
43.68000 1.456
43.70000 1.993
43.72000 -2.158
43.74000 -3.327
43.76000 0.021
43.78000 -0.940
43.80000 -3.058
43.82000 -3.403
43.84000 -1.576
43.86000 -1.633
43.88000 0.239
43.90000 1.451
43.92000 2.090
43.94000 1.684
43.96000 1.279
43.98000 2.825
44.00000 -0.167
44.02000 -3.399
44.04000 0.479
44.06000 -0.199
44.08000 -1.634
44.10000 1.164
44.12000 -1.022
44.14000 -1.987
44.16000 -3.328
44.18000 -0.603
44.20000 0.037
44.22000 1.533
44.24000 0.648
44.26000 -3.289
44.28000 2.146
44.30000 3.527
44.32000 -0.940
44.34000 -1.513
44.36000 -0.406
44.38000 -0.013
44.40000 -0.056
44.42000 1.146
44.44000 2.316
44.46000 1.558
44.48000 2.627
44.50000 0.193
44.52000 1.747
44.54000 3.631
44.56000 3.253
44.58000 -3.384
44.60000 2.563
44.62000 -1.641
44.64000 1.154
44.66000 7.190
44.68000 5.177
44.70000 5.992
44.72000 0.341
44.74000 2.039
44.76000 2.142
44.78000 5.107
44.80000 1.962
44.82000 2.194
44.84000 4.151
44.86000 5.340
44.88000 9.003
44.90000 9.084
44.92000 3.993
44.94000 4.660
44.96000 6.381
44.98000 4.780
45.00000 5.208
45.02000 5.735
45.04000 6.221
45.06000 9.414
45.08000 6.883
45.10000 8.485
45.12000 4.417
45.14000 9.446
45.16000 12.135
45.18000 10.780
45.20000 12.548
45.22000 7.583
45.24000 6.202
45.26000 11.258
45.28000 10.536
45.30000 9.737
45.32000 11.274
45.34000 11.891
45.36000 13.927
45.38000 9.066
45.40000 9.172
45.42000 13.186
45.44000 16.133
45.46000 20.357
45.48000 16.399
45.50000 13.758
45.52000 12.405
45.54000 18.855
45.56000 20.157
45.58000 16.819
45.60000 15.125
45.62000 18.501
45.64000 21.827
45.66000 21.764
45.68000 20.249
45.70000 22.571
45.72000 23.741
45.74000 22.669
45.76000 25.473
45.78000 26.594
45.80000 32.668
45.82000 32.091
45.84000 35.572
45.86000 35.278
45.88000 37.556
45.90000 34.054
45.92000 33.869
45.94000 34.462
45.96000 40.738
45.98000 36.316
46.00000 37.309
46.02000 37.955
46.04000 42.623
46.06000 44.847
46.08000 47.287
46.10000 53.424
46.12000 54.073
46.14000 57.204
46.16000 59.653
46.18000 56.999
46.20000 61.584
46.22000 58.872
46.24000 62.889
46.26000 67.961
46.28000 66.885
46.30000 66.711
46.32000 65.053
46.34000 66.166
46.36000 69.167
46.38000 68.073
46.40000 67.899
46.42000 67.965
46.44000 69.719
46.46000 72.399
46.48000 76.548
46.50000 81.209
46.52000 84.222
46.54000 84.363
46.56000 90.926
46.58000 85.552
46.60000 85.994
46.62000 87.647
46.64000 84.447
46.66000 86.695
46.68000 95.802
46.70000 94.738
46.72000 92.625
46.74000 88.003
46.76000 86.171
46.78000 90.084
46.80000 93.665
46.82000 94.193
46.84000 97.033
46.86000 94.098
46.88000 95.696
46.90000 94.132
46.92000 92.002
46.94000 93.981
46.96000 93.916
46.98000 91.420
47.00000 88.353
47.02000 83.198
47.04000 83.202
47.06000 80.959
47.08000 79.575
47.10000 82.503
47.12000 81.086
47.14000 72.091
47.16000 76.866
47.18000 71.671
47.20000 72.247
47.22000 73.021
47.24000 69.358
47.26000 69.652
47.28000 70.743
47.30000 68.338
47.32000 61.781
47.34000 60.840
47.36000 58.366
47.38000 57.669
47.40000 52.030
47.42000 54.745
47.44000 49.382
47.46000 51.302
47.48000 45.082
47.50000 41.298
47.52000 46.149
47.54000 42.609
47.56000 44.938
47.58000 39.652
47.60000 38.825
47.62000 40.257
47.64000 38.093
47.66000 34.227
47.68000 31.245
47.70000 33.216
47.72000 28.468
47.74000 32.330
47.76000 26.816
47.78000 23.808
47.80000 19.134
47.82000 20.789
47.84000 20.428
47.86000 20.160
47.88000 18.174
47.90000 11.725
47.92000 12.648
47.94000 17.366
47.96000 19.397
47.98000 11.985
48.00000 13.629
48.02000 8.539
48.04000 9.336
48.06000 11.034
48.08000 12.117
48.10000 13.177
48.12000 7.622
48.14000 10.122
48.16000 8.098
48.18000 5.197
48.20000 5.876
48.22000 6.690
48.24000 5.880
48.26000 3.184
48.28000 5.480
48.30000 3.606
48.32000 6.602
48.34000 6.872
48.36000 2.496
48.38000 0.611
48.40000 1.151
48.42000 0.753
48.44000 2.142
48.46000 2.133
48.48000 4.026
48.50000 3.155
48.52000 2.461
48.54000 -1.766
48.56000 -3.043
48.58000 1.804
48.60000 12.660
48.62000 9.764
48.64000 5.536
48.66000 7.450
48.68000 5.391
48.70000 8.093
48.72000 3.484
48.74000 3.254
48.76000 2.411
48.78000 1.951
48.80000 -2.997
48.82000 1.780
48.84000 1.663
48.86000 2.909
48.88000 1.600
48.90000 -0.864
48.92000 -1.023
48.94000 -2.160
48.96000 1.320
48.98000 -0.014
49.00000 0.602
49.02000 2.749
49.04000 8.482
49.06000 7.344
49.08000 1.883
49.10000 -0.875
49.12000 -0.143
49.14000 5.381
49.16000 2.347
49.18000 -2.936
49.20000 -2.900
49.22000 2.525
49.24000 1.958
49.26000 3.848
49.28000 -0.801
49.30000 1.650
49.32000 5.244
49.34000 2.262
49.36000 1.553
49.38000 3.092
49.40000 1.439
49.42000 2.663
49.44000 2.268
49.46000 5.894
49.48000 3.847
49.50000 4.249
49.52000 5.325
49.54000 2.674
49.56000 3.362
49.58000 7.888
49.60000 4.095
49.62000 0.530
49.64000 3.606
49.66000 3.070
49.68000 0.121
49.70000 -1.099
49.72000 4.432
49.74000 1.629
49.76000 0.842
49.78000 0.620
49.80000 -0.899
49.82000 1.561
49.84000 4.383
49.86000 4.137
49.88000 1.369
49.90000 1.290
49.92000 1.453
49.94000 1.325
49.96000 5.727
49.98000 0.270
50.00000 0.625
50.02000 -0.353
50.04000 -0.990
50.06000 -0.191
50.08000 -1.651
50.10000 -2.843
50.12000 -1.170
50.14000 4.490
50.16000 0.846
50.18000 1.684
50.20000 4.593
50.22000 3.951
50.24000 2.027
50.26000 -1.203
50.28000 -1.088
50.30000 1.466
50.32000 0.486
50.34000 -0.054
50.36000 2.114
50.38000 0.546
50.40000 -0.087
50.42000 2.291
50.44000 5.650
50.46000 7.947
50.48000 5.348
50.50000 5.784
50.52000 2.597
50.54000 5.213
50.56000 2.396
50.58000 -1.575
50.60000 -0.115
50.62000 -1.596
50.64000 1.913
50.66000 6.285
50.68000 5.979
50.70000 -1.302
50.72000 -1.911
50.74000 -1.723
50.76000 4.290
50.78000 6.106
50.80000 6.124
50.82000 1.416
50.84000 2.184
50.86000 0.915
50.88000 -1.311
50.90000 2.654
50.92000 1.283
50.94000 -1.227
50.96000 -0.951
50.98000 3.537
51.00000 1.967
51.02000 3.862
51.04000 4.737
51.06000 0.229
51.08000 1.223
51.10000 2.626
51.12000 2.295
51.14000 0.857
51.16000 2.735
51.18000 1.421
51.20000 1.155
51.22000 1.443
51.24000 1.866
51.26000 2.024
51.28000 -2.527
51.30000 -2.786
51.32000 3.530
51.34000 4.030
51.36000 2.540
51.38000 -0.347
51.40000 3.150
51.42000 4.828
51.44000 6.935
51.46000 6.135
51.48000 5.214
51.50000 0.642
51.52000 -1.321
51.54000 -0.015
51.56000 1.862
51.58000 0.447
51.60000 0.476
51.62000 4.872
51.64000 4.378
51.66000 5.481
51.68000 5.285
51.70000 4.576
51.72000 1.464
51.74000 2.698
51.76000 2.797
51.78000 1.899
51.80000 4.230
51.82000 3.532
51.84000 2.791
51.86000 3.079
51.88000 2.251
51.90000 3.798
51.92000 5.801
51.94000 5.262
51.96000 -0.543
51.98000 -1.396
52.00000 2.707
52.02000 5.037
52.04000 -2.752
52.06000 -0.752
52.08000 2.064
52.10000 5.595
52.12000 2.244
52.14000 2.694
52.16000 3.189
52.18000 3.118
52.20000 3.029
52.22000 5.668
52.24000 6.286
52.26000 4.773
52.28000 1.819
52.30000 3.744
52.32000 4.009
52.34000 3.881
52.36000 5.583
52.38000 5.091
52.40000 3.438
52.42000 1.245
52.44000 -1.135
52.46000 -2.173
52.48000 1.811
52.50000 -1.439
52.52000 -0.848
52.54000 -0.751
52.56000 0.099
52.58000 2.989
52.60000 3.133
52.62000 1.407
52.64000 1.649
52.66000 1.049
52.68000 3.405
52.70000 6.327
52.72000 2.765
52.74000 -0.542
52.76000 3.728
52.78000 1.653
52.80000 -0.064
52.82000 0.488
52.84000 1.469
52.86000 4.931
52.88000 2.388
52.90000 3.361
52.92000 3.226
52.94000 7.738
52.96000 8.473
52.98000 3.827
53.00000 -1.667
53.02000 -2.715
53.04000 -0.298
53.06000 2.852
53.08000 0.151
53.10000 1.418
53.12000 -1.186
53.14000 0.073
53.16000 3.568
53.18000 4.255
53.20000 4.548
53.22000 1.790
53.24000 1.331
53.26000 0.060
53.28000 3.115
53.30000 5.551
53.32000 1.404
53.34000 3.742
53.36000 -0.357
53.38000 -1.726
53.40000 1.085
53.42000 3.841
53.44000 4.634
53.46000 4.426
53.48000 4.277
53.50000 -2.715
53.52000 3.207
53.54000 7.543
53.56000 1.327
53.58000 1.738
53.60000 -0.876
53.62000 -2.355
53.64000 -1.876
53.66000 2.050
53.68000 2.457
53.70000 1.724
53.72000 2.504
53.74000 -1.606
53.76000 -0.529
53.78000 2.672
53.80000 2.903
53.82000 -0.671
53.84000 -2.212
53.86000 -1.085
53.88000 -1.030
53.90000 2.490
53.92000 0.030
53.94000 -2.368
53.96000 -0.016
53.98000 3.581
54.00000 7.065
54.02000 4.600
54.04000 1.192
54.06000 -0.497
54.08000 4.156
54.10000 4.576
54.12000 0.871
54.14000 -0.663
54.16000 0.236
54.18000 -0.219
54.20000 2.691
54.22000 3.553
54.24000 5.189
54.26000 1.466
54.28000 3.075
54.30000 -0.159
54.32000 0.514
54.34000 1.250
54.36000 4.512
54.38000 5.335
54.40000 1.584
54.42000 0.522
54.44000 3.926
54.46000 4.110
54.48000 0.274
54.50000 1.011
54.52000 -0.679
54.54000 -1.798
54.56000 0.275
54.58000 2.309
54.60000 4.369
54.62000 1.763
54.64000 1.204
54.66000 -0.145
54.68000 -0.114
54.70000 -0.754
54.72000 3.619
54.74000 2.733
54.76000 -2.668
54.78000 -0.978
54.80000 4.453
54.82000 6.235
54.84000 4.199
54.86000 3.586
54.88000 6.667
54.90000 4.871
54.92000 1.833
54.94000 2.567
54.96000 4.022
54.98000 2.280
55.00000 0.617
55.02000 2.613
55.04000 2.057
55.06000 3.611
55.08000 2.647
55.10000 3.781
55.12000 3.392
55.14000 3.612
55.16000 5.630
55.18000 2.445
55.20000 2.870
55.22000 3.742
55.24000 3.513
55.26000 3.887
55.28000 4.614
55.30000 4.863
55.32000 5.481
55.34000 6.023
55.36000 1.434
55.38000 0.646
55.40000 6.299
55.42000 7.103
55.44000 7.436
55.46000 6.540
55.48000 3.128
55.50000 2.597
55.52000 3.995
55.54000 2.262
55.56000 0.019
55.58000 -2.642
55.60000 0.852
55.62000 3.700
55.64000 5.650
55.66000 3.924
55.68000 4.242
55.70000 4.945
55.72000 7.585
55.74000 5.350
55.76000 6.249
55.78000 8.824
55.80000 5.401
55.82000 4.046
55.84000 1.315
55.86000 -0.951
55.88000 2.437
55.90000 0.065
55.92000 -1.390
55.94000 3.743
55.96000 3.005
55.98000 3.870
56.00000 1.764
56.02000 2.873
56.04000 2.350
56.06000 2.488
56.08000 -2.647
56.10000 -0.784
56.12000 -2.189
56.14000 0.452
56.16000 0.231
56.18000 3.398
56.20000 2.868
56.22000 2.507
56.24000 0.826
56.26000 -0.390
56.28000 2.732
56.30000 2.117
56.32000 4.258
56.34000 3.965
56.36000 1.983
56.38000 -0.215
56.40000 3.189
56.42000 3.628
56.44000 5.305
56.46000 2.470
56.48000 2.634
56.50000 -1.069
56.52000 -2.210
56.54000 -1.452
56.56000 -1.248
56.58000 0.062
56.60000 1.262
56.62000 2.743
56.64000 0.181
56.66000 0.204
56.68000 0.081
56.70000 -0.297
56.72000 1.971
56.74000 1.552
56.76000 1.358
56.78000 2.507
56.80000 6.800
56.82000 6.009
56.84000 1.016
56.86000 3.496
56.88000 0.528
56.90000 3.248
56.92000 3.383
56.94000 1.293
56.96000 0.651
56.98000 -0.624
57.00000 -1.125
57.02000 0.460
57.04000 3.800
57.06000 1.816
57.08000 2.247
57.10000 5.137
57.12000 2.808
57.14000 0.678
57.16000 1.656
57.18000 -1.645
57.20000 0.919
57.22000 3.220
57.24000 4.889
57.26000 3.666
57.28000 -0.671
57.30000 0.240
57.32000 1.177
57.34000 0.659
57.36000 -2.611
57.38000 0.826
57.40000 1.108
57.42000 1.069
57.44000 2.400
57.46000 4.523
57.48000 2.260
57.50000 3.425
57.52000 2.201
57.54000 2.095
57.56000 -2.088
57.58000 1.200
57.60000 2.002
57.62000 -1.024
57.64000 -0.852
57.66000 2.846
57.68000 2.438
57.70000 2.527
57.72000 1.329
57.74000 -1.324
57.76000 4.692
57.78000 6.612
57.80000 3.404
57.82000 5.150
57.84000 5.360
57.86000 3.108
57.88000 2.383
57.90000 1.024
57.92000 4.199
57.94000 0.927
57.96000 -1.071
57.98000 1.131
58.00000 -0.518
58.02000 -0.465
58.04000 0.671
58.06000 3.045
58.08000 4.581
58.10000 3.240
58.12000 3.705
58.14000 6.191
58.16000 5.902
58.18000 2.312
58.20000 -1.705
58.22000 1.957
58.24000 2.884
58.26000 3.936
58.28000 3.967
58.30000 3.792
58.32000 1.960
58.34000 4.637
58.36000 6.356
58.38000 3.985
58.40000 2.255
58.42000 0.909
58.44000 0.698
58.46000 4.391
58.48000 6.355
58.50000 5.351
58.52000 6.271
58.54000 3.861
58.56000 2.842
58.58000 -1.473
58.60000 2.084
58.62000 -0.036
58.64000 5.129
58.66000 6.120
58.68000 7.436
58.70000 9.525
58.72000 8.911
58.74000 11.446
58.76000 9.979
58.78000 9.035
58.80000 0.601
58.82000 -2.496
58.84000 4.260
58.86000 6.592
58.88000 8.411
58.90000 9.143
58.92000 3.066
58.94000 1.788
58.96000 3.507
58.98000 10.179
59.00000 7.865
59.02000 3.387
59.04000 2.202
59.06000 2.978
59.08000 2.091
59.10000 3.026
59.12000 4.094
59.14000 5.232
59.16000 2.161
59.18000 3.432
59.20000 0.389
59.22000 2.971
59.24000 3.892
59.26000 2.434
59.28000 3.331
59.30000 2.808
59.32000 0.455
59.34000 1.379
59.36000 1.566
59.38000 3.315
59.40000 -0.203
59.42000 0.831
59.44000 0.479
59.46000 2.661
59.48000 -1.003
59.50000 1.853
59.52000 0.882
59.54000 -1.829
59.56000 2.326
59.58000 1.254
59.60000 -0.925
59.62000 0.141
59.64000 1.983
59.66000 1.526
59.68000 5.400
59.70000 4.020
59.72000 0.273
59.74000 2.692
59.76000 0.699
59.78000 0.621
59.80000 0.180
59.82000 0.632
59.84000 4.936
59.86000 9.175
59.88000 5.589
59.90000 5.139
59.92000 3.852
59.94000 1.350
59.96000 7.123
59.98000 2.489
60.00000 3.060
60.02000 4.165
60.04000 4.103
60.06000 2.752
60.08000 1.862
60.10000 0.557
60.12000 1.328
60.14000 3.933
60.16000 -1.767
60.18000 1.022
60.20000 4.537
60.22000 4.185
60.24000 6.104
60.26000 -0.557
60.28000 0.225
60.30000 1.417
60.32000 1.691
60.34000 3.227
60.36000 2.345
60.38000 1.166
60.40000 0.242
60.42000 0.710
60.44000 3.208
60.46000 5.022
60.48000 3.066
60.50000 3.683
60.52000 0.714
60.54000 4.229
60.56000 3.181
60.58000 3.572
60.60000 3.610
60.62000 2.749
60.64000 -0.123
60.66000 0.008
60.68000 -1.462
60.70000 -0.382
60.72000 1.598
60.74000 1.644
60.76000 -1.702
60.78000 -1.185
60.80000 4.519
60.82000 0.461
60.84000 1.094
60.86000 3.611
60.88000 0.989
60.90000 1.703
60.92000 1.074
60.94000 4.298
60.96000 4.256
60.98000 4.601
61.00000 1.319
61.02000 -1.478
61.04000 -1.692
61.06000 -2.433
61.08000 -2.474
61.10000 1.697
61.12000 2.697
61.14000 3.567
61.16000 4.310
61.18000 4.423
61.20000 0.860
61.22000 -1.339
61.24000 1.973
61.26000 1.828
61.28000 2.880
61.30000 0.440
61.32000 4.131
61.34000 6.183
61.36000 1.995
61.38000 -0.736
61.40000 -1.752
61.42000 1.130
61.44000 4.665
61.46000 3.409
61.48000 0.665
61.50000 4.270
61.52000 0.028
61.54000 2.102
61.56000 2.358
61.58000 1.802
61.60000 3.106
61.62000 5.063
61.64000 2.178
61.66000 2.182
61.68000 -0.124
61.70000 1.907
61.72000 -0.247
61.74000 -1.238
61.76000 2.892
61.78000 2.646
61.80000 2.287
61.82000 0.549
61.84000 -1.083
61.86000 0.776
61.88000 -0.936
61.90000 2.118
61.92000 2.398
61.94000 0.893
61.96000 -1.311
61.98000 -0.532
62.00000 3.584
62.02000 6.003
62.04000 3.366
62.06000 3.868
62.08000 3.368
62.10000 3.397
62.12000 2.827
62.14000 2.093
62.16000 -0.594
62.18000 -0.335
62.20000 0.001
62.22000 3.495
62.24000 2.431
62.26000 -0.977
62.28000 0.591
62.30000 2.851
62.32000 1.894
62.34000 3.734
62.36000 2.148
62.38000 -0.574
62.40000 1.723
62.42000 1.328
62.44000 1.259
62.46000 4.729
62.48000 3.643
62.50000 1.043
62.52000 -0.898
62.54000 -2.447
62.56000 0.064
62.58000 4.302
62.60000 8.553
62.62000 2.547
62.64000 1.727
62.66000 4.427
62.68000 2.763
62.70000 2.293
62.72000 3.406
62.74000 1.860
62.76000 4.414
62.78000 6.561
62.80000 7.531
62.82000 5.641
62.84000 2.352
62.86000 3.676
62.88000 3.452
62.90000 -0.168
62.92000 -2.444
62.94000 0.214
62.96000 2.521
62.98000 2.474
63.00000 4.622
63.02000 4.220
63.04000 -0.536
63.06000 3.211
63.08000 5.445
63.10000 -1.479
63.12000 3.738
63.14000 1.211
63.16000 0.369
63.18000 3.124
63.20000 4.576
63.22000 4.034
63.24000 1.878
63.26000 0.005
63.28000 -0.002
63.30000 2.607
63.32000 1.335
63.34000 -2.106
63.36000 0.262
63.38000 1.426
63.40000 1.878
63.42000 1.849
63.44000 -0.369
63.46000 -0.544
63.48000 1.354
63.50000 3.413
63.52000 0.436
63.54000 1.096
63.56000 2.496
63.58000 3.383
63.60000 1.955
63.62000 1.008
63.64000 -0.833
63.66000 -0.255
63.68000 1.216
63.70000 -0.233
63.72000 5.536
63.74000 6.635
63.76000 2.140
63.78000 -0.786
63.80000 1.968
63.82000 1.231
63.84000 -0.867
63.86000 0.016
63.88000 -1.515
63.90000 -0.909
63.92000 2.709
63.94000 0.110
63.96000 -0.814
63.98000 0.243
64.00000 8.550
64.02000 6.524
64.04000 -2.289
64.06000 -0.103
64.08000 7.467
64.10000 4.276
64.12000 2.834
64.14000 5.525
64.16000 4.992
64.18000 1.784
64.20000 4.991
64.22000 2.373
64.24000 1.037
64.26000 -1.310
64.28000 0.115
64.30000 -2.300
64.32000 -2.466
64.34000 1.000
64.36000 4.956
64.38000 2.255
64.40000 0.168
64.42000 0.595
64.44000 0.700
64.46000 2.054
64.48000 2.689
64.50000 1.306
64.52000 -0.809
64.54000 1.627
64.56000 0.963
64.58000 -1.605
64.60000 0.849
64.62000 2.398
64.64000 1.348
64.66000 -0.851
64.68000 -0.756
64.70000 -0.022
64.72000 -0.756
64.74000 2.332
64.76000 0.323
64.78000 0.286
64.80000 1.862
64.82000 3.684
64.84000 1.867
64.86000 1.534
64.88000 2.047
64.90000 2.877
64.92000 -0.662
64.94000 2.115
64.96000 1.036
64.98000 0.192
65.00000 2.504
65.02000 -1.509
65.04000 1.429
65.06000 5.160
65.08000 8.088
65.10000 6.200
65.12000 4.446
65.14000 1.823
65.16000 2.002
65.18000 5.351
65.20000 2.876
65.22000 2.556
65.24000 2.310
65.26000 2.810
65.28000 4.545
65.30000 1.997
65.32000 2.026
65.34000 -2.473
65.36000 -0.629
65.38000 -0.699
65.40000 2.178
65.42000 1.666
65.44000 3.511
65.46000 0.718
65.48000 2.832
65.50000 2.934
65.52000 1.484
65.54000 4.707
65.56000 6.851
65.58000 5.065
65.60000 2.578
65.62000 -1.469
65.64000 -1.288
65.66000 -1.278
65.68000 -0.204
65.70000 2.025
65.72000 4.470
65.74000 2.510
65.76000 3.325
65.78000 -0.326
65.80000 2.057
65.82000 2.343
65.84000 6.394
65.86000 4.398
65.88000 2.250
65.90000 -0.036
65.92000 -0.179
65.94000 -2.511
65.96000 -0.769
65.98000 -0.783
66.00000 -0.378
66.02000 1.626
66.04000 -2.391
66.06000 -2.266
66.08000 -1.069
66.10000 -1.500
66.12000 -0.786
66.14000 -1.596
66.16000 -0.274
66.18000 0.591
66.20000 -0.308
66.22000 -1.036
66.24000 -1.189
66.26000 0.505
66.28000 2.931
66.30000 2.578
66.32000 3.089
66.34000 1.056
66.36000 -0.894
66.38000 -0.390
66.40000 -0.912
66.42000 -2.555
66.44000 1.590
66.46000 1.418
66.48000 2.208
66.50000 0.349
66.52000 0.401
66.54000 -0.652
66.56000 -1.804
66.58000 1.141
66.60000 1.923
66.62000 2.360
66.64000 2.411
66.66000 3.218
66.68000 2.453
66.70000 2.028
66.72000 3.689
66.74000 1.595
66.76000 1.986
66.78000 -1.233
66.80000 -1.519
66.82000 2.056
66.84000 1.899
66.86000 -1.705
66.88000 -0.653
66.90000 2.300
66.92000 4.347
66.94000 3.646
66.96000 0.043
66.98000 2.846
67.00000 4.378
67.02000 3.045
67.04000 4.586
67.06000 3.957
67.08000 6.748
67.10000 7.419
67.12000 3.935
67.14000 3.874
67.16000 6.686
67.18000 5.439
67.20000 7.089
67.22000 3.659
67.24000 3.364
67.26000 5.012
67.28000 3.107
67.30000 4.334
67.32000 6.982
67.34000 10.140
67.36000 7.476
67.38000 5.137
67.40000 3.555
67.42000 4.608
67.44000 5.794
67.46000 3.721
67.48000 6.978
67.50000 6.461
67.52000 6.856
67.54000 5.658
67.56000 6.739
67.58000 9.195
67.60000 13.965
67.62000 9.759
67.64000 10.410
67.66000 11.095
67.68000 11.791
67.70000 17.377
67.72000 14.163
67.74000 15.858
67.76000 20.239
67.78000 18.424
67.80000 16.158
67.82000 13.363
67.84000 13.733
67.86000 16.366
67.88000 17.523
67.90000 14.512
67.92000 15.518
67.94000 17.181
67.96000 15.888
67.98000 13.904
68.00000 13.746
68.02000 17.436
68.04000 15.494
68.06000 16.072
68.08000 17.749
68.10000 20.164
68.12000 18.550
68.14000 17.873
68.16000 19.326
68.18000 20.904
68.20000 20.114
68.22000 19.070
68.24000 16.641
68.26000 18.290
68.28000 19.476
68.30000 21.203
68.32000 22.050
68.34000 24.475
68.36000 21.819
68.38000 17.633
68.40000 19.375
68.42000 20.203
68.44000 17.377
68.46000 15.342
68.48000 20.627
68.50000 21.298
68.52000 17.751
68.54000 19.312
68.56000 15.833
68.58000 16.017
68.60000 18.331
68.62000 24.729
68.64000 22.899
68.66000 21.369
68.68000 20.552
68.70000 20.126
68.72000 18.121
68.74000 17.051
68.76000 16.346
68.78000 16.170
68.80000 17.061
68.82000 13.979
68.84000 14.285
68.86000 13.072
68.88000 13.719
68.90000 12.054
68.92000 15.158
68.94000 13.426
68.96000 15.072
68.98000 14.391
69.00000 11.732
69.02000 9.590
69.04000 7.267
69.06000 11.000
69.08000 7.423
69.10000 5.997
69.12000 6.917
69.14000 5.276
69.16000 4.621
69.18000 3.578
69.20000 2.951
69.22000 5.760
69.24000 7.619
69.26000 4.894
69.28000 7.382
69.30000 6.181
69.32000 4.676
69.34000 3.835
69.36000 3.577
69.38000 3.227
69.40000 1.467
69.42000 1.242
69.44000 2.408
69.46000 6.823
69.48000 3.666
69.50000 1.704
69.52000 0.375
69.54000 0.231
69.56000 5.275
69.58000 2.979
69.60000 -0.550
69.62000 1.790
69.64000 2.553
69.66000 3.238
69.68000 3.090
69.70000 1.887
69.72000 0.132
69.74000 -2.463
69.76000 -2.481
69.78000 -0.950
69.80000 4.132
69.82000 4.472
69.84000 3.457
69.86000 2.679
69.88000 0.677
69.90000 1.276
69.92000 0.867
69.94000 0.594
69.96000 4.278
69.98000 2.131
70.00000 2.266
70.02000 0.484
70.04000 0.451
70.06000 -0.338
70.08000 -0.047
70.10000 -1.867
70.12000 -2.366
70.14000 3.969
70.16000 0.794
70.18000 4.282
70.20000 3.768
70.22000 0.808
70.24000 -0.208
70.26000 2.817
70.28000 3.466
70.30000 6.972
70.32000 5.821
70.34000 3.361
70.36000 1.022
70.38000 1.433
70.40000 4.502
70.42000 1.710
70.44000 5.709
70.46000 5.388
70.48000 2.531
70.50000 3.395
70.52000 2.103
70.54000 -2.383
70.56000 -0.715
70.58000 1.915
70.60000 -0.161
70.62000 3.310
70.64000 2.920
70.66000 5.395
70.68000 3.443
70.70000 0.182
70.72000 3.166
70.74000 3.695
70.76000 3.147
70.78000 4.944
70.80000 3.168
70.82000 4.060
70.84000 3.279
70.86000 5.462
70.88000 3.361
70.90000 5.952
70.92000 2.134
70.94000 0.557
70.96000 2.544
70.98000 3.073
71.00000 0.037
71.02000 4.855
71.04000 -1.991
71.06000 -1.338
71.08000 -0.959
71.10000 0.738
71.12000 -0.738
71.14000 -1.140
71.16000 1.228
71.18000 -0.175
71.20000 -1.306
71.22000 2.685
71.24000 4.332
71.26000 6.441
71.28000 3.676
71.30000 1.913
71.32000 4.249
71.34000 5.873
71.36000 2.521
71.38000 1.683
71.40000 2.776
71.42000 0.995
71.44000 -0.798
71.46000 -0.736
71.48000 -1.375
71.50000 1.746
71.52000 3.090
71.54000 0.607
71.56000 1.328
71.58000 4.269
71.60000 5.212
71.62000 1.834
71.64000 0.544
71.66000 1.671
71.68000 2.374
71.70000 2.805
71.72000 3.037
71.74000 3.235
71.76000 4.832
71.78000 -0.200
71.80000 1.598
71.82000 2.414
71.84000 3.880
71.86000 6.176
71.88000 3.458
71.90000 2.786
71.92000 5.156
71.94000 1.130
71.96000 1.257
71.98000 2.264
72.00000 0.113
72.02000 3.383
72.04000 7.254
72.06000 8.121
72.08000 6.032
72.10000 6.591
72.12000 5.921
72.14000 6.116
72.16000 5.081
72.18000 3.077
72.20000 2.328
72.22000 2.880
72.24000 1.086
72.26000 -1.233
72.28000 3.629
72.30000 5.005
72.32000 3.144
72.34000 5.190
72.36000 9.846
72.38000 5.755
72.40000 3.294
72.42000 6.344
72.44000 6.859
72.46000 8.624
72.48000 5.452
72.50000 2.129
72.52000 2.920
72.54000 1.564
72.56000 2.944
72.58000 1.222
72.60000 4.374
72.62000 5.806
72.64000 9.333
72.66000 6.061
72.68000 5.525
72.70000 6.513
72.72000 3.151
72.74000 1.580
72.76000 -2.225
72.78000 4.575
72.80000 3.147
72.82000 0.292
72.84000 5.775
72.86000 6.554
72.88000 4.165
72.90000 4.965
72.92000 8.799
72.94000 5.358
72.96000 4.805
72.98000 5.111
73.00000 3.927
73.02000 3.603
73.04000 6.213
73.06000 6.192
73.08000 7.241
73.10000 5.835
73.12000 5.448
73.14000 5.287
73.16000 10.599
73.18000 7.361
73.20000 3.742
73.22000 3.269
73.24000 3.007
73.26000 2.653
73.28000 6.154
73.30000 5.269
73.32000 1.899
73.34000 3.242
73.36000 2.705
73.38000 5.609
73.40000 6.275
73.42000 4.262
73.44000 4.083
73.46000 2.294
73.48000 3.006
73.50000 -0.550
73.52000 5.297
73.54000 6.798
73.56000 3.091
73.58000 3.744
73.60000 7.354
73.62000 6.189
73.64000 3.145
73.66000 1.973
73.68000 -2.212
73.70000 -0.236
73.72000 3.522
73.74000 3.960
73.76000 10.618
73.78000 8.732
73.80000 3.012
73.82000 0.055
73.84000 2.275
73.86000 6.367
73.88000 0.917
73.90000 1.343
73.92000 2.271
73.94000 3.731
73.96000 1.771
73.98000 7.913
74.00000 5.566
74.02000 4.879
74.04000 4.990
74.06000 1.595
74.08000 0.673
74.10000 -1.117
74.12000 -0.241
74.14000 -1.293
74.16000 0.173
74.18000 1.752
74.20000 0.849
74.22000 -0.006
74.24000 2.925
74.26000 1.195
74.28000 0.097
74.30000 3.607
74.32000 1.450
74.34000 -0.674
74.36000 2.837
74.38000 2.156
74.40000 -0.528
74.42000 3.322
74.44000 2.255
74.46000 5.184
74.48000 3.698
74.50000 4.241
74.52000 1.671
74.54000 1.701
74.56000 3.266
74.58000 0.916
74.60000 2.140
74.62000 1.824
74.64000 -2.282
74.66000 -2.287
74.68000 -1.029
74.70000 -1.919
74.72000 -1.201
74.74000 2.750
74.76000 2.669
74.78000 5.101
74.80000 4.032
74.82000 4.612
74.84000 1.902
74.86000 0.535
74.88000 -0.157
74.90000 4.624
74.92000 5.690
74.94000 -0.281
74.96000 -0.798
74.98000 1.439
75.00000 3.933
75.02000 2.350
75.04000 4.605
75.06000 4.030
75.08000 2.806
75.10000 4.163
75.12000 2.637
75.14000 3.004
75.16000 1.520
75.18000 -1.871
75.20000 1.242
75.22000 1.202
75.24000 5.160
75.26000 8.424
75.28000 7.605
75.30000 4.291
75.32000 0.496
75.34000 4.387
75.36000 5.002
75.38000 3.255
75.40000 3.885
75.42000 7.319
75.44000 4.777
75.46000 1.986
75.48000 1.171
75.50000 1.930
75.52000 4.168
75.54000 2.039
75.56000 3.585
75.58000 7.830
75.60000 6.132
75.62000 3.605
75.64000 1.413
75.66000 1.152
75.68000 2.299
75.70000 5.375
75.72000 5.928
75.74000 4.675
75.76000 2.857
75.78000 9.010
75.80000 7.666
75.82000 1.386
75.84000 -2.253
75.86000 -0.765
75.88000 -0.160
75.90000 3.430
75.92000 7.828
75.94000 6.061
75.96000 6.000
75.98000 3.152
76.00000 2.424
76.02000 6.169
76.04000 5.524
76.06000 7.893
76.08000 6.639
76.10000 2.778
76.12000 -0.107
76.14000 0.910
76.16000 0.966
76.18000 3.433
76.20000 4.523
76.22000 3.430
76.24000 9.236
76.26000 10.370
76.28000 4.595
76.30000 6.104
76.32000 8.652
76.34000 5.561
76.36000 4.750
76.38000 1.177
76.40000 3.330
76.42000 5.639
76.44000 4.992
76.46000 3.098
76.48000 4.010
76.50000 4.122
76.52000 3.346
76.54000 -0.477
76.56000 5.091
76.58000 3.838
76.60000 1.229
76.62000 5.771
76.64000 3.432
76.66000 5.738
76.68000 4.424
76.70000 0.351
76.72000 0.987
76.74000 1.575
76.76000 1.766
76.78000 3.304
76.80000 4.935
76.82000 6.912
76.84000 1.033
76.86000 -2.274
76.88000 -0.083
76.90000 6.593
76.92000 6.971
76.94000 6.800
76.96000 5.011
76.98000 4.951
77.00000 9.371
77.02000 7.909
77.04000 3.626
77.06000 5.401
77.08000 5.800
77.10000 4.723
77.12000 3.836
77.14000 5.907
77.16000 6.303
77.18000 5.643
77.20000 6.185
77.22000 4.239
77.24000 3.328
77.26000 2.174
77.28000 0.187
77.30000 3.660
77.32000 4.323
77.34000 6.341
77.36000 1.293
77.38000 2.660
77.40000 6.096
77.42000 3.356
77.44000 1.128
77.46000 4.530
77.48000 6.736
77.50000 3.827
77.52000 5.370
77.54000 3.959
77.56000 5.108
77.58000 1.333
77.60000 2.527
77.62000 -2.287
77.64000 -0.888
77.66000 4.602
77.68000 2.786
77.70000 4.880
77.72000 7.735
77.74000 6.720
77.76000 -0.409
77.78000 3.345
77.80000 4.367
77.82000 3.628
77.84000 3.473
77.86000 6.157
77.88000 4.113
77.90000 4.814
77.92000 4.692
77.94000 5.416
77.96000 8.984
77.98000 4.892
78.00000 3.624
78.02000 2.388
78.04000 -0.038
78.06000 1.639
78.08000 1.341
78.10000 -0.466
78.12000 0.152
78.14000 2.765
78.16000 5.178
78.18000 1.475
78.20000 2.653
78.22000 3.313
78.24000 1.452
78.26000 0.919
78.28000 2.117
78.30000 4.394
78.32000 3.836
78.34000 2.879
78.36000 3.289
78.38000 -1.270
78.40000 0.035
78.42000 0.632
78.44000 3.240
78.46000 3.406
78.48000 2.395
78.50000 0.760
78.52000 1.338
78.54000 0.866
78.56000 -1.724
78.58000 0.643
78.60000 0.341
78.62000 -0.895
78.64000 5.224
78.66000 3.832
78.68000 2.155
78.70000 2.204
78.72000 4.578
78.74000 3.916
78.76000 0.546
78.78000 -1.254
78.80000 0.617
78.82000 0.970
78.84000 1.593
78.86000 -2.186
78.88000 -1.553
78.90000 2.547
78.92000 4.854
78.94000 3.875
78.96000 3.149
78.98000 -2.356
79.00000 2.316
79.02000 6.421
79.04000 4.551
79.06000 1.162
79.08000 1.378
79.10000 1.108
79.12000 6.294
79.14000 0.574
79.16000 -0.044
79.18000 1.278
79.20000 0.420
79.22000 5.313
79.24000 2.346
79.26000 0.466
79.28000 -2.380
79.30000 -1.215
79.32000 3.391
79.34000 3.037
79.36000 7.236
79.38000 5.752
79.40000 3.380
79.42000 1.274
79.44000 2.733
79.46000 2.141
79.48000 0.511
79.50000 0.090
79.52000 6.104
79.54000 7.915
79.56000 4.782
79.58000 4.953
79.60000 -0.046
79.62000 0.182
79.64000 1.756
79.66000 2.667
79.68000 3.736
79.70000 3.536
79.72000 2.112
79.74000 3.919
79.76000 6.088
79.78000 4.286
79.80000 3.912
79.82000 2.737
79.84000 2.272
79.86000 3.943
79.88000 4.015
79.90000 -0.775
79.92000 -0.559
79.94000 0.257
79.96000 -1.662
79.98000 0.769
80.00000 -0.420
80.02000 0.366
80.04000 1.990
80.06000 2.984
80.08000 1.150
80.10000 3.579
80.12000 7.231
80.14000 4.035
80.16000 0.255
80.18000 5.677
80.20000 1.823
80.22000 -2.436
80.24000 0.066
80.26000 1.238
80.28000 3.554
80.30000 2.450
80.32000 2.649
80.34000 1.706
80.36000 -1.171
80.38000 -0.586
80.40000 2.453
80.42000 2.899
80.44000 4.760
80.46000 4.805
80.48000 7.306
80.50000 5.163
80.52000 6.889
80.54000 3.554
80.56000 4.425
80.58000 6.004
80.60000 3.899
80.62000 2.124
80.64000 1.308
80.66000 5.073
80.68000 8.345
80.70000 6.261
80.72000 6.236
80.74000 10.208
80.76000 2.223
80.78000 1.684
80.80000 7.250
80.82000 4.471
80.84000 4.073
80.86000 4.223
80.88000 4.240
80.90000 0.876
80.92000 0.688
80.94000 2.520
80.96000 4.353
80.98000 6.126
81.00000 2.299
81.02000 0.612
81.04000 7.391
81.06000 9.517
81.08000 7.508
81.10000 4.299
81.12000 6.041
81.14000 4.332
81.16000 10.114
81.18000 12.929
81.20000 11.605
81.22000 9.639
81.24000 2.883
81.26000 1.459
81.28000 6.955
81.30000 6.568
81.32000 5.837
81.34000 6.387
81.36000 14.085
81.38000 7.036
81.40000 10.473
81.42000 9.237
81.44000 7.657
81.46000 10.024
81.48000 12.659
81.50000 9.402
81.52000 10.988
81.54000 13.293
81.56000 12.342
81.58000 15.043
81.60000 11.900
81.62000 12.083
81.64000 14.299
81.66000 12.096
81.68000 15.785
81.70000 17.340
81.72000 17.181
81.74000 16.785
81.76000 14.363
81.78000 18.177
81.80000 19.467
81.82000 18.577
81.84000 14.503
81.86000 17.812
81.88000 21.832
81.90000 19.776
81.92000 20.964
81.94000 20.811
81.96000 25.654
81.98000 18.942
82.00000 17.429
82.02000 18.212
82.04000 19.625
82.06000 23.664
82.08000 17.452
82.10000 21.209
82.12000 26.600
82.14000 24.643
82.16000 26.063
82.18000 27.677
82.20000 29.411
82.22000 24.051
82.24000 25.377
82.26000 23.340
82.28000 23.345
82.30000 20.440
82.32000 28.058
82.34000 26.163
82.36000 27.186
82.38000 23.707
82.40000 34.204
82.42000 33.445
82.44000 28.977
82.46000 27.020
82.48000 29.430
82.50000 30.858
82.52000 31.274
82.54000 30.902
82.56000 28.208
82.58000 23.564
82.60000 22.520
82.62000 22.821
82.64000 27.713
82.66000 27.039
82.68000 25.643
82.70000 25.919
82.72000 25.830
82.74000 24.304
82.76000 27.139
82.78000 31.407
82.80000 27.067
82.82000 22.404
82.84000 24.919
82.86000 25.599
82.88000 20.155
82.90000 19.855
82.92000 19.703
82.94000 24.897
82.96000 25.797
82.98000 24.348
83.00000 20.405
83.02000 21.098
83.04000 20.715
83.06000 17.158
83.08000 21.046
83.10000 19.390
83.12000 12.305
83.14000 20.600
83.16000 21.921
83.18000 19.404
83.20000 20.046
83.22000 18.046
83.24000 15.845
83.26000 15.663
83.28000 15.581
83.30000 12.411
83.32000 14.375
83.34000 14.510
83.36000 18.842
83.38000 17.328
83.40000 9.877
83.42000 6.241
83.44000 7.122
83.46000 12.079
83.48000 15.441
83.50000 15.060
83.52000 11.733
83.54000 12.963
83.56000 4.625
83.58000 3.480
83.60000 4.755
83.62000 7.524
83.64000 8.926
83.66000 9.104
83.68000 7.396
83.70000 8.203
83.72000 6.497
83.74000 5.836
83.76000 8.430
83.78000 4.514
83.80000 3.447
83.82000 3.665
83.84000 8.131
83.86000 7.291
83.88000 1.301
83.90000 -0.125
83.92000 2.416
83.94000 4.895
83.96000 6.118
83.98000 5.506
84.00000 2.949
84.02000 3.844
84.04000 4.157
84.06000 -0.369
84.08000 0.905
84.10000 2.345
84.12000 0.915
84.14000 -0.295
84.16000 1.751
84.18000 -2.440
84.20000 0.656
84.22000 5.368
84.24000 3.510
84.26000 4.222
84.28000 1.938
84.30000 0.363
84.32000 4.965
84.34000 6.994
84.36000 7.328
84.38000 4.489
84.40000 2.966
84.42000 4.161
84.44000 4.202
84.46000 3.174
84.48000 2.470
84.50000 0.861
84.52000 5.897
84.54000 -2.268
84.56000 -1.078
84.58000 -2.434
84.60000 -0.989
84.62000 -0.121
84.64000 -0.328
84.66000 1.650
84.68000 4.292
84.70000 2.584
84.72000 0.941
84.74000 -1.560
84.76000 2.322
84.78000 3.339
84.80000 2.209
84.82000 2.884
84.84000 1.554
84.86000 -0.285
84.88000 1.314
84.90000 0.676
84.92000 0.503
84.94000 5.543
84.96000 1.052
84.98000 0.437
85.00000 0.843
85.02000 -0.470
85.04000 -2.415
85.06000 1.674
85.08000 1.636
85.10000 0.632
85.12000 1.999
85.14000 3.768
85.16000 3.823
85.18000 5.378
85.20000 2.303
85.22000 3.215
85.24000 0.459
85.26000 -2.422
85.28000 0.139
85.30000 -1.239
85.32000 -2.376
85.34000 -0.842
85.36000 -1.056
85.38000 4.534
85.40000 6.197
85.42000 -0.789
85.44000 -0.998
85.46000 1.546
85.48000 7.769
85.50000 3.622
85.52000 -0.319
85.54000 -2.385
85.56000 -0.366
85.58000 -0.201
85.60000 2.082
85.62000 5.763
85.64000 4.564
85.66000 1.292
85.68000 -0.996
85.70000 0.740
85.72000 0.966
85.74000 2.491
85.76000 8.696
85.78000 2.223
85.80000 2.415
85.82000 3.705
85.84000 1.673
85.86000 -1.911
85.88000 3.370
85.90000 7.030
85.92000 6.463
85.94000 6.331
85.96000 6.098
85.98000 5.217
86.00000 5.577
86.02000 6.711
86.04000 4.240
86.06000 3.969
86.08000 10.840
86.10000 9.215
86.12000 9.646
86.14000 9.442
86.16000 10.679
86.18000 9.183
86.20000 14.672
86.22000 14.374
86.24000 16.725
86.26000 12.749
86.28000 15.581
86.30000 14.173
86.32000 11.661
86.34000 14.182
86.36000 13.146
86.38000 9.257
86.40000 10.226
86.42000 14.832
86.44000 18.433
86.46000 15.838
86.48000 15.662
86.50000 16.787
86.52000 20.017
86.54000 18.883
86.56000 16.559
86.58000 17.412
86.60000 19.722
86.62000 19.921
86.64000 18.969
86.66000 17.035
86.68000 19.494
86.70000 18.095
86.72000 16.554
86.74000 20.287
86.76000 16.921
86.78000 14.867
86.80000 13.865
86.82000 15.943
86.84000 14.260
86.86000 15.624
86.88000 14.441
86.90000 14.636
86.92000 14.840
86.94000 21.166
86.96000 22.102
86.98000 22.815
87.00000 20.713
87.02000 18.997
87.04000 14.735
87.06000 17.781
87.08000 14.186
87.10000 14.049
87.12000 12.899
87.14000 16.326
87.16000 15.575
87.18000 15.869
87.20000 13.755
87.22000 14.154
87.24000 11.498
87.26000 11.973
87.28000 10.065
87.30000 15.435
87.32000 12.622
87.34000 10.058
87.36000 7.140
87.38000 8.065
87.40000 8.993
87.42000 7.715
87.44000 7.754
87.46000 8.630
87.48000 9.795
87.50000 11.083
87.52000 10.913
87.54000 8.089
87.56000 8.723
87.58000 7.926
87.60000 4.343
87.62000 2.125
87.64000 1.303
87.66000 5.375
87.68000 8.068
87.70000 9.337
87.72000 4.039
87.74000 4.103
87.76000 7.496
87.78000 6.245
87.80000 5.493
87.82000 6.233
87.84000 9.031
87.86000 4.055
87.88000 3.913
87.90000 2.558
87.92000 2.406
87.94000 0.628
87.96000 0.853
87.98000 1.342
88.00000 4.377
88.02000 3.094
88.04000 -1.439
88.06000 -0.870
88.08000 -0.040
88.10000 2.108
88.12000 3.425
88.14000 3.938
88.16000 4.637
88.18000 5.320
88.20000 4.458
88.22000 3.370
88.24000 -0.259
88.26000 4.032
88.28000 5.595
88.30000 7.423
88.32000 8.843
88.34000 4.755
88.36000 3.709
88.38000 3.035
88.40000 0.855
88.42000 1.463
88.44000 0.068
88.46000 0.761
88.48000 3.931
88.50000 6.304
88.52000 5.348
88.54000 7.251
88.56000 6.404
88.58000 1.251
88.60000 1.078
88.62000 4.898
88.64000 2.253
88.66000 -2.190
88.68000 0.118
88.70000 -1.951
88.72000 0.313
88.74000 2.092
88.76000 3.274
88.78000 4.286
88.80000 4.009
88.82000 4.916
88.84000 4.155
88.86000 -2.159
88.88000 3.203
88.90000 0.053
88.92000 4.985
88.94000 3.654
88.96000 6.003
88.98000 4.462
89.00000 3.510
89.02000 4.155
89.04000 4.687
89.06000 3.704
89.08000 3.457
89.10000 5.167
89.12000 2.057
89.14000 0.166
89.16000 1.721
89.18000 5.535
89.20000 6.360
89.22000 1.948
89.24000 3.511
89.26000 7.201
89.28000 5.683
89.30000 2.663
89.32000 4.243
89.34000 3.143
89.36000 4.408
89.38000 -0.379
89.40000 -2.154
89.42000 2.766
89.44000 6.374
89.46000 2.899
89.48000 5.640
89.50000 4.146
89.52000 2.317
89.54000 4.723
89.56000 3.787
89.58000 3.472
89.60000 3.435
89.62000 4.675
89.64000 2.026
89.66000 2.775
89.68000 2.578
89.70000 1.456
89.72000 -0.122
89.74000 1.817
89.76000 1.299
89.78000 4.140
89.80000 5.171
89.82000 2.116
89.84000 2.210
89.86000 4.965
89.88000 4.151
89.90000 0.173
89.92000 -1.475
89.94000 1.527
89.96000 0.507
89.98000 -1.755
90.00000 -0.424
90.02000 1.356
90.04000 -0.328
90.06000 -2.167
90.08000 1.001
90.10000 5.119
90.12000 4.836
90.14000 4.304
90.16000 5.278
90.18000 1.558
90.20000 1.524
90.22000 0.448
90.24000 2.954
90.26000 6.082
90.28000 7.289
90.30000 4.153
90.32000 1.184
90.34000 -0.771
90.36000 -1.170
90.38000 -0.367
90.40000 3.015
90.42000 8.451
90.44000 0.069
90.46000 3.522
90.48000 7.824
90.50000 4.454
90.52000 2.128
90.54000 3.701
90.56000 0.980
90.58000 -0.769
90.60000 1.989
90.62000 4.513
90.64000 5.252
90.66000 4.284
90.68000 3.775
90.70000 -2.104
90.72000 1.729
90.74000 7.535
90.76000 6.487
90.78000 1.820
90.80000 0.377
90.82000 3.586
90.84000 0.137
90.86000 -1.801
90.88000 4.736
90.90000 6.625
90.92000 2.660
90.94000 -1.300
90.96000 5.788
90.98000 5.733
91.00000 -2.127
91.02000 -0.298
91.04000 3.791
91.06000 2.513
91.08000 1.609
91.10000 1.401
91.12000 1.729
91.14000 4.034
91.16000 3.941
91.18000 0.155
91.20000 3.110
91.22000 8.540
91.24000 7.220
91.26000 5.365
91.28000 5.821
91.30000 2.421
91.32000 2.496
91.34000 2.759
91.36000 4.795
91.38000 2.219
91.40000 3.083
91.42000 4.296
91.44000 2.122
91.46000 4.096
91.48000 5.315
91.50000 11.869
91.52000 5.419
91.54000 5.084
91.56000 3.538
91.58000 3.710
91.60000 3.424
91.62000 5.118
91.64000 5.140
91.66000 2.521
91.68000 5.940
91.70000 4.546
91.72000 5.427
91.74000 2.689
91.76000 2.218
91.78000 5.292
91.80000 5.228
91.82000 6.630
91.84000 9.410
91.86000 11.440
91.88000 8.787
91.90000 4.235
91.92000 4.576
91.94000 1.999
91.96000 4.791
91.98000 7.736
92.00000 4.549
92.02000 0.879
92.04000 3.225
92.06000 5.166
92.08000 4.507
92.10000 5.749
92.12000 2.040
92.14000 4.824
92.16000 4.649
92.18000 4.052
92.20000 5.996
92.22000 -2.142
92.24000 1.842
92.26000 6.926
92.28000 3.934
92.30000 4.398
92.32000 5.408
92.34000 2.788
92.36000 2.999
92.38000 7.611
92.40000 7.311
92.42000 1.798
92.44000 -0.400
92.46000 2.654
92.48000 5.733
92.50000 4.293
92.52000 8.254
92.54000 5.534
92.56000 5.548
92.58000 6.091
92.60000 6.480
92.62000 2.494
92.64000 2.284
92.66000 4.399
92.68000 7.805
92.70000 5.358
92.72000 3.768
92.74000 9.637
92.76000 8.983
92.78000 3.868
92.80000 0.734
92.82000 1.758
92.84000 4.237
92.86000 13.508
92.88000 11.587
92.90000 9.618
92.92000 3.687
92.94000 2.149
92.96000 6.647
92.98000 7.801
93.00000 7.129
93.02000 5.121
93.04000 5.256
93.06000 4.367
93.08000 2.749
93.10000 5.968
93.12000 4.481
93.14000 3.494
93.16000 3.526
93.18000 1.862
93.20000 1.702
93.22000 4.054
93.24000 3.574
93.26000 5.004
93.28000 7.060
93.30000 6.271
93.32000 8.038
93.34000 7.847
93.36000 6.598
93.38000 4.670
93.40000 -2.109
93.42000 3.762
93.44000 6.555
93.46000 3.834
93.48000 8.438
93.50000 4.138
93.52000 3.407
93.54000 5.158
93.56000 5.861
93.58000 5.246
93.60000 4.911
93.62000 3.516
93.64000 4.798
93.66000 5.980
93.68000 3.438
93.70000 6.547
93.72000 3.237
93.74000 4.400
93.76000 5.783
93.78000 4.717
93.80000 2.875
93.82000 6.580
93.84000 8.956
93.86000 4.958
93.88000 0.222
93.90000 3.042
93.92000 2.992
93.94000 6.853
93.96000 5.422
93.98000 2.569
94.00000 0.747
94.02000 1.304
94.04000 5.075
94.06000 5.753
94.08000 10.048
94.10000 5.514
94.12000 6.911
94.14000 6.099
94.16000 5.549
94.18000 2.325
94.20000 12.609
94.22000 5.916
94.24000 6.173
94.26000 4.956
94.28000 12.040
94.30000 8.974
94.32000 -2.183
94.34000 -0.984
94.36000 4.018
94.38000 0.462
94.40000 3.573
94.42000 4.921
94.44000 3.709
94.46000 3.027
94.48000 3.673
94.50000 4.573
94.52000 3.157
94.54000 4.683
94.56000 1.146
94.58000 5.035
94.60000 7.561
94.62000 7.007
94.64000 7.947
94.66000 8.281
94.68000 3.193
94.70000 1.925
94.72000 4.003
94.74000 6.713
94.76000 8.596
94.78000 4.053
94.80000 -2.203
94.82000 2.082
94.84000 3.450
94.86000 3.966
94.88000 5.091
94.90000 6.847
94.92000 3.326
94.94000 1.881
94.96000 2.536
94.98000 5.191
95.00000 2.133
95.02000 3.004
95.04000 4.115
95.06000 6.148
95.08000 2.549
95.10000 -0.731
95.12000 3.834
95.14000 0.590
95.16000 0.825
95.18000 2.684
95.20000 2.755
95.22000 7.336
95.24000 4.663
95.26000 1.051
95.28000 2.821
95.30000 3.121
95.32000 2.802
95.34000 2.572
95.36000 4.062
95.38000 3.696
95.40000 0.220
95.42000 -0.006
95.44000 0.731
95.46000 1.082
95.48000 3.855
95.50000 4.672
95.52000 1.565
95.54000 0.445
95.56000 0.380
95.58000 2.403
95.60000 -0.372
95.62000 -0.619
95.64000 0.662
95.66000 -0.007
95.68000 1.042
95.70000 0.881
95.72000 1.495
95.74000 0.605
95.76000 1.928
95.78000 3.320
95.80000 -0.304
95.82000 -0.194
95.84000 2.884
95.86000 7.544
95.88000 7.535
95.90000 2.756
95.92000 4.788
95.94000 4.224
95.96000 5.194
95.98000 3.126
96.00000 5.634
96.02000 2.482
96.04000 2.635
96.06000 3.134
96.08000 1.952
96.10000 4.075
96.12000 -0.562
96.14000 4.422
96.16000 -2.180
96.18000 1.731
96.20000 5.832
96.22000 2.857
96.24000 3.153
96.26000 1.182
96.28000 4.772
96.30000 4.767
96.32000 4.290
96.34000 5.577
96.36000 4.354
96.38000 2.010
96.40000 4.407
96.42000 1.751
96.44000 0.191
96.46000 -1.558
96.48000 4.671
96.50000 2.351
96.52000 1.613
96.54000 5.004
96.56000 5.321
96.58000 2.259
96.60000 2.381
96.62000 -0.807
96.64000 5.130
96.66000 8.574
96.68000 5.515
96.70000 8.175
96.72000 7.288
96.74000 3.289
96.76000 4.628
96.78000 6.826
96.80000 6.671
96.82000 4.265
96.84000 2.078
96.86000 0.322
96.88000 -2.181
96.90000 0.810
96.92000 8.097
96.94000 9.197
96.96000 4.963
96.98000 5.003
97.00000 7.788
97.02000 5.690
97.04000 8.756
97.06000 3.966
97.08000 6.322
97.10000 -0.032
97.12000 1.517
97.14000 4.961
97.16000 -2.173
97.18000 0.217
97.20000 9.514
97.22000 4.523
97.24000 4.734
97.26000 3.113
97.28000 4.570
97.30000 3.411
97.32000 -0.784
97.34000 4.951
97.36000 3.224
97.38000 2.702
97.40000 6.039
97.42000 0.560
97.44000 -2.160
97.46000 2.580
97.48000 8.459
97.50000 8.049
97.52000 9.407
97.54000 9.871
97.56000 12.033
97.58000 4.388
97.60000 3.633
97.62000 5.689
97.64000 3.701
97.66000 5.259
97.68000 7.758
97.70000 4.835
97.72000 3.693
97.74000 2.828
97.76000 7.964
97.78000 6.144
97.80000 6.261
97.82000 11.347
97.84000 7.082
97.86000 6.893
97.88000 3.801
97.90000 3.248
97.92000 9.311
97.94000 7.194
97.96000 8.708
97.98000 6.847
98.00000 8.043
98.02000 7.799
98.04000 8.887
98.06000 17.478
98.08000 10.783
98.10000 4.916
98.12000 -0.731
98.14000 9.903
98.16000 8.667
98.18000 2.652
98.20000 4.940
98.22000 7.941
98.24000 2.550
98.26000 2.779
98.28000 5.147
98.30000 -2.103
98.32000 2.326
98.34000 10.832
98.36000 6.797
98.38000 10.489
98.40000 6.822
98.42000 6.010
98.44000 9.983
98.46000 9.880
98.48000 12.794
98.50000 7.130
98.52000 5.772
98.54000 1.659
98.56000 3.901
98.58000 3.837
98.60000 4.923
98.62000 6.823
98.64000 8.514
98.66000 13.344
98.68000 9.121
98.70000 12.371
98.72000 6.262
98.74000 4.698
98.76000 10.388
98.78000 11.924
98.80000 16.009
98.82000 10.145
98.84000 1.307
98.86000 -0.173
98.88000 3.150
98.90000 6.374
98.92000 -4.105
98.94000 4.189
98.96000 6.424
98.98000 0.539
99.00000 4.987
99.02000 9.477
99.04000 4.939
99.06000 -0.692
99.08000 4.475
99.10000 1.957
99.12000 7.819
99.14000 10.073
99.16000 4.554
99.18000 3.731
99.20000 3.458
99.22000 4.854
99.24000 2.705
99.26000 6.353
99.28000 7.310
99.30000 5.653
99.32000 6.931
99.34000 9.924
99.36000 8.398
99.38000 0.042
99.40000 5.057
99.42000 16.905
99.44000 16.260
99.46000 13.001
99.48000 12.179
99.50000 9.724
99.52000 8.560
99.54000 13.734
99.56000 13.570
99.58000 8.508
99.60000 7.360
99.62000 8.387
99.64000 1.239
99.66000 4.190
99.68000 3.746
99.70000 13.562
99.72000 13.620
99.74000 8.379
99.76000 9.226
99.78000 7.088
99.80000 4.818
99.82000 9.233
99.84000 -3.044
99.86000 1.468
99.88000 -2.139
99.90000 1.416
99.92000 2.384
99.94000 11.178
99.96000 7.161
99.98000 0.000
