'Id: "0011388" Comment: "Integrate frame 0011388_Au-Ir-Rh_Rh-rich_XRD-Mapping-136-0000.gfrmwith cursor Wedge Cursor #5" Operator: "B?rgel" Anode: "Cu" Wavelength: "1.5406" Scantype: "2Theta (TwoTheta)" TimePerStep: "1" X: "-45" Y: "-4.5" Z: "5.95" 
10.00000 0.000
10.02000 -4.753
10.04000 0.027
10.06000 -4.609
10.08000 -2.529
10.10000 14.107
10.12000 16.408
10.14000 -1.493
10.16000 7.821
10.18000 12.753
10.20000 7.934
10.22000 -4.538
10.24000 8.439
10.26000 7.024
10.28000 5.081
10.30000 18.590
10.32000 15.826
10.34000 6.220
10.36000 2.214
10.38000 12.629
10.40000 5.075
10.42000 24.492
10.44000 14.481
10.46000 20.184
10.48000 6.576
10.50000 2.648
10.52000 11.043
10.54000 6.604
10.56000 3.515
10.58000 14.905
10.60000 9.236
10.62000 16.313
10.64000 9.491
10.66000 -3.222
10.68000 1.089
10.70000 16.960
10.72000 3.777
10.74000 11.557
10.76000 25.114
10.78000 19.810
10.80000 14.501
10.82000 18.307
10.84000 1.291
10.86000 11.355
10.88000 17.994
10.90000 33.065
10.92000 26.236
10.94000 26.092
10.96000 14.267
10.98000 11.261
11.00000 4.260
11.02000 -4.496
11.04000 5.131
11.06000 22.606
11.08000 18.582
11.10000 24.534
11.12000 18.305
11.14000 1.411
11.16000 5.071
11.18000 11.299
11.20000 11.230
11.22000 18.650
11.24000 19.732
11.26000 7.776
11.28000 20.117
11.30000 21.012
11.32000 17.913
11.34000 4.491
11.36000 15.148
11.38000 20.051
11.40000 10.338
11.42000 18.546
11.44000 14.937
11.46000 18.125
11.48000 9.958
11.50000 8.056
11.52000 11.486
11.54000 23.407
11.56000 25.617
11.58000 13.145
11.60000 20.656
11.62000 5.833
11.64000 5.188
11.66000 10.105
11.68000 13.309
11.70000 12.780
11.72000 13.205
11.74000 16.494
11.76000 14.752
11.78000 17.221
11.80000 13.700
11.82000 11.959
11.84000 18.320
11.86000 22.496
11.88000 14.758
11.90000 4.803
11.92000 20.183
11.94000 13.537
11.96000 16.713
11.98000 16.801
12.00000 7.236
12.02000 15.709
12.04000 14.533
12.06000 21.295
12.08000 15.996
12.10000 1.840
12.12000 -4.447
12.14000 5.588
12.16000 14.280
12.18000 17.283
12.20000 22.899
12.22000 17.899
12.24000 7.151
12.26000 10.238
12.28000 19.592
12.30000 21.982
12.32000 19.849
12.34000 11.221
12.36000 21.330
12.38000 14.553
12.40000 18.542
12.42000 16.229
12.44000 11.553
12.46000 -0.672
12.48000 12.863
12.50000 22.683
12.52000 21.162
12.54000 14.046
12.56000 15.815
12.58000 11.777
12.60000 8.010
12.62000 16.268
12.64000 12.329
12.66000 12.230
12.68000 14.659
12.70000 14.105
12.72000 15.116
12.74000 13.872
12.76000 15.903
12.78000 5.852
12.80000 -4.475
12.82000 7.457
12.84000 16.410
12.86000 11.459
12.88000 10.923
12.90000 15.885
12.92000 14.337
12.94000 12.969
12.96000 7.780
12.98000 8.759
13.00000 11.860
13.02000 14.440
13.04000 12.047
13.06000 9.984
13.08000 24.002
13.10000 29.360
13.12000 10.527
13.14000 5.711
13.16000 10.037
13.18000 9.183
13.20000 6.470
13.22000 1.798
13.24000 0.725
13.26000 5.952
13.28000 14.121
13.30000 15.928
13.32000 12.049
13.34000 13.102
13.36000 5.979
13.38000 11.579
13.40000 5.459
13.42000 8.829
13.44000 14.899
13.46000 7.462
13.48000 5.062
13.50000 2.275
13.52000 5.252
13.54000 8.391
13.56000 11.652
13.58000 12.699
13.60000 10.488
13.62000 0.598
13.64000 -0.202
13.66000 6.326
13.68000 3.526
13.70000 -0.962
13.72000 5.190
13.74000 -0.369
13.76000 -1.035
13.78000 16.353
13.80000 9.525
13.82000 8.054
13.84000 2.856
13.86000 -1.367
13.88000 -3.428
13.90000 -4.446
13.92000 8.238
13.94000 9.520
13.96000 0.914
13.98000 6.115
14.00000 10.733
14.02000 3.916
14.04000 5.879
14.06000 7.184
14.08000 6.408
14.10000 10.536
14.12000 10.158
14.14000 11.304
14.16000 8.319
14.18000 13.167
14.20000 14.355
14.22000 10.106
14.24000 2.448
14.26000 5.563
14.28000 14.105
14.30000 11.258
14.32000 14.200
14.34000 10.907
14.36000 10.912
14.38000 7.766
14.40000 1.957
14.42000 3.996
14.44000 2.082
14.46000 2.811
14.48000 9.424
14.50000 17.499
14.52000 7.061
14.54000 5.306
14.56000 15.810
14.58000 18.586
14.60000 13.302
14.62000 9.798
14.64000 7.665
14.66000 2.599
14.68000 1.833
14.70000 4.395
14.72000 -4.044
14.74000 4.286
14.76000 19.497
14.78000 16.876
14.80000 9.196
14.82000 17.093
14.84000 8.271
14.86000 5.418
14.88000 0.711
14.90000 0.666
14.92000 10.414
14.94000 10.954
14.96000 3.970
14.98000 8.571
15.00000 13.462
15.02000 14.477
15.04000 1.604
15.06000 3.014
15.08000 12.275
15.10000 11.298
15.12000 7.605
15.14000 5.536
15.16000 12.958
15.18000 17.940
15.20000 9.669
15.22000 10.573
15.24000 11.969
15.26000 12.699
15.28000 8.731
15.30000 3.549
15.32000 -1.280
15.34000 8.467
15.36000 10.987
15.38000 8.121
15.40000 5.173
15.42000 1.534
15.44000 11.076
15.46000 0.562
15.48000 -0.615
15.50000 5.137
15.52000 7.435
15.54000 2.292
15.56000 -3.317
15.58000 3.515
15.60000 6.266
15.62000 6.972
15.64000 -4.433
15.66000 -3.687
15.68000 4.760
15.70000 13.501
15.72000 4.043
15.74000 0.332
15.76000 7.560
15.78000 4.895
15.80000 -2.495
15.82000 2.649
15.84000 4.098
15.86000 3.782
15.88000 8.681
15.90000 11.833
15.92000 4.258
15.94000 5.780
15.96000 2.595
15.98000 1.648
16.00000 -0.508
16.02000 1.858
16.04000 4.908
16.06000 9.637
16.08000 11.610
16.10000 9.498
16.12000 10.539
16.14000 15.771
16.16000 8.613
16.18000 6.884
16.20000 -2.547
16.22000 -3.599
16.24000 1.665
16.26000 6.432
16.28000 1.976
16.30000 4.156
16.32000 7.842
16.34000 3.584
16.36000 -4.414
16.38000 1.191
16.40000 10.185
16.42000 11.343
16.44000 5.973
16.46000 -0.107
16.48000 7.735
16.50000 8.060
16.52000 6.512
16.54000 4.288
16.56000 6.815
16.58000 8.331
16.60000 2.575
16.62000 0.354
16.64000 -1.095
16.66000 6.375
16.68000 4.748
16.70000 2.519
16.72000 2.608
16.74000 6.625
16.76000 0.205
16.78000 0.484
16.80000 -3.972
16.82000 -1.017
16.84000 5.356
16.86000 -4.083
16.88000 -0.854
16.90000 7.779
16.92000 4.976
16.94000 3.222
16.96000 11.127
16.98000 11.025
17.00000 -0.698
17.02000 2.650
17.04000 1.852
17.06000 -1.871
17.08000 6.069
17.10000 12.514
17.12000 10.425
17.14000 9.410
17.16000 5.574
17.18000 0.982
17.20000 3.567
17.22000 3.190
17.24000 -0.665
17.26000 4.353
17.28000 10.678
17.30000 4.798
17.32000 6.086
17.34000 10.885
17.36000 7.898
17.38000 5.478
17.40000 3.010
17.42000 3.861
17.44000 8.721
17.46000 6.246
17.48000 9.046
17.50000 9.839
17.52000 11.461
17.54000 13.968
17.56000 11.595
17.58000 3.704
17.60000 2.807
17.62000 -0.249
17.64000 1.541
17.66000 11.332
17.68000 18.713
17.70000 7.627
17.72000 4.739
17.74000 7.015
17.76000 4.723
17.78000 2.512
17.80000 -0.136
17.82000 2.606
17.84000 -3.119
17.86000 -3.984
17.88000 0.270
17.90000 6.791
17.92000 3.426
17.94000 2.688
17.96000 9.353
17.98000 4.974
18.00000 5.347
18.02000 6.694
18.04000 8.228
18.06000 -4.315
18.08000 1.839
18.10000 5.236
18.12000 3.919
18.14000 6.071
18.16000 6.318
18.18000 6.107
18.20000 8.195
18.22000 4.422
18.24000 6.377
18.26000 9.384
18.28000 6.330
18.30000 -0.975
18.32000 1.691
18.34000 5.526
18.36000 3.277
18.38000 5.476
18.40000 6.447
18.42000 12.605
18.44000 12.358
18.46000 5.246
18.48000 6.290
18.50000 6.056
18.52000 3.014
18.54000 9.946
18.56000 9.379
18.58000 7.727
18.60000 9.462
18.62000 5.080
18.64000 5.916
18.66000 3.436
18.68000 -4.291
18.70000 4.220
18.72000 7.496
18.74000 9.222
18.76000 2.173
18.78000 3.457
18.80000 5.756
18.82000 8.391
18.84000 6.925
18.86000 1.267
18.88000 0.819
18.90000 -1.068
18.92000 0.275
18.94000 0.055
18.96000 1.020
18.98000 5.390
19.00000 7.174
19.02000 3.192
19.04000 2.337
19.06000 2.830
19.08000 -2.261
19.10000 4.802
19.12000 8.517
19.14000 7.591
19.16000 1.771
19.18000 0.420
19.20000 -2.117
19.22000 -0.865
19.24000 -0.939
19.26000 -2.010
19.28000 -0.634
19.30000 4.431
19.32000 2.903
19.34000 2.689
19.36000 9.855
19.38000 10.648
19.40000 7.294
19.42000 5.175
19.44000 4.565
19.46000 3.715
19.48000 3.406
19.50000 5.544
19.52000 9.446
19.54000 5.247
19.56000 4.610
19.58000 6.560
19.60000 1.198
19.62000 -2.357
19.64000 -1.669
19.66000 -1.389
19.68000 -2.319
19.70000 -4.220
19.72000 2.243
19.74000 7.413
19.76000 -0.001
19.78000 1.894
19.80000 5.162
19.82000 3.733
19.84000 5.902
19.86000 2.189
19.88000 5.437
19.90000 7.850
19.92000 6.419
19.94000 8.272
19.96000 8.251
19.98000 1.508
20.00000 8.041
20.02000 8.071
20.04000 -0.702
20.06000 1.999
20.08000 8.822
20.10000 7.770
20.12000 6.923
20.14000 4.268
20.16000 7.573
20.18000 9.050
20.20000 5.992
20.22000 -1.881
20.24000 -3.271
20.26000 4.316
20.28000 1.917
20.30000 6.110
20.32000 3.576
20.34000 4.023
20.36000 5.081
20.38000 -2.979
20.40000 0.558
20.42000 1.560
20.44000 3.218
20.46000 0.208
20.48000 0.160
20.50000 5.867
20.52000 1.808
20.54000 1.090
20.56000 5.620
20.58000 5.612
20.60000 2.571
20.62000 1.063
20.64000 1.576
20.66000 0.386
20.68000 2.642
20.70000 2.812
20.72000 5.426
20.74000 6.985
20.76000 5.221
20.78000 3.783
20.80000 3.109
20.82000 0.811
20.84000 0.893
20.86000 -4.171
20.88000 -3.600
20.90000 3.921
20.92000 6.790
20.94000 2.209
20.96000 -2.333
20.98000 -1.067
21.00000 2.521
21.02000 1.888
21.04000 -0.604
21.06000 4.055
21.08000 8.779
21.10000 9.259
21.12000 8.699
21.14000 4.880
21.16000 0.145
21.18000 9.831
21.20000 11.696
21.22000 4.867
21.24000 2.707
21.26000 0.129
21.28000 5.537
21.30000 13.504
21.32000 5.822
21.34000 0.191
21.36000 5.409
21.38000 5.230
21.40000 7.204
21.42000 8.245
21.44000 1.242
21.46000 2.496
21.48000 -1.769
21.50000 5.637
21.52000 9.928
21.54000 8.871
21.56000 0.644
21.58000 -4.119
21.60000 3.764
21.62000 3.103
21.64000 6.149
21.66000 14.092
21.68000 10.205
21.70000 7.469
21.72000 2.049
21.74000 6.721
21.76000 7.408
21.78000 3.089
21.80000 6.093
21.82000 5.377
21.84000 4.895
21.86000 8.480
21.88000 7.426
21.90000 5.978
21.92000 2.927
21.94000 1.092
21.96000 5.634
21.98000 9.196
22.00000 6.403
22.02000 7.003
22.04000 8.840
22.06000 7.076
22.08000 8.679
22.10000 6.335
22.12000 7.644
22.14000 6.073
22.16000 -3.071
22.18000 -1.124
22.20000 7.737
22.22000 -0.438
22.24000 2.404
22.26000 6.723
22.28000 3.607
22.30000 1.766
22.32000 4.033
22.34000 2.073
22.36000 -0.676
22.38000 2.799
22.40000 4.529
22.42000 -0.428
22.44000 -3.337
22.46000 -2.833
22.48000 5.813
22.50000 8.690
22.52000 8.709
22.54000 14.107
22.56000 9.131
22.58000 6.165
22.60000 5.982
22.62000 2.960
22.64000 1.621
22.66000 5.116
22.68000 4.291
22.70000 4.235
22.72000 8.946
22.74000 10.247
22.76000 5.180
22.78000 3.750
22.80000 7.020
22.82000 5.939
22.84000 3.557
22.86000 6.570
22.88000 4.829
22.90000 4.868
22.92000 3.469
22.94000 2.254
22.96000 2.682
22.98000 2.458
23.00000 4.733
23.02000 6.310
23.04000 6.559
23.06000 0.743
23.08000 5.949
23.10000 0.726
23.12000 -0.814
23.14000 -4.029
23.16000 3.211
23.18000 2.737
23.20000 1.121
23.22000 5.943
23.24000 13.710
23.26000 7.182
23.28000 1.241
23.30000 1.154
23.32000 5.290
23.34000 3.894
23.36000 -2.354
23.38000 1.385
23.40000 4.577
23.42000 3.132
23.44000 4.520
23.46000 6.843
23.48000 3.407
23.50000 3.806
23.52000 -3.993
23.54000 -2.906
23.56000 7.433
23.58000 11.984
23.60000 12.915
23.62000 10.531
23.64000 8.735
23.66000 12.298
23.68000 7.856
23.70000 5.719
23.72000 7.723
23.74000 7.478
23.76000 2.779
23.78000 8.219
23.80000 14.400
23.82000 12.414
23.84000 6.779
23.86000 4.432
23.88000 -3.829
23.90000 -2.200
23.92000 2.997
23.94000 7.784
23.96000 9.318
23.98000 11.880
24.00000 7.693
24.02000 3.649
24.04000 4.825
24.06000 6.843
24.08000 -2.319
24.10000 -3.155
24.12000 3.107
24.14000 2.714
24.16000 -1.174
24.18000 3.398
24.20000 4.302
24.22000 3.720
24.24000 3.356
24.26000 1.933
24.28000 4.376
24.30000 7.721
24.32000 6.996
24.34000 3.060
24.36000 4.211
24.38000 10.881
24.40000 9.083
24.42000 -1.003
24.44000 -3.969
24.46000 0.981
24.48000 2.410
24.50000 3.019
24.52000 1.542
24.54000 6.563
24.56000 8.563
24.58000 13.205
24.60000 7.697
24.62000 7.883
24.64000 5.695
24.66000 4.194
24.68000 7.505
24.70000 6.798
24.72000 3.786
24.74000 1.558
24.76000 3.607
24.78000 4.423
24.80000 10.195
24.82000 7.504
24.84000 -0.991
24.86000 -0.710
24.88000 3.365
24.90000 1.854
24.92000 6.366
24.94000 5.770
24.96000 3.491
24.98000 -1.061
25.00000 -0.117
25.02000 4.912
25.04000 3.143
25.06000 2.036
25.08000 3.895
25.10000 2.761
25.12000 2.727
25.14000 1.780
25.16000 4.893
25.18000 -0.119
25.20000 -3.349
25.22000 1.533
25.24000 0.857
25.26000 6.565
25.28000 3.088
25.30000 7.688
25.32000 5.306
25.34000 0.893
25.36000 -3.917
25.38000 -0.035
25.40000 5.729
25.42000 6.995
25.44000 7.528
25.46000 5.947
25.48000 -2.013
25.50000 4.133
25.52000 5.136
25.54000 4.672
25.56000 6.297
25.58000 4.149
25.60000 9.303
25.62000 7.586
25.64000 6.245
25.66000 0.976
25.68000 6.149
25.70000 9.969
25.72000 4.147
25.74000 2.281
25.76000 6.280
25.78000 7.036
25.80000 0.500
25.82000 -3.414
25.84000 -3.660
25.86000 -0.333
25.88000 2.573
25.90000 4.434
25.92000 3.722
25.94000 3.871
25.96000 9.827
25.98000 10.127
26.00000 4.400
26.02000 7.155
26.04000 4.253
26.06000 2.552
26.08000 4.039
26.10000 4.930
26.12000 4.932
26.14000 3.504
26.16000 4.922
26.18000 1.358
26.20000 -2.570
26.22000 0.485
26.24000 7.016
26.26000 9.266
26.28000 8.273
26.30000 8.062
26.32000 8.422
26.34000 11.584
26.36000 16.360
26.38000 8.479
26.40000 1.712
26.42000 -1.824
26.44000 2.819
26.46000 6.428
26.48000 1.741
26.50000 0.489
26.52000 9.564
26.54000 9.945
26.56000 8.257
26.58000 4.043
26.60000 -1.587
26.62000 1.765
26.64000 5.585
26.66000 9.529
26.68000 8.529
26.70000 2.158
26.72000 -3.822
26.74000 6.386
26.76000 10.664
26.78000 9.047
26.80000 7.746
26.82000 5.554
26.84000 4.318
26.86000 8.194
26.88000 7.622
26.90000 2.907
26.92000 -0.475
26.94000 -1.414
26.96000 3.683
26.98000 5.611
27.00000 8.545
27.02000 4.213
27.04000 3.318
27.06000 6.292
27.08000 7.189
27.10000 9.529
27.12000 7.844
27.14000 8.535
27.16000 9.331
27.18000 5.618
27.20000 4.393
27.22000 11.466
27.24000 10.146
27.26000 4.887
27.28000 4.425
27.30000 3.212
27.32000 1.789
27.34000 0.598
27.36000 0.136
27.38000 1.987
27.40000 3.463
27.42000 3.967
27.44000 2.833
27.46000 6.535
27.48000 2.997
27.50000 3.832
27.52000 6.685
27.54000 6.650
27.56000 6.481
27.58000 3.966
27.60000 6.135
27.62000 5.112
27.64000 0.406
27.66000 -2.501
27.68000 0.524
27.70000 -1.181
27.72000 1.102
27.74000 8.460
27.76000 3.241
27.78000 -0.965
27.80000 4.380
27.82000 2.066
27.84000 -0.203
27.86000 3.793
27.88000 4.622
27.90000 1.240
27.92000 0.522
27.94000 4.972
27.96000 2.786
27.98000 6.260
28.00000 0.138
28.02000 -3.370
28.04000 2.540
28.06000 10.040
28.08000 3.964
28.10000 1.282
28.12000 5.803
28.14000 1.283
28.16000 2.013
28.18000 1.487
28.20000 0.336
28.22000 -0.611
28.24000 -3.769
28.26000 5.012
28.28000 2.327
28.30000 3.879
28.32000 5.436
28.34000 3.758
28.36000 -0.234
28.38000 -2.965
28.40000 -3.760
28.42000 -1.771
28.44000 5.320
28.46000 4.717
28.48000 5.860
28.50000 7.796
28.52000 5.944
28.54000 5.731
28.56000 3.363
28.58000 -1.238
28.60000 0.561
28.62000 3.571
28.64000 2.771
28.66000 0.855
28.68000 0.117
28.70000 2.562
28.72000 6.460
28.74000 6.196
28.76000 6.693
28.78000 11.371
28.80000 5.162
28.82000 1.848
28.84000 1.825
28.86000 7.053
28.88000 6.194
28.90000 3.717
28.92000 5.834
28.94000 5.345
28.96000 3.902
28.98000 0.219
29.00000 3.451
29.02000 8.733
29.04000 5.442
29.06000 7.110
29.08000 2.927
29.10000 -0.270
29.12000 -2.443
29.14000 -0.451
29.16000 2.107
29.18000 -3.259
29.20000 -3.711
29.22000 1.150
29.24000 -0.572
29.26000 0.252
29.28000 1.465
29.30000 -0.031
29.32000 4.031
29.34000 0.502
29.36000 -0.451
29.38000 0.974
29.40000 3.780
29.42000 5.432
29.44000 5.596
29.46000 3.765
29.48000 2.100
29.50000 5.011
29.52000 5.807
29.54000 3.466
29.56000 4.472
29.58000 5.212
29.60000 3.393
29.62000 0.236
29.64000 3.135
29.66000 1.377
29.68000 5.659
29.70000 2.296
29.72000 -3.509
29.74000 -1.908
29.76000 5.418
29.78000 3.353
29.80000 4.739
29.82000 2.200
29.84000 0.606
29.86000 4.626
29.88000 0.750
29.90000 1.512
29.92000 -0.145
29.94000 -2.094
29.96000 -2.514
29.98000 -1.298
30.00000 0.722
30.02000 2.110
30.04000 0.560
30.06000 0.917
30.08000 2.771
30.10000 7.785
30.12000 5.041
30.14000 6.636
30.16000 3.116
30.18000 2.159
30.20000 0.547
30.22000 6.997
30.24000 6.813
30.26000 2.757
30.28000 -0.312
30.30000 -1.212
30.32000 2.948
30.34000 5.410
30.36000 2.510
30.38000 4.966
30.40000 5.503
30.42000 2.726
30.44000 1.032
30.46000 -1.043
30.48000 -1.704
30.50000 -3.655
30.52000 1.319
30.54000 -1.243
30.56000 2.781
30.58000 -0.084
30.60000 2.431
30.62000 5.228
30.64000 7.548
30.66000 5.078
30.68000 0.999
30.70000 -0.200
30.72000 8.051
30.74000 7.768
30.76000 -0.759
30.78000 0.395
30.80000 8.589
30.82000 8.817
30.84000 7.136
30.86000 4.675
30.88000 2.587
30.90000 0.200
30.92000 1.990
30.94000 2.180
30.96000 0.921
30.98000 2.273
31.00000 2.901
31.02000 2.112
31.04000 -0.214
31.06000 1.798
31.08000 2.853
31.10000 2.446
31.12000 -2.486
31.14000 -2.141
31.16000 2.484
31.18000 7.946
31.20000 6.287
31.22000 0.865
31.24000 -0.148
31.26000 0.421
31.28000 -3.027
31.30000 -3.616
31.32000 -0.818
31.34000 5.315
31.36000 7.766
31.38000 4.791
31.40000 1.407
31.42000 -0.503
31.44000 7.013
31.46000 6.635
31.48000 2.134
31.50000 2.462
31.52000 4.300
31.54000 1.296
31.56000 -0.480
31.58000 -0.012
31.60000 1.881
31.62000 0.275
31.64000 2.906
31.66000 5.559
31.68000 -0.927
31.70000 1.630
31.72000 6.728
31.74000 8.092
31.76000 6.435
31.78000 0.413
31.80000 0.686
31.82000 1.865
31.84000 1.665
31.86000 3.985
31.88000 0.424
31.90000 0.025
31.92000 0.162
31.94000 -3.467
31.96000 -3.294
31.98000 0.663
32.00000 1.797
32.02000 1.609
32.04000 -0.944
32.06000 7.069
32.08000 8.963
32.10000 3.345
32.12000 -2.781
32.14000 1.083
32.16000 2.426
32.18000 0.845
32.20000 1.665
32.22000 4.756
32.24000 3.954
32.26000 0.306
32.28000 4.730
32.30000 7.421
32.32000 8.094
32.34000 7.644
32.36000 3.366
32.38000 4.781
32.40000 0.707
32.42000 0.093
32.44000 6.255
32.46000 8.759
32.48000 6.080
32.50000 -1.858
32.52000 0.371
32.54000 8.247
32.56000 7.587
32.58000 4.333
32.60000 8.732
32.62000 7.587
32.64000 6.639
32.66000 5.609
32.68000 -3.535
32.70000 1.089
32.72000 6.877
32.74000 7.297
32.76000 3.907
32.78000 9.494
32.80000 8.128
32.82000 4.045
32.84000 0.330
32.86000 1.150
32.88000 5.500
32.90000 7.921
32.92000 8.015
32.94000 6.422
32.96000 2.805
32.98000 1.354
33.00000 5.001
33.02000 4.313
33.04000 2.377
33.06000 1.199
33.08000 2.504
33.10000 1.819
33.12000 2.686
33.14000 2.930
33.16000 -2.959
33.18000 -3.512
33.20000 0.192
33.22000 3.147
33.24000 2.084
33.26000 0.829
33.28000 2.694
33.30000 2.816
33.32000 3.019
33.34000 4.850
33.36000 5.300
33.38000 7.096
33.40000 7.488
33.42000 2.434
33.44000 2.409
33.46000 3.419
33.48000 1.716
33.50000 2.813
33.52000 4.247
33.54000 6.548
33.56000 5.468
33.58000 6.194
33.60000 4.901
33.62000 1.237
33.64000 1.552
33.66000 3.790
33.68000 4.757
33.70000 0.308
33.72000 -1.960
33.74000 0.188
33.76000 4.250
33.78000 4.878
33.80000 2.920
33.82000 0.779
33.84000 2.408
33.86000 1.300
33.88000 3.978
33.90000 5.421
33.92000 1.595
33.94000 2.542
33.96000 6.949
33.98000 4.301
34.00000 2.953
34.02000 3.096
34.04000 2.853
34.06000 5.726
34.08000 2.502
34.10000 4.388
34.12000 2.083
34.14000 2.359
34.16000 -0.293
34.18000 1.513
34.20000 5.298
34.22000 1.375
34.24000 -0.090
34.26000 6.229
34.28000 11.866
34.30000 3.721
34.32000 8.972
34.34000 5.949
34.36000 8.377
34.38000 1.981
34.40000 3.463
34.42000 1.961
34.44000 1.785
34.46000 8.086
34.48000 8.477
34.50000 4.356
34.52000 3.362
34.54000 5.305
34.56000 3.181
34.58000 2.281
34.60000 2.552
34.62000 1.631
34.64000 1.562
34.66000 -2.941
34.68000 -0.743
34.70000 7.625
34.72000 5.572
34.74000 6.343
34.76000 6.836
34.78000 4.876
34.80000 -1.419
34.82000 -1.978
34.84000 0.441
34.86000 -0.722
34.88000 -0.550
34.90000 -3.497
34.92000 5.387
34.94000 12.013
34.96000 5.424
34.98000 3.633
35.00000 3.683
35.02000 1.684
35.04000 1.724
35.06000 2.941
35.08000 1.869
35.10000 1.476
35.12000 1.101
35.14000 1.311
35.16000 1.415
35.18000 -1.127
35.20000 0.191
35.22000 4.789
35.24000 7.328
35.26000 8.207
35.28000 7.303
35.30000 3.056
35.32000 4.891
35.34000 6.220
35.36000 5.012
35.38000 6.109
35.40000 2.230
35.42000 4.041
35.44000 0.756
35.46000 2.335
35.48000 3.906
35.50000 6.840
35.52000 3.229
35.54000 2.463
35.56000 2.532
35.58000 7.100
35.60000 12.277
35.62000 9.417
35.64000 5.701
35.66000 7.622
35.68000 7.799
35.70000 5.656
35.72000 9.173
35.74000 10.129
35.76000 10.807
35.78000 3.384
35.80000 -2.563
35.82000 2.420
35.84000 1.471
35.86000 1.288
35.88000 5.616
35.90000 4.196
35.92000 3.206
35.94000 3.142
35.96000 3.557
35.98000 8.768
36.00000 5.256
36.02000 5.854
36.04000 5.140
36.06000 2.424
36.08000 1.587
36.10000 0.461
36.12000 2.051
36.14000 6.388
36.16000 4.718
36.18000 7.248
36.20000 10.253
36.22000 13.816
36.24000 13.438
36.26000 12.106
36.28000 10.020
36.30000 8.944
36.32000 6.044
36.34000 0.492
36.36000 -3.467
36.38000 -0.373
36.40000 3.778
36.42000 7.455
36.44000 4.462
36.46000 6.582
36.48000 6.667
36.50000 4.238
36.52000 5.418
36.54000 7.777
36.56000 1.355
36.58000 -0.431
36.60000 0.062
36.62000 6.616
36.64000 4.280
36.66000 1.697
36.68000 3.444
36.70000 2.268
36.72000 -0.594
36.74000 3.353
36.76000 3.602
36.78000 3.782
36.80000 1.920
36.82000 2.004
36.84000 3.607
36.86000 3.214
36.88000 6.976
36.90000 8.077
36.92000 3.640
36.94000 1.793
36.96000 4.017
36.98000 3.259
37.00000 0.259
37.02000 -2.258
37.04000 3.452
37.06000 3.863
37.08000 1.107
37.10000 -3.540
37.12000 -0.714
37.14000 2.355
37.16000 0.353
37.18000 0.206
37.20000 0.659
37.22000 -1.843
37.24000 -0.744
37.26000 3.434
37.28000 2.617
37.30000 -0.056
37.32000 -2.082
37.34000 1.132
37.36000 2.949
37.38000 4.441
37.40000 0.460
37.42000 3.448
37.44000 8.867
37.46000 6.774
37.48000 5.767
37.50000 2.090
37.52000 0.080
37.54000 -3.594
37.56000 4.424
37.58000 3.201
37.60000 -2.037
37.62000 -0.164
37.64000 3.440
37.66000 4.542
37.68000 3.311
37.70000 4.296
37.72000 2.313
37.74000 6.063
37.76000 8.473
37.78000 1.428
37.80000 3.053
37.82000 5.496
37.84000 1.881
37.86000 0.581
37.88000 5.684
37.90000 5.738
37.92000 4.194
37.94000 5.816
37.96000 5.836
37.98000 7.506
38.00000 7.382
38.02000 6.087
38.04000 5.959
38.06000 5.369
38.08000 8.839
38.10000 9.231
38.12000 11.421
38.14000 10.577
38.16000 9.253
38.18000 11.934
38.20000 14.967
38.22000 17.110
38.24000 17.342
38.26000 12.488
38.28000 13.179
38.30000 14.126
38.32000 13.500
38.34000 11.796
38.36000 13.202
38.38000 17.506
38.40000 18.168
38.42000 18.294
38.44000 19.071
38.46000 19.068
38.48000 17.871
38.50000 13.225
38.52000 16.596
38.54000 16.838
38.56000 13.846
38.58000 14.341
38.60000 21.185
38.62000 24.090
38.64000 24.912
38.66000 15.799
38.68000 20.313
38.70000 31.557
38.72000 31.586
38.74000 28.407
38.76000 26.690
38.78000 34.041
38.80000 33.878
38.82000 30.739
38.84000 36.838
38.86000 37.142
38.88000 37.787
38.90000 38.199
38.92000 42.457
38.94000 42.261
38.96000 42.738
38.98000 43.829
39.00000 46.132
39.02000 48.753
39.04000 48.935
39.06000 54.026
39.08000 53.133
39.10000 54.448
39.12000 56.331
39.14000 57.541
39.16000 60.415
39.18000 63.327
39.20000 69.200
39.22000 71.053
39.24000 73.604
39.26000 75.938
39.28000 80.792
39.30000 86.516
39.32000 93.017
39.34000 93.523
39.36000 102.633
39.38000 107.264
39.40000 100.390
39.42000 111.294
39.44000 116.538
39.46000 125.947
39.48000 128.301
39.50000 130.745
39.52000 136.720
39.54000 144.273
39.56000 153.548
39.58000 171.422
39.60000 184.387
39.62000 189.292
39.64000 190.165
39.66000 198.618
39.68000 202.792
39.70000 217.667
39.72000 230.345
39.74000 246.560
39.76000 264.986
39.78000 270.799
39.80000 280.729
39.82000 291.691
39.84000 311.097
39.86000 328.033
39.88000 342.618
39.90000 349.128
39.92000 369.234
39.94000 398.309
39.96000 414.111
39.98000 424.887
40.00000 435.293
40.02000 450.352
40.04000 468.717
40.06000 491.573
40.08000 513.672
40.10000 532.433
40.12000 537.753
40.14000 559.194
40.16000 565.746
40.18000 576.138
40.20000 582.415
40.22000 595.667
40.24000 608.232
40.26000 620.241
40.28000 627.195
40.30000 622.161
40.32000 615.644
40.34000 612.587
40.36000 612.258
40.38000 613.927
40.40000 613.397
40.42000 607.613
40.44000 591.159
40.46000 571.104
40.48000 569.361
40.50000 562.523
40.52000 534.809
40.54000 520.837
40.56000 502.890
40.58000 468.725
40.60000 462.034
40.62000 448.301
40.64000 431.409
40.66000 413.220
40.68000 394.083
40.70000 378.435
40.72000 358.409
40.74000 341.253
40.76000 334.348
40.78000 327.984
40.80000 304.199
40.82000 288.366
40.84000 267.638
40.86000 258.736
40.88000 244.379
40.90000 230.548
40.92000 216.322
40.94000 206.123
40.96000 193.111
40.98000 182.904
41.00000 171.700
41.02000 159.887
41.04000 150.412
41.06000 141.183
41.08000 135.738
41.10000 130.560
41.12000 123.843
41.14000 119.058
41.16000 109.953
41.18000 104.599
41.20000 97.264
41.22000 90.367
41.24000 90.132
41.26000 87.832
41.28000 77.852
41.30000 72.847
41.32000 72.715
41.34000 69.125
41.36000 63.827
41.38000 56.353
41.40000 51.150
41.42000 51.549
41.44000 51.650
41.46000 44.388
41.48000 43.539
41.50000 45.328
41.52000 38.057
41.54000 39.435
41.56000 38.004
41.58000 35.147
41.60000 35.521
41.62000 33.843
41.64000 28.302
41.66000 26.754
41.68000 28.097
41.70000 25.642
41.72000 23.721
41.74000 24.729
41.76000 19.866
41.78000 23.192
41.80000 19.066
41.82000 14.674
41.84000 19.867
41.86000 18.521
41.88000 18.372
41.90000 15.885
41.92000 13.080
41.94000 15.732
41.96000 10.249
41.98000 11.235
42.00000 10.867
42.02000 13.117
42.04000 13.608
42.06000 13.495
42.08000 11.648
42.10000 10.942
42.12000 13.330
42.14000 14.800
42.16000 8.424
42.18000 8.956
42.20000 7.562
42.22000 7.268
42.24000 4.548
42.26000 6.406
42.28000 11.524
42.30000 13.142
42.32000 10.071
42.34000 7.280
42.36000 3.558
42.38000 5.846
42.40000 10.311
42.42000 8.313
42.44000 7.895
42.46000 2.079
42.48000 -3.282
42.50000 -3.546
42.52000 1.714
42.54000 6.705
42.56000 1.736
42.58000 2.421
42.60000 4.387
42.62000 2.462
42.64000 2.197
42.66000 6.329
42.68000 7.219
42.70000 3.769
42.72000 -0.713
42.74000 -0.293
42.76000 3.967
42.78000 6.825
42.80000 3.355
42.82000 1.594
42.84000 5.074
42.86000 7.825
42.88000 1.643
42.90000 -1.589
42.92000 1.494
42.94000 2.353
42.96000 2.876
42.98000 1.805
43.00000 1.097
43.02000 -1.903
43.04000 0.438
43.06000 4.173
43.08000 5.053
43.10000 7.001
43.12000 7.973
43.14000 4.534
43.16000 6.299
43.18000 0.715
43.20000 0.848
43.22000 2.557
43.24000 5.833
43.26000 4.193
43.28000 4.098
43.30000 5.850
43.32000 6.733
43.34000 4.988
43.36000 1.058
43.38000 1.138
43.40000 2.729
43.42000 -0.558
43.44000 2.925
43.46000 4.106
43.48000 7.374
43.50000 4.346
43.52000 4.326
43.54000 1.675
43.56000 -3.402
43.58000 -2.540
43.60000 0.244
43.62000 0.434
43.64000 5.269
43.66000 5.390
43.68000 4.428
43.70000 4.471
43.72000 3.196
43.74000 2.500
43.76000 3.015
43.78000 2.860
43.80000 5.018
43.82000 4.119
43.84000 6.028
43.86000 9.015
43.88000 7.211
43.90000 5.916
43.92000 7.428
43.94000 7.500
43.96000 6.569
43.98000 1.607
44.00000 -0.844
44.02000 5.505
44.04000 1.811
44.06000 2.539
44.08000 5.983
44.10000 1.782
44.12000 2.897
44.14000 2.486
44.16000 0.588
44.18000 -2.280
44.20000 -3.427
44.22000 4.813
44.24000 5.538
44.26000 0.579
44.28000 -0.085
44.30000 0.800
44.32000 0.936
44.34000 2.688
44.36000 1.908
44.38000 6.897
44.40000 5.417
44.42000 0.615
44.44000 2.704
44.46000 4.298
44.48000 6.987
44.50000 2.522
44.52000 1.376
44.54000 1.161
44.56000 -2.608
44.58000 -3.351
44.60000 -3.361
44.62000 5.073
44.64000 3.429
44.66000 -0.484
44.68000 0.313
44.70000 -0.663
44.72000 1.787
44.74000 2.913
44.76000 -0.341
44.78000 2.124
44.80000 2.968
44.82000 1.649
44.84000 2.545
44.86000 2.268
44.88000 0.575
44.90000 2.316
44.92000 6.975
44.94000 4.353
44.96000 0.452
44.98000 1.893
45.00000 0.673
45.02000 3.436
45.04000 4.165
45.06000 3.784
45.08000 -2.228
45.10000 -2.554
45.12000 0.204
45.14000 4.074
45.16000 6.549
45.18000 2.562
45.20000 3.606
45.22000 4.765
45.24000 9.176
45.26000 12.412
45.28000 11.903
45.30000 5.205
45.32000 6.212
45.34000 5.985
45.36000 13.644
45.38000 11.002
45.40000 13.318
45.42000 12.670
45.44000 11.885
45.46000 14.044
45.48000 16.125
45.50000 16.805
45.52000 18.100
45.54000 12.818
45.56000 15.539
45.58000 18.843
45.60000 17.684
45.62000 15.526
45.64000 13.571
45.66000 19.123
45.68000 27.528
45.70000 22.191
45.72000 24.265
45.74000 24.120
45.76000 26.067
45.78000 30.386
45.80000 27.188
45.82000 23.003
45.84000 25.250
45.86000 23.537
45.88000 28.701
45.90000 37.366
45.92000 36.234
45.94000 32.735
45.96000 36.636
45.98000 33.883
46.00000 36.128
46.02000 37.040
46.04000 37.466
46.06000 37.396
46.08000 44.525
46.10000 48.295
46.12000 45.895
46.14000 47.392
46.16000 49.199
46.18000 44.397
46.20000 51.331
46.22000 55.007
46.24000 51.773
46.26000 59.223
46.28000 57.592
46.30000 64.586
46.32000 65.533
46.34000 65.436
46.36000 63.452
46.38000 66.058
46.40000 73.825
46.42000 70.190
46.44000 69.991
46.46000 72.744
46.48000 72.466
46.50000 74.670
46.52000 77.128
46.54000 75.966
46.56000 77.038
46.58000 81.233
46.60000 76.562
46.62000 76.962
46.64000 90.243
46.66000 90.334
46.68000 86.919
46.70000 89.199
46.72000 93.233
46.74000 91.105
46.76000 90.078
46.78000 94.763
46.80000 95.810
46.82000 89.691
46.84000 90.855
46.86000 87.626
46.88000 92.280
46.90000 90.983
46.92000 89.091
46.94000 95.997
46.96000 96.466
46.98000 103.689
47.00000 100.674
47.02000 95.291
47.04000 100.947
47.06000 106.407
47.08000 101.806
47.10000 91.197
47.12000 92.777
47.14000 91.577
47.16000 91.279
47.18000 84.705
47.20000 85.600
47.22000 90.375
47.24000 84.791
47.26000 80.332
47.28000 78.201
47.30000 76.152
47.32000 81.286
47.34000 75.883
47.36000 70.954
47.38000 70.788
47.40000 66.015
47.42000 64.138
47.44000 66.207
47.46000 62.527
47.48000 63.159
47.50000 64.200
47.52000 63.895
47.54000 55.398
47.56000 58.820
47.58000 55.044
47.60000 49.828
47.62000 49.382
47.64000 39.271
47.66000 42.058
47.68000 41.770
47.70000 37.278
47.72000 41.540
47.74000 39.208
47.76000 36.097
47.78000 38.063
47.80000 33.443
47.82000 34.443
47.84000 27.825
47.86000 31.617
47.88000 30.531
47.90000 26.028
47.92000 27.480
47.94000 27.032
47.96000 22.270
47.98000 17.607
48.00000 22.587
48.02000 22.027
48.04000 21.620
48.06000 19.537
48.08000 17.665
48.10000 17.514
48.12000 16.959
48.14000 12.526
48.16000 18.383
48.18000 17.062
48.20000 15.856
48.22000 11.715
48.24000 16.338
48.26000 8.779
48.28000 12.016
48.30000 10.141
48.32000 11.841
48.34000 6.045
48.36000 3.537
48.38000 13.861
48.40000 15.354
48.42000 6.805
48.44000 5.668
48.46000 7.206
48.48000 4.149
48.50000 1.180
48.52000 0.546
48.54000 1.668
48.56000 4.371
48.58000 12.396
48.60000 9.478
48.62000 7.710
48.64000 10.635
48.66000 3.417
48.68000 -0.179
48.70000 6.816
48.72000 7.401
48.74000 -0.581
48.76000 4.140
48.78000 3.423
48.80000 0.820
48.82000 4.863
48.84000 6.823
48.86000 1.563
48.88000 5.163
48.90000 2.728
48.92000 0.253
48.94000 -3.064
48.96000 -1.505
48.98000 -1.068
49.00000 -1.976
49.02000 0.306
49.04000 0.595
49.06000 3.940
49.08000 0.174
49.10000 1.346
49.12000 5.447
49.14000 8.202
49.16000 1.429
49.18000 -2.204
49.20000 -0.579
49.22000 0.918
49.24000 1.130
49.26000 5.032
49.28000 7.071
49.30000 5.472
49.32000 0.669
49.34000 1.042
49.36000 3.323
49.38000 -1.377
49.40000 3.140
49.42000 4.705
49.44000 3.945
49.46000 3.272
49.48000 2.052
49.50000 1.918
49.52000 0.389
49.54000 1.313
49.56000 -0.659
49.58000 -2.999
49.60000 -0.364
49.62000 2.036
49.64000 0.684
49.66000 0.049
49.68000 4.275
49.70000 4.934
49.72000 3.203
49.74000 3.220
49.76000 -2.194
49.78000 -2.437
49.80000 2.402
49.82000 2.901
49.84000 0.188
49.86000 -0.704
49.88000 4.613
49.90000 1.137
49.92000 0.096
49.94000 -0.720
49.96000 -2.974
49.98000 1.441
50.00000 0.002
50.02000 1.590
50.04000 1.082
50.06000 -2.008
50.08000 -2.424
50.10000 4.620
50.12000 6.398
50.14000 2.160
50.16000 0.714
50.18000 1.603
50.20000 3.944
50.22000 0.733
50.24000 0.470
50.26000 3.650
50.28000 3.535
50.30000 0.556
50.32000 2.122
50.34000 0.902
50.36000 1.052
50.38000 2.345
50.40000 1.776
50.42000 -0.813
50.44000 -1.815
50.46000 3.648
50.48000 4.915
50.50000 2.236
50.52000 0.398
50.54000 1.448
50.56000 -0.646
50.58000 1.312
50.60000 3.729
50.62000 1.303
50.64000 2.276
50.66000 3.533
50.68000 6.388
50.70000 9.330
50.72000 7.545
50.74000 6.562
50.76000 8.362
50.78000 5.801
50.80000 9.217
50.82000 11.403
50.84000 2.910
50.86000 2.150
50.88000 6.498
50.90000 5.970
50.92000 6.319
50.94000 9.966
50.96000 7.213
50.98000 -2.824
51.00000 5.327
51.02000 4.211
51.04000 11.061
51.06000 9.259
51.08000 2.067
51.10000 4.236
51.12000 1.250
51.14000 0.870
51.16000 4.311
51.18000 7.606
51.20000 0.689
51.22000 4.714
51.24000 6.406
51.26000 6.466
51.28000 3.344
51.30000 6.686
51.32000 9.448
51.34000 8.860
51.36000 3.897
51.38000 5.025
51.40000 8.087
51.42000 7.249
51.44000 6.282
51.46000 7.790
51.48000 7.669
51.50000 5.787
51.52000 5.657
51.54000 2.980
51.56000 3.726
51.58000 5.188
51.60000 1.739
51.62000 -1.965
51.64000 0.868
51.66000 4.176
51.68000 7.707
51.70000 4.577
51.72000 2.044
51.74000 -0.742
51.76000 -0.643
51.78000 -0.461
51.80000 1.138
51.82000 3.983
51.84000 3.600
51.86000 -0.036
51.88000 2.661
51.90000 3.018
51.92000 1.128
51.94000 0.832
51.96000 1.778
51.98000 0.755
52.00000 2.249
52.02000 0.666
52.04000 5.079
52.06000 3.923
52.08000 4.024
52.10000 4.989
52.12000 0.375
52.14000 -2.013
52.16000 2.604
52.18000 2.195
52.20000 0.506
52.22000 -2.844
52.24000 0.435
52.26000 0.399
52.28000 1.935
52.30000 2.691
52.32000 5.959
52.34000 -0.486
52.36000 -0.748
52.38000 0.469
52.40000 2.031
52.42000 4.138
52.44000 7.094
52.46000 4.428
52.48000 3.624
52.50000 0.637
52.52000 0.220
52.54000 3.137
52.56000 -1.802
52.58000 -1.554
52.60000 4.243
52.62000 9.742
52.64000 4.863
52.66000 2.831
52.68000 3.915
52.70000 7.930
52.72000 2.533
52.74000 -0.927
52.76000 0.079
52.78000 1.511
52.80000 1.633
52.82000 -0.757
52.84000 -1.215
52.86000 -1.855
52.88000 -0.650
52.90000 1.470
52.92000 2.174
52.94000 1.427
52.96000 0.636
52.98000 0.607
53.00000 0.074
53.02000 -1.860
53.04000 -0.935
53.06000 -0.438
53.08000 0.451
53.10000 -0.232
53.12000 -2.794
53.14000 -0.470
53.16000 1.704
53.18000 0.998
53.20000 4.553
53.22000 6.654
53.24000 7.080
53.26000 7.986
53.28000 4.173
53.30000 6.407
53.32000 2.399
53.34000 2.975
53.36000 5.751
53.38000 0.294
53.40000 -0.270
53.42000 5.175
53.44000 6.116
53.46000 1.806
53.48000 0.040
53.50000 3.710
53.52000 0.591
53.54000 2.590
53.56000 1.639
53.58000 -2.787
53.60000 -1.147
53.62000 0.042
53.64000 4.003
53.66000 6.077
53.68000 3.703
53.70000 0.554
53.72000 -1.056
53.74000 1.276
53.76000 5.064
53.78000 3.724
53.80000 -0.444
53.82000 3.545
53.84000 2.121
53.86000 -2.767
53.88000 3.141
53.90000 5.989
53.92000 9.530
53.94000 10.212
53.96000 1.373
53.98000 0.010
54.00000 1.016
54.02000 5.160
54.04000 7.160
54.06000 5.305
54.08000 2.864
54.10000 4.902
54.12000 7.133
54.14000 8.802
54.16000 4.322
54.18000 1.066
54.20000 5.671
54.22000 5.575
54.24000 3.820
54.26000 4.480
54.28000 8.833
54.30000 3.346
54.32000 2.045
54.34000 0.002
54.36000 4.465
54.38000 5.144
54.40000 4.213
54.42000 7.102
54.44000 8.742
54.46000 2.803
54.48000 0.949
54.50000 1.909
54.52000 1.651
54.54000 6.707
54.56000 7.680
54.58000 6.951
54.60000 7.342
54.62000 5.109
54.64000 4.379
54.66000 3.434
54.68000 2.771
54.70000 5.030
54.72000 6.149
54.74000 -0.303
54.76000 0.246
54.78000 -2.728
54.80000 0.818
54.82000 4.102
54.84000 2.249
54.86000 6.118
54.88000 7.366
54.90000 6.122
54.92000 3.428
54.94000 3.317
54.96000 1.135
54.98000 1.351
55.00000 0.339
55.02000 4.349
55.04000 6.493
55.06000 2.267
55.08000 4.038
55.10000 1.339
55.12000 4.013
55.14000 7.378
55.16000 1.507
55.18000 2.809
55.20000 6.715
55.22000 3.201
55.24000 2.495
55.26000 2.811
55.28000 3.649
55.30000 3.803
55.32000 5.055
55.34000 2.927
55.36000 2.803
55.38000 3.622
55.40000 3.172
55.42000 3.226
55.44000 1.872
55.46000 0.857
55.48000 3.129
55.50000 4.417
55.52000 2.935
55.54000 4.079
55.56000 4.008
55.58000 0.807
55.60000 -1.863
55.62000 2.069
55.64000 5.195
55.66000 6.782
55.68000 6.438
55.70000 6.786
55.72000 7.832
55.74000 4.256
55.76000 3.149
55.78000 2.551
55.80000 6.031
55.82000 5.641
55.84000 2.328
55.86000 5.603
55.88000 3.646
55.90000 7.003
55.92000 6.842
55.94000 7.841
55.96000 6.425
55.98000 5.511
56.00000 6.707
56.02000 4.437
56.04000 0.211
56.06000 -2.696
56.08000 1.367
56.10000 1.385
56.12000 4.996
56.14000 5.010
56.16000 5.059
56.18000 9.085
56.20000 5.344
56.22000 -0.538
56.24000 -1.057
56.26000 0.519
56.28000 2.595
56.30000 1.328
56.32000 3.137
56.34000 5.174
56.36000 7.579
56.38000 6.618
56.40000 7.322
56.42000 7.459
56.44000 5.749
56.46000 2.838
56.48000 2.915
56.50000 2.100
56.52000 -2.672
56.54000 -0.100
56.56000 2.323
56.58000 5.227
56.60000 3.954
56.62000 7.121
56.64000 10.949
56.66000 7.465
56.68000 4.139
56.70000 4.780
56.72000 4.312
56.74000 3.989
56.76000 0.250
56.78000 3.036
56.80000 3.072
56.82000 2.744
56.84000 -1.560
56.86000 -1.230
56.88000 4.879
56.90000 8.863
56.92000 4.849
56.94000 2.230
56.96000 1.773
56.98000 2.544
57.00000 0.521
57.02000 0.235
57.04000 1.208
57.06000 6.010
57.08000 5.640
57.10000 2.140
57.12000 4.498
57.14000 -0.061
57.16000 -1.598
57.18000 -2.079
57.20000 1.174
57.22000 1.903
57.24000 5.726
57.26000 5.047
57.28000 -0.236
57.30000 1.413
57.32000 3.064
57.34000 3.828
57.36000 3.804
57.38000 4.381
57.40000 1.538
57.42000 4.738
57.44000 8.498
57.46000 7.451
57.48000 1.374
57.50000 1.870
57.52000 2.845
57.54000 1.283
57.56000 4.569
57.58000 5.748
57.60000 1.647
57.62000 4.451
57.64000 4.268
57.66000 7.261
57.68000 6.333
57.70000 1.290
57.72000 5.941
57.74000 4.799
57.76000 6.357
57.78000 4.777
57.80000 6.874
57.82000 5.993
57.84000 2.789
57.86000 6.775
57.88000 4.611
57.90000 3.406
57.92000 5.342
57.94000 9.296
57.96000 4.297
57.98000 6.556
58.00000 8.604
58.02000 4.597
58.04000 5.862
58.06000 4.464
58.08000 3.516
58.10000 7.133
58.12000 6.487
58.14000 7.473
58.16000 4.381
58.18000 5.902
58.20000 10.497
58.22000 7.951
58.24000 3.189
58.26000 2.103
58.28000 -1.878
58.30000 -2.584
58.32000 0.509
58.34000 5.813
58.36000 6.331
58.38000 9.419
58.40000 7.976
58.42000 6.152
58.44000 3.011
58.46000 2.986
58.48000 7.037
58.50000 3.822
58.52000 8.355
58.54000 10.563
58.56000 7.455
58.58000 0.565
58.60000 1.947
58.62000 4.119
58.64000 5.406
58.66000 10.548
58.68000 9.021
58.70000 5.596
58.72000 2.716
58.74000 6.197
58.76000 3.843
58.78000 3.415
58.80000 2.987
58.82000 9.840
58.84000 5.897
58.86000 1.983
58.88000 1.600
58.90000 2.721
58.92000 1.497
58.94000 0.140
58.96000 0.608
58.98000 2.574
59.00000 1.879
59.02000 2.518
59.04000 1.334
59.06000 3.179
59.08000 6.315
59.10000 5.289
59.12000 2.035
59.14000 4.744
59.16000 3.442
59.18000 7.194
59.20000 6.147
59.22000 2.219
59.24000 3.124
59.26000 5.086
59.28000 2.607
59.30000 1.772
59.32000 2.188
59.34000 0.004
59.36000 3.898
59.38000 6.105
59.40000 7.379
59.42000 0.264
59.44000 -0.632
59.46000 0.157
59.48000 -0.053
59.50000 -1.437
59.52000 -1.352
59.54000 3.435
59.56000 6.452
59.58000 0.670
59.60000 0.932
59.62000 2.848
59.64000 2.944
59.66000 -2.047
59.68000 3.054
59.70000 3.436
59.72000 3.907
59.74000 3.015
59.76000 -0.400
59.78000 -1.443
59.80000 -0.185
59.82000 1.762
59.84000 2.391
59.86000 0.597
59.88000 3.539
59.90000 1.842
59.92000 2.300
59.94000 3.830
59.96000 1.606
59.98000 0.874
60.00000 -2.575
60.02000 0.473
60.04000 4.234
60.06000 1.508
60.08000 1.623
60.10000 2.151
60.12000 -0.530
60.14000 -1.098
60.16000 4.594
60.18000 4.132
60.20000 8.037
60.22000 3.351
60.24000 2.969
60.26000 5.116
60.28000 4.499
60.30000 3.378
60.32000 3.000
60.34000 6.091
60.36000 3.002
60.38000 3.069
60.40000 8.454
60.42000 2.722
60.44000 -1.193
60.46000 0.758
60.48000 1.347
60.50000 2.916
60.52000 3.292
60.54000 4.194
60.56000 3.280
60.58000 2.341
60.60000 0.354
60.62000 -0.421
60.64000 1.004
60.66000 1.017
60.68000 2.002
60.70000 1.576
60.72000 1.712
60.74000 -0.681
60.76000 -2.277
60.78000 -0.368
60.80000 2.450
60.82000 1.309
60.84000 1.425
60.86000 -0.023
60.88000 4.287
60.90000 5.312
60.92000 4.684
60.94000 7.715
60.96000 6.229
60.98000 3.277
61.00000 -1.405
61.02000 0.765
61.04000 3.932
61.06000 4.741
61.08000 2.498
61.10000 4.114
61.12000 -1.596
61.14000 -1.926
61.16000 -0.246
61.18000 7.613
61.20000 4.292
61.22000 2.222
61.24000 2.639
61.26000 2.117
61.28000 4.527
61.30000 1.732
61.32000 -1.135
61.34000 0.735
61.36000 -2.544
61.38000 -0.433
61.40000 -0.632
61.42000 -1.470
61.44000 -1.086
61.46000 -0.793
61.48000 2.105
61.50000 4.658
61.52000 3.307
61.54000 4.343
61.56000 3.751
61.58000 0.589
61.60000 -0.918
61.62000 0.792
61.64000 3.685
61.66000 2.639
61.68000 4.502
61.70000 3.189
61.72000 4.186
61.74000 2.853
61.76000 -0.228
61.78000 1.369
61.80000 0.926
61.82000 0.490
61.84000 5.023
61.86000 5.513
61.88000 4.416
61.90000 2.209
61.92000 2.924
61.94000 1.504
61.96000 -0.134
61.98000 -0.364
62.00000 1.326
62.02000 -0.497
62.04000 -1.165
62.06000 -1.803
62.08000 -2.531
62.10000 0.659
62.12000 2.727
62.14000 -0.610
62.16000 -2.196
62.18000 -0.643
62.20000 2.625
62.22000 3.100
62.24000 3.893
62.26000 2.274
62.28000 0.830
62.30000 0.089
62.32000 -0.588
62.34000 1.459
62.36000 0.578
62.38000 1.878
62.40000 2.181
62.42000 0.439
62.44000 -0.337
62.46000 2.998
62.48000 1.071
62.50000 2.131
62.52000 3.562
62.54000 0.420
62.56000 0.825
62.58000 4.111
62.60000 4.646
62.62000 5.089
62.64000 0.313
62.66000 2.806
62.68000 2.441
62.70000 1.677
62.72000 5.477
62.74000 4.033
62.76000 1.519
62.78000 3.575
62.80000 3.870
62.82000 2.546
62.84000 2.596
62.86000 3.761
62.88000 3.432
62.90000 -0.407
62.92000 1.083
62.94000 0.895
62.96000 -0.763
62.98000 1.299
63.00000 -2.525
63.02000 -0.419
63.04000 0.822
63.06000 -0.357
63.08000 -1.336
63.10000 1.481
63.12000 4.254
63.14000 1.549
63.16000 -1.537
63.18000 -0.584
63.20000 -0.817
63.22000 -0.354
63.24000 3.506
63.26000 1.863
63.28000 1.669
63.30000 5.173
63.32000 6.474
63.34000 4.351
63.36000 4.177
63.38000 1.058
63.40000 2.238
63.42000 -1.687
63.44000 -2.522
63.46000 0.476
63.48000 5.648
63.50000 1.363
63.52000 -1.145
63.54000 1.039
63.56000 2.193
63.58000 1.726
63.60000 -0.379
63.62000 -1.483
63.64000 1.890
63.66000 3.431
63.68000 2.951
63.70000 3.818
63.72000 4.104
63.74000 1.753
63.76000 -0.332
63.78000 -2.178
63.80000 -1.269
63.82000 -0.702
63.84000 0.908
63.86000 -0.062
63.88000 -0.920
63.90000 -1.264
63.92000 -0.694
63.94000 -2.521
63.96000 -2.528
63.98000 -1.258
64.00000 2.864
64.02000 0.490
64.04000 0.129
64.06000 4.043
64.08000 2.718
64.10000 0.565
64.12000 1.762
64.14000 4.540
64.16000 0.441
64.18000 3.114
64.20000 4.625
64.22000 4.846
64.24000 2.228
64.26000 -1.302
64.28000 -2.524
64.30000 -1.612
64.32000 -1.085
64.34000 2.699
64.36000 2.267
64.38000 -1.134
64.40000 0.598
64.42000 0.585
64.44000 0.395
64.46000 2.115
64.48000 3.365
64.50000 0.693
64.52000 2.157
64.54000 2.427
64.56000 2.836
64.58000 3.461
64.60000 3.511
64.62000 5.015
64.64000 4.250
64.66000 0.384
64.68000 1.273
64.70000 3.932
64.72000 1.737
64.74000 1.255
64.76000 -0.268
64.78000 0.740
64.80000 0.161
64.82000 -0.387
64.84000 -2.519
64.86000 1.188
64.88000 1.694
64.90000 0.705
64.92000 2.464
64.94000 4.584
64.96000 3.687
64.98000 1.460
65.00000 3.689
65.02000 3.903
65.04000 2.724
65.06000 1.584
65.08000 -1.514
65.10000 -1.811
65.12000 3.803
65.14000 5.629
65.16000 0.945
65.18000 -1.387
65.20000 0.078
65.22000 3.089
65.24000 2.617
65.26000 4.243
65.28000 7.045
65.30000 5.183
65.32000 5.910
65.34000 4.869
65.36000 4.214
65.38000 -0.061
65.40000 0.525
65.42000 1.681
65.44000 0.636
65.46000 0.423
65.48000 1.928
65.50000 1.356
65.52000 4.160
65.54000 -2.512
65.56000 -1.713
65.58000 2.148
65.60000 3.851
65.62000 3.537
65.64000 4.191
65.66000 1.959
65.68000 1.883
65.70000 3.130
65.72000 2.221
65.74000 5.798
65.76000 2.927
65.78000 2.759
65.80000 2.527
65.82000 1.200
65.84000 2.374
65.86000 7.484
65.88000 5.191
65.90000 1.747
65.92000 1.096
65.94000 2.959
65.96000 -1.032
65.98000 0.926
66.00000 3.215
66.02000 3.013
66.04000 -1.690
66.06000 -1.018
66.08000 0.821
66.10000 0.257
66.12000 -1.129
66.14000 0.233
66.16000 -1.698
66.18000 0.832
66.20000 -0.743
66.22000 0.644
66.24000 -0.661
66.26000 0.082
66.28000 0.439
66.30000 0.097
66.32000 1.216
66.34000 0.826
66.36000 1.514
66.38000 1.611
66.40000 0.103
66.42000 2.961
66.44000 4.026
66.46000 0.774
66.48000 1.206
66.50000 3.005
66.52000 0.708
66.54000 -0.923
66.56000 1.430
66.58000 2.484
66.60000 -0.092
66.62000 1.012
66.64000 4.975
66.66000 3.809
66.68000 0.965
66.70000 0.243
66.72000 0.943
66.74000 4.264
66.76000 0.922
66.78000 2.051
66.80000 3.475
66.82000 5.533
66.84000 4.295
66.86000 3.597
66.88000 4.544
66.90000 5.690
66.92000 1.323
66.94000 0.531
66.96000 4.725
66.98000 4.200
67.00000 2.215
67.02000 -0.015
67.04000 -2.606
67.06000 0.663
67.08000 3.780
67.10000 -1.071
67.12000 0.824
67.14000 3.553
67.16000 6.600
67.18000 5.175
67.20000 2.275
67.22000 1.670
67.24000 2.345
67.26000 1.869
67.28000 1.102
67.30000 0.604
67.32000 2.695
67.34000 6.209
67.36000 5.155
67.38000 4.141
67.40000 4.942
67.42000 3.935
67.44000 5.089
67.46000 6.077
67.48000 6.084
67.50000 7.115
67.52000 4.877
67.54000 2.078
67.56000 4.873
67.58000 9.018
67.60000 6.887
67.62000 6.666
67.64000 5.758
67.66000 7.044
67.68000 5.394
67.70000 7.310
67.72000 9.968
67.74000 9.319
67.76000 10.712
67.78000 12.138
67.80000 11.252
67.82000 10.298
67.84000 6.225
67.86000 8.775
67.88000 9.616
67.90000 11.795
67.92000 9.291
67.94000 11.172
67.96000 9.397
67.98000 11.314
68.00000 11.958
68.02000 14.060
68.04000 11.979
68.06000 11.948
68.08000 15.519
68.10000 13.597
68.12000 14.794
68.14000 12.472
68.16000 15.988
68.18000 15.558
68.20000 14.330
68.22000 11.497
68.24000 16.630
68.26000 17.404
68.28000 15.779
68.30000 17.136
68.32000 18.325
68.34000 18.839
68.36000 16.414
68.38000 15.067
68.40000 15.585
68.42000 11.849
68.44000 14.442
68.46000 14.079
68.48000 17.438
68.50000 17.318
68.52000 14.928
68.54000 16.609
68.56000 11.207
68.58000 13.809
68.60000 16.951
68.62000 18.036
68.64000 16.706
68.66000 15.682
68.68000 15.947
68.70000 12.789
68.72000 12.129
68.74000 11.079
68.76000 10.024
68.78000 14.368
68.80000 12.202
68.82000 13.179
68.84000 13.860
68.86000 12.432
68.88000 13.307
68.90000 16.679
68.92000 16.177
68.94000 11.458
68.96000 14.248
68.98000 13.667
69.00000 7.397
69.02000 5.962
69.04000 8.902
69.06000 12.761
69.08000 9.444
69.10000 12.675
69.12000 5.739
69.14000 5.455
69.16000 9.671
69.18000 13.780
69.20000 6.424
69.22000 1.904
69.24000 5.855
69.26000 11.523
69.28000 4.888
69.30000 6.542
69.32000 8.485
69.34000 4.256
69.36000 0.358
69.38000 2.648
69.40000 3.417
69.42000 3.954
69.44000 3.565
69.46000 2.598
69.48000 4.259
69.50000 0.375
69.52000 2.583
69.54000 6.673
69.56000 4.706
69.58000 4.000
69.60000 7.951
69.62000 5.075
69.64000 3.083
69.66000 4.586
69.68000 1.996
69.70000 -0.073
69.72000 1.729
69.74000 4.776
69.76000 3.244
69.78000 0.826
69.80000 2.641
69.82000 2.054
69.84000 1.982
69.86000 0.941
69.88000 2.633
69.90000 -0.510
69.92000 2.978
69.94000 4.764
69.96000 4.025
69.98000 1.486
70.00000 0.604
70.02000 -1.725
70.04000 -2.513
70.06000 1.808
70.08000 1.898
70.10000 0.708
70.12000 0.802
70.14000 5.172
70.16000 1.341
70.18000 1.681
70.20000 2.743
70.22000 -0.595
70.24000 1.863
70.26000 3.873
70.28000 1.919
70.30000 1.570
70.32000 2.273
70.34000 -0.135
70.36000 0.754
70.38000 -0.070
70.40000 2.026
70.42000 3.744
70.44000 3.444
70.46000 1.859
70.48000 0.064
70.50000 3.818
70.52000 5.946
70.54000 7.331
70.56000 4.309
70.58000 3.089
70.60000 1.621
70.62000 0.435
70.64000 3.072
70.66000 2.264
70.68000 0.525
70.70000 1.909
70.72000 4.366
70.74000 1.653
70.76000 5.078
70.78000 2.845
70.80000 4.507
70.82000 1.980
70.84000 1.449
70.86000 -2.399
70.88000 3.999
70.90000 5.876
70.92000 6.247
70.94000 5.811
70.96000 6.643
70.98000 7.149
71.00000 1.266
71.02000 4.513
71.04000 5.825
71.06000 5.541
71.08000 4.660
71.10000 3.979
71.12000 0.387
71.14000 2.695
71.16000 4.575
71.18000 5.013
71.20000 2.278
71.22000 5.588
71.24000 4.058
71.26000 -0.544
71.28000 1.451
71.30000 -0.297
71.32000 0.940
71.34000 -1.024
71.36000 -0.869
71.38000 2.099
71.40000 -2.030
71.42000 -2.402
71.44000 2.200
71.46000 1.335
71.48000 -1.898
71.50000 -0.102
71.52000 -1.401
71.54000 -0.488
71.56000 -0.648
71.58000 4.375
71.60000 2.942
71.62000 5.169
71.64000 4.386
71.66000 2.871
71.68000 -1.073
71.70000 2.560
71.72000 1.523
71.74000 1.998
71.76000 -1.843
71.78000 0.359
71.80000 -0.428
71.82000 -0.224
71.84000 0.538
71.86000 5.673
71.88000 5.915
71.90000 6.877
71.92000 3.911
71.94000 1.419
71.96000 2.840
71.98000 1.944
72.00000 2.844
72.02000 2.602
72.04000 5.999
72.06000 2.387
72.08000 2.329
72.10000 0.112
72.12000 -1.237
72.14000 0.704
72.16000 0.221
72.18000 -0.333
72.20000 4.082
72.22000 8.095
72.24000 3.482
72.26000 -2.281
72.28000 -2.377
72.30000 2.437
72.32000 3.216
72.34000 3.567
72.36000 3.733
72.38000 2.647
72.40000 4.616
72.42000 2.926
72.44000 -0.015
72.46000 0.643
72.48000 0.034
72.50000 -1.227
72.52000 -2.323
72.54000 2.747
72.56000 3.094
72.58000 1.350
72.60000 3.366
72.62000 6.327
72.64000 5.525
72.66000 2.475
72.68000 3.239
72.70000 2.393
72.72000 3.620
72.74000 4.563
72.76000 0.393
72.78000 2.166
72.80000 -0.182
72.82000 -2.351
72.84000 3.555
72.86000 3.904
72.88000 7.083
72.90000 6.106
72.92000 2.462
72.94000 3.292
72.96000 1.539
72.98000 5.178
73.00000 4.148
73.02000 3.458
73.04000 8.605
73.06000 8.243
73.08000 5.282
73.10000 2.598
73.12000 1.017
73.14000 3.752
73.16000 6.865
73.18000 2.421
73.20000 3.175
73.22000 4.523
73.24000 4.059
73.26000 5.764
73.28000 3.062
73.30000 0.237
73.32000 5.905
73.34000 5.776
73.36000 2.887
73.38000 1.054
73.40000 2.732
73.42000 4.669
73.44000 9.786
73.46000 9.949
73.48000 6.321
73.50000 4.750
73.52000 3.796
73.54000 2.775
73.56000 8.391
73.58000 5.593
73.60000 3.431
73.62000 0.399
73.64000 -2.313
73.66000 -0.826
73.68000 2.274
73.70000 7.321
73.72000 4.324
73.74000 5.120
73.76000 5.052
73.78000 4.499
73.80000 1.007
73.82000 -0.532
73.84000 0.134
73.86000 -2.230
73.88000 -0.760
73.90000 6.079
73.92000 4.737
73.94000 3.142
73.96000 1.833
73.98000 3.643
74.00000 1.726
74.02000 4.310
74.04000 3.007
74.06000 -1.072
74.08000 1.474
74.10000 3.574
74.12000 -0.079
74.14000 1.264
74.16000 4.841
74.18000 0.136
74.20000 3.452
74.22000 3.157
74.24000 2.848
74.26000 3.320
74.28000 2.979
74.30000 6.730
74.32000 5.132
74.34000 3.282
74.36000 -2.339
74.38000 1.720
74.40000 1.782
74.42000 -0.438
74.44000 0.134
74.46000 1.303
74.48000 2.667
74.50000 3.995
74.52000 6.055
74.54000 6.733
74.56000 0.285
74.58000 0.534
74.60000 3.270
74.62000 2.519
74.64000 0.046
74.66000 3.553
74.68000 6.004
74.70000 6.529
74.72000 7.174
74.74000 2.061
74.76000 3.367
74.78000 0.182
74.80000 -0.349
74.82000 0.517
74.84000 0.708
74.86000 -0.239
74.88000 1.693
74.90000 1.897
74.92000 1.471
74.94000 -0.682
74.96000 0.283
74.98000 5.099
75.00000 3.448
75.02000 3.702
75.04000 -1.508
75.06000 1.482
75.08000 2.895
75.10000 -1.044
75.12000 -0.011
75.14000 -0.526
75.16000 3.268
75.18000 2.650
75.20000 3.367
75.22000 3.489
75.24000 9.262
75.26000 8.514
75.28000 8.356
75.30000 4.811
75.32000 5.716
75.34000 12.235
75.36000 12.013
75.38000 6.469
75.40000 6.696
75.42000 6.132
75.44000 6.270
75.46000 4.873
75.48000 3.203
75.50000 3.370
75.52000 5.031
75.54000 3.223
75.56000 7.842
75.58000 6.730
75.60000 4.640
75.62000 9.196
75.64000 6.588
75.66000 2.764
75.68000 1.557
75.70000 3.800
75.72000 7.397
75.74000 4.500
75.76000 2.636
75.78000 4.199
75.80000 4.451
75.82000 0.399
75.84000 1.997
75.86000 3.944
75.88000 6.658
75.90000 9.163
75.92000 8.969
75.94000 8.118
75.96000 7.211
75.98000 3.426
76.00000 1.968
76.02000 2.580
76.04000 3.338
76.06000 5.651
76.08000 6.283
76.10000 8.134
76.12000 3.899
76.14000 2.658
76.16000 6.171
76.18000 9.414
76.20000 5.265
76.22000 -2.280
76.24000 2.761
76.26000 6.632
76.28000 4.324
76.30000 5.099
76.32000 3.554
76.34000 5.412
76.36000 3.223
76.38000 3.236
76.40000 7.706
76.42000 6.551
76.44000 4.278
76.46000 3.432
76.48000 6.094
76.50000 6.666
76.52000 4.664
76.54000 1.729
76.56000 3.068
76.58000 1.956
76.60000 1.567
76.62000 3.367
76.64000 6.841
76.66000 8.216
76.68000 5.328
76.70000 2.574
76.72000 2.543
76.74000 4.203
76.76000 4.983
76.78000 4.580
76.80000 6.455
76.82000 1.856
76.84000 -0.555
76.86000 -2.342
76.88000 4.405
76.90000 7.172
76.92000 3.518
76.94000 5.251
76.96000 5.459
76.98000 4.644
77.00000 7.364
77.02000 7.872
77.04000 3.117
77.06000 -0.367
77.08000 2.137
77.10000 6.776
77.12000 8.320
77.14000 7.289
77.16000 6.550
77.18000 4.389
77.20000 0.493
77.22000 -0.297
77.24000 1.797
77.26000 4.078
77.28000 3.333
77.30000 3.799
77.32000 1.911
77.34000 3.437
77.36000 3.667
77.38000 0.747
77.40000 1.169
77.42000 1.826
77.44000 1.349
77.46000 2.295
77.48000 -0.444
77.50000 1.434
77.52000 5.441
77.54000 5.948
77.56000 2.813
77.58000 7.297
77.60000 4.071
77.62000 -1.529
77.64000 -1.869
77.66000 -1.112
77.68000 0.618
77.70000 1.517
77.72000 7.073
77.74000 4.385
77.76000 4.902
77.78000 8.776
77.80000 5.382
77.82000 5.339
77.84000 6.234
77.86000 4.151
77.88000 -0.141
77.90000 2.780
77.92000 3.126
77.94000 3.363
77.96000 2.086
77.98000 3.680
78.00000 -1.678
78.02000 -0.683
78.04000 -1.620
78.06000 2.515
78.08000 2.451
78.10000 1.451
78.12000 2.893
78.14000 3.721
78.16000 5.484
78.18000 2.507
78.20000 -1.733
78.22000 -1.682
78.24000 -2.062
78.26000 -2.389
78.28000 -0.419
78.30000 -1.389
78.32000 2.295
78.34000 6.183
78.36000 10.336
78.38000 9.387
78.40000 3.189
78.42000 2.920
78.44000 3.682
78.46000 2.485
78.48000 -0.826
78.50000 2.550
78.52000 -0.218
78.54000 3.805
78.56000 4.865
78.58000 5.198
78.60000 3.649
78.62000 0.926
78.64000 6.169
78.66000 6.414
78.68000 1.349
78.70000 6.885
78.72000 7.015
78.74000 9.292
78.76000 5.379
78.78000 -2.380
78.80000 -2.115
78.82000 3.064
78.84000 5.394
78.86000 2.255
78.88000 5.379
78.90000 2.784
78.92000 5.540
78.94000 1.865
78.96000 2.116
78.98000 0.818
79.00000 3.754
79.02000 5.130
79.04000 4.332
79.06000 4.147
79.08000 6.832
79.10000 5.253
79.12000 4.604
79.14000 6.526
79.16000 1.264
79.18000 0.096
79.20000 2.973
79.22000 3.684
79.24000 3.717
79.26000 2.978
79.28000 5.587
79.30000 5.066
79.32000 4.543
79.34000 0.849
79.36000 0.136
79.38000 6.179
79.40000 8.241
79.42000 3.395
79.44000 -2.386
79.46000 0.477
79.48000 2.178
79.50000 6.348
79.52000 6.744
79.54000 6.390
79.56000 4.073
79.58000 4.065
79.60000 2.243
79.62000 8.715
79.64000 8.789
79.66000 6.457
79.68000 4.175
79.70000 4.620
79.72000 3.449
79.74000 4.670
79.76000 2.430
79.78000 0.463
79.80000 -0.919
79.82000 -1.019
79.84000 -2.175
79.86000 0.539
79.88000 3.562
79.90000 5.395
79.92000 2.587
79.94000 5.563
79.96000 5.970
79.98000 8.902
80.00000 5.742
80.02000 10.981
80.04000 8.553
80.06000 3.251
80.08000 4.660
80.10000 4.634
80.12000 3.424
80.14000 5.602
80.16000 4.626
80.18000 2.752
80.20000 5.476
80.22000 7.309
80.24000 5.736
80.26000 7.135
80.28000 8.210
80.30000 3.397
80.32000 -0.327
80.34000 -0.156
80.36000 0.272
80.38000 2.484
80.40000 6.056
80.42000 3.483
80.44000 0.869
80.46000 2.588
80.48000 4.437
80.50000 1.265
80.52000 -0.922
80.54000 2.840
80.56000 5.447
80.58000 5.960
80.60000 6.266
80.62000 4.946
80.64000 1.402
80.66000 1.413
80.68000 4.498
80.70000 3.612
80.72000 3.783
80.74000 -2.487
80.76000 -0.119
80.78000 6.366
80.80000 2.383
80.82000 4.196
80.84000 5.923
80.86000 5.462
80.88000 9.517
80.90000 11.453
80.92000 11.045
80.94000 13.429
80.96000 11.055
80.98000 8.439
81.00000 10.175
81.02000 8.702
81.04000 10.765
81.06000 7.361
81.08000 12.193
81.10000 12.269
81.12000 7.209
81.14000 4.725
81.16000 3.619
81.18000 6.881
81.20000 9.517
81.22000 7.724
81.24000 7.548
81.26000 9.277
81.28000 8.220
81.30000 8.000
81.32000 6.079
81.34000 5.295
81.36000 9.585
81.38000 9.977
81.40000 10.121
81.42000 12.928
81.44000 13.787
81.46000 13.485
81.48000 11.695
81.50000 10.684
81.52000 11.231
81.54000 12.025
81.56000 7.493
81.58000 6.875
81.60000 7.492
81.62000 13.028
81.64000 12.474
81.66000 11.961
81.68000 13.889
81.70000 13.824
81.72000 14.274
81.74000 16.492
81.76000 18.541
81.78000 17.525
81.80000 15.162
81.82000 14.072
81.84000 15.597
81.86000 14.500
81.88000 12.094
81.90000 12.943
81.92000 14.793
81.94000 12.158
81.96000 14.684
81.98000 18.636
82.00000 25.237
82.02000 20.348
82.04000 23.241
82.06000 26.354
82.08000 22.811
82.10000 18.569
82.12000 21.940
82.14000 20.865
82.16000 22.420
82.18000 21.202
82.20000 18.400
82.22000 19.468
82.24000 24.443
82.26000 29.297
82.28000 26.817
82.30000 22.779
82.32000 23.338
82.34000 24.455
82.36000 19.412
82.38000 19.270
82.40000 23.323
82.42000 26.687
82.44000 29.960
82.46000 26.542
82.48000 24.464
82.50000 27.689
82.52000 23.036
82.54000 20.765
82.56000 20.566
82.58000 26.929
82.60000 28.213
82.62000 31.116
82.64000 30.037
82.66000 29.730
82.68000 24.715
82.70000 22.094
82.72000 23.354
82.74000 27.726
82.76000 26.628
82.78000 27.068
82.80000 20.556
82.82000 16.573
82.84000 23.051
82.86000 23.122
82.88000 25.494
82.90000 20.543
82.92000 22.127
82.94000 22.929
82.96000 22.295
82.98000 19.663
83.00000 22.989
83.02000 26.437
83.04000 25.523
83.06000 20.723
83.08000 21.601
83.10000 20.840
83.12000 16.043
83.14000 16.208
83.16000 24.091
83.18000 23.444
83.20000 17.823
83.22000 17.475
83.24000 18.966
83.26000 16.095
83.28000 20.763
83.30000 18.983
83.32000 15.491
83.34000 17.909
83.36000 21.364
83.38000 17.541
83.40000 15.927
83.42000 16.154
83.44000 14.908
83.46000 9.514
83.48000 13.328
83.50000 11.686
83.52000 14.773
83.54000 12.161
83.56000 9.866
83.58000 8.334
83.60000 10.502
83.62000 6.536
83.64000 11.119
83.66000 16.486
83.68000 11.991
83.70000 6.779
83.72000 6.356
83.74000 8.651
83.76000 9.008
83.78000 10.022
83.80000 7.438
83.82000 8.472
83.84000 6.979
83.86000 6.091
83.88000 4.819
83.90000 11.797
83.92000 7.170
83.94000 0.985
83.96000 2.075
83.98000 5.413
84.00000 5.629
84.02000 4.464
84.04000 3.632
84.06000 0.940
84.08000 -0.819
84.10000 2.944
84.12000 7.006
84.14000 7.270
84.16000 3.659
84.18000 1.481
84.20000 3.854
84.22000 1.248
84.24000 -1.040
84.26000 -2.496
84.28000 1.244
84.30000 7.906
84.32000 7.185
84.34000 3.885
84.36000 2.356
84.38000 -0.322
84.40000 0.013
84.42000 5.603
84.44000 6.464
84.46000 9.938
84.48000 2.444
84.50000 3.524
84.52000 3.151
84.54000 3.556
84.56000 2.223
84.58000 7.763
84.60000 0.996
84.62000 2.177
84.64000 2.084
84.66000 4.284
84.68000 9.155
84.70000 2.283
84.72000 1.344
84.74000 4.919
84.76000 6.629
84.78000 8.420
84.80000 4.689
84.82000 0.815
84.84000 2.034
84.86000 4.578
84.88000 2.857
84.90000 3.269
84.92000 2.218
84.94000 6.743
84.96000 3.451
84.98000 -1.084
85.00000 -2.418
85.02000 1.374
85.04000 0.445
85.06000 2.584
85.08000 9.442
85.10000 6.183
85.12000 2.066
85.14000 1.785
85.16000 6.164
85.18000 5.010
85.20000 2.807
85.22000 1.744
85.24000 4.820
85.26000 6.853
85.28000 4.958
85.30000 3.492
85.32000 3.574
85.34000 5.027
85.36000 7.427
85.38000 5.306
85.40000 8.458
85.42000 8.488
85.44000 9.082
85.46000 4.017
85.48000 4.313
85.50000 6.743
85.52000 5.242
85.54000 4.752
85.56000 -0.638
85.58000 4.572
85.60000 6.717
85.62000 6.043
85.64000 6.140
85.66000 6.494
85.68000 3.893
85.70000 3.068
85.72000 3.329
85.74000 7.040
85.76000 8.293
85.78000 2.146
85.80000 2.954
85.82000 8.258
85.84000 10.894
85.86000 12.245
85.88000 8.963
85.90000 9.112
85.92000 10.858
85.94000 8.247
85.96000 3.420
85.98000 7.986
86.00000 9.042
86.02000 8.216
86.04000 5.458
86.06000 7.791
86.08000 4.546
86.10000 7.653
86.12000 11.432
86.14000 11.875
86.16000 11.611
86.18000 11.074
86.20000 7.476
86.22000 10.546
86.24000 13.000
86.26000 15.116
86.28000 18.012
86.30000 15.965
86.32000 9.366
86.34000 16.313
86.36000 14.059
86.38000 13.646
86.40000 14.371
86.42000 10.726
86.44000 11.993
86.46000 9.388
86.48000 17.174
86.50000 17.186
86.52000 15.575
86.54000 20.322
86.56000 20.251
86.58000 18.866
86.60000 22.496
86.62000 24.284
86.64000 21.248
86.66000 26.510
86.68000 23.582
86.70000 18.809
86.72000 25.340
86.74000 25.339
86.76000 21.539
86.78000 22.047
86.80000 23.066
86.82000 27.218
86.84000 21.861
86.86000 18.598
86.88000 19.871
86.90000 22.349
86.92000 22.689
86.94000 24.576
86.96000 23.477
86.98000 25.314
87.00000 29.887
87.02000 31.220
87.04000 27.400
87.06000 24.019
87.08000 22.099
87.10000 25.793
87.12000 23.613
87.14000 28.369
87.16000 28.003
87.18000 25.509
87.20000 24.913
87.22000 27.171
87.24000 23.787
87.26000 21.477
87.28000 26.325
87.30000 23.162
87.32000 18.954
87.34000 16.445
87.36000 14.415
87.38000 12.241
87.40000 16.423
87.42000 17.076
87.44000 18.815
87.46000 20.705
87.48000 13.970
87.50000 10.879
87.52000 14.909
87.54000 11.259
87.56000 12.884
87.58000 15.142
87.60000 16.721
87.62000 13.940
87.64000 13.281
87.66000 12.571
87.68000 12.486
87.70000 11.684
87.72000 11.557
87.74000 9.506
87.76000 12.343
87.78000 12.519
87.80000 7.538
87.82000 9.568
87.84000 9.319
87.86000 8.277
87.88000 7.604
87.90000 8.199
87.92000 9.860
87.94000 9.588
87.96000 10.863
87.98000 5.922
88.00000 7.318
88.02000 5.610
88.04000 3.052
88.06000 2.689
88.08000 7.748
88.10000 6.181
88.12000 2.818
88.14000 5.579
88.16000 6.248
88.18000 4.644
88.20000 5.572
88.22000 4.712
88.24000 0.209
88.26000 1.564
88.28000 7.322
88.30000 4.446
88.32000 -1.528
88.34000 -2.376
88.36000 6.301
88.38000 11.355
88.40000 5.327
88.42000 0.912
88.44000 -0.147
88.46000 -0.617
88.48000 -0.769
88.50000 2.681
88.52000 4.170
88.54000 0.072
88.56000 2.595
88.58000 5.048
88.60000 0.230
88.62000 -0.216
88.64000 -0.695
88.66000 1.825
88.68000 2.902
88.70000 3.241
88.72000 0.128
88.74000 0.736
88.76000 -0.418
88.78000 -1.169
88.80000 -1.424
88.82000 5.487
88.84000 3.081
88.86000 1.513
88.88000 4.977
88.90000 0.601
88.92000 1.174
88.94000 1.759
88.96000 -2.295
88.98000 -2.028
89.00000 1.002
89.02000 6.321
89.04000 6.764
89.06000 2.220
89.08000 0.220
89.10000 -1.058
89.12000 1.447
89.14000 2.066
89.16000 2.578
89.18000 3.010
89.20000 -0.624
89.22000 0.950
89.24000 1.353
89.26000 2.644
89.28000 1.275
89.30000 -1.007
89.32000 -0.805
89.34000 -1.499
89.36000 -1.829
89.38000 1.627
89.40000 4.774
89.42000 5.050
89.44000 1.723
89.46000 0.578
89.48000 3.679
89.50000 3.267
89.52000 4.694
89.54000 2.559
89.56000 0.428
89.58000 3.775
89.60000 8.062
89.62000 4.718
89.64000 4.599
89.66000 4.439
89.68000 0.144
89.70000 -0.644
89.72000 3.350
89.74000 3.497
89.76000 4.054
89.78000 5.824
89.80000 5.948
89.82000 -0.039
89.84000 0.583
89.86000 2.573
89.88000 -0.070
89.90000 -1.289
89.92000 -0.778
89.94000 4.295
89.96000 5.553
89.98000 5.120
90.00000 4.047
90.02000 2.437
90.04000 2.425
90.06000 3.848
90.08000 2.120
90.10000 1.920
90.12000 2.352
90.14000 2.236
90.16000 5.174
90.18000 8.194
90.20000 -2.185
90.22000 -0.579
90.24000 2.161
90.26000 3.623
90.28000 1.164
90.30000 4.910
90.32000 7.112
90.34000 5.840
90.36000 5.252
90.38000 3.600
90.40000 5.475
90.42000 -2.188
90.44000 3.583
90.46000 6.682
90.48000 4.821
90.50000 6.701
90.52000 3.980
90.54000 1.341
90.56000 1.462
90.58000 -0.445
90.60000 1.215
90.62000 2.582
90.64000 5.667
90.66000 1.565
90.68000 -0.752
90.70000 3.210
90.72000 3.081
90.74000 7.141
90.76000 7.990
90.78000 3.850
90.80000 3.359
90.82000 5.351
90.84000 7.296
90.86000 6.023
90.88000 -0.034
90.90000 1.126
90.92000 0.294
90.94000 8.108
90.96000 9.826
90.98000 7.287
91.00000 4.266
91.02000 2.996
91.04000 4.936
91.06000 2.308
91.08000 8.545
91.10000 7.474
91.12000 5.189
91.14000 1.025
91.16000 5.206
91.18000 6.855
91.20000 4.670
91.22000 4.382
91.24000 1.412
91.26000 0.891
91.28000 4.226
91.30000 4.333
91.32000 3.410
91.34000 1.868
91.36000 -2.215
91.38000 3.229
91.40000 7.407
91.42000 5.834
91.44000 7.143
91.46000 2.419
91.48000 1.614
91.50000 3.055
91.52000 1.387
91.54000 2.415
91.56000 3.084
91.58000 4.814
91.60000 4.292
91.62000 0.678
91.64000 1.942
91.66000 3.206
91.68000 4.184
91.70000 3.087
91.72000 2.047
91.74000 5.850
91.76000 8.820
91.78000 6.407
91.80000 3.245
91.82000 7.572
91.84000 10.208
91.86000 5.295
91.88000 5.203
91.90000 3.151
91.92000 2.359
91.94000 4.400
91.96000 6.733
91.98000 4.723
92.00000 8.837
92.02000 4.249
92.04000 4.112
92.06000 5.958
92.08000 3.477
92.10000 3.250
92.12000 3.339
92.14000 0.776
92.16000 4.049
92.18000 3.800
92.20000 8.403
92.22000 2.499
92.24000 1.122
92.26000 9.584
92.28000 4.036
92.30000 -2.136
92.32000 0.024
92.34000 5.613
92.36000 2.886
92.38000 3.182
92.40000 0.294
92.42000 1.659
92.44000 5.610
92.46000 2.905
92.48000 1.772
92.50000 1.353
92.52000 -1.361
92.54000 1.429
92.56000 3.664
92.58000 1.566
92.60000 2.011
92.62000 1.846
92.64000 3.518
92.66000 4.790
92.68000 6.647
92.70000 6.515
92.72000 8.877
92.74000 10.736
92.76000 8.475
92.78000 -1.089
92.80000 -2.223
92.82000 2.746
92.84000 1.322
92.86000 2.704
92.88000 6.071
92.90000 5.727
92.92000 1.759
92.94000 -1.232
92.96000 1.731
92.98000 5.328
93.00000 -0.730
93.02000 0.521
93.04000 6.711
93.06000 7.641
93.08000 4.623
93.10000 3.358
93.12000 4.590
93.14000 3.857
93.16000 -0.738
93.18000 -1.161
93.20000 5.060
93.22000 3.100
93.24000 2.263
93.26000 1.225
93.28000 6.880
93.30000 5.497
93.32000 -0.125
93.34000 -1.588
93.36000 3.078
93.38000 1.819
93.40000 5.153
93.42000 2.904
93.44000 -2.224
93.46000 -0.840
93.48000 -0.107
93.50000 5.330
93.52000 1.677
93.54000 -1.268
93.56000 -1.097
93.58000 2.674
93.60000 6.463
93.62000 10.987
93.64000 4.699
93.66000 6.195
93.68000 6.776
93.70000 5.179
93.72000 4.508
93.74000 9.850
93.76000 2.419
93.78000 -2.234
93.80000 -0.258
93.82000 0.278
93.84000 0.784
93.86000 1.449
93.88000 -1.237
93.90000 1.950
93.92000 1.469
93.94000 -2.237
93.96000 -2.238
93.98000 -0.246
94.00000 3.351
94.02000 6.350
94.04000 8.512
94.06000 7.419
94.08000 4.744
94.10000 3.631
94.12000 5.117
94.14000 5.565
94.16000 2.059
94.18000 2.981
94.20000 0.849
94.22000 -0.173
94.24000 1.790
94.26000 1.496
94.28000 0.783
94.30000 3.184
94.32000 4.215
94.34000 4.589
94.36000 10.460
94.38000 6.011
94.40000 3.627
94.42000 4.558
94.44000 3.250
94.46000 4.669
94.48000 6.236
94.50000 6.106
94.52000 2.131
94.54000 2.152
94.56000 3.464
94.58000 3.507
94.60000 3.721
94.62000 3.009
94.64000 4.294
94.66000 5.414
94.68000 4.138
94.70000 -2.251
94.72000 -1.269
94.74000 5.929
94.76000 2.689
94.78000 2.295
94.80000 4.786
94.82000 6.278
94.84000 4.249
94.86000 2.652
94.88000 3.606
94.90000 2.820
94.92000 4.467
94.94000 5.259
94.96000 7.549
94.98000 6.721
95.00000 4.300
95.02000 3.318
95.04000 -0.803
95.06000 0.013
95.08000 2.056
95.10000 7.171
95.12000 7.673
95.14000 7.597
95.16000 2.911
95.18000 2.617
95.20000 3.200
95.22000 6.613
95.24000 8.983
95.26000 8.731
95.28000 2.925
95.30000 4.654
95.32000 0.893
95.34000 -2.233
95.36000 3.209
95.38000 7.795
95.40000 6.651
95.42000 1.307
95.44000 -1.419
95.46000 -0.083
95.48000 3.840
95.50000 4.372
95.52000 2.612
95.54000 4.612
95.56000 7.296
95.58000 3.656
95.60000 3.097
95.62000 1.253
95.64000 5.089
95.66000 2.940
95.68000 4.415
95.70000 -0.882
95.72000 -0.924
95.74000 2.656
95.76000 7.511
95.78000 5.742
95.80000 3.215
95.82000 3.299
95.84000 6.872
95.86000 13.397
95.88000 8.825
95.90000 3.014
95.92000 7.369
95.94000 7.511
95.96000 5.715
95.98000 3.099
96.00000 9.289
96.02000 11.036
96.04000 7.386
96.06000 3.355
96.08000 1.181
96.10000 4.261
96.12000 5.803
96.14000 7.634
96.16000 2.005
96.18000 4.988
96.20000 0.690
96.22000 -0.488
96.24000 -2.241
96.26000 0.687
96.28000 5.121
96.30000 0.463
96.32000 5.043
96.34000 6.289
96.36000 0.534
96.38000 2.071
96.40000 5.056
96.42000 2.416
96.44000 7.705
96.46000 8.278
96.48000 5.821
96.50000 1.969
96.52000 5.981
96.54000 11.239
96.56000 4.318
96.58000 -1.848
96.60000 5.484
96.62000 6.149
96.64000 6.983
96.66000 4.621
96.68000 2.705
96.70000 -0.360
96.72000 5.835
96.74000 11.090
96.76000 10.858
96.78000 4.417
96.80000 1.624
96.82000 -0.634
96.84000 4.398
96.86000 5.749
96.88000 6.030
96.90000 5.718
96.92000 4.202
96.94000 5.128
96.96000 -0.878
96.98000 0.317
97.00000 7.231
97.02000 4.527
97.04000 8.540
97.06000 5.953
97.08000 4.504
97.10000 4.370
97.12000 3.948
97.14000 1.535
97.16000 3.110
97.18000 6.313
97.20000 0.934
97.22000 -1.999
97.24000 4.803
97.26000 7.215
97.28000 4.978
97.30000 0.288
97.32000 -2.198
97.34000 0.385
97.36000 9.416
97.38000 8.265
97.40000 8.756
97.42000 5.796
97.44000 5.699
97.46000 1.573
97.48000 6.518
97.50000 3.976
97.52000 3.747
97.54000 6.056
97.56000 6.705
97.58000 4.035
97.60000 2.536
97.62000 3.128
97.64000 2.118
97.66000 -0.668
97.68000 7.957
97.70000 4.968
97.72000 0.858
97.74000 3.455
97.76000 6.619
97.78000 6.143
97.80000 -0.505
97.82000 0.244
97.84000 1.361
97.86000 4.697
97.88000 6.737
97.90000 5.862
97.92000 7.464
97.94000 4.443
97.96000 7.550
97.98000 4.026
98.00000 4.479
98.02000 6.620
98.04000 7.394
98.06000 10.395
98.08000 2.907
98.10000 4.810
98.12000 7.837
98.14000 0.893
98.16000 0.628
98.18000 3.242
98.20000 -0.792
98.22000 8.151
98.24000 9.761
98.26000 5.710
98.28000 4.043
98.30000 6.992
98.32000 3.515
98.34000 11.412
98.36000 10.124
98.38000 3.918
98.40000 3.449
98.42000 5.532
98.44000 4.419
98.46000 8.249
98.48000 7.782
98.50000 5.154
98.52000 9.751
98.54000 3.913
98.56000 7.220
98.58000 2.668
98.60000 8.400
98.62000 11.172
98.64000 13.918
98.66000 13.907
98.68000 5.193
98.70000 -1.212
98.72000 -2.156
98.74000 1.275
98.76000 5.799
98.78000 8.898
98.80000 16.715
98.82000 11.044
98.84000 4.006
98.86000 2.289
98.88000 5.642
98.90000 7.690
98.92000 17.877
98.94000 17.802
98.96000 8.556
98.98000 10.230
99.00000 12.217
99.02000 4.500
99.04000 7.013
99.06000 7.938
99.08000 11.557
99.10000 1.759
99.12000 6.462
99.14000 4.145
99.16000 6.020
99.18000 7.891
99.20000 7.282
99.22000 8.148
99.24000 11.488
99.26000 7.859
99.28000 7.027
99.30000 9.906
99.32000 6.102
99.34000 5.145
99.36000 6.111
99.38000 1.786
99.40000 4.470
99.42000 3.058
99.44000 7.069
99.46000 17.742
99.48000 12.445
99.50000 7.897
99.52000 5.526
99.54000 12.171
99.56000 8.075
99.58000 17.448
99.60000 11.133
99.62000 2.967
99.64000 -0.415
99.66000 15.223
99.68000 5.679
99.70000 5.613
99.72000 11.241
99.74000 15.981
99.76000 11.686
99.78000 9.634
99.80000 13.187
99.82000 16.775
99.84000 13.094
99.86000 7.915
99.88000 -3.147
99.90000 -0.020
99.92000 2.766
99.94000 6.148
99.96000 5.630
99.98000 0.000
