'Id: "0011389" Comment: "Integrate frame 0011389_Au-Ir-Rh_Au-Rich_XRD_Mapping-324-0000.gfrmwith cursor Wedge Cursor #5" Operator: "B?rgel" Anode: "Cu" Wavelength: "1.5406" Scantype: "2Theta (TwoTheta)" TimePerStep: "1" X: "-22.5" Y: "40.5" Z: "5.95" 
10.00000 0.000
10.02000 -4.689
10.04000 -2.479
10.06000 -2.225
10.08000 17.023
10.10000 30.515
10.12000 20.545
10.14000 2.907
10.16000 12.525
10.18000 -4.549
10.20000 -4.640
10.22000 6.134
10.24000 -0.280
10.26000 8.282
10.28000 11.578
10.30000 7.387
10.32000 14.046
10.34000 -3.720
10.36000 -4.603
10.38000 13.910
10.40000 21.853
10.42000 31.834
10.44000 24.341
10.46000 24.055
10.48000 24.653
10.50000 13.966
10.52000 17.718
10.54000 15.696
10.56000 10.397
10.58000 14.659
10.60000 23.542
10.62000 19.689
10.64000 27.356
10.66000 10.061
10.68000 5.612
10.70000 6.799
10.72000 4.032
10.74000 15.962
10.76000 3.181
10.78000 20.500
10.80000 30.550
10.82000 11.103
10.84000 8.926
10.86000 2.725
10.88000 20.874
10.90000 28.760
10.92000 24.300
10.94000 21.906
10.96000 11.738
10.98000 11.891
11.00000 22.276
11.02000 17.435
11.04000 18.632
11.06000 4.910
11.08000 5.704
11.10000 19.975
11.12000 12.699
11.14000 9.875
11.16000 19.680
11.18000 6.700
11.20000 5.272
11.22000 9.215
11.24000 20.666
11.26000 22.941
11.28000 16.783
11.30000 17.191
11.32000 13.524
11.34000 13.284
11.36000 15.976
11.38000 8.915
11.40000 4.544
11.42000 13.282
11.44000 20.844
11.46000 20.581
11.48000 -3.625
11.50000 -4.542
11.52000 16.249
11.54000 20.875
11.56000 22.019
11.58000 18.526
11.60000 15.974
11.62000 21.709
11.64000 1.529
11.66000 -4.332
11.68000 -4.544
11.70000 10.927
11.72000 24.120
11.74000 18.392
11.76000 12.454
11.78000 19.447
11.80000 22.753
11.82000 6.969
11.84000 13.073
11.86000 16.002
11.88000 31.865
11.90000 33.526
11.92000 22.412
11.94000 23.244
11.96000 24.179
11.98000 4.390
12.00000 15.836
12.02000 10.195
12.04000 6.933
12.06000 20.438
12.08000 18.382
12.10000 15.851
12.12000 6.563
12.14000 -2.414
12.16000 6.981
12.18000 24.195
12.20000 12.155
12.22000 4.207
12.24000 12.241
12.26000 18.371
12.28000 13.951
12.30000 16.787
12.32000 10.022
12.34000 16.331
12.36000 9.053
12.38000 10.384
12.40000 9.622
12.42000 10.203
12.44000 12.334
12.46000 12.083
12.48000 14.738
12.50000 9.474
12.52000 13.341
12.54000 19.970
12.56000 22.850
12.58000 13.816
12.60000 7.592
12.62000 5.022
12.64000 10.404
12.66000 11.380
12.68000 9.892
12.70000 10.953
12.72000 10.686
12.74000 3.960
12.76000 1.402
12.78000 7.810
12.80000 11.176
12.82000 12.561
12.84000 10.675
12.86000 4.993
12.88000 7.202
12.90000 14.895
12.92000 6.623
12.94000 10.145
12.96000 19.523
12.98000 9.971
13.00000 1.285
13.02000 10.595
13.04000 15.114
13.06000 8.567
13.08000 10.941
13.10000 3.195
13.12000 8.172
13.14000 0.131
13.16000 10.452
13.18000 8.949
13.20000 12.270
13.22000 10.232
13.24000 3.453
13.26000 1.835
13.28000 8.749
13.30000 12.991
13.32000 14.108
13.34000 9.323
13.36000 11.887
13.38000 7.108
13.40000 11.039
13.42000 8.979
13.44000 3.596
13.46000 5.607
13.48000 -0.272
13.50000 -4.572
13.52000 5.836
13.54000 11.733
13.56000 3.192
13.58000 14.542
13.60000 12.758
13.62000 12.559
13.64000 12.259
13.66000 11.613
13.68000 3.368
13.70000 5.306
13.72000 1.228
13.74000 3.879
13.76000 8.467
13.78000 3.649
13.80000 2.849
13.82000 8.948
13.84000 0.320
13.86000 3.637
13.88000 3.406
13.90000 8.426
13.92000 13.013
13.94000 9.834
13.96000 8.139
13.98000 9.300
14.00000 5.760
14.02000 3.771
14.04000 7.806
14.06000 6.662
14.08000 3.366
14.10000 6.702
14.12000 8.259
14.14000 9.321
14.16000 4.001
14.18000 0.854
14.20000 -0.761
14.22000 6.471
14.24000 14.373
14.26000 8.403
14.28000 3.366
14.30000 10.961
14.32000 10.012
14.34000 13.797
14.36000 14.177
14.38000 1.625
14.40000 2.154
14.42000 11.055
14.44000 12.967
14.46000 12.538
14.48000 14.745
14.50000 5.830
14.52000 2.421
14.54000 7.727
14.56000 3.674
14.58000 1.975
14.60000 3.383
14.62000 16.349
14.64000 11.694
14.66000 1.355
14.68000 -2.226
14.70000 2.616
14.72000 2.591
14.74000 0.055
14.76000 9.310
14.78000 10.510
14.80000 10.766
14.82000 5.724
14.84000 -0.964
14.86000 5.518
14.88000 5.822
14.90000 -4.527
14.92000 -0.588
14.94000 3.766
14.96000 -2.063
14.98000 5.819
15.00000 10.828
15.02000 13.296
15.04000 6.320
15.06000 6.483
15.08000 8.963
15.10000 8.361
15.12000 0.920
15.14000 -4.519
15.16000 6.822
15.18000 6.872
15.20000 11.089
15.22000 10.630
15.24000 10.261
15.26000 8.841
15.28000 10.466
15.30000 6.998
15.32000 7.000
15.34000 9.471
15.36000 13.792
15.38000 10.511
15.40000 4.352
15.42000 5.539
15.44000 10.824
15.46000 12.272
15.48000 9.652
15.50000 8.926
15.52000 10.372
15.54000 12.045
15.56000 13.467
15.58000 9.420
15.60000 8.467
15.62000 5.549
15.64000 2.714
15.66000 8.438
15.68000 1.145
15.70000 -0.873
15.72000 7.820
15.74000 3.951
15.76000 8.286
15.78000 9.856
15.80000 5.542
15.82000 3.556
15.84000 1.831
15.86000 0.207
15.88000 -3.664
15.90000 0.021
15.92000 -0.063
15.94000 3.349
15.96000 5.078
15.98000 -0.391
16.00000 -2.939
16.02000 3.666
16.04000 1.155
16.06000 5.194
16.08000 0.247
16.10000 -1.945
16.12000 4.724
16.14000 2.775
16.16000 -1.331
16.18000 4.967
16.20000 6.161
16.22000 10.153
16.24000 11.053
16.26000 8.306
16.28000 6.975
16.30000 3.192
16.32000 8.553
16.34000 9.464
16.36000 7.378
16.38000 3.510
16.40000 2.492
16.42000 1.127
16.44000 3.463
16.46000 4.938
16.48000 4.361
16.50000 2.225
16.52000 9.844
16.54000 3.368
16.56000 5.527
16.58000 4.575
16.60000 -4.469
16.62000 6.178
16.64000 11.339
16.66000 6.313
16.68000 -0.062
16.70000 0.941
16.72000 6.075
16.74000 10.880
16.76000 13.373
16.78000 5.627
16.80000 -0.110
16.82000 7.630
16.84000 7.930
16.86000 5.704
16.88000 0.357
16.90000 2.296
16.92000 3.137
16.94000 5.294
16.96000 1.061
16.98000 4.118
17.00000 9.171
17.02000 10.456
17.04000 13.175
17.06000 11.898
17.08000 7.999
17.10000 4.290
17.12000 7.784
17.14000 8.327
17.16000 8.087
17.18000 10.190
17.20000 3.406
17.22000 7.336
17.24000 5.715
17.26000 7.961
17.28000 2.929
17.30000 4.228
17.32000 5.520
17.34000 1.792
17.36000 4.989
17.38000 7.247
17.40000 -1.265
17.42000 8.051
17.44000 9.656
17.46000 9.233
17.48000 4.578
17.50000 2.142
17.52000 0.548
17.54000 3.988
17.56000 8.018
17.58000 14.746
17.60000 4.040
17.62000 2.444
17.64000 7.942
17.66000 11.197
17.68000 10.474
17.70000 3.933
17.72000 0.760
17.74000 5.517
17.76000 7.734
17.78000 4.487
17.80000 -4.402
17.82000 -0.682
17.84000 4.071
17.86000 4.720
17.88000 6.107
17.90000 10.774
17.92000 5.752
17.94000 1.354
17.96000 -1.360
17.98000 0.670
18.00000 -3.597
18.02000 -0.209
18.04000 6.830
18.06000 9.497
18.08000 7.543
18.10000 7.305
18.12000 7.871
18.14000 12.125
18.16000 9.460
18.18000 11.461
18.20000 4.902
18.22000 1.033
18.24000 6.092
18.26000 -1.364
18.28000 1.920
18.30000 5.823
18.32000 7.042
18.34000 10.064
18.36000 0.289
18.38000 -4.360
18.40000 4.443
18.42000 2.055
18.44000 1.018
18.46000 0.472
18.48000 1.399
18.50000 -0.200
18.52000 2.593
18.54000 5.635
18.56000 10.082
18.58000 9.392
18.60000 1.369
18.62000 0.399
18.64000 8.988
18.66000 9.589
18.68000 6.923
18.70000 3.247
18.72000 5.353
18.74000 7.576
18.76000 7.309
18.78000 11.393
18.80000 10.253
18.82000 11.182
18.84000 10.225
18.86000 4.769
18.88000 7.526
18.90000 1.730
18.92000 -3.063
18.94000 1.600
18.96000 0.597
18.98000 0.789
19.00000 11.889
19.02000 11.211
19.04000 7.986
19.06000 8.397
19.08000 4.915
19.10000 1.266
19.12000 0.637
19.14000 -2.095
19.16000 1.297
19.18000 5.884
19.20000 2.319
19.22000 4.436
19.24000 9.690
19.26000 4.417
19.28000 -4.269
19.30000 -4.304
19.32000 9.527
19.34000 12.312
19.36000 6.340
19.38000 1.272
19.40000 1.727
19.42000 5.649
19.44000 9.341
19.46000 5.164
19.48000 5.385
19.50000 5.682
19.52000 8.183
19.54000 8.811
19.56000 10.067
19.58000 10.879
19.60000 7.686
19.62000 -4.281
19.64000 -0.690
19.66000 1.666
19.68000 2.193
19.70000 -3.127
19.72000 4.974
19.74000 6.424
19.76000 6.741
19.78000 6.352
19.80000 0.957
19.82000 2.445
19.84000 7.378
19.86000 2.833
19.88000 1.464
19.90000 3.183
19.92000 1.396
19.94000 4.483
19.96000 4.300
19.98000 8.298
20.00000 3.949
20.02000 4.566
20.04000 8.763
20.06000 6.759
20.08000 4.358
20.10000 6.159
20.12000 -0.176
20.14000 4.478
20.16000 4.581
20.18000 9.526
20.20000 3.704
20.22000 -2.717
20.24000 0.877
20.26000 3.945
20.28000 10.633
20.30000 3.429
20.32000 5.148
20.34000 -0.041
20.36000 -1.849
20.38000 2.036
20.40000 6.773
20.42000 6.450
20.44000 7.293
20.46000 10.329
20.48000 6.821
20.50000 4.319
20.52000 6.314
20.54000 6.776
20.56000 -0.451
20.58000 8.147
20.60000 9.207
20.62000 7.521
20.64000 -0.819
20.66000 3.087
20.68000 2.191
20.70000 -4.197
20.72000 2.207
20.74000 9.263
20.76000 6.446
20.78000 5.666
20.80000 7.145
20.82000 6.707
20.84000 6.101
20.86000 11.183
20.88000 8.178
20.90000 9.104
20.92000 5.952
20.94000 -0.101
20.96000 3.172
20.98000 -1.945
21.00000 0.490
21.02000 -0.719
21.04000 2.882
21.06000 9.867
21.08000 5.162
21.10000 7.650
21.12000 7.195
21.14000 6.685
21.16000 8.851
21.18000 9.084
21.20000 5.718
21.22000 2.305
21.24000 1.977
21.26000 2.757
21.28000 7.722
21.30000 12.376
21.32000 10.199
21.34000 9.996
21.36000 6.001
21.38000 0.919
21.40000 -3.909
21.42000 -1.816
21.44000 1.083
21.46000 3.728
21.48000 8.641
21.50000 3.872
21.52000 3.605
21.54000 11.076
21.56000 5.362
21.58000 4.425
21.60000 6.884
21.62000 8.164
21.64000 4.996
21.66000 6.800
21.68000 7.453
21.70000 4.008
21.72000 5.304
21.74000 2.098
21.76000 5.202
21.78000 7.862
21.80000 7.725
21.82000 1.982
21.84000 2.161
21.86000 -0.577
21.88000 -0.789
21.90000 4.662
21.92000 4.794
21.94000 7.989
21.96000 7.781
21.98000 9.415
22.00000 8.514
22.02000 8.742
22.04000 3.531
22.06000 7.066
22.08000 1.241
22.10000 0.094
22.12000 1.004
22.14000 -0.094
22.16000 12.369
22.18000 14.917
22.20000 9.763
22.22000 7.184
22.24000 11.229
22.26000 6.850
22.28000 0.050
22.30000 -3.720
22.32000 3.473
22.34000 4.422
22.36000 5.305
22.38000 3.584
22.40000 2.466
22.42000 8.210
22.44000 7.251
22.46000 9.020
22.48000 6.359
22.50000 3.765
22.52000 6.629
22.54000 12.090
22.56000 9.929
22.58000 8.979
22.60000 6.981
22.62000 7.800
22.64000 8.681
22.66000 12.102
22.68000 9.803
22.70000 -3.648
22.72000 -4.080
22.74000 -0.684
22.76000 2.027
22.78000 4.922
22.80000 1.305
22.82000 1.004
22.84000 4.987
22.86000 1.317
22.88000 1.684
22.90000 2.247
22.92000 5.067
22.94000 5.156
22.96000 -3.389
22.98000 -2.948
23.00000 3.423
23.02000 0.386
23.04000 -1.003
23.06000 6.854
23.08000 14.260
23.10000 8.793
23.12000 2.556
23.14000 2.514
23.16000 2.990
23.18000 1.072
23.20000 -2.589
23.22000 -2.230
23.24000 0.565
23.26000 5.602
23.28000 3.133
23.30000 0.839
23.32000 -0.251
23.34000 -0.159
23.36000 6.128
23.38000 2.322
23.40000 7.705
23.42000 7.275
23.44000 8.111
23.46000 7.763
23.48000 7.688
23.50000 5.760
23.52000 1.707
23.54000 3.239
23.56000 3.266
23.58000 5.946
23.60000 4.281
23.62000 0.526
23.64000 7.345
23.66000 9.796
23.68000 6.093
23.70000 1.043
23.72000 0.477
23.74000 1.075
23.76000 -1.792
23.78000 4.733
23.80000 6.020
23.82000 5.228
23.84000 7.586
23.86000 -0.007
23.88000 -1.296
23.90000 6.439
23.92000 2.858
23.94000 0.996
23.96000 3.528
23.98000 4.739
24.00000 1.443
24.02000 -0.208
24.04000 -0.479
24.06000 2.088
24.08000 1.180
24.10000 3.490
24.12000 3.488
24.14000 5.019
24.16000 8.030
24.18000 1.297
24.20000 -0.132
24.22000 1.669
24.24000 0.451
24.26000 -3.078
24.28000 3.339
24.30000 2.385
24.32000 2.696
24.34000 2.972
24.36000 -1.321
24.38000 -1.881
24.40000 3.091
24.42000 3.610
24.44000 -1.572
24.46000 -4.018
24.48000 -3.181
24.50000 -1.402
24.52000 -0.638
24.54000 0.129
24.56000 4.158
24.58000 6.137
24.60000 5.512
24.62000 0.830
24.64000 7.019
24.66000 5.212
24.68000 0.887
24.70000 0.088
24.72000 -0.264
24.74000 -1.720
24.76000 -3.774
24.78000 0.507
24.80000 2.486
24.82000 -0.834
24.84000 -3.993
24.86000 3.156
24.88000 7.998
24.90000 12.929
24.92000 6.117
24.94000 0.920
24.96000 2.460
24.98000 10.036
25.00000 7.970
25.02000 4.544
25.04000 4.062
25.06000 5.394
25.08000 6.528
25.10000 2.231
25.12000 6.346
25.14000 9.547
25.16000 10.650
25.18000 4.676
25.20000 1.260
25.22000 7.450
25.24000 5.167
25.26000 1.400
25.28000 -1.835
25.30000 1.069
25.32000 -1.057
25.34000 2.974
25.36000 5.412
25.38000 3.251
25.40000 4.778
25.42000 2.576
25.44000 2.233
25.46000 1.979
25.48000 3.378
25.50000 0.333
25.52000 -2.135
25.54000 -1.842
25.56000 -1.463
25.58000 -0.940
25.60000 7.149
25.62000 4.733
25.64000 -1.247
25.66000 6.684
25.68000 9.276
25.70000 -0.304
25.72000 1.784
25.74000 -0.173
25.76000 -0.196
25.78000 4.537
25.80000 7.998
25.82000 -0.528
25.84000 -3.928
25.86000 -1.299
25.88000 -1.590
25.90000 3.571
25.92000 6.345
25.94000 6.519
25.96000 5.551
25.98000 5.312
26.00000 0.769
26.02000 5.723
26.04000 4.029
26.06000 3.105
26.08000 5.294
26.10000 6.368
26.12000 5.011
26.14000 2.573
26.16000 7.398
26.18000 5.624
26.20000 -1.377
26.22000 -1.944
26.24000 3.358
26.26000 8.199
26.28000 5.383
26.30000 7.406
26.32000 1.748
26.34000 0.380
26.36000 9.417
26.38000 14.263
26.40000 7.304
26.42000 4.241
26.44000 6.081
26.46000 8.559
26.48000 10.261
26.50000 5.373
26.52000 3.547
26.54000 4.745
26.56000 5.762
26.58000 8.454
26.60000 2.764
26.62000 1.884
26.64000 5.487
26.66000 8.359
26.68000 4.614
26.70000 1.813
26.72000 5.673
26.74000 7.942
26.76000 4.298
26.78000 5.177
26.80000 5.859
26.82000 5.912
26.84000 10.342
26.86000 9.861
26.88000 3.065
26.90000 4.453
26.92000 9.187
26.94000 16.068
26.96000 9.856
26.98000 4.510
27.00000 5.911
27.02000 4.144
27.04000 8.083
27.06000 0.837
27.08000 -3.844
27.10000 3.744
27.12000 7.768
27.14000 9.293
27.16000 7.968
27.18000 2.128
27.20000 6.125
27.22000 8.484
27.24000 6.889
27.26000 6.933
27.28000 4.497
27.30000 -0.832
27.32000 8.088
27.34000 9.071
27.36000 4.877
27.38000 1.879
27.40000 2.512
27.42000 2.129
27.44000 -0.766
27.46000 -3.307
27.48000 -1.318
27.50000 0.485
27.52000 4.722
27.54000 8.758
27.56000 8.015
27.58000 8.732
27.60000 4.523
27.62000 7.415
27.64000 6.821
27.66000 7.499
27.68000 3.926
27.70000 3.502
27.72000 4.932
27.74000 7.285
27.76000 1.918
27.78000 1.059
27.80000 2.715
27.82000 8.491
27.84000 4.945
27.86000 6.221
27.88000 0.195
27.90000 -0.036
27.92000 -1.659
27.94000 -0.560
27.96000 5.348
27.98000 8.146
28.00000 2.987
28.02000 0.026
28.04000 -0.801
28.06000 0.250
28.08000 1.968
28.10000 3.115
28.12000 4.314
28.14000 9.198
28.16000 7.529
28.18000 4.568
28.20000 3.863
28.22000 5.100
28.24000 -1.094
28.26000 0.326
28.28000 3.462
28.30000 1.933
28.32000 7.409
28.34000 2.507
28.36000 -2.484
28.38000 1.269
28.40000 3.311
28.42000 1.532
28.44000 -2.128
28.46000 0.626
28.48000 1.469
28.50000 3.071
28.52000 -1.314
28.54000 3.961
28.56000 0.788
28.58000 7.648
28.60000 8.792
28.62000 4.847
28.64000 -2.696
28.66000 -0.530
28.68000 5.614
28.70000 7.257
28.72000 4.088
28.74000 4.524
28.76000 1.978
28.78000 0.003
28.80000 3.708
28.82000 9.247
28.84000 7.473
28.86000 6.766
28.88000 6.514
28.90000 5.414
28.92000 1.635
28.94000 4.111
28.96000 7.276
28.98000 2.561
29.00000 -1.425
29.02000 0.182
29.04000 1.674
29.06000 0.837
29.08000 1.895
29.10000 1.644
29.12000 2.809
29.14000 0.805
29.16000 -1.807
29.18000 1.730
29.20000 3.234
29.22000 5.460
29.24000 7.073
29.26000 10.509
29.28000 4.793
29.30000 5.599
29.32000 7.811
29.34000 2.775
29.36000 -3.536
29.38000 3.265
29.40000 3.442
29.42000 3.477
29.44000 1.054
29.46000 3.591
29.48000 3.260
29.50000 1.111
29.52000 8.616
29.54000 9.166
29.56000 8.961
29.58000 6.865
29.60000 6.477
29.62000 0.637
29.64000 -1.003
29.66000 0.849
29.68000 3.502
29.70000 5.292
29.72000 8.154
29.74000 6.973
29.76000 3.858
29.78000 4.245
29.80000 6.101
29.82000 12.141
29.84000 5.898
29.86000 -1.544
29.88000 -3.711
29.90000 1.555
29.92000 5.716
29.94000 8.099
29.96000 6.423
29.98000 4.029
30.00000 7.402
30.02000 7.887
30.04000 3.209
30.06000 2.086
30.08000 5.020
30.10000 2.170
30.12000 1.943
30.14000 4.577
30.16000 6.352
30.18000 2.094
30.20000 1.202
30.22000 3.015
30.24000 3.511
30.26000 2.313
30.28000 4.092
30.30000 7.997
30.32000 1.695
30.34000 0.025
30.36000 1.887
30.38000 -1.206
30.40000 5.886
30.42000 3.224
30.44000 1.984
30.46000 4.966
30.48000 4.798
30.50000 0.686
30.52000 1.254
30.54000 0.920
30.56000 4.709
30.58000 8.063
30.60000 6.201
30.62000 -0.403
30.64000 -0.661
30.66000 0.037
30.68000 4.261
30.70000 7.736
30.72000 5.826
30.74000 1.152
30.76000 5.899
30.78000 2.054
30.80000 4.003
30.82000 1.878
30.84000 5.046
30.86000 7.017
30.88000 7.521
30.90000 8.812
30.92000 4.393
30.94000 4.282
30.96000 8.089
30.98000 8.460
31.00000 3.099
31.02000 2.652
31.04000 1.910
31.06000 1.053
31.08000 1.721
31.10000 0.860
31.12000 0.802
31.14000 -1.791
31.16000 -0.976
31.18000 2.244
31.20000 1.635
31.22000 1.075
31.24000 5.944
31.26000 4.804
31.28000 0.666
31.30000 4.320
31.32000 0.697
31.34000 -3.669
31.36000 -0.983
31.38000 2.928
31.40000 2.935
31.42000 7.803
31.44000 5.521
31.46000 -1.208
31.48000 3.788
31.50000 3.335
31.52000 7.254
31.54000 3.121
31.56000 2.640
31.58000 4.978
31.60000 5.107
31.62000 2.076
31.64000 3.369
31.66000 4.370
31.68000 3.731
31.70000 2.650
31.72000 5.182
31.74000 4.913
31.76000 2.913
31.78000 6.572
31.80000 8.019
31.82000 6.536
31.84000 4.066
31.86000 4.799
31.88000 4.348
31.90000 2.817
31.92000 2.294
31.94000 7.327
31.96000 10.273
31.98000 10.357
32.00000 8.849
32.02000 4.270
32.04000 1.182
32.06000 2.546
32.08000 3.034
32.10000 -3.641
32.12000 1.025
32.14000 1.660
32.16000 1.761
32.18000 4.340
32.20000 3.128
32.22000 4.652
32.24000 7.762
32.26000 3.909
32.28000 2.789
32.30000 2.564
32.32000 3.220
32.34000 6.950
32.36000 8.171
32.38000 3.740
32.40000 1.086
32.42000 2.949
32.44000 5.098
32.46000 10.067
32.48000 6.477
32.50000 8.482
32.52000 5.351
32.54000 3.324
32.56000 2.813
32.58000 3.566
32.60000 1.684
32.62000 7.164
32.64000 6.275
32.66000 5.539
32.68000 3.071
32.70000 2.409
32.72000 6.407
32.74000 6.473
32.76000 3.690
32.78000 4.501
32.80000 7.292
32.82000 2.569
32.84000 2.534
32.86000 1.145
32.88000 0.948
32.90000 4.806
32.92000 1.394
32.94000 -3.607
32.96000 0.950
32.98000 2.780
33.00000 6.812
33.02000 7.228
33.04000 6.347
33.06000 0.318
33.08000 -0.749
33.10000 2.181
33.12000 -1.680
33.14000 -0.505
33.16000 4.345
33.18000 4.905
33.20000 -0.158
33.22000 5.243
33.24000 3.134
33.26000 -1.770
33.28000 3.701
33.30000 10.173
33.32000 4.727
33.34000 5.087
33.36000 8.899
33.38000 10.941
33.40000 7.755
33.42000 8.352
33.44000 7.242
33.46000 4.462
33.48000 8.824
33.50000 11.640
33.52000 13.708
33.54000 7.615
33.56000 8.476
33.58000 6.342
33.60000 7.494
33.62000 5.353
33.64000 5.104
33.66000 5.783
33.68000 8.658
33.70000 10.842
33.72000 7.715
33.74000 5.823
33.76000 4.683
33.78000 3.644
33.80000 3.015
33.82000 5.019
33.84000 -0.822
33.86000 1.963
33.88000 8.123
33.90000 4.489
33.92000 6.054
33.94000 5.636
33.96000 8.146
33.98000 8.520
34.00000 4.196
34.02000 2.144
34.04000 5.065
34.06000 5.904
34.08000 6.522
34.10000 4.661
34.12000 1.408
34.14000 -1.696
34.16000 -3.603
34.18000 0.974
34.20000 3.737
34.22000 4.434
34.24000 10.084
34.26000 5.979
34.28000 6.810
34.30000 6.689
34.32000 5.947
34.34000 5.995
34.36000 3.045
34.38000 -0.460
34.40000 2.759
34.42000 8.927
34.44000 6.819
34.46000 5.315
34.48000 4.861
34.50000 2.463
34.52000 4.204
34.54000 -0.072
34.56000 2.467
34.58000 4.854
34.60000 4.592
34.62000 0.006
34.64000 -0.844
34.66000 2.742
34.68000 4.779
34.70000 3.320
34.72000 -0.329
34.74000 0.086
34.76000 1.902
34.78000 2.411
34.80000 3.072
34.82000 6.703
34.84000 8.714
34.86000 4.731
34.88000 -3.614
34.90000 -1.129
34.92000 2.647
34.94000 3.804
34.96000 3.951
34.98000 4.884
35.00000 9.060
35.02000 4.687
35.04000 5.329
35.06000 0.439
35.08000 2.975
35.10000 4.349
35.12000 1.902
35.14000 4.482
35.16000 7.858
35.18000 2.374
35.20000 3.378
35.22000 4.543
35.24000 0.097
35.26000 2.603
35.28000 2.350
35.30000 2.546
35.32000 0.273
35.34000 1.531
35.36000 6.171
35.38000 2.478
35.40000 -0.745
35.42000 -2.164
35.44000 -2.114
35.46000 0.510
35.48000 1.562
35.50000 -1.007
35.52000 -3.626
35.54000 5.473
35.56000 4.976
35.58000 2.438
35.60000 3.761
35.62000 0.781
35.64000 1.808
35.66000 2.450
35.68000 2.482
35.70000 3.059
35.72000 3.061
35.74000 1.215
35.76000 -1.219
35.78000 1.341
35.80000 6.826
35.82000 3.317
35.84000 1.198
35.86000 0.927
35.88000 0.611
35.90000 6.373
35.92000 0.541
35.94000 0.167
35.96000 -1.060
35.98000 1.616
36.00000 -0.687
36.02000 -2.046
36.04000 4.683
36.06000 6.161
36.08000 4.260
36.10000 1.660
36.12000 0.299
36.14000 -0.336
36.16000 -3.655
36.18000 0.932
36.20000 8.438
36.22000 6.191
36.24000 4.134
36.26000 3.433
36.28000 2.748
36.30000 3.370
36.32000 4.140
36.34000 4.562
36.36000 7.750
36.38000 7.890
36.40000 6.915
36.42000 2.928
36.44000 4.983
36.46000 11.959
36.48000 7.689
36.50000 2.328
36.52000 4.535
36.54000 6.555
36.56000 5.555
36.58000 7.820
36.60000 8.414
36.62000 8.227
36.64000 6.536
36.66000 9.004
36.68000 7.130
36.70000 10.006
36.72000 4.766
36.74000 2.677
36.76000 8.083
36.78000 8.882
36.80000 13.128
36.82000 13.497
36.84000 11.110
36.86000 7.137
36.88000 9.890
36.90000 12.834
36.92000 9.762
36.94000 10.381
36.96000 12.179
36.98000 16.073
37.00000 16.657
37.02000 15.846
37.04000 12.704
37.06000 18.424
37.08000 20.789
37.10000 18.716
37.12000 20.374
37.14000 18.506
37.16000 20.613
37.18000 19.132
37.20000 21.747
37.22000 20.989
37.24000 16.802
37.26000 19.506
37.28000 20.272
37.30000 22.993
37.32000 22.051
37.34000 27.474
37.36000 23.496
37.38000 23.027
37.40000 22.539
37.42000 20.488
37.44000 25.461
37.46000 27.516
37.48000 27.160
37.50000 22.734
37.52000 26.458
37.54000 33.983
37.56000 30.658
37.58000 31.577
37.60000 30.254
37.62000 36.147
37.64000 34.608
37.66000 32.432
37.68000 31.976
37.70000 29.481
37.72000 28.052
37.74000 35.781
37.76000 37.788
37.78000 45.634
37.80000 45.517
37.82000 42.843
37.84000 44.256
37.86000 44.806
37.88000 43.432
37.90000 42.267
37.92000 43.868
37.94000 45.242
37.96000 53.534
37.98000 60.299
38.00000 60.853
38.02000 62.502
38.04000 60.550
38.06000 61.591
38.08000 68.396
38.10000 66.839
38.12000 73.881
38.14000 79.791
38.16000 82.828
38.18000 83.307
38.20000 82.925
38.22000 91.331
38.24000 95.944
38.26000 102.222
38.28000 109.271
38.30000 115.057
38.32000 126.044
38.34000 136.162
38.36000 149.245
38.38000 154.593
38.40000 167.063
38.42000 176.729
38.44000 182.796
38.46000 195.922
38.48000 201.217
38.50000 213.736
38.52000 232.735
38.54000 243.146
38.56000 246.242
38.58000 255.943
38.60000 262.848
38.62000 272.185
38.64000 275.416
38.66000 278.635
38.68000 284.399
38.70000 281.146
38.72000 290.197
38.74000 283.601
38.76000 283.818
38.78000 283.427
38.80000 276.270
38.82000 264.077
38.84000 260.096
38.86000 253.045
38.88000 243.408
38.90000 242.692
38.92000 228.848
38.94000 216.196
38.96000 208.681
38.98000 198.926
39.00000 183.707
39.02000 176.913
39.04000 167.465
39.06000 159.721
39.08000 146.755
39.10000 138.867
39.12000 129.549
39.14000 121.669
39.16000 116.853
39.18000 116.769
39.20000 108.896
39.22000 104.408
39.24000 95.250
39.26000 89.594
39.28000 86.456
39.30000 85.187
39.32000 77.986
39.34000 71.727
39.36000 70.142
39.38000 65.044
39.40000 59.272
39.42000 59.858
39.44000 53.844
39.46000 56.040
39.48000 57.697
39.50000 48.038
39.52000 46.839
39.54000 49.761
39.56000 49.052
39.58000 45.884
39.60000 36.928
39.62000 31.600
39.64000 36.363
39.66000 34.378
39.68000 34.848
39.70000 35.246
39.72000 34.570
39.74000 34.471
39.76000 32.718
39.78000 30.440
39.80000 23.251
39.82000 23.484
39.84000 20.997
39.86000 24.600
39.88000 26.944
39.90000 25.415
39.92000 23.739
39.94000 22.151
39.96000 25.231
39.98000 24.149
40.00000 23.082
40.02000 20.554
40.04000 23.461
40.06000 24.211
40.08000 20.983
40.10000 18.540
40.12000 22.139
40.14000 20.089
40.16000 16.652
40.18000 15.508
40.20000 15.421
40.22000 14.242
40.24000 10.701
40.26000 12.176
40.28000 9.847
40.30000 9.643
40.32000 17.073
40.34000 13.045
40.36000 9.879
40.38000 10.769
40.40000 11.182
40.42000 8.957
40.44000 9.550
40.46000 11.945
40.48000 13.945
40.50000 13.289
40.52000 8.967
40.54000 9.006
40.56000 8.725
40.58000 9.899
40.60000 13.531
40.62000 13.754
40.64000 6.564
40.66000 5.268
40.68000 0.491
40.70000 -2.710
40.72000 -0.428
40.74000 2.666
40.76000 4.449
40.78000 8.653
40.80000 7.816
40.82000 5.103
40.84000 3.363
40.86000 2.528
40.88000 2.874
40.90000 4.749
40.92000 5.943
40.94000 5.676
40.96000 4.897
40.98000 7.607
41.00000 3.897
41.02000 2.144
41.04000 2.377
41.06000 5.841
41.08000 3.337
41.10000 2.468
41.12000 6.929
41.14000 3.615
41.16000 0.121
41.18000 1.731
41.20000 3.324
41.22000 1.640
41.24000 -1.925
41.26000 -1.612
41.28000 2.020
41.30000 -1.302
41.32000 3.046
41.34000 1.461
41.36000 1.404
41.38000 2.112
41.40000 0.147
41.42000 -1.825
41.44000 -1.069
41.46000 0.166
41.48000 3.957
41.50000 -0.340
41.52000 0.597
41.54000 2.291
41.56000 0.207
41.58000 -0.573
41.60000 -0.205
41.62000 0.818
41.64000 0.440
41.66000 1.320
41.68000 0.516
41.70000 2.894
41.72000 3.221
41.74000 -0.359
41.76000 0.833
41.78000 -3.447
41.80000 -1.635
41.82000 -0.024
41.84000 0.568
41.86000 0.803
41.88000 1.504
41.90000 3.220
41.92000 4.731
41.94000 0.535
41.96000 3.215
41.98000 4.043
42.00000 3.469
42.02000 2.031
42.04000 -0.133
42.06000 1.171
42.08000 2.518
42.10000 -0.477
42.12000 -3.400
42.14000 -0.938
42.16000 3.004
42.18000 4.394
42.20000 3.107
42.22000 1.752
42.24000 1.726
42.26000 0.480
42.28000 -1.517
42.30000 -1.480
42.32000 -0.209
42.34000 -3.251
42.36000 -1.035
42.38000 1.617
42.40000 1.468
42.42000 0.904
42.44000 1.842
42.46000 4.087
42.48000 2.645
42.50000 -0.945
42.52000 0.529
42.54000 -1.282
42.56000 1.934
42.58000 1.342
42.60000 2.570
42.62000 0.529
42.64000 -2.503
42.66000 -3.121
42.68000 -1.971
42.70000 -3.261
42.72000 -1.042
42.74000 0.774
42.76000 4.253
42.78000 2.360
42.80000 0.608
42.82000 -2.806
42.84000 -2.101
42.86000 0.941
42.88000 0.974
42.90000 -0.432
42.92000 1.944
42.94000 1.368
42.96000 1.896
42.98000 -1.597
43.00000 -1.612
43.02000 -1.779
43.04000 -1.653
43.06000 -1.241
43.08000 2.083
43.10000 1.436
43.12000 3.066
43.14000 3.253
43.16000 3.116
43.18000 4.469
43.20000 2.167
43.22000 0.033
43.24000 0.945
43.26000 1.045
43.28000 -2.211
43.30000 -3.283
43.32000 2.136
43.34000 5.397
43.36000 0.663
43.38000 -0.083
43.40000 4.744
43.42000 5.533
43.44000 1.788
43.46000 0.896
43.48000 2.651
43.50000 5.654
43.52000 5.028
43.54000 5.942
43.56000 4.879
43.58000 8.166
43.60000 6.387
43.62000 1.730
43.64000 0.297
43.66000 1.459
43.68000 1.945
43.70000 4.622
43.72000 0.934
43.74000 3.316
43.76000 4.581
43.78000 5.343
43.80000 5.296
43.82000 4.679
43.84000 2.664
43.86000 4.866
43.88000 6.719
43.90000 8.193
43.92000 7.458
43.94000 10.600
43.96000 11.775
43.98000 7.935
44.00000 6.750
44.02000 6.028
44.04000 6.465
44.06000 6.718
44.08000 10.357
44.10000 13.821
44.12000 12.567
44.14000 12.401
44.16000 12.901
44.18000 17.007
44.20000 14.705
44.22000 16.530
44.24000 21.849
44.26000 22.637
44.28000 21.911
44.30000 20.450
44.32000 23.439
44.34000 24.275
44.36000 25.231
44.38000 26.231
44.40000 30.048
44.42000 31.434
44.44000 34.705
44.46000 36.173
44.48000 38.504
44.50000 41.216
44.52000 45.763
44.54000 49.815
44.56000 50.192
44.58000 50.222
44.60000 53.917
44.62000 54.299
44.64000 58.340
44.66000 58.307
44.68000 65.908
44.70000 66.008
44.72000 69.243
44.74000 72.734
44.76000 79.242
44.78000 84.952
44.80000 81.890
44.82000 89.271
44.84000 93.615
44.86000 99.694
44.88000 99.843
44.90000 100.073
44.92000 103.145
44.94000 103.796
44.96000 108.384
44.98000 110.755
45.00000 111.948
45.02000 104.156
45.04000 100.752
45.06000 104.312
45.08000 110.800
45.10000 111.662
45.12000 109.545
45.14000 102.236
45.16000 93.278
45.18000 92.338
45.20000 93.635
45.22000 89.070
45.24000 83.890
45.26000 89.415
45.28000 86.983
45.30000 80.258
45.32000 77.296
45.34000 73.895
45.36000 68.245
45.38000 62.436
45.40000 56.640
45.42000 51.819
45.44000 49.440
45.46000 55.310
45.48000 46.844
45.50000 38.141
45.52000 38.113
45.54000 40.587
45.56000 38.737
45.58000 35.051
45.60000 37.322
45.62000 37.526
45.64000 33.125
45.66000 28.965
45.68000 27.660
45.70000 27.816
45.72000 24.491
45.74000 21.320
45.76000 22.356
45.78000 20.045
45.80000 15.540
45.82000 16.287
45.84000 17.784
45.86000 13.951
45.88000 11.319
45.90000 7.836
45.92000 9.407
45.94000 10.488
45.96000 12.417
45.98000 11.821
46.00000 13.846
46.02000 9.710
46.04000 5.986
46.06000 6.790
46.08000 9.920
46.10000 6.402
46.12000 1.870
46.14000 3.419
46.16000 6.743
46.18000 6.950
46.20000 7.735
46.22000 7.334
46.24000 7.784
46.26000 9.075
46.28000 5.519
46.30000 2.962
46.32000 1.447
46.34000 4.786
46.36000 4.439
46.38000 3.302
46.40000 7.902
46.42000 6.308
46.44000 4.946
46.46000 1.778
46.48000 1.038
46.50000 3.157
46.52000 4.644
46.54000 1.660
46.56000 2.475
46.58000 5.046
46.60000 3.334
46.62000 3.285
46.64000 5.437
46.66000 7.356
46.68000 4.394
46.70000 4.290
46.72000 4.420
46.74000 2.461
46.76000 2.608
46.78000 5.861
46.80000 1.228
46.82000 2.403
46.84000 -2.816
46.86000 -2.876
46.88000 0.055
46.90000 2.811
46.92000 3.383
46.94000 5.836
46.96000 3.013
46.98000 2.077
47.00000 4.334
47.02000 2.230
47.04000 5.296
47.06000 5.564
47.08000 6.698
47.10000 4.936
47.12000 7.289
47.14000 2.475
47.16000 4.123
47.18000 0.138
47.20000 -0.214
47.22000 2.094
47.24000 -0.730
47.26000 -0.846
47.28000 1.108
47.30000 2.252
47.32000 -0.272
47.34000 0.854
47.36000 2.568
47.38000 2.036
47.40000 5.520
47.42000 3.399
47.44000 4.083
47.46000 3.742
47.48000 -1.543
47.50000 -2.059
47.52000 -2.024
47.54000 0.235
47.56000 2.813
47.58000 3.259
47.60000 4.261
47.62000 2.151
47.64000 -1.818
47.66000 3.155
47.68000 4.282
47.70000 2.065
47.72000 4.682
47.74000 1.537
47.76000 -0.011
47.78000 4.148
47.80000 3.527
47.82000 5.197
47.84000 4.562
47.86000 0.025
47.88000 -0.730
47.90000 2.667
47.92000 3.870
47.94000 3.552
47.96000 7.672
47.98000 3.201
48.00000 3.726
48.02000 0.766
48.04000 3.409
48.06000 3.774
48.08000 2.155
48.10000 1.005
48.12000 1.521
48.14000 7.054
48.16000 6.259
48.18000 -2.774
48.20000 -1.785
48.22000 2.891
48.24000 4.844
48.26000 8.815
48.28000 4.583
48.30000 7.479
48.32000 4.107
48.34000 2.375
48.36000 0.377
48.38000 -0.513
48.40000 -1.773
48.42000 1.103
48.44000 5.765
48.46000 5.098
48.48000 5.177
48.50000 3.576
48.52000 1.148
48.54000 3.143
48.56000 6.201
48.58000 5.689
48.60000 1.773
48.62000 1.742
48.64000 5.622
48.66000 6.424
48.68000 6.151
48.70000 8.019
48.72000 5.513
48.74000 7.060
48.76000 2.754
48.78000 -0.825
48.80000 -1.733
48.82000 0.088
48.84000 2.001
48.86000 2.848
48.88000 2.149
48.90000 1.256
48.92000 2.850
48.94000 4.392
48.96000 3.726
48.98000 5.519
49.00000 4.279
49.02000 3.227
49.04000 5.199
49.06000 4.626
49.08000 0.869
49.10000 5.137
49.12000 2.605
49.14000 0.239
49.16000 -1.817
49.18000 -2.411
49.20000 -0.796
49.22000 0.288
49.24000 2.546
49.26000 4.243
49.28000 4.479
49.30000 0.943
49.32000 1.596
49.34000 7.047
49.36000 6.152
49.38000 7.794
49.40000 1.007
49.42000 3.510
49.44000 0.955
49.46000 4.467
49.48000 6.288
49.50000 6.145
49.52000 2.792
49.54000 5.538
49.56000 6.557
49.58000 5.463
49.60000 -0.809
49.62000 -1.382
49.64000 6.360
49.66000 8.821
49.68000 2.738
49.70000 4.468
49.72000 5.374
49.74000 5.740
49.76000 7.258
49.78000 3.067
49.80000 3.117
49.82000 1.692
49.84000 4.014
49.86000 2.663
49.88000 3.674
49.90000 1.493
49.92000 4.989
49.94000 4.792
49.96000 0.878
49.98000 -2.661
50.00000 0.456
50.02000 1.587
50.04000 1.589
50.06000 1.622
50.08000 5.385
50.10000 3.063
50.12000 0.943
50.14000 5.140
50.16000 2.264
50.18000 5.701
50.20000 5.476
50.22000 3.181
50.24000 -0.391
50.26000 -1.112
50.28000 1.834
50.30000 6.920
50.32000 7.734
50.34000 4.824
50.36000 3.668
50.38000 6.738
50.40000 5.867
50.42000 2.588
50.44000 4.363
50.46000 7.071
50.48000 6.398
50.50000 5.318
50.52000 4.346
50.54000 6.442
50.56000 4.607
50.58000 4.214
50.60000 7.498
50.62000 3.251
50.64000 -2.631
50.66000 0.905
50.68000 4.943
50.70000 3.867
50.72000 2.871
50.74000 10.041
50.76000 3.902
50.78000 4.280
50.80000 5.535
50.82000 4.897
50.84000 2.813
50.86000 1.517
50.88000 7.334
50.90000 9.568
50.92000 8.038
50.94000 4.545
50.96000 6.975
50.98000 7.335
51.00000 5.053
51.02000 3.311
51.04000 5.743
51.06000 9.323
51.08000 1.774
51.10000 0.335
51.12000 7.173
51.14000 6.977
51.16000 4.666
51.18000 3.610
51.20000 6.328
51.22000 4.671
51.24000 4.451
51.26000 4.571
51.28000 5.267
51.30000 7.522
51.32000 7.876
51.34000 4.444
51.36000 4.842
51.38000 3.869
51.40000 5.892
51.42000 9.230
51.44000 6.585
51.46000 6.285
51.48000 2.137
51.50000 2.327
51.52000 6.727
51.54000 9.900
51.56000 3.614
51.58000 1.574
51.60000 -2.615
51.62000 0.956
51.64000 3.465
51.66000 5.376
51.68000 7.109
51.70000 5.856
51.72000 4.349
51.74000 1.328
51.76000 0.884
51.78000 1.391
51.80000 2.242
51.82000 4.769
51.84000 4.061
51.86000 2.648
51.88000 2.264
51.90000 3.212
51.92000 3.852
51.94000 1.521
51.96000 2.178
51.98000 8.640
52.00000 9.519
52.02000 3.891
52.04000 7.902
52.06000 8.957
52.08000 5.919
52.10000 1.384
52.12000 0.508
52.14000 1.725
52.16000 2.968
52.18000 2.533
52.20000 2.275
52.22000 5.335
52.24000 1.562
52.26000 5.824
52.28000 8.273
52.30000 1.878
52.32000 0.644
52.34000 -0.313
52.36000 0.140
52.38000 4.797
52.40000 4.630
52.42000 2.356
52.44000 3.682
52.46000 4.767
52.48000 3.538
52.50000 -0.858
52.52000 5.363
52.54000 6.483
52.56000 0.696
52.58000 1.385
52.60000 1.602
52.62000 2.835
52.64000 0.685
52.66000 4.347
52.68000 3.371
52.70000 -1.585
52.72000 4.756
52.74000 2.371
52.76000 1.414
52.78000 1.193
52.80000 -2.618
52.82000 -0.276
52.84000 1.837
52.86000 5.361
52.88000 3.611
52.90000 1.256
52.92000 2.399
52.94000 0.339
52.96000 3.329
52.98000 3.360
53.00000 2.970
53.02000 0.166
53.04000 2.368
53.06000 -2.140
53.08000 -0.180
53.10000 0.976
53.12000 1.936
53.14000 3.104
53.16000 5.678
53.18000 3.795
53.20000 -2.532
53.22000 0.540
53.24000 -0.937
53.26000 2.027
53.28000 4.327
53.30000 4.960
53.32000 4.851
53.34000 2.909
53.36000 3.594
53.38000 3.771
53.40000 5.682
53.42000 4.187
53.44000 2.887
53.46000 2.010
53.48000 0.960
53.50000 0.508
53.52000 0.124
53.54000 0.319
53.56000 0.175
53.58000 0.532
53.60000 0.284
53.62000 -2.600
53.64000 -1.531
53.66000 1.425
53.68000 -1.029
53.70000 1.403
53.72000 2.095
53.74000 -1.469
53.76000 -0.917
53.78000 -1.735
53.80000 -0.522
53.82000 0.189
53.84000 1.442
53.86000 2.067
53.88000 1.510
53.90000 0.136
53.92000 -0.130
53.94000 0.004
53.96000 1.442
53.98000 4.757
54.00000 0.046
54.02000 1.601
54.04000 2.805
54.06000 0.443
54.08000 -0.308
54.10000 2.177
54.12000 0.302
54.14000 2.360
54.16000 1.586
54.18000 2.871
54.20000 -1.634
54.22000 -2.364
54.24000 -0.874
54.26000 -1.626
54.28000 1.983
54.30000 0.569
54.32000 1.761
54.34000 1.983
54.36000 0.255
54.38000 -0.268
54.40000 -2.599
54.42000 -1.974
54.44000 3.538
54.46000 5.050
54.48000 1.680
54.50000 0.427
54.52000 0.308
54.54000 1.210
54.56000 1.945
54.58000 1.049
54.60000 1.310
54.62000 3.988
54.64000 0.937
54.66000 1.237
54.68000 1.020
54.70000 -0.488
54.72000 -1.091
54.74000 1.658
54.76000 0.837
54.78000 3.203
54.80000 -0.405
54.82000 -0.352
54.84000 0.072
54.86000 6.355
54.88000 1.533
54.90000 -1.354
54.92000 1.532
54.94000 1.800
54.96000 0.920
54.98000 3.218
55.00000 0.505
55.02000 0.221
55.04000 0.687
55.06000 1.129
55.08000 1.845
55.10000 -0.120
55.12000 -1.222
55.14000 -0.409
55.16000 0.302
55.18000 0.971
55.20000 1.014
55.22000 0.468
55.24000 0.091
55.26000 0.837
55.28000 -0.462
55.30000 -1.006
55.32000 0.964
55.34000 3.130
55.36000 0.708
55.38000 2.822
55.40000 5.187
55.42000 4.668
55.44000 1.427
55.46000 0.959
55.48000 3.445
55.50000 3.336
55.52000 -0.371
55.54000 2.670
55.56000 2.446
55.58000 -0.235
55.60000 1.705
55.62000 -0.221
55.64000 4.382
55.66000 4.584
55.68000 0.625
55.70000 0.276
55.72000 2.507
55.74000 7.805
55.76000 7.120
55.78000 4.135
55.80000 1.852
55.82000 1.519
55.84000 2.194
55.86000 -2.384
55.88000 0.537
55.90000 3.247
55.92000 2.933
55.94000 4.733
55.96000 1.081
55.98000 -2.537
56.00000 0.535
56.02000 1.699
56.04000 3.678
56.06000 5.015
56.08000 6.856
56.10000 3.390
56.12000 -1.090
56.14000 2.722
56.16000 3.808
56.18000 2.534
56.20000 0.141
56.22000 5.708
56.24000 3.451
56.26000 5.274
56.28000 2.631
56.30000 3.364
56.32000 6.154
56.34000 2.551
56.36000 -0.149
56.38000 -2.293
56.40000 1.205
56.42000 3.140
56.44000 2.202
56.46000 0.326
56.48000 0.885
56.50000 4.317
56.52000 3.828
56.54000 0.213
56.56000 0.541
56.58000 3.378
56.60000 2.716
56.62000 0.969
56.64000 -1.051
56.66000 1.852
56.68000 5.874
56.70000 3.815
56.72000 -1.445
56.74000 -2.502
56.76000 1.877
56.78000 4.334
56.80000 3.036
56.82000 2.187
56.84000 2.185
56.86000 -0.160
56.88000 -0.555
56.90000 2.090
56.92000 -2.081
56.94000 -0.422
56.96000 1.313
56.98000 1.975
57.00000 0.073
57.02000 3.994
57.04000 10.134
57.06000 9.160
57.08000 1.815
57.10000 0.162
57.12000 1.973
57.14000 0.550
57.16000 2.964
57.18000 2.873
57.20000 -2.194
57.22000 0.066
57.24000 2.648
57.26000 0.611
57.28000 1.450
57.30000 1.784
57.32000 2.133
57.34000 1.294
57.36000 0.596
57.38000 0.986
57.40000 2.132
57.42000 0.546
57.44000 -0.308
57.46000 0.417
57.48000 2.021
57.50000 3.754
57.52000 6.476
57.54000 3.526
57.56000 1.489
57.58000 6.116
57.60000 3.850
57.62000 1.622
57.64000 -1.044
57.66000 -1.907
57.68000 1.942
57.70000 2.274
57.72000 2.846
57.74000 0.951
57.76000 -0.007
57.78000 6.570
57.80000 5.271
57.82000 1.989
57.84000 0.960
57.86000 6.921
57.88000 5.160
57.90000 3.794
57.92000 -1.077
57.94000 -2.456
57.96000 1.980
57.98000 -0.071
58.00000 0.740
58.02000 -1.173
58.04000 0.690
58.06000 -0.337
58.08000 2.994
58.10000 1.663
58.12000 0.904
58.14000 -0.613
58.16000 3.896
58.18000 3.309
58.20000 -0.085
58.22000 3.664
58.24000 5.002
58.26000 1.383
58.28000 2.006
58.30000 4.250
58.32000 2.962
58.34000 0.931
58.36000 -0.358
58.38000 1.917
58.40000 4.354
58.42000 4.449
58.44000 4.603
58.46000 3.110
58.48000 2.654
58.50000 1.687
58.52000 2.801
58.54000 6.530
58.56000 4.820
58.58000 2.150
58.60000 -1.637
58.62000 -0.407
58.64000 -0.612
58.66000 2.776
58.68000 2.874
58.70000 2.613
58.72000 2.287
58.74000 3.612
58.76000 1.351
58.78000 1.156
58.80000 2.312
58.82000 2.596
58.84000 0.711
58.86000 -1.761
58.88000 1.253
58.90000 2.745
58.92000 3.044
58.94000 1.779
58.96000 1.209
58.98000 1.053
59.00000 0.843
59.02000 3.459
59.04000 5.738
59.06000 4.526
59.08000 1.390
59.10000 2.591
59.12000 6.246
59.14000 2.325
59.16000 5.287
59.18000 3.455
59.20000 4.094
59.22000 4.980
59.24000 1.260
59.26000 2.943
59.28000 4.296
59.30000 1.680
59.32000 4.524
59.34000 2.181
59.36000 3.363
59.38000 6.124
59.40000 1.251
59.42000 1.395
59.44000 6.224
59.46000 6.690
59.48000 3.229
59.50000 3.436
59.52000 6.253
59.54000 9.106
59.56000 5.358
59.58000 5.587
59.60000 3.237
59.62000 0.872
59.64000 1.555
59.66000 5.584
59.68000 5.269
59.70000 5.151
59.72000 2.670
59.74000 1.460
59.76000 3.460
59.78000 3.496
59.80000 7.909
59.82000 8.618
59.84000 7.209
59.86000 4.780
59.88000 1.726
59.90000 2.623
59.92000 3.757
59.94000 2.892
59.96000 2.148
59.98000 -2.325
60.00000 2.827
60.02000 11.543
60.04000 6.343
60.06000 4.956
60.08000 2.137
60.10000 1.774
60.12000 3.826
60.14000 2.626
60.16000 4.448
60.18000 2.739
60.20000 4.670
60.22000 7.718
60.24000 3.754
60.26000 2.448
60.28000 0.641
60.30000 1.065
60.32000 3.222
60.34000 4.831
60.36000 8.377
60.38000 6.106
60.40000 2.792
60.42000 4.691
60.44000 1.994
60.46000 4.732
60.48000 5.240
60.50000 4.999
60.52000 1.551
60.54000 0.617
60.56000 3.909
60.58000 4.519
60.60000 3.050
60.62000 4.492
60.64000 4.147
60.66000 3.971
60.68000 4.745
60.70000 7.920
60.72000 5.862
60.74000 0.403
60.76000 -0.740
60.78000 6.600
60.80000 3.908
60.82000 4.397
60.84000 3.416
60.86000 3.844
60.88000 4.767
60.90000 6.574
60.92000 3.907
60.94000 2.213
60.96000 5.658
60.98000 6.787
61.00000 5.696
61.02000 4.544
61.04000 -1.614
61.06000 -0.492
61.08000 3.175
61.10000 5.291
61.12000 6.421
61.14000 2.995
61.16000 3.216
61.18000 1.100
61.20000 0.409
61.22000 2.500
61.24000 6.852
61.26000 5.855
61.28000 0.851
61.30000 -0.599
61.32000 2.261
61.34000 6.632
61.36000 3.645
61.38000 -0.903
61.40000 0.621
61.42000 4.359
61.44000 4.460
61.46000 3.496
61.48000 4.810
61.50000 5.101
61.52000 6.534
61.54000 8.204
61.56000 1.744
61.58000 2.314
61.60000 4.470
61.62000 6.521
61.64000 5.610
61.66000 6.509
61.68000 3.400
61.70000 3.340
61.72000 3.026
61.74000 4.354
61.76000 3.490
61.78000 3.802
61.80000 1.219
61.82000 -1.845
61.84000 2.831
61.86000 4.387
61.88000 8.056
61.90000 5.115
61.92000 3.492
61.94000 3.135
61.96000 3.779
61.98000 -2.304
62.00000 -1.859
62.02000 1.664
62.04000 2.784
62.06000 5.646
62.08000 4.632
62.10000 2.676
62.12000 5.975
62.14000 8.328
62.16000 2.910
62.18000 2.569
62.20000 1.687
62.22000 0.190
62.24000 2.138
62.26000 4.426
62.28000 3.516
62.30000 0.339
62.32000 3.002
62.34000 2.578
62.36000 1.363
62.38000 4.738
62.40000 1.418
62.42000 1.585
62.44000 0.630
62.46000 -0.975
62.48000 2.169
62.50000 3.520
62.52000 1.673
62.54000 4.663
62.56000 5.528
62.58000 3.053
62.60000 3.140
62.62000 2.333
62.64000 4.990
62.66000 5.207
62.68000 6.357
62.70000 2.208
62.72000 6.843
62.74000 4.590
62.76000 2.095
62.78000 0.310
62.80000 1.573
62.82000 4.951
62.84000 3.653
62.86000 2.251
62.88000 4.413
62.90000 4.792
62.92000 1.817
62.94000 -0.864
62.96000 1.115
62.98000 2.006
63.00000 0.891
63.02000 3.416
63.04000 1.325
63.06000 0.883
63.08000 1.251
63.10000 -0.222
63.12000 0.010
63.14000 -1.219
63.16000 -2.312
63.18000 -1.994
63.20000 2.657
63.22000 2.407
63.24000 2.402
63.26000 2.866
63.28000 3.813
63.30000 3.397
63.32000 0.274
63.34000 2.632
63.36000 2.508
63.38000 0.691
63.40000 -0.742
63.42000 0.999
63.44000 2.687
63.46000 3.568
63.48000 5.460
63.50000 2.659
63.52000 4.523
63.54000 8.038
63.56000 1.066
63.58000 -1.983
63.60000 -0.459
63.62000 1.973
63.64000 0.620
63.66000 1.799
63.68000 2.916
63.70000 3.158
63.72000 2.829
63.74000 5.438
63.76000 2.044
63.78000 1.580
63.80000 0.141
63.82000 0.517
63.84000 0.069
63.86000 5.401
63.88000 2.519
63.90000 2.150
63.92000 4.381
63.94000 3.534
63.96000 0.531
63.98000 -2.292
64.00000 1.135
64.02000 1.338
64.04000 0.874
64.06000 2.079
64.08000 2.167
64.10000 -0.047
64.12000 1.138
64.14000 0.108
64.16000 0.462
64.18000 0.979
64.20000 0.954
64.22000 1.298
64.24000 1.667
64.26000 1.419
64.28000 1.625
64.30000 4.746
64.32000 2.230
64.34000 1.080
64.36000 2.663
64.38000 0.568
64.40000 0.226
64.42000 5.661
64.44000 2.170
64.46000 3.367
64.48000 4.983
64.50000 3.946
64.52000 2.472
64.54000 3.105
64.56000 -0.541
64.58000 -1.021
64.60000 0.544
64.62000 0.773
64.64000 0.979
64.66000 -2.098
64.68000 -0.048
64.70000 2.253
64.72000 3.345
64.74000 2.636
64.76000 3.468
64.78000 5.351
64.80000 -0.039
64.82000 1.604
64.84000 3.616
64.86000 0.922
64.88000 -0.102
64.90000 0.243
64.92000 0.363
64.94000 1.302
64.96000 3.704
64.98000 3.609
65.00000 0.564
65.02000 -0.041
65.04000 1.849
65.06000 4.755
65.08000 3.392
65.10000 1.159
65.12000 0.792
65.14000 3.798
65.16000 6.589
65.18000 5.796
65.20000 6.193
65.22000 4.137
65.24000 6.978
65.26000 8.023
65.28000 5.254
65.30000 5.020
65.32000 2.063
65.34000 5.659
65.36000 5.263
65.38000 5.189
65.40000 6.205
65.42000 7.691
65.44000 6.393
65.46000 6.645
65.48000 6.444
65.50000 4.940
65.52000 7.896
65.54000 7.843
65.56000 8.351
65.58000 9.271
65.60000 9.710
65.62000 7.761
65.64000 8.565
65.66000 8.784
65.68000 5.506
65.70000 4.777
65.72000 5.742
65.74000 4.407
65.76000 5.563
65.78000 3.554
65.80000 3.648
65.82000 4.082
65.84000 1.775
65.86000 0.710
65.88000 4.673
65.90000 4.197
65.92000 1.651
65.94000 4.953
65.96000 4.580
65.98000 3.372
66.00000 1.241
66.02000 3.526
66.04000 2.783
66.06000 1.436
66.08000 1.060
66.10000 -0.702
66.12000 1.102
66.14000 2.130
66.16000 3.776
66.18000 3.082
66.20000 2.844
66.22000 -0.091
66.24000 0.403
66.26000 -0.644
66.28000 -0.791
66.30000 0.507
66.32000 -0.595
66.34000 -0.778
66.36000 -0.504
66.38000 -0.979
66.40000 0.284
66.42000 0.235
66.44000 2.076
66.46000 2.267
66.48000 -0.376
66.50000 -2.299
66.52000 -1.398
66.54000 0.615
66.56000 1.987
66.58000 -0.046
66.60000 0.845
66.62000 2.495
66.64000 2.509
66.66000 2.038
66.68000 -0.343
66.70000 -0.097
66.72000 1.387
66.74000 0.072
66.76000 -0.168
66.78000 -1.276
66.80000 0.514
66.82000 0.838
66.84000 2.345
66.86000 0.245
66.88000 -1.789
66.90000 -2.264
66.92000 -2.286
66.94000 -2.037
66.96000 -0.150
66.98000 -2.147
67.00000 -1.891
67.02000 -2.240
67.04000 -1.966
67.06000 -0.532
67.08000 3.016
67.10000 3.565
67.12000 2.089
67.14000 0.103
67.16000 -0.848
67.18000 -0.357
67.20000 -1.443
67.22000 -0.601
67.24000 2.001
67.26000 1.130
67.28000 -0.877
67.30000 -1.433
67.32000 0.097
67.34000 -0.795
67.36000 0.177
67.38000 -0.311
67.40000 0.493
67.42000 -1.507
67.44000 -1.261
67.46000 1.936
67.48000 0.000
67.50000 0.570
67.52000 -0.114
67.54000 0.162
67.56000 -2.248
67.58000 0.548
67.60000 2.137
67.62000 0.017
67.64000 -1.647
67.66000 -1.226
67.68000 -0.985
67.70000 -0.482
67.72000 1.485
67.74000 1.475
67.76000 -1.389
67.78000 -1.579
67.80000 -0.308
67.82000 -0.593
67.84000 -0.072
67.86000 -0.548
67.88000 1.097
67.90000 0.897
67.92000 0.860
67.94000 2.282
67.96000 1.581
67.98000 0.836
68.00000 3.805
68.02000 2.390
68.04000 -0.359
68.06000 -2.217
68.08000 0.009
68.10000 5.242
68.12000 5.845
68.14000 5.660
68.16000 2.324
68.18000 -0.385
68.20000 0.147
68.22000 0.493
68.24000 0.208
68.26000 1.843
68.28000 -0.461
68.30000 2.163
68.32000 1.752
68.34000 -1.103
68.36000 2.040
68.38000 1.809
68.40000 2.046
68.42000 0.048
68.44000 -0.064
68.46000 -2.187
68.48000 -1.140
68.50000 2.694
68.52000 0.487
68.54000 -0.517
68.56000 -1.140
68.58000 1.563
68.60000 2.571
68.62000 1.862
68.64000 -0.882
68.66000 -1.263
68.68000 0.893
68.70000 -0.500
68.72000 -0.683
68.74000 -0.734
68.76000 -0.312
68.78000 0.773
68.80000 -0.769
68.82000 -0.438
68.84000 1.860
68.86000 3.246
68.88000 4.084
68.90000 5.250
68.92000 0.125
68.94000 -0.253
68.96000 1.024
68.98000 1.538
69.00000 2.096
69.02000 1.058
69.04000 0.211
69.06000 2.140
69.08000 0.466
69.10000 -0.391
69.12000 1.490
69.14000 -0.147
69.16000 1.380
69.18000 0.930
69.20000 3.052
69.22000 2.566
69.24000 2.835
69.26000 1.986
69.28000 3.227
69.30000 4.217
69.32000 1.761
69.34000 2.083
69.36000 2.757
69.38000 4.178
69.40000 1.419
69.42000 1.062
69.44000 0.587
69.46000 0.009
69.48000 -0.065
69.50000 0.361
69.52000 1.047
69.54000 -0.905
69.56000 -0.813
69.58000 2.076
69.60000 1.668
69.62000 2.221
69.64000 3.186
69.66000 4.456
69.68000 3.092
69.70000 -2.127
69.72000 -1.650
69.74000 1.029
69.76000 0.746
69.78000 1.339
69.80000 1.879
69.82000 -1.376
69.84000 -0.275
69.86000 0.877
69.88000 3.118
69.90000 4.085
69.92000 3.588
69.94000 1.704
69.96000 2.138
69.98000 0.548
70.00000 -2.119
70.02000 0.065
70.04000 -0.756
70.06000 -0.039
70.08000 4.539
70.10000 5.774
70.12000 3.849
70.14000 3.735
70.16000 2.477
70.18000 2.365
70.20000 4.002
70.22000 1.313
70.24000 1.195
70.26000 0.604
70.28000 -2.111
70.30000 2.234
70.32000 3.422
70.34000 3.186
70.36000 1.259
70.38000 0.310
70.40000 3.393
70.42000 3.653
70.44000 2.305
70.46000 -1.787
70.48000 1.686
70.50000 2.083
70.52000 0.958
70.54000 0.588
70.56000 0.717
70.58000 1.941
70.60000 1.806
70.62000 1.725
70.64000 1.983
70.66000 1.517
70.68000 3.835
70.70000 1.645
70.72000 -0.223
70.74000 -1.442
70.76000 -1.130
70.78000 2.053
70.80000 2.052
70.82000 3.687
70.84000 3.892
70.86000 5.381
70.88000 5.120
70.90000 3.423
70.92000 3.318
70.94000 5.256
70.96000 4.032
70.98000 2.933
71.00000 5.461
71.02000 2.525
71.04000 1.084
71.06000 1.293
71.08000 5.437
71.10000 7.802
71.12000 7.265
71.14000 5.557
71.16000 4.116
71.18000 3.381
71.20000 6.332
71.22000 3.979
71.24000 4.297
71.26000 2.833
71.28000 -0.368
71.30000 -2.043
71.32000 3.383
71.34000 4.132
71.36000 2.619
71.38000 4.505
71.40000 2.529
71.42000 0.550
71.44000 2.281
71.46000 2.793
71.48000 3.825
71.50000 2.285
71.52000 5.555
71.54000 5.825
71.56000 6.341
71.58000 1.747
71.60000 0.955
71.62000 3.180
71.64000 2.850
71.66000 0.428
71.68000 4.047
71.70000 5.589
71.72000 4.681
71.74000 4.331
71.76000 3.296
71.78000 3.136
71.80000 3.332
71.82000 4.359
71.84000 7.374
71.86000 4.047
71.88000 1.478
71.90000 -0.679
71.92000 0.531
71.94000 1.618
71.96000 2.393
71.98000 6.014
72.00000 4.941
72.02000 1.231
72.04000 3.106
72.06000 3.061
72.08000 4.696
72.10000 1.155
72.12000 2.576
72.14000 2.503
72.16000 1.867
72.18000 4.227
72.20000 0.949
72.22000 0.884
72.24000 1.754
72.26000 1.216
72.28000 -1.991
72.30000 0.135
72.32000 1.401
72.34000 1.002
72.36000 -0.818
72.38000 1.988
72.40000 4.686
72.42000 1.659
72.44000 0.646
72.46000 -1.578
72.48000 2.551
72.50000 -0.648
72.52000 2.235
72.54000 3.988
72.56000 3.173
72.58000 4.490
72.60000 2.395
72.62000 4.414
72.64000 4.083
72.66000 2.068
72.68000 3.295
72.70000 3.383
72.72000 0.174
72.74000 -2.028
72.76000 0.747
72.78000 1.286
72.80000 0.116
72.82000 3.746
72.84000 -1.130
72.86000 -1.295
72.88000 3.942
72.90000 4.097
72.92000 5.079
72.94000 3.961
72.96000 6.078
72.98000 3.797
73.00000 3.445
73.02000 0.863
73.04000 3.452
73.06000 4.180
73.08000 4.718
73.10000 6.647
73.12000 1.885
73.14000 -0.509
73.16000 1.016
73.18000 2.638
73.20000 2.006
73.22000 2.032
73.24000 2.047
73.26000 -1.566
73.28000 -1.009
73.30000 0.935
73.32000 -1.551
73.34000 -1.307
73.36000 0.503
73.38000 3.790
73.40000 1.980
73.42000 6.069
73.44000 4.039
73.46000 2.940
73.48000 0.420
73.50000 1.178
73.52000 -0.532
73.54000 1.476
73.56000 4.228
73.58000 3.164
73.60000 2.532
73.62000 2.005
73.64000 -0.248
73.66000 -0.473
73.68000 -2.044
73.70000 -1.110
73.72000 -0.516
73.74000 0.440
73.76000 2.425
73.78000 1.017
73.80000 0.401
73.82000 -0.859
73.84000 -0.364
73.86000 -2.041
73.88000 1.559
73.90000 3.404
73.92000 4.366
73.94000 1.456
73.96000 5.195
73.98000 1.123
74.00000 -1.114
74.02000 2.139
74.04000 3.928
74.06000 1.749
74.08000 0.036
74.10000 -0.597
74.12000 0.858
74.14000 4.937
74.16000 0.758
74.18000 -2.033
74.20000 0.390
74.22000 1.701
74.24000 1.223
74.26000 -0.889
74.28000 0.947
74.30000 2.392
74.32000 2.957
74.34000 2.789
74.36000 1.786
74.38000 -1.592
74.40000 -0.360
74.42000 5.928
74.44000 3.387
74.46000 0.231
74.48000 3.854
74.50000 3.725
74.52000 7.159
74.54000 4.392
74.56000 2.840
74.58000 -1.470
74.60000 -0.713
74.62000 0.255
74.64000 1.187
74.66000 4.227
74.68000 4.862
74.70000 3.587
74.72000 2.750
74.74000 2.033
74.76000 -0.048
74.78000 -2.033
74.80000 1.471
74.82000 0.402
74.84000 -1.485
74.86000 2.727
74.88000 1.716
74.90000 -0.327
74.92000 -0.997
74.94000 1.853
74.96000 0.642
74.98000 -0.568
75.00000 0.257
75.02000 0.980
75.04000 2.066
75.06000 1.428
75.08000 -1.202
75.10000 0.017
75.12000 0.202
75.14000 0.368
75.16000 2.172
75.18000 2.619
75.20000 2.833
75.22000 1.405
75.24000 2.397
75.26000 1.980
75.28000 1.352
75.30000 1.539
75.32000 2.358
75.34000 6.373
75.36000 6.507
75.38000 5.666
75.40000 5.725
75.42000 3.768
75.44000 6.022
75.46000 2.608
75.48000 0.143
75.50000 1.364
75.52000 3.884
75.54000 5.527
75.56000 7.592
75.58000 8.889
75.60000 6.421
75.62000 5.677
75.64000 3.391
75.66000 2.777
75.68000 5.633
75.70000 5.813
75.72000 2.441
75.74000 1.894
75.76000 -2.037
75.78000 1.954
75.80000 4.374
75.82000 2.284
75.84000 1.600
75.86000 2.543
75.88000 3.894
75.90000 4.537
75.92000 3.399
75.94000 4.440
75.96000 2.386
75.98000 -0.232
76.00000 -0.864
76.02000 1.367
76.04000 0.056
76.06000 1.302
76.08000 1.137
76.10000 1.679
76.12000 4.932
76.14000 3.417
76.16000 3.935
76.18000 4.787
76.20000 2.145
76.22000 2.847
76.24000 1.285
76.26000 0.287
76.28000 2.441
76.30000 5.630
76.32000 6.464
76.34000 3.252
76.36000 2.221
76.38000 4.169
76.40000 1.857
76.42000 1.605
76.44000 5.109
76.46000 6.998
76.48000 4.006
76.50000 0.266
76.52000 4.359
76.54000 6.678
76.56000 3.746
76.58000 2.930
76.60000 4.048
76.62000 4.587
76.64000 1.671
76.66000 2.573
76.68000 2.483
76.70000 1.739
76.72000 5.874
76.74000 3.928
76.76000 -0.779
76.78000 1.079
76.80000 0.874
76.82000 0.057
76.84000 -2.097
76.86000 3.460
76.88000 3.325
76.90000 2.042
76.92000 0.680
76.94000 0.020
76.96000 0.820
76.98000 3.430
77.00000 3.822
77.02000 3.785
77.04000 2.131
77.06000 1.605
77.08000 2.092
77.10000 -2.123
77.12000 -1.467
77.14000 0.978
77.16000 3.278
77.18000 2.077
77.20000 0.287
77.22000 2.920
77.24000 5.999
77.26000 4.111
77.28000 2.055
77.30000 -0.297
77.32000 0.683
77.34000 1.650
77.36000 2.461
77.38000 0.410
77.40000 0.814
77.42000 -0.574
77.44000 0.321
77.46000 0.158
77.48000 2.737
77.50000 1.658
77.52000 3.076
77.54000 1.524
77.56000 3.317
77.58000 5.269
77.60000 1.968
77.62000 0.369
77.64000 2.143
77.66000 2.724
77.68000 3.436
77.70000 2.071
77.72000 5.668
77.74000 4.769
77.76000 2.954
77.78000 4.003
77.80000 2.725
77.82000 1.608
77.84000 2.333
77.86000 1.244
77.88000 4.383
77.90000 7.133
77.92000 6.502
77.94000 6.046
77.96000 5.076
77.98000 5.730
78.00000 7.853
78.02000 9.230
78.04000 6.968
78.06000 8.869
78.08000 8.467
78.10000 10.477
78.12000 9.370
78.14000 11.635
78.16000 9.861
78.18000 10.811
78.20000 13.456
78.22000 16.192
78.24000 13.454
78.26000 10.851
78.28000 12.389
78.30000 18.092
78.32000 17.816
78.34000 14.625
78.36000 15.851
78.38000 22.070
78.40000 23.761
78.42000 19.809
78.44000 17.784
78.46000 18.628
78.48000 25.204
78.50000 23.279
78.52000 22.172
78.54000 23.132
78.56000 28.492
78.58000 28.373
78.60000 26.649
78.62000 24.615
78.64000 26.982
78.66000 28.059
78.68000 31.480
78.70000 32.672
78.72000 30.600
78.74000 30.980
78.76000 32.332
78.78000 29.263
78.80000 28.455
78.82000 25.908
78.84000 28.092
78.86000 28.079
78.88000 28.922
78.90000 30.008
78.92000 32.541
78.94000 33.066
78.96000 27.505
78.98000 25.445
79.00000 25.183
79.02000 28.845
79.04000 30.608
79.06000 28.344
79.08000 24.913
79.10000 21.636
79.12000 21.188
79.14000 23.517
79.16000 21.968
79.18000 19.613
79.20000 17.604
79.22000 16.785
79.24000 15.965
79.26000 15.644
79.28000 16.185
79.30000 15.399
79.32000 16.077
79.34000 12.585
79.36000 10.986
79.38000 12.944
79.40000 16.428
79.42000 14.944
79.44000 12.395
79.46000 11.053
79.48000 11.365
79.50000 10.233
79.52000 6.138
79.54000 3.216
79.56000 3.632
79.58000 5.923
79.60000 8.743
79.62000 2.526
79.64000 0.180
79.66000 3.484
79.68000 3.448
79.70000 1.017
79.72000 4.215
79.74000 5.775
79.76000 5.074
79.78000 2.861
79.80000 3.815
79.82000 4.461
79.84000 4.220
79.86000 2.174
79.88000 2.811
79.90000 2.905
79.92000 3.261
79.94000 3.469
79.96000 6.259
79.98000 4.805
80.00000 6.958
80.02000 8.024
80.04000 4.115
80.06000 2.735
80.08000 6.882
80.10000 5.642
80.12000 5.316
80.14000 -0.451
80.16000 -2.317
80.18000 3.103
80.20000 4.242
80.22000 5.220
80.24000 2.543
80.26000 3.488
80.28000 1.277
80.30000 2.599
80.32000 -1.205
80.34000 -0.711
80.36000 1.899
80.38000 3.539
80.40000 4.464
80.42000 3.663
80.44000 2.392
80.46000 2.182
80.48000 5.458
80.50000 4.411
80.52000 4.317
80.54000 3.649
80.56000 6.366
80.58000 3.343
80.60000 -2.342
80.62000 0.299
80.64000 2.426
80.66000 3.318
80.68000 1.571
80.70000 4.149
80.72000 6.838
80.74000 4.613
80.76000 3.240
80.78000 -0.593
80.80000 3.717
80.82000 7.652
80.84000 6.802
80.86000 5.658
80.88000 7.583
80.90000 4.513
80.92000 6.803
80.94000 1.229
80.96000 -1.126
80.98000 4.855
81.00000 3.608
81.02000 2.816
81.04000 0.015
81.06000 0.829
81.08000 0.587
81.10000 5.987
81.12000 4.396
81.14000 2.778
81.16000 0.601
81.18000 3.301
81.20000 2.177
81.22000 3.117
81.24000 2.518
81.26000 2.829
81.28000 3.557
81.30000 2.175
81.32000 1.956
81.34000 1.837
81.36000 0.922
81.38000 0.771
81.40000 1.397
81.42000 3.155
81.44000 4.985
81.46000 5.635
81.48000 1.118
81.50000 3.481
81.52000 9.812
81.54000 9.765
81.56000 9.547
81.58000 6.052
81.60000 4.844
81.62000 3.811
81.64000 6.042
81.66000 6.035
81.68000 7.918
81.70000 9.482
81.72000 8.571
81.74000 8.496
81.76000 9.173
81.78000 13.083
81.80000 8.764
81.82000 7.660
81.84000 9.770
81.86000 13.565
81.88000 10.645
81.90000 10.446
81.92000 14.304
81.94000 14.005
81.96000 11.779
81.98000 11.789
82.00000 17.729
82.02000 15.437
82.04000 16.901
82.06000 19.986
82.08000 17.054
82.10000 13.020
82.12000 14.449
82.14000 21.032
82.16000 24.835
82.18000 23.593
82.20000 23.873
82.22000 19.530
82.24000 21.594
82.26000 23.942
82.28000 27.440
82.30000 26.074
82.32000 27.177
82.34000 29.144
82.36000 30.167
82.38000 30.401
82.40000 33.499
82.42000 36.278
82.44000 41.188
82.46000 43.720
82.48000 42.182
82.50000 44.245
82.52000 41.569
82.54000 45.720
82.56000 53.139
82.58000 51.275
82.60000 59.982
82.62000 67.044
82.64000 67.350
82.66000 65.892
82.68000 65.252
82.70000 68.600
82.72000 77.831
82.74000 73.219
82.76000 71.569
82.78000 73.717
82.80000 79.679
82.82000 80.961
82.84000 83.669
82.86000 84.732
82.88000 87.837
82.90000 84.203
82.92000 90.239
82.94000 90.554
82.96000 90.680
82.98000 90.521
83.00000 92.031
83.02000 89.066
83.04000 90.996
83.06000 86.105
83.08000 81.814
83.10000 86.115
83.12000 87.553
83.14000 81.897
83.16000 81.718
83.18000 80.862
83.20000 77.447
83.22000 70.871
83.24000 70.229
83.26000 66.506
83.28000 66.546
83.30000 72.160
83.32000 69.712
83.34000 64.838
83.36000 59.142
83.38000 60.586
83.40000 55.585
83.42000 45.496
83.44000 48.663
83.46000 48.515
83.48000 41.964
83.50000 39.284
83.52000 41.395
83.54000 36.078
83.56000 32.466
83.58000 28.050
83.60000 27.819
83.62000 26.427
83.64000 26.238
83.66000 28.204
83.68000 25.548
83.70000 23.262
83.72000 21.480
83.74000 17.714
83.76000 16.263
83.78000 16.069
83.80000 13.813
83.82000 13.736
83.84000 14.306
83.86000 13.001
83.88000 10.738
83.90000 10.392
83.92000 9.686
83.94000 8.122
83.96000 7.156
83.98000 9.059
84.00000 7.645
84.02000 9.246
84.04000 10.291
84.06000 10.022
84.08000 4.210
84.10000 3.186
84.12000 4.647
84.14000 3.041
84.16000 4.077
84.18000 5.468
84.20000 2.980
84.22000 -0.696
84.24000 1.649
84.26000 2.878
84.28000 2.388
84.30000 3.682
84.32000 3.561
84.34000 -0.096
84.36000 -0.531
84.38000 -0.272
84.40000 0.334
84.42000 2.388
84.44000 1.172
84.46000 1.333
84.48000 -0.499
84.50000 -2.195
84.52000 -0.056
84.54000 0.492
84.56000 3.247
84.58000 1.279
84.60000 0.126
84.62000 1.445
84.64000 2.974
84.66000 3.953
84.68000 1.807
84.70000 1.430
84.72000 0.125
84.74000 1.284
84.76000 3.464
84.78000 1.924
84.80000 1.062
84.82000 -1.634
84.84000 -1.904
84.86000 0.626
84.88000 4.388
84.90000 4.886
84.92000 4.181
84.94000 4.222
84.96000 1.369
84.98000 0.272
85.00000 0.023
85.02000 -0.576
85.04000 -1.004
85.06000 -0.351
85.08000 0.941
85.10000 3.350
85.12000 2.297
85.14000 2.040
85.16000 -2.082
85.18000 -1.896
85.20000 -2.047
85.22000 1.539
85.24000 2.287
85.26000 1.105
85.28000 0.540
85.30000 1.764
85.32000 -0.086
85.34000 -1.071
85.36000 -0.554
85.38000 -1.753
85.40000 1.658
85.42000 5.110
85.44000 3.725
85.46000 2.693
85.48000 1.832
85.50000 -0.381
85.52000 0.847
85.54000 -1.907
85.56000 0.756
85.58000 1.654
85.60000 4.061
85.62000 3.739
85.64000 4.212
85.66000 -0.210
85.68000 -2.016
85.70000 -0.291
85.72000 2.106
85.74000 1.438
85.76000 1.381
85.78000 5.219
85.80000 6.629
85.82000 3.063
85.84000 2.632
85.86000 1.786
85.88000 2.648
85.90000 1.646
85.92000 -1.259
85.94000 0.047
85.96000 1.453
85.98000 0.187
86.00000 1.267
86.02000 2.312
86.04000 2.778
86.06000 1.245
86.08000 2.259
86.10000 0.512
86.12000 0.492
86.14000 2.373
86.16000 1.134
86.18000 -1.036
86.20000 1.187
86.22000 -0.150
86.24000 0.979
86.26000 2.332
86.28000 0.197
86.30000 -1.605
86.32000 -0.258
86.34000 1.751
86.36000 0.938
86.38000 3.154
86.40000 -0.438
86.42000 0.982
86.44000 2.855
86.46000 4.506
86.48000 5.222
86.50000 3.542
86.52000 2.475
86.54000 1.261
86.56000 1.368
86.58000 2.048
86.60000 5.293
86.62000 2.919
86.64000 4.524
86.66000 1.614
86.68000 0.471
86.70000 0.369
86.72000 -1.931
86.74000 2.745
86.76000 6.826
86.78000 6.115
86.80000 1.955
86.82000 1.689
86.84000 2.563
86.86000 3.068
86.88000 1.624
86.90000 3.715
86.92000 3.369
86.94000 6.509
86.96000 3.553
86.98000 2.998
87.00000 0.052
87.02000 1.864
87.04000 2.189
87.06000 2.118
87.08000 1.083
87.10000 2.409
87.12000 3.595
87.14000 3.455
87.16000 4.850
87.18000 2.379
87.20000 1.322
87.22000 1.651
87.24000 1.980
87.26000 3.518
87.28000 5.487
87.30000 0.084
87.32000 3.156
87.34000 3.646
87.36000 -1.938
87.38000 -0.151
87.40000 1.835
87.42000 0.806
87.44000 1.721
87.46000 4.278
87.48000 2.343
87.50000 3.383
87.52000 2.851
87.54000 0.495
87.56000 0.062
87.58000 0.593
87.60000 2.053
87.62000 0.994
87.64000 0.561
87.66000 -0.210
87.68000 1.535
87.70000 5.293
87.72000 2.417
87.74000 1.389
87.76000 1.195
87.78000 1.113
87.80000 -1.234
87.82000 -0.560
87.84000 4.323
87.86000 3.355
87.88000 -0.461
87.90000 0.791
87.92000 1.395
87.94000 2.077
87.96000 1.346
87.98000 0.533
88.00000 1.902
88.02000 5.415
88.04000 5.414
88.06000 2.627
88.08000 0.854
88.10000 0.944
88.12000 -0.135
88.14000 1.599
88.16000 -0.111
88.18000 -1.170
88.20000 0.838
88.22000 2.628
88.24000 0.018
88.26000 0.944
88.28000 1.390
88.30000 1.509
88.32000 0.225
88.34000 5.062
88.36000 5.329
88.38000 2.865
88.40000 -0.045
88.42000 -1.910
88.44000 -1.598
88.46000 0.205
88.48000 0.744
88.50000 4.222
88.52000 4.695
88.54000 2.639
88.56000 0.285
88.58000 1.011
88.60000 -1.902
88.62000 0.826
88.64000 3.814
88.66000 3.998
88.68000 1.631
88.70000 1.919
88.72000 1.476
88.74000 1.609
88.76000 0.869
88.78000 0.272
88.80000 0.227
88.82000 -0.384
88.84000 1.433
88.86000 1.375
88.88000 3.680
88.90000 3.010
88.92000 1.345
88.94000 1.217
88.96000 0.092
88.98000 1.079
89.00000 1.666
89.02000 3.326
89.04000 5.533
89.06000 1.471
89.08000 -0.993
89.10000 0.168
89.12000 1.233
89.14000 -1.551
89.16000 -1.895
89.18000 1.908
89.20000 4.280
89.22000 0.961
89.24000 1.415
89.26000 2.847
89.28000 5.092
89.30000 4.590
89.32000 2.412
89.34000 3.610
89.36000 2.758
89.38000 1.352
89.40000 4.390
89.42000 2.515
89.44000 2.969
89.46000 2.682
89.48000 0.018
89.50000 -0.924
89.52000 -0.689
89.54000 2.283
89.56000 4.300
89.58000 4.626
89.60000 3.372
89.62000 3.599
89.64000 4.044
89.66000 4.186
89.68000 6.313
89.70000 1.120
89.72000 -0.062
89.74000 -0.227
89.76000 -0.983
89.78000 1.011
89.80000 2.548
89.82000 1.582
89.84000 3.018
89.86000 3.822
89.88000 6.612
89.90000 4.598
89.92000 3.297
89.94000 2.191
89.96000 1.933
89.98000 3.532
90.00000 4.555
90.02000 3.179
90.04000 -0.407
90.06000 -1.887
90.08000 1.628
90.10000 1.570
90.12000 3.317
90.14000 -1.404
90.16000 0.664
90.18000 3.152
90.20000 4.023
90.22000 3.087
90.24000 2.616
90.26000 2.349
90.28000 2.477
90.30000 3.956
90.32000 4.002
90.34000 0.673
90.36000 2.084
90.38000 2.277
90.40000 2.255
90.42000 1.118
90.44000 1.032
90.46000 -0.614
90.48000 0.468
90.50000 -0.256
90.52000 0.638
90.54000 4.800
90.56000 5.079
90.58000 7.989
90.60000 5.979
90.62000 1.155
90.64000 0.228
90.66000 3.659
90.68000 5.219
90.70000 1.543
90.72000 1.232
90.74000 3.159
90.76000 3.286
90.78000 2.734
90.80000 1.627
90.82000 4.071
90.84000 0.807
90.86000 0.759
90.88000 1.735
90.90000 2.452
90.92000 0.579
90.94000 -1.887
90.96000 2.477
90.98000 5.888
91.00000 3.904
91.02000 5.415
91.04000 5.362
91.06000 3.285
91.08000 1.294
91.10000 1.574
91.12000 0.047
91.14000 2.434
91.16000 1.860
91.18000 2.791
91.20000 2.677
91.22000 0.717
91.24000 1.111
91.26000 0.467
91.28000 0.597
91.30000 0.589
91.32000 0.151
91.34000 -0.291
91.36000 -1.815
91.38000 4.737
91.40000 5.355
91.42000 1.930
91.44000 1.561
91.46000 -0.968
91.48000 2.301
91.50000 5.383
91.52000 2.964
91.54000 3.094
91.56000 1.854
91.58000 2.340
91.60000 2.340
91.62000 1.399
91.64000 2.980
91.66000 3.291
91.68000 4.918
91.70000 3.733
91.72000 2.879
91.74000 4.573
91.76000 3.177
91.78000 2.833
91.80000 0.289
91.82000 3.513
91.84000 4.800
91.86000 3.663
91.88000 3.297
91.90000 1.095
91.92000 2.691
91.94000 2.064
91.96000 1.830
91.98000 1.690
92.00000 -0.813
92.02000 1.320
92.04000 3.555
92.06000 2.123
92.08000 1.380
92.10000 -1.885
92.12000 -1.431
92.14000 3.718
92.16000 6.265
92.18000 10.061
92.20000 4.508
92.22000 -1.065
92.24000 -0.424
92.26000 3.042
92.28000 4.735
92.30000 2.518
92.32000 0.883
92.34000 3.011
92.36000 5.206
92.38000 2.191
92.40000 3.676
92.42000 2.301
92.44000 0.888
92.46000 3.491
92.48000 1.112
92.50000 3.193
92.52000 2.829
92.54000 0.569
92.56000 0.561
92.58000 1.217
92.60000 0.643
92.62000 0.944
92.64000 1.083
92.66000 1.945
92.68000 2.287
92.70000 3.597
92.72000 5.218
92.74000 5.467
92.76000 4.796
92.78000 4.341
92.80000 5.253
92.82000 2.991
92.84000 1.444
92.86000 4.165
92.88000 3.826
92.90000 5.032
92.92000 3.679
92.94000 2.220
92.96000 1.994
92.98000 0.555
93.00000 4.121
93.02000 4.093
93.04000 3.301
93.06000 3.884
93.08000 3.602
93.10000 3.151
93.12000 0.134
93.14000 0.556
93.16000 0.852
93.18000 1.928
93.20000 -0.434
93.22000 -1.111
93.24000 0.781
93.26000 -0.129
93.28000 2.366
93.30000 2.729
93.32000 6.368
93.34000 5.566
93.36000 0.969
93.38000 4.304
93.40000 4.624
93.42000 -0.642
93.44000 0.652
93.46000 4.243
93.48000 4.850
93.50000 2.110
93.52000 -1.399
93.54000 -1.529
93.56000 2.091
93.58000 2.480
93.60000 0.199
93.62000 2.048
93.64000 2.307
93.66000 3.701
93.68000 1.081
93.70000 2.336
93.72000 3.240
93.74000 2.430
93.76000 1.836
93.78000 0.771
93.80000 1.884
93.82000 -0.071
93.84000 0.140
93.86000 3.033
93.88000 1.426
93.90000 -1.914
93.92000 0.363
93.94000 5.538
93.96000 6.130
93.98000 5.134
94.00000 4.227
94.02000 5.321
94.04000 2.728
94.06000 1.519
94.08000 1.972
94.10000 0.468
94.12000 -0.673
94.14000 3.839
94.16000 2.142
94.18000 -0.026
94.20000 3.814
94.22000 4.305
94.24000 3.696
94.26000 2.695
94.28000 1.312
94.30000 1.237
94.32000 1.031
94.34000 1.925
94.36000 0.130
94.38000 1.528
94.40000 -0.042
94.42000 1.417
94.44000 4.893
94.46000 4.513
94.48000 5.315
94.50000 7.160
94.52000 5.018
94.54000 10.939
94.56000 4.194
94.58000 2.087
94.60000 3.119
94.62000 4.812
94.64000 2.578
94.66000 1.086
94.68000 2.070
94.70000 1.801
94.72000 4.105
94.74000 3.808
94.76000 6.126
94.78000 2.283
94.80000 2.359
94.82000 1.012
94.84000 3.986
94.86000 5.160
94.88000 5.490
94.90000 5.442
94.92000 0.540
94.94000 -0.208
94.96000 3.794
94.98000 3.793
95.00000 5.030
95.02000 4.756
95.04000 4.358
95.06000 1.970
95.08000 -0.091
95.10000 -1.906
95.12000 0.015
95.14000 4.799
95.16000 10.419
95.18000 6.914
95.20000 6.521
95.22000 4.774
95.24000 1.126
95.26000 0.578
95.28000 2.192
95.30000 4.185
95.32000 7.698
95.34000 6.460
95.36000 7.041
95.38000 5.540
95.40000 2.704
95.42000 1.811
95.44000 3.127
95.46000 5.264
95.48000 4.836
95.50000 3.891
95.52000 2.785
95.54000 5.708
95.56000 6.327
95.58000 -0.917
95.60000 -1.911
95.62000 0.015
95.64000 -1.525
95.66000 -0.690
95.68000 2.904
95.70000 5.317
95.72000 3.330
95.74000 2.334
95.76000 1.420
95.78000 2.350
95.80000 5.750
95.82000 5.615
95.84000 4.677
95.86000 2.431
95.88000 3.476
95.90000 7.074
95.92000 9.921
95.94000 7.217
95.96000 2.078
95.98000 2.930
96.00000 2.054
96.02000 3.572
96.04000 6.498
96.06000 4.775
96.08000 5.060
96.10000 5.620
96.12000 1.618
96.14000 2.922
96.16000 2.458
96.18000 6.103
96.20000 5.326
96.22000 1.974
96.24000 -1.911
96.26000 5.549
96.28000 8.348
96.30000 6.732
96.32000 3.168
96.34000 1.570
96.36000 2.127
96.38000 3.005
96.40000 6.621
96.42000 7.570
96.44000 3.636
96.46000 6.513
96.48000 4.535
96.50000 1.634
96.52000 1.636
96.54000 3.478
96.56000 4.554
96.58000 1.908
96.60000 4.302
96.62000 4.975
96.64000 1.923
96.66000 1.222
96.68000 1.857
96.70000 0.270
96.72000 2.843
96.74000 8.191
96.76000 4.570
96.78000 4.206
96.80000 4.420
96.82000 7.365
96.84000 7.553
96.86000 3.240
96.88000 4.021
96.90000 5.697
96.92000 2.125
96.94000 0.536
96.96000 2.861
96.98000 2.440
97.00000 1.768
97.02000 2.687
97.04000 2.724
97.06000 4.943
97.08000 6.851
97.10000 8.582
97.12000 5.076
97.14000 6.915
97.16000 6.952
97.18000 4.519
97.20000 5.833
97.22000 9.430
97.24000 8.312
97.26000 3.220
97.28000 3.426
97.30000 2.781
97.32000 2.728
97.34000 3.870
97.36000 5.698
97.38000 6.416
97.40000 5.025
97.42000 3.838
97.44000 1.624
97.46000 1.010
97.48000 6.346
97.50000 5.289
97.52000 5.511
97.54000 5.554
97.56000 9.315
97.58000 6.948
97.60000 4.372
97.62000 1.349
97.64000 1.319
97.66000 3.131
97.68000 -1.864
97.70000 -0.733
97.72000 4.157
97.74000 2.895
97.76000 0.858
97.78000 1.643
97.80000 3.812
97.82000 6.287
97.84000 11.165
97.86000 12.598
97.88000 9.749
97.90000 8.805
97.92000 4.194
97.94000 1.927
97.96000 5.974
97.98000 6.919
98.00000 6.528
98.02000 5.694
98.04000 3.340
98.06000 5.692
98.08000 9.199
98.10000 4.700
98.12000 5.466
98.14000 5.474
98.16000 7.979
98.18000 11.210
98.20000 9.772
98.22000 5.720
98.24000 4.737
98.26000 2.685
98.28000 -0.883
98.30000 5.812
98.32000 6.324
98.34000 3.141
98.36000 4.713
98.38000 1.326
98.40000 -1.840
98.42000 2.767
98.44000 8.423
98.46000 4.549
98.48000 4.724
98.50000 9.896
98.52000 10.138
98.54000 8.681
98.56000 5.137
98.58000 1.755
98.60000 1.567
98.62000 7.676
98.64000 2.353
98.66000 -0.017
98.68000 3.314
98.70000 3.377
98.72000 6.686
98.74000 5.828
98.76000 7.836
98.78000 5.987
98.80000 7.327
98.82000 5.743
98.84000 3.878
98.86000 6.324
98.88000 4.858
98.90000 4.851
98.92000 2.993
98.94000 7.087
98.96000 8.420
98.98000 11.932
99.00000 7.516
99.02000 4.429
99.04000 6.582
99.06000 10.160
99.08000 5.028
99.10000 10.945
99.12000 13.470
99.14000 11.205
99.16000 8.256
99.18000 3.802
99.20000 8.014
99.22000 9.236
99.24000 9.961
99.26000 4.375
99.28000 6.437
99.30000 13.111
99.32000 7.442
99.34000 2.164
99.36000 -1.809
99.38000 4.085
99.40000 6.773
99.42000 11.568
99.44000 7.884
99.46000 6.970
99.48000 -0.529
99.50000 4.093
99.52000 6.966
99.54000 4.696
99.56000 9.450
99.58000 9.381
99.60000 0.116
99.62000 6.944
99.64000 9.142
99.66000 12.166
99.68000 3.852
99.70000 -0.606
99.72000 -1.320
99.74000 5.555
99.76000 9.783
99.78000 10.932
99.80000 7.635
99.82000 3.079
99.84000 -0.717
99.86000 -1.994
99.88000 -1.113
99.90000 2.095
99.92000 3.774
99.94000 3.018
99.96000 -2.060
99.98000 0.000
