'Id: "0011388" Comment: "Integrate frame 0011388_Au-Ir-Rh_Rh-rich_XRD-Mapping-306-0000.gfrmwith cursor Wedge Cursor #5" Operator: "B?rgel" Anode: "Cu" Wavelength: "1.5406" Scantype: "2Theta (TwoTheta)" TimePerStep: "1" X: "13.5" Y: "31.5" Z: "5.95" 
10.00000 0.000
10.02000 -0.081
10.04000 -4.099
10.06000 12.935
10.08000 14.905
10.10000 24.452
10.12000 19.312
10.14000 8.123
10.16000 16.922
10.18000 9.411
10.20000 18.873
10.22000 4.162
10.24000 4.071
10.26000 21.473
10.28000 26.160
10.30000 25.549
10.32000 7.400
10.34000 -4.072
10.36000 9.232
10.38000 25.316
10.40000 21.940
10.42000 14.746
10.44000 9.530
10.46000 15.004
10.48000 12.088
10.50000 14.670
10.52000 20.925
10.54000 27.607
10.56000 12.150
10.58000 6.875
10.60000 5.115
10.62000 0.446
10.64000 0.882
10.66000 11.601
10.68000 16.261
10.70000 14.964
10.72000 18.467
10.74000 13.187
10.76000 15.702
10.78000 19.743
10.80000 32.311
10.82000 23.192
10.84000 11.943
10.86000 14.060
10.88000 9.673
10.90000 13.277
10.92000 28.699
10.94000 24.750
10.96000 10.288
10.98000 12.650
11.00000 6.508
11.02000 17.713
11.04000 11.381
11.06000 21.928
11.08000 22.933
11.10000 12.428
11.12000 4.256
11.14000 10.574
11.16000 16.703
11.18000 7.928
11.20000 10.488
11.22000 11.962
11.24000 13.471
11.26000 19.914
11.28000 15.787
11.30000 12.705
11.32000 15.137
11.34000 11.395
11.36000 3.623
11.38000 5.018
11.40000 11.771
11.42000 22.389
11.44000 17.491
11.46000 10.901
11.48000 12.982
11.50000 14.740
11.52000 16.723
11.54000 16.342
11.56000 13.914
11.58000 15.919
11.60000 26.612
11.62000 20.821
11.64000 13.704
11.66000 13.888
11.68000 18.957
11.70000 7.663
11.72000 13.640
11.74000 9.907
11.76000 4.472
11.78000 10.564
11.80000 9.589
11.82000 1.676
11.84000 0.380
11.86000 9.238
11.88000 9.136
11.90000 9.586
11.92000 11.084
11.94000 4.063
11.96000 5.063
11.98000 21.558
12.00000 19.719
12.02000 0.259
12.04000 7.633
12.06000 18.436
12.08000 20.605
12.10000 15.026
12.12000 8.250
12.14000 15.062
12.16000 16.819
12.18000 11.857
12.20000 5.218
12.22000 0.386
12.24000 10.772
12.26000 25.947
12.28000 28.797
12.30000 20.037
12.32000 14.966
12.34000 9.959
12.36000 5.753
12.38000 26.216
12.40000 27.010
12.42000 25.994
12.44000 26.949
12.46000 9.041
12.48000 12.265
12.50000 7.236
12.52000 7.220
12.54000 0.718
12.56000 5.346
12.58000 3.787
12.60000 5.804
12.62000 -1.427
12.64000 8.780
12.66000 26.602
12.68000 24.255
12.70000 12.893
12.72000 15.580
12.74000 16.634
12.76000 20.758
12.78000 22.609
12.80000 18.427
12.82000 20.839
12.84000 25.655
12.86000 15.290
12.88000 17.281
12.90000 11.841
12.92000 14.126
12.94000 19.785
12.96000 23.549
12.98000 12.739
13.00000 -0.006
13.02000 16.187
13.04000 21.687
13.06000 10.320
13.08000 8.928
13.10000 15.141
13.12000 9.514
13.14000 10.624
13.16000 12.914
13.18000 14.096
13.20000 11.736
13.22000 17.120
13.24000 11.118
13.26000 3.321
13.28000 2.932
13.30000 5.902
13.32000 15.531
13.34000 18.794
13.36000 24.033
13.38000 19.495
13.40000 6.137
13.42000 3.255
13.44000 11.425
13.46000 8.826
13.48000 11.758
13.50000 16.414
13.52000 23.716
13.54000 26.588
13.56000 19.804
13.58000 15.235
13.60000 22.486
13.62000 19.187
13.64000 10.220
13.66000 6.211
13.68000 6.601
13.70000 18.264
13.72000 27.187
13.74000 16.358
13.76000 13.902
13.78000 5.435
13.80000 8.868
13.82000 21.574
13.84000 13.377
13.86000 7.665
13.88000 7.851
13.90000 14.384
13.92000 17.126
13.94000 18.404
13.96000 13.948
13.98000 16.519
14.00000 23.587
14.02000 24.623
14.04000 19.432
14.06000 16.712
14.08000 10.745
14.10000 11.979
14.12000 17.359
14.14000 14.336
14.16000 17.771
14.18000 11.514
14.20000 21.396
14.22000 21.175
14.24000 14.821
14.26000 3.808
14.28000 5.267
14.30000 3.950
14.32000 -1.663
14.34000 7.710
14.36000 5.703
14.38000 6.661
14.40000 5.430
14.42000 5.790
14.44000 0.571
14.46000 6.185
14.48000 16.897
14.50000 19.597
14.52000 12.655
14.54000 15.709
14.56000 14.001
14.58000 9.477
14.60000 4.825
14.62000 1.972
14.64000 2.263
14.66000 9.779
14.68000 15.201
14.70000 8.763
14.72000 14.518
14.74000 15.730
14.76000 9.593
14.78000 12.667
14.80000 10.478
14.82000 10.263
14.84000 3.796
14.86000 8.752
14.88000 9.585
14.90000 7.527
14.92000 11.695
14.94000 8.882
14.96000 7.367
14.98000 15.246
15.00000 13.016
15.02000 13.007
15.04000 8.423
15.06000 -0.023
15.08000 11.381
15.10000 5.251
15.12000 8.329
15.14000 14.672
15.16000 15.349
15.18000 16.127
15.20000 9.950
15.22000 11.863
15.24000 10.142
15.26000 10.768
15.28000 5.175
15.30000 11.381
15.32000 12.812
15.34000 11.780
15.36000 17.061
15.38000 19.014
15.40000 16.236
15.42000 4.671
15.44000 8.964
15.46000 8.560
15.48000 6.272
15.50000 0.571
15.52000 -0.972
15.54000 0.915
15.56000 4.297
15.58000 14.738
15.60000 12.221
15.62000 10.158
15.64000 15.949
15.66000 11.248
15.68000 17.439
15.70000 23.838
15.72000 13.637
15.74000 7.633
15.76000 8.608
15.78000 15.046
15.80000 9.602
15.82000 12.651
15.84000 12.371
15.86000 7.623
15.88000 14.242
15.90000 19.300
15.92000 10.774
15.94000 5.904
15.96000 8.606
15.98000 8.868
16.00000 7.860
16.02000 7.519
16.04000 5.106
16.06000 -4.429
16.08000 7.764
16.10000 5.673
16.12000 10.861
16.14000 1.664
16.16000 4.236
16.18000 8.930
16.20000 14.846
16.22000 17.773
16.24000 13.072
16.26000 6.126
16.28000 8.438
16.30000 10.111
16.32000 14.163
16.34000 12.925
16.36000 11.095
16.38000 8.192
16.40000 5.826
16.42000 -2.443
16.44000 -3.499
16.46000 12.003
16.48000 11.192
16.50000 9.860
16.52000 5.173
16.54000 3.863
16.56000 6.664
16.58000 6.531
16.60000 7.693
16.62000 12.613
16.64000 10.191
16.66000 7.833
16.68000 11.264
16.70000 9.564
16.72000 4.420
16.74000 0.055
16.76000 6.823
16.78000 7.561
16.80000 8.537
16.82000 9.319
16.84000 9.686
16.86000 9.308
16.88000 9.698
16.90000 10.483
16.92000 6.148
16.94000 6.652
16.96000 8.351
16.98000 10.454
17.00000 16.041
17.02000 14.992
17.04000 15.931
17.06000 11.664
17.08000 9.352
17.10000 2.615
17.12000 -1.979
17.14000 0.758
17.16000 3.681
17.18000 10.522
17.20000 13.529
17.22000 9.685
17.24000 13.063
17.26000 11.626
17.28000 10.603
17.30000 1.949
17.32000 5.123
17.34000 11.418
17.36000 12.805
17.38000 10.693
17.40000 3.298
17.42000 5.208
17.44000 6.292
17.46000 9.415
17.48000 6.418
17.50000 8.447
17.52000 8.561
17.54000 10.965
17.56000 5.455
17.58000 5.727
17.60000 8.058
17.62000 12.693
17.64000 14.320
17.66000 9.750
17.68000 7.284
17.70000 5.852
17.72000 5.404
17.74000 4.088
17.76000 7.237
17.78000 6.081
17.80000 9.833
17.82000 5.747
17.84000 0.023
17.86000 0.308
17.88000 -4.367
17.90000 -2.010
17.92000 1.401
17.94000 7.083
17.96000 8.858
17.98000 16.279
18.00000 12.867
18.02000 13.162
18.04000 9.919
18.06000 3.871
18.08000 2.392
18.10000 10.883
18.12000 13.355
18.14000 7.172
18.16000 9.203
18.18000 9.485
18.20000 7.364
18.22000 6.385
18.24000 13.127
18.26000 14.009
18.28000 12.255
18.30000 6.732
18.32000 9.576
18.34000 7.898
18.36000 4.907
18.38000 0.473
18.40000 6.364
18.42000 15.214
18.44000 6.594
18.46000 8.768
18.48000 8.623
18.50000 5.363
18.52000 -2.858
18.54000 -1.283
18.56000 0.729
18.58000 1.888
18.60000 3.825
18.62000 -0.288
18.64000 -0.010
18.66000 3.991
18.68000 6.965
18.70000 10.168
18.72000 6.154
18.74000 2.223
18.76000 -0.859
18.78000 5.054
18.80000 7.624
18.82000 9.082
18.84000 5.967
18.86000 5.183
18.88000 3.358
18.90000 2.852
18.92000 -2.971
18.94000 0.077
18.96000 9.553
18.98000 10.306
19.00000 6.866
19.02000 2.809
19.04000 6.538
19.06000 10.694
19.08000 11.501
19.10000 6.104
19.12000 3.992
19.14000 9.467
19.16000 13.766
19.18000 13.877
19.20000 8.645
19.22000 1.275
19.24000 0.210
19.26000 -1.391
19.28000 0.853
19.30000 10.769
19.32000 13.513
19.34000 13.051
19.36000 7.732
19.38000 5.639
19.40000 7.365
19.42000 8.810
19.44000 1.120
19.46000 -4.265
19.48000 1.746
19.50000 4.602
19.52000 4.818
19.54000 -2.787
19.56000 1.668
19.58000 7.261
19.60000 5.575
19.62000 1.486
19.64000 2.118
19.66000 4.136
19.68000 8.412
19.70000 5.809
19.72000 6.748
19.74000 13.570
19.76000 10.224
19.78000 10.546
19.80000 11.400
19.82000 8.612
19.84000 6.552
19.86000 6.947
19.88000 6.451
19.90000 -2.684
19.92000 7.088
19.94000 11.788
19.96000 10.686
19.98000 4.806
20.00000 7.946
20.02000 2.724
20.04000 -0.308
20.06000 2.716
20.08000 5.146
20.10000 -1.141
20.12000 2.812
20.14000 6.061
20.16000 6.271
20.18000 5.694
20.20000 5.005
20.22000 6.827
20.24000 6.423
20.26000 6.759
20.28000 9.258
20.30000 3.872
20.32000 11.443
20.34000 4.865
20.36000 4.196
20.38000 6.463
20.40000 7.292
20.42000 7.765
20.44000 10.214
20.46000 7.259
20.48000 -0.417
20.50000 -3.360
20.52000 -1.478
20.54000 4.630
20.56000 7.805
20.58000 3.228
20.60000 0.634
20.62000 1.797
20.64000 3.563
20.66000 4.212
20.68000 1.555
20.70000 2.152
20.72000 6.468
20.74000 7.327
20.76000 5.412
20.78000 -0.591
20.80000 0.019
20.82000 6.562
20.84000 5.750
20.86000 8.006
20.88000 8.256
20.90000 9.801
20.92000 6.835
20.94000 4.470
20.96000 1.075
20.98000 7.690
21.00000 9.925
21.02000 7.181
21.04000 5.204
21.06000 3.898
21.08000 2.542
21.10000 -1.388
21.12000 -1.033
21.14000 -0.239
21.16000 -2.221
21.18000 0.760
21.20000 5.774
21.22000 1.928
21.24000 0.130
21.26000 2.836
21.28000 4.884
21.30000 10.010
21.32000 6.020
21.34000 2.472
21.36000 2.204
21.38000 -4.189
21.40000 4.414
21.42000 5.514
21.44000 8.349
21.46000 11.410
21.48000 7.437
21.50000 -0.625
21.52000 9.327
21.54000 12.694
21.56000 4.763
21.58000 4.559
21.60000 3.969
21.62000 5.580
21.64000 7.182
21.66000 5.414
21.68000 9.556
21.70000 9.308
21.72000 7.949
21.74000 7.896
21.76000 3.341
21.78000 2.738
21.80000 -1.514
21.82000 8.350
21.84000 9.522
21.86000 5.347
21.88000 2.301
21.90000 4.236
21.92000 -0.113
21.94000 0.697
21.96000 -4.143
21.98000 6.135
22.00000 2.858
22.02000 7.013
22.04000 6.097
22.06000 2.712
22.08000 2.524
22.10000 7.087
22.12000 12.272
22.14000 9.389
22.16000 4.504
22.18000 9.240
22.20000 7.761
22.22000 9.443
22.24000 4.780
22.26000 -1.472
22.28000 3.426
22.30000 7.839
22.32000 7.262
22.34000 5.016
22.36000 11.036
22.38000 8.990
22.40000 7.468
22.42000 2.699
22.44000 4.582
22.46000 3.875
22.48000 0.219
22.50000 2.028
22.52000 -0.727
22.54000 6.956
22.56000 7.272
22.58000 -0.094
22.60000 5.538
22.62000 4.504
22.64000 3.435
22.66000 7.924
22.68000 5.351
22.70000 4.116
22.72000 5.761
22.74000 10.065
22.76000 8.454
22.78000 2.210
22.80000 4.901
22.82000 3.169
22.84000 7.115
22.86000 1.403
22.88000 2.218
22.90000 -0.378
22.92000 5.585
22.94000 8.967
22.96000 4.710
22.98000 4.775
23.00000 11.228
23.02000 4.210
23.04000 2.858
23.06000 -2.564
23.08000 2.196
23.10000 5.762
23.12000 8.962
23.14000 7.479
23.16000 5.429
23.18000 6.633
23.20000 3.316
23.22000 2.815
23.24000 1.936
23.26000 6.990
23.28000 4.549
23.30000 1.486
23.32000 4.389
23.34000 0.765
23.36000 4.137
23.38000 3.389
23.40000 1.354
23.42000 6.910
23.44000 4.555
23.46000 3.428
23.48000 2.074
23.50000 5.642
23.52000 6.959
23.54000 2.550
23.56000 -2.884
23.58000 -0.022
23.60000 2.865
23.62000 5.177
23.64000 7.888
23.66000 8.431
23.68000 7.767
23.70000 3.428
23.72000 -0.550
23.74000 3.598
23.76000 3.745
23.78000 8.380
23.80000 5.487
23.82000 -1.150
23.84000 -4.041
23.86000 -2.043
23.88000 0.096
23.90000 3.736
23.92000 5.448
23.94000 4.207
23.96000 8.980
23.98000 10.745
24.00000 6.450
24.02000 7.085
24.04000 1.685
24.06000 5.467
24.08000 7.423
24.10000 7.484
24.12000 4.265
24.14000 -0.208
24.16000 2.809
24.18000 6.224
24.20000 2.277
24.22000 5.940
24.24000 13.243
24.26000 10.634
24.28000 6.251
24.30000 9.057
24.32000 5.461
24.34000 6.772
24.36000 2.028
24.38000 -2.465
24.40000 -3.518
24.42000 0.997
24.44000 4.624
24.46000 -4.016
24.48000 -2.708
24.50000 1.974
24.52000 4.474
24.54000 1.378
24.56000 3.103
24.58000 6.033
24.60000 10.397
24.62000 7.191
24.64000 4.721
24.66000 4.829
24.68000 3.431
24.70000 4.994
24.72000 5.025
24.74000 8.851
24.76000 10.306
24.78000 8.518
24.80000 8.119
24.82000 3.045
24.84000 4.410
24.86000 11.166
24.88000 8.399
24.90000 4.046
24.92000 7.004
24.94000 5.191
24.96000 2.600
24.98000 -0.749
25.00000 1.722
25.02000 1.186
25.04000 3.139
25.06000 3.398
25.08000 5.770
25.10000 5.161
25.12000 -0.895
25.14000 -0.618
25.16000 0.068
25.18000 -2.045
25.20000 0.560
25.22000 5.443
25.24000 5.088
25.26000 7.928
25.28000 7.430
25.30000 0.575
25.32000 4.976
25.34000 8.661
25.36000 5.517
25.38000 5.574
25.40000 4.132
25.42000 2.786
25.44000 0.264
25.46000 1.025
25.48000 -0.195
25.50000 3.250
25.52000 2.836
25.54000 5.665
25.56000 3.637
25.58000 5.245
25.60000 10.613
25.62000 6.254
25.64000 1.704
25.66000 -2.803
25.68000 1.119
25.70000 4.589
25.72000 5.510
25.74000 2.704
25.76000 0.802
25.78000 0.362
25.80000 6.902
25.82000 8.870
25.84000 3.848
25.86000 0.114
25.88000 4.073
25.90000 8.844
25.92000 8.099
25.94000 2.416
25.96000 4.776
25.98000 7.522
26.00000 4.771
26.02000 1.667
26.04000 -3.909
26.06000 3.986
26.08000 7.543
26.10000 8.589
26.12000 13.947
26.14000 14.771
26.16000 9.653
26.18000 1.271
26.20000 0.894
26.22000 3.740
26.24000 2.168
26.26000 4.444
26.28000 7.461
26.30000 7.489
26.32000 7.978
26.34000 5.643
26.36000 3.282
26.38000 -1.060
26.40000 2.243
26.42000 5.264
26.44000 2.068
26.46000 -0.297
26.48000 2.876
26.50000 4.618
26.52000 6.539
26.54000 0.034
26.56000 -3.885
26.58000 3.184
26.60000 6.930
26.62000 5.464
26.64000 7.862
26.66000 9.845
26.68000 5.741
26.70000 5.941
26.72000 0.818
26.74000 -0.191
26.76000 3.659
26.78000 1.958
26.80000 10.750
26.82000 10.275
26.84000 11.963
26.86000 14.060
26.88000 10.486
26.90000 4.505
26.92000 5.920
26.94000 5.325
26.96000 5.510
26.98000 6.649
27.00000 9.525
27.02000 6.113
27.04000 6.811
27.06000 1.637
27.08000 6.331
27.10000 3.625
27.12000 -0.928
27.14000 2.090
27.16000 7.286
27.18000 2.733
27.20000 0.716
27.22000 4.377
27.24000 0.819
27.26000 -1.787
27.28000 -1.931
27.30000 -3.587
27.32000 1.773
27.34000 5.099
27.36000 7.370
27.38000 5.969
27.40000 0.104
27.42000 3.305
27.44000 5.255
27.46000 7.159
27.48000 2.187
27.50000 2.717
27.52000 3.271
27.54000 8.643
27.56000 13.488
27.58000 9.146
27.60000 0.071
27.62000 4.794
27.64000 2.041
27.66000 2.583
27.68000 6.388
27.70000 3.971
27.72000 4.320
27.74000 4.713
27.76000 4.220
27.78000 3.769
27.80000 3.674
27.82000 4.060
27.84000 2.910
27.86000 2.345
27.88000 1.621
27.90000 3.603
27.92000 3.125
27.94000 3.461
27.96000 4.141
27.98000 2.772
28.00000 4.480
28.02000 7.793
28.04000 7.719
28.06000 3.581
28.08000 1.814
28.10000 1.625
28.12000 1.631
28.14000 4.835
28.16000 8.444
28.18000 3.072
28.20000 7.497
28.22000 6.096
28.24000 6.108
28.26000 1.787
28.28000 5.372
28.30000 9.160
28.32000 11.048
28.34000 10.628
28.36000 8.552
28.38000 3.738
28.40000 1.918
28.42000 6.233
28.44000 5.571
28.46000 8.079
28.48000 6.548
28.50000 2.813
28.52000 0.306
28.54000 -3.767
28.56000 4.277
28.58000 2.164
28.60000 5.865
28.62000 3.118
28.64000 5.485
28.66000 8.241
28.68000 8.640
28.70000 6.778
28.72000 4.668
28.74000 5.531
28.76000 3.338
28.78000 5.307
28.80000 1.822
28.82000 1.303
28.84000 8.132
28.86000 6.490
28.88000 4.510
28.90000 6.515
28.92000 4.040
28.94000 2.337
28.96000 -2.157
28.98000 2.309
29.00000 6.965
29.02000 6.027
29.04000 2.403
29.06000 7.672
29.08000 6.160
29.10000 4.082
29.12000 1.381
29.14000 3.406
29.16000 2.342
29.18000 1.701
29.20000 3.913
29.22000 3.761
29.24000 4.458
29.26000 2.510
29.28000 0.014
29.30000 2.228
29.32000 9.459
29.34000 8.090
29.36000 5.234
29.38000 5.064
29.40000 5.022
29.42000 5.807
29.44000 3.564
29.46000 4.045
29.48000 6.414
29.50000 5.539
29.52000 1.550
29.54000 1.433
29.56000 2.395
29.58000 3.876
29.60000 3.518
29.62000 4.374
29.64000 5.360
29.66000 -3.744
29.68000 -3.117
29.70000 6.398
29.72000 4.120
29.74000 8.621
29.76000 8.724
29.78000 6.786
29.80000 0.009
29.82000 1.609
29.84000 6.942
29.86000 4.346
29.88000 2.772
29.90000 -0.031
29.92000 -1.263
29.94000 0.756
29.96000 4.714
29.98000 7.360
30.00000 5.973
30.02000 3.772
30.04000 5.907
30.06000 3.071
30.08000 0.526
30.10000 -0.938
30.12000 2.369
30.14000 1.078
30.16000 5.590
30.18000 3.967
30.20000 -0.403
30.22000 3.061
30.24000 0.761
30.26000 1.080
30.28000 0.410
30.30000 2.869
30.32000 3.638
30.34000 6.485
30.36000 4.089
30.38000 5.861
30.40000 2.119
30.42000 -0.634
30.44000 5.441
30.46000 1.822
30.48000 0.459
30.50000 0.555
30.52000 2.098
30.54000 1.438
30.56000 7.059
30.58000 3.290
30.60000 2.566
30.62000 5.831
30.64000 8.756
30.66000 4.003
30.68000 4.677
30.70000 12.051
30.72000 6.972
30.74000 6.056
30.76000 3.793
30.78000 2.946
30.80000 3.722
30.82000 4.772
30.84000 1.061
30.86000 -3.695
30.88000 5.501
30.90000 5.011
30.92000 0.999
30.94000 1.232
30.96000 4.335
30.98000 3.100
31.00000 -2.271
31.02000 -1.336
31.04000 2.639
31.06000 4.536
31.08000 6.258
31.10000 5.812
31.12000 4.887
31.14000 3.739
31.16000 4.257
31.18000 -3.471
31.20000 -0.618
31.22000 0.936
31.24000 2.710
31.26000 1.062
31.28000 1.776
31.30000 2.964
31.32000 0.230
31.34000 1.826
31.36000 3.825
31.38000 -0.914
31.40000 0.326
31.42000 3.210
31.44000 4.716
31.46000 -0.464
31.48000 -0.347
31.50000 1.806
31.52000 4.061
31.54000 5.984
31.56000 3.907
31.58000 3.940
31.60000 5.984
31.62000 10.387
31.64000 9.949
31.66000 6.468
31.68000 8.406
31.70000 5.392
31.72000 3.952
31.74000 0.570
31.76000 -2.802
31.78000 -3.662
31.80000 -1.195
31.82000 2.687
31.84000 2.007
31.86000 1.253
31.88000 5.980
31.90000 4.692
31.92000 -1.234
31.94000 0.474
31.96000 -1.097
31.98000 4.554
32.00000 4.321
32.02000 2.719
32.04000 1.777
32.06000 5.627
32.08000 1.270
32.10000 -0.923
32.12000 0.765
32.14000 2.311
32.16000 3.464
32.18000 4.841
32.20000 -2.347
32.22000 -1.679
32.24000 1.017
32.26000 -1.638
32.28000 3.439
32.30000 -0.031
32.32000 -1.740
32.34000 3.891
32.36000 5.735
32.38000 0.591
32.40000 0.307
32.42000 6.827
32.44000 8.410
32.46000 5.142
32.48000 1.460
32.50000 3.510
32.52000 4.389
32.54000 5.422
32.56000 4.347
32.58000 -0.044
32.60000 2.338
32.62000 2.634
32.64000 -3.545
32.66000 -3.635
32.68000 0.673
32.70000 7.211
32.72000 7.221
32.74000 2.295
32.76000 5.213
32.78000 11.163
32.80000 6.588
32.82000 0.483
32.84000 4.975
32.86000 8.183
32.88000 7.438
32.90000 7.686
32.92000 -0.204
32.94000 -1.752
32.96000 -3.632
32.98000 0.107
33.00000 1.252
33.02000 2.450
33.04000 5.745
33.06000 6.390
33.08000 1.828
33.10000 1.213
33.12000 5.789
33.14000 4.327
33.16000 2.949
33.18000 4.785
33.20000 3.418
33.22000 4.565
33.24000 4.533
33.26000 1.929
33.28000 2.212
33.30000 5.420
33.32000 6.780
33.34000 3.096
33.36000 0.758
33.38000 0.567
33.40000 6.997
33.42000 5.167
33.44000 7.489
33.46000 6.005
33.48000 3.626
33.50000 7.989
33.52000 9.273
33.54000 4.796
33.56000 2.733
33.58000 5.007
33.60000 5.586
33.62000 5.403
33.64000 -0.653
33.66000 4.945
33.68000 7.271
33.70000 3.595
33.72000 2.022
33.74000 2.292
33.76000 -3.623
33.78000 -2.618
33.80000 2.289
33.82000 6.113
33.84000 9.941
33.86000 8.168
33.88000 2.725
33.90000 2.443
33.92000 3.544
33.94000 4.920
33.96000 10.604
33.98000 5.741
34.00000 2.048
34.02000 5.032
34.04000 7.215
34.06000 4.135
34.08000 -1.139
34.10000 -0.497
34.12000 0.420
34.14000 3.874
34.16000 2.870
34.18000 1.096
34.20000 3.045
34.22000 0.249
34.24000 0.490
34.26000 4.072
34.28000 2.739
34.30000 8.346
34.32000 5.584
34.34000 5.469
34.36000 1.014
34.38000 -1.180
34.40000 4.378
34.42000 6.823
34.44000 3.601
34.46000 4.300
34.48000 1.664
34.50000 -2.825
34.52000 0.483
34.54000 7.238
34.56000 7.156
34.58000 3.459
34.60000 4.852
34.62000 4.595
34.64000 -2.305
34.66000 3.398
34.68000 4.084
34.70000 1.945
34.72000 2.531
34.74000 1.435
34.76000 3.983
34.78000 4.883
34.80000 4.378
34.82000 3.715
34.84000 6.713
34.86000 4.369
34.88000 3.515
34.90000 2.362
34.92000 -1.169
34.94000 1.772
34.96000 2.066
34.98000 2.620
35.00000 6.953
35.02000 6.792
35.04000 0.194
35.06000 2.203
35.08000 2.531
35.10000 0.469
35.12000 1.469
35.14000 -0.224
35.16000 -0.179
35.18000 -3.204
35.20000 1.366
35.22000 0.026
35.24000 -0.175
35.26000 0.361
35.28000 2.949
35.30000 4.792
35.32000 0.857
35.34000 5.779
35.36000 6.017
35.38000 6.084
35.40000 7.295
35.42000 3.927
35.44000 6.224
35.46000 7.698
35.48000 1.685
35.50000 -0.332
35.52000 -3.545
35.54000 -1.230
35.56000 2.351
35.58000 9.239
35.60000 7.855
35.62000 6.359
35.64000 5.762
35.66000 6.149
35.68000 5.870
35.70000 7.425
35.72000 2.863
35.74000 1.470
35.76000 8.831
35.78000 11.639
35.80000 8.083
35.82000 4.998
35.84000 5.188
35.86000 5.905
35.88000 5.690
35.90000 4.847
35.92000 3.070
35.94000 9.651
35.96000 4.412
35.98000 5.098
36.00000 4.664
36.02000 5.378
36.04000 8.451
36.06000 5.860
36.08000 3.204
36.10000 1.741
36.12000 3.772
36.14000 6.170
36.16000 6.931
36.18000 7.925
36.20000 6.597
36.22000 5.019
36.24000 3.684
36.26000 6.527
36.28000 4.589
36.30000 4.604
36.32000 1.927
36.34000 1.047
36.36000 0.876
36.38000 -3.572
36.40000 -0.948
36.42000 0.261
36.44000 3.727
36.46000 7.474
36.48000 4.472
36.50000 1.753
36.52000 5.179
36.54000 5.119
36.56000 2.839
36.58000 8.284
36.60000 4.617
36.62000 4.216
36.64000 3.651
36.66000 1.769
36.68000 0.243
36.70000 2.114
36.72000 2.800
36.74000 0.347
36.76000 0.761
36.78000 -1.283
36.80000 2.117
36.82000 5.689
36.84000 3.398
36.86000 -1.585
36.88000 -0.246
36.90000 1.995
36.92000 1.052
36.94000 -3.449
36.96000 -1.960
36.98000 -3.645
37.00000 -0.837
37.02000 -0.345
37.04000 -0.297
37.06000 1.703
37.08000 0.821
37.10000 2.855
37.12000 7.860
37.14000 3.592
37.16000 5.349
37.18000 5.045
37.20000 1.935
37.22000 0.717
37.24000 2.964
37.26000 5.749
37.28000 4.627
37.30000 4.731
37.32000 6.309
37.34000 1.592
37.36000 -0.203
37.38000 2.315
37.40000 3.955
37.42000 2.401
37.44000 1.008
37.46000 1.896
37.48000 0.264
37.50000 0.273
37.52000 0.024
37.54000 -0.053
37.56000 1.716
37.58000 5.050
37.60000 2.302
37.62000 2.521
37.64000 7.359
37.66000 8.347
37.68000 2.639
37.70000 0.786
37.72000 4.670
37.74000 6.867
37.76000 8.556
37.78000 4.184
37.80000 -0.411
37.82000 3.873
37.84000 8.052
37.86000 11.129
37.88000 7.118
37.90000 3.848
37.92000 3.930
37.94000 8.599
37.96000 8.350
37.98000 10.042
38.00000 9.765
38.02000 8.275
38.04000 6.725
38.06000 7.947
38.08000 8.344
38.10000 11.007
38.12000 13.010
38.14000 12.363
38.16000 15.677
38.18000 19.336
38.20000 15.278
38.22000 13.937
38.24000 16.844
38.26000 19.007
38.28000 15.093
38.30000 13.063
38.32000 13.694
38.34000 19.123
38.36000 20.761
38.38000 20.553
38.40000 22.651
38.42000 21.302
38.44000 19.379
38.46000 19.996
38.48000 19.786
38.50000 22.233
38.52000 23.051
38.54000 21.089
38.56000 17.544
38.58000 20.039
38.60000 22.864
38.62000 28.393
38.64000 31.638
38.66000 33.569
38.68000 40.496
38.70000 40.684
38.72000 35.091
38.74000 34.730
38.76000 35.208
38.78000 38.063
38.80000 40.767
38.82000 46.744
38.84000 45.315
38.86000 48.000
38.88000 38.614
38.90000 38.518
38.92000 49.034
38.94000 50.483
38.96000 42.829
38.98000 50.108
39.00000 57.747
39.02000 55.381
39.04000 55.726
39.06000 55.658
39.08000 62.539
39.10000 66.950
39.12000 69.636
39.14000 70.292
39.16000 78.381
39.18000 79.134
39.20000 75.430
39.22000 77.953
39.24000 89.878
39.26000 93.540
39.28000 92.550
39.30000 91.250
39.32000 96.918
39.34000 104.071
39.36000 102.198
39.38000 108.616
39.40000 115.787
39.42000 121.655
39.44000 128.686
39.46000 132.787
39.48000 139.865
39.50000 144.962
39.52000 149.207
39.54000 158.797
39.56000 172.266
39.58000 186.042
39.60000 196.043
39.62000 197.947
39.64000 201.232
39.66000 202.246
39.68000 214.638
39.70000 227.635
39.72000 242.491
39.74000 252.760
39.76000 263.005
39.78000 281.064
39.80000 295.952
39.82000 310.174
39.84000 323.917
39.86000 333.666
39.88000 352.372
39.90000 370.697
39.92000 383.645
39.94000 399.417
39.96000 423.818
39.98000 439.136
40.00000 456.155
40.02000 470.879
40.04000 493.231
40.06000 510.434
40.08000 527.708
40.10000 541.303
40.12000 565.719
40.14000 581.355
40.16000 595.208
40.18000 605.148
40.20000 620.431
40.22000 629.781
40.24000 654.914
40.26000 673.496
40.28000 685.414
40.30000 687.846
40.32000 686.187
40.34000 689.795
40.36000 697.855
40.38000 704.171
40.40000 700.727
40.42000 690.614
40.44000 690.576
40.46000 692.923
40.48000 687.089
40.50000 669.122
40.52000 648.647
40.54000 636.070
40.56000 629.951
40.58000 619.625
40.60000 613.053
40.62000 588.166
40.64000 558.499
40.66000 552.000
40.68000 525.618
40.70000 503.593
40.72000 479.071
40.74000 468.187
40.76000 451.571
40.78000 438.949
40.80000 414.941
40.82000 393.002
40.84000 381.570
40.86000 367.415
40.88000 346.661
40.90000 318.930
40.92000 302.968
40.94000 293.542
40.96000 276.352
40.98000 270.889
41.00000 261.950
41.02000 236.538
41.04000 219.467
41.06000 215.964
41.08000 206.855
41.10000 189.770
41.12000 181.175
41.14000 173.988
41.16000 170.690
41.18000 158.954
41.20000 144.408
41.22000 141.856
41.24000 137.859
41.26000 130.439
41.28000 117.199
41.30000 110.350
41.32000 100.860
41.34000 101.498
41.36000 92.406
41.38000 85.792
41.40000 82.876
41.42000 76.783
41.44000 74.519
41.46000 76.686
41.48000 72.621
41.50000 66.808
41.52000 65.537
41.54000 61.493
41.56000 56.981
41.58000 52.834
41.60000 51.466
41.62000 50.735
41.64000 45.167
41.66000 42.865
41.68000 41.590
41.70000 41.804
41.72000 37.311
41.74000 29.478
41.76000 29.905
41.78000 27.569
41.80000 33.614
41.82000 26.416
41.84000 25.241
41.86000 25.133
41.88000 25.760
41.90000 24.646
41.92000 23.192
41.94000 20.390
41.96000 22.596
41.98000 23.175
42.00000 23.711
42.02000 20.131
42.04000 13.861
42.06000 14.432
42.08000 11.095
42.10000 7.250
42.12000 6.088
42.14000 7.954
42.16000 6.710
42.18000 8.601
42.20000 7.209
42.22000 8.163
42.24000 6.763
42.26000 8.441
42.28000 7.643
42.30000 11.543
42.32000 12.421
42.34000 12.293
42.36000 10.674
42.38000 6.653
42.40000 5.464
42.42000 4.716
42.44000 5.240
42.46000 5.191
42.48000 2.173
42.50000 2.657
42.52000 2.075
42.54000 8.805
42.56000 9.056
42.58000 3.527
42.60000 2.960
42.62000 7.033
42.64000 2.279
42.66000 1.352
42.68000 4.176
42.70000 3.474
42.72000 7.014
42.74000 -0.128
42.76000 -1.047
42.78000 0.571
42.80000 -0.082
42.82000 -1.215
42.84000 1.464
42.86000 3.955
42.88000 0.131
42.90000 -3.085
42.92000 -1.093
42.94000 -0.646
42.96000 3.572
42.98000 4.424
43.00000 -3.469
43.02000 -0.463
43.04000 4.369
43.06000 4.226
43.08000 5.304
43.10000 -3.167
43.12000 -3.615
43.14000 0.809
43.16000 9.204
43.18000 -1.010
43.20000 0.421
43.22000 -3.492
43.24000 0.812
43.26000 3.118
43.28000 -0.042
43.30000 2.021
43.32000 3.829
43.34000 5.883
43.36000 2.288
43.38000 0.814
43.40000 2.358
43.42000 -1.358
43.44000 3.914
43.46000 3.130
43.48000 1.647
43.50000 4.738
43.52000 9.957
43.54000 3.584
43.56000 -1.297
43.58000 0.028
43.60000 5.457
43.62000 4.851
43.64000 -0.563
43.66000 -3.539
43.68000 -1.540
43.70000 0.355
43.72000 3.306
43.74000 6.136
43.76000 2.812
43.78000 5.738
43.80000 3.671
43.82000 -0.031
43.84000 0.062
43.86000 3.235
43.88000 2.627
43.90000 2.078
43.92000 -1.899
43.94000 -1.666
43.96000 -0.533
43.98000 2.089
44.00000 2.402
44.02000 0.504
44.04000 0.867
44.06000 6.442
44.08000 1.102
44.10000 -0.178
44.12000 -1.207
44.14000 -3.481
44.16000 2.755
44.18000 2.234
44.20000 4.312
44.22000 4.830
44.24000 3.444
44.26000 1.158
44.28000 2.688
44.30000 2.112
44.32000 4.224
44.34000 7.296
44.36000 4.172
44.38000 2.485
44.40000 -0.627
44.42000 4.213
44.44000 2.822
44.46000 4.493
44.48000 2.174
44.50000 -3.543
44.52000 -2.163
44.54000 0.648
44.56000 7.532
44.58000 3.237
44.60000 -3.545
44.62000 -1.374
44.64000 2.105
44.66000 -0.858
44.68000 -2.200
44.70000 -0.732
44.72000 2.677
44.74000 3.818
44.76000 3.701
44.78000 0.140
44.80000 2.252
44.82000 3.925
44.84000 6.050
44.86000 5.943
44.88000 4.929
44.90000 3.492
44.92000 3.196
44.94000 9.938
44.96000 9.983
44.98000 6.919
45.00000 9.266
45.02000 9.478
45.04000 10.712
45.06000 4.476
45.08000 -0.378
45.10000 1.097
45.12000 4.538
45.14000 10.809
45.16000 6.882
45.18000 3.195
45.20000 2.411
45.22000 10.495
45.24000 11.155
45.26000 7.371
45.28000 7.642
45.30000 6.383
45.32000 6.522
45.34000 4.736
45.36000 10.303
45.38000 8.362
45.40000 10.710
45.42000 10.240
45.44000 12.800
45.46000 10.556
45.48000 10.409
45.50000 10.013
45.52000 13.237
45.54000 15.420
45.56000 16.953
45.58000 14.663
45.60000 15.868
45.62000 16.951
45.64000 19.611
45.66000 25.829
45.68000 23.277
45.70000 22.339
45.72000 18.503
45.74000 24.704
45.76000 21.060
45.78000 20.645
45.80000 20.627
45.82000 24.478
45.84000 24.685
45.86000 26.305
45.88000 32.343
45.90000 29.038
45.92000 26.656
45.94000 37.322
45.96000 35.090
45.98000 31.518
46.00000 38.289
46.02000 39.248
46.04000 38.821
46.06000 37.169
46.08000 52.902
46.10000 45.669
46.12000 43.818
46.14000 43.840
46.16000 44.031
46.18000 49.464
46.20000 51.540
46.22000 50.968
46.24000 45.929
46.26000 48.072
46.28000 46.402
46.30000 45.918
46.32000 56.955
46.34000 57.849
46.36000 62.287
46.38000 58.703
46.40000 58.073
46.42000 67.699
46.44000 66.252
46.46000 58.129
46.48000 60.346
46.50000 66.129
46.52000 67.528
46.54000 71.268
46.56000 76.015
46.58000 75.358
46.60000 67.325
46.62000 63.679
46.64000 76.830
46.66000 75.061
46.68000 72.973
46.70000 80.297
46.72000 88.414
46.74000 81.354
46.76000 76.615
46.78000 79.375
46.80000 78.016
46.82000 80.749
46.84000 76.399
46.86000 75.329
46.88000 78.767
46.90000 81.486
46.92000 84.238
46.94000 87.316
46.96000 84.151
46.98000 82.351
47.00000 87.021
47.02000 83.532
47.04000 83.661
47.06000 87.513
47.08000 87.186
47.10000 84.265
47.12000 77.608
47.14000 72.261
47.16000 76.939
47.18000 76.913
47.20000 77.961
47.22000 76.096
47.24000 74.089
47.26000 75.766
47.28000 67.526
47.30000 71.155
47.32000 71.886
47.34000 69.153
47.36000 63.053
47.38000 65.071
47.40000 65.118
47.42000 71.562
47.44000 71.893
47.46000 64.891
47.48000 60.568
47.50000 49.143
47.52000 49.272
47.54000 51.890
47.56000 52.494
47.58000 51.008
47.60000 50.948
47.62000 52.845
47.64000 45.176
47.66000 38.290
47.68000 37.780
47.70000 40.891
47.72000 36.535
47.74000 33.865
47.76000 32.820
47.78000 34.044
47.80000 33.379
47.82000 30.164
47.84000 29.169
47.86000 34.134
47.88000 32.183
47.90000 27.357
47.92000 32.185
47.94000 29.732
47.96000 25.879
47.98000 21.934
48.00000 24.805
48.02000 19.467
48.04000 22.228
48.06000 25.741
48.08000 25.999
48.10000 22.521
48.12000 19.303
48.14000 20.687
48.16000 17.557
48.18000 8.517
48.20000 7.313
48.22000 10.752
48.24000 10.549
48.26000 13.530
48.28000 16.762
48.30000 15.093
48.32000 13.483
48.34000 15.926
48.36000 11.368
48.38000 10.301
48.40000 6.169
48.42000 9.926
48.44000 9.384
48.46000 9.988
48.48000 11.460
48.50000 9.299
48.52000 12.952
48.54000 12.382
48.56000 10.019
48.58000 9.059
48.60000 12.857
48.62000 15.664
48.64000 5.035
48.66000 1.048
48.68000 4.543
48.70000 4.986
48.72000 4.739
48.74000 7.239
48.76000 6.555
48.78000 8.326
48.80000 7.141
48.82000 3.134
48.84000 7.334
48.86000 9.466
48.88000 12.745
48.90000 14.389
48.92000 8.282
48.94000 6.022
48.96000 6.799
48.98000 7.647
49.00000 7.931
49.02000 4.310
49.04000 -3.151
49.06000 2.279
49.08000 2.996
49.10000 5.828
49.12000 8.521
49.14000 10.615
49.16000 5.826
49.18000 5.070
49.20000 5.843
49.22000 0.860
49.24000 -0.364
49.26000 2.568
49.28000 0.734
49.30000 8.387
49.32000 9.241
49.34000 4.824
49.36000 5.365
49.38000 6.524
49.40000 7.279
49.42000 7.831
49.44000 10.314
49.46000 8.716
49.48000 3.823
49.50000 4.240
49.52000 5.125
49.54000 6.669
49.56000 2.960
49.58000 11.188
49.60000 13.448
49.62000 6.168
49.64000 9.853
49.66000 14.267
49.68000 8.357
49.70000 3.806
49.72000 8.029
49.74000 4.877
49.76000 1.825
49.78000 3.479
49.80000 -1.830
49.82000 -1.106
49.84000 5.345
49.86000 5.911
49.88000 6.533
49.90000 11.267
49.92000 4.023
49.94000 -3.064
49.96000 1.849
49.98000 10.740
50.00000 6.970
50.02000 7.740
50.04000 4.108
50.06000 3.264
50.08000 0.239
50.10000 -3.056
50.12000 -0.117
50.14000 0.799
50.16000 6.721
50.18000 7.579
50.20000 6.267
50.22000 2.481
50.24000 -0.341
50.26000 5.912
50.28000 3.836
50.30000 0.731
50.32000 3.977
50.34000 -3.049
50.36000 1.857
50.38000 6.264
50.40000 4.317
50.42000 1.587
50.44000 6.008
50.46000 5.338
50.48000 8.938
50.50000 5.472
50.52000 4.556
50.54000 7.532
50.56000 0.797
50.58000 2.063
50.60000 -0.013
50.62000 4.257
50.64000 5.293
50.66000 6.018
50.68000 5.379
50.70000 5.775
50.72000 5.197
50.74000 4.799
50.76000 2.861
50.78000 8.200
50.80000 3.713
50.82000 -1.938
50.84000 4.394
50.86000 6.562
50.88000 3.029
50.90000 2.466
50.92000 -1.164
50.94000 -0.589
50.96000 1.915
50.98000 0.899
51.00000 0.634
51.02000 7.241
51.04000 6.399
51.06000 8.579
51.08000 8.593
51.10000 4.591
51.12000 4.869
51.14000 3.090
51.16000 0.104
51.18000 4.245
51.20000 8.782
51.22000 5.426
51.24000 4.939
51.26000 1.670
51.28000 0.645
51.30000 7.184
51.32000 6.931
51.34000 0.945
51.36000 0.729
51.38000 -3.010
51.40000 4.366
51.42000 4.316
51.44000 4.973
51.46000 6.822
51.48000 3.867
51.50000 4.491
51.52000 2.272
51.54000 6.168
51.56000 3.602
51.58000 6.740
51.60000 4.796
51.62000 3.807
51.64000 4.637
51.66000 7.761
51.68000 10.088
51.70000 6.257
51.72000 6.161
51.74000 7.399
51.76000 7.437
51.78000 4.935
51.80000 -1.463
51.82000 -1.538
51.84000 3.486
51.86000 5.277
51.88000 7.375
51.90000 5.752
51.92000 -2.966
51.94000 4.230
51.96000 8.418
51.98000 7.551
52.00000 9.364
52.02000 7.113
52.04000 0.920
52.06000 3.258
52.08000 2.645
52.10000 1.335
52.12000 2.492
52.14000 4.823
52.16000 4.812
52.18000 4.423
52.20000 8.500
52.22000 9.570
52.24000 6.694
52.26000 0.971
52.28000 1.272
52.30000 7.478
52.32000 5.297
52.34000 4.255
52.36000 9.672
52.38000 8.044
52.40000 1.579
52.42000 2.938
52.44000 5.713
52.46000 6.242
52.48000 2.365
52.50000 3.990
52.52000 5.616
52.54000 7.764
52.56000 8.423
52.58000 3.604
52.60000 -2.949
52.62000 2.230
52.64000 8.410
52.66000 7.991
52.68000 6.792
52.70000 3.102
52.72000 3.757
52.74000 1.945
52.76000 3.352
52.78000 2.871
52.80000 2.779
52.82000 4.476
52.84000 4.452
52.86000 4.644
52.88000 6.457
52.90000 0.866
52.92000 -1.262
52.94000 1.761
52.96000 1.695
52.98000 6.891
53.00000 5.456
53.02000 1.500
53.04000 6.001
53.06000 7.810
53.08000 3.702
53.10000 2.894
53.12000 -0.960
53.14000 -1.083
53.16000 -2.957
53.18000 -1.498
53.20000 0.218
53.22000 1.400
53.24000 3.307
53.26000 1.171
53.28000 6.710
53.30000 4.922
53.32000 3.538
53.34000 -0.702
53.36000 3.209
53.38000 4.868
53.40000 4.866
53.42000 2.328
53.44000 0.167
53.46000 1.078
53.48000 0.791
53.50000 1.285
53.52000 4.884
53.54000 6.158
53.56000 2.200
53.58000 0.252
53.60000 3.411
53.62000 4.096
53.64000 3.611
53.66000 0.841
53.68000 1.166
53.70000 0.836
53.72000 6.604
53.74000 7.494
53.76000 3.150
53.78000 1.742
53.80000 4.742
53.82000 5.805
53.84000 -1.131
53.86000 2.363
53.88000 6.476
53.90000 6.627
53.92000 3.720
53.94000 5.805
53.96000 5.120
53.98000 3.353
54.00000 2.162
54.02000 0.648
54.04000 -1.157
54.06000 0.841
54.08000 3.911
54.10000 2.131
54.12000 2.284
54.14000 1.742
54.16000 2.575
54.18000 0.847
54.20000 2.636
54.22000 3.282
54.24000 1.967
54.26000 2.850
54.28000 0.331
54.30000 1.837
54.32000 -0.827
54.34000 -0.171
54.36000 8.545
54.38000 1.894
54.40000 2.442
54.42000 5.674
54.44000 6.877
54.46000 0.891
54.48000 -0.452
54.50000 -0.223
54.52000 -1.488
54.54000 1.549
54.56000 -0.734
54.58000 2.069
54.60000 -0.640
54.62000 2.016
54.64000 -2.924
54.66000 -1.612
54.68000 2.733
54.70000 0.730
54.72000 6.048
54.74000 7.325
54.76000 3.172
54.78000 2.928
54.80000 2.698
54.82000 3.640
54.84000 7.478
54.86000 1.448
54.88000 2.461
54.90000 8.297
54.92000 9.128
54.94000 2.017
54.96000 -2.909
54.98000 1.476
55.00000 5.901
55.02000 5.028
55.04000 5.201
55.06000 6.003
55.08000 4.572
55.10000 0.201
55.12000 -1.073
55.14000 -2.902
55.16000 0.810
55.18000 3.610
55.20000 4.864
55.22000 0.973
55.24000 6.202
55.26000 10.191
55.28000 6.296
55.30000 5.430
55.32000 6.909
55.34000 7.779
55.36000 7.226
55.38000 7.342
55.40000 1.930
55.42000 6.350
55.44000 9.946
55.46000 7.709
55.48000 -1.431
55.50000 -2.667
55.52000 -2.793
55.54000 1.717
55.56000 0.338
55.58000 0.645
55.60000 5.383
55.62000 3.707
55.64000 2.858
55.66000 5.143
55.68000 4.204
55.70000 5.529
55.72000 2.135
55.74000 1.427
55.76000 2.439
55.78000 7.876
55.80000 3.271
55.82000 0.269
55.84000 0.243
55.86000 2.340
55.88000 3.924
55.90000 3.960
55.92000 2.286
55.94000 2.979
55.96000 -0.112
55.98000 4.016
56.00000 4.780
56.02000 5.472
56.04000 4.714
56.06000 -0.739
56.08000 -1.490
56.10000 0.707
56.12000 0.969
56.14000 5.848
56.16000 1.047
56.18000 1.115
56.20000 2.840
56.22000 6.108
56.24000 3.902
56.26000 1.848
56.28000 -0.323
56.30000 4.913
56.32000 7.676
56.34000 -0.691
56.36000 0.444
56.38000 8.101
56.40000 8.564
56.42000 7.172
56.44000 1.413
56.46000 1.399
56.48000 1.635
56.50000 3.570
56.52000 1.845
56.54000 -2.861
56.56000 -0.196
56.58000 4.274
56.60000 7.466
56.62000 4.884
56.64000 4.248
56.66000 1.226
56.68000 4.877
56.70000 8.671
56.72000 7.519
56.74000 2.222
56.76000 0.850
56.78000 5.540
56.80000 7.935
56.82000 5.733
56.84000 1.287
56.86000 6.543
56.88000 8.181
56.90000 9.401
56.92000 2.878
56.94000 -1.056
56.96000 3.957
56.98000 2.898
57.00000 1.188
57.02000 5.599
57.04000 1.539
57.06000 -2.783
57.08000 1.964
57.10000 2.041
57.12000 5.655
57.14000 7.727
57.16000 10.525
57.18000 6.283
57.20000 -1.319
57.22000 -0.997
57.24000 6.746
57.26000 6.700
57.28000 2.122
57.30000 3.365
57.32000 2.041
57.34000 -2.469
57.36000 4.689
57.38000 9.135
57.40000 4.238
57.42000 2.992
57.44000 6.002
57.46000 6.412
57.48000 5.077
57.50000 1.933
57.52000 4.639
57.54000 -0.289
57.56000 1.668
57.58000 2.019
57.60000 2.565
57.62000 0.060
57.64000 -2.010
57.66000 -1.397
57.68000 -2.813
57.70000 -1.932
57.72000 2.085
57.74000 6.184
57.76000 1.190
57.78000 -0.678
57.80000 1.195
57.82000 -0.365
57.84000 4.126
57.86000 7.632
57.88000 4.739
57.90000 2.509
57.92000 -1.806
57.94000 1.385
57.96000 3.497
57.98000 8.350
58.00000 6.657
58.02000 -0.551
58.04000 -0.919
58.06000 0.854
58.08000 0.799
58.10000 2.046
58.12000 1.201
58.14000 0.172
58.16000 1.515
58.18000 3.525
58.20000 2.394
58.22000 1.125
58.24000 -2.084
58.26000 2.842
58.28000 1.087
58.30000 3.374
58.32000 -0.338
58.34000 1.326
58.36000 -1.034
58.38000 -2.819
58.40000 -0.671
58.42000 3.665
58.44000 -2.278
58.46000 -1.629
58.48000 1.432
58.50000 -1.843
58.52000 -1.869
58.54000 1.466
58.56000 -1.874
58.58000 -1.942
58.60000 -0.260
58.62000 0.338
58.64000 4.931
58.66000 2.653
58.68000 3.131
58.70000 3.661
58.72000 2.776
58.74000 2.523
58.76000 -0.605
58.78000 4.407
58.80000 4.447
58.82000 3.234
58.84000 6.182
58.86000 5.040
58.88000 7.579
58.90000 2.692
58.92000 -0.753
58.94000 1.346
58.96000 4.426
58.98000 1.229
59.00000 4.479
59.02000 4.917
59.04000 4.182
59.06000 2.523
59.08000 -0.099
59.10000 2.325
59.12000 7.625
59.14000 5.952
59.16000 5.323
59.18000 0.615
59.20000 2.154
59.22000 3.282
59.24000 1.980
59.26000 -1.873
59.28000 0.677
59.30000 -0.717
59.32000 -2.642
59.34000 -2.746
59.36000 1.037
59.38000 8.976
59.40000 1.151
59.42000 -0.614
59.44000 6.007
59.46000 3.889
59.48000 1.028
59.50000 3.043
59.52000 5.141
59.54000 2.649
59.56000 0.157
59.58000 2.813
59.60000 8.240
59.62000 2.472
59.64000 -2.463
59.66000 -2.150
59.68000 -0.416
59.70000 2.714
59.72000 3.254
59.74000 4.158
59.76000 3.048
59.78000 2.134
59.80000 2.949
59.82000 1.340
59.84000 5.221
59.86000 7.442
59.88000 8.111
59.90000 8.218
59.92000 4.670
59.94000 6.699
59.96000 6.773
59.98000 3.160
60.00000 7.215
60.02000 4.781
60.04000 2.128
60.06000 -0.530
60.08000 3.438
60.10000 3.767
60.12000 6.671
60.14000 -0.515
60.16000 3.089
60.18000 3.344
60.20000 2.055
60.22000 -2.569
60.24000 3.280
60.26000 6.066
60.28000 6.611
60.30000 4.788
60.32000 -1.021
60.34000 0.282
60.36000 6.738
60.38000 9.095
60.40000 6.418
60.42000 5.549
60.44000 6.945
60.46000 8.645
60.48000 5.782
60.50000 3.222
60.52000 -2.664
60.54000 0.153
60.56000 2.469
60.58000 7.006
60.60000 8.517
60.62000 9.901
60.64000 9.497
60.66000 9.224
60.68000 9.365
60.70000 7.745
60.72000 8.744
60.74000 5.910
60.76000 5.796
60.78000 1.985
60.80000 5.904
60.82000 6.702
60.84000 8.265
60.86000 11.365
60.88000 10.073
60.90000 0.098
60.92000 2.338
60.94000 2.202
60.96000 0.071
60.98000 4.737
61.00000 5.820
61.02000 7.462
61.04000 4.028
61.06000 -0.664
61.08000 1.594
61.10000 2.370
61.12000 9.401
61.14000 9.094
61.16000 3.868
61.18000 2.945
61.20000 4.190
61.22000 -0.371
61.24000 3.453
61.26000 -0.240
61.28000 -0.204
61.30000 3.308
61.32000 6.814
61.34000 6.038
61.36000 6.763
61.38000 4.137
61.40000 1.285
61.42000 0.887
61.44000 1.381
61.46000 2.215
61.48000 4.086
61.50000 8.337
61.52000 9.908
61.54000 5.953
61.56000 3.303
61.58000 5.531
61.60000 2.142
61.62000 2.332
61.64000 2.302
61.66000 3.799
61.68000 5.571
61.70000 5.129
61.72000 2.879
61.74000 -0.294
61.76000 2.539
61.78000 2.535
61.80000 0.942
61.82000 -2.694
61.84000 0.353
61.86000 3.833
61.88000 -0.208
61.90000 0.160
61.92000 -1.798
61.94000 1.254
61.96000 2.835
61.98000 4.905
62.00000 2.404
62.02000 -1.328
62.04000 2.244
62.06000 2.526
62.08000 1.304
62.10000 3.957
62.12000 3.123
62.14000 3.160
62.16000 6.993
62.18000 7.456
62.20000 4.019
62.22000 3.535
62.24000 3.078
62.26000 1.099
62.28000 2.025
62.30000 -0.102
62.32000 1.414
62.34000 2.053
62.36000 -0.984
62.38000 -1.537
62.40000 -1.686
62.42000 2.587
62.44000 4.647
62.46000 3.477
62.48000 2.819
62.50000 -0.859
62.52000 1.691
62.54000 2.626
62.56000 6.056
62.58000 7.949
62.60000 5.966
62.62000 5.798
62.64000 2.253
62.66000 4.806
62.68000 5.778
62.70000 4.553
62.72000 5.050
62.74000 2.465
62.76000 -2.658
62.78000 3.373
62.80000 5.417
62.82000 3.836
62.84000 4.339
62.86000 -1.004
62.88000 -0.035
62.90000 3.133
62.92000 3.908
62.94000 5.189
62.96000 3.925
62.98000 5.011
63.00000 6.051
63.02000 5.051
63.04000 7.496
63.06000 5.487
63.08000 3.080
63.10000 1.015
63.12000 3.947
63.14000 4.031
63.16000 2.774
63.18000 1.713
63.20000 1.049
63.22000 2.338
63.24000 3.754
63.26000 1.836
63.28000 -2.654
63.30000 -2.028
63.32000 1.134
63.34000 3.783
63.36000 5.308
63.38000 6.023
63.40000 3.785
63.42000 2.042
63.44000 5.284
63.46000 2.448
63.48000 3.238
63.50000 5.150
63.52000 5.899
63.54000 4.359
63.56000 0.467
63.58000 0.691
63.60000 3.060
63.62000 8.316
63.64000 3.815
63.66000 5.144
63.68000 2.247
63.70000 4.545
63.72000 2.433
63.74000 0.487
63.76000 1.110
63.78000 2.460
63.80000 -0.536
63.82000 4.020
63.84000 6.520
63.86000 4.387
63.88000 5.853
63.90000 6.069
63.92000 7.006
63.94000 4.553
63.96000 -0.837
63.98000 1.102
64.00000 3.813
64.02000 4.990
64.04000 7.098
64.06000 4.735
64.08000 4.110
64.10000 5.051
64.12000 2.660
64.14000 4.347
64.16000 4.033
64.18000 -0.068
64.20000 3.701
64.22000 2.397
64.24000 2.851
64.26000 4.951
64.28000 6.512
64.30000 3.293
64.32000 1.859
64.34000 1.478
64.36000 2.512
64.38000 5.756
64.40000 -1.329
64.42000 -1.210
64.44000 2.844
64.46000 6.525
64.48000 4.241
64.50000 4.108
64.52000 4.575
64.54000 5.550
64.56000 4.327
64.58000 4.203
64.60000 -2.651
64.62000 -0.411
64.64000 4.321
64.66000 8.000
64.68000 9.151
64.70000 12.003
64.72000 9.124
64.74000 0.229
64.76000 2.060
64.78000 3.522
64.80000 -0.274
64.82000 1.999
64.84000 0.820
64.86000 2.630
64.88000 5.359
64.90000 6.324
64.92000 6.745
64.94000 7.232
64.96000 6.658
64.98000 1.778
65.00000 5.576
65.02000 7.538
65.04000 6.601
65.06000 5.152
65.08000 5.112
65.10000 1.709
65.12000 2.559
65.14000 -2.674
65.16000 2.776
65.18000 4.018
65.20000 5.737
65.22000 3.528
65.24000 3.129
65.26000 4.163
65.28000 2.751
65.30000 5.341
65.32000 -0.073
65.34000 2.118
65.36000 3.809
65.38000 3.437
65.40000 7.368
65.42000 5.767
65.44000 3.561
65.46000 2.582
65.48000 2.503
65.50000 0.666
65.52000 -0.043
65.54000 0.405
65.56000 0.429
65.58000 0.595
65.60000 -2.708
65.62000 1.546
65.64000 2.237
65.66000 0.514
65.68000 1.521
65.70000 -2.135
65.72000 -1.255
65.74000 3.312
65.76000 6.375
65.78000 5.365
65.80000 4.178
65.82000 1.334
65.84000 1.597
65.86000 -1.480
65.88000 0.461
65.90000 1.473
65.92000 0.544
65.94000 1.466
65.96000 2.256
65.98000 1.398
66.00000 2.712
66.02000 3.109
66.04000 1.124
66.06000 0.083
66.08000 -0.811
66.10000 1.072
66.12000 -0.221
66.14000 -0.288
66.16000 -1.700
66.18000 0.467
66.20000 -0.808
66.22000 -1.395
66.24000 -0.613
66.26000 0.115
66.28000 0.297
66.30000 3.093
66.32000 3.774
66.34000 4.458
66.36000 0.762
66.38000 2.138
66.40000 0.468
66.42000 0.084
66.44000 -0.149
66.46000 0.164
66.48000 -0.942
66.50000 1.938
66.52000 1.187
66.54000 0.039
66.56000 1.534
66.58000 -0.593
66.60000 -2.765
66.62000 -0.713
66.64000 0.444
66.66000 3.836
66.68000 2.420
66.70000 1.650
66.72000 4.327
66.74000 1.230
66.76000 -1.205
66.78000 -1.769
66.80000 2.046
66.82000 2.679
66.84000 3.115
66.86000 5.809
66.88000 5.080
66.90000 3.467
66.92000 0.398
66.94000 1.900
66.96000 6.602
66.98000 5.461
67.00000 4.135
67.02000 1.817
67.04000 8.325
67.06000 8.266
67.08000 5.494
67.10000 0.414
67.12000 3.153
67.14000 4.484
67.16000 3.157
67.18000 1.343
67.20000 3.489
67.22000 4.190
67.24000 6.607
67.26000 6.960
67.28000 6.325
67.30000 4.432
67.32000 3.625
67.34000 7.577
67.36000 10.164
67.38000 11.150
67.40000 10.573
67.42000 7.068
67.44000 7.712
67.46000 6.039
67.48000 3.881
67.50000 6.595
67.52000 10.078
67.54000 6.770
67.56000 5.697
67.58000 5.410
67.60000 8.792
67.62000 10.985
67.64000 8.443
67.66000 12.639
67.68000 11.624
67.70000 9.936
67.72000 11.184
67.74000 12.725
67.76000 14.044
67.78000 15.276
67.80000 15.195
67.82000 11.752
67.84000 16.816
67.86000 16.673
67.88000 10.267
67.90000 14.355
67.92000 15.758
67.94000 18.907
67.96000 16.289
67.98000 14.337
68.00000 15.289
68.02000 18.087
68.04000 21.631
68.06000 17.733
68.08000 21.344
68.10000 18.884
68.12000 19.640
68.14000 20.734
68.16000 18.929
68.18000 22.056
68.20000 24.440
68.22000 25.054
68.24000 17.095
68.26000 21.727
68.28000 24.555
68.30000 25.615
68.32000 25.801
68.34000 28.202
68.36000 26.919
68.38000 24.866
68.40000 28.427
68.42000 30.683
68.44000 26.844
68.46000 27.404
68.48000 27.495
68.50000 26.077
68.52000 23.793
68.54000 21.782
68.56000 19.335
68.58000 20.799
68.60000 29.810
68.62000 34.420
68.64000 33.096
68.66000 30.147
68.68000 35.231
68.70000 30.623
68.72000 27.335
68.74000 27.597
68.76000 27.171
68.78000 29.192
68.80000 25.044
68.82000 27.753
68.84000 29.349
68.86000 28.143
68.88000 25.764
68.90000 26.428
68.92000 32.357
68.94000 31.795
68.96000 24.888
68.98000 18.485
69.00000 19.867
69.02000 22.268
69.04000 20.601
69.06000 25.500
69.08000 22.624
69.10000 21.308
69.12000 23.378
69.14000 21.265
69.16000 18.998
69.18000 21.085
69.20000 20.048
69.22000 19.393
69.24000 18.287
69.26000 16.694
69.28000 16.491
69.30000 14.364
69.32000 12.189
69.34000 16.699
69.36000 13.927
69.38000 10.203
69.40000 12.339
69.42000 13.526
69.44000 11.997
69.46000 13.064
69.48000 8.654
69.50000 10.209
69.52000 10.636
69.54000 11.794
69.56000 9.333
69.58000 6.761
69.60000 3.618
69.62000 7.315
69.64000 6.339
69.66000 2.372
69.68000 4.542
69.70000 7.615
69.72000 15.017
69.74000 7.703
69.76000 6.898
69.78000 2.845
69.80000 5.163
69.82000 5.574
69.84000 6.294
69.86000 5.498
69.88000 3.289
69.90000 7.807
69.92000 6.315
69.94000 4.538
69.96000 2.168
69.98000 1.358
70.00000 5.332
70.02000 2.465
70.04000 -0.246
70.06000 0.512
70.08000 1.503
70.10000 5.099
70.12000 6.297
70.14000 0.621
70.16000 -2.666
70.18000 0.095
70.20000 -0.161
70.22000 -0.839
70.24000 -1.565
70.26000 -0.039
70.28000 1.366
70.30000 5.224
70.32000 4.205
70.34000 7.288
70.36000 3.529
70.38000 0.519
70.40000 1.278
70.42000 4.085
70.44000 3.293
70.46000 -0.017
70.48000 2.051
70.50000 2.601
70.52000 2.154
70.54000 3.512
70.56000 -0.094
70.58000 1.010
70.60000 3.752
70.62000 7.299
70.64000 9.178
70.66000 3.539
70.68000 5.287
70.70000 3.173
70.72000 -2.601
70.74000 -1.894
70.76000 -1.053
70.78000 0.981
70.80000 1.610
70.82000 0.529
70.84000 2.572
70.86000 -1.420
70.88000 -2.584
70.90000 0.344
70.92000 3.816
70.94000 2.604
70.96000 2.438
70.98000 2.239
71.00000 0.521
71.02000 4.179
71.04000 1.018
71.06000 -0.041
71.08000 -0.894
71.10000 -0.099
71.12000 2.518
71.14000 -0.896
71.16000 1.459
71.18000 2.991
71.20000 1.333
71.22000 5.571
71.24000 3.428
71.26000 6.332
71.28000 10.715
71.30000 7.442
71.32000 2.352
71.34000 1.681
71.36000 0.429
71.38000 0.304
71.40000 -1.561
71.42000 1.231
71.44000 2.809
71.46000 4.993
71.48000 3.221
71.50000 4.672
71.52000 8.834
71.54000 15.552
71.56000 5.593
71.58000 0.691
71.60000 3.955
71.62000 2.758
71.64000 4.395
71.66000 1.140
71.68000 3.306
71.70000 5.953
71.72000 7.101
71.74000 5.286
71.76000 0.156
71.78000 0.906
71.80000 5.443
71.82000 2.606
71.84000 -2.036
71.86000 -2.542
71.88000 0.024
71.90000 3.838
71.92000 1.169
71.94000 0.654
71.96000 1.258
71.98000 3.487
72.00000 1.970
72.02000 6.680
72.04000 6.266
72.06000 7.752
72.08000 6.425
72.10000 3.655
72.12000 3.404
72.14000 3.457
72.16000 1.904
72.18000 0.762
72.20000 -0.092
72.22000 -0.134
72.24000 0.337
72.26000 1.634
72.28000 2.644
72.30000 6.560
72.32000 1.731
72.34000 0.168
72.36000 -0.460
72.38000 0.993
72.40000 3.299
72.42000 1.804
72.44000 2.859
72.46000 -2.520
72.48000 3.206
72.50000 5.197
72.52000 2.902
72.54000 4.113
72.56000 2.722
72.58000 4.912
72.60000 -0.513
72.62000 0.311
72.64000 2.891
72.66000 1.533
72.68000 2.686
72.70000 4.590
72.72000 2.864
72.74000 0.061
72.76000 2.194
72.78000 5.687
72.80000 7.173
72.82000 7.196
72.84000 7.086
72.86000 5.566
72.88000 4.914
72.90000 8.722
72.92000 0.894
72.94000 1.298
72.96000 3.298
72.98000 0.836
73.00000 1.874
73.02000 9.107
73.04000 9.748
73.06000 9.969
73.08000 3.634
73.10000 0.802
73.12000 7.275
73.14000 3.751
73.16000 4.450
73.18000 3.327
73.20000 6.604
73.22000 4.913
73.24000 4.340
73.26000 1.201
73.28000 3.198
73.30000 3.797
73.32000 2.354
73.34000 2.703
73.36000 3.747
73.38000 6.891
73.40000 6.606
73.42000 6.627
73.44000 5.338
73.46000 5.113
73.48000 4.753
73.50000 -2.423
73.52000 -0.818
73.54000 4.398
73.56000 10.067
73.58000 10.063
73.60000 6.226
73.62000 3.038
73.64000 6.571
73.66000 7.899
73.68000 4.427
73.70000 5.792
73.72000 6.068
73.74000 1.971
73.76000 2.921
73.78000 3.670
73.80000 10.608
73.82000 6.428
73.84000 4.030
73.86000 3.828
73.88000 6.029
73.90000 2.830
73.92000 2.987
73.94000 0.525
73.96000 5.431
73.98000 2.303
74.00000 2.488
74.02000 5.561
74.04000 1.969
74.06000 2.337
74.08000 5.889
74.10000 9.278
74.12000 9.404
74.14000 4.693
74.16000 -2.239
74.18000 -0.183
74.20000 3.923
74.22000 2.507
74.24000 5.812
74.26000 6.325
74.28000 1.152
74.30000 1.003
74.32000 1.285
74.34000 0.435
74.36000 -0.164
74.38000 -0.606
74.40000 0.698
74.42000 0.730
74.44000 1.525
74.46000 5.481
74.48000 0.476
74.50000 4.930
74.52000 4.284
74.54000 4.477
74.56000 2.584
74.58000 4.380
74.60000 4.556
74.62000 6.623
74.64000 3.119
74.66000 -0.439
74.68000 -2.487
74.70000 2.045
74.72000 4.255
74.74000 6.330
74.76000 0.659
74.78000 -1.780
74.80000 1.468
74.82000 5.017
74.84000 2.003
74.86000 1.189
74.88000 8.108
74.90000 7.448
74.92000 4.344
74.94000 -1.247
74.96000 -1.022
74.98000 0.899
75.00000 2.911
75.02000 3.406
75.04000 3.553
75.06000 5.229
75.08000 7.293
75.10000 3.690
75.12000 -2.486
75.14000 5.019
75.16000 5.262
75.18000 6.616
75.20000 3.230
75.22000 3.219
75.24000 0.409
75.26000 0.526
75.28000 11.714
75.30000 8.402
75.32000 5.123
75.34000 6.625
75.36000 2.432
75.38000 1.016
75.40000 1.531
75.42000 0.354
75.44000 -2.453
75.46000 1.213
75.48000 6.149
75.50000 1.255
75.52000 0.924
75.54000 0.064
75.56000 2.187
75.58000 0.995
75.60000 -0.319
75.62000 -1.069
75.64000 2.369
75.66000 3.166
75.68000 3.981
75.70000 1.591
75.72000 -1.217
75.74000 2.629
75.76000 0.610
75.78000 2.043
75.80000 1.981
75.82000 0.225
75.84000 0.692
75.86000 6.060
75.88000 6.823
75.90000 6.640
75.92000 9.269
75.94000 7.463
75.96000 -0.803
75.98000 -1.083
76.00000 3.625
76.02000 4.189
76.04000 2.773
76.06000 2.515
76.08000 -1.271
76.10000 0.102
76.12000 -2.488
76.14000 1.443
76.16000 3.849
76.18000 3.205
76.20000 5.549
76.22000 2.977
76.24000 8.227
76.26000 6.536
76.28000 0.545
76.30000 4.636
76.32000 6.893
76.34000 5.385
76.36000 8.963
76.38000 6.263
76.40000 1.956
76.42000 2.506
76.44000 5.253
76.46000 4.178
76.48000 1.261
76.50000 -1.016
76.52000 2.162
76.54000 5.532
76.56000 3.719
76.58000 4.831
76.60000 5.646
76.62000 5.864
76.64000 2.238
76.66000 1.716
76.68000 3.821
76.70000 2.492
76.72000 2.546
76.74000 4.148
76.76000 4.789
76.78000 7.564
76.80000 4.613
76.82000 2.678
76.84000 2.233
76.86000 2.195
76.88000 2.654
76.90000 0.273
76.92000 9.403
76.94000 6.281
76.96000 1.288
76.98000 3.351
77.00000 2.573
77.02000 4.502
77.04000 1.965
77.06000 -2.477
77.08000 0.989
77.10000 3.525
77.12000 7.942
77.14000 11.347
77.16000 10.650
77.18000 9.886
77.20000 7.217
77.22000 0.528
77.24000 0.762
77.26000 5.245
77.28000 6.258
77.30000 5.898
77.32000 3.482
77.34000 -0.185
77.36000 2.182
77.38000 8.040
77.40000 6.020
77.42000 3.098
77.44000 1.184
77.46000 4.758
77.48000 7.430
77.50000 4.561
77.52000 1.327
77.54000 1.357
77.56000 2.052
77.58000 3.915
77.60000 0.703
77.62000 0.320
77.64000 5.416
77.66000 7.052
77.68000 5.915
77.70000 3.345
77.72000 4.709
77.74000 3.579
77.76000 1.000
77.78000 0.682
77.80000 2.270
77.82000 2.154
77.84000 2.759
77.86000 1.936
77.88000 3.792
77.90000 7.725
77.92000 4.846
77.94000 0.833
77.96000 -0.362
77.98000 -0.264
78.00000 5.641
78.02000 7.677
78.04000 7.168
78.06000 3.955
78.08000 1.629
78.10000 6.995
78.12000 4.751
78.14000 3.311
78.16000 4.389
78.18000 0.973
78.20000 -0.672
78.22000 0.850
78.24000 7.777
78.26000 -0.296
78.28000 -2.200
78.30000 1.689
78.32000 0.903
78.34000 3.519
78.36000 10.329
78.38000 12.548
78.40000 4.536
78.42000 2.568
78.44000 2.814
78.46000 7.082
78.48000 6.459
78.50000 3.540
78.52000 0.926
78.54000 -1.394
78.56000 3.687
78.58000 6.578
78.60000 7.222
78.62000 0.274
78.64000 7.983
78.66000 6.340
78.68000 11.764
78.70000 5.817
78.72000 8.954
78.74000 8.473
78.76000 5.199
78.78000 4.669
78.80000 -0.172
78.82000 -2.500
78.84000 3.609
78.86000 4.071
78.88000 5.382
78.90000 0.310
78.92000 0.454
78.94000 4.489
78.96000 4.471
78.98000 6.061
79.00000 7.401
79.02000 1.889
79.04000 -0.137
79.06000 1.499
79.08000 3.312
79.10000 6.000
79.12000 9.930
79.14000 6.102
79.16000 4.567
79.18000 9.970
79.20000 10.205
79.22000 8.535
79.24000 10.617
79.26000 5.651
79.28000 5.750
79.30000 4.530
79.32000 -0.169
79.34000 -0.201
79.36000 2.916
79.38000 4.827
79.40000 8.379
79.42000 9.307
79.44000 6.529
79.46000 4.658
79.48000 4.889
79.50000 9.907
79.52000 6.580
79.54000 6.609
79.56000 -2.553
79.58000 1.702
79.60000 7.203
79.62000 5.019
79.64000 -1.957
79.66000 1.077
79.68000 6.635
79.70000 5.307
79.72000 -0.219
79.74000 -1.431
79.76000 -1.775
79.78000 1.590
79.80000 2.037
79.82000 3.993
79.84000 0.188
79.86000 1.518
79.88000 -0.042
79.90000 2.492
79.92000 0.514
79.94000 -0.565
79.96000 1.025
79.98000 2.525
80.00000 -0.691
80.02000 0.110
80.04000 -0.250
80.06000 3.665
80.08000 4.613
80.10000 0.164
80.12000 -1.156
80.14000 3.885
80.16000 6.345
80.18000 3.744
80.20000 1.838
80.22000 4.761
80.24000 5.413
80.26000 -2.479
80.28000 -2.271
80.30000 -0.684
80.32000 -0.806
80.34000 3.481
80.36000 0.400
80.38000 -0.656
80.40000 1.284
80.42000 3.156
80.44000 5.001
80.46000 0.297
80.48000 -0.980
80.50000 -2.269
80.52000 -0.281
80.54000 8.981
80.56000 4.209
80.58000 4.383
80.60000 4.159
80.62000 -1.395
80.64000 2.563
80.66000 7.381
80.68000 4.027
80.70000 2.970
80.72000 -1.454
80.74000 5.843
80.76000 3.056
80.78000 -2.697
80.80000 -1.202
80.82000 5.743
80.84000 3.137
80.86000 5.585
80.88000 -1.232
80.90000 0.972
80.92000 3.372
80.94000 1.653
80.96000 -0.830
80.98000 2.030
81.00000 -1.003
81.02000 -2.716
81.04000 -1.482
81.06000 8.911
81.08000 7.458
81.10000 -0.346
81.12000 -2.564
81.14000 1.647
81.16000 6.683
81.18000 5.312
81.20000 1.965
81.22000 3.852
81.24000 7.504
81.26000 6.422
81.28000 5.451
81.30000 0.431
81.32000 -1.537
81.34000 -0.666
81.36000 4.773
81.38000 3.770
81.40000 5.645
81.42000 8.186
81.44000 10.213
81.46000 8.682
81.48000 9.166
81.50000 12.719
81.52000 10.198
81.54000 13.776
81.56000 12.850
81.58000 8.970
81.60000 11.681
81.62000 10.961
81.64000 11.200
81.66000 7.360
81.68000 5.766
81.70000 8.340
81.72000 9.059
81.74000 10.558
81.76000 12.168
81.78000 11.148
81.80000 8.833
81.82000 9.639
81.84000 17.653
81.86000 13.122
81.88000 13.091
81.90000 10.959
81.92000 10.378
81.94000 12.751
81.96000 16.583
81.98000 11.132
82.00000 10.775
82.02000 14.369
82.04000 15.253
82.06000 15.485
82.08000 15.393
82.10000 14.724
82.12000 14.651
82.14000 15.367
82.16000 15.535
82.18000 19.085
82.20000 18.265
82.22000 15.317
82.24000 15.457
82.26000 17.109
82.28000 15.337
82.30000 26.100
82.32000 20.013
82.34000 21.788
82.36000 23.375
82.38000 22.317
82.40000 17.746
82.42000 20.311
82.44000 21.597
82.46000 22.342
82.48000 23.470
82.50000 22.350
82.52000 17.393
82.54000 18.698
82.56000 25.108
82.58000 29.581
82.60000 27.827
82.62000 26.079
82.64000 28.845
82.66000 27.274
82.68000 21.329
82.70000 20.196
82.72000 21.418
82.74000 31.360
82.76000 33.361
82.78000 28.997
82.80000 32.552
82.82000 38.340
82.84000 27.073
82.86000 22.511
82.88000 20.532
82.90000 22.733
82.92000 23.897
82.94000 26.068
82.96000 28.697
82.98000 27.028
83.00000 29.655
83.02000 26.174
83.04000 18.195
83.06000 22.772
83.08000 22.879
83.10000 23.440
83.12000 28.744
83.14000 21.730
83.16000 18.186
83.18000 26.471
83.20000 30.105
83.22000 31.126
83.24000 26.457
83.26000 28.098
83.28000 18.808
83.30000 21.407
83.32000 20.726
83.34000 18.250
83.36000 22.932
83.38000 20.665
83.40000 24.075
83.42000 19.069
83.44000 20.393
83.46000 20.335
83.48000 20.838
83.50000 25.288
83.52000 23.980
83.54000 19.140
83.56000 16.543
83.58000 21.148
83.60000 22.471
83.62000 20.495
83.64000 22.511
83.66000 19.498
83.68000 17.722
83.70000 23.668
83.72000 18.722
83.74000 14.867
83.76000 15.332
83.78000 19.924
83.80000 23.401
83.82000 14.157
83.84000 13.533
83.86000 12.519
83.88000 8.428
83.90000 11.729
83.92000 13.227
83.94000 6.612
83.96000 15.339
83.98000 15.639
84.00000 4.777
84.02000 9.875
84.04000 8.846
84.06000 6.725
84.08000 12.079
84.10000 9.223
84.12000 12.280
84.14000 11.163
84.16000 9.187
84.18000 9.941
84.20000 7.367
84.22000 8.451
84.24000 7.094
84.26000 2.332
84.28000 2.678
84.30000 7.087
84.32000 7.742
84.34000 8.005
84.36000 2.754
84.38000 1.745
84.40000 2.307
84.42000 3.383
84.44000 3.400
84.46000 5.606
84.48000 5.907
84.50000 11.741
84.52000 5.088
84.54000 2.641
84.56000 5.293
84.58000 5.536
84.60000 1.584
84.62000 1.686
84.64000 0.882
84.66000 2.902
84.68000 3.926
84.70000 8.288
84.72000 5.080
84.74000 0.506
84.76000 1.357
84.78000 -2.621
84.80000 1.189
84.82000 2.471
84.84000 5.069
84.86000 2.395
84.88000 3.851
84.90000 -0.432
84.92000 3.216
84.94000 5.856
84.96000 5.119
84.98000 0.215
85.00000 3.438
85.02000 1.381
85.04000 1.606
85.06000 5.045
85.08000 6.499
85.10000 2.688
85.12000 0.339
85.14000 8.619
85.16000 9.475
85.18000 2.534
85.20000 -0.312
85.22000 7.192
85.24000 8.596
85.26000 -1.091
85.28000 0.910
85.30000 0.856
85.32000 1.955
85.34000 4.401
85.36000 5.335
85.38000 4.143
85.40000 0.922
85.42000 -2.393
85.44000 -0.847
85.46000 -1.392
85.48000 3.328
85.50000 0.769
85.52000 1.702
85.54000 5.208
85.56000 5.092
85.58000 3.828
85.60000 3.752
85.62000 0.694
85.64000 1.377
85.66000 0.403
85.68000 -2.445
85.70000 -1.288
85.72000 0.127
85.74000 2.412
85.76000 3.978
85.78000 2.411
85.80000 1.926
85.82000 3.980
85.84000 5.958
85.86000 4.628
85.88000 -0.611
85.90000 -2.592
85.92000 1.155
85.94000 3.280
85.96000 2.965
85.98000 4.123
86.00000 6.171
86.02000 3.653
86.04000 4.588
86.06000 4.419
86.08000 9.956
86.10000 13.645
86.12000 7.343
86.14000 -0.486
86.16000 -0.981
86.18000 4.660
86.20000 5.704
86.22000 5.214
86.24000 2.624
86.26000 7.266
86.28000 10.014
86.30000 7.000
86.32000 3.489
86.34000 6.957
86.36000 11.867
86.38000 12.885
86.40000 10.903
86.42000 6.732
86.44000 7.276
86.46000 8.921
86.48000 13.029
86.50000 11.356
86.52000 14.758
86.54000 13.081
86.56000 12.562
86.58000 18.021
86.60000 16.220
86.62000 13.775
86.64000 16.626
86.66000 18.576
86.68000 13.903
86.70000 16.055
86.72000 24.426
86.74000 19.428
86.76000 15.001
86.78000 18.421
86.80000 22.242
86.82000 20.048
86.84000 22.655
86.86000 21.027
86.88000 17.036
86.90000 21.370
86.92000 27.394
86.94000 25.975
86.96000 23.228
86.98000 26.693
87.00000 24.686
87.02000 26.298
87.04000 20.083
87.06000 28.851
87.08000 28.005
87.10000 27.289
87.12000 32.902
87.14000 29.267
87.16000 31.228
87.18000 30.031
87.20000 20.712
87.22000 18.843
87.24000 16.984
87.26000 23.750
87.28000 27.487
87.30000 31.884
87.32000 31.639
87.34000 24.418
87.36000 28.683
87.38000 29.436
87.40000 30.738
87.42000 34.638
87.44000 28.041
87.46000 22.497
87.48000 28.597
87.50000 27.822
87.52000 23.596
87.54000 26.557
87.56000 24.868
87.58000 24.804
87.60000 29.301
87.62000 23.560
87.64000 25.806
87.66000 30.025
87.68000 26.817
87.70000 24.285
87.72000 22.452
87.74000 22.325
87.76000 26.962
87.78000 21.877
87.80000 23.366
87.82000 22.624
87.84000 24.693
87.86000 21.504
87.88000 21.475
87.90000 24.093
87.92000 23.602
87.94000 18.330
87.96000 20.682
87.98000 15.329
88.00000 17.497
88.02000 13.369
88.04000 12.634
88.06000 19.275
88.08000 13.449
88.10000 14.711
88.12000 18.032
88.14000 17.092
88.16000 18.497
88.18000 17.773
88.20000 14.182
88.22000 15.900
88.24000 16.472
88.26000 14.790
88.28000 14.717
88.30000 12.791
88.32000 12.979
88.34000 10.118
88.36000 10.942
88.38000 11.699
88.40000 11.031
88.42000 5.490
88.44000 4.606
88.46000 8.667
88.48000 9.867
88.50000 6.400
88.52000 4.940
88.54000 4.144
88.56000 7.889
88.58000 6.103
88.60000 6.620
88.62000 8.471
88.64000 4.822
88.66000 2.264
88.68000 3.118
88.70000 3.729
88.72000 1.596
88.74000 1.309
88.76000 5.844
88.78000 7.483
88.80000 3.300
88.82000 0.737
88.84000 4.966
88.86000 -1.472
88.88000 -0.169
88.90000 1.516
88.92000 -2.482
88.94000 0.347
88.96000 0.724
88.98000 5.306
89.00000 5.406
89.02000 3.860
89.04000 7.018
89.06000 5.252
89.08000 7.593
89.10000 8.217
89.12000 6.963
89.14000 3.842
89.16000 3.222
89.18000 5.180
89.20000 8.139
89.22000 6.739
89.24000 8.229
89.26000 6.019
89.28000 2.018
89.30000 -1.417
89.32000 0.843
89.34000 3.535
89.36000 8.981
89.38000 3.956
89.40000 -0.087
89.42000 6.361
89.44000 3.431
89.46000 -0.248
89.48000 4.001
89.50000 0.578
89.52000 1.284
89.54000 8.066
89.56000 2.885
89.58000 2.253
89.60000 4.764
89.62000 4.312
89.64000 7.133
89.66000 3.556
89.68000 4.046
89.70000 5.762
89.72000 5.361
89.74000 6.506
89.76000 5.247
89.78000 2.569
89.80000 -1.916
89.82000 1.143
89.84000 6.955
89.86000 4.080
89.88000 1.524
89.90000 -1.778
89.92000 -0.690
89.94000 -2.317
89.96000 1.962
89.98000 6.574
90.00000 5.218
90.02000 2.460
90.04000 1.612
90.06000 1.489
90.08000 1.206
90.10000 5.279
90.12000 15.066
90.14000 9.789
90.16000 5.726
90.18000 7.272
90.20000 2.036
90.22000 0.419
90.24000 2.463
90.26000 6.371
90.28000 10.292
90.30000 7.593
90.32000 8.842
90.34000 1.719
90.36000 0.956
90.38000 4.718
90.40000 0.541
90.42000 -0.718
90.44000 -0.270
90.46000 3.108
90.48000 2.612
90.50000 2.550
90.52000 2.253
90.54000 4.368
90.56000 7.747
90.58000 4.799
90.60000 0.918
90.62000 0.197
90.64000 0.323
90.66000 -0.234
90.68000 -1.754
90.70000 -1.093
90.72000 0.359
90.74000 0.362
90.76000 0.820
90.78000 -0.060
90.80000 2.528
90.82000 6.293
90.84000 3.810
90.86000 4.317
90.88000 1.615
90.90000 0.950
90.92000 -1.044
90.94000 1.205
90.96000 -0.426
90.98000 4.344
91.00000 10.713
91.02000 12.172
91.04000 2.748
91.06000 1.933
91.08000 3.139
91.10000 1.020
91.12000 3.032
91.14000 2.406
91.16000 0.424
91.18000 5.730
91.20000 1.596
91.22000 4.129
91.24000 2.636
91.26000 2.498
91.28000 6.123
91.30000 2.144
91.32000 -2.381
91.34000 -1.139
91.36000 6.411
91.38000 0.712
91.40000 -0.947
91.42000 7.090
91.44000 3.420
91.46000 -0.117
91.48000 1.471
91.50000 4.048
91.52000 1.020
91.54000 1.272
91.56000 -0.207
91.58000 0.566
91.60000 2.191
91.62000 -0.229
91.64000 4.487
91.66000 4.187
91.68000 0.311
91.70000 5.317
91.72000 8.094
91.74000 3.255
91.76000 -2.371
91.78000 3.826
91.80000 -0.986
91.82000 1.524
91.84000 4.328
91.86000 1.094
91.88000 6.002
91.90000 5.597
91.92000 5.195
91.94000 5.657
91.96000 -0.651
91.98000 -0.821
92.00000 2.937
92.02000 2.614
92.04000 0.108
92.06000 -2.364
92.08000 6.403
92.10000 4.243
92.12000 0.583
92.14000 3.165
92.16000 10.996
92.18000 6.210
92.20000 2.865
92.22000 4.169
92.24000 8.929
92.26000 9.438
92.28000 6.833
92.30000 4.221
92.32000 2.061
92.34000 0.789
92.36000 2.133
92.38000 -2.357
92.40000 -1.200
92.42000 1.846
92.44000 9.210
92.46000 1.636
92.48000 -1.531
92.50000 -0.626
92.52000 -0.519
92.54000 2.233
92.56000 10.102
92.58000 10.445
92.60000 3.863
92.62000 2.471
92.64000 2.718
92.66000 8.184
92.68000 4.309
92.70000 0.861
92.72000 5.050
92.74000 2.433
92.76000 3.422
92.78000 -1.717
92.80000 -0.515
92.82000 5.636
92.84000 7.484
92.86000 4.683
92.88000 5.803
92.90000 3.886
92.92000 5.358
92.94000 5.343
92.96000 2.437
92.98000 2.557
93.00000 5.304
93.02000 -0.955
93.04000 -0.918
93.06000 0.771
93.08000 5.088
93.10000 7.793
93.12000 1.913
93.14000 4.968
93.16000 6.278
93.18000 2.932
93.20000 6.126
93.22000 5.502
93.24000 6.594
93.26000 11.764
93.28000 3.807
93.30000 2.611
93.32000 7.646
93.34000 7.214
93.36000 4.591
93.38000 3.653
93.40000 4.552
93.42000 3.664
93.44000 7.455
93.46000 6.934
93.48000 3.022
93.50000 11.746
93.52000 15.767
93.54000 10.010
93.56000 6.507
93.58000 9.455
93.60000 11.581
93.62000 12.350
93.64000 9.339
93.66000 3.658
93.68000 -0.478
93.70000 -2.300
93.72000 7.747
93.74000 10.929
93.76000 9.768
93.78000 11.517
93.80000 10.387
93.82000 6.760
93.84000 6.017
93.86000 12.180
93.88000 11.101
93.90000 9.233
93.92000 14.140
93.94000 10.864
93.96000 5.163
93.98000 2.634
94.00000 1.179
94.02000 3.503
94.04000 7.786
94.06000 8.978
94.08000 5.915
94.10000 0.216
94.12000 2.965
94.14000 3.571
94.16000 6.303
94.18000 2.512
94.20000 2.763
94.22000 7.402
94.24000 10.068
94.26000 6.162
94.28000 4.146
94.30000 6.360
94.32000 6.761
94.34000 9.175
94.36000 11.397
94.38000 8.410
94.40000 7.340
94.42000 6.113
94.44000 5.598
94.46000 11.291
94.48000 4.558
94.50000 -2.348
94.52000 -2.004
94.54000 6.890
94.56000 6.368
94.58000 3.954
94.60000 1.740
94.62000 1.979
94.64000 5.189
94.66000 8.293
94.68000 5.490
94.70000 1.079
94.72000 3.168
94.74000 2.440
94.76000 4.745
94.78000 10.927
94.80000 9.867
94.82000 6.213
94.84000 5.960
94.86000 2.294
94.88000 2.512
94.90000 0.911
94.92000 3.438
94.94000 3.355
94.96000 5.656
94.98000 4.777
95.00000 2.789
95.02000 2.489
95.04000 5.997
95.06000 6.673
95.08000 2.761
95.10000 4.118
95.12000 0.468
95.14000 -1.664
95.16000 5.857
95.18000 5.654
95.20000 2.084
95.22000 7.830
95.24000 5.487
95.26000 4.160
95.28000 7.624
95.30000 -0.570
95.32000 -2.021
95.34000 0.894
95.36000 2.547
95.38000 6.576
95.40000 6.578
95.42000 4.641
95.44000 5.929
95.46000 5.024
95.48000 1.811
95.50000 2.665
95.52000 12.444
95.54000 9.177
95.56000 8.852
95.58000 4.890
95.60000 2.678
95.62000 1.665
95.64000 3.918
95.66000 0.556
95.68000 -0.435
95.70000 2.654
95.72000 5.467
95.74000 5.420
95.76000 3.489
95.78000 6.106
95.80000 2.803
95.82000 1.240
95.84000 2.889
95.86000 0.345
95.88000 -0.701
95.90000 7.705
95.92000 4.846
95.94000 8.926
95.96000 7.475
95.98000 -0.314
96.00000 -0.906
96.02000 1.341
96.04000 3.592
96.06000 7.238
96.08000 3.030
96.10000 -2.143
96.12000 -2.347
96.14000 2.269
96.16000 6.954
96.18000 7.262
96.20000 2.982
96.22000 0.624
96.24000 6.509
96.26000 9.743
96.28000 14.118
96.30000 11.994
96.32000 6.838
96.34000 10.500
96.36000 3.076
96.38000 5.323
96.40000 10.521
96.42000 12.364
96.44000 7.850
96.46000 0.637
96.48000 6.034
96.50000 6.385
96.52000 7.802
96.54000 11.118
96.56000 15.733
96.58000 10.995
96.60000 3.440
96.62000 1.827
96.64000 2.148
96.66000 2.496
96.68000 8.191
96.70000 7.266
96.72000 8.273
96.74000 6.207
96.76000 5.340
96.78000 2.306
96.80000 2.367
96.82000 5.306
96.84000 4.201
96.86000 7.265
96.88000 10.500
96.90000 6.540
96.92000 7.023
96.94000 9.071
96.96000 4.091
96.98000 3.599
97.00000 4.083
97.02000 3.909
97.04000 3.572
97.06000 8.470
97.08000 2.812
97.10000 10.491
97.12000 9.291
97.14000 6.021
97.16000 6.709
97.18000 6.597
97.20000 11.439
97.22000 11.208
97.24000 7.383
97.26000 11.121
97.28000 12.509
97.30000 7.192
97.32000 3.290
97.34000 2.615
97.36000 5.592
97.38000 -2.283
97.40000 2.838
97.42000 -1.726
97.44000 0.691
97.46000 1.595
97.48000 6.141
97.50000 9.102
97.52000 5.864
97.54000 9.967
97.56000 12.791
97.58000 7.687
97.60000 7.242
97.62000 7.518
97.64000 12.827
97.66000 10.898
97.68000 6.496
97.70000 4.634
97.72000 5.580
97.74000 4.822
97.76000 8.271
97.78000 -2.298
97.80000 1.429
97.82000 5.766
97.84000 11.431
97.86000 8.129
97.88000 7.687
97.90000 12.218
97.92000 10.197
97.94000 6.133
97.96000 3.715
97.98000 10.726
98.00000 9.322
98.02000 8.646
98.04000 3.128
98.06000 13.599
98.08000 1.305
98.10000 2.462
98.12000 8.454
98.14000 12.639
98.16000 12.988
98.18000 10.976
98.20000 14.102
98.22000 10.073
98.24000 10.450
98.26000 3.429
98.28000 1.355
98.30000 -1.742
98.32000 7.773
98.34000 9.400
98.36000 5.038
98.38000 -0.426
98.40000 6.234
98.42000 11.796
98.44000 3.436
98.46000 7.182
98.48000 11.598
98.50000 4.851
98.52000 10.331
98.54000 8.121
98.56000 9.696
98.58000 5.130
98.60000 2.535
98.62000 1.406
98.64000 7.553
98.66000 4.394
98.68000 9.548
98.70000 5.933
98.72000 4.021
98.74000 1.887
98.76000 2.477
98.78000 3.314
98.80000 13.998
98.82000 11.634
98.84000 10.547
98.86000 5.439
98.88000 10.081
98.90000 8.701
98.92000 -0.560
98.94000 12.462
98.96000 13.799
98.98000 11.260
99.00000 7.293
99.02000 8.840
99.04000 6.843
99.06000 3.179
99.08000 4.385
99.10000 4.529
99.12000 7.169
99.14000 -1.295
99.16000 2.413
99.18000 -2.250
99.20000 4.765
99.22000 3.931
99.24000 7.582
99.26000 8.608
99.28000 6.042
99.30000 9.542
99.32000 8.643
99.34000 13.133
99.36000 13.214
99.38000 19.670
99.40000 6.848
99.42000 11.534
99.44000 10.107
99.46000 8.418
99.48000 8.322
99.50000 8.035
99.52000 11.005
99.54000 4.384
99.56000 8.439
99.58000 13.143
99.60000 7.705
99.62000 6.035
99.64000 7.462
99.66000 -2.339
99.68000 0.536
99.70000 2.410
99.72000 15.292
99.74000 9.042
99.76000 -0.746
99.78000 7.380
99.80000 15.062
99.82000 16.309
99.84000 -0.566
99.86000 -2.477
99.88000 -1.458
99.90000 3.770
99.92000 -0.337
99.94000 8.448
99.96000 5.631
99.98000 0.000
