'Id: "0011388" Comment: "Integrate frame 0011388_Au-Ir-Rh_Rh-rich_XRD-Mapping-140-0000.gfrmwith cursor Wedge Cursor #5" Operator: "B?rgel" Anode: "Cu" Wavelength: "1.5406" Scantype: "2Theta (TwoTheta)" TimePerStep: "1" X: "-27" Y: "-4.5" Z: "5.95" 
10.00000 0.000
10.02000 -4.582
10.04000 4.892
10.06000 -2.751
10.08000 1.585
10.10000 8.309
10.12000 7.821
10.14000 -4.518
10.16000 5.066
10.18000 17.683
10.20000 28.872
10.22000 15.525
10.24000 2.751
10.26000 9.504
10.28000 8.755
10.30000 5.794
10.32000 7.602
10.34000 1.711
10.36000 -4.472
10.38000 10.747
10.40000 4.737
10.42000 2.257
10.44000 5.728
10.46000 13.359
10.48000 3.600
10.50000 12.162
10.52000 24.773
10.54000 31.112
10.56000 27.843
10.58000 16.980
10.60000 12.407
10.62000 24.685
10.64000 18.822
10.66000 16.672
10.68000 16.238
10.70000 15.970
10.72000 17.404
10.74000 11.912
10.76000 2.962
10.78000 10.406
10.80000 0.246
10.82000 -2.483
10.84000 -1.548
10.86000 12.398
10.88000 15.762
10.90000 30.576
10.92000 33.799
10.94000 34.486
10.96000 16.589
10.98000 -4.347
11.00000 -2.164
11.02000 5.363
11.04000 23.011
11.06000 37.401
11.08000 31.512
11.10000 21.683
11.12000 29.051
11.14000 18.235
11.16000 11.241
11.18000 2.478
11.20000 -2.000
11.22000 10.717
11.24000 16.125
11.26000 20.490
11.28000 20.964
11.30000 20.120
11.32000 14.339
11.34000 8.300
11.36000 9.361
11.38000 9.128
11.40000 15.235
11.42000 16.106
11.44000 17.575
11.46000 16.593
11.48000 4.105
11.50000 16.779
11.52000 23.924
11.54000 19.406
11.56000 16.840
11.58000 16.540
11.60000 17.373
11.62000 20.380
11.64000 18.472
11.66000 10.599
11.68000 13.864
11.70000 17.191
11.72000 20.162
11.74000 7.494
11.76000 0.017
11.78000 6.039
11.80000 6.990
11.82000 20.317
11.84000 28.582
11.86000 14.974
11.88000 23.369
11.90000 17.737
11.92000 15.816
11.94000 15.388
11.96000 11.111
11.98000 7.570
12.00000 6.302
12.02000 10.416
12.04000 5.801
12.06000 16.656
12.08000 21.966
12.10000 13.821
12.12000 11.603
12.14000 16.961
12.16000 18.076
12.18000 10.693
12.20000 10.808
12.22000 3.468
12.24000 10.550
12.26000 12.211
12.28000 14.724
12.30000 10.943
12.32000 0.389
12.34000 3.615
12.36000 18.379
12.38000 17.362
12.40000 14.518
12.42000 7.582
12.44000 14.658
12.46000 16.787
12.48000 12.725
12.50000 18.090
12.52000 22.241
12.54000 18.617
12.56000 15.263
12.58000 5.068
12.60000 10.392
12.62000 11.888
12.64000 8.288
12.66000 14.792
12.68000 15.577
12.70000 26.370
12.72000 23.119
12.74000 20.837
12.76000 24.321
12.78000 30.228
12.80000 21.767
12.82000 11.166
12.84000 22.303
12.86000 14.708
12.88000 8.532
12.90000 4.970
12.92000 14.441
12.94000 14.952
12.96000 11.734
12.98000 14.014
13.00000 18.578
13.02000 8.746
13.04000 17.698
13.06000 15.407
13.08000 -0.217
13.10000 12.054
13.12000 13.967
13.14000 24.540
13.16000 23.355
13.18000 18.331
13.20000 8.447
13.22000 11.354
13.24000 17.482
13.26000 15.997
13.28000 16.664
13.30000 13.702
13.32000 13.311
13.34000 16.773
13.36000 15.646
13.38000 18.006
13.40000 14.685
13.42000 11.469
13.44000 10.666
13.46000 6.300
13.48000 -4.424
13.50000 5.450
13.52000 6.238
13.54000 5.461
13.56000 9.752
13.58000 7.560
13.60000 6.299
13.62000 12.559
13.64000 11.179
13.66000 14.671
13.68000 14.420
13.70000 10.448
13.72000 15.145
13.74000 21.207
13.76000 12.558
13.78000 6.064
13.80000 14.329
13.82000 17.327
13.84000 18.246
13.86000 12.418
13.88000 6.913
13.90000 9.516
13.92000 8.714
13.94000 11.484
13.96000 16.114
13.98000 17.931
14.00000 21.502
14.02000 16.466
14.04000 7.840
14.06000 12.524
14.08000 17.058
14.10000 20.272
14.12000 21.496
14.14000 17.144
14.16000 18.405
14.18000 16.208
14.20000 16.282
14.22000 2.285
14.24000 12.097
14.26000 11.501
14.28000 4.972
14.30000 6.407
14.32000 9.684
14.34000 11.663
14.36000 7.529
14.38000 5.849
14.40000 14.990
14.42000 22.602
14.44000 14.314
14.46000 4.764
14.48000 11.006
14.50000 4.968
14.52000 3.760
14.54000 9.090
14.56000 7.695
14.58000 3.285
14.60000 4.742
14.62000 6.487
14.64000 10.401
14.66000 12.619
14.68000 8.566
14.70000 8.662
14.72000 8.852
14.74000 0.316
14.76000 0.905
14.78000 9.502
14.80000 7.930
14.82000 8.473
14.84000 7.129
14.86000 8.311
14.88000 6.627
14.90000 12.847
14.92000 13.158
14.94000 5.814
14.96000 -3.440
14.98000 3.576
15.00000 11.367
15.02000 7.840
15.04000 5.615
15.06000 4.648
15.08000 7.188
15.10000 2.441
15.12000 2.951
15.14000 8.871
15.16000 6.803
15.18000 8.874
15.20000 12.903
15.22000 -0.732
15.24000 3.323
15.26000 5.619
15.28000 9.231
15.30000 12.946
15.32000 6.676
15.34000 0.418
15.36000 3.023
15.38000 9.927
15.40000 13.198
15.42000 11.263
15.44000 11.116
15.46000 5.577
15.48000 13.513
15.50000 12.360
15.52000 9.004
15.54000 9.856
15.56000 10.143
15.58000 17.125
15.60000 10.854
15.62000 5.853
15.64000 3.336
15.66000 10.890
15.68000 13.517
15.70000 8.631
15.72000 18.048
15.74000 18.319
15.76000 8.991
15.78000 12.253
15.80000 12.756
15.82000 8.766
15.84000 8.023
15.86000 14.627
15.88000 14.331
15.90000 11.006
15.92000 2.579
15.94000 -0.517
15.96000 7.402
15.98000 15.104
16.00000 1.143
16.02000 -4.396
16.04000 4.715
16.06000 7.170
16.08000 5.450
16.10000 12.157
16.12000 7.748
16.14000 -3.357
16.16000 11.092
16.18000 17.625
16.20000 10.051
16.22000 7.244
16.24000 2.787
16.26000 1.292
16.28000 8.450
16.30000 5.444
16.32000 8.934
16.34000 9.436
16.36000 0.007
16.38000 3.958
16.40000 4.584
16.42000 4.217
16.44000 5.983
16.46000 14.090
16.48000 12.644
16.50000 5.643
16.52000 1.555
16.54000 2.773
16.56000 2.015
16.58000 5.436
16.60000 7.479
16.62000 6.295
16.64000 8.173
16.66000 6.291
16.68000 5.793
16.70000 2.990
16.72000 2.438
16.74000 3.240
16.76000 9.976
16.78000 11.458
16.80000 8.365
16.82000 6.400
16.84000 10.514
16.86000 13.328
16.88000 17.820
16.90000 14.433
16.92000 7.921
16.94000 7.939
16.96000 16.778
16.98000 17.497
17.00000 8.719
17.02000 4.307
17.04000 3.740
17.06000 12.270
17.08000 9.516
17.10000 -4.347
17.12000 0.205
17.14000 -0.330
17.16000 5.303
17.18000 3.516
17.20000 6.680
17.22000 11.515
17.24000 10.651
17.26000 18.926
17.28000 9.881
17.30000 3.475
17.32000 1.397
17.34000 10.578
17.36000 7.760
17.38000 5.385
17.40000 3.332
17.42000 4.819
17.44000 11.411
17.46000 10.850
17.48000 14.682
17.50000 9.257
17.52000 7.985
17.54000 2.608
17.56000 0.526
17.58000 6.472
17.60000 5.061
17.62000 1.579
17.64000 3.222
17.66000 11.117
17.68000 11.158
17.70000 3.308
17.72000 -0.603
17.74000 6.786
17.76000 7.779
17.78000 6.462
17.80000 1.287
17.82000 2.596
17.84000 14.339
17.86000 15.306
17.88000 11.270
17.90000 8.337
17.92000 -4.325
17.94000 5.144
17.96000 5.144
17.98000 8.045
18.00000 5.790
18.02000 1.689
18.04000 -1.151
18.06000 5.276
18.08000 4.923
18.10000 1.998
18.12000 5.219
18.14000 -0.305
18.16000 6.548
18.18000 10.638
18.20000 5.772
18.22000 8.381
18.24000 6.881
18.26000 6.204
18.28000 4.022
18.30000 2.015
18.32000 5.672
18.34000 0.911
18.36000 -3.327
18.38000 5.025
18.40000 3.898
18.42000 1.295
18.44000 3.078
18.46000 0.934
18.48000 1.373
18.50000 1.238
18.52000 4.371
18.54000 5.321
18.56000 5.242
18.58000 11.994
18.60000 10.700
18.62000 5.274
18.64000 -0.068
18.66000 -3.953
18.68000 1.664
18.70000 4.449
18.72000 0.608
18.74000 0.529
18.76000 3.170
18.78000 -2.470
18.80000 -0.583
18.82000 8.970
18.84000 10.793
18.86000 7.433
18.88000 3.893
18.90000 3.686
18.92000 1.219
18.94000 -4.279
18.96000 -0.442
18.98000 -2.538
19.00000 -2.134
19.02000 1.597
19.04000 1.116
19.06000 -2.451
19.08000 2.808
19.10000 6.664
19.12000 6.577
19.14000 7.608
19.16000 2.561
19.18000 3.011
19.20000 0.669
19.22000 0.441
19.24000 1.308
19.26000 5.481
19.28000 7.376
19.30000 5.325
19.32000 -2.981
19.34000 4.723
19.36000 8.835
19.38000 6.951
19.40000 2.822
19.42000 2.515
19.44000 0.261
19.46000 0.855
19.48000 0.599
19.50000 -0.833
19.52000 3.860
19.54000 5.597
19.56000 8.790
19.58000 7.758
19.60000 6.243
19.62000 1.893
19.64000 3.587
19.66000 8.452
19.68000 0.489
19.70000 -3.074
19.72000 1.003
19.74000 2.094
19.76000 -3.026
19.78000 3.205
19.80000 9.112
19.82000 4.986
19.84000 3.117
19.86000 9.687
19.88000 12.007
19.90000 13.548
19.92000 12.735
19.94000 3.659
19.96000 -0.101
19.98000 1.678
20.00000 -0.562
20.02000 4.870
20.04000 1.380
20.06000 5.386
20.08000 11.070
20.10000 11.579
20.12000 7.649
20.14000 4.156
20.16000 0.003
20.18000 -0.151
20.20000 0.514
20.22000 3.309
20.24000 9.701
20.26000 4.548
20.28000 4.994
20.30000 7.484
20.32000 5.265
20.34000 5.081
20.36000 6.803
20.38000 5.806
20.40000 5.572
20.42000 0.899
20.44000 -4.178
20.46000 2.668
20.48000 0.893
20.50000 -0.630
20.52000 5.369
20.54000 8.047
20.56000 6.487
20.58000 3.454
20.60000 8.920
20.62000 8.386
20.64000 14.312
20.66000 9.497
20.68000 4.961
20.70000 4.683
20.72000 10.359
20.74000 12.991
20.76000 8.297
20.78000 12.078
20.80000 20.717
20.82000 11.735
20.84000 10.092
20.86000 9.866
20.88000 8.041
20.90000 0.951
20.92000 1.930
20.94000 13.826
20.96000 15.617
20.98000 11.708
21.00000 2.489
21.02000 -0.722
21.04000 3.233
21.06000 7.667
21.08000 4.008
21.10000 1.924
21.12000 -0.051
21.14000 -1.259
21.16000 -3.694
21.18000 -0.627
21.20000 2.396
21.22000 7.792
21.24000 1.365
21.26000 -4.132
21.28000 3.130
21.30000 10.514
21.32000 9.005
21.34000 8.368
21.36000 8.268
21.38000 3.789
21.40000 -0.826
21.42000 8.684
21.44000 7.166
21.46000 6.291
21.48000 11.528
21.50000 11.449
21.52000 5.990
21.54000 8.360
21.56000 5.277
21.58000 -0.755
21.60000 1.553
21.62000 4.757
21.64000 6.934
21.66000 8.269
21.68000 8.908
21.70000 3.881
21.72000 6.145
21.74000 5.483
21.76000 3.648
21.78000 4.052
21.80000 4.519
21.82000 6.239
21.84000 2.754
21.86000 0.737
21.88000 8.087
21.90000 10.934
21.92000 11.640
21.94000 8.240
21.96000 7.870
21.98000 5.854
22.00000 4.465
22.02000 8.909
22.04000 10.341
22.06000 9.268
22.08000 5.583
22.10000 5.103
22.12000 6.200
22.14000 1.594
22.16000 -1.465
22.18000 1.159
22.20000 1.228
22.22000 -3.138
22.24000 -0.981
22.26000 -1.388
22.28000 -1.900
22.30000 3.114
22.32000 0.551
22.34000 -0.552
22.36000 1.914
22.38000 5.392
22.40000 -1.009
22.42000 2.493
22.44000 -2.314
22.46000 -3.266
22.48000 3.671
22.50000 1.991
22.52000 0.237
22.54000 -1.770
22.56000 0.497
22.58000 4.021
22.60000 4.869
22.62000 -0.324
22.64000 1.009
22.66000 2.897
22.68000 -1.151
22.70000 2.649
22.72000 7.702
22.74000 -0.507
22.76000 -3.041
22.78000 6.508
22.80000 10.208
22.82000 3.279
22.84000 -0.129
22.86000 4.430
22.88000 6.823
22.90000 1.373
22.92000 0.195
22.94000 10.471
22.96000 11.389
22.98000 5.207
23.00000 2.612
23.02000 2.472
23.04000 -1.222
23.06000 -1.800
23.08000 4.167
23.10000 -0.555
23.12000 -0.923
23.14000 3.324
23.16000 9.403
23.18000 11.390
23.20000 4.603
23.22000 4.152
23.24000 6.951
23.26000 5.630
23.28000 3.620
23.30000 4.141
23.32000 1.105
23.34000 4.162
23.36000 7.714
23.38000 11.990
23.40000 8.191
23.42000 6.388
23.44000 2.486
23.46000 0.687
23.48000 -0.375
23.50000 4.419
23.52000 5.132
23.54000 9.396
23.56000 13.854
23.58000 9.085
23.60000 4.751
23.62000 1.464
23.64000 0.882
23.66000 11.042
23.68000 4.708
23.70000 -3.040
23.72000 -4.002
23.74000 2.656
23.76000 2.255
23.78000 -1.807
23.80000 -3.757
23.82000 2.279
23.84000 5.925
23.86000 8.338
23.88000 11.691
23.90000 5.792
23.92000 6.322
23.94000 1.083
23.96000 0.536
23.98000 -2.865
24.00000 -0.095
24.02000 -1.666
24.04000 4.869
24.06000 3.958
24.08000 5.316
24.10000 6.407
24.12000 5.225
24.14000 5.277
24.16000 5.936
24.18000 8.233
24.20000 6.888
24.22000 4.273
24.24000 0.602
24.26000 2.306
24.28000 8.638
24.30000 5.418
24.32000 8.007
24.34000 7.328
24.36000 2.780
24.38000 0.018
24.40000 6.073
24.42000 3.631
24.44000 1.568
24.46000 -0.879
24.48000 5.886
24.50000 1.383
24.52000 -1.837
24.54000 1.769
24.56000 -1.729
24.58000 3.859
24.60000 3.655
24.62000 -1.330
24.64000 6.663
24.66000 4.768
24.68000 0.066
24.70000 1.438
24.72000 1.176
24.74000 3.893
24.76000 2.507
24.78000 -2.265
24.80000 1.094
24.82000 -2.363
24.84000 1.056
24.86000 -2.255
24.88000 1.273
24.90000 7.382
24.92000 14.542
24.94000 8.148
24.96000 4.385
24.98000 5.052
25.00000 3.875
25.02000 -0.500
25.04000 -2.723
25.06000 2.199
25.08000 2.359
25.10000 0.261
25.12000 -0.883
25.14000 -2.563
25.16000 2.006
25.18000 0.656
25.20000 2.376
25.22000 2.565
25.24000 -0.134
25.26000 1.403
25.28000 3.680
25.30000 5.841
25.32000 9.788
25.34000 10.854
25.36000 6.594
25.38000 5.210
25.40000 -3.921
25.42000 -2.774
25.44000 6.361
25.46000 1.821
25.48000 5.366
25.50000 4.157
25.52000 -2.030
25.54000 0.330
25.56000 8.751
25.58000 5.414
25.60000 3.659
25.62000 1.456
25.64000 -0.193
25.66000 3.786
25.68000 3.744
25.70000 3.104
25.72000 5.960
25.74000 6.574
25.76000 5.970
25.78000 4.169
25.80000 3.632
25.82000 9.156
25.84000 3.927
25.86000 6.464
25.88000 2.119
25.90000 -0.657
25.92000 -1.132
25.94000 0.917
25.96000 4.695
25.98000 5.588
26.00000 4.153
26.02000 -0.469
26.04000 -1.906
26.06000 5.326
26.08000 1.706
26.10000 -3.200
26.12000 2.850
26.14000 4.141
26.16000 7.985
26.18000 3.813
26.20000 2.929
26.22000 4.292
26.24000 6.234
26.26000 8.460
26.28000 8.095
26.30000 0.706
26.32000 -1.128
26.34000 1.502
26.36000 1.986
26.38000 4.706
26.40000 4.425
26.42000 4.654
26.44000 2.240
26.46000 -2.333
26.48000 1.071
26.50000 6.845
26.52000 -0.500
26.54000 -3.869
26.56000 -0.436
26.58000 1.219
26.60000 2.500
26.62000 5.113
26.64000 4.332
26.66000 2.366
26.68000 5.535
26.70000 7.292
26.72000 6.704
26.74000 2.317
26.76000 1.880
26.78000 -1.192
26.80000 3.386
26.82000 -1.606
26.84000 -0.872
26.86000 2.419
26.88000 4.607
26.90000 10.620
26.92000 12.836
26.94000 4.891
26.96000 2.951
26.98000 -1.792
27.00000 3.340
27.02000 5.299
27.04000 11.293
27.06000 8.448
27.08000 3.573
27.10000 3.388
27.12000 4.466
27.14000 0.133
27.16000 -0.730
27.18000 -1.098
27.20000 3.098
27.22000 4.383
27.24000 9.167
27.26000 4.357
27.28000 -1.063
27.30000 1.472
27.32000 -1.901
27.34000 1.996
27.36000 7.348
27.38000 6.920
27.40000 4.106
27.42000 1.658
27.44000 -0.221
27.46000 -1.766
27.48000 -3.809
27.50000 -0.196
27.52000 1.831
27.54000 0.664
27.56000 5.302
27.58000 8.964
27.60000 3.197
27.62000 -1.305
27.64000 -3.801
27.66000 2.821
27.68000 5.796
27.70000 -2.347
27.72000 -1.980
27.74000 -0.720
27.76000 -0.301
27.78000 1.230
27.80000 3.301
27.82000 6.595
27.84000 5.113
27.86000 -0.880
27.88000 -1.420
27.90000 -2.710
27.92000 1.190
27.94000 -0.110
27.96000 -1.762
27.98000 -3.160
28.00000 1.069
28.02000 4.876
28.04000 2.337
28.06000 3.240
28.08000 1.060
28.10000 2.688
28.12000 2.887
28.14000 6.793
28.16000 1.831
28.18000 -1.319
28.20000 -3.496
28.22000 -1.052
28.24000 -0.265
28.26000 1.687
28.28000 -0.101
28.30000 0.440
28.32000 3.330
28.34000 -0.863
28.36000 -3.244
28.38000 1.414
28.40000 6.675
28.42000 1.787
28.44000 -1.340
28.46000 -0.519
28.48000 0.193
28.50000 6.598
28.52000 5.548
28.54000 2.240
28.56000 0.559
28.58000 0.669
28.60000 3.419
28.62000 3.423
28.64000 4.935
28.66000 8.301
28.68000 10.831
28.70000 8.521
28.72000 5.515
28.74000 5.670
28.76000 3.026
28.78000 2.120
28.80000 -1.730
28.82000 6.187
28.84000 3.924
28.86000 1.547
28.88000 -1.252
28.90000 -3.374
28.92000 -2.568
28.94000 1.025
28.96000 -3.741
28.98000 2.577
29.00000 6.677
29.02000 2.599
29.04000 -0.900
29.06000 4.751
29.08000 3.655
29.10000 4.967
29.12000 3.835
29.14000 1.064
29.16000 -1.486
29.18000 -0.619
29.20000 3.853
29.22000 5.791
29.24000 4.627
29.26000 7.926
29.28000 5.526
29.30000 6.896
29.32000 6.040
29.34000 3.715
29.36000 -3.720
29.38000 3.260
29.40000 7.562
29.42000 3.745
29.44000 3.714
29.46000 0.343
29.48000 -1.935
29.50000 -2.286
29.52000 -0.711
29.54000 2.223
29.56000 0.173
29.58000 2.680
29.60000 2.008
29.62000 1.982
29.64000 -0.948
29.66000 -1.152
29.68000 -2.466
29.70000 -1.089
29.72000 9.020
29.74000 6.377
29.76000 2.881
29.78000 5.389
29.80000 -0.518
29.82000 1.531
29.84000 -3.691
29.86000 -2.142
29.88000 3.959
29.90000 -1.689
29.92000 -3.310
29.94000 -0.654
29.96000 4.017
29.98000 4.482
30.00000 -0.004
30.02000 -0.501
30.04000 -1.876
30.06000 -1.526
30.08000 1.983
30.10000 3.916
30.12000 2.802
30.14000 4.013
30.16000 2.167
30.18000 9.310
30.20000 5.930
30.22000 5.208
30.24000 0.243
30.26000 3.668
30.28000 3.592
30.30000 -2.714
30.32000 -2.281
30.34000 1.780
30.36000 5.577
30.38000 4.867
30.40000 3.193
30.42000 5.524
30.44000 4.063
30.46000 1.603
30.48000 2.312
30.50000 5.529
30.52000 1.677
30.54000 -0.197
30.56000 2.882
30.58000 3.017
30.60000 0.571
30.62000 3.504
30.64000 -3.630
30.66000 -3.662
30.68000 -1.257
30.70000 3.404
30.72000 2.728
30.74000 0.369
30.76000 0.610
30.78000 -0.057
30.80000 0.547
30.82000 0.512
30.84000 -0.271
30.86000 2.586
30.88000 2.088
30.90000 5.153
30.92000 2.030
30.94000 -1.300
30.96000 -2.579
30.98000 -2.357
31.00000 -1.142
31.02000 1.711
31.04000 5.181
31.06000 5.687
31.08000 4.882
31.10000 0.624
31.12000 5.468
31.14000 4.367
31.16000 -1.343
31.18000 -1.101
31.20000 6.384
31.22000 6.614
31.24000 4.823
31.26000 1.936
31.28000 -2.687
31.30000 0.392
31.32000 2.899
31.34000 4.159
31.36000 1.758
31.38000 -3.593
31.40000 -1.266
31.42000 -0.177
31.44000 2.944
31.46000 4.336
31.48000 4.019
31.50000 4.533
31.52000 9.427
31.54000 3.012
31.56000 3.410
31.58000 1.501
31.60000 -3.618
31.62000 4.105
31.64000 0.666
31.66000 2.173
31.68000 1.358
31.70000 2.233
31.72000 3.697
31.74000 4.913
31.76000 8.468
31.78000 0.991
31.80000 -0.406
31.82000 -0.348
31.84000 -3.607
31.86000 -1.924
31.88000 -0.396
31.90000 2.814
31.92000 0.787
31.94000 -2.577
31.96000 -1.948
31.98000 5.557
32.00000 2.800
32.02000 0.280
32.04000 1.426
32.06000 2.384
32.08000 4.664
32.10000 7.328
32.12000 -0.303
32.14000 1.541
32.16000 2.321
32.18000 0.270
32.20000 2.817
32.22000 0.526
32.24000 7.478
32.26000 6.635
32.28000 3.926
32.30000 -0.975
32.32000 1.351
32.34000 0.958
32.36000 1.254
32.38000 1.211
32.40000 2.760
32.42000 2.474
32.44000 3.096
32.46000 5.912
32.48000 2.686
32.50000 0.632
32.52000 1.258
32.54000 2.259
32.56000 1.262
32.58000 -0.420
32.60000 -3.569
32.62000 -0.275
32.64000 8.374
32.66000 7.889
32.68000 0.237
32.70000 0.178
32.72000 5.175
32.74000 0.119
32.76000 -3.334
32.78000 -0.068
32.80000 1.162
32.82000 1.196
32.84000 5.689
32.86000 5.176
32.88000 2.494
32.90000 3.549
32.92000 1.851
32.94000 3.803
32.96000 1.913
32.98000 -3.556
33.00000 3.308
33.02000 4.097
33.04000 5.486
33.06000 10.484
33.08000 6.495
33.10000 4.816
33.12000 1.714
33.14000 -0.497
33.16000 0.560
33.18000 3.795
33.20000 3.621
33.22000 2.554
33.24000 2.014
33.26000 2.614
33.28000 2.520
33.30000 2.363
33.32000 4.707
33.34000 2.219
33.36000 0.105
33.38000 2.187
33.40000 -0.584
33.42000 -1.280
33.44000 -1.392
33.46000 -1.696
33.48000 -1.593
33.50000 3.013
33.52000 4.499
33.54000 1.087
33.56000 -0.529
33.58000 2.921
33.60000 1.279
33.62000 2.571
33.64000 -0.753
33.66000 1.455
33.68000 8.297
33.70000 7.809
33.72000 5.271
33.74000 7.937
33.76000 3.664
33.78000 -3.437
33.80000 0.396
33.82000 0.545
33.84000 0.644
33.86000 1.635
33.88000 0.101
33.90000 5.596
33.92000 7.223
33.94000 0.447
33.96000 -1.416
33.98000 -0.300
34.00000 -3.553
34.02000 -2.624
34.04000 0.053
34.06000 4.429
34.08000 9.800
34.10000 10.349
34.12000 3.173
34.14000 2.060
34.16000 3.780
34.18000 6.245
34.20000 4.716
34.22000 0.280
34.24000 4.768
34.26000 4.374
34.28000 0.287
34.30000 5.097
34.32000 7.435
34.34000 1.203
34.36000 1.318
34.38000 2.628
34.40000 -0.752
34.42000 1.956
34.44000 2.150
34.46000 6.637
34.48000 7.850
34.50000 8.713
34.52000 3.690
34.54000 -0.081
34.56000 -0.880
34.58000 3.629
34.60000 3.341
34.62000 -0.362
34.64000 -0.705
34.66000 3.075
34.68000 1.529
34.70000 6.811
34.72000 7.594
34.74000 -1.875
34.76000 0.894
34.78000 -0.902
34.80000 -1.567
34.82000 2.021
34.84000 -1.066
34.86000 -0.871
34.88000 -0.488
34.90000 3.459
34.92000 2.747
34.94000 4.717
34.96000 3.860
34.98000 4.238
35.00000 0.518
35.02000 0.182
35.04000 -0.446
35.06000 -1.802
35.08000 -0.192
35.10000 3.809
35.12000 1.620
35.14000 0.701
35.16000 -0.473
35.18000 -3.532
35.20000 -1.649
35.22000 -1.304
35.24000 -1.765
35.26000 0.720
35.28000 3.168
35.30000 2.478
35.32000 -2.011
35.34000 -3.525
35.36000 -2.950
35.38000 -1.386
35.40000 -1.492
35.42000 -0.290
35.44000 -1.223
35.46000 -2.372
35.48000 2.732
35.50000 -0.363
35.52000 -1.712
35.54000 -1.289
35.56000 -0.543
35.58000 2.098
35.60000 3.723
35.62000 1.530
35.64000 -2.414
35.66000 -1.749
35.68000 -3.517
35.70000 1.507
35.72000 5.339
35.74000 2.576
35.76000 3.488
35.78000 -0.091
35.80000 -2.236
35.82000 1.943
35.84000 -2.359
35.86000 -1.758
35.88000 4.448
35.90000 5.487
35.92000 -0.596
35.94000 4.230
35.96000 3.476
35.98000 -1.799
36.00000 -1.155
36.02000 -0.168
36.04000 0.498
36.06000 -0.336
36.08000 -1.245
36.10000 3.145
36.12000 5.184
36.14000 0.092
36.16000 0.239
36.18000 5.562
36.20000 4.927
36.22000 0.909
36.24000 -3.530
36.26000 -1.947
36.28000 1.437
36.30000 2.901
36.32000 -0.346
36.34000 -0.388
36.36000 1.080
36.38000 0.664
36.40000 1.828
36.42000 -3.382
36.44000 -3.419
36.46000 -1.859
36.48000 -0.870
36.50000 -2.762
36.52000 -2.388
36.54000 3.698
36.56000 1.422
36.58000 1.016
36.60000 4.974
36.62000 2.274
36.64000 1.145
36.66000 -0.920
36.68000 -0.335
36.70000 -0.101
36.72000 1.911
36.74000 -0.769
36.76000 -0.807
36.78000 1.479
36.80000 1.422
36.82000 4.649
36.84000 5.015
36.86000 3.301
36.88000 -0.635
36.90000 4.722
36.92000 -1.275
36.94000 0.547
36.96000 2.577
36.98000 1.699
37.00000 0.636
37.02000 -0.381
37.04000 4.096
37.06000 0.922
37.08000 0.354
37.10000 2.191
37.12000 2.009
37.14000 -0.412
37.16000 2.512
37.18000 2.391
37.20000 5.022
37.22000 2.825
37.24000 -3.571
37.26000 1.805
37.28000 4.343
37.30000 1.289
37.32000 3.202
37.34000 0.477
37.36000 -1.596
37.38000 -1.991
37.40000 -1.952
37.42000 -1.956
37.44000 -2.814
37.46000 -0.891
37.48000 1.065
37.50000 -2.443
37.52000 -2.144
37.54000 1.221
37.56000 6.435
37.58000 5.460
37.60000 2.303
37.62000 3.376
37.64000 2.707
37.66000 1.760
37.68000 8.137
37.70000 1.968
37.72000 1.435
37.74000 2.123
37.76000 2.490
37.78000 1.705
37.80000 1.168
37.82000 7.728
37.84000 8.425
37.86000 3.380
37.88000 -0.599
37.90000 -2.636
37.92000 0.889
37.94000 4.923
37.96000 3.455
37.98000 4.265
38.00000 6.166
38.02000 11.210
38.04000 10.397
38.06000 6.657
38.08000 10.082
38.10000 7.342
38.12000 7.854
38.14000 12.865
38.16000 13.468
38.18000 11.338
38.20000 10.691
38.22000 9.292
38.24000 8.129
38.26000 11.399
38.28000 14.146
38.30000 15.604
38.32000 13.580
38.34000 13.552
38.36000 9.461
38.38000 10.239
38.40000 14.088
38.42000 11.826
38.44000 14.383
38.46000 14.236
38.48000 17.005
38.50000 22.712
38.52000 21.851
38.54000 21.825
38.56000 15.256
38.58000 14.499
38.60000 14.746
38.62000 18.138
38.64000 22.780
38.66000 20.430
38.68000 15.814
38.70000 22.818
38.72000 26.140
38.74000 21.013
38.76000 20.141
38.78000 24.116
38.80000 22.073
38.82000 26.407
38.84000 30.285
38.86000 31.892
38.88000 31.693
38.90000 36.214
38.92000 33.165
38.94000 38.151
38.96000 32.547
38.98000 36.468
39.00000 39.039
39.02000 44.688
39.04000 42.308
39.06000 41.564
39.08000 40.920
39.10000 45.688
39.12000 46.655
39.14000 49.626
39.16000 50.433
39.18000 53.667
39.20000 55.542
39.22000 54.704
39.24000 60.135
39.26000 62.655
39.28000 63.343
39.30000 70.142
39.32000 72.019
39.34000 73.890
39.36000 79.210
39.38000 88.668
39.40000 93.196
39.42000 91.911
39.44000 98.768
39.46000 102.221
39.48000 109.909
39.50000 113.205
39.52000 120.658
39.54000 123.293
39.56000 136.384
39.58000 143.462
39.60000 149.582
39.62000 150.657
39.64000 156.954
39.66000 164.782
39.68000 174.813
39.70000 185.708
39.72000 190.923
39.74000 204.160
39.76000 215.271
39.78000 220.731
39.80000 230.423
39.82000 249.745
39.84000 261.895
39.86000 276.134
39.88000 283.363
39.90000 290.174
39.92000 313.222
39.94000 324.623
39.96000 348.424
39.98000 354.154
40.00000 359.995
40.02000 371.069
40.04000 388.467
40.06000 408.403
40.08000 428.615
40.10000 443.405
40.12000 451.729
40.14000 466.538
40.16000 489.156
40.18000 506.368
40.20000 512.561
40.22000 525.717
40.24000 536.855
40.26000 545.770
40.28000 555.772
40.30000 559.068
40.32000 564.864
40.34000 565.795
40.36000 563.202
40.38000 570.294
40.40000 571.354
40.42000 571.875
40.44000 572.306
40.46000 557.211
40.48000 556.576
40.50000 531.393
40.52000 521.935
40.54000 522.382
40.56000 507.602
40.58000 487.553
40.60000 484.762
40.62000 479.574
40.64000 463.726
40.66000 441.609
40.68000 418.865
40.70000 409.752
40.72000 394.466
40.74000 379.750
40.76000 365.317
40.78000 350.801
40.80000 331.960
40.82000 322.184
40.84000 300.455
40.86000 286.749
40.88000 272.061
40.90000 253.822
40.92000 235.467
40.94000 232.208
40.96000 229.646
40.98000 212.030
41.00000 196.684
41.02000 195.893
41.04000 180.061
41.06000 166.746
41.08000 163.686
41.10000 162.438
41.12000 152.730
41.14000 138.450
41.16000 126.610
41.18000 124.077
41.20000 119.276
41.22000 117.696
41.24000 108.447
41.26000 101.567
41.28000 92.308
41.30000 87.550
41.32000 86.017
41.34000 81.322
41.36000 71.027
41.38000 69.905
41.40000 70.841
41.42000 61.191
41.44000 63.135
41.46000 58.050
41.48000 54.277
41.50000 50.117
41.52000 46.236
41.54000 46.994
41.56000 38.603
41.58000 40.785
41.60000 43.216
41.62000 41.089
41.64000 36.511
41.66000 30.680
41.68000 28.098
41.70000 32.014
41.72000 27.655
41.74000 27.872
41.76000 22.792
41.78000 21.402
41.80000 24.075
41.82000 23.030
41.84000 20.747
41.86000 15.745
41.88000 18.449
41.90000 16.250
41.92000 16.486
41.94000 17.182
41.96000 13.490
41.98000 11.298
42.00000 11.804
42.02000 7.534
42.04000 12.546
42.06000 6.339
42.08000 1.323
42.10000 7.241
42.12000 11.843
42.14000 11.229
42.16000 4.742
42.18000 5.934
42.20000 9.564
42.22000 12.084
42.24000 10.553
42.26000 6.905
42.28000 7.147
42.30000 5.824
42.32000 10.016
42.34000 6.441
42.36000 2.234
42.38000 2.365
42.40000 1.068
42.42000 5.281
42.44000 5.562
42.46000 3.874
42.48000 0.458
42.50000 3.452
42.52000 2.684
42.54000 0.547
42.56000 1.065
42.58000 0.757
42.60000 -1.613
42.62000 -3.115
42.64000 3.058
42.66000 1.584
42.68000 -0.362
42.70000 -2.979
42.72000 3.756
42.74000 1.073
42.76000 0.344
42.78000 -0.144
42.80000 -0.343
42.82000 0.573
42.84000 -3.447
42.86000 1.312
42.88000 -0.901
42.90000 -0.537
42.92000 3.271
42.94000 1.113
42.96000 5.813
42.98000 5.174
43.00000 3.396
43.02000 -1.167
43.04000 -1.959
43.06000 -3.451
43.08000 -0.830
43.10000 -1.565
43.12000 -3.514
43.14000 -2.063
43.16000 2.216
43.18000 1.521
43.20000 3.390
43.22000 0.987
43.24000 0.220
43.26000 0.305
43.28000 0.625
43.30000 -0.151
43.32000 1.671
43.34000 1.697
43.36000 0.935
43.38000 0.097
43.40000 0.376
43.42000 -3.470
43.44000 -0.568
43.46000 0.856
43.48000 -0.737
43.50000 -0.381
43.52000 1.585
43.54000 -2.401
43.56000 -2.562
43.58000 0.708
43.60000 0.210
43.62000 0.262
43.64000 -0.624
43.66000 2.410
43.68000 2.761
43.70000 2.251
43.72000 2.721
43.74000 1.611
43.76000 -1.786
43.78000 1.554
43.80000 1.919
43.82000 2.264
43.84000 0.487
43.86000 3.736
43.88000 6.118
43.90000 5.465
43.92000 6.503
43.94000 2.978
43.96000 2.039
43.98000 2.887
44.00000 5.567
44.02000 4.228
44.04000 4.154
44.06000 -0.016
44.08000 -3.437
44.10000 -0.948
44.12000 1.537
44.14000 0.029
44.16000 -1.917
44.18000 -1.052
44.20000 2.466
44.22000 3.885
44.24000 1.611
44.26000 5.766
44.28000 1.510
44.30000 -1.718
44.32000 1.013
44.34000 7.407
44.36000 5.939
44.38000 2.619
44.40000 -0.989
44.42000 -3.439
44.44000 -1.467
44.46000 2.952
44.48000 1.462
44.50000 -2.247
44.52000 2.549
44.54000 6.628
44.56000 4.477
44.58000 -2.528
44.60000 -0.065
44.62000 2.601
44.64000 0.917
44.66000 5.612
44.68000 4.969
44.70000 2.570
44.72000 -0.915
44.74000 3.696
44.76000 2.508
44.78000 2.235
44.80000 1.292
44.82000 -0.564
44.84000 1.212
44.86000 -1.439
44.88000 0.680
44.90000 2.913
44.92000 3.202
44.94000 6.352
44.96000 7.757
44.98000 7.194
45.00000 2.152
45.02000 -2.258
45.04000 1.375
45.06000 1.675
45.08000 1.846
45.10000 3.612
45.12000 -0.011
45.14000 5.077
45.16000 5.250
45.18000 -1.688
45.20000 0.445
45.22000 9.869
45.24000 11.773
45.26000 7.599
45.28000 7.635
45.30000 8.364
45.32000 8.325
45.34000 9.511
45.36000 10.849
45.38000 7.996
45.40000 12.446
45.42000 13.052
45.44000 13.605
45.46000 12.050
45.48000 10.147
45.50000 11.021
45.52000 14.516
45.54000 16.140
45.56000 14.378
45.58000 12.898
45.60000 13.448
45.62000 12.661
45.64000 19.586
45.66000 22.977
45.68000 20.332
45.70000 13.408
45.72000 21.663
45.74000 24.315
45.76000 23.159
45.78000 27.665
45.80000 29.166
45.82000 26.418
45.84000 20.423
45.86000 26.891
45.88000 27.252
45.90000 24.083
45.92000 27.553
45.94000 35.424
45.96000 31.298
45.98000 31.459
46.00000 38.071
46.02000 39.126
46.04000 40.437
46.06000 36.360
46.08000 38.786
46.10000 40.548
46.12000 34.745
46.14000 35.085
46.16000 41.479
46.18000 44.092
46.20000 52.088
46.22000 50.205
46.24000 49.474
46.26000 48.959
46.28000 44.600
46.30000 47.709
46.32000 54.220
46.34000 56.029
46.36000 57.753
46.38000 60.779
46.40000 63.240
46.42000 69.903
46.44000 61.362
46.46000 63.620
46.48000 64.238
46.50000 62.563
46.52000 57.490
46.54000 54.886
46.56000 65.191
46.58000 71.550
46.60000 74.142
46.62000 77.907
46.64000 76.987
46.66000 76.081
46.68000 84.346
46.70000 82.004
46.72000 79.773
46.74000 75.313
46.76000 83.537
46.78000 88.442
46.80000 83.985
46.82000 76.770
46.84000 90.251
46.86000 93.014
46.88000 92.132
46.90000 89.468
46.92000 88.929
46.94000 87.971
46.96000 86.061
46.98000 84.162
47.00000 92.161
47.02000 86.160
47.04000 85.338
47.06000 88.580
47.08000 83.792
47.10000 85.697
47.12000 86.932
47.14000 81.203
47.16000 85.309
47.18000 88.730
47.20000 78.662
47.22000 76.307
47.24000 78.644
47.26000 82.770
47.28000 81.938
47.30000 75.513
47.32000 68.878
47.34000 70.565
47.36000 67.542
47.38000 68.855
47.40000 70.939
47.42000 69.314
47.44000 69.090
47.46000 64.503
47.48000 55.084
47.50000 56.223
47.52000 58.595
47.54000 52.379
47.56000 54.390
47.58000 51.286
47.60000 46.752
47.62000 43.448
47.64000 40.623
47.66000 41.469
47.68000 40.301
47.70000 39.545
47.72000 42.091
47.74000 36.869
47.76000 35.257
47.78000 30.304
47.80000 33.218
47.82000 30.975
47.84000 32.579
47.86000 26.365
47.88000 20.894
47.90000 24.710
47.92000 23.423
47.94000 20.212
47.96000 20.108
47.98000 24.073
48.00000 24.651
48.02000 22.541
48.04000 19.496
48.06000 11.276
48.08000 17.553
48.10000 14.960
48.12000 13.891
48.14000 12.091
48.16000 13.372
48.18000 16.244
48.20000 12.917
48.22000 8.699
48.24000 9.391
48.26000 9.245
48.28000 7.761
48.30000 7.970
48.32000 12.148
48.34000 11.586
48.36000 7.249
48.38000 4.534
48.40000 7.674
48.42000 11.039
48.44000 8.163
48.46000 9.303
48.48000 2.146
48.50000 1.099
48.52000 -0.381
48.54000 -1.482
48.56000 2.265
48.58000 3.677
48.60000 4.723
48.62000 5.778
48.64000 10.131
48.66000 8.609
48.68000 3.520
48.70000 1.882
48.72000 -1.640
48.74000 4.186
48.76000 4.131
48.78000 5.291
48.80000 -0.815
48.82000 3.925
48.84000 6.106
48.86000 5.633
48.88000 5.215
48.90000 4.995
48.92000 0.863
48.94000 -3.099
48.96000 -1.870
48.98000 -0.821
49.00000 -1.679
49.02000 0.605
49.04000 5.043
49.06000 0.647
49.08000 -0.408
49.10000 1.797
49.12000 5.928
49.14000 5.966
49.16000 2.108
49.18000 1.292
49.20000 4.342
49.22000 3.190
49.24000 4.599
49.26000 2.042
49.28000 1.221
49.30000 1.419
49.32000 4.292
49.34000 1.306
49.36000 -2.993
49.38000 2.076
49.40000 1.374
49.42000 4.320
49.44000 1.085
49.46000 -0.398
49.48000 -0.888
49.50000 -0.035
49.52000 4.976
49.54000 6.472
49.56000 4.230
49.58000 3.899
49.60000 -2.723
49.62000 -2.634
49.64000 -1.597
49.66000 -2.912
49.68000 2.153
49.70000 4.523
49.72000 5.470
49.74000 5.766
49.76000 3.205
49.78000 4.130
49.80000 6.452
49.82000 11.438
49.84000 8.320
49.86000 7.172
49.88000 2.498
49.90000 2.210
49.92000 2.130
49.94000 2.185
49.96000 7.170
49.98000 4.307
50.00000 3.803
50.02000 2.045
50.04000 4.415
50.06000 6.399
50.08000 1.242
50.10000 2.755
50.12000 4.480
50.14000 4.831
50.16000 4.876
50.18000 1.733
50.20000 4.444
50.22000 4.178
50.24000 6.898
50.26000 6.790
50.28000 3.494
50.30000 3.846
50.32000 5.360
50.34000 1.821
50.36000 -2.890
50.38000 -1.168
50.40000 8.972
50.42000 6.581
50.44000 3.191
50.46000 7.071
50.48000 5.646
50.50000 6.248
50.52000 1.541
50.54000 1.913
50.56000 3.826
50.58000 7.645
50.60000 0.747
50.62000 3.878
50.64000 9.799
50.66000 7.955
50.68000 5.690
50.70000 5.968
50.72000 5.235
50.74000 5.214
50.76000 5.556
50.78000 4.700
50.80000 8.590
50.82000 7.872
50.84000 3.595
50.86000 0.019
50.88000 1.535
50.90000 4.705
50.92000 5.074
50.94000 6.612
50.96000 4.580
50.98000 0.461
51.00000 6.337
51.02000 7.569
51.04000 3.730
51.06000 3.546
51.08000 3.742
51.10000 6.594
51.12000 4.209
51.14000 2.454
51.16000 -0.321
51.18000 -2.874
51.20000 2.001
51.22000 5.616
51.24000 9.254
51.26000 9.891
51.28000 7.402
51.30000 7.235
51.32000 3.570
51.34000 4.156
51.36000 9.725
51.38000 4.595
51.40000 1.935
51.42000 -0.441
51.44000 0.957
51.46000 3.464
51.48000 3.192
51.50000 2.334
51.52000 2.725
51.54000 3.036
51.56000 7.394
51.58000 4.618
51.60000 2.203
51.62000 2.743
51.64000 2.532
51.66000 4.889
51.68000 5.779
51.70000 4.023
51.72000 2.051
51.74000 2.818
51.76000 -0.105
51.78000 -1.102
51.80000 3.231
51.82000 2.126
51.84000 4.399
51.86000 6.920
51.88000 6.501
51.90000 3.615
51.92000 7.620
51.94000 1.984
51.96000 -0.508
51.98000 2.010
52.00000 9.283
52.02000 7.644
52.04000 4.507
52.06000 7.129
52.08000 5.462
52.10000 -0.853
52.12000 -2.862
52.14000 -1.840
52.16000 1.099
52.18000 3.559
52.20000 4.592
52.22000 6.999
52.24000 2.910
52.26000 2.092
52.28000 1.743
52.30000 3.560
52.32000 3.700
52.34000 3.022
52.36000 7.171
52.38000 4.432
52.40000 3.286
52.42000 1.571
52.44000 3.934
52.46000 5.432
52.48000 5.270
52.50000 3.840
52.52000 3.988
52.54000 5.359
52.56000 3.728
52.58000 0.601
52.60000 -2.308
52.62000 -0.345
52.64000 -0.869
52.66000 1.123
52.68000 -0.551
52.70000 1.183
52.72000 3.315
52.74000 1.001
52.76000 -1.244
52.78000 -1.277
52.80000 0.460
52.82000 3.676
52.84000 1.989
52.86000 5.526
52.88000 3.356
52.90000 5.228
52.92000 3.317
52.94000 2.054
52.96000 1.197
52.98000 4.130
53.00000 -2.838
53.02000 0.507
53.04000 6.104
53.06000 -1.863
53.08000 1.830
53.10000 3.045
53.12000 3.626
53.14000 1.480
53.16000 7.860
53.18000 0.894
53.20000 -2.287
53.22000 1.627
53.24000 3.321
53.26000 3.922
53.28000 2.452
53.30000 2.881
53.32000 2.178
53.34000 -2.818
53.36000 0.013
53.38000 1.466
53.40000 1.900
53.42000 2.225
53.44000 -0.888
53.46000 -0.382
53.48000 -1.829
53.50000 1.455
53.52000 -1.390
53.54000 1.766
53.56000 8.120
53.58000 4.058
53.60000 1.015
53.62000 -0.069
53.64000 2.062
53.66000 1.775
53.68000 4.495
53.70000 1.117
53.72000 -0.344
53.74000 2.576
53.76000 -2.523
53.78000 -2.815
53.80000 1.925
53.82000 2.399
53.84000 1.394
53.86000 1.507
53.88000 2.712
53.90000 2.707
53.92000 0.195
53.94000 4.943
53.96000 8.483
53.98000 2.661
54.00000 -1.426
54.02000 -2.801
54.04000 3.165
54.06000 0.737
54.08000 2.353
54.10000 2.768
54.12000 4.459
54.14000 2.890
54.16000 4.436
54.18000 3.124
54.20000 0.924
54.22000 -1.781
54.24000 -1.543
54.26000 6.344
54.28000 4.074
54.30000 1.564
54.32000 5.031
54.34000 4.473
54.36000 4.574
54.38000 0.473
54.40000 0.053
54.42000 1.556
54.44000 3.481
54.46000 -0.684
54.48000 0.221
54.50000 1.135
54.52000 0.552
54.54000 -1.483
54.56000 -1.643
54.58000 -0.340
54.60000 2.715
54.62000 2.069
54.64000 2.818
54.66000 -0.740
54.68000 -0.933
54.70000 1.559
54.72000 -0.101
54.74000 -2.035
54.76000 -0.816
54.78000 0.068
54.80000 -1.228
54.82000 0.594
54.84000 -1.517
54.86000 -2.772
54.88000 -0.638
54.90000 6.126
54.92000 4.342
54.94000 0.955
54.96000 0.591
54.98000 2.525
55.00000 3.103
55.02000 -1.165
55.04000 -1.011
55.06000 2.651
55.08000 4.305
55.10000 -1.693
55.12000 1.076
55.14000 4.044
55.16000 0.842
55.18000 3.592
55.20000 7.814
55.22000 2.543
55.24000 4.584
55.26000 7.967
55.28000 5.394
55.30000 7.473
55.32000 8.178
55.34000 0.585
55.36000 0.381
55.38000 0.831
55.40000 2.967
55.42000 4.112
55.44000 3.611
55.46000 7.344
55.48000 5.757
55.50000 7.135
55.52000 7.181
55.54000 7.099
55.56000 0.205
55.58000 2.052
55.60000 6.142
55.62000 2.278
55.64000 -0.814
55.66000 -2.725
55.68000 1.874
55.70000 3.791
55.72000 5.668
55.74000 1.088
55.76000 1.108
55.78000 3.919
55.80000 3.295
55.82000 2.734
55.84000 4.688
55.86000 1.835
55.88000 -0.083
55.90000 4.720
55.92000 2.685
55.94000 5.262
55.96000 9.322
55.98000 4.741
56.00000 4.048
56.02000 3.570
56.04000 6.275
56.06000 8.151
56.08000 7.649
56.10000 3.370
56.12000 -0.222
56.14000 0.416
56.16000 3.289
56.18000 4.171
56.20000 4.289
56.22000 1.830
56.24000 3.097
56.26000 7.911
56.28000 4.064
56.30000 3.569
56.32000 4.632
56.34000 4.499
56.36000 7.514
56.38000 12.309
56.40000 0.978
56.42000 -0.946
56.44000 4.196
56.46000 5.968
56.48000 6.486
56.50000 3.658
56.52000 3.969
56.54000 2.522
56.56000 0.345
56.58000 -0.257
56.60000 2.794
56.62000 3.075
56.64000 4.429
56.66000 4.765
56.68000 4.454
56.70000 0.381
56.72000 0.462
56.74000 3.402
56.76000 2.777
56.78000 -0.108
56.80000 0.874
56.82000 -2.717
56.84000 -1.099
56.86000 3.155
56.88000 4.087
56.90000 3.362
56.92000 1.345
56.94000 2.561
56.96000 7.863
56.98000 4.788
57.00000 0.088
57.02000 1.663
57.04000 0.038
57.06000 3.321
57.08000 4.808
57.10000 4.165
57.12000 3.035
57.14000 2.493
57.16000 2.161
57.18000 2.884
57.20000 1.260
57.22000 -0.713
57.24000 -0.435
57.26000 -1.332
57.28000 -2.145
57.30000 -0.099
57.32000 -0.110
57.34000 4.639
57.36000 4.404
57.38000 1.552
57.40000 6.993
57.42000 -0.168
57.44000 7.708
57.46000 4.849
57.48000 5.035
57.50000 7.061
57.52000 7.142
57.54000 4.640
57.56000 -0.728
57.58000 4.151
57.60000 3.579
57.62000 -1.327
57.64000 -0.264
57.66000 -0.086
57.68000 0.870
57.70000 3.173
57.72000 4.936
57.74000 5.098
57.76000 3.610
57.78000 2.449
57.80000 1.199
57.82000 2.827
57.84000 4.565
57.86000 2.226
57.88000 -1.444
57.90000 -2.669
57.92000 -0.781
57.94000 -0.940
57.96000 -1.268
57.98000 1.466
58.00000 1.438
58.02000 1.211
58.04000 6.546
58.06000 3.721
58.08000 -0.592
58.10000 1.815
58.12000 -0.063
58.14000 -2.659
58.16000 2.356
58.18000 4.750
58.20000 7.013
58.22000 5.626
58.24000 1.937
58.26000 -2.661
58.28000 3.626
58.30000 8.880
58.32000 3.268
58.34000 3.853
58.36000 0.020
58.38000 -1.424
58.40000 2.703
58.42000 3.776
58.44000 0.663
58.46000 3.781
58.48000 5.627
58.50000 3.228
58.52000 2.389
58.54000 4.650
58.56000 8.641
58.58000 3.348
58.60000 -2.254
58.62000 0.057
58.64000 -0.649
58.66000 3.163
58.68000 3.524
58.70000 7.752
58.72000 10.834
58.74000 2.825
58.76000 2.876
58.78000 4.464
58.80000 6.356
58.82000 4.888
58.84000 1.250
58.86000 0.740
58.88000 5.722
58.90000 3.495
58.92000 -0.082
58.94000 3.380
58.96000 3.743
58.98000 1.656
59.00000 -0.367
59.02000 -1.475
59.04000 5.858
59.06000 6.943
59.08000 1.366
59.10000 -0.428
59.12000 -0.294
59.14000 -2.653
59.16000 0.044
59.18000 3.031
59.20000 1.407
59.22000 0.928
59.24000 5.585
59.26000 4.309
59.28000 4.352
59.30000 4.368
59.32000 2.293
59.34000 -1.403
59.36000 0.731
59.38000 2.279
59.40000 6.924
59.42000 2.802
59.44000 -2.592
59.46000 -0.077
59.48000 0.910
59.50000 1.284
59.52000 6.898
59.54000 3.246
59.56000 -0.767
59.58000 2.039
59.60000 3.206
59.62000 3.347
59.64000 1.249
59.66000 0.321
59.68000 2.602
59.70000 3.195
59.72000 2.055
59.74000 2.518
59.76000 3.922
59.78000 1.655
59.80000 5.150
59.82000 3.966
59.84000 1.741
59.86000 0.459
59.88000 2.664
59.90000 -0.025
59.92000 2.544
59.94000 1.830
59.96000 -1.490
59.98000 1.632
60.00000 1.624
60.02000 -0.308
60.04000 4.074
60.06000 4.529
60.08000 3.026
60.10000 4.173
60.12000 2.676
60.14000 0.900
60.16000 0.320
60.18000 1.938
60.20000 4.535
60.22000 2.862
60.24000 -1.131
60.26000 4.236
60.28000 4.637
60.30000 3.500
60.32000 1.849
60.34000 -0.743
60.36000 3.459
60.38000 -2.602
60.40000 -0.199
60.42000 2.288
60.44000 0.400
60.46000 2.862
60.48000 3.339
60.50000 5.938
60.52000 5.112
60.54000 3.337
60.56000 2.770
60.58000 1.279
60.60000 0.549
60.62000 0.043
60.64000 3.831
60.66000 2.474
60.68000 -1.613
60.70000 0.971
60.72000 4.237
60.74000 3.958
60.76000 1.886
60.78000 0.565
60.80000 3.650
60.82000 3.180
60.84000 0.878
60.86000 0.328
60.88000 2.828
60.90000 4.196
60.92000 -0.383
60.94000 -2.574
60.96000 3.205
60.98000 1.933
61.00000 1.212
61.02000 -0.315
61.04000 0.211
61.06000 4.145
61.08000 4.526
61.10000 -0.882
61.12000 -0.921
61.14000 3.947
61.16000 2.745
61.18000 -2.580
61.20000 -1.226
61.22000 0.523
61.24000 3.243
61.26000 3.271
61.28000 2.407
61.30000 1.024
61.32000 -1.422
61.34000 -1.796
61.36000 -1.665
61.38000 0.204
61.40000 2.465
61.42000 2.587
61.44000 -2.172
61.46000 -2.030
61.48000 0.150
61.50000 2.088
61.52000 7.342
61.54000 6.531
61.56000 4.374
61.58000 4.232
61.60000 4.269
61.62000 4.296
61.64000 -0.263
61.66000 -2.047
61.68000 -0.414
61.70000 1.980
61.72000 3.306
61.74000 -2.582
61.76000 0.133
61.78000 -2.351
61.80000 1.051
61.82000 0.505
61.84000 1.515
61.86000 -0.133
61.88000 1.005
61.90000 5.843
61.92000 5.407
61.94000 1.658
61.96000 0.083
61.98000 1.709
62.00000 -0.902
62.02000 -0.853
62.04000 0.118
62.06000 -0.370
62.08000 -1.697
62.10000 -1.107
62.12000 -1.036
62.14000 1.959
62.16000 4.272
62.18000 0.573
62.20000 -2.574
62.22000 -0.600
62.24000 0.779
62.26000 2.475
62.28000 2.770
62.30000 1.406
62.32000 3.611
62.34000 3.337
62.36000 4.377
62.38000 -0.009
62.40000 2.197
62.42000 -1.255
62.44000 0.487
62.46000 -1.679
62.48000 -2.192
62.50000 -0.716
62.52000 3.640
62.54000 3.397
62.56000 0.319
62.58000 0.969
62.60000 -2.564
62.62000 -1.959
62.64000 0.922
62.66000 2.419
62.68000 3.214
62.70000 3.561
62.72000 -0.006
62.74000 1.123
62.76000 3.210
62.78000 3.085
62.80000 0.308
62.82000 0.053
62.84000 0.940
62.86000 2.383
62.88000 1.533
62.90000 0.544
62.92000 1.214
62.94000 1.640
62.96000 3.266
62.98000 4.010
63.00000 1.263
63.02000 -1.111
63.04000 2.179
63.06000 1.474
63.08000 2.735
63.10000 1.785
63.12000 0.116
63.14000 -0.162
63.16000 1.156
63.18000 1.850
63.20000 0.388
63.22000 2.493
63.24000 3.488
63.26000 -2.369
63.28000 2.060
63.30000 2.072
63.32000 -2.554
63.34000 -1.313
63.36000 -2.097
63.38000 -1.497
63.40000 2.381
63.42000 1.894
63.44000 2.750
63.46000 2.163
63.48000 -0.807
63.50000 -1.362
63.52000 2.433
63.54000 1.435
63.56000 3.378
63.58000 3.776
63.60000 3.106
63.62000 4.697
63.64000 2.589
63.66000 -0.794
63.68000 -0.268
63.70000 -1.653
63.72000 -1.065
63.74000 -0.634
63.76000 0.234
63.78000 1.335
63.80000 0.542
63.82000 2.657
63.84000 4.417
63.86000 3.348
63.88000 1.512
63.90000 0.242
63.92000 2.393
63.94000 -0.810
63.96000 -1.202
63.98000 -0.516
64.00000 3.502
64.02000 1.959
64.04000 4.235
64.06000 3.311
64.08000 4.961
64.10000 7.314
64.12000 3.596
64.14000 2.028
64.16000 5.858
64.18000 3.267
64.20000 -0.999
64.22000 -0.965
64.24000 -0.483
64.26000 3.117
64.28000 2.272
64.30000 -0.075
64.32000 -0.734
64.34000 -0.377
64.36000 0.403
64.38000 0.584
64.40000 1.994
64.42000 3.614
64.44000 4.944
64.46000 5.225
64.48000 0.503
64.50000 -1.893
64.52000 4.585
64.54000 6.228
64.56000 3.141
64.58000 -0.453
64.60000 -0.270
64.62000 2.711
64.64000 0.032
64.66000 -2.549
64.68000 0.462
64.70000 1.130
64.72000 1.649
64.74000 -0.476
64.76000 -1.179
64.78000 0.785
64.80000 3.968
64.82000 1.653
64.84000 -0.950
64.86000 2.083
64.88000 1.803
64.90000 0.298
64.92000 -1.816
64.94000 2.777
64.96000 2.646
64.98000 1.909
65.00000 5.770
65.02000 9.474
65.04000 7.449
65.06000 2.211
65.08000 0.110
65.10000 -2.550
65.12000 2.889
65.14000 7.251
65.16000 4.603
65.18000 3.069
65.20000 3.493
65.22000 2.611
65.24000 9.317
65.26000 5.288
65.28000 2.085
65.30000 -0.058
65.32000 1.123
65.34000 3.322
65.36000 1.924
65.38000 5.528
65.40000 3.320
65.42000 5.731
65.44000 4.071
65.46000 -1.345
65.48000 0.828
65.50000 2.683
65.52000 2.666
65.54000 3.299
65.56000 -0.603
65.58000 0.325
65.60000 2.183
65.62000 1.989
65.64000 5.298
65.66000 3.824
65.68000 3.838
65.70000 6.159
65.72000 4.341
65.74000 0.775
65.76000 2.379
65.78000 3.412
65.80000 3.692
65.82000 2.409
65.84000 3.189
65.86000 1.276
65.88000 0.813
65.90000 4.310
65.92000 7.816
65.94000 8.231
65.96000 3.840
65.98000 -0.301
66.00000 1.299
66.02000 1.537
66.04000 -0.180
66.06000 3.415
66.08000 -0.389
66.10000 -2.316
66.12000 -2.572
66.14000 4.377
66.16000 6.017
66.18000 1.077
66.20000 0.893
66.22000 1.693
66.24000 3.521
66.26000 3.736
66.28000 5.320
66.30000 1.891
66.32000 -1.610
66.34000 -1.609
66.36000 -1.689
66.38000 0.571
66.40000 2.856
66.42000 0.508
66.44000 -1.502
66.46000 1.462
66.48000 1.603
66.50000 2.084
66.52000 2.050
66.54000 0.745
66.56000 1.090
66.58000 3.851
66.60000 -0.427
66.62000 -1.849
66.64000 4.002
66.66000 2.746
66.68000 4.280
66.70000 3.783
66.72000 2.124
66.74000 4.049
66.76000 4.017
66.78000 0.080
66.80000 1.075
66.82000 2.201
66.84000 1.630
66.86000 2.837
66.88000 2.433
66.90000 4.200
66.92000 2.005
66.94000 2.858
66.96000 0.771
66.98000 2.649
67.00000 5.304
67.02000 1.913
67.04000 1.416
67.06000 3.077
67.08000 7.711
67.10000 4.965
67.12000 2.100
67.14000 0.713
67.16000 0.649
67.18000 2.463
67.20000 2.550
67.22000 -1.197
67.24000 -0.119
67.26000 4.031
67.28000 5.529
67.30000 2.592
67.32000 1.502
67.34000 2.482
67.36000 1.309
67.38000 4.248
67.40000 6.347
67.42000 4.320
67.44000 5.830
67.46000 4.476
67.48000 8.816
67.50000 8.748
67.52000 6.291
67.54000 3.653
67.56000 8.803
67.58000 9.035
67.60000 8.924
67.62000 8.764
67.64000 9.351
67.66000 6.544
67.68000 4.578
67.70000 7.165
67.72000 10.280
67.74000 10.419
67.76000 10.795
67.78000 8.762
67.80000 6.657
67.82000 7.591
67.84000 7.519
67.86000 13.641
67.88000 16.634
67.90000 13.333
67.92000 11.812
67.94000 13.506
67.96000 10.411
67.98000 10.621
68.00000 14.967
68.02000 11.953
68.04000 10.338
68.06000 11.468
68.08000 13.209
68.10000 14.812
68.12000 13.829
68.14000 16.102
68.16000 15.481
68.18000 13.109
68.20000 15.456
68.22000 15.657
68.24000 11.901
68.26000 13.193
68.28000 16.536
68.30000 17.422
68.32000 16.975
68.34000 21.717
68.36000 21.397
68.38000 21.522
68.40000 22.522
68.42000 18.713
68.44000 20.986
68.46000 18.635
68.48000 19.119
68.50000 20.878
68.52000 18.295
68.54000 19.714
68.56000 28.821
68.58000 25.403
68.60000 18.774
68.62000 17.356
68.64000 18.589
68.66000 22.869
68.68000 23.032
68.70000 23.431
68.72000 24.323
68.74000 24.689
68.76000 23.364
68.78000 17.176
68.80000 20.849
68.82000 19.385
68.84000 16.224
68.86000 17.711
68.88000 17.332
68.90000 14.748
68.92000 19.462
68.94000 16.933
68.96000 14.711
68.98000 14.085
69.00000 16.651
69.02000 16.379
69.04000 14.360
69.06000 11.780
69.08000 14.300
69.10000 16.574
69.12000 16.747
69.14000 12.724
69.16000 9.572
69.18000 9.391
69.20000 9.681
69.22000 13.509
69.24000 12.311
69.26000 12.847
69.28000 12.548
69.30000 13.617
69.32000 11.203
69.34000 9.008
69.36000 11.415
69.38000 7.546
69.40000 7.708
69.42000 9.650
69.44000 5.584
69.46000 3.404
69.48000 5.344
69.50000 1.001
69.52000 3.673
69.54000 5.873
69.56000 4.969
69.58000 2.599
69.60000 1.350
69.62000 1.980
69.64000 5.745
69.66000 7.235
69.68000 6.771
69.70000 2.251
69.72000 -2.600
69.74000 -1.434
69.76000 0.244
69.78000 0.218
69.80000 0.048
69.82000 2.255
69.84000 -0.302
69.86000 -1.255
69.88000 0.866
69.90000 2.677
69.92000 1.041
69.94000 1.889
69.96000 2.405
69.98000 -0.192
70.00000 -1.719
70.02000 2.323
70.04000 1.283
70.06000 -1.626
70.08000 -1.048
70.10000 2.452
70.12000 1.543
70.14000 -0.461
70.16000 1.188
70.18000 2.035
70.20000 4.286
70.22000 1.599
70.24000 -1.075
70.26000 0.497
70.28000 0.423
70.30000 -2.532
70.32000 1.048
70.34000 0.707
70.36000 -1.026
70.38000 2.290
70.40000 1.217
70.42000 0.615
70.44000 0.006
70.46000 3.196
70.48000 2.540
70.50000 3.097
70.52000 -1.269
70.54000 -2.509
70.56000 4.438
70.58000 0.184
70.60000 -0.756
70.62000 0.828
70.64000 -0.726
70.66000 1.248
70.68000 3.676
70.70000 -0.867
70.72000 1.841
70.74000 -0.004
70.76000 2.479
70.78000 6.312
70.80000 3.743
70.82000 3.074
70.84000 2.427
70.86000 3.181
70.88000 6.355
70.90000 2.737
70.92000 1.339
70.94000 5.840
70.96000 6.783
70.98000 2.781
71.00000 -2.462
71.02000 -1.814
71.04000 1.304
71.06000 2.203
71.08000 3.657
71.10000 6.994
71.12000 3.030
71.14000 -0.227
71.16000 0.882
71.18000 1.391
71.20000 0.384
71.22000 3.611
71.24000 6.258
71.26000 7.546
71.28000 6.042
71.30000 0.608
71.32000 -2.433
71.34000 0.649
71.36000 4.074
71.38000 6.842
71.40000 2.749
71.42000 3.524
71.44000 4.209
71.46000 2.091
71.48000 8.294
71.50000 6.387
71.52000 1.181
71.54000 2.591
71.56000 7.567
71.58000 6.013
71.60000 1.178
71.62000 4.512
71.64000 1.333
71.66000 0.971
71.68000 1.979
71.70000 4.604
71.72000 4.711
71.74000 7.387
71.76000 5.535
71.78000 5.967
71.80000 7.589
71.82000 1.437
71.84000 -1.049
71.86000 -0.658
71.88000 0.705
71.90000 8.215
71.92000 4.092
71.94000 3.624
71.96000 5.967
71.98000 7.930
72.00000 2.329
72.02000 0.223
72.04000 -2.405
72.06000 -2.366
72.08000 0.632
72.10000 1.280
72.12000 4.350
72.14000 3.281
72.16000 3.653
72.18000 3.720
72.20000 4.369
72.22000 4.252
72.24000 1.861
72.26000 1.884
72.28000 1.630
72.30000 2.209
72.32000 -0.816
72.34000 1.176
72.36000 4.212
72.38000 5.870
72.40000 3.265
72.42000 6.021
72.44000 5.944
72.46000 0.951
72.48000 -0.222
72.50000 0.533
72.52000 -0.025
72.54000 1.429
72.56000 -0.879
72.58000 -0.113
72.60000 3.708
72.62000 0.367
72.64000 5.874
72.66000 2.849
72.68000 1.586
72.70000 1.586
72.72000 2.949
72.74000 5.067
72.76000 -1.240
72.78000 0.193
72.80000 4.674
72.82000 2.272
72.84000 -0.802
72.86000 2.954
72.88000 1.494
72.90000 2.219
72.92000 1.525
72.94000 2.384
72.96000 5.509
72.98000 5.781
73.00000 4.155
73.02000 0.484
73.04000 -0.322
73.06000 0.304
73.08000 1.190
73.10000 6.233
73.12000 5.496
73.14000 -0.393
73.16000 2.221
73.18000 0.853
73.20000 5.484
73.22000 4.268
73.24000 1.614
73.26000 -2.357
73.28000 0.218
73.30000 2.544
73.32000 3.342
73.34000 2.306
73.36000 2.484
73.38000 2.703
73.40000 9.515
73.42000 5.657
73.44000 3.126
73.46000 5.015
73.48000 4.770
73.50000 4.301
73.52000 3.692
73.54000 1.546
73.56000 4.176
73.58000 2.445
73.60000 7.839
73.62000 7.575
73.64000 -0.272
73.66000 0.650
73.68000 5.768
73.70000 -0.334
73.72000 -0.518
73.74000 1.998
73.76000 4.249
73.78000 0.852
73.80000 1.170
73.82000 6.161
73.84000 5.106
73.86000 0.886
73.88000 -2.376
73.90000 -1.279
73.92000 0.734
73.94000 4.118
73.96000 0.608
73.98000 1.166
74.00000 -2.125
74.02000 -0.406
74.04000 -0.936
74.06000 -0.345
74.08000 0.170
74.10000 -1.303
74.12000 0.874
74.14000 4.385
74.16000 7.137
74.18000 5.531
74.20000 5.451
74.22000 -0.817
74.24000 -1.843
74.26000 6.574
74.28000 3.527
74.30000 2.104
74.32000 4.510
74.34000 1.880
74.36000 1.408
74.38000 2.241
74.40000 -1.522
74.42000 -1.697
74.44000 3.580
74.46000 5.441
74.48000 6.926
74.50000 5.382
74.52000 4.165
74.54000 3.723
74.56000 5.010
74.58000 7.097
74.60000 0.910
74.62000 1.653
74.64000 4.948
74.66000 -0.369
74.68000 -1.922
74.70000 -1.262
74.72000 0.499
74.74000 2.629
74.76000 2.997
74.78000 3.991
74.80000 8.066
74.82000 9.026
74.84000 8.771
74.86000 3.937
74.88000 5.796
74.90000 1.653
74.92000 4.995
74.94000 -2.015
74.96000 -2.347
74.98000 0.233
75.00000 0.900
75.02000 0.899
75.04000 5.986
75.06000 6.836
75.08000 4.430
75.10000 5.906
75.12000 4.219
75.14000 -2.344
75.16000 4.104
75.18000 2.946
75.20000 8.149
75.22000 6.164
75.24000 2.646
75.26000 3.182
75.28000 6.068
75.30000 8.119
75.32000 7.950
75.34000 1.447
75.36000 2.257
75.38000 4.494
75.40000 6.732
75.42000 5.146
75.44000 3.940
75.46000 7.417
75.48000 4.527
75.50000 2.990
75.52000 5.371
75.54000 8.658
75.56000 9.180
75.58000 2.879
75.60000 3.139
75.62000 3.242
75.64000 -2.351
75.66000 3.131
75.68000 3.191
75.70000 0.739
75.72000 5.973
75.74000 9.559
75.76000 3.037
75.78000 0.233
75.80000 3.652
75.82000 -2.350
75.84000 -1.214
75.86000 1.410
75.88000 3.982
75.90000 4.161
75.92000 5.372
75.94000 4.546
75.96000 6.659
75.98000 3.712
76.00000 1.401
76.02000 -0.778
76.04000 5.668
76.06000 8.480
76.08000 9.464
76.10000 5.616
76.12000 1.326
76.14000 2.635
76.16000 1.310
76.18000 6.204
76.20000 5.624
76.22000 2.078
76.24000 3.194
76.26000 2.320
76.28000 -0.388
76.30000 -1.509
76.32000 0.302
76.34000 -0.944
76.36000 -1.927
76.38000 1.038
76.40000 5.979
76.42000 1.763
76.44000 0.627
76.46000 1.376
76.48000 0.693
76.50000 6.526
76.52000 5.014
76.54000 0.783
76.56000 0.751
76.58000 4.495
76.60000 3.710
76.62000 5.643
76.64000 5.219
76.66000 3.362
76.68000 -0.176
76.70000 2.813
76.72000 6.812
76.74000 4.277
76.76000 4.448
76.78000 4.247
76.80000 4.637
76.82000 7.922
76.84000 8.678
76.86000 4.930
76.88000 0.398
76.90000 -0.316
76.92000 -1.254
76.94000 2.505
76.96000 6.139
76.98000 7.504
77.00000 3.885
77.02000 4.399
77.04000 0.311
77.06000 2.667
77.08000 4.253
77.10000 7.996
77.12000 2.677
77.14000 7.089
77.16000 6.059
77.18000 4.107
77.20000 4.691
77.22000 7.912
77.24000 5.516
77.26000 -1.177
77.28000 -0.270
77.30000 3.568
77.32000 4.317
77.34000 -2.374
77.36000 1.774
77.38000 1.738
77.40000 0.734
77.42000 4.184
77.44000 3.526
77.46000 0.910
77.48000 -0.991
77.50000 2.620
77.52000 4.542
77.54000 1.672
77.56000 1.200
77.58000 5.004
77.60000 7.907
77.62000 5.103
77.64000 1.784
77.66000 2.793
77.68000 3.581
77.70000 4.225
77.72000 1.738
77.74000 4.034
77.76000 6.298
77.78000 3.048
77.80000 -1.130
77.82000 -0.042
77.84000 4.323
77.86000 4.926
77.88000 5.393
77.90000 9.580
77.92000 10.520
77.94000 6.989
77.96000 2.371
77.98000 -0.571
78.00000 1.556
78.02000 7.016
78.04000 5.282
78.06000 3.497
78.08000 4.633
78.10000 1.997
78.12000 4.188
78.14000 2.116
78.16000 1.337
78.18000 5.409
78.20000 8.928
78.22000 7.912
78.24000 10.918
78.26000 12.528
78.28000 12.434
78.30000 11.369
78.32000 7.259
78.34000 3.402
78.36000 10.634
78.38000 9.401
78.40000 8.178
78.42000 3.031
78.44000 6.505
78.46000 6.338
78.48000 2.425
78.50000 -2.339
78.52000 5.662
78.54000 9.061
78.56000 8.833
78.58000 10.238
78.60000 8.909
78.62000 8.659
78.64000 8.669
78.66000 7.712
78.68000 7.063
78.70000 1.429
78.72000 3.386
78.74000 7.481
78.76000 4.052
78.78000 3.266
78.80000 3.860
78.82000 4.979
78.84000 3.590
78.86000 5.093
78.88000 9.104
78.90000 7.212
78.92000 5.399
78.94000 4.529
78.96000 3.364
78.98000 1.918
79.00000 1.806
79.02000 4.121
79.04000 1.316
79.06000 1.333
79.08000 0.119
79.10000 5.239
79.12000 3.282
79.14000 4.804
79.16000 5.164
79.18000 1.709
79.20000 5.297
79.22000 0.791
79.24000 -2.217
79.26000 2.026
79.28000 5.754
79.30000 4.421
79.32000 2.486
79.34000 2.513
79.36000 6.358
79.38000 8.268
79.40000 2.191
79.42000 3.911
79.44000 2.171
79.46000 1.448
79.48000 2.446
79.50000 1.978
79.52000 6.045
79.54000 2.485
79.56000 1.085
79.58000 1.430
79.60000 0.847
79.62000 2.727
79.64000 0.887
79.66000 1.937
79.68000 5.484
79.70000 7.308
79.72000 0.444
79.74000 -0.407
79.76000 2.878
79.78000 6.428
79.80000 3.091
79.82000 1.381
79.84000 2.842
79.86000 2.088
79.88000 2.257
79.90000 6.965
79.92000 3.339
79.94000 0.557
79.96000 1.205
79.98000 2.668
80.00000 -0.325
80.02000 0.967
80.04000 3.530
80.06000 2.009
80.08000 5.379
80.10000 5.496
80.12000 3.543
80.14000 0.696
80.16000 -2.471
80.18000 0.308
80.20000 1.461
80.22000 4.563
80.24000 5.426
80.26000 5.559
80.28000 4.393
80.30000 4.122
80.32000 7.172
80.34000 5.906
80.36000 4.294
80.38000 7.156
80.40000 5.276
80.42000 7.107
80.44000 1.227
80.46000 5.881
80.48000 5.537
80.50000 -1.495
80.52000 3.642
80.54000 1.759
80.56000 2.042
80.58000 2.677
80.60000 3.953
80.62000 0.319
80.64000 -2.534
80.66000 -1.892
80.68000 0.754
80.70000 6.914
80.72000 3.353
80.74000 12.029
80.76000 6.836
80.78000 4.674
80.80000 1.954
80.82000 1.844
80.84000 3.271
80.86000 5.949
80.88000 7.180
80.90000 8.374
80.92000 3.497
80.94000 4.633
80.96000 2.060
80.98000 -0.516
81.00000 2.883
81.02000 6.061
81.04000 3.172
81.06000 -1.619
81.08000 2.447
81.10000 6.169
81.12000 6.080
81.14000 3.806
81.16000 4.945
81.18000 6.882
81.20000 6.496
81.22000 2.670
81.24000 3.298
81.26000 2.704
81.28000 4.624
81.30000 1.559
81.32000 0.901
81.34000 1.187
81.36000 8.411
81.38000 8.958
81.40000 7.319
81.42000 7.222
81.44000 9.787
81.46000 7.764
81.48000 5.136
81.50000 5.474
81.52000 4.960
81.54000 4.473
81.56000 3.911
81.58000 5.406
81.60000 7.539
81.62000 11.262
81.64000 7.529
81.66000 7.114
81.68000 6.727
81.70000 6.652
81.72000 10.594
81.74000 6.813
81.76000 10.703
81.78000 6.293
81.80000 4.276
81.82000 10.839
81.84000 14.782
81.86000 9.547
81.88000 13.867
81.90000 15.027
81.92000 14.068
81.94000 11.763
81.96000 15.285
81.98000 15.368
82.00000 13.720
82.02000 13.103
82.04000 15.469
82.06000 15.564
82.08000 15.046
82.10000 12.034
82.12000 12.800
82.14000 18.160
82.16000 15.176
82.18000 12.443
82.20000 11.324
82.22000 14.228
82.24000 20.317
82.26000 21.363
82.28000 18.504
82.30000 24.360
82.32000 22.435
82.34000 24.319
82.36000 20.370
82.38000 16.604
82.40000 26.520
82.42000 26.512
82.44000 21.506
82.46000 19.673
82.48000 19.137
82.50000 26.213
82.52000 28.047
82.54000 27.317
82.56000 30.504
82.58000 27.184
82.60000 25.388
82.62000 30.790
82.64000 29.689
82.66000 30.521
82.68000 27.567
82.70000 24.714
82.72000 24.227
82.74000 25.024
82.76000 25.944
82.78000 23.179
82.80000 23.137
82.82000 24.682
82.84000 27.056
82.86000 22.198
82.88000 26.949
82.90000 27.665
82.92000 22.909
82.94000 18.043
82.96000 16.470
82.98000 21.797
83.00000 21.264
83.02000 24.849
83.04000 22.227
83.06000 21.684
83.08000 24.193
83.10000 25.313
83.12000 19.225
83.14000 16.947
83.16000 21.660
83.18000 25.364
83.20000 25.551
83.22000 18.276
83.24000 17.655
83.26000 15.312
83.28000 14.063
83.30000 15.157
83.32000 13.776
83.34000 11.862
83.36000 13.864
83.38000 16.405
83.40000 15.461
83.42000 15.656
83.44000 15.683
83.46000 14.256
83.48000 15.851
83.50000 12.775
83.52000 13.399
83.54000 12.725
83.56000 13.309
83.58000 15.579
83.60000 13.514
83.62000 10.879
83.64000 11.625
83.66000 12.608
83.68000 14.508
83.70000 12.072
83.72000 11.705
83.74000 7.343
83.76000 7.544
83.78000 6.535
83.80000 7.907
83.82000 10.077
83.84000 8.796
83.86000 11.668
83.88000 7.493
83.90000 -1.442
83.92000 6.202
83.94000 6.192
83.96000 6.253
83.98000 2.805
84.00000 2.017
84.02000 0.786
84.04000 7.427
84.06000 10.928
84.08000 9.295
84.10000 9.809
84.12000 3.675
84.14000 3.180
84.16000 6.959
84.18000 5.511
84.20000 -0.159
84.22000 8.919
84.24000 5.107
84.26000 3.136
84.28000 2.189
84.30000 0.750
84.32000 -0.215
84.34000 2.935
84.36000 5.131
84.38000 11.285
84.40000 4.480
84.42000 4.558
84.44000 2.810
84.46000 1.692
84.48000 5.066
84.50000 6.878
84.52000 4.283
84.54000 3.815
84.56000 6.556
84.58000 4.831
84.60000 0.536
84.62000 2.745
84.64000 3.957
84.66000 3.579
84.68000 2.418
84.70000 -2.104
84.72000 -2.501
84.74000 7.927
84.76000 8.551
84.78000 -0.274
84.80000 -1.356
84.82000 2.036
84.84000 2.571
84.86000 -2.342
84.88000 1.326
84.90000 2.525
84.92000 -0.678
84.94000 0.059
84.96000 2.867
84.98000 4.073
85.00000 3.903
85.02000 3.843
85.04000 0.744
85.06000 7.566
85.08000 7.265
85.10000 5.257
85.12000 -2.420
85.14000 -2.468
85.16000 -0.263
85.18000 3.924
85.20000 1.557
85.22000 -0.660
85.24000 0.919
85.26000 4.688
85.28000 3.713
85.30000 1.205
85.32000 -2.456
85.34000 2.926
85.36000 6.613
85.38000 12.624
85.40000 10.722
85.42000 6.188
85.44000 3.662
85.46000 6.491
85.48000 7.487
85.50000 0.317
85.52000 1.135
85.54000 0.943
85.56000 2.984
85.58000 3.861
85.60000 2.127
85.62000 6.021
85.64000 4.017
85.66000 1.715
85.68000 5.885
85.70000 3.183
85.72000 5.490
85.74000 3.675
85.76000 1.479
85.78000 8.271
85.80000 2.983
85.82000 1.478
85.84000 -2.459
85.86000 4.303
85.88000 8.109
85.90000 7.353
85.92000 -0.854
85.94000 0.393
85.96000 6.840
85.98000 7.257
86.00000 6.632
86.02000 9.731
86.04000 11.309
86.06000 5.452
86.08000 2.288
86.10000 6.028
86.12000 5.326
86.14000 3.638
86.16000 3.424
86.18000 2.905
86.20000 5.605
86.22000 8.739
86.24000 7.899
86.26000 4.423
86.28000 3.369
86.30000 5.844
86.32000 5.491
86.34000 9.132
86.36000 14.012
86.38000 10.607
86.40000 4.391
86.42000 7.771
86.44000 10.798
86.46000 10.945
86.48000 9.068
86.50000 7.349
86.52000 7.264
86.54000 6.768
86.56000 11.123
86.58000 15.315
86.60000 13.121
86.62000 12.340
86.64000 15.759
86.66000 15.114
86.68000 14.059
86.70000 15.317
86.72000 17.529
86.74000 19.581
86.76000 16.722
86.78000 15.075
86.80000 21.584
86.82000 17.398
86.84000 12.537
86.86000 12.749
86.88000 15.574
86.90000 22.908
86.92000 21.781
86.94000 19.031
86.96000 20.627
86.98000 21.177
87.00000 18.284
87.02000 22.195
87.04000 28.268
87.06000 22.960
87.08000 16.843
87.10000 15.367
87.12000 19.128
87.14000 17.829
87.16000 20.446
87.18000 18.412
87.20000 16.322
87.22000 14.574
87.24000 20.776
87.26000 22.486
87.28000 22.884
87.30000 23.395
87.32000 18.289
87.34000 16.026
87.36000 19.420
87.38000 23.025
87.40000 18.411
87.42000 19.251
87.44000 19.097
87.46000 19.653
87.48000 23.519
87.50000 22.214
87.52000 20.684
87.54000 18.366
87.56000 17.069
87.58000 20.540
87.60000 19.121
87.62000 14.110
87.64000 13.871
87.66000 14.770
87.68000 13.703
87.70000 9.332
87.72000 9.133
87.74000 6.755
87.76000 9.357
87.78000 11.930
87.80000 13.230
87.82000 10.964
87.84000 14.449
87.86000 17.839
87.88000 15.342
87.90000 13.704
87.92000 12.032
87.94000 11.372
87.96000 13.568
87.98000 14.608
88.00000 9.779
88.02000 7.655
88.04000 7.898
88.06000 8.894
88.08000 7.560
88.10000 7.869
88.12000 8.324
88.14000 11.222
88.16000 5.271
88.18000 3.493
88.20000 8.247
88.22000 2.351
88.24000 4.611
88.26000 4.590
88.28000 4.691
88.30000 4.860
88.32000 3.459
88.34000 1.892
88.36000 3.576
88.38000 0.937
88.40000 0.995
88.42000 5.809
88.44000 3.376
88.46000 -1.583
88.48000 2.831
88.50000 4.834
88.52000 2.885
88.54000 -1.873
88.56000 -1.194
88.58000 4.165
88.60000 3.233
88.62000 0.096
88.64000 3.660
88.66000 7.685
88.68000 3.378
88.70000 -2.215
88.72000 2.871
88.74000 0.351
88.76000 2.455
88.78000 5.987
88.80000 2.517
88.82000 3.824
88.84000 2.417
88.86000 0.286
88.88000 -0.950
88.90000 3.757
88.92000 3.227
88.94000 1.015
88.96000 0.169
88.98000 -0.369
89.00000 1.346
89.02000 3.259
89.04000 5.080
89.06000 -2.291
89.08000 3.420
89.10000 3.307
89.12000 -2.330
89.14000 0.207
89.16000 -1.020
89.18000 2.969
89.20000 4.225
89.22000 4.991
89.24000 0.691
89.26000 -1.093
89.28000 4.355
89.30000 7.341
89.32000 3.827
89.34000 2.194
89.36000 4.749
89.38000 7.344
89.40000 6.272
89.42000 0.889
89.44000 0.193
89.46000 0.031
89.48000 -1.819
89.50000 -2.283
89.52000 2.183
89.54000 5.926
89.56000 6.629
89.58000 6.048
89.60000 6.832
89.62000 3.084
89.64000 4.587
89.66000 7.588
89.68000 3.847
89.70000 0.448
89.72000 3.369
89.74000 1.303
89.76000 3.108
89.78000 1.989
89.80000 1.193
89.82000 2.501
89.84000 5.579
89.86000 2.397
89.88000 -0.313
89.90000 3.124
89.92000 2.513
89.94000 3.680
89.96000 7.184
89.98000 9.224
90.00000 7.891
90.02000 5.355
90.04000 5.470
90.06000 4.602
90.08000 4.653
90.10000 -0.730
90.12000 1.737
90.14000 -1.451
90.16000 5.917
90.18000 4.128
90.20000 -0.153
90.22000 2.566
90.24000 2.456
90.26000 0.549
90.28000 -2.242
90.30000 -1.097
90.32000 6.111
90.34000 1.979
90.36000 0.438
90.38000 4.116
90.40000 0.622
90.42000 5.067
90.44000 4.325
90.46000 6.017
90.48000 2.584
90.50000 -1.275
90.52000 -1.940
90.54000 1.147
90.56000 -1.673
90.58000 0.633
90.60000 3.601
90.62000 6.913
90.64000 0.376
90.66000 1.383
90.68000 -0.488
90.70000 0.749
90.72000 2.334
90.74000 5.071
90.76000 5.605
90.78000 5.520
90.80000 1.475
90.82000 2.006
90.84000 1.690
90.86000 1.689
90.88000 0.297
90.90000 -1.151
90.92000 -0.526
90.94000 -0.039
90.96000 4.880
90.98000 8.414
91.00000 7.299
91.02000 6.308
91.04000 1.547
91.06000 2.288
91.08000 4.480
91.10000 5.825
91.12000 5.028
91.14000 6.984
91.16000 4.410
91.18000 7.159
91.20000 8.835
91.22000 3.531
91.24000 0.593
91.26000 -2.187
91.28000 1.341
91.30000 1.363
91.32000 4.274
91.34000 1.008
91.36000 6.011
91.38000 10.013
91.40000 9.680
91.42000 7.411
91.44000 8.637
91.46000 11.025
91.48000 10.500
91.50000 7.200
91.52000 8.042
91.54000 7.759
91.56000 7.894
91.58000 11.742
91.60000 10.088
91.62000 9.260
91.64000 8.626
91.66000 2.201
91.68000 4.157
91.70000 5.429
91.72000 2.104
91.74000 0.180
91.76000 5.123
91.78000 3.251
91.80000 3.168
91.82000 5.304
91.84000 6.406
91.86000 9.361
91.88000 2.878
91.90000 0.409
91.92000 2.886
91.94000 6.158
91.96000 6.342
91.98000 5.239
92.00000 -0.452
92.02000 1.752
92.04000 2.471
92.06000 2.497
92.08000 4.324
92.10000 1.898
92.12000 6.958
92.14000 5.114
92.16000 2.371
92.18000 2.814
92.20000 8.210
92.22000 6.884
92.24000 3.305
92.26000 -0.498
92.28000 0.124
92.30000 3.256
92.32000 0.541
92.34000 3.698
92.36000 7.151
92.38000 9.342
92.40000 7.719
92.42000 7.443
92.44000 5.455
92.46000 1.982
92.48000 0.391
92.50000 6.128
92.52000 6.682
92.54000 6.137
92.56000 5.171
92.58000 4.061
92.60000 6.945
92.62000 5.872
92.64000 3.173
92.66000 6.281
92.68000 4.070
92.70000 5.454
92.72000 8.476
92.74000 8.849
92.76000 5.755
92.78000 8.470
92.80000 3.989
92.82000 6.497
92.84000 8.262
92.86000 4.698
92.88000 6.437
92.90000 5.403
92.92000 5.730
92.94000 1.349
92.96000 -1.805
92.98000 -1.342
93.00000 -1.966
93.02000 2.058
93.04000 1.548
93.06000 1.239
93.08000 5.374
93.10000 3.146
93.12000 6.902
93.14000 4.121
93.16000 0.092
93.18000 -0.381
93.20000 6.903
93.22000 3.305
93.24000 2.015
93.26000 2.848
93.28000 4.854
93.30000 9.556
93.32000 9.046
93.34000 5.018
93.36000 6.183
93.38000 5.408
93.40000 12.695
93.42000 16.646
93.44000 7.927
93.46000 5.312
93.48000 8.526
93.50000 8.882
93.52000 0.330
93.54000 -2.206
93.56000 0.716
93.58000 5.014
93.60000 7.298
93.62000 9.547
93.64000 8.012
93.66000 4.106
93.68000 7.669
93.70000 10.267
93.72000 6.568
93.74000 7.089
93.76000 4.421
93.78000 4.704
93.80000 6.427
93.82000 8.783
93.84000 6.785
93.86000 6.217
93.88000 3.950
93.90000 6.926
93.92000 8.468
93.94000 5.033
93.96000 4.999
93.98000 4.162
94.00000 10.131
94.02000 11.281
94.04000 3.600
94.06000 3.136
94.08000 3.096
94.10000 5.270
94.12000 7.353
94.14000 7.058
94.16000 1.999
94.18000 -0.680
94.20000 2.608
94.22000 5.727
94.24000 9.625
94.26000 7.687
94.28000 5.850
94.30000 3.312
94.32000 1.460
94.34000 5.325
94.36000 7.395
94.38000 6.954
94.40000 7.867
94.42000 8.383
94.44000 1.853
94.46000 3.478
94.48000 2.437
94.50000 2.780
94.52000 2.757
94.54000 4.400
94.56000 6.423
94.58000 4.003
94.60000 8.757
94.62000 8.156
94.64000 6.186
94.66000 2.679
94.68000 0.310
94.70000 -1.850
94.72000 3.048
94.74000 7.318
94.76000 3.776
94.78000 8.480
94.80000 10.540
94.82000 6.551
94.84000 3.358
94.86000 9.048
94.88000 12.747
94.90000 4.043
94.92000 1.788
94.94000 6.313
94.96000 6.259
94.98000 7.388
95.00000 8.718
95.02000 6.660
95.04000 5.268
95.06000 7.355
95.08000 14.080
95.10000 7.929
95.12000 5.710
95.14000 7.545
95.16000 6.948
95.18000 0.775
95.20000 5.945
95.22000 6.844
95.24000 2.053
95.26000 2.684
95.28000 -2.238
95.30000 1.937
95.32000 7.134
95.34000 2.440
95.36000 3.708
95.38000 3.945
95.40000 5.980
95.42000 8.118
95.44000 12.759
95.46000 16.059
95.48000 12.071
95.50000 4.008
95.52000 0.411
95.54000 4.217
95.56000 6.974
95.58000 5.283
95.60000 2.809
95.62000 7.070
95.64000 8.638
95.66000 10.089
95.68000 10.593
95.70000 9.729
95.72000 4.977
95.74000 3.933
95.76000 4.707
95.78000 10.226
95.80000 9.066
95.82000 1.432
95.84000 3.084
95.86000 6.916
95.88000 10.072
95.90000 3.070
95.92000 1.417
95.94000 5.229
95.96000 2.415
95.98000 7.553
96.00000 4.911
96.02000 4.862
96.04000 0.903
96.06000 -0.254
96.08000 6.327
96.10000 5.985
96.12000 5.476
96.14000 7.635
96.16000 6.050
96.18000 7.716
96.20000 5.873
96.22000 2.787
96.24000 6.302
96.26000 5.463
96.28000 6.266
96.30000 9.790
96.32000 4.441
96.34000 -2.251
96.36000 5.876
96.38000 -1.104
96.40000 1.975
96.42000 4.042
96.44000 5.641
96.46000 9.001
96.48000 6.420
96.50000 3.707
96.52000 3.968
96.54000 1.615
96.56000 2.939
96.58000 5.603
96.60000 6.727
96.62000 8.033
96.64000 -1.973
96.66000 -1.443
96.68000 5.327
96.70000 12.476
96.72000 5.137
96.74000 1.449
96.76000 2.052
96.78000 2.011
96.80000 7.265
96.82000 1.269
96.84000 7.756
96.86000 2.610
96.88000 -1.563
96.90000 6.305
96.92000 8.463
96.94000 5.422
96.96000 5.591
96.98000 5.881
97.00000 7.010
97.02000 10.934
97.04000 3.729
97.06000 3.651
97.08000 6.058
97.10000 4.262
97.12000 4.113
97.14000 -2.210
97.16000 1.872
97.18000 11.014
97.20000 5.765
97.22000 3.601
97.24000 8.826
97.26000 8.069
97.28000 3.805
97.30000 10.114
97.32000 5.223
97.34000 0.320
97.36000 5.365
97.38000 4.118
97.40000 1.738
97.42000 -0.884
97.44000 -0.304
97.46000 1.723
97.48000 8.089
97.50000 4.884
97.52000 2.176
97.54000 4.698
97.56000 3.276
97.58000 5.934
97.60000 5.867
97.62000 -1.933
97.64000 -1.151
97.66000 2.895
97.68000 4.102
97.70000 7.493
97.72000 11.877
97.74000 11.274
97.76000 5.342
97.78000 4.713
97.80000 4.541
97.82000 6.944
97.84000 3.717
97.86000 6.251
97.88000 5.105
97.90000 8.170
97.92000 8.233
97.94000 2.458
97.96000 3.385
97.98000 8.592
98.00000 5.192
98.02000 3.325
98.04000 0.360
98.06000 1.402
98.08000 7.775
98.10000 2.422
98.12000 2.147
98.14000 5.827
98.16000 2.468
98.18000 1.680
98.20000 7.479
98.22000 8.820
98.24000 4.128
98.26000 -1.317
98.28000 5.992
98.30000 8.802
98.32000 4.944
98.34000 5.772
98.36000 9.449
98.38000 2.174
98.40000 0.297
98.42000 3.986
98.44000 3.451
98.46000 10.093
98.48000 6.870
98.50000 -1.703
98.52000 0.117
98.54000 0.595
98.56000 4.298
98.58000 3.643
98.60000 3.732
98.62000 5.361
98.64000 7.541
98.66000 7.516
98.68000 6.360
98.70000 -0.572
98.72000 4.230
98.74000 10.386
98.76000 6.021
98.78000 7.819
98.80000 7.832
98.82000 7.676
98.84000 17.347
98.86000 3.394
98.88000 -0.599
98.90000 4.752
98.92000 11.465
98.94000 7.175
98.96000 6.333
98.98000 9.204
99.00000 17.384
99.02000 14.883
99.04000 10.369
99.06000 0.250
99.08000 4.955
99.10000 4.219
99.12000 6.205
99.14000 7.507
99.16000 11.594
99.18000 17.878
99.20000 5.161
99.22000 3.465
99.24000 6.083
99.26000 5.173
99.28000 3.960
99.30000 9.442
99.32000 10.202
99.34000 5.071
99.36000 0.461
99.38000 12.062
99.40000 3.467
99.42000 0.841
99.44000 4.474
99.46000 -2.167
99.48000 0.320
99.50000 6.013
99.52000 8.699
99.54000 9.068
99.56000 9.156
99.58000 10.791
99.60000 6.437
99.62000 11.839
99.64000 22.807
99.66000 22.013
99.68000 8.438
99.70000 1.767
99.72000 -2.146
99.74000 2.858
99.76000 12.653
99.78000 24.135
99.80000 14.408
99.82000 14.478
99.84000 20.023
99.86000 13.699
99.88000 5.670
99.90000 -7.501
99.92000 4.226
99.94000 9.332
99.96000 11.288
99.98000 0.000
