'Id: "0011387" Comment: "Integrate frame 0011387_Au-Ir-Rh_Rh-rich_XRD-Mapping-160-0000.gfrmwith cursor Wedge Cursor #5" Operator: "B?rgel" Anode: "Cu" Wavelength: "1.5406" Scantype: "2Theta (TwoTheta)" TimePerStep: "1" X: "-31.5" Y: "0" Z: "5.95" 
10.00000 0.000
10.02000 6.879
10.04000 -4.633
10.06000 -4.598
10.08000 -3.134
10.10000 -3.810
10.12000 -1.106
10.14000 7.948
10.16000 -0.140
10.18000 -4.414
10.20000 15.892
10.22000 21.654
10.24000 15.005
10.26000 14.553
10.28000 14.560
10.30000 20.113
10.32000 5.021
10.34000 2.530
10.36000 18.556
10.38000 19.666
10.40000 3.971
10.42000 17.187
10.44000 16.902
10.46000 17.409
10.48000 12.343
10.50000 5.900
10.52000 20.818
10.54000 14.978
10.56000 -7.447
10.58000 6.722
10.60000 15.638
10.62000 13.441
10.64000 7.305
10.66000 -1.616
10.68000 15.588
10.70000 15.589
10.72000 7.815
10.74000 10.765
10.76000 17.554
10.78000 9.784
10.80000 17.178
10.82000 17.439
10.84000 14.401
10.86000 10.219
10.88000 0.716
10.90000 11.005
10.92000 16.549
10.94000 18.342
10.96000 21.795
10.98000 10.810
11.00000 5.188
11.02000 4.279
11.04000 10.559
11.06000 16.728
11.08000 14.758
11.10000 16.097
11.12000 8.403
11.14000 2.603
11.16000 15.983
11.18000 18.212
11.20000 16.581
11.22000 12.013
11.24000 21.826
11.26000 13.039
11.28000 8.647
11.30000 19.021
11.32000 10.148
11.34000 0.609
11.36000 17.420
11.38000 8.810
11.40000 1.588
11.42000 10.388
11.44000 2.919
11.46000 4.921
11.48000 -4.463
11.50000 4.199
11.52000 17.794
11.54000 17.337
11.56000 15.792
11.58000 21.723
11.60000 11.144
11.62000 10.790
11.64000 3.637
11.66000 -0.256
11.68000 -4.465
11.70000 -1.711
11.72000 13.691
11.74000 13.222
11.76000 0.233
11.78000 4.904
11.80000 14.909
11.82000 5.361
11.84000 1.877
11.86000 19.399
11.88000 1.978
11.90000 -3.709
11.92000 3.124
11.94000 10.180
11.96000 14.450
11.98000 7.796
12.00000 11.979
12.02000 13.454
12.04000 5.454
12.06000 11.377
12.08000 13.791
12.10000 8.106
12.12000 7.987
12.14000 11.134
12.16000 19.582
12.18000 14.355
12.20000 9.044
12.22000 1.760
12.24000 2.489
12.26000 2.907
12.28000 9.427
12.30000 -1.077
12.32000 2.044
12.34000 5.964
12.36000 4.916
12.38000 10.161
12.40000 18.487
12.42000 16.865
12.44000 21.905
12.46000 24.827
12.48000 13.922
12.50000 14.723
12.52000 10.878
12.54000 8.382
12.56000 16.203
12.58000 12.362
12.60000 4.624
12.62000 -1.654
12.64000 -4.096
12.66000 2.244
12.68000 12.569
12.70000 21.300
12.72000 16.614
12.74000 14.617
12.76000 10.875
12.78000 13.241
12.80000 9.912
12.82000 12.933
12.84000 26.952
12.86000 12.701
12.88000 3.077
12.90000 3.256
12.92000 2.210
12.94000 9.570
12.96000 8.944
12.98000 15.588
13.00000 17.557
13.02000 10.660
13.04000 13.006
13.06000 2.620
13.08000 -1.075
13.10000 -1.563
13.12000 13.502
13.14000 13.217
13.16000 4.878
13.18000 6.369
13.20000 8.337
13.22000 6.816
13.24000 2.189
13.26000 6.447
13.28000 14.788
13.30000 13.781
13.32000 9.928
13.34000 6.143
13.36000 4.768
13.38000 8.600
13.40000 12.862
13.42000 -0.218
13.44000 4.868
13.46000 2.863
13.48000 1.818
13.50000 1.726
13.52000 2.072
13.54000 -0.128
13.56000 4.135
13.58000 0.792
13.60000 4.967
13.62000 6.276
13.64000 7.311
13.66000 10.794
13.68000 9.599
13.70000 3.034
13.72000 6.871
13.74000 13.579
13.76000 8.754
13.78000 9.053
13.80000 12.379
13.82000 9.819
13.84000 -0.324
13.86000 -4.478
13.88000 6.079
13.90000 10.744
13.92000 14.729
13.94000 11.017
13.96000 11.070
13.98000 9.081
14.00000 3.127
14.02000 5.953
14.04000 8.298
14.06000 6.808
14.08000 13.965
14.10000 10.951
14.12000 11.749
14.14000 7.969
14.16000 4.405
14.18000 1.139
14.20000 8.482
14.22000 5.547
14.24000 2.639
14.26000 8.718
14.28000 7.452
14.30000 14.578
14.32000 15.847
14.34000 9.160
14.36000 9.383
14.38000 14.085
14.40000 6.494
14.42000 3.175
14.44000 -4.445
14.46000 3.382
14.48000 11.510
14.50000 3.278
14.52000 2.002
14.54000 1.402
14.56000 -4.442
14.58000 1.766
14.60000 4.336
14.62000 3.251
14.64000 1.027
14.66000 0.227
14.68000 7.501
14.70000 16.464
14.72000 2.650
14.74000 5.859
14.76000 0.127
14.78000 5.155
14.80000 9.911
14.82000 7.355
14.84000 10.300
14.86000 13.010
14.88000 9.769
14.90000 11.940
14.92000 16.680
14.94000 13.051
14.96000 5.298
14.98000 10.313
15.00000 13.531
15.02000 5.499
15.04000 1.999
15.06000 3.925
15.08000 6.745
15.10000 5.805
15.12000 5.020
15.14000 9.008
15.16000 9.503
15.18000 1.856
15.20000 10.159
15.22000 16.424
15.24000 6.092
15.26000 2.548
15.28000 5.077
15.30000 5.577
15.32000 1.648
15.34000 6.779
15.36000 1.784
15.38000 5.528
15.40000 9.186
15.42000 8.413
15.44000 8.078
15.46000 9.213
15.48000 11.183
15.50000 8.204
15.52000 1.933
15.54000 0.371
15.56000 6.598
15.58000 6.868
15.60000 1.460
15.62000 -0.714
15.64000 3.785
15.66000 4.502
15.68000 1.958
15.70000 4.756
15.72000 0.037
15.74000 9.611
15.76000 11.621
15.78000 6.557
15.80000 12.528
15.82000 5.820
15.84000 3.047
15.86000 9.658
15.88000 4.532
15.90000 3.437
15.92000 7.723
15.94000 -4.426
15.96000 -1.296
15.98000 -0.229
16.00000 3.034
16.02000 5.063
16.04000 13.623
16.06000 2.553
16.08000 0.397
16.10000 5.387
16.12000 9.428
16.14000 7.526
16.16000 2.351
16.18000 1.304
16.20000 7.740
16.22000 9.131
16.24000 9.793
16.26000 2.385
16.28000 2.569
16.30000 7.759
16.32000 4.124
16.34000 11.466
16.36000 6.241
16.38000 2.314
16.40000 1.864
16.42000 5.661
16.44000 -0.773
16.46000 2.399
16.48000 3.329
16.50000 8.504
16.52000 13.098
16.54000 17.498
16.56000 8.843
16.58000 8.741
16.60000 8.340
16.62000 0.368
16.64000 4.171
16.66000 7.521
16.68000 5.770
16.70000 9.555
16.72000 9.027
16.74000 7.080
16.76000 12.391
16.78000 13.602
16.80000 5.337
16.82000 1.784
16.84000 6.881
16.86000 9.023
16.88000 10.045
16.90000 5.206
16.92000 7.343
16.94000 4.090
16.96000 -0.638
16.98000 2.128
17.00000 0.714
17.02000 4.695
17.04000 9.533
17.06000 8.804
17.08000 3.265
17.10000 -1.235
17.12000 1.569
17.14000 8.676
17.16000 5.711
17.18000 -2.709
17.20000 4.279
17.22000 3.399
17.24000 0.103
17.26000 6.796
17.28000 10.930
17.30000 7.310
17.32000 -0.914
17.34000 4.875
17.36000 11.616
17.38000 5.500
17.40000 5.519
17.42000 11.770
17.44000 0.547
17.46000 -4.342
17.48000 5.884
17.50000 6.212
17.52000 13.794
17.54000 13.063
17.56000 8.567
17.58000 5.981
17.60000 11.288
17.62000 13.793
17.64000 11.734
17.66000 8.834
17.68000 7.267
17.70000 9.975
17.72000 8.539
17.74000 3.992
17.76000 3.912
17.78000 5.139
17.80000 10.135
17.82000 8.282
17.84000 0.749
17.86000 0.510
17.88000 3.250
17.90000 4.211
17.92000 -0.362
17.94000 -4.311
17.96000 3.957
17.98000 8.081
18.00000 4.543
18.02000 4.334
18.04000 7.582
18.06000 2.316
18.08000 2.347
18.10000 4.348
18.12000 8.773
18.14000 9.247
18.16000 -1.800
18.18000 2.857
18.20000 2.795
18.22000 5.741
18.24000 9.037
18.26000 6.240
18.28000 5.565
18.30000 2.840
18.32000 6.065
18.34000 6.798
18.36000 1.970
18.38000 -4.234
18.40000 -2.297
18.42000 1.118
18.44000 2.020
18.46000 1.125
18.48000 4.526
18.50000 2.877
18.52000 4.682
18.54000 6.568
18.56000 1.887
18.58000 9.734
18.60000 8.439
18.62000 4.720
18.64000 9.129
18.66000 7.469
18.68000 7.790
18.70000 7.323
18.72000 8.673
18.74000 7.872
18.76000 -4.264
18.78000 0.044
18.80000 8.019
18.82000 11.755
18.84000 8.617
18.86000 7.464
18.88000 -3.128
18.90000 -0.986
18.92000 7.344
18.94000 9.526
18.96000 9.604
18.98000 8.673
19.00000 11.606
19.02000 9.190
19.04000 7.675
19.06000 5.608
19.08000 6.702
19.10000 7.808
19.12000 8.179
19.14000 8.894
19.16000 9.077
19.18000 11.371
19.20000 10.121
19.22000 6.546
19.24000 3.947
19.26000 3.828
19.28000 -1.581
19.30000 0.817
19.32000 2.375
19.34000 4.552
19.36000 9.414
19.38000 6.645
19.40000 5.396
19.42000 8.713
19.44000 1.892
19.46000 1.731
19.48000 -0.727
19.50000 -3.169
19.52000 6.603
19.54000 14.707
19.56000 12.683
19.58000 14.958
19.60000 3.538
19.62000 2.968
19.64000 5.190
19.66000 0.423
19.68000 -1.036
19.70000 3.011
19.72000 7.736
19.74000 2.933
19.76000 -0.564
19.78000 3.603
19.80000 3.318
19.82000 5.895
19.84000 6.109
19.86000 10.265
19.88000 12.208
19.90000 6.484
19.92000 5.134
19.94000 8.087
19.96000 3.600
19.98000 1.416
20.00000 0.262
20.02000 6.637
20.04000 4.054
20.06000 5.204
20.08000 3.742
20.10000 6.145
20.12000 6.215
20.14000 7.832
20.16000 4.916
20.18000 0.863
20.20000 2.000
20.22000 5.978
20.24000 -1.845
20.26000 -4.160
20.28000 -0.929
20.30000 -1.190
20.32000 5.177
20.34000 13.403
20.36000 8.194
20.38000 8.273
20.40000 8.110
20.42000 6.254
20.44000 5.877
20.46000 12.986
20.48000 8.514
20.50000 4.929
20.52000 4.455
20.54000 2.590
20.56000 7.301
20.58000 8.800
20.60000 7.726
20.62000 3.780
20.64000 1.569
20.66000 4.132
20.68000 7.792
20.70000 17.887
20.72000 13.943
20.74000 7.660
20.76000 6.986
20.78000 10.427
20.80000 1.648
20.82000 -1.652
20.84000 3.408
20.86000 3.715
20.88000 0.706
20.90000 -4.150
20.92000 0.926
20.94000 3.729
20.96000 6.147
20.98000 10.601
21.00000 5.537
21.02000 8.706
21.04000 9.556
21.06000 8.458
21.08000 8.520
21.10000 7.728
21.12000 6.681
21.14000 7.811
21.16000 5.092
21.18000 8.129
21.20000 10.390
21.22000 11.075
21.24000 3.827
21.26000 5.927
21.28000 -0.573
21.30000 0.371
21.32000 6.653
21.34000 6.449
21.36000 6.158
21.38000 2.308
21.40000 -0.562
21.42000 2.577
21.44000 4.450
21.46000 2.861
21.48000 -2.567
21.50000 0.403
21.52000 3.012
21.54000 3.882
21.56000 4.305
21.58000 3.768
21.60000 5.039
21.62000 3.095
21.64000 0.756
21.66000 1.653
21.68000 7.068
21.70000 7.890
21.72000 6.441
21.74000 0.043
21.76000 -2.558
21.78000 2.645
21.80000 2.990
21.82000 6.475
21.84000 8.341
21.86000 4.061
21.88000 -1.392
21.90000 -4.092
21.92000 2.077
21.94000 5.414
21.96000 3.284
21.98000 7.752
22.00000 12.581
22.02000 8.599
22.04000 6.042
22.06000 5.845
22.08000 0.673
22.10000 4.824
22.12000 5.853
22.14000 4.267
22.16000 3.671
22.18000 6.015
22.20000 0.432
22.22000 -1.939
22.24000 1.504
22.26000 3.108
22.28000 5.959
22.30000 3.458
22.32000 3.033
22.34000 -0.553
22.36000 -1.431
22.38000 1.508
22.40000 4.031
22.42000 8.067
22.44000 4.831
22.46000 -2.066
22.48000 -0.841
22.50000 6.468
22.52000 8.733
22.54000 0.689
22.56000 4.790
22.58000 2.194
22.60000 3.856
22.62000 0.019
22.64000 2.014
22.66000 5.705
22.68000 7.999
22.70000 8.696
22.72000 5.083
22.74000 1.581
22.76000 7.809
22.78000 9.223
22.80000 7.140
22.82000 5.953
22.84000 5.633
22.86000 -0.089
22.88000 1.452
22.90000 3.210
22.92000 4.576
22.94000 6.227
22.96000 3.203
22.98000 2.191
23.00000 3.953
23.02000 6.745
23.04000 5.724
23.06000 0.073
23.08000 4.179
23.10000 2.400
23.12000 2.247
23.14000 7.017
23.16000 4.541
23.18000 0.977
23.20000 2.556
23.22000 1.909
23.24000 0.456
23.26000 6.695
23.28000 4.686
23.30000 2.895
23.32000 1.923
23.34000 10.641
23.36000 5.913
23.38000 1.615
23.40000 1.200
23.42000 6.098
23.44000 2.779
23.46000 6.204
23.48000 13.140
23.50000 12.115
23.52000 1.915
23.54000 0.900
23.56000 -0.143
23.58000 1.003
23.60000 5.373
23.62000 2.203
23.64000 1.689
23.66000 2.382
23.68000 3.570
23.70000 0.532
23.72000 4.850
23.74000 9.988
23.76000 4.515
23.78000 1.208
23.80000 5.465
23.82000 5.596
23.84000 3.573
23.86000 5.088
23.88000 7.540
23.90000 8.706
23.92000 12.643
23.94000 11.960
23.96000 2.053
23.98000 0.059
24.00000 0.577
24.02000 3.522
24.04000 7.194
24.06000 6.513
24.08000 9.937
24.10000 9.971
24.12000 -0.197
24.14000 -3.939
24.16000 6.083
24.18000 5.646
24.20000 2.898
24.22000 2.165
24.24000 2.173
24.26000 5.246
24.28000 3.744
24.30000 5.967
24.32000 1.717
24.34000 4.239
24.36000 3.194
24.38000 2.795
24.40000 5.071
24.42000 6.294
24.44000 9.328
24.46000 1.928
24.48000 5.917
24.50000 6.790
24.52000 2.128
24.54000 2.260
24.56000 0.778
24.58000 0.544
24.60000 5.601
24.62000 8.971
24.64000 4.599
24.66000 -0.132
24.68000 2.453
24.70000 3.442
24.72000 6.458
24.74000 2.824
24.76000 8.255
24.78000 11.566
24.80000 5.745
24.82000 4.416
24.84000 4.666
24.86000 2.797
24.88000 2.212
24.90000 8.327
24.92000 6.809
24.94000 5.541
24.96000 6.515
24.98000 5.363
25.00000 8.585
25.02000 7.484
25.04000 4.044
25.06000 5.747
25.08000 -2.414
25.10000 4.323
25.12000 6.726
25.14000 -1.792
25.16000 -0.294
25.18000 3.053
25.20000 5.443
25.22000 -0.594
25.24000 1.202
25.26000 1.489
25.28000 4.420
25.30000 3.674
25.32000 1.245
25.34000 -3.181
25.36000 1.993
25.38000 0.677
25.40000 -1.934
25.42000 -1.800
25.44000 -3.907
25.46000 -1.053
25.48000 -3.253
25.50000 0.472
25.52000 5.768
25.54000 3.316
25.56000 4.204
25.58000 5.825
25.60000 6.688
25.62000 1.147
25.64000 3.801
25.66000 0.435
25.68000 2.249
25.70000 8.473
25.72000 3.866
25.74000 9.687
25.76000 6.962
25.78000 5.052
25.80000 4.684
25.82000 4.048
25.84000 5.477
25.86000 5.293
25.88000 1.847
25.90000 4.535
25.92000 4.076
25.94000 4.238
25.96000 5.880
25.98000 -0.978
26.00000 1.420
26.02000 7.729
26.04000 4.668
26.06000 8.561
26.08000 3.945
26.10000 5.789
26.12000 6.881
26.14000 4.030
26.16000 2.593
26.18000 1.816
26.20000 0.833
26.22000 1.898
26.24000 1.349
26.26000 3.432
26.28000 8.441
26.30000 5.282
26.32000 4.374
26.34000 6.786
26.36000 8.276
26.38000 9.712
26.40000 6.314
26.42000 2.885
26.44000 7.110
26.46000 6.257
26.48000 6.890
26.50000 3.580
26.52000 1.939
26.54000 4.392
26.56000 3.328
26.58000 2.862
26.60000 3.990
26.62000 3.255
26.64000 4.717
26.66000 3.685
26.68000 -3.815
26.70000 -2.975
26.72000 4.408
26.74000 7.174
26.76000 6.567
26.78000 11.039
26.80000 2.668
26.82000 -3.805
26.84000 1.955
26.86000 4.930
26.88000 7.951
26.90000 5.865
26.92000 -1.215
26.94000 1.323
26.96000 8.015
26.98000 6.895
27.00000 9.042
27.02000 9.405
27.04000 9.609
27.06000 4.906
27.08000 6.876
27.10000 6.038
27.12000 5.397
27.14000 5.251
27.16000 4.250
27.18000 2.771
27.20000 5.852
27.22000 9.788
27.24000 7.809
27.26000 9.481
27.28000 8.516
27.30000 9.798
27.32000 7.424
27.34000 10.444
27.36000 10.128
27.38000 5.152
27.40000 1.480
27.42000 -3.754
27.44000 -3.764
27.46000 0.711
27.48000 2.457
27.50000 5.662
27.52000 6.896
27.54000 10.417
27.56000 7.621
27.58000 3.865
27.60000 3.654
27.62000 3.200
27.64000 3.882
27.66000 5.315
27.68000 6.774
27.70000 11.157
27.72000 10.031
27.74000 0.975
27.76000 -2.572
27.78000 5.626
27.80000 5.959
27.82000 2.669
27.84000 3.366
27.86000 7.114
27.88000 7.771
27.90000 3.764
27.92000 4.567
27.94000 4.188
27.96000 -0.071
27.98000 -0.327
28.00000 4.054
28.02000 2.693
28.04000 0.899
28.06000 -0.195
28.08000 9.686
28.10000 8.851
28.12000 3.849
28.14000 2.704
28.16000 0.188
28.18000 3.839
28.20000 4.961
28.22000 1.714
28.24000 -0.743
28.26000 1.211
28.28000 4.732
28.30000 4.821
28.32000 1.349
28.34000 -1.508
28.36000 -0.259
28.38000 -0.993
28.40000 1.388
28.42000 1.716
28.44000 3.428
28.46000 5.948
28.48000 -0.742
28.50000 -2.436
28.52000 1.224
28.54000 2.657
28.56000 8.960
28.58000 8.541
28.60000 2.799
28.62000 2.668
28.64000 6.530
28.66000 2.381
28.68000 3.325
28.70000 1.998
28.72000 4.281
28.74000 6.506
28.76000 7.706
28.78000 3.831
28.80000 -1.346
28.82000 -1.454
28.84000 6.771
28.86000 6.291
28.88000 6.218
28.90000 -0.877
28.92000 0.397
28.94000 -1.542
28.96000 -0.718
28.98000 0.448
29.00000 -0.973
29.02000 -1.608
29.04000 -1.388
29.06000 -1.531
29.08000 3.782
29.10000 8.543
29.12000 8.299
29.14000 6.864
29.16000 4.235
29.18000 3.621
29.20000 3.746
29.22000 6.027
29.24000 5.722
29.26000 5.625
29.28000 6.374
29.30000 -1.301
29.32000 -0.599
29.34000 -0.408
29.36000 3.898
29.38000 6.507
29.40000 0.251
29.42000 -0.296
29.44000 -2.723
29.46000 0.937
29.48000 3.676
29.50000 4.008
29.52000 -3.676
29.54000 2.092
29.56000 7.572
29.58000 2.774
29.60000 0.164
29.62000 -1.209
29.64000 4.023
29.66000 7.643
29.68000 4.032
29.70000 6.498
29.72000 4.962
29.74000 -0.253
29.76000 -0.699
29.78000 4.040
29.80000 6.534
29.82000 6.630
29.84000 4.269
29.86000 2.224
29.88000 1.649
29.90000 -0.101
29.92000 2.244
29.94000 7.451
29.96000 2.574
29.98000 2.623
30.00000 5.969
30.02000 3.943
30.04000 2.311
30.06000 3.886
30.08000 5.357
30.10000 7.248
30.12000 5.294
30.14000 -1.464
30.16000 -0.166
30.18000 -1.733
30.20000 -0.193
30.22000 3.741
30.24000 5.073
30.26000 2.466
30.28000 2.404
30.30000 0.068
30.32000 2.939
30.34000 1.751
30.36000 0.906
30.38000 4.206
30.40000 5.584
30.42000 4.960
30.44000 5.867
30.46000 1.210
30.48000 -0.588
30.50000 1.151
30.52000 4.878
30.54000 1.611
30.56000 2.465
30.58000 4.670
30.60000 2.828
30.62000 2.838
30.64000 2.210
30.66000 0.894
30.68000 1.397
30.70000 6.811
30.72000 7.341
30.74000 2.586
30.76000 4.806
30.78000 0.642
30.80000 -3.617
30.82000 1.396
30.84000 1.017
30.86000 -1.441
30.88000 3.413
30.90000 4.156
30.92000 4.796
30.94000 5.122
30.96000 4.680
30.98000 3.696
31.00000 4.000
31.02000 0.576
31.04000 -0.639
31.06000 1.884
31.08000 2.375
31.10000 3.054
31.12000 4.233
31.14000 5.188
31.16000 1.016
31.18000 2.350
31.20000 2.824
31.22000 -0.662
31.24000 -0.101
31.26000 -1.789
31.28000 -1.189
31.30000 -0.324
31.32000 3.510
31.34000 7.396
31.36000 2.746
31.38000 0.770
31.40000 2.344
31.42000 0.901
31.44000 2.356
31.46000 1.773
31.48000 7.253
31.50000 5.843
31.52000 2.722
31.54000 3.850
31.56000 5.453
31.58000 1.504
31.60000 2.609
31.62000 -1.034
31.64000 3.029
31.66000 11.420
31.68000 5.347
31.70000 4.990
31.72000 3.312
31.74000 2.273
31.76000 2.612
31.78000 -2.084
31.80000 1.241
31.82000 5.681
31.84000 7.820
31.86000 8.311
31.88000 4.321
31.90000 8.953
31.92000 8.133
31.94000 4.710
31.96000 1.455
31.98000 3.264
32.00000 6.322
32.02000 2.673
32.04000 2.013
32.06000 0.075
32.08000 -2.374
32.10000 -3.561
32.12000 4.331
32.14000 6.248
32.16000 6.555
32.18000 6.630
32.20000 0.617
32.22000 4.169
32.24000 5.627
32.26000 4.696
32.28000 5.641
32.30000 1.844
32.32000 1.827
32.34000 4.045
32.36000 5.033
32.38000 6.184
32.40000 4.235
32.42000 2.601
32.44000 2.832
32.46000 7.661
32.48000 8.263
32.50000 3.650
32.52000 8.598
32.54000 8.224
32.56000 4.505
32.58000 7.050
32.60000 8.160
32.62000 7.907
32.64000 2.354
32.66000 7.086
32.68000 6.498
32.70000 8.951
32.72000 9.473
32.74000 -0.157
32.76000 -3.504
32.78000 3.013
32.80000 7.449
32.82000 5.573
32.84000 5.668
32.86000 7.085
32.88000 5.781
32.90000 5.632
32.92000 7.263
32.94000 9.314
32.96000 14.106
32.98000 8.209
33.00000 3.243
33.02000 2.182
33.04000 7.102
33.06000 9.365
33.08000 7.464
33.10000 3.705
33.12000 2.802
33.14000 4.411
33.16000 5.075
33.18000 5.216
33.20000 3.092
33.22000 8.288
33.24000 4.786
33.26000 0.628
33.28000 5.366
33.30000 6.858
33.32000 9.101
33.34000 6.046
33.36000 3.035
33.38000 2.219
33.40000 4.033
33.42000 3.665
33.44000 7.398
33.46000 5.960
33.48000 6.272
33.50000 4.989
33.52000 5.496
33.54000 5.552
33.56000 -1.843
33.58000 -0.029
33.60000 2.812
33.62000 -1.051
33.64000 -3.513
33.66000 -0.423
33.68000 -2.100
33.70000 2.098
33.72000 7.003
33.74000 5.007
33.76000 7.254
33.78000 8.810
33.80000 8.040
33.82000 9.392
33.84000 8.821
33.86000 3.080
33.88000 0.959
33.90000 5.397
33.92000 4.862
33.94000 -0.476
33.96000 1.521
33.98000 4.776
34.00000 5.763
34.02000 -3.522
34.04000 -0.426
34.06000 2.046
34.08000 9.190
34.10000 5.206
34.12000 3.880
34.14000 2.172
34.16000 5.119
34.18000 9.027
34.20000 9.315
34.22000 5.549
34.24000 3.035
34.26000 -0.851
34.28000 1.928
34.30000 0.567
34.32000 2.766
34.34000 7.231
34.36000 3.205
34.38000 -2.735
34.40000 0.181
34.42000 6.404
34.44000 0.587
34.46000 -0.237
34.48000 0.012
34.50000 1.395
34.52000 4.159
34.54000 3.684
34.56000 4.191
34.58000 4.024
34.60000 -0.793
34.62000 3.136
34.64000 4.495
34.66000 1.338
34.68000 -1.646
34.70000 -0.172
34.72000 -1.634
34.74000 -3.515
34.76000 -2.566
34.78000 1.856
34.80000 3.392
34.82000 1.320
34.84000 4.849
34.86000 2.904
34.88000 10.031
34.90000 8.670
34.92000 3.361
34.94000 2.067
34.96000 -1.617
34.98000 0.293
35.00000 -1.547
35.02000 1.512
35.04000 1.725
35.06000 0.627
35.08000 3.182
35.10000 4.557
35.12000 6.159
35.14000 3.013
35.16000 3.454
35.18000 -1.024
35.20000 -1.472
35.22000 -1.782
35.24000 1.859
35.26000 2.375
35.28000 -3.370
35.30000 -3.495
35.32000 -2.825
35.34000 -0.614
35.36000 -1.763
35.38000 -1.262
35.40000 -3.112
35.42000 -3.199
35.44000 0.640
35.46000 0.737
35.48000 1.579
35.50000 1.130
35.52000 -2.483
35.54000 -1.061
35.56000 1.287
35.58000 1.594
35.60000 6.074
35.62000 1.383
35.64000 3.284
35.66000 3.731
35.68000 0.446
35.70000 -2.446
35.72000 -1.826
35.74000 0.477
35.76000 -0.730
35.78000 3.527
35.80000 3.011
35.82000 -1.236
35.84000 -2.289
35.86000 2.622
35.88000 1.334
35.90000 0.520
35.92000 -2.924
35.94000 1.595
35.96000 3.196
35.98000 4.083
36.00000 -2.736
36.02000 -2.850
36.04000 -2.961
36.06000 2.420
36.08000 1.875
36.10000 3.341
36.12000 3.198
36.14000 1.209
36.16000 0.525
36.18000 -0.223
36.20000 -0.298
36.22000 -1.889
36.24000 -3.503
36.26000 -1.413
36.28000 3.606
36.30000 1.709
36.32000 3.654
36.34000 2.939
36.36000 -0.384
36.38000 0.122
36.40000 2.846
36.42000 3.380
36.44000 -0.266
36.46000 -3.024
36.48000 -1.032
36.50000 3.126
36.52000 4.065
36.54000 2.644
36.56000 2.872
36.58000 1.906
36.60000 2.666
36.62000 3.914
36.64000 4.953
36.66000 0.133
36.68000 -3.326
36.70000 1.902
36.72000 2.103
36.74000 4.002
36.76000 -0.782
36.78000 -2.166
36.80000 -2.027
36.82000 -0.669
36.84000 -3.532
36.86000 -2.226
36.88000 2.122
36.90000 2.002
36.92000 -0.850
36.94000 -2.629
36.96000 -1.528
36.98000 4.930
37.00000 -2.181
37.02000 3.325
37.04000 0.730
37.06000 -3.553
37.08000 -2.248
37.10000 3.234
37.12000 0.284
37.14000 -2.566
37.16000 -1.560
37.18000 -2.892
37.20000 0.842
37.22000 2.068
37.24000 -1.743
37.26000 0.300
37.28000 2.143
37.30000 0.138
37.32000 -0.270
37.34000 -0.087
37.36000 -0.853
37.38000 0.121
37.40000 2.316
37.42000 -0.800
37.44000 -2.208
37.46000 -2.831
37.48000 -3.082
37.50000 -2.310
37.52000 -0.521
37.54000 -2.673
37.56000 -0.881
37.58000 -2.331
37.60000 2.048
37.62000 6.498
37.64000 5.892
37.66000 0.508
37.68000 -1.717
37.70000 1.477
37.72000 -3.622
37.74000 1.216
37.76000 -0.593
37.78000 -1.619
37.80000 2.343
37.82000 6.024
37.84000 2.815
37.86000 0.806
37.88000 2.751
37.90000 9.171
37.92000 7.342
37.94000 4.536
37.96000 5.739
37.98000 4.444
38.00000 4.334
38.02000 6.719
38.04000 12.031
38.06000 9.449
38.08000 4.936
38.10000 6.449
38.12000 9.347
38.14000 8.171
38.16000 10.279
38.18000 6.153
38.20000 9.553
38.22000 11.384
38.24000 9.898
38.26000 14.606
38.28000 15.699
38.30000 19.040
38.32000 22.209
38.34000 20.545
38.36000 14.297
38.38000 15.393
38.40000 19.227
38.42000 19.401
38.44000 23.033
38.46000 27.023
38.48000 23.339
38.50000 20.674
38.52000 21.180
38.54000 24.326
38.56000 19.942
38.58000 21.059
38.60000 26.381
38.62000 26.948
38.64000 26.258
38.66000 24.719
38.68000 25.046
38.70000 25.379
38.72000 31.391
38.74000 23.878
38.76000 27.864
38.78000 30.427
38.80000 33.675
38.82000 30.991
38.84000 26.389
38.86000 25.349
38.88000 32.182
38.90000 37.350
38.92000 40.650
38.94000 37.967
38.96000 37.333
38.98000 34.392
39.00000 35.209
39.02000 40.853
39.04000 45.454
39.06000 49.794
39.08000 47.842
39.10000 52.492
39.12000 55.939
39.14000 59.769
39.16000 63.488
39.18000 58.127
39.20000 60.829
39.22000 63.664
39.24000 67.305
39.26000 66.515
39.28000 72.365
39.30000 76.684
39.32000 77.476
39.34000 84.674
39.36000 92.470
39.38000 96.515
39.40000 101.145
39.42000 104.814
39.44000 109.816
39.46000 112.500
39.48000 118.509
39.50000 121.816
39.52000 127.644
39.54000 142.266
39.56000 147.813
39.58000 155.819
39.60000 163.406
39.62000 168.435
39.64000 180.940
39.66000 189.474
39.68000 194.064
39.70000 212.269
39.72000 226.043
39.74000 234.932
39.76000 242.574
39.78000 267.597
39.80000 283.223
39.82000 302.923
39.84000 329.730
39.86000 346.248
39.88000 367.014
39.90000 401.399
39.92000 429.909
39.94000 449.661
39.96000 478.616
39.98000 499.800
40.00000 538.587
40.02000 572.041
40.04000 606.331
40.06000 642.192
40.08000 666.665
40.10000 708.100
40.12000 742.771
40.14000 766.730
40.16000 788.745
40.18000 831.444
40.20000 865.033
40.22000 890.780
40.24000 913.481
40.26000 936.540
40.28000 950.514
40.30000 957.180
40.32000 952.182
40.34000 967.727
40.36000 988.940
40.38000 986.539
40.40000 986.903
40.42000 982.762
40.44000 962.541
40.46000 948.144
40.48000 938.472
40.50000 917.831
40.52000 889.570
40.54000 870.170
40.56000 849.685
40.58000 827.814
40.60000 802.432
40.62000 767.780
40.64000 736.531
40.66000 713.540
40.68000 666.227
40.70000 644.776
40.72000 617.873
40.74000 578.525
40.76000 557.660
40.78000 536.695
40.80000 509.239
40.82000 482.132
40.84000 459.358
40.86000 435.667
40.88000 398.029
40.90000 371.701
40.92000 357.579
40.94000 344.418
40.96000 322.811
40.98000 311.158
41.00000 290.364
41.02000 265.297
41.04000 245.321
41.06000 234.680
41.08000 226.233
41.10000 216.711
41.12000 207.240
41.14000 193.902
41.16000 181.563
41.18000 169.662
41.20000 157.660
41.22000 154.763
41.24000 148.510
41.26000 142.348
41.28000 131.585
41.30000 126.699
41.32000 116.203
41.34000 114.393
41.36000 103.669
41.38000 99.763
41.40000 91.961
41.42000 88.284
41.44000 81.735
41.46000 75.818
41.48000 76.259
41.50000 73.187
41.52000 74.363
41.54000 67.666
41.56000 58.050
41.58000 58.641
41.60000 57.832
41.62000 54.044
41.64000 54.396
41.66000 55.699
41.68000 50.265
41.70000 44.718
41.72000 45.070
41.74000 43.093
41.76000 37.987
41.78000 37.883
41.80000 39.745
41.82000 34.106
41.84000 35.312
41.86000 38.719
41.88000 32.865
41.90000 31.456
41.92000 27.874
41.94000 29.823
41.96000 29.464
41.98000 26.692
42.00000 26.871
42.02000 26.983
42.04000 21.426
42.06000 15.342
42.08000 21.685
42.10000 22.994
42.12000 17.987
42.14000 16.836
42.16000 12.246
42.18000 12.874
42.20000 11.619
42.22000 10.635
42.24000 15.557
42.26000 17.364
42.28000 13.112
42.30000 10.240
42.32000 8.092
42.34000 11.245
42.36000 11.939
42.38000 11.077
42.40000 7.725
42.42000 9.977
42.44000 9.986
42.46000 11.256
42.48000 9.304
42.50000 5.944
42.52000 3.763
42.54000 5.860
42.56000 3.550
42.58000 3.711
42.60000 3.741
42.62000 3.363
42.64000 2.349
42.66000 1.358
42.68000 2.861
42.70000 4.025
42.72000 6.856
42.74000 4.877
42.76000 3.988
42.78000 5.824
42.80000 0.668
42.82000 0.527
42.84000 2.741
42.86000 2.371
42.88000 -0.957
42.90000 -2.244
42.92000 0.886
42.94000 0.185
42.96000 3.264
42.98000 6.206
43.00000 4.860
43.02000 3.501
43.04000 1.431
43.06000 3.685
43.08000 3.465
43.10000 4.302
43.12000 4.092
43.14000 2.154
43.16000 0.949
43.18000 -3.457
43.20000 -3.454
43.22000 1.212
43.24000 3.658
43.26000 0.248
43.28000 2.424
43.30000 1.336
43.32000 1.442
43.34000 1.148
43.36000 0.644
43.38000 0.680
43.40000 -0.506
43.42000 1.096
43.44000 0.917
43.46000 3.068
43.48000 0.655
43.50000 3.161
43.52000 4.391
43.54000 1.620
43.56000 -0.190
43.58000 0.434
43.60000 1.353
43.62000 2.211
43.64000 5.203
43.66000 1.375
43.68000 1.031
43.70000 -0.994
43.72000 -3.387
43.74000 -0.046
43.76000 -1.152
43.78000 -0.952
43.80000 3.612
43.82000 -0.278
43.84000 -1.316
43.86000 0.769
43.88000 -2.284
43.90000 -2.901
43.92000 -2.023
43.94000 -0.412
43.96000 -1.139
43.98000 2.470
44.00000 -0.761
44.02000 -1.005
44.04000 0.738
44.06000 2.525
44.08000 3.244
44.10000 -0.447
44.12000 0.512
44.14000 1.184
44.16000 -0.468
44.18000 2.274
44.20000 1.442
44.22000 -0.186
44.24000 1.180
44.26000 -1.618
44.28000 -1.228
44.30000 -2.295
44.32000 -1.568
44.34000 -0.537
44.36000 -1.066
44.38000 -0.369
44.40000 0.440
44.42000 2.303
44.44000 -0.393
44.46000 1.358
44.48000 -1.849
44.50000 -2.852
44.52000 -2.016
44.54000 1.351
44.56000 -0.515
44.58000 -3.337
44.60000 0.797
44.62000 0.569
44.64000 -2.801
44.66000 -1.982
44.68000 -0.520
44.70000 -3.312
44.72000 -3.116
44.74000 -1.334
44.76000 -2.668
44.78000 -1.448
44.80000 -0.022
44.82000 -0.693
44.84000 -0.823
44.86000 0.710
44.88000 0.525
44.90000 -1.349
44.92000 2.776
44.94000 3.621
44.96000 1.778
44.98000 0.128
45.00000 -0.205
45.02000 2.655
45.04000 2.179
45.06000 -0.206
45.08000 3.291
45.10000 2.814
45.12000 -0.242
45.14000 1.963
45.16000 0.525
45.18000 1.595
45.20000 0.711
45.22000 -0.878
45.24000 -1.472
45.26000 2.136
45.28000 6.705
45.30000 10.412
45.32000 4.062
45.34000 2.090
45.36000 -1.495
45.38000 3.250
45.40000 4.830
45.42000 8.928
45.44000 7.890
45.46000 8.295
45.48000 9.166
45.50000 6.770
45.52000 9.025
45.54000 12.049
45.56000 9.979
45.58000 7.697
45.60000 8.947
45.62000 13.211
45.64000 10.726
45.66000 14.302
45.68000 15.230
45.70000 15.559
45.72000 16.093
45.74000 16.532
45.76000 19.555
45.78000 14.453
45.80000 15.437
45.82000 18.075
45.84000 23.071
45.86000 21.467
45.88000 19.521
45.90000 22.888
45.92000 27.363
45.94000 25.832
45.96000 25.327
45.98000 25.934
46.00000 29.628
46.02000 31.233
46.04000 33.718
46.06000 33.356
46.08000 37.437
46.10000 42.671
46.12000 38.926
46.14000 35.309
46.16000 40.066
46.18000 45.883
46.20000 48.596
46.22000 43.536
46.24000 50.062
46.26000 56.424
46.28000 55.487
46.30000 55.030
46.32000 57.480
46.34000 62.087
46.36000 69.786
46.38000 69.583
46.40000 73.696
46.42000 81.838
46.44000 85.843
46.46000 88.479
46.48000 89.026
46.50000 93.843
46.52000 93.642
46.54000 96.895
46.56000 106.785
46.58000 108.754
46.60000 108.569
46.62000 119.206
46.64000 124.662
46.66000 123.237
46.68000 135.408
46.70000 136.063
46.72000 139.956
46.74000 142.257
46.76000 147.738
46.78000 150.248
46.80000 150.818
46.82000 161.038
46.84000 164.728
46.86000 165.582
46.88000 168.296
46.90000 173.021
46.92000 182.212
46.94000 178.253
46.96000 169.003
46.98000 175.699
47.00000 181.710
47.02000 178.489
47.04000 173.556
47.06000 162.851
47.08000 162.663
47.10000 168.486
47.12000 174.400
47.14000 166.739
47.16000 159.759
47.18000 154.219
47.20000 156.863
47.22000 152.259
47.24000 142.888
47.26000 136.923
47.28000 129.645
47.30000 123.958
47.32000 118.097
47.34000 111.888
47.36000 110.249
47.38000 113.648
47.40000 109.607
47.42000 100.180
47.44000 95.270
47.46000 91.603
47.48000 91.600
47.50000 90.267
47.52000 85.443
47.54000 76.808
47.56000 71.493
47.58000 71.799
47.60000 69.199
47.62000 56.258
47.64000 51.931
47.66000 54.741
47.68000 51.832
47.70000 49.725
47.72000 43.829
47.74000 42.678
47.76000 34.955
47.78000 29.362
47.80000 30.493
47.82000 26.577
47.84000 25.778
47.86000 25.799
47.88000 28.396
47.90000 21.661
47.92000 21.440
47.94000 16.232
47.96000 16.689
47.98000 17.058
48.00000 16.973
48.02000 16.402
48.04000 12.183
48.06000 13.671
48.08000 12.498
48.10000 13.873
48.12000 10.960
48.14000 8.755
48.16000 13.337
48.18000 8.773
48.20000 12.095
48.22000 10.581
48.24000 11.840
48.26000 13.794
48.28000 7.328
48.30000 2.970
48.32000 4.433
48.34000 2.925
48.36000 4.322
48.38000 2.011
48.40000 2.382
48.42000 0.960
48.44000 2.715
48.46000 6.806
48.48000 5.175
48.50000 2.542
48.52000 3.077
48.54000 2.001
48.56000 2.522
48.58000 -0.567
48.60000 -2.093
48.62000 -2.690
48.64000 0.172
48.66000 1.716
48.68000 3.249
48.70000 6.348
48.72000 5.802
48.74000 3.899
48.76000 1.695
48.78000 4.065
48.80000 2.911
48.82000 2.342
48.84000 -0.339
48.86000 1.798
48.88000 4.875
48.90000 3.233
48.92000 -1.531
48.94000 -2.740
48.96000 -0.903
48.98000 0.886
49.00000 -2.868
49.02000 1.045
49.04000 3.120
49.06000 3.389
49.08000 3.467
49.10000 3.288
49.12000 2.818
49.14000 -1.170
49.16000 -2.619
49.18000 -0.153
49.20000 -0.424
49.22000 0.829
49.24000 -0.154
49.26000 3.452
49.28000 3.972
49.30000 2.463
49.32000 -0.252
49.34000 -0.506
49.36000 1.838
49.38000 2.888
49.40000 2.688
49.42000 -0.697
49.44000 1.143
49.46000 4.312
49.48000 4.753
49.50000 3.314
49.52000 -1.520
49.54000 -0.293
49.56000 -2.767
49.58000 -2.389
49.60000 0.889
49.62000 4.021
49.64000 3.897
49.66000 1.247
49.68000 0.273
49.70000 2.168
49.72000 -2.755
49.74000 -0.864
49.76000 1.183
49.78000 -2.751
49.80000 0.466
49.82000 0.475
49.84000 -0.883
49.86000 -0.976
49.88000 2.710
49.90000 1.357
49.92000 1.527
49.94000 1.730
49.96000 2.728
49.98000 0.049
50.00000 -1.034
50.02000 1.112
50.04000 -2.092
50.06000 -0.273
50.08000 1.676
50.10000 2.275
50.12000 -2.010
50.14000 1.945
50.16000 -0.292
50.18000 -0.153
50.20000 0.314
50.22000 4.374
50.24000 4.979
50.26000 4.710
50.28000 -0.919
50.30000 0.450
50.32000 4.913
50.34000 2.549
50.36000 4.058
50.38000 3.311
50.40000 1.938
50.42000 1.248
50.44000 1.796
50.46000 1.854
50.48000 1.042
50.50000 4.612
50.52000 7.161
50.54000 3.200
50.56000 3.769
50.58000 6.033
50.60000 2.542
50.62000 5.415
50.64000 2.782
50.66000 -2.657
50.68000 1.693
50.70000 3.076
50.72000 7.075
50.74000 6.069
50.76000 -1.199
50.78000 -2.650
50.80000 2.091
50.82000 1.171
50.84000 0.928
50.86000 2.234
50.88000 4.413
50.90000 5.755
50.92000 1.278
50.94000 3.904
50.96000 7.230
50.98000 5.910
51.00000 5.667
51.02000 2.239
51.04000 1.246
51.06000 1.622
51.08000 -0.387
51.10000 -2.642
51.12000 0.186
51.14000 1.338
51.16000 1.711
51.18000 3.543
51.20000 3.589
51.22000 5.888
51.24000 4.751
51.26000 0.923
51.28000 -2.389
51.30000 0.627
51.32000 1.045
51.34000 4.933
51.36000 4.014
51.38000 -0.886
51.40000 -2.209
51.42000 -1.686
51.44000 2.694
51.46000 1.850
51.48000 2.444
51.50000 2.171
51.52000 -0.483
51.54000 0.353
51.56000 0.359
51.58000 3.019
51.60000 0.173
51.62000 4.136
51.64000 1.578
51.66000 1.066
51.68000 4.331
51.70000 3.698
51.72000 6.088
51.74000 2.572
51.76000 -0.969
51.78000 -0.785
51.80000 -1.448
51.82000 -0.248
51.84000 4.076
51.86000 6.963
51.88000 3.327
51.90000 -2.170
51.92000 -2.601
51.94000 -2.427
51.96000 0.745
51.98000 3.137
52.00000 1.592
52.02000 1.620
52.04000 0.772
52.06000 3.438
52.08000 1.617
52.10000 -0.780
52.12000 -1.529
52.14000 -1.671
52.16000 -2.602
52.18000 3.217
52.20000 6.283
52.22000 5.442
52.24000 1.588
52.26000 1.166
52.28000 2.901
52.30000 -2.604
52.32000 6.008
52.34000 7.336
52.36000 2.255
52.38000 0.861
52.40000 1.191
52.42000 6.655
52.44000 2.546
52.46000 -1.359
52.48000 -0.602
52.50000 -1.663
52.52000 -1.095
52.54000 0.337
52.56000 1.580
52.58000 2.712
52.60000 1.189
52.62000 4.882
52.64000 4.042
52.66000 2.490
52.68000 0.841
52.70000 -0.072
52.72000 -0.881
52.74000 -0.654
52.76000 -0.689
52.78000 0.371
52.80000 0.650
52.82000 2.373
52.84000 1.431
52.86000 1.473
52.88000 0.346
52.90000 -0.555
52.92000 0.150
52.94000 2.029
52.96000 5.975
52.98000 7.539
53.00000 4.283
53.02000 0.525
53.04000 0.498
53.06000 1.592
53.08000 5.353
53.10000 0.577
53.12000 -1.912
53.14000 -2.581
53.16000 -0.947
53.18000 -0.377
53.20000 3.266
53.22000 2.772
53.24000 -0.572
53.26000 -0.993
53.28000 0.697
53.30000 0.464
53.32000 0.853
53.34000 3.780
53.36000 4.367
53.38000 -0.531
53.40000 -0.505
53.42000 1.737
53.44000 5.311
53.46000 2.692
53.48000 -2.016
53.50000 0.131
53.52000 5.119
53.54000 4.975
53.56000 -1.510
53.58000 0.560
53.60000 -0.948
53.62000 1.912
53.64000 4.506
53.66000 2.264
53.68000 -0.828
53.70000 -0.298
53.72000 -1.330
53.74000 -0.385
53.76000 1.318
53.78000 -0.514
53.80000 0.435
53.82000 1.453
53.84000 4.585
53.86000 6.609
53.88000 -0.289
53.90000 -0.158
53.92000 5.265
53.94000 0.129
53.96000 -2.544
53.98000 0.867
54.00000 -1.247
54.02000 1.843
54.04000 1.054
54.06000 0.825
54.08000 3.789
54.10000 5.409
54.12000 8.522
54.14000 6.498
54.16000 5.783
54.18000 4.076
54.20000 2.609
54.22000 3.913
54.24000 2.862
54.26000 0.895
54.28000 4.203
54.30000 4.706
54.32000 -0.253
54.34000 0.106
54.36000 2.393
54.38000 2.141
54.40000 0.170
54.42000 1.678
54.44000 1.198
54.46000 4.234
54.48000 3.294
54.50000 -0.017
54.52000 1.452
54.54000 0.840
54.56000 4.989
54.58000 5.853
54.60000 3.273
54.62000 3.949
54.64000 2.954
54.66000 -0.019
54.68000 0.558
54.70000 2.260
54.72000 1.755
54.74000 0.597
54.76000 3.455
54.78000 5.558
54.80000 6.280
54.82000 6.810
54.84000 1.940
54.86000 -0.329
54.88000 0.956
54.90000 0.540
54.92000 0.712
54.94000 -1.863
54.96000 2.568
54.98000 9.431
55.00000 6.518
55.02000 4.877
55.04000 4.212
55.06000 -0.319
55.08000 -2.462
55.10000 0.709
55.12000 0.292
55.14000 5.001
55.16000 5.561
55.18000 4.615
55.20000 4.917
55.22000 3.712
55.24000 3.076
55.26000 4.243
55.28000 4.483
55.30000 4.315
55.32000 3.288
55.34000 6.026
55.36000 6.753
55.38000 4.955
55.40000 7.527
55.42000 6.980
55.44000 0.968
55.46000 2.372
55.48000 3.814
55.50000 6.117
55.52000 1.935
55.54000 4.290
55.56000 6.027
55.58000 3.425
55.60000 -0.806
55.62000 -0.101
55.64000 1.520
55.66000 -0.430
55.68000 3.360
55.70000 2.841
55.72000 3.885
55.74000 0.376
55.76000 -0.372
55.78000 0.311
55.80000 2.607
55.82000 0.323
55.84000 2.560
55.86000 3.637
55.88000 0.469
55.90000 0.197
55.92000 3.604
55.94000 4.344
55.96000 1.026
55.98000 1.683
56.00000 4.319
56.02000 2.886
56.04000 -1.837
56.06000 0.650
56.08000 4.053
56.10000 1.981
56.12000 1.715
56.14000 0.278
56.16000 5.199
56.18000 2.826
56.20000 1.658
56.22000 -2.492
56.24000 -0.359
56.26000 1.416
56.28000 6.291
56.30000 4.277
56.32000 2.587
56.34000 2.434
56.36000 0.334
56.38000 4.043
56.40000 4.473
56.42000 2.708
56.44000 1.485
56.46000 1.457
56.48000 -1.114
56.50000 -1.158
56.52000 -1.472
56.54000 -2.452
56.56000 2.552
56.58000 2.945
56.60000 3.903
56.62000 1.369
56.64000 -0.633
56.66000 0.690
56.68000 -0.363
56.70000 -1.375
56.72000 -1.171
56.74000 -2.477
56.76000 0.097
56.78000 0.579
56.80000 0.012
56.82000 -0.955
56.84000 1.849
56.86000 -1.897
56.88000 -2.220
56.90000 0.904
56.92000 -0.614
56.94000 -0.434
56.96000 3.077
56.98000 3.054
57.00000 3.318
57.02000 1.131
57.04000 -1.319
57.06000 4.160
57.08000 3.650
57.10000 1.317
57.12000 -1.595
57.14000 -1.472
57.16000 5.909
57.18000 7.497
57.20000 3.505
57.22000 1.887
57.24000 3.041
57.26000 1.046
57.28000 3.296
57.30000 2.250
57.32000 -0.674
57.34000 -1.237
57.36000 1.285
57.38000 0.772
57.40000 -0.409
57.42000 4.717
57.44000 6.933
57.46000 3.020
57.48000 0.664
57.50000 2.131
57.52000 2.620
57.54000 3.872
57.56000 0.718
57.58000 0.578
57.60000 -2.454
57.62000 0.213
57.64000 1.055
57.66000 3.088
57.68000 4.104
57.70000 2.711
57.72000 4.035
57.74000 2.288
57.76000 0.708
57.78000 0.844
57.80000 1.156
57.82000 4.022
57.84000 5.176
57.86000 1.497
57.88000 -1.320
57.90000 1.943
57.92000 1.127
57.94000 0.405
57.96000 2.514
57.98000 2.773
58.00000 -1.118
58.02000 -1.069
58.04000 1.480
58.06000 -2.430
58.08000 0.965
58.10000 3.752
58.12000 2.252
58.14000 1.382
58.16000 5.034
58.18000 2.586
58.20000 0.337
58.22000 -0.753
58.24000 -0.352
58.26000 0.137
58.28000 0.593
58.30000 -0.587
58.32000 2.048
58.34000 0.551
58.36000 2.303
58.38000 3.902
58.40000 4.078
58.42000 0.107
58.44000 2.782
58.46000 3.322
58.48000 4.081
58.50000 1.118
58.52000 -2.420
58.54000 0.049
58.56000 1.307
58.58000 1.296
58.60000 1.644
58.62000 2.883
58.64000 3.587
58.66000 4.741
58.68000 -0.857
58.70000 1.195
58.72000 -0.876
58.74000 -0.482
58.76000 -1.485
58.78000 0.928
58.80000 3.228
58.82000 4.123
58.84000 3.790
58.86000 4.191
58.88000 3.908
58.90000 4.917
58.92000 1.047
58.94000 -0.335
58.96000 1.095
58.98000 0.180
59.00000 2.040
59.02000 3.387
59.04000 1.295
59.06000 -0.788
59.08000 -1.900
59.10000 -0.143
59.12000 -0.420
59.14000 -2.404
59.16000 -0.782
59.18000 0.468
59.20000 2.202
59.22000 -0.480
59.24000 -0.703
59.26000 5.748
59.28000 5.142
59.30000 0.974
59.32000 2.604
59.34000 2.207
59.36000 5.233
59.38000 3.000
59.40000 2.965
59.42000 2.739
59.44000 -1.387
59.46000 0.823
59.48000 2.931
59.50000 2.542
59.52000 1.375
59.54000 -0.322
59.56000 -0.385
59.58000 2.587
59.60000 1.313
59.62000 0.610
59.64000 0.240
59.66000 0.307
59.68000 1.327
59.70000 0.932
59.72000 2.860
59.74000 2.218
59.76000 0.402
59.78000 1.018
59.80000 2.901
59.82000 2.579
59.84000 0.519
59.86000 -2.367
59.88000 -0.319
59.90000 0.752
59.92000 2.657
59.94000 1.604
59.96000 0.398
59.98000 -0.454
60.00000 3.014
60.02000 3.684
60.04000 4.001
60.06000 1.997
60.08000 -1.285
60.10000 1.211
60.12000 0.468
60.14000 2.366
60.16000 1.218
60.18000 1.897
60.20000 0.871
60.22000 0.353
60.24000 1.901
60.26000 5.910
60.28000 4.288
60.30000 1.251
60.32000 -0.842
60.34000 -2.361
60.36000 0.508
60.38000 2.610
60.40000 0.367
60.42000 5.137
60.44000 5.972
60.46000 4.229
60.48000 -1.681
60.50000 -1.748
60.52000 0.364
60.54000 -1.570
60.56000 0.535
60.58000 0.388
60.60000 3.968
60.62000 3.133
60.64000 1.203
60.66000 -0.014
60.68000 -0.735
60.70000 1.435
60.72000 3.538
60.74000 -0.477
60.76000 0.409
60.78000 1.071
60.80000 2.420
60.82000 0.839
60.84000 3.209
60.86000 4.512
60.88000 4.916
60.90000 4.923
60.92000 2.740
60.94000 1.594
60.96000 0.787
60.98000 -0.722
61.00000 1.693
61.02000 4.110
61.04000 1.853
61.06000 -0.010
61.08000 -0.706
61.10000 1.444
61.12000 -0.030
61.14000 -1.307
61.16000 0.200
61.18000 3.170
61.20000 3.615
61.22000 5.493
61.24000 0.191
61.26000 1.267
61.28000 2.272
61.30000 2.464
61.32000 3.589
61.34000 -0.140
61.36000 1.934
61.38000 1.495
61.40000 0.093
61.42000 3.232
61.44000 0.753
61.46000 -2.315
61.48000 1.273
61.50000 -0.314
61.52000 2.136
61.54000 2.525
61.56000 0.764
61.58000 -0.378
61.60000 0.969
61.62000 4.219
61.64000 3.313
61.66000 2.196
61.68000 2.853
61.70000 0.280
61.72000 0.494
61.74000 4.270
61.76000 1.325
61.78000 2.425
61.80000 1.640
61.82000 -1.640
61.84000 -2.331
61.86000 1.343
61.88000 5.025
61.90000 4.214
61.92000 0.684
61.94000 -0.049
61.96000 -0.342
61.98000 0.171
62.00000 -1.379
62.02000 -1.186
62.04000 1.396
62.06000 4.713
62.08000 3.485
62.10000 4.682
62.12000 0.864
62.14000 1.048
62.16000 0.435
62.18000 -1.424
62.20000 0.887
62.22000 2.621
62.24000 3.161
62.26000 2.614
62.28000 2.599
62.30000 2.363
62.32000 5.861
62.34000 5.447
62.36000 4.301
62.38000 -0.456
62.40000 -1.635
62.42000 -0.890
62.44000 -0.094
62.46000 0.750
62.48000 -0.141
62.50000 0.679
62.52000 0.768
62.54000 1.962
62.56000 2.657
62.58000 -0.593
62.60000 1.267
62.62000 4.253
62.64000 5.302
62.66000 1.010
62.68000 0.970
62.70000 0.161
62.72000 1.246
62.74000 -0.043
62.76000 -1.403
62.78000 -0.653
62.80000 1.981
62.82000 5.947
62.84000 3.492
62.86000 2.135
62.88000 0.426
62.90000 0.657
62.92000 -0.213
62.94000 0.022
62.96000 1.762
62.98000 2.088
63.00000 2.679
63.02000 3.273
63.04000 0.447
63.06000 0.347
63.08000 2.802
63.10000 0.042
63.12000 -2.296
63.14000 2.062
63.16000 3.444
63.18000 0.268
63.20000 1.162
63.22000 3.577
63.24000 -0.527
63.26000 0.269
63.28000 -0.766
63.30000 -1.007
63.32000 -1.398
63.34000 0.419
63.36000 1.161
63.38000 2.798
63.40000 3.236
63.42000 2.725
63.44000 2.066
63.46000 3.404
63.48000 4.251
63.50000 3.817
63.52000 3.824
63.54000 3.893
63.56000 2.605
63.58000 0.383
63.60000 -0.756
63.62000 0.980
63.64000 3.074
63.66000 2.445
63.68000 0.865
63.70000 -2.154
63.72000 2.491
63.74000 2.593
63.76000 1.023
63.78000 0.673
63.80000 2.051
63.82000 0.884
63.84000 2.938
63.86000 4.480
63.88000 -2.040
63.90000 -2.293
63.92000 -0.106
63.94000 0.774
63.96000 2.734
63.98000 4.973
64.00000 2.111
64.02000 -0.375
64.04000 1.269
64.06000 2.509
64.08000 3.564
64.10000 3.933
64.12000 3.865
64.14000 4.301
64.16000 2.427
64.18000 2.700
64.20000 2.818
64.22000 5.600
64.24000 1.376
64.26000 -0.424
64.28000 0.278
64.30000 -1.506
64.32000 -2.315
64.34000 -0.699
64.36000 0.051
64.38000 2.125
64.40000 0.703
64.42000 1.970
64.44000 0.169
64.46000 -0.004
64.48000 3.545
64.50000 3.426
64.52000 4.090
64.54000 1.270
64.56000 0.722
64.58000 0.845
64.60000 0.600
64.62000 0.751
64.64000 -0.530
64.66000 1.674
64.68000 3.194
64.70000 2.594
64.72000 -1.288
64.74000 -1.863
64.76000 1.202
64.78000 1.383
64.80000 1.214
64.82000 1.976
64.84000 2.207
64.86000 4.301
64.88000 1.974
64.90000 0.501
64.92000 -1.211
64.94000 -1.066
64.96000 1.195
64.98000 2.840
65.00000 3.791
65.02000 4.234
65.04000 0.094
65.06000 -1.561
65.08000 -1.390
65.10000 -0.506
65.12000 0.901
65.14000 -0.287
65.16000 -2.323
65.18000 -2.155
65.20000 -1.082
65.22000 0.660
65.24000 -1.036
65.26000 -1.385
65.28000 -0.510
65.30000 -0.381
65.32000 1.050
65.34000 4.496
65.36000 0.755
65.38000 1.060
65.40000 1.157
65.42000 1.649
65.44000 0.740
65.46000 1.320
65.48000 1.370
65.50000 -2.315
65.52000 -0.479
65.54000 1.449
65.56000 1.185
65.58000 -0.632
65.60000 -1.164
65.62000 0.368
65.64000 1.133
65.66000 4.452
65.68000 4.853
65.70000 2.018
65.72000 -1.160
65.74000 2.754
65.76000 -0.799
65.78000 -0.337
65.80000 0.391
65.82000 -0.145
65.84000 0.285
65.86000 2.424
65.88000 0.503
65.90000 -0.887
65.92000 -1.462
65.94000 0.268
65.96000 0.350
65.98000 2.165
66.00000 -0.326
66.02000 -0.015
66.04000 2.833
66.06000 1.346
66.08000 0.537
66.10000 1.580
66.12000 1.820
66.14000 0.288
66.16000 -2.339
66.18000 -1.316
66.20000 0.482
66.22000 0.287
66.24000 -1.213
66.26000 -1.142
66.28000 2.208
66.30000 0.015
66.32000 -1.135
66.34000 0.569
66.36000 -0.503
66.38000 -1.490
66.40000 1.857
66.42000 4.183
66.44000 4.764
66.46000 3.162
66.48000 0.287
66.50000 -0.280
66.52000 -1.295
66.54000 -0.386
66.56000 1.073
66.58000 2.264
66.60000 1.087
66.62000 0.711
66.64000 2.004
66.66000 2.481
66.68000 0.178
66.70000 -2.045
66.72000 -0.744
66.74000 -2.356
66.76000 1.275
66.78000 1.636
66.80000 0.049
66.82000 0.711
66.84000 0.238
66.86000 -2.362
66.88000 -1.050
66.90000 3.267
66.92000 1.941
66.94000 -0.716
66.96000 1.692
66.98000 1.285
67.00000 2.036
67.02000 1.746
67.04000 2.440
67.06000 2.366
67.08000 -0.566
67.10000 -0.115
67.12000 1.162
67.14000 -0.653
67.16000 -0.782
67.18000 1.032
67.20000 -2.147
67.22000 2.064
67.24000 2.266
67.26000 1.407
67.28000 0.971
67.30000 2.267
67.32000 1.353
67.34000 2.859
67.36000 2.473
67.38000 3.002
67.40000 1.532
67.42000 1.830
67.44000 1.501
67.46000 2.642
67.48000 2.524
67.50000 2.481
67.52000 3.292
67.54000 2.649
67.56000 1.676
67.58000 1.013
67.60000 2.019
67.62000 5.982
67.64000 7.869
67.66000 5.007
67.68000 6.738
67.70000 3.630
67.72000 4.066
67.74000 5.353
67.76000 6.591
67.78000 9.464
67.80000 11.101
67.82000 9.811
67.84000 7.657
67.86000 6.855
67.88000 5.818
67.90000 13.083
67.92000 11.575
67.94000 10.725
67.96000 13.180
67.98000 13.911
68.00000 11.749
68.02000 12.823
68.04000 14.749
68.06000 15.864
68.08000 19.088
68.10000 20.809
68.12000 19.214
68.14000 13.729
68.16000 16.794
68.18000 22.274
68.20000 24.118
68.22000 24.698
68.24000 25.636
68.26000 23.853
68.28000 24.053
68.30000 28.359
68.32000 28.795
68.34000 29.628
68.36000 28.480
68.38000 29.925
68.40000 30.098
68.42000 31.772
68.44000 30.610
68.46000 31.866
68.48000 31.624
68.50000 31.547
68.52000 31.601
68.54000 32.353
68.56000 38.966
68.58000 40.263
68.60000 38.073
68.62000 34.014
68.64000 37.138
68.66000 38.044
68.68000 38.907
68.70000 37.063
68.72000 33.153
68.74000 37.594
68.76000 40.670
68.78000 39.407
68.80000 38.115
68.82000 36.871
68.84000 36.307
68.86000 30.880
68.88000 34.040
68.90000 36.017
68.92000 35.080
68.94000 31.279
68.96000 27.369
68.98000 24.468
69.00000 28.918
69.02000 26.212
69.04000 22.925
69.06000 25.421
69.08000 21.889
69.10000 24.275
69.12000 24.585
69.14000 22.769
69.16000 22.108
69.18000 22.300
69.20000 18.446
69.22000 14.256
69.24000 17.869
69.26000 17.499
69.28000 12.988
69.30000 13.382
69.32000 13.772
69.34000 13.778
69.36000 13.596
69.38000 11.435
69.40000 13.137
69.42000 13.364
69.44000 10.494
69.46000 9.668
69.48000 6.612
69.50000 6.419
69.52000 7.382
69.54000 2.912
69.56000 5.236
69.58000 7.341
69.60000 6.661
69.62000 6.411
69.64000 8.547
69.66000 9.587
69.68000 6.799
69.70000 4.706
69.72000 4.244
69.74000 3.678
69.76000 3.477
69.78000 2.720
69.80000 4.091
69.82000 3.272
69.84000 3.099
69.86000 3.504
69.88000 2.999
69.90000 2.931
69.92000 2.704
69.94000 4.544
69.96000 3.044
69.98000 0.415
70.00000 3.586
70.02000 3.998
70.04000 3.886
70.06000 2.336
70.08000 0.827
70.10000 4.784
70.12000 5.295
70.14000 2.696
70.16000 4.182
70.18000 0.873
70.20000 4.541
70.22000 4.155
70.24000 2.558
70.26000 1.869
70.28000 2.740
70.30000 2.408
70.32000 -2.265
70.34000 -1.586
70.36000 3.975
70.38000 3.661
70.40000 1.256
70.42000 1.960
70.44000 3.206
70.46000 2.705
70.48000 4.829
70.50000 4.651
70.52000 1.293
70.54000 2.530
70.56000 2.205
70.58000 2.373
70.60000 -0.836
70.62000 1.838
70.64000 -1.319
70.66000 -1.592
70.68000 0.641
70.70000 0.163
70.72000 2.947
70.74000 5.657
70.76000 6.925
70.78000 5.366
70.80000 4.137
70.82000 3.708
70.84000 6.246
70.86000 4.963
70.88000 3.493
70.90000 2.317
70.92000 4.661
70.94000 4.360
70.96000 1.887
70.98000 3.323
71.00000 4.236
71.02000 3.829
71.04000 4.479
71.06000 2.491
71.08000 3.904
71.10000 3.272
71.12000 1.845
71.14000 0.286
71.16000 -2.204
71.18000 1.267
71.20000 3.829
71.22000 3.773
71.24000 4.287
71.26000 5.088
71.28000 2.003
71.30000 -1.443
71.32000 0.020
71.34000 1.292
71.36000 2.056
71.38000 0.986
71.40000 0.356
71.42000 -0.020
71.44000 2.126
71.46000 0.824
71.48000 3.301
71.50000 4.258
71.52000 8.603
71.54000 9.314
71.56000 5.624
71.58000 4.309
71.60000 4.104
71.62000 -0.206
71.64000 -1.725
71.66000 -0.704
71.68000 3.710
71.70000 0.071
71.72000 1.707
71.74000 2.287
71.76000 5.694
71.78000 6.372
71.80000 -0.906
71.82000 0.369
71.84000 1.018
71.86000 0.514
71.88000 0.848
71.90000 1.984
71.92000 0.509
71.94000 0.656
71.96000 -2.183
71.98000 0.249
72.00000 4.673
72.02000 2.354
72.04000 3.164
72.06000 1.463
72.08000 4.850
72.10000 4.169
72.12000 3.837
72.14000 4.601
72.16000 0.818
72.18000 0.375
72.20000 3.978
72.22000 4.533
72.24000 4.196
72.26000 1.010
72.28000 0.630
72.30000 -0.217
72.32000 2.265
72.34000 -0.925
72.36000 -1.384
72.38000 -0.096
72.40000 1.439
72.42000 2.539
72.44000 1.755
72.46000 1.604
72.48000 3.621
72.50000 4.373
72.52000 1.600
72.54000 1.416
72.56000 1.330
72.58000 1.137
72.60000 -0.941
72.62000 0.556
72.64000 4.351
72.66000 2.397
72.68000 -0.909
72.70000 0.038
72.72000 -2.140
72.74000 0.968
72.76000 4.507
72.78000 1.154
72.80000 1.187
72.82000 3.251
72.84000 4.092
72.86000 4.413
72.88000 2.832
72.90000 6.192
72.92000 5.202
72.94000 3.954
72.96000 2.596
72.98000 3.704
73.00000 0.665
73.02000 -0.350
73.04000 2.023
73.06000 3.285
73.08000 6.090
73.10000 4.276
73.12000 2.944
73.14000 2.022
73.16000 -0.204
73.18000 2.268
73.20000 -1.036
73.22000 -1.541
73.24000 0.394
73.26000 1.916
73.28000 2.371
73.30000 0.030
73.32000 3.755
73.34000 4.265
73.36000 0.826
73.38000 1.473
73.40000 3.548
73.42000 0.135
73.44000 1.521
73.46000 1.296
73.48000 3.612
73.50000 1.299
73.52000 0.457
73.54000 -0.603
73.56000 2.453
73.58000 3.515
73.60000 0.243
73.62000 -0.814
73.64000 1.529
73.66000 0.561
73.68000 0.538
73.70000 2.462
73.72000 -1.077
73.74000 -1.279
73.76000 -2.017
73.78000 0.725
73.80000 -0.671
73.82000 -1.914
73.84000 -2.070
73.86000 1.211
73.88000 2.854
73.90000 3.074
73.92000 0.973
73.94000 1.887
73.96000 1.373
73.98000 2.030
74.00000 -2.135
74.02000 -0.025
74.04000 0.151
74.06000 6.160
74.08000 6.546
74.10000 6.860
74.12000 2.376
74.14000 3.579
74.16000 5.446
74.18000 3.713
74.20000 4.048
74.22000 7.332
74.24000 6.385
74.26000 5.216
74.28000 1.734
74.30000 -1.454
74.32000 1.196
74.34000 2.547
74.36000 -2.104
74.38000 2.225
74.40000 4.980
74.42000 0.853
74.44000 0.655
74.46000 2.883
74.48000 6.110
74.50000 6.061
74.52000 -0.682
74.54000 1.111
74.56000 4.020
74.58000 2.614
74.60000 -0.409
74.62000 5.748
74.64000 7.249
74.66000 7.539
74.68000 6.078
74.70000 4.709
74.72000 3.583
74.74000 3.635
74.76000 4.955
74.78000 6.652
74.80000 5.402
74.82000 6.983
74.84000 6.349
74.86000 2.865
74.88000 4.917
74.90000 7.615
74.92000 4.040
74.94000 4.495
74.96000 5.196
74.98000 3.255
75.00000 3.060
75.02000 2.917
75.04000 1.387
75.06000 -0.475
75.08000 -2.071
75.10000 2.463
75.12000 4.100
75.14000 2.656
75.16000 2.953
75.18000 4.107
75.20000 6.490
75.22000 3.981
75.24000 4.649
75.26000 4.243
75.28000 4.221
75.30000 5.884
75.32000 1.668
75.34000 3.932
75.36000 9.169
75.38000 5.478
75.40000 0.778
75.42000 -0.026
75.44000 2.689
75.46000 3.268
75.48000 2.967
75.50000 1.300
75.52000 0.973
75.54000 2.071
75.56000 5.781
75.58000 7.399
75.60000 8.886
75.62000 5.869
75.64000 2.322
75.66000 5.473
75.68000 2.124
75.70000 5.661
75.72000 2.492
75.74000 2.769
75.76000 3.773
75.78000 2.256
75.80000 3.710
75.82000 2.253
75.84000 0.463
75.86000 1.333
75.88000 2.424
75.90000 4.217
75.92000 6.711
75.94000 6.851
75.96000 4.959
75.98000 4.775
76.00000 2.160
76.02000 -0.314
76.04000 -0.151
76.06000 2.077
76.08000 4.336
76.10000 1.097
76.12000 1.776
76.14000 4.508
76.16000 5.942
76.18000 2.263
76.20000 3.755
76.22000 0.641
76.24000 0.398
76.26000 -0.820
76.28000 2.281
76.30000 1.879
76.32000 3.706
76.34000 4.386
76.36000 5.996
76.38000 1.772
76.40000 5.965
76.42000 3.375
76.44000 1.217
76.46000 4.195
76.48000 5.123
76.50000 2.967
76.52000 2.669
76.54000 0.034
76.56000 2.775
76.58000 1.633
76.60000 3.968
76.62000 3.096
76.64000 -1.636
76.66000 -2.142
76.68000 1.420
76.70000 -0.492
76.72000 -2.144
76.74000 0.330
76.76000 4.011
76.78000 5.725
76.80000 2.891
76.82000 2.211
76.84000 2.963
76.86000 2.136
76.88000 3.306
76.90000 2.386
76.92000 4.329
76.94000 2.295
76.96000 1.292
76.98000 0.309
77.00000 3.215
77.02000 4.831
77.04000 5.117
77.06000 4.095
77.08000 2.390
77.10000 3.161
77.12000 1.307
77.14000 3.519
77.16000 7.112
77.18000 4.147
77.20000 2.053
77.22000 -0.330
77.24000 -0.693
77.26000 -1.224
77.28000 1.035
77.30000 4.564
77.32000 6.807
77.34000 3.661
77.36000 2.395
77.38000 3.219
77.40000 2.193
77.42000 3.444
77.44000 2.131
77.46000 3.529
77.48000 4.446
77.50000 4.434
77.52000 3.549
77.54000 4.749
77.56000 2.935
77.58000 2.189
77.60000 2.816
77.62000 2.982
77.64000 6.153
77.66000 3.593
77.68000 -0.403
77.70000 5.247
77.72000 1.984
77.74000 -0.199
77.76000 0.441
77.78000 1.256
77.80000 3.419
77.82000 1.624
77.84000 4.851
77.86000 4.798
77.88000 2.906
77.90000 3.882
77.92000 0.515
77.94000 -2.153
77.96000 0.269
77.98000 1.474
78.00000 4.118
78.02000 3.851
78.04000 2.375
78.06000 4.086
78.08000 2.677
78.10000 1.995
78.12000 4.273
78.14000 0.704
78.16000 0.013
78.18000 0.113
78.20000 -0.520
78.22000 -0.969
78.24000 1.813
78.26000 1.897
78.28000 1.196
78.30000 0.809
78.32000 1.272
78.34000 -0.227
78.36000 -1.243
78.38000 -0.451
78.40000 1.498
78.42000 3.504
78.44000 2.585
78.46000 2.876
78.48000 -2.178
78.50000 2.409
78.52000 1.402
78.54000 -0.083
78.56000 -0.042
78.58000 1.634
78.60000 0.416
78.62000 -1.343
78.64000 0.534
78.66000 4.356
78.68000 1.894
78.70000 3.147
78.72000 0.504
78.74000 2.976
78.76000 1.272
78.78000 0.624
78.80000 1.254
78.82000 2.637
78.84000 -1.406
78.86000 2.186
78.88000 3.104
78.90000 2.836
78.92000 2.206
78.94000 2.529
78.96000 1.847
78.98000 2.939
79.00000 3.536
79.02000 1.641
79.04000 -0.891
79.06000 -0.889
79.08000 2.023
79.10000 1.808
79.12000 5.516
79.14000 2.959
79.16000 2.065
79.18000 1.914
79.20000 2.372
79.22000 -0.021
79.24000 -2.212
79.26000 1.919
79.28000 0.039
79.30000 2.234
79.32000 2.822
79.34000 3.792
79.36000 -0.095
79.38000 0.060
79.40000 3.743
79.42000 2.259
79.44000 3.621
79.46000 -0.847
79.48000 -1.217
79.50000 -0.265
79.52000 3.738
79.54000 1.164
79.56000 2.876
79.58000 0.758
79.60000 -0.248
79.62000 2.729
79.64000 5.974
79.66000 4.746
79.68000 3.815
79.70000 1.303
79.72000 3.123
79.74000 1.937
79.76000 -1.607
79.78000 1.883
79.80000 0.641
79.82000 -0.602
79.84000 1.543
79.86000 1.371
79.88000 0.493
79.90000 2.022
79.92000 -2.237
79.94000 -2.107
79.96000 2.378
79.98000 4.277
80.00000 4.601
80.02000 1.595
80.04000 1.213
80.06000 0.761
80.08000 -1.456
80.10000 0.518
80.12000 2.060
80.14000 0.881
80.16000 0.706
80.18000 -1.430
80.20000 3.114
80.22000 5.562
80.24000 2.794
80.26000 0.092
80.28000 2.895
80.30000 4.395
80.32000 3.599
80.34000 2.473
80.36000 5.086
80.38000 1.857
80.40000 2.720
80.42000 3.054
80.44000 3.283
80.46000 1.243
80.48000 1.959
80.50000 3.390
80.52000 0.892
80.54000 2.387
80.56000 0.804
80.58000 -1.554
80.60000 -2.264
80.62000 -0.070
80.64000 7.626
80.66000 7.788
80.68000 3.993
80.70000 5.110
80.72000 8.538
80.74000 4.339
80.76000 -0.068
80.78000 0.276
80.80000 -2.041
80.82000 -1.137
80.84000 2.636
80.86000 3.017
80.88000 6.660
80.90000 10.850
80.92000 6.252
80.94000 2.943
80.96000 0.593
80.98000 1.123
81.00000 1.093
81.02000 -0.258
81.04000 0.672
81.06000 -1.942
81.08000 2.350
81.10000 0.675
81.12000 3.292
81.14000 1.478
81.16000 6.800
81.18000 1.317
81.20000 0.933
81.22000 -1.538
81.24000 -0.725
81.26000 -0.776
81.28000 3.340
81.30000 3.376
81.32000 0.270
81.34000 2.954
81.36000 6.894
81.38000 8.180
81.40000 6.543
81.42000 3.163
81.44000 4.740
81.46000 4.994
81.48000 4.380
81.50000 2.926
81.52000 1.070
81.54000 2.757
81.56000 5.635
81.58000 4.541
81.60000 4.108
81.62000 2.204
81.64000 1.850
81.66000 2.719
81.68000 7.065
81.70000 5.686
81.72000 8.108
81.74000 6.690
81.76000 5.445
81.78000 9.666
81.80000 10.203
81.82000 9.016
81.84000 8.503
81.86000 18.127
81.88000 13.547
81.90000 11.115
81.92000 14.226
81.94000 15.473
81.96000 15.490
81.98000 19.655
82.00000 21.933
82.02000 19.349
82.04000 22.096
82.06000 21.629
82.08000 18.387
82.10000 19.107
82.12000 24.101
82.14000 24.795
82.16000 23.205
82.18000 22.615
82.20000 25.021
82.22000 25.783
82.24000 26.896
82.26000 25.539
82.28000 28.246
82.30000 32.224
82.32000 35.366
82.34000 38.384
82.36000 32.921
82.38000 35.063
82.40000 35.043
82.42000 36.340
82.44000 42.062
82.46000 43.032
82.48000 41.196
82.50000 41.277
82.52000 40.801
82.54000 44.686
82.56000 50.184
82.58000 48.667
82.60000 48.827
82.62000 48.127
82.64000 50.149
82.66000 48.112
82.68000 49.549
82.70000 48.340
82.72000 49.190
82.74000 52.476
82.76000 51.845
82.78000 48.077
82.80000 48.672
82.82000 54.179
82.84000 54.877
82.86000 59.119
82.88000 59.079
82.90000 54.031
82.92000 53.556
82.94000 52.223
82.96000 53.443
82.98000 53.274
83.00000 48.423
83.02000 45.850
83.04000 47.426
83.06000 47.592
83.08000 47.220
83.10000 49.485
83.12000 47.622
83.14000 50.141
83.16000 52.151
83.18000 40.443
83.20000 44.969
83.22000 43.521
83.24000 43.583
83.26000 39.436
83.28000 36.105
83.30000 36.979
83.32000 38.309
83.34000 35.601
83.36000 31.764
83.38000 33.703
83.40000 33.963
83.42000 33.053
83.44000 30.906
83.46000 30.849
83.48000 26.526
83.50000 25.942
83.52000 24.965
83.54000 17.712
83.56000 16.195
83.58000 18.957
83.60000 16.071
83.62000 19.670
83.64000 17.683
83.66000 18.161
83.68000 16.743
83.70000 16.498
83.72000 11.287
83.74000 11.323
83.76000 11.840
83.78000 11.117
83.80000 14.732
83.82000 13.610
83.84000 10.207
83.86000 5.928
83.88000 8.321
83.90000 10.489
83.92000 9.404
83.94000 8.138
83.96000 7.472
83.98000 11.954
84.00000 10.393
84.02000 7.146
84.04000 9.212
84.06000 9.724
84.08000 5.333
84.10000 3.583
84.12000 5.064
84.14000 7.383
84.16000 2.309
84.18000 5.091
84.20000 3.231
84.22000 3.366
84.24000 2.081
84.26000 2.586
84.28000 2.748
84.30000 1.344
84.32000 1.139
84.34000 -2.379
84.36000 2.351
84.38000 2.893
84.40000 1.594
84.42000 1.522
84.44000 0.543
84.46000 -0.155
84.48000 3.874
84.50000 2.287
84.52000 1.093
84.54000 -2.319
84.56000 0.175
84.58000 2.177
84.60000 0.282
84.62000 0.603
84.64000 -1.541
84.66000 1.813
84.68000 3.349
84.70000 4.081
84.72000 5.124
84.74000 5.774
84.76000 2.085
84.78000 2.108
84.80000 1.514
84.82000 1.883
84.84000 2.400
84.86000 1.235
84.88000 0.151
84.90000 2.929
84.92000 5.023
84.94000 3.642
84.96000 0.364
84.98000 1.459
85.00000 -2.266
85.02000 1.662
85.04000 -0.855
85.06000 -1.431
85.08000 -1.723
85.10000 4.033
85.12000 5.045
85.14000 6.340
85.16000 0.962
85.18000 0.031
85.20000 -0.340
85.22000 -0.637
85.24000 0.938
85.26000 2.863
85.28000 3.794
85.30000 3.831
85.32000 1.608
85.34000 2.834
85.36000 1.513
85.38000 -2.216
85.40000 3.090
85.42000 2.687
85.44000 0.942
85.46000 1.255
85.48000 2.586
85.50000 2.606
85.52000 2.549
85.54000 1.684
85.56000 0.769
85.58000 5.736
85.60000 1.212
85.62000 -2.240
85.64000 1.503
85.66000 3.751
85.68000 3.107
85.70000 1.984
85.72000 3.165
85.74000 -1.255
85.76000 1.340
85.78000 -1.335
85.80000 4.304
85.82000 5.110
85.84000 3.360
85.86000 4.348
85.88000 2.981
85.90000 -2.266
85.92000 0.950
85.94000 2.710
85.96000 4.297
85.98000 6.883
86.00000 5.333
86.02000 4.839
86.04000 8.942
86.06000 4.328
86.08000 3.782
86.10000 2.908
86.12000 4.000
86.14000 3.452
86.16000 7.355
86.18000 2.191
86.20000 7.583
86.22000 6.085
86.24000 6.639
86.26000 9.441
86.28000 8.862
86.30000 7.224
86.32000 12.019
86.34000 14.509
86.36000 11.773
86.38000 9.326
86.40000 11.760
86.42000 9.167
86.44000 11.633
86.46000 11.962
86.48000 10.708
86.50000 12.031
86.52000 13.426
86.54000 10.414
86.56000 10.392
86.58000 15.024
86.60000 13.372
86.62000 15.409
86.64000 15.944
86.66000 19.283
86.68000 16.147
86.70000 14.876
86.72000 13.943
86.74000 16.792
86.76000 17.385
86.78000 18.936
86.80000 21.534
86.82000 21.699
86.84000 22.161
86.86000 20.954
86.88000 25.996
86.90000 22.153
86.92000 21.894
86.94000 23.183
86.96000 25.282
86.98000 31.185
87.00000 33.085
87.02000 31.216
87.04000 29.725
87.06000 32.070
87.08000 36.249
87.10000 36.086
87.12000 33.725
87.14000 35.695
87.16000 33.594
87.18000 31.075
87.20000 32.138
87.22000 36.590
87.24000 36.436
87.26000 35.336
87.28000 34.939
87.30000 34.234
87.32000 38.009
87.34000 36.833
87.36000 33.017
87.38000 30.791
87.40000 26.891
87.42000 21.127
87.44000 30.121
87.46000 32.465
87.48000 34.248
87.50000 26.537
87.52000 28.453
87.54000 26.896
87.56000 30.748
87.58000 28.713
87.60000 27.004
87.62000 24.087
87.64000 23.960
87.66000 24.388
87.68000 24.214
87.70000 22.344
87.72000 19.879
87.74000 20.270
87.76000 19.167
87.78000 16.653
87.80000 17.909
87.82000 14.590
87.84000 11.986
87.86000 11.402
87.88000 17.690
87.90000 17.290
87.92000 20.904
87.94000 19.031
87.96000 15.634
87.98000 15.187
88.00000 13.363
88.02000 13.087
88.04000 8.564
88.06000 8.554
88.08000 9.521
88.10000 8.027
88.12000 6.736
88.14000 9.739
88.16000 10.419
88.18000 7.336
88.20000 4.168
88.22000 4.458
88.24000 3.622
88.26000 4.778
88.28000 7.181
88.30000 6.143
88.32000 5.647
88.34000 5.539
88.36000 5.813
88.38000 4.372
88.40000 1.804
88.42000 0.354
88.44000 -1.883
88.46000 -1.688
88.48000 1.409
88.50000 1.785
88.52000 2.072
88.54000 1.752
88.56000 5.992
88.58000 8.016
88.60000 4.694
88.62000 5.762
88.64000 5.694
88.66000 3.504
88.68000 2.525
88.70000 4.433
88.72000 6.655
88.74000 4.826
88.76000 3.229
88.78000 3.157
88.80000 2.818
88.82000 6.063
88.84000 7.490
88.86000 4.653
88.88000 -2.125
88.90000 -0.245
88.92000 0.518
88.94000 4.232
88.96000 0.785
88.98000 -2.068
89.00000 2.727
89.02000 0.574
89.04000 0.730
89.06000 -1.888
89.08000 5.138
89.10000 1.899
89.12000 4.878
89.14000 3.202
89.16000 5.903
89.18000 2.990
89.20000 5.381
89.22000 3.159
89.24000 1.397
89.26000 4.935
89.28000 4.637
89.30000 2.499
89.32000 4.872
89.34000 3.197
89.36000 4.125
89.38000 5.341
89.40000 4.601
89.42000 5.303
89.44000 2.604
89.46000 1.137
89.48000 -0.559
89.50000 -2.034
89.52000 -0.332
89.54000 1.681
89.56000 5.015
89.58000 3.842
89.60000 4.782
89.62000 0.149
89.64000 -0.225
89.66000 3.991
89.68000 5.475
89.70000 6.721
89.72000 5.674
89.74000 5.350
89.76000 3.367
89.78000 1.777
89.80000 5.000
89.82000 6.354
89.84000 0.507
89.86000 0.262
89.88000 1.480
89.90000 1.212
89.92000 1.617
89.94000 5.253
89.96000 6.577
89.98000 4.259
90.00000 2.030
90.02000 1.980
90.04000 3.522
90.06000 5.385
90.08000 1.915
90.10000 1.219
90.12000 3.399
90.14000 3.868
90.16000 1.484
90.18000 1.505
90.20000 -2.051
90.22000 -1.626
90.24000 -0.496
90.26000 1.995
90.28000 1.669
90.30000 -0.645
90.32000 -1.523
90.34000 1.389
90.36000 4.206
90.38000 2.231
90.40000 2.765
90.42000 2.209
90.44000 6.706
90.46000 5.807
90.48000 0.548
90.50000 -2.051
90.52000 0.080
90.54000 2.425
90.56000 2.670
90.58000 2.776
90.60000 6.330
90.62000 6.822
90.64000 5.835
90.66000 4.339
90.68000 2.300
90.70000 1.037
90.72000 0.844
90.74000 1.733
90.76000 2.341
90.78000 3.676
90.80000 2.116
90.82000 2.859
90.84000 2.241
90.86000 -1.188
90.88000 3.707
90.90000 4.414
90.92000 4.896
90.94000 2.020
90.96000 1.114
90.98000 1.438
91.00000 -0.957
91.02000 0.336
91.04000 4.244
91.06000 3.507
91.08000 0.391
91.10000 -0.946
91.12000 -2.051
91.14000 -0.137
91.16000 5.230
91.18000 4.036
91.20000 1.895
91.22000 -1.977
91.24000 0.523
91.26000 3.082
91.28000 3.598
91.30000 3.427
91.32000 1.637
91.34000 1.149
91.36000 5.577
91.38000 1.182
91.40000 1.096
91.42000 -0.664
91.44000 2.110
91.46000 0.306
91.48000 3.539
91.50000 -1.780
91.52000 -1.599
91.54000 0.671
91.56000 2.870
91.58000 3.979
91.60000 0.876
91.62000 0.819
91.64000 3.135
91.66000 2.567
91.68000 1.113
91.70000 0.815
91.72000 -2.029
91.74000 2.823
91.76000 2.899
91.78000 1.497
91.80000 -0.495
91.82000 -0.548
91.84000 2.777
91.86000 4.631
91.88000 3.876
91.90000 6.199
91.92000 6.402
91.94000 5.664
91.96000 5.588
91.98000 2.473
92.00000 1.035
92.02000 0.107
92.04000 0.437
92.06000 -1.858
92.08000 -0.580
92.10000 -0.393
92.12000 -0.681
92.14000 0.539
92.16000 -0.745
92.18000 7.582
92.20000 4.489
92.22000 3.462
92.24000 1.729
92.26000 -0.869
92.28000 0.050
92.30000 1.124
92.32000 -0.214
92.34000 1.261
92.36000 1.922
92.38000 1.816
92.40000 2.351
92.42000 1.926
92.44000 3.025
92.46000 2.805
92.48000 1.239
92.50000 2.175
92.52000 -2.030
92.54000 0.544
92.56000 5.345
92.58000 4.790
92.60000 -0.132
92.62000 2.135
92.64000 -0.372
92.66000 2.093
92.68000 2.375
92.70000 5.323
92.72000 2.035
92.74000 3.545
92.76000 2.920
92.78000 3.971
92.80000 4.557
92.82000 4.942
92.84000 7.649
92.86000 3.774
92.88000 3.728
92.90000 -2.036
92.92000 3.359
92.94000 3.539
92.96000 2.793
92.98000 1.692
93.00000 -0.745
93.02000 0.974
93.04000 2.322
93.06000 3.572
93.08000 5.498
93.10000 6.221
93.12000 3.974
93.14000 1.633
93.16000 -0.712
93.18000 5.194
93.20000 6.442
93.22000 5.781
93.24000 2.372
93.26000 2.392
93.28000 7.245
93.30000 6.421
93.32000 1.676
93.34000 1.355
93.36000 4.714
93.38000 4.828
93.40000 4.003
93.42000 6.681
93.44000 3.899
93.46000 6.108
93.48000 0.302
93.50000 1.994
93.52000 0.535
93.54000 2.977
93.56000 1.959
93.58000 3.301
93.60000 4.345
93.62000 4.495
93.64000 5.808
93.66000 5.438
93.68000 0.663
93.70000 1.186
93.72000 1.399
93.74000 8.257
93.76000 5.384
93.78000 1.891
93.80000 1.578
93.82000 3.210
93.84000 4.778
93.86000 3.245
93.88000 3.878
93.90000 3.961
93.92000 -2.001
93.94000 0.211
93.96000 0.019
93.98000 0.736
94.00000 3.148
94.02000 1.950
94.04000 2.569
94.06000 5.843
94.08000 2.684
94.10000 -0.197
94.12000 2.079
94.14000 6.346
94.16000 5.838
94.18000 3.805
94.20000 0.772
94.22000 0.302
94.24000 1.523
94.26000 5.653
94.28000 3.857
94.30000 1.510
94.32000 -0.306
94.34000 0.941
94.36000 4.441
94.38000 4.682
94.40000 1.194
94.42000 1.275
94.44000 2.300
94.46000 4.439
94.48000 6.255
94.50000 5.680
94.52000 4.114
94.54000 5.751
94.56000 5.088
94.58000 2.618
94.60000 6.530
94.62000 6.905
94.64000 6.985
94.66000 6.661
94.68000 6.940
94.70000 5.340
94.72000 4.494
94.74000 4.477
94.76000 5.279
94.78000 0.711
94.80000 3.923
94.82000 4.767
94.84000 4.655
94.86000 5.627
94.88000 1.797
94.90000 2.127
94.92000 3.886
94.94000 3.022
94.96000 4.722
94.98000 4.593
95.00000 4.229
95.02000 1.371
95.04000 3.407
95.06000 2.010
95.08000 0.294
95.10000 1.950
95.12000 5.122
95.14000 3.027
95.16000 -0.197
95.18000 2.058
95.20000 2.370
95.22000 3.783
95.24000 3.927
95.26000 3.850
95.28000 0.989
95.30000 3.763
95.32000 2.553
95.34000 6.173
95.36000 5.768
95.38000 2.170
95.40000 -1.459
95.42000 -0.386
95.44000 2.278
95.46000 4.490
95.48000 6.981
95.50000 7.482
95.52000 3.870
95.54000 2.633
95.56000 2.906
95.58000 2.102
95.60000 -2.001
95.62000 2.008
95.64000 5.320
95.66000 2.700
95.68000 0.340
95.70000 3.658
95.72000 6.142
95.74000 8.567
95.76000 8.375
95.78000 6.910
95.80000 8.827
95.82000 7.115
95.84000 4.842
95.86000 3.620
95.88000 1.579
95.90000 8.032
95.92000 6.568
95.94000 5.722
95.96000 1.508
95.98000 1.271
96.00000 4.162
96.02000 5.064
96.04000 5.910
96.06000 4.764
96.08000 4.834
96.10000 1.608
96.12000 -1.045
96.14000 -1.453
96.16000 1.691
96.18000 1.605
96.20000 5.147
96.22000 2.747
96.24000 7.966
96.26000 4.448
96.28000 -0.287
96.30000 -1.794
96.32000 6.887
96.34000 5.804
96.36000 4.348
96.38000 3.179
96.40000 1.146
96.42000 3.726
96.44000 7.249
96.46000 1.293
96.48000 2.857
96.50000 2.026
96.52000 4.430
96.54000 7.910
96.56000 10.137
96.58000 6.590
96.60000 2.847
96.62000 3.656
96.64000 3.723
96.66000 1.869
96.68000 4.936
96.70000 4.471
96.72000 4.504
96.74000 7.087
96.76000 8.600
96.78000 4.101
96.80000 -1.990
96.82000 -0.781
96.84000 1.825
96.86000 6.508
96.88000 6.178
96.90000 4.455
96.92000 3.631
96.94000 9.507
96.96000 5.300
96.98000 1.135
97.00000 1.452
97.02000 3.470
97.04000 2.534
97.06000 3.470
97.08000 1.264
97.10000 -1.012
97.12000 -1.355
97.14000 -0.951
97.16000 0.387
97.18000 4.937
97.20000 4.634
97.22000 1.913
97.24000 -0.858
97.26000 4.260
97.28000 8.082
97.30000 6.513
97.32000 4.920
97.34000 6.231
97.36000 9.031
97.38000 9.515
97.40000 10.007
97.42000 9.949
97.44000 10.470
97.46000 -0.173
97.48000 -1.986
97.50000 4.196
97.52000 4.025
97.54000 9.166
97.56000 9.280
97.58000 3.620
97.60000 4.892
97.62000 3.322
97.64000 6.377
97.66000 8.644
97.68000 14.662
97.70000 8.469
97.72000 11.203
97.74000 11.299
97.76000 5.310
97.78000 7.690
97.80000 10.553
97.82000 10.803
97.84000 5.531
97.86000 8.461
97.88000 13.423
97.90000 8.767
97.92000 4.869
97.94000 5.135
97.96000 4.684
97.98000 5.397
98.00000 9.642
98.02000 3.391
98.04000 1.155
98.06000 3.304
98.08000 2.461
98.10000 5.843
98.12000 9.912
98.14000 10.634
98.16000 4.275
98.18000 3.835
98.20000 3.023
98.22000 3.909
98.24000 7.077
98.26000 7.187
98.28000 8.322
98.30000 15.430
98.32000 12.670
98.34000 7.927
98.36000 5.076
98.38000 5.128
98.40000 5.364
98.42000 7.766
98.44000 7.462
98.46000 9.854
98.48000 11.909
98.50000 6.356
98.52000 8.066
98.54000 -2.005
98.56000 1.616
98.58000 8.788
98.60000 11.123
98.62000 5.360
98.64000 16.376
98.66000 12.144
98.68000 5.999
98.70000 4.021
98.72000 12.386
98.74000 10.405
98.76000 3.138
98.78000 6.021
98.80000 7.000
98.82000 4.073
98.84000 6.482
98.86000 2.179
98.88000 3.904
98.90000 7.587
98.92000 10.033
98.94000 9.488
98.96000 17.581
98.98000 14.637
99.00000 7.126
99.02000 6.415
99.04000 1.528
99.06000 6.950
99.08000 5.461
99.10000 4.641
99.12000 8.351
99.14000 7.427
99.16000 10.369
99.18000 10.956
99.20000 16.426
99.22000 13.228
99.24000 12.720
99.26000 7.858
99.28000 -1.911
99.30000 1.768
99.32000 7.128
99.34000 2.463
99.36000 0.981
99.38000 -0.547
99.40000 -1.351
99.42000 -0.200
99.44000 1.019
99.46000 4.735
99.48000 4.070
99.50000 10.341
99.52000 7.480
99.54000 7.285
99.56000 3.591
99.58000 -1.995
99.60000 -0.743
99.62000 -0.119
99.64000 0.829
99.66000 -0.017
99.68000 -1.493
99.70000 1.606
99.72000 -0.997
99.74000 6.289
99.76000 2.674
99.78000 -0.253
99.80000 0.338
99.82000 -1.826
99.84000 -0.770
99.86000 2.501
99.88000 8.049
99.90000 3.291
99.92000 1.247
99.94000 1.109
99.96000 -4.643
99.98000 0.000
