'Id: "0011387" Comment: "Integrate frame 0011387_Au-Ir-Rh_Rh-rich_XRD-Mapping-215-0000.gfrmwith cursor Wedge Cursor #5" Operator: "B?rgel" Anode: "Cu" Wavelength: "1.5406" Scantype: "2Theta (TwoTheta)" TimePerStep: "1" X: "27" Y: "9" Z: "5.95" 
10.00000 0.000
10.02000 -3.490
10.04000 6.556
10.06000 0.727
10.08000 4.535
10.10000 10.085
10.12000 24.100
10.14000 17.250
10.16000 8.714
10.18000 7.159
10.20000 -3.473
10.22000 7.187
10.24000 14.926
10.26000 18.783
10.28000 17.723
10.30000 17.912
10.32000 10.715
10.34000 17.186
10.36000 10.946
10.38000 3.527
10.40000 4.306
10.42000 14.291
10.44000 19.391
10.46000 19.467
10.48000 30.917
10.50000 22.917
10.52000 19.961
10.54000 20.738
10.56000 23.457
10.58000 20.377
10.60000 27.302
10.62000 30.786
10.64000 18.284
10.66000 17.511
10.68000 16.639
10.70000 22.066
10.72000 16.889
10.74000 14.274
10.76000 14.333
10.78000 7.887
10.80000 26.909
10.82000 26.031
10.84000 12.316
10.86000 -1.277
10.88000 10.239
10.90000 29.760
10.92000 22.457
10.94000 29.998
10.96000 33.210
10.98000 28.941
11.00000 29.901
11.02000 28.525
11.04000 36.024
11.06000 28.439
11.08000 32.503
11.10000 39.278
11.12000 20.435
11.14000 23.593
11.16000 32.649
11.18000 25.399
11.20000 22.593
11.22000 21.333
11.24000 23.990
11.26000 25.772
11.28000 22.838
11.30000 21.497
11.32000 26.614
11.34000 25.990
11.36000 21.529
11.38000 24.620
11.40000 27.171
11.42000 37.107
11.44000 26.447
11.46000 32.643
11.48000 27.958
11.50000 25.253
11.52000 29.390
11.54000 36.030
11.56000 34.249
11.58000 32.837
11.60000 21.449
11.62000 31.203
11.64000 35.936
11.66000 23.928
11.68000 26.762
11.70000 35.699
11.72000 31.648
11.74000 28.317
11.76000 36.668
11.78000 35.457
11.80000 25.566
11.82000 32.129
11.84000 37.706
11.86000 30.467
11.88000 39.453
11.90000 44.968
11.92000 50.187
11.94000 43.551
11.96000 34.835
11.98000 34.981
12.00000 31.157
12.02000 32.542
12.04000 25.746
12.06000 33.693
12.08000 42.873
12.10000 49.291
12.12000 50.381
12.14000 47.949
12.16000 45.445
12.18000 35.470
12.20000 38.932
12.22000 33.725
12.24000 27.300
12.26000 30.493
12.28000 30.983
12.30000 25.007
12.32000 30.156
12.34000 44.054
12.36000 38.908
12.38000 39.089
12.40000 44.786
12.42000 33.476
12.44000 46.989
12.46000 42.167
12.48000 44.524
12.50000 27.746
12.52000 23.339
12.54000 30.392
12.56000 34.819
12.58000 39.890
12.60000 46.728
12.62000 43.862
12.64000 43.183
12.66000 46.469
12.68000 47.115
12.70000 37.799
12.72000 35.782
12.74000 36.807
12.76000 39.175
12.78000 38.047
12.80000 41.826
12.82000 35.544
12.84000 37.844
12.86000 41.212
12.88000 31.875
12.90000 23.612
12.92000 30.615
12.94000 39.753
12.96000 44.030
12.98000 32.093
13.00000 31.289
13.02000 38.156
13.04000 37.495
13.06000 47.400
13.08000 37.732
13.10000 26.339
13.12000 28.726
13.14000 29.872
13.16000 37.659
13.18000 44.185
13.20000 35.284
13.22000 33.149
13.24000 32.056
13.26000 30.962
13.28000 39.302
13.30000 42.892
13.32000 36.351
13.34000 35.630
13.36000 42.782
13.38000 35.620
13.40000 27.434
13.42000 37.774
13.44000 36.740
13.46000 36.109
13.48000 39.728
13.50000 29.031
13.52000 31.642
13.54000 35.450
13.56000 34.311
13.58000 34.974
13.60000 35.741
13.62000 32.472
13.64000 31.176
13.66000 28.696
13.68000 32.300
13.70000 26.038
13.72000 27.306
13.74000 25.333
13.76000 13.228
13.78000 27.287
13.80000 32.904
13.82000 37.227
13.84000 33.400
13.86000 35.438
13.88000 26.705
13.90000 21.738
13.92000 28.882
13.94000 32.841
13.96000 30.782
13.98000 30.353
14.00000 30.520
14.02000 32.167
14.04000 31.965
14.06000 29.565
14.08000 35.135
14.10000 39.454
14.12000 41.857
14.14000 29.222
14.16000 31.054
14.18000 35.565
14.20000 28.284
14.22000 31.623
14.24000 30.175
14.26000 29.453
14.28000 36.233
14.30000 35.488
14.32000 26.936
14.34000 24.193
14.36000 21.561
14.38000 25.934
14.40000 22.635
14.42000 32.805
14.44000 30.472
14.46000 25.621
14.48000 31.374
14.50000 31.303
14.52000 24.900
14.54000 18.904
14.56000 27.384
14.58000 24.537
14.60000 31.467
14.62000 29.074
14.64000 27.773
14.66000 33.479
14.68000 36.134
14.70000 27.743
14.72000 15.211
14.74000 19.862
14.76000 19.210
14.78000 22.526
14.80000 21.580
14.82000 24.502
14.84000 31.184
14.86000 22.725
14.88000 21.068
14.90000 24.785
14.92000 21.996
14.94000 22.430
14.96000 19.082
14.98000 21.894
15.00000 21.815
15.02000 13.918
15.04000 18.323
15.06000 20.911
15.08000 20.075
15.10000 13.602
15.12000 23.296
15.14000 22.175
15.16000 18.993
15.18000 24.912
15.20000 27.308
15.22000 22.165
15.24000 26.692
15.26000 27.883
15.28000 22.746
15.30000 19.762
15.32000 24.434
15.34000 16.777
15.36000 20.060
15.38000 23.421
15.40000 24.197
15.42000 21.103
15.44000 16.137
15.46000 14.536
15.48000 22.209
15.50000 22.966
15.52000 20.783
15.54000 12.364
15.56000 8.928
15.58000 11.770
15.60000 13.932
15.62000 12.377
15.64000 14.853
15.66000 19.805
15.68000 18.079
15.70000 17.608
15.72000 20.342
15.74000 22.754
15.76000 19.870
15.78000 18.011
15.80000 20.825
15.82000 15.294
15.84000 17.277
15.86000 12.497
15.88000 11.456
15.90000 17.234
15.92000 16.215
15.94000 13.787
15.96000 18.012
15.98000 17.252
16.00000 13.909
16.02000 13.623
16.04000 17.999
16.06000 11.755
16.08000 6.069
16.10000 8.786
16.12000 15.012
16.14000 11.086
16.16000 20.642
16.18000 19.491
16.20000 14.979
16.22000 10.390
16.24000 4.240
16.26000 10.911
16.28000 11.545
16.30000 2.972
16.32000 4.296
16.34000 0.734
16.36000 6.670
16.38000 11.644
16.40000 16.851
16.42000 15.504
16.44000 18.578
16.46000 13.623
16.48000 15.610
16.50000 14.929
16.52000 10.368
16.54000 12.101
16.56000 12.577
16.58000 4.781
16.60000 6.262
16.62000 11.618
16.64000 7.247
16.66000 9.322
16.68000 2.694
16.70000 2.331
16.72000 11.441
16.74000 16.915
16.76000 11.719
16.78000 9.759
16.80000 13.688
16.82000 16.902
16.84000 17.962
16.86000 18.769
16.88000 15.469
16.90000 10.435
16.92000 16.252
16.94000 12.100
16.96000 3.373
16.98000 11.251
17.00000 11.323
17.02000 12.340
17.04000 3.267
17.06000 4.092
17.08000 12.612
17.10000 9.847
17.12000 13.427
17.14000 7.957
17.16000 2.418
17.18000 5.248
17.20000 3.901
17.22000 9.033
17.24000 14.735
17.26000 12.854
17.28000 8.259
17.30000 7.393
17.32000 14.171
17.34000 5.075
17.36000 10.860
17.38000 21.135
17.40000 21.366
17.42000 11.882
17.44000 7.274
17.46000 13.533
17.48000 12.229
17.50000 12.634
17.52000 17.222
17.54000 17.136
17.56000 15.659
17.58000 7.143
17.60000 5.413
17.62000 10.891
17.64000 11.797
17.66000 6.793
17.68000 3.758
17.70000 4.066
17.72000 2.502
17.74000 2.829
17.76000 8.352
17.78000 12.307
17.80000 11.362
17.82000 8.400
17.84000 8.648
17.86000 8.015
17.88000 6.371
17.90000 4.687
17.92000 6.768
17.94000 8.868
17.96000 3.268
17.98000 0.330
18.00000 9.296
18.02000 5.415
18.04000 1.733
18.06000 3.445
18.08000 10.030
18.10000 7.265
18.12000 7.345
18.14000 10.907
18.16000 6.403
18.18000 8.203
18.20000 -4.298
18.22000 -1.725
18.24000 11.575
18.26000 18.405
18.28000 13.232
18.30000 3.794
18.32000 2.758
18.34000 8.507
18.36000 5.268
18.38000 8.046
18.40000 6.846
18.42000 5.084
18.44000 2.427
18.46000 6.416
18.48000 10.407
18.50000 7.093
18.52000 5.420
18.54000 9.950
18.56000 7.192
18.58000 1.252
18.60000 2.177
18.62000 3.381
18.64000 2.671
18.66000 2.855
18.68000 10.695
18.70000 13.267
18.72000 3.627
18.74000 0.257
18.76000 2.403
18.78000 2.431
18.80000 4.548
18.82000 4.508
18.84000 6.174
18.86000 9.328
18.88000 7.498
18.90000 6.899
18.92000 -4.275
18.94000 -4.079
18.96000 2.667
18.98000 9.117
19.00000 6.906
19.02000 10.326
19.04000 16.477
19.06000 9.743
19.08000 1.613
19.10000 3.262
19.12000 2.200
19.14000 -3.924
19.16000 -0.176
19.18000 4.169
19.20000 7.464
19.22000 2.627
19.24000 3.291
19.26000 1.405
19.28000 8.738
19.30000 10.076
19.32000 5.526
19.34000 5.528
19.36000 4.690
19.38000 -0.080
19.40000 2.188
19.42000 4.533
19.44000 3.995
19.46000 2.804
19.48000 7.921
19.50000 4.981
19.52000 5.174
19.54000 8.964
19.56000 3.383
19.58000 1.622
19.60000 1.094
19.62000 0.087
19.64000 4.064
19.66000 -0.103
19.68000 8.967
19.70000 3.889
19.72000 2.685
19.74000 6.976
19.76000 5.403
19.78000 -3.084
19.80000 -4.233
19.82000 1.597
19.84000 4.898
19.86000 9.985
19.88000 5.222
19.90000 4.866
19.92000 8.494
19.94000 9.410
19.96000 7.671
19.98000 2.037
20.00000 3.190
20.02000 2.739
20.04000 3.027
20.06000 -1.987
20.08000 4.512
20.10000 -0.172
20.12000 -2.767
20.14000 0.843
20.16000 6.456
20.18000 3.215
20.20000 2.611
20.22000 8.224
20.24000 5.800
20.26000 6.700
20.28000 2.384
20.30000 3.521
20.32000 2.255
20.34000 2.318
20.36000 6.723
20.38000 3.409
20.40000 0.549
20.42000 2.477
20.44000 6.701
20.46000 3.960
20.48000 7.113
20.50000 1.086
20.52000 -0.632
20.54000 4.535
20.56000 5.254
20.58000 4.039
20.60000 3.427
20.62000 1.843
20.64000 3.762
20.66000 10.229
20.68000 6.771
20.70000 9.283
20.72000 7.736
20.74000 2.747
20.76000 1.777
20.78000 3.644
20.80000 1.623
20.82000 5.372
20.84000 6.292
20.86000 8.217
20.88000 6.494
20.90000 2.099
20.92000 1.556
20.94000 8.332
20.96000 10.980
20.98000 4.181
21.00000 -0.021
21.02000 6.146
21.04000 13.288
21.06000 11.425
21.08000 5.166
21.10000 8.758
21.12000 4.271
21.14000 5.837
21.16000 6.144
21.18000 2.135
21.20000 1.315
21.22000 -3.236
21.24000 -4.135
21.26000 3.599
21.28000 8.857
21.30000 14.076
21.32000 10.619
21.34000 4.618
21.36000 7.718
21.38000 3.691
21.40000 -0.331
21.42000 -1.726
21.44000 1.760
21.46000 2.484
21.48000 7.247
21.50000 11.542
21.52000 10.385
21.54000 6.408
21.56000 10.082
21.58000 10.160
21.60000 6.135
21.62000 1.561
21.64000 -2.089
21.66000 4.221
21.68000 7.467
21.70000 6.105
21.72000 4.021
21.74000 1.498
21.76000 5.312
21.78000 1.730
21.80000 -0.266
21.82000 5.452
21.84000 7.247
21.86000 1.614
21.88000 -3.417
21.90000 1.870
21.92000 10.953
21.94000 11.083
21.96000 9.497
21.98000 2.818
22.00000 -0.397
22.02000 4.564
22.04000 4.100
22.06000 6.224
22.08000 7.975
22.10000 7.676
22.12000 1.912
22.14000 0.966
22.16000 2.967
22.18000 3.674
22.20000 6.847
22.22000 8.760
22.24000 10.124
22.26000 9.508
22.28000 6.828
22.30000 9.208
22.32000 8.857
22.34000 5.801
22.36000 2.385
22.38000 -2.069
22.40000 5.075
22.42000 3.161
22.44000 -4.079
22.46000 0.231
22.48000 2.545
22.50000 7.734
22.52000 10.452
22.54000 8.914
22.56000 8.871
22.58000 10.715
22.60000 8.230
22.62000 7.901
22.64000 3.621
22.66000 7.776
22.68000 5.626
22.70000 6.331
22.72000 -0.186
22.74000 -1.068
22.76000 -2.754
22.78000 4.853
22.80000 1.666
22.82000 3.566
22.84000 9.468
22.86000 8.025
22.88000 1.512
22.90000 1.791
22.92000 3.187
22.94000 9.329
22.96000 6.409
22.98000 4.781
23.00000 3.672
23.02000 4.157
23.04000 3.391
23.06000 -3.051
23.08000 0.146
23.10000 7.528
23.12000 6.500
23.14000 6.601
23.16000 9.570
23.18000 6.701
23.20000 8.167
23.22000 8.032
23.24000 8.317
23.26000 7.090
23.28000 4.428
23.30000 2.640
23.32000 5.963
23.34000 1.087
23.36000 -0.785
23.38000 1.049
23.40000 7.816
23.42000 0.573
23.44000 2.078
23.46000 3.860
23.48000 3.679
23.50000 0.767
23.52000 7.968
23.54000 8.367
23.56000 5.151
23.58000 5.480
23.60000 6.229
23.62000 9.124
23.64000 3.253
23.66000 -4.017
23.68000 -0.599
23.70000 2.088
23.72000 1.552
23.74000 2.248
23.76000 2.367
23.78000 3.382
23.80000 5.636
23.82000 9.642
23.84000 1.872
23.86000 0.699
23.88000 1.779
23.90000 3.185
23.92000 3.345
23.94000 3.886
23.96000 7.944
23.98000 3.880
24.00000 1.989
24.02000 3.910
24.04000 3.483
24.06000 4.108
24.08000 8.317
24.10000 7.969
24.12000 6.665
24.14000 4.984
24.16000 0.190
24.18000 1.220
24.20000 12.283
24.22000 12.702
24.24000 9.881
24.26000 7.890
24.28000 5.690
24.30000 2.011
24.32000 -0.385
24.34000 2.072
24.36000 8.581
24.38000 10.214
24.40000 6.464
24.42000 6.022
24.44000 7.996
24.46000 7.620
24.48000 4.647
24.50000 2.507
24.52000 7.545
24.54000 4.279
24.56000 3.150
24.58000 5.311
24.60000 6.386
24.62000 -0.076
24.64000 -3.945
24.66000 0.449
24.68000 1.052
24.70000 5.718
24.72000 7.289
24.74000 8.031
24.76000 10.553
24.78000 5.182
24.80000 8.609
24.82000 8.395
24.84000 9.193
24.86000 3.421
24.88000 5.958
24.90000 8.674
24.92000 14.495
24.94000 16.348
24.96000 8.642
24.98000 4.762
25.00000 7.990
25.02000 4.044
25.04000 0.410
25.06000 4.201
25.08000 0.693
25.10000 3.192
25.12000 5.762
25.14000 4.571
25.16000 -1.761
25.18000 -1.042
25.20000 3.862
25.22000 4.490
25.24000 7.553
25.26000 3.573
25.28000 5.039
25.30000 2.829
25.32000 0.204
25.34000 2.619
25.36000 -1.900
25.38000 3.702
25.40000 10.020
25.42000 7.915
25.44000 6.293
25.46000 6.011
25.48000 0.148
25.50000 1.419
25.52000 6.356
25.54000 6.456
25.56000 2.595
25.58000 -1.950
25.60000 -2.683
25.62000 0.245
25.64000 4.680
25.66000 7.131
25.68000 9.111
25.70000 1.548
25.72000 -3.864
25.74000 0.237
25.76000 3.303
25.78000 5.427
25.80000 8.628
25.82000 1.736
25.84000 0.103
25.86000 -0.282
25.88000 0.282
25.90000 2.807
25.92000 3.586
25.94000 4.715
25.96000 4.300
25.98000 -0.565
26.00000 -3.083
26.02000 -3.906
26.04000 0.244
26.06000 5.588
26.08000 8.790
26.10000 7.910
26.12000 4.715
26.14000 4.335
26.16000 3.565
26.18000 2.130
26.20000 0.460
26.22000 -1.706
26.24000 2.207
26.26000 1.013
26.28000 0.005
26.30000 4.856
26.32000 2.356
26.34000 -3.043
26.36000 2.445
26.38000 2.490
26.40000 0.397
26.42000 2.487
26.44000 10.338
26.46000 5.695
26.48000 2.217
26.50000 1.762
26.52000 1.256
26.54000 1.160
26.56000 0.143
26.58000 1.870
26.60000 -1.731
26.62000 -0.493
26.64000 2.270
26.66000 2.538
26.68000 2.835
26.70000 8.933
26.72000 3.456
26.74000 1.202
26.76000 3.000
26.78000 4.140
26.80000 4.975
26.82000 0.266
26.84000 -2.501
26.86000 -0.075
26.88000 2.103
26.90000 0.136
26.92000 2.803
26.94000 7.253
26.96000 4.885
26.98000 0.432
27.00000 -3.835
27.02000 -0.522
27.04000 1.079
27.06000 -0.481
27.08000 2.097
27.10000 5.396
27.12000 2.829
27.14000 1.703
27.16000 4.459
27.18000 -1.200
27.20000 -1.070
27.22000 3.276
27.24000 3.590
27.26000 0.424
27.28000 5.725
27.30000 -0.416
27.32000 -2.534
27.34000 6.918
27.36000 6.631
27.38000 6.837
27.40000 0.451
27.42000 4.330
27.44000 5.603
27.46000 5.794
27.48000 1.439
27.50000 -3.828
27.52000 0.482
27.54000 1.969
27.56000 0.259
27.58000 -1.849
27.60000 0.956
27.62000 3.248
27.64000 3.543
27.66000 -1.604
27.68000 3.599
27.70000 10.339
27.72000 6.383
27.74000 4.173
27.76000 1.237
27.78000 1.035
27.80000 0.753
27.82000 0.134
27.84000 0.907
27.86000 -2.181
27.88000 2.997
27.90000 2.863
27.92000 3.429
27.94000 -0.035
27.96000 6.590
27.98000 5.329
28.00000 2.338
28.02000 5.323
28.04000 3.961
28.06000 -1.187
28.08000 2.229
28.10000 1.980
28.12000 -0.906
28.14000 -2.781
28.16000 -2.374
28.18000 -0.061
28.20000 2.516
28.22000 3.051
28.24000 1.030
28.26000 3.069
28.28000 0.471
28.30000 4.112
28.32000 4.087
28.34000 6.878
28.36000 11.580
28.38000 7.900
28.40000 -0.430
28.42000 -1.726
28.44000 3.458
28.46000 3.559
28.48000 1.790
28.50000 7.256
28.52000 10.430
28.54000 4.886
28.56000 3.133
28.58000 1.695
28.60000 0.376
28.62000 3.907
28.64000 11.365
28.66000 4.468
28.68000 -3.753
28.70000 1.399
28.72000 6.166
28.74000 4.450
28.76000 5.717
28.78000 7.844
28.80000 6.053
28.82000 2.914
28.84000 6.887
28.86000 5.116
28.88000 2.982
28.90000 5.428
28.92000 5.491
28.94000 2.793
28.96000 10.863
28.98000 10.717
29.00000 4.125
29.02000 -0.667
29.04000 0.798
29.06000 -1.651
29.08000 6.159
29.10000 5.260
29.12000 1.272
29.14000 -3.714
29.16000 2.409
29.18000 1.001
29.20000 5.084
29.22000 3.183
29.24000 4.707
29.26000 6.199
29.28000 4.756
29.30000 -0.777
29.32000 1.554
29.34000 5.587
29.36000 6.341
29.38000 11.215
29.40000 6.465
29.42000 5.249
29.44000 3.387
29.46000 4.694
29.48000 3.198
29.50000 6.168
29.52000 5.385
29.54000 6.391
29.56000 6.309
29.58000 4.540
29.60000 0.885
29.62000 6.136
29.64000 5.271
29.66000 2.091
29.68000 6.480
29.70000 8.810
29.72000 4.983
29.74000 5.867
29.76000 4.351
29.78000 0.270
29.80000 0.747
29.82000 4.748
29.84000 7.016
29.86000 7.375
29.88000 8.004
29.90000 6.730
29.92000 0.999
29.94000 3.448
29.96000 2.837
29.98000 4.242
30.00000 7.993
30.02000 6.920
30.04000 4.421
30.06000 1.598
30.08000 0.020
30.10000 -3.690
30.12000 2.296
30.14000 7.102
30.16000 6.546
30.18000 8.326
30.20000 8.735
30.22000 4.931
30.24000 2.822
30.26000 4.772
30.28000 -0.151
30.30000 -1.514
30.32000 2.628
30.34000 2.759
30.36000 0.883
30.38000 4.291
30.40000 6.975
30.42000 5.614
30.44000 2.432
30.46000 1.889
30.48000 -0.972
30.50000 6.135
30.52000 9.394
30.54000 5.986
30.56000 1.452
30.58000 2.399
30.60000 2.758
30.62000 1.299
30.64000 0.200
30.66000 1.144
30.68000 2.593
30.70000 6.478
30.72000 7.665
30.74000 6.051
30.76000 7.441
30.78000 9.332
30.80000 0.313
30.82000 0.437
30.84000 1.245
30.86000 2.705
30.88000 -0.238
30.90000 2.712
30.92000 6.767
30.94000 5.300
30.96000 3.153
30.98000 2.058
31.00000 0.795
31.02000 -3.651
31.04000 -1.353
31.06000 4.105
31.08000 3.437
31.10000 2.910
31.12000 2.468
31.14000 2.996
31.16000 3.200
31.18000 1.367
31.20000 0.117
31.22000 4.578
31.24000 7.657
31.26000 7.909
31.28000 5.393
31.30000 2.802
31.32000 4.874
31.34000 2.806
31.36000 3.117
31.38000 7.551
31.40000 4.875
31.42000 6.206
31.44000 7.142
31.46000 5.501
31.48000 5.115
31.50000 5.217
31.52000 5.575
31.54000 2.851
31.56000 5.733
31.58000 3.766
31.60000 0.477
31.62000 6.597
31.64000 -0.088
31.66000 0.853
31.68000 0.248
31.70000 -3.608
31.72000 1.984
31.74000 4.188
31.76000 -0.218
31.78000 2.804
31.80000 3.813
31.82000 -0.768
31.84000 5.376
31.86000 6.245
31.88000 2.580
31.90000 3.105
31.92000 1.520
31.94000 2.783
31.96000 1.509
31.98000 -0.522
32.00000 -1.937
32.02000 2.329
32.04000 6.767
32.06000 5.919
32.08000 5.918
32.10000 1.016
32.12000 1.909
32.14000 3.546
32.16000 2.911
32.18000 3.925
32.20000 1.443
32.22000 2.914
32.24000 -0.901
32.26000 -0.020
32.28000 7.153
32.30000 4.744
32.32000 -1.760
32.34000 0.031
32.36000 7.802
32.38000 7.022
32.40000 2.020
32.42000 3.406
32.44000 6.722
32.46000 7.536
32.48000 1.114
32.50000 0.634
32.52000 1.347
32.54000 1.913
32.56000 -3.594
32.58000 -0.738
32.60000 1.774
32.62000 6.831
32.64000 4.725
32.66000 6.840
32.68000 7.203
32.70000 6.426
32.72000 3.608
32.74000 5.380
32.76000 3.194
32.78000 6.627
32.80000 1.683
32.82000 1.579
32.84000 1.524
32.86000 1.329
32.88000 -3.138
32.90000 -0.203
32.92000 4.541
32.94000 3.489
32.96000 1.925
32.98000 -1.017
33.00000 0.526
33.02000 -3.580
33.04000 -1.228
33.06000 2.672
33.08000 2.811
33.10000 5.188
33.12000 3.429
33.14000 0.408
33.16000 2.439
33.18000 2.273
33.20000 2.175
33.22000 1.856
33.24000 -2.379
33.26000 0.191
33.28000 4.559
33.30000 9.459
33.32000 6.940
33.34000 0.491
33.36000 3.787
33.38000 3.851
33.40000 -1.710
33.42000 -1.420
33.44000 -2.096
33.46000 0.121
33.48000 0.265
33.50000 -2.994
33.52000 5.324
33.54000 5.826
33.56000 5.324
33.58000 4.166
33.60000 3.212
33.62000 6.620
33.64000 6.876
33.66000 4.124
33.68000 5.911
33.70000 8.009
33.72000 4.957
33.74000 4.841
33.76000 1.908
33.78000 -1.099
33.80000 3.462
33.82000 3.196
33.84000 1.601
33.86000 2.032
33.88000 6.827
33.90000 10.515
33.92000 8.664
33.94000 6.087
33.96000 4.997
33.98000 3.793
34.00000 5.438
34.02000 6.076
34.04000 2.925
34.06000 3.061
34.08000 7.260
34.10000 1.120
34.12000 0.252
34.14000 -1.247
34.16000 1.539
34.18000 3.020
34.20000 3.709
34.22000 1.513
34.24000 4.212
34.26000 5.752
34.28000 3.386
34.30000 7.811
34.32000 8.369
34.34000 3.822
34.36000 -0.054
34.38000 1.022
34.40000 4.292
34.42000 0.366
34.44000 -1.156
34.46000 2.615
34.48000 5.389
34.50000 3.584
34.52000 5.563
34.54000 7.336
34.56000 4.435
34.58000 5.545
34.60000 8.230
34.62000 5.517
34.64000 0.943
34.66000 3.265
34.68000 2.388
34.70000 2.295
34.72000 5.247
34.74000 2.576
34.76000 -0.616
34.78000 2.975
34.80000 -0.731
34.82000 -2.007
34.84000 1.757
34.86000 7.597
34.88000 4.874
34.90000 6.888
34.92000 8.540
34.94000 7.919
34.96000 5.750
34.98000 4.405
35.00000 5.247
35.02000 2.306
35.04000 5.088
35.06000 7.550
35.08000 5.045
35.10000 2.435
35.12000 -3.491
35.14000 -1.895
35.16000 2.414
35.18000 3.416
35.20000 0.770
35.22000 1.764
35.24000 4.004
35.26000 7.003
35.28000 5.708
35.30000 2.894
35.32000 2.450
35.34000 2.930
35.36000 3.594
35.38000 2.268
35.40000 3.449
35.42000 8.573
35.44000 8.001
35.46000 3.002
35.48000 -0.565
35.50000 5.068
35.52000 5.221
35.54000 4.952
35.56000 -0.714
35.58000 -0.169
35.60000 2.856
35.62000 -0.046
35.64000 1.322
35.66000 5.902
35.68000 5.975
35.70000 4.834
35.72000 5.934
35.74000 6.583
35.76000 4.706
35.78000 0.849
35.80000 6.010
35.82000 5.104
35.84000 4.883
35.86000 5.333
35.88000 4.887
35.90000 1.554
35.92000 -3.508
35.94000 -1.139
35.96000 3.282
35.98000 3.641
36.00000 4.603
36.02000 1.615
36.04000 0.600
36.06000 2.931
36.08000 4.771
36.10000 3.321
36.12000 4.779
36.14000 5.644
36.16000 3.543
36.18000 5.541
36.20000 1.661
36.22000 1.111
36.24000 3.493
36.26000 -0.998
36.28000 1.030
36.30000 7.192
36.32000 6.573
36.34000 4.749
36.36000 7.435
36.38000 6.289
36.40000 5.785
36.42000 3.719
36.44000 1.305
36.46000 5.189
36.48000 2.856
36.50000 3.025
36.52000 3.041
36.54000 3.805
36.56000 4.941
36.58000 6.289
36.60000 1.838
36.62000 -2.317
36.64000 -0.273
36.66000 6.225
36.68000 6.595
36.70000 -0.966
36.72000 -3.506
36.74000 2.245
36.76000 4.165
36.78000 1.267
36.80000 1.891
36.82000 3.305
36.84000 6.047
36.86000 5.191
36.88000 4.604
36.90000 2.840
36.92000 0.294
36.94000 -3.513
36.96000 1.814
36.98000 -2.861
37.00000 -2.903
37.02000 2.323
37.04000 1.042
37.06000 3.195
37.08000 7.244
37.10000 5.962
37.12000 3.499
37.14000 3.013
37.16000 1.535
37.18000 4.626
37.20000 5.426
37.22000 0.374
37.24000 1.310
37.26000 2.152
37.28000 0.001
37.30000 0.952
37.32000 -1.468
37.34000 -1.010
37.36000 -1.101
37.38000 0.813
37.40000 -3.569
37.42000 0.632
37.44000 1.793
37.46000 1.575
37.48000 5.837
37.50000 2.929
37.52000 -0.806
37.54000 2.236
37.56000 4.898
37.58000 1.619
37.60000 3.857
37.62000 4.876
37.64000 2.001
37.66000 4.413
37.68000 3.154
37.70000 1.408
37.72000 3.477
37.74000 2.656
37.76000 5.489
37.78000 4.059
37.80000 3.905
37.82000 7.476
37.84000 4.399
37.86000 2.727
37.88000 1.810
37.90000 6.883
37.92000 7.140
37.94000 3.071
37.96000 4.940
37.98000 7.142
38.00000 8.359
38.02000 5.958
38.04000 5.188
38.06000 6.716
38.08000 3.322
38.10000 5.684
38.12000 10.749
38.14000 11.432
38.16000 12.192
38.18000 5.888
38.20000 7.180
38.22000 11.338
38.24000 13.013
38.26000 11.150
38.28000 10.879
38.30000 9.413
38.32000 8.735
38.34000 13.230
38.36000 14.723
38.38000 17.959
38.40000 16.053
38.42000 13.403
38.44000 14.920
38.46000 19.424
38.48000 20.008
38.50000 14.016
38.52000 13.581
38.54000 18.838
38.56000 11.623
38.58000 15.736
38.60000 21.048
38.62000 15.412
38.64000 16.377
38.66000 27.647
38.68000 27.351
38.70000 19.237
38.72000 20.037
38.74000 24.158
38.76000 22.759
38.78000 20.928
38.80000 25.190
38.82000 26.369
38.84000 24.980
38.86000 26.834
38.88000 27.995
38.90000 29.861
38.92000 31.709
38.94000 32.042
38.96000 30.434
38.98000 33.301
39.00000 32.112
39.02000 38.048
39.04000 37.257
39.06000 34.137
39.08000 39.161
39.10000 37.106
39.12000 39.181
39.14000 42.192
39.16000 43.199
39.18000 48.877
39.20000 50.813
39.22000 55.769
39.24000 55.423
39.26000 58.654
39.28000 62.204
39.30000 62.425
39.32000 65.766
39.34000 68.413
39.36000 68.381
39.38000 73.617
39.40000 77.836
39.42000 83.220
39.44000 85.329
39.46000 84.594
39.48000 89.061
39.50000 94.961
39.52000 99.776
39.54000 109.399
39.56000 110.004
39.58000 110.079
39.60000 123.864
39.62000 129.767
39.64000 132.489
39.66000 138.279
39.68000 145.258
39.70000 155.887
39.72000 162.680
39.74000 173.200
39.76000 183.130
39.78000 194.568
39.80000 206.775
39.82000 211.190
39.84000 220.358
39.86000 231.405
39.88000 247.290
39.90000 264.897
39.92000 275.053
39.94000 291.031
39.96000 313.937
39.98000 322.970
40.00000 333.550
40.02000 351.466
40.04000 372.205
40.06000 387.629
40.08000 401.950
40.10000 417.831
40.12000 445.031
40.14000 464.656
40.16000 468.630
40.18000 479.402
40.20000 501.995
40.22000 520.604
40.24000 539.773
40.26000 551.701
40.28000 566.870
40.30000 569.170
40.32000 565.972
40.34000 570.765
40.36000 582.338
40.38000 576.934
40.40000 580.983
40.42000 590.010
40.44000 577.754
40.46000 566.383
40.48000 561.341
40.50000 555.802
40.52000 550.557
40.54000 533.841
40.56000 520.301
40.58000 509.802
40.60000 490.307
40.62000 482.372
40.64000 467.755
40.66000 448.085
40.68000 436.418
40.70000 423.797
40.72000 407.647
40.74000 390.094
40.76000 370.540
40.78000 359.708
40.80000 341.379
40.82000 326.440
40.84000 310.361
40.86000 291.794
40.88000 280.578
40.90000 270.054
40.92000 256.407
40.94000 239.063
40.96000 231.844
40.98000 222.845
41.00000 210.004
41.02000 195.853
41.04000 182.896
41.06000 175.751
41.08000 169.208
41.10000 160.362
41.12000 145.912
41.14000 139.179
41.16000 139.197
41.18000 133.607
41.20000 124.179
41.22000 114.238
41.24000 110.403
41.26000 105.869
41.28000 101.017
41.30000 93.956
41.32000 88.546
41.34000 83.118
41.36000 79.065
41.38000 76.241
41.40000 66.027
41.42000 69.239
41.44000 66.823
41.46000 59.234
41.48000 54.257
41.50000 52.983
41.52000 48.520
41.54000 45.826
41.56000 48.376
41.58000 46.088
41.60000 40.689
41.62000 40.348
41.64000 35.400
41.66000 36.456
41.68000 38.830
41.70000 35.728
41.72000 35.351
41.74000 34.413
41.76000 28.859
41.78000 26.674
41.80000 28.810
41.82000 25.918
41.84000 23.424
41.86000 21.682
41.88000 24.556
41.90000 23.045
41.92000 21.283
41.94000 18.269
41.96000 18.679
41.98000 11.587
42.00000 12.649
42.02000 18.628
42.04000 19.643
42.06000 10.525
42.08000 8.610
42.10000 15.631
42.12000 13.299
42.14000 12.900
42.16000 12.466
42.18000 11.849
42.20000 17.124
42.22000 13.472
42.24000 11.132
42.26000 8.977
42.28000 10.374
42.30000 5.733
42.32000 8.566
42.34000 9.698
42.36000 7.258
42.38000 7.196
42.40000 4.016
42.42000 2.568
42.44000 2.419
42.46000 3.288
42.48000 2.676
42.50000 6.393
42.52000 3.237
42.54000 7.572
42.56000 3.978
42.58000 6.033
42.60000 0.272
42.62000 1.248
42.64000 6.573
42.66000 5.944
42.68000 5.802
42.70000 2.403
42.72000 0.750
42.74000 2.256
42.76000 3.368
42.78000 2.857
42.80000 4.651
42.82000 5.257
42.84000 -3.504
42.86000 -2.913
42.88000 0.047
42.90000 1.974
42.92000 3.049
42.94000 1.126
42.96000 1.430
42.98000 4.335
43.00000 2.741
43.02000 0.393
43.04000 0.302
43.06000 -1.416
43.08000 -0.090
43.10000 -1.595
43.12000 -2.156
43.14000 0.069
43.16000 2.552
43.18000 0.977
43.20000 2.945
43.22000 0.875
43.24000 -2.362
43.26000 0.098
43.28000 -2.468
43.30000 -2.675
43.32000 -3.003
43.34000 -1.338
43.36000 -0.930
43.38000 -3.422
43.40000 -2.965
43.42000 -0.846
43.44000 2.068
43.46000 1.418
43.48000 1.225
43.50000 3.717
43.52000 -0.163
43.54000 0.243
43.56000 -1.575
43.58000 0.498
43.60000 3.017
43.62000 0.899
43.64000 3.313
43.66000 3.180
43.68000 2.578
43.70000 -0.520
43.72000 1.470
43.74000 3.843
43.76000 -1.663
43.78000 -3.391
43.80000 2.991
43.82000 6.552
43.84000 4.690
43.86000 -2.483
43.88000 -3.137
43.90000 -0.416
43.92000 1.156
43.94000 -1.276
43.96000 -0.454
43.98000 -2.527
44.00000 0.746
44.02000 3.169
44.04000 2.076
44.06000 4.443
44.08000 5.323
44.10000 3.082
44.12000 -1.347
44.14000 -1.162
44.16000 -1.938
44.18000 -0.824
44.20000 0.313
44.22000 1.984
44.24000 0.238
44.26000 -1.561
44.28000 -1.169
44.30000 -0.576
44.32000 -2.963
44.34000 -0.271
44.36000 6.281
44.38000 2.618
44.40000 1.889
44.42000 2.862
44.44000 0.739
44.46000 -1.572
44.48000 -0.423
44.50000 0.273
44.52000 1.688
44.54000 1.699
44.56000 -1.128
44.58000 1.006
44.60000 3.246
44.62000 -1.430
44.64000 -3.180
44.66000 -1.977
44.68000 -3.348
44.70000 -2.896
44.72000 -0.937
44.74000 2.170
44.76000 2.022
44.78000 -0.110
44.80000 -0.245
44.82000 1.280
44.84000 1.252
44.86000 -3.244
44.88000 -1.203
44.90000 2.754
44.92000 2.691
44.94000 4.004
44.96000 3.729
44.98000 1.717
45.00000 2.389
45.02000 2.346
45.04000 2.331
45.06000 5.476
45.08000 5.057
45.10000 5.999
45.12000 3.503
45.14000 3.448
45.16000 6.334
45.18000 7.257
45.20000 7.200
45.22000 8.165
45.24000 1.659
45.26000 0.639
45.28000 4.154
45.30000 2.634
45.32000 2.762
45.34000 2.280
45.36000 4.413
45.38000 6.666
45.40000 13.519
45.42000 7.629
45.44000 6.320
45.46000 9.235
45.48000 10.997
45.50000 11.806
45.52000 13.561
45.54000 15.479
45.56000 16.821
45.58000 16.226
45.60000 18.052
45.62000 13.846
45.64000 8.922
45.66000 8.084
45.68000 13.954
45.70000 18.377
45.72000 18.876
45.74000 16.992
45.76000 12.527
45.78000 17.794
45.80000 18.472
45.82000 20.490
45.84000 16.864
45.86000 20.144
45.88000 21.627
45.90000 17.455
45.92000 17.201
45.94000 17.744
45.96000 26.497
45.98000 22.451
46.00000 24.931
46.02000 26.823
46.04000 30.883
46.06000 37.353
46.08000 37.918
46.10000 40.411
46.12000 34.193
46.14000 35.816
46.16000 35.742
46.18000 34.219
46.20000 38.806
46.22000 41.519
46.24000 42.520
46.26000 43.290
46.28000 45.003
46.30000 49.479
46.32000 51.425
46.34000 54.438
46.36000 58.247
46.38000 57.173
46.40000 52.117
46.42000 57.580
46.44000 57.894
46.46000 56.193
46.48000 59.213
46.50000 66.496
46.52000 74.615
46.54000 70.091
46.56000 68.461
46.58000 68.106
46.60000 66.931
46.62000 73.197
46.64000 70.947
46.66000 76.158
46.68000 87.226
46.70000 85.969
46.72000 91.607
46.74000 92.915
46.76000 83.522
46.78000 80.869
46.80000 85.740
46.82000 88.063
46.84000 87.401
46.86000 86.310
46.88000 101.280
46.90000 98.636
46.92000 96.024
46.94000 97.302
46.96000 99.291
46.98000 103.994
47.00000 99.457
47.02000 94.562
47.04000 96.343
47.06000 89.567
47.08000 94.649
47.10000 101.523
47.12000 102.088
47.14000 93.619
47.16000 96.757
47.18000 93.214
47.20000 91.523
47.22000 96.982
47.24000 93.120
47.26000 85.718
47.28000 81.619
47.30000 85.053
47.32000 89.297
47.34000 83.490
47.36000 82.896
47.38000 81.250
47.40000 78.638
47.42000 75.525
47.44000 74.804
47.46000 76.033
47.48000 72.631
47.50000 66.293
47.52000 65.229
47.54000 67.206
47.56000 58.479
47.58000 57.948
47.60000 52.725
47.62000 50.838
47.64000 46.150
47.66000 45.632
47.68000 48.599
47.70000 51.908
47.72000 48.153
47.74000 42.838
47.76000 42.511
47.78000 42.806
47.80000 41.859
47.82000 41.686
47.84000 39.094
47.86000 36.639
47.88000 36.518
47.90000 33.828
47.92000 30.595
47.94000 26.956
47.96000 24.595
47.98000 30.753
48.00000 26.901
48.02000 23.788
48.04000 19.944
48.06000 18.084
48.08000 15.017
48.10000 11.459
48.12000 17.736
48.14000 19.940
48.16000 20.812
48.18000 24.258
48.20000 16.433
48.22000 10.869
48.24000 17.173
48.26000 12.461
48.28000 11.061
48.30000 12.221
48.32000 9.582
48.34000 7.638
48.36000 12.818
48.38000 12.216
48.40000 9.903
48.42000 9.472
48.44000 11.726
48.46000 8.878
48.48000 4.886
48.50000 5.145
48.52000 4.524
48.54000 6.521
48.56000 9.939
48.58000 6.539
48.60000 7.831
48.62000 7.640
48.64000 7.726
48.66000 9.327
48.68000 9.885
48.70000 6.181
48.72000 6.188
48.74000 4.709
48.76000 2.725
48.78000 1.457
48.80000 -1.054
48.82000 -2.945
48.84000 3.987
48.86000 4.484
48.88000 2.241
48.90000 2.262
48.92000 5.458
48.94000 4.112
48.96000 0.469
48.98000 -2.908
49.00000 2.036
49.02000 7.073
49.04000 6.696
49.06000 3.033
49.08000 4.032
49.10000 8.358
49.12000 9.212
49.14000 2.580
49.16000 3.810
49.18000 -0.840
49.20000 -1.381
49.22000 0.868
49.24000 3.447
49.26000 4.020
49.28000 3.088
49.30000 1.468
49.32000 6.275
49.34000 6.883
49.36000 7.388
49.38000 4.434
49.40000 6.183
49.42000 3.613
49.44000 2.493
49.46000 4.020
49.48000 7.163
49.50000 4.743
49.52000 2.848
49.54000 -2.861
49.56000 -2.152
49.58000 2.795
49.60000 4.919
49.62000 0.168
49.64000 0.064
49.66000 1.025
49.68000 3.986
49.70000 0.473
49.72000 0.001
49.74000 1.081
49.76000 4.561
49.78000 1.561
49.80000 4.834
49.82000 4.543
49.84000 0.270
49.86000 4.803
49.88000 8.048
49.90000 6.956
49.92000 2.374
49.94000 -2.339
49.96000 -0.427
49.98000 2.388
50.00000 -0.305
50.02000 3.505
50.04000 3.265
50.06000 6.657
50.08000 5.748
50.10000 5.759
50.12000 3.340
50.14000 1.709
50.16000 6.382
50.18000 6.400
50.20000 1.597
50.22000 0.565
50.24000 0.500
50.26000 2.212
50.28000 -1.489
50.30000 3.595
50.32000 2.862
50.34000 2.920
50.36000 0.193
50.38000 1.073
50.40000 -2.799
50.42000 3.788
50.44000 4.081
50.46000 2.429
50.48000 -0.239
50.50000 1.160
50.52000 0.221
50.54000 4.202
50.56000 3.011
50.58000 1.328
50.60000 -0.281
50.62000 3.590
50.64000 -2.782
50.66000 0.311
50.68000 2.330
50.70000 6.224
50.72000 5.988
50.74000 3.479
50.76000 1.935
50.78000 0.974
50.80000 0.605
50.82000 6.152
50.84000 5.011
50.86000 3.568
50.88000 0.654
50.90000 -2.761
50.92000 1.075
50.94000 3.506
50.96000 5.656
50.98000 3.202
51.00000 1.563
51.02000 -0.120
51.04000 -0.148
51.06000 0.579
51.08000 -1.391
51.10000 1.531
51.12000 2.928
51.14000 -0.964
51.16000 -2.750
51.18000 -1.813
51.20000 2.028
51.22000 3.710
51.24000 1.671
51.26000 1.598
51.28000 0.919
51.30000 2.219
51.32000 -1.051
51.34000 1.226
51.36000 3.765
51.38000 0.790
51.40000 2.237
51.42000 3.218
51.44000 6.591
51.46000 5.151
51.48000 7.383
51.50000 3.233
51.52000 0.132
51.54000 4.082
51.56000 4.375
51.58000 3.472
51.60000 3.310
51.62000 2.577
51.64000 0.853
51.66000 -0.065
51.68000 3.936
51.70000 5.203
51.72000 2.110
51.74000 2.142
51.76000 -1.417
51.78000 4.134
51.80000 5.237
51.82000 4.690
51.84000 5.929
51.86000 6.368
51.88000 2.963
51.90000 1.866
51.92000 3.503
51.94000 4.652
51.96000 1.543
51.98000 -0.240
52.00000 3.365
52.02000 3.896
52.04000 6.537
52.06000 6.361
52.08000 5.506
52.10000 2.925
52.12000 5.592
52.14000 7.586
52.16000 9.177
52.18000 4.608
52.20000 2.786
52.22000 0.333
52.24000 -2.673
52.26000 1.533
52.28000 6.870
52.30000 5.567
52.32000 6.990
52.34000 6.818
52.36000 4.992
52.38000 7.897
52.40000 4.881
52.42000 8.087
52.44000 3.946
52.46000 5.306
52.48000 0.961
52.50000 1.262
52.52000 2.981
52.54000 1.436
52.56000 2.795
52.58000 7.155
52.60000 7.123
52.62000 4.899
52.64000 4.914
52.66000 2.939
52.68000 6.355
52.70000 11.109
52.72000 9.444
52.74000 5.194
52.76000 1.224
52.78000 2.579
52.80000 0.791
52.82000 -2.649
52.84000 0.479
52.86000 3.756
52.88000 4.523
52.90000 4.811
52.92000 4.125
52.94000 5.515
52.96000 9.853
52.98000 13.109
53.00000 9.559
53.02000 3.769
53.04000 1.415
53.06000 5.729
53.08000 4.219
53.10000 2.461
53.12000 2.885
53.14000 2.280
53.16000 4.826
53.18000 5.204
53.20000 2.741
53.22000 4.501
53.24000 4.091
53.26000 3.330
53.28000 0.626
53.30000 0.513
53.32000 2.269
53.34000 -0.193
53.36000 4.159
53.38000 7.146
53.40000 2.686
53.42000 4.317
53.44000 5.779
53.46000 6.229
53.48000 5.458
53.50000 6.482
53.52000 4.274
53.54000 1.995
53.56000 1.243
53.58000 5.085
53.60000 4.842
53.62000 2.600
53.64000 3.207
53.66000 1.876
53.68000 3.488
53.70000 5.860
53.72000 5.426
53.74000 0.953
53.76000 3.256
53.78000 6.285
53.80000 4.022
53.82000 2.138
53.84000 7.093
53.86000 3.860
53.88000 0.569
53.90000 0.068
53.92000 1.703
53.94000 2.670
53.96000 4.978
53.98000 2.126
54.00000 -0.021
54.02000 4.319
54.04000 4.788
54.06000 5.696
54.08000 0.831
54.10000 1.455
54.12000 3.011
54.14000 2.719
54.16000 3.722
54.18000 5.412
54.20000 6.082
54.22000 4.451
54.24000 1.664
54.26000 6.289
54.28000 8.447
54.30000 3.662
54.32000 -1.081
54.34000 2.457
54.36000 0.958
54.38000 -2.631
54.40000 2.604
54.42000 1.657
54.44000 1.929
54.46000 2.332
54.48000 5.952
54.50000 1.961
54.52000 5.501
54.54000 4.065
54.56000 4.309
54.58000 0.585
54.60000 2.836
54.62000 5.518
54.64000 0.383
54.66000 -0.914
54.68000 0.629
54.70000 2.147
54.72000 0.293
54.74000 0.301
54.76000 -0.157
54.78000 -0.520
54.80000 2.787
54.82000 5.533
54.84000 5.737
54.86000 7.900
54.88000 4.291
54.90000 5.365
54.92000 2.246
54.94000 1.469
54.96000 2.098
54.98000 1.049
55.00000 0.281
55.02000 1.844
55.04000 2.509
55.06000 2.212
55.08000 1.640
55.10000 0.437
55.12000 2.798
55.14000 2.871
55.16000 3.181
55.18000 4.842
55.20000 4.725
55.22000 0.302
55.24000 1.416
55.26000 3.365
55.28000 4.699
55.30000 6.393
55.32000 7.955
55.34000 2.231
55.36000 1.342
55.38000 2.860
55.40000 3.274
55.42000 -0.406
55.44000 -0.773
55.46000 3.378
55.48000 5.694
55.50000 2.095
55.52000 2.488
55.54000 -2.612
55.56000 0.615
55.58000 4.391
55.60000 4.292
55.62000 3.620
55.64000 3.700
55.66000 5.220
55.68000 2.037
55.70000 2.177
55.72000 0.781
55.74000 0.232
55.76000 1.284
55.78000 5.955
55.80000 6.583
55.82000 7.842
55.84000 3.898
55.86000 3.378
55.88000 5.037
55.90000 5.514
55.92000 -0.177
55.94000 2.319
55.96000 9.046
55.98000 5.171
56.00000 -0.922
56.02000 0.893
56.04000 1.207
56.06000 2.716
56.08000 6.834
56.10000 5.084
56.12000 0.460
56.14000 0.364
56.16000 1.987
56.18000 5.525
56.20000 5.881
56.22000 4.294
56.24000 6.373
56.26000 3.220
56.28000 2.534
56.30000 5.472
56.32000 4.036
56.34000 -1.311
56.36000 -0.302
56.38000 3.881
56.40000 2.553
56.42000 7.106
56.44000 5.458
56.46000 7.459
56.48000 5.058
56.50000 5.434
56.52000 6.139
56.54000 7.785
56.56000 3.341
56.58000 5.118
56.60000 4.534
56.62000 -1.157
56.64000 -2.541
56.66000 2.137
56.68000 4.079
56.70000 6.327
56.72000 5.764
56.74000 4.590
56.76000 8.599
56.78000 11.115
56.80000 7.736
56.82000 -1.051
56.84000 0.790
56.86000 5.269
56.88000 5.325
56.90000 4.083
56.92000 1.130
56.94000 -0.480
56.96000 -0.233
56.98000 1.121
57.00000 5.324
57.02000 5.254
57.04000 6.112
57.06000 2.434
57.08000 2.040
57.10000 2.881
57.12000 3.115
57.14000 2.999
57.16000 3.087
57.18000 2.343
57.20000 0.450
57.22000 4.017
57.24000 6.294
57.26000 1.980
57.28000 4.489
57.30000 0.752
57.32000 1.141
57.34000 4.239
57.36000 -2.533
57.38000 1.844
57.40000 5.535
57.42000 4.334
57.44000 2.618
57.46000 0.468
57.48000 2.957
57.50000 5.900
57.52000 3.785
57.54000 3.537
57.56000 4.028
57.58000 4.071
57.60000 7.552
57.62000 8.423
57.64000 7.332
57.66000 7.467
57.68000 3.492
57.70000 2.782
57.72000 -0.700
57.74000 0.412
57.76000 -0.201
57.78000 -1.863
57.80000 0.943
57.82000 3.353
57.84000 5.335
57.86000 8.049
57.88000 4.635
57.90000 1.177
57.92000 1.045
57.94000 0.561
57.96000 3.423
57.98000 4.858
58.00000 1.558
58.02000 -0.138
58.04000 3.025
58.06000 6.087
58.08000 2.563
58.10000 0.290
58.12000 1.334
58.14000 4.022
58.16000 5.258
58.18000 2.591
58.20000 -0.247
58.22000 0.234
58.24000 -1.861
58.26000 -0.516
58.28000 2.050
58.30000 -0.547
58.32000 0.401
58.34000 1.351
58.36000 2.552
58.38000 5.479
58.40000 2.573
58.42000 5.234
58.44000 5.488
58.46000 3.647
58.48000 2.675
58.50000 -0.014
58.52000 -0.806
58.54000 -0.847
58.56000 -0.262
58.58000 1.255
58.60000 1.375
58.62000 6.707
58.64000 5.637
58.66000 6.308
58.68000 2.776
58.70000 1.117
58.72000 2.892
58.74000 3.481
58.76000 2.893
58.78000 4.975
58.80000 2.874
58.82000 -0.288
58.84000 3.671
58.86000 5.696
58.88000 4.695
58.90000 5.974
58.92000 0.442
58.94000 -1.123
58.96000 3.762
58.98000 7.864
59.00000 8.316
59.02000 10.600
59.04000 6.199
59.06000 5.313
59.08000 6.030
59.10000 0.145
59.12000 -2.469
59.14000 4.757
59.16000 7.220
59.18000 4.656
59.20000 4.497
59.22000 3.233
59.24000 3.120
59.26000 2.667
59.28000 4.124
59.30000 4.006
59.32000 5.637
59.34000 4.299
59.36000 0.967
59.38000 2.340
59.40000 3.978
59.42000 3.949
59.44000 3.922
59.46000 2.534
59.48000 3.394
59.50000 0.298
59.52000 1.556
59.54000 -1.335
59.56000 3.130
59.58000 5.294
59.60000 4.460
59.62000 4.612
59.64000 3.723
59.66000 0.200
59.68000 0.062
59.70000 1.691
59.72000 0.755
59.74000 -0.180
59.76000 0.078
59.78000 3.727
59.80000 2.666
59.82000 5.023
59.84000 2.205
59.86000 2.355
59.88000 4.145
59.90000 6.567
59.92000 1.383
59.94000 0.525
59.96000 0.082
59.98000 0.850
60.00000 -0.398
60.02000 1.647
60.04000 3.319
60.06000 1.771
60.08000 5.766
60.10000 5.572
60.12000 2.240
60.14000 -1.087
60.16000 -0.226
60.18000 3.159
60.20000 0.534
60.22000 1.815
60.24000 2.725
60.26000 1.768
60.28000 1.620
60.30000 2.426
60.32000 4.554
60.34000 4.938
60.36000 7.230
60.38000 1.283
60.40000 -2.470
60.42000 -0.022
60.44000 2.790
60.46000 1.778
60.48000 3.227
60.50000 1.417
60.52000 0.474
60.54000 1.938
60.56000 1.069
60.58000 2.038
60.60000 2.266
60.62000 -0.589
60.64000 1.414
60.66000 3.104
60.68000 1.031
60.70000 3.678
60.72000 1.546
60.74000 1.715
60.76000 0.945
60.78000 2.260
60.80000 2.451
60.82000 1.001
60.84000 2.935
60.86000 2.511
60.88000 1.079
60.90000 -0.133
60.92000 -2.112
60.94000 -2.391
60.96000 1.384
60.98000 1.617
61.00000 -2.460
61.02000 -0.660
61.04000 -1.045
61.06000 -1.512
61.08000 1.913
61.10000 3.845
61.12000 3.097
61.14000 0.177
61.16000 2.978
61.18000 1.538
61.20000 2.196
61.22000 3.894
61.24000 3.796
61.26000 3.925
61.28000 0.440
61.30000 -1.917
61.32000 -0.258
61.34000 1.088
61.36000 5.020
61.38000 6.266
61.40000 3.130
61.42000 -0.414
61.44000 -0.057
61.46000 2.186
61.48000 4.553
61.50000 0.766
61.52000 0.499
61.54000 -0.558
61.56000 -0.548
61.58000 0.656
61.60000 4.426
61.62000 5.840
61.64000 2.836
61.66000 -1.033
61.68000 1.651
61.70000 1.374
61.72000 2.420
61.74000 5.586
61.76000 5.099
61.78000 5.027
61.80000 -1.540
61.82000 -2.419
61.84000 -0.536
61.86000 0.365
61.88000 2.450
61.90000 -0.079
61.92000 0.971
61.94000 6.289
61.96000 7.127
61.98000 1.285
62.00000 1.825
62.02000 3.388
62.04000 0.605
62.06000 0.761
62.08000 1.818
62.10000 3.530
62.12000 4.290
62.14000 3.913
62.16000 5.643
62.18000 4.809
62.20000 2.904
62.22000 4.171
62.24000 5.290
62.26000 4.221
62.28000 5.300
62.30000 5.167
62.32000 5.756
62.34000 4.808
62.36000 4.417
62.38000 4.050
62.40000 1.582
62.42000 -0.232
62.44000 -1.142
62.46000 0.971
62.48000 2.834
62.50000 0.220
62.52000 -2.165
62.54000 -1.720
62.56000 2.513
62.58000 0.094
62.60000 0.752
62.62000 0.286
62.64000 -2.419
62.66000 -0.933
62.68000 3.001
62.70000 3.975
62.72000 3.012
62.74000 2.896
62.76000 1.475
62.78000 1.689
62.80000 2.014
62.82000 2.444
62.84000 3.993
62.86000 3.261
62.88000 1.327
62.90000 2.760
62.92000 2.502
62.94000 2.285
62.96000 2.088
62.98000 2.247
63.00000 -0.407
63.02000 2.229
63.04000 -2.301
63.06000 3.750
63.08000 5.793
63.10000 4.504
63.12000 6.420
63.14000 5.164
63.16000 3.516
63.18000 2.704
63.20000 1.124
63.22000 1.694
63.24000 2.679
63.26000 0.550
63.28000 0.496
63.30000 1.573
63.32000 2.403
63.34000 3.655
63.36000 0.739
63.38000 1.749
63.40000 3.003
63.42000 1.204
63.44000 2.363
63.46000 4.442
63.48000 0.372
63.50000 -1.096
63.52000 0.693
63.54000 -0.441
63.56000 -2.408
63.58000 1.885
63.60000 3.361
63.62000 5.363
63.64000 2.210
63.66000 3.127
63.68000 2.946
63.70000 0.587
63.72000 1.226
63.74000 5.456
63.76000 5.255
63.78000 2.042
63.80000 1.733
63.82000 3.022
63.84000 5.172
63.86000 3.949
63.88000 2.537
63.90000 3.360
63.92000 3.294
63.94000 3.873
63.96000 -0.731
63.98000 1.435
64.00000 0.885
64.02000 -0.285
64.04000 -2.416
64.06000 4.816
64.08000 4.280
64.10000 2.855
64.12000 4.518
64.14000 1.421
64.16000 0.123
64.18000 2.553
64.20000 1.921
64.22000 2.441
64.24000 5.274
64.26000 5.201
64.28000 3.603
64.30000 2.292
64.32000 0.056
64.34000 2.481
64.36000 1.295
64.38000 3.562
64.40000 7.818
64.42000 1.043
64.44000 1.823
64.46000 5.255
64.48000 4.118
64.50000 1.260
64.52000 -0.073
64.54000 3.501
64.56000 4.785
64.58000 3.713
64.60000 2.047
64.62000 -0.512
64.64000 0.387
64.66000 1.528
64.68000 1.314
64.70000 0.669
64.72000 2.727
64.74000 2.569
64.76000 4.530
64.78000 3.909
64.80000 3.181
64.82000 2.914
64.84000 2.767
64.86000 1.300
64.88000 1.914
64.90000 3.052
64.92000 3.835
64.94000 5.425
64.96000 3.232
64.98000 3.980
65.00000 4.546
65.02000 6.422
65.04000 4.546
65.06000 1.217
65.08000 0.887
65.10000 -2.405
65.12000 -0.310
65.14000 -0.305
65.16000 1.976
65.18000 2.381
65.20000 2.438
65.22000 2.389
65.24000 2.221
65.26000 2.300
65.28000 2.141
65.30000 2.077
65.32000 1.606
65.34000 1.181
65.36000 0.866
65.38000 5.882
65.40000 1.387
65.42000 0.810
65.44000 4.383
65.46000 2.301
65.48000 0.620
65.50000 1.472
65.52000 -0.493
65.54000 0.375
65.56000 1.921
65.58000 1.474
65.60000 -1.397
65.62000 0.244
65.64000 1.966
65.66000 2.871
65.68000 3.116
65.70000 0.857
65.72000 3.084
65.74000 4.706
65.76000 7.023
65.78000 2.493
65.80000 0.725
65.82000 1.845
65.84000 1.575
65.86000 1.056
65.88000 2.708
65.90000 3.794
65.92000 3.278
65.94000 2.995
65.96000 -2.420
65.98000 -1.254
66.00000 0.118
66.02000 0.690
66.04000 0.554
66.06000 1.371
66.08000 1.226
66.10000 1.412
66.12000 0.269
66.14000 1.626
66.16000 3.181
66.18000 3.446
66.20000 0.746
66.22000 1.890
66.24000 1.818
66.26000 2.839
66.28000 1.366
66.30000 2.295
66.32000 2.235
66.34000 -0.316
66.36000 -0.015
66.38000 -0.758
66.40000 3.632
66.42000 4.818
66.44000 1.916
66.46000 3.599
66.48000 3.186
66.50000 0.559
66.52000 1.514
66.54000 -1.833
66.56000 -1.588
66.58000 0.316
66.60000 -0.486
66.62000 -1.658
66.64000 1.392
66.66000 0.896
66.68000 -0.051
66.70000 -1.707
66.72000 0.078
66.74000 1.244
66.76000 -2.472
66.78000 0.940
66.80000 0.841
66.82000 1.161
66.84000 1.510
66.86000 4.722
66.88000 3.523
66.90000 1.936
66.92000 0.249
66.94000 -0.344
66.96000 1.598
66.98000 2.933
67.00000 -0.757
67.02000 -0.024
67.04000 4.538
67.06000 4.325
67.08000 3.363
67.10000 2.173
67.12000 -1.494
67.14000 0.274
67.16000 -2.339
67.18000 -0.270
67.20000 0.475
67.22000 3.166
67.24000 0.358
67.26000 -0.670
67.28000 0.269
67.30000 1.182
67.32000 1.542
67.34000 3.090
67.36000 3.713
67.38000 3.772
67.40000 4.243
67.42000 5.144
67.44000 4.008
67.46000 0.248
67.48000 -2.397
67.50000 1.469
67.52000 0.532
67.54000 1.875
67.56000 6.635
67.58000 7.058
67.60000 7.835
67.62000 4.917
67.64000 4.759
67.66000 2.686
67.68000 3.577
67.70000 3.966
67.72000 1.892
67.74000 1.200
67.76000 1.408
67.78000 5.502
67.80000 3.998
67.82000 7.906
67.84000 7.433
67.86000 8.797
67.88000 8.574
67.90000 7.145
67.92000 10.147
67.94000 10.158
67.96000 13.001
67.98000 14.447
68.00000 13.683
68.02000 12.143
68.04000 15.033
68.06000 13.585
68.08000 12.597
68.10000 15.049
68.12000 16.867
68.14000 17.775
68.16000 17.765
68.18000 19.587
68.20000 21.721
68.22000 17.961
68.24000 13.603
68.26000 16.797
68.28000 20.936
68.30000 22.866
68.32000 19.824
68.34000 19.249
68.36000 20.440
68.38000 18.490
68.40000 19.102
68.42000 22.027
68.44000 22.546
68.46000 25.613
68.48000 22.723
68.50000 23.441
68.52000 24.314
68.54000 24.772
68.56000 24.843
68.58000 25.632
68.60000 21.438
68.62000 25.890
68.64000 28.100
68.66000 27.016
68.68000 25.837
68.70000 28.247
68.72000 29.272
68.74000 28.406
68.76000 26.233
68.78000 23.940
68.80000 25.753
68.82000 25.402
68.84000 21.582
68.86000 24.426
68.88000 28.490
68.90000 28.642
68.92000 27.283
68.94000 26.591
68.96000 26.591
68.98000 24.475
69.00000 21.987
69.02000 19.516
69.04000 18.201
69.06000 19.042
69.08000 20.736
69.10000 21.715
69.12000 17.363
69.14000 14.391
69.16000 14.473
69.18000 13.810
69.20000 15.565
69.22000 14.107
69.24000 12.747
69.26000 14.699
69.28000 15.103
69.30000 12.242
69.32000 15.097
69.34000 13.219
69.36000 13.467
69.38000 15.051
69.40000 13.354
69.42000 10.532
69.44000 7.226
69.46000 9.048
69.48000 7.313
69.50000 6.745
69.52000 7.463
69.54000 9.257
69.56000 2.890
69.58000 2.676
69.60000 6.892
69.62000 8.825
69.64000 8.989
69.66000 9.118
69.68000 6.587
69.70000 5.478
69.72000 1.060
69.74000 3.107
69.76000 3.079
69.78000 2.785
69.80000 7.123
69.82000 3.819
69.84000 3.883
69.86000 8.683
69.88000 11.395
69.90000 8.375
69.92000 2.659
69.94000 1.503
69.96000 7.882
69.98000 8.226
70.00000 4.689
70.02000 1.719
70.04000 -1.108
70.06000 -0.839
70.08000 0.109
70.10000 1.549
70.12000 5.410
70.14000 6.577
70.16000 2.420
70.18000 0.149
70.20000 0.642
70.22000 0.357
70.24000 1.925
70.26000 0.169
70.28000 3.085
70.30000 0.726
70.32000 -2.408
70.34000 0.739
70.36000 -0.961
70.38000 -1.130
70.40000 0.049
70.42000 0.316
70.44000 2.445
70.46000 0.851
70.48000 2.523
70.50000 3.302
70.52000 6.057
70.54000 9.932
70.56000 8.080
70.58000 6.257
70.60000 1.128
70.62000 2.323
70.64000 0.995
70.66000 4.870
70.68000 3.010
70.70000 1.152
70.72000 -0.550
70.74000 4.105
70.76000 3.217
70.78000 0.281
70.80000 -1.824
70.82000 -1.851
70.84000 1.348
70.86000 3.405
70.88000 2.558
70.90000 5.144
70.92000 2.712
70.94000 2.445
70.96000 0.846
70.98000 1.181
71.00000 -1.570
71.02000 1.264
71.04000 0.877
71.06000 5.540
71.08000 4.865
71.10000 0.418
71.12000 1.711
71.14000 3.563
71.16000 -0.751
71.18000 1.845
71.20000 3.923
71.22000 3.565
71.24000 -0.115
71.26000 3.592
71.28000 5.246
71.30000 3.111
71.32000 1.519
71.34000 4.523
71.36000 4.772
71.38000 2.190
71.40000 -2.106
71.42000 0.940
71.44000 0.087
71.46000 2.165
71.48000 2.675
71.50000 4.384
71.52000 2.816
71.54000 0.189
71.56000 0.338
71.58000 0.251
71.60000 2.535
71.62000 4.177
71.64000 3.686
71.66000 4.659
71.68000 3.485
71.70000 1.878
71.72000 4.224
71.74000 2.698
71.76000 -2.278
71.78000 -2.277
71.80000 6.733
71.82000 5.141
71.84000 2.455
71.86000 3.712
71.88000 4.674
71.90000 6.276
71.92000 3.152
71.94000 3.891
71.96000 7.661
71.98000 3.259
72.00000 4.538
72.02000 7.606
72.04000 6.032
72.06000 3.780
72.08000 -1.262
72.10000 0.946
72.12000 4.031
72.14000 3.716
72.16000 6.143
72.18000 3.293
72.20000 1.319
72.22000 1.342
72.24000 4.943
72.26000 4.797
72.28000 5.416
72.30000 1.082
72.32000 0.465
72.34000 2.723
72.36000 3.615
72.38000 2.178
72.40000 0.719
72.42000 -2.262
72.44000 2.498
72.46000 5.265
72.48000 8.566
72.50000 5.981
72.52000 3.111
72.54000 3.113
72.56000 3.267
72.58000 3.302
72.60000 1.333
72.62000 3.341
72.64000 3.609
72.66000 1.952
72.68000 2.314
72.70000 7.281
72.72000 3.781
72.74000 1.434
72.76000 0.042
72.78000 2.889
72.80000 4.129
72.82000 4.635
72.84000 2.538
72.86000 0.467
72.88000 -2.249
72.90000 3.123
72.92000 5.128
72.94000 6.291
72.96000 2.074
72.98000 3.612
73.00000 2.748
73.02000 1.146
73.04000 2.246
73.06000 2.412
73.08000 3.112
73.10000 4.370
73.12000 2.299
73.14000 4.192
73.16000 3.753
73.18000 0.042
73.20000 2.207
73.22000 2.533
73.24000 4.803
73.26000 0.126
73.28000 3.442
73.30000 3.826
73.32000 3.203
73.34000 0.679
73.36000 -0.133
73.38000 -0.931
73.40000 1.527
73.42000 6.721
73.44000 5.615
73.46000 4.238
73.48000 2.636
73.50000 4.023
73.52000 5.140
73.54000 3.482
73.56000 3.125
73.58000 5.074
73.60000 7.564
73.62000 5.985
73.64000 4.643
73.66000 3.455
73.68000 12.382
73.70000 7.783
73.72000 5.103
73.74000 3.085
73.76000 2.558
73.78000 0.103
73.80000 0.851
73.82000 2.386
73.84000 2.900
73.86000 1.536
73.88000 0.508
73.90000 0.767
73.92000 1.086
73.94000 3.705
73.96000 7.022
73.98000 0.301
74.00000 1.551
74.02000 2.643
74.04000 3.900
74.06000 6.556
74.08000 6.252
74.10000 5.611
74.12000 4.345
74.14000 2.575
74.16000 3.807
74.18000 -0.284
74.20000 1.818
74.22000 4.650
74.24000 4.119
74.26000 4.414
74.28000 3.421
74.30000 7.502
74.32000 6.083
74.34000 5.320
74.36000 2.461
74.38000 0.170
74.40000 -2.202
74.42000 1.567
74.44000 3.275
74.46000 1.540
74.48000 1.785
74.50000 5.822
74.52000 2.234
74.54000 1.455
74.56000 0.681
74.58000 3.489
74.60000 2.357
74.62000 2.483
74.64000 4.098
74.66000 5.561
74.68000 4.474
74.70000 3.406
74.72000 4.232
74.74000 2.506
74.76000 6.693
74.78000 7.660
74.80000 4.859
74.82000 3.296
74.84000 3.282
74.86000 5.004
74.88000 4.232
74.90000 6.054
74.92000 5.341
74.94000 2.073
74.96000 1.700
74.98000 2.911
75.00000 4.163
75.02000 4.470
75.04000 5.982
75.06000 1.616
75.08000 1.920
75.10000 -0.868
75.12000 3.820
75.14000 4.485
75.16000 3.313
75.18000 4.397
75.20000 4.486
75.22000 2.546
75.24000 0.579
75.26000 1.838
75.28000 0.488
75.30000 1.573
75.32000 6.781
75.34000 8.006
75.36000 8.479
75.38000 5.822
75.40000 5.693
75.42000 8.743
75.44000 6.714
75.46000 4.983
75.48000 2.748
75.50000 4.378
75.52000 7.096
75.54000 1.658
75.56000 0.429
75.58000 0.891
75.60000 0.003
75.62000 2.243
75.64000 0.664
75.66000 1.613
75.68000 -0.215
75.70000 -2.206
75.72000 3.360
75.74000 5.908
75.76000 6.421
75.78000 8.702
75.80000 7.133
75.82000 4.768
75.84000 3.508
75.86000 2.518
75.88000 3.043
75.90000 5.676
75.92000 4.279
75.94000 5.280
75.96000 3.956
75.98000 1.639
76.00000 6.007
76.02000 8.639
76.04000 9.161
76.06000 8.058
76.08000 5.271
76.10000 2.715
76.12000 3.041
76.14000 5.775
76.16000 7.312
76.18000 4.600
76.20000 4.167
76.22000 7.241
76.24000 6.125
76.26000 5.208
76.28000 4.599
76.30000 3.368
76.32000 -0.451
76.34000 0.012
76.36000 5.240
76.38000 6.824
76.40000 3.995
76.42000 3.693
76.44000 3.565
76.46000 5.285
76.48000 5.483
76.50000 3.078
76.52000 1.797
76.54000 -1.066
76.56000 0.973
76.58000 4.938
76.60000 4.468
76.62000 -0.274
76.64000 1.797
76.66000 0.065
76.68000 2.174
76.70000 6.283
76.72000 2.697
76.74000 3.002
76.76000 4.246
76.78000 4.003
76.80000 1.569
76.82000 1.161
76.84000 -0.291
76.86000 0.056
76.88000 3.672
76.90000 2.197
76.92000 3.778
76.94000 4.658
76.96000 3.628
76.98000 7.097
77.00000 5.213
77.02000 3.938
77.04000 2.003
77.06000 -0.087
77.08000 1.070
77.10000 2.643
77.12000 0.780
77.14000 1.307
77.16000 2.417
77.18000 4.801
77.20000 4.948
77.22000 1.567
77.24000 -1.240
77.26000 -0.044
77.28000 2.632
77.30000 4.709
77.32000 4.027
77.34000 7.149
77.36000 6.641
77.38000 9.829
77.40000 6.943
77.42000 3.068
77.44000 0.381
77.46000 4.805
77.48000 5.824
77.50000 8.341
77.52000 2.920
77.54000 -1.274
77.56000 -2.246
77.58000 1.479
77.60000 4.898
77.62000 5.919
77.64000 9.035
77.66000 6.821
77.68000 1.457
77.70000 2.939
77.72000 2.012
77.74000 3.095
77.76000 3.702
77.78000 3.933
77.80000 -0.374
77.82000 2.122
77.84000 -0.614
77.86000 3.490
77.88000 3.884
77.90000 6.719
77.92000 2.838
77.94000 2.221
77.96000 1.671
77.98000 5.123
78.00000 4.897
78.02000 7.127
78.04000 3.973
78.06000 4.567
78.08000 1.403
78.10000 1.992
78.12000 2.746
78.14000 4.596
78.16000 3.398
78.18000 3.022
78.20000 2.992
78.22000 0.324
78.24000 -0.293
78.26000 -1.548
78.28000 4.275
78.30000 4.258
78.32000 3.022
78.34000 3.986
78.36000 1.346
78.38000 0.306
78.40000 1.411
78.42000 4.041
78.44000 5.115
78.46000 4.403
78.48000 2.407
78.50000 1.259
78.52000 4.545
78.54000 2.580
78.56000 2.571
78.58000 6.159
78.60000 2.322
78.62000 3.176
78.64000 -0.367
78.66000 2.520
78.68000 3.349
78.70000 8.359
78.72000 4.707
78.74000 4.222
78.76000 2.096
78.78000 -2.283
78.80000 1.090
78.82000 2.108
78.84000 2.780
78.86000 4.167
78.88000 5.974
78.90000 2.710
78.92000 1.525
78.94000 0.042
78.96000 -0.100
78.98000 2.795
79.00000 4.752
79.02000 1.693
79.04000 6.234
79.06000 7.125
79.08000 5.158
79.10000 4.677
79.12000 3.982
79.14000 3.564
79.16000 -0.370
79.18000 0.590
79.20000 -0.126
79.22000 3.804
79.24000 6.507
79.26000 5.222
79.28000 4.012
79.30000 3.305
79.32000 6.103
79.34000 4.173
79.36000 2.146
79.38000 0.854
79.40000 2.966
79.42000 5.751
79.44000 4.472
79.46000 4.774
79.48000 0.414
79.50000 0.548
79.52000 2.509
79.54000 4.365
79.56000 1.134
79.58000 0.821
79.60000 -2.267
79.62000 1.810
79.64000 3.896
79.66000 4.309
79.68000 5.319
79.70000 7.817
79.72000 4.697
79.74000 3.444
79.76000 3.473
79.78000 5.647
79.80000 2.715
79.82000 -1.038
79.84000 1.532
79.86000 1.628
79.88000 4.546
79.90000 5.570
79.92000 10.797
79.94000 3.148
79.96000 3.621
79.98000 0.522
80.00000 3.109
80.02000 6.189
80.04000 2.444
80.06000 -1.642
80.08000 1.356
80.10000 3.081
80.12000 1.343
80.14000 2.836
80.16000 2.586
80.18000 4.157
80.20000 3.194
80.22000 3.051
80.24000 3.664
80.26000 0.234
80.28000 6.313
80.30000 6.714
80.32000 6.311
80.34000 4.801
80.36000 1.899
80.38000 5.036
80.40000 2.872
80.42000 4.568
80.44000 1.473
80.46000 1.092
80.48000 2.724
80.50000 4.416
80.52000 1.335
80.54000 0.739
80.56000 -0.136
80.58000 3.148
80.60000 -0.798
80.62000 -2.366
80.64000 -1.348
80.66000 0.882
80.68000 -0.848
80.70000 2.879
80.72000 1.664
80.74000 1.583
80.76000 0.447
80.78000 2.030
80.80000 2.080
80.82000 0.439
80.84000 3.328
80.86000 1.263
80.88000 1.315
80.90000 0.886
80.92000 2.482
80.94000 2.412
80.96000 2.776
80.98000 1.688
81.00000 3.572
81.02000 1.735
81.04000 5.479
81.06000 2.530
81.08000 0.686
81.10000 6.076
81.12000 1.642
81.14000 -1.619
81.16000 0.182
81.18000 3.590
81.20000 6.456
81.22000 5.074
81.24000 10.213
81.26000 10.268
81.28000 8.699
81.30000 2.403
81.32000 6.109
81.34000 4.694
81.36000 4.630
81.38000 0.852
81.40000 0.922
81.42000 4.636
81.44000 5.842
81.46000 2.626
81.48000 0.912
81.50000 4.502
81.52000 8.356
81.54000 7.451
81.56000 3.218
81.58000 2.310
81.60000 9.030
81.62000 4.966
81.64000 6.704
81.66000 5.375
81.68000 7.444
81.70000 7.098
81.72000 7.709
81.74000 8.614
81.76000 8.544
81.78000 7.643
81.80000 2.871
81.82000 7.128
81.84000 5.627
81.86000 7.002
81.88000 8.928
81.90000 14.458
81.92000 13.884
81.94000 10.625
81.96000 5.483
81.98000 8.771
82.00000 15.861
82.02000 13.962
82.04000 14.478
82.06000 14.086
82.08000 12.942
82.10000 14.084
82.12000 14.954
82.14000 15.552
82.16000 14.888
82.18000 16.944
82.20000 19.981
82.22000 22.770
82.24000 21.851
82.26000 21.782
82.28000 21.376
82.30000 19.339
82.32000 22.222
82.34000 25.940
82.36000 21.679
82.38000 22.508
82.40000 26.109
82.42000 22.439
82.44000 20.913
82.46000 21.997
82.48000 24.453
82.50000 25.308
82.52000 27.082
82.54000 28.524
82.56000 31.189
82.58000 30.884
82.60000 27.580
82.62000 35.464
82.64000 30.902
82.66000 30.255
82.68000 30.986
82.70000 35.124
82.72000 34.720
82.74000 36.055
82.76000 35.508
82.78000 34.466
82.80000 35.569
82.82000 34.733
82.84000 31.985
82.86000 35.793
82.88000 37.748
82.90000 37.389
82.92000 33.435
82.94000 36.885
82.96000 32.304
82.98000 32.782
83.00000 39.036
83.02000 38.068
83.04000 37.850
83.06000 33.082
83.08000 31.798
83.10000 30.709
83.12000 32.660
83.14000 32.599
83.16000 34.805
83.18000 31.868
83.20000 29.282
83.22000 33.276
83.24000 31.529
83.26000 27.635
83.28000 32.921
83.30000 33.756
83.32000 28.611
83.34000 25.284
83.36000 25.549
83.38000 16.107
83.40000 22.274
83.42000 18.376
83.44000 16.690
83.46000 20.309
83.48000 23.565
83.50000 27.809
83.52000 27.271
83.54000 19.745
83.56000 17.718
83.58000 21.334
83.60000 23.884
83.62000 20.958
83.64000 22.980
83.66000 18.763
83.68000 16.241
83.70000 17.447
83.72000 18.695
83.74000 14.093
83.76000 15.641
83.78000 18.820
83.80000 17.026
83.82000 14.779
83.84000 11.046
83.86000 9.027
83.88000 10.936
83.90000 14.601
83.92000 15.931
83.94000 9.359
83.96000 9.313
83.98000 11.736
84.00000 11.739
84.02000 16.353
84.04000 12.801
84.06000 8.907
84.08000 9.244
84.10000 9.145
84.12000 7.061
84.14000 8.335
84.16000 8.751
84.18000 6.949
84.20000 7.193
84.22000 6.923
84.24000 9.156
84.26000 10.036
84.28000 4.622
84.30000 5.042
84.32000 8.690
84.34000 6.761
84.36000 8.142
84.38000 5.584
84.40000 5.469
84.42000 4.630
84.44000 1.714
84.46000 2.654
84.48000 0.023
84.50000 1.316
84.52000 -0.725
84.54000 1.429
84.56000 3.396
84.58000 6.442
84.60000 6.208
84.62000 3.568
84.64000 2.427
84.66000 6.250
84.68000 7.064
84.70000 4.187
84.72000 4.954
84.74000 2.735
84.76000 1.597
84.78000 -2.337
84.80000 1.112
84.82000 1.057
84.84000 1.901
84.86000 6.631
84.88000 4.009
84.90000 4.317
84.92000 1.265
84.94000 3.624
84.96000 3.048
84.98000 5.149
85.00000 9.276
85.02000 0.054
85.04000 1.153
85.06000 2.827
85.08000 7.033
85.10000 4.848
85.12000 5.834
85.14000 3.631
85.16000 3.904
85.18000 4.095
85.20000 7.334
85.22000 3.458
85.24000 -0.456
85.26000 0.107
85.28000 -0.350
85.30000 2.957
85.32000 5.356
85.34000 6.549
85.36000 6.911
85.38000 2.796
85.40000 2.076
85.42000 3.446
85.44000 -0.380
85.46000 0.516
85.48000 0.717
85.50000 -0.343
85.52000 -2.285
85.54000 0.671
85.56000 2.810
85.58000 0.913
85.60000 2.467
85.62000 4.194
85.64000 4.451
85.66000 3.182
85.68000 0.456
85.70000 -0.630
85.72000 -1.663
85.74000 -1.561
85.76000 1.395
85.78000 2.956
85.80000 0.080
85.82000 0.513
85.84000 0.656
85.86000 3.471
85.88000 2.102
85.90000 3.728
85.92000 1.166
85.94000 0.099
85.96000 -1.529
85.98000 -2.323
86.00000 0.397
86.02000 0.162
86.04000 2.858
86.06000 4.479
86.08000 2.012
86.10000 2.016
86.12000 3.438
86.14000 6.041
86.16000 4.335
86.18000 2.196
86.20000 1.384
86.22000 1.233
86.24000 1.840
86.26000 8.264
86.28000 7.177
86.30000 8.375
86.32000 5.821
86.34000 4.413
86.36000 3.842
86.38000 7.013
86.40000 5.986
86.42000 3.888
86.44000 4.802
86.46000 9.366
86.48000 9.235
86.50000 1.831
86.52000 3.957
86.54000 5.999
86.56000 8.926
86.58000 7.213
86.60000 9.401
86.62000 14.100
86.64000 11.473
86.66000 12.709
86.68000 11.342
86.70000 10.659
86.72000 9.997
86.74000 9.817
86.76000 15.580
86.78000 11.700
86.80000 12.400
86.82000 11.481
86.84000 14.950
86.86000 13.120
86.88000 12.175
86.90000 8.302
86.92000 7.980
86.94000 12.297
86.96000 14.358
86.98000 15.607
87.00000 13.773
87.02000 12.764
87.04000 17.463
87.06000 11.034
87.08000 9.104
87.10000 14.920
87.12000 17.632
87.14000 20.708
87.16000 18.021
87.18000 14.531
87.20000 18.071
87.22000 16.848
87.24000 14.726
87.26000 16.099
87.28000 18.529
87.30000 18.597
87.32000 17.763
87.34000 20.964
87.36000 18.975
87.38000 20.985
87.40000 17.140
87.42000 16.176
87.44000 16.836
87.46000 18.987
87.48000 16.697
87.50000 17.301
87.52000 14.992
87.54000 16.365
87.56000 17.160
87.58000 18.384
87.60000 10.922
87.62000 8.213
87.64000 11.351
87.66000 16.017
87.68000 19.551
87.70000 14.313
87.72000 13.039
87.74000 18.301
87.76000 14.451
87.78000 16.835
87.80000 17.920
87.82000 17.065
87.84000 12.791
87.86000 12.463
87.88000 13.531
87.90000 10.655
87.92000 10.907
87.94000 10.737
87.96000 12.549
87.98000 10.120
88.00000 10.706
88.02000 9.803
88.04000 10.674
88.06000 8.444
88.08000 9.600
88.10000 11.183
88.12000 9.957
88.14000 9.929
88.16000 13.251
88.18000 8.425
88.20000 6.639
88.22000 9.952
88.24000 9.534
88.26000 4.363
88.28000 4.523
88.30000 6.261
88.32000 5.369
88.34000 5.911
88.36000 8.351
88.38000 8.913
88.40000 8.883
88.42000 3.854
88.44000 1.391
88.46000 0.984
88.48000 1.054
88.50000 1.368
88.52000 1.915
88.54000 3.568
88.56000 6.940
88.58000 5.006
88.60000 0.464
88.62000 4.268
88.64000 3.325
88.66000 6.655
88.68000 4.579
88.70000 6.687
88.72000 7.272
88.74000 0.891
88.76000 -0.422
88.78000 0.108
88.80000 7.075
88.82000 11.225
88.84000 10.141
88.86000 5.543
88.88000 2.198
88.90000 -2.190
88.92000 3.696
88.94000 7.745
88.96000 6.717
88.98000 5.084
89.00000 4.344
89.02000 3.183
89.04000 3.032
89.06000 0.042
89.08000 -0.149
89.10000 3.503
89.12000 0.756
89.14000 0.060
89.16000 3.144
89.18000 0.831
89.20000 2.658
89.22000 2.339
89.24000 3.317
89.26000 4.553
89.28000 -0.975
89.30000 -1.444
89.32000 0.661
89.34000 6.080
89.36000 3.825
89.38000 2.376
89.40000 1.498
89.42000 3.726
89.44000 4.911
89.46000 3.137
89.48000 5.014
89.50000 2.085
89.52000 1.103
89.54000 1.811
89.56000 3.846
89.58000 -1.113
89.60000 2.461
89.62000 5.479
89.64000 1.519
89.66000 1.935
89.68000 -1.656
89.70000 2.101
89.72000 3.810
89.74000 2.346
89.76000 2.490
89.78000 2.733
89.80000 0.665
89.82000 3.179
89.84000 4.930
89.86000 6.010
89.88000 4.667
89.90000 -0.145
89.92000 2.709
89.94000 2.300
89.96000 4.317
89.98000 3.995
90.00000 1.274
90.02000 2.139
90.04000 4.268
90.06000 1.876
90.08000 0.528
90.10000 2.739
90.12000 2.591
90.14000 3.085
90.16000 2.194
90.18000 5.471
90.20000 4.861
90.22000 2.448
90.24000 2.740
90.26000 2.596
90.28000 1.369
90.30000 -2.121
90.32000 2.787
90.34000 6.342
90.36000 4.449
90.38000 4.455
90.40000 5.177
90.42000 3.900
90.44000 4.958
90.46000 -1.406
90.48000 3.569
90.50000 8.414
90.52000 -0.798
90.54000 -0.683
90.56000 1.979
90.58000 2.563
90.60000 3.442
90.62000 6.921
90.64000 2.572
90.66000 -0.023
90.68000 0.117
90.70000 4.065
90.72000 7.483
90.74000 7.187
90.76000 3.173
90.78000 4.100
90.80000 2.090
90.82000 -1.823
90.84000 -1.286
90.86000 0.338
90.88000 3.728
90.90000 8.420
90.92000 5.286
90.94000 4.906
90.96000 -2.125
90.98000 4.910
91.00000 1.919
91.02000 0.937
91.04000 2.439
91.06000 1.968
91.08000 0.145
91.10000 -0.383
91.12000 2.752
91.14000 0.541
91.16000 1.115
91.18000 2.406
91.20000 -1.201
91.22000 -0.853
91.24000 0.108
91.26000 -2.133
91.28000 -1.434
91.30000 1.144
91.32000 -0.607
91.34000 2.380
91.36000 2.518
91.38000 0.241
91.40000 3.076
91.42000 5.268
91.44000 4.333
91.46000 2.840
91.48000 5.487
91.50000 2.292
91.52000 4.265
91.54000 2.697
91.56000 1.595
91.58000 1.990
91.60000 1.637
91.62000 1.016
91.64000 3.182
91.66000 6.050
91.68000 2.836
91.70000 1.394
91.72000 1.770
91.74000 1.738
91.76000 2.489
91.78000 3.969
91.80000 8.064
91.82000 6.411
91.84000 3.424
91.86000 1.665
91.88000 1.188
91.90000 4.142
91.92000 5.608
91.94000 2.809
91.96000 -0.535
91.98000 -2.139
92.00000 0.614
92.02000 7.772
92.04000 5.906
92.06000 3.889
92.08000 2.518
92.10000 0.350
92.12000 -0.298
92.14000 5.381
92.16000 2.277
92.18000 4.094
92.20000 2.813
92.22000 2.079
92.24000 0.457
92.26000 5.507
92.28000 5.201
92.30000 -0.686
92.32000 0.769
92.34000 6.302
92.36000 3.657
92.38000 1.865
92.40000 -0.872
92.42000 -0.223
92.44000 1.959
92.46000 3.002
92.48000 4.032
92.50000 1.831
92.52000 3.322
92.54000 0.812
92.56000 -1.150
92.58000 1.260
92.60000 5.672
92.62000 1.841
92.64000 3.425
92.66000 9.239
92.68000 6.252
92.70000 1.419
92.72000 0.907
92.74000 1.714
92.76000 2.438
92.78000 4.457
92.80000 4.032
92.82000 -0.002
92.84000 0.845
92.86000 5.298
92.88000 4.961
92.90000 2.284
92.92000 0.914
92.94000 0.623
92.96000 -2.150
92.98000 -1.365
93.00000 -1.209
93.02000 1.857
93.04000 1.530
93.06000 3.691
93.08000 8.452
93.10000 5.864
93.12000 4.814
93.14000 1.978
93.16000 1.346
93.18000 2.610
93.20000 0.146
93.22000 1.282
93.24000 -0.115
93.26000 -0.561
93.28000 -0.730
93.30000 3.410
93.32000 1.228
93.34000 -0.015
93.36000 0.101
93.38000 0.652
93.40000 -2.010
93.42000 -1.098
93.44000 -2.123
93.46000 1.004
93.48000 -0.008
93.50000 -1.182
93.52000 2.301
93.54000 3.116
93.56000 -0.129
93.58000 -0.060
93.60000 1.825
93.62000 2.158
93.64000 2.098
93.66000 3.735
93.68000 1.671
93.70000 2.711
93.72000 3.020
93.74000 2.250
93.76000 2.034
93.78000 3.584
93.80000 4.619
93.82000 2.743
93.84000 -2.105
93.86000 -1.413
93.88000 0.940
93.90000 2.902
93.92000 -1.045
93.94000 0.881
93.96000 -0.854
93.98000 0.336
94.00000 0.070
94.02000 1.257
94.04000 0.578
94.06000 0.085
94.08000 6.528
94.10000 3.268
94.12000 1.456
94.14000 3.012
94.16000 3.792
94.18000 1.486
94.20000 3.019
94.22000 2.907
94.24000 -0.392
94.26000 0.856
94.28000 -0.287
94.30000 -2.175
94.32000 -1.678
94.34000 1.816
94.36000 1.776
94.38000 1.467
94.40000 6.037
94.42000 0.796
94.44000 -0.299
94.46000 3.877
94.48000 3.910
94.50000 1.175
94.52000 4.455
94.54000 4.057
94.56000 0.687
94.58000 -0.518
94.60000 3.788
94.62000 5.012
94.64000 5.960
94.66000 4.915
94.68000 1.517
94.70000 6.584
94.72000 5.467
94.74000 5.356
94.76000 3.542
94.78000 1.613
94.80000 -0.065
94.82000 2.958
94.84000 3.909
94.86000 1.846
94.88000 4.151
94.90000 1.656
94.92000 0.994
94.94000 0.826
94.96000 2.168
94.98000 1.190
95.00000 0.848
95.02000 3.213
95.04000 3.316
95.06000 0.358
95.08000 1.458
95.10000 4.380
95.12000 4.147
95.14000 2.724
95.16000 1.172
95.18000 3.786
95.20000 8.041
95.22000 10.364
95.24000 6.882
95.26000 5.586
95.28000 7.045
95.30000 2.170
95.32000 -2.117
95.34000 1.403
95.36000 2.731
95.38000 5.549
95.40000 5.231
95.42000 7.276
95.44000 8.227
95.46000 4.431
95.48000 1.027
95.50000 -0.482
95.52000 1.453
95.54000 6.268
95.56000 6.682
95.58000 4.976
95.60000 3.216
95.62000 4.650
95.64000 2.516
95.66000 3.754
95.68000 2.589
95.70000 7.110
95.72000 4.860
95.74000 -0.343
95.76000 -1.384
95.78000 5.577
95.80000 6.178
95.82000 3.269
95.84000 -2.132
95.86000 -2.009
95.88000 2.953
95.90000 4.500
95.92000 4.376
95.94000 3.431
95.96000 3.245
95.98000 6.069
96.00000 5.671
96.02000 4.515
96.04000 4.527
96.06000 4.456
96.08000 -0.703
96.10000 0.304
96.12000 2.957
96.14000 5.242
96.16000 4.307
96.18000 3.345
96.20000 7.353
96.22000 0.297
96.24000 5.734
96.26000 3.257
96.28000 4.677
96.30000 3.388
96.32000 4.463
96.34000 0.376
96.36000 4.196
96.38000 5.102
96.40000 2.957
96.42000 5.709
96.44000 3.310
96.46000 2.525
96.48000 -1.550
96.50000 1.889
96.52000 4.657
96.54000 8.092
96.56000 3.633
96.58000 2.150
96.60000 4.192
96.62000 3.134
96.64000 -1.120
96.66000 3.100
96.68000 8.881
96.70000 8.050
96.72000 4.155
96.74000 5.166
96.76000 1.410
96.78000 1.094
96.80000 4.645
96.82000 4.936
96.84000 1.963
96.86000 5.067
96.88000 2.885
96.90000 2.588
96.92000 1.479
96.94000 6.119
96.96000 1.402
96.98000 -1.908
97.00000 1.826
97.02000 6.682
97.04000 10.267
97.06000 7.430
97.08000 5.467
97.10000 5.641
97.12000 3.838
97.14000 0.025
97.16000 7.883
97.18000 8.072
97.20000 10.943
97.22000 11.453
97.24000 12.863
97.26000 8.583
97.28000 2.738
97.30000 1.745
97.32000 3.859
97.34000 8.999
97.36000 8.213
97.38000 0.605
97.40000 5.678
97.42000 8.309
97.44000 7.650
97.46000 7.397
97.48000 2.194
97.50000 -0.040
97.52000 6.437
97.54000 8.563
97.56000 7.534
97.58000 5.835
97.60000 2.615
97.62000 -2.055
97.64000 7.231
97.66000 7.272
97.68000 3.855
97.70000 5.229
97.72000 9.626
97.74000 6.505
97.76000 5.576
97.78000 8.756
97.80000 7.771
97.82000 7.507
97.84000 11.040
97.86000 9.588
97.88000 8.662
97.90000 5.702
97.92000 5.597
97.94000 -0.934
97.96000 0.731
97.98000 3.689
98.00000 7.097
98.02000 7.960
98.04000 9.865
98.06000 9.010
98.08000 8.924
98.10000 7.801
98.12000 6.944
98.14000 6.174
98.16000 9.251
98.18000 14.133
98.20000 12.073
98.22000 7.455
98.24000 3.779
98.26000 7.157
98.28000 4.486
98.30000 7.068
98.32000 6.245
98.34000 5.675
98.36000 6.953
98.38000 1.180
98.40000 1.692
98.42000 4.971
98.44000 -1.080
98.46000 4.183
98.48000 7.066
98.50000 14.297
98.52000 7.844
98.54000 7.538
98.56000 2.159
98.58000 8.171
98.60000 4.481
98.62000 1.151
98.64000 8.515
98.66000 7.249
98.68000 5.000
98.70000 3.627
98.72000 5.748
98.74000 5.156
98.76000 3.925
98.78000 2.539
98.80000 6.183
98.82000 10.856
98.84000 11.322
98.86000 4.400
98.88000 1.364
98.90000 -1.827
98.92000 9.819
98.94000 0.417
98.96000 2.068
98.98000 7.647
99.00000 2.436
99.02000 -3.159
99.04000 8.336
99.06000 5.270
99.08000 7.559
99.10000 13.725
99.12000 9.370
99.14000 6.898
99.16000 8.799
99.18000 7.246
99.20000 7.403
99.22000 14.476
99.24000 6.463
99.26000 7.643
99.28000 4.354
99.30000 9.380
99.32000 8.018
99.34000 4.334
99.36000 8.799
99.38000 9.844
99.40000 5.959
99.42000 3.464
99.44000 2.137
99.46000 3.670
99.48000 15.471
99.50000 14.635
99.52000 5.131
99.54000 7.648
99.56000 13.802
99.58000 14.639
99.60000 15.819
99.62000 16.322
99.64000 9.720
99.66000 6.622
99.68000 17.483
99.70000 9.451
99.72000 10.013
99.74000 17.812
99.76000 18.162
99.78000 11.258
99.80000 6.214
99.82000 -4.569
99.84000 8.731
99.86000 18.304
99.88000 16.749
99.90000 10.252
99.92000 11.116
99.94000 15.547
99.96000 7.341
99.98000 0.000
