'Id: "0011389" Comment: "Integrate frame 0011389_Au-Ir-Rh_Au-Rich_XRD_Mapping-274-0000.gfrmwith cursor Wedge Cursor #5" Operator: "B?rgel" Anode: "Cu" Wavelength: "1.5406" Scantype: "2Theta (TwoTheta)" TimePerStep: "1" X: "22.5" Y: "22.5" Z: "5.95" 
10.00000 0.000
10.02000 -4.020
10.04000 3.810
10.06000 -3.733
10.08000 -3.410
10.10000 25.008
10.12000 40.985
10.14000 37.989
10.16000 20.782
10.18000 19.703
10.20000 18.320
10.22000 13.078
10.24000 9.141
10.26000 20.526
10.28000 17.528
10.30000 23.801
10.32000 14.198
10.34000 13.361
10.36000 17.450
10.38000 15.639
10.40000 13.552
10.42000 22.093
10.44000 13.788
10.46000 18.080
10.48000 13.153
10.50000 11.573
10.52000 11.750
10.54000 22.032
10.56000 22.893
10.58000 11.243
10.60000 12.030
10.62000 11.871
10.64000 7.837
10.66000 7.425
10.68000 6.911
10.70000 14.410
10.72000 22.864
10.74000 38.156
10.76000 25.200
10.78000 18.221
10.80000 10.754
10.82000 19.585
10.84000 20.273
10.86000 19.807
10.88000 19.471
10.90000 20.944
10.92000 23.136
10.94000 10.766
10.96000 8.023
10.98000 14.982
11.00000 10.354
11.02000 18.774
11.04000 18.274
11.06000 30.246
11.08000 30.482
11.10000 26.344
11.12000 26.489
11.14000 21.789
11.16000 19.653
11.18000 20.739
11.20000 19.945
11.22000 28.305
11.24000 30.451
11.26000 46.952
11.28000 31.403
11.30000 12.432
11.32000 8.404
11.34000 14.757
11.36000 18.092
11.38000 33.024
11.40000 21.521
11.42000 21.421
11.44000 28.721
11.46000 27.325
11.48000 28.867
11.50000 33.464
11.52000 30.616
11.54000 24.374
11.56000 22.395
11.58000 30.677
11.60000 23.617
11.62000 27.177
11.64000 22.091
11.66000 22.587
11.68000 26.480
11.70000 34.769
11.72000 33.114
11.74000 30.135
11.76000 22.728
11.78000 28.524
11.80000 24.722
11.82000 23.324
11.84000 21.582
11.86000 26.439
11.88000 26.759
11.90000 21.472
11.92000 32.264
11.94000 24.849
11.96000 30.010
11.98000 28.467
12.00000 22.672
12.02000 14.759
12.04000 27.123
12.06000 20.816
12.08000 12.859
12.10000 26.683
12.12000 31.960
12.14000 31.595
12.16000 23.357
12.18000 28.544
12.20000 25.830
12.22000 29.767
12.24000 38.446
12.26000 38.210
12.28000 31.230
12.30000 24.793
12.32000 31.452
12.34000 35.258
12.36000 30.933
12.38000 26.342
12.40000 26.025
12.42000 21.025
12.44000 32.454
12.46000 25.871
12.48000 32.284
12.50000 29.927
12.52000 48.105
12.54000 45.750
12.56000 39.554
12.58000 38.780
12.60000 38.262
12.62000 41.993
12.64000 37.280
12.66000 29.041
12.68000 34.178
12.70000 38.760
12.72000 36.965
12.74000 35.119
12.76000 31.355
12.78000 21.438
12.80000 18.381
12.82000 28.988
12.84000 28.945
12.86000 24.834
12.88000 27.637
12.90000 30.812
12.92000 32.665
12.94000 29.333
12.96000 27.713
12.98000 43.095
13.00000 41.746
13.02000 31.596
13.04000 25.079
13.06000 20.067
13.08000 17.726
13.10000 24.538
13.12000 29.102
13.14000 22.644
13.16000 20.138
13.18000 27.050
13.20000 31.292
13.22000 42.747
13.24000 39.934
13.26000 27.097
13.28000 29.784
13.30000 31.942
13.32000 26.632
13.34000 30.927
13.36000 21.011
13.38000 19.588
13.40000 28.456
13.42000 32.497
13.44000 32.206
13.46000 23.802
13.48000 26.928
13.50000 27.229
13.52000 22.245
13.54000 23.776
13.56000 24.417
13.58000 28.053
13.60000 31.494
13.62000 33.093
13.64000 32.912
13.66000 24.506
13.68000 24.918
13.70000 27.352
13.72000 24.674
13.74000 31.007
13.76000 35.602
13.78000 40.599
13.80000 31.562
13.82000 23.546
13.84000 20.387
13.86000 10.677
13.88000 22.673
13.90000 32.016
13.92000 28.472
13.94000 23.517
13.96000 29.520
13.98000 23.944
14.00000 26.532
14.02000 35.352
14.04000 23.720
14.06000 19.651
14.08000 22.029
14.10000 24.590
14.12000 30.134
14.14000 31.704
14.16000 32.370
14.18000 35.913
14.20000 24.536
14.22000 25.654
14.24000 30.591
14.26000 26.585
14.28000 30.005
14.30000 22.388
14.32000 22.380
14.34000 26.844
14.36000 17.170
14.38000 9.963
14.40000 21.309
14.42000 27.734
14.44000 21.053
14.46000 15.246
14.48000 22.782
14.50000 24.862
14.52000 29.356
14.54000 17.969
14.56000 15.745
14.58000 27.929
14.60000 25.142
14.62000 17.667
14.64000 14.847
14.66000 26.410
14.68000 28.752
14.70000 10.551
14.72000 8.958
14.74000 20.996
14.76000 31.616
14.78000 33.986
14.80000 36.166
14.82000 29.579
14.84000 25.664
14.86000 13.256
14.88000 18.061
14.90000 23.200
14.92000 20.621
14.94000 20.221
14.96000 26.891
14.98000 23.122
15.00000 14.035
15.02000 19.247
15.04000 26.644
15.06000 23.661
15.08000 15.170
15.10000 20.820
15.12000 15.621
15.14000 19.978
15.16000 20.945
15.18000 19.936
15.20000 24.268
15.22000 18.987
15.24000 19.230
15.26000 19.747
15.28000 22.055
15.30000 23.437
15.32000 16.023
15.34000 4.673
15.36000 11.812
15.38000 15.190
15.40000 15.533
15.42000 16.168
15.44000 16.448
15.46000 25.063
15.48000 29.388
15.50000 21.513
15.52000 10.598
15.54000 7.998
15.56000 2.126
15.58000 8.338
15.60000 12.439
15.62000 15.970
15.64000 15.103
15.66000 15.215
15.68000 25.527
15.70000 24.501
15.72000 12.007
15.74000 10.469
15.76000 3.609
15.78000 10.745
15.80000 13.430
15.82000 14.709
15.84000 19.796
15.86000 19.145
15.88000 21.101
15.90000 17.434
15.92000 10.424
15.94000 13.447
15.96000 21.376
15.98000 24.074
16.00000 14.319
16.02000 9.878
16.04000 16.244
16.06000 8.755
16.08000 7.027
16.10000 16.432
16.12000 13.630
16.14000 6.653
16.16000 10.204
16.18000 10.888
16.20000 13.716
16.22000 10.214
16.24000 14.081
16.26000 3.498
16.28000 7.654
16.30000 14.403
16.32000 21.851
16.34000 19.960
16.36000 13.912
16.38000 8.245
16.40000 -0.044
16.42000 5.750
16.44000 17.543
16.46000 15.134
16.48000 14.696
16.50000 11.637
16.52000 6.703
16.54000 16.361
16.56000 17.563
16.58000 19.484
16.60000 10.996
16.62000 7.133
16.64000 10.406
16.66000 16.249
16.68000 7.771
16.70000 8.517
16.72000 7.418
16.74000 13.289
16.76000 10.676
16.78000 5.717
16.80000 8.256
16.82000 10.348
16.84000 21.191
16.86000 16.068
16.88000 15.541
16.90000 15.444
16.92000 11.225
16.94000 10.810
16.96000 14.428
16.98000 11.764
17.00000 13.610
17.02000 6.486
17.04000 -0.728
17.06000 4.724
17.08000 1.215
17.10000 11.898
17.12000 13.907
17.14000 16.684
17.16000 17.922
17.18000 11.394
17.20000 6.797
17.22000 14.804
17.24000 17.000
17.26000 9.331
17.28000 4.668
17.30000 12.726
17.32000 12.999
17.34000 11.614
17.36000 14.746
17.38000 14.409
17.40000 16.976
17.42000 11.751
17.44000 9.970
17.46000 10.076
17.48000 5.549
17.50000 7.935
17.52000 8.203
17.54000 15.991
17.56000 15.513
17.58000 15.633
17.60000 9.979
17.62000 8.889
17.64000 9.675
17.66000 -0.059
17.68000 -4.360
17.70000 -0.270
17.72000 7.213
17.74000 8.289
17.76000 9.067
17.78000 13.445
17.80000 14.174
17.82000 9.236
17.84000 5.664
17.86000 3.722
17.88000 4.281
17.90000 2.501
17.92000 2.098
17.94000 5.536
17.96000 2.864
17.98000 -0.768
18.00000 5.537
18.02000 8.479
18.04000 8.453
18.06000 12.535
18.08000 8.482
18.10000 6.626
18.12000 13.059
18.14000 17.897
18.16000 10.002
18.18000 12.026
18.20000 14.677
18.22000 3.352
18.24000 5.036
18.26000 8.248
18.28000 9.054
18.30000 10.592
18.32000 7.223
18.34000 8.736
18.36000 12.753
18.38000 3.445
18.40000 4.227
18.42000 4.274
18.44000 5.388
18.46000 0.797
18.48000 3.815
18.50000 7.063
18.52000 5.298
18.54000 9.126
18.56000 5.140
18.58000 3.747
18.60000 2.918
18.62000 -0.360
18.64000 7.228
18.66000 12.918
18.68000 4.472
18.70000 7.711
18.72000 9.994
18.74000 8.956
18.76000 14.036
18.78000 12.528
18.80000 4.547
18.82000 5.312
18.84000 11.940
18.86000 6.292
18.88000 -3.287
18.90000 -0.571
18.92000 6.977
18.94000 6.761
18.96000 0.014
18.98000 3.266
19.00000 8.748
19.02000 7.550
19.04000 3.909
19.06000 0.716
19.08000 -4.289
19.10000 3.945
19.12000 1.048
19.14000 0.127
19.16000 11.690
19.18000 10.947
19.20000 6.088
19.22000 7.514
19.24000 9.554
19.26000 10.698
19.28000 6.861
19.30000 6.532
19.32000 8.238
19.34000 3.941
19.36000 4.446
19.38000 6.540
19.40000 2.093
19.42000 4.180
19.44000 4.034
19.46000 4.051
19.48000 10.656
19.50000 10.305
19.52000 9.678
19.54000 7.765
19.56000 10.935
19.58000 8.802
19.60000 6.715
19.62000 9.038
19.64000 6.446
19.66000 14.476
19.68000 10.806
19.70000 13.513
19.72000 12.813
19.74000 10.287
19.76000 6.085
19.78000 8.013
19.80000 5.155
19.82000 3.542
19.84000 13.320
19.86000 12.441
19.88000 4.015
19.90000 0.239
19.92000 1.543
19.94000 9.918
19.96000 7.353
19.98000 8.117
20.00000 10.523
20.02000 1.723
20.04000 4.780
20.06000 9.584
20.08000 5.229
20.10000 2.251
20.12000 6.014
20.14000 12.425
20.16000 14.317
20.18000 11.660
20.20000 15.833
20.22000 10.138
20.24000 3.617
20.26000 2.100
20.28000 7.335
20.30000 9.566
20.32000 7.506
20.34000 5.116
20.36000 4.578
20.38000 4.824
20.40000 3.046
20.42000 14.872
20.44000 10.313
20.46000 6.633
20.48000 4.332
20.50000 -4.194
20.52000 2.223
20.54000 6.703
20.56000 12.942
20.58000 6.016
20.60000 1.263
20.62000 4.168
20.64000 7.004
20.66000 1.308
20.68000 -2.687
20.70000 7.169
20.72000 15.355
20.74000 16.424
20.76000 8.185
20.78000 8.151
20.80000 8.326
20.82000 7.951
20.84000 6.719
20.86000 2.659
20.88000 3.087
20.90000 3.571
20.92000 8.269
20.94000 7.744
20.96000 5.733
20.98000 7.862
21.00000 10.339
21.02000 9.923
21.04000 9.509
21.06000 4.493
21.08000 0.133
21.10000 4.017
21.12000 6.086
21.14000 7.851
21.16000 4.676
21.18000 -3.739
21.20000 2.347
21.22000 6.422
21.24000 11.318
21.26000 6.631
21.28000 4.490
21.30000 1.720
21.32000 -2.493
21.34000 2.985
21.36000 7.473
21.38000 2.062
21.40000 10.581
21.42000 5.579
21.44000 -3.216
21.46000 0.494
21.48000 -0.178
21.50000 6.057
21.52000 5.232
21.54000 4.163
21.56000 2.216
21.58000 -0.187
21.60000 -2.201
21.62000 -1.071
21.64000 1.484
21.66000 4.627
21.68000 1.116
21.70000 6.870
21.72000 14.716
21.74000 8.980
21.76000 1.898
21.78000 5.802
21.80000 13.269
21.82000 4.095
21.84000 0.699
21.86000 7.892
21.88000 5.424
21.90000 0.225
21.92000 2.552
21.94000 10.939
21.96000 7.602
21.98000 -0.023
22.00000 4.596
22.02000 4.733
22.04000 2.183
22.06000 0.892
22.08000 3.676
22.10000 5.215
22.12000 3.254
22.14000 0.469
22.16000 1.535
22.18000 5.202
22.20000 5.659
22.22000 2.326
22.24000 0.957
22.26000 4.684
22.28000 2.016
22.30000 3.164
22.32000 14.399
22.34000 10.913
22.36000 -4.141
22.38000 -3.212
22.40000 5.316
22.42000 10.504
22.44000 4.770
22.46000 2.767
22.48000 2.645
22.50000 5.998
22.52000 7.051
22.54000 2.344
22.56000 1.276
22.58000 5.386
22.60000 6.610
22.62000 5.481
22.64000 2.331
22.66000 2.718
22.68000 3.466
22.70000 2.488
22.72000 2.008
22.74000 5.049
22.76000 2.856
22.78000 3.933
22.80000 9.818
22.82000 6.244
22.84000 2.891
22.86000 8.182
22.88000 2.017
22.90000 5.494
22.92000 8.435
22.94000 5.751
22.96000 4.601
22.98000 2.514
23.00000 4.599
23.02000 -0.494
23.04000 -4.105
23.06000 0.126
23.08000 9.960
23.10000 9.611
23.12000 2.110
23.14000 1.264
23.16000 5.643
23.18000 8.369
23.20000 4.052
23.22000 7.380
23.24000 7.972
23.26000 6.995
23.28000 2.847
23.30000 1.963
23.32000 3.677
23.34000 1.759
23.36000 8.401
23.38000 1.738
23.40000 -1.241
23.42000 -0.988
23.44000 3.437
23.46000 2.794
23.48000 2.490
23.50000 2.333
23.52000 6.379
23.54000 2.930
23.56000 3.655
23.58000 5.824
23.60000 3.775
23.62000 5.563
23.64000 1.491
23.66000 5.761
23.68000 1.207
23.70000 2.196
23.72000 3.634
23.74000 2.590
23.76000 5.261
23.78000 4.338
23.80000 2.569
23.82000 0.500
23.84000 -4.061
23.86000 -3.007
23.88000 -1.351
23.90000 2.239
23.92000 0.753
23.94000 -2.321
23.96000 1.878
23.98000 10.293
24.00000 2.347
24.02000 1.355
24.04000 7.396
24.06000 11.265
24.08000 7.758
24.10000 4.441
24.12000 2.917
24.14000 4.781
24.16000 0.189
24.18000 -2.022
24.20000 1.926
24.22000 6.584
24.24000 3.911
24.26000 4.209
24.28000 6.614
24.30000 4.558
24.32000 2.593
24.34000 -0.088
24.36000 -2.382
24.38000 -1.244
24.40000 7.167
24.42000 4.340
24.44000 7.328
24.46000 3.738
24.48000 -1.466
24.50000 1.059
24.52000 4.066
24.54000 2.908
24.56000 5.769
24.58000 1.000
24.60000 6.016
24.62000 8.875
24.64000 5.711
24.66000 -1.516
24.68000 -1.447
24.70000 2.622
24.72000 7.406
24.74000 6.774
24.76000 3.594
24.78000 1.119
24.80000 5.398
24.82000 4.096
24.84000 -3.984
24.86000 -2.880
24.88000 4.118
24.90000 5.543
24.92000 2.916
24.94000 3.886
24.96000 5.363
24.98000 4.865
25.00000 -0.967
25.02000 -0.052
25.04000 8.830
25.06000 8.364
25.08000 3.692
25.10000 7.412
25.12000 5.262
25.14000 0.963
25.16000 1.569
25.18000 3.439
25.20000 1.140
25.22000 0.325
25.24000 1.069
25.26000 3.431
25.28000 -2.197
25.30000 1.911
25.32000 6.075
25.34000 2.364
25.36000 1.666
25.38000 3.666
25.40000 7.256
25.42000 7.187
25.44000 2.233
25.46000 1.970
25.48000 2.002
25.50000 5.144
25.52000 0.759
25.54000 1.472
25.56000 5.563
25.58000 5.595
25.60000 1.169
25.62000 0.408
25.64000 6.772
25.66000 4.418
25.68000 4.106
25.70000 -1.188
25.72000 2.492
25.74000 4.758
25.76000 2.591
25.78000 -0.504
25.80000 3.448
25.82000 1.474
25.84000 2.274
25.86000 4.441
25.88000 7.450
25.90000 7.460
25.92000 3.762
25.94000 1.660
25.96000 3.993
25.98000 1.155
26.00000 -1.362
26.02000 -2.941
26.04000 3.324
26.06000 7.198
26.08000 7.257
26.10000 2.676
26.12000 -0.708
26.14000 0.197
26.16000 4.607
26.18000 4.251
26.20000 6.115
26.22000 2.959
26.24000 -2.353
26.26000 -1.577
26.28000 1.488
26.30000 -3.926
26.32000 1.859
26.34000 6.055
26.36000 9.504
26.38000 0.722
26.40000 -1.397
26.42000 3.109
26.44000 1.036
26.46000 0.053
26.48000 0.547
26.50000 2.558
26.52000 1.138
26.54000 -0.683
26.56000 -1.826
26.58000 -3.277
26.60000 4.063
26.62000 1.886
26.64000 1.176
26.66000 -3.021
26.68000 -1.227
26.70000 -2.086
26.72000 -2.644
26.74000 2.434
26.76000 10.295
26.78000 10.776
26.80000 6.231
26.82000 4.532
26.84000 -1.167
26.86000 -0.901
26.88000 2.153
26.90000 2.580
26.92000 -1.408
26.94000 -3.883
26.96000 -1.969
26.98000 5.619
27.00000 14.086
27.02000 4.929
27.04000 4.216
27.06000 4.102
27.08000 5.057
27.10000 3.202
27.12000 -1.510
27.14000 0.015
27.16000 2.530
27.18000 4.093
27.20000 3.927
27.22000 1.031
27.24000 -2.475
27.26000 -2.251
27.28000 -1.300
27.30000 3.156
27.32000 7.140
27.34000 4.357
27.36000 1.256
27.38000 0.145
27.40000 0.876
27.42000 -2.967
27.44000 3.117
27.46000 7.587
27.48000 5.938
27.50000 4.567
27.52000 5.290
27.54000 5.279
27.56000 0.826
27.58000 -1.271
27.60000 3.585
27.62000 8.309
27.64000 6.753
27.66000 3.810
27.68000 4.995
27.70000 5.352
27.72000 -0.258
27.74000 -2.150
27.76000 1.859
27.78000 5.497
27.80000 1.004
27.82000 -3.856
27.84000 -2.319
27.86000 4.367
27.88000 4.200
27.90000 6.331
27.92000 5.386
27.94000 5.626
27.96000 4.026
27.98000 5.263
28.00000 3.799
28.02000 2.576
28.04000 5.587
28.06000 1.616
28.08000 0.590
28.10000 0.881
28.12000 -0.232
28.14000 -2.889
28.16000 -0.487
28.18000 1.304
28.20000 1.501
28.22000 5.413
28.24000 3.195
28.26000 2.447
28.28000 0.852
28.30000 4.957
28.32000 1.973
28.34000 -0.553
28.36000 2.761
28.38000 3.593
28.40000 5.345
28.42000 4.391
28.44000 5.928
28.46000 8.226
28.48000 4.409
28.50000 1.788
28.52000 0.762
28.54000 -0.460
28.56000 3.445
28.58000 7.000
28.60000 3.500
28.62000 -0.160
28.64000 -0.079
28.66000 -0.648
28.68000 -3.815
28.70000 0.918
28.72000 4.279
28.74000 4.141
28.76000 1.056
28.78000 0.416
28.80000 3.594
28.82000 1.941
28.84000 4.569
28.86000 6.987
28.88000 5.599
28.90000 3.095
28.92000 4.057
28.94000 2.122
28.96000 -3.801
28.98000 -0.730
29.00000 5.746
29.02000 4.307
29.04000 6.337
29.06000 6.038
29.08000 5.358
29.10000 2.115
29.12000 -2.254
29.14000 -1.709
29.16000 -2.966
29.18000 -1.415
29.20000 1.058
29.22000 2.701
29.24000 -0.828
29.26000 1.615
29.28000 0.656
29.30000 -1.883
29.32000 0.738
29.34000 0.157
29.36000 2.039
29.38000 1.430
29.40000 6.500
29.42000 1.484
29.44000 -1.680
29.46000 1.144
29.48000 0.805
29.50000 7.758
29.52000 3.200
29.54000 -3.104
29.56000 -3.038
29.58000 0.949
29.60000 -3.284
29.62000 -1.118
29.64000 -0.142
29.66000 4.663
29.68000 0.634
29.70000 0.770
29.72000 8.375
29.74000 2.679
29.76000 0.786
29.78000 2.151
29.80000 3.691
29.82000 3.890
29.84000 5.297
29.86000 4.621
29.88000 6.501
29.90000 8.476
29.92000 2.663
29.94000 -0.145
29.96000 -2.025
29.98000 -1.048
30.00000 -1.037
30.02000 -1.758
30.04000 0.898
30.06000 3.780
30.08000 8.779
30.10000 6.056
30.12000 -0.038
30.14000 3.048
30.16000 5.212
30.18000 0.566
30.20000 -1.671
30.22000 1.471
30.24000 0.676
30.26000 1.119
30.28000 5.727
30.30000 10.689
30.32000 7.032
30.34000 -3.716
30.36000 -1.176
30.38000 -0.492
30.40000 3.502
30.42000 1.062
30.44000 2.339
30.46000 5.840
30.48000 1.425
30.50000 -0.780
30.52000 2.821
30.54000 5.219
30.56000 3.588
30.58000 -0.462
30.60000 -0.062
30.62000 0.696
30.64000 -3.220
30.66000 5.868
30.68000 7.153
30.70000 7.979
30.72000 8.737
30.74000 8.177
30.76000 7.830
30.78000 8.658
30.80000 3.625
30.82000 3.152
30.84000 5.968
30.86000 2.541
30.88000 -1.820
30.90000 -1.363
30.92000 3.105
30.94000 3.735
30.96000 1.192
30.98000 3.313
31.00000 4.949
31.02000 5.704
31.04000 4.505
31.06000 0.949
31.08000 2.388
31.10000 0.814
31.12000 2.033
31.14000 -2.548
31.16000 -0.606
31.18000 1.270
31.20000 -3.249
31.22000 -0.052
31.24000 6.221
31.26000 6.063
31.28000 1.657
31.30000 1.412
31.32000 0.233
31.34000 0.440
31.36000 3.841
31.38000 4.877
31.40000 2.338
31.42000 -0.687
31.44000 -0.285
31.46000 2.712
31.48000 3.893
31.50000 -0.558
31.52000 -1.311
31.54000 2.125
31.56000 4.740
31.58000 1.881
31.60000 -2.388
31.62000 -3.688
31.64000 -3.080
31.66000 -0.988
31.68000 3.808
31.70000 0.768
31.72000 0.048
31.74000 0.689
31.76000 1.008
31.78000 4.281
31.80000 4.645
31.82000 0.884
31.84000 2.321
31.86000 -2.000
31.88000 2.458
31.90000 -0.209
31.92000 0.599
31.94000 5.734
31.96000 7.313
31.98000 3.913
32.00000 -1.341
32.02000 -2.570
32.04000 2.546
32.06000 3.585
32.08000 7.354
32.10000 2.800
32.12000 5.360
32.14000 7.496
32.16000 6.419
32.18000 2.226
32.20000 3.855
32.22000 3.126
32.24000 4.515
32.26000 4.972
32.28000 8.713
32.30000 5.914
32.32000 0.758
32.34000 0.893
32.36000 7.402
32.38000 6.888
32.40000 2.075
32.42000 -0.125
32.44000 2.429
32.46000 3.641
32.48000 3.982
32.50000 5.807
32.52000 6.612
32.54000 4.552
32.56000 4.290
32.58000 5.433
32.60000 -3.631
32.62000 -2.675
32.64000 0.865
32.66000 3.186
32.68000 5.050
32.70000 5.277
32.72000 4.759
32.74000 9.822
32.76000 10.332
32.78000 3.113
32.80000 0.368
32.82000 1.894
32.84000 5.642
32.86000 2.850
32.88000 -1.394
32.90000 0.676
32.92000 6.269
32.94000 9.778
32.96000 3.419
32.98000 3.593
33.00000 2.355
33.02000 1.377
33.04000 0.251
33.06000 0.227
33.08000 1.414
33.10000 3.677
33.12000 6.923
33.14000 1.363
33.16000 0.935
33.18000 3.582
33.20000 4.589
33.22000 1.779
33.24000 2.307
33.26000 1.834
33.28000 2.422
33.30000 4.286
33.32000 6.669
33.34000 6.181
33.36000 7.446
33.38000 3.327
33.40000 3.677
33.42000 7.449
33.44000 9.119
33.46000 3.621
33.48000 2.344
33.50000 0.235
33.52000 -2.396
33.54000 2.463
33.56000 6.285
33.58000 2.257
33.60000 0.893
33.62000 3.937
33.64000 8.244
33.66000 6.824
33.68000 1.653
33.70000 -0.343
33.72000 -0.531
33.74000 2.794
33.76000 5.537
33.78000 4.409
33.80000 3.732
33.82000 6.300
33.84000 6.094
33.86000 5.228
33.88000 4.728
33.90000 4.307
33.92000 6.199
33.94000 4.118
33.96000 -0.451
33.98000 -3.644
34.00000 5.544
34.02000 3.867
34.04000 4.664
34.06000 8.533
34.08000 2.498
34.10000 0.672
34.12000 7.489
34.14000 8.221
34.16000 0.473
34.18000 1.961
34.20000 -0.569
34.22000 3.241
34.24000 9.272
34.26000 5.272
34.28000 2.159
34.30000 4.678
34.32000 5.176
34.34000 6.312
34.36000 5.220
34.38000 2.037
34.40000 0.864
34.42000 2.025
34.44000 1.581
34.46000 3.863
34.48000 5.106
34.50000 -0.532
34.52000 0.156
34.54000 0.058
34.56000 -3.636
34.58000 -0.167
34.60000 5.877
34.62000 6.850
34.64000 2.334
34.66000 3.423
34.68000 4.293
34.70000 3.589
34.72000 4.049
34.74000 10.007
34.76000 4.998
34.78000 2.237
34.80000 2.766
34.82000 0.214
34.84000 2.679
34.86000 -0.318
34.88000 4.358
34.90000 5.373
34.92000 8.066
34.94000 6.386
34.96000 -2.049
34.98000 -2.714
35.00000 -0.942
35.02000 4.494
35.04000 2.672
35.06000 -3.637
35.08000 0.226
35.10000 3.304
35.12000 7.761
35.14000 8.440
35.16000 4.938
35.18000 2.913
35.20000 -0.253
35.22000 -0.536
35.24000 -1.484
35.26000 -1.930
35.28000 -0.773
35.30000 2.767
35.32000 1.798
35.34000 1.808
35.36000 -0.584
35.38000 -2.230
35.40000 4.808
35.42000 3.883
35.44000 4.240
35.46000 5.937
35.48000 4.824
35.50000 2.447
35.52000 -3.636
35.54000 4.337
35.56000 2.287
35.58000 2.240
35.60000 8.221
35.62000 7.832
35.64000 8.477
35.66000 4.946
35.68000 2.627
35.70000 2.812
35.72000 3.942
35.74000 3.737
35.76000 1.860
35.78000 4.730
35.80000 4.737
35.82000 -0.025
35.84000 1.197
35.86000 4.400
35.88000 6.565
35.90000 -0.135
35.92000 0.472
35.94000 0.148
35.96000 5.625
35.98000 5.905
36.00000 1.974
36.02000 3.908
36.04000 4.449
36.06000 2.901
36.08000 0.526
36.10000 -2.308
36.12000 0.136
36.14000 2.332
36.16000 5.167
36.18000 1.837
36.20000 1.364
36.22000 5.580
36.24000 4.903
36.26000 1.379
36.28000 1.072
36.30000 0.176
36.32000 -3.669
36.34000 1.128
36.36000 3.655
36.38000 1.106
36.40000 3.671
36.42000 3.623
36.44000 1.046
36.46000 3.433
36.48000 1.606
36.50000 0.055
36.52000 3.498
36.54000 0.589
36.56000 2.490
36.58000 1.965
36.60000 4.686
36.62000 3.469
36.64000 0.311
36.66000 -3.542
36.68000 -0.062
36.70000 2.514
36.72000 0.516
36.74000 3.998
36.76000 3.411
36.78000 1.155
36.80000 0.318
36.82000 3.951
36.84000 4.721
36.86000 1.665
36.88000 5.425
36.90000 7.589
36.92000 8.698
36.94000 5.523
36.96000 2.306
36.98000 0.673
37.00000 0.433
37.02000 7.726
37.04000 12.840
37.06000 7.566
37.08000 3.602
37.10000 2.754
37.12000 -0.586
37.14000 1.977
37.16000 8.828
37.18000 5.999
37.20000 7.271
37.22000 8.000
37.24000 2.829
37.26000 3.933
37.28000 7.412
37.30000 10.237
37.32000 11.776
37.34000 8.836
37.36000 5.911
37.38000 5.863
37.40000 6.533
37.42000 8.079
37.44000 7.276
37.46000 8.367
37.48000 10.654
37.50000 15.742
37.52000 17.319
37.54000 14.817
37.56000 13.453
37.58000 13.282
37.60000 10.892
37.62000 15.120
37.64000 15.139
37.66000 20.181
37.68000 19.299
37.70000 20.290
37.72000 18.843
37.74000 17.786
37.76000 19.097
37.78000 20.946
37.80000 24.629
37.82000 27.080
37.84000 31.104
37.86000 30.122
37.88000 24.725
37.90000 24.945
37.92000 24.764
37.94000 27.075
37.96000 31.066
37.98000 26.543
38.00000 25.655
38.02000 30.683
38.04000 32.401
38.06000 29.880
38.08000 31.734
38.10000 33.984
38.12000 40.551
38.14000 42.004
38.16000 37.637
38.18000 40.570
38.20000 38.630
38.22000 41.187
38.24000 39.021
38.26000 37.782
38.28000 38.166
38.30000 42.600
38.32000 46.114
38.34000 50.740
38.36000 46.877
38.38000 49.021
38.40000 58.404
38.42000 60.227
38.44000 61.879
38.46000 72.290
38.48000 77.778
38.50000 77.191
38.52000 73.012
38.54000 76.954
38.56000 82.597
38.58000 84.397
38.60000 89.080
38.62000 104.208
38.64000 104.815
38.66000 109.483
38.68000 113.588
38.70000 119.334
38.72000 124.519
38.74000 132.000
38.76000 132.467
38.78000 138.549
38.80000 148.685
38.82000 162.949
38.84000 169.926
38.86000 175.633
38.88000 189.092
38.90000 205.399
38.92000 216.361
38.94000 223.012
38.96000 234.354
38.98000 250.346
39.00000 269.800
39.02000 284.289
39.04000 297.402
39.06000 312.334
39.08000 323.598
39.10000 343.087
39.12000 360.441
39.14000 380.691
39.16000 390.969
39.18000 401.025
39.20000 415.527
39.22000 437.859
39.24000 451.177
39.26000 457.151
39.28000 466.743
39.30000 472.324
39.32000 471.581
39.34000 474.482
39.36000 478.422
39.38000 480.295
39.40000 475.044
39.42000 476.192
39.44000 460.453
39.46000 447.050
39.48000 436.943
39.50000 423.201
39.52000 415.192
39.54000 402.766
39.56000 388.903
39.58000 370.016
39.60000 350.293
39.62000 335.739
39.64000 318.120
39.66000 298.869
39.68000 275.309
39.70000 263.639
39.72000 251.469
39.74000 236.452
39.76000 221.851
39.78000 205.754
39.80000 198.297
39.82000 189.524
39.84000 172.040
39.86000 160.850
39.88000 154.463
39.90000 140.734
39.92000 129.979
39.94000 122.352
39.96000 111.510
39.98000 105.366
40.00000 103.291
40.02000 100.115
40.04000 98.429
40.06000 88.743
40.08000 79.500
40.10000 72.422
40.12000 68.705
40.14000 64.763
40.16000 60.538
40.18000 55.137
40.20000 57.318
40.22000 52.991
40.24000 49.470
40.26000 45.262
40.28000 44.865
40.30000 39.033
40.32000 37.628
40.34000 39.263
40.36000 41.587
40.38000 37.950
40.40000 35.643
40.42000 26.998
40.44000 28.049
40.46000 27.281
40.48000 29.701
40.50000 25.044
40.52000 21.890
40.54000 21.384
40.56000 21.275
40.58000 22.067
40.60000 22.813
40.62000 23.021
40.64000 22.240
40.66000 15.263
40.68000 17.202
40.70000 13.985
40.72000 13.639
40.74000 12.879
40.76000 16.807
40.78000 14.910
40.80000 13.376
40.82000 12.533
40.84000 10.836
40.86000 11.617
40.88000 9.823
40.90000 10.949
40.92000 8.317
40.94000 11.634
40.96000 10.299
40.98000 7.958
41.00000 9.947
41.02000 8.306
41.04000 9.123
41.06000 9.808
41.08000 8.777
41.10000 6.683
41.12000 9.001
41.14000 7.440
41.16000 6.695
41.18000 6.461
41.20000 3.243
41.22000 7.673
41.24000 5.136
41.26000 0.379
41.28000 4.031
41.30000 6.004
41.32000 5.610
41.34000 5.264
41.36000 3.016
41.38000 1.721
41.40000 -0.414
41.42000 -3.173
41.44000 -1.261
41.46000 -0.256
41.48000 2.070
41.50000 -2.208
41.52000 2.942
41.54000 6.455
41.56000 2.787
41.58000 -3.425
41.60000 -2.399
41.62000 0.861
41.64000 -0.808
41.66000 0.776
41.68000 1.446
41.70000 -1.709
41.72000 -0.443
41.74000 3.690
41.76000 -2.192
41.78000 1.497
41.80000 2.510
41.82000 0.913
41.84000 0.352
41.86000 -0.406
41.88000 -0.708
41.90000 -0.368
41.92000 1.717
41.94000 0.151
41.96000 0.082
41.98000 0.641
42.00000 0.084
42.02000 0.281
42.04000 -0.613
42.06000 0.556
42.08000 2.719
42.10000 4.973
42.12000 5.655
42.14000 4.134
42.16000 1.818
42.18000 1.730
42.20000 4.375
42.22000 1.744
42.24000 -0.617
42.26000 2.887
42.28000 5.234
42.30000 3.627
42.32000 0.197
42.34000 2.349
42.36000 2.581
42.38000 0.681
42.40000 -0.763
42.42000 2.566
42.44000 3.386
42.46000 2.285
42.48000 3.114
42.50000 4.255
42.52000 -1.076
42.54000 -3.249
42.56000 0.040
42.58000 0.423
42.60000 4.477
42.62000 4.383
42.64000 -0.398
42.66000 3.979
42.68000 2.832
42.70000 1.454
42.72000 3.735
42.74000 4.673
42.76000 2.755
42.78000 5.073
42.80000 3.700
42.82000 2.520
42.84000 4.024
42.86000 3.895
42.88000 0.326
42.90000 4.259
42.92000 5.775
42.94000 6.092
42.96000 2.880
42.98000 1.579
43.00000 -0.470
43.02000 -2.411
43.04000 -3.185
43.06000 3.601
43.08000 5.054
43.10000 5.542
43.12000 5.891
43.14000 4.510
43.16000 3.073
43.18000 1.256
43.20000 4.654
43.22000 1.944
43.24000 3.917
43.26000 4.790
43.28000 -0.472
43.30000 1.923
43.32000 0.257
43.34000 -0.840
43.36000 -0.221
43.38000 -1.041
43.40000 1.573
43.42000 -2.254
43.44000 0.696
43.46000 2.292
43.48000 1.125
43.50000 0.759
43.52000 0.226
43.54000 3.299
43.56000 1.718
43.58000 3.447
43.60000 2.731
43.62000 1.670
43.64000 2.909
43.66000 5.551
43.68000 5.112
43.70000 4.371
43.72000 2.057
43.74000 0.724
43.76000 -0.542
43.78000 -0.043
43.80000 1.417
43.82000 1.608
43.84000 -0.883
43.86000 -0.588
43.88000 0.866
43.90000 1.578
43.92000 2.643
43.94000 -3.142
43.96000 -1.473
43.98000 2.979
44.00000 3.465
44.02000 2.031
44.04000 -0.978
44.06000 0.021
44.08000 2.289
44.10000 2.888
44.12000 3.286
44.14000 3.307
44.16000 -0.371
44.18000 -0.264
44.20000 -3.002
44.22000 1.933
44.24000 5.341
44.26000 1.135
44.28000 -0.321
44.30000 2.008
44.32000 -0.213
44.34000 -0.168
44.36000 2.551
44.38000 1.948
44.40000 1.977
44.42000 0.901
44.44000 2.585
44.46000 2.340
44.48000 3.277
44.50000 1.019
44.52000 2.446
44.54000 3.233
44.56000 3.337
44.58000 -0.216
44.60000 2.132
44.62000 2.242
44.64000 5.804
44.66000 7.557
44.68000 3.876
44.70000 2.834
44.72000 7.956
44.74000 7.154
44.76000 7.987
44.78000 5.343
44.80000 3.555
44.82000 5.280
44.84000 4.502
44.86000 8.940
44.88000 7.775
44.90000 9.773
44.92000 9.424
44.94000 9.829
44.96000 11.104
44.98000 14.458
45.00000 13.126
45.02000 10.945
45.04000 15.300
45.06000 18.110
45.08000 12.949
45.10000 15.544
45.12000 18.328
45.14000 20.412
45.16000 22.530
45.18000 22.045
45.20000 19.012
45.22000 20.684
45.24000 19.691
45.26000 21.676
45.28000 24.946
45.30000 23.938
45.32000 24.611
45.34000 26.496
45.36000 28.448
45.38000 31.416
45.40000 32.860
45.42000 32.750
45.44000 35.237
45.46000 36.591
45.48000 37.000
45.50000 39.464
45.52000 38.553
45.54000 43.773
45.56000 42.739
45.58000 43.500
45.60000 45.664
45.62000 50.406
45.64000 54.688
45.66000 55.064
45.68000 55.747
45.70000 57.054
45.72000 57.833
45.74000 59.948
45.76000 62.166
45.78000 61.962
45.80000 66.433
45.82000 67.552
45.84000 67.073
45.86000 63.308
45.88000 59.225
45.90000 68.684
45.92000 71.723
45.94000 71.261
45.96000 72.860
45.98000 75.861
46.00000 77.856
46.02000 73.025
46.04000 76.396
46.06000 74.715
46.08000 72.812
46.10000 68.976
46.12000 66.680
46.14000 69.519
46.16000 68.798
46.18000 67.807
46.20000 68.645
46.22000 67.710
46.24000 64.068
46.26000 66.481
46.28000 65.948
46.30000 60.789
46.32000 56.648
46.34000 54.215
46.36000 50.186
46.38000 51.170
46.40000 52.211
46.42000 51.292
46.44000 45.758
46.46000 41.109
46.48000 41.594
46.50000 39.553
46.52000 40.914
46.54000 39.698
46.56000 32.657
46.58000 32.318
46.60000 30.184
46.62000 26.567
46.64000 26.701
46.66000 23.748
46.68000 20.634
46.70000 23.859
46.72000 19.114
46.74000 19.290
46.76000 17.113
46.78000 17.684
46.80000 17.837
46.82000 16.427
46.84000 14.914
46.86000 17.767
46.88000 16.790
46.90000 13.341
46.92000 11.104
46.94000 10.967
46.96000 6.493
46.98000 7.970
47.00000 2.212
47.02000 5.646
47.04000 9.368
47.06000 8.107
47.08000 7.175
47.10000 2.134
47.12000 1.941
47.14000 7.953
47.16000 8.259
47.18000 3.307
47.20000 2.376
47.22000 4.834
47.24000 7.604
47.26000 5.906
47.28000 1.845
47.30000 1.814
47.32000 0.791
47.34000 0.786
47.36000 1.470
47.38000 0.556
47.40000 1.873
47.42000 2.125
47.44000 0.339
47.46000 -1.077
47.48000 2.068
47.50000 4.852
47.52000 5.843
47.54000 6.260
47.56000 2.408
47.58000 -1.892
47.60000 -2.725
47.62000 2.809
47.64000 2.672
47.66000 4.232
47.68000 0.554
47.70000 1.398
47.72000 1.198
47.74000 2.362
47.76000 -1.989
47.78000 -1.626
47.80000 2.921
47.82000 0.097
47.84000 2.414
47.86000 0.820
47.88000 1.270
47.90000 -0.787
47.92000 -0.268
47.94000 -1.279
47.96000 -0.819
47.98000 -0.263
48.00000 3.145
48.02000 1.308
48.04000 2.708
48.06000 3.037
48.08000 2.259
48.10000 -0.587
48.12000 -0.942
48.14000 0.631
48.16000 -1.964
48.18000 -0.987
48.20000 4.214
48.22000 0.895
48.24000 -0.360
48.26000 2.095
48.28000 4.185
48.30000 -0.609
48.32000 0.385
48.34000 -0.686
48.36000 1.023
48.38000 -2.217
48.40000 -0.694
48.42000 -1.751
48.44000 -1.930
48.46000 -1.994
48.48000 -0.031
48.50000 0.374
48.52000 2.517
48.54000 4.308
48.56000 -0.246
48.58000 -2.561
48.60000 -0.643
48.62000 2.496
48.64000 -1.064
48.66000 1.643
48.68000 3.642
48.70000 0.748
48.72000 0.230
48.74000 -2.525
48.76000 -2.580
48.78000 -0.778
48.80000 -0.994
48.82000 3.873
48.84000 1.177
48.86000 4.264
48.88000 4.469
48.90000 1.464
48.92000 -1.454
48.94000 0.961
48.96000 0.199
48.98000 3.095
49.00000 3.262
49.02000 3.841
49.04000 7.079
49.06000 5.893
49.08000 1.744
49.10000 -0.102
49.12000 3.492
49.14000 -0.260
49.16000 1.928
49.18000 3.145
49.20000 2.819
49.22000 6.507
49.24000 5.706
49.26000 7.833
49.28000 4.687
49.30000 5.213
49.32000 3.958
49.34000 1.587
49.36000 0.724
49.38000 2.914
49.40000 2.169
49.42000 2.214
49.44000 3.588
49.46000 2.471
49.48000 0.356
49.50000 -1.806
49.52000 1.375
49.54000 0.715
49.56000 3.489
49.58000 2.331
49.60000 0.673
49.62000 0.731
49.64000 3.684
49.66000 3.959
49.68000 3.988
49.70000 4.049
49.72000 3.318
49.74000 2.562
49.76000 0.379
49.78000 1.534
49.80000 3.168
49.82000 1.789
49.84000 3.701
49.86000 6.627
49.88000 4.380
49.90000 4.668
49.92000 5.020
49.94000 0.199
49.96000 -2.501
49.98000 0.657
50.00000 3.802
50.02000 5.824
50.04000 5.108
50.06000 4.992
50.08000 6.333
50.10000 2.108
50.12000 -0.304
50.14000 -0.645
50.16000 1.003
50.18000 1.865
50.20000 0.685
50.22000 2.217
50.24000 4.583
50.26000 4.887
50.28000 1.498
50.30000 5.448
50.32000 2.591
50.34000 2.916
50.36000 7.454
50.38000 6.924
50.40000 5.135
50.42000 7.103
50.44000 2.477
50.46000 1.037
50.48000 3.734
50.50000 6.340
50.52000 4.228
50.54000 4.506
50.56000 1.441
50.58000 2.320
50.60000 5.986
50.62000 6.176
50.64000 2.101
50.66000 0.927
50.68000 -1.510
50.70000 0.111
50.72000 5.548
50.74000 5.820
50.76000 3.993
50.78000 0.794
50.80000 -1.113
50.82000 0.668
50.84000 2.630
50.86000 1.133
50.88000 -0.358
50.90000 4.058
50.92000 4.327
50.94000 1.989
50.96000 -2.478
50.98000 1.066
51.00000 1.205
51.02000 4.392
51.04000 1.764
51.06000 -0.888
51.08000 3.115
51.10000 4.503
51.12000 6.475
51.14000 3.089
51.16000 -0.733
51.18000 1.716
51.20000 3.625
51.22000 2.955
51.24000 -0.102
51.26000 3.442
51.28000 0.924
51.30000 1.390
51.32000 4.792
51.34000 4.090
51.36000 1.221
51.38000 2.175
51.40000 3.871
51.42000 1.830
51.44000 1.469
51.46000 5.662
51.48000 6.233
51.50000 5.100
51.52000 4.840
51.54000 6.724
51.56000 2.871
51.58000 2.813
51.60000 3.877
51.62000 2.882
51.64000 2.042
51.66000 -1.493
51.68000 -2.486
51.70000 -2.263
51.72000 -1.013
51.74000 3.070
51.76000 2.890
51.78000 -0.125
51.80000 0.618
51.82000 2.188
51.84000 2.183
51.86000 2.706
51.88000 -0.749
51.90000 -1.568
51.92000 4.313
51.94000 4.061
51.96000 1.514
51.98000 -2.061
52.00000 -1.019
52.02000 2.016
52.04000 2.462
52.06000 0.840
52.08000 -0.588
52.10000 0.877
52.12000 0.124
52.14000 0.803
52.16000 1.716
52.18000 1.439
52.20000 1.861
52.22000 1.032
52.24000 3.036
52.26000 5.396
52.28000 0.589
52.30000 2.848
52.32000 4.802
52.34000 -0.927
52.36000 -0.531
52.38000 1.870
52.40000 4.490
52.42000 2.625
52.44000 1.328
52.46000 -1.632
52.48000 0.449
52.50000 0.201
52.52000 0.225
52.54000 0.603
52.56000 -1.022
52.58000 3.267
52.60000 4.935
52.62000 4.074
52.64000 0.531
52.66000 1.975
52.68000 6.569
52.70000 9.193
52.72000 7.958
52.74000 3.634
52.76000 -0.330
52.78000 3.403
52.80000 5.955
52.82000 4.507
52.84000 2.839
52.86000 4.667
52.88000 4.022
52.90000 2.736
52.92000 1.196
52.94000 3.093
52.96000 1.100
52.98000 -0.249
53.00000 1.320
53.02000 3.448
53.04000 1.169
53.06000 -0.706
53.08000 3.193
53.10000 4.602
53.12000 1.351
53.14000 3.748
53.16000 5.904
53.18000 2.250
53.20000 3.514
53.22000 4.617
53.24000 1.885
53.26000 -2.398
53.28000 1.375
53.30000 6.219
53.32000 5.505
53.34000 3.990
53.36000 5.569
53.38000 4.491
53.40000 4.496
53.42000 6.365
53.44000 2.083
53.46000 -1.530
53.48000 -0.725
53.50000 2.154
53.52000 6.045
53.54000 4.834
53.56000 4.212
53.58000 2.798
53.60000 2.625
53.62000 2.258
53.64000 2.109
53.66000 1.802
53.68000 1.579
53.70000 2.421
53.72000 4.700
53.74000 1.871
53.76000 1.774
53.78000 1.342
53.80000 1.365
53.82000 2.283
53.84000 5.042
53.86000 6.150
53.88000 4.945
53.90000 6.844
53.92000 3.335
53.94000 -0.223
53.96000 -2.389
53.98000 1.304
54.00000 4.089
54.02000 3.329
54.04000 2.066
54.06000 4.360
54.08000 2.549
54.10000 7.272
54.12000 7.756
54.14000 4.835
54.16000 3.942
54.18000 6.273
54.20000 2.858
54.22000 2.996
54.24000 2.350
54.26000 2.386
54.28000 0.317
54.30000 3.504
54.32000 2.108
54.34000 1.411
54.36000 3.665
54.38000 2.737
54.40000 1.527
54.42000 0.437
54.44000 1.241
54.46000 2.074
54.48000 -0.417
54.50000 0.472
54.52000 3.344
54.54000 6.016
54.56000 4.396
54.58000 2.024
54.60000 1.836
54.62000 -1.134
54.64000 -1.560
54.66000 1.824
54.68000 0.207
54.70000 -1.611
54.72000 3.351
54.74000 5.260
54.76000 3.756
54.78000 2.701
54.80000 1.581
54.82000 0.120
54.84000 0.579
54.86000 1.631
54.88000 2.218
54.90000 3.663
54.92000 1.439
54.94000 2.567
54.96000 1.925
54.98000 -1.089
55.00000 1.726
55.02000 3.094
55.04000 2.499
55.06000 4.162
55.08000 1.880
55.10000 -0.936
55.12000 2.031
55.14000 2.253
55.16000 1.768
55.18000 1.648
55.20000 -0.861
55.22000 -0.704
55.24000 2.932
55.26000 2.077
55.28000 2.502
55.30000 -0.623
55.32000 -0.157
55.34000 0.676
55.36000 3.191
55.38000 1.258
55.40000 -0.962
55.42000 -2.199
55.44000 0.443
55.46000 1.399
55.48000 2.557
55.50000 4.881
55.52000 3.965
55.54000 -0.443
55.56000 -1.709
55.58000 -1.510
55.60000 0.707
55.62000 2.375
55.64000 -1.053
55.66000 1.607
55.68000 2.041
55.70000 -2.377
55.72000 1.408
55.74000 2.487
55.76000 5.008
55.78000 2.665
55.80000 -0.251
55.82000 1.269
55.84000 0.740
55.86000 0.283
55.88000 1.592
55.90000 -0.222
55.92000 1.511
55.94000 1.920
55.96000 0.392
55.98000 0.688
56.00000 -0.354
56.02000 0.245
56.04000 4.869
56.06000 4.926
56.08000 4.441
56.10000 3.943
56.12000 2.399
56.14000 3.573
56.16000 5.812
56.18000 2.666
56.20000 1.378
56.22000 2.276
56.24000 -0.832
56.26000 0.322
56.28000 -0.749
56.30000 0.988
56.32000 2.006
56.34000 2.633
56.36000 1.632
56.38000 3.325
56.40000 -0.071
56.42000 -0.743
56.44000 2.458
56.46000 3.446
56.48000 2.204
56.50000 -0.871
56.52000 0.437
56.54000 1.422
56.56000 0.722
56.58000 1.003
56.60000 1.435
56.62000 -0.457
56.64000 -0.446
56.66000 2.091
56.68000 3.355
56.70000 3.119
56.72000 5.176
56.74000 0.468
56.76000 -2.353
56.78000 1.911
56.80000 4.778
56.82000 3.763
56.84000 -1.613
56.86000 -0.339
56.88000 1.993
56.90000 4.502
56.92000 1.973
56.94000 2.353
56.96000 5.610
56.98000 4.888
57.00000 4.560
57.02000 3.987
57.04000 1.727
57.06000 3.410
57.08000 1.811
57.10000 2.954
57.12000 4.165
57.14000 1.099
57.16000 0.795
57.18000 3.778
57.20000 4.615
57.22000 3.440
57.24000 2.088
57.26000 3.805
57.28000 1.508
57.30000 0.865
57.32000 -0.279
57.34000 2.029
57.36000 2.819
57.38000 2.280
57.40000 -0.199
57.42000 0.966
57.44000 2.911
57.46000 2.898
57.48000 2.046
57.50000 6.147
57.52000 7.120
57.54000 2.385
57.56000 2.825
57.58000 0.649
57.60000 3.106
57.62000 3.742
57.64000 0.223
57.66000 -2.309
57.68000 1.210
57.70000 4.540
57.72000 5.620
57.74000 8.199
57.76000 7.108
57.78000 2.137
57.80000 -0.539
57.82000 0.835
57.84000 0.983
57.86000 2.135
57.88000 2.511
57.90000 2.999
57.92000 4.272
57.94000 3.487
57.96000 2.098
57.98000 -0.938
58.00000 1.823
58.02000 3.410
58.04000 2.609
58.06000 -0.326
58.08000 1.321
58.10000 -1.262
58.12000 -1.886
58.14000 -0.837
58.16000 1.033
58.18000 3.848
58.20000 0.631
58.22000 1.884
58.24000 2.146
58.26000 1.976
58.28000 3.911
58.30000 0.579
58.32000 -1.315
58.34000 -0.568
58.36000 1.770
58.38000 -0.034
58.40000 2.964
58.42000 3.400
58.44000 -0.047
58.46000 -0.293
58.48000 0.441
58.50000 1.541
58.52000 2.124
58.54000 2.718
58.56000 3.476
58.58000 1.050
58.60000 3.192
58.62000 2.414
58.64000 3.579
58.66000 1.914
58.68000 -0.967
58.70000 2.692
58.72000 1.378
58.74000 1.012
58.76000 2.358
58.78000 2.889
58.80000 1.645
58.82000 0.078
58.84000 0.006
58.86000 1.027
58.88000 1.568
58.90000 -0.702
58.92000 -1.081
58.94000 0.084
58.96000 2.140
58.98000 1.001
59.00000 0.717
59.02000 0.005
59.04000 2.768
59.06000 2.501
59.08000 3.318
59.10000 1.287
59.12000 1.293
59.14000 -0.325
59.16000 1.664
59.18000 3.233
59.20000 3.622
59.22000 3.284
59.24000 1.283
59.26000 -0.101
59.28000 -2.151
59.30000 -0.538
59.32000 -2.283
59.34000 2.538
59.36000 1.077
59.38000 3.483
59.40000 4.206
59.42000 -0.615
59.44000 3.852
59.46000 3.663
59.48000 0.964
59.50000 -0.047
59.52000 3.165
59.54000 1.556
59.56000 5.378
59.58000 5.494
59.60000 4.313
59.62000 2.402
59.64000 0.651
59.66000 3.724
59.68000 1.827
59.70000 1.932
59.72000 -1.528
59.74000 -2.265
59.76000 -0.122
59.78000 0.934
59.80000 -1.136
59.82000 1.913
59.84000 -0.536
59.86000 -1.582
59.88000 1.286
59.90000 0.270
59.92000 0.344
59.94000 3.020
59.96000 3.534
59.98000 2.014
60.00000 2.778
60.02000 1.788
60.04000 0.226
60.06000 0.698
60.08000 1.215
60.10000 -1.484
60.12000 -0.406
60.14000 0.424
60.16000 2.253
60.18000 3.546
60.20000 -1.255
60.22000 2.656
60.24000 2.619
60.26000 -0.020
60.28000 1.303
60.30000 2.940
60.32000 3.824
60.34000 0.457
60.36000 -2.248
60.38000 2.494
60.40000 4.545
60.42000 1.254
60.44000 1.947
60.46000 -0.334
60.48000 0.650
60.50000 1.697
60.52000 -0.578
60.54000 0.263
60.56000 -0.249
60.58000 1.678
60.60000 0.177
60.62000 1.332
60.64000 -0.773
60.66000 -1.648
60.68000 0.438
60.70000 -0.401
60.72000 0.458
60.74000 3.064
60.76000 2.963
60.78000 1.518
60.80000 0.572
60.82000 -0.186
60.84000 0.274
60.86000 -0.217
60.88000 0.865
60.90000 0.892
60.92000 0.953
60.94000 3.323
60.96000 2.782
60.98000 2.740
61.00000 4.552
61.02000 4.047
61.04000 4.222
61.06000 2.073
61.08000 -0.282
61.10000 1.214
61.12000 1.508
61.14000 1.947
61.16000 0.083
61.18000 -1.189
61.20000 -0.373
61.22000 2.398
61.24000 3.825
61.26000 2.239
61.28000 0.542
61.30000 0.931
61.32000 -0.736
61.34000 -2.208
61.36000 1.579
61.38000 1.803
61.40000 1.803
61.42000 -0.115
61.44000 0.804
61.46000 4.025
61.48000 3.520
61.50000 -0.019
61.52000 -1.565
61.54000 -2.203
61.56000 1.513
61.58000 3.335
61.60000 2.623
61.62000 1.873
61.64000 2.322
61.66000 1.111
61.68000 -2.199
61.70000 0.545
61.72000 2.317
61.74000 1.289
61.76000 1.057
61.78000 -1.293
61.80000 3.345
61.82000 5.816
61.84000 4.095
61.86000 3.324
61.88000 3.900
61.90000 1.214
61.92000 -0.468
61.94000 -1.476
61.96000 -1.609
61.98000 -0.988
62.00000 -0.972
62.02000 0.969
62.04000 1.177
62.06000 1.500
62.08000 -0.849
62.10000 2.616
62.12000 2.527
62.14000 0.495
62.16000 0.638
62.18000 -0.261
62.20000 -0.207
62.22000 1.456
62.24000 2.089
62.26000 2.671
62.28000 -1.131
62.30000 -1.296
62.32000 2.700
62.34000 2.276
62.36000 0.552
62.38000 -0.623
62.40000 1.112
62.42000 3.523
62.44000 2.472
62.46000 0.000
62.48000 -0.696
62.50000 0.278
62.52000 -0.070
62.54000 -1.637
62.56000 -0.134
62.58000 0.599
62.60000 -2.193
62.62000 2.211
62.64000 0.816
62.66000 3.518
62.68000 5.186
62.70000 0.881
62.72000 0.397
62.74000 0.277
62.76000 0.364
62.78000 1.456
62.80000 3.769
62.82000 1.955
62.84000 3.528
62.86000 3.769
62.88000 2.879
62.90000 0.857
62.92000 0.769
62.94000 0.084
62.96000 2.464
62.98000 0.681
63.00000 -2.199
63.02000 2.490
63.04000 1.610
63.06000 -1.204
63.08000 -1.502
63.10000 1.715
63.12000 1.100
63.14000 -0.822
63.16000 0.518
63.18000 0.418
63.20000 0.387
63.22000 -1.444
63.24000 -0.586
63.26000 0.956
63.28000 -1.499
63.30000 -1.324
63.32000 -1.850
63.34000 -1.355
63.36000 -0.397
63.38000 0.884
63.40000 1.863
63.42000 2.539
63.44000 1.134
63.46000 3.690
63.48000 2.138
63.50000 4.401
63.52000 4.790
63.54000 1.326
63.56000 -0.334
63.58000 1.247
63.60000 -2.198
63.62000 -0.097
63.64000 -0.226
63.66000 0.256
63.68000 -0.195
63.70000 1.516
63.72000 0.618
63.74000 -2.057
63.76000 -1.706
63.78000 -0.344
63.80000 0.495
63.82000 1.941
63.84000 1.467
63.86000 1.083
63.88000 2.012
63.90000 1.873
63.92000 0.675
63.94000 1.238
63.96000 1.133
63.98000 2.843
64.00000 2.326
64.02000 2.555
64.04000 2.527
64.06000 0.009
64.08000 1.236
64.10000 2.197
64.12000 2.655
64.14000 3.555
64.16000 2.964
64.18000 0.425
64.20000 4.009
64.22000 3.229
64.24000 -0.054
64.26000 -2.196
64.28000 -0.962
64.30000 -0.355
64.32000 -0.319
64.34000 -0.104
64.36000 0.438
64.38000 -0.853
64.40000 2.070
64.42000 0.657
64.44000 -2.135
64.46000 -1.447
64.48000 0.414
64.50000 -0.757
64.52000 0.432
64.54000 0.051
64.56000 -2.191
64.58000 -1.214
64.60000 0.506
64.62000 0.416
64.64000 -0.334
64.66000 1.553
64.68000 2.485
64.70000 0.832
64.72000 1.212
64.74000 2.014
64.76000 0.106
64.78000 0.966
64.80000 -0.108
64.82000 -0.342
64.84000 0.476
64.86000 2.241
64.88000 1.384
64.90000 1.298
64.92000 -1.122
64.94000 -0.509
64.96000 -1.465
64.98000 -0.607
65.00000 3.134
65.02000 1.257
65.04000 -1.773
65.06000 -0.722
65.08000 2.331
65.10000 1.167
65.12000 -0.219
65.14000 0.292
65.16000 -0.617
65.18000 2.290
65.20000 5.366
65.22000 1.913
65.24000 -2.171
65.26000 -1.547
65.28000 -0.187
65.30000 1.385
65.32000 2.556
65.34000 1.536
65.36000 2.942
65.38000 4.457
65.40000 4.833
65.42000 1.986
65.44000 2.004
65.46000 1.618
65.48000 0.309
65.50000 -0.040
65.52000 0.614
65.54000 -0.779
65.56000 0.156
65.58000 -0.010
65.60000 2.094
65.62000 1.553
65.64000 2.389
65.66000 2.442
65.68000 0.439
65.70000 1.313
65.72000 1.390
65.74000 0.148
65.76000 1.116
65.78000 -0.441
65.80000 -0.022
65.82000 1.318
65.84000 0.725
65.86000 1.028
65.88000 3.463
65.90000 0.140
65.92000 -0.281
65.94000 1.158
65.96000 1.941
65.98000 -0.805
66.00000 -0.903
66.02000 1.197
66.04000 3.525
66.06000 1.505
66.08000 2.593
66.10000 0.295
66.12000 0.508
66.14000 -0.192
66.16000 2.377
66.18000 -0.259
66.20000 -1.579
66.22000 0.744
66.24000 4.337
66.26000 5.241
66.28000 7.620
66.30000 5.356
66.32000 3.771
66.34000 1.035
66.36000 2.496
66.38000 4.993
66.40000 5.849
66.42000 3.620
66.44000 6.963
66.46000 5.945
66.48000 3.860
66.50000 5.505
66.52000 5.061
66.54000 7.421
66.56000 4.691
66.58000 4.658
66.60000 7.139
66.62000 7.716
66.64000 7.083
66.66000 9.666
66.68000 9.441
66.70000 6.537
66.72000 9.279
66.74000 8.990
66.76000 9.144
66.78000 9.894
66.80000 6.984
66.82000 9.031
66.84000 10.652
66.86000 6.591
66.88000 7.103
66.90000 3.885
66.92000 7.295
66.94000 8.837
66.96000 9.051
66.98000 9.843
67.00000 10.175
67.02000 9.578
67.04000 9.186
67.06000 7.959
67.08000 6.265
67.10000 7.066
67.12000 4.058
67.14000 6.215
67.16000 8.649
67.18000 5.854
67.20000 9.914
67.22000 8.234
67.24000 6.667
67.26000 7.915
67.28000 6.691
67.30000 5.468
67.32000 4.572
67.34000 5.232
67.36000 5.851
67.38000 7.552
67.40000 7.366
67.42000 8.444
67.44000 6.601
67.46000 6.102
67.48000 2.922
67.50000 2.239
67.52000 5.512
67.54000 3.127
67.56000 4.074
67.58000 2.540
67.60000 2.248
67.62000 3.275
67.64000 2.274
67.66000 2.280
67.68000 4.509
67.70000 2.503
67.72000 1.657
67.74000 1.632
67.76000 -1.910
67.78000 -2.133
67.80000 1.756
67.82000 1.914
67.84000 0.706
67.86000 0.880
67.88000 2.506
67.90000 1.955
67.92000 0.636
67.94000 1.306
67.96000 1.804
67.98000 3.731
68.00000 0.508
68.02000 -0.494
68.04000 1.922
68.06000 -1.154
68.08000 -1.134
68.10000 1.503
68.12000 1.749
68.14000 -0.131
68.16000 1.767
68.18000 -0.085
68.20000 -0.331
68.22000 0.878
68.24000 -0.973
68.26000 -1.317
68.28000 1.831
68.30000 0.436
68.32000 0.168
68.34000 -1.476
68.36000 2.161
68.38000 -0.377
68.40000 -2.070
68.42000 0.150
68.44000 -0.614
68.46000 -0.688
68.48000 0.570
68.50000 1.224
68.52000 1.551
68.54000 2.575
68.56000 1.399
68.58000 0.671
68.60000 -0.918
68.62000 -2.048
68.64000 0.453
68.66000 3.713
68.68000 5.204
68.70000 2.877
68.72000 4.581
68.74000 3.488
68.76000 1.745
68.78000 3.046
68.80000 2.006
68.82000 0.331
68.84000 1.308
68.86000 1.102
68.88000 1.440
68.90000 3.489
68.92000 2.083
68.94000 1.414
68.96000 1.542
68.98000 2.937
69.00000 0.510
69.02000 0.550
69.04000 2.615
69.06000 2.369
69.08000 2.706
69.10000 2.293
69.12000 1.374
69.14000 -0.312
69.16000 0.063
69.18000 2.711
69.20000 0.917
69.22000 2.199
69.24000 -2.020
69.26000 -0.116
69.28000 0.914
69.30000 -1.246
69.32000 -0.154
69.34000 0.590
69.36000 1.628
69.38000 2.013
69.40000 2.886
69.42000 4.454
69.44000 7.323
69.46000 4.348
69.48000 1.901
69.50000 0.892
69.52000 0.332
69.54000 -0.420
69.56000 1.210
69.58000 1.630
69.60000 1.687
69.62000 1.569
69.64000 4.175
69.66000 4.861
69.68000 3.054
69.70000 0.330
69.72000 -1.990
69.74000 1.049
69.76000 3.162
69.78000 2.815
69.80000 2.915
69.82000 1.124
69.84000 3.966
69.86000 4.555
69.88000 1.650
69.90000 1.752
69.92000 0.544
69.94000 0.167
69.96000 1.129
69.98000 2.717
70.00000 2.078
70.02000 -0.349
70.04000 -1.175
70.06000 3.001
70.08000 1.921
70.10000 2.450
70.12000 0.716
70.14000 2.099
70.16000 2.546
70.18000 1.126
70.20000 0.515
70.22000 -0.886
70.24000 -0.614
70.26000 0.044
70.28000 -1.992
70.30000 -0.015
70.32000 2.497
70.34000 3.091
70.36000 3.586
70.38000 1.197
70.40000 1.024
70.42000 2.226
70.44000 -0.110
70.46000 -0.555
70.48000 -1.352
70.50000 0.062
70.52000 1.374
70.54000 1.043
70.56000 -0.596
70.58000 0.820
70.60000 2.598
70.62000 1.526
70.64000 2.228
70.66000 -1.619
70.68000 0.221
70.70000 2.511
70.72000 2.783
70.74000 2.641
70.76000 1.618
70.78000 -0.008
70.80000 2.917
70.82000 1.506
70.84000 0.108
70.86000 -0.065
70.88000 -0.365
70.90000 -0.689
70.92000 -1.663
70.94000 -1.057
70.96000 1.677
70.98000 2.014
71.00000 2.237
71.02000 1.895
71.04000 3.070
71.06000 3.347
71.08000 1.433
71.10000 0.585
71.12000 1.830
71.14000 1.253
71.16000 5.181
71.18000 4.259
71.20000 0.968
71.22000 1.713
71.24000 0.770
71.26000 -0.206
71.28000 2.573
71.30000 1.282
71.32000 1.207
71.34000 2.411
71.36000 3.922
71.38000 1.942
71.40000 1.668
71.42000 1.313
71.44000 2.126
71.46000 2.857
71.48000 1.475
71.50000 2.369
71.52000 5.171
71.54000 2.986
71.56000 3.840
71.58000 6.906
71.60000 3.550
71.62000 1.718
71.64000 3.522
71.66000 5.452
71.68000 2.278
71.70000 3.115
71.72000 3.837
71.74000 1.597
71.76000 -0.946
71.78000 -1.889
71.80000 1.423
71.82000 3.897
71.84000 4.504
71.86000 5.519
71.88000 3.444
71.90000 4.264
71.92000 4.936
71.94000 4.295
71.96000 1.546
71.98000 -0.456
72.00000 -0.119
72.02000 -0.233
72.04000 2.498
72.06000 0.743
72.08000 0.620
72.10000 0.679
72.12000 2.097
72.14000 2.674
72.16000 0.883
72.18000 2.500
72.20000 4.574
72.22000 2.789
72.24000 2.859
72.26000 0.577
72.28000 0.972
72.30000 -0.541
72.32000 1.398
72.34000 1.323
72.36000 1.907
72.38000 2.940
72.40000 2.349
72.42000 -0.734
72.44000 0.004
72.46000 0.133
72.48000 1.851
72.50000 1.250
72.52000 0.813
72.54000 2.363
72.56000 1.266
72.58000 -1.152
72.60000 1.252
72.62000 2.245
72.64000 2.658
72.66000 -0.260
72.68000 -0.704
72.70000 0.078
72.72000 -0.191
72.74000 -1.440
72.76000 -1.624
72.78000 0.171
72.80000 -1.922
72.82000 0.952
72.84000 1.675
72.86000 0.897
72.88000 -1.173
72.90000 0.395
72.92000 0.990
72.94000 -1.714
72.96000 -1.332
72.98000 -1.140
73.00000 -0.814
73.02000 2.634
73.04000 1.852
73.06000 -0.988
73.08000 0.787
73.10000 -0.358
73.12000 -0.991
73.14000 0.981
73.16000 -1.235
73.18000 0.356
73.20000 1.103
73.22000 0.998
73.24000 0.641
73.26000 -0.695
73.28000 2.292
73.30000 3.891
73.32000 3.156
73.34000 1.949
73.36000 1.818
73.38000 1.113
73.40000 -0.540
73.42000 -0.444
73.44000 0.652
73.46000 0.064
73.48000 -0.189
73.50000 -0.091
73.52000 -1.909
73.54000 0.055
73.56000 1.131
73.58000 1.167
73.60000 2.363
73.62000 0.042
73.64000 1.033
73.66000 -0.211
73.68000 0.064
73.70000 -0.495
73.72000 -1.412
73.74000 0.637
73.76000 2.811
73.78000 1.007
73.80000 -0.863
73.82000 1.740
73.84000 1.671
73.86000 0.778
73.88000 -1.580
73.90000 -1.864
73.92000 1.230
73.94000 1.825
73.96000 0.476
73.98000 -0.178
74.00000 1.527
74.02000 1.346
74.04000 2.488
74.06000 -0.023
74.08000 -1.502
74.10000 -1.295
74.12000 -0.552
74.14000 2.667
74.16000 2.758
74.18000 1.050
74.20000 2.614
74.22000 -0.619
74.24000 -0.932
74.26000 1.208
74.28000 1.252
74.30000 -1.805
74.32000 -1.733
74.34000 0.753
74.36000 2.528
74.38000 1.469
74.40000 0.214
74.42000 2.022
74.44000 2.754
74.46000 1.640
74.48000 2.586
74.50000 1.021
74.52000 -1.900
74.54000 -0.696
74.56000 0.265
74.58000 -1.114
74.60000 -1.171
74.62000 -1.278
74.64000 1.876
74.66000 3.529
74.68000 2.820
74.70000 -1.343
74.72000 -1.898
74.74000 1.769
74.76000 3.255
74.78000 2.300
74.80000 0.645
74.82000 0.069
74.84000 1.490
74.86000 -0.512
74.88000 0.790
74.90000 -0.415
74.92000 1.649
74.94000 1.300
74.96000 0.578
74.98000 0.691
75.00000 1.269
75.02000 0.833
75.04000 0.950
75.06000 1.887
75.08000 1.263
75.10000 4.775
75.12000 4.068
75.14000 1.578
75.16000 3.783
75.18000 0.800
75.20000 -0.285
75.22000 1.734
75.24000 0.665
75.26000 2.009
75.28000 0.927
75.30000 0.899
75.32000 2.622
75.34000 4.363
75.36000 2.501
75.38000 2.258
75.40000 -0.020
75.42000 -1.471
75.44000 1.842
75.46000 1.864
75.48000 1.150
75.50000 2.851
75.52000 2.890
75.54000 2.328
75.56000 2.402
75.58000 2.086
75.60000 0.983
75.62000 2.560
75.64000 1.544
75.66000 1.594
75.68000 -0.062
75.70000 2.779
75.72000 2.551
75.74000 2.459
75.76000 2.389
75.78000 1.017
75.80000 1.627
75.82000 2.526
75.84000 3.546
75.86000 1.465
75.88000 4.028
75.90000 6.532
75.92000 5.482
75.94000 4.947
75.96000 1.418
75.98000 -1.876
76.00000 1.853
76.02000 1.407
76.04000 0.435
76.06000 3.365
76.08000 0.653
76.10000 -0.088
76.12000 -1.149
76.14000 2.606
76.16000 2.759
76.18000 0.696
76.20000 1.065
76.22000 0.972
76.24000 0.443
76.26000 2.343
76.28000 3.054
76.30000 3.229
76.32000 2.230
76.34000 0.825
76.36000 4.594
76.38000 0.230
76.40000 0.007
76.42000 1.773
76.44000 2.704
76.46000 2.655
76.48000 2.167
76.50000 -0.257
76.52000 0.932
76.54000 2.492
76.56000 1.585
76.58000 0.122
76.60000 0.498
76.62000 2.052
76.64000 1.474
76.66000 0.076
76.68000 2.294
76.70000 2.626
76.72000 0.869
76.74000 0.416
76.76000 1.454
76.78000 0.386
76.80000 3.040
76.82000 4.227
76.84000 2.811
76.86000 1.901
76.88000 4.867
76.90000 3.973
76.92000 2.184
76.94000 0.831
76.96000 0.545
76.98000 1.744
77.00000 5.830
77.02000 4.297
77.04000 0.284
77.06000 1.794
77.08000 2.511
77.10000 1.955
77.12000 1.547
77.14000 1.618
77.16000 1.982
77.18000 3.169
77.20000 2.217
77.22000 2.873
77.24000 4.075
77.26000 0.954
77.28000 2.950
77.30000 4.488
77.32000 4.855
77.34000 1.952
77.36000 1.798
77.38000 1.907
77.40000 4.994
77.42000 3.563
77.44000 2.522
77.46000 4.348
77.48000 4.089
77.50000 2.054
77.52000 2.230
77.54000 1.375
77.56000 2.210
77.58000 2.309
77.60000 2.670
77.62000 -0.204
77.64000 -1.926
77.66000 0.065
77.68000 3.264
77.70000 2.851
77.72000 3.327
77.74000 2.550
77.76000 3.340
77.78000 1.583
77.80000 3.643
77.82000 2.909
77.84000 5.891
77.86000 4.480
77.88000 0.629
77.90000 1.360
77.92000 3.434
77.94000 2.316
77.96000 1.325
77.98000 3.768
78.00000 4.984
78.02000 3.390
78.04000 3.053
78.06000 2.883
78.08000 1.278
78.10000 0.415
78.12000 0.491
78.14000 2.365
78.16000 0.225
78.18000 0.494
78.20000 0.264
78.22000 2.006
78.24000 2.547
78.26000 2.180
78.28000 0.871
78.30000 -0.271
78.32000 0.941
78.34000 3.151
78.36000 2.953
78.38000 0.676
78.40000 2.151
78.42000 1.656
78.44000 -1.216
78.46000 -0.786
78.48000 -1.994
78.50000 -0.215
78.52000 3.197
78.54000 0.356
78.56000 1.251
78.58000 -0.032
78.60000 0.339
78.62000 4.389
78.64000 2.686
78.66000 1.432
78.68000 1.236
78.70000 1.595
78.72000 2.687
78.74000 0.103
78.76000 0.134
78.78000 -2.008
78.80000 -0.195
78.82000 -1.102
78.84000 0.636
78.86000 0.282
78.88000 0.267
78.90000 0.938
78.92000 2.227
78.94000 -0.570
78.96000 1.076
78.98000 1.324
79.00000 1.367
79.02000 1.089
79.04000 0.261
79.06000 0.927
79.08000 0.744
79.10000 0.150
79.12000 0.683
79.14000 0.524
79.16000 0.907
79.18000 -1.017
79.20000 1.370
79.22000 0.909
79.24000 -0.363
79.26000 -0.732
79.28000 1.608
79.30000 0.912
79.32000 2.215
79.34000 5.732
79.36000 2.652
79.38000 1.289
79.40000 -0.467
79.42000 0.268
79.44000 0.650
79.46000 3.677
79.48000 3.241
79.50000 2.745
79.52000 2.737
79.54000 4.985
79.56000 4.344
79.58000 1.417
79.60000 3.182
79.62000 2.416
79.64000 2.003
79.66000 2.836
79.68000 6.077
79.70000 5.880
79.72000 3.612
79.74000 2.288
79.76000 1.548
79.78000 4.851
79.80000 8.353
79.82000 7.810
79.84000 5.189
79.86000 6.024
79.88000 7.423
79.90000 8.561
79.92000 6.401
79.94000 6.084
79.96000 7.406
79.98000 11.461
80.00000 10.819
80.02000 7.197
80.04000 8.506
80.06000 11.242
80.08000 11.194
80.10000 10.682
80.12000 10.480
80.14000 9.557
80.16000 9.537
80.18000 10.579
80.20000 12.837
80.22000 11.455
80.24000 13.655
80.26000 13.238
80.28000 15.807
80.30000 15.126
80.32000 15.695
80.34000 17.403
80.36000 16.081
80.38000 15.266
80.40000 15.287
80.42000 19.000
80.44000 18.657
80.46000 18.433
80.48000 17.463
80.50000 17.118
80.52000 16.380
80.54000 16.919
80.56000 18.499
80.58000 16.897
80.60000 18.721
80.62000 20.555
80.64000 18.886
80.66000 16.301
80.68000 17.084
80.70000 17.182
80.72000 14.538
80.74000 16.082
80.76000 18.280
80.78000 18.677
80.80000 22.063
80.82000 20.910
80.84000 20.604
80.86000 25.124
80.88000 23.814
80.90000 22.298
80.92000 20.260
80.94000 18.882
80.96000 18.640
80.98000 20.445
81.00000 17.881
81.02000 14.886
81.04000 16.647
81.06000 17.690
81.08000 16.712
81.10000 14.727
81.12000 17.952
81.14000 15.260
81.16000 13.916
81.18000 10.421
81.20000 12.120
81.22000 15.479
81.24000 13.161
81.26000 15.117
81.28000 12.450
81.30000 10.677
81.32000 8.414
81.34000 10.198
81.36000 10.494
81.38000 11.877
81.40000 8.176
81.42000 7.482
81.44000 7.455
81.46000 9.366
81.48000 3.851
81.50000 5.200
81.52000 10.970
81.54000 10.694
81.56000 6.720
81.58000 6.401
81.60000 5.756
81.62000 8.542
81.64000 10.809
81.66000 7.767
81.68000 3.901
81.70000 8.121
81.72000 8.022
81.74000 4.952
81.76000 6.136
81.78000 5.378
81.80000 3.169
81.82000 1.164
81.84000 3.941
81.86000 6.531
81.88000 3.465
81.90000 2.924
81.92000 3.156
81.94000 2.028
81.96000 -1.209
81.98000 -1.100
82.00000 -0.372
82.02000 2.162
82.04000 0.891
82.06000 -1.145
82.08000 2.394
82.10000 0.721
82.12000 0.486
82.14000 3.247
82.16000 1.141
82.18000 -0.765
82.20000 -2.114
82.22000 -0.899
82.24000 -2.038
82.26000 -0.761
82.28000 0.327
82.30000 0.188
82.32000 -0.624
82.34000 -1.052
82.36000 2.126
82.38000 -1.163
82.40000 -0.939
82.42000 1.797
82.44000 2.112
82.46000 1.145
82.48000 0.791
82.50000 2.687
82.52000 1.720
82.54000 0.937
82.56000 -0.018
82.58000 0.266
82.60000 1.920
82.62000 1.688
82.64000 -0.672
82.66000 1.819
82.68000 2.509
82.70000 0.217
82.72000 0.939
82.74000 -0.212
82.76000 -2.113
82.78000 0.644
82.80000 -0.464
82.82000 -1.800
82.84000 -1.496
82.86000 1.043
82.88000 0.017
82.90000 -1.124
82.92000 1.532
82.94000 -0.944
82.96000 2.602
82.98000 3.281
83.00000 -0.680
83.02000 0.218
83.04000 0.143
83.06000 0.603
83.08000 1.284
83.10000 -1.735
83.12000 -1.116
83.14000 2.801
83.16000 -0.508
83.18000 -1.965
83.20000 2.979
83.22000 4.476
83.24000 1.051
83.26000 1.135
83.28000 0.923
83.30000 0.020
83.32000 2.311
83.34000 2.791
83.36000 1.873
83.38000 -0.302
83.40000 -1.780
83.42000 -1.798
83.44000 0.209
83.46000 -0.151
83.48000 2.006
83.50000 2.119
83.52000 2.160
83.54000 2.724
83.56000 1.899
83.58000 1.380
83.60000 4.281
83.62000 4.330
83.64000 3.342
83.66000 2.785
83.68000 3.435
83.70000 5.016
83.72000 4.552
83.74000 5.855
83.76000 6.968
83.78000 9.936
83.80000 9.180
83.82000 5.174
83.84000 4.242
83.86000 4.697
83.88000 2.828
83.90000 4.850
83.92000 5.179
83.94000 8.255
83.96000 10.675
83.98000 6.775
84.00000 6.346
84.02000 8.151
84.04000 14.239
84.06000 11.560
84.08000 10.049
84.10000 10.909
84.12000 14.338
84.14000 15.849
84.16000 14.588
84.18000 15.052
84.20000 15.504
84.22000 15.055
84.24000 15.156
84.26000 13.364
84.28000 16.027
84.30000 18.595
84.32000 16.893
84.34000 18.951
84.36000 18.250
84.38000 21.439
84.40000 19.184
84.42000 20.845
84.44000 24.214
84.46000 21.817
84.48000 18.002
84.50000 19.458
84.52000 21.458
84.54000 22.721
84.56000 22.787
84.58000 19.903
84.60000 19.188
84.62000 23.235
84.64000 22.540
84.66000 20.807
84.68000 19.963
84.70000 19.387
84.72000 18.880
84.74000 21.892
84.76000 20.355
84.78000 19.723
84.80000 18.312
84.82000 15.844
84.84000 16.181
84.86000 18.245
84.88000 20.919
84.90000 16.069
84.92000 15.759
84.94000 19.323
84.96000 16.867
84.98000 16.080
85.00000 14.101
85.02000 15.652
85.04000 13.106
85.06000 15.713
85.08000 14.909
85.10000 13.648
85.12000 11.703
85.14000 10.677
85.16000 14.120
85.18000 12.182
85.20000 8.254
85.22000 11.629
85.24000 8.390
85.26000 8.983
85.28000 7.456
85.30000 7.724
85.32000 7.689
85.34000 5.697
85.36000 5.350
85.38000 4.306
85.40000 4.197
85.42000 4.638
85.44000 8.905
85.46000 7.059
85.48000 6.035
85.50000 8.789
85.52000 8.219
85.54000 6.060
85.56000 4.487
85.58000 7.149
85.60000 5.731
85.62000 4.018
85.64000 -0.819
85.66000 -0.286
85.68000 1.397
85.70000 0.786
85.72000 0.523
85.74000 -0.029
85.76000 2.332
85.78000 3.178
85.80000 -0.229
85.82000 -1.479
85.84000 3.186
85.86000 5.508
85.88000 5.257
85.90000 1.922
85.92000 0.747
85.94000 3.420
85.96000 3.535
85.98000 1.207
86.00000 -0.139
86.02000 -0.472
86.04000 -1.605
86.06000 -1.882
86.08000 3.195
86.10000 3.803
86.12000 5.382
86.14000 2.910
86.16000 0.367
86.18000 1.027
86.20000 2.301
86.22000 3.007
86.24000 0.273
86.26000 -0.407
86.28000 -1.869
86.30000 -1.050
86.32000 -0.697
86.34000 0.161
86.36000 -0.514
86.38000 0.993
86.40000 1.322
86.42000 0.309
86.44000 1.794
86.46000 -0.945
86.48000 -0.029
86.50000 2.553
86.52000 1.157
86.54000 0.220
86.56000 1.190
86.58000 2.624
86.60000 0.833
86.62000 -0.001
86.64000 2.431
86.66000 2.998
86.68000 3.534
86.70000 2.727
86.72000 1.330
86.74000 0.073
86.76000 1.636
86.78000 2.389
86.80000 1.562
86.82000 1.764
86.84000 3.267
86.86000 0.168
86.88000 -1.776
86.90000 1.542
86.92000 3.708
86.94000 2.953
86.96000 0.881
86.98000 0.735
87.00000 2.661
87.02000 -0.080
87.04000 1.702
87.06000 -1.790
87.08000 0.128
87.10000 3.241
87.12000 4.855
87.14000 5.136
87.16000 5.452
87.18000 6.375
87.20000 4.110
87.22000 2.431
87.24000 4.278
87.26000 1.669
87.28000 0.216
87.30000 -1.787
87.32000 0.166
87.34000 2.294
87.36000 1.414
87.38000 1.364
87.40000 3.119
87.42000 2.693
87.44000 1.427
87.46000 0.298
87.48000 0.268
87.50000 0.006
87.52000 2.734
87.54000 0.481
87.56000 -0.206
87.58000 -1.785
87.60000 -0.727
87.62000 0.607
87.64000 1.972
87.66000 3.392
87.68000 3.256
87.70000 2.259
87.72000 2.425
87.74000 1.031
87.76000 1.501
87.78000 3.003
87.80000 1.544
87.82000 -0.004
87.84000 -1.176
87.86000 0.889
87.88000 -0.124
87.90000 0.307
87.92000 0.490
87.94000 0.970
87.96000 0.094
87.98000 2.458
88.00000 3.790
88.02000 2.886
88.04000 2.149
88.06000 2.794
88.08000 0.460
88.10000 -0.383
88.12000 1.483
88.14000 3.541
88.16000 3.171
88.18000 2.801
88.20000 1.868
88.22000 2.318
88.24000 2.315
88.26000 5.405
88.28000 2.469
88.30000 -1.274
88.32000 2.044
88.34000 3.089
88.36000 2.062
88.38000 -0.230
88.40000 -0.123
88.42000 0.186
88.44000 -0.333
88.46000 -1.761
88.48000 -1.056
88.50000 2.653
88.52000 5.164
88.54000 2.688
88.56000 -0.083
88.58000 1.135
88.60000 2.020
88.62000 -1.763
88.64000 0.147
88.66000 -0.277
88.68000 -0.806
88.70000 0.724
88.72000 -1.250
88.74000 1.010
88.76000 3.580
88.78000 2.377
88.80000 0.386
88.82000 1.608
88.84000 -1.040
88.86000 2.063
88.88000 1.249
88.90000 1.222
88.92000 2.183
88.94000 1.181
88.96000 0.631
88.98000 -0.365
89.00000 1.467
89.02000 1.909
89.04000 1.392
89.06000 2.579
89.08000 3.774
89.10000 6.275
89.12000 5.526
89.14000 5.310
89.16000 0.640
89.18000 -0.804
89.20000 0.232
89.22000 0.966
89.24000 2.232
89.26000 2.746
89.28000 2.777
89.30000 1.535
89.32000 1.292
89.34000 0.362
89.36000 1.085
89.38000 2.203
89.40000 2.685
89.42000 1.733
89.44000 2.121
89.46000 1.241
89.48000 1.173
89.50000 3.095
89.52000 2.619
89.54000 6.210
89.56000 3.335
89.58000 1.847
89.60000 -1.769
89.62000 0.546
89.64000 2.635
89.66000 4.675
89.68000 0.477
89.70000 0.525
89.72000 0.786
89.74000 0.541
89.76000 -0.851
89.78000 1.167
89.80000 1.996
89.82000 1.016
89.84000 0.155
89.86000 2.161
89.88000 1.533
89.90000 2.678
89.92000 0.308
89.94000 0.186
89.96000 2.049
89.98000 2.414
90.00000 2.743
90.02000 2.740
90.04000 0.308
90.06000 -0.515
90.08000 0.757
90.10000 -1.546
90.12000 -1.156
90.14000 0.902
90.16000 0.514
90.18000 0.103
90.20000 0.269
90.22000 2.923
90.24000 1.151
90.26000 0.355
90.28000 -1.776
90.30000 -0.109
90.32000 2.806
90.34000 0.913
90.36000 0.057
90.38000 1.503
90.40000 1.180
90.42000 -0.086
90.44000 1.225
90.46000 0.603
90.48000 2.506
90.50000 4.387
90.52000 4.567
90.54000 3.466
90.56000 0.510
90.58000 -1.765
90.60000 -0.621
90.62000 2.595
90.64000 4.363
90.66000 1.908
90.68000 -1.763
90.70000 0.086
90.72000 2.538
90.74000 2.483
90.76000 3.703
90.78000 6.309
90.80000 0.936
90.82000 -0.254
90.84000 1.458
90.86000 3.243
90.88000 1.693
90.90000 3.123
90.92000 3.361
90.94000 3.237
90.96000 -0.946
90.98000 -0.580
91.00000 3.710
91.02000 3.432
91.04000 2.818
91.06000 1.270
91.08000 -1.064
91.10000 1.362
91.12000 3.401
91.14000 2.934
91.16000 4.242
91.18000 4.389
91.20000 3.476
91.22000 2.114
91.24000 1.147
91.26000 2.200
91.28000 3.943
91.30000 4.611
91.32000 3.874
91.34000 5.201
91.36000 2.051
91.38000 1.253
91.40000 4.002
91.42000 2.789
91.44000 1.132
91.46000 2.882
91.48000 4.166
91.50000 3.894
91.52000 4.480
91.54000 2.951
91.56000 1.719
91.58000 4.530
91.60000 5.857
91.62000 5.418
91.64000 4.453
91.66000 4.978
91.68000 5.344
91.70000 6.325
91.72000 5.549
91.74000 5.286
91.76000 1.554
91.78000 0.946
91.80000 -1.695
91.82000 0.681
91.84000 2.204
91.86000 6.553
91.88000 5.306
91.90000 4.948
91.92000 5.043
91.94000 1.481
91.96000 2.441
91.98000 6.344
92.00000 5.065
92.02000 5.081
92.04000 1.848
92.06000 3.078
92.08000 4.596
92.10000 1.136
92.12000 2.314
92.14000 1.075
92.16000 4.093
92.18000 8.658
92.20000 5.775
92.22000 4.596
92.24000 2.437
92.26000 2.716
92.28000 3.797
92.30000 3.694
92.32000 4.426
92.34000 0.792
92.36000 0.910
92.38000 4.457
92.40000 6.611
92.42000 6.122
92.44000 3.592
92.46000 0.296
92.48000 4.082
92.50000 3.575
92.52000 2.182
92.54000 1.158
92.56000 3.771
92.58000 0.763
92.60000 0.963
92.62000 0.092
92.64000 0.408
92.66000 2.116
92.68000 2.010
92.70000 4.953
92.72000 5.677
92.74000 1.729
92.76000 6.273
92.78000 4.084
92.80000 3.608
92.82000 6.020
92.84000 3.680
92.86000 2.851
92.88000 4.194
92.90000 4.308
92.92000 3.599
92.94000 -1.750
92.96000 0.394
92.98000 1.966
93.00000 5.329
93.02000 4.168
93.04000 5.337
93.06000 6.843
93.08000 3.809
93.10000 3.718
93.12000 2.148
93.14000 2.139
93.16000 1.900
93.18000 3.536
93.20000 4.620
93.22000 2.042
93.24000 -0.388
93.26000 1.219
93.28000 0.810
93.30000 0.548
93.32000 -0.495
93.34000 2.502
93.36000 5.733
93.38000 5.027
93.40000 1.964
93.42000 3.289
93.44000 6.175
93.46000 3.833
93.48000 1.266
93.50000 0.905
93.52000 5.474
93.54000 2.225
93.56000 0.426
93.58000 1.630
93.60000 1.637
93.62000 2.042
93.64000 3.192
93.66000 1.898
93.68000 0.086
93.70000 1.618
93.72000 -0.045
93.74000 -0.705
93.76000 -1.719
93.78000 1.302
93.80000 3.643
93.82000 2.301
93.84000 -0.606
93.86000 -1.796
93.88000 1.277
93.90000 0.260
93.92000 2.624
93.94000 3.935
93.96000 1.698
93.98000 1.560
94.00000 -0.166
94.02000 0.998
94.04000 0.632
94.06000 1.823
94.08000 1.358
94.10000 0.268
94.12000 1.059
94.14000 4.051
94.16000 2.964
94.18000 0.943
94.20000 -1.184
94.22000 0.686
94.24000 3.889
94.26000 3.329
94.28000 3.443
94.30000 0.507
94.32000 -0.381
94.34000 0.318
94.36000 -1.792
94.38000 0.935
94.40000 0.290
94.42000 0.897
94.44000 -0.086
94.46000 1.368
94.48000 0.006
94.50000 2.203
94.52000 3.448
94.54000 3.532
94.56000 2.459
94.58000 0.759
94.60000 2.327
94.62000 3.671
94.64000 4.930
94.66000 0.847
94.68000 0.444
94.70000 1.759
94.72000 5.200
94.74000 4.236
94.76000 3.402
94.78000 1.133
94.80000 0.804
94.82000 2.631
94.84000 3.557
94.86000 2.603
94.88000 1.004
94.90000 1.855
94.92000 1.223
94.94000 -0.399
94.96000 -1.104
94.98000 -1.771
95.00000 -0.284
95.02000 0.912
95.04000 2.875
95.06000 1.624
95.08000 3.764
95.10000 2.633
95.12000 -0.701
95.14000 -0.334
95.16000 1.546
95.18000 3.901
95.20000 5.706
95.22000 3.428
95.24000 2.561
95.26000 3.119
95.28000 4.527
95.30000 5.329
95.32000 3.873
95.34000 2.997
95.36000 1.593
95.38000 3.338
95.40000 5.041
95.42000 1.769
95.44000 -0.752
95.46000 2.270
95.48000 3.069
95.50000 4.461
95.52000 7.440
95.54000 7.516
95.56000 4.174
95.58000 3.760
95.60000 6.057
95.62000 4.079
95.64000 2.411
95.66000 2.306
95.68000 6.843
95.70000 3.548
95.72000 -0.064
95.74000 2.477
95.76000 1.962
95.78000 -0.225
95.80000 -0.311
95.82000 0.695
95.84000 3.617
95.86000 0.477
95.88000 -1.769
95.90000 1.821
95.92000 3.263
95.94000 2.878
95.96000 4.439
95.98000 4.820
96.00000 2.042
96.02000 4.944
96.04000 3.427
96.06000 2.735
96.08000 3.898
96.10000 2.811
96.12000 3.001
96.14000 2.152
96.16000 3.016
96.18000 4.076
96.20000 1.701
96.22000 5.113
96.24000 3.506
96.26000 2.471
96.28000 3.374
96.30000 -0.247
96.32000 0.177
96.34000 5.129
96.36000 2.341
96.38000 1.557
96.40000 0.634
96.42000 2.179
96.44000 3.548
96.46000 2.029
96.48000 -0.740
96.50000 1.908
96.52000 3.990
96.54000 2.260
96.56000 2.767
96.58000 0.560
96.60000 -0.027
96.62000 -1.090
96.64000 2.773
96.66000 2.399
96.68000 1.701
96.70000 2.138
96.72000 1.479
96.74000 1.866
96.76000 2.182
96.78000 4.089
96.80000 1.350
96.82000 0.272
96.84000 -0.281
96.86000 3.117
96.88000 3.798
96.90000 1.462
96.92000 3.051
96.94000 4.799
96.96000 2.164
96.98000 0.555
97.00000 2.955
97.02000 6.724
97.04000 4.233
97.06000 2.987
97.08000 3.159
97.10000 4.849
97.12000 5.253
97.14000 0.773
97.16000 0.031
97.18000 2.835
97.20000 1.365
97.22000 5.509
97.24000 4.688
97.26000 3.887
97.28000 2.214
97.30000 3.373
97.32000 2.520
97.34000 5.247
97.36000 5.603
97.38000 3.655
97.40000 3.284
97.42000 2.585
97.44000 0.198
97.46000 -0.251
97.48000 3.662
97.50000 2.446
97.52000 2.430
97.54000 4.273
97.56000 4.556
97.58000 1.204
97.60000 1.190
97.62000 0.614
97.64000 0.633
97.66000 2.709
97.68000 5.329
97.70000 5.462
97.72000 5.965
97.74000 3.474
97.76000 -1.756
97.78000 0.343
97.80000 3.521
97.82000 3.949
97.84000 4.368
97.86000 7.022
97.88000 7.570
97.90000 8.112
97.92000 0.407
97.94000 0.852
97.96000 3.088
97.98000 1.860
98.00000 7.609
98.02000 4.977
98.04000 2.033
98.06000 0.303
98.08000 1.295
98.10000 3.804
98.12000 -0.645
98.14000 1.528
98.16000 0.951
98.18000 1.510
98.20000 4.054
98.22000 2.156
98.24000 1.470
98.26000 2.760
98.28000 0.696
98.30000 1.437
98.32000 4.266
98.34000 4.680
98.36000 2.945
98.38000 0.319
98.40000 0.040
98.42000 0.424
98.44000 -0.923
98.46000 0.509
98.48000 3.428
98.50000 5.401
98.52000 2.930
98.54000 -0.193
98.56000 1.518
98.58000 6.998
98.60000 9.613
98.62000 7.563
98.64000 -0.723
98.66000 2.165
98.68000 0.837
98.70000 0.289
98.72000 0.816
98.74000 3.841
98.76000 4.267
98.78000 -0.396
98.80000 4.438
98.82000 8.391
98.84000 5.492
98.86000 5.457
98.88000 0.175
98.90000 -0.228
98.92000 0.398
98.94000 -0.049
98.96000 5.817
98.98000 4.306
99.00000 0.500
99.02000 1.001
99.04000 10.569
99.06000 7.448
99.08000 5.029
99.10000 7.327
99.12000 4.379
99.14000 2.096
99.16000 3.528
99.18000 0.994
99.20000 4.885
99.22000 1.537
99.24000 3.666
99.26000 6.373
99.28000 6.233
99.30000 6.041
99.32000 6.080
99.34000 7.120
99.36000 9.530
99.38000 4.714
99.40000 10.567
99.42000 13.156
99.44000 10.145
99.46000 10.135
99.48000 17.289
99.50000 12.008
99.52000 11.691
99.54000 12.728
99.56000 8.520
99.58000 9.417
99.60000 8.610
99.62000 8.959
99.64000 10.115
99.66000 6.173
99.68000 11.145
99.70000 2.695
99.72000 -1.639
99.74000 0.402
99.76000 5.458
99.78000 4.450
99.80000 4.672
99.82000 5.036
99.84000 12.997
99.86000 7.278
99.88000 9.720
99.90000 6.568
99.92000 1.188
99.94000 3.204
99.96000 4.336
99.98000 0.000
