'Id: "0011389" Comment: "Integrate frame 0011389_Au-Ir-Rh_Au-Rich_XRD_Mapping-302-0000.gfrmwith cursor Wedge Cursor #5" Operator: "B?rgel" Anode: "Cu" Wavelength: "1.5406" Scantype: "2Theta (TwoTheta)" TimePerStep: "1" X: "-4.5" Y: "31.5" Z: "5.95" 
10.00000 0.000
10.02000 -4.494
10.04000 -4.415
10.06000 9.862
10.08000 5.043
10.10000 9.864
10.12000 17.929
10.14000 15.153
10.16000 7.415
10.18000 5.135
10.20000 -1.009
10.22000 2.887
10.24000 17.009
10.26000 18.415
10.28000 20.935
10.30000 41.779
10.32000 26.410
10.34000 17.502
10.36000 10.873
10.38000 6.097
10.40000 9.803
10.42000 2.892
10.44000 8.266
10.46000 13.988
10.48000 30.464
10.50000 18.655
10.52000 4.172
10.54000 10.536
10.56000 11.147
10.58000 20.557
10.60000 28.851
10.62000 17.217
10.64000 18.700
10.66000 6.082
10.68000 -4.387
10.70000 7.204
10.72000 11.674
10.74000 14.358
10.76000 11.656
10.78000 4.691
10.80000 15.203
10.82000 11.765
10.84000 14.556
10.86000 13.444
10.88000 17.736
10.90000 8.570
10.92000 21.848
10.94000 24.882
10.96000 20.523
10.98000 16.753
11.00000 5.950
11.02000 2.376
11.04000 1.343
11.06000 -2.964
11.08000 4.892
11.10000 -3.334
11.12000 -1.827
11.14000 7.433
11.16000 14.011
11.18000 12.381
11.20000 11.227
11.22000 13.059
11.24000 7.660
11.26000 -2.606
11.28000 3.772
11.30000 10.439
11.32000 4.623
11.34000 12.082
11.36000 10.327
11.38000 17.432
11.40000 6.178
11.42000 9.811
11.44000 9.616
11.46000 12.528
11.48000 12.843
11.50000 4.531
11.52000 3.544
11.54000 6.077
11.56000 10.456
11.58000 10.196
11.60000 14.153
11.62000 23.516
11.64000 28.468
11.66000 20.399
11.68000 -0.355
11.70000 3.389
11.72000 21.505
11.74000 13.595
11.76000 15.064
11.78000 14.784
11.80000 4.252
11.82000 4.469
11.84000 4.120
11.86000 8.533
11.88000 23.926
11.90000 27.927
11.92000 19.530
11.94000 16.184
11.96000 8.315
11.98000 12.006
12.00000 15.815
12.02000 15.181
12.04000 10.470
12.06000 6.798
12.08000 9.038
12.10000 8.398
12.12000 10.103
12.14000 12.117
12.16000 10.799
12.18000 16.679
12.20000 19.486
12.22000 2.300
12.24000 3.430
12.26000 6.429
12.28000 5.999
12.30000 8.313
12.32000 14.157
12.34000 1.450
12.36000 2.476
12.38000 5.476
12.40000 7.170
12.42000 14.118
12.44000 6.386
12.46000 4.901
12.48000 6.952
12.50000 1.621
12.52000 7.079
12.54000 -4.508
12.56000 13.140
12.58000 20.733
12.60000 8.102
12.62000 9.195
12.64000 11.476
12.66000 10.306
12.68000 14.038
12.70000 10.332
12.72000 2.340
12.74000 10.921
12.76000 9.595
12.78000 5.865
12.80000 9.399
12.82000 11.658
12.84000 14.649
12.86000 13.646
12.88000 11.100
12.90000 8.329
12.92000 9.872
12.94000 15.450
12.96000 13.827
12.98000 12.789
13.00000 14.996
13.02000 4.958
13.04000 13.040
13.06000 27.875
13.08000 11.090
13.10000 12.604
13.12000 21.919
13.14000 15.411
13.16000 11.978
13.18000 14.216
13.20000 12.777
13.22000 2.990
13.24000 12.844
13.26000 10.687
13.28000 3.579
13.30000 6.849
13.32000 12.466
13.34000 13.510
13.36000 14.214
13.38000 11.823
13.40000 9.840
13.42000 9.811
13.44000 11.927
13.46000 6.024
13.48000 7.186
13.50000 7.000
13.52000 5.507
13.54000 5.455
13.56000 16.461
13.58000 19.266
13.60000 14.199
13.62000 13.218
13.64000 9.253
13.66000 -2.462
13.68000 -1.156
13.70000 10.980
13.72000 13.802
13.74000 17.798
13.76000 17.452
13.78000 10.612
13.80000 8.777
13.82000 4.770
13.84000 1.981
13.86000 5.983
13.88000 15.116
13.90000 14.993
13.92000 14.762
13.94000 7.678
13.96000 7.715
13.98000 5.240
14.00000 -0.602
14.02000 3.226
14.04000 4.769
14.06000 -0.027
14.08000 5.417
14.10000 4.065
14.12000 7.527
14.14000 13.405
14.16000 14.558
14.18000 9.351
14.20000 12.111
14.22000 -0.320
14.24000 6.859
14.26000 15.656
14.28000 3.295
14.30000 1.881
14.32000 12.910
14.34000 13.732
14.36000 14.684
14.38000 8.590
14.40000 5.797
14.42000 10.546
14.44000 3.035
14.46000 13.460
14.48000 7.175
14.50000 -0.268
14.52000 12.836
14.54000 10.058
14.56000 7.989
14.58000 4.146
14.60000 7.444
14.62000 10.009
14.64000 6.180
14.66000 7.105
14.68000 10.984
14.70000 5.804
14.72000 5.767
14.74000 5.665
14.76000 2.909
14.78000 3.478
14.80000 14.084
14.82000 10.252
14.84000 2.123
14.86000 -3.540
14.88000 -3.689
14.90000 2.526
14.92000 1.577
14.94000 0.995
14.96000 -2.278
14.98000 7.675
15.00000 12.018
15.02000 2.011
15.04000 0.506
15.06000 2.976
15.08000 3.925
15.10000 2.435
15.12000 9.893
15.14000 18.457
15.16000 10.143
15.18000 -3.108
15.20000 -0.202
15.22000 6.268
15.24000 13.448
15.26000 7.452
15.28000 10.027
15.30000 2.842
15.32000 8.465
15.34000 3.068
15.36000 2.048
15.38000 9.556
15.40000 14.514
15.42000 17.400
15.44000 8.383
15.46000 10.496
15.48000 1.184
15.50000 8.070
15.52000 12.418
15.54000 10.242
15.56000 7.986
15.58000 10.172
15.60000 3.922
15.62000 3.811
15.64000 10.944
15.66000 6.103
15.68000 8.710
15.70000 9.610
15.72000 12.913
15.74000 6.595
15.76000 9.013
15.78000 7.315
15.80000 1.608
15.82000 -0.415
15.84000 -4.503
15.86000 1.931
15.88000 11.242
15.90000 7.051
15.92000 11.900
15.94000 8.699
15.96000 1.271
15.98000 14.359
16.00000 3.275
16.02000 -2.150
16.04000 4.874
16.06000 6.910
16.08000 -0.219
16.10000 0.753
16.12000 12.689
16.14000 8.279
16.16000 3.356
16.18000 8.908
16.20000 4.507
16.22000 8.575
16.24000 12.879
16.26000 9.048
16.28000 9.556
16.30000 5.462
16.32000 15.260
16.34000 8.461
16.36000 2.604
16.38000 4.958
16.40000 6.172
16.42000 12.149
16.44000 8.337
16.46000 9.216
16.48000 7.006
16.50000 7.850
16.52000 14.418
16.54000 19.089
16.56000 7.891
16.58000 3.286
16.60000 0.741
16.62000 8.515
16.64000 12.088
16.66000 6.573
16.68000 8.863
16.70000 12.923
16.72000 6.173
16.74000 6.937
16.76000 12.498
16.78000 9.598
16.80000 6.571
16.82000 3.648
16.84000 6.068
16.86000 5.378
16.88000 -0.084
16.90000 -0.298
16.92000 8.718
16.94000 7.290
16.96000 2.639
16.98000 8.238
17.00000 4.678
17.02000 7.067
17.04000 4.796
17.06000 10.241
17.08000 17.019
17.10000 12.163
17.12000 9.921
17.14000 8.143
17.16000 9.117
17.18000 16.542
17.20000 18.149
17.22000 14.303
17.24000 10.763
17.26000 8.669
17.28000 9.534
17.30000 8.228
17.32000 11.980
17.34000 8.969
17.36000 8.335
17.38000 15.163
17.40000 5.666
17.42000 10.922
17.44000 4.098
17.46000 10.790
17.48000 14.846
17.50000 15.907
17.52000 7.567
17.54000 6.849
17.56000 12.713
17.58000 11.474
17.60000 9.761
17.62000 12.990
17.64000 16.012
17.66000 14.377
17.68000 10.391
17.70000 9.537
17.72000 3.583
17.74000 -4.348
17.76000 -2.275
17.78000 8.405
17.80000 9.932
17.82000 0.772
17.84000 0.363
17.86000 8.767
17.88000 15.432
17.90000 7.422
17.92000 6.258
17.94000 12.554
17.96000 9.849
17.98000 13.567
18.00000 10.696
18.02000 5.529
18.04000 2.595
18.06000 5.635
18.08000 11.355
18.10000 14.013
18.12000 10.789
18.14000 9.849
18.16000 12.407
18.18000 9.145
18.20000 12.175
18.22000 9.180
18.24000 9.186
18.26000 12.679
18.28000 13.353
18.30000 11.415
18.32000 12.869
18.34000 11.087
18.36000 2.724
18.38000 2.070
18.40000 2.062
18.42000 0.572
18.44000 4.277
18.46000 5.489
18.48000 -3.351
18.50000 -1.341
18.52000 1.711
18.54000 2.817
18.56000 8.607
18.58000 7.114
18.60000 10.416
18.62000 3.072
18.64000 4.702
18.66000 5.467
18.68000 3.054
18.70000 4.395
18.72000 2.882
18.74000 3.769
18.76000 1.438
18.78000 7.313
18.80000 4.187
18.82000 2.597
18.84000 1.185
18.86000 2.475
18.88000 1.600
18.90000 5.446
18.92000 -0.557
18.94000 -0.590
18.96000 0.308
18.98000 6.829
19.00000 13.332
19.02000 2.030
19.04000 0.610
19.06000 -1.010
19.08000 3.999
19.10000 3.626
19.12000 2.331
19.14000 6.863
19.16000 6.364
19.18000 6.836
19.20000 8.331
19.22000 3.997
19.24000 3.900
19.26000 0.803
19.28000 1.603
19.30000 3.109
19.32000 2.179
19.34000 5.948
19.36000 11.129
19.38000 8.888
19.40000 1.475
19.42000 5.033
19.44000 1.476
19.46000 -0.119
19.48000 -1.832
19.50000 5.710
19.52000 9.068
19.54000 5.664
19.56000 7.029
19.58000 -0.791
19.60000 -1.627
19.62000 -1.757
19.64000 -2.590
19.66000 6.455
19.68000 4.030
19.70000 6.199
19.72000 2.860
19.74000 5.027
19.76000 3.115
19.78000 2.611
19.80000 6.886
19.82000 3.132
19.84000 4.109
19.86000 3.555
19.88000 4.396
19.90000 -3.784
19.92000 -2.640
19.94000 2.704
19.96000 6.330
19.98000 4.358
20.00000 8.966
20.02000 5.811
20.04000 6.709
20.06000 0.662
20.08000 -2.852
20.10000 4.042
20.12000 3.190
20.14000 -0.970
20.16000 -0.711
20.18000 3.305
20.20000 4.426
20.22000 2.648
20.24000 3.797
20.26000 7.809
20.28000 7.738
20.30000 5.663
20.32000 7.251
20.34000 12.588
20.36000 11.617
20.38000 3.689
20.40000 2.361
20.42000 1.562
20.44000 0.613
20.46000 2.628
20.48000 10.372
20.50000 4.199
20.52000 2.865
20.54000 8.585
20.56000 8.309
20.58000 9.811
20.60000 9.902
20.62000 1.717
20.64000 1.946
20.66000 6.453
20.68000 5.458
20.70000 4.351
20.72000 2.192
20.74000 2.706
20.76000 4.587
20.78000 6.084
20.80000 -4.217
20.82000 -0.197
20.84000 -1.763
20.86000 -3.079
20.88000 -2.859
20.90000 -0.665
20.92000 -1.256
20.94000 0.025
20.96000 8.098
20.98000 5.256
21.00000 3.447
21.02000 8.390
21.04000 4.396
21.06000 0.697
21.08000 4.689
21.10000 11.203
21.12000 7.597
21.14000 3.397
21.16000 5.142
21.18000 2.252
21.20000 3.740
21.22000 1.650
21.24000 6.755
21.26000 11.475
21.28000 9.636
21.30000 8.648
21.32000 10.366
21.34000 12.017
21.36000 5.434
21.38000 -0.293
21.40000 1.001
21.42000 1.590
21.44000 3.166
21.46000 5.707
21.48000 10.126
21.50000 10.239
21.52000 7.134
21.54000 6.689
21.56000 6.928
21.58000 2.807
21.60000 1.711
21.62000 1.470
21.64000 7.024
21.66000 4.231
21.68000 6.323
21.70000 12.888
21.72000 7.793
21.74000 8.232
21.76000 14.977
21.78000 14.248
21.80000 6.818
21.82000 -4.120
21.84000 4.279
21.86000 8.796
21.88000 12.916
21.90000 13.412
21.92000 10.134
21.94000 9.924
21.96000 8.310
21.98000 13.658
22.00000 8.473
22.02000 -0.478
22.04000 -1.611
22.06000 0.033
22.08000 4.758
22.10000 0.490
22.12000 0.042
22.14000 3.942
22.16000 3.698
22.18000 -1.237
22.20000 3.503
22.22000 4.172
22.24000 0.283
22.26000 1.939
22.28000 4.450
22.30000 4.658
22.32000 10.793
22.34000 9.152
22.36000 8.155
22.38000 7.244
22.40000 4.086
22.42000 1.014
22.44000 5.930
22.46000 4.876
22.48000 0.375
22.50000 4.501
22.52000 9.898
22.54000 3.830
22.56000 -0.257
22.58000 2.873
22.60000 7.989
22.62000 1.313
22.64000 4.450
22.66000 7.654
22.68000 9.641
22.70000 8.535
22.72000 5.564
22.74000 1.576
22.76000 2.893
22.78000 2.968
22.80000 0.553
22.82000 5.575
22.84000 4.534
22.86000 2.538
22.88000 2.199
22.90000 1.801
22.92000 2.892
22.94000 2.027
22.96000 1.574
22.98000 -3.867
23.00000 5.980
23.02000 7.268
23.04000 7.993
23.06000 6.185
23.08000 7.403
23.10000 5.407
23.12000 1.736
23.14000 1.461
23.16000 1.206
23.18000 9.070
23.20000 6.393
23.22000 10.873
23.24000 11.840
23.26000 8.241
23.28000 7.673
23.30000 3.820
23.32000 1.914
23.34000 4.797
23.36000 2.055
23.38000 6.457
23.40000 9.799
23.42000 2.990
23.44000 10.259
23.46000 8.281
23.48000 8.167
23.50000 7.119
23.52000 7.210
23.54000 12.672
23.56000 9.406
23.58000 3.933
23.60000 -1.078
23.62000 1.432
23.64000 2.652
23.66000 4.410
23.68000 1.955
23.70000 0.175
23.72000 5.117
23.74000 8.765
23.76000 15.011
23.78000 11.266
23.80000 4.932
23.82000 3.643
23.84000 -0.029
23.86000 0.362
23.88000 -4.043
23.90000 -3.933
23.92000 -0.049
23.94000 3.015
23.96000 5.321
23.98000 8.092
24.00000 9.756
24.02000 2.989
24.04000 3.410
24.06000 2.720
24.08000 5.274
24.10000 4.200
24.12000 0.543
24.14000 4.915
24.16000 3.725
24.18000 6.404
24.20000 2.034
24.22000 4.962
24.24000 -2.170
24.26000 -2.800
24.28000 5.737
24.30000 5.520
24.32000 1.476
24.34000 12.093
24.36000 6.291
24.38000 0.248
24.40000 1.993
24.42000 2.240
24.44000 3.041
24.46000 10.004
24.48000 3.655
24.50000 3.190
24.52000 0.413
24.54000 3.302
24.56000 5.393
24.58000 4.344
24.60000 -1.021
24.62000 2.103
24.64000 -0.077
24.66000 -3.999
24.68000 6.271
24.70000 12.174
24.72000 4.211
24.74000 3.332
24.76000 3.330
24.78000 1.872
24.80000 3.391
24.82000 1.231
24.84000 4.044
24.86000 -0.829
24.88000 -0.070
24.90000 4.753
24.92000 4.869
24.94000 7.069
24.96000 4.965
24.98000 7.507
25.00000 9.172
25.02000 6.626
25.04000 7.228
25.06000 3.090
25.08000 4.314
25.10000 5.280
25.12000 4.660
25.14000 6.518
25.16000 11.172
25.18000 6.017
25.20000 2.511
25.22000 5.472
25.24000 7.165
25.26000 4.077
25.28000 5.657
25.30000 3.322
25.32000 -0.816
25.34000 -2.010
25.36000 0.696
25.38000 5.946
25.40000 5.607
25.42000 6.495
25.44000 9.514
25.46000 7.495
25.48000 7.273
25.50000 4.362
25.52000 1.377
25.54000 3.852
25.56000 11.682
25.58000 11.892
25.60000 7.499
25.62000 -0.145
25.64000 1.087
25.66000 -0.072
25.68000 0.757
25.70000 1.777
25.72000 5.708
25.74000 3.328
25.76000 3.771
25.78000 7.282
25.80000 5.574
25.82000 4.156
25.84000 11.159
25.86000 13.345
25.88000 8.251
25.90000 4.753
25.92000 3.924
25.94000 1.928
25.96000 -1.988
25.98000 -0.644
26.00000 4.360
26.02000 2.279
26.04000 3.050
26.06000 0.339
26.08000 3.532
26.10000 12.054
26.12000 8.430
26.14000 9.112
26.16000 11.102
26.18000 9.165
26.20000 8.958
26.22000 8.220
26.24000 7.452
26.26000 4.970
26.28000 2.313
26.30000 8.624
26.32000 5.764
26.34000 3.058
26.36000 6.401
26.38000 13.046
26.40000 7.210
26.42000 3.688
26.44000 7.634
26.46000 10.449
26.48000 5.059
26.50000 5.603
26.52000 5.814
26.54000 8.083
26.56000 3.295
26.58000 5.406
26.60000 8.260
26.62000 11.615
26.64000 17.474
26.66000 15.711
26.68000 13.644
26.70000 8.787
26.72000 5.642
26.74000 3.675
26.76000 7.140
26.78000 2.600
26.80000 -3.824
26.82000 6.507
26.84000 10.045
26.86000 14.543
26.88000 11.492
26.90000 7.118
26.92000 6.579
26.94000 6.387
26.96000 8.841
26.98000 12.342
27.00000 11.254
27.02000 8.011
27.04000 9.288
27.06000 7.953
27.08000 7.201
27.10000 10.838
27.12000 11.747
27.14000 9.213
27.16000 6.683
27.18000 7.308
27.20000 8.950
27.22000 7.091
27.24000 6.781
27.26000 13.093
27.28000 5.311
27.30000 6.612
27.32000 9.426
27.34000 11.330
27.36000 10.063
27.38000 8.865
27.40000 9.151
27.42000 9.598
27.44000 9.370
27.46000 5.225
27.48000 3.079
27.50000 5.145
27.52000 4.101
27.54000 9.667
27.56000 4.805
27.58000 4.736
27.60000 4.062
27.62000 1.561
27.64000 2.893
27.66000 6.534
27.68000 2.476
27.70000 6.980
27.72000 10.869
27.74000 6.375
27.76000 -0.097
27.78000 -3.803
27.80000 -0.466
27.82000 3.465
27.84000 7.166
27.86000 14.453
27.88000 13.287
27.90000 4.312
27.92000 0.141
27.94000 6.586
27.96000 10.703
27.98000 9.599
28.00000 7.892
28.02000 6.268
28.04000 3.378
28.06000 2.342
28.08000 3.020
28.10000 6.618
28.12000 7.841
28.14000 12.516
28.16000 10.642
28.18000 9.934
28.20000 6.540
28.22000 3.751
28.24000 3.594
28.26000 6.313
28.28000 6.603
28.30000 5.474
28.32000 8.656
28.34000 8.029
28.36000 5.323
28.38000 0.294
28.40000 1.474
28.42000 7.796
28.44000 9.669
28.46000 11.393
28.48000 8.825
28.50000 6.842
28.52000 5.892
28.54000 7.538
28.56000 4.170
28.58000 4.075
28.60000 5.006
28.62000 1.773
28.64000 3.527
28.66000 0.109
28.68000 0.579
28.70000 2.068
28.72000 3.640
28.74000 1.649
28.76000 4.890
28.78000 5.545
28.80000 10.093
28.82000 5.468
28.84000 6.102
28.86000 7.449
28.88000 1.420
28.90000 0.752
28.92000 5.540
28.94000 3.852
28.96000 1.121
28.98000 1.662
29.00000 0.632
29.02000 -1.721
29.04000 3.609
29.06000 4.776
29.08000 3.110
29.10000 6.382
29.12000 1.145
29.14000 0.254
29.16000 6.767
29.18000 7.882
29.20000 9.325
29.22000 4.274
29.24000 -1.358
29.26000 1.743
29.28000 4.167
29.30000 6.655
29.32000 3.731
29.34000 1.694
29.36000 -1.185
29.38000 3.717
29.40000 11.395
29.42000 4.657
29.44000 5.658
29.46000 3.598
29.48000 4.637
29.50000 4.346
29.52000 6.660
29.54000 3.366
29.56000 0.963
29.58000 0.080
29.60000 4.288
29.62000 1.283
29.64000 -0.573
29.66000 5.260
29.68000 9.857
29.70000 3.829
29.72000 -2.165
29.74000 -3.749
29.76000 -0.184
29.78000 4.919
29.80000 3.163
29.82000 1.055
29.84000 0.579
29.86000 -1.383
29.88000 2.443
29.90000 8.566
29.92000 6.872
29.94000 5.299
29.96000 4.430
29.98000 2.280
30.00000 1.687
30.02000 6.103
30.04000 1.406
30.06000 -1.184
30.08000 1.467
30.10000 1.824
30.12000 5.963
30.14000 7.588
30.16000 3.545
30.18000 0.456
30.20000 1.329
30.22000 2.508
30.24000 3.890
30.26000 5.940
30.28000 2.656
30.30000 2.881
30.32000 6.316
30.34000 5.469
30.36000 1.622
30.38000 0.173
30.40000 -3.245
30.42000 -0.493
30.44000 4.159
30.46000 1.792
30.48000 3.721
30.50000 2.941
30.52000 3.157
30.54000 6.583
30.56000 8.780
30.58000 4.216
30.60000 0.794
30.62000 0.558
30.64000 -3.403
30.66000 -1.535
30.68000 2.245
30.70000 0.841
30.72000 -1.554
30.74000 -3.732
30.76000 3.785
30.78000 7.228
30.80000 2.721
30.82000 0.749
30.84000 2.060
30.86000 1.286
30.88000 6.120
30.90000 6.632
30.92000 2.346
30.94000 7.205
30.96000 6.388
30.98000 -2.020
31.00000 -0.878
31.02000 1.470
31.04000 6.302
31.06000 5.101
31.08000 5.954
31.10000 0.950
31.12000 0.368
31.14000 0.505
31.16000 -0.970
31.18000 0.942
31.20000 4.430
31.22000 5.354
31.24000 3.780
31.26000 0.767
31.28000 -2.318
31.30000 -1.500
31.32000 -0.437
31.34000 2.030
31.36000 4.075
31.38000 0.712
31.40000 -0.276
31.42000 1.355
31.44000 4.457
31.46000 -1.668
31.48000 -0.189
31.50000 2.387
31.52000 -2.055
31.54000 1.697
31.56000 -2.500
31.58000 -1.594
31.60000 3.760
31.62000 6.959
31.64000 1.669
31.66000 1.057
31.68000 1.713
31.70000 -3.152
31.72000 0.943
31.74000 -0.169
31.76000 1.157
31.78000 -1.295
31.80000 -3.115
31.82000 -0.437
31.84000 1.032
31.86000 -2.054
31.88000 3.086
31.90000 4.470
31.92000 7.185
31.94000 0.584
31.96000 -0.131
31.98000 -2.400
32.00000 1.022
32.02000 -1.017
32.04000 -2.616
32.06000 0.229
32.08000 2.365
32.10000 -1.657
32.12000 -2.313
32.14000 5.263
32.16000 7.736
32.18000 -0.422
32.20000 0.833
32.22000 -1.434
32.24000 -3.040
32.26000 1.349
32.28000 0.870
32.30000 7.296
32.32000 1.889
32.34000 4.317
32.36000 3.257
32.38000 5.550
32.40000 7.093
32.42000 6.030
32.44000 -0.379
32.46000 0.203
32.48000 -0.192
32.50000 4.019
32.52000 1.331
32.54000 3.444
32.56000 4.799
32.58000 3.017
32.60000 -2.068
32.62000 1.995
32.64000 5.267
32.66000 2.520
32.68000 0.810
32.70000 -2.025
32.72000 -3.322
32.74000 1.842
32.76000 -0.048
32.78000 -1.168
32.80000 3.626
32.82000 5.924
32.84000 3.460
32.86000 2.469
32.88000 -3.636
32.90000 4.588
32.92000 1.067
32.94000 -1.805
32.96000 4.312
32.98000 3.914
33.00000 4.044
33.02000 3.283
33.04000 4.249
33.06000 4.909
33.08000 6.655
33.10000 5.585
33.12000 3.872
33.14000 1.980
33.16000 -2.256
33.18000 3.368
33.20000 3.467
33.22000 1.335
33.24000 1.865
33.26000 0.139
33.28000 2.656
33.30000 5.063
33.32000 4.832
33.34000 1.647
33.36000 -1.414
33.38000 -1.500
33.40000 1.518
33.42000 -2.995
33.44000 -2.384
33.46000 0.190
33.48000 4.322
33.50000 0.730
33.52000 2.463
33.54000 5.669
33.56000 8.997
33.58000 5.938
33.60000 3.827
33.62000 3.232
33.64000 5.832
33.66000 1.929
33.68000 0.771
33.70000 5.095
33.72000 1.172
33.74000 5.049
33.76000 3.427
33.78000 2.183
33.80000 2.082
33.82000 -2.782
33.84000 -0.382
33.86000 -1.965
33.88000 0.248
33.90000 2.313
33.92000 -1.325
33.94000 -2.113
33.96000 6.728
33.98000 7.061
34.00000 8.413
34.02000 7.196
34.04000 1.899
34.06000 4.000
34.08000 2.492
34.10000 -0.190
34.12000 -0.796
34.14000 1.834
34.16000 -0.274
34.18000 0.122
34.20000 -0.538
34.22000 4.969
34.24000 5.887
34.26000 0.283
34.28000 2.092
34.30000 6.303
34.32000 0.721
34.34000 6.702
34.36000 10.076
34.38000 2.948
34.40000 0.781
34.42000 4.774
34.44000 6.551
34.46000 4.794
34.48000 4.241
34.50000 -0.008
34.52000 -0.505
34.54000 2.554
34.56000 5.264
34.58000 0.878
34.60000 1.110
34.62000 2.877
34.64000 3.544
34.66000 2.154
34.68000 0.282
34.70000 -1.750
34.72000 6.077
34.74000 1.319
34.76000 0.784
34.78000 -2.862
34.80000 -3.635
34.82000 0.021
34.84000 1.172
34.86000 0.231
34.88000 1.404
34.90000 2.793
34.92000 2.967
34.94000 3.002
34.96000 8.808
34.98000 3.669
35.00000 4.227
35.02000 0.213
35.04000 1.143
35.06000 2.916
35.08000 -3.545
35.10000 -3.599
35.12000 -3.168
35.14000 -2.159
35.16000 3.619
35.18000 9.624
35.20000 6.214
35.22000 4.531
35.24000 2.835
35.26000 4.838
35.28000 2.296
35.30000 -2.402
35.32000 -2.477
35.34000 -0.629
35.36000 -2.484
35.38000 -3.651
35.40000 2.060
35.42000 0.214
35.44000 4.954
35.46000 2.138
35.48000 2.578
35.50000 -0.723
35.52000 -2.640
35.54000 1.904
35.56000 7.048
35.58000 1.531
35.60000 5.409
35.62000 6.285
35.64000 -1.299
35.66000 -3.047
35.68000 1.048
35.70000 4.613
35.72000 4.344
35.74000 4.205
35.76000 2.616
35.78000 1.943
35.80000 -0.758
35.82000 -0.590
35.84000 -1.866
35.86000 3.629
35.88000 -1.515
35.90000 -3.209
35.92000 -0.087
35.94000 2.119
35.96000 2.712
35.98000 6.256
36.00000 5.662
36.02000 3.989
36.04000 4.468
36.06000 -2.668
36.08000 -3.676
36.10000 2.243
36.12000 0.964
36.14000 -1.468
36.16000 -0.061
36.18000 7.135
36.20000 7.300
36.22000 6.942
36.24000 4.818
36.26000 4.634
36.28000 -1.653
36.30000 -3.682
36.32000 2.113
36.34000 4.399
36.36000 6.626
36.38000 4.570
36.40000 -1.198
36.42000 0.590
36.44000 3.178
36.46000 8.034
36.48000 1.535
36.50000 -1.421
36.52000 -1.312
36.54000 2.184
36.56000 5.493
36.58000 5.978
36.60000 2.382
36.62000 4.677
36.64000 2.890
36.66000 2.441
36.68000 5.933
36.70000 8.358
36.72000 6.895
36.74000 10.958
36.76000 8.246
36.78000 5.549
36.80000 3.250
36.82000 5.993
36.84000 10.676
36.86000 14.531
36.88000 11.304
36.90000 2.983
36.92000 3.251
36.94000 6.116
36.96000 9.454
36.98000 7.196
37.00000 5.434
37.02000 6.809
37.04000 10.551
37.06000 8.301
37.08000 13.425
37.10000 16.274
37.12000 18.225
37.14000 17.768
37.16000 17.074
37.18000 9.155
37.20000 13.245
37.22000 13.145
37.24000 13.956
37.26000 12.532
37.28000 9.219
37.30000 13.115
37.32000 20.500
37.34000 18.604
37.36000 19.276
37.38000 19.347
37.40000 14.875
37.42000 19.382
37.44000 24.616
37.46000 24.645
37.48000 25.486
37.50000 23.819
37.52000 20.680
37.54000 23.608
37.56000 24.145
37.58000 27.122
37.60000 25.496
37.62000 25.123
37.64000 19.743
37.66000 21.307
37.68000 28.073
37.70000 27.467
37.72000 27.403
37.74000 23.519
37.76000 27.736
37.78000 30.786
37.80000 31.499
37.82000 37.589
37.84000 39.113
37.86000 33.611
37.88000 32.841
37.90000 37.625
37.92000 44.091
37.94000 43.638
37.96000 43.932
37.98000 44.730
38.00000 40.100
38.02000 42.268
38.04000 46.347
38.06000 52.065
38.08000 48.227
38.10000 55.372
38.12000 56.886
38.14000 58.273
38.16000 63.150
38.18000 62.760
38.20000 62.154
38.22000 64.161
38.24000 71.066
38.26000 75.121
38.28000 77.711
38.30000 84.547
38.32000 85.610
38.34000 87.104
38.36000 87.964
38.38000 93.100
38.40000 97.561
38.42000 106.185
38.44000 117.547
38.46000 123.939
38.48000 125.312
38.50000 131.291
38.52000 140.136
38.54000 143.312
38.56000 153.085
38.58000 161.423
38.60000 178.155
38.62000 186.828
38.64000 202.179
38.66000 214.735
38.68000 215.875
38.70000 226.561
38.72000 234.228
38.74000 242.018
38.76000 260.866
38.78000 269.208
38.80000 278.019
38.82000 293.584
38.84000 301.383
38.86000 301.862
38.88000 313.112
38.90000 316.203
38.92000 314.831
38.94000 319.154
38.96000 318.217
38.98000 309.433
39.00000 310.465
39.02000 312.800
39.04000 304.773
39.06000 302.259
39.08000 294.546
39.10000 287.809
39.12000 273.102
39.14000 261.381
39.16000 254.303
39.18000 241.163
39.20000 230.027
39.22000 224.980
39.24000 212.516
39.26000 203.469
39.28000 181.275
39.30000 172.223
39.32000 165.791
39.34000 156.564
39.36000 145.477
39.38000 134.497
39.40000 126.676
39.42000 121.206
39.44000 115.519
39.46000 109.237
39.48000 102.700
39.50000 98.193
39.52000 91.348
39.54000 89.047
39.56000 82.886
39.58000 79.666
39.60000 81.924
39.62000 69.649
39.64000 62.108
39.66000 63.559
39.68000 61.129
39.70000 59.374
39.72000 53.702
39.74000 54.359
39.76000 55.393
39.78000 52.169
39.80000 48.025
39.82000 43.765
39.84000 44.410
39.86000 38.768
39.88000 35.789
39.90000 32.070
39.92000 31.907
39.94000 35.952
39.96000 35.291
39.98000 32.291
40.00000 33.200
40.02000 30.602
40.04000 31.270
40.06000 26.217
40.08000 26.510
40.10000 29.451
40.12000 26.974
40.14000 25.770
40.16000 21.943
40.18000 19.541
40.20000 23.322
40.22000 19.948
40.24000 19.057
40.26000 20.738
40.28000 22.613
40.30000 21.887
40.32000 21.272
40.34000 18.226
40.36000 17.500
40.38000 15.598
40.40000 12.975
40.42000 10.604
40.44000 14.437
40.46000 13.970
40.48000 12.571
40.50000 9.683
40.52000 12.899
40.54000 9.554
40.56000 7.541
40.58000 11.771
40.60000 8.023
40.62000 8.129
40.64000 10.035
40.66000 10.185
40.68000 6.126
40.70000 5.218
40.72000 8.351
40.74000 10.271
40.76000 14.316
40.78000 10.203
40.80000 5.360
40.82000 5.162
40.84000 3.510
40.86000 4.109
40.88000 2.618
40.90000 3.027
40.92000 8.462
40.94000 7.403
40.96000 8.192
40.98000 8.450
41.00000 3.337
41.02000 1.908
41.04000 2.984
41.06000 3.663
41.08000 2.643
41.10000 3.522
41.12000 4.021
41.14000 4.766
41.16000 8.254
41.18000 6.888
41.20000 1.166
41.22000 5.140
41.24000 6.005
41.26000 5.071
41.28000 0.688
41.30000 0.637
41.32000 4.221
41.34000 1.041
41.36000 -0.150
41.38000 -0.780
41.40000 1.030
41.42000 1.273
41.44000 -3.498
41.46000 -2.419
41.48000 -0.467
41.50000 1.023
41.52000 0.737
41.54000 -0.802
41.56000 2.788
41.58000 4.722
41.60000 1.919
41.62000 1.826
41.64000 -1.544
41.66000 -0.061
41.68000 -0.823
41.70000 1.232
41.72000 2.225
41.74000 -0.124
41.76000 -0.135
41.78000 1.832
41.80000 2.580
41.82000 3.849
41.84000 0.815
41.86000 4.139
41.88000 4.478
41.90000 2.803
41.92000 1.388
41.94000 -1.884
41.96000 2.024
41.98000 1.600
42.00000 -3.420
42.02000 -1.229
42.04000 1.938
42.06000 4.124
42.08000 -0.467
42.10000 -2.203
42.12000 -0.776
42.14000 1.784
42.16000 0.848
42.18000 -3.188
42.20000 0.611
42.22000 4.142
42.24000 2.216
42.26000 1.747
42.28000 2.703
42.30000 3.251
42.32000 0.513
42.34000 2.571
42.36000 5.468
42.38000 3.269
42.40000 1.960
42.42000 -1.321
42.44000 -3.359
42.46000 0.514
42.48000 0.897
42.50000 0.319
42.52000 2.847
42.54000 2.223
42.56000 2.486
42.58000 1.857
42.60000 -2.742
42.62000 -1.009
42.64000 1.600
42.66000 2.871
42.68000 2.428
42.70000 1.885
42.72000 0.221
42.74000 0.774
42.76000 2.826
42.78000 1.177
42.80000 1.761
42.82000 6.519
42.84000 4.533
42.86000 3.485
42.88000 3.680
42.90000 0.315
42.92000 0.363
42.94000 3.528
42.96000 2.977
42.98000 1.635
43.00000 -0.581
43.02000 -1.414
43.04000 1.065
43.06000 -0.183
43.08000 0.277
43.10000 1.734
43.12000 4.778
43.14000 1.086
43.16000 2.120
43.18000 2.632
43.20000 2.864
43.22000 -2.662
43.24000 -3.285
43.26000 -2.846
43.28000 -2.201
43.30000 -1.149
43.32000 -3.007
43.34000 1.230
43.36000 -0.314
43.38000 -2.823
43.40000 1.060
43.42000 3.503
43.44000 2.160
43.46000 4.003
43.48000 6.084
43.50000 5.061
43.52000 2.068
43.54000 2.742
43.56000 3.932
43.58000 6.983
43.60000 4.449
43.62000 0.930
43.64000 -0.474
43.66000 -0.839
43.68000 2.435
43.70000 4.351
43.72000 4.512
43.74000 3.274
43.76000 0.993
43.78000 3.753
43.80000 2.153
43.82000 -1.111
43.84000 0.730
43.86000 4.648
43.88000 3.820
43.90000 0.599
43.92000 6.428
43.94000 5.476
43.96000 1.414
43.98000 0.896
44.00000 1.468
44.02000 -0.298
44.04000 1.036
44.06000 7.701
44.08000 7.593
44.10000 6.259
44.12000 4.667
44.14000 7.455
44.16000 5.757
44.18000 5.088
44.20000 8.726
44.22000 7.572
44.24000 5.612
44.26000 7.988
44.28000 7.525
44.30000 9.268
44.32000 8.563
44.34000 7.829
44.36000 10.850
44.38000 12.576
44.40000 11.625
44.42000 11.185
44.44000 10.767
44.46000 11.513
44.48000 12.434
44.50000 13.941
44.52000 14.249
44.54000 16.712
44.56000 17.822
44.58000 17.155
44.60000 21.080
44.62000 24.700
44.64000 23.676
44.66000 20.128
44.68000 25.565
44.70000 29.856
44.72000 27.457
44.74000 30.775
44.76000 34.338
44.78000 36.388
44.80000 37.737
44.82000 35.657
44.84000 41.890
44.86000 44.672
44.88000 47.961
44.90000 46.792
44.92000 45.507
44.94000 50.009
44.96000 60.189
44.98000 62.791
45.00000 64.454
45.02000 66.656
45.04000 68.312
45.06000 70.547
45.08000 80.531
45.10000 80.455
45.12000 80.497
45.14000 83.309
45.16000 88.752
45.18000 87.696
45.20000 91.144
45.22000 96.392
45.24000 109.589
45.26000 111.684
45.28000 108.301
45.30000 112.533
45.32000 112.976
45.34000 109.968
45.36000 112.449
45.38000 118.971
45.40000 120.669
45.42000 116.550
45.44000 120.284
45.46000 114.724
45.48000 112.966
45.50000 110.505
45.52000 111.322
45.54000 112.777
45.56000 108.439
45.58000 101.786
45.60000 98.296
45.62000 104.958
45.64000 104.789
45.66000 93.195
45.68000 90.100
45.70000 89.332
45.72000 81.442
45.74000 79.207
45.76000 74.509
45.78000 68.084
45.80000 65.671
45.82000 72.486
45.84000 67.272
45.86000 60.174
45.88000 52.100
45.90000 46.936
45.92000 46.933
45.94000 44.941
45.96000 43.776
45.98000 37.763
46.00000 36.833
46.02000 36.124
46.04000 36.123
46.06000 34.522
46.08000 28.302
46.10000 25.424
46.12000 26.124
46.14000 23.946
46.16000 24.299
46.18000 20.905
46.20000 20.887
46.22000 20.204
46.24000 13.700
46.26000 17.528
46.28000 19.233
46.30000 12.165
46.32000 11.023
46.34000 11.624
46.36000 7.763
46.38000 5.276
46.40000 7.299
46.42000 11.607
46.44000 14.915
46.46000 11.054
46.48000 10.291
46.50000 4.026
46.52000 2.477
46.54000 6.126
46.56000 8.808
46.58000 5.321
46.60000 1.482
46.62000 4.436
46.64000 6.018
46.66000 0.492
46.68000 -0.532
46.70000 5.103
46.72000 4.642
46.74000 1.177
46.76000 6.205
46.78000 2.579
46.80000 1.817
46.82000 1.081
46.84000 -1.449
46.86000 -2.142
46.88000 -1.097
46.90000 -0.871
46.92000 -1.149
46.94000 3.550
46.96000 1.515
46.98000 0.851
47.00000 -2.930
47.02000 -2.229
47.04000 2.045
47.06000 4.267
47.08000 2.696
47.10000 0.516
47.12000 0.848
47.14000 3.362
47.16000 3.889
47.18000 -1.605
47.20000 -1.058
47.22000 -2.280
47.24000 -2.887
47.26000 0.766
47.28000 -1.025
47.30000 -0.799
47.32000 -1.164
47.34000 -2.017
47.36000 -1.428
47.38000 1.778
47.40000 2.625
47.42000 4.247
47.44000 7.216
47.46000 5.804
47.48000 1.088
47.50000 1.060
47.52000 0.508
47.54000 -2.815
47.56000 -0.723
47.58000 -2.569
47.60000 -2.846
47.62000 -1.150
47.64000 -0.781
47.66000 0.780
47.68000 0.494
47.70000 -1.954
47.72000 -1.702
47.74000 0.727
47.76000 -0.415
47.78000 1.282
47.80000 0.454
47.82000 0.522
47.84000 -2.011
47.86000 0.114
47.88000 1.788
47.90000 3.400
47.92000 3.034
47.94000 -1.304
47.96000 0.440
47.98000 1.804
48.00000 2.887
48.02000 2.505
48.04000 -2.774
48.06000 -2.810
48.08000 -0.105
48.10000 1.420
48.12000 0.171
48.14000 1.937
48.16000 4.497
48.18000 3.645
48.20000 3.520
48.22000 0.678
48.24000 1.087
48.26000 3.773
48.28000 5.044
48.30000 1.961
48.32000 -0.975
48.34000 5.235
48.36000 1.939
48.38000 -0.837
48.40000 2.140
48.42000 3.119
48.44000 2.934
48.46000 -0.321
48.48000 -1.286
48.50000 2.304
48.52000 1.821
48.54000 -2.379
48.56000 1.495
48.58000 4.351
48.60000 -1.277
48.62000 -0.187
48.64000 -2.371
48.66000 2.887
48.68000 0.646
48.70000 -1.004
48.72000 -2.052
48.74000 1.278
48.76000 1.810
48.78000 0.395
48.80000 -1.278
48.82000 2.700
48.84000 4.514
48.86000 0.875
48.88000 3.027
48.90000 3.514
48.92000 5.817
48.94000 6.775
48.96000 5.037
48.98000 4.517
49.00000 1.834
49.02000 -0.507
49.04000 0.901
49.06000 4.885
49.08000 9.352
49.10000 6.828
49.12000 3.198
49.14000 -0.974
49.16000 2.557
49.18000 3.907
49.20000 5.808
49.22000 -2.693
49.24000 -0.157
49.26000 3.655
49.28000 7.022
49.30000 0.616
49.32000 3.850
49.34000 3.437
49.36000 1.295
49.38000 2.127
49.40000 3.109
49.42000 2.667
49.44000 0.561
49.46000 -1.234
49.48000 2.068
49.50000 2.129
49.52000 5.166
49.54000 5.069
49.56000 4.839
49.58000 3.636
49.60000 -0.041
49.62000 3.398
49.64000 5.325
49.66000 3.962
49.68000 3.203
49.70000 4.253
49.72000 1.987
49.74000 2.918
49.76000 4.229
49.78000 6.081
49.80000 5.594
49.82000 5.276
49.84000 1.634
49.86000 2.444
49.88000 5.407
49.90000 5.931
49.92000 4.710
49.94000 -1.124
49.96000 6.681
49.98000 7.777
50.00000 3.845
50.02000 -2.024
50.04000 2.057
50.06000 4.354
50.08000 1.882
50.10000 3.475
50.12000 2.720
50.14000 5.116
50.16000 2.987
50.18000 3.926
50.20000 8.182
50.22000 4.707
50.24000 9.414
50.26000 1.815
50.28000 1.802
50.30000 2.352
50.32000 1.995
50.34000 4.980
50.36000 1.871
50.38000 2.045
50.40000 2.715
50.42000 -1.647
50.44000 -2.644
50.46000 0.883
50.48000 3.236
50.50000 3.925
50.52000 0.153
50.54000 1.221
50.56000 3.123
50.58000 2.120
50.60000 -1.393
50.62000 3.515
50.64000 6.449
50.66000 2.650
50.68000 0.240
50.70000 1.026
50.72000 5.867
50.74000 5.981
50.76000 5.181
50.78000 5.036
50.80000 1.190
50.82000 3.194
50.84000 2.178
50.86000 1.882
50.88000 3.247
50.90000 3.501
50.92000 5.933
50.94000 9.095
50.96000 3.297
50.98000 3.463
51.00000 4.681
51.02000 0.174
51.04000 -1.164
51.06000 2.072
51.08000 3.796
51.10000 6.429
51.12000 6.035
51.14000 4.367
51.16000 -1.319
51.18000 -1.566
51.20000 -0.130
51.22000 1.767
51.24000 4.167
51.26000 1.557
51.28000 1.963
51.30000 0.856
51.32000 2.748
51.34000 3.536
51.36000 2.389
51.38000 1.579
51.40000 1.278
51.42000 2.493
51.44000 -0.454
51.46000 4.021
51.48000 4.236
51.50000 0.074
51.52000 -2.639
51.54000 -1.032
51.56000 2.441
51.58000 4.423
51.60000 6.920
51.62000 4.597
51.64000 4.341
51.66000 1.900
51.68000 6.890
51.70000 4.063
51.72000 1.643
51.74000 2.126
51.76000 2.054
51.78000 3.901
51.80000 3.576
51.82000 3.349
51.84000 4.234
51.86000 2.693
51.88000 0.442
51.90000 3.671
51.92000 4.874
51.94000 2.325
51.96000 1.367
51.98000 1.992
52.00000 1.909
52.02000 1.555
52.04000 0.038
52.06000 0.187
52.08000 1.976
52.10000 -0.629
52.12000 0.796
52.14000 2.500
52.16000 5.235
52.18000 1.972
52.20000 -0.289
52.22000 0.687
52.24000 0.241
52.26000 4.731
52.28000 5.131
52.30000 3.785
52.32000 -2.460
52.34000 -1.832
52.36000 3.640
52.38000 2.605
52.40000 -1.908
52.42000 0.212
52.44000 -2.527
52.46000 -2.595
52.48000 -0.406
52.50000 1.663
52.52000 1.316
52.54000 -1.198
52.56000 -1.289
52.58000 1.513
52.60000 3.193
52.62000 1.595
52.64000 0.367
52.66000 1.080
52.68000 5.067
52.70000 3.793
52.72000 -1.044
52.74000 2.147
52.76000 7.133
52.78000 5.154
52.80000 2.002
52.82000 4.262
52.84000 1.316
52.86000 -0.210
52.88000 -1.084
52.90000 2.217
52.92000 5.171
52.94000 2.948
52.96000 3.281
52.98000 3.696
53.00000 -2.320
53.02000 -1.355
53.04000 2.145
53.06000 5.393
53.08000 4.085
53.10000 4.579
53.12000 1.559
53.14000 2.870
53.16000 1.659
53.18000 1.692
53.20000 4.987
53.22000 3.734
53.24000 3.761
53.26000 -0.122
53.28000 1.688
53.30000 3.098
53.32000 7.414
53.34000 4.192
53.36000 0.764
53.38000 1.075
53.40000 5.707
53.42000 3.039
53.44000 4.462
53.46000 5.461
53.48000 3.066
53.50000 3.397
53.52000 1.694
53.54000 2.786
53.56000 3.950
53.58000 1.168
53.60000 -2.570
53.62000 1.663
53.64000 3.267
53.66000 1.674
53.68000 3.878
53.70000 6.522
53.72000 5.338
53.74000 3.696
53.76000 3.129
53.78000 4.129
53.80000 -0.606
53.82000 1.926
53.84000 5.741
53.86000 5.596
53.88000 1.972
53.90000 4.833
53.92000 4.921
53.94000 6.491
53.96000 2.478
53.98000 3.014
54.00000 2.537
54.02000 0.232
54.04000 -0.813
54.06000 -2.549
54.08000 -1.021
54.10000 -0.158
54.12000 3.582
54.14000 -0.437
54.16000 -0.811
54.18000 3.334
54.20000 4.251
54.22000 5.396
54.24000 5.196
54.26000 1.447
54.28000 4.868
54.30000 5.137
54.32000 3.670
54.34000 3.829
54.36000 3.353
54.38000 3.039
54.40000 1.605
54.42000 -1.445
54.44000 -2.525
54.46000 2.619
54.48000 6.608
54.50000 4.283
54.52000 2.890
54.54000 3.086
54.56000 5.703
54.58000 6.887
54.60000 5.611
54.62000 5.545
54.64000 4.052
54.66000 -0.699
54.68000 0.933
54.70000 3.826
54.72000 1.575
54.74000 4.623
54.76000 3.902
54.78000 2.760
54.80000 0.129
54.82000 2.837
54.84000 6.918
54.86000 7.409
54.88000 4.076
54.90000 5.034
54.92000 -1.222
54.94000 -1.421
54.96000 0.036
54.98000 4.039
55.00000 6.589
55.02000 1.518
55.04000 3.290
55.06000 6.953
55.08000 5.754
55.10000 4.526
55.12000 2.245
55.14000 1.811
55.16000 -0.531
55.18000 -2.517
55.20000 0.567
55.22000 2.437
55.24000 1.827
55.26000 6.066
55.28000 6.851
55.30000 3.783
55.32000 5.493
55.34000 4.880
55.36000 3.906
55.38000 2.109
55.40000 2.810
55.42000 2.152
55.44000 2.079
55.46000 2.241
55.48000 5.113
55.50000 1.525
55.52000 3.100
55.54000 6.857
55.56000 7.037
55.58000 7.792
55.60000 7.030
55.62000 2.172
55.64000 2.852
55.66000 0.881
55.68000 3.824
55.70000 6.654
55.72000 4.377
55.74000 0.568
55.76000 -0.054
55.78000 3.597
55.80000 5.847
55.82000 5.786
55.84000 0.902
55.86000 -2.496
55.88000 1.467
55.90000 2.458
55.92000 1.476
55.94000 -1.426
55.96000 0.797
55.98000 2.041
56.00000 1.927
56.02000 -0.675
56.04000 3.341
56.06000 5.093
56.08000 2.547
56.10000 1.220
56.12000 2.213
56.14000 4.349
56.16000 1.064
56.18000 1.089
56.20000 0.927
56.22000 4.286
56.24000 6.339
56.26000 0.925
56.28000 0.243
56.30000 3.554
56.32000 2.521
56.34000 -0.208
56.36000 2.186
56.38000 1.190
56.40000 -0.249
56.42000 1.414
56.44000 2.830
56.46000 7.505
56.48000 7.848
56.50000 4.852
56.52000 5.603
56.54000 6.058
56.56000 4.894
56.58000 4.177
56.60000 2.110
56.62000 3.686
56.64000 1.252
56.66000 -1.359
56.68000 -2.490
56.70000 4.557
56.72000 7.778
56.74000 5.413
56.76000 2.315
56.78000 -0.619
56.80000 2.226
56.82000 4.574
56.84000 1.634
56.86000 3.753
56.88000 4.455
56.90000 2.438
56.92000 -1.270
56.94000 4.984
56.96000 5.976
56.98000 -0.802
57.00000 0.644
57.02000 -0.495
57.04000 -2.300
57.06000 2.272
57.08000 2.955
57.10000 5.021
57.12000 3.878
57.14000 8.107
57.16000 7.410
57.18000 0.897
57.20000 2.112
57.22000 1.885
57.24000 -0.127
57.26000 2.541
57.28000 1.714
57.30000 2.277
57.32000 4.045
57.34000 0.793
57.36000 4.573
57.38000 1.816
57.40000 2.927
57.42000 0.569
57.44000 1.236
57.46000 5.850
57.48000 3.307
57.50000 0.732
57.52000 -0.475
57.54000 -0.909
57.56000 0.640
57.58000 3.779
57.60000 3.090
57.62000 3.307
57.64000 1.558
57.66000 0.242
57.68000 -2.470
57.70000 -0.036
57.72000 3.647
57.74000 3.190
57.76000 1.958
57.78000 0.233
57.80000 -0.843
57.82000 1.249
57.84000 0.740
57.86000 -0.952
57.88000 0.159
57.90000 -0.985
57.92000 1.986
57.94000 2.673
57.96000 0.990
57.98000 3.826
58.00000 4.292
58.02000 1.055
58.04000 -2.454
58.06000 0.195
58.08000 0.217
58.10000 1.651
58.12000 2.726
58.14000 -1.022
58.16000 1.917
58.18000 2.947
58.20000 2.159
58.22000 4.764
58.24000 1.999
58.26000 1.960
58.28000 2.850
58.30000 3.676
58.32000 1.065
58.34000 -0.005
58.36000 -0.100
58.38000 -0.540
58.40000 -2.430
58.42000 2.029
58.44000 2.022
58.46000 -0.588
58.48000 0.193
58.50000 3.217
58.52000 7.784
58.54000 4.414
58.56000 2.117
58.58000 3.410
58.60000 3.496
58.62000 0.997
58.64000 1.366
58.66000 -0.170
58.68000 0.374
58.70000 -1.593
58.72000 -0.333
58.74000 0.600
58.76000 1.428
58.78000 3.126
58.80000 -2.038
58.82000 1.718
58.84000 3.209
58.86000 0.969
58.88000 -1.768
58.90000 -1.149
58.92000 -0.314
58.94000 2.225
58.96000 -1.033
58.98000 2.818
59.00000 1.476
59.02000 3.165
59.04000 4.675
59.06000 2.442
59.08000 -0.975
59.10000 -0.652
59.12000 2.451
59.14000 1.615
59.16000 5.141
59.18000 2.954
59.20000 3.371
59.22000 1.116
59.24000 2.199
59.26000 1.870
59.28000 3.101
59.30000 1.491
59.32000 -2.122
59.34000 -1.781
59.36000 -0.897
59.38000 0.933
59.40000 4.039
59.42000 5.861
59.44000 3.204
59.46000 2.707
59.48000 4.674
59.50000 7.473
59.52000 5.342
59.54000 2.444
59.56000 1.994
59.58000 0.182
59.60000 -0.680
59.62000 -0.579
59.64000 2.014
59.66000 3.646
59.68000 2.739
59.70000 2.749
59.72000 3.091
59.74000 2.925
59.76000 5.519
59.78000 1.502
59.80000 2.966
59.82000 2.021
59.84000 1.982
59.86000 2.712
59.88000 -2.375
59.90000 2.168
59.92000 1.707
59.94000 6.117
59.96000 6.084
59.98000 3.695
60.00000 1.475
60.02000 2.067
60.04000 1.750
60.06000 1.129
60.08000 -0.146
60.10000 1.361
60.12000 1.750
60.14000 2.047
60.16000 5.851
60.18000 2.697
60.20000 -0.175
60.22000 1.593
60.24000 3.355
60.26000 1.141
60.28000 1.934
60.30000 2.060
60.32000 0.870
60.34000 -0.675
60.36000 2.834
60.38000 2.447
60.40000 1.456
60.42000 0.615
60.44000 3.318
60.46000 0.085
60.48000 2.440
60.50000 5.085
60.52000 5.569
60.54000 2.039
60.56000 0.278
60.58000 4.748
60.60000 1.133
60.62000 -1.756
60.64000 0.751
60.66000 2.567
60.68000 0.993
60.70000 3.863
60.72000 4.712
60.74000 2.235
60.76000 1.482
60.78000 1.252
60.80000 0.158
60.82000 4.677
60.84000 4.095
60.86000 2.206
60.88000 3.611
60.90000 4.989
60.92000 -0.101
60.94000 2.043
60.96000 -1.336
60.98000 -2.358
61.00000 1.970
61.02000 0.964
61.04000 1.520
61.06000 4.080
61.08000 2.568
61.10000 0.454
61.12000 2.810
61.14000 6.357
61.16000 0.244
61.18000 -0.083
61.20000 0.783
61.22000 4.244
61.24000 4.987
61.26000 3.797
61.28000 1.306
61.30000 1.978
61.32000 2.678
61.34000 0.174
61.36000 2.004
61.38000 3.901
61.40000 4.483
61.42000 3.842
61.44000 3.682
61.46000 2.135
61.48000 1.727
61.50000 1.595
61.52000 1.592
61.54000 1.375
61.56000 1.676
61.58000 2.841
61.60000 4.655
61.62000 4.508
61.64000 -0.274
61.66000 2.319
61.68000 -0.824
61.70000 0.537
61.72000 4.766
61.74000 0.208
61.76000 -0.441
61.78000 -0.026
61.80000 0.095
61.82000 0.771
61.84000 -2.321
61.86000 -0.769
61.88000 -1.515
61.90000 0.935
61.92000 -1.840
61.94000 2.829
61.96000 4.749
61.98000 2.818
62.00000 3.519
62.02000 1.382
62.04000 2.110
62.06000 -0.031
62.08000 -2.311
62.10000 -1.444
62.12000 -0.804
62.14000 0.462
62.16000 3.824
62.18000 2.280
62.20000 0.831
62.22000 3.675
62.24000 -0.221
62.26000 1.385
62.28000 2.171
62.30000 3.464
62.32000 3.848
62.34000 2.476
62.36000 0.884
62.38000 1.987
62.40000 0.484
62.42000 1.353
62.44000 1.411
62.46000 1.828
62.48000 2.477
62.50000 1.771
62.52000 0.613
62.54000 1.610
62.56000 -1.839
62.58000 1.514
62.60000 2.051
62.62000 0.746
62.64000 1.609
62.66000 2.384
62.68000 2.883
62.70000 4.268
62.72000 4.887
62.74000 2.872
62.76000 3.660
62.78000 0.373
62.80000 0.550
62.82000 -1.054
62.84000 -2.259
62.86000 -2.315
62.88000 -0.568
62.90000 -0.692
62.92000 2.108
62.94000 -0.239
62.96000 -0.204
62.98000 4.370
63.00000 4.372
63.02000 2.200
63.04000 2.388
63.06000 3.971
63.08000 5.564
63.10000 3.635
63.12000 1.020
63.14000 2.631
63.16000 0.580
63.18000 -0.568
63.20000 -0.176
63.22000 -0.368
63.24000 3.509
63.26000 1.834
63.28000 2.430
63.30000 1.404
63.32000 5.138
63.34000 4.029
63.36000 2.489
63.38000 0.238
63.40000 -0.315
63.42000 1.913
63.44000 0.999
63.46000 -2.317
63.48000 -1.403
63.50000 -0.360
63.52000 -0.187
63.54000 1.961
63.56000 0.553
63.58000 -0.248
63.60000 1.573
63.62000 1.618
63.64000 1.683
63.66000 3.296
63.68000 2.899
63.70000 -0.876
63.72000 0.027
63.74000 2.435
63.76000 2.985
63.78000 2.642
63.80000 1.487
63.82000 2.157
63.84000 1.549
63.86000 0.411
63.88000 -0.088
63.90000 0.111
63.92000 0.911
63.94000 -1.080
63.96000 -0.411
63.98000 -0.128
64.00000 3.139
64.02000 2.038
64.04000 2.842
64.06000 1.655
64.08000 0.341
64.10000 1.670
64.12000 2.311
64.14000 1.777
64.16000 2.969
64.18000 3.969
64.20000 2.421
64.22000 -0.295
64.24000 1.538
64.26000 0.017
64.28000 2.682
64.30000 -0.876
64.32000 -2.294
64.34000 3.157
64.36000 1.428
64.38000 0.887
64.40000 1.584
64.42000 4.049
64.44000 3.656
64.46000 1.178
64.48000 0.735
64.50000 2.483
64.52000 1.409
64.54000 -0.663
64.56000 5.893
64.58000 4.363
64.60000 5.118
64.62000 2.030
64.64000 0.379
64.66000 -2.309
64.68000 0.275
64.70000 3.585
64.72000 3.474
64.74000 0.723
64.76000 0.970
64.78000 -1.181
64.80000 1.211
64.82000 2.850
64.84000 2.652
64.86000 -0.502
64.88000 -2.076
64.90000 3.846
64.92000 3.356
64.94000 3.336
64.96000 1.940
64.98000 1.651
65.00000 0.985
65.02000 0.026
65.04000 -1.780
65.06000 -1.801
65.08000 0.379
65.10000 1.627
65.12000 0.640
65.14000 2.235
65.16000 -0.323
65.18000 -1.141
65.20000 2.743
65.22000 1.031
65.24000 0.733
65.26000 1.819
65.28000 1.028
65.30000 3.227
65.32000 3.016
65.34000 0.801
65.36000 -1.067
65.38000 1.875
65.40000 2.393
65.42000 0.496
65.44000 4.005
65.46000 4.539
65.48000 3.025
65.50000 2.186
65.52000 3.953
65.54000 5.669
65.56000 5.614
65.58000 3.953
65.60000 4.961
65.62000 4.959
65.64000 2.576
65.66000 2.232
65.68000 1.627
65.70000 1.771
65.72000 3.475
65.74000 3.256
65.76000 4.328
65.78000 7.394
65.80000 9.060
65.82000 8.465
65.84000 8.292
65.86000 7.168
65.88000 6.898
65.90000 5.055
65.92000 3.670
65.94000 3.976
65.96000 5.630
65.98000 8.593
66.00000 6.489
66.02000 5.322
66.04000 7.803
66.06000 7.362
66.08000 7.247
66.10000 7.121
66.12000 8.368
66.14000 8.322
66.16000 8.954
66.18000 7.983
66.20000 5.403
66.22000 5.126
66.24000 6.102
66.26000 8.093
66.28000 4.288
66.30000 4.631
66.32000 5.371
66.34000 5.735
66.36000 4.283
66.38000 5.560
66.40000 7.994
66.42000 4.374
66.44000 2.287
66.46000 4.691
66.48000 2.786
66.50000 0.911
66.52000 2.878
66.54000 5.888
66.56000 4.761
66.58000 4.948
66.60000 5.999
66.62000 5.381
66.64000 4.368
66.66000 1.909
66.68000 1.651
66.70000 0.476
66.72000 -0.020
66.74000 0.244
66.76000 -0.571
66.78000 0.144
66.80000 0.118
66.82000 -0.006
66.84000 0.809
66.86000 -1.567
66.88000 0.687
66.90000 -0.625
66.92000 0.569
66.94000 0.505
66.96000 -2.274
66.98000 -0.759
67.00000 -2.060
67.02000 2.573
67.04000 4.349
67.06000 3.456
67.08000 2.418
67.10000 0.636
67.12000 3.846
67.14000 1.219
67.16000 0.352
67.18000 0.356
67.20000 0.184
67.22000 -1.346
67.24000 1.111
67.26000 1.063
67.28000 0.287
67.30000 1.326
67.32000 2.725
67.34000 0.647
67.36000 -0.317
67.38000 0.243
67.40000 2.411
67.42000 1.057
67.44000 -0.488
67.46000 -0.282
67.48000 -0.933
67.50000 -1.534
67.52000 -2.242
67.54000 3.375
67.56000 3.481
67.58000 0.671
67.60000 -2.139
67.62000 -1.829
67.64000 1.965
67.66000 0.570
67.68000 -0.829
67.70000 -0.823
67.72000 -0.981
67.74000 0.474
67.76000 2.255
67.78000 1.328
67.80000 1.403
67.82000 0.401
67.84000 3.204
67.86000 2.220
67.88000 0.678
67.90000 -0.841
67.92000 -1.029
67.94000 1.252
67.96000 -1.598
67.98000 0.591
68.00000 -1.870
68.02000 -0.956
68.04000 0.263
68.06000 2.186
68.08000 2.384
68.10000 -0.126
68.12000 1.266
68.14000 1.012
68.16000 3.037
68.18000 -0.825
68.20000 -0.947
68.22000 3.032
68.24000 0.883
68.26000 0.998
68.28000 1.474
68.30000 1.178
68.32000 4.261
68.34000 1.437
68.36000 1.606
68.38000 2.489
68.40000 -1.687
68.42000 -2.200
68.44000 0.213
68.46000 0.785
68.48000 2.066
68.50000 2.098
68.52000 2.436
68.54000 1.428
68.56000 2.059
68.58000 0.537
68.60000 0.132
68.62000 2.184
68.64000 1.984
68.66000 1.817
68.68000 0.423
68.70000 1.948
68.72000 1.673
68.74000 -0.019
68.76000 0.967
68.78000 -1.350
68.80000 0.599
68.82000 0.580
68.84000 0.609
68.86000 1.585
68.88000 1.640
68.90000 -0.094
68.92000 -0.771
68.94000 3.176
68.96000 2.390
68.98000 0.150
69.00000 -0.319
69.02000 1.472
69.04000 1.105
69.06000 -1.109
69.08000 -0.602
69.10000 1.354
69.12000 -1.408
69.14000 0.737
69.16000 -2.157
69.18000 -0.706
69.20000 1.843
69.22000 2.561
69.24000 0.581
69.26000 2.556
69.28000 2.496
69.30000 2.661
69.32000 2.211
69.34000 -0.069
69.36000 0.350
69.38000 0.636
69.40000 -1.447
69.42000 0.341
69.44000 1.231
69.46000 2.414
69.48000 0.917
69.50000 0.740
69.52000 0.031
69.54000 0.804
69.56000 2.435
69.58000 2.661
69.60000 3.861
69.62000 0.751
69.64000 0.859
69.66000 -2.156
69.68000 -0.869
69.70000 0.022
69.72000 -0.365
69.74000 -0.141
69.76000 -0.343
69.78000 -0.479
69.80000 -0.667
69.82000 0.060
69.84000 -0.420
69.86000 -0.957
69.88000 -0.412
69.90000 -0.865
69.92000 0.835
69.94000 0.572
69.96000 -0.348
69.98000 -0.161
70.00000 -0.433
70.02000 -1.199
70.04000 -1.563
70.06000 -2.021
70.08000 -1.498
70.10000 -1.747
70.12000 -0.444
70.14000 -0.124
70.16000 2.202
70.18000 2.370
70.20000 0.488
70.22000 -0.222
70.24000 -0.055
70.26000 -0.636
70.28000 1.498
70.30000 0.718
70.32000 -0.822
70.34000 -0.670
70.36000 -0.320
70.38000 1.591
70.40000 0.441
70.42000 -0.064
70.44000 2.067
70.46000 1.004
70.48000 0.915
70.50000 0.116
70.52000 2.669
70.54000 -0.255
70.56000 0.552
70.58000 3.312
70.60000 3.599
70.62000 0.796
70.64000 4.218
70.66000 1.794
70.68000 0.239
70.70000 0.428
70.72000 -0.669
70.74000 -2.106
70.76000 2.276
70.78000 2.574
70.80000 1.750
70.82000 1.356
70.84000 0.216
70.86000 1.547
70.88000 1.002
70.90000 2.335
70.92000 1.170
70.94000 1.724
70.96000 1.606
70.98000 2.054
71.00000 1.176
71.02000 3.418
71.04000 2.175
71.06000 1.656
71.08000 3.357
71.10000 0.303
71.12000 0.550
71.14000 0.718
71.16000 3.616
71.18000 0.830
71.20000 -0.961
71.22000 1.084
71.24000 1.648
71.26000 -0.125
71.28000 -1.180
71.30000 -0.049
71.32000 2.695
71.34000 2.738
71.36000 1.854
71.38000 0.216
71.40000 -0.379
71.42000 1.848
71.44000 -0.633
71.46000 3.727
71.48000 1.445
71.50000 -0.301
71.52000 -1.339
71.54000 0.264
71.56000 0.616
71.58000 2.319
71.60000 0.407
71.62000 -1.055
71.64000 1.189
71.66000 -0.536
71.68000 -0.043
71.70000 1.593
71.72000 0.948
71.74000 -0.992
71.76000 1.788
71.78000 2.399
71.80000 -0.825
71.82000 -1.265
71.84000 -2.072
71.86000 0.697
71.88000 1.931
71.90000 1.625
71.92000 2.399
71.94000 -0.172
71.96000 3.274
71.98000 1.030
72.00000 2.144
72.02000 0.692
72.04000 3.113
72.06000 2.300
72.08000 4.170
72.10000 -0.699
72.12000 -1.017
72.14000 -0.601
72.16000 0.597
72.18000 1.723
72.20000 3.507
72.22000 4.664
72.24000 1.071
72.26000 -2.052
72.28000 1.541
72.30000 -0.059
72.32000 0.857
72.34000 0.280
72.36000 -1.510
72.38000 2.221
72.40000 1.170
72.42000 0.939
72.44000 1.899
72.46000 0.996
72.48000 0.305
72.50000 -0.341
72.52000 0.924
72.54000 1.045
72.56000 0.327
72.58000 3.315
72.60000 0.817
72.62000 -0.061
72.64000 3.166
72.66000 1.477
72.68000 -0.346
72.70000 -0.861
72.72000 0.596
72.74000 0.895
72.76000 -0.413
72.78000 1.423
72.80000 2.023
72.82000 1.708
72.84000 1.564
72.86000 1.731
72.88000 1.090
72.90000 0.084
72.92000 -0.612
72.94000 0.095
72.96000 -0.085
72.98000 3.267
73.00000 4.520
73.02000 2.418
73.04000 3.654
73.06000 1.869
73.08000 4.656
73.10000 4.075
73.12000 1.205
73.14000 3.139
73.16000 4.796
73.18000 1.741
73.20000 -1.651
73.22000 1.937
73.24000 2.162
73.26000 2.391
73.28000 1.010
73.30000 1.743
73.32000 2.990
73.34000 4.968
73.36000 4.214
73.38000 4.008
73.40000 3.286
73.42000 4.627
73.44000 4.715
73.46000 2.651
73.48000 -1.996
73.50000 0.621
73.52000 3.510
73.54000 2.655
73.56000 3.275
73.58000 5.493
73.60000 5.128
73.62000 3.950
73.64000 4.074
73.66000 2.337
73.68000 3.285
73.70000 -1.230
73.72000 1.423
73.74000 6.515
73.76000 5.625
73.78000 2.051
73.80000 2.595
73.82000 0.350
73.84000 2.616
73.86000 3.198
73.88000 3.349
73.90000 4.069
73.92000 3.151
73.94000 1.793
73.96000 2.048
73.98000 4.087
74.00000 2.491
74.02000 1.933
74.04000 2.415
74.06000 3.185
74.08000 1.267
74.10000 1.020
74.12000 5.773
74.14000 1.422
74.16000 -2.013
74.18000 -1.857
74.20000 0.274
74.22000 2.452
74.24000 2.147
74.26000 0.850
74.28000 0.702
74.30000 1.655
74.32000 3.531
74.34000 2.716
74.36000 2.803
74.38000 7.094
74.40000 4.830
74.42000 1.175
74.44000 1.506
74.46000 2.354
74.48000 3.067
74.50000 2.649
74.52000 0.123
74.54000 -0.720
74.56000 2.670
74.58000 3.736
74.60000 1.762
74.62000 3.097
74.64000 1.947
74.66000 -0.467
74.68000 0.882
74.70000 2.108
74.72000 2.051
74.74000 2.414
74.76000 1.586
74.78000 2.064
74.80000 1.486
74.82000 3.603
74.84000 -0.369
74.86000 -0.527
74.88000 -1.214
74.90000 -1.221
74.92000 0.092
74.94000 2.391
74.96000 3.699
74.98000 3.156
75.00000 0.870
75.02000 0.003
75.04000 1.392
75.06000 1.088
75.08000 -0.161
75.10000 2.648
75.12000 1.074
75.14000 1.508
75.16000 0.949
75.18000 2.468
75.20000 1.221
75.22000 1.676
75.24000 0.177
75.26000 -2.042
75.28000 1.228
75.30000 4.136
75.32000 3.393
75.34000 3.351
75.36000 4.125
75.38000 3.195
75.40000 0.240
75.42000 0.514
75.44000 2.997
75.46000 -1.913
75.48000 -0.209
75.50000 3.467
75.52000 4.274
75.54000 0.823
75.56000 -1.630
75.58000 2.096
75.60000 4.287
75.62000 2.743
75.64000 2.351
75.66000 -2.051
75.68000 -1.143
75.70000 2.885
75.72000 3.894
75.74000 3.134
75.76000 2.185
75.78000 2.645
75.80000 0.552
75.82000 -1.650
75.84000 0.961
75.86000 3.102
75.88000 1.933
75.90000 3.148
75.92000 2.286
75.94000 3.363
75.96000 6.675
75.98000 1.794
76.00000 -0.342
76.02000 1.003
76.04000 0.677
76.06000 1.789
76.08000 4.935
76.10000 3.861
76.12000 1.298
76.14000 -2.054
76.16000 0.501
76.18000 2.950
76.20000 5.036
76.22000 5.741
76.24000 4.818
76.26000 3.035
76.28000 0.177
76.30000 2.614
76.32000 3.655
76.34000 4.237
76.36000 4.217
76.38000 0.446
76.40000 1.104
76.42000 0.489
76.44000 0.152
76.46000 0.657
76.48000 -0.683
76.50000 -0.084
76.52000 -0.849
76.54000 -0.150
76.56000 1.102
76.58000 1.513
76.60000 1.618
76.62000 1.854
76.64000 1.352
76.66000 1.071
76.68000 0.433
76.70000 0.933
76.72000 -0.415
76.74000 0.415
76.76000 0.396
76.78000 0.551
76.80000 1.816
76.82000 -1.036
76.84000 -0.185
76.86000 0.782
76.88000 4.027
76.90000 6.052
76.92000 4.674
76.94000 1.637
76.96000 1.036
76.98000 -2.097
77.00000 -2.097
77.02000 -0.570
77.04000 -0.178
77.06000 1.597
77.08000 3.021
77.10000 2.168
77.12000 1.224
77.14000 2.175
77.16000 0.264
77.18000 2.900
77.20000 2.327
77.22000 -0.191
77.24000 -1.645
77.26000 2.732
77.28000 1.398
77.30000 0.856
77.32000 1.992
77.34000 0.056
77.36000 -1.637
77.38000 2.573
77.40000 4.713
77.42000 1.032
77.44000 0.885
77.46000 1.909
77.48000 3.085
77.50000 2.887
77.52000 -0.372
77.54000 0.879
77.56000 4.227
77.58000 3.478
77.60000 4.034
77.62000 2.075
77.64000 -2.128
77.66000 0.880
77.68000 3.959
77.70000 4.426
77.72000 3.516
77.74000 1.648
77.76000 1.090
77.78000 1.479
77.80000 2.969
77.82000 2.460
77.84000 1.192
77.86000 0.365
77.88000 0.319
77.90000 5.062
77.92000 4.782
77.94000 5.499
77.96000 5.591
77.98000 4.186
78.00000 3.855
78.02000 1.758
78.04000 1.848
78.06000 3.789
78.08000 4.417
78.10000 4.924
78.12000 4.867
78.14000 6.531
78.16000 4.260
78.18000 3.799
78.20000 7.326
78.22000 3.463
78.24000 7.432
78.26000 8.790
78.28000 4.687
78.30000 -2.162
78.32000 -0.216
78.34000 3.474
78.36000 5.409
78.38000 6.636
78.40000 5.935
78.42000 6.992
78.44000 6.719
78.46000 7.883
78.48000 4.876
78.50000 4.697
78.52000 7.394
78.54000 10.298
78.56000 7.498
78.58000 4.595
78.60000 8.967
78.62000 13.119
78.64000 7.699
78.66000 9.239
78.68000 11.303
78.70000 9.811
78.72000 10.489
78.74000 8.754
78.76000 12.765
78.78000 11.999
78.80000 12.376
78.82000 10.686
78.84000 9.518
78.86000 11.424
78.88000 14.241
78.90000 11.806
78.92000 14.254
78.94000 15.147
78.96000 19.081
78.98000 23.011
79.00000 17.993
79.02000 18.203
79.04000 16.100
79.06000 18.762
79.08000 16.115
79.10000 18.160
79.12000 22.487
79.14000 23.419
79.16000 24.633
79.18000 29.427
79.20000 31.119
79.22000 22.891
79.24000 17.633
79.26000 19.751
79.28000 24.920
79.30000 26.175
79.32000 25.877
79.34000 27.173
79.36000 26.562
79.38000 29.050
79.40000 30.516
79.42000 31.185
79.44000 33.390
79.46000 33.884
79.48000 32.885
79.50000 30.456
79.52000 29.281
79.54000 31.843
79.56000 31.581
79.58000 27.490
79.60000 27.729
79.62000 25.266
79.64000 25.495
79.66000 27.682
79.68000 28.778
79.70000 28.860
79.72000 26.236
79.74000 28.833
79.76000 26.857
79.78000 25.681
79.80000 23.728
79.82000 21.752
79.84000 20.310
79.86000 16.811
79.88000 21.970
79.90000 22.468
79.92000 16.832
79.94000 20.275
79.96000 18.913
79.98000 18.287
80.00000 16.801
80.02000 16.277
80.04000 15.645
80.06000 16.195
80.08000 12.966
80.10000 16.426
80.12000 15.965
80.14000 15.892
80.16000 16.633
80.18000 14.813
80.20000 12.199
80.22000 9.180
80.24000 12.291
80.26000 9.873
80.28000 7.788
80.30000 8.257
80.32000 7.122
80.34000 3.903
80.36000 4.206
80.38000 8.035
80.40000 6.095
80.42000 7.353
80.44000 7.923
80.46000 3.743
80.48000 7.741
80.50000 4.919
80.52000 2.738
80.54000 2.219
80.56000 2.419
80.58000 4.718
80.60000 4.586
80.62000 4.356
80.64000 0.887
80.66000 0.287
80.68000 -0.412
80.70000 1.818
80.72000 2.896
80.74000 4.056
80.76000 5.059
80.78000 5.513
80.80000 -0.973
80.82000 0.149
80.84000 1.591
80.86000 0.129
80.88000 -0.252
80.90000 2.099
80.92000 1.234
80.94000 -2.330
80.96000 0.308
80.98000 1.090
81.00000 -1.457
81.02000 3.503
81.04000 0.256
81.06000 -0.684
81.08000 -1.019
81.10000 -2.330
81.12000 -2.251
81.14000 0.014
81.16000 2.873
81.18000 3.091
81.20000 3.009
81.22000 2.202
81.24000 2.130
81.26000 -1.405
81.28000 -2.334
81.30000 -1.643
81.32000 1.368
81.34000 0.820
81.36000 2.160
81.38000 4.289
81.40000 1.696
81.42000 -1.309
81.44000 0.832
81.46000 -1.845
81.48000 -1.134
81.50000 -1.236
81.52000 -1.417
81.54000 -0.717
81.56000 0.298
81.58000 0.702
81.60000 0.893
81.62000 1.826
81.64000 1.667
81.66000 1.191
81.68000 2.520
81.70000 -1.803
81.72000 -0.916
81.74000 2.587
81.76000 2.694
81.78000 1.548
81.80000 -0.825
81.82000 -2.238
81.84000 -0.925
81.86000 1.830
81.88000 2.952
81.90000 2.168
81.92000 4.361
81.94000 3.690
81.96000 0.698
81.98000 0.154
82.00000 2.326
82.02000 3.533
82.04000 2.006
82.06000 4.268
82.08000 4.394
82.10000 3.901
82.12000 1.896
82.14000 5.793
82.16000 5.273
82.18000 -0.086
82.20000 -1.679
82.22000 -1.249
82.24000 3.675
82.26000 5.633
82.28000 8.509
82.30000 3.915
82.32000 6.307
82.34000 7.786
82.36000 7.411
82.38000 4.579
82.40000 9.108
82.42000 9.206
82.44000 8.066
82.46000 8.893
82.48000 11.064
82.50000 11.309
82.52000 9.063
82.54000 6.185
82.56000 13.304
82.58000 11.424
82.60000 13.912
82.62000 11.910
82.64000 10.715
82.66000 11.929
82.68000 14.750
82.70000 14.604
82.72000 17.855
82.74000 19.150
82.76000 15.816
82.78000 18.787
82.80000 15.171
82.82000 20.560
82.84000 22.340
82.86000 20.658
82.88000 23.817
82.90000 23.180
82.92000 23.346
82.94000 26.958
82.96000 29.840
82.98000 31.882
83.00000 34.102
83.02000 30.784
83.04000 31.976
83.06000 36.915
83.08000 37.677
83.10000 36.242
83.12000 39.503
83.14000 41.820
83.16000 38.997
83.18000 41.791
83.20000 45.805
83.22000 50.573
83.24000 48.509
83.26000 48.506
83.28000 53.371
83.30000 58.566
83.32000 58.369
83.34000 55.923
83.36000 52.332
83.38000 57.396
83.40000 57.516
83.42000 58.928
83.44000 66.372
83.46000 65.946
83.48000 66.759
83.50000 68.227
83.52000 67.165
83.54000 65.055
83.56000 61.062
83.58000 59.196
83.60000 64.978
83.62000 70.601
83.64000 65.095
83.66000 61.150
83.68000 62.885
83.70000 66.236
83.72000 63.850
83.74000 60.594
83.76000 56.936
83.78000 58.132
83.80000 57.758
83.82000 60.084
83.84000 60.249
83.86000 57.454
83.88000 53.189
83.90000 53.613
83.92000 51.621
83.94000 46.656
83.96000 43.005
83.98000 45.467
84.00000 45.603
84.02000 39.480
84.04000 37.244
84.06000 38.444
84.08000 37.699
84.10000 34.790
84.12000 28.900
84.14000 28.286
84.16000 29.004
84.18000 29.465
84.20000 25.013
84.22000 24.180
84.24000 20.773
84.26000 21.092
84.28000 20.699
84.30000 18.094
84.32000 17.169
84.34000 12.704
84.36000 14.236
84.38000 17.453
84.40000 18.040
84.42000 11.561
84.44000 10.529
84.46000 12.234
84.48000 14.612
84.50000 14.637
84.52000 10.205
84.54000 11.407
84.56000 9.476
84.58000 6.875
84.60000 9.744
84.62000 11.079
84.64000 13.187
84.66000 10.549
84.68000 10.929
84.70000 10.752
84.72000 5.375
84.74000 6.588
84.76000 5.904
84.78000 7.091
84.80000 4.722
84.82000 2.086
84.84000 5.101
84.86000 6.237
84.88000 5.202
84.90000 5.537
84.92000 7.926
84.94000 5.084
84.96000 5.873
84.98000 7.399
85.00000 3.548
85.02000 3.041
85.04000 2.556
85.06000 2.550
85.08000 3.146
85.10000 4.041
85.12000 0.629
85.14000 2.427
85.16000 6.835
85.18000 5.572
85.20000 4.073
85.22000 3.843
85.24000 3.158
85.26000 6.585
85.28000 6.445
85.30000 5.813
85.32000 4.573
85.34000 1.089
85.36000 -0.296
85.38000 -2.031
85.40000 -0.340
85.42000 1.519
85.44000 2.598
85.46000 1.726
85.48000 0.737
85.50000 4.645
85.52000 2.462
85.54000 1.881
85.56000 2.604
85.58000 2.876
85.60000 0.177
85.62000 0.138
85.64000 0.812
85.66000 1.829
85.68000 0.429
85.70000 0.420
85.72000 3.807
85.74000 5.120
85.76000 0.892
85.78000 1.324
85.80000 2.268
85.82000 3.191
85.84000 3.178
85.86000 0.906
85.88000 0.294
85.90000 0.041
85.92000 1.129
85.94000 1.091
85.96000 1.490
85.98000 1.450
86.00000 1.388
86.02000 0.507
86.04000 -0.880
86.06000 2.485
86.08000 4.776
86.10000 2.170
86.12000 1.263
86.14000 1.649
86.16000 0.338
86.18000 -1.657
86.20000 1.026
86.22000 2.594
86.24000 4.457
86.26000 0.773
86.28000 -0.535
86.30000 1.407
86.32000 1.960
86.34000 4.448
86.36000 2.046
86.38000 -0.201
86.40000 3.074
86.42000 1.398
86.44000 -0.731
86.46000 1.569
86.48000 3.698
86.50000 6.402
86.52000 3.090
86.54000 -0.467
86.56000 -1.677
86.58000 1.301
86.60000 1.007
86.62000 4.849
86.64000 7.902
86.66000 2.682
86.68000 0.731
86.70000 0.846
86.72000 0.690
86.74000 1.195
86.76000 -1.939
86.78000 -0.659
86.80000 0.722
86.82000 -0.340
86.84000 1.763
86.86000 1.715
86.88000 2.449
86.90000 2.764
86.92000 2.906
86.94000 1.490
86.96000 2.413
86.98000 3.112
87.00000 2.343
87.02000 2.490
87.04000 3.518
87.06000 1.704
87.08000 -0.163
87.10000 -1.055
87.12000 -0.715
87.14000 -1.045
87.16000 -1.917
87.18000 1.793
87.20000 1.513
87.22000 1.930
87.24000 5.123
87.26000 2.192
87.28000 2.173
87.30000 4.076
87.32000 3.989
87.34000 6.122
87.36000 6.290
87.38000 5.684
87.40000 4.082
87.42000 5.261
87.44000 3.249
87.46000 2.225
87.48000 4.140
87.50000 2.156
87.52000 1.650
87.54000 2.732
87.56000 2.992
87.58000 3.365
87.60000 5.371
87.62000 2.809
87.64000 2.243
87.66000 2.534
87.68000 2.051
87.70000 5.046
87.72000 3.789
87.74000 4.216
87.76000 2.910
87.78000 2.501
87.80000 3.196
87.82000 1.700
87.84000 -1.891
87.86000 -0.310
87.88000 1.304
87.90000 4.557
87.92000 2.374
87.94000 -0.069
87.96000 1.028
87.98000 2.950
88.00000 3.856
88.02000 1.216
88.04000 1.779
88.06000 3.610
88.08000 2.461
88.10000 0.574
88.12000 3.785
88.14000 4.381
88.16000 1.921
88.18000 2.323
88.20000 2.550
88.22000 2.321
88.24000 1.597
88.26000 1.464
88.28000 2.499
88.30000 5.098
88.32000 3.421
88.34000 0.385
88.36000 1.911
88.38000 0.285
88.40000 1.901
88.42000 1.701
88.44000 1.604
88.46000 3.350
88.48000 4.630
88.50000 0.232
88.52000 -1.554
88.54000 -0.322
88.56000 1.652
88.58000 0.906
88.60000 0.978
88.62000 2.100
88.64000 -1.298
88.66000 -1.911
88.68000 -1.692
88.70000 1.861
88.72000 2.484
88.74000 1.919
88.76000 1.373
88.78000 2.333
88.80000 2.163
88.82000 3.671
88.84000 -1.834
88.86000 -0.921
88.88000 0.386
88.90000 1.554
88.92000 1.606
88.94000 -0.400
88.96000 -0.808
88.98000 1.003
89.00000 1.626
89.02000 2.510
89.04000 0.233
89.06000 -0.571
89.08000 0.285
89.10000 2.893
89.12000 1.031
89.14000 1.200
89.16000 0.979
89.18000 3.532
89.20000 5.207
89.22000 2.411
89.24000 1.386
89.26000 -0.447
89.28000 -0.593
89.30000 2.884
89.32000 1.958
89.34000 1.603
89.36000 2.522
89.38000 1.572
89.40000 0.861
89.42000 0.658
89.44000 0.298
89.46000 0.175
89.48000 1.383
89.50000 1.894
89.52000 1.347
89.54000 0.728
89.56000 -0.429
89.58000 5.024
89.60000 6.267
89.62000 0.426
89.64000 1.558
89.66000 1.386
89.68000 0.403
89.70000 0.193
89.72000 2.575
89.74000 4.548
89.76000 3.544
89.78000 3.782
89.80000 1.750
89.82000 -1.860
89.84000 1.061
89.86000 3.238
89.88000 0.007
89.90000 2.277
89.92000 4.472
89.94000 3.989
89.96000 2.636
89.98000 1.971
90.00000 2.352
90.02000 3.380
90.04000 3.666
90.06000 2.905
90.08000 2.283
90.10000 4.804
90.12000 3.647
90.14000 7.662
90.16000 3.519
90.18000 3.010
90.20000 1.420
90.22000 2.588
90.24000 3.073
90.26000 0.649
90.28000 1.727
90.30000 5.028
90.32000 6.706
90.34000 8.694
90.36000 6.187
90.38000 2.970
90.40000 3.607
90.42000 3.947
90.44000 -1.879
90.46000 2.720
90.48000 1.931
90.50000 2.915
90.52000 2.516
90.54000 4.636
90.56000 4.218
90.58000 3.267
90.60000 1.760
90.62000 1.420
90.64000 2.151
90.66000 2.562
90.68000 -1.183
90.70000 1.150
90.72000 0.028
90.74000 3.077
90.76000 0.883
90.78000 1.952
90.80000 4.212
90.82000 1.667
90.84000 1.798
90.86000 0.866
90.88000 2.730
90.90000 4.495
90.92000 4.780
90.94000 1.645
90.96000 2.505
90.98000 1.281
91.00000 2.292
91.02000 1.998
91.04000 -0.313
91.06000 0.048
91.08000 -1.882
91.10000 1.557
91.12000 5.689
91.14000 5.681
91.16000 5.763
91.18000 3.992
91.20000 4.113
91.22000 2.775
91.24000 2.200
91.26000 1.943
91.28000 0.914
91.30000 1.710
91.32000 1.313
91.34000 3.749
91.36000 3.821
91.38000 2.153
91.40000 5.279
91.42000 2.789
91.44000 0.643
91.46000 0.012
91.48000 0.829
91.50000 4.307
91.52000 3.312
91.54000 5.546
91.56000 0.902
91.58000 -0.805
91.60000 2.678
91.62000 1.345
91.64000 -0.907
91.66000 0.379
91.68000 0.787
91.70000 -1.790
91.72000 -1.869
91.74000 2.730
91.76000 4.519
91.78000 6.728
91.80000 3.231
91.82000 3.667
91.84000 1.991
91.86000 -1.150
91.88000 -0.452
91.90000 2.267
91.92000 -0.148
91.94000 2.308
91.96000 6.470
91.98000 3.943
92.00000 2.291
92.02000 4.083
92.04000 4.437
92.06000 3.717
92.08000 -0.238
92.10000 -0.706
92.12000 1.253
92.14000 3.170
92.16000 5.421
92.18000 4.527
92.20000 2.848
92.22000 -0.919
92.24000 4.255
92.26000 1.864
92.28000 1.392
92.30000 1.256
92.32000 4.306
92.34000 2.630
92.36000 2.265
92.38000 3.241
92.40000 4.058
92.42000 0.956
92.44000 0.851
92.46000 2.004
92.48000 1.995
92.50000 1.846
92.52000 2.172
92.54000 4.960
92.56000 0.274
92.58000 0.930
92.60000 4.684
92.62000 1.235
92.64000 0.445
92.66000 -0.781
92.68000 -1.395
92.70000 -1.663
92.72000 -1.189
92.74000 2.025
92.76000 6.104
92.78000 0.766
92.80000 -1.254
92.82000 -1.444
92.84000 1.509
92.86000 3.216
92.88000 3.976
92.90000 3.034
92.92000 1.863
92.94000 0.107
92.96000 -1.902
92.98000 -1.347
93.00000 0.411
93.02000 0.520
93.04000 4.750
93.06000 4.961
93.08000 3.675
93.10000 1.186
93.12000 0.759
93.14000 0.439
93.16000 2.403
93.18000 1.555
93.20000 0.473
93.22000 0.240
93.24000 2.726
93.26000 5.731
93.28000 7.069
93.30000 4.972
93.32000 1.406
93.34000 1.008
93.36000 4.133
93.38000 2.590
93.40000 6.547
93.42000 2.024
93.44000 3.929
93.46000 1.862
93.48000 1.280
93.50000 0.291
93.52000 4.068
93.54000 4.486
93.56000 4.113
93.58000 3.393
93.60000 4.110
93.62000 1.847
93.64000 2.289
93.66000 0.620
93.68000 3.017
93.70000 1.710
93.72000 1.339
93.74000 3.323
93.76000 3.532
93.78000 2.976
93.80000 3.896
93.82000 -0.202
93.84000 4.151
93.86000 2.692
93.88000 4.587
93.90000 3.143
93.92000 2.034
93.94000 1.630
93.96000 0.260
93.98000 -1.526
94.00000 0.442
94.02000 1.143
94.04000 3.189
94.06000 2.299
94.08000 2.994
94.10000 6.837
94.12000 6.993
94.14000 1.629
94.16000 -0.778
94.18000 -1.893
94.20000 -0.757
94.22000 0.139
94.24000 1.467
94.26000 4.909
94.28000 4.695
94.30000 2.878
94.32000 4.745
94.34000 3.346
94.36000 4.858
94.38000 6.181
94.40000 2.152
94.42000 2.422
94.44000 3.387
94.46000 6.500
94.48000 3.756
94.50000 3.268
94.52000 1.786
94.54000 3.089
94.56000 1.998
94.58000 3.017
94.60000 9.064
94.62000 5.491
94.64000 4.451
94.66000 0.334
94.68000 0.677
94.70000 4.637
94.72000 4.825
94.74000 3.016
94.76000 4.138
94.78000 3.646
94.80000 1.988
94.82000 0.213
94.84000 4.047
94.86000 8.124
94.88000 5.568
94.90000 5.824
94.92000 5.399
94.94000 -0.212
94.96000 0.382
94.98000 2.511
95.00000 4.106
95.02000 2.735
95.04000 -1.203
95.06000 -1.917
95.08000 3.399
95.10000 4.290
95.12000 5.724
95.14000 6.802
95.16000 3.534
95.18000 5.100
95.20000 3.555
95.22000 0.252
95.24000 2.422
95.26000 4.077
95.28000 1.458
95.30000 -0.548
95.32000 0.740
95.34000 3.571
95.36000 2.392
95.38000 4.308
95.40000 5.495
95.42000 4.452
95.44000 1.485
95.46000 -0.438
95.48000 3.180
95.50000 2.768
95.52000 -0.032
95.54000 -0.342
95.56000 0.726
95.58000 3.058
95.60000 2.946
95.62000 3.630
95.64000 1.567
95.66000 2.116
95.68000 1.992
95.70000 3.921
95.72000 3.902
95.74000 2.235
95.76000 2.477
95.78000 4.232
95.80000 2.293
95.82000 3.522
95.84000 1.684
95.86000 -1.100
95.88000 0.300
95.90000 3.038
95.92000 7.168
95.94000 6.021
95.96000 4.165
95.98000 0.507
96.00000 -1.911
96.02000 3.454
96.04000 2.628
96.06000 2.558
96.08000 2.664
96.10000 3.571
96.12000 5.517
96.14000 4.287
96.16000 -0.508
96.18000 -0.417
96.20000 0.197
96.22000 1.321
96.24000 1.467
96.26000 -0.543
96.28000 0.564
96.30000 6.302
96.32000 3.281
96.34000 -0.492
96.36000 1.831
96.38000 2.621
96.40000 0.984
96.42000 0.068
96.44000 0.647
96.46000 3.052
96.48000 1.369
96.50000 -0.097
96.52000 1.331
96.54000 5.697
96.56000 5.696
96.58000 4.667
96.60000 2.654
96.62000 0.975
96.64000 2.603
96.66000 1.922
96.68000 2.391
96.70000 1.728
96.72000 2.859
96.74000 6.518
96.76000 4.046
96.78000 2.506
96.80000 -0.317
96.82000 1.994
96.84000 1.363
96.86000 4.404
96.88000 1.789
96.90000 3.346
96.92000 3.507
96.94000 2.160
96.96000 0.470
96.98000 0.408
97.00000 1.580
97.02000 -1.924
97.04000 0.900
97.06000 1.679
97.08000 3.073
97.10000 1.380
97.12000 4.467
97.14000 3.345
97.16000 3.988
97.18000 2.616
97.20000 5.753
97.22000 3.911
97.24000 -0.804
97.26000 -1.735
97.28000 1.429
97.30000 2.953
97.32000 1.659
97.34000 3.093
97.36000 6.740
97.38000 -1.248
97.40000 -1.918
97.42000 3.764
97.44000 3.493
97.46000 4.292
97.48000 2.498
97.50000 1.964
97.52000 4.422
97.54000 8.921
97.56000 5.915
97.58000 3.094
97.60000 0.105
97.62000 -1.356
97.64000 3.366
97.66000 5.216
97.68000 5.216
97.70000 2.508
97.72000 3.491
97.74000 2.599
97.76000 0.702
97.78000 2.527
97.80000 2.202
97.82000 0.861
97.84000 4.760
97.86000 5.953
97.88000 8.053
97.90000 8.985
97.92000 3.720
97.94000 4.675
97.96000 3.765
97.98000 -1.891
98.00000 0.350
98.02000 8.377
98.04000 7.580
98.06000 0.352
98.08000 -0.517
98.10000 0.798
98.12000 0.599
98.14000 1.905
98.16000 1.559
98.18000 5.092
98.20000 4.265
98.22000 2.049
98.24000 1.436
98.26000 2.121
98.28000 4.349
98.30000 2.036
98.32000 4.844
98.34000 5.779
98.36000 11.348
98.38000 2.987
98.40000 2.708
98.42000 2.429
98.44000 7.174
98.46000 9.360
98.48000 2.879
98.50000 3.274
98.52000 2.184
98.54000 5.724
98.56000 2.927
98.58000 5.391
98.60000 6.528
98.62000 1.501
98.64000 6.311
98.66000 10.221
98.68000 7.410
98.70000 5.505
98.72000 14.586
98.74000 7.846
98.76000 8.101
98.78000 4.032
98.80000 6.367
98.82000 4.150
98.84000 0.666
98.86000 2.864
98.88000 1.718
98.90000 3.488
98.92000 5.341
98.94000 4.063
98.96000 5.709
98.98000 2.618
99.00000 0.838
99.02000 5.693
99.04000 3.913
99.06000 2.860
99.08000 2.907
99.10000 12.441
99.12000 7.442
99.14000 -1.816
99.16000 0.173
99.18000 0.182
99.20000 8.196
99.22000 8.102
99.24000 7.702
99.26000 3.240
99.28000 1.951
99.30000 5.601
99.32000 6.047
99.34000 5.755
99.36000 2.538
99.38000 2.608
99.40000 7.376
99.42000 1.310
99.44000 3.794
99.46000 4.947
99.48000 6.994
99.50000 13.112
99.52000 7.495
99.54000 3.988
99.56000 3.642
99.58000 0.158
99.60000 1.591
99.62000 9.023
99.64000 10.106
99.66000 1.618
99.68000 -1.041
99.70000 3.235
99.72000 5.435
99.74000 6.556
99.76000 7.332
99.78000 7.804
99.80000 6.483
99.82000 6.139
99.84000 2.649
99.86000 1.970
99.88000 1.981
99.90000 2.744
99.92000 -1.961
99.94000 0.381
99.96000 7.505
99.98000 0.000
