'Id: "0011388" Comment: "Integrate frame 0011388_Au-Ir-Rh_Rh-rich_XRD-Mapping-243-0000.gfrmwith cursor Wedge Cursor #5" Operator: "B?rgel" Anode: "Cu" Wavelength: "1.5406" Scantype: "2Theta (TwoTheta)" TimePerStep: "1" X: "-31.5" Y: "18" Z: "5.95" 
10.00000 0.000
10.02000 -4.628
10.04000 2.020
10.06000 -4.589
10.08000 9.393
10.10000 20.329
10.12000 18.201
10.14000 16.925
10.16000 12.226
10.18000 12.783
10.20000 1.799
10.22000 7.771
10.24000 -2.211
10.26000 0.515
10.28000 0.152
10.30000 -0.851
10.32000 -4.577
10.34000 -2.855
10.36000 0.799
10.38000 28.425
10.40000 17.986
10.42000 4.867
10.44000 6.562
10.46000 5.929
10.48000 11.151
10.50000 3.061
10.52000 12.700
10.54000 15.607
10.56000 14.018
10.58000 -2.183
10.60000 9.737
10.62000 14.369
10.64000 11.514
10.66000 -2.572
10.68000 5.672
10.70000 7.431
10.72000 7.503
10.74000 0.618
10.76000 -4.198
10.78000 5.928
10.80000 14.035
10.82000 12.940
10.84000 11.930
10.86000 1.898
10.88000 15.556
10.90000 26.931
10.92000 36.517
10.94000 18.850
10.96000 -5.379
10.98000 2.996
11.00000 3.670
11.02000 10.786
11.04000 16.427
11.06000 16.707
11.08000 15.241
11.10000 16.739
11.12000 21.145
11.14000 14.414
11.16000 1.735
11.18000 3.897
11.20000 2.480
11.22000 24.038
11.24000 20.562
11.26000 17.497
11.28000 0.082
11.30000 0.196
11.32000 13.956
11.34000 11.619
11.36000 12.205
11.38000 26.978
11.40000 22.218
11.42000 17.473
11.44000 24.800
11.46000 24.056
11.48000 6.265
11.50000 2.599
11.52000 -1.663
11.54000 -3.451
11.56000 5.013
11.58000 17.018
11.60000 19.342
11.62000 17.293
11.64000 19.028
11.66000 17.256
11.68000 19.163
11.70000 31.481
11.72000 34.261
11.74000 30.468
11.76000 23.594
11.78000 4.965
11.80000 -4.444
11.82000 2.506
11.84000 6.558
11.86000 5.681
11.88000 14.696
11.90000 24.720
11.92000 27.815
11.94000 31.061
11.96000 23.335
11.98000 12.790
12.00000 7.448
12.02000 9.200
12.04000 13.367
12.06000 7.254
12.08000 10.361
12.10000 10.542
12.12000 13.610
12.14000 5.927
12.16000 3.800
12.18000 6.952
12.20000 8.262
12.22000 6.340
12.24000 -0.183
12.26000 5.588
12.28000 18.453
12.30000 17.200
12.32000 10.943
12.34000 16.862
12.36000 20.651
12.38000 12.054
12.40000 14.625
12.42000 21.054
12.44000 7.737
12.46000 10.607
12.48000 21.960
12.50000 19.567
12.52000 17.401
12.54000 21.077
12.56000 14.505
12.58000 4.187
12.60000 1.183
12.62000 7.544
12.64000 17.895
12.66000 15.130
12.68000 11.407
12.70000 14.577
12.72000 4.942
12.74000 3.837
12.76000 16.767
12.78000 10.089
12.80000 12.872
12.82000 19.974
12.84000 20.756
12.86000 9.541
12.88000 6.742
12.90000 3.000
12.92000 7.317
12.94000 14.048
12.96000 12.127
12.98000 8.808
13.00000 20.573
13.02000 14.320
13.04000 9.466
13.06000 9.822
13.08000 12.279
13.10000 2.508
13.12000 5.225
13.14000 13.274
13.16000 5.178
13.18000 7.092
13.20000 12.485
13.22000 10.710
13.24000 -1.647
13.26000 4.366
13.28000 12.216
13.30000 14.397
13.32000 2.766
13.34000 3.677
13.36000 12.677
13.38000 16.248
13.40000 16.755
13.42000 8.909
13.44000 4.770
13.46000 6.315
13.48000 0.625
13.50000 10.328
13.52000 16.692
13.54000 12.229
13.56000 6.889
13.58000 8.600
13.60000 8.779
13.62000 4.971
13.64000 13.758
13.66000 20.239
13.68000 10.294
13.70000 6.916
13.72000 13.754
13.74000 22.305
13.76000 19.680
13.78000 14.741
13.80000 11.577
13.82000 5.772
13.84000 7.910
13.86000 2.942
13.88000 5.833
13.90000 10.445
13.92000 2.459
13.94000 7.603
13.96000 4.012
13.98000 0.129
14.00000 4.641
14.02000 8.393
14.04000 -2.229
14.06000 3.321
14.08000 14.252
14.10000 5.983
14.12000 8.777
14.14000 10.642
14.16000 14.244
14.18000 4.832
14.20000 -1.031
14.22000 -4.494
14.24000 4.328
14.26000 9.200
14.28000 11.774
14.30000 -2.829
14.32000 0.839
14.34000 5.402
14.36000 12.053
14.38000 16.953
14.40000 7.555
14.42000 9.848
14.44000 16.491
14.46000 8.107
14.48000 11.169
14.50000 1.906
14.52000 -1.102
14.54000 5.177
14.56000 10.294
14.58000 8.913
14.60000 -0.173
14.62000 -1.410
14.64000 10.430
14.66000 12.510
14.68000 11.072
14.70000 2.620
14.72000 9.149
14.74000 2.796
14.76000 0.217
14.78000 9.739
14.80000 18.855
14.82000 14.786
14.84000 7.915
14.86000 -0.023
14.88000 3.232
14.90000 9.204
14.92000 8.518
14.94000 5.230
14.96000 9.021
14.98000 4.213
15.00000 4.495
15.02000 6.656
15.04000 0.413
15.06000 1.544
15.08000 1.545
15.10000 4.881
15.12000 4.125
15.14000 6.331
15.16000 -0.846
15.18000 0.045
15.20000 4.918
15.22000 7.522
15.24000 -3.792
15.26000 0.190
15.28000 7.642
15.30000 4.825
15.32000 7.560
15.34000 5.342
15.36000 6.861
15.38000 5.332
15.40000 2.291
15.42000 -0.772
15.44000 -1.346
15.46000 4.674
15.48000 7.698
15.50000 2.201
15.52000 -0.544
15.54000 -0.519
15.56000 -4.453
15.58000 4.671
15.60000 12.403
15.62000 9.042
15.64000 1.337
15.66000 4.668
15.68000 7.015
15.70000 11.451
15.72000 10.435
15.74000 12.658
15.76000 14.326
15.78000 9.901
15.80000 3.420
15.82000 9.078
15.84000 9.622
15.86000 12.137
15.88000 15.960
15.90000 15.734
15.92000 1.506
15.94000 3.810
15.96000 8.546
15.98000 5.473
16.00000 7.299
16.02000 5.193
16.04000 -4.427
16.06000 0.259
16.08000 6.690
16.10000 8.224
16.12000 9.111
16.14000 5.153
16.16000 1.025
16.18000 4.870
16.20000 8.109
16.22000 3.064
16.24000 4.329
16.26000 7.168
16.28000 1.465
16.30000 2.867
16.32000 10.522
16.34000 11.079
16.36000 3.567
16.38000 2.045
16.40000 4.241
16.42000 5.743
16.44000 4.760
16.46000 4.225
16.48000 6.817
16.50000 0.172
16.52000 1.655
16.54000 -0.698
16.56000 -1.228
16.58000 6.859
16.60000 4.524
16.62000 1.563
16.64000 -1.106
16.66000 4.039
16.68000 -4.066
16.70000 -0.732
16.72000 -2.980
16.74000 3.712
16.76000 6.350
16.78000 12.002
16.80000 12.083
16.82000 8.071
16.84000 4.196
16.86000 -2.014
16.88000 5.710
16.90000 11.641
16.92000 19.660
16.94000 13.684
16.96000 9.091
16.98000 6.061
17.00000 8.292
17.02000 12.123
17.04000 10.638
17.06000 9.416
17.08000 12.602
17.10000 16.858
17.12000 3.987
17.14000 -2.367
17.16000 -1.279
17.18000 3.799
17.20000 4.273
17.22000 9.730
17.24000 8.363
17.26000 10.251
17.28000 7.025
17.30000 5.861
17.32000 5.890
17.34000 10.294
17.36000 2.608
17.38000 3.237
17.40000 2.478
17.42000 7.950
17.44000 5.863
17.46000 2.621
17.48000 5.027
17.50000 -2.221
17.52000 -3.074
17.54000 2.323
17.56000 4.369
17.58000 1.737
17.60000 5.313
17.62000 5.099
17.64000 9.147
17.66000 7.874
17.68000 6.647
17.70000 7.286
17.72000 5.424
17.74000 2.340
17.76000 3.120
17.78000 7.048
17.80000 6.393
17.82000 1.946
17.84000 -2.544
17.86000 5.832
17.88000 0.896
17.90000 -4.347
17.92000 3.724
17.94000 12.660
17.96000 10.144
17.98000 13.496
18.00000 13.813
18.02000 15.948
18.04000 10.704
18.06000 2.308
18.08000 6.194
18.10000 6.565
18.12000 7.454
18.14000 9.862
18.16000 9.783
18.18000 11.392
18.20000 11.161
18.22000 6.705
18.24000 8.396
18.26000 15.603
18.28000 9.601
18.30000 -0.309
18.32000 5.026
18.34000 3.535
18.36000 2.578
18.38000 1.388
18.40000 -0.610
18.42000 5.676
18.44000 8.017
18.46000 7.413
18.48000 2.907
18.50000 5.841
18.52000 14.731
18.54000 5.444
18.56000 8.586
18.58000 3.766
18.60000 1.133
18.62000 6.821
18.64000 6.339
18.66000 3.143
18.68000 -3.877
18.70000 -1.909
18.72000 2.298
18.74000 6.481
18.76000 0.683
18.78000 2.367
18.80000 0.450
18.82000 3.705
18.84000 6.123
18.86000 11.522
18.88000 9.963
18.90000 3.916
18.92000 2.566
18.94000 0.893
18.96000 9.553
18.98000 5.659
19.00000 5.306
19.02000 1.284
19.04000 6.396
19.06000 9.681
19.08000 9.859
19.10000 6.915
19.12000 -0.160
19.14000 -4.283
19.16000 3.455
19.18000 0.796
19.20000 4.122
19.22000 6.216
19.24000 9.362
19.26000 9.710
19.28000 6.599
19.30000 8.985
19.32000 5.090
19.34000 5.627
19.36000 11.731
19.38000 8.397
19.40000 6.504
19.42000 2.226
19.44000 10.164
19.46000 10.578
19.48000 4.557
19.50000 5.344
19.52000 5.203
19.54000 3.339
19.56000 0.945
19.58000 1.093
19.60000 -0.561
19.62000 3.829
19.64000 9.391
19.66000 7.813
19.68000 10.600
19.70000 3.935
19.72000 6.845
19.74000 5.145
19.76000 5.941
19.78000 10.265
19.80000 8.519
19.82000 5.658
19.84000 2.071
19.86000 2.029
19.88000 6.450
19.90000 3.086
19.92000 2.271
19.94000 6.833
19.96000 9.513
19.98000 9.171
20.00000 3.483
20.02000 7.011
20.04000 0.144
20.06000 -1.722
20.08000 -3.204
20.10000 -3.534
20.12000 1.808
20.14000 0.833
20.16000 -3.138
20.18000 3.577
20.20000 4.602
20.22000 6.373
20.24000 4.690
20.26000 -0.327
20.28000 -0.177
20.30000 -3.297
20.32000 0.611
20.34000 1.305
20.36000 -1.762
20.38000 -2.842
20.40000 -3.948
20.42000 -0.301
20.44000 4.893
20.46000 3.264
20.48000 3.050
20.50000 -1.075
20.52000 0.959
20.54000 -0.722
20.56000 1.795
20.58000 3.003
20.60000 -2.019
20.62000 -3.456
20.64000 -1.207
20.66000 0.218
20.68000 1.994
20.70000 0.122
20.72000 -0.806
20.74000 -4.203
20.76000 2.361
20.78000 3.208
20.80000 3.979
20.82000 1.798
20.84000 1.076
20.86000 7.053
20.88000 7.447
20.90000 7.331
20.92000 4.618
20.94000 5.336
20.96000 10.570
20.98000 8.477
21.00000 5.189
21.02000 4.008
21.04000 9.264
21.06000 4.473
21.08000 -2.346
21.10000 -2.534
21.12000 0.484
21.14000 -0.163
21.16000 -1.400
21.18000 -1.949
21.20000 1.021
21.22000 5.102
21.24000 0.160
21.26000 3.699
21.28000 5.190
21.30000 7.291
21.32000 7.482
21.34000 6.056
21.36000 9.255
21.38000 4.925
21.40000 0.575
21.42000 2.136
21.44000 1.725
21.46000 7.583
21.48000 11.171
21.50000 2.947
21.52000 -0.050
21.54000 2.102
21.56000 1.893
21.58000 3.017
21.60000 2.845
21.62000 0.082
21.64000 -0.538
21.66000 3.162
21.68000 -0.959
21.70000 4.327
21.72000 5.786
21.74000 0.307
21.76000 -1.187
21.78000 -3.362
21.80000 -3.605
21.82000 1.830
21.84000 6.030
21.86000 13.040
21.88000 9.412
21.90000 -0.503
21.92000 -0.105
21.94000 1.972
21.96000 3.091
21.98000 4.024
22.00000 -4.133
22.02000 -2.192
22.04000 1.636
22.06000 -3.056
22.08000 2.553
22.10000 1.593
22.12000 5.233
22.14000 4.066
22.16000 5.576
22.18000 4.471
22.20000 8.238
22.22000 3.196
22.24000 1.134
22.26000 2.143
22.28000 1.485
22.30000 -0.584
22.32000 2.455
22.34000 3.253
22.36000 0.139
22.38000 3.125
22.40000 0.082
22.42000 2.794
22.44000 3.026
22.46000 1.877
22.48000 1.076
22.50000 5.360
22.52000 4.366
22.54000 5.067
22.56000 4.693
22.58000 5.382
22.60000 7.510
22.62000 6.582
22.64000 1.516
22.66000 -3.890
22.68000 -1.435
22.70000 -2.471
22.72000 -0.427
22.74000 4.934
22.76000 9.079
22.78000 1.408
22.80000 -1.500
22.82000 -1.690
22.84000 -1.375
22.86000 1.231
22.88000 5.202
22.90000 7.303
22.92000 11.684
22.94000 12.256
22.96000 11.228
22.98000 -0.259
23.00000 -2.104
23.02000 1.616
23.04000 4.203
23.06000 1.560
23.08000 1.709
23.10000 0.734
23.12000 -3.809
23.14000 -0.068
23.16000 9.244
23.18000 5.583
23.20000 -0.059
23.22000 -0.067
23.24000 3.991
23.26000 4.152
23.28000 2.847
23.30000 -0.081
23.32000 -2.482
23.34000 1.749
23.36000 5.051
23.38000 1.163
23.40000 -1.344
23.42000 -4.062
23.44000 4.032
23.46000 3.969
23.48000 2.841
23.50000 -0.735
23.52000 6.373
23.54000 -1.408
23.56000 -0.944
23.58000 1.911
23.60000 5.303
23.62000 1.613
23.64000 3.695
23.66000 3.793
23.68000 6.028
23.70000 8.935
23.72000 8.969
23.74000 3.433
23.76000 4.142
23.78000 4.041
23.80000 3.852
23.82000 5.413
23.84000 4.675
23.86000 5.604
23.88000 7.520
23.90000 11.725
23.92000 2.597
23.94000 2.861
23.96000 6.348
23.98000 6.964
24.00000 4.980
24.02000 3.107
24.04000 3.085
24.06000 -2.903
24.08000 -3.999
24.10000 1.833
24.12000 3.046
24.14000 -1.413
24.16000 0.604
24.18000 -0.104
24.20000 1.653
24.22000 6.662
24.24000 0.189
24.26000 -1.493
24.28000 2.477
24.30000 5.394
24.32000 5.523
24.34000 3.743
24.36000 3.109
24.38000 4.599
24.40000 7.772
24.42000 6.229
24.44000 4.371
24.46000 4.170
24.48000 2.311
24.50000 3.749
24.52000 4.449
24.54000 -1.853
24.56000 -3.974
24.58000 -1.238
24.60000 8.871
24.62000 1.876
24.64000 0.948
24.66000 1.835
24.68000 0.222
24.70000 2.075
24.72000 5.189
24.74000 8.108
24.76000 11.181
24.78000 2.228
24.80000 1.774
24.82000 2.800
24.84000 0.277
24.86000 1.167
24.88000 4.273
24.90000 9.227
24.92000 1.344
24.94000 1.445
24.96000 4.935
24.98000 3.525
25.00000 7.102
25.02000 2.581
25.04000 1.049
25.06000 1.134
25.08000 2.884
25.10000 8.178
25.12000 5.130
25.14000 1.382
25.16000 0.650
25.18000 3.843
25.20000 2.489
25.22000 0.407
25.24000 4.235
25.26000 2.616
25.28000 2.196
25.30000 6.635
25.32000 4.597
25.34000 1.758
25.36000 1.135
25.38000 2.263
25.40000 0.678
25.42000 2.291
25.44000 1.095
25.46000 -1.772
25.48000 3.642
25.50000 6.088
25.52000 10.058
25.54000 7.335
25.56000 2.924
25.58000 1.695
25.60000 1.148
25.62000 -0.908
25.64000 -1.421
25.66000 3.296
25.68000 -0.545
25.70000 -3.718
25.72000 2.151
25.74000 -3.173
25.76000 0.048
25.78000 3.606
25.80000 -3.952
25.82000 -0.461
25.84000 1.824
25.86000 -1.575
25.88000 -0.937
25.90000 7.114
25.92000 6.040
25.94000 -3.554
25.96000 -2.778
25.98000 -3.494
26.00000 -2.388
26.02000 2.809
26.04000 -0.422
26.06000 0.484
26.08000 7.899
26.10000 3.992
26.12000 -1.962
26.14000 3.917
26.16000 2.031
26.18000 2.321
26.20000 -1.036
26.22000 2.961
26.24000 5.277
26.26000 5.094
26.28000 3.424
26.30000 3.811
26.32000 6.943
26.34000 6.885
26.36000 4.543
26.38000 7.755
26.40000 6.602
26.42000 3.607
26.44000 0.498
26.46000 0.225
26.48000 5.743
26.50000 3.149
26.52000 2.972
26.54000 -1.153
26.56000 2.259
26.58000 1.661
26.60000 3.611
26.62000 3.140
26.64000 0.811
26.66000 -0.174
26.68000 -3.896
26.70000 -2.491
26.72000 -2.005
26.74000 -1.595
26.76000 1.006
26.78000 2.243
26.80000 -3.135
26.82000 -0.175
26.84000 -0.809
26.86000 5.152
26.88000 6.145
26.90000 1.753
26.92000 -0.805
26.94000 0.168
26.96000 2.070
26.98000 10.772
27.00000 8.033
27.02000 4.291
27.04000 6.775
27.06000 4.764
27.08000 -0.926
27.10000 0.788
27.12000 7.541
27.14000 5.486
27.16000 6.106
27.18000 3.172
27.20000 8.765
27.22000 4.652
27.24000 6.076
27.26000 -3.852
27.28000 -3.333
27.30000 3.389
27.32000 4.387
27.34000 4.576
27.36000 4.717
27.38000 6.328
27.40000 9.267
27.42000 12.421
27.44000 5.955
27.46000 5.536
27.48000 5.392
27.50000 5.744
27.52000 10.744
27.54000 4.964
27.56000 2.921
27.58000 1.146
27.60000 5.763
27.62000 3.184
27.64000 -1.087
27.66000 4.166
27.68000 7.283
27.70000 1.480
27.72000 5.892
27.74000 4.627
27.76000 -0.634
27.78000 -0.171
27.80000 0.132
27.82000 0.028
27.84000 -0.187
27.86000 3.049
27.88000 2.293
27.90000 3.544
27.92000 4.496
27.94000 5.368
27.96000 4.083
27.98000 4.345
28.00000 5.003
28.02000 8.001
28.04000 6.177
28.06000 12.112
28.08000 7.781
28.10000 3.975
28.12000 5.192
28.14000 9.046
28.16000 7.372
28.18000 -0.613
28.20000 -2.517
28.22000 1.396
28.24000 2.088
28.26000 6.057
28.28000 7.662
28.30000 0.040
28.32000 -3.619
28.34000 -2.805
28.36000 3.278
28.38000 8.106
28.40000 7.235
28.42000 10.360
28.44000 5.797
28.46000 3.142
28.48000 1.785
28.50000 -1.468
28.52000 -0.225
28.54000 4.453
28.56000 8.903
28.58000 8.333
28.60000 6.742
28.62000 8.663
28.64000 4.399
28.66000 1.918
28.68000 -3.760
28.70000 0.161
28.72000 4.983
28.74000 3.392
28.76000 -0.276
28.78000 1.291
28.80000 -3.111
28.82000 2.189
28.84000 3.248
28.86000 -3.508
28.88000 4.355
28.90000 6.373
28.92000 1.823
28.94000 1.348
28.96000 -0.470
28.98000 5.024
29.00000 7.832
29.02000 6.168
29.04000 5.863
29.06000 5.752
29.08000 3.015
29.10000 0.394
29.12000 0.469
29.14000 1.456
29.16000 0.719
29.18000 4.160
29.20000 2.361
29.22000 2.850
29.24000 5.988
29.26000 7.404
29.28000 4.380
29.30000 4.871
29.32000 3.684
29.34000 1.820
29.36000 1.632
29.38000 1.831
29.40000 0.178
29.42000 -0.992
29.44000 -0.710
29.46000 -0.335
29.48000 -0.673
29.50000 0.938
29.52000 -0.367
29.54000 -1.885
29.56000 1.649
29.58000 4.344
29.60000 3.456
29.62000 2.609
29.64000 2.009
29.66000 0.638
29.68000 -0.693
29.70000 -0.556
29.72000 2.369
29.74000 3.368
29.76000 7.569
29.78000 4.489
29.80000 -0.179
29.82000 2.644
29.84000 -0.080
29.86000 1.542
29.88000 4.192
29.90000 2.288
29.92000 -3.731
29.94000 -2.109
29.96000 1.567
29.98000 2.599
30.00000 -2.646
30.02000 -3.251
30.04000 4.090
30.06000 3.376
30.08000 -0.439
30.10000 0.328
30.12000 0.085
30.14000 -2.734
30.16000 -3.717
30.18000 2.003
30.20000 3.023
30.22000 3.268
30.24000 0.938
30.26000 0.731
30.28000 1.182
30.30000 -3.179
30.32000 0.964
30.34000 1.683
30.36000 2.854
30.38000 0.960
30.40000 1.511
30.42000 -2.159
30.44000 1.640
30.46000 6.952
30.48000 3.313
30.50000 2.207
30.52000 -1.509
30.54000 -2.898
30.56000 -3.461
30.58000 0.048
30.60000 2.993
30.62000 0.383
30.64000 3.493
30.66000 7.237
30.68000 6.549
30.70000 4.653
30.72000 6.603
30.74000 2.934
30.76000 0.086
30.78000 1.184
30.80000 2.566
30.82000 0.159
30.84000 2.969
30.86000 3.759
30.88000 3.097
30.90000 8.238
30.92000 4.342
30.94000 3.552
30.96000 3.126
30.98000 0.958
31.00000 -2.473
31.02000 3.744
31.04000 8.149
31.06000 2.007
31.08000 -2.164
31.10000 -2.344
31.12000 3.141
31.14000 3.718
31.16000 -0.782
31.18000 -1.619
31.20000 -2.157
31.22000 2.395
31.24000 9.956
31.26000 9.218
31.28000 6.337
31.30000 0.285
31.32000 3.140
31.34000 2.390
31.36000 2.363
31.38000 -0.530
31.40000 -3.641
31.42000 3.494
31.44000 6.691
31.46000 6.064
31.48000 4.968
31.50000 5.721
31.52000 8.712
31.54000 6.984
31.56000 5.710
31.58000 3.745
31.60000 4.994
31.62000 3.262
31.64000 -0.971
31.66000 3.132
31.68000 2.808
31.70000 1.508
31.72000 4.164
31.74000 8.869
31.76000 9.586
31.78000 3.821
31.80000 1.416
31.82000 0.552
31.84000 2.885
31.86000 3.522
31.88000 5.220
31.90000 2.984
31.92000 1.312
31.94000 -0.059
31.96000 3.547
31.98000 4.595
32.00000 8.505
32.02000 8.154
32.04000 0.791
32.06000 -0.709
32.08000 4.715
32.10000 8.485
32.12000 11.084
32.14000 10.197
32.16000 4.450
32.18000 2.583
32.20000 -2.182
32.22000 5.845
32.24000 3.800
32.26000 0.695
32.28000 3.049
32.30000 2.452
32.32000 3.249
32.34000 4.748
32.36000 4.204
32.38000 -3.597
32.40000 -1.987
32.42000 2.954
32.44000 2.223
32.46000 6.044
32.48000 7.055
32.50000 6.542
32.52000 0.800
32.54000 0.694
32.56000 2.496
32.58000 7.989
32.60000 7.069
32.62000 3.870
32.64000 6.404
32.66000 7.306
32.68000 7.361
32.70000 2.404
32.72000 2.782
32.74000 5.736
32.76000 2.694
32.78000 1.441
32.80000 1.872
32.82000 0.465
32.84000 1.535
32.86000 5.291
32.88000 3.549
32.90000 6.376
32.92000 3.462
32.94000 0.974
32.96000 4.215
32.98000 2.930
33.00000 1.620
33.02000 -1.420
33.04000 1.828
33.06000 5.098
33.08000 5.168
33.10000 -0.568
33.12000 -3.383
33.14000 0.969
33.16000 -0.424
33.18000 -1.983
33.20000 0.466
33.22000 -3.360
33.24000 -0.725
33.26000 -3.607
33.28000 -2.173
33.30000 -1.366
33.32000 -2.106
33.34000 -1.423
33.36000 1.820
33.38000 2.875
33.40000 2.336
33.42000 2.195
33.44000 1.841
33.46000 5.747
33.48000 4.058
33.50000 2.305
33.52000 1.020
33.54000 2.403
33.56000 2.031
33.58000 1.687
33.60000 4.864
33.62000 2.966
33.64000 3.476
33.66000 3.962
33.68000 2.178
33.70000 3.209
33.72000 3.931
33.74000 0.297
33.76000 3.084
33.78000 3.625
33.80000 4.403
33.82000 6.665
33.84000 4.551
33.86000 1.891
33.88000 2.805
33.90000 3.115
33.92000 3.238
33.94000 1.568
33.96000 2.330
33.98000 6.168
34.00000 6.979
34.02000 6.844
34.04000 5.775
34.06000 5.160
34.08000 6.548
34.10000 5.736
34.12000 0.661
34.14000 3.962
34.16000 4.354
34.18000 5.705
34.20000 5.977
34.22000 5.284
34.24000 -0.301
34.26000 1.056
34.28000 1.135
34.30000 -3.575
34.32000 -2.541
34.34000 0.480
34.36000 2.643
34.38000 -1.987
34.40000 0.810
34.42000 4.366
34.44000 3.814
34.46000 8.264
34.48000 0.330
34.50000 -2.942
34.52000 2.861
34.54000 3.711
34.56000 4.843
34.58000 1.255
34.60000 2.730
34.62000 -1.296
34.64000 0.362
34.66000 -2.017
34.68000 1.850
34.70000 4.844
34.72000 0.054
34.74000 -3.561
34.76000 2.288
34.78000 4.478
34.80000 1.667
34.82000 0.677
34.84000 2.444
34.86000 1.023
34.88000 2.392
34.90000 -0.292
34.92000 -0.281
34.94000 4.232
34.96000 5.752
34.98000 -0.720
35.00000 6.491
35.02000 9.290
35.04000 3.677
35.06000 0.052
35.08000 -2.850
35.10000 1.041
35.12000 1.288
35.14000 1.252
35.16000 1.920
35.18000 0.915
35.20000 -0.803
35.22000 2.336
35.24000 2.403
35.26000 -1.288
35.28000 4.354
35.30000 3.338
35.32000 3.034
35.34000 -0.851
35.36000 0.742
35.38000 -0.331
35.40000 2.308
35.42000 3.157
35.44000 2.282
35.46000 2.542
35.48000 3.461
35.50000 2.426
35.52000 4.040
35.54000 5.515
35.56000 5.978
35.58000 1.144
35.60000 -1.601
35.62000 2.394
35.64000 -0.178
35.66000 0.141
35.68000 -0.513
35.70000 -1.324
35.72000 1.204
35.74000 3.594
35.76000 -0.072
35.78000 -0.504
35.80000 1.572
35.82000 5.228
35.84000 2.854
35.86000 -1.616
35.88000 3.998
35.90000 4.183
35.92000 2.860
35.94000 6.254
35.96000 3.966
35.98000 2.891
36.00000 0.751
36.02000 -2.280
36.04000 -2.891
36.06000 -3.588
36.08000 -0.376
36.10000 2.125
36.12000 2.769
36.14000 1.469
36.16000 -2.042
36.18000 1.150
36.20000 1.525
36.22000 1.971
36.24000 3.402
36.26000 1.607
36.28000 -1.721
36.30000 -0.601
36.32000 -0.433
36.34000 3.465
36.36000 1.722
36.38000 -1.453
36.40000 -2.409
36.42000 -3.604
36.44000 -0.742
36.46000 0.061
36.48000 0.162
36.50000 0.610
36.52000 0.842
36.54000 6.025
36.56000 8.680
36.58000 1.650
36.60000 -0.932
36.62000 -1.161
36.64000 0.718
36.66000 1.501
36.68000 0.753
36.70000 2.742
36.72000 0.776
36.74000 -0.919
36.76000 4.661
36.78000 2.771
36.80000 -0.917
36.82000 -3.248
36.84000 4.621
36.86000 4.115
36.88000 2.517
36.90000 0.776
36.92000 -2.993
36.94000 -3.655
36.96000 0.800
36.98000 -1.231
37.00000 0.079
37.02000 6.254
37.04000 1.979
37.06000 2.002
37.08000 3.458
37.10000 7.079
37.12000 -0.243
37.14000 -1.349
37.16000 -0.257
37.18000 5.496
37.20000 2.604
37.22000 -1.069
37.24000 -3.680
37.26000 3.028
37.28000 6.647
37.30000 3.628
37.32000 -0.050
37.34000 5.890
37.36000 3.775
37.38000 3.098
37.40000 7.367
37.42000 5.762
37.44000 5.497
37.46000 5.560
37.48000 4.618
37.50000 7.646
37.52000 5.374
37.54000 5.088
37.56000 1.459
37.58000 4.167
37.60000 5.332
37.62000 5.308
37.64000 7.596
37.66000 10.060
37.68000 6.793
37.70000 8.710
37.72000 8.178
37.74000 1.916
37.76000 0.917
37.78000 6.405
37.80000 9.998
37.82000 13.218
37.84000 7.505
37.86000 13.219
37.88000 13.943
37.90000 10.622
37.92000 10.461
37.94000 14.651
37.96000 12.618
37.98000 17.064
38.00000 16.930
38.02000 16.748
38.04000 15.925
38.06000 11.034
38.08000 11.839
38.10000 16.322
38.12000 16.287
38.14000 19.266
38.16000 23.202
38.18000 21.294
38.20000 21.683
38.22000 18.291
38.24000 22.163
38.26000 23.175
38.28000 23.308
38.30000 24.930
38.32000 27.788
38.34000 33.936
38.36000 39.500
38.38000 35.866
38.40000 35.212
38.42000 36.159
38.44000 34.194
38.46000 27.461
38.48000 29.711
38.50000 37.819
38.52000 32.793
38.54000 32.035
38.56000 40.549
38.58000 42.182
38.60000 46.149
38.62000 50.615
38.64000 47.915
38.66000 47.726
38.68000 52.677
38.70000 50.614
38.72000 56.959
38.74000 57.479
38.76000 60.827
38.78000 61.799
38.80000 57.572
38.82000 61.981
38.84000 70.650
38.86000 71.331
38.88000 71.424
38.90000 71.897
38.92000 73.072
38.94000 79.555
38.96000 72.795
38.98000 82.798
39.00000 89.114
39.02000 104.393
39.04000 98.646
39.06000 98.371
39.08000 107.079
39.10000 112.489
39.12000 119.599
39.14000 124.078
39.16000 129.467
39.18000 134.603
39.20000 141.732
39.22000 144.436
39.24000 156.487
39.26000 165.379
39.28000 168.428
39.30000 182.189
39.32000 180.373
39.34000 184.507
39.36000 195.015
39.38000 198.697
39.40000 214.140
39.42000 233.692
39.44000 241.265
39.46000 247.632
39.48000 260.493
39.50000 274.728
39.52000 291.813
39.54000 311.549
39.56000 331.102
39.58000 345.107
39.60000 356.604
39.62000 365.013
39.64000 374.371
39.66000 396.321
39.68000 415.250
39.70000 433.950
39.72000 460.811
39.74000 476.706
39.76000 485.414
39.78000 501.921
39.80000 530.686
39.82000 550.528
39.84000 563.895
39.86000 576.804
39.88000 584.868
39.90000 609.831
39.92000 633.373
39.94000 651.060
39.96000 662.809
39.98000 668.548
40.00000 666.685
40.02000 685.666
40.04000 694.813
40.06000 692.454
40.08000 708.743
40.10000 718.222
40.12000 715.859
40.14000 711.384
40.16000 696.423
40.18000 682.078
40.20000 676.484
40.22000 676.499
40.24000 674.189
40.26000 657.508
40.28000 635.553
40.30000 624.103
40.32000 612.345
40.34000 592.177
40.36000 561.016
40.38000 543.665
40.40000 531.809
40.42000 511.916
40.44000 498.675
40.46000 482.905
40.48000 449.838
40.50000 427.471
40.52000 403.072
40.54000 380.994
40.56000 366.324
40.58000 351.075
40.60000 334.436
40.62000 320.771
40.64000 298.029
40.66000 284.551
40.68000 273.936
40.70000 252.273
40.72000 236.875
40.74000 226.084
40.76000 208.034
40.78000 199.078
40.80000 194.862
40.82000 181.058
40.84000 173.164
40.86000 164.015
40.88000 155.165
40.90000 141.474
40.92000 134.524
40.94000 129.927
40.96000 114.565
40.98000 110.364
41.00000 107.135
41.02000 99.194
41.04000 95.674
41.06000 88.296
41.08000 82.294
41.10000 80.740
41.12000 75.962
41.14000 75.070
41.16000 67.664
41.18000 60.478
41.20000 58.370
41.22000 48.309
41.24000 47.891
41.26000 47.651
41.28000 52.818
41.30000 48.432
41.32000 43.781
41.34000 41.719
41.36000 34.165
41.38000 34.344
41.40000 34.432
41.42000 32.558
41.44000 31.859
41.46000 29.149
41.48000 31.864
41.50000 29.630
41.52000 29.847
41.54000 25.262
41.56000 23.795
41.58000 21.560
41.60000 21.318
41.62000 19.606
41.64000 21.346
41.66000 21.386
41.68000 23.941
41.70000 19.644
41.72000 18.962
41.74000 15.068
41.76000 17.664
41.78000 12.049
41.80000 12.753
41.82000 11.774
41.84000 11.151
41.86000 8.180
41.88000 8.367
41.90000 7.672
41.92000 8.195
41.94000 10.745
41.96000 8.309
41.98000 10.973
42.00000 10.253
42.02000 10.506
42.04000 8.862
42.06000 5.880
42.08000 3.720
42.10000 5.319
42.12000 7.292
42.14000 7.604
42.16000 7.376
42.18000 5.013
42.20000 4.225
42.22000 2.725
42.24000 4.103
42.26000 10.073
42.28000 7.027
42.30000 4.684
42.32000 7.132
42.34000 5.813
42.36000 1.953
42.38000 4.944
42.40000 4.625
42.42000 5.525
42.44000 7.413
42.46000 3.401
42.48000 3.724
42.50000 9.959
42.52000 0.242
42.54000 2.001
42.56000 2.540
42.58000 4.185
42.60000 1.849
42.62000 0.605
42.64000 1.242
42.66000 8.200
42.68000 7.986
42.70000 2.882
42.72000 3.404
42.74000 -2.327
42.76000 2.412
42.78000 3.012
42.80000 -1.538
42.82000 -3.549
42.84000 2.020
42.86000 3.433
42.88000 5.422
42.90000 4.270
42.92000 0.775
42.94000 1.529
42.96000 4.839
42.98000 -0.607
43.00000 0.452
43.02000 2.469
43.04000 2.852
43.06000 3.763
43.08000 2.489
43.10000 5.029
43.12000 2.708
43.14000 3.149
43.16000 4.170
43.18000 4.880
43.20000 6.800
43.22000 6.807
43.24000 4.638
43.26000 3.950
43.28000 5.640
43.30000 3.700
43.32000 3.163
43.34000 8.062
43.36000 8.410
43.38000 2.768
43.40000 4.363
43.42000 4.468
43.44000 1.947
43.46000 4.197
43.48000 3.502
43.50000 5.927
43.52000 4.240
43.54000 8.211
43.56000 -0.805
43.58000 -3.485
43.60000 2.208
43.62000 6.268
43.64000 7.880
43.66000 5.708
43.68000 8.751
43.70000 13.124
43.72000 9.741
43.74000 1.056
43.76000 -3.467
43.78000 1.918
43.80000 1.260
43.82000 4.667
43.84000 4.602
43.86000 5.578
43.88000 6.233
43.90000 5.876
43.92000 7.917
43.94000 6.712
43.96000 6.387
43.98000 5.292
44.00000 6.404
44.02000 4.906
44.04000 4.144
44.06000 7.231
44.08000 3.908
44.10000 -3.263
44.12000 -2.482
44.14000 2.779
44.16000 3.073
44.18000 3.597
44.20000 1.112
44.22000 4.288
44.24000 6.370
44.26000 8.694
44.28000 4.304
44.30000 3.621
44.32000 4.353
44.34000 -1.218
44.36000 3.053
44.38000 5.008
44.40000 1.726
44.42000 0.301
44.44000 1.850
44.46000 7.064
44.48000 5.554
44.50000 6.047
44.52000 1.094
44.54000 2.251
44.56000 3.164
44.58000 2.131
44.60000 8.180
44.62000 3.316
44.64000 0.039
44.66000 4.658
44.68000 6.914
44.70000 2.601
44.72000 6.865
44.74000 10.199
44.76000 4.025
44.78000 4.860
44.80000 7.303
44.82000 4.881
44.84000 6.398
44.86000 4.640
44.88000 4.037
44.90000 5.580
44.92000 6.473
44.94000 7.167
44.96000 6.839
44.98000 3.401
45.00000 4.688
45.02000 5.811
45.04000 14.717
45.06000 14.801
45.08000 14.161
45.10000 13.007
45.12000 15.208
45.14000 9.793
45.16000 11.300
45.18000 17.249
45.20000 20.203
45.22000 12.023
45.24000 9.923
45.26000 7.092
45.28000 10.625
45.30000 14.703
45.32000 13.298
45.34000 14.414
45.36000 14.589
45.38000 17.810
45.40000 22.337
45.42000 22.979
45.44000 18.461
45.46000 15.319
45.48000 18.348
45.50000 19.957
45.52000 24.503
45.54000 24.030
45.56000 23.148
45.58000 24.978
45.60000 24.721
45.62000 24.427
45.64000 25.242
45.66000 27.698
45.68000 30.214
45.70000 28.176
45.72000 33.500
45.74000 28.067
45.76000 30.219
45.78000 34.798
45.80000 35.816
45.82000 36.943
45.84000 43.092
45.86000 46.462
45.88000 41.272
45.90000 38.446
45.92000 36.783
45.94000 43.812
45.96000 43.125
45.98000 42.465
46.00000 49.512
46.02000 54.175
46.04000 56.156
46.06000 50.867
46.08000 52.430
46.10000 53.594
46.12000 56.123
46.14000 52.476
46.16000 59.116
46.18000 57.189
46.20000 66.500
46.22000 70.676
46.24000 66.210
46.26000 66.155
46.28000 68.561
46.30000 63.265
46.32000 67.217
46.34000 68.481
46.36000 70.604
46.38000 68.022
46.40000 68.648
46.42000 77.244
46.44000 69.794
46.46000 75.120
46.48000 79.048
46.50000 81.665
46.52000 81.949
46.54000 84.722
46.56000 81.473
46.58000 80.467
46.60000 80.968
46.62000 86.595
46.64000 82.486
46.66000 78.329
46.68000 77.991
46.70000 83.162
46.72000 80.829
46.74000 78.809
46.76000 74.092
46.78000 74.245
46.80000 83.091
46.82000 75.471
46.84000 74.498
46.86000 78.528
46.88000 76.693
46.90000 67.603
46.92000 71.336
46.94000 71.052
46.96000 80.078
46.98000 75.175
47.00000 71.847
47.02000 67.164
47.04000 70.488
47.06000 68.834
47.08000 59.044
47.10000 55.405
47.12000 60.639
47.14000 64.246
47.16000 65.353
47.18000 61.713
47.20000 55.895
47.22000 56.138
47.24000 60.053
47.26000 51.408
47.28000 55.054
47.30000 55.096
47.32000 49.794
47.34000 45.852
47.36000 38.801
47.38000 35.279
47.40000 37.728
47.42000 40.486
47.44000 38.265
47.46000 39.862
47.48000 36.517
47.50000 31.270
47.52000 29.649
47.54000 29.652
47.56000 28.137
47.58000 30.234
47.60000 26.685
47.62000 19.121
47.64000 19.215
47.66000 18.730
47.68000 20.508
47.70000 15.849
47.72000 13.971
47.74000 11.916
47.76000 14.320
47.78000 20.608
47.80000 18.497
47.82000 11.850
47.84000 13.584
47.86000 10.716
47.88000 10.315
47.90000 6.760
47.92000 6.485
47.94000 8.712
47.96000 10.283
47.98000 4.359
48.00000 3.184
48.02000 8.175
48.04000 5.641
48.06000 5.082
48.08000 3.572
48.10000 3.733
48.12000 2.864
48.14000 0.736
48.16000 0.372
48.18000 5.806
48.20000 5.101
48.22000 -2.077
48.24000 3.622
48.26000 2.157
48.28000 0.705
48.30000 1.542
48.32000 4.992
48.34000 1.918
48.36000 3.415
48.38000 3.379
48.40000 3.167
48.42000 3.348
48.44000 0.404
48.46000 0.028
48.48000 -0.451
48.50000 2.483
48.52000 -1.571
48.54000 -2.955
48.56000 -1.395
48.58000 0.090
48.60000 0.676
48.62000 0.467
48.64000 -0.685
48.66000 -1.437
48.68000 -2.165
48.70000 -1.689
48.72000 3.111
48.74000 3.751
48.76000 4.089
48.78000 4.144
48.80000 1.742
48.82000 -3.204
48.84000 3.352
48.86000 0.848
48.88000 0.394
48.90000 -1.408
48.92000 1.641
48.94000 1.881
48.96000 3.319
48.98000 1.269
49.00000 0.735
49.02000 -0.545
49.04000 2.361
49.06000 2.305
49.08000 -2.328
49.10000 -3.167
49.12000 -1.227
49.14000 -0.111
49.16000 -0.212
49.18000 -1.235
49.20000 0.467
49.22000 5.257
49.24000 6.701
49.26000 5.893
49.28000 0.931
49.30000 -2.873
49.32000 0.323
49.34000 0.879
49.36000 3.777
49.38000 2.623
49.40000 6.051
49.42000 6.041
49.44000 3.528
49.46000 0.869
49.48000 2.106
49.50000 -1.754
49.52000 1.012
49.54000 -0.797
49.56000 0.430
49.58000 -0.756
49.60000 -1.365
49.62000 -3.102
49.64000 1.038
49.66000 4.502
49.68000 8.402
49.70000 7.542
49.72000 8.831
49.74000 4.542
49.76000 6.972
49.78000 2.405
49.80000 3.979
49.82000 9.104
49.84000 6.333
49.86000 6.559
49.88000 0.146
49.90000 1.927
49.92000 2.331
49.94000 3.302
49.96000 4.445
49.98000 1.673
50.00000 -2.026
50.02000 1.619
50.04000 3.155
50.06000 4.061
50.08000 4.375
50.10000 6.235
50.12000 6.368
50.14000 -0.319
50.16000 -3.032
50.18000 5.600
50.20000 13.576
50.22000 8.848
50.24000 1.876
50.26000 0.263
50.28000 2.354
50.30000 3.937
50.32000 2.722
50.34000 1.013
50.36000 1.444
50.38000 -2.587
50.40000 0.171
50.42000 2.370
50.44000 0.909
50.46000 1.805
50.48000 6.309
50.50000 3.773
50.52000 7.817
50.54000 2.102
50.56000 -1.315
50.58000 -0.303
50.60000 -0.731
50.62000 1.652
50.64000 -0.594
50.66000 1.837
50.68000 1.560
50.70000 5.459
50.72000 5.926
50.74000 3.064
50.76000 5.690
50.78000 1.542
50.80000 2.903
50.82000 5.603
50.84000 3.197
50.86000 0.853
50.88000 3.163
50.90000 2.636
50.92000 3.962
50.94000 5.829
50.96000 1.267
50.98000 -1.323
51.00000 1.503
51.02000 6.650
51.04000 1.877
51.06000 -0.491
51.08000 -2.844
51.10000 4.457
51.12000 3.033
51.14000 0.665
51.16000 5.508
51.18000 1.527
51.20000 -2.038
51.22000 3.700
51.24000 3.873
51.26000 -0.601
51.28000 2.246
51.30000 6.032
51.32000 5.029
51.34000 -1.387
51.36000 -3.026
51.38000 0.246
51.40000 7.253
51.42000 2.466
51.44000 4.702
51.46000 3.523
51.48000 2.641
51.50000 1.631
51.52000 1.173
51.54000 6.724
51.56000 4.533
51.58000 -1.278
51.60000 -0.611
51.62000 3.655
51.64000 -0.071
51.66000 1.580
51.68000 3.862
51.70000 3.836
51.72000 -0.772
51.74000 2.133
51.76000 4.599
51.78000 2.752
51.80000 5.508
51.82000 9.579
51.84000 4.355
51.86000 -2.998
51.88000 1.297
51.90000 1.350
51.92000 -0.658
51.94000 1.388
51.96000 2.202
51.98000 2.979
52.00000 3.235
52.02000 5.528
52.04000 3.269
52.06000 4.861
52.08000 4.818
52.10000 4.567
52.12000 2.109
52.14000 -2.692
52.16000 2.638
52.18000 0.882
52.20000 2.557
52.22000 6.657
52.24000 1.440
52.26000 -0.188
52.28000 3.083
52.30000 6.607
52.32000 3.539
52.34000 6.473
52.36000 5.232
52.38000 2.482
52.40000 0.159
52.42000 1.749
52.44000 -0.261
52.46000 -1.287
52.48000 2.773
52.50000 0.952
52.52000 0.859
52.54000 1.369
52.56000 4.368
52.58000 4.305
52.60000 6.150
52.62000 3.741
52.64000 0.936
52.66000 0.523
52.68000 1.410
52.70000 4.542
52.72000 5.677
52.74000 3.018
52.76000 6.440
52.78000 6.755
52.80000 5.225
52.82000 6.756
52.84000 1.379
52.86000 0.050
52.88000 6.594
52.90000 7.954
52.92000 4.501
52.94000 -0.748
52.96000 -2.914
52.98000 -0.535
53.00000 2.068
53.02000 0.707
53.04000 1.478
53.06000 2.807
53.08000 0.963
53.10000 7.485
53.12000 4.140
53.14000 1.020
53.16000 4.099
53.18000 1.195
53.20000 3.725
53.22000 4.413
53.24000 0.630
53.26000 1.337
53.28000 0.800
53.30000 -0.110
53.32000 2.197
53.34000 2.921
53.36000 5.432
53.38000 -0.588
53.40000 1.574
53.42000 -2.156
53.44000 -0.291
53.46000 2.840
53.48000 1.729
53.50000 1.456
53.52000 6.348
53.54000 6.864
53.56000 1.787
53.58000 5.993
53.60000 5.840
53.62000 3.870
53.64000 -2.114
53.66000 -2.208
53.68000 1.546
53.70000 0.116
53.72000 3.253
53.74000 6.883
53.76000 7.481
53.78000 5.836
53.80000 4.682
53.82000 1.537
53.84000 1.736
53.86000 2.248
53.88000 3.251
53.90000 0.808
53.92000 0.258
53.94000 0.775
53.96000 6.711
53.98000 5.400
54.00000 2.158
54.02000 5.628
54.04000 7.790
54.06000 4.799
54.08000 5.666
54.10000 1.586
54.12000 -1.412
54.14000 2.158
54.16000 2.524
54.18000 2.594
54.20000 7.534
54.22000 1.651
54.24000 4.643
54.26000 5.627
54.28000 3.874
54.30000 1.521
54.32000 0.664
54.34000 1.227
54.36000 1.122
54.38000 -2.885
54.40000 0.374
54.42000 9.321
54.44000 9.427
54.46000 2.249
54.48000 5.727
54.50000 6.413
54.52000 2.496
54.54000 2.360
54.56000 2.880
54.58000 7.763
54.60000 6.979
54.62000 5.388
54.64000 2.128
54.66000 -0.255
54.68000 -0.302
54.70000 2.832
54.72000 4.136
54.74000 5.523
54.76000 -0.966
54.78000 1.819
54.80000 4.109
54.82000 5.489
54.84000 5.899
54.86000 2.860
54.88000 5.677
54.90000 4.431
54.92000 -2.865
54.94000 4.300
54.96000 4.783
54.98000 2.942
55.00000 -1.401
55.02000 0.737
55.04000 5.171
55.06000 3.531
55.08000 5.011
55.10000 11.433
55.12000 7.761
55.14000 2.958
55.16000 2.777
55.18000 5.608
55.20000 5.652
55.22000 7.019
55.24000 6.957
55.26000 5.218
55.28000 4.996
55.30000 7.132
55.32000 2.095
55.34000 4.611
55.36000 5.663
55.38000 5.621
55.40000 1.178
55.42000 2.656
55.44000 3.105
55.46000 3.097
55.48000 1.871
55.50000 11.738
55.52000 8.930
55.54000 -0.767
55.56000 -0.223
55.58000 -1.639
55.60000 -2.850
55.62000 1.373
55.64000 1.298
55.66000 3.567
55.68000 -0.409
55.70000 5.886
55.72000 8.960
55.74000 7.817
55.76000 1.422
55.78000 -1.594
55.80000 -2.803
55.82000 2.161
55.84000 4.948
55.86000 3.868
55.88000 2.613
55.90000 3.728
55.92000 6.426
55.94000 0.760
55.96000 -1.022
55.98000 4.257
56.00000 6.732
56.02000 3.819
56.04000 2.210
56.06000 4.550
56.08000 3.500
56.10000 3.186
56.12000 1.196
56.14000 6.180
56.16000 5.272
56.18000 4.771
56.20000 5.442
56.22000 3.456
56.24000 1.247
56.26000 0.235
56.28000 -1.244
56.30000 -2.148
56.32000 1.198
56.34000 1.575
56.36000 4.744
56.38000 4.017
56.40000 2.764
56.42000 2.672
56.44000 2.516
56.46000 3.380
56.48000 0.065
56.50000 -0.184
56.52000 0.564
56.54000 2.680
56.56000 6.109
56.58000 6.332
56.60000 3.374
56.62000 2.852
56.64000 1.063
56.66000 2.399
56.68000 6.443
56.70000 2.673
56.72000 4.113
56.74000 4.359
56.76000 2.529
56.78000 0.165
56.80000 0.962
56.82000 4.745
56.84000 3.755
56.86000 4.871
56.88000 4.232
56.90000 4.222
56.92000 2.177
56.94000 2.992
56.96000 5.591
56.98000 9.497
57.00000 6.048
57.02000 6.746
57.04000 8.840
57.06000 10.115
57.08000 4.706
57.10000 0.147
57.12000 3.615
57.14000 9.966
57.16000 7.101
57.18000 4.740
57.20000 9.088
57.22000 13.005
57.24000 10.689
57.26000 7.845
57.28000 10.647
57.30000 6.433
57.32000 3.894
57.34000 5.109
57.36000 2.762
57.38000 3.387
57.40000 3.534
57.42000 4.922
57.44000 5.707
57.46000 1.400
57.48000 -2.746
57.50000 1.238
57.52000 5.456
57.54000 2.710
57.56000 6.722
57.58000 5.465
57.60000 2.836
57.62000 7.382
57.64000 6.578
57.66000 6.316
57.68000 11.385
57.70000 10.847
57.72000 4.600
57.74000 6.329
57.76000 9.129
57.78000 8.844
57.80000 8.742
57.82000 6.602
57.84000 5.684
57.86000 -0.406
57.88000 0.546
57.90000 1.075
57.92000 3.318
57.94000 4.427
57.96000 3.552
57.98000 1.835
58.00000 9.497
58.02000 9.039
58.04000 10.756
58.06000 4.041
58.08000 3.156
58.10000 2.232
58.12000 6.781
58.14000 7.363
58.16000 6.220
58.18000 3.542
58.20000 1.068
58.22000 0.497
58.24000 0.984
58.26000 2.401
58.28000 1.957
58.30000 1.878
58.32000 3.219
58.34000 3.295
58.36000 4.903
58.38000 0.572
58.40000 0.502
58.42000 1.413
58.44000 1.704
58.46000 4.043
58.48000 8.194
58.50000 8.325
58.52000 7.475
58.54000 8.898
58.56000 7.120
58.58000 6.162
58.60000 7.237
58.62000 4.333
58.64000 4.485
58.66000 4.635
58.68000 5.342
58.70000 0.783
58.72000 1.530
58.74000 2.145
58.76000 2.308
58.78000 1.747
58.80000 6.249
58.82000 1.822
58.84000 0.443
58.86000 3.810
58.88000 3.756
58.90000 1.554
58.92000 -1.119
58.94000 2.452
58.96000 6.043
58.98000 2.097
59.00000 -0.125
59.02000 1.074
59.04000 1.137
59.06000 7.910
59.08000 11.223
59.10000 6.328
59.12000 1.361
59.14000 3.263
59.16000 10.478
59.18000 3.338
59.20000 -1.525
59.22000 -0.264
59.24000 -1.576
59.26000 -2.751
59.28000 -1.093
59.30000 -2.431
59.32000 0.953
59.34000 0.140
59.36000 2.321
59.38000 1.223
59.40000 0.405
59.42000 3.236
59.44000 6.531
59.46000 3.885
59.48000 3.686
59.50000 -1.348
59.52000 -0.521
59.54000 1.651
59.56000 4.154
59.58000 0.670
59.60000 -0.880
59.62000 1.290
59.64000 0.663
59.66000 5.402
59.68000 3.595
59.70000 2.082
59.72000 1.585
59.74000 5.319
59.76000 3.971
59.78000 -0.835
59.80000 0.564
59.82000 2.362
59.84000 1.152
59.86000 -1.479
59.88000 -0.380
59.90000 1.712
59.92000 3.497
59.94000 6.479
59.96000 5.410
59.98000 3.315
60.00000 2.468
60.02000 0.655
60.04000 2.475
60.06000 3.806
60.08000 0.172
60.10000 2.080
60.12000 1.881
60.14000 0.534
60.16000 -1.330
60.18000 -1.275
60.20000 -2.162
60.22000 -1.638
60.24000 2.998
60.26000 7.811
60.28000 3.428
60.30000 -0.794
60.32000 -2.708
60.34000 -1.455
60.36000 0.699
60.38000 6.569
60.40000 2.567
60.42000 7.330
60.44000 9.186
60.46000 2.306
60.48000 -0.061
60.50000 4.105
60.52000 3.798
60.54000 5.078
60.56000 3.545
60.58000 0.867
60.60000 1.994
60.62000 4.837
60.64000 7.306
60.66000 4.443
60.68000 0.805
60.70000 0.013
60.72000 -0.440
60.74000 3.896
60.76000 3.273
60.78000 -0.353
60.80000 -0.987
60.82000 1.666
60.84000 3.330
60.86000 0.950
60.88000 3.276
60.90000 5.285
60.92000 6.748
60.94000 4.149
60.96000 0.578
60.98000 2.283
61.00000 0.803
61.02000 3.915
61.04000 10.280
61.06000 8.357
61.08000 6.326
61.10000 6.048
61.12000 4.264
61.14000 2.814
61.16000 3.949
61.18000 1.944
61.20000 1.040
61.22000 1.481
61.24000 2.195
61.26000 2.478
61.28000 4.969
61.30000 8.010
61.32000 7.519
61.34000 -1.363
61.36000 5.307
61.38000 7.376
61.40000 8.758
61.42000 8.885
61.44000 11.055
61.46000 4.521
61.48000 6.271
61.50000 5.476
61.52000 7.462
61.54000 7.348
61.56000 5.964
61.58000 1.431
61.60000 6.710
61.62000 3.749
61.64000 -2.602
61.66000 1.322
61.68000 6.253
61.70000 6.763
61.72000 2.510
61.74000 0.678
61.76000 4.619
61.78000 6.122
61.80000 4.724
61.82000 6.470
61.84000 9.326
61.86000 8.034
61.88000 10.262
61.90000 5.921
61.92000 5.217
61.94000 3.007
61.96000 5.161
61.98000 7.961
62.00000 5.181
62.02000 1.465
62.04000 5.048
62.06000 4.011
62.08000 2.228
62.10000 9.050
62.12000 9.816
62.14000 4.120
62.16000 -0.819
62.18000 1.691
62.20000 7.818
62.22000 5.997
62.24000 7.211
62.26000 5.745
62.28000 8.064
62.30000 5.840
62.32000 6.508
62.34000 8.533
62.36000 6.239
62.38000 -0.191
62.40000 2.348
62.42000 2.019
62.44000 5.770
62.46000 1.113
62.48000 2.668
62.50000 4.286
62.52000 3.670
62.54000 4.492
62.56000 5.438
62.58000 7.446
62.60000 3.682
62.62000 1.853
62.64000 5.225
62.66000 2.609
62.68000 -0.856
62.70000 1.905
62.72000 -0.739
62.74000 3.153
62.76000 2.499
62.78000 2.949
62.80000 3.874
62.82000 0.775
62.84000 -2.218
62.86000 4.608
62.88000 5.458
62.90000 5.780
62.92000 8.167
62.94000 6.565
62.96000 4.783
62.98000 2.499
63.00000 0.552
63.02000 4.233
63.04000 1.795
63.06000 -0.865
63.08000 4.914
63.10000 5.005
63.12000 0.458
63.14000 2.506
63.16000 6.201
63.18000 6.263
63.20000 2.235
63.22000 -0.632
63.24000 1.875
63.26000 -2.630
63.28000 -0.843
63.30000 1.238
63.32000 2.469
63.34000 3.275
63.36000 5.053
63.38000 2.973
63.40000 0.736
63.42000 0.070
63.44000 1.935
63.46000 1.675
63.48000 1.889
63.50000 -0.869
63.52000 2.492
63.54000 5.538
63.56000 3.288
63.58000 2.650
63.60000 1.606
63.62000 1.259
63.64000 -0.165
63.66000 3.309
63.68000 4.192
63.70000 3.264
63.72000 3.250
63.74000 2.927
63.76000 2.236
63.78000 2.798
63.80000 5.090
63.82000 3.549
63.84000 3.265
63.86000 3.890
63.88000 1.441
63.90000 0.090
63.92000 1.298
63.94000 4.364
63.96000 3.982
63.98000 0.727
64.00000 0.273
64.02000 2.984
64.04000 3.176
64.06000 4.908
64.08000 6.789
64.10000 6.335
64.12000 4.282
64.14000 2.727
64.16000 -1.795
64.18000 4.693
64.20000 3.998
64.22000 2.315
64.24000 4.110
64.26000 3.356
64.28000 3.618
64.30000 4.240
64.32000 -1.817
64.34000 0.017
64.36000 0.602
64.38000 -0.110
64.40000 5.369
64.42000 4.594
64.44000 -0.389
64.46000 -0.080
64.48000 -1.712
64.50000 1.582
64.52000 -1.771
64.54000 -2.672
64.56000 2.563
64.58000 0.303
64.60000 -1.832
64.62000 1.855
64.64000 1.761
64.66000 0.497
64.68000 3.029
64.70000 4.430
64.72000 7.098
64.74000 4.259
64.76000 2.357
64.78000 -0.708
64.80000 0.567
64.82000 -0.915
64.84000 0.407
64.86000 2.006
64.88000 2.704
64.90000 1.607
64.92000 1.273
64.94000 2.170
64.96000 2.148
64.98000 2.187
65.00000 2.023
65.02000 0.953
65.04000 0.423
65.06000 1.802
65.08000 3.449
65.10000 7.763
65.12000 5.337
65.14000 1.168
65.16000 0.854
65.18000 2.097
65.20000 3.036
65.22000 8.775
65.24000 7.135
65.26000 3.148
65.28000 3.244
65.30000 5.411
65.32000 0.437
65.34000 4.056
65.36000 3.160
65.38000 0.080
65.40000 4.336
65.42000 7.579
65.44000 5.689
65.46000 1.675
65.48000 1.041
65.50000 3.532
65.52000 3.739
65.54000 -2.657
65.56000 0.703
65.58000 4.894
65.60000 6.775
65.62000 2.724
65.64000 3.442
65.66000 4.526
65.68000 6.349
65.70000 6.304
65.72000 5.488
65.74000 3.647
65.76000 -0.128
65.78000 1.419
65.80000 2.984
65.82000 5.690
65.84000 4.971
65.86000 1.139
65.88000 1.273
65.90000 2.011
65.92000 4.957
65.94000 0.750
65.96000 1.124
65.98000 1.229
66.00000 2.431
66.02000 1.206
66.04000 0.861
66.06000 0.243
66.08000 4.026
66.10000 0.328
66.12000 4.146
66.14000 4.465
66.16000 6.157
66.18000 1.064
66.20000 -0.816
66.22000 -0.052
66.24000 0.833
66.26000 0.499
66.28000 2.116
66.30000 1.596
66.32000 3.313
66.34000 6.989
66.36000 0.652
66.38000 -0.326
66.40000 2.342
66.42000 3.390
66.44000 4.587
66.46000 5.225
66.48000 6.973
66.50000 2.991
66.52000 3.456
66.54000 4.501
66.56000 3.237
66.58000 4.390
66.60000 0.610
66.62000 5.780
66.64000 7.441
66.66000 7.357
66.68000 10.680
66.70000 8.611
66.72000 4.557
66.74000 4.700
66.76000 7.024
66.78000 5.321
66.80000 1.739
66.82000 0.572
66.84000 0.520
66.86000 2.163
66.88000 5.665
66.90000 4.222
66.92000 4.510
66.94000 5.408
66.96000 9.497
66.98000 11.300
67.00000 11.248
67.02000 9.137
67.04000 9.012
67.06000 6.503
67.08000 9.801
67.10000 5.986
67.12000 8.096
67.14000 9.013
67.16000 9.670
67.18000 8.965
67.20000 7.903
67.22000 6.295
67.24000 6.355
67.26000 8.464
67.28000 10.942
67.30000 10.347
67.32000 10.440
67.34000 8.501
67.36000 9.287
67.38000 15.217
67.40000 12.014
67.42000 12.964
67.44000 15.947
67.46000 17.522
67.48000 14.678
67.50000 15.446
67.52000 20.361
67.54000 18.281
67.56000 16.921
67.58000 11.730
67.60000 11.115
67.62000 10.688
67.64000 10.478
67.66000 13.214
67.68000 15.244
67.70000 12.121
67.72000 17.462
67.74000 15.354
67.76000 19.535
67.78000 14.260
67.80000 15.811
67.82000 18.031
67.84000 18.476
67.86000 20.268
67.88000 22.035
67.90000 26.191
67.92000 24.645
67.94000 18.784
67.96000 20.566
67.98000 19.139
68.00000 13.557
68.02000 17.450
68.04000 22.448
68.06000 19.022
68.08000 18.585
68.10000 20.462
68.12000 24.083
68.14000 21.912
68.16000 20.757
68.18000 21.593
68.20000 21.013
68.22000 17.111
68.24000 18.432
68.26000 18.904
68.28000 21.832
68.30000 21.043
68.32000 22.204
68.34000 19.498
68.36000 15.293
68.38000 18.759
68.40000 21.693
68.42000 18.022
68.44000 15.276
68.46000 15.640
68.48000 17.119
68.50000 18.224
68.52000 15.056
68.54000 17.764
68.56000 18.147
68.58000 20.408
68.60000 11.985
68.62000 10.966
68.64000 11.346
68.66000 14.498
68.68000 14.973
68.70000 9.522
68.72000 9.862
68.74000 10.890
68.76000 8.232
68.78000 7.115
68.80000 4.699
68.82000 8.043
68.84000 8.505
68.86000 5.854
68.88000 6.376
68.90000 6.669
68.92000 10.753
68.94000 9.080
68.96000 6.199
68.98000 7.418
69.00000 6.813
69.02000 7.176
69.04000 7.000
69.06000 6.272
69.08000 3.216
69.10000 9.902
69.12000 7.918
69.14000 -0.549
69.16000 2.014
69.18000 3.625
69.20000 1.402
69.22000 1.954
69.24000 6.083
69.26000 3.040
69.28000 0.066
69.30000 0.978
69.32000 3.415
69.34000 3.311
69.36000 2.376
69.38000 6.221
69.40000 2.171
69.42000 3.240
69.44000 2.163
69.46000 2.446
69.48000 4.333
69.50000 4.786
69.52000 -1.339
69.54000 4.746
69.56000 4.251
69.58000 -0.445
69.60000 -0.531
69.62000 2.048
69.64000 3.768
69.66000 1.809
69.68000 -0.278
69.70000 -2.509
69.72000 -0.008
69.74000 3.184
69.76000 -1.673
69.78000 -0.976
69.80000 1.057
69.82000 1.566
69.84000 2.208
69.86000 1.222
69.88000 3.187
69.90000 2.916
69.92000 1.132
69.94000 -0.136
69.96000 3.281
69.98000 -1.497
70.00000 1.392
70.02000 2.241
70.04000 2.645
70.06000 1.058
70.08000 -1.265
70.10000 1.943
70.12000 2.203
70.14000 5.939
70.16000 3.335
70.18000 -0.656
70.20000 -2.594
70.22000 -0.714
70.24000 3.327
70.26000 2.430
70.28000 3.241
70.30000 3.583
70.32000 2.140
70.34000 1.771
70.36000 -0.684
70.38000 1.293
70.40000 2.067
70.42000 -0.215
70.44000 2.233
70.46000 3.324
70.48000 0.969
70.50000 3.245
70.52000 4.214
70.54000 3.242
70.56000 0.145
70.58000 3.517
70.60000 1.929
70.62000 4.323
70.64000 4.181
70.66000 4.220
70.68000 4.220
70.70000 6.902
70.72000 6.760
70.74000 2.859
70.76000 2.827
70.78000 5.939
70.80000 4.870
70.82000 2.724
70.84000 1.046
70.86000 6.502
70.88000 5.887
70.90000 2.287
70.92000 1.668
70.94000 -2.509
70.96000 1.530
70.98000 8.517
71.00000 9.493
71.02000 4.371
71.04000 5.512
71.06000 5.849
71.08000 4.757
71.10000 6.396
71.12000 7.022
71.14000 1.249
71.16000 2.468
71.18000 6.396
71.20000 4.930
71.22000 4.753
71.24000 6.623
71.26000 8.649
71.28000 5.397
71.30000 4.982
71.32000 7.939
71.34000 7.570
71.36000 2.889
71.38000 1.448
71.40000 4.899
71.42000 6.999
71.44000 7.353
71.46000 6.454
71.48000 2.244
71.50000 4.061
71.52000 1.667
71.54000 2.893
71.56000 8.192
71.58000 3.290
71.60000 2.322
71.62000 3.423
71.64000 2.854
71.66000 4.216
71.68000 3.328
71.70000 7.431
71.72000 3.596
71.74000 1.776
71.76000 2.501
71.78000 2.821
71.80000 3.044
71.82000 0.636
71.84000 3.625
71.86000 3.498
71.88000 2.344
71.90000 1.614
71.92000 4.211
71.94000 3.480
71.96000 5.885
71.98000 4.226
72.00000 5.396
72.02000 -1.093
72.04000 2.083
72.06000 3.371
72.08000 3.230
72.10000 2.832
72.12000 -1.736
72.14000 -0.900
72.16000 1.778
72.18000 5.471
72.20000 1.601
72.22000 1.601
72.24000 -1.023
72.26000 -2.499
72.28000 1.381
72.30000 4.107
72.32000 0.786
72.34000 1.520
72.36000 1.712
72.38000 1.868
72.40000 1.910
72.42000 4.287
72.44000 6.518
72.46000 7.256
72.48000 6.662
72.50000 1.276
72.52000 -2.484
72.54000 7.128
72.56000 4.620
72.58000 1.077
72.60000 -1.382
72.62000 1.261
72.64000 1.302
72.66000 2.143
72.68000 1.851
72.70000 3.883
72.72000 3.886
72.74000 2.526
72.76000 -1.880
72.78000 4.008
72.80000 -2.478
72.82000 0.289
72.84000 1.371
72.86000 3.806
72.88000 1.937
72.90000 3.404
72.92000 6.028
72.94000 3.504
72.96000 6.496
72.98000 6.830
73.00000 3.778
73.02000 3.945
73.04000 4.122
73.06000 3.112
73.08000 1.150
73.10000 -0.412
73.12000 0.301
73.14000 3.900
73.16000 3.040
73.18000 1.087
73.20000 3.203
73.22000 5.871
73.24000 2.264
73.26000 2.874
73.28000 6.767
73.30000 7.102
73.32000 3.800
73.34000 1.083
73.36000 3.494
73.38000 7.389
73.40000 2.179
73.42000 0.240
73.44000 0.894
73.46000 -0.699
73.48000 -0.060
73.50000 1.322
73.52000 2.840
73.54000 2.787
73.56000 3.716
73.58000 6.688
73.60000 3.776
73.62000 1.757
73.64000 2.520
73.66000 7.910
73.68000 4.783
73.70000 0.157
73.72000 2.605
73.74000 1.403
73.76000 -2.446
73.78000 2.592
73.80000 6.050
73.82000 1.831
73.84000 1.102
73.86000 3.233
73.88000 3.772
73.90000 4.440
73.92000 1.886
73.94000 7.599
73.96000 4.148
73.98000 2.489
74.00000 0.894
74.02000 4.391
74.04000 3.496
74.06000 0.699
74.08000 -1.005
74.10000 1.626
74.12000 3.767
74.14000 5.142
74.16000 2.022
74.18000 2.594
74.20000 5.814
74.22000 3.581
74.24000 0.457
74.26000 -0.034
74.28000 4.539
74.30000 2.696
74.32000 0.659
74.34000 3.314
74.36000 0.871
74.38000 0.687
74.40000 3.276
74.42000 -2.456
74.44000 -1.663
74.46000 0.547
74.48000 4.132
74.50000 -0.027
74.52000 2.564
74.54000 6.339
74.56000 -0.645
74.58000 -2.467
74.60000 -0.904
74.62000 3.463
74.64000 3.667
74.66000 3.298
74.68000 1.592
74.70000 4.602
74.72000 3.488
74.74000 2.350
74.76000 2.092
74.78000 1.494
74.80000 2.876
74.82000 1.630
74.84000 1.303
74.86000 2.000
74.88000 1.611
74.90000 0.320
74.92000 0.756
74.94000 6.609
74.96000 8.501
74.98000 6.937
75.00000 4.934
75.02000 6.092
75.04000 7.456
75.06000 2.562
75.08000 -1.937
75.10000 0.329
75.12000 -0.334
75.14000 1.661
75.16000 -1.702
75.18000 -2.231
75.20000 2.485
75.22000 1.649
75.24000 2.316
75.26000 -0.910
75.28000 -2.507
75.30000 -2.483
75.32000 -1.786
75.34000 -0.001
75.36000 2.072
75.38000 4.118
75.40000 2.180
75.42000 -2.151
75.44000 -1.674
75.46000 -2.137
75.48000 3.936
75.50000 2.138
75.52000 0.592
75.54000 1.643
75.56000 -1.063
75.58000 -2.037
75.60000 2.051
75.62000 1.796
75.64000 2.953
75.66000 0.427
75.68000 4.322
75.70000 -0.395
75.72000 1.048
75.74000 2.468
75.76000 0.254
75.78000 -0.670
75.80000 -0.323
75.82000 1.845
75.84000 -0.480
75.86000 0.499
75.88000 0.151
75.90000 1.111
75.92000 -0.459
75.94000 3.428
75.96000 7.157
75.98000 8.487
76.00000 1.763
76.02000 -0.825
76.04000 5.861
76.06000 -1.140
76.08000 -1.151
76.10000 2.411
76.12000 3.008
76.14000 2.303
76.16000 1.836
76.18000 3.290
76.20000 1.218
76.22000 3.904
76.24000 4.717
76.26000 1.403
76.28000 2.308
76.30000 7.452
76.32000 7.484
76.34000 5.657
76.36000 0.086
76.38000 -0.022
76.40000 -1.322
76.42000 1.027
76.44000 1.272
76.46000 4.349
76.48000 -2.012
76.50000 -2.411
76.52000 -1.926
76.54000 -1.928
76.56000 -2.228
76.58000 0.946
76.60000 1.021
76.62000 0.780
76.64000 -0.963
76.66000 -2.497
76.68000 3.095
76.70000 6.588
76.72000 3.104
76.74000 5.073
76.76000 3.452
76.78000 0.529
76.80000 0.187
76.82000 8.186
76.84000 7.502
76.86000 5.860
76.88000 4.789
76.90000 7.054
76.92000 1.883
76.94000 -0.201
76.96000 3.753
76.98000 1.791
77.00000 2.576
77.02000 2.961
77.04000 4.644
77.06000 3.533
77.08000 -0.011
77.10000 0.837
77.12000 1.191
77.14000 0.565
77.16000 2.705
77.18000 -0.937
77.20000 3.442
77.22000 7.297
77.24000 -1.242
77.26000 -2.529
77.28000 0.351
77.30000 2.222
77.32000 8.602
77.34000 8.313
77.36000 2.892
77.38000 8.080
77.40000 3.176
77.42000 2.471
77.44000 0.401
77.46000 4.699
77.48000 2.646
77.50000 -0.500
77.52000 0.143
77.54000 4.116
77.56000 2.536
77.58000 -1.252
77.60000 -2.540
77.62000 0.738
77.64000 1.036
77.66000 1.447
77.68000 2.398
77.70000 1.414
77.72000 1.997
77.74000 1.985
77.76000 2.623
77.78000 1.751
77.80000 2.650
77.82000 -0.602
77.84000 0.153
77.86000 5.809
77.88000 6.060
77.90000 2.756
77.92000 9.708
77.94000 6.229
77.96000 6.354
77.98000 7.137
78.00000 3.604
78.02000 2.646
78.04000 -2.135
78.06000 -0.562
78.08000 1.527
78.10000 3.539
78.12000 3.856
78.14000 -0.780
78.16000 -2.565
78.18000 -1.085
78.20000 -1.146
78.22000 -0.797
78.24000 -1.000
78.26000 0.563
78.28000 1.857
78.30000 -1.276
78.32000 0.623
78.34000 3.119
78.36000 -0.634
78.38000 1.908
78.40000 2.017
78.42000 6.316
78.44000 5.673
78.46000 3.766
78.48000 1.767
78.50000 0.762
78.52000 -2.575
78.54000 -1.333
78.56000 3.646
78.58000 -1.647
78.60000 0.256
78.62000 0.621
78.64000 4.758
78.66000 1.546
78.68000 3.804
78.70000 6.719
78.72000 6.315
78.74000 2.557
78.76000 -0.715
78.78000 -1.191
78.80000 -1.996
78.82000 1.888
78.84000 4.094
78.86000 -2.578
78.88000 -0.094
78.90000 2.595
78.92000 4.735
78.94000 3.008
78.96000 2.720
78.98000 4.621
79.00000 8.281
79.02000 4.402
79.04000 -1.602
79.06000 4.788
79.08000 2.848
79.10000 0.019
79.12000 4.696
79.14000 3.414
79.16000 3.546
79.18000 7.243
79.20000 7.025
79.22000 1.379
79.24000 -0.528
79.26000 6.396
79.28000 4.529
79.30000 0.962
79.32000 -2.602
79.34000 -1.826
79.36000 2.225
79.38000 1.988
79.40000 3.311
79.42000 6.494
79.44000 1.951
79.46000 -1.094
79.48000 1.252
79.50000 2.855
79.52000 4.332
79.54000 6.203
79.56000 -1.148
79.58000 -0.148
79.60000 2.492
79.62000 0.281
79.64000 -2.449
79.66000 4.770
79.68000 8.696
79.70000 4.269
79.72000 0.227
79.74000 1.785
79.76000 -0.454
79.78000 -1.359
79.80000 0.323
79.82000 4.790
79.84000 10.814
79.86000 5.754
79.88000 -1.530
79.90000 4.493
79.92000 3.717
79.94000 5.448
79.96000 -0.967
79.98000 -2.247
80.00000 1.785
80.02000 -2.674
80.04000 -0.854
80.06000 1.348
80.08000 2.612
80.10000 3.480
80.12000 0.459
80.14000 -0.779
80.16000 2.847
80.18000 2.932
80.20000 -0.401
80.22000 0.986
80.24000 4.425
80.26000 5.697
80.28000 5.156
80.30000 3.739
80.32000 3.030
80.34000 3.810
80.36000 2.580
80.38000 6.498
80.40000 7.114
80.42000 7.386
80.44000 6.227
80.46000 12.330
80.48000 11.433
80.50000 6.740
80.52000 7.566
80.54000 1.093
80.56000 2.243
80.58000 -0.156
80.60000 -2.149
80.62000 0.924
80.64000 -0.548
80.66000 1.646
80.68000 7.173
80.70000 8.095
80.72000 5.815
80.74000 -2.228
80.76000 3.147
80.78000 4.361
80.80000 1.921
80.82000 2.573
80.84000 1.806
80.86000 7.959
80.88000 6.242
80.90000 7.655
80.92000 6.007
80.94000 7.247
80.96000 8.288
80.98000 8.383
81.00000 8.323
81.02000 8.476
81.04000 6.491
81.06000 8.907
81.08000 9.550
81.10000 13.548
81.12000 9.315
81.14000 8.118
81.16000 13.986
81.18000 11.469
81.20000 7.882
81.22000 12.667
81.24000 14.058
81.26000 14.462
81.28000 14.033
81.30000 12.146
81.32000 11.972
81.34000 10.716
81.36000 9.333
81.38000 11.315
81.40000 15.544
81.42000 8.997
81.44000 9.812
81.46000 18.770
81.48000 16.069
81.50000 16.829
81.52000 12.404
81.54000 9.984
81.56000 17.434
81.58000 15.742
81.60000 16.835
81.62000 14.793
81.64000 15.512
81.66000 19.565
81.68000 18.513
81.70000 20.928
81.72000 16.243
81.74000 14.805
81.76000 13.101
81.78000 19.269
81.80000 25.278
81.82000 20.210
81.84000 18.010
81.86000 20.654
81.88000 16.269
81.90000 18.848
81.92000 20.912
81.94000 19.645
81.96000 22.942
81.98000 25.538
82.00000 24.083
82.02000 22.332
82.04000 22.878
82.06000 21.937
82.08000 20.567
82.10000 20.027
82.12000 20.633
82.14000 21.202
82.16000 23.179
82.18000 17.815
82.20000 22.449
82.22000 21.137
82.24000 24.859
82.26000 23.513
82.28000 26.011
82.30000 28.693
82.32000 18.214
82.34000 23.726
82.36000 21.248
82.38000 18.991
82.40000 19.892
82.42000 23.013
82.44000 26.709
82.46000 26.581
82.48000 20.559
82.50000 13.947
82.52000 17.552
82.54000 17.588
82.56000 15.577
82.58000 20.169
82.60000 23.559
82.62000 20.404
82.64000 17.493
82.66000 15.544
82.68000 19.480
82.70000 19.286
82.72000 16.937
82.74000 15.749
82.76000 19.083
82.78000 15.416
82.80000 10.760
82.82000 10.374
82.84000 8.576
82.86000 9.668
82.88000 13.822
82.90000 12.410
82.92000 14.923
82.94000 15.470
82.96000 14.192
82.98000 13.032
83.00000 12.337
83.02000 14.132
83.04000 9.610
83.06000 12.097
83.08000 12.925
83.10000 14.433
83.12000 9.932
83.14000 13.825
83.16000 13.044
83.18000 9.722
83.20000 10.049
83.22000 6.730
83.24000 4.498
83.26000 5.313
83.28000 5.962
83.30000 10.009
83.32000 12.873
83.34000 7.132
83.36000 4.681
83.38000 5.653
83.40000 7.650
83.42000 8.653
83.44000 8.801
83.46000 4.632
83.48000 2.505
83.50000 10.266
83.52000 7.773
83.54000 7.943
83.56000 8.936
83.58000 7.502
83.60000 12.434
83.62000 7.611
83.64000 5.463
83.66000 11.303
83.68000 7.984
83.70000 7.209
83.72000 9.036
83.74000 5.796
83.76000 0.804
83.78000 -0.630
83.80000 -0.566
83.82000 -2.679
83.84000 3.896
83.86000 14.287
83.88000 11.447
83.90000 4.079
83.92000 3.921
83.94000 3.732
83.96000 6.711
83.98000 2.444
84.00000 -1.644
84.02000 -0.803
84.04000 2.824
84.06000 4.165
84.08000 5.108
84.10000 3.035
84.12000 1.955
84.14000 -0.570
84.16000 -2.661
84.18000 -0.010
84.20000 3.011
84.22000 3.472
84.24000 4.755
84.26000 1.422
84.28000 -0.450
84.30000 -1.526
84.32000 1.774
84.34000 1.165
84.36000 4.753
84.38000 2.610
84.40000 0.688
84.42000 -0.681
84.44000 -2.656
84.46000 0.475
84.48000 -0.533
84.50000 -1.970
84.52000 -0.053
84.54000 0.879
84.56000 2.306
84.58000 -1.243
84.60000 2.894
84.62000 4.458
84.64000 2.675
84.66000 7.138
84.68000 5.830
84.70000 3.789
84.72000 7.019
84.74000 0.309
84.76000 -0.642
84.78000 -1.794
84.80000 0.280
84.82000 -2.647
84.84000 2.468
84.86000 5.117
84.88000 8.462
84.90000 6.361
84.92000 3.001
84.94000 3.939
84.96000 4.620
84.98000 4.033
85.00000 2.077
85.02000 4.060
85.04000 6.233
85.06000 5.970
85.08000 8.018
85.10000 6.523
85.12000 4.209
85.14000 2.372
85.16000 -0.897
85.18000 -0.581
85.20000 1.859
85.22000 -1.357
85.24000 4.273
85.26000 4.663
85.28000 4.150
85.30000 4.200
85.32000 11.321
85.34000 9.950
85.36000 5.444
85.38000 5.019
85.40000 9.488
85.42000 9.678
85.44000 11.312
85.46000 9.848
85.48000 10.937
85.50000 17.161
85.52000 18.596
85.54000 16.542
85.56000 9.845
85.58000 9.605
85.60000 12.866
85.62000 12.822
85.64000 15.010
85.66000 17.692
85.68000 12.173
85.70000 18.853
85.72000 19.602
85.74000 12.596
85.76000 20.495
85.78000 24.583
85.80000 18.572
85.82000 11.893
85.84000 10.901
85.86000 14.274
85.88000 15.765
85.90000 18.386
85.92000 23.879
85.94000 18.685
85.96000 17.936
85.98000 21.777
86.00000 26.296
86.02000 22.625
86.04000 27.948
86.06000 25.502
86.08000 27.457
86.10000 26.246
86.12000 23.366
86.14000 22.135
86.16000 27.409
86.18000 34.291
86.20000 32.343
86.22000 31.331
86.24000 28.671
86.26000 23.877
86.28000 27.397
86.30000 25.396
86.32000 28.304
86.34000 27.041
86.36000 25.063
86.38000 26.170
86.40000 33.867
86.42000 33.171
86.44000 30.716
86.46000 32.088
86.48000 37.066
86.50000 34.126
86.52000 33.845
86.54000 30.837
86.56000 30.400
86.58000 36.700
86.60000 35.772
86.62000 33.828
86.64000 25.415
86.66000 30.325
86.68000 25.677
86.70000 26.612
86.72000 30.460
86.74000 30.444
86.76000 31.904
86.78000 31.904
86.80000 31.208
86.82000 23.588
86.84000 29.708
86.86000 24.725
86.88000 28.684
86.90000 27.271
86.92000 30.546
86.94000 23.745
86.96000 18.967
86.98000 23.788
87.00000 22.374
87.02000 17.246
87.04000 15.248
87.06000 16.621
87.08000 20.281
87.10000 20.818
87.12000 20.906
87.14000 21.704
87.16000 24.271
87.18000 22.677
87.20000 17.850
87.22000 19.511
87.24000 22.214
87.26000 21.479
87.28000 21.040
87.30000 22.975
87.32000 14.964
87.34000 14.405
87.36000 12.192
87.38000 7.910
87.40000 5.126
87.42000 15.274
87.44000 13.462
87.46000 9.850
87.48000 7.000
87.50000 8.987
87.52000 13.118
87.54000 11.089
87.56000 9.401
87.58000 10.814
87.60000 8.226
87.62000 4.901
87.64000 3.112
87.66000 4.205
87.68000 3.436
87.70000 3.521
87.72000 5.490
87.74000 0.114
87.76000 -1.104
87.78000 3.181
87.80000 2.867
87.82000 4.805
87.84000 1.226
87.86000 -0.843
87.88000 0.404
87.90000 -0.114
87.92000 0.381
87.94000 -2.475
87.96000 0.760
87.98000 -2.279
88.00000 5.186
88.02000 2.596
88.04000 5.437
88.06000 6.784
88.08000 6.247
88.10000 2.877
88.12000 -2.500
88.14000 -2.458
88.16000 1.549
88.18000 0.046
88.20000 2.946
88.22000 0.397
88.24000 3.057
88.26000 0.906
88.28000 0.508
88.30000 0.259
88.32000 -0.081
88.34000 -0.047
88.36000 1.440
88.38000 1.280
88.40000 5.985
88.42000 8.194
88.44000 5.947
88.46000 2.302
88.48000 5.456
88.50000 6.086
88.52000 6.227
88.54000 2.427
88.56000 -1.028
88.58000 -2.290
88.60000 2.964
88.62000 3.302
88.64000 0.159
88.66000 -0.821
88.68000 -2.085
88.70000 0.944
88.72000 2.543
88.74000 0.130
88.76000 2.563
88.78000 3.296
88.80000 3.534
88.82000 -1.615
88.84000 0.501
88.86000 0.101
88.88000 0.853
88.90000 2.421
88.92000 0.356
88.94000 -0.938
88.96000 -0.173
88.98000 0.712
89.00000 4.297
89.02000 5.496
89.04000 7.582
89.06000 3.038
89.08000 2.698
89.10000 4.454
89.12000 1.788
89.14000 -0.279
89.16000 1.287
89.18000 3.943
89.20000 1.775
89.22000 0.457
89.24000 7.812
89.26000 5.852
89.28000 0.058
89.30000 4.392
89.32000 5.820
89.34000 8.574
89.36000 9.741
89.38000 8.586
89.40000 5.546
89.42000 1.443
89.44000 6.216
89.46000 8.656
89.48000 0.987
89.50000 -2.259
89.52000 1.205
89.54000 9.382
89.56000 5.038
89.58000 -0.563
89.60000 4.451
89.62000 10.081
89.64000 9.455
89.66000 8.019
89.68000 3.711
89.70000 4.553
89.72000 9.622
89.74000 7.539
89.76000 4.609
89.78000 5.561
89.80000 3.662
89.82000 1.707
89.84000 3.618
89.86000 3.694
89.88000 6.369
89.90000 12.081
89.92000 10.764
89.94000 6.414
89.96000 2.872
89.98000 2.506
90.00000 2.505
90.02000 2.263
90.04000 4.280
90.06000 3.205
90.08000 2.993
90.10000 7.208
90.12000 9.691
90.14000 11.979
90.16000 3.774
90.18000 -0.120
90.20000 7.969
90.22000 4.960
90.24000 3.903
90.26000 4.178
90.28000 5.829
90.30000 5.056
90.32000 4.186
90.34000 3.427
90.36000 5.815
90.38000 5.229
90.40000 4.005
90.42000 8.082
90.44000 2.771
90.46000 3.558
90.48000 8.406
90.50000 5.684
90.52000 2.359
90.54000 0.759
90.56000 2.325
90.58000 2.706
90.60000 4.811
90.62000 2.862
90.64000 -0.566
90.66000 5.490
90.68000 4.162
90.70000 -0.572
90.72000 -1.943
90.74000 2.031
90.76000 3.025
90.78000 3.167
90.80000 0.965
90.82000 1.657
90.84000 1.240
90.86000 3.460
90.88000 3.637
90.90000 7.327
90.92000 4.288
90.94000 3.553
90.96000 8.755
90.98000 10.115
91.00000 4.050
91.02000 1.530
91.04000 -1.062
91.06000 2.166
91.08000 3.642
91.10000 6.868
91.12000 7.222
91.14000 5.733
91.16000 1.742
91.18000 4.787
91.20000 7.395
91.22000 4.795
91.24000 3.701
91.26000 5.482
91.28000 5.088
91.30000 6.857
91.32000 0.958
91.34000 2.326
91.36000 0.665
91.38000 -0.842
91.40000 2.998
91.42000 0.544
91.44000 -0.207
91.46000 -1.709
91.48000 -1.169
91.50000 1.033
91.52000 3.252
91.54000 5.621
91.56000 7.022
91.58000 2.664
91.60000 -2.325
91.62000 1.545
91.64000 4.823
91.66000 0.728
91.68000 7.373
91.70000 8.161
91.72000 3.706
91.74000 0.861
91.76000 1.816
91.78000 9.162
91.80000 8.252
91.82000 6.429
91.84000 5.987
91.86000 7.494
91.88000 3.883
91.90000 3.173
91.92000 2.582
91.94000 -2.321
91.96000 2.146
91.98000 7.815
92.00000 0.785
92.02000 1.617
92.04000 3.562
92.06000 3.495
92.08000 4.800
92.10000 3.421
92.12000 -2.053
92.14000 -1.509
92.16000 1.481
92.18000 3.042
92.20000 -1.785
92.22000 6.126
92.24000 4.692
92.26000 0.898
92.28000 1.219
92.30000 0.437
92.32000 3.192
92.34000 6.411
92.36000 8.747
92.38000 8.501
92.40000 8.608
92.42000 5.010
92.44000 -1.295
92.46000 5.223
92.48000 2.310
92.50000 4.322
92.52000 2.799
92.54000 5.768
92.56000 13.941
92.58000 10.331
92.60000 4.438
92.62000 -1.457
92.64000 -1.455
92.66000 4.803
92.68000 10.593
92.70000 7.632
92.72000 8.594
92.74000 5.867
92.76000 1.589
92.78000 2.748
92.80000 1.993
92.82000 3.966
92.84000 4.388
92.86000 -0.505
92.88000 0.319
92.90000 3.415
92.92000 7.904
92.94000 3.595
92.96000 -1.379
92.98000 -0.571
93.00000 6.596
93.02000 2.200
93.04000 -1.959
93.06000 0.654
93.08000 3.641
93.10000 5.876
93.12000 9.178
93.14000 6.153
93.16000 2.473
93.18000 4.433
93.20000 5.804
93.22000 3.480
93.24000 4.219
93.26000 6.587
93.28000 3.108
93.30000 6.060
93.32000 5.284
93.34000 8.972
93.36000 7.849
93.38000 1.051
93.40000 1.392
93.42000 3.559
93.44000 6.313
93.46000 0.972
93.48000 2.980
93.50000 6.701
93.52000 1.169
93.54000 0.610
93.56000 1.158
93.58000 0.059
93.60000 4.016
93.62000 6.345
93.64000 13.727
93.66000 7.605
93.68000 5.476
93.70000 6.140
93.72000 5.077
93.74000 4.278
93.76000 7.628
93.78000 2.418
93.80000 2.373
93.82000 2.681
93.84000 6.329
93.86000 2.630
93.88000 2.983
93.90000 4.941
93.92000 5.557
93.94000 5.921
93.96000 2.104
93.98000 3.622
94.00000 1.265
94.02000 4.944
94.04000 7.160
94.06000 10.800
94.08000 8.815
94.10000 5.755
94.12000 10.680
94.14000 10.187
94.16000 8.845
94.18000 7.953
94.20000 6.181
94.22000 -2.260
94.24000 -0.409
94.26000 1.642
94.28000 1.055
94.30000 3.654
94.32000 8.301
94.34000 8.712
94.36000 7.363
94.38000 5.069
94.40000 8.430
94.42000 4.875
94.44000 8.316
94.46000 6.111
94.48000 9.162
94.50000 8.313
94.52000 6.208
94.54000 6.348
94.56000 7.449
94.58000 4.577
94.60000 2.153
94.62000 4.504
94.64000 4.566
94.66000 8.136
94.68000 9.907
94.70000 10.496
94.72000 7.611
94.74000 9.739
94.76000 8.165
94.78000 12.826
94.80000 7.959
94.82000 4.366
94.84000 7.433
94.86000 8.502
94.88000 11.580
94.90000 6.458
94.92000 2.314
94.94000 3.701
94.96000 4.646
94.98000 5.795
95.00000 8.221
95.02000 8.156
95.04000 5.130
95.06000 4.880
95.08000 6.112
95.10000 8.034
95.12000 5.612
95.14000 3.557
95.16000 3.840
95.18000 5.129
95.20000 7.182
95.22000 6.151
95.24000 5.684
95.26000 5.698
95.28000 7.974
95.30000 7.682
95.32000 6.332
95.34000 5.477
95.36000 -2.299
95.38000 1.639
95.40000 4.468
95.42000 7.298
95.44000 6.508
95.46000 7.882
95.48000 9.175
95.50000 9.202
95.52000 7.270
95.54000 7.968
95.56000 10.742
95.58000 3.656
95.60000 5.473
95.62000 5.064
95.64000 3.973
95.66000 8.019
95.68000 7.628
95.70000 7.845
95.72000 6.994
95.74000 9.904
95.76000 7.851
95.78000 6.568
95.80000 6.334
95.82000 10.737
95.84000 6.251
95.86000 9.275
95.88000 5.796
95.90000 8.603
95.92000 0.823
95.94000 0.846
95.96000 0.899
95.98000 5.492
96.00000 9.447
96.02000 8.657
96.04000 6.652
96.06000 4.825
96.08000 6.460
96.10000 -1.005
96.12000 2.109
96.14000 2.571
96.16000 11.755
96.18000 8.264
96.20000 4.458
96.22000 2.505
96.24000 11.925
96.26000 9.096
96.28000 6.755
96.30000 4.896
96.32000 9.136
96.34000 9.581
96.36000 6.241
96.38000 4.664
96.40000 9.823
96.42000 14.598
96.44000 6.973
96.46000 2.847
96.48000 4.278
96.50000 2.607
96.52000 10.658
96.54000 8.900
96.56000 5.856
96.58000 -0.121
96.60000 3.957
96.62000 5.637
96.64000 6.774
96.66000 1.922
96.68000 2.579
96.70000 4.387
96.72000 3.473
96.74000 6.011
96.76000 7.557
96.78000 8.824
96.80000 -2.137
96.82000 5.192
96.84000 3.440
96.86000 5.271
96.88000 5.196
96.90000 1.068
96.92000 1.030
96.94000 10.107
96.96000 7.204
96.98000 10.816
97.00000 14.677
97.02000 12.122
97.04000 12.274
97.06000 3.493
97.08000 4.773
97.10000 0.582
97.12000 1.049
97.14000 3.546
97.16000 2.369
97.18000 -0.686
97.20000 3.397
97.22000 3.199
97.24000 1.496
97.26000 2.179
97.28000 4.252
97.30000 -2.328
97.32000 -0.173
97.34000 3.560
97.36000 9.635
97.38000 3.860
97.40000 7.268
97.42000 4.936
97.44000 2.240
97.46000 1.335
97.48000 2.682
97.50000 0.999
97.52000 0.483
97.54000 7.080
97.56000 11.910
97.58000 3.693
97.60000 5.346
97.62000 7.324
97.64000 8.189
97.66000 5.231
97.68000 2.315
97.70000 2.021
97.72000 1.534
97.74000 1.648
97.76000 7.286
97.78000 3.006
97.80000 -2.315
97.82000 0.714
97.84000 5.302
97.86000 10.050
97.88000 10.674
97.90000 14.787
97.92000 6.610
97.94000 3.756
97.96000 2.947
97.98000 -0.337
98.00000 5.842
98.02000 -0.532
98.04000 5.041
98.06000 4.553
98.08000 8.080
98.10000 14.486
98.12000 10.031
98.14000 7.327
98.16000 12.640
98.18000 8.397
98.20000 2.012
98.22000 0.512
98.24000 -2.291
98.26000 -0.014
98.28000 2.702
98.30000 -0.932
98.32000 4.383
98.34000 11.817
98.36000 9.494
98.38000 8.320
98.40000 5.233
98.42000 1.602
98.44000 6.265
98.46000 13.632
98.48000 10.559
98.50000 10.516
98.52000 6.644
98.54000 4.447
98.56000 -1.152
98.58000 3.855
98.60000 9.254
98.62000 14.772
98.64000 9.591
98.66000 10.421
98.68000 7.604
98.70000 5.970
98.72000 3.096
98.74000 -2.253
98.76000 5.930
98.78000 7.799
98.80000 3.446
98.82000 7.063
98.84000 11.175
98.86000 14.489
98.88000 14.350
98.90000 6.368
98.92000 6.306
98.94000 11.163
98.96000 2.844
98.98000 -0.955
99.00000 4.680
99.02000 8.317
99.04000 0.558
99.06000 3.916
99.08000 6.987
99.10000 11.982
99.12000 8.301
99.14000 8.981
99.16000 6.562
99.18000 4.687
99.20000 10.593
99.22000 13.245
99.24000 14.019
99.26000 7.563
99.28000 5.262
99.30000 2.892
99.32000 15.168
99.34000 10.078
99.36000 3.655
99.38000 3.895
99.40000 7.725
99.42000 15.047
99.44000 8.742
99.46000 5.727
99.48000 12.845
99.50000 13.744
99.52000 4.258
99.54000 4.357
99.56000 5.116
99.58000 3.299
99.60000 13.508
99.62000 12.409
99.64000 14.345
99.66000 14.804
99.68000 11.522
99.70000 11.253
99.72000 5.090
99.74000 4.057
99.76000 20.924
99.78000 8.958
99.80000 11.433
99.82000 18.650
99.84000 4.818
99.86000 -3.597
99.88000 4.208
99.90000 12.711
99.92000 -8.521
99.94000 2.338
99.96000 4.896
99.98000 0.000
