'Id: "0011388" Comment: "Integrate frame 0011388_Au-Ir-Rh_Rh-rich_XRD-Mapping-011-0000.gfrmwith cursor Wedge Cursor #5" Operator: "B?rgel" Anode: "Cu" Wavelength: "1.5406" Scantype: "2Theta (TwoTheta)" TimePerStep: "1" X: "-27" Y: "-36" Z: "5.95" 
10.00000 0.000
10.02000 6.753
10.04000 -4.736
10.06000 16.547
10.08000 -4.449
10.10000 5.380
10.12000 12.607
10.14000 18.549
10.16000 5.975
10.18000 -3.553
10.20000 -1.350
10.22000 -0.680
10.24000 -4.563
10.26000 15.309
10.28000 23.609
10.30000 15.815
10.32000 11.785
10.34000 5.635
10.36000 7.907
10.38000 17.349
10.40000 14.270
10.42000 25.373
10.44000 14.595
10.46000 20.316
10.48000 16.878
10.50000 10.238
10.52000 -6.544
10.54000 11.759
10.56000 -2.640
10.58000 5.441
10.60000 22.190
10.62000 26.576
10.64000 22.991
10.66000 17.174
10.68000 10.823
10.70000 14.163
10.72000 19.193
10.74000 27.269
10.76000 16.664
10.78000 -1.488
10.80000 13.363
10.82000 24.158
10.84000 20.544
10.86000 16.308
10.88000 8.465
10.90000 4.192
10.92000 4.016
10.94000 28.195
10.96000 39.064
10.98000 21.200
11.00000 3.116
11.02000 -4.396
11.04000 7.006
11.06000 14.709
11.08000 21.162
11.10000 29.164
11.12000 -2.444
11.14000 -2.073
11.16000 3.155
11.18000 12.142
11.20000 15.155
11.22000 6.908
11.24000 -1.387
11.26000 7.831
11.28000 15.098
11.30000 4.287
11.32000 15.149
11.34000 12.022
11.36000 6.230
11.38000 -0.609
11.40000 4.985
11.42000 5.975
11.44000 2.035
11.46000 10.052
11.48000 2.861
11.50000 0.811
11.52000 9.261
11.54000 8.979
11.56000 16.285
11.58000 19.222
11.60000 10.359
11.62000 8.472
11.64000 11.907
11.66000 7.228
11.68000 5.713
11.70000 0.975
11.72000 13.960
11.74000 18.733
11.76000 16.838
11.78000 8.774
11.80000 16.351
11.82000 20.338
11.84000 -4.507
11.86000 -0.203
11.88000 11.823
11.90000 15.505
11.92000 17.948
11.94000 14.733
11.96000 9.384
11.98000 19.913
12.00000 8.890
12.02000 2.394
12.04000 3.350
12.06000 9.149
12.08000 27.765
12.10000 13.439
12.12000 2.589
12.14000 13.737
12.16000 22.657
12.18000 17.992
12.20000 11.182
12.22000 0.955
12.24000 1.554
12.26000 9.923
12.28000 3.935
12.30000 -2.660
12.32000 9.178
12.34000 20.858
12.36000 21.500
12.38000 14.112
12.40000 9.102
12.42000 10.587
12.44000 7.336
12.46000 2.406
12.48000 12.766
12.50000 16.016
12.52000 8.170
12.54000 -1.293
12.56000 2.050
12.58000 5.153
12.60000 13.420
12.62000 15.366
12.64000 15.991
12.66000 13.416
12.68000 11.889
12.70000 12.907
12.72000 -1.056
12.74000 7.141
12.76000 19.490
12.78000 26.304
12.80000 13.022
12.82000 -2.425
12.84000 6.896
12.86000 5.062
12.88000 6.930
12.90000 13.764
12.92000 7.544
12.94000 -4.500
12.96000 2.477
12.98000 -0.174
13.00000 5.802
13.02000 4.704
13.04000 3.877
13.06000 11.442
13.08000 8.642
13.10000 10.646
13.12000 14.234
13.14000 16.644
13.16000 18.366
13.18000 18.580
13.20000 8.963
13.22000 7.755
13.24000 12.534
13.26000 13.037
13.28000 13.522
13.30000 23.906
13.32000 25.203
13.34000 12.315
13.36000 18.919
13.38000 29.448
13.40000 20.996
13.42000 15.590
13.44000 2.174
13.46000 3.190
13.48000 9.788
13.50000 7.234
13.52000 1.430
13.54000 8.444
13.56000 14.585
13.58000 9.354
13.60000 6.345
13.62000 6.360
13.64000 7.300
13.66000 3.966
13.68000 0.864
13.70000 1.274
13.72000 6.224
13.74000 9.493
13.76000 16.946
13.78000 9.588
13.80000 7.282
13.82000 11.449
13.84000 11.102
13.86000 14.214
13.88000 12.627
13.90000 11.731
13.92000 10.543
13.94000 7.651
13.96000 12.150
13.98000 12.592
14.00000 11.696
14.02000 6.993
14.04000 4.819
14.06000 1.162
14.08000 16.015
14.10000 20.695
14.12000 23.898
14.14000 23.180
14.16000 9.791
14.18000 10.527
14.20000 10.529
14.22000 16.897
14.24000 18.075
14.26000 11.013
14.28000 12.732
14.30000 15.595
14.32000 16.223
14.34000 7.019
14.36000 3.265
14.38000 11.305
14.40000 12.504
14.42000 13.963
14.44000 12.075
14.46000 10.667
14.48000 10.151
14.50000 8.964
14.52000 12.612
14.54000 9.958
14.56000 3.403
14.58000 6.668
14.60000 8.756
14.62000 9.132
14.64000 17.484
14.66000 11.855
14.68000 2.949
14.70000 4.626
14.72000 14.880
14.74000 20.365
14.76000 19.422
14.78000 20.348
14.80000 18.387
14.82000 8.698
14.84000 12.633
14.86000 14.402
14.88000 13.578
14.90000 10.404
14.92000 17.593
14.94000 9.964
14.96000 1.864
14.98000 3.628
15.00000 4.756
15.02000 7.127
15.04000 14.795
15.06000 13.173
15.08000 10.568
15.10000 6.571
15.12000 6.463
15.14000 10.351
15.16000 15.847
15.18000 18.334
15.20000 18.177
15.22000 13.825
15.24000 13.104
15.26000 20.426
15.28000 20.957
15.30000 25.166
15.32000 26.016
15.34000 13.869
15.36000 9.840
15.38000 12.491
15.40000 14.623
15.42000 16.699
15.44000 9.527
15.46000 7.720
15.48000 18.389
15.50000 9.198
15.52000 17.196
15.54000 15.663
15.56000 0.271
15.58000 -4.344
15.60000 6.102
15.62000 9.362
15.64000 7.194
15.66000 11.967
15.68000 8.590
15.70000 14.993
15.72000 17.326
15.74000 18.675
15.76000 17.676
15.78000 0.813
15.80000 -0.181
15.82000 7.069
15.84000 8.495
15.86000 0.970
15.88000 4.302
15.90000 11.487
15.92000 17.900
15.94000 16.233
15.96000 7.990
15.98000 16.089
16.00000 12.578
16.02000 4.402
16.04000 2.602
16.06000 8.491
16.08000 11.349
16.10000 15.618
16.12000 8.259
16.14000 8.298
16.16000 1.473
16.18000 3.565
16.20000 6.212
16.22000 3.154
16.24000 10.359
16.26000 3.475
16.28000 3.450
16.30000 7.189
16.32000 13.534
16.34000 9.450
16.36000 3.956
16.38000 8.233
16.40000 16.618
16.42000 10.358
16.44000 9.544
16.46000 3.977
16.48000 4.712
16.50000 12.636
16.52000 9.009
16.54000 4.474
16.56000 2.638
16.58000 2.940
16.60000 6.237
16.62000 7.435
16.64000 7.713
16.66000 1.413
16.68000 0.267
16.70000 -4.309
16.72000 -2.547
16.74000 14.146
16.76000 16.275
16.78000 8.753
16.80000 10.987
16.82000 0.718
16.84000 3.295
16.86000 6.735
16.88000 7.491
16.90000 6.833
16.92000 4.957
16.94000 5.103
16.96000 9.860
16.98000 15.542
17.00000 16.305
17.02000 14.140
17.04000 8.668
17.06000 2.445
17.08000 2.398
17.10000 0.618
17.12000 3.003
17.14000 3.230
17.16000 1.202
17.18000 -0.665
17.20000 0.774
17.22000 15.412
17.24000 12.400
17.26000 7.097
17.28000 6.556
17.30000 10.951
17.32000 8.195
17.34000 12.878
17.36000 8.401
17.38000 10.637
17.40000 2.738
17.42000 4.035
17.44000 17.128
17.46000 7.962
17.48000 9.148
17.50000 7.730
17.52000 11.828
17.54000 12.382
17.56000 4.124
17.58000 -4.306
17.60000 4.916
17.62000 9.554
17.64000 8.464
17.66000 3.981
17.68000 9.793
17.70000 10.133
17.72000 2.817
17.74000 7.424
17.76000 6.016
17.78000 4.919
17.80000 4.449
17.82000 6.317
17.84000 5.514
17.86000 10.968
17.88000 12.968
17.90000 1.686
17.92000 -3.457
17.94000 -1.134
17.96000 4.188
17.98000 5.287
18.00000 10.006
18.02000 7.315
18.04000 5.256
18.06000 4.036
18.08000 3.313
18.10000 8.355
18.12000 7.406
18.14000 6.855
18.16000 0.729
18.18000 3.793
18.20000 5.867
18.22000 0.253
18.24000 4.915
18.26000 10.895
18.28000 8.043
18.30000 8.025
18.32000 10.016
18.34000 1.503
18.36000 2.953
18.38000 -4.270
18.40000 2.521
18.42000 11.487
18.44000 8.708
18.46000 4.857
18.48000 0.158
18.50000 6.006
18.52000 8.240
18.54000 6.968
18.56000 5.240
18.58000 0.710
18.60000 -0.586
18.62000 -3.261
18.64000 -3.083
18.66000 3.410
18.68000 5.859
18.70000 -2.842
18.72000 3.108
18.74000 -2.102
18.76000 -2.841
18.78000 1.787
18.80000 5.395
18.82000 7.411
18.84000 6.092
18.86000 5.971
18.88000 9.716
18.90000 4.591
18.92000 -1.336
18.94000 1.303
18.96000 5.545
18.98000 7.086
19.00000 2.615
19.02000 7.469
19.04000 7.222
19.06000 8.649
19.08000 9.038
19.10000 5.552
19.12000 -0.978
19.14000 1.551
19.16000 10.832
19.18000 6.048
19.20000 3.494
19.22000 1.331
19.24000 -4.212
19.26000 -3.587
19.28000 2.128
19.30000 11.222
19.32000 14.706
19.34000 13.442
19.36000 7.435
19.38000 6.946
19.40000 0.767
19.42000 -0.486
19.44000 2.285
19.46000 10.280
19.48000 5.963
19.50000 7.745
19.52000 4.055
19.54000 1.832
19.56000 7.735
19.58000 8.891
19.60000 6.300
19.62000 11.757
19.64000 16.945
19.66000 7.576
19.68000 1.862
19.70000 1.077
19.72000 3.057
19.74000 4.558
19.76000 5.976
19.78000 2.528
19.80000 1.767
19.82000 0.560
19.84000 -4.163
19.86000 6.562
19.88000 8.041
19.90000 0.045
19.92000 -0.774
19.94000 1.767
19.96000 6.827
19.98000 12.794
20.00000 10.867
20.02000 15.245
20.04000 13.346
20.06000 7.221
20.08000 7.256
20.10000 6.409
20.12000 8.334
20.14000 4.218
20.16000 -1.010
20.18000 0.263
20.20000 -4.141
20.22000 2.290
20.24000 8.784
20.26000 7.742
20.28000 9.839
20.30000 12.676
20.32000 10.612
20.34000 8.783
20.36000 6.237
20.38000 8.575
20.40000 17.681
20.42000 16.230
20.44000 9.327
20.46000 3.862
20.48000 7.833
20.50000 10.959
20.52000 10.268
20.54000 9.583
20.56000 4.177
20.58000 1.327
20.60000 4.265
20.62000 3.035
20.64000 5.239
20.66000 5.182
20.68000 4.575
20.70000 5.460
20.72000 5.619
20.74000 1.996
20.76000 1.075
20.78000 -1.215
20.80000 2.290
20.82000 12.482
20.84000 9.906
20.86000 1.041
20.88000 2.232
20.90000 4.543
20.92000 3.861
20.94000 8.146
20.96000 6.431
20.98000 -1.598
21.00000 1.439
21.02000 3.070
21.04000 6.310
21.06000 2.980
21.08000 -0.066
21.10000 -1.295
21.12000 6.114
21.14000 7.137
21.16000 3.211
21.18000 -1.094
21.20000 8.359
21.22000 8.978
21.24000 8.268
21.26000 4.512
21.28000 4.105
21.30000 7.344
21.32000 9.644
21.34000 1.871
21.36000 7.086
21.38000 7.052
21.40000 3.212
21.42000 5.362
21.44000 5.875
21.46000 -0.604
21.48000 1.554
21.50000 8.032
21.52000 6.917
21.54000 2.405
21.56000 7.770
21.58000 4.296
21.60000 2.504
21.62000 -3.396
21.64000 0.507
21.66000 0.243
21.68000 -0.045
21.70000 7.580
21.72000 3.722
21.74000 3.155
21.76000 -0.800
21.78000 1.907
21.80000 -1.221
21.82000 4.670
21.84000 8.432
21.86000 7.568
21.88000 5.466
21.90000 6.564
21.92000 4.569
21.94000 3.344
21.96000 6.407
21.98000 10.638
22.00000 9.880
22.02000 5.431
22.04000 7.786
22.06000 8.498
22.08000 9.923
22.10000 8.510
22.12000 12.640
22.14000 11.114
22.16000 6.554
22.18000 3.554
22.20000 6.736
22.22000 3.403
22.24000 7.629
22.26000 14.928
22.28000 16.966
22.30000 12.745
22.32000 6.215
22.34000 -0.312
22.36000 -3.992
22.38000 2.108
22.40000 5.565
22.42000 7.150
22.44000 8.910
22.46000 9.852
22.48000 9.549
22.50000 7.757
22.52000 11.885
22.54000 7.619
22.56000 0.935
22.58000 4.739
22.60000 3.482
22.62000 3.728
22.64000 0.770
22.66000 5.216
22.68000 9.190
22.70000 7.347
22.72000 6.225
22.74000 5.060
22.76000 3.313
22.78000 4.826
22.80000 4.184
22.82000 1.988
22.84000 1.110
22.86000 6.242
22.88000 4.901
22.90000 4.466
22.92000 4.257
22.94000 -1.636
22.96000 3.408
22.98000 9.227
23.00000 2.390
23.02000 0.968
23.04000 -3.444
23.06000 -0.497
23.08000 -2.432
23.10000 4.003
23.12000 6.117
23.14000 4.981
23.16000 6.098
23.18000 6.492
23.20000 6.545
23.22000 5.519
23.24000 5.578
23.26000 4.738
23.28000 1.851
23.30000 -0.927
23.32000 -2.366
23.34000 2.738
23.36000 1.743
23.38000 -1.153
23.40000 4.951
23.42000 5.843
23.44000 6.270
23.46000 5.284
23.48000 2.313
23.50000 4.135
23.52000 3.465
23.54000 5.028
23.56000 2.505
23.58000 4.731
23.60000 2.700
23.62000 4.772
23.64000 3.114
23.66000 0.972
23.68000 -0.727
23.70000 -1.240
23.72000 -2.680
23.74000 2.115
23.76000 4.468
23.78000 2.704
23.80000 5.511
23.82000 3.749
23.84000 3.002
23.86000 7.109
23.88000 3.994
23.90000 6.087
23.92000 7.764
23.94000 2.677
23.96000 2.731
23.98000 7.636
24.00000 4.868
24.02000 5.264
24.04000 2.709
24.06000 4.297
24.08000 9.189
24.10000 8.109
24.12000 7.350
24.14000 6.502
24.16000 5.792
24.18000 -0.584
24.20000 5.916
24.22000 2.839
24.24000 4.128
24.26000 6.666
24.28000 6.192
24.30000 6.931
24.32000 7.919
24.34000 10.381
24.36000 13.148
24.38000 5.359
24.40000 6.902
24.42000 12.131
24.44000 11.813
24.46000 8.636
24.48000 12.663
24.50000 10.120
24.52000 1.563
24.54000 2.091
24.56000 -1.787
24.58000 -3.893
24.60000 -2.382
24.62000 0.943
24.64000 5.268
24.66000 3.047
24.68000 0.688
24.70000 2.144
24.72000 2.251
24.74000 1.184
24.76000 7.075
24.78000 2.600
24.80000 -2.538
24.82000 1.798
24.84000 2.368
24.86000 1.831
24.88000 -3.878
24.90000 2.891
24.92000 3.695
24.94000 0.806
24.96000 -3.868
24.98000 -0.504
25.00000 7.832
25.02000 9.297
25.04000 5.315
25.06000 -1.079
25.08000 0.343
25.10000 10.084
25.12000 12.392
25.14000 4.643
25.16000 0.202
25.18000 0.794
25.20000 2.294
25.22000 7.817
25.24000 3.696
25.26000 0.470
25.28000 3.426
25.30000 2.321
25.32000 6.209
25.34000 2.436
25.36000 -3.076
25.38000 6.158
25.40000 6.448
25.42000 5.899
25.44000 6.662
25.46000 4.641
25.48000 1.244
25.50000 2.849
25.52000 1.639
25.54000 -0.333
25.56000 10.200
25.58000 6.677
25.60000 2.762
25.62000 9.952
25.64000 9.444
25.66000 4.048
25.68000 6.961
25.70000 7.622
25.72000 4.707
25.74000 2.869
25.76000 4.774
25.78000 7.962
25.80000 11.816
25.82000 9.362
25.84000 5.914
25.86000 7.134
25.88000 4.727
25.90000 -0.060
25.92000 6.580
25.94000 4.948
25.96000 10.254
25.98000 11.894
26.00000 10.359
26.02000 9.743
26.04000 11.493
26.06000 7.114
26.08000 4.444
26.10000 3.563
26.12000 1.738
26.14000 3.383
26.16000 5.341
26.18000 7.295
26.20000 3.735
26.22000 0.130
26.24000 0.881
26.26000 7.601
26.28000 8.417
26.30000 9.629
26.32000 7.395
26.34000 3.464
26.36000 5.443
26.38000 6.493
26.40000 6.517
26.42000 9.067
26.44000 8.970
26.46000 3.956
26.48000 -3.788
26.50000 -0.530
26.52000 0.906
26.54000 2.940
26.56000 7.073
26.58000 5.005
26.60000 2.240
26.62000 4.619
26.64000 3.081
26.66000 4.331
26.68000 4.622
26.70000 8.219
26.72000 4.104
26.74000 8.303
26.76000 6.655
26.78000 0.846
26.80000 -0.573
26.82000 1.901
26.84000 -0.610
26.86000 5.242
26.88000 7.685
26.90000 5.994
26.92000 4.896
26.94000 2.423
26.96000 1.882
26.98000 2.131
27.00000 5.420
27.02000 4.277
27.04000 5.082
27.06000 2.579
27.08000 0.363
27.10000 0.267
27.12000 4.607
27.14000 4.490
27.16000 0.769
27.18000 -2.109
27.20000 -0.308
27.22000 1.623
27.24000 3.859
27.26000 4.750
27.28000 8.081
27.30000 0.940
27.32000 1.502
27.34000 3.966
27.36000 1.777
27.38000 5.572
27.40000 6.573
27.42000 5.845
27.44000 5.788
27.46000 -2.600
27.48000 0.144
27.50000 2.348
27.52000 0.704
27.54000 1.624
27.56000 1.751
27.58000 1.050
27.60000 -1.579
27.62000 -1.715
27.64000 3.615
27.66000 -2.980
27.68000 -0.343
27.70000 2.070
27.72000 2.701
27.74000 3.899
27.76000 0.378
27.78000 6.359
27.80000 3.681
27.82000 2.828
27.84000 4.913
27.86000 4.238
27.88000 6.152
27.90000 6.589
27.92000 3.451
27.94000 0.628
27.96000 -1.763
27.98000 -2.677
28.00000 -3.683
28.02000 1.955
28.04000 3.592
28.06000 1.813
28.08000 -1.209
28.10000 -2.103
28.12000 -0.436
28.14000 -0.376
28.16000 2.680
28.18000 6.052
28.20000 6.839
28.22000 4.995
28.24000 0.528
28.26000 1.278
28.28000 4.625
28.30000 1.692
28.32000 -1.005
28.34000 1.632
28.36000 -1.673
28.38000 1.694
28.40000 -0.085
28.42000 0.629
28.44000 -0.797
28.46000 -1.234
28.48000 -3.428
28.50000 -0.803
28.52000 2.809
28.54000 -0.394
28.56000 1.139
28.58000 3.010
28.60000 -2.423
28.62000 2.335
28.64000 3.271
28.66000 0.621
28.68000 7.091
28.70000 6.151
28.72000 5.843
28.74000 5.263
28.76000 1.015
28.78000 0.310
28.80000 1.733
28.82000 -1.974
28.84000 -3.548
28.86000 -3.691
28.88000 -0.719
28.90000 -1.799
28.92000 2.898
28.94000 5.023
28.96000 1.769
28.98000 -0.726
29.00000 1.246
29.02000 5.097
29.04000 5.169
29.06000 3.091
29.08000 1.604
29.10000 7.017
29.12000 9.550
29.14000 0.819
29.16000 -0.373
29.18000 5.590
29.20000 6.356
29.22000 5.134
29.24000 -3.179
29.26000 0.370
29.28000 6.418
29.30000 4.103
29.32000 1.526
29.34000 6.404
29.36000 7.106
29.38000 3.880
29.40000 3.630
29.42000 3.311
29.44000 0.453
29.46000 -0.646
29.48000 0.355
29.50000 3.398
29.52000 2.584
29.54000 -0.966
29.56000 0.863
29.58000 4.944
29.60000 0.160
29.62000 -0.859
29.64000 3.464
29.66000 4.158
29.68000 -0.040
29.70000 -0.697
29.72000 0.123
29.74000 -1.036
29.76000 1.612
29.78000 6.052
29.80000 6.472
29.82000 1.003
29.84000 2.543
29.86000 5.001
29.88000 4.148
29.90000 5.462
29.92000 3.646
29.94000 5.617
29.96000 9.213
29.98000 7.010
30.00000 2.181
30.02000 1.231
30.04000 -3.620
30.06000 1.766
30.08000 1.386
30.10000 2.159
30.12000 7.328
30.14000 5.587
30.16000 6.621
30.18000 5.053
30.20000 6.003
30.22000 2.380
30.24000 2.744
30.26000 -1.118
30.28000 -3.619
30.30000 -0.450
30.32000 0.157
30.34000 4.890
30.36000 6.951
30.38000 4.751
30.40000 4.991
30.42000 6.061
30.44000 5.723
30.46000 3.263
30.48000 -0.465
30.50000 1.482
30.52000 3.243
30.54000 8.144
30.56000 3.819
30.58000 6.517
30.60000 5.950
30.62000 5.974
30.64000 1.189
30.66000 -1.485
30.68000 -2.010
30.70000 0.017
30.72000 1.732
30.74000 -2.286
30.76000 1.758
30.78000 2.067
30.80000 0.150
30.82000 -2.744
30.84000 2.637
30.86000 4.603
30.88000 2.437
30.90000 0.118
30.92000 -0.266
30.94000 8.206
30.96000 5.192
30.98000 1.800
31.00000 2.018
31.02000 7.876
31.04000 2.241
31.06000 0.674
31.08000 3.073
31.10000 3.965
31.12000 2.874
31.14000 2.780
31.16000 -2.545
31.18000 -2.181
31.20000 -0.424
31.22000 1.888
31.24000 1.184
31.26000 0.672
31.28000 -0.426
31.30000 2.162
31.32000 6.300
31.34000 3.529
31.36000 0.725
31.38000 3.377
31.40000 5.375
31.42000 7.559
31.44000 5.087
31.46000 1.247
31.48000 -3.116
31.50000 1.283
31.52000 -2.206
31.54000 -1.162
31.56000 4.528
31.58000 3.263
31.60000 1.698
31.62000 4.433
31.64000 3.160
31.66000 1.337
31.68000 0.931
31.70000 5.080
31.72000 1.601
31.74000 0.364
31.76000 5.774
31.78000 3.606
31.80000 1.264
31.82000 4.113
31.84000 8.124
31.86000 5.303
31.88000 7.903
31.90000 8.105
31.92000 4.006
31.94000 5.867
31.96000 5.134
31.98000 4.121
32.00000 6.026
32.02000 4.688
32.04000 -1.775
32.06000 2.214
32.08000 1.543
32.10000 2.125
32.12000 4.543
32.14000 7.720
32.16000 6.484
32.18000 4.642
32.20000 4.754
32.22000 5.998
32.24000 7.131
32.26000 7.183
32.28000 7.687
32.30000 4.450
32.32000 4.741
32.34000 12.487
32.36000 14.444
32.38000 11.755
32.40000 8.047
32.42000 5.672
32.44000 -3.490
32.46000 -0.484
32.48000 6.646
32.50000 5.535
32.52000 5.879
32.54000 2.786
32.56000 1.990
32.58000 2.537
32.60000 -2.191
32.62000 4.671
32.64000 9.540
32.66000 14.006
32.68000 9.340
32.70000 7.482
32.72000 2.693
32.74000 4.190
32.76000 2.248
32.78000 -2.440
32.80000 1.096
32.82000 6.405
32.84000 2.086
32.86000 0.280
32.88000 4.210
32.90000 3.047
32.92000 4.961
32.94000 2.120
32.96000 4.291
32.98000 5.450
33.00000 4.289
33.02000 2.843
33.04000 1.453
33.06000 0.815
33.08000 1.185
33.10000 5.204
33.12000 7.242
33.14000 6.133
33.16000 8.648
33.18000 7.432
33.20000 2.719
33.22000 0.341
33.24000 1.599
33.26000 8.594
33.28000 5.889
33.30000 3.916
33.32000 -2.252
33.34000 1.417
33.36000 1.460
33.38000 3.647
33.40000 4.162
33.42000 8.536
33.44000 8.511
33.46000 3.367
33.48000 3.522
33.50000 5.076
33.52000 5.460
33.54000 3.935
33.56000 4.726
33.58000 5.584
33.60000 3.980
33.62000 8.195
33.64000 4.718
33.66000 6.333
33.68000 5.479
33.70000 0.238
33.72000 -3.498
33.74000 1.213
33.76000 3.810
33.78000 1.444
33.80000 3.656
33.82000 4.316
33.84000 5.898
33.86000 8.036
33.88000 3.563
33.90000 2.960
33.92000 3.405
33.94000 5.874
33.96000 4.301
33.98000 4.580
34.00000 8.147
34.02000 10.864
34.04000 8.176
34.06000 5.803
34.08000 1.231
34.10000 2.319
34.12000 5.455
34.14000 9.812
34.16000 2.557
34.18000 0.906
34.20000 3.220
34.22000 5.451
34.24000 4.297
34.26000 4.647
34.28000 2.218
34.30000 1.093
34.32000 2.691
34.34000 5.436
34.36000 3.590
34.38000 1.704
34.40000 -3.471
34.42000 -1.144
34.44000 3.111
34.46000 1.839
34.48000 4.946
34.50000 -0.719
34.52000 -1.530
34.54000 3.868
34.56000 2.685
34.58000 1.794
34.60000 -1.548
34.62000 -1.695
34.64000 2.533
34.66000 3.303
34.68000 2.806
34.70000 3.347
34.72000 4.368
34.74000 3.207
34.76000 4.414
34.78000 2.765
34.80000 -1.981
34.82000 -2.692
34.84000 -2.145
34.86000 0.547
34.88000 6.254
34.90000 6.793
34.92000 7.093
34.94000 4.158
34.96000 -0.210
34.98000 4.571
35.00000 4.520
35.02000 0.965
35.04000 -0.742
35.06000 -0.431
35.08000 -3.123
35.10000 0.756
35.12000 0.187
35.14000 -3.152
35.16000 -0.075
35.18000 2.452
35.20000 1.737
35.22000 0.676
35.24000 2.570
35.26000 2.387
35.28000 7.075
35.30000 3.176
35.32000 5.271
35.34000 2.455
35.36000 -3.310
35.38000 -2.216
35.40000 -1.531
35.42000 1.936
35.44000 0.792
35.46000 3.421
35.48000 0.463
35.50000 -0.775
35.52000 1.924
35.54000 5.312
35.56000 2.533
35.58000 0.770
35.60000 2.410
35.62000 0.686
35.64000 -0.013
35.66000 -2.284
35.68000 1.574
35.70000 2.420
35.72000 3.062
35.74000 5.659
35.76000 -3.442
35.78000 -2.195
35.80000 2.601
35.82000 3.940
35.84000 4.599
35.86000 2.428
35.88000 5.284
35.90000 4.867
35.92000 0.138
35.94000 -2.499
35.96000 0.666
35.98000 1.585
36.00000 3.280
36.02000 7.563
36.04000 4.754
36.06000 -2.131
36.08000 2.093
36.10000 4.853
36.12000 1.979
36.14000 2.719
36.16000 2.853
36.18000 2.132
36.20000 4.947
36.22000 6.534
36.24000 8.639
36.26000 7.592
36.28000 9.004
36.30000 3.707
36.32000 2.374
36.34000 -0.980
36.36000 0.468
36.38000 4.910
36.40000 2.515
36.42000 -3.433
36.44000 0.163
36.46000 1.520
36.48000 1.969
36.50000 0.815
36.52000 -1.056
36.54000 1.806
36.56000 5.855
36.58000 4.703
36.60000 3.268
36.62000 3.468
36.64000 4.657
36.66000 4.424
36.68000 7.120
36.70000 8.466
36.72000 3.208
36.74000 0.687
36.76000 0.395
36.78000 3.705
36.80000 3.182
36.82000 1.258
36.84000 -0.692
36.86000 2.984
36.88000 1.349
36.90000 -3.452
36.92000 -2.611
36.94000 2.181
36.96000 3.676
36.98000 7.570
37.00000 6.373
37.02000 3.511
37.04000 5.618
37.06000 7.272
37.08000 5.060
37.10000 4.269
37.12000 1.620
37.14000 5.618
37.16000 4.996
37.18000 5.246
37.20000 1.537
37.22000 -0.219
37.24000 0.915
37.26000 1.624
37.28000 1.769
37.30000 2.176
37.32000 3.839
37.34000 1.974
37.36000 4.222
37.38000 4.299
37.40000 2.887
37.42000 3.071
37.44000 1.859
37.46000 -0.649
37.48000 -3.466
37.50000 -0.149
37.52000 0.699
37.54000 3.421
37.56000 3.854
37.58000 1.446
37.60000 2.363
37.62000 2.845
37.64000 3.937
37.66000 1.673
37.68000 -0.171
37.70000 4.254
37.72000 5.377
37.74000 3.196
37.76000 -2.076
37.78000 1.090
37.80000 5.633
37.82000 6.233
37.84000 4.377
37.86000 4.118
37.88000 0.364
37.90000 6.989
37.92000 6.207
37.94000 6.154
37.96000 1.650
37.98000 -0.555
38.00000 -2.363
38.02000 1.205
38.04000 4.564
38.06000 8.387
38.08000 8.050
38.10000 6.511
38.12000 8.486
38.14000 3.480
38.16000 4.435
38.18000 7.925
38.20000 8.924
38.22000 9.576
38.24000 10.462
38.26000 10.632
38.28000 13.620
38.30000 10.646
38.32000 12.733
38.34000 5.902
38.36000 8.020
38.38000 7.921
38.40000 8.730
38.42000 11.478
38.44000 11.358
38.46000 13.762
38.48000 11.874
38.50000 11.598
38.52000 14.420
38.54000 17.081
38.56000 11.584
38.58000 14.934
38.60000 19.717
38.62000 12.932
38.64000 12.749
38.66000 12.731
38.68000 14.806
38.70000 16.751
38.72000 17.723
38.74000 13.580
38.76000 16.855
38.78000 16.948
38.80000 18.377
38.82000 14.401
38.84000 16.798
38.86000 18.575
38.88000 19.822
38.90000 19.831
38.92000 21.925
38.94000 22.319
38.96000 26.865
38.98000 24.787
39.00000 27.758
39.02000 28.168
39.04000 27.514
39.06000 28.924
39.08000 29.022
39.10000 29.888
39.12000 29.659
39.14000 30.969
39.16000 31.980
39.18000 33.131
39.20000 38.662
39.22000 36.023
39.24000 39.007
39.26000 36.229
39.28000 37.305
39.30000 39.351
39.32000 45.559
39.34000 42.818
39.36000 46.742
39.38000 45.855
39.40000 41.763
39.42000 40.919
39.44000 53.450
39.46000 56.029
39.48000 55.893
39.50000 56.906
39.52000 61.265
39.54000 65.078
39.56000 67.213
39.58000 70.207
39.60000 70.210
39.62000 72.855
39.64000 75.012
39.66000 77.634
39.68000 83.908
39.70000 89.028
39.72000 89.457
39.74000 93.961
39.76000 101.388
39.78000 102.765
39.80000 105.082
39.82000 110.779
39.84000 118.305
39.86000 125.974
39.88000 137.708
39.90000 146.180
39.92000 149.035
39.94000 155.563
39.96000 165.773
39.98000 180.844
40.00000 185.372
40.02000 198.122
40.04000 208.606
40.06000 220.738
40.08000 235.809
40.10000 246.388
40.12000 259.873
40.14000 274.186
40.16000 288.635
40.18000 305.559
40.20000 322.781
40.22000 335.542
40.24000 362.888
40.26000 378.146
40.28000 404.009
40.30000 421.520
40.32000 437.867
40.34000 456.351
40.36000 476.656
40.38000 493.215
40.40000 516.014
40.42000 541.124
40.44000 560.753
40.46000 587.364
40.48000 600.185
40.50000 605.853
40.52000 615.267
40.54000 622.891
40.56000 641.594
40.58000 652.236
40.60000 654.944
40.62000 650.909
40.64000 646.678
40.66000 652.176
40.68000 648.648
40.70000 632.726
40.72000 625.999
40.74000 623.418
40.76000 604.294
40.78000 595.786
40.80000 587.466
40.82000 570.018
40.84000 552.696
40.86000 534.020
40.88000 508.143
40.90000 489.135
40.92000 467.977
40.94000 450.891
40.96000 425.053
40.98000 405.605
41.00000 391.660
41.02000 378.012
41.04000 357.433
41.06000 332.796
41.08000 313.785
41.10000 299.533
41.12000 288.571
41.14000 280.237
41.16000 257.124
41.18000 244.282
41.20000 224.725
41.22000 211.436
41.24000 202.251
41.26000 191.712
41.28000 184.671
41.30000 177.912
41.32000 168.908
41.34000 159.288
41.36000 146.593
41.38000 139.908
41.40000 135.365
41.42000 127.654
41.44000 124.340
41.46000 111.473
41.48000 105.607
41.50000 103.445
41.52000 93.698
41.54000 85.701
41.56000 80.722
41.58000 76.029
41.60000 76.250
41.62000 73.872
41.64000 68.200
41.66000 66.575
41.68000 67.806
41.70000 61.263
41.72000 54.751
41.74000 53.803
41.76000 52.360
41.78000 47.592
41.80000 45.422
41.82000 41.666
41.84000 40.812
41.86000 42.240
41.88000 38.325
41.90000 39.690
41.92000 37.160
41.94000 30.601
41.96000 33.628
41.98000 29.499
42.00000 30.056
42.02000 28.063
42.04000 26.639
42.06000 25.676
42.08000 26.680
42.10000 27.144
42.12000 24.333
42.14000 21.357
42.16000 15.413
42.18000 13.956
42.20000 15.496
42.22000 20.641
42.24000 21.240
42.26000 18.210
42.28000 18.670
42.30000 13.851
42.32000 14.136
42.34000 16.175
42.36000 15.225
42.38000 9.455
42.40000 9.399
42.42000 10.000
42.44000 9.201
42.46000 8.299
42.48000 5.397
42.50000 7.662
42.52000 9.876
42.54000 4.680
42.56000 7.971
42.58000 8.643
42.60000 6.684
42.62000 5.287
42.64000 5.730
42.66000 10.590
42.68000 12.341
42.70000 6.804
42.72000 4.751
42.74000 6.524
42.76000 1.972
42.78000 -0.648
42.80000 1.734
42.82000 1.053
42.84000 2.070
42.86000 3.049
42.88000 2.426
42.90000 1.629
42.92000 -0.482
42.94000 1.870
42.96000 1.744
42.98000 1.798
43.00000 1.762
43.02000 1.280
43.04000 2.195
43.06000 6.339
43.08000 2.499
43.10000 -0.695
43.12000 0.034
43.14000 1.970
43.16000 2.375
43.18000 1.778
43.20000 2.089
43.22000 6.658
43.24000 9.070
43.26000 5.756
43.28000 5.052
43.30000 5.549
43.32000 4.610
43.34000 1.420
43.36000 -0.713
43.38000 -3.132
43.40000 -0.121
43.42000 -0.640
43.44000 1.335
43.46000 5.384
43.48000 2.796
43.50000 0.429
43.52000 -3.428
43.54000 -1.666
43.56000 -0.991
43.58000 -2.270
43.60000 -0.524
43.62000 -3.111
43.64000 -1.908
43.66000 2.034
43.68000 7.950
43.70000 3.958
43.72000 2.052
43.74000 1.798
43.76000 1.048
43.78000 5.146
43.80000 8.382
43.82000 6.237
43.84000 0.813
43.86000 -2.813
43.88000 0.475
43.90000 0.114
43.92000 0.771
43.94000 0.560
43.96000 0.874
43.98000 -0.515
44.00000 -1.342
44.02000 -3.371
44.04000 -0.780
44.06000 -0.435
44.08000 3.442
44.10000 0.069
44.12000 0.644
44.14000 1.734
44.16000 0.839
44.18000 -0.574
44.20000 -1.312
44.22000 -1.950
44.24000 -1.750
44.26000 -0.239
44.28000 3.446
44.30000 3.093
44.32000 1.659
44.34000 -0.818
44.36000 3.957
44.38000 -0.217
44.40000 -2.381
44.42000 -1.092
44.44000 -2.258
44.46000 0.079
44.48000 -0.546
44.50000 -1.853
44.52000 -0.427
44.54000 4.953
44.56000 3.821
44.58000 -0.006
44.60000 2.359
44.62000 2.166
44.64000 3.009
44.66000 -0.345
44.68000 0.372
44.70000 -0.225
44.72000 8.065
44.74000 3.480
44.76000 0.653
44.78000 0.536
44.80000 3.150
44.82000 2.168
44.84000 4.556
44.86000 6.595
44.88000 3.719
44.90000 -1.255
44.92000 -3.325
44.94000 0.238
44.96000 3.439
44.98000 5.292
45.00000 0.460
45.02000 -1.278
45.04000 0.987
45.06000 5.199
45.08000 1.315
45.10000 0.494
45.12000 4.560
45.14000 3.636
45.16000 1.655
45.18000 2.643
45.20000 2.447
45.22000 0.091
45.24000 -0.918
45.26000 5.143
45.28000 1.517
45.30000 0.716
45.32000 0.584
45.34000 3.054
45.36000 4.889
45.38000 5.135
45.40000 3.845
45.42000 7.217
45.44000 1.617
45.46000 0.323
45.48000 3.525
45.50000 5.049
45.52000 5.496
45.54000 4.154
45.56000 -0.118
45.58000 3.131
45.60000 7.465
45.62000 12.519
45.64000 11.187
45.66000 7.521
45.68000 5.752
45.70000 5.040
45.72000 6.793
45.74000 8.314
45.76000 9.123
45.78000 7.815
45.80000 6.373
45.82000 8.059
45.84000 12.705
45.86000 12.753
45.88000 9.431
45.90000 9.655
45.92000 12.349
45.94000 15.013
45.96000 14.855
45.98000 11.487
46.00000 12.809
46.02000 18.469
46.04000 16.025
46.06000 15.760
46.08000 10.514
46.10000 15.428
46.12000 13.979
46.14000 10.851
46.16000 13.067
46.18000 17.455
46.20000 22.281
46.22000 21.712
46.24000 29.538
46.26000 26.909
46.28000 21.852
46.30000 22.410
46.32000 22.900
46.34000 26.011
46.36000 24.909
46.38000 28.627
46.40000 29.656
46.42000 25.073
46.44000 27.785
46.46000 34.136
46.48000 34.498
46.50000 35.750
46.52000 33.955
46.54000 39.351
46.56000 35.515
46.58000 36.125
46.60000 45.435
46.62000 46.978
46.64000 42.370
46.66000 45.890
46.68000 44.308
46.70000 45.038
46.72000 49.218
46.74000 56.075
46.76000 54.980
46.78000 52.320
46.80000 53.761
46.82000 62.856
46.84000 61.191
46.86000 64.294
46.88000 64.190
46.90000 62.939
46.92000 66.064
46.94000 62.872
46.96000 67.588
46.98000 71.276
47.00000 75.313
47.02000 70.948
47.04000 69.768
47.06000 74.465
47.08000 78.824
47.10000 77.327
47.12000 77.742
47.14000 74.987
47.16000 78.322
47.18000 81.386
47.20000 80.742
47.22000 83.756
47.24000 83.881
47.26000 78.681
47.28000 72.255
47.30000 76.235
47.32000 81.053
47.34000 80.140
47.36000 78.947
47.38000 77.158
47.40000 75.494
47.42000 75.088
47.44000 69.936
47.46000 74.474
47.48000 77.838
47.50000 71.186
47.52000 67.996
47.54000 71.319
47.56000 78.395
47.58000 65.810
47.60000 61.695
47.62000 60.148
47.64000 49.664
47.66000 51.204
47.68000 53.843
47.70000 57.414
47.72000 48.591
47.74000 50.323
47.76000 50.218
47.78000 45.579
47.80000 45.065
47.82000 45.157
47.84000 40.881
47.86000 37.647
47.88000 37.283
47.90000 37.731
47.92000 31.959
47.94000 32.936
47.96000 34.348
47.98000 36.773
48.00000 36.923
48.02000 36.544
48.04000 29.398
48.06000 26.270
48.08000 20.318
48.10000 17.248
48.12000 18.913
48.14000 19.919
48.16000 20.405
48.18000 18.026
48.20000 14.590
48.22000 12.914
48.24000 16.417
48.26000 15.237
48.28000 15.898
48.30000 14.988
48.32000 13.641
48.34000 13.072
48.36000 9.780
48.38000 11.630
48.40000 11.213
48.42000 11.522
48.44000 10.554
48.46000 10.032
48.48000 16.258
48.50000 15.788
48.52000 15.876
48.54000 5.130
48.56000 5.907
48.58000 5.162
48.60000 2.580
48.62000 3.637
48.64000 4.557
48.66000 1.754
48.68000 3.919
48.70000 3.708
48.72000 -1.156
48.74000 6.100
48.76000 7.838
48.78000 3.418
48.80000 -2.781
48.82000 -3.008
48.84000 2.127
48.86000 4.484
48.88000 3.754
48.90000 2.694
48.92000 3.464
48.94000 5.934
48.96000 6.091
48.98000 3.313
49.00000 3.157
49.02000 5.703
49.04000 1.266
49.06000 1.338
49.08000 5.479
49.10000 8.348
49.12000 3.707
49.14000 1.388
49.16000 -0.358
49.18000 2.894
49.20000 3.371
49.22000 3.023
49.24000 3.269
49.26000 2.810
49.28000 6.343
49.30000 6.579
49.32000 5.902
49.34000 3.423
49.36000 0.784
49.38000 -2.515
49.40000 6.375
49.42000 5.443
49.44000 3.166
49.46000 5.390
49.48000 7.392
49.50000 2.816
49.52000 -0.342
49.54000 -2.877
49.56000 2.203
49.58000 3.755
49.60000 2.963
49.62000 3.251
49.64000 2.565
49.66000 4.474
49.68000 1.797
49.70000 2.917
49.72000 3.524
49.74000 1.556
49.76000 0.684
49.78000 2.200
49.80000 4.150
49.82000 1.851
49.84000 3.384
49.86000 11.426
49.88000 7.906
49.90000 1.991
49.92000 1.194
49.94000 2.678
49.96000 2.656
49.98000 1.387
50.00000 -2.821
50.02000 -1.723
50.04000 -2.275
50.06000 -0.410
50.08000 2.430
50.10000 5.212
50.12000 6.856
50.14000 5.536
50.16000 3.948
50.18000 1.590
50.20000 7.334
50.22000 8.016
50.24000 3.206
50.26000 0.236
50.28000 2.490
50.30000 6.370
50.32000 7.062
50.34000 1.888
50.36000 -0.705
50.38000 -2.811
50.40000 1.698
50.42000 2.822
50.44000 -2.393
50.46000 -2.626
50.48000 3.598
50.50000 6.510
50.52000 1.431
50.54000 1.061
50.56000 2.685
50.58000 2.677
50.60000 1.418
50.62000 -2.016
50.64000 -0.007
50.66000 3.731
50.68000 1.137
50.70000 3.318
50.72000 6.129
50.74000 4.129
50.76000 0.448
50.78000 0.293
50.80000 -2.517
50.82000 -2.523
50.84000 1.615
50.86000 2.661
50.88000 5.653
50.90000 2.288
50.92000 -1.001
50.94000 -0.891
50.96000 1.890
50.98000 -0.642
51.00000 -2.805
51.02000 1.175
51.04000 2.074
51.06000 -0.893
51.08000 0.835
51.10000 2.120
51.12000 -1.046
51.14000 -2.012
51.16000 1.128
51.18000 4.282
51.20000 3.627
51.22000 1.155
51.24000 -1.353
51.26000 0.489
51.28000 -0.559
51.30000 -1.326
51.32000 2.131
51.34000 0.594
51.36000 -0.203
51.38000 0.786
51.40000 1.518
51.42000 2.456
51.44000 1.376
51.46000 0.423
51.48000 0.004
51.50000 0.031
51.52000 -2.183
51.54000 -0.269
51.56000 -1.958
51.58000 0.416
51.60000 0.910
51.62000 1.016
51.64000 -2.778
51.66000 -0.209
51.68000 2.194
51.70000 2.133
51.72000 4.260
51.74000 0.662
51.76000 -0.459
51.78000 3.778
51.80000 -0.183
51.82000 -0.016
51.84000 2.207
51.86000 0.482
51.88000 2.230
51.90000 -1.658
51.92000 -2.617
51.94000 3.024
51.96000 1.678
51.98000 -1.626
52.00000 1.194
52.02000 1.094
52.04000 2.838
52.06000 0.883
52.08000 1.630
52.10000 2.125
52.12000 -2.232
52.14000 0.087
52.16000 0.261
52.18000 1.312
52.20000 1.905
52.22000 3.330
52.24000 2.272
52.26000 3.160
52.28000 -2.746
52.30000 -2.078
52.32000 0.120
52.34000 1.474
52.36000 4.502
52.38000 2.911
52.40000 -0.356
52.42000 5.780
52.44000 4.243
52.46000 2.061
52.48000 0.804
52.50000 -0.366
52.52000 4.962
52.54000 5.348
52.56000 1.542
52.58000 0.584
52.60000 2.216
52.62000 2.782
52.64000 2.174
52.66000 2.634
52.68000 3.991
52.70000 7.155
52.72000 3.365
52.74000 1.360
52.76000 -0.402
52.78000 2.947
52.80000 2.972
52.82000 0.803
52.84000 -1.528
52.86000 -0.784
52.88000 2.746
52.90000 3.590
52.92000 4.137
52.94000 1.191
52.96000 3.894
52.98000 1.777
53.00000 -2.711
53.02000 -2.529
53.04000 2.449
53.06000 1.247
53.08000 4.121
53.10000 6.542
53.12000 5.753
53.14000 -0.251
53.16000 -1.806
53.18000 0.527
53.20000 -0.048
53.22000 -0.145
53.24000 1.310
53.26000 0.695
53.28000 -2.696
53.30000 2.145
53.32000 5.789
53.34000 8.211
53.36000 1.677
53.38000 0.017
53.40000 3.217
53.42000 2.821
53.44000 0.637
53.46000 0.117
53.48000 -1.087
53.50000 0.483
53.52000 2.837
53.54000 7.360
53.56000 3.085
53.58000 2.645
53.60000 6.647
53.62000 2.095
53.64000 2.296
53.66000 1.724
53.68000 3.346
53.70000 3.241
53.72000 6.743
53.74000 3.461
53.76000 4.896
53.78000 2.476
53.80000 -0.052
53.82000 2.860
53.84000 1.611
53.86000 1.580
53.88000 -0.973
53.90000 2.980
53.92000 0.504
53.94000 -0.370
53.96000 2.425
53.98000 5.672
54.00000 2.769
54.02000 4.363
54.04000 1.961
54.06000 2.915
54.08000 2.566
54.10000 5.626
54.12000 4.074
54.14000 1.774
54.16000 0.256
54.18000 3.454
54.20000 4.000
54.22000 4.062
54.24000 3.035
54.26000 2.907
54.28000 -1.180
54.30000 -2.645
54.32000 0.747
54.34000 3.019
54.36000 1.184
54.38000 5.962
54.40000 4.566
54.42000 1.787
54.44000 2.720
54.46000 5.865
54.48000 1.924
54.50000 6.254
54.52000 2.078
54.54000 0.977
54.56000 -0.167
54.58000 2.541
54.60000 2.687
54.62000 3.838
54.64000 5.312
54.66000 3.692
54.68000 6.828
54.70000 7.075
54.72000 5.392
54.74000 4.235
54.76000 4.159
54.78000 -0.356
54.80000 -0.376
54.82000 1.829
54.84000 -0.363
54.86000 2.123
54.88000 3.835
54.90000 3.965
54.92000 5.689
54.94000 7.762
54.96000 6.895
54.98000 5.711
55.00000 3.784
55.02000 3.120
55.04000 0.390
55.06000 -0.078
55.08000 3.816
55.10000 4.309
55.12000 6.707
55.14000 5.081
55.16000 6.367
55.18000 1.272
55.20000 0.248
55.22000 2.258
55.24000 1.262
55.26000 2.995
55.28000 1.549
55.30000 -0.300
55.32000 4.569
55.34000 5.927
55.36000 3.541
55.38000 1.248
55.40000 3.543
55.42000 -0.744
55.44000 -0.395
55.46000 1.184
55.48000 2.185
55.50000 3.511
55.52000 -0.142
55.54000 -1.425
55.56000 0.030
55.58000 -2.641
55.60000 1.509
55.62000 0.290
55.64000 1.091
55.66000 4.203
55.68000 3.140
55.70000 -1.472
55.72000 0.999
55.74000 1.889
55.76000 3.146
55.78000 1.238
55.80000 1.272
55.82000 0.294
55.84000 5.449
55.86000 1.421
55.88000 -0.204
55.90000 1.654
55.92000 5.202
55.94000 3.219
55.96000 2.817
55.98000 8.326
56.00000 5.480
56.02000 4.350
56.04000 6.409
56.06000 5.340
56.08000 4.003
56.10000 2.621
56.12000 2.275
56.14000 -0.096
56.16000 1.373
56.18000 -0.830
56.20000 2.962
56.22000 1.130
56.24000 1.635
56.26000 3.035
56.28000 1.020
56.30000 1.351
56.32000 -0.163
56.34000 -1.820
56.36000 3.165
56.38000 1.926
56.40000 2.255
56.42000 -0.172
56.44000 -0.019
56.46000 1.925
56.48000 2.174
56.50000 0.984
56.52000 4.402
56.54000 5.431
56.56000 3.655
56.58000 2.480
56.60000 1.798
56.62000 -2.600
56.64000 1.814
56.66000 4.730
56.68000 4.394
56.70000 -1.579
56.72000 -1.568
56.74000 3.970
56.76000 2.695
56.78000 3.175
56.80000 1.397
56.82000 5.618
56.84000 5.223
56.86000 3.734
56.88000 2.453
56.90000 0.121
56.92000 3.585
56.94000 5.332
56.96000 3.944
56.98000 5.832
57.00000 7.324
57.02000 4.410
57.04000 2.915
57.06000 8.250
57.08000 5.173
57.10000 2.690
57.12000 1.249
57.14000 3.190
57.16000 4.152
57.18000 6.921
57.20000 6.001
57.22000 3.965
57.24000 6.467
57.26000 4.022
57.28000 -0.052
57.30000 0.124
57.32000 4.831
57.34000 6.746
57.36000 2.651
57.38000 0.148
57.40000 -0.534
57.42000 -1.771
57.44000 -2.531
57.46000 1.183
57.48000 5.557
57.50000 6.539
57.52000 7.169
57.54000 3.778
57.56000 4.545
57.58000 2.513
57.60000 5.680
57.62000 3.575
57.64000 0.453
57.66000 4.029
57.68000 6.338
57.70000 6.941
57.72000 1.847
57.74000 5.573
57.76000 4.325
57.78000 6.183
57.80000 1.834
57.82000 2.094
57.84000 3.941
57.86000 2.751
57.88000 1.402
57.90000 4.076
57.92000 1.621
57.94000 -0.068
57.96000 0.825
57.98000 2.373
58.00000 4.426
58.02000 7.449
58.04000 4.131
58.06000 5.900
58.08000 5.634
58.10000 5.951
58.12000 3.594
58.14000 0.181
58.16000 2.001
58.18000 6.285
58.20000 3.186
58.22000 5.170
58.24000 6.852
58.26000 2.357
58.28000 0.991
58.30000 0.110
58.32000 0.815
58.34000 6.245
58.36000 2.774
58.38000 1.158
58.40000 5.161
58.42000 3.487
58.44000 6.598
58.46000 7.275
58.48000 8.194
58.50000 3.253
58.52000 2.577
58.54000 1.725
58.56000 1.190
58.58000 2.959
58.60000 3.318
58.62000 -2.248
58.64000 -0.274
58.66000 1.866
58.68000 -0.527
58.70000 3.123
58.72000 5.297
58.74000 4.959
58.76000 1.087
58.78000 2.479
58.80000 -2.498
58.82000 2.543
58.84000 6.158
58.86000 6.054
58.88000 5.066
58.90000 0.218
58.92000 4.544
58.94000 5.142
58.96000 4.224
58.98000 1.679
59.00000 -1.338
59.02000 0.373
59.04000 1.782
59.06000 1.280
59.08000 2.108
59.10000 -2.287
59.12000 -2.396
59.14000 -0.123
59.16000 -0.054
59.18000 2.628
59.20000 4.649
59.22000 0.590
59.24000 2.936
59.26000 0.141
59.28000 -1.453
59.30000 -0.969
59.32000 -0.875
59.34000 1.634
59.36000 0.019
59.38000 3.798
59.40000 3.714
59.42000 1.772
59.44000 6.029
59.46000 5.980
59.48000 1.644
59.50000 1.441
59.52000 2.379
59.54000 4.163
59.56000 3.406
59.58000 2.611
59.60000 -1.571
59.62000 -1.129
59.64000 2.163
59.66000 2.750
59.68000 -0.243
59.70000 -1.698
59.72000 4.731
59.74000 6.416
59.76000 3.221
59.78000 1.613
59.80000 0.962
59.82000 0.952
59.84000 0.150
59.86000 -0.357
59.88000 1.964
59.90000 5.174
59.92000 7.316
59.94000 4.813
59.96000 2.103
59.98000 2.401
60.00000 3.481
60.02000 1.798
60.04000 2.578
60.06000 3.275
60.08000 1.519
60.10000 -1.678
60.12000 -0.407
60.14000 1.387
60.16000 1.516
60.18000 0.848
60.20000 1.374
60.22000 -1.411
60.24000 -1.068
60.26000 5.064
60.28000 -2.482
60.30000 -1.263
60.32000 -0.125
60.34000 4.366
60.36000 3.367
60.38000 2.298
60.40000 -0.520
60.42000 -1.422
60.44000 0.530
60.46000 2.893
60.48000 0.326
60.50000 1.618
60.52000 1.697
60.54000 0.778
60.56000 0.960
60.58000 1.764
60.60000 2.213
60.62000 4.633
60.64000 1.563
60.66000 0.268
60.68000 0.357
60.70000 5.119
60.72000 4.024
60.74000 -0.593
60.76000 -2.445
60.78000 1.283
60.80000 4.077
60.82000 4.386
60.84000 0.883
60.86000 2.554
60.88000 5.664
60.90000 2.307
60.92000 -2.209
60.94000 -2.443
60.96000 -2.213
60.98000 -1.279
61.00000 1.496
61.02000 1.958
61.04000 6.930
61.06000 3.766
61.08000 -1.591
61.10000 -1.186
61.12000 -1.474
61.14000 -0.680
61.16000 1.416
61.18000 1.508
61.20000 1.482
61.22000 2.491
61.24000 1.871
61.26000 1.993
61.28000 -1.613
61.30000 -0.630
61.32000 2.197
61.34000 0.023
61.36000 -1.451
61.38000 1.358
61.40000 1.376
61.42000 6.484
61.44000 2.400
61.46000 0.027
61.48000 1.336
61.50000 0.351
61.52000 0.410
61.54000 3.102
61.56000 2.170
61.58000 0.271
61.60000 -0.130
61.62000 -2.435
61.64000 -0.347
61.66000 -2.184
61.68000 -0.070
61.70000 0.273
61.72000 -2.353
61.74000 3.806
61.76000 6.830
61.78000 5.365
61.80000 0.746
61.82000 0.269
61.84000 3.291
61.86000 3.819
61.88000 1.448
61.90000 1.927
61.92000 2.139
61.94000 -1.820
61.96000 -1.986
61.98000 1.988
62.00000 2.471
62.02000 1.096
62.04000 0.779
62.06000 -0.638
62.08000 -0.686
62.10000 0.129
62.12000 2.552
62.14000 4.264
62.16000 3.363
62.18000 3.734
62.20000 1.412
62.22000 2.290
62.24000 1.061
62.26000 2.695
62.28000 1.867
62.30000 1.933
62.32000 -1.377
62.34000 -1.086
62.36000 -1.071
62.38000 -1.325
62.40000 0.480
62.42000 1.845
62.44000 2.090
62.46000 1.265
62.48000 1.622
62.50000 -0.447
62.52000 -2.336
62.54000 -2.112
62.56000 0.605
62.58000 2.492
62.60000 3.862
62.62000 -0.295
62.64000 0.238
62.66000 -0.948
62.68000 0.889
62.70000 5.084
62.72000 -0.601
62.74000 -1.940
62.76000 -0.426
62.78000 -2.418
62.80000 -1.439
62.82000 0.637
62.84000 3.966
62.86000 4.223
62.88000 1.136
62.90000 2.681
62.92000 1.953
62.94000 -0.614
62.96000 3.121
62.98000 3.499
63.00000 1.640
63.02000 0.225
63.04000 4.568
63.06000 1.611
63.08000 2.287
63.10000 3.557
63.12000 0.349
63.14000 1.782
63.16000 3.388
63.18000 2.704
63.20000 2.501
63.22000 4.242
63.24000 2.387
63.26000 1.893
63.28000 0.542
63.30000 3.720
63.32000 6.580
63.34000 3.725
63.36000 3.630
63.38000 2.409
63.40000 2.874
63.42000 2.106
63.44000 0.490
63.46000 -2.399
63.48000 -2.082
63.50000 -0.220
63.52000 -1.950
63.54000 2.817
63.56000 1.131
63.58000 3.356
63.60000 3.886
63.62000 2.812
63.64000 5.784
63.66000 3.545
63.68000 0.515
63.70000 0.171
63.72000 4.186
63.74000 4.991
63.76000 2.663
63.78000 1.125
63.80000 3.725
63.82000 4.484
63.84000 4.846
63.86000 2.868
63.88000 3.813
63.90000 3.601
63.92000 3.452
63.94000 1.669
63.96000 3.480
63.98000 0.889
64.00000 -0.487
64.02000 2.447
64.04000 0.163
64.06000 1.461
64.08000 5.657
64.10000 5.996
64.12000 2.932
64.14000 3.727
64.16000 2.895
64.18000 1.944
64.20000 -1.008
64.22000 -1.529
64.24000 -1.852
64.26000 -1.730
64.28000 -2.412
64.30000 -2.068
64.32000 -1.143
64.34000 -0.688
64.36000 1.313
64.38000 2.211
64.40000 -1.166
64.42000 -1.998
64.44000 -1.216
64.46000 1.144
64.48000 1.371
64.50000 -1.345
64.52000 1.041
64.54000 2.981
64.56000 4.352
64.58000 2.636
64.60000 5.260
64.62000 1.293
64.64000 1.658
64.66000 0.781
64.68000 2.396
64.70000 1.901
64.72000 1.155
64.74000 2.530
64.76000 4.278
64.78000 2.066
64.80000 1.790
64.82000 2.695
64.84000 4.225
64.86000 5.531
64.88000 1.404
64.90000 0.086
64.92000 1.691
64.94000 -2.417
64.96000 -2.348
64.98000 0.126
65.00000 3.755
65.02000 3.866
65.04000 2.300
65.06000 0.543
65.08000 1.194
65.10000 2.113
65.12000 2.433
65.14000 -0.889
65.16000 -2.423
65.18000 -1.310
65.20000 -2.207
65.22000 -0.785
65.24000 -0.313
65.26000 -1.190
65.28000 0.510
65.30000 0.374
65.32000 -0.974
65.34000 1.304
65.36000 -0.260
65.38000 -1.184
65.40000 1.151
65.42000 2.003
65.44000 2.209
65.46000 2.178
65.48000 -1.789
65.50000 -2.203
65.52000 0.435
65.54000 0.830
65.56000 3.332
65.58000 2.745
65.60000 3.628
65.62000 0.655
65.64000 -0.774
65.66000 -0.762
65.68000 -2.213
65.70000 -1.160
65.72000 -1.226
65.74000 1.808
65.76000 1.623
65.78000 1.495
65.80000 -0.538
65.82000 0.032
65.84000 3.294
65.86000 3.916
65.88000 3.350
65.90000 3.285
65.92000 -2.444
65.94000 -0.918
65.96000 1.253
65.98000 -0.197
66.00000 -1.335
66.02000 -0.428
66.04000 3.171
66.06000 2.749
66.08000 -1.307
66.10000 -1.724
66.12000 3.162
66.14000 3.695
66.16000 4.676
66.18000 2.187
66.20000 0.056
66.22000 2.989
66.24000 1.922
66.26000 -2.445
66.28000 2.229
66.30000 3.842
66.32000 0.034
66.34000 -1.343
66.36000 -0.724
66.38000 -1.561
66.40000 -0.309
66.42000 1.122
66.44000 1.520
66.46000 -0.033
66.48000 1.411
66.50000 3.545
66.52000 1.461
66.54000 0.475
66.56000 -0.525
66.58000 0.360
66.60000 1.679
66.62000 2.500
66.64000 1.002
66.66000 2.161
66.68000 0.395
66.70000 -1.081
66.72000 -0.848
66.74000 -0.168
66.76000 1.558
66.78000 2.216
66.80000 -0.921
66.82000 -1.072
66.84000 -1.278
66.86000 -2.462
66.88000 0.144
66.90000 0.621
66.92000 2.306
66.94000 -0.835
66.96000 0.371
66.98000 0.958
67.00000 1.700
67.02000 1.264
67.04000 3.463
67.06000 1.178
67.08000 0.436
67.10000 -0.605
67.12000 0.521
67.14000 -1.082
67.16000 -1.335
67.18000 -1.858
67.20000 2.861
67.22000 1.239
67.24000 -1.137
67.26000 -0.120
67.28000 -0.468
67.30000 2.607
67.32000 -0.026
67.34000 0.477
67.36000 1.636
67.38000 0.339
67.40000 -2.479
67.42000 0.653
67.44000 1.413
67.46000 0.558
67.48000 2.506
67.50000 2.861
67.52000 1.394
67.54000 1.596
67.56000 3.141
67.58000 3.809
67.60000 3.221
67.62000 2.279
67.64000 -0.156
67.66000 1.243
67.68000 1.082
67.70000 -1.943
67.72000 -1.550
67.74000 0.805
67.76000 0.487
67.78000 1.184
67.80000 0.165
67.82000 0.546
67.84000 -0.135
67.86000 1.995
67.88000 3.019
67.90000 0.294
67.92000 0.514
67.94000 -0.370
67.96000 0.272
67.98000 0.050
68.00000 -1.488
68.02000 1.084
68.04000 3.015
68.06000 5.467
68.08000 3.221
68.10000 2.999
68.12000 4.652
68.14000 4.982
68.16000 5.861
68.18000 4.189
68.20000 1.351
68.22000 -0.497
68.24000 1.253
68.26000 2.891
68.28000 4.028
68.30000 6.307
68.32000 6.764
68.34000 7.585
68.36000 10.916
68.38000 9.556
68.40000 9.275
68.42000 9.793
68.44000 11.793
68.46000 8.264
68.48000 8.201
68.50000 10.963
68.52000 11.826
68.54000 13.797
68.56000 13.433
68.58000 14.908
68.60000 14.345
68.62000 14.072
68.64000 14.072
68.66000 10.698
68.68000 9.621
68.70000 13.290
68.72000 17.934
68.74000 14.172
68.76000 14.275
68.78000 15.039
68.80000 13.720
68.82000 19.462
68.84000 20.397
68.86000 18.098
68.88000 18.541
68.90000 22.886
68.92000 25.185
68.94000 20.824
68.96000 16.986
68.98000 16.563
69.00000 19.836
69.02000 22.242
69.04000 19.495
69.06000 15.328
69.08000 18.438
69.10000 19.849
69.12000 20.083
69.14000 19.152
69.16000 17.779
69.18000 19.032
69.20000 21.759
69.22000 21.363
69.24000 19.601
69.26000 17.212
69.28000 17.452
69.30000 16.272
69.32000 16.000
69.34000 11.580
69.36000 10.920
69.38000 14.305
69.40000 12.674
69.42000 12.323
69.44000 11.467
69.46000 9.731
69.48000 5.923
69.50000 7.447
69.52000 13.958
69.54000 13.226
69.56000 9.400
69.58000 5.637
69.60000 5.569
69.62000 9.083
69.64000 8.325
69.66000 11.708
69.68000 7.363
69.70000 3.544
69.72000 4.030
69.74000 4.707
69.76000 4.115
69.78000 2.619
69.80000 2.272
69.82000 3.322
69.84000 2.204
69.86000 3.480
69.88000 3.929
69.90000 1.464
69.92000 2.488
69.94000 2.507
69.96000 1.996
69.98000 3.826
70.00000 4.748
70.02000 0.619
70.04000 -0.189
70.06000 -0.762
70.08000 2.355
70.10000 3.829
70.12000 0.509
70.14000 1.137
70.16000 1.224
70.18000 2.172
70.20000 0.415
70.22000 -1.397
70.24000 -2.435
70.26000 1.301
70.28000 -0.216
70.30000 1.763
70.32000 -1.642
70.34000 -1.259
70.36000 -0.517
70.38000 1.919
70.40000 3.327
70.42000 3.919
70.44000 1.248
70.46000 -0.539
70.48000 1.593
70.50000 2.286
70.52000 -1.308
70.54000 1.553
70.56000 -0.055
70.58000 -0.668
70.60000 0.730
70.62000 -0.617
70.64000 1.441
70.66000 3.463
70.68000 1.329
70.70000 2.793
70.72000 1.538
70.74000 -0.290
70.76000 -0.869
70.78000 0.078
70.80000 -1.941
70.82000 2.132
70.84000 4.609
70.86000 3.631
70.88000 0.496
70.90000 2.928
70.92000 0.119
70.94000 1.193
70.96000 3.253
70.98000 2.000
71.00000 1.866
71.02000 -0.731
71.04000 1.069
71.06000 1.348
71.08000 -1.261
71.10000 3.704
71.12000 9.424
71.14000 4.796
71.16000 2.052
71.18000 -1.518
71.20000 1.282
71.22000 3.160
71.24000 2.330
71.26000 2.989
71.28000 2.106
71.30000 3.709
71.32000 3.752
71.34000 -0.313
71.36000 -2.294
71.38000 2.221
71.40000 0.625
71.42000 3.202
71.44000 2.837
71.46000 2.629
71.48000 4.484
71.50000 4.198
71.52000 2.032
71.54000 2.601
71.56000 3.841
71.58000 3.547
71.60000 4.269
71.62000 6.447
71.64000 1.229
71.66000 -0.018
71.68000 4.553
71.70000 4.214
71.72000 -0.300
71.74000 0.626
71.76000 2.873
71.78000 3.868
71.80000 2.783
71.82000 1.624
71.84000 2.960
71.86000 4.612
71.88000 2.329
71.90000 1.615
71.92000 1.689
71.94000 3.315
71.96000 3.575
71.98000 1.036
72.00000 0.909
72.02000 4.239
72.04000 4.480
72.06000 2.555
72.08000 1.469
72.10000 3.931
72.12000 5.187
72.14000 3.655
72.16000 3.542
72.18000 5.530
72.20000 5.748
72.22000 8.655
72.24000 3.307
72.26000 3.606
72.28000 0.925
72.30000 1.411
72.32000 1.836
72.34000 4.227
72.36000 4.950
72.38000 5.108
72.40000 1.112
72.42000 0.701
72.44000 1.691
72.46000 -2.201
72.48000 -1.262
72.50000 3.477
72.52000 4.540
72.54000 1.991
72.56000 2.611
72.58000 1.857
72.60000 1.625
72.62000 2.301
72.64000 3.413
72.66000 3.871
72.68000 0.565
72.70000 3.515
72.72000 5.064
72.74000 3.570
72.76000 8.954
72.78000 4.264
72.80000 3.135
72.82000 8.385
72.84000 6.957
72.86000 11.384
72.88000 8.430
72.90000 0.369
72.92000 0.123
72.94000 3.036
72.96000 5.024
72.98000 4.839
73.00000 5.553
73.02000 6.821
73.04000 4.587
73.06000 3.992
73.08000 2.305
73.10000 2.068
73.12000 1.772
73.14000 0.143
73.16000 2.796
73.18000 5.230
73.20000 5.976
73.22000 2.673
73.24000 2.674
73.26000 3.426
73.28000 3.773
73.30000 5.759
73.32000 8.681
73.34000 5.036
73.36000 3.037
73.38000 3.010
73.40000 2.738
73.42000 5.744
73.44000 6.006
73.46000 4.598
73.48000 3.127
73.50000 5.972
73.52000 4.108
73.54000 -0.280
73.56000 -2.194
73.58000 -0.500
73.60000 2.749
73.62000 5.436
73.64000 6.160
73.66000 5.030
73.68000 4.696
73.70000 2.713
73.72000 2.553
73.74000 -0.669
73.76000 2.086
73.78000 4.598
73.80000 9.875
73.82000 7.105
73.84000 2.754
73.86000 2.346
73.88000 0.909
73.90000 -0.276
73.92000 3.650
73.94000 6.575
73.96000 2.958
73.98000 3.223
74.00000 2.179
74.02000 3.469
74.04000 4.775
74.06000 2.968
74.08000 4.359
74.10000 3.416
74.12000 1.830
74.14000 2.459
74.16000 3.560
74.18000 -0.161
74.20000 1.844
74.22000 6.939
74.24000 2.317
74.26000 0.383
74.28000 0.187
74.30000 1.286
74.32000 6.629
74.34000 3.106
74.36000 0.434
74.38000 0.013
74.40000 -2.082
74.42000 -0.619
74.44000 0.136
74.46000 -2.207
74.48000 -0.934
74.50000 0.403
74.52000 2.815
74.54000 5.372
74.56000 5.582
74.58000 7.178
74.60000 2.158
74.62000 1.377
74.64000 3.702
74.66000 -2.204
74.68000 -0.466
74.70000 1.827
74.72000 -0.516
74.74000 2.787
74.76000 2.256
74.78000 1.699
74.80000 4.813
74.82000 5.714
74.84000 5.440
74.86000 5.220
74.88000 4.211
74.90000 3.485
74.92000 6.297
74.94000 8.804
74.96000 5.297
74.98000 4.950
75.00000 4.021
75.02000 2.621
75.04000 2.492
75.06000 0.292
75.08000 2.263
75.10000 0.977
75.12000 3.998
75.14000 3.722
75.16000 2.044
75.18000 4.735
75.20000 9.332
75.22000 8.795
75.24000 5.308
75.26000 6.694
75.28000 5.225
75.30000 3.875
75.32000 4.560
75.34000 3.256
75.36000 4.013
75.38000 5.830
75.40000 3.779
75.42000 4.447
75.44000 8.374
75.46000 4.775
75.48000 5.016
75.50000 3.194
75.52000 -2.172
75.54000 2.222
75.56000 5.156
75.58000 7.059
75.60000 5.285
75.62000 6.832
75.64000 6.784
75.66000 7.788
75.68000 7.865
75.70000 5.455
75.72000 4.382
75.74000 4.374
75.76000 5.914
75.78000 7.311
75.80000 0.721
75.82000 2.616
75.84000 3.949
75.86000 4.594
75.88000 7.246
75.90000 4.062
75.92000 4.452
75.94000 5.158
75.96000 5.944
75.98000 4.514
76.00000 5.474
76.02000 1.858
76.04000 1.310
76.06000 2.801
76.08000 3.462
76.10000 1.365
76.12000 2.734
76.14000 3.540
76.16000 6.809
76.18000 5.724
76.20000 4.237
76.22000 4.392
76.24000 5.283
76.26000 2.346
76.28000 5.125
76.30000 7.470
76.32000 1.748
76.34000 -2.208
76.36000 3.569
76.38000 3.495
76.40000 4.587
76.42000 5.487
76.44000 7.448
76.46000 6.740
76.48000 5.724
76.50000 5.406
76.52000 3.292
76.54000 4.472
76.56000 3.172
76.58000 2.732
76.60000 5.990
76.62000 1.623
76.64000 1.921
76.66000 1.968
76.68000 2.772
76.70000 4.894
76.72000 3.098
76.74000 6.173
76.76000 5.369
76.78000 5.354
76.80000 4.377
76.82000 6.143
76.84000 5.360
76.86000 3.204
76.88000 1.588
76.90000 3.290
76.92000 1.761
76.94000 0.359
76.96000 2.809
76.98000 4.226
77.00000 5.447
77.02000 5.774
77.04000 5.732
77.06000 0.723
77.08000 -2.228
77.10000 2.626
77.12000 1.749
77.14000 2.089
77.16000 2.137
77.18000 6.141
77.20000 3.070
77.22000 0.322
77.24000 0.031
77.26000 3.525
77.28000 6.060
77.30000 6.556
77.32000 4.856
77.34000 4.479
77.36000 2.186
77.38000 5.046
77.40000 4.119
77.42000 4.827
77.44000 2.302
77.46000 3.423
77.48000 2.938
77.50000 1.589
77.52000 1.850
77.54000 -0.108
77.56000 2.186
77.58000 4.930
77.60000 2.818
77.62000 -1.145
77.64000 4.392
77.66000 6.511
77.68000 4.574
77.70000 4.877
77.72000 0.864
77.74000 0.836
77.76000 5.270
77.78000 3.593
77.80000 7.636
77.82000 7.734
77.84000 6.225
77.86000 4.375
77.88000 5.952
77.90000 5.503
77.92000 5.757
77.94000 1.218
77.96000 2.988
77.98000 7.258
78.00000 8.156
78.02000 8.937
78.04000 7.884
78.06000 4.351
78.08000 4.324
78.10000 3.850
78.12000 2.328
78.14000 3.722
78.16000 3.881
78.18000 6.679
78.20000 4.244
78.22000 6.121
78.24000 2.744
78.26000 1.946
78.28000 8.516
78.30000 2.844
78.32000 -2.227
78.34000 1.460
78.36000 2.695
78.38000 6.302
78.40000 5.018
78.42000 5.452
78.44000 7.416
78.46000 4.781
78.48000 4.256
78.50000 5.878
78.52000 10.337
78.54000 8.337
78.56000 6.428
78.58000 7.066
78.60000 5.056
78.62000 0.656
78.64000 -0.773
78.66000 2.246
78.68000 7.116
78.70000 7.843
78.72000 5.223
78.74000 1.090
78.76000 -2.247
78.78000 3.913
78.80000 8.883
78.82000 7.336
78.84000 2.684
78.86000 4.358
78.88000 2.182
78.90000 2.977
78.92000 7.370
78.94000 3.000
78.96000 2.954
78.98000 6.994
79.00000 1.918
79.02000 1.723
79.04000 3.295
79.06000 2.534
79.08000 4.054
79.10000 4.235
79.12000 3.071
79.14000 0.637
79.16000 3.288
79.18000 1.965
79.20000 4.115
79.22000 7.209
79.24000 6.150
79.26000 2.295
79.28000 4.474
79.30000 7.139
79.32000 4.885
79.34000 2.299
79.36000 1.664
79.38000 4.738
79.40000 5.707
79.42000 3.196
79.44000 3.242
79.46000 6.421
79.48000 1.912
79.50000 2.191
79.52000 2.440
79.54000 5.140
79.56000 4.478
79.58000 5.206
79.60000 8.789
79.62000 3.761
79.64000 2.781
79.66000 4.005
79.68000 6.010
79.70000 2.022
79.72000 -0.369
79.74000 -0.715
79.76000 -2.292
79.78000 -1.871
79.80000 2.667
79.82000 8.567
79.84000 8.540
79.86000 4.073
79.88000 2.194
79.90000 2.055
79.92000 -0.245
79.94000 -2.126
79.96000 1.117
79.98000 3.339
80.00000 2.866
80.02000 6.790
80.04000 4.772
80.06000 2.729
80.08000 0.229
80.10000 -2.123
80.12000 2.046
80.14000 2.543
80.16000 3.867
80.18000 4.532
80.20000 3.354
80.22000 4.661
80.24000 3.825
80.26000 3.424
80.28000 4.154
80.30000 -0.652
80.32000 1.460
80.34000 1.453
80.36000 3.096
80.38000 7.778
80.40000 5.334
80.42000 -1.244
80.44000 1.352
80.46000 4.119
80.48000 9.506
80.50000 7.803
80.52000 1.527
80.54000 1.799
80.56000 6.924
80.58000 5.103
80.60000 3.612
80.62000 4.676
80.64000 3.442
80.66000 2.468
80.68000 5.802
80.70000 4.790
80.72000 2.569
80.74000 -2.280
80.76000 -0.270
80.78000 4.641
80.80000 6.718
80.82000 8.898
80.84000 4.464
80.86000 7.606
80.88000 5.203
80.90000 7.384
80.92000 6.145
80.94000 2.273
80.96000 1.895
80.98000 4.020
81.00000 0.197
81.02000 -0.788
81.04000 1.299
81.06000 4.915
81.08000 2.102
81.10000 3.685
81.12000 5.829
81.14000 2.577
81.16000 4.963
81.18000 5.107
81.20000 4.847
81.22000 5.356
81.24000 2.129
81.26000 4.335
81.28000 0.577
81.30000 2.047
81.32000 4.883
81.34000 6.467
81.36000 3.710
81.38000 3.889
81.40000 1.701
81.42000 -1.327
81.44000 3.681
81.46000 2.082
81.48000 4.272
81.50000 4.979
81.52000 2.010
81.54000 1.241
81.56000 2.967
81.58000 5.253
81.60000 1.570
81.62000 3.644
81.64000 1.561
81.66000 2.692
81.68000 0.513
81.70000 3.297
81.72000 3.473
81.74000 4.423
81.76000 2.955
81.78000 -1.763
81.80000 0.627
81.82000 0.084
81.84000 2.920
81.86000 5.449
81.88000 7.751
81.90000 1.984
81.92000 3.932
81.94000 7.025
81.96000 9.686
81.98000 9.163
82.00000 6.292
82.02000 2.970
82.04000 4.207
82.06000 7.996
82.08000 8.113
82.10000 5.459
82.12000 7.994
82.14000 8.128
82.16000 8.485
82.18000 6.221
82.20000 6.723
82.22000 7.999
82.24000 4.289
82.26000 2.048
82.28000 8.034
82.30000 6.224
82.32000 6.547
82.34000 11.025
82.36000 7.378
82.38000 1.362
82.40000 11.511
82.42000 12.384
82.44000 14.345
82.46000 11.460
82.48000 11.741
82.50000 13.615
82.52000 13.313
82.54000 11.999
82.56000 12.250
82.58000 12.965
82.60000 17.697
82.62000 24.258
82.64000 20.900
82.66000 14.861
82.68000 19.986
82.70000 22.628
82.72000 17.920
82.74000 17.258
82.76000 19.485
82.78000 19.001
82.80000 23.763
82.82000 28.822
82.84000 23.481
82.86000 16.394
82.88000 21.064
82.90000 25.399
82.92000 24.391
82.94000 22.871
82.96000 26.112
82.98000 28.084
83.00000 28.806
83.02000 29.382
83.04000 32.344
83.06000 31.202
83.08000 29.118
83.10000 30.329
83.12000 28.546
83.14000 27.203
83.16000 31.227
83.18000 32.525
83.20000 28.801
83.22000 30.348
83.24000 35.293
83.26000 35.693
83.28000 31.296
83.30000 28.805
83.32000 26.414
83.34000 31.564
83.36000 30.762
83.38000 36.603
83.40000 36.676
83.42000 33.078
83.44000 30.158
83.46000 27.918
83.48000 30.842
83.50000 31.661
83.52000 26.380
83.54000 28.850
83.56000 27.850
83.58000 20.844
83.60000 20.903
83.62000 17.470
83.64000 19.538
83.66000 30.215
83.68000 25.117
83.70000 24.007
83.72000 24.697
83.74000 26.632
83.76000 24.359
83.78000 22.850
83.80000 18.892
83.82000 18.191
83.84000 19.805
83.86000 22.727
83.88000 21.466
83.90000 21.466
83.92000 17.626
83.94000 15.845
83.96000 17.481
83.98000 15.554
84.00000 17.850
84.02000 15.451
84.04000 12.805
84.06000 10.594
84.08000 10.524
84.10000 8.902
84.12000 10.877
84.14000 15.043
84.16000 13.428
84.18000 11.694
84.20000 13.695
84.22000 14.808
84.24000 11.271
84.26000 7.524
84.28000 7.166
84.30000 8.843
84.32000 10.461
84.34000 4.973
84.36000 9.679
84.38000 5.920
84.40000 3.667
84.42000 5.504
84.44000 6.307
84.46000 7.191
84.48000 10.190
84.50000 7.906
84.52000 7.863
84.54000 4.522
84.56000 3.771
84.58000 4.361
84.60000 6.787
84.62000 5.409
84.64000 3.208
84.66000 -0.597
84.68000 1.906
84.70000 4.773
84.72000 9.752
84.74000 14.529
84.76000 11.964
84.78000 5.274
84.80000 3.239
84.82000 2.117
84.84000 4.595
84.86000 3.045
84.88000 3.824
84.90000 1.460
84.92000 2.200
84.94000 2.013
84.96000 5.560
84.98000 5.735
85.00000 2.584
85.02000 -0.914
85.04000 2.335
85.06000 6.068
85.08000 5.738
85.10000 3.987
85.12000 6.121
85.14000 4.362
85.16000 5.213
85.18000 4.324
85.20000 4.185
85.22000 6.104
85.24000 3.617
85.26000 -0.040
85.28000 2.445
85.30000 -2.293
85.32000 2.427
85.34000 2.879
85.36000 -0.770
85.38000 2.937
85.40000 6.875
85.42000 4.412
85.44000 3.143
85.46000 1.591
85.48000 -2.288
85.50000 -1.096
85.52000 0.536
85.54000 2.771
85.56000 1.258
85.58000 3.570
85.60000 1.813
85.62000 4.908
85.64000 4.179
85.66000 -0.159
85.68000 0.871
85.70000 -1.727
85.72000 -2.308
85.74000 0.587
85.76000 3.318
85.78000 0.719
85.80000 3.327
85.82000 3.881
85.84000 5.422
85.86000 6.718
85.88000 4.170
85.90000 3.435
85.92000 4.639
85.94000 3.016
85.96000 1.352
85.98000 4.234
86.00000 0.246
86.02000 1.733
86.04000 1.357
86.06000 6.211
86.08000 1.954
86.10000 3.394
86.12000 2.040
86.14000 1.817
86.16000 2.926
86.18000 -0.071
86.20000 -1.317
86.22000 0.407
86.24000 1.282
86.26000 3.126
86.28000 1.161
86.30000 1.896
86.32000 0.669
86.34000 -0.640
86.36000 0.613
86.38000 -0.031
86.40000 2.863
86.42000 2.999
86.44000 5.444
86.46000 4.993
86.48000 -0.499
86.50000 1.841
86.52000 6.233
86.54000 0.739
86.56000 1.290
86.58000 2.375
86.60000 1.798
86.62000 1.904
86.64000 0.957
86.66000 0.578
86.68000 -0.004
86.70000 2.962
86.72000 5.344
86.74000 2.496
86.76000 2.250
86.78000 4.523
86.80000 7.236
86.82000 2.183
86.84000 3.685
86.86000 5.777
86.88000 4.536
86.90000 5.126
86.92000 2.212
86.94000 5.529
86.96000 7.173
86.98000 10.398
87.00000 6.520
87.02000 6.555
87.04000 8.437
87.06000 11.458
87.08000 11.522
87.10000 12.821
87.12000 12.426
87.14000 15.278
87.16000 12.800
87.18000 13.787
87.20000 16.533
87.22000 13.580
87.24000 13.275
87.26000 13.700
87.28000 20.553
87.30000 20.815
87.32000 19.690
87.34000 22.351
87.36000 21.502
87.38000 21.406
87.40000 23.777
87.42000 27.047
87.44000 27.093
87.46000 22.934
87.48000 26.873
87.50000 27.886
87.52000 24.433
87.54000 27.412
87.56000 28.832
87.58000 23.554
87.60000 22.993
87.62000 22.571
87.64000 23.776
87.66000 26.005
87.68000 27.525
87.70000 31.001
87.72000 33.172
87.74000 33.901
87.76000 28.151
87.78000 27.582
87.80000 27.428
87.82000 30.430
87.84000 31.072
87.86000 33.589
87.88000 34.673
87.90000 30.860
87.92000 31.984
87.94000 27.402
87.96000 33.826
87.98000 30.281
88.00000 26.997
88.02000 23.936
88.04000 24.630
88.06000 24.312
88.08000 20.690
88.10000 20.209
88.12000 19.777
88.14000 19.372
88.16000 16.127
88.18000 19.790
88.20000 23.511
88.22000 22.757
88.24000 20.587
88.26000 20.419
88.28000 20.196
88.30000 22.616
88.32000 21.026
88.34000 15.546
88.36000 10.767
88.38000 10.927
88.40000 9.986
88.42000 13.623
88.44000 13.087
88.46000 8.829
88.48000 4.449
88.50000 9.081
88.52000 13.305
88.54000 8.187
88.56000 10.248
88.58000 10.819
88.60000 9.880
88.62000 3.664
88.64000 8.100
88.66000 8.875
88.68000 10.340
88.70000 11.096
88.72000 4.553
88.74000 1.693
88.76000 6.141
88.78000 8.066
88.80000 8.604
88.82000 8.292
88.84000 11.311
88.86000 6.851
88.88000 5.986
88.90000 7.493
88.92000 5.414
88.94000 1.289
88.96000 0.788
88.98000 1.469
89.00000 3.295
89.02000 4.419
89.04000 3.357
89.06000 7.200
89.08000 3.696
89.10000 2.442
89.12000 1.613
89.14000 -0.299
89.16000 2.890
89.18000 5.955
89.20000 6.286
89.22000 4.374
89.24000 -0.450
89.26000 3.611
89.28000 5.854
89.30000 4.489
89.32000 1.588
89.34000 5.505
89.36000 5.066
89.38000 1.945
89.40000 -1.995
89.42000 -0.243
89.44000 1.358
89.46000 2.703
89.48000 3.400
89.50000 2.235
89.52000 1.348
89.54000 -2.168
89.56000 4.004
89.58000 6.324
89.60000 2.355
89.62000 4.975
89.64000 2.905
89.66000 2.215
89.68000 1.461
89.70000 -1.371
89.72000 1.846
89.74000 1.527
89.76000 2.631
89.78000 2.969
89.80000 5.822
89.82000 8.172
89.84000 0.751
89.86000 -1.153
89.88000 -0.015
89.90000 0.652
89.92000 1.811
89.94000 1.541
89.96000 2.694
89.98000 1.887
90.00000 0.843
90.02000 1.113
90.04000 -0.521
90.06000 -0.204
90.08000 2.318
90.10000 -2.131
90.12000 -2.152
90.14000 -0.283
90.16000 2.313
90.18000 0.787
90.20000 1.785
90.22000 3.673
90.24000 3.380
90.26000 5.211
90.28000 2.241
90.30000 0.266
90.32000 1.308
90.34000 3.178
90.36000 0.023
90.38000 -0.763
90.40000 -0.428
90.42000 0.381
90.44000 2.831
90.46000 3.097
90.48000 2.519
90.50000 3.398
90.52000 4.903
90.54000 -0.896
90.56000 -2.148
90.58000 0.732
90.60000 2.886
90.62000 1.749
90.64000 2.782
90.66000 4.002
90.68000 0.820
90.70000 0.879
90.72000 1.247
90.74000 3.943
90.76000 6.944
90.78000 6.212
90.80000 2.159
90.82000 0.590
90.84000 2.793
90.86000 2.267
90.88000 0.130
90.90000 1.107
90.92000 1.767
90.94000 5.087
90.96000 6.793
90.98000 7.262
91.00000 4.991
91.02000 2.061
91.04000 0.859
91.06000 0.226
91.08000 -0.358
91.10000 -1.373
91.12000 3.147
91.14000 4.855
91.16000 6.779
91.18000 6.760
91.20000 6.965
91.22000 5.760
91.24000 1.069
91.26000 -2.118
91.28000 2.959
91.30000 1.116
91.32000 5.319
91.34000 6.166
91.36000 3.382
91.38000 1.063
91.40000 4.474
91.42000 3.456
91.44000 1.511
91.46000 -0.507
91.48000 5.552
91.50000 5.566
91.52000 3.654
91.54000 5.046
91.56000 1.056
91.58000 -0.278
91.60000 2.600
91.62000 -0.071
91.64000 3.215
91.66000 1.379
91.68000 2.126
91.70000 5.393
91.72000 7.533
91.74000 4.969
91.76000 3.675
91.78000 4.660
91.80000 -0.097
91.82000 -0.474
91.84000 3.595
91.86000 0.918
91.88000 0.971
91.90000 1.193
91.92000 2.359
91.94000 -0.760
91.96000 -1.254
91.98000 4.529
92.00000 5.644
92.02000 1.033
92.04000 -0.855
92.06000 0.676
92.08000 2.151
92.10000 -2.136
92.12000 0.319
92.14000 3.997
92.16000 3.710
92.18000 2.326
92.20000 -0.207
92.22000 5.706
92.24000 3.445
92.26000 -0.456
92.28000 0.785
92.30000 1.374
92.32000 1.494
92.34000 2.625
92.36000 3.507
92.38000 1.749
92.40000 2.807
92.42000 2.340
92.44000 -2.142
92.46000 -1.421
92.48000 0.776
92.50000 4.656
92.52000 6.325
92.54000 1.926
92.56000 2.088
92.58000 -0.360
92.60000 1.867
92.62000 5.307
92.64000 6.273
92.66000 1.318
92.68000 -1.689
92.70000 1.381
92.72000 0.591
92.74000 -0.735
92.76000 3.409
92.78000 3.511
92.80000 3.231
92.82000 2.026
92.84000 6.582
92.86000 5.643
92.88000 -1.166
92.90000 3.651
92.92000 7.558
92.94000 6.952
92.96000 7.641
92.98000 8.551
93.00000 9.173
93.02000 6.245
93.04000 2.401
93.06000 -0.917
93.08000 -0.440
93.10000 0.236
93.12000 5.478
93.14000 11.832
93.16000 12.267
93.18000 6.797
93.20000 5.331
93.22000 1.478
93.24000 3.436
93.26000 2.309
93.28000 3.565
93.30000 2.046
93.32000 -0.332
93.34000 1.657
93.36000 5.788
93.38000 6.781
93.40000 1.941
93.42000 0.138
93.44000 3.940
93.46000 5.185
93.48000 8.044
93.50000 3.481
93.52000 4.341
93.54000 1.388
93.56000 1.515
93.58000 4.452
93.60000 5.112
93.62000 5.407
93.64000 6.963
93.66000 9.435
93.68000 3.204
93.70000 1.208
93.72000 7.949
93.74000 11.660
93.76000 5.572
93.78000 7.602
93.80000 5.775
93.82000 7.794
93.84000 8.408
93.86000 6.570
93.88000 3.875
93.90000 0.439
93.92000 -2.084
93.94000 2.897
93.96000 12.881
93.98000 10.753
94.00000 7.173
94.02000 5.632
94.04000 8.836
94.06000 7.944
94.08000 2.881
94.10000 2.004
94.12000 -0.515
94.14000 1.099
94.16000 3.335
94.18000 6.265
94.20000 4.604
94.22000 8.678
94.24000 5.572
94.26000 1.001
94.28000 3.259
94.30000 7.296
94.32000 1.445
94.34000 0.513
94.36000 2.332
94.38000 5.406
94.40000 7.060
94.42000 6.926
94.44000 6.049
94.46000 2.971
94.48000 2.680
94.50000 7.276
94.52000 5.895
94.54000 3.258
94.56000 4.878
94.58000 8.441
94.60000 5.531
94.62000 6.127
94.64000 6.182
94.66000 7.649
94.68000 2.186
94.70000 3.058
94.72000 2.703
94.74000 7.131
94.76000 -0.079
94.78000 -2.132
94.80000 1.798
94.82000 4.725
94.84000 7.876
94.86000 11.758
94.88000 5.584
94.90000 0.435
94.92000 6.641
94.94000 3.423
94.96000 3.306
94.98000 5.028
95.00000 5.588
95.02000 6.837
95.04000 6.758
95.06000 4.936
95.08000 6.277
95.10000 5.261
95.12000 1.261
95.14000 0.417
95.16000 -1.075
95.18000 5.437
95.20000 9.160
95.22000 6.460
95.24000 4.461
95.26000 4.181
95.28000 5.602
95.30000 6.277
95.32000 3.442
95.34000 4.700
95.36000 5.082
95.38000 2.937
95.40000 -2.136
95.42000 0.369
95.44000 3.868
95.46000 3.510
95.48000 4.060
95.50000 4.437
95.52000 6.528
95.54000 8.104
95.56000 4.546
95.58000 6.960
95.60000 6.516
95.62000 5.732
95.64000 7.225
95.66000 4.576
95.68000 2.267
95.70000 6.394
95.72000 7.490
95.74000 8.284
95.76000 7.130
95.78000 3.433
95.80000 -1.244
95.82000 4.834
95.84000 6.301
95.86000 6.090
95.88000 4.364
95.90000 4.030
95.92000 3.483
95.94000 3.906
95.96000 0.394
95.98000 -0.016
96.00000 7.104
96.02000 8.343
96.04000 2.740
96.06000 2.365
96.08000 1.769
96.10000 4.870
96.12000 9.045
96.14000 5.489
96.16000 3.618
96.18000 3.435
96.20000 5.818
96.22000 2.447
96.24000 7.411
96.26000 6.925
96.28000 5.256
96.30000 9.742
96.32000 2.999
96.34000 2.110
96.36000 2.665
96.38000 3.795
96.40000 5.784
96.42000 3.751
96.44000 -1.263
96.46000 2.483
96.48000 6.638
96.50000 7.435
96.52000 4.202
96.54000 6.124
96.56000 8.196
96.58000 2.450
96.60000 5.751
96.62000 -0.764
96.64000 -2.110
96.66000 1.179
96.68000 6.535
96.70000 6.665
96.72000 7.252
96.74000 9.325
96.76000 5.677
96.78000 8.203
96.80000 5.910
96.82000 9.852
96.84000 13.046
96.86000 7.609
96.88000 7.175
96.90000 1.749
96.92000 -0.919
96.94000 2.807
96.96000 4.542
96.98000 7.374
97.00000 3.011
97.02000 1.940
97.04000 2.665
97.06000 7.870
97.08000 9.655
97.10000 7.401
97.12000 2.719
97.14000 4.101
97.16000 6.703
97.18000 4.273
97.20000 2.317
97.22000 4.412
97.24000 4.770
97.26000 4.523
97.28000 6.498
97.30000 6.841
97.32000 7.345
97.34000 4.775
97.36000 7.656
97.38000 7.937
97.40000 10.642
97.42000 7.103
97.44000 9.734
97.46000 12.498
97.48000 7.042
97.50000 5.728
97.52000 6.110
97.54000 6.970
97.56000 9.797
97.58000 6.574
97.60000 5.210
97.62000 3.349
97.64000 5.347
97.66000 8.588
97.68000 7.693
97.70000 5.855
97.72000 1.892
97.74000 -2.123
97.76000 -1.946
97.78000 3.037
97.80000 2.122
97.82000 4.511
97.84000 11.008
97.86000 3.759
97.88000 2.565
97.90000 0.499
97.92000 4.066
97.94000 5.509
97.96000 0.673
97.98000 -1.066
98.00000 -0.297
98.02000 -0.743
98.04000 2.434
98.06000 8.695
98.08000 3.707
98.10000 5.280
98.12000 5.493
98.14000 8.181
98.16000 0.087
98.18000 7.043
98.20000 5.353
98.22000 11.153
98.24000 14.193
98.26000 3.139
98.28000 5.673
98.30000 7.957
98.32000 9.301
98.34000 8.899
98.36000 4.730
98.38000 1.324
98.40000 7.156
98.42000 4.966
98.44000 -2.086
98.46000 1.369
98.48000 6.056
98.50000 8.734
98.52000 9.795
98.54000 5.570
98.56000 7.828
98.58000 10.726
98.60000 5.117
98.62000 3.319
98.64000 14.422
98.66000 5.060
98.68000 3.187
98.70000 6.575
98.72000 8.873
98.74000 5.212
98.76000 5.369
98.78000 4.980
98.80000 11.928
98.82000 2.920
98.84000 4.458
98.86000 4.580
98.88000 1.984
98.90000 9.231
98.92000 7.881
98.94000 9.239
98.96000 5.019
98.98000 0.379
99.00000 8.733
99.02000 3.035
99.04000 1.574
99.06000 10.121
99.08000 12.930
99.10000 8.288
99.12000 12.259
99.14000 10.247
99.16000 1.829
99.18000 -1.051
99.20000 4.723
99.22000 8.098
99.24000 16.115
99.26000 13.884
99.28000 3.672
99.30000 8.493
99.32000 7.330
99.34000 4.614
99.36000 8.764
99.38000 12.643
99.40000 12.598
99.42000 5.976
99.44000 6.433
99.46000 6.914
99.48000 10.180
99.50000 3.293
99.52000 0.715
99.54000 5.459
99.56000 2.207
99.58000 7.131
99.60000 13.687
99.62000 16.130
99.64000 11.431
99.66000 1.848
99.68000 -4.227
99.70000 8.312
99.72000 11.096
99.74000 12.001
99.76000 12.080
99.78000 12.176
99.80000 7.319
99.82000 6.136
99.84000 0.490
99.86000 2.160
99.88000 0.786
99.90000 11.443
99.92000 24.695
99.94000 16.826
99.96000 14.619
99.98000 0.000
