'Id: "0011387" Comment: "Integrate frame 0011387_Au-Ir-Rh_Rh-rich_XRD-Mapping-124-0000.gfrmwith cursor Wedge Cursor #5" Operator: "B?rgel" Anode: "Cu" Wavelength: "1.5406" Scantype: "2Theta (TwoTheta)" TimePerStep: "1" X: "-4.5" Y: "-9" Z: "5.95" 
10.00000 0.000
10.02000 -0.518
10.04000 -1.568
10.06000 -4.167
10.08000 2.478
10.10000 15.499
10.12000 15.713
10.14000 4.809
10.16000 17.279
10.18000 28.842
10.20000 25.593
10.22000 5.930
10.24000 19.099
10.26000 22.708
10.28000 28.298
10.30000 25.384
10.32000 19.473
10.34000 15.403
10.36000 -0.421
10.38000 -4.099
10.40000 10.455
10.42000 9.729
10.44000 21.870
10.46000 25.263
10.48000 20.128
10.50000 5.718
10.52000 18.266
10.54000 18.069
10.56000 6.406
10.58000 13.326
10.60000 20.486
10.62000 13.375
10.64000 7.060
10.66000 4.331
10.68000 9.674
10.70000 12.872
10.72000 25.092
10.74000 28.550
10.76000 18.891
10.78000 32.881
10.80000 35.681
10.82000 26.746
10.84000 23.536
10.86000 11.884
10.88000 13.620
10.90000 23.107
10.92000 23.783
10.94000 23.750
10.96000 18.401
10.98000 17.253
11.00000 13.387
11.02000 14.896
11.04000 20.048
11.06000 10.625
11.08000 25.198
11.10000 24.357
11.12000 11.811
11.14000 18.609
11.16000 17.564
11.18000 13.740
11.20000 26.329
11.22000 35.145
11.24000 27.385
11.26000 22.573
11.28000 16.859
11.30000 15.792
11.32000 17.468
11.34000 7.308
11.36000 7.266
11.38000 12.635
11.40000 9.136
11.42000 20.015
11.44000 12.872
11.46000 -3.898
11.48000 -2.576
11.50000 12.116
11.52000 17.511
11.54000 20.021
11.56000 23.418
11.58000 4.087
11.60000 9.337
11.62000 20.387
11.64000 20.609
11.66000 13.383
11.68000 18.914
11.70000 26.200
11.72000 22.187
11.74000 16.099
11.76000 13.946
11.78000 8.100
11.80000 7.833
11.82000 6.123
11.84000 8.975
11.86000 21.451
11.88000 19.622
11.90000 12.735
11.92000 15.893
11.94000 12.806
11.96000 19.830
11.98000 11.768
12.00000 13.881
12.02000 9.510
12.04000 10.447
12.06000 21.005
12.08000 25.374
12.10000 19.629
12.12000 10.254
12.14000 14.667
12.16000 11.848
12.18000 12.015
12.20000 20.007
12.22000 13.795
12.24000 28.040
12.26000 34.791
12.28000 25.690
12.30000 16.057
12.32000 9.833
12.34000 7.753
12.36000 7.264
12.38000 16.017
12.40000 13.692
12.42000 10.254
12.44000 22.300
12.46000 8.408
12.48000 11.297
12.50000 8.735
12.52000 20.134
12.54000 34.400
12.56000 21.109
12.58000 26.706
12.60000 19.939
12.62000 19.690
12.64000 12.993
12.66000 13.154
12.68000 9.337
12.70000 16.689
12.72000 18.346
12.74000 19.040
12.76000 10.785
12.78000 10.645
12.80000 14.685
12.82000 5.088
12.84000 14.865
12.86000 17.877
12.88000 20.942
12.90000 13.300
12.92000 8.583
12.94000 19.693
12.96000 25.166
12.98000 17.665
13.00000 13.336
13.02000 21.457
13.04000 15.288
13.06000 13.771
13.08000 14.274
13.10000 17.269
13.12000 13.817
13.14000 10.358
13.16000 18.966
13.18000 22.383
13.20000 29.113
13.22000 14.530
13.24000 13.978
13.26000 11.880
13.28000 11.711
13.30000 13.841
13.32000 13.037
13.34000 12.803
13.36000 21.725
13.38000 19.389
13.40000 17.545
13.42000 12.989
13.44000 17.035
13.46000 15.234
13.48000 14.595
13.50000 21.247
13.52000 13.150
13.54000 10.722
13.56000 7.325
13.58000 16.625
13.60000 22.237
13.62000 4.121
13.64000 -4.402
13.66000 10.700
13.68000 29.487
13.70000 16.358
13.72000 12.107
13.74000 10.669
13.76000 15.413
13.78000 11.848
13.80000 5.030
13.82000 10.302
13.84000 16.987
13.86000 13.573
13.88000 11.069
13.90000 9.803
13.92000 15.175
13.94000 11.766
13.96000 6.704
13.98000 11.665
14.00000 8.531
14.02000 13.876
14.04000 18.423
14.06000 11.797
14.08000 12.594
14.10000 13.591
14.12000 13.376
14.14000 12.801
14.16000 11.342
14.18000 9.692
14.20000 17.494
14.22000 12.911
14.24000 16.458
14.26000 17.555
14.28000 19.169
14.30000 12.828
14.32000 19.500
14.34000 24.847
14.36000 8.950
14.38000 2.912
14.40000 6.224
14.42000 11.226
14.44000 21.296
14.46000 18.923
14.48000 16.304
14.50000 9.980
14.52000 6.625
14.54000 5.221
14.56000 11.429
14.58000 12.371
14.60000 5.523
14.62000 11.311
14.64000 16.844
14.66000 15.137
14.68000 14.624
14.70000 18.641
14.72000 7.909
14.74000 -4.408
14.76000 8.039
14.78000 17.331
14.80000 17.367
14.82000 9.841
14.84000 9.745
14.86000 4.841
14.88000 8.595
14.90000 8.112
14.92000 10.214
14.94000 8.087
14.96000 -0.183
14.98000 4.949
15.00000 10.746
15.02000 6.676
15.04000 4.741
15.06000 16.692
15.08000 12.336
15.10000 9.309
15.12000 6.761
15.14000 6.935
15.16000 -2.884
15.18000 8.272
15.20000 10.667
15.22000 10.314
15.24000 8.963
15.26000 5.640
15.28000 12.571
15.30000 10.839
15.32000 12.988
15.34000 11.382
15.36000 17.438
15.38000 18.509
15.40000 7.176
15.42000 8.830
15.44000 6.220
15.46000 -2.894
15.48000 4.543
15.50000 3.998
15.52000 7.619
15.54000 3.228
15.56000 10.386
15.58000 16.635
15.60000 10.853
15.62000 -2.491
15.64000 4.893
15.66000 13.928
15.68000 5.612
15.70000 6.406
15.72000 16.415
15.74000 16.401
15.76000 14.829
15.78000 15.645
15.80000 10.521
15.82000 11.478
15.84000 5.809
15.86000 5.801
15.88000 10.060
15.90000 12.426
15.92000 2.803
15.94000 -0.638
15.96000 -1.015
15.98000 10.312
16.00000 14.768
16.02000 15.241
16.04000 10.947
16.06000 7.517
16.08000 9.941
16.10000 4.830
16.12000 -0.337
16.14000 8.942
16.16000 3.964
16.18000 -2.544
16.20000 3.257
16.22000 6.077
16.24000 4.750
16.26000 0.021
16.28000 5.563
16.30000 4.000
16.32000 1.253
16.34000 3.993
16.36000 7.467
16.38000 4.477
16.40000 6.081
16.42000 1.697
16.44000 4.468
16.46000 5.173
16.48000 13.628
16.50000 14.650
16.52000 14.674
16.54000 16.952
16.56000 17.683
16.58000 8.576
16.60000 -2.632
16.62000 3.407
16.64000 4.933
16.66000 9.744
16.68000 6.877
16.70000 -2.514
16.72000 4.753
16.74000 5.044
16.76000 1.726
16.78000 2.110
16.80000 4.561
16.82000 6.305
16.84000 6.879
16.86000 4.239
16.88000 0.284
16.90000 4.055
16.92000 6.659
16.94000 10.551
16.96000 9.315
16.98000 8.776
17.00000 7.090
17.02000 5.094
17.04000 -4.342
17.06000 -3.302
17.08000 7.884
17.10000 11.963
17.12000 10.177
17.14000 11.920
17.16000 7.143
17.18000 9.309
17.20000 5.479
17.22000 13.088
17.24000 11.900
17.26000 6.326
17.28000 8.549
17.30000 12.329
17.32000 12.610
17.34000 14.591
17.36000 12.382
17.38000 12.617
17.40000 13.484
17.42000 1.277
17.44000 1.269
17.46000 4.428
17.48000 5.206
17.50000 5.977
17.52000 4.495
17.54000 3.675
17.56000 11.052
17.58000 13.372
17.60000 5.274
17.62000 -3.318
17.64000 4.161
17.66000 7.430
17.68000 0.529
17.70000 0.631
17.72000 1.519
17.74000 8.867
17.76000 4.780
17.78000 9.774
17.80000 9.138
17.82000 9.708
17.84000 5.507
17.86000 5.013
17.88000 3.062
17.90000 8.648
17.92000 7.538
17.94000 7.779
17.96000 11.103
17.98000 7.872
18.00000 2.650
18.02000 -4.290
18.04000 3.589
18.06000 2.368
18.08000 1.409
18.10000 4.650
18.12000 10.649
18.14000 7.709
18.16000 8.782
18.18000 11.756
18.20000 10.077
18.22000 3.434
18.24000 1.627
18.26000 4.012
18.28000 3.422
18.30000 4.278
18.32000 4.768
18.34000 8.418
18.36000 3.357
18.38000 2.113
18.40000 -0.031
18.42000 -2.653
18.44000 -3.915
18.46000 0.605
18.48000 -0.779
18.50000 2.453
18.52000 4.804
18.54000 9.493
18.56000 3.853
18.58000 3.395
18.60000 5.298
18.62000 1.779
18.64000 6.191
18.66000 3.462
18.68000 -0.138
18.70000 2.699
18.72000 4.420
18.74000 5.668
18.76000 5.476
18.78000 9.621
18.80000 4.102
18.82000 7.686
18.84000 3.710
18.86000 4.675
18.88000 9.662
18.90000 6.456
18.92000 8.392
18.94000 5.271
18.96000 -0.696
18.98000 -4.275
19.00000 3.064
19.02000 12.147
19.04000 11.191
19.06000 7.401
19.08000 5.311
19.10000 6.503
19.12000 9.156
19.14000 5.206
19.16000 2.275
19.18000 5.667
19.20000 9.045
19.22000 9.381
19.24000 2.882
19.26000 -0.244
19.28000 5.050
19.30000 3.521
19.32000 1.075
19.34000 4.298
19.36000 2.554
19.38000 0.722
19.40000 -0.823
19.42000 -0.075
19.44000 0.043
19.46000 -0.795
19.48000 2.509
19.50000 8.144
19.52000 6.183
19.54000 1.504
19.56000 -1.623
19.58000 -4.247
19.60000 -0.097
19.62000 7.081
19.64000 -1.113
19.66000 8.576
19.68000 5.264
19.70000 1.731
19.72000 4.102
19.74000 1.194
19.76000 -3.109
19.78000 6.628
19.80000 10.243
19.82000 4.160
19.84000 4.372
19.86000 6.830
19.88000 2.786
19.90000 2.869
19.92000 3.760
19.94000 0.996
19.96000 -2.410
19.98000 -0.181
20.00000 -4.221
20.02000 4.175
20.04000 0.326
20.06000 -1.111
20.08000 8.303
20.10000 12.660
20.12000 4.046
20.14000 -1.073
20.16000 -1.073
20.18000 6.867
20.20000 4.616
20.22000 9.200
20.24000 1.678
20.26000 3.124
20.28000 6.179
20.30000 5.076
20.32000 8.912
20.34000 3.533
20.36000 3.512
20.38000 -0.208
20.40000 -0.328
20.42000 5.577
20.44000 8.093
20.46000 3.917
20.48000 3.962
20.50000 5.738
20.52000 1.264
20.54000 3.474
20.56000 8.370
20.58000 6.804
20.60000 5.488
20.62000 9.888
20.64000 10.021
20.66000 7.729
20.68000 14.536
20.70000 9.393
20.72000 12.228
20.74000 3.210
20.76000 -1.846
20.78000 6.026
20.80000 12.727
20.82000 12.194
20.84000 10.692
20.86000 11.120
20.88000 9.384
20.90000 6.144
20.92000 3.476
20.94000 3.268
20.96000 -1.739
20.98000 -4.153
21.00000 -3.133
21.02000 6.635
21.04000 8.515
21.06000 1.918
21.08000 -1.218
21.10000 -3.368
21.12000 -0.896
21.14000 2.355
21.16000 8.008
21.18000 3.592
21.20000 5.486
21.22000 8.967
21.24000 4.787
21.26000 1.377
21.28000 -0.456
21.30000 5.660
21.32000 5.498
21.34000 0.506
21.36000 9.355
21.38000 12.042
21.40000 7.157
21.42000 6.152
21.44000 3.848
21.46000 3.437
21.48000 3.562
21.50000 4.875
21.52000 8.853
21.54000 7.402
21.56000 4.755
21.58000 5.934
21.60000 2.571
21.62000 -2.368
21.64000 0.284
21.66000 4.302
21.68000 0.303
21.70000 8.787
21.72000 10.766
21.74000 8.585
21.76000 5.293
21.78000 4.125
21.80000 2.019
21.82000 5.501
21.84000 6.511
21.86000 4.368
21.88000 3.098
21.90000 3.304
21.92000 5.719
21.94000 0.449
21.96000 5.899
21.98000 8.270
22.00000 -4.076
22.02000 -2.303
22.04000 6.220
22.06000 3.282
22.08000 5.309
22.10000 8.446
22.12000 5.949
22.14000 3.394
22.16000 1.317
22.18000 -2.047
22.20000 2.872
22.22000 2.202
22.24000 0.015
22.26000 2.926
22.28000 3.689
22.30000 1.924
22.32000 -0.154
22.34000 0.926
22.36000 5.304
22.38000 3.392
22.40000 1.976
22.42000 8.425
22.44000 6.692
22.46000 2.812
22.48000 6.088
22.50000 5.072
22.52000 4.330
22.54000 5.377
22.56000 0.844
22.58000 3.556
22.60000 6.558
22.62000 2.964
22.64000 3.184
22.66000 -1.925
22.68000 1.482
22.70000 5.714
22.72000 -2.146
22.74000 0.273
22.76000 7.845
22.78000 5.248
22.80000 -3.044
22.82000 -0.701
22.84000 0.804
22.86000 1.962
22.88000 2.220
22.90000 4.087
22.92000 4.884
22.94000 7.610
22.96000 8.861
22.98000 0.362
23.00000 0.750
23.02000 5.151
23.04000 0.818
23.06000 0.764
23.08000 2.046
23.10000 2.129
23.12000 1.615
23.14000 6.126
23.16000 8.301
23.18000 7.221
23.20000 2.108
23.22000 5.839
23.24000 -2.097
23.26000 0.339
23.28000 2.507
23.30000 5.805
23.32000 8.220
23.34000 10.001
23.36000 3.791
23.38000 -1.653
23.40000 0.869
23.42000 6.425
23.44000 4.683
23.46000 -0.065
23.48000 -3.398
23.50000 -2.355
23.52000 -0.831
23.54000 -1.298
23.56000 -0.849
23.58000 0.386
23.60000 2.908
23.62000 12.088
23.64000 12.384
23.66000 9.440
23.68000 11.310
23.70000 13.008
23.72000 11.262
23.74000 2.113
23.76000 5.378
23.78000 4.722
23.80000 3.858
23.82000 1.513
23.84000 6.399
23.86000 11.994
23.88000 7.886
23.90000 4.016
23.92000 3.788
23.94000 4.248
23.96000 -0.295
23.98000 4.463
24.00000 4.306
24.02000 2.681
24.04000 -0.273
24.06000 3.973
24.08000 2.763
24.10000 3.144
24.12000 1.549
24.14000 0.313
24.16000 4.820
24.18000 4.646
24.20000 7.078
24.22000 10.309
24.24000 5.437
24.26000 4.329
24.28000 5.294
24.30000 5.998
24.32000 3.178
24.34000 0.716
24.36000 1.237
24.38000 9.214
24.40000 8.771
24.42000 4.668
24.44000 3.331
24.46000 4.718
24.48000 5.722
24.50000 7.178
24.52000 11.694
24.54000 12.192
24.56000 10.790
24.58000 11.187
24.60000 12.474
24.62000 7.479
24.64000 6.764
24.66000 4.828
24.68000 5.473
24.70000 4.052
24.72000 -3.881
24.74000 11.519
24.76000 11.639
24.78000 8.155
24.80000 5.720
24.82000 9.178
24.84000 5.024
24.86000 9.755
24.88000 12.210
24.90000 7.987
24.92000 5.687
24.94000 10.356
24.96000 7.591
24.98000 4.547
25.00000 5.535
25.02000 2.150
25.04000 5.744
25.06000 4.986
25.08000 4.731
25.10000 7.059
25.12000 2.437
25.14000 5.091
25.16000 4.957
25.18000 8.919
25.20000 4.271
25.22000 4.616
25.24000 0.157
25.26000 2.240
25.28000 3.406
25.30000 3.562
25.32000 5.184
25.34000 4.780
25.36000 7.096
25.38000 6.666
25.40000 9.384
25.42000 7.027
25.44000 5.148
25.46000 4.535
25.48000 1.551
25.50000 3.393
25.52000 2.983
25.54000 3.731
25.56000 4.521
25.58000 2.420
25.60000 5.464
25.62000 7.282
25.64000 7.405
25.66000 5.167
25.68000 1.909
25.70000 4.417
25.72000 4.269
25.74000 2.460
25.76000 3.146
25.78000 4.988
25.80000 10.479
25.82000 8.923
25.84000 4.572
25.86000 4.691
25.88000 3.188
25.90000 0.337
25.92000 -0.493
25.94000 1.460
25.96000 4.350
25.98000 3.075
26.00000 5.306
26.02000 9.339
26.04000 8.662
26.06000 3.813
26.08000 1.850
26.10000 2.862
26.12000 6.650
26.14000 12.241
26.16000 7.177
26.18000 6.247
26.20000 5.259
26.22000 3.057
26.24000 5.137
26.26000 7.488
26.28000 -0.142
26.30000 -3.853
26.32000 0.220
26.34000 0.482
26.36000 0.838
26.38000 0.734
26.40000 -2.014
26.42000 0.342
26.44000 3.921
26.46000 10.240
26.48000 3.898
26.50000 5.329
26.52000 3.317
26.54000 6.208
26.56000 8.487
26.58000 8.119
26.60000 10.605
26.62000 7.663
26.64000 4.035
26.66000 4.230
26.68000 8.805
26.70000 4.181
26.72000 4.237
26.74000 5.201
26.76000 3.027
26.78000 0.289
26.80000 0.728
26.82000 1.336
26.84000 0.721
26.86000 -0.763
26.88000 -3.831
26.90000 -1.459
26.92000 1.045
26.94000 1.964
26.96000 4.141
26.98000 1.919
27.00000 5.759
27.02000 6.471
27.04000 3.989
27.06000 1.736
27.08000 0.290
27.10000 1.979
27.12000 1.126
27.14000 -0.657
27.16000 1.908
27.18000 8.071
27.20000 4.636
27.22000 -2.229
27.24000 -1.295
27.26000 2.365
27.28000 0.040
27.30000 -3.619
27.32000 -0.899
27.34000 4.211
27.36000 3.509
27.38000 2.498
27.40000 3.833
27.42000 3.329
27.44000 4.258
27.46000 2.431
27.48000 5.437
27.50000 4.663
27.52000 3.879
27.54000 5.634
27.56000 7.107
27.58000 6.364
27.60000 -1.454
27.62000 2.526
27.64000 -1.459
27.66000 2.130
27.68000 2.067
27.70000 -1.055
27.72000 6.964
27.74000 6.488
27.76000 9.014
27.78000 7.074
27.80000 7.478
27.82000 2.653
27.84000 0.917
27.86000 5.293
27.88000 4.817
27.90000 -0.518
27.92000 1.305
27.94000 2.890
27.96000 2.595
27.98000 9.031
28.00000 8.343
28.02000 2.841
28.04000 1.446
28.06000 6.439
28.08000 7.950
28.10000 10.413
28.12000 6.412
28.14000 7.243
28.16000 9.024
28.18000 5.434
28.20000 2.580
28.22000 4.892
28.24000 3.219
28.26000 2.397
28.28000 4.334
28.30000 5.726
28.32000 5.755
28.34000 1.128
28.36000 3.985
28.38000 4.319
28.40000 7.594
28.42000 11.955
28.44000 8.804
28.46000 1.841
28.48000 -3.714
28.50000 6.716
28.52000 5.703
28.54000 5.242
28.56000 3.544
28.58000 6.584
28.60000 4.796
28.62000 9.817
28.64000 0.964
28.66000 1.471
28.68000 3.565
28.70000 1.703
28.72000 3.120
28.74000 3.034
28.76000 3.255
28.78000 4.111
28.80000 3.918
28.82000 2.359
28.84000 4.134
28.86000 5.446
28.88000 6.144
28.90000 4.093
28.92000 -0.269
28.94000 10.854
28.96000 4.385
28.98000 -1.688
29.00000 1.320
29.02000 1.697
29.04000 6.637
29.06000 7.480
29.08000 6.656
29.10000 0.971
29.12000 1.735
29.14000 0.896
29.16000 5.891
29.18000 5.019
29.20000 -1.596
29.22000 -2.925
29.24000 0.549
29.26000 0.076
29.28000 -1.302
29.30000 -1.407
29.32000 -1.548
29.34000 2.792
29.36000 1.239
29.38000 -3.698
29.40000 -0.365
29.42000 5.713
29.44000 1.569
29.46000 6.274
29.48000 8.407
29.50000 5.389
29.52000 4.666
29.54000 4.182
29.56000 3.549
29.58000 4.566
29.60000 3.512
29.62000 1.645
29.64000 2.672
29.66000 2.451
29.68000 5.932
29.70000 5.106
29.72000 7.203
29.74000 1.772
29.76000 5.031
29.78000 5.904
29.80000 7.905
29.82000 0.923
29.84000 0.747
29.86000 -3.094
29.88000 -2.379
29.90000 3.214
29.92000 2.457
29.94000 2.727
29.96000 1.360
29.98000 2.990
30.00000 -0.274
30.02000 -1.257
30.04000 -2.944
30.06000 -3.138
30.08000 -2.513
30.10000 2.446
30.12000 2.488
30.14000 5.043
30.16000 3.524
30.18000 1.280
30.20000 3.599
30.22000 0.854
30.24000 -0.694
30.26000 -3.652
30.28000 -2.186
30.30000 2.977
30.32000 0.173
30.34000 -2.465
30.36000 -1.871
30.38000 4.151
30.40000 5.336
30.42000 3.973
30.44000 3.224
30.46000 -0.981
30.48000 3.157
30.50000 -0.484
30.52000 -0.034
30.54000 1.206
30.56000 4.516
30.58000 6.520
30.60000 4.974
30.62000 0.842
30.64000 2.447
30.66000 3.196
30.68000 1.916
30.70000 4.312
30.72000 3.811
30.74000 -1.713
30.76000 0.737
30.78000 3.299
30.80000 0.730
30.82000 5.952
30.84000 8.769
30.86000 5.280
30.88000 1.967
30.90000 -2.093
30.92000 -3.591
30.94000 -1.154
30.96000 -1.228
30.98000 5.547
31.00000 4.532
31.02000 6.122
31.04000 6.840
31.06000 5.025
31.08000 -0.915
31.10000 4.700
31.12000 1.723
31.14000 2.707
31.16000 5.881
31.18000 7.760
31.20000 2.519
31.22000 -0.318
31.24000 3.585
31.26000 2.800
31.28000 4.655
31.30000 5.783
31.32000 6.849
31.34000 6.757
31.36000 3.672
31.38000 1.940
31.40000 3.954
31.42000 7.889
31.44000 3.024
31.46000 5.830
31.48000 4.859
31.50000 11.947
31.52000 8.067
31.54000 4.842
31.56000 2.950
31.58000 4.853
31.60000 5.720
31.62000 4.203
31.64000 1.500
31.66000 6.889
31.68000 10.252
31.70000 1.955
31.72000 4.058
31.74000 3.968
31.76000 2.045
31.78000 0.966
31.80000 0.145
31.82000 -0.876
31.84000 -0.183
31.86000 -2.107
31.88000 0.464
31.90000 1.236
31.92000 1.277
31.94000 4.422
31.96000 4.632
31.98000 5.782
32.00000 -3.011
32.02000 -0.538
32.04000 5.434
32.06000 3.160
32.08000 0.018
32.10000 5.183
32.12000 5.750
32.14000 1.194
32.16000 1.107
32.18000 1.047
32.20000 4.450
32.22000 4.230
32.24000 6.379
32.26000 2.962
32.28000 1.065
32.30000 0.069
32.32000 -0.804
32.34000 5.201
32.36000 1.180
32.38000 -1.648
32.40000 1.771
32.42000 2.813
32.44000 -0.543
32.46000 -0.432
32.48000 2.666
32.50000 3.840
32.52000 1.376
32.54000 -0.771
32.56000 0.026
32.58000 -1.267
32.60000 -3.542
32.62000 -1.522
32.64000 -0.100
32.66000 -0.736
32.68000 2.007
32.70000 4.659
32.72000 9.124
32.74000 11.140
32.76000 7.483
32.78000 7.424
32.80000 2.300
32.82000 2.012
32.84000 7.150
32.86000 5.222
32.88000 3.460
32.90000 1.215
32.92000 4.443
32.94000 7.161
32.96000 0.693
32.98000 3.627
33.00000 1.289
33.02000 -1.373
33.04000 -2.777
33.06000 -3.018
33.08000 -3.534
33.10000 2.127
33.12000 6.065
33.14000 6.978
33.16000 6.073
33.18000 3.069
33.20000 2.509
33.22000 1.828
33.24000 3.868
33.26000 6.777
33.28000 4.447
33.30000 4.153
33.32000 -0.567
33.34000 0.992
33.36000 4.786
33.38000 3.585
33.40000 -0.602
33.42000 -2.753
33.44000 2.223
33.46000 3.101
33.48000 4.484
33.50000 5.784
33.52000 4.156
33.54000 3.149
33.56000 2.414
33.58000 4.458
33.60000 3.455
33.62000 10.268
33.64000 9.840
33.66000 3.399
33.68000 2.819
33.70000 1.620
33.72000 -2.212
33.74000 -3.445
33.76000 -1.056
33.78000 2.867
33.80000 2.161
33.82000 -1.173
33.84000 0.468
33.86000 9.634
33.88000 7.267
33.90000 3.387
33.92000 5.886
33.94000 4.516
33.96000 3.993
33.98000 2.285
34.00000 1.237
34.02000 2.593
34.04000 3.774
34.06000 -1.473
34.08000 -3.538
34.10000 -3.058
34.12000 -1.607
34.14000 -0.891
34.16000 0.121
34.18000 2.615
34.20000 1.304
34.22000 -1.812
34.24000 1.982
34.26000 3.075
34.28000 -2.820
34.30000 -0.612
34.32000 3.578
34.34000 1.002
34.36000 -1.726
34.38000 0.053
34.40000 0.861
34.42000 -0.859
34.44000 5.533
34.46000 4.488
34.48000 2.714
34.50000 1.530
34.52000 -1.781
34.54000 -0.101
34.56000 0.934
34.58000 1.980
34.60000 1.829
34.62000 2.768
34.64000 2.079
34.66000 2.168
34.68000 0.076
34.70000 -1.335
34.72000 -0.964
34.74000 3.573
34.76000 3.141
34.78000 0.989
34.80000 -1.356
34.82000 -3.051
34.84000 -1.717
34.86000 0.192
34.88000 1.097
34.90000 0.103
34.92000 -0.442
34.94000 1.820
34.96000 -0.255
34.98000 1.853
35.00000 0.002
35.02000 2.780
35.04000 -0.870
35.06000 -3.164
35.08000 -3.501
35.10000 -2.590
35.12000 2.015
35.14000 1.571
35.16000 2.632
35.18000 -0.527
35.20000 3.794
35.22000 -0.534
35.24000 2.519
35.26000 4.013
35.28000 0.131
35.30000 3.403
35.32000 1.852
35.34000 1.547
35.36000 1.153
35.38000 -0.937
35.40000 2.127
35.42000 0.378
35.44000 -1.512
35.46000 -0.256
35.48000 0.931
35.50000 -0.002
35.52000 0.543
35.54000 0.106
35.56000 3.015
35.58000 -1.953
35.60000 2.061
35.62000 0.574
35.64000 -0.738
35.66000 -1.534
35.68000 0.594
35.70000 0.385
35.72000 -3.478
35.74000 4.804
35.76000 4.724
35.78000 -0.399
35.80000 -2.739
35.82000 -0.812
35.84000 3.236
35.86000 5.075
35.88000 -1.031
35.90000 -0.129
35.92000 -1.905
35.94000 -1.960
35.96000 2.960
35.98000 1.955
36.00000 -0.118
36.02000 -3.477
36.04000 1.491
36.06000 1.713
36.08000 0.061
36.10000 3.570
36.12000 3.228
36.14000 2.233
36.16000 2.316
36.18000 2.702
36.20000 -0.267
36.22000 1.743
36.24000 0.470
36.26000 1.049
36.28000 0.386
36.30000 -0.794
36.32000 -1.212
36.34000 -3.472
36.36000 -0.701
36.38000 4.575
36.40000 0.791
36.42000 2.239
36.44000 4.964
36.46000 5.370
36.48000 2.640
36.50000 4.226
36.52000 2.609
36.54000 3.267
36.56000 1.588
36.58000 2.560
36.60000 1.045
36.62000 -2.337
36.64000 -0.811
36.66000 5.153
36.68000 2.276
36.70000 3.503
36.72000 1.297
36.74000 4.658
36.76000 -0.797
36.78000 0.484
36.80000 4.567
36.82000 -0.477
36.84000 -3.025
36.86000 2.399
36.88000 1.707
36.90000 2.687
36.92000 2.429
36.94000 -1.618
36.96000 0.018
36.98000 3.396
37.00000 2.417
37.02000 -1.725
37.04000 -2.466
37.06000 -2.129
37.08000 -0.729
37.10000 -0.845
37.12000 3.477
37.14000 5.045
37.16000 3.575
37.18000 1.025
37.20000 -3.544
37.22000 -1.245
37.24000 4.144
37.26000 0.953
37.28000 -2.985
37.30000 3.762
37.32000 0.711
37.34000 -2.002
37.36000 -3.557
37.38000 -3.411
37.40000 1.646
37.42000 0.288
37.44000 -2.369
37.46000 -0.422
37.48000 -2.957
37.50000 -1.964
37.52000 2.464
37.54000 -1.520
37.56000 1.488
37.58000 2.865
37.60000 2.959
37.62000 0.403
37.64000 -2.568
37.66000 -0.141
37.68000 4.002
37.70000 1.503
37.72000 -3.594
37.74000 0.317
37.76000 0.854
37.78000 -0.477
37.80000 0.408
37.82000 -2.060
37.84000 -1.009
37.86000 -0.313
37.88000 2.261
37.90000 3.906
37.92000 3.941
37.94000 4.015
37.96000 10.542
37.98000 7.254
38.00000 8.712
38.02000 8.064
38.04000 5.061
38.06000 4.569
38.08000 7.022
38.10000 5.048
38.12000 5.417
38.14000 6.735
38.16000 12.575
38.18000 14.384
38.20000 9.702
38.22000 12.026
38.24000 12.459
38.26000 11.912
38.28000 14.868
38.30000 11.043
38.32000 6.605
38.34000 9.012
38.36000 14.891
38.38000 19.084
38.40000 14.310
38.42000 15.365
38.44000 16.440
38.46000 14.683
38.48000 11.561
38.50000 13.269
38.52000 17.341
38.54000 15.073
38.56000 14.534
38.58000 17.031
38.60000 20.941
38.62000 15.909
38.64000 14.535
38.66000 18.362
38.68000 21.152
38.70000 19.357
38.72000 16.754
38.74000 19.310
38.76000 18.577
38.78000 17.865
38.80000 22.334
38.82000 25.055
38.84000 25.497
38.86000 25.285
38.88000 26.869
38.90000 28.401
38.92000 35.469
38.94000 33.502
38.96000 32.770
38.98000 30.916
39.00000 26.391
39.02000 31.771
39.04000 35.303
39.06000 32.673
39.08000 35.956
39.10000 34.362
39.12000 36.689
39.14000 35.752
39.16000 39.806
39.18000 44.837
39.20000 46.968
39.22000 43.467
39.24000 49.942
39.26000 48.384
39.28000 54.073
39.30000 58.278
39.32000 52.514
39.34000 54.190
39.36000 67.609
39.38000 71.217
39.40000 73.723
39.42000 75.723
39.44000 73.534
39.46000 80.215
39.48000 88.722
39.50000 91.616
39.52000 93.766
39.54000 97.733
39.56000 101.426
39.58000 107.235
39.60000 117.354
39.62000 119.814
39.64000 126.618
39.66000 141.317
39.68000 146.016
39.70000 150.814
39.72000 158.431
39.74000 173.318
39.76000 181.210
39.78000 193.851
39.80000 206.012
39.82000 215.988
39.84000 229.516
39.86000 247.360
39.88000 253.321
39.90000 278.149
39.92000 298.008
39.94000 313.747
39.96000 323.730
39.98000 348.673
40.00000 374.257
40.02000 399.535
40.04000 431.631
40.06000 456.431
40.08000 482.218
40.10000 511.035
40.12000 543.586
40.14000 572.522
40.16000 600.954
40.18000 641.149
40.20000 668.724
40.22000 694.014
40.24000 730.250
40.26000 760.241
40.28000 790.896
40.30000 817.986
40.32000 831.005
40.34000 842.690
40.36000 861.536
40.38000 882.658
40.40000 887.077
40.42000 892.782
40.44000 922.701
40.46000 923.631
40.48000 914.311
40.50000 893.772
40.52000 879.314
40.54000 881.821
40.56000 860.570
40.58000 843.119
40.60000 824.469
40.62000 812.102
40.64000 793.002
40.66000 758.205
40.68000 732.912
40.70000 712.922
40.72000 675.000
40.74000 651.854
40.76000 620.413
40.78000 598.350
40.80000 575.766
40.82000 541.370
40.84000 512.360
40.86000 506.074
40.88000 475.027
40.90000 443.033
40.92000 422.076
40.94000 396.798
40.96000 372.596
40.98000 348.197
41.00000 333.407
41.02000 313.449
41.04000 300.195
41.06000 281.390
41.08000 266.123
41.10000 250.649
41.12000 239.254
41.14000 225.296
41.16000 216.113
41.18000 209.268
41.20000 193.549
41.22000 180.063
41.24000 169.112
41.26000 157.562
41.28000 151.840
41.30000 150.557
41.32000 142.317
41.34000 133.530
41.36000 126.356
41.38000 113.072
41.40000 106.775
41.42000 105.722
41.44000 103.098
41.46000 90.127
41.48000 88.690
41.50000 92.148
41.52000 85.574
41.54000 78.985
41.56000 71.148
41.58000 71.566
41.60000 71.795
41.62000 67.919
41.64000 66.955
41.66000 58.151
41.68000 56.855
41.70000 56.759
41.72000 51.071
41.74000 50.967
41.76000 47.845
41.78000 44.397
41.80000 41.932
41.82000 43.405
41.84000 42.299
41.86000 37.198
41.88000 33.371
41.90000 33.377
41.92000 31.481
41.94000 33.958
41.96000 29.480
41.98000 25.460
42.00000 24.891
42.02000 29.628
42.04000 24.907
42.06000 19.253
42.08000 20.245
42.10000 28.688
42.12000 23.283
42.14000 21.874
42.16000 20.562
42.18000 18.827
42.20000 21.259
42.22000 18.263
42.24000 18.742
42.26000 19.557
42.28000 15.917
42.30000 13.772
42.32000 13.408
42.34000 15.896
42.36000 17.963
42.38000 12.274
42.40000 8.730
42.42000 7.275
42.44000 5.927
42.46000 9.482
42.48000 7.541
42.50000 7.934
42.52000 7.986
42.54000 8.940
42.56000 9.686
42.58000 8.530
42.60000 3.716
42.62000 6.246
42.64000 9.763
42.66000 5.712
42.68000 5.543
42.70000 1.203
42.72000 3.581
42.74000 2.423
42.76000 -0.337
42.78000 2.537
42.80000 4.195
42.82000 2.934
42.84000 4.302
42.86000 -1.005
42.88000 0.087
42.90000 1.925
42.92000 3.463
42.94000 4.179
42.96000 -0.066
42.98000 -0.377
43.00000 2.413
43.02000 3.160
43.04000 -0.236
43.06000 0.370
43.08000 -3.486
43.10000 0.840
43.12000 3.325
43.14000 2.532
43.16000 2.595
43.18000 0.468
43.20000 4.069
43.22000 4.276
43.24000 -0.034
43.26000 0.609
43.28000 0.755
43.30000 0.194
43.32000 2.040
43.34000 -0.419
43.36000 -2.486
43.38000 1.852
43.40000 -1.005
43.42000 -2.947
43.44000 -1.051
43.46000 2.554
43.48000 4.431
43.50000 6.296
43.52000 2.850
43.54000 3.894
43.56000 0.952
43.58000 -0.001
43.60000 -0.151
43.62000 -0.172
43.64000 -0.356
43.66000 -0.380
43.68000 1.093
43.70000 -1.305
43.72000 -3.390
43.74000 0.244
43.76000 2.014
43.78000 4.092
43.80000 4.550
43.82000 4.066
43.84000 4.440
43.86000 0.146
43.88000 -3.072
43.90000 -0.692
43.92000 3.595
43.94000 1.674
43.96000 -0.440
43.98000 0.664
44.00000 3.930
44.02000 3.885
44.04000 1.834
44.06000 1.664
44.08000 -0.167
44.10000 -2.609
44.12000 -3.086
44.14000 -0.695
44.16000 0.139
44.18000 -0.907
44.20000 -3.316
44.22000 1.950
44.24000 6.999
44.26000 4.887
44.28000 2.272
44.30000 3.848
44.32000 0.479
44.34000 1.694
44.36000 5.174
44.38000 2.911
44.40000 -0.122
44.42000 1.570
44.44000 2.443
44.46000 6.243
44.48000 3.458
44.50000 3.681
44.52000 1.952
44.54000 0.907
44.56000 0.542
44.58000 0.431
44.60000 3.623
44.62000 -3.272
44.64000 2.306
44.66000 3.078
44.68000 3.019
44.70000 0.564
44.72000 0.061
44.74000 2.471
44.76000 2.071
44.78000 0.983
44.80000 2.352
44.82000 6.024
44.84000 9.046
44.86000 4.256
44.88000 2.300
44.90000 0.778
44.92000 0.907
44.94000 2.169
44.96000 2.477
44.98000 -1.432
45.00000 -0.254
45.02000 -1.038
45.04000 1.990
45.06000 3.596
45.08000 8.571
45.10000 4.466
45.12000 -0.960
45.14000 3.921
45.16000 3.446
45.18000 5.560
45.20000 3.179
45.22000 5.076
45.24000 4.610
45.26000 3.292
45.28000 3.486
45.30000 1.611
45.32000 0.316
45.34000 0.741
45.36000 2.085
45.38000 1.528
45.40000 1.957
45.42000 5.360
45.44000 6.312
45.46000 3.305
45.48000 5.409
45.50000 5.290
45.52000 6.656
45.54000 10.057
45.56000 9.577
45.58000 6.951
45.60000 7.337
45.62000 12.411
45.64000 13.399
45.66000 8.741
45.68000 9.564
45.70000 7.327
45.72000 5.465
45.74000 9.732
45.76000 14.237
45.78000 18.027
45.80000 16.207
45.82000 15.933
45.84000 12.983
45.86000 11.379
45.88000 13.499
45.90000 14.949
45.92000 17.585
45.94000 19.172
45.96000 19.892
45.98000 18.416
46.00000 24.296
46.02000 24.144
46.04000 23.118
46.06000 22.583
46.08000 26.377
46.10000 26.563
46.12000 27.827
46.14000 31.867
46.16000 32.228
46.18000 33.732
46.20000 36.230
46.22000 36.653
46.24000 40.691
46.26000 41.009
46.28000 42.545
46.30000 43.707
46.32000 48.998
46.34000 48.981
46.36000 49.532
46.38000 46.296
46.40000 46.803
46.42000 55.443
46.44000 62.582
46.46000 62.933
46.48000 63.770
46.50000 74.244
46.52000 75.458
46.54000 77.245
46.56000 74.121
46.58000 78.671
46.60000 80.326
46.62000 90.960
46.64000 94.516
46.66000 101.111
46.68000 100.897
46.70000 103.120
46.72000 103.068
46.74000 112.913
46.76000 115.232
46.78000 123.315
46.80000 127.187
46.82000 123.027
46.84000 118.499
46.86000 133.652
46.88000 138.861
46.90000 139.790
46.92000 148.310
46.94000 149.857
46.96000 143.420
46.98000 141.001
47.00000 157.608
47.02000 156.194
47.04000 152.331
47.06000 151.775
47.08000 147.253
47.10000 148.352
47.12000 147.118
47.14000 144.479
47.16000 142.526
47.18000 143.956
47.20000 144.792
47.22000 146.929
47.24000 145.627
47.26000 138.032
47.28000 132.208
47.30000 125.724
47.32000 124.627
47.34000 124.605
47.36000 123.832
47.38000 114.715
47.40000 108.135
47.42000 101.224
47.44000 103.883
47.46000 99.359
47.48000 91.572
47.50000 93.724
47.52000 90.488
47.54000 89.626
47.56000 79.505
47.58000 68.120
47.60000 69.740
47.62000 70.161
47.64000 64.478
47.66000 64.620
47.68000 62.532
47.70000 58.433
47.72000 53.355
47.74000 48.300
47.76000 44.567
47.78000 41.499
47.80000 38.047
47.82000 41.205
47.84000 38.276
47.86000 33.092
47.88000 30.951
47.90000 29.827
47.92000 29.140
47.94000 24.936
47.96000 23.714
47.98000 24.641
48.00000 31.278
48.02000 28.510
48.04000 23.402
48.06000 21.471
48.08000 15.647
48.10000 16.344
48.12000 21.266
48.14000 17.898
48.16000 14.895
48.18000 15.323
48.20000 12.020
48.22000 10.781
48.24000 11.042
48.26000 11.008
48.28000 8.346
48.30000 9.051
48.32000 10.074
48.34000 9.819
48.36000 8.124
48.38000 7.238
48.40000 9.050
48.42000 8.376
48.44000 8.332
48.46000 6.826
48.48000 5.116
48.50000 8.481
48.52000 5.121
48.54000 2.279
48.56000 0.446
48.58000 1.664
48.60000 3.343
48.62000 2.034
48.64000 1.507
48.66000 5.045
48.68000 3.390
48.70000 3.248
48.72000 0.832
48.74000 0.683
48.76000 0.196
48.78000 -0.599
48.80000 -0.164
48.82000 0.349
48.84000 1.242
48.86000 1.263
48.88000 1.035
48.90000 0.533
48.92000 -0.644
48.94000 -2.893
48.96000 1.719
48.98000 0.539
49.00000 -0.347
49.02000 2.750
49.04000 -0.418
49.06000 -0.109
49.08000 0.728
49.10000 0.244
49.12000 -1.615
49.14000 -1.714
49.16000 -0.352
49.18000 -0.879
49.20000 2.629
49.22000 1.744
49.24000 1.500
49.26000 1.251
49.28000 1.952
49.30000 1.410
49.32000 -0.113
49.34000 -1.282
49.36000 1.729
49.38000 -1.298
49.40000 -1.270
49.42000 0.310
49.44000 -2.780
49.46000 3.306
49.48000 3.628
49.50000 3.295
49.52000 -0.211
49.54000 1.826
49.56000 1.536
49.58000 2.935
49.60000 -1.005
49.62000 -0.780
49.64000 5.180
49.66000 2.763
49.68000 0.765
49.70000 0.797
49.72000 3.268
49.74000 1.131
49.76000 3.296
49.78000 2.183
49.80000 3.760
49.82000 2.023
49.84000 0.842
49.86000 5.450
49.88000 4.806
49.90000 3.896
49.92000 1.391
49.94000 4.334
49.96000 6.715
49.98000 4.285
50.00000 5.400
50.02000 8.520
50.04000 5.824
50.06000 3.713
50.08000 6.026
50.10000 3.347
50.12000 1.328
50.14000 3.696
50.16000 3.439
50.18000 0.672
50.20000 2.221
50.22000 0.944
50.24000 -0.882
50.26000 2.528
50.28000 5.046
50.30000 4.020
50.32000 3.650
50.34000 5.022
50.36000 6.031
50.38000 7.620
50.40000 6.628
50.42000 8.064
50.44000 5.998
50.46000 5.817
50.48000 5.279
50.50000 5.075
50.52000 2.880
50.54000 5.054
50.56000 7.292
50.58000 7.439
50.60000 1.910
50.62000 -2.625
50.64000 -0.872
50.66000 0.509
50.68000 0.926
50.70000 4.472
50.72000 3.193
50.74000 4.181
50.76000 4.692
50.78000 5.696
50.80000 3.825
50.82000 0.350
50.84000 1.923
50.86000 2.589
50.88000 3.674
50.90000 2.243
50.92000 0.180
50.94000 -0.626
50.96000 2.906
50.98000 7.046
51.00000 3.564
51.02000 4.802
51.04000 8.514
51.06000 6.530
51.08000 2.079
51.10000 1.313
51.12000 4.777
51.14000 6.909
51.16000 3.982
51.18000 4.138
51.20000 6.290
51.22000 5.955
51.24000 6.960
51.26000 3.073
51.28000 4.182
51.30000 5.255
51.32000 6.780
51.34000 4.807
51.36000 2.185
51.38000 -0.522
51.40000 -2.611
51.42000 -0.784
51.44000 3.097
51.46000 8.797
51.48000 3.330
51.50000 2.420
51.52000 0.043
51.54000 0.205
51.56000 1.787
51.58000 3.083
51.60000 4.661
51.62000 2.044
51.64000 2.549
51.66000 -0.977
51.68000 0.617
51.70000 2.024
51.72000 1.718
51.74000 5.901
51.76000 4.274
51.78000 0.602
51.80000 6.197
51.82000 5.463
51.84000 2.499
51.86000 2.562
51.88000 1.502
51.90000 1.540
51.92000 4.859
51.94000 3.101
51.96000 5.601
51.98000 4.395
52.00000 4.602
52.02000 5.052
52.04000 4.110
52.06000 6.782
52.08000 1.574
52.10000 2.277
52.12000 -0.571
52.14000 0.456
52.16000 3.746
52.18000 4.927
52.20000 4.243
52.22000 2.763
52.24000 5.301
52.26000 2.097
52.28000 3.992
52.30000 0.316
52.32000 1.076
52.34000 3.984
52.36000 6.410
52.38000 10.568
52.40000 5.166
52.42000 -2.157
52.44000 -2.555
52.46000 0.037
52.48000 -1.215
52.50000 4.670
52.52000 6.231
52.54000 7.765
52.56000 8.754
52.58000 6.109
52.60000 5.023
52.62000 1.858
52.64000 5.089
52.66000 5.289
52.68000 5.315
52.70000 4.113
52.72000 0.007
52.74000 1.181
52.76000 7.230
52.78000 2.864
52.80000 -0.859
52.82000 2.138
52.84000 4.154
52.86000 0.516
52.88000 4.652
52.90000 4.728
52.92000 2.082
52.94000 1.436
52.96000 4.257
52.98000 6.377
53.00000 6.279
53.02000 2.207
53.04000 4.257
53.06000 6.770
53.08000 6.598
53.10000 2.029
53.12000 -2.553
53.14000 2.679
53.16000 6.762
53.18000 1.475
53.20000 0.511
53.22000 3.840
53.24000 2.973
53.26000 3.377
53.28000 3.039
53.30000 2.769
53.32000 6.407
53.34000 2.054
53.36000 -2.208
53.38000 -1.975
53.40000 0.122
53.42000 1.487
53.44000 1.498
53.46000 1.276
53.48000 0.171
53.50000 1.520
53.52000 5.515
53.54000 3.193
53.56000 0.144
53.58000 -0.134
53.60000 0.851
53.62000 1.931
53.64000 6.317
53.66000 -0.613
53.68000 -2.558
53.70000 0.019
53.72000 2.939
53.74000 2.852
53.76000 4.363
53.78000 0.410
53.80000 2.253
53.82000 0.857
53.84000 1.220
53.86000 1.956
53.88000 1.056
53.90000 -0.743
53.92000 0.686
53.94000 0.090
53.96000 2.953
53.98000 1.635
54.00000 0.535
54.02000 -0.132
54.04000 -0.836
54.06000 0.997
54.08000 1.428
54.10000 4.048
54.12000 0.375
54.14000 -1.256
54.16000 0.568
54.18000 0.913
54.20000 2.980
54.22000 3.417
54.24000 1.445
54.26000 4.034
54.28000 0.063
54.30000 -2.405
54.32000 -0.467
54.34000 0.212
54.36000 4.614
54.38000 5.806
54.40000 1.837
54.42000 -0.236
54.44000 0.827
54.46000 -0.791
54.48000 3.130
54.50000 6.325
54.52000 -2.518
54.54000 0.675
54.56000 2.364
54.58000 1.464
54.60000 1.345
54.62000 0.653
54.64000 -0.010
54.66000 2.179
54.68000 3.241
54.70000 0.160
54.72000 -2.504
54.74000 1.074
54.76000 -2.514
54.78000 -1.676
54.80000 1.601
54.82000 -1.985
54.84000 -1.767
54.86000 5.186
54.88000 1.825
54.90000 2.314
54.92000 2.089
54.94000 2.000
54.96000 2.876
54.98000 0.519
55.00000 2.675
55.02000 -1.021
55.04000 -1.703
55.06000 -2.086
55.08000 -1.858
55.10000 -0.205
55.12000 2.639
55.14000 -0.690
55.16000 1.258
55.18000 1.963
55.20000 1.788
55.22000 0.980
55.24000 2.276
55.26000 5.449
55.28000 2.636
55.30000 1.672
55.32000 2.981
55.34000 2.397
55.36000 4.142
55.38000 5.068
55.40000 2.194
55.42000 1.964
55.44000 3.489
55.46000 0.595
55.48000 -0.698
55.50000 1.112
55.52000 2.619
55.54000 -0.781
55.56000 -2.485
55.58000 -2.046
55.60000 -0.414
55.62000 1.565
55.64000 1.931
55.66000 3.975
55.68000 2.053
55.70000 -0.198
55.72000 -0.635
55.74000 0.573
55.76000 4.507
55.78000 0.749
55.80000 1.066
55.82000 -0.282
55.84000 4.348
55.86000 2.273
55.88000 0.678
55.90000 2.740
55.92000 2.125
55.94000 1.528
55.96000 2.400
55.98000 1.058
56.00000 -0.491
56.02000 3.116
56.04000 0.318
56.06000 -1.106
56.08000 2.274
56.10000 4.246
56.12000 6.872
56.14000 4.455
56.16000 5.302
56.18000 -2.020
56.20000 -0.099
56.22000 0.945
56.24000 1.216
56.26000 -0.243
56.28000 0.875
56.30000 2.380
56.32000 0.848
56.34000 4.564
56.36000 2.163
56.38000 1.569
56.40000 2.977
56.42000 2.789
56.44000 5.375
56.46000 1.059
56.48000 0.253
56.50000 0.679
56.52000 -2.461
56.54000 2.201
56.56000 5.656
56.58000 1.802
56.60000 -0.791
56.62000 0.824
56.64000 3.109
56.66000 3.723
56.68000 1.726
56.70000 0.061
56.72000 -0.710
56.74000 0.928
56.76000 3.364
56.78000 4.005
56.80000 1.715
56.82000 0.771
56.84000 1.581
56.86000 0.814
56.88000 1.205
56.90000 0.632
56.92000 1.273
56.94000 3.966
56.96000 1.504
56.98000 -0.955
57.00000 -0.561
57.02000 3.702
57.04000 2.253
57.06000 0.181
57.08000 -0.533
57.10000 1.343
57.12000 4.470
57.14000 3.767
57.16000 0.601
57.18000 2.603
57.20000 3.622
57.22000 -1.511
57.24000 -2.447
57.26000 0.279
57.28000 1.172
57.30000 -1.088
57.32000 -2.063
57.34000 1.824
57.36000 -0.760
57.38000 3.799
57.40000 2.264
57.42000 -0.043
57.44000 0.045
57.46000 3.873
57.48000 0.858
57.50000 0.232
57.52000 0.551
57.54000 3.931
57.56000 2.739
57.58000 4.388
57.60000 5.433
57.62000 3.618
57.64000 4.078
57.66000 3.395
57.68000 4.388
57.70000 2.249
57.72000 2.460
57.74000 2.948
57.76000 5.278
57.78000 5.219
57.80000 6.543
57.82000 6.326
57.84000 4.236
57.86000 -0.636
57.88000 -2.408
57.90000 2.248
57.92000 7.442
57.94000 6.832
57.96000 6.221
57.98000 3.110
58.00000 1.533
58.02000 5.585
58.04000 4.565
58.06000 3.331
58.08000 5.411
58.10000 2.879
58.12000 1.852
58.14000 1.393
58.16000 4.002
58.18000 3.691
58.20000 5.641
58.22000 2.955
58.24000 -0.810
58.26000 0.961
58.28000 0.399
58.30000 3.381
58.32000 6.042
58.34000 6.167
58.36000 3.617
58.38000 2.627
58.40000 3.331
58.42000 3.849
58.44000 0.167
58.46000 0.944
58.48000 -0.865
58.50000 0.317
58.52000 3.342
58.54000 3.603
58.56000 -1.648
58.58000 -0.737
58.60000 -0.833
58.62000 2.194
58.64000 -0.642
58.66000 0.795
58.68000 5.287
58.70000 3.592
58.72000 1.917
58.74000 1.429
58.76000 4.072
58.78000 2.334
58.80000 2.090
58.82000 3.203
58.84000 2.977
58.86000 2.500
58.88000 0.373
58.90000 1.829
58.92000 3.262
58.94000 1.660
58.96000 -1.018
58.98000 0.855
59.00000 3.143
59.02000 3.185
59.04000 0.952
59.06000 0.574
59.08000 1.594
59.10000 -0.727
59.12000 0.881
59.14000 0.197
59.16000 0.329
59.18000 3.823
59.20000 4.081
59.22000 2.009
59.24000 0.895
59.26000 0.943
59.28000 1.914
59.30000 2.698
59.32000 4.703
59.34000 4.121
59.36000 3.295
59.38000 3.748
59.40000 4.948
59.42000 5.333
59.44000 2.154
59.46000 1.267
59.48000 1.200
59.50000 0.920
59.52000 1.581
59.54000 2.811
59.56000 2.899
59.58000 1.944
59.60000 2.192
59.62000 2.464
59.64000 1.728
59.66000 3.267
59.68000 -0.514
59.70000 1.179
59.72000 3.822
59.74000 1.670
59.76000 -2.337
59.78000 1.163
59.80000 1.556
59.82000 1.274
59.84000 2.195
59.86000 4.971
59.88000 4.728
59.90000 7.658
59.92000 4.800
59.94000 2.363
59.96000 -0.346
59.98000 0.412
60.00000 4.252
60.02000 0.376
60.04000 3.761
60.06000 5.445
60.08000 3.767
60.10000 2.022
60.12000 2.728
60.14000 2.487
60.16000 3.327
60.18000 6.250
60.20000 7.120
60.22000 6.301
60.24000 6.035
60.26000 4.692
60.28000 3.486
60.30000 3.955
60.32000 5.114
60.34000 2.037
60.36000 -2.340
60.38000 0.394
60.40000 5.372
60.42000 0.154
60.44000 0.487
60.46000 -0.382
60.48000 -0.817
60.50000 3.519
60.52000 2.395
60.54000 2.647
60.56000 3.810
60.58000 4.571
60.60000 3.871
60.62000 -0.220
60.64000 1.635
60.66000 -0.056
60.68000 2.993
60.70000 2.269
60.72000 0.846
60.74000 2.112
60.76000 2.194
60.78000 3.109
60.80000 2.605
60.82000 1.116
60.84000 -0.488
60.86000 2.995
60.88000 2.555
60.90000 -0.605
60.92000 -1.875
60.94000 -1.124
60.96000 0.366
60.98000 -0.293
61.00000 -0.779
61.02000 -0.212
61.04000 1.616
61.06000 0.967
61.08000 -0.115
61.10000 1.310
61.12000 2.087
61.14000 3.729
61.16000 1.845
61.18000 1.293
61.20000 1.673
61.22000 1.002
61.24000 0.898
61.26000 1.360
61.28000 0.882
61.30000 3.143
61.32000 5.359
61.34000 4.360
61.36000 0.027
61.38000 -0.096
61.40000 2.122
61.42000 0.770
61.44000 -1.421
61.46000 0.947
61.48000 1.770
61.50000 3.826
61.52000 2.724
61.54000 -0.555
61.56000 2.391
61.58000 1.016
61.60000 2.959
61.62000 1.634
61.64000 0.869
61.66000 1.565
61.68000 3.996
61.70000 2.474
61.72000 3.506
61.74000 2.858
61.76000 1.864
61.78000 2.416
61.80000 2.944
61.82000 0.123
61.84000 -2.291
61.86000 -1.112
61.88000 -0.499
61.90000 1.546
61.92000 3.590
61.94000 4.125
61.96000 4.367
61.98000 5.909
62.00000 3.429
62.02000 2.985
62.04000 0.045
62.06000 0.997
62.08000 3.588
62.10000 1.703
62.12000 3.627
62.14000 3.853
62.16000 2.602
62.18000 -0.491
62.20000 2.438
62.22000 1.275
62.24000 1.326
62.26000 3.537
62.28000 1.970
62.30000 1.601
62.32000 -0.327
62.34000 -1.433
62.36000 -1.237
62.38000 -1.359
62.40000 -0.632
62.42000 -0.851
62.44000 1.799
62.46000 3.780
62.48000 5.393
62.50000 4.094
62.52000 -1.113
62.54000 -2.299
62.56000 0.983
62.58000 0.376
62.60000 0.881
62.62000 1.085
62.64000 0.590
62.66000 -0.128
62.68000 -2.148
62.70000 0.665
62.72000 1.916
62.74000 -0.418
62.76000 -1.463
62.78000 -1.574
62.80000 1.708
62.82000 1.501
62.84000 3.462
62.86000 2.874
62.88000 -0.087
62.90000 0.023
62.92000 3.009
62.94000 2.250
62.96000 -0.311
62.98000 0.592
63.00000 4.239
63.02000 3.770
63.04000 -0.143
63.06000 1.069
63.08000 1.041
63.10000 1.712
63.12000 1.498
63.14000 -2.323
63.16000 0.689
63.18000 2.271
63.20000 2.447
63.22000 0.248
63.24000 -1.220
63.26000 1.972
63.28000 -0.818
63.30000 0.704
63.32000 0.644
63.34000 -1.000
63.36000 0.608
63.38000 0.441
63.40000 3.126
63.42000 0.696
63.44000 -1.896
63.46000 0.148
63.48000 2.667
63.50000 3.188
63.52000 -2.323
63.54000 1.369
63.56000 3.170
63.58000 2.444
63.60000 0.052
63.62000 0.424
63.64000 2.166
63.66000 1.894
63.68000 0.373
63.70000 2.739
63.72000 6.165
63.74000 1.107
63.76000 2.572
63.78000 1.310
63.80000 -2.320
63.82000 -0.206
63.84000 2.210
63.86000 2.178
63.88000 3.898
63.90000 2.700
63.92000 -0.599
63.94000 -1.971
63.96000 0.907
63.98000 -1.183
64.00000 -2.065
64.02000 0.518
64.04000 1.452
64.06000 2.779
64.08000 0.710
64.10000 -0.656
64.12000 1.382
64.14000 -0.291
64.16000 0.692
64.18000 1.979
64.20000 -0.772
64.22000 -0.245
64.24000 0.683
64.26000 -1.574
64.28000 -1.207
64.30000 -0.694
64.32000 -0.179
64.34000 -1.005
64.36000 2.137
64.38000 1.294
64.40000 2.039
64.42000 0.095
64.44000 0.925
64.46000 2.643
64.48000 3.032
64.50000 2.433
64.52000 0.659
64.54000 2.449
64.56000 0.558
64.58000 -0.336
64.60000 1.532
64.62000 1.260
64.64000 -2.287
64.66000 1.159
64.68000 1.587
64.70000 1.446
64.72000 0.511
64.74000 2.626
64.76000 3.883
64.78000 0.554
64.80000 0.640
64.82000 3.832
64.84000 2.060
64.86000 1.729
64.88000 -0.153
64.90000 2.004
64.92000 3.340
64.94000 3.449
64.96000 1.653
64.98000 2.896
65.00000 3.227
65.02000 0.663
65.04000 0.031
65.06000 0.791
65.08000 1.841
65.10000 3.193
65.12000 1.426
65.14000 2.187
65.16000 0.309
65.18000 1.737
65.20000 2.222
65.22000 1.942
65.24000 3.141
65.26000 2.808
65.28000 1.053
65.30000 1.560
65.32000 -2.291
65.34000 -1.469
65.36000 0.329
65.38000 0.477
65.40000 3.581
65.42000 4.798
65.44000 6.339
65.46000 5.134
65.48000 2.062
65.50000 2.960
65.52000 1.233
65.54000 2.394
65.56000 2.661
65.58000 2.291
65.60000 2.596
65.62000 2.753
65.64000 3.298
65.66000 -0.600
65.68000 -0.852
65.70000 0.241
65.72000 3.481
65.74000 4.496
65.76000 0.470
65.78000 2.829
65.80000 1.022
65.82000 -2.056
65.84000 -1.617
65.86000 1.056
65.88000 1.952
65.90000 -0.760
65.92000 -0.364
65.94000 2.222
65.96000 -1.529
65.98000 0.521
66.00000 -0.623
66.02000 0.919
66.04000 1.416
66.06000 0.125
66.08000 0.824
66.10000 -0.906
66.12000 -0.311
66.14000 1.281
66.16000 -0.855
66.18000 -1.402
66.20000 -1.848
66.22000 -0.130
66.24000 1.751
66.26000 -0.792
66.28000 2.141
66.30000 2.827
66.32000 4.019
66.34000 4.576
66.36000 2.040
66.38000 -2.321
66.40000 0.033
66.42000 1.798
66.44000 3.104
66.46000 5.005
66.48000 3.605
66.50000 2.042
66.52000 1.572
66.54000 1.558
66.56000 0.529
66.58000 2.433
66.60000 3.258
66.62000 0.976
66.64000 3.779
66.66000 3.647
66.68000 3.444
66.70000 0.454
66.72000 1.059
66.74000 4.276
66.76000 2.758
66.78000 -0.565
66.80000 -1.608
66.82000 1.478
66.84000 1.117
66.86000 -0.546
66.88000 -2.316
66.90000 0.903
66.92000 2.810
66.94000 4.756
66.96000 4.190
66.98000 0.742
67.00000 0.541
67.02000 1.755
67.04000 2.412
67.06000 0.841
67.08000 0.986
67.10000 -0.496
67.12000 1.283
67.14000 -1.205
67.16000 1.376
67.18000 1.897
67.20000 -1.057
67.22000 -0.329
67.24000 1.387
67.26000 3.826
67.28000 2.306
67.30000 1.479
67.32000 0.894
67.34000 4.737
67.36000 2.747
67.38000 2.120
67.40000 -0.542
67.42000 1.323
67.44000 1.747
67.46000 2.630
67.48000 3.844
67.50000 3.820
67.52000 2.856
67.54000 3.611
67.56000 3.470
67.58000 4.386
67.60000 2.186
67.62000 3.310
67.64000 3.316
67.66000 5.633
67.68000 6.320
67.70000 4.952
67.72000 6.254
67.74000 2.935
67.76000 3.229
67.78000 5.860
67.80000 5.487
67.82000 3.752
67.84000 4.107
67.86000 5.615
67.88000 11.565
67.90000 11.085
67.92000 8.084
67.94000 5.016
67.96000 5.346
67.98000 5.766
68.00000 5.429
68.02000 7.350
68.04000 9.981
68.06000 7.496
68.08000 7.278
68.10000 10.929
68.12000 14.446
68.14000 10.893
68.16000 11.246
68.18000 14.364
68.20000 15.106
68.22000 16.906
68.24000 16.813
68.26000 18.404
68.28000 18.532
68.30000 19.044
68.32000 19.472
68.34000 18.892
68.36000 24.000
68.38000 26.351
68.40000 29.925
68.42000 24.329
68.44000 21.375
68.46000 23.460
68.48000 29.554
68.50000 33.138
68.52000 31.516
68.54000 28.065
68.56000 27.894
68.58000 30.890
68.60000 33.070
68.62000 36.741
68.64000 40.122
68.66000 34.584
68.68000 35.941
68.70000 37.795
68.72000 37.233
68.74000 40.464
68.76000 42.427
68.78000 37.088
68.80000 34.852
68.82000 37.922
68.84000 35.595
68.86000 36.796
68.88000 38.260
68.90000 38.968
68.92000 35.951
68.94000 36.350
68.96000 39.566
68.98000 38.248
69.00000 33.487
69.02000 30.024
69.04000 32.186
69.06000 31.118
69.08000 28.640
69.10000 30.357
69.12000 34.270
69.14000 33.103
69.16000 28.920
69.18000 28.400
69.20000 23.369
69.22000 22.440
69.24000 24.799
69.26000 22.196
69.28000 21.602
69.30000 22.059
69.32000 17.827
69.34000 16.258
69.36000 15.260
69.38000 15.338
69.40000 16.090
69.42000 16.471
69.44000 17.140
69.46000 10.023
69.48000 8.977
69.50000 8.705
69.52000 11.319
69.54000 9.883
69.56000 6.883
69.58000 10.192
69.60000 8.003
69.62000 5.157
69.64000 10.390
69.66000 10.144
69.68000 4.338
69.70000 6.974
69.72000 7.549
69.74000 8.683
69.76000 6.545
69.78000 2.603
69.80000 4.877
69.82000 5.797
69.84000 2.717
69.86000 3.186
69.88000 1.983
69.90000 3.245
69.92000 3.437
69.94000 2.721
69.96000 4.488
69.98000 4.774
70.00000 3.648
70.02000 2.406
70.04000 0.718
70.06000 0.729
70.08000 6.645
70.10000 7.775
70.12000 3.400
70.14000 3.992
70.16000 4.281
70.18000 5.031
70.20000 6.321
70.22000 4.179
70.24000 2.758
70.26000 1.142
70.28000 1.294
70.30000 2.606
70.32000 3.518
70.34000 4.731
70.36000 6.006
70.38000 8.092
70.40000 7.545
70.42000 8.674
70.44000 7.211
70.46000 4.042
70.48000 4.643
70.50000 1.454
70.52000 -0.574
70.54000 2.125
70.56000 2.331
70.58000 1.669
70.60000 -2.206
70.62000 3.917
70.64000 5.887
70.66000 5.850
70.68000 5.955
70.70000 5.681
70.72000 -1.059
70.74000 -1.091
70.76000 2.665
70.78000 3.296
70.80000 1.927
70.82000 3.392
70.84000 0.952
70.86000 2.852
70.88000 4.409
70.90000 2.918
70.92000 3.676
70.94000 4.190
70.96000 4.831
70.98000 3.191
71.00000 3.365
71.02000 0.614
71.04000 1.245
71.06000 2.859
71.08000 2.311
71.10000 -0.781
71.12000 0.663
71.14000 2.949
71.16000 1.555
71.18000 1.765
71.20000 2.840
71.22000 -0.320
71.24000 -0.508
71.26000 0.350
71.28000 2.622
71.30000 5.157
71.32000 2.037
71.34000 5.604
71.36000 10.055
71.38000 4.900
71.40000 1.546
71.42000 0.193
71.44000 -1.325
71.46000 2.203
71.48000 4.084
71.50000 0.085
71.52000 1.733
71.54000 3.196
71.56000 3.696
71.58000 0.432
71.60000 3.250
71.62000 2.191
71.64000 4.413
71.66000 3.566
71.68000 4.532
71.70000 2.786
71.72000 -2.191
71.74000 -1.778
71.76000 0.127
71.78000 -0.888
71.80000 1.638
71.82000 0.735
71.84000 2.177
71.86000 3.237
71.88000 3.334
71.90000 1.815
71.92000 0.974
71.94000 0.898
71.96000 -1.269
71.98000 0.754
72.00000 3.577
72.02000 0.657
72.04000 -2.170
72.06000 -2.169
72.08000 2.648
72.10000 3.042
72.12000 1.148
72.14000 3.016
72.16000 4.114
72.18000 1.800
72.20000 3.706
72.22000 4.610
72.24000 4.316
72.26000 1.466
72.28000 3.031
72.30000 0.910
72.32000 1.445
72.34000 1.375
72.36000 4.113
72.38000 2.535
72.40000 1.522
72.42000 1.813
72.44000 4.673
72.46000 0.992
72.48000 0.869
72.50000 1.496
72.52000 4.286
72.54000 3.867
72.56000 2.729
72.58000 -1.133
72.60000 0.780
72.62000 2.331
72.64000 3.040
72.66000 0.677
72.68000 -0.192
72.70000 2.531
72.72000 1.737
72.74000 0.639
72.76000 -2.162
72.78000 -0.619
72.80000 -1.892
72.82000 -0.852
72.84000 0.884
72.86000 -0.903
72.88000 -1.232
72.90000 1.408
72.92000 1.514
72.94000 3.204
72.96000 2.272
72.98000 1.175
73.00000 2.507
73.02000 1.704
73.04000 1.719
73.06000 1.973
73.08000 1.153
73.10000 -2.158
73.12000 -1.272
73.14000 2.171
73.16000 2.984
73.18000 2.790
73.20000 4.961
73.22000 4.822
73.24000 5.021
73.26000 2.570
73.28000 1.514
73.30000 -0.470
73.32000 0.592
73.34000 2.001
73.36000 1.036
73.38000 2.969
73.40000 1.620
73.42000 0.241
73.44000 0.260
73.46000 -0.124
73.48000 -0.612
73.50000 1.462
73.52000 0.357
73.54000 -2.149
73.56000 0.313
73.58000 -1.955
73.60000 -0.232
73.62000 1.249
73.64000 4.075
73.66000 0.768
73.68000 1.017
73.70000 -1.533
73.72000 2.190
73.74000 2.150
73.76000 -1.235
73.78000 0.971
73.80000 2.306
73.82000 0.377
73.84000 1.099
73.86000 4.536
73.88000 3.064
73.90000 1.608
73.92000 3.349
73.94000 2.573
73.96000 1.751
73.98000 -0.944
74.00000 -1.112
74.02000 -1.267
74.04000 -0.584
74.06000 1.486
74.08000 1.637
74.10000 -0.473
74.12000 2.006
74.14000 3.318
74.16000 3.749
74.18000 2.104
74.20000 0.725
74.22000 -1.196
74.24000 -1.311
74.26000 -2.121
74.28000 0.625
74.30000 0.414
74.32000 3.938
74.34000 5.567
74.36000 4.374
74.38000 3.281
74.40000 6.025
74.42000 4.061
74.44000 3.672
74.46000 4.383
74.48000 4.103
74.50000 3.390
74.52000 2.919
74.54000 3.105
74.56000 3.601
74.58000 2.366
74.60000 2.817
74.62000 -2.103
74.64000 3.606
74.66000 5.438
74.68000 4.331
74.70000 6.621
74.72000 3.009
74.74000 3.598
74.76000 1.752
74.78000 -0.923
74.80000 -0.852
74.82000 -1.871
74.84000 2.325
74.86000 3.758
74.88000 1.409
74.90000 0.445
74.92000 0.968
74.94000 0.983
74.96000 3.842
74.98000 2.955
75.00000 1.900
75.02000 1.006
75.04000 2.794
75.06000 5.010
75.08000 6.324
75.10000 2.931
75.12000 1.004
75.14000 0.009
75.16000 4.109
75.18000 6.327
75.20000 3.326
75.22000 1.202
75.24000 1.625
75.26000 4.472
75.28000 -0.293
75.30000 3.393
75.32000 2.844
75.34000 3.491
75.36000 2.314
75.38000 4.675
75.40000 3.426
75.42000 4.536
75.44000 1.082
75.46000 -0.235
75.48000 1.272
75.50000 2.141
75.52000 0.693
75.54000 3.814
75.56000 -1.737
75.58000 -0.930
75.60000 1.449
75.62000 4.666
75.64000 4.480
75.66000 1.534
75.68000 -1.583
75.70000 2.080
75.72000 8.062
75.74000 6.923
75.76000 2.777
75.78000 1.465
75.80000 4.473
75.82000 -0.453
75.84000 -2.110
75.86000 -0.325
75.88000 4.114
75.90000 3.841
75.92000 4.393
75.94000 5.699
75.96000 3.651
75.98000 3.501
76.00000 4.347
76.02000 5.940
76.04000 7.149
76.06000 5.752
76.08000 3.863
76.10000 4.801
76.12000 -2.107
76.14000 1.701
76.16000 4.425
76.18000 6.507
76.20000 1.738
76.22000 2.055
76.24000 4.389
76.26000 3.385
76.28000 5.267
76.30000 8.142
76.32000 3.562
76.34000 4.618
76.36000 4.023
76.38000 -0.518
76.40000 0.948
76.42000 1.173
76.44000 1.041
76.46000 2.406
76.48000 5.556
76.50000 4.918
76.52000 5.838
76.54000 2.194
76.56000 2.644
76.58000 -0.433
76.60000 2.215
76.62000 1.339
76.64000 -1.397
76.66000 -0.757
76.68000 1.294
76.70000 6.001
76.72000 1.755
76.74000 -1.317
76.76000 3.451
76.78000 1.681
76.80000 3.810
76.82000 5.784
76.84000 3.251
76.86000 3.635
76.88000 4.980
76.90000 5.351
76.92000 3.719
76.94000 2.090
76.96000 1.183
76.98000 3.156
77.00000 4.912
77.02000 1.210
77.04000 -2.143
77.06000 2.457
77.08000 5.612
77.10000 6.636
77.12000 2.922
77.14000 0.240
77.16000 1.560
77.18000 0.816
77.20000 3.515
77.22000 5.572
77.24000 5.058
77.26000 -0.897
77.28000 -1.699
77.30000 0.717
77.32000 4.001
77.34000 4.179
77.36000 1.059
77.38000 -0.161
77.40000 0.983
77.42000 1.233
77.44000 -1.939
77.46000 2.415
77.48000 3.075
77.50000 5.069
77.52000 3.970
77.54000 3.037
77.56000 2.626
77.58000 2.860
77.60000 4.058
77.62000 1.084
77.64000 -2.158
77.66000 4.798
77.68000 5.694
77.70000 3.583
77.72000 2.778
77.74000 2.316
77.76000 0.993
77.78000 2.472
77.80000 4.332
77.82000 3.368
77.84000 4.176
77.86000 3.670
77.88000 1.369
77.90000 3.471
77.92000 4.174
77.94000 4.493
77.96000 3.693
77.98000 -0.272
78.00000 -2.091
78.02000 1.500
78.04000 2.777
78.06000 2.153
78.08000 1.039
78.10000 3.061
78.12000 2.032
78.14000 4.374
78.16000 3.628
78.18000 -1.817
78.20000 1.657
78.22000 1.243
78.24000 1.612
78.26000 0.634
78.28000 -0.240
78.30000 -1.249
78.32000 2.893
78.34000 5.787
78.36000 5.153
78.38000 1.241
78.40000 0.194
78.42000 0.542
78.44000 0.484
78.46000 -0.636
78.48000 0.414
78.50000 0.886
78.52000 0.410
78.54000 0.361
78.56000 0.126
78.58000 0.204
78.60000 -0.415
78.62000 0.442
78.64000 1.321
78.66000 1.143
78.68000 3.042
78.70000 2.165
78.72000 0.685
78.74000 3.272
78.76000 -0.167
78.78000 1.953
78.80000 2.653
78.82000 4.606
78.84000 1.164
78.86000 1.816
78.88000 5.337
78.90000 3.875
78.92000 2.294
78.94000 2.417
78.96000 4.670
78.98000 2.788
79.00000 -2.176
79.02000 0.690
79.04000 -0.264
79.06000 0.995
79.08000 1.982
79.10000 1.760
79.12000 -0.978
79.14000 0.535
79.16000 2.837
79.18000 5.769
79.20000 3.916
79.22000 5.362
79.24000 4.967
79.26000 2.414
79.28000 -0.361
79.30000 1.862
79.32000 3.868
79.34000 2.040
79.36000 1.020
79.38000 0.140
79.40000 0.987
79.42000 3.075
79.44000 5.119
79.46000 6.322
79.48000 4.302
79.50000 3.405
79.52000 2.159
79.54000 2.049
79.56000 0.420
79.58000 1.893
79.60000 3.278
79.62000 3.743
79.64000 0.886
79.66000 0.419
79.68000 -0.643
79.70000 0.572
79.72000 5.107
79.74000 4.032
79.76000 -0.571
79.78000 -2.197
79.80000 -2.198
79.82000 5.292
79.84000 1.761
79.86000 4.273
79.88000 5.333
79.90000 5.473
79.92000 1.601
79.94000 2.263
79.96000 -0.267
79.98000 2.055
80.00000 3.688
80.02000 2.742
80.04000 2.649
80.06000 0.645
80.08000 3.993
80.10000 5.907
80.12000 4.567
80.14000 0.684
80.16000 -2.232
80.18000 0.268
80.20000 2.354
80.22000 2.157
80.24000 0.077
80.26000 -0.611
80.28000 1.027
80.30000 -2.242
80.32000 0.004
80.34000 3.770
80.36000 -1.323
80.38000 1.586
80.40000 2.955
80.42000 1.740
80.44000 0.226
80.46000 -0.498
80.48000 3.452
80.50000 1.129
80.52000 1.620
80.54000 1.763
80.56000 2.022
80.58000 2.332
80.60000 1.717
80.62000 -0.731
80.64000 2.077
80.66000 0.524
80.68000 2.192
80.70000 4.833
80.72000 0.674
80.74000 1.124
80.76000 0.668
80.78000 2.935
80.80000 2.130
80.82000 3.899
80.84000 5.547
80.86000 4.980
80.88000 -0.065
80.90000 -2.184
80.92000 -1.297
80.94000 2.169
80.96000 3.969
80.98000 1.950
81.00000 -1.677
81.02000 -2.277
81.04000 0.283
81.06000 3.140
81.08000 4.612
81.10000 4.785
81.12000 3.487
81.14000 6.613
81.16000 4.760
81.18000 2.784
81.20000 4.630
81.22000 1.749
81.24000 5.675
81.26000 1.405
81.28000 0.761
81.30000 2.860
81.32000 2.922
81.34000 4.031
81.36000 -0.220
81.38000 -0.857
81.40000 0.274
81.42000 0.092
81.44000 1.610
81.46000 3.548
81.48000 6.490
81.50000 5.367
81.52000 6.225
81.54000 1.802
81.56000 0.523
81.58000 3.805
81.60000 2.366
81.62000 -0.470
81.64000 1.152
81.66000 3.202
81.68000 6.695
81.70000 6.246
81.72000 4.783
81.74000 8.407
81.76000 8.815
81.78000 4.226
81.80000 2.184
81.82000 0.200
81.84000 4.422
81.86000 5.420
81.88000 3.491
81.90000 7.536
81.92000 10.133
81.94000 9.020
81.96000 11.708
81.98000 9.401
82.00000 5.580
82.02000 11.102
82.04000 9.506
82.06000 12.875
82.08000 12.436
82.10000 14.412
82.12000 16.489
82.14000 15.410
82.16000 20.452
82.18000 16.018
82.20000 17.356
82.22000 19.960
82.24000 22.137
82.26000 21.657
82.28000 24.017
82.30000 20.210
82.32000 20.543
82.34000 26.326
82.36000 26.145
82.38000 24.945
82.40000 27.806
82.42000 24.664
82.44000 23.673
82.46000 24.933
82.48000 29.690
82.50000 33.721
82.52000 32.359
82.54000 35.589
82.56000 33.141
82.58000 32.716
82.60000 34.124
82.62000 44.087
82.64000 45.536
82.66000 45.681
82.68000 43.058
82.70000 44.078
82.72000 40.348
82.74000 41.292
82.76000 46.789
82.78000 46.898
82.80000 43.379
82.82000 43.361
82.84000 48.610
82.86000 56.505
82.88000 61.003
82.90000 57.093
82.92000 54.977
82.94000 53.971
82.96000 51.438
82.98000 56.526
83.00000 55.560
83.02000 54.491
83.04000 56.584
83.06000 59.950
83.08000 59.533
83.10000 60.576
83.12000 54.160
83.14000 53.692
83.16000 58.086
83.18000 51.780
83.20000 49.752
83.22000 48.411
83.24000 48.320
83.26000 49.537
83.28000 49.528
83.30000 43.312
83.32000 49.024
83.34000 51.630
83.36000 50.245
83.38000 44.476
83.40000 36.976
83.42000 37.859
83.44000 37.315
83.46000 36.594
83.48000 36.668
83.50000 34.968
83.52000 37.953
83.54000 38.789
83.56000 35.266
83.58000 34.568
83.60000 37.785
83.62000 29.858
83.64000 25.312
83.66000 29.320
83.68000 32.334
83.70000 29.900
83.72000 28.293
83.74000 20.565
83.76000 18.459
83.78000 19.535
83.80000 20.859
83.82000 23.003
83.84000 20.748
83.86000 20.047
83.88000 22.564
83.90000 16.769
83.92000 16.340
83.94000 16.643
83.96000 16.348
83.98000 15.172
84.00000 15.972
84.02000 17.144
84.04000 16.708
84.06000 14.004
84.08000 12.692
84.10000 11.166
84.12000 16.354
84.14000 14.765
84.16000 9.984
84.18000 9.597
84.20000 9.048
84.22000 9.710
84.24000 14.704
84.26000 12.296
84.28000 9.897
84.30000 11.021
84.32000 8.550
84.34000 3.332
84.36000 2.339
84.38000 4.008
84.40000 5.810
84.42000 2.011
84.44000 -2.286
84.46000 1.444
84.48000 3.963
84.50000 5.439
84.52000 3.759
84.54000 0.981
84.56000 8.754
84.58000 6.368
84.60000 6.251
84.62000 5.110
84.64000 3.776
84.66000 3.375
84.68000 3.627
84.70000 1.733
84.72000 4.140
84.74000 3.157
84.76000 2.864
84.78000 0.445
84.80000 -1.913
84.82000 1.054
84.84000 2.433
84.86000 2.005
84.88000 2.772
84.90000 -0.258
84.92000 0.251
84.94000 1.752
84.96000 5.693
84.98000 3.493
85.00000 6.524
85.02000 8.137
85.04000 3.480
85.06000 6.601
85.08000 5.068
85.10000 -0.540
85.12000 -1.728
85.14000 1.119
85.16000 -0.982
85.18000 0.072
85.20000 1.732
85.22000 0.616
85.24000 1.518
85.26000 1.065
85.28000 -1.545
85.30000 0.317
85.32000 0.712
85.34000 -1.012
85.36000 -2.231
85.38000 0.709
85.40000 1.045
85.42000 -1.293
85.44000 -0.635
85.46000 -1.882
85.48000 -2.224
85.50000 -1.860
85.52000 1.307
85.54000 3.793
85.56000 2.408
85.58000 1.394
85.60000 -0.866
85.62000 2.443
85.64000 0.602
85.66000 3.350
85.68000 3.563
85.70000 1.957
85.72000 -1.013
85.74000 0.979
85.76000 -2.235
85.78000 -0.968
85.80000 0.309
85.82000 3.433
85.84000 7.089
85.86000 4.743
85.88000 2.321
85.90000 2.401
85.92000 4.103
85.94000 6.599
85.96000 4.001
85.98000 4.043
86.00000 1.977
86.02000 -1.041
86.04000 0.706
86.06000 -2.074
86.08000 -1.572
86.10000 0.877
86.12000 5.578
86.14000 2.532
86.16000 0.186
86.18000 1.657
86.20000 -1.031
86.22000 4.800
86.24000 7.344
86.26000 1.920
86.28000 1.996
86.30000 3.535
86.32000 3.230
86.34000 1.034
86.36000 1.859
86.38000 1.374
86.40000 -0.057
86.42000 1.815
86.44000 5.121
86.46000 2.839
86.48000 1.134
86.50000 4.118
86.52000 7.623
86.54000 5.228
86.56000 -0.014
86.58000 -2.272
86.60000 5.425
86.62000 9.255
86.64000 6.222
86.66000 6.768
86.68000 7.673
86.70000 8.797
86.72000 7.261
86.74000 7.301
86.76000 6.681
86.78000 11.930
86.80000 14.438
86.82000 13.099
86.84000 12.610
86.86000 13.167
86.88000 14.139
86.90000 16.948
86.92000 17.772
86.94000 15.773
86.96000 13.958
86.98000 17.388
87.00000 14.484
87.02000 19.018
87.04000 17.320
87.06000 17.095
87.08000 21.016
87.10000 21.902
87.12000 25.474
87.14000 22.245
87.16000 16.560
87.18000 20.033
87.20000 22.374
87.22000 24.402
87.24000 21.563
87.26000 23.801
87.28000 28.625
87.30000 25.142
87.32000 28.560
87.34000 29.343
87.36000 29.187
87.38000 30.031
87.40000 31.498
87.42000 31.236
87.44000 29.254
87.46000 30.461
87.48000 27.050
87.50000 25.587
87.52000 29.692
87.54000 33.291
87.56000 32.451
87.58000 31.298
87.60000 30.810
87.62000 25.025
87.64000 28.538
87.66000 26.308
87.68000 24.326
87.70000 23.218
87.72000 26.436
87.74000 22.930
87.76000 20.386
87.78000 19.153
87.80000 18.819
87.82000 22.939
87.84000 22.471
87.86000 22.592
87.88000 23.526
87.90000 23.278
87.92000 23.975
87.94000 22.399
87.96000 19.415
87.98000 16.138
88.00000 14.765
88.02000 13.612
88.04000 16.618
88.06000 15.884
88.08000 12.036
88.10000 11.909
88.12000 9.855
88.14000 8.726
88.16000 5.928
88.18000 6.214
88.20000 9.064
88.22000 11.160
88.24000 9.912
88.26000 10.958
88.28000 8.375
88.30000 5.522
88.32000 8.643
88.34000 11.509
88.36000 8.642
88.38000 4.801
88.40000 7.003
88.42000 5.400
88.44000 1.997
88.46000 4.474
88.48000 4.066
88.50000 5.200
88.52000 3.565
88.54000 3.597
88.56000 1.829
88.58000 1.706
88.60000 3.752
88.62000 4.388
88.64000 1.348
88.66000 -0.435
88.68000 0.925
88.70000 3.679
88.72000 -0.418
88.74000 0.783
88.76000 2.772
88.78000 3.534
88.80000 1.628
88.82000 2.497
88.84000 6.630
88.86000 3.482
88.88000 2.184
88.90000 1.547
88.92000 0.291
88.94000 -0.187
88.96000 1.584
88.98000 2.466
89.00000 2.697
89.02000 -1.404
89.04000 3.764
89.06000 3.487
89.08000 1.167
89.10000 0.675
89.12000 0.877
89.14000 6.083
89.16000 2.624
89.18000 0.158
89.20000 -0.166
89.22000 0.603
89.24000 -2.118
89.26000 -1.296
89.28000 -1.998
89.30000 -1.029
89.32000 2.552
89.34000 3.778
89.36000 1.338
89.38000 0.859
89.40000 0.432
89.42000 4.123
89.44000 3.429
89.46000 -0.540
89.48000 0.904
89.50000 2.836
89.52000 2.917
89.54000 1.902
89.56000 4.609
89.58000 1.651
89.60000 2.786
89.62000 2.319
89.64000 1.662
89.66000 -2.063
89.68000 -0.925
89.70000 1.335
89.72000 2.349
89.74000 1.246
89.76000 3.049
89.78000 5.242
89.80000 2.422
89.82000 -1.762
89.84000 0.943
89.86000 -0.863
89.88000 2.581
89.90000 4.011
89.92000 3.248
89.94000 1.798
89.96000 2.419
89.98000 3.199
90.00000 4.127
90.02000 4.595
90.04000 2.232
90.06000 -0.789
90.08000 -1.762
90.10000 3.638
90.12000 1.633
90.14000 3.072
90.16000 2.596
90.18000 1.112
90.20000 -0.959
90.22000 -2.051
90.24000 1.049
90.26000 3.234
90.28000 4.927
90.30000 1.807
90.32000 -0.505
90.34000 0.732
90.36000 4.723
90.38000 2.674
90.40000 1.644
90.42000 2.860
90.44000 1.444
90.46000 -0.024
90.48000 0.231
90.50000 2.980
90.52000 4.944
90.54000 1.478
90.56000 0.804
90.58000 2.971
90.60000 0.892
90.62000 -0.211
90.64000 -1.151
90.66000 2.339
90.68000 0.074
90.70000 -2.038
90.72000 -1.318
90.74000 -0.383
90.76000 0.214
90.78000 3.156
90.80000 6.478
90.82000 0.343
90.84000 0.124
90.86000 -0.613
90.88000 3.627
90.90000 5.778
90.92000 3.289
90.94000 1.205
90.96000 3.108
90.98000 0.365
91.00000 0.746
91.02000 2.497
91.04000 3.162
91.06000 7.292
91.08000 2.264
91.10000 1.299
91.12000 0.318
91.14000 0.814
91.16000 2.795
91.18000 5.079
91.20000 1.625
91.22000 0.456
91.24000 4.451
91.26000 0.320
91.28000 -2.003
91.30000 2.092
91.32000 2.784
91.34000 5.679
91.36000 0.860
91.38000 0.815
91.40000 1.310
91.42000 1.132
91.44000 2.117
91.46000 2.171
91.48000 1.388
91.50000 3.789
91.52000 5.691
91.54000 5.605
91.56000 3.134
91.58000 4.408
91.60000 4.358
91.62000 3.197
91.64000 5.502
91.66000 7.311
91.68000 5.788
91.70000 3.022
91.72000 3.427
91.74000 6.667
91.76000 7.584
91.78000 6.492
91.80000 4.158
91.82000 4.337
91.84000 5.428
91.86000 2.647
91.88000 -0.526
91.90000 3.206
91.92000 4.479
91.94000 6.410
91.96000 6.960
91.98000 3.747
92.00000 2.879
92.02000 7.110
92.04000 2.921
92.06000 4.110
92.08000 1.136
92.10000 1.642
92.12000 -2.006
92.14000 -1.052
92.16000 1.617
92.18000 6.264
92.20000 3.607
92.22000 2.249
92.24000 3.021
92.26000 -1.689
92.28000 0.946
92.30000 5.281
92.32000 3.605
92.34000 1.983
92.36000 5.420
92.38000 5.526
92.40000 2.584
92.42000 3.084
92.44000 2.709
92.46000 2.269
92.48000 3.775
92.50000 5.698
92.52000 5.425
92.54000 5.807
92.56000 2.765
92.58000 4.048
92.60000 4.535
92.62000 4.647
92.64000 -0.539
92.66000 -2.016
92.68000 -0.001
92.70000 2.988
92.72000 1.219
92.74000 2.445
92.76000 1.418
92.78000 6.021
92.80000 7.210
92.82000 9.399
92.84000 1.051
92.86000 3.636
92.88000 5.226
92.90000 5.078
92.92000 4.201
92.94000 1.352
92.96000 1.385
92.98000 1.970
93.00000 2.980
93.02000 0.468
93.04000 0.445
93.06000 5.261
93.08000 2.045
93.10000 -1.189
93.12000 2.109
93.14000 3.576
93.16000 2.848
93.18000 6.170
93.20000 8.055
93.22000 5.079
93.24000 4.213
93.26000 3.456
93.28000 2.284
93.30000 1.249
93.32000 -0.828
93.34000 3.949
93.36000 4.102
93.38000 3.585
93.40000 2.990
93.42000 2.875
93.44000 -2.025
93.46000 -1.626
93.48000 -0.495
93.50000 2.676
93.52000 4.892
93.54000 2.994
93.56000 2.036
93.58000 -1.468
93.60000 2.678
93.62000 4.623
93.64000 2.264
93.66000 0.031
93.68000 3.168
93.70000 8.042
93.72000 5.945
93.74000 6.664
93.76000 5.508
93.78000 5.759
93.80000 8.313
93.82000 6.149
93.84000 0.250
93.86000 1.763
93.88000 3.628
93.90000 4.557
93.92000 6.276
93.94000 5.371
93.96000 6.703
93.98000 6.089
94.00000 6.548
94.02000 1.894
94.04000 0.790
94.06000 0.476
94.08000 2.140
94.10000 1.291
94.12000 3.278
94.14000 6.344
94.16000 7.211
94.18000 9.263
94.20000 4.240
94.22000 -1.993
94.24000 5.282
94.26000 3.285
94.28000 3.821
94.30000 2.859
94.32000 5.503
94.34000 6.172
94.36000 -1.663
94.38000 -1.973
94.40000 2.123
94.42000 1.484
94.44000 4.078
94.46000 4.399
94.48000 3.304
94.50000 -0.547
94.52000 4.578
94.54000 6.320
94.56000 4.735
94.58000 2.188
94.60000 3.559
94.62000 3.658
94.64000 4.965
94.66000 1.477
94.68000 1.714
94.70000 2.438
94.72000 2.374
94.74000 7.496
94.76000 5.374
94.78000 5.523
94.80000 -0.638
94.82000 3.683
94.84000 4.615
94.86000 3.411
94.88000 5.041
94.90000 1.143
94.92000 0.278
94.94000 2.184
94.96000 0.530
94.98000 2.847
95.00000 4.139
95.02000 3.118
95.04000 2.518
95.06000 1.711
95.08000 -0.780
95.10000 -1.563
95.12000 2.809
95.14000 1.914
95.16000 1.881
95.18000 4.367
95.20000 8.275
95.22000 6.184
95.24000 2.971
95.26000 -0.248
95.28000 -1.202
95.30000 3.008
95.32000 7.969
95.34000 5.228
95.36000 2.702
95.38000 2.188
95.40000 -0.032
95.42000 3.799
95.44000 3.885
95.46000 4.076
95.48000 6.735
95.50000 5.624
95.52000 4.106
95.54000 2.924
95.56000 5.052
95.58000 5.377
95.60000 3.912
95.62000 2.879
95.64000 1.534
95.66000 0.160
95.68000 7.371
95.70000 6.855
95.72000 6.375
95.74000 7.042
95.76000 1.810
95.78000 -2.050
95.80000 2.942
95.82000 3.436
95.84000 0.139
95.86000 -0.667
95.88000 0.574
95.90000 7.625
95.92000 8.744
95.94000 3.658
95.96000 0.279
95.98000 0.902
96.00000 3.661
96.02000 3.369
96.04000 7.036
96.06000 2.248
96.08000 6.824
96.10000 4.737
96.12000 7.307
96.14000 5.397
96.16000 3.213
96.18000 1.861
96.20000 2.586
96.22000 1.238
96.24000 1.774
96.26000 3.000
96.28000 3.723
96.30000 3.941
96.32000 3.129
96.34000 2.721
96.36000 2.869
96.38000 2.329
96.40000 5.509
96.42000 5.773
96.44000 3.772
96.46000 7.418
96.48000 7.235
96.50000 6.173
96.52000 5.485
96.54000 2.907
96.56000 4.475
96.58000 5.430
96.60000 6.498
96.62000 4.248
96.64000 -1.057
96.66000 -2.002
96.68000 4.301
96.70000 4.401
96.72000 4.319
96.74000 3.286
96.76000 3.158
96.78000 4.987
96.80000 8.378
96.82000 7.446
96.84000 6.019
96.86000 4.681
96.88000 6.006
96.90000 9.510
96.92000 9.622
96.94000 5.738
96.96000 7.391
96.98000 11.943
97.00000 9.968
97.02000 5.588
97.04000 9.404
97.06000 6.493
97.08000 4.068
97.10000 3.790
97.12000 4.282
97.14000 7.529
97.16000 4.467
97.18000 4.629
97.20000 5.871
97.22000 5.501
97.24000 2.420
97.26000 2.272
97.28000 2.673
97.30000 3.744
97.32000 2.373
97.34000 -1.974
97.36000 2.439
97.38000 7.981
97.40000 6.742
97.42000 5.280
97.44000 5.754
97.46000 9.238
97.48000 9.671
97.50000 1.088
97.52000 2.929
97.54000 2.157
97.56000 4.530
97.58000 6.378
97.60000 6.477
97.62000 3.039
97.64000 6.194
97.66000 4.953
97.68000 5.523
97.70000 3.425
97.72000 0.639
97.74000 1.271
97.76000 3.532
97.78000 10.096
97.80000 3.510
97.82000 8.142
97.84000 4.132
97.86000 -0.964
97.88000 4.219
97.90000 1.196
97.92000 -1.335
97.94000 1.845
97.96000 5.215
97.98000 7.316
98.00000 8.813
98.02000 5.318
98.04000 -0.782
98.06000 -0.575
98.08000 4.915
98.10000 3.418
98.12000 6.732
98.14000 6.890
98.16000 7.607
98.18000 2.466
98.20000 3.650
98.22000 0.521
98.24000 6.239
98.26000 7.521
98.28000 0.731
98.30000 -1.952
98.32000 5.253
98.34000 3.373
98.36000 7.885
98.38000 3.950
98.40000 4.573
98.42000 2.352
98.44000 2.079
98.46000 6.025
98.48000 6.674
98.50000 3.978
98.52000 1.594
98.54000 -0.807
98.56000 2.903
98.58000 3.021
98.60000 3.653
98.62000 3.038
98.64000 5.264
98.66000 8.004
98.68000 14.075
98.70000 10.169
98.72000 5.399
98.74000 6.224
98.76000 2.665
98.78000 1.636
98.80000 9.706
98.82000 6.271
98.84000 2.915
98.86000 4.637
98.88000 7.257
98.90000 0.852
98.92000 6.511
98.94000 8.993
98.96000 9.798
98.98000 13.801
99.00000 8.899
99.02000 0.485
99.04000 4.192
99.06000 5.138
99.08000 0.809
99.10000 -0.349
99.12000 4.695
99.14000 5.373
99.16000 4.318
99.18000 5.943
99.20000 -1.925
99.22000 -0.427
99.24000 4.737
99.26000 9.081
99.28000 12.692
99.30000 8.905
99.32000 4.437
99.34000 5.780
99.36000 10.700
99.38000 11.330
99.40000 3.975
99.42000 6.702
99.44000 6.779
99.46000 3.914
99.48000 9.775
99.50000 9.345
99.52000 6.602
99.54000 6.872
99.56000 5.556
99.58000 -1.908
99.60000 3.474
99.62000 15.933
99.64000 6.149
99.66000 14.509
99.68000 4.609
99.70000 5.230
99.72000 5.582
99.74000 4.163
99.76000 10.518
99.78000 8.692
99.80000 15.297
99.82000 13.492
99.84000 6.572
99.86000 -1.998
99.88000 -0.786
99.90000 6.234
99.92000 0.745
99.94000 5.628
99.96000 4.086
99.98000 0.000
