'Id: "0011387" Comment: "Integrate frame 0011387_Au-Ir-Rh_Rh-rich_XRD-Mapping-183-0000.gfrmwith cursor Wedge Cursor #5" Operator: "B?rgel" Anode: "Cu" Wavelength: "1.5406" Scantype: "2Theta (TwoTheta)" TimePerStep: "1" X: "-22.5" Y: "4.5" Z: "5.95" 
10.00000 0.000
10.02000 16.187
10.04000 -9.712
10.06000 -3.770
10.08000 -0.289
10.10000 10.082
10.12000 11.414
10.14000 -4.340
10.16000 4.802
10.18000 -4.366
10.20000 22.106
10.22000 14.228
10.24000 15.091
10.26000 13.049
10.28000 29.739
10.30000 31.391
10.32000 21.916
10.34000 19.382
10.36000 25.845
10.38000 13.432
10.40000 14.872
10.42000 7.571
10.44000 9.740
10.46000 34.139
10.48000 16.174
10.50000 6.149
10.52000 2.026
10.54000 3.726
10.56000 10.016
10.58000 21.862
10.60000 19.169
10.62000 21.639
10.64000 21.383
10.66000 18.965
10.68000 11.301
10.70000 7.316
10.72000 9.004
10.74000 24.117
10.76000 17.313
10.78000 8.259
10.80000 9.668
10.82000 22.230
10.84000 10.711
10.86000 5.355
10.88000 15.582
10.90000 25.237
10.92000 13.152
10.94000 11.536
10.96000 22.054
10.98000 5.769
11.00000 3.002
11.02000 2.582
11.04000 15.919
11.06000 33.655
11.08000 15.488
11.10000 27.034
11.12000 23.636
11.14000 22.449
11.16000 17.700
11.18000 4.288
11.20000 5.597
11.22000 2.562
11.24000 24.612
11.26000 28.726
11.28000 18.168
11.30000 5.288
11.32000 8.421
11.34000 13.099
11.36000 10.215
11.38000 4.174
11.40000 9.708
11.42000 13.865
11.44000 27.556
11.46000 18.997
11.48000 9.161
11.50000 12.332
11.52000 10.539
11.54000 22.178
11.56000 32.157
11.58000 24.510
11.60000 19.197
11.62000 8.659
11.64000 11.353
11.66000 18.536
11.68000 26.117
11.70000 22.901
11.72000 16.030
11.74000 16.929
11.76000 20.048
11.78000 31.707
11.80000 31.183
11.82000 14.626
11.84000 6.978
11.86000 -4.377
11.88000 13.260
11.90000 18.249
11.92000 12.587
11.94000 16.613
11.96000 4.527
11.98000 2.071
12.00000 14.804
12.02000 16.512
12.04000 11.334
12.06000 13.484
12.08000 18.396
12.10000 17.031
12.12000 11.088
12.14000 14.502
12.16000 19.078
12.18000 20.357
12.20000 22.628
12.22000 12.210
12.24000 19.446
12.26000 30.300
12.28000 14.483
12.30000 -2.693
12.32000 3.233
12.34000 14.568
12.36000 1.806
12.38000 11.087
12.40000 19.451
12.42000 15.766
12.44000 25.627
12.46000 25.063
12.48000 14.807
12.50000 5.050
12.52000 -1.284
12.54000 4.632
12.56000 14.977
12.58000 24.680
12.60000 21.971
12.62000 6.160
12.64000 2.430
12.66000 2.788
12.68000 16.149
12.70000 15.427
12.72000 14.671
12.74000 17.405
12.76000 20.962
12.78000 20.581
12.80000 13.051
12.82000 12.937
12.84000 9.929
12.86000 8.355
12.88000 19.893
12.90000 11.453
12.92000 8.204
12.94000 14.347
12.96000 20.129
12.98000 2.859
13.00000 11.203
13.02000 19.480
13.04000 13.769
13.06000 15.270
13.08000 17.508
13.10000 4.373
13.12000 -0.997
13.14000 7.573
13.16000 7.178
13.18000 9.869
13.20000 16.511
13.22000 7.460
13.24000 3.500
13.26000 4.209
13.28000 14.039
13.30000 7.830
13.32000 11.227
13.34000 10.798
13.36000 15.916
13.38000 19.874
13.40000 9.603
13.42000 2.431
13.44000 5.853
13.46000 2.892
13.48000 5.937
13.50000 2.940
13.52000 7.835
13.54000 4.692
13.56000 8.994
13.58000 13.153
13.60000 8.138
13.62000 -4.456
13.64000 4.547
13.66000 10.593
13.68000 7.589
13.70000 6.989
13.72000 5.212
13.74000 -1.475
13.76000 8.558
13.78000 4.892
13.80000 -4.490
13.82000 2.129
13.84000 9.678
13.86000 15.681
13.88000 18.669
13.90000 12.644
13.92000 2.144
13.94000 10.084
13.96000 14.390
13.98000 8.657
14.00000 4.621
14.02000 -2.020
14.04000 3.108
14.06000 6.833
14.08000 11.552
14.10000 13.620
14.12000 9.617
14.14000 3.929
14.16000 7.662
14.18000 6.289
14.20000 5.368
14.22000 8.673
14.24000 7.295
14.26000 6.554
14.28000 6.096
14.30000 4.215
14.32000 8.207
14.34000 10.415
14.36000 6.196
14.38000 6.127
14.40000 8.229
14.42000 2.238
14.44000 6.624
14.46000 3.189
14.48000 -4.208
14.50000 0.427
14.52000 1.544
14.54000 12.769
14.56000 17.360
14.58000 5.719
14.60000 -1.299
14.62000 4.432
14.64000 7.591
14.66000 2.413
14.68000 10.510
14.70000 11.279
14.72000 1.205
14.74000 -0.444
14.76000 2.417
14.78000 2.140
14.80000 4.093
14.82000 7.999
14.84000 2.113
14.86000 2.948
14.88000 9.115
14.90000 0.282
14.92000 8.403
14.94000 9.549
14.96000 8.171
14.98000 -2.020
15.00000 8.870
15.02000 3.249
15.04000 7.161
15.06000 1.215
15.08000 9.940
15.10000 1.452
15.12000 0.452
15.14000 9.253
15.16000 10.300
15.18000 9.957
15.20000 8.714
15.22000 5.144
15.24000 2.889
15.26000 -1.230
15.28000 18.009
15.30000 16.812
15.32000 0.601
15.34000 5.870
15.36000 5.445
15.38000 4.193
15.40000 -0.044
15.42000 1.034
15.44000 5.393
15.46000 4.504
15.48000 6.748
15.50000 5.276
15.52000 5.228
15.54000 3.147
15.56000 5.897
15.58000 5.954
15.60000 -3.409
15.62000 -0.638
15.64000 -1.951
15.66000 2.404
15.68000 1.269
15.70000 0.538
15.72000 2.869
15.74000 0.357
15.76000 0.795
15.78000 3.903
15.80000 10.320
15.82000 6.129
15.84000 5.611
15.86000 9.796
15.88000 7.539
15.90000 4.066
15.92000 9.189
15.94000 11.182
15.96000 5.041
15.98000 1.048
16.00000 0.776
16.02000 -4.279
16.04000 8.400
16.06000 5.252
16.08000 10.770
16.10000 1.976
16.12000 -1.611
16.14000 -1.893
16.16000 -3.434
16.18000 1.165
16.20000 8.016
16.22000 13.367
16.24000 3.693
16.26000 -0.828
16.28000 14.107
16.30000 9.454
16.32000 2.527
16.34000 1.356
16.36000 7.656
16.38000 4.458
16.40000 -4.407
16.42000 2.740
16.44000 6.023
16.46000 9.014
16.48000 0.887
16.50000 5.463
16.52000 2.788
16.54000 -0.263
16.56000 2.597
16.58000 3.253
16.60000 -0.531
16.62000 3.027
16.64000 5.804
16.66000 6.205
16.68000 0.796
16.70000 -3.948
16.72000 3.680
16.74000 8.710
16.76000 0.956
16.78000 -2.647
16.80000 3.575
16.82000 3.093
16.84000 4.880
16.86000 6.703
16.88000 7.020
16.90000 2.412
16.92000 7.489
16.94000 5.849
16.96000 1.502
16.98000 0.030
17.00000 -3.297
17.02000 5.313
17.04000 8.920
17.06000 13.867
17.08000 16.832
17.10000 8.789
17.12000 -1.680
17.14000 -1.610
17.16000 10.823
17.18000 7.749
17.20000 2.138
17.22000 5.713
17.24000 7.972
17.26000 6.036
17.28000 9.022
17.30000 3.302
17.32000 4.829
17.34000 8.912
17.36000 3.106
17.38000 2.620
17.40000 4.235
17.42000 10.208
17.44000 2.441
17.46000 -0.468
17.48000 -1.691
17.50000 7.622
17.52000 6.535
17.54000 7.796
17.56000 0.604
17.58000 0.540
17.60000 1.409
17.62000 3.660
17.64000 8.059
17.66000 8.370
17.68000 6.619
17.70000 6.970
17.72000 8.577
17.74000 1.792
17.76000 0.976
17.78000 3.587
17.80000 11.019
17.82000 7.644
17.84000 1.917
17.86000 -4.356
17.88000 -3.777
17.90000 2.394
17.92000 11.989
17.94000 5.066
17.96000 5.843
17.98000 8.946
18.00000 2.429
18.02000 7.277
18.04000 13.846
18.06000 10.884
18.08000 6.621
18.10000 9.294
18.12000 5.174
18.14000 3.526
18.16000 -1.898
18.18000 -2.105
18.20000 2.536
18.22000 6.118
18.24000 9.688
18.26000 6.879
18.28000 0.603
18.30000 2.492
18.32000 2.896
18.34000 4.409
18.36000 4.176
18.38000 0.202
18.40000 2.819
18.42000 7.069
18.44000 5.033
18.46000 9.039
18.48000 11.368
18.50000 2.498
18.52000 9.812
18.54000 10.226
18.56000 4.125
18.58000 5.315
18.60000 10.050
18.62000 3.789
18.64000 3.592
18.66000 1.828
18.68000 2.856
18.70000 8.253
18.72000 -0.527
18.74000 -1.534
18.76000 7.741
18.78000 5.294
18.80000 0.400
18.82000 -3.685
18.84000 -2.797
18.86000 1.461
18.88000 9.528
18.90000 4.231
18.92000 2.677
18.94000 3.466
18.96000 3.864
18.98000 0.202
19.00000 5.149
19.02000 9.319
19.04000 13.368
19.06000 16.062
19.08000 6.411
19.10000 10.982
19.12000 5.468
19.14000 3.251
19.16000 8.109
19.18000 7.707
19.20000 12.239
19.22000 9.279
19.24000 8.270
19.26000 8.634
19.28000 10.527
19.30000 8.903
19.32000 12.611
19.34000 14.782
19.36000 13.636
19.38000 18.988
19.40000 17.396
19.42000 7.503
19.44000 7.593
19.46000 6.107
19.48000 5.933
19.50000 7.513
19.52000 -4.181
19.54000 3.126
19.56000 7.595
19.58000 9.530
19.60000 7.194
19.62000 9.364
19.64000 14.573
19.66000 8.353
19.68000 6.029
19.70000 2.665
19.72000 6.272
19.74000 8.941
19.76000 13.235
19.78000 12.436
19.80000 11.939
19.82000 13.936
19.84000 11.984
19.86000 12.591
19.88000 5.421
19.90000 7.844
19.92000 8.751
19.94000 6.024
19.96000 4.887
19.98000 10.401
20.00000 9.772
20.02000 9.400
20.04000 4.972
20.06000 -0.979
20.08000 7.740
20.10000 12.186
20.12000 7.271
20.14000 11.190
20.16000 14.212
20.18000 7.060
20.20000 6.119
20.22000 13.273
20.24000 9.281
20.26000 12.347
20.28000 13.358
20.30000 7.812
20.32000 7.168
20.34000 3.042
20.36000 5.692
20.38000 6.297
20.40000 6.937
20.42000 7.518
20.44000 8.534
20.46000 0.493
20.48000 1.663
20.50000 10.918
20.52000 4.553
20.54000 0.105
20.56000 2.839
20.58000 3.888
20.60000 4.382
20.62000 7.504
20.64000 5.239
20.66000 2.266
20.68000 7.998
20.70000 7.953
20.72000 12.700
20.74000 15.387
20.76000 11.874
20.78000 7.440
20.80000 1.894
20.82000 2.747
20.84000 7.669
20.86000 13.117
20.88000 6.195
20.90000 5.477
20.92000 8.248
20.94000 4.951
20.96000 4.180
20.98000 12.601
21.00000 2.987
21.02000 -4.139
21.04000 2.923
21.06000 0.333
21.08000 -3.154
21.10000 5.552
21.12000 10.913
21.14000 8.134
21.16000 5.675
21.18000 4.486
21.20000 -2.144
21.22000 -0.104
21.24000 5.135
21.26000 7.423
21.28000 5.164
21.30000 5.700
21.32000 4.762
21.34000 2.066
21.36000 4.518
21.38000 -0.329
21.40000 0.735
21.42000 -0.126
21.44000 7.329
21.46000 5.189
21.48000 4.596
21.50000 11.842
21.52000 4.077
21.54000 0.287
21.56000 4.643
21.58000 12.315
21.60000 4.835
21.62000 2.688
21.64000 -1.302
21.66000 -1.776
21.68000 4.745
21.70000 8.040
21.72000 5.623
21.74000 7.354
21.76000 4.615
21.78000 2.355
21.80000 4.109
21.82000 -1.760
21.84000 -1.867
21.86000 0.727
21.88000 6.190
21.90000 7.067
21.92000 6.691
21.94000 1.541
21.96000 -3.447
21.98000 5.115
22.00000 3.123
22.02000 5.169
22.04000 6.456
22.06000 1.744
22.08000 4.364
22.10000 14.077
22.12000 3.984
22.14000 -0.316
22.16000 0.095
22.18000 -1.786
22.20000 -0.725
22.22000 3.599
22.24000 5.330
22.26000 1.917
22.28000 2.908
22.30000 11.249
22.32000 6.906
22.34000 6.413
22.36000 0.933
22.38000 -1.534
22.40000 7.349
22.42000 4.515
22.44000 5.175
22.46000 7.017
22.48000 2.282
22.50000 0.218
22.52000 3.931
22.54000 0.750
22.56000 -4.086
22.58000 -2.862
22.60000 0.352
22.62000 6.559
22.64000 2.339
22.66000 5.772
22.68000 4.194
22.70000 3.858
22.72000 1.899
22.74000 -0.104
22.76000 2.981
22.78000 6.475
22.80000 3.496
22.82000 1.851
22.84000 0.082
22.86000 6.411
22.88000 5.754
22.90000 2.322
22.92000 1.658
22.94000 2.199
22.96000 11.835
22.98000 5.411
23.00000 3.068
23.02000 2.890
23.04000 5.703
23.06000 3.352
23.08000 2.499
23.10000 0.562
23.12000 4.600
23.14000 7.861
23.16000 6.710
23.18000 1.612
23.20000 -4.035
23.22000 3.199
23.24000 8.066
23.26000 10.746
23.28000 8.890
23.30000 4.708
23.32000 7.552
23.34000 6.112
23.36000 6.072
23.38000 8.097
23.40000 8.746
23.42000 8.331
23.44000 1.605
23.46000 3.423
23.48000 -0.022
23.50000 3.871
23.52000 8.525
23.54000 12.333
23.56000 10.632
23.58000 3.734
23.60000 3.022
23.62000 3.844
23.64000 1.968
23.66000 -0.321
23.68000 -3.628
23.70000 1.852
23.72000 3.795
23.74000 5.388
23.76000 5.172
23.78000 5.492
23.80000 3.308
23.82000 5.179
23.84000 2.742
23.86000 3.380
23.88000 6.408
23.90000 5.296
23.92000 6.222
23.94000 0.289
23.96000 -1.147
23.98000 2.441
24.00000 3.985
24.02000 0.886
24.04000 1.781
24.06000 4.010
24.08000 6.484
24.10000 6.441
24.12000 2.342
24.14000 7.894
24.16000 4.479
24.18000 7.686
24.20000 6.521
24.22000 3.663
24.24000 -1.167
24.26000 -0.427
24.28000 5.416
24.30000 8.227
24.32000 5.556
24.34000 4.113
24.36000 7.367
24.38000 6.792
24.40000 0.981
24.42000 2.926
24.44000 6.275
24.46000 4.164
24.48000 0.816
24.50000 4.981
24.52000 5.499
24.54000 2.568
24.56000 0.840
24.58000 0.264
24.60000 2.102
24.62000 5.960
24.64000 6.580
24.66000 2.373
24.68000 4.119
24.70000 6.890
24.72000 1.783
24.74000 -3.151
24.76000 -3.923
24.78000 -2.162
24.80000 -0.741
24.82000 4.177
24.84000 6.583
24.86000 7.736
24.88000 7.640
24.90000 4.525
24.92000 2.449
24.94000 8.490
24.96000 8.613
24.98000 4.833
25.00000 8.182
25.02000 8.578
25.04000 4.173
25.06000 1.737
25.08000 5.168
25.10000 3.482
25.12000 5.857
25.14000 6.153
25.16000 5.886
25.18000 6.915
25.20000 -0.419
25.22000 1.584
25.24000 7.790
25.26000 7.396
25.28000 5.701
25.30000 5.036
25.32000 8.018
25.34000 5.433
25.36000 5.308
25.38000 -1.772
25.40000 0.945
25.42000 3.498
25.44000 5.660
25.46000 3.301
25.48000 2.824
25.50000 6.203
25.52000 5.369
25.54000 7.165
25.56000 8.987
25.58000 4.625
25.60000 2.325
25.62000 2.624
25.64000 2.094
25.66000 2.047
25.68000 5.350
25.70000 6.428
25.72000 2.104
25.74000 4.861
25.76000 10.125
25.78000 1.859
25.80000 -0.469
25.82000 4.379
25.84000 4.820
25.86000 9.219
25.88000 7.384
25.90000 6.496
25.92000 3.735
25.94000 3.888
25.96000 8.114
25.98000 11.346
26.00000 12.966
26.02000 11.222
26.04000 10.529
26.06000 7.313
26.08000 4.707
26.10000 6.524
26.12000 8.117
26.14000 4.701
26.16000 -0.268
26.18000 1.665
26.20000 3.071
26.22000 2.847
26.24000 6.123
26.26000 -0.258
26.28000 -3.834
26.30000 4.169
26.32000 5.101
26.34000 6.248
26.36000 5.739
26.38000 7.672
26.40000 8.555
26.42000 8.190
26.44000 1.746
26.46000 4.088
26.48000 0.530
26.50000 8.359
26.52000 6.311
26.54000 2.583
26.56000 3.167
26.58000 0.940
26.60000 4.066
26.62000 7.787
26.64000 5.794
26.66000 -0.076
26.68000 3.935
26.70000 5.045
26.72000 11.805
26.74000 6.796
26.76000 2.187
26.78000 -2.319
26.80000 -3.832
26.82000 0.605
26.84000 8.363
26.86000 8.322
26.88000 -0.231
26.90000 5.210
26.92000 1.600
26.94000 0.563
26.96000 5.208
26.98000 4.865
27.00000 5.353
27.02000 1.274
27.04000 1.160
27.06000 0.063
27.08000 2.588
27.10000 0.654
27.12000 4.664
27.14000 5.341
27.16000 6.814
27.18000 2.272
27.20000 2.889
27.22000 3.873
27.24000 4.283
27.26000 2.801
27.28000 1.816
27.30000 0.849
27.32000 -2.080
27.34000 2.366
27.36000 3.970
27.38000 -3.271
27.40000 -0.089
27.42000 7.632
27.44000 8.400
27.46000 3.657
27.48000 0.261
27.50000 4.380
27.52000 -3.425
27.54000 -0.984
27.56000 4.861
27.58000 1.053
27.60000 -0.814
27.62000 0.525
27.64000 -0.034
27.66000 3.869
27.68000 8.330
27.70000 11.223
27.72000 4.639
27.74000 4.929
27.76000 -0.753
27.78000 -1.081
27.80000 4.936
27.82000 0.990
27.84000 1.614
27.86000 3.223
27.88000 1.488
27.90000 4.067
27.92000 0.120
27.94000 -1.904
27.96000 0.008
27.98000 4.440
28.00000 9.298
28.02000 6.918
28.04000 7.862
28.06000 6.646
28.08000 3.931
28.10000 1.906
28.12000 0.742
28.14000 0.954
28.16000 7.264
28.18000 1.564
28.20000 1.274
28.22000 3.557
28.24000 0.468
28.26000 6.223
28.28000 6.803
28.30000 2.311
28.32000 6.225
28.34000 -1.771
28.36000 -3.756
28.38000 0.603
28.40000 -1.580
28.42000 -0.132
28.44000 -0.411
28.46000 1.220
28.48000 4.464
28.50000 3.235
28.52000 4.503
28.54000 7.583
28.56000 6.271
28.58000 1.579
28.60000 1.922
28.62000 1.697
28.64000 4.005
28.66000 3.706
28.68000 -2.075
28.70000 4.207
28.72000 1.391
28.74000 0.336
28.76000 2.169
28.78000 2.469
28.80000 -1.688
28.82000 1.383
28.84000 4.705
28.86000 9.912
28.88000 13.541
28.90000 6.939
28.92000 4.237
28.94000 5.743
28.96000 6.917
28.98000 4.735
29.00000 4.866
29.02000 6.406
29.04000 3.450
29.06000 -3.718
29.08000 -0.875
29.10000 0.810
29.12000 -3.117
29.14000 -0.569
29.16000 2.944
29.18000 -0.386
29.20000 1.623
29.22000 2.558
29.24000 6.452
29.26000 3.473
29.28000 3.600
29.30000 0.746
29.32000 3.597
29.34000 5.366
29.36000 2.134
29.38000 4.318
29.40000 9.069
29.42000 10.233
29.44000 1.790
29.46000 4.287
29.48000 4.165
29.50000 4.133
29.52000 -0.066
29.54000 -0.427
29.56000 3.463
29.58000 2.554
29.60000 2.701
29.62000 3.634
29.64000 -1.187
29.66000 -1.979
29.68000 -0.279
29.70000 -0.308
29.72000 1.418
29.74000 -1.027
29.76000 2.917
29.78000 6.463
29.80000 1.752
29.82000 3.521
29.84000 10.204
29.86000 3.322
29.88000 6.183
29.90000 3.100
29.92000 -0.384
29.94000 0.395
29.96000 -2.379
29.98000 1.289
30.00000 1.460
30.02000 3.814
30.04000 2.761
30.06000 0.126
30.08000 -2.323
30.10000 3.223
30.12000 3.506
30.14000 3.158
30.16000 -1.033
30.18000 0.880
30.20000 5.157
30.22000 5.628
30.24000 -3.161
30.26000 -2.498
30.28000 -1.912
30.30000 -1.920
30.32000 4.629
30.34000 5.168
30.36000 0.665
30.38000 0.067
30.40000 -1.270
30.42000 -2.720
30.44000 0.026
30.46000 4.944
30.48000 -0.040
30.50000 -0.245
30.52000 -2.329
30.54000 -3.657
30.56000 0.601
30.58000 2.979
30.60000 3.813
30.62000 3.717
30.64000 7.513
30.66000 9.311
30.68000 1.684
30.70000 0.646
30.72000 5.153
30.74000 4.997
30.76000 5.498
30.78000 -0.392
30.80000 -0.861
30.82000 0.865
30.84000 5.438
30.86000 6.551
30.88000 7.077
30.90000 4.833
30.92000 0.499
30.94000 -1.118
30.96000 -2.336
30.98000 1.513
31.00000 1.101
31.02000 -1.061
31.04000 -2.090
31.06000 0.568
31.08000 -1.184
31.10000 1.344
31.12000 5.307
31.14000 4.638
31.16000 -3.611
31.18000 -2.315
31.20000 2.297
31.22000 2.569
31.24000 -1.621
31.26000 -0.881
31.28000 -0.078
31.30000 3.802
31.32000 1.507
31.34000 1.121
31.36000 -3.609
31.38000 -0.042
31.40000 5.065
31.42000 5.883
31.44000 5.248
31.46000 2.718
31.48000 5.262
31.50000 7.302
31.52000 4.205
31.54000 0.955
31.56000 1.167
31.58000 0.716
31.60000 3.587
31.62000 2.830
31.64000 -0.153
31.66000 0.730
31.68000 4.154
31.70000 8.153
31.72000 6.362
31.74000 2.100
31.76000 3.402
31.78000 1.484
31.80000 -0.547
31.82000 3.524
31.84000 8.562
31.86000 2.359
31.88000 0.492
31.90000 0.279
31.92000 1.737
31.94000 -3.605
31.96000 -3.238
31.98000 -0.729
32.00000 2.535
32.02000 2.747
32.04000 4.780
32.06000 1.394
32.08000 -0.520
32.10000 4.997
32.12000 4.061
32.14000 5.922
32.16000 6.733
32.18000 6.101
32.20000 0.531
32.22000 -3.396
32.24000 0.686
32.26000 4.448
32.28000 3.000
32.30000 2.976
32.32000 0.400
32.34000 0.848
32.36000 1.903
32.38000 1.696
32.40000 -2.085
32.42000 -0.961
32.44000 3.744
32.46000 1.641
32.48000 -1.947
32.50000 -0.594
32.52000 2.496
32.54000 2.251
32.56000 -0.582
32.58000 0.561
32.60000 1.917
32.62000 0.151
32.64000 2.109
32.66000 2.961
32.68000 4.603
32.70000 4.530
32.72000 5.300
32.74000 1.831
32.76000 1.009
32.78000 -0.396
32.80000 3.123
32.82000 1.856
32.84000 5.525
32.86000 7.216
32.88000 6.309
32.90000 3.764
32.92000 6.119
32.94000 6.125
32.96000 5.671
32.98000 5.262
33.00000 5.644
33.02000 7.239
33.04000 6.215
33.06000 0.051
33.08000 -3.544
33.10000 -0.598
33.12000 5.301
33.14000 3.079
33.16000 1.264
33.18000 3.936
33.20000 7.037
33.22000 6.467
33.24000 3.642
33.26000 4.375
33.28000 6.266
33.30000 6.669
33.32000 8.439
33.34000 7.386
33.36000 7.166
33.38000 5.594
33.40000 1.811
33.42000 -2.729
33.44000 2.651
33.46000 3.165
33.48000 4.200
33.50000 0.136
33.52000 2.215
33.54000 3.678
33.56000 2.275
33.58000 2.761
33.60000 3.331
33.62000 4.562
33.64000 7.385
33.66000 4.646
33.68000 7.089
33.70000 3.091
33.72000 11.247
33.74000 7.824
33.76000 1.014
33.78000 -3.510
33.80000 0.553
33.82000 5.875
33.84000 0.944
33.86000 5.787
33.88000 7.322
33.90000 2.415
33.92000 -0.672
33.94000 -1.115
33.96000 3.818
33.98000 6.109
34.00000 -0.361
34.02000 -0.037
34.04000 2.637
34.06000 5.336
34.08000 1.795
34.10000 9.568
34.12000 9.692
34.14000 2.027
34.16000 4.878
34.18000 7.858
34.20000 10.945
34.22000 7.551
34.24000 8.625
34.26000 9.095
34.28000 6.865
34.30000 1.035
34.32000 -0.237
34.34000 -0.435
34.36000 4.588
34.38000 10.266
34.40000 7.045
34.42000 7.425
34.44000 0.762
34.46000 3.410
34.48000 5.456
34.50000 -0.390
34.52000 1.070
34.54000 3.592
34.56000 4.357
34.58000 1.469
34.60000 -1.787
34.62000 -2.931
34.64000 -1.730
34.66000 1.835
34.68000 0.850
34.70000 -1.237
34.72000 3.321
34.74000 4.781
34.76000 3.540
34.78000 1.122
34.80000 -0.140
34.82000 4.223
34.84000 -3.315
34.86000 -2.565
34.88000 -0.370
34.90000 1.077
34.92000 1.451
34.94000 5.018
34.96000 6.121
34.98000 -1.728
35.00000 -3.227
35.02000 0.361
35.04000 3.281
35.06000 -1.768
35.08000 2.072
35.10000 4.870
35.12000 4.318
35.14000 0.387
35.16000 0.261
35.18000 0.556
35.20000 -0.655
35.22000 0.231
35.24000 1.772
35.26000 0.054
35.28000 2.928
35.30000 0.669
35.32000 -1.321
35.34000 0.206
35.36000 -0.456
35.38000 3.135
35.40000 0.344
35.42000 3.403
35.44000 7.058
35.46000 2.419
35.48000 -3.510
35.50000 -2.325
35.52000 1.911
35.54000 2.294
35.56000 2.449
35.58000 1.908
35.60000 1.581
35.62000 2.182
35.64000 -0.576
35.66000 -0.937
35.68000 1.490
35.70000 -0.781
35.72000 0.819
35.74000 3.419
35.76000 2.828
35.78000 6.717
35.80000 7.695
35.82000 2.221
35.84000 -0.637
35.86000 -0.523
35.88000 3.938
35.90000 4.947
35.92000 2.119
35.94000 1.394
35.96000 -0.377
35.98000 -1.185
36.00000 -1.740
36.02000 2.470
36.04000 -3.479
36.06000 -0.204
36.08000 6.976
36.10000 7.684
36.12000 5.251
36.14000 2.664
36.16000 4.722
36.18000 4.650
36.20000 5.683
36.22000 6.322
36.24000 -0.992
36.26000 3.891
36.28000 6.048
36.30000 2.672
36.32000 3.290
36.34000 4.411
36.36000 1.259
36.38000 -0.373
36.40000 5.144
36.42000 9.208
36.44000 7.723
36.46000 9.073
36.48000 12.168
36.50000 4.649
36.52000 0.064
36.54000 -1.088
36.56000 5.421
36.58000 6.257
36.60000 2.088
36.62000 5.154
36.64000 4.940
36.66000 3.519
36.68000 5.919
36.70000 2.646
36.72000 3.888
36.74000 6.361
36.76000 3.536
36.78000 2.235
36.80000 6.684
36.82000 5.764
36.84000 0.338
36.86000 5.559
36.88000 6.766
36.90000 3.918
36.92000 2.810
36.94000 3.942
36.96000 3.631
36.98000 3.439
37.00000 5.575
37.02000 1.204
37.04000 4.951
37.06000 7.083
37.08000 5.050
37.10000 4.554
37.12000 1.474
37.14000 -3.256
37.16000 -3.503
37.18000 3.681
37.20000 6.133
37.22000 8.297
37.24000 3.084
37.26000 4.228
37.28000 5.571
37.30000 2.590
37.32000 4.322
37.34000 6.193
37.36000 6.193
37.38000 6.284
37.40000 6.258
37.42000 9.859
37.44000 5.269
37.46000 3.949
37.48000 4.496
37.50000 5.068
37.52000 4.479
37.54000 4.037
37.56000 4.928
37.58000 9.759
37.60000 7.063
37.62000 4.478
37.64000 4.379
37.66000 5.065
37.68000 4.553
37.70000 4.566
37.72000 2.741
37.74000 2.951
37.76000 4.487
37.78000 11.027
37.80000 7.947
37.82000 7.533
37.84000 6.850
37.86000 4.077
37.88000 8.176
37.90000 7.293
37.92000 4.514
37.94000 8.392
37.96000 11.206
37.98000 12.410
38.00000 8.197
38.02000 11.793
38.04000 10.005
38.06000 12.816
38.08000 12.909
38.10000 7.408
38.12000 14.493
38.14000 22.433
38.16000 23.424
38.18000 12.810
38.20000 13.453
38.22000 19.961
38.24000 19.861
38.26000 20.434
38.28000 12.133
38.30000 13.908
38.32000 17.607
38.34000 21.675
38.36000 21.077
38.38000 16.604
38.40000 19.781
38.42000 24.521
38.44000 25.714
38.46000 22.892
38.48000 22.004
38.50000 25.505
38.52000 26.273
38.54000 21.532
38.56000 24.108
38.58000 24.780
38.60000 25.229
38.62000 30.905
38.64000 29.774
38.66000 29.907
38.68000 31.941
38.70000 33.099
38.72000 33.410
38.74000 30.337
38.76000 30.695
38.78000 33.201
38.80000 37.092
38.82000 34.611
38.84000 37.923
38.86000 39.698
38.88000 37.633
38.90000 36.831
38.92000 45.788
38.94000 46.143
38.96000 50.014
38.98000 52.192
39.00000 50.951
39.02000 48.258
39.04000 50.872
39.06000 56.059
39.08000 57.913
39.10000 55.415
39.12000 58.604
39.14000 62.734
39.16000 65.789
39.18000 63.778
39.20000 71.140
39.22000 76.675
39.24000 74.378
39.26000 81.272
39.28000 83.301
39.30000 84.521
39.32000 89.872
39.34000 96.039
39.36000 103.617
39.38000 104.346
39.40000 105.607
39.42000 117.048
39.44000 122.367
39.46000 122.694
39.48000 134.044
39.50000 136.566
39.52000 143.977
39.54000 155.855
39.56000 163.267
39.58000 175.707
39.60000 182.977
39.62000 190.635
39.64000 198.581
39.66000 210.633
39.68000 225.193
39.70000 238.271
39.72000 257.908
39.74000 273.547
39.76000 285.108
39.78000 298.824
39.80000 317.710
39.82000 334.582
39.84000 354.581
39.86000 378.522
39.88000 400.168
39.90000 427.263
39.92000 455.739
39.94000 483.060
39.96000 497.225
39.98000 524.365
40.00000 553.601
40.02000 584.989
40.04000 611.270
40.06000 645.161
40.08000 674.282
40.10000 701.622
40.12000 725.419
40.14000 750.893
40.16000 769.128
40.18000 786.485
40.20000 822.172
40.22000 842.925
40.24000 854.950
40.26000 862.653
40.28000 873.540
40.30000 882.501
40.32000 880.113
40.34000 881.112
40.36000 879.666
40.38000 886.636
40.40000 866.054
40.42000 843.634
40.44000 835.291
40.46000 825.740
40.48000 810.097
40.50000 778.982
40.52000 758.311
40.54000 747.382
40.56000 720.822
40.58000 698.341
40.60000 672.471
40.62000 652.199
40.64000 627.151
40.66000 601.826
40.68000 568.849
40.70000 547.224
40.72000 517.841
40.74000 487.567
40.76000 465.158
40.78000 434.786
40.80000 421.615
40.82000 398.812
40.84000 380.641
40.86000 354.147
40.88000 331.367
40.90000 320.337
40.92000 298.447
40.94000 282.482
40.96000 268.437
40.98000 248.945
41.00000 244.287
41.02000 232.346
41.04000 219.129
41.06000 204.967
41.08000 197.217
41.10000 182.717
41.12000 175.473
41.14000 166.729
41.16000 154.239
41.18000 144.958
41.20000 137.657
41.22000 122.503
41.24000 116.788
41.26000 114.580
41.28000 111.297
41.30000 104.332
41.32000 95.482
41.34000 94.546
41.36000 89.872
41.38000 84.711
41.40000 79.449
41.42000 71.962
41.44000 68.899
41.46000 72.236
41.48000 69.885
41.50000 60.834
41.52000 57.952
41.54000 55.410
41.56000 52.239
41.58000 51.038
41.60000 49.759
41.62000 49.481
41.64000 51.181
41.66000 49.289
41.68000 40.027
41.70000 38.670
41.72000 35.482
41.74000 35.485
41.76000 32.640
41.78000 31.178
41.80000 34.244
41.82000 32.509
41.84000 30.548
41.86000 29.114
41.88000 25.250
41.90000 23.408
41.92000 23.149
41.94000 20.254
41.96000 18.405
41.98000 22.171
42.00000 27.088
42.02000 20.259
42.04000 20.340
42.06000 21.764
42.08000 18.741
42.10000 14.704
42.12000 12.445
42.14000 14.546
42.16000 13.438
42.18000 13.050
42.20000 13.947
42.22000 11.464
42.24000 8.850
42.26000 10.362
42.28000 11.332
42.30000 14.895
42.32000 8.543
42.34000 4.782
42.36000 3.697
42.38000 3.785
42.40000 4.331
42.42000 1.808
42.44000 3.849
42.46000 5.434
42.48000 7.582
42.50000 9.372
42.52000 8.905
42.54000 6.209
42.56000 -0.346
42.58000 2.139
42.60000 2.081
42.62000 2.699
42.64000 -1.529
42.66000 -0.740
42.68000 2.923
42.70000 1.766
42.72000 -0.483
42.74000 1.233
42.76000 4.278
42.78000 1.488
42.80000 4.468
42.82000 2.585
42.84000 0.579
42.86000 3.027
42.88000 0.506
42.90000 2.208
42.92000 0.220
42.94000 2.565
42.96000 4.907
42.98000 6.141
43.00000 2.322
43.02000 -1.422
43.04000 -1.962
43.06000 3.628
43.08000 1.046
43.10000 1.690
43.12000 4.235
43.14000 2.227
43.16000 1.779
43.18000 1.807
43.20000 2.980
43.22000 4.240
43.24000 -2.309
43.26000 2.225
43.28000 3.703
43.30000 5.240
43.32000 5.630
43.34000 2.969
43.36000 1.015
43.38000 0.272
43.40000 -3.393
43.42000 -3.415
43.44000 0.000
43.46000 -1.281
43.48000 -2.286
43.50000 2.406
43.52000 3.997
43.54000 1.938
43.56000 2.231
43.58000 3.998
43.60000 1.519
43.62000 -1.627
43.64000 -2.638
43.66000 -1.327
43.68000 1.600
43.70000 1.294
43.72000 1.730
43.74000 0.580
43.76000 -1.026
43.78000 0.641
43.80000 2.660
43.82000 0.508
43.84000 2.942
43.86000 2.676
43.88000 3.151
43.90000 3.653
43.92000 4.141
43.94000 6.336
43.96000 1.905
43.98000 -1.216
44.00000 -3.350
44.02000 -1.550
44.04000 0.921
44.06000 5.551
44.08000 3.077
44.10000 1.659
44.12000 3.843
44.14000 0.639
44.16000 4.081
44.18000 1.687
44.20000 6.462
44.22000 6.365
44.24000 4.061
44.26000 5.650
44.28000 5.365
44.30000 3.431
44.32000 -0.865
44.34000 -2.796
44.36000 -1.530
44.38000 -3.307
44.40000 4.302
44.42000 6.095
44.44000 7.629
44.46000 4.585
44.48000 6.000
44.50000 6.953
44.52000 5.964
44.54000 2.735
44.56000 3.047
44.58000 4.091
44.60000 3.473
44.62000 4.106
44.64000 5.608
44.66000 3.497
44.68000 3.086
44.70000 0.504
44.72000 1.361
44.74000 0.606
44.76000 2.198
44.78000 -0.658
44.80000 -1.342
44.82000 4.747
44.84000 3.677
44.86000 0.464
44.88000 5.450
44.90000 4.583
44.92000 1.388
44.94000 3.010
44.96000 3.900
44.98000 2.846
45.00000 3.954
45.02000 3.287
45.04000 5.027
45.06000 2.378
45.08000 1.936
45.10000 2.290
45.12000 3.814
45.14000 5.095
45.16000 2.821
45.18000 6.713
45.20000 6.368
45.22000 3.419
45.24000 6.111
45.26000 6.260
45.28000 6.457
45.30000 9.281
45.32000 11.851
45.34000 4.166
45.36000 6.335
45.38000 9.174
45.40000 7.346
45.42000 10.904
45.44000 11.527
45.46000 9.424
45.48000 9.144
45.50000 8.255
45.52000 9.631
45.54000 12.904
45.56000 9.184
45.58000 13.136
45.60000 17.027
45.62000 15.506
45.64000 14.856
45.66000 17.734
45.68000 18.182
45.70000 18.929
45.72000 20.875
45.74000 20.219
45.76000 24.342
45.78000 20.138
45.80000 19.899
45.82000 21.773
45.84000 24.674
45.86000 25.805
45.88000 27.994
45.90000 31.529
45.92000 34.335
45.94000 34.969
45.96000 33.961
45.98000 35.744
46.00000 41.881
46.02000 42.032
46.04000 44.888
46.06000 45.431
46.08000 46.746
46.10000 42.675
46.12000 43.021
46.14000 52.293
46.16000 56.517
46.18000 57.065
46.20000 59.225
46.22000 64.882
46.24000 60.764
46.26000 62.345
46.28000 70.675
46.30000 72.694
46.32000 72.694
46.34000 77.587
46.36000 79.672
46.38000 84.155
46.40000 85.721
46.42000 86.460
46.44000 91.755
46.46000 93.208
46.48000 92.581
46.50000 98.665
46.52000 108.551
46.54000 108.262
46.56000 112.553
46.58000 113.093
46.60000 120.008
46.62000 127.272
46.64000 129.064
46.66000 136.925
46.68000 138.687
46.70000 136.660
46.72000 138.605
46.74000 137.473
46.76000 150.879
46.78000 154.418
46.80000 153.934
46.82000 156.999
46.84000 160.808
46.86000 158.827
46.88000 157.052
46.90000 152.490
46.92000 154.839
46.94000 161.115
46.96000 173.424
46.98000 177.429
47.00000 175.386
47.02000 165.271
47.04000 157.585
47.06000 156.435
47.08000 149.743
47.10000 153.410
47.12000 152.233
47.14000 141.630
47.16000 140.562
47.18000 138.426
47.20000 138.305
47.22000 137.119
47.24000 134.526
47.26000 130.068
47.28000 119.653
47.30000 116.950
47.32000 113.106
47.34000 115.752
47.36000 112.944
47.38000 107.608
47.40000 105.553
47.42000 94.434
47.44000 89.511
47.46000 88.931
47.48000 85.677
47.50000 78.442
47.52000 74.652
47.54000 75.975
47.56000 65.499
47.58000 58.306
47.60000 55.002
47.62000 53.752
47.64000 53.384
47.66000 53.402
47.68000 49.018
47.70000 44.215
47.72000 43.335
47.74000 45.222
47.76000 38.401
47.78000 35.564
47.80000 36.177
47.82000 30.983
47.84000 29.190
47.86000 27.344
47.88000 26.776
47.90000 24.117
47.92000 25.632
47.94000 21.487
47.96000 17.559
47.98000 16.308
48.00000 14.506
48.02000 13.725
48.04000 15.165
48.06000 14.518
48.08000 10.052
48.10000 9.912
48.12000 11.932
48.14000 10.107
48.16000 10.404
48.18000 11.110
48.20000 4.636
48.22000 4.118
48.24000 9.028
48.26000 7.329
48.28000 11.905
48.30000 5.342
48.32000 7.348
48.34000 9.217
48.36000 5.758
48.38000 -0.351
48.40000 -1.212
48.42000 0.520
48.44000 5.756
48.46000 5.610
48.48000 4.769
48.50000 3.331
48.52000 3.333
48.54000 2.291
48.56000 2.248
48.58000 -0.771
48.60000 -1.246
48.62000 2.247
48.64000 3.676
48.66000 3.199
48.68000 6.066
48.70000 4.300
48.72000 -2.950
48.74000 -2.004
48.76000 -0.224
48.78000 0.592
48.80000 -1.547
48.82000 -0.960
48.84000 0.225
48.86000 -0.546
48.88000 1.777
48.90000 3.703
48.92000 5.048
48.94000 3.191
48.96000 2.120
48.98000 1.454
49.00000 0.864
49.02000 2.841
49.04000 9.076
49.06000 1.913
49.08000 -2.218
49.10000 0.067
49.12000 -2.593
49.14000 -1.794
49.16000 4.045
49.18000 1.396
49.20000 1.036
49.22000 3.085
49.24000 -0.355
49.26000 4.987
49.28000 5.167
49.30000 1.922
49.32000 2.169
49.34000 2.653
49.36000 4.602
49.38000 2.455
49.40000 1.121
49.42000 -0.727
49.44000 -2.800
49.46000 2.597
49.48000 4.779
49.50000 5.746
49.52000 2.916
49.54000 6.125
49.56000 4.188
49.58000 1.947
49.60000 1.454
49.62000 3.973
49.64000 5.096
49.66000 2.631
49.68000 3.463
49.70000 4.536
49.72000 0.402
49.74000 0.560
49.76000 -0.891
49.78000 1.146
49.80000 3.552
49.82000 6.274
49.84000 4.832
49.86000 6.984
49.88000 5.118
49.90000 2.175
49.92000 0.680
49.94000 -0.634
49.96000 -0.984
49.98000 -2.763
50.00000 0.253
50.02000 2.971
50.04000 -1.012
50.06000 -0.724
50.08000 -2.755
50.10000 2.764
50.12000 5.838
50.14000 1.721
50.16000 0.959
50.18000 -0.277
50.20000 0.848
50.22000 -1.250
50.24000 -1.521
50.26000 1.465
50.28000 5.949
50.30000 5.353
50.32000 5.196
50.34000 1.124
50.36000 0.001
50.38000 0.019
50.40000 0.253
50.42000 2.083
50.44000 -0.106
50.46000 1.381
50.48000 3.331
50.50000 1.072
50.52000 1.238
50.54000 3.898
50.56000 2.064
50.58000 0.457
50.60000 3.824
50.62000 4.047
50.64000 3.500
50.66000 2.756
50.68000 1.574
50.70000 1.477
50.72000 2.618
50.74000 -0.950
50.76000 2.480
50.78000 -0.138
50.80000 -1.755
50.82000 -2.688
50.84000 -0.604
50.86000 -1.060
50.88000 -0.154
50.90000 2.527
50.92000 3.076
50.94000 2.730
50.96000 2.406
50.98000 3.565
51.00000 3.319
51.02000 2.202
51.04000 5.328
51.06000 6.039
51.08000 5.834
51.10000 5.943
51.12000 0.093
51.14000 0.320
51.16000 1.837
51.18000 0.957
51.20000 1.223
51.22000 2.679
51.24000 1.760
51.26000 -0.011
51.28000 1.352
51.30000 3.095
51.32000 0.317
51.34000 4.243
51.36000 4.081
51.38000 1.589
51.40000 2.329
51.42000 4.131
51.44000 2.572
51.46000 1.364
51.48000 2.082
51.50000 3.822
51.52000 4.412
51.54000 4.541
51.56000 0.605
51.58000 -2.474
51.60000 -2.629
51.62000 2.843
51.64000 7.425
51.66000 5.005
51.68000 -2.621
51.70000 -0.683
51.72000 4.868
51.74000 6.584
51.76000 1.371
51.78000 1.732
51.80000 4.607
51.82000 6.508
51.84000 5.921
51.86000 2.825
51.88000 5.125
51.90000 5.110
51.92000 0.640
51.94000 0.861
51.96000 5.659
51.98000 5.560
52.00000 3.777
52.02000 3.896
52.04000 2.945
52.06000 2.260
52.08000 0.001
52.10000 3.819
52.12000 4.136
52.14000 4.189
52.16000 3.814
52.18000 0.397
52.20000 -1.666
52.22000 0.430
52.24000 4.048
52.26000 1.692
52.28000 -0.630
52.30000 -0.774
52.32000 2.406
52.34000 6.449
52.36000 4.615
52.38000 2.975
52.40000 1.625
52.42000 1.947
52.44000 3.907
52.46000 3.873
52.48000 1.910
52.50000 2.099
52.52000 1.704
52.54000 0.045
52.56000 -2.609
52.58000 0.248
52.60000 -0.743
52.62000 1.101
52.64000 1.704
52.66000 0.853
52.68000 3.663
52.70000 1.691
52.72000 1.501
52.74000 4.831
52.76000 5.464
52.78000 1.972
52.80000 4.737
52.82000 6.200
52.84000 -1.267
52.86000 2.179
52.88000 4.862
52.90000 1.778
52.92000 4.186
52.94000 5.297
52.96000 2.304
52.98000 3.205
53.00000 4.982
53.02000 5.745
53.04000 -1.988
53.06000 -2.583
53.08000 -1.642
53.10000 -0.952
53.12000 1.931
53.14000 2.896
53.16000 2.932
53.18000 1.645
53.20000 3.369
53.22000 3.902
53.24000 0.599
53.26000 2.703
53.28000 4.160
53.30000 3.985
53.32000 4.775
53.34000 5.982
53.36000 5.766
53.38000 4.686
53.40000 2.661
53.42000 2.600
53.44000 6.059
53.46000 7.680
53.48000 3.017
53.50000 -0.652
53.52000 3.029
53.54000 2.729
53.56000 2.228
53.58000 1.727
53.60000 1.235
53.62000 -2.043
53.64000 -0.811
53.66000 0.628
53.68000 1.839
53.70000 0.741
53.72000 3.774
53.74000 5.310
53.76000 6.309
53.78000 2.503
53.80000 0.225
53.82000 3.200
53.84000 2.523
53.86000 4.667
53.88000 3.659
53.90000 2.777
53.92000 0.087
53.94000 7.980
53.96000 7.067
53.98000 2.395
54.00000 3.739
54.02000 5.652
54.04000 4.931
54.06000 3.675
54.08000 1.006
54.10000 -2.533
54.12000 1.802
54.14000 1.956
54.16000 5.394
54.18000 5.461
54.20000 8.088
54.22000 4.676
54.24000 5.430
54.26000 5.637
54.28000 3.729
54.30000 -1.224
54.32000 -2.524
54.34000 0.335
54.36000 0.370
54.38000 2.004
54.40000 3.107
54.42000 2.101
54.44000 2.298
54.46000 3.965
54.48000 3.244
54.50000 3.045
54.52000 5.889
54.54000 4.568
54.56000 5.734
54.58000 7.974
54.60000 6.576
54.62000 5.054
54.64000 3.624
54.66000 -0.193
54.68000 0.631
54.70000 -0.856
54.72000 -2.209
54.74000 -2.243
54.76000 3.698
54.78000 4.197
54.80000 6.473
54.82000 4.356
54.84000 0.909
54.86000 1.168
54.88000 1.228
54.90000 1.152
54.92000 -2.537
54.94000 2.078
54.96000 4.137
54.98000 2.016
55.00000 2.296
55.02000 3.703
55.04000 1.418
55.06000 -2.332
55.08000 2.509
55.10000 0.800
55.12000 2.033
55.14000 1.563
55.16000 1.333
55.18000 4.989
55.20000 3.246
55.22000 1.225
55.24000 -0.654
55.26000 -1.915
55.28000 -1.608
55.30000 2.330
55.32000 -1.044
55.34000 3.778
55.36000 3.950
55.38000 -0.564
55.40000 1.139
55.42000 5.032
55.44000 3.133
55.46000 5.336
55.48000 3.421
55.50000 0.909
55.52000 -0.620
55.54000 0.374
55.56000 -2.415
55.58000 1.874
55.60000 0.547
55.62000 1.029
55.64000 -2.535
55.66000 -0.435
55.68000 3.085
55.70000 4.677
55.72000 2.217
55.74000 0.517
55.76000 2.992
55.78000 1.660
55.80000 3.486
55.82000 5.719
55.84000 1.656
55.86000 2.003
55.88000 2.314
55.90000 -0.081
55.92000 0.692
55.94000 0.084
55.96000 0.419
55.98000 1.694
56.00000 0.948
56.02000 0.121
56.04000 -0.326
56.06000 -1.785
56.08000 -0.474
56.10000 1.255
56.12000 -0.488
56.14000 2.254
56.16000 0.901
56.18000 -0.170
56.20000 0.058
56.22000 0.377
56.24000 0.623
56.26000 0.935
56.28000 -2.512
56.30000 -0.050
56.32000 3.693
56.34000 0.667
56.36000 1.889
56.38000 4.878
56.40000 3.512
56.42000 1.411
56.44000 -1.629
56.46000 3.868
56.48000 2.850
56.50000 1.083
56.52000 -1.477
56.54000 -2.512
56.56000 -0.070
56.58000 3.653
56.60000 5.849
56.62000 -0.750
56.64000 1.837
56.66000 4.480
56.68000 6.310
56.70000 0.810
56.72000 1.523
56.74000 4.792
56.76000 2.971
56.78000 3.626
56.80000 4.407
56.82000 0.304
56.84000 0.697
56.86000 -0.384
56.88000 2.149
56.90000 6.757
56.92000 2.531
56.94000 3.753
56.96000 -0.429
56.98000 -1.876
57.00000 -0.495
57.02000 1.609
57.04000 0.410
57.06000 0.728
57.08000 -0.975
57.10000 0.956
57.12000 5.800
57.14000 1.631
57.16000 -0.739
57.18000 -0.524
57.20000 1.274
57.22000 0.067
57.24000 3.642
57.26000 2.172
57.28000 -1.147
57.30000 -0.782
57.32000 -0.272
57.34000 -0.068
57.36000 -1.083
57.38000 -1.905
57.40000 0.584
57.42000 -0.112
57.44000 -1.013
57.46000 -2.052
57.48000 -2.484
57.50000 1.650
57.52000 1.779
57.54000 5.393
57.56000 0.399
57.58000 -1.630
57.60000 1.845
57.62000 1.196
57.64000 2.722
57.66000 3.093
57.68000 -1.119
57.70000 -0.032
57.72000 1.494
57.74000 0.353
57.76000 -2.030
57.78000 0.372
57.80000 0.859
57.82000 0.072
57.84000 2.061
57.86000 3.354
57.88000 3.064
57.90000 3.027
57.92000 2.122
57.94000 3.827
57.96000 5.907
57.98000 0.631
58.00000 3.098
58.02000 3.318
58.04000 2.097
58.06000 -2.019
58.08000 -1.066
58.10000 4.639
58.12000 6.080
58.14000 4.063
58.16000 -0.003
58.18000 2.204
58.20000 2.125
58.22000 3.936
58.24000 -1.531
58.26000 -1.230
58.28000 -0.220
58.30000 2.945
58.32000 2.746
58.34000 1.630
58.36000 1.973
58.38000 1.186
58.40000 4.580
58.42000 2.593
58.44000 2.279
58.46000 2.994
58.48000 2.108
58.50000 -0.385
58.52000 -2.426
58.54000 0.384
58.56000 2.545
58.58000 2.731
58.60000 -2.050
58.62000 4.828
58.64000 3.025
58.66000 5.294
58.68000 3.664
58.70000 6.058
58.72000 6.210
58.74000 2.682
58.76000 4.802
58.78000 3.617
58.80000 -2.421
58.82000 1.017
58.84000 -0.600
58.86000 -2.041
58.88000 -0.180
58.90000 4.409
58.92000 4.003
58.94000 4.478
58.96000 5.868
58.98000 6.489
59.00000 2.516
59.02000 3.202
59.04000 3.981
59.06000 -0.417
59.08000 2.604
59.10000 4.621
59.12000 0.278
59.14000 -0.280
59.16000 0.255
59.18000 1.069
59.20000 3.073
59.22000 -0.361
59.24000 0.515
59.26000 -0.485
59.28000 1.093
59.30000 1.739
59.32000 3.113
59.34000 1.898
59.36000 3.742
59.38000 4.640
59.40000 2.601
59.42000 -0.124
59.44000 3.043
59.46000 1.275
59.48000 3.423
59.50000 4.583
59.52000 1.356
59.54000 -0.975
59.56000 1.815
59.58000 0.031
59.60000 -0.926
59.62000 0.700
59.64000 0.488
59.66000 -1.310
59.68000 -2.346
59.70000 -0.817
59.72000 -0.295
59.74000 4.988
59.76000 4.931
59.78000 0.046
59.80000 -2.427
59.82000 0.589
59.84000 3.837
59.86000 0.445
59.88000 0.352
59.90000 1.712
59.92000 0.183
59.94000 0.233
59.96000 -0.006
59.98000 0.308
60.00000 1.493
60.02000 2.594
60.04000 -0.619
60.06000 -0.113
60.08000 1.145
60.10000 1.365
60.12000 2.874
60.14000 2.653
60.16000 2.676
60.18000 0.353
60.20000 -1.378
60.22000 2.856
60.24000 2.159
60.26000 -0.524
60.28000 1.144
60.30000 -1.844
60.32000 -2.203
60.34000 0.519
60.36000 2.142
60.38000 2.821
60.40000 0.024
60.42000 2.861
60.44000 3.248
60.46000 -2.391
60.48000 -0.656
60.50000 3.361
60.52000 4.953
60.54000 3.444
60.56000 1.175
60.58000 2.639
60.60000 1.755
60.62000 0.633
60.64000 0.406
60.66000 2.298
60.68000 1.652
60.70000 1.385
60.72000 2.186
60.74000 1.761
60.76000 2.803
60.78000 1.571
60.80000 1.078
60.82000 -0.052
60.84000 -0.138
60.86000 2.666
60.88000 2.089
60.90000 2.224
60.92000 5.049
60.94000 6.909
60.96000 -0.590
60.98000 1.087
61.00000 5.504
61.02000 2.414
61.04000 2.433
61.06000 2.291
61.08000 1.560
61.10000 3.445
61.12000 1.621
61.14000 2.091
61.16000 3.675
61.18000 4.970
61.20000 3.193
61.22000 1.891
61.24000 6.139
61.26000 4.124
61.28000 2.692
61.30000 4.039
61.32000 1.194
61.34000 -1.691
61.36000 -2.335
61.38000 1.514
61.40000 0.157
61.42000 -1.171
61.44000 1.305
61.46000 2.276
61.48000 3.644
61.50000 1.647
61.52000 1.688
61.54000 2.450
61.56000 2.358
61.58000 0.199
61.60000 1.079
61.62000 1.096
61.64000 1.080
61.66000 2.793
61.68000 1.591
61.70000 -0.804
61.72000 0.800
61.74000 2.917
61.76000 4.849
61.78000 4.730
61.80000 2.324
61.82000 1.964
61.84000 -0.111
61.86000 -1.824
61.88000 0.136
61.90000 3.187
61.92000 -1.132
61.94000 -1.198
61.96000 0.674
61.98000 -2.260
62.00000 -0.228
62.02000 4.702
62.04000 4.264
62.06000 0.825
62.08000 0.897
62.10000 1.087
62.12000 0.849
62.14000 0.319
62.16000 1.853
62.18000 1.263
62.20000 0.543
62.22000 -0.796
62.24000 0.014
62.26000 1.337
62.28000 0.376
62.30000 2.884
62.32000 -0.272
62.34000 -0.877
62.36000 1.916
62.38000 2.924
62.40000 0.452
62.42000 0.303
62.44000 -0.241
62.46000 0.859
62.48000 -0.376
62.50000 0.267
62.52000 1.029
62.54000 -1.679
62.56000 1.443
62.58000 2.867
62.60000 2.660
62.62000 2.580
62.64000 0.943
62.66000 1.585
62.68000 -0.118
62.70000 -1.889
62.72000 -2.350
62.74000 -1.684
62.76000 -1.135
62.78000 -1.898
62.80000 -1.611
62.82000 2.957
62.84000 0.051
62.86000 -1.539
62.88000 0.776
62.90000 0.011
62.92000 2.064
62.94000 3.485
62.96000 3.679
62.98000 2.752
63.00000 -0.241
63.02000 0.406
63.04000 3.245
63.06000 2.808
63.08000 4.618
63.10000 3.103
63.12000 -2.186
63.14000 -0.221
63.16000 -0.457
63.18000 1.278
63.20000 0.804
63.22000 0.711
63.24000 3.959
63.26000 5.031
63.28000 5.175
63.30000 2.116
63.32000 0.634
63.34000 -1.705
63.36000 0.339
63.38000 1.779
63.40000 0.414
63.42000 2.698
63.44000 2.455
63.46000 2.899
63.48000 1.528
63.50000 2.465
63.52000 2.270
63.54000 4.069
63.56000 4.237
63.58000 4.672
63.60000 3.554
63.62000 3.988
63.64000 5.464
63.66000 5.719
63.68000 3.302
63.70000 3.096
63.72000 2.211
63.74000 1.151
63.76000 3.179
63.78000 4.548
63.80000 1.882
63.82000 0.293
63.84000 1.590
63.86000 0.861
63.88000 -2.310
63.90000 1.895
63.92000 3.720
63.94000 2.860
63.96000 2.838
63.98000 1.735
64.00000 -0.420
64.02000 0.713
64.04000 3.656
64.06000 1.511
64.08000 2.838
64.10000 -0.817
64.12000 0.656
64.14000 2.250
64.16000 2.802
64.18000 4.348
64.20000 2.884
64.22000 -0.770
64.24000 -0.776
64.26000 -0.599
64.28000 2.741
64.30000 5.986
64.32000 4.670
64.34000 2.083
64.36000 0.112
64.38000 0.444
64.40000 -0.142
64.42000 0.004
64.44000 -2.357
64.46000 -1.060
64.48000 0.086
64.50000 1.659
64.52000 -0.113
64.54000 1.302
64.56000 0.169
64.58000 0.118
64.60000 1.357
64.62000 -0.374
64.64000 0.782
64.66000 0.843
64.68000 0.260
64.70000 -0.772
64.72000 -1.114
64.74000 -1.563
64.76000 -0.038
64.78000 -0.131
64.80000 -1.423
64.82000 0.606
64.84000 0.147
64.86000 0.027
64.88000 1.421
64.90000 -0.930
64.92000 -0.918
64.94000 2.432
64.96000 2.730
64.98000 1.040
65.00000 -1.084
65.02000 -0.661
65.04000 -1.875
65.06000 -0.933
65.08000 -2.126
65.10000 -0.210
65.12000 1.239
65.14000 1.629
65.16000 1.447
65.18000 -0.267
65.20000 -0.949
65.22000 -0.523
65.24000 -0.141
65.26000 2.098
65.28000 3.862
65.30000 3.302
65.32000 0.410
65.34000 -1.384
65.36000 -1.512
65.38000 -2.087
65.40000 -0.375
65.42000 -0.574
65.44000 -2.383
65.46000 -0.178
65.48000 0.973
65.50000 -0.345
65.52000 -0.496
65.54000 1.375
65.56000 0.676
65.58000 -0.856
65.60000 0.115
65.62000 -0.991
65.64000 2.490
65.66000 -1.400
65.68000 -1.772
65.70000 -0.347
65.72000 0.315
65.74000 2.198
65.76000 -0.224
65.78000 -0.295
65.80000 -1.728
65.82000 -0.789
65.84000 2.997
65.86000 -1.051
65.88000 -2.378
65.90000 -0.384
65.92000 -1.774
65.94000 -1.889
65.96000 -0.672
65.98000 0.833
66.00000 1.531
66.02000 4.135
66.04000 2.589
66.06000 0.147
66.08000 -1.146
66.10000 1.895
66.12000 -0.125
66.14000 -1.792
66.16000 0.354
66.18000 -2.378
66.20000 -2.043
66.22000 -0.813
66.24000 3.740
66.26000 5.149
66.28000 2.145
66.30000 1.340
66.32000 1.262
66.34000 -1.108
66.36000 -2.288
66.38000 1.008
66.40000 0.431
66.42000 -0.190
66.44000 2.671
66.46000 5.098
66.48000 1.074
66.50000 -0.554
66.52000 -1.334
66.54000 0.655
66.56000 -2.410
66.58000 -1.508
66.60000 3.113
66.62000 2.491
66.64000 2.946
66.66000 3.715
66.68000 2.131
66.70000 -1.332
66.72000 -1.494
66.74000 1.445
66.76000 -0.131
66.78000 -0.944
66.80000 1.058
66.82000 0.585
66.84000 -0.613
66.86000 0.755
66.88000 0.161
66.90000 -0.631
66.92000 1.292
66.94000 -0.850
66.96000 1.242
66.98000 -0.653
67.00000 1.929
67.02000 -0.014
67.04000 -0.954
67.06000 -0.573
67.08000 3.089
67.10000 1.579
67.12000 1.013
67.14000 1.279
67.16000 3.054
67.18000 2.838
67.20000 2.239
67.22000 0.890
67.24000 0.438
67.26000 1.339
67.28000 2.590
67.30000 -1.126
67.32000 -0.368
67.34000 3.001
67.36000 3.221
67.38000 2.650
67.40000 2.687
67.42000 3.942
67.44000 4.788
67.46000 0.415
67.48000 4.072
67.50000 4.491
67.52000 3.374
67.54000 3.501
67.56000 3.549
67.58000 8.855
67.60000 9.316
67.62000 9.510
67.64000 7.935
67.66000 6.534
67.68000 7.883
67.70000 8.670
67.72000 8.479
67.74000 10.739
67.76000 13.459
67.78000 10.988
67.80000 10.285
67.82000 11.407
67.84000 15.125
67.86000 11.935
67.88000 11.630
67.90000 13.704
67.92000 14.261
67.94000 15.229
67.96000 17.889
67.98000 19.080
68.00000 13.809
68.02000 14.245
68.04000 19.037
68.06000 18.607
68.08000 17.499
68.10000 16.804
68.12000 20.859
68.14000 23.819
68.16000 21.499
68.18000 20.480
68.20000 24.131
68.22000 25.614
68.24000 26.180
68.26000 31.430
68.28000 29.792
68.30000 27.947
68.32000 28.523
68.34000 29.551
68.36000 32.056
68.38000 31.050
68.40000 30.398
68.42000 31.612
68.44000 34.515
68.46000 33.922
68.48000 32.923
68.50000 28.784
68.52000 31.165
68.54000 31.972
68.56000 33.842
68.58000 38.149
68.60000 38.203
68.62000 36.379
68.64000 36.040
68.66000 37.453
68.68000 36.389
68.70000 40.421
68.72000 35.114
68.74000 34.617
68.76000 34.037
68.78000 34.562
68.80000 36.263
68.82000 33.486
68.84000 32.260
68.86000 29.063
68.88000 31.087
68.90000 33.962
68.92000 30.834
68.94000 27.998
68.96000 27.171
68.98000 30.652
69.00000 30.564
69.02000 28.328
69.04000 29.976
69.06000 22.244
69.08000 23.385
69.10000 22.905
69.12000 19.997
69.14000 17.504
69.16000 17.713
69.18000 15.870
69.20000 17.053
69.22000 16.602
69.24000 18.115
69.26000 17.055
69.28000 16.211
69.30000 16.173
69.32000 13.667
69.34000 11.171
69.36000 9.690
69.38000 8.749
69.40000 6.049
69.42000 7.836
69.44000 9.110
69.46000 11.564
69.48000 7.180
69.50000 7.750
69.52000 6.257
69.54000 9.464
69.56000 9.424
69.58000 6.533
69.60000 6.639
69.62000 4.262
69.64000 5.769
69.66000 4.349
69.68000 10.092
69.70000 8.832
69.72000 4.202
69.74000 4.734
69.76000 7.164
69.78000 8.377
69.80000 4.630
69.82000 1.190
69.84000 1.637
69.86000 4.607
69.88000 1.546
69.90000 -0.478
69.92000 1.579
69.94000 6.741
69.96000 5.943
69.98000 3.667
70.00000 2.662
70.02000 2.253
70.04000 1.923
70.06000 1.638
70.08000 3.495
70.10000 2.837
70.12000 5.881
70.14000 4.574
70.16000 7.681
70.18000 3.790
70.20000 0.216
70.22000 -2.302
70.24000 0.000
70.26000 2.643
70.28000 1.170
70.30000 4.233
70.32000 4.906
70.34000 1.617
70.36000 4.141
70.38000 7.268
70.40000 4.429
70.42000 3.319
70.44000 4.482
70.46000 5.281
70.48000 4.710
70.50000 2.180
70.52000 1.295
70.54000 1.728
70.56000 0.599
70.58000 -1.331
70.60000 2.209
70.62000 4.020
70.64000 1.459
70.66000 0.627
70.68000 2.110
70.70000 2.706
70.72000 5.733
70.74000 4.305
70.76000 3.158
70.78000 2.385
70.80000 -0.774
70.82000 -1.772
70.84000 2.795
70.86000 2.789
70.88000 4.916
70.90000 4.048
70.92000 0.643
70.94000 4.879
70.96000 3.714
70.98000 5.293
71.00000 1.214
71.02000 0.696
71.04000 0.041
71.06000 1.251
71.08000 2.718
71.10000 3.109
71.12000 1.856
71.14000 2.119
71.16000 -0.218
71.18000 -2.260
71.20000 -1.648
71.22000 3.090
71.24000 4.362
71.26000 4.654
71.28000 2.385
71.30000 2.808
71.32000 3.332
71.34000 2.830
71.36000 -0.877
71.38000 -1.006
71.40000 1.778
71.42000 4.684
71.44000 5.893
71.46000 0.055
71.48000 -2.235
71.50000 2.263
71.52000 0.091
71.54000 0.506
71.56000 4.122
71.58000 5.810
71.60000 5.567
71.62000 3.804
71.64000 0.891
71.66000 -0.778
71.68000 0.843
71.70000 5.515
71.72000 5.985
71.74000 2.349
71.76000 2.922
71.78000 2.221
71.80000 0.912
71.82000 0.591
71.84000 3.236
71.86000 2.548
71.88000 -0.281
71.90000 -1.365
71.92000 -0.817
71.94000 2.216
71.96000 5.131
71.98000 3.171
72.00000 0.605
72.02000 1.242
72.04000 -0.961
72.06000 1.626
72.08000 1.204
72.10000 2.972
72.12000 1.192
72.14000 0.245
72.16000 0.719
72.18000 4.772
72.20000 4.929
72.22000 2.590
72.24000 -1.466
72.26000 0.872
72.28000 -2.093
72.30000 -0.898
72.32000 1.558
72.34000 1.784
72.36000 2.356
72.38000 2.319
72.40000 2.362
72.42000 0.380
72.44000 -2.167
72.46000 -0.237
72.48000 -0.705
72.50000 0.966
72.52000 1.247
72.54000 5.056
72.56000 5.687
72.58000 0.964
72.60000 1.961
72.62000 -1.159
72.64000 -0.190
72.66000 1.925
72.68000 -0.753
72.70000 -0.729
72.72000 3.406
72.74000 0.573
72.76000 0.618
72.78000 -0.206
72.80000 0.885
72.82000 4.705
72.84000 3.423
72.86000 0.759
72.88000 1.267
72.90000 1.250
72.92000 -2.205
72.94000 1.719
72.96000 3.879
72.98000 1.388
73.00000 4.559
73.02000 2.386
73.04000 4.349
73.06000 6.061
73.08000 4.361
73.10000 1.400
73.12000 2.383
73.14000 2.574
73.16000 4.187
73.18000 2.111
73.20000 3.176
73.22000 4.518
73.24000 -0.006
73.26000 0.592
73.28000 -0.715
73.30000 0.742
73.32000 4.014
73.34000 1.832
73.36000 3.218
73.38000 2.369
73.40000 3.412
73.42000 7.051
73.44000 2.483
73.46000 -2.155
73.48000 -1.988
73.50000 2.246
73.52000 1.804
73.54000 3.368
73.56000 2.361
73.58000 1.426
73.60000 2.233
73.62000 0.821
73.64000 0.653
73.66000 4.859
73.68000 2.731
73.70000 0.905
73.72000 0.891
73.74000 1.321
73.76000 2.054
73.78000 0.280
73.80000 2.061
73.82000 1.250
73.84000 1.932
73.86000 2.036
73.88000 2.329
73.90000 2.753
73.92000 2.002
73.94000 1.682
73.96000 -0.189
73.98000 0.417
74.00000 1.258
74.02000 -0.621
74.04000 3.001
74.06000 2.284
74.08000 -0.451
74.10000 1.594
74.12000 3.508
74.14000 2.085
74.16000 0.734
74.18000 4.804
74.20000 2.166
74.22000 5.762
74.24000 4.427
74.26000 4.506
74.28000 0.031
74.30000 3.481
74.32000 2.218
74.34000 0.897
74.36000 6.278
74.38000 1.568
74.40000 -1.258
74.42000 0.555
74.44000 2.881
74.46000 4.069
74.48000 1.022
74.50000 1.970
74.52000 6.134
74.54000 3.432
74.56000 0.636
74.58000 1.508
74.60000 -1.838
74.62000 -1.999
74.64000 1.068
74.66000 4.564
74.68000 2.354
74.70000 4.272
74.72000 3.740
74.74000 1.335
74.76000 3.011
74.78000 4.721
74.80000 2.306
74.82000 -0.426
74.84000 2.017
74.86000 -0.794
74.88000 -2.152
74.90000 0.562
74.92000 4.290
74.94000 4.783
74.96000 5.233
74.98000 5.866
75.00000 1.249
75.02000 3.118
75.04000 1.893
75.06000 0.513
75.08000 3.984
75.10000 4.556
75.12000 -1.179
75.14000 2.846
75.16000 2.053
75.18000 1.729
75.20000 -0.818
75.22000 -0.062
75.24000 -1.076
75.26000 2.341
75.28000 3.313
75.30000 1.985
75.32000 4.511
75.34000 5.082
75.36000 1.386
75.38000 2.748
75.40000 2.562
75.42000 3.544
75.44000 2.106
75.46000 -0.669
75.48000 -2.176
75.50000 0.728
75.52000 2.411
75.54000 1.737
75.56000 -1.523
75.58000 1.883
75.60000 1.459
75.62000 0.538
75.64000 1.113
75.66000 -0.288
75.68000 2.737
75.70000 4.286
75.72000 5.138
75.74000 0.949
75.76000 -0.950
75.78000 0.817
75.80000 1.957
75.82000 1.443
75.84000 0.467
75.86000 -0.274
75.88000 -0.519
75.90000 1.206
75.92000 2.345
75.94000 1.997
75.96000 2.668
75.98000 5.728
76.00000 5.750
76.02000 1.323
76.04000 1.812
76.06000 0.745
76.08000 -0.546
76.10000 0.942
76.12000 1.257
76.14000 2.011
76.16000 3.118
76.18000 4.279
76.20000 1.382
76.22000 0.122
76.24000 2.654
76.26000 2.702
76.28000 -2.176
76.30000 0.397
76.32000 3.072
76.34000 3.799
76.36000 1.303
76.38000 -0.078
76.40000 1.467
76.42000 3.530
76.44000 3.679
76.46000 5.764
76.48000 3.840
76.50000 3.481
76.52000 3.386
76.54000 6.012
76.56000 2.703
76.58000 1.276
76.60000 1.481
76.62000 5.304
76.64000 8.251
76.66000 6.262
76.68000 1.071
76.70000 1.258
76.72000 4.520
76.74000 2.023
76.76000 4.988
76.78000 2.497
76.80000 0.866
76.82000 -2.168
76.84000 2.627
76.86000 5.560
76.88000 6.291
76.90000 1.324
76.92000 -1.253
76.94000 3.080
76.96000 3.319
76.98000 4.598
77.00000 4.216
77.02000 -0.165
77.04000 2.641
77.06000 4.423
77.08000 0.662
77.10000 1.410
77.12000 2.087
77.14000 4.486
77.16000 1.488
77.18000 1.507
77.20000 -0.308
77.22000 0.990
77.24000 1.526
77.26000 1.534
77.28000 4.156
77.30000 3.683
77.32000 4.965
77.34000 7.907
77.36000 4.831
77.38000 4.822
77.40000 4.769
77.42000 4.707
77.44000 7.581
77.46000 6.602
77.48000 5.115
77.50000 4.142
77.52000 6.395
77.54000 6.488
77.56000 4.678
77.58000 2.310
77.60000 1.306
77.62000 -2.171
77.64000 -0.909
77.66000 -0.328
77.68000 0.274
77.70000 2.773
77.72000 4.027
77.74000 5.266
77.76000 4.640
77.78000 6.262
77.80000 4.530
77.82000 1.794
77.84000 1.751
77.86000 0.882
77.88000 1.497
77.90000 1.437
77.92000 6.659
77.94000 4.604
77.96000 3.667
77.98000 2.944
78.00000 4.840
78.02000 4.156
78.04000 4.094
78.06000 2.856
78.08000 6.637
78.10000 1.259
78.12000 3.518
78.14000 4.130
78.16000 7.330
78.18000 5.189
78.20000 2.278
78.22000 2.000
78.24000 2.940
78.26000 3.623
78.28000 3.397
78.30000 0.461
78.32000 -0.837
78.34000 3.118
78.36000 8.048
78.38000 6.856
78.40000 2.587
78.42000 4.506
78.44000 2.525
78.46000 0.017
78.48000 -2.222
78.50000 2.389
78.52000 3.353
78.54000 -0.215
78.56000 1.156
78.58000 2.969
78.60000 0.195
78.62000 1.077
78.64000 4.308
78.66000 2.271
78.68000 2.178
78.70000 3.623
78.72000 5.207
78.74000 5.419
78.76000 6.150
78.78000 5.002
78.80000 7.869
78.82000 2.113
78.84000 3.158
78.86000 2.967
78.88000 2.018
78.90000 -0.756
78.92000 0.949
78.94000 0.623
78.96000 3.830
78.98000 2.321
79.00000 2.939
79.02000 2.488
79.04000 2.039
79.06000 -0.217
79.08000 1.451
79.10000 -0.421
79.12000 1.227
79.14000 6.137
79.16000 2.470
79.18000 2.192
79.20000 0.250
79.22000 0.376
79.24000 2.560
79.26000 4.300
79.28000 5.842
79.30000 2.635
79.32000 1.236
79.34000 0.431
79.36000 -0.890
79.38000 -2.233
79.40000 -0.936
79.42000 1.344
79.44000 6.904
79.46000 3.223
79.48000 0.779
79.50000 4.197
79.52000 3.273
79.54000 2.579
79.56000 4.420
79.58000 7.344
79.60000 3.324
79.62000 2.458
79.64000 -0.769
79.66000 2.188
79.68000 4.420
79.70000 6.447
79.72000 6.462
79.74000 1.940
79.76000 -2.237
79.78000 -2.081
79.80000 -0.677
79.82000 1.714
79.84000 6.944
79.86000 7.894
79.88000 6.315
79.90000 3.136
79.92000 7.439
79.94000 5.898
79.96000 7.094
79.98000 5.699
80.00000 5.871
80.02000 3.036
80.04000 2.362
80.06000 -0.628
80.08000 -2.263
80.10000 -0.977
80.12000 1.108
80.14000 5.726
80.16000 7.756
80.18000 1.907
80.20000 2.126
80.22000 0.344
80.24000 -0.961
80.26000 -0.965
80.28000 -0.476
80.30000 4.246
80.32000 7.137
80.34000 8.817
80.36000 7.025
80.38000 1.880
80.40000 1.580
80.42000 3.359
80.44000 3.430
80.46000 6.231
80.48000 8.662
80.50000 3.452
80.52000 3.286
80.54000 3.019
80.56000 4.040
80.58000 3.361
80.60000 4.937
80.62000 4.694
80.64000 2.634
80.66000 2.638
80.68000 0.135
80.70000 6.222
80.72000 3.722
80.74000 -0.018
80.76000 -2.311
80.78000 0.117
80.80000 -0.685
80.82000 0.135
80.84000 1.360
80.86000 5.642
80.88000 5.691
80.90000 3.095
80.92000 7.135
80.94000 5.539
80.96000 -0.090
80.98000 3.352
81.00000 4.559
81.02000 5.661
81.04000 9.123
81.06000 5.501
81.08000 3.030
81.10000 4.041
81.12000 2.788
81.14000 0.857
81.16000 3.311
81.18000 6.604
81.20000 9.841
81.22000 4.321
81.24000 -1.035
81.26000 4.223
81.28000 10.554
81.30000 7.746
81.32000 3.420
81.34000 5.699
81.36000 8.620
81.38000 8.178
81.40000 6.040
81.42000 7.405
81.44000 10.067
81.46000 7.731
81.48000 6.715
81.50000 7.051
81.52000 6.266
81.54000 9.375
81.56000 11.745
81.58000 11.919
81.60000 8.651
81.62000 10.916
81.64000 11.266
81.66000 14.716
81.68000 17.993
81.70000 14.769
81.72000 14.086
81.74000 12.388
81.76000 10.487
81.78000 12.580
81.80000 19.300
81.82000 18.864
81.84000 18.015
81.86000 18.805
81.88000 16.314
81.90000 19.369
81.92000 20.657
81.94000 19.022
81.96000 19.536
81.98000 17.997
82.00000 20.448
82.02000 21.339
82.04000 24.016
82.06000 24.033
82.08000 22.076
82.10000 19.061
82.12000 18.636
82.14000 22.463
82.16000 28.344
82.18000 30.503
82.20000 25.351
82.22000 28.800
82.24000 29.217
82.26000 28.800
82.28000 30.168
82.30000 30.572
82.32000 39.596
82.34000 42.391
82.36000 38.573
82.38000 37.462
82.40000 38.615
82.42000 37.888
82.44000 41.241
82.46000 39.696
82.48000 38.630
82.50000 36.219
82.52000 43.634
82.54000 46.100
82.56000 45.500
82.58000 51.116
82.60000 52.762
82.62000 51.857
82.64000 43.972
82.66000 45.374
82.68000 44.312
82.70000 49.298
82.72000 53.161
82.74000 48.577
82.76000 50.264
82.78000 49.271
82.80000 48.991
82.82000 49.086
82.84000 48.516
82.86000 50.211
82.88000 48.817
82.90000 44.340
82.92000 49.423
82.94000 48.400
82.96000 48.746
82.98000 42.403
83.00000 40.873
83.02000 47.185
83.04000 49.908
83.06000 46.184
83.08000 43.469
83.10000 40.805
83.12000 36.836
83.14000 36.250
83.16000 38.823
83.18000 39.644
83.20000 40.003
83.22000 39.155
83.24000 37.534
83.26000 33.668
83.28000 37.910
83.30000 35.119
83.32000 31.825
83.34000 30.787
83.36000 27.574
83.38000 26.812
83.40000 26.981
83.42000 22.601
83.44000 22.323
83.46000 24.773
83.48000 20.170
83.50000 19.431
83.52000 16.028
83.54000 21.537
83.56000 19.952
83.58000 18.020
83.60000 18.869
83.62000 17.476
83.64000 15.381
83.66000 17.744
83.68000 17.786
83.70000 14.150
83.72000 12.606
83.74000 11.517
83.76000 9.873
83.78000 10.884
83.80000 10.876
83.82000 5.424
83.84000 9.191
83.86000 10.256
83.88000 14.400
83.90000 10.115
83.92000 3.151
83.94000 1.726
83.96000 1.149
83.98000 -1.033
84.00000 5.543
84.02000 7.454
84.04000 6.883
84.06000 6.980
84.08000 1.716
84.10000 2.895
84.12000 6.001
84.14000 6.827
84.16000 7.047
84.18000 7.204
84.20000 4.258
84.22000 0.223
84.24000 -0.415
84.26000 0.335
84.28000 1.803
84.30000 3.999
84.32000 1.831
84.34000 -0.155
84.36000 -1.131
84.38000 0.156
84.40000 0.852
84.42000 -1.138
84.44000 -2.389
84.46000 2.122
84.48000 0.764
84.50000 1.670
84.52000 5.022
84.54000 2.080
84.56000 5.401
84.58000 2.587
84.60000 0.356
84.62000 -2.367
84.64000 -0.628
84.66000 2.201
84.68000 7.531
84.70000 1.469
84.72000 4.179
84.74000 6.771
84.76000 1.235
84.78000 0.168
84.80000 0.074
84.82000 4.496
84.84000 1.779
84.86000 0.748
84.88000 -0.860
84.90000 2.017
84.92000 0.244
84.94000 1.768
84.96000 4.768
84.98000 0.112
85.00000 2.965
85.02000 4.875
85.04000 1.272
85.06000 -0.656
85.08000 -0.804
85.10000 3.089
85.12000 2.162
85.14000 2.932
85.16000 2.006
85.18000 3.771
85.20000 -0.548
85.22000 -0.649
85.24000 0.232
85.26000 2.248
85.28000 -0.583
85.30000 -1.050
85.32000 1.635
85.34000 2.550
85.36000 1.882
85.38000 -2.257
85.40000 0.205
85.42000 3.741
85.44000 4.965
85.46000 3.492
85.48000 1.024
85.50000 -0.194
85.52000 1.501
85.54000 1.240
85.56000 -0.315
85.58000 1.413
85.60000 0.831
85.62000 0.438
85.64000 1.880
85.66000 0.703
85.68000 -0.904
85.70000 -1.940
85.72000 -0.672
85.74000 0.936
85.76000 2.634
85.78000 1.604
85.80000 4.346
85.82000 6.916
85.84000 5.388
85.86000 0.115
85.88000 0.168
85.90000 1.030
85.92000 0.323
85.94000 1.872
85.96000 7.978
85.98000 2.617
86.00000 0.899
86.02000 8.506
86.04000 8.291
86.06000 5.617
86.08000 4.276
86.10000 4.262
86.12000 9.219
86.14000 8.520
86.16000 6.202
86.18000 6.070
86.20000 7.965
86.22000 9.011
86.24000 7.778
86.26000 6.323
86.28000 8.817
86.30000 6.943
86.32000 8.019
86.34000 3.145
86.36000 6.386
86.38000 11.941
86.40000 13.597
86.42000 9.708
86.44000 12.157
86.46000 11.265
86.48000 14.215
86.50000 14.881
86.52000 19.167
86.54000 18.052
86.56000 11.790
86.58000 11.506
86.60000 14.561
86.62000 18.336
86.64000 18.332
86.66000 15.830
86.68000 17.829
86.70000 19.119
86.72000 17.158
86.74000 22.206
86.76000 22.625
86.78000 26.177
86.80000 26.899
86.82000 24.746
86.84000 28.053
86.86000 27.096
86.88000 20.319
86.90000 22.547
86.92000 28.390
86.94000 32.792
86.96000 28.654
86.98000 26.257
87.00000 30.246
87.02000 28.897
87.04000 28.990
87.06000 30.078
87.08000 30.373
87.10000 26.937
87.12000 30.088
87.14000 28.232
87.16000 29.159
87.18000 25.721
87.20000 25.998
87.22000 28.614
87.24000 27.554
87.26000 28.316
87.28000 29.965
87.30000 33.066
87.32000 27.003
87.34000 25.366
87.36000 26.459
87.38000 20.101
87.40000 26.102
87.42000 26.494
87.44000 27.187
87.46000 29.691
87.48000 24.091
87.50000 24.601
87.52000 24.781
87.54000 21.308
87.56000 20.065
87.58000 16.842
87.60000 18.223
87.62000 22.382
87.64000 24.000
87.66000 25.051
87.68000 19.019
87.70000 19.677
87.72000 16.493
87.74000 18.958
87.76000 18.372
87.78000 15.880
87.80000 14.569
87.82000 12.691
87.84000 14.898
87.86000 13.594
87.88000 15.953
87.90000 14.191
87.92000 11.802
87.94000 11.657
87.96000 10.100
87.98000 8.321
88.00000 10.411
88.02000 8.728
88.04000 10.473
88.06000 10.781
88.08000 10.383
88.10000 8.456
88.12000 9.512
88.14000 5.377
88.16000 8.905
88.18000 5.333
88.20000 5.529
88.22000 7.404
88.24000 8.988
88.26000 7.158
88.28000 5.768
88.30000 2.414
88.32000 3.667
88.34000 5.317
88.36000 5.646
88.38000 4.571
88.40000 1.312
88.42000 4.332
88.44000 5.511
88.46000 5.628
88.48000 7.377
88.50000 8.496
88.52000 5.726
88.54000 -2.162
88.56000 2.582
88.58000 4.801
88.60000 4.694
88.62000 1.899
88.64000 0.562
88.66000 7.488
88.68000 5.246
88.70000 4.593
88.72000 2.781
88.74000 4.400
88.76000 1.093
88.78000 3.146
88.80000 3.714
88.82000 -0.574
88.84000 2.951
88.86000 5.444
88.88000 1.581
88.90000 -1.224
88.92000 0.669
88.94000 3.635
88.96000 6.306
88.98000 5.440
89.00000 3.509
89.02000 6.055
89.04000 6.978
89.06000 7.222
89.08000 3.548
89.10000 2.252
89.12000 3.362
89.14000 4.359
89.16000 7.648
89.18000 6.939
89.20000 1.924
89.22000 -0.038
89.24000 0.366
89.26000 -0.011
89.28000 1.231
89.30000 5.019
89.32000 5.539
89.34000 3.633
89.36000 4.198
89.38000 5.853
89.40000 6.157
89.42000 5.729
89.44000 0.240
89.46000 -2.085
89.48000 2.839
89.50000 7.479
89.52000 5.319
89.54000 4.766
89.56000 2.271
89.58000 3.158
89.60000 1.300
89.62000 0.944
89.64000 1.797
89.66000 1.915
89.68000 3.391
89.70000 3.668
89.72000 6.216
89.74000 4.349
89.76000 2.697
89.78000 2.901
89.80000 4.799
89.82000 3.278
89.84000 0.346
89.86000 -2.041
89.88000 3.987
89.90000 1.668
89.92000 0.327
89.94000 0.046
89.96000 -0.332
89.98000 1.531
90.00000 3.485
90.02000 4.237
90.04000 5.341
90.06000 4.085
90.08000 4.205
90.10000 0.613
90.12000 -2.091
90.14000 3.281
90.16000 2.137
90.18000 3.167
90.20000 2.706
90.22000 2.200
90.24000 1.726
90.26000 2.327
90.28000 1.582
90.30000 2.615
90.32000 3.404
90.34000 2.849
90.36000 1.251
90.38000 1.660
90.40000 0.854
90.42000 -0.601
90.44000 0.396
90.46000 6.110
90.48000 4.853
90.50000 2.545
90.52000 3.064
90.54000 2.656
90.56000 1.900
90.58000 1.363
90.60000 -2.075
90.62000 2.083
90.64000 2.701
90.66000 3.895
90.68000 3.246
90.70000 2.841
90.72000 -0.420
90.74000 3.173
90.76000 2.682
90.78000 3.192
90.80000 2.052
90.82000 4.137
90.84000 2.477
90.86000 0.948
90.88000 1.802
90.90000 0.630
90.92000 -1.530
90.94000 -0.972
90.96000 -0.065
90.98000 0.083
91.00000 -1.705
91.02000 -2.081
91.04000 -1.419
91.06000 2.484
91.08000 5.489
91.10000 3.026
91.12000 -1.228
91.14000 2.180
91.16000 1.331
91.18000 3.805
91.20000 8.011
91.22000 2.246
91.24000 2.052
91.26000 5.490
91.28000 0.989
91.30000 -1.274
91.32000 -0.768
91.34000 1.122
91.36000 3.617
91.38000 4.062
91.40000 3.144
91.42000 -1.735
91.44000 -1.767
91.46000 0.614
91.48000 1.328
91.50000 2.574
91.52000 0.761
91.54000 1.973
91.56000 6.168
91.58000 3.667
91.60000 -1.198
91.62000 -2.063
91.64000 -0.056
91.66000 3.754
91.68000 3.062
91.70000 2.492
91.72000 0.421
91.74000 -0.532
91.76000 2.107
91.78000 0.691
91.80000 0.166
91.82000 3.239
91.84000 4.153
91.86000 5.009
91.88000 1.521
91.90000 0.799
91.92000 4.566
91.94000 6.765
91.96000 6.743
91.98000 2.800
92.00000 0.996
92.02000 3.026
92.04000 3.250
92.06000 2.898
92.08000 5.112
92.10000 5.572
92.12000 6.796
92.14000 3.115
92.16000 3.282
92.18000 9.170
92.20000 10.181
92.22000 6.285
92.24000 3.044
92.26000 0.981
92.28000 4.985
92.30000 5.765
92.32000 4.297
92.34000 3.809
92.36000 1.374
92.38000 -0.517
92.40000 -1.607
92.42000 -2.030
92.44000 3.243
92.46000 3.445
92.48000 3.625
92.50000 7.012
92.52000 6.122
92.54000 3.540
92.56000 -0.976
92.58000 1.859
92.60000 4.107
92.62000 5.093
92.64000 4.835
92.66000 7.932
92.68000 8.091
92.70000 4.788
92.72000 2.057
92.74000 -2.046
92.76000 0.382
92.78000 4.653
92.80000 4.662
92.82000 2.494
92.84000 2.212
92.86000 1.337
92.88000 0.864
92.90000 3.186
92.92000 4.097
92.94000 6.692
92.96000 5.544
92.98000 3.342
93.00000 6.034
93.02000 6.089
93.04000 0.922
93.06000 1.173
93.08000 1.933
93.10000 3.219
93.12000 1.618
93.14000 4.021
93.16000 0.048
93.18000 4.741
93.20000 6.604
93.22000 1.756
93.24000 0.156
93.26000 2.616
93.28000 5.049
93.30000 6.541
93.32000 8.549
93.34000 2.092
93.36000 1.629
93.38000 5.074
93.40000 3.068
93.42000 4.791
93.44000 5.074
93.46000 3.078
93.48000 1.812
93.50000 2.634
93.52000 2.768
93.54000 3.394
93.56000 3.970
93.58000 4.963
93.60000 5.220
93.62000 5.525
93.64000 4.535
93.66000 3.437
93.68000 2.815
93.70000 4.049
93.72000 3.486
93.74000 3.048
93.76000 2.160
93.78000 1.301
93.80000 -1.540
93.82000 -2.058
93.84000 2.731
93.86000 5.100
93.88000 5.797
93.90000 2.451
93.92000 -0.332
93.94000 1.972
93.96000 4.287
93.98000 4.051
94.00000 1.750
94.02000 4.101
94.04000 5.444
94.06000 3.748
94.08000 6.591
94.10000 6.168
94.12000 6.021
94.14000 6.648
94.16000 4.988
94.18000 2.113
94.20000 2.045
94.22000 3.954
94.24000 5.878
94.26000 4.687
94.28000 3.920
94.30000 9.344
94.32000 6.459
94.34000 0.571
94.36000 -2.078
94.38000 0.045
94.40000 0.961
94.42000 2.535
94.44000 7.850
94.46000 7.797
94.48000 3.468
94.50000 0.940
94.52000 0.476
94.54000 3.558
94.56000 3.312
94.58000 3.330
94.60000 3.484
94.62000 2.064
94.64000 2.450
94.66000 2.985
94.68000 9.165
94.70000 5.271
94.72000 0.417
94.74000 3.383
94.76000 6.327
94.78000 3.793
94.80000 2.774
94.82000 -1.096
94.84000 0.258
94.86000 2.334
94.88000 2.208
94.90000 2.611
94.92000 5.290
94.94000 6.166
94.96000 4.574
94.98000 -0.106
95.00000 -1.473
95.02000 1.925
95.04000 -0.628
95.06000 -0.390
95.08000 1.713
95.10000 3.131
95.12000 1.463
95.14000 4.851
95.16000 5.473
95.18000 8.892
95.20000 9.847
95.22000 6.849
95.24000 3.992
95.26000 2.808
95.28000 -1.148
95.30000 -2.080
95.32000 1.135
95.34000 1.093
95.36000 6.690
95.38000 2.477
95.40000 4.243
95.42000 5.020
95.44000 0.952
95.46000 1.912
95.48000 4.086
95.50000 6.397
95.52000 4.042
95.54000 1.406
95.56000 5.458
95.58000 6.655
95.60000 6.400
95.62000 4.376
95.64000 0.044
95.66000 0.819
95.68000 1.233
95.70000 0.617
95.72000 2.794
95.74000 5.506
95.76000 3.654
95.78000 7.369
95.80000 2.853
95.82000 -2.086
95.84000 5.725
95.86000 5.442
95.88000 -0.233
95.90000 0.547
95.92000 4.000
95.94000 2.201
95.96000 6.390
95.98000 4.844
96.00000 0.660
96.02000 2.347
96.04000 3.877
96.06000 4.588
96.08000 0.051
96.10000 0.522
96.12000 -0.685
96.14000 1.700
96.16000 0.823
96.18000 -0.140
96.20000 3.130
96.22000 3.594
96.24000 0.708
96.26000 1.861
96.28000 8.297
96.30000 7.732
96.32000 1.815
96.34000 -2.097
96.36000 -0.059
96.38000 -0.438
96.40000 2.332
96.42000 2.345
96.44000 1.637
96.46000 -0.605
96.48000 0.791
96.50000 0.752
96.52000 2.859
96.54000 0.908
96.56000 2.129
96.58000 3.824
96.60000 6.864
96.62000 6.588
96.64000 5.580
96.66000 8.161
96.68000 1.317
96.70000 0.552
96.72000 2.267
96.74000 6.029
96.76000 5.738
96.78000 3.563
96.80000 3.892
96.82000 2.991
96.84000 4.515
96.86000 9.238
96.88000 4.795
96.90000 0.867
96.92000 4.036
96.94000 -2.041
96.96000 1.971
96.98000 -0.406
97.00000 1.970
97.02000 8.279
97.04000 6.373
97.06000 1.781
97.08000 1.853
97.10000 5.873
97.12000 4.530
97.14000 -0.574
97.16000 -0.825
97.18000 1.708
97.20000 0.992
97.22000 2.819
97.24000 3.119
97.26000 5.854
97.28000 2.707
97.30000 4.492
97.32000 9.155
97.34000 4.732
97.36000 5.646
97.38000 11.799
97.40000 3.783
97.42000 4.665
97.44000 5.602
97.46000 7.294
97.48000 4.942
97.50000 -2.848
97.52000 5.265
97.54000 12.570
97.56000 15.400
97.58000 9.098
97.60000 5.318
97.62000 -0.991
97.64000 1.617
97.66000 2.360
97.68000 2.663
97.70000 3.383
97.72000 3.488
97.74000 3.490
97.76000 4.291
97.78000 7.090
97.80000 3.111
97.82000 -2.016
97.84000 -1.583
97.86000 1.668
97.88000 2.300
97.90000 2.808
97.92000 6.932
97.94000 4.726
97.96000 4.367
97.98000 4.404
98.00000 8.653
98.02000 9.794
98.04000 0.812
98.06000 3.918
98.08000 6.684
98.10000 5.384
98.12000 4.255
98.14000 6.408
98.16000 2.556
98.18000 5.105
98.20000 2.803
98.22000 5.587
98.24000 1.095
98.26000 -0.107
98.28000 0.636
98.30000 0.986
98.32000 8.483
98.34000 4.786
98.36000 5.007
98.38000 5.860
98.40000 9.858
98.42000 8.309
98.44000 5.681
98.46000 -1.916
98.48000 2.555
98.50000 6.381
98.52000 1.973
98.54000 2.802
98.56000 6.007
98.58000 8.579
98.60000 4.649
98.62000 1.363
98.64000 6.904
98.66000 7.117
98.68000 5.468
98.70000 3.970
98.72000 3.289
98.74000 8.526
98.76000 2.457
98.78000 6.403
98.80000 4.242
98.82000 6.859
98.84000 6.087
98.86000 8.684
98.88000 5.440
98.90000 6.559
98.92000 7.196
98.94000 7.701
98.96000 4.893
98.98000 9.449
99.00000 -1.987
99.02000 0.096
99.04000 10.266
99.06000 10.378
99.08000 9.742
99.10000 8.614
99.12000 12.818
99.14000 5.372
99.16000 8.374
99.18000 5.090
99.20000 0.291
99.22000 3.505
99.24000 3.774
99.26000 1.809
99.28000 6.465
99.30000 13.853
99.32000 10.832
99.34000 8.573
99.36000 1.922
99.38000 6.716
99.40000 8.444
99.42000 2.009
99.44000 7.007
99.46000 13.257
99.48000 6.074
99.50000 0.201
99.52000 6.796
99.54000 6.277
99.56000 6.538
99.58000 -3.007
99.60000 3.732
99.62000 5.290
99.64000 2.119
99.66000 11.395
99.68000 11.848
99.70000 4.257
99.72000 1.154
99.74000 2.595
99.76000 6.641
99.78000 14.113
99.80000 3.552
99.82000 0.442
99.84000 -2.070
99.86000 3.703
99.88000 7.517
99.90000 7.744
99.92000 1.728
99.94000 1.034
99.96000 -2.265
99.98000 0.000
