'Id: "0011389" Comment: "Integrate frame 0011389_Au-Ir-Rh_Au-Rich_XRD_Mapping-248-0000.gfrmwith cursor Wedge Cursor #5" Operator: "B?rgel" Anode: "Cu" Wavelength: "1.5406" Scantype: "2Theta (TwoTheta)" TimePerStep: "1" X: "-9" Y: "18" Z: "5.95" 
10.00000 0.000
10.02000 8.595
10.04000 -4.309
10.06000 8.668
10.08000 7.993
10.10000 19.021
10.12000 18.603
10.14000 20.233
10.16000 22.596
10.18000 25.685
10.20000 9.093
10.22000 10.934
10.24000 13.973
10.26000 31.027
10.28000 16.506
10.30000 13.920
10.32000 20.632
10.34000 21.248
10.36000 6.183
10.38000 -1.043
10.40000 13.362
10.42000 15.291
10.44000 13.638
10.46000 1.535
10.48000 10.867
10.50000 26.764
10.52000 13.170
10.54000 10.317
10.56000 18.584
10.58000 9.417
10.60000 22.478
10.62000 32.224
10.64000 24.804
10.66000 12.948
10.68000 19.270
10.70000 14.287
10.72000 9.296
10.74000 -2.419
10.76000 10.570
10.78000 13.948
10.80000 17.608
10.82000 11.495
10.84000 7.502
10.86000 6.217
10.88000 21.566
10.90000 15.007
10.92000 5.175
10.94000 8.271
10.96000 14.224
10.98000 13.485
11.00000 7.724
11.02000 14.276
11.04000 20.504
11.06000 7.410
11.08000 12.556
11.10000 8.413
11.12000 14.323
11.14000 15.905
11.16000 7.857
11.18000 4.349
11.20000 1.187
11.22000 -0.804
11.24000 13.900
11.26000 18.292
11.28000 13.482
11.30000 29.846
11.32000 24.281
11.34000 12.649
11.36000 1.577
11.38000 7.416
11.40000 15.334
11.42000 17.896
11.44000 17.421
11.46000 15.088
11.48000 15.872
11.50000 3.385
11.52000 0.389
11.54000 -0.332
11.56000 -2.646
11.58000 3.018
11.60000 12.472
11.62000 18.973
11.64000 15.248
11.66000 3.123
11.68000 7.598
11.70000 9.605
11.72000 8.546
11.74000 6.582
11.76000 8.342
11.78000 8.653
11.80000 20.438
11.82000 18.946
11.84000 6.747
11.86000 9.029
11.88000 13.498
11.90000 17.040
11.92000 17.139
11.94000 12.651
11.96000 13.351
11.98000 9.161
12.00000 4.651
12.02000 11.720
12.04000 12.921
12.06000 7.051
12.08000 10.473
12.10000 10.030
12.12000 12.956
12.14000 22.215
12.16000 24.507
12.18000 13.642
12.20000 10.525
12.22000 5.246
12.24000 5.854
12.26000 12.864
12.28000 12.789
12.30000 18.506
12.32000 11.530
12.34000 7.390
12.36000 13.005
12.38000 10.173
12.40000 7.811
12.42000 13.806
12.44000 12.722
12.46000 10.603
12.48000 13.869
12.50000 4.284
12.52000 8.179
12.54000 14.254
12.56000 23.890
12.58000 11.583
12.60000 6.135
12.62000 13.873
12.64000 9.843
12.66000 9.373
12.68000 12.508
12.70000 16.550
12.72000 10.943
12.74000 12.200
12.76000 19.671
12.78000 23.073
12.80000 25.776
12.82000 25.589
12.84000 14.865
12.86000 8.817
12.88000 13.640
12.90000 16.171
12.92000 11.374
12.94000 3.739
12.96000 -1.201
12.98000 -4.495
13.00000 4.780
13.02000 10.400
13.04000 21.749
13.06000 18.963
13.08000 11.749
13.10000 12.129
13.12000 12.751
13.14000 8.469
13.16000 11.740
13.18000 16.857
13.20000 10.396
13.22000 12.625
13.24000 16.040
13.26000 10.852
13.28000 4.027
13.30000 5.373
13.32000 4.881
13.34000 23.504
13.36000 16.172
13.38000 7.778
13.40000 12.767
13.42000 10.802
13.44000 9.098
13.46000 5.233
13.48000 1.192
13.50000 0.352
13.52000 10.165
13.54000 23.592
13.56000 20.616
13.58000 16.807
13.60000 15.636
13.62000 14.575
13.64000 16.168
13.66000 13.906
13.68000 8.589
13.70000 11.618
13.72000 12.545
13.74000 19.251
13.76000 10.801
13.78000 19.005
13.80000 14.008
13.82000 6.129
13.84000 2.114
13.86000 4.625
13.88000 8.314
13.90000 10.693
13.92000 9.290
13.94000 18.596
13.96000 17.496
13.98000 8.184
14.00000 10.344
14.02000 6.134
14.04000 6.522
14.06000 7.581
14.08000 6.226
14.10000 4.608
14.12000 7.567
14.14000 16.331
14.16000 6.111
14.18000 9.158
14.20000 5.777
14.22000 7.827
14.24000 10.312
14.26000 9.297
14.28000 18.344
14.30000 14.167
14.32000 6.219
14.34000 7.806
14.36000 2.307
14.38000 1.748
14.40000 2.811
14.42000 6.308
14.44000 5.047
14.46000 -4.508
14.48000 -0.190
14.50000 7.478
14.52000 15.073
14.54000 13.905
14.56000 12.357
14.58000 7.685
14.60000 -0.164
14.62000 4.449
14.64000 10.415
14.66000 3.643
14.68000 1.660
14.70000 6.581
14.72000 3.022
14.74000 13.163
14.76000 14.612
14.78000 13.146
14.80000 10.582
14.82000 5.836
14.84000 0.490
14.86000 5.301
14.88000 13.102
14.90000 17.701
14.92000 16.529
14.94000 16.985
14.96000 7.300
14.98000 7.892
15.00000 4.089
15.02000 10.149
15.04000 3.165
15.06000 3.227
15.08000 6.358
15.10000 9.207
15.12000 10.565
15.14000 2.745
15.16000 5.351
15.18000 7.752
15.20000 2.533
15.22000 6.305
15.24000 10.576
15.26000 13.386
15.28000 13.428
15.30000 14.376
15.32000 6.516
15.34000 10.220
15.36000 5.599
15.38000 10.722
15.40000 6.445
15.42000 4.987
15.44000 11.347
15.46000 14.704
15.48000 13.371
15.50000 8.839
15.52000 9.490
15.54000 9.214
15.56000 2.089
15.58000 3.356
15.60000 2.053
15.62000 0.248
15.64000 -4.483
15.66000 2.694
15.68000 0.207
15.70000 3.426
15.72000 2.944
15.74000 6.464
15.76000 12.714
15.78000 12.058
15.80000 5.520
15.82000 -4.479
15.84000 10.642
15.86000 5.283
15.88000 10.303
15.90000 15.855
15.92000 5.232
15.94000 -0.935
15.96000 2.812
15.98000 4.117
16.00000 5.755
16.02000 3.833
16.04000 4.420
16.06000 2.194
16.08000 -0.073
16.10000 6.402
16.12000 10.061
16.14000 7.953
16.16000 5.036
16.18000 7.114
16.20000 9.987
16.22000 16.396
16.24000 12.466
16.26000 7.610
16.28000 5.461
16.30000 -2.303
16.32000 6.129
16.34000 5.162
16.36000 -1.384
16.38000 3.245
16.40000 2.512
16.42000 6.228
16.44000 5.647
16.46000 3.980
16.48000 17.285
16.50000 23.039
16.52000 10.861
16.54000 7.584
16.56000 7.695
16.58000 7.860
16.60000 12.104
16.62000 1.106
16.64000 -0.272
16.66000 4.748
16.68000 5.247
16.70000 11.599
16.72000 6.612
16.74000 6.975
16.76000 -3.368
16.78000 4.667
16.80000 8.177
16.82000 10.980
16.84000 11.925
16.86000 9.788
16.88000 11.755
16.90000 8.060
16.92000 9.488
16.94000 0.673
16.96000 -1.542
16.98000 15.028
17.00000 14.765
17.02000 2.516
17.04000 -0.954
17.06000 1.796
17.08000 7.576
17.10000 10.080
17.12000 10.425
17.14000 6.398
17.16000 1.157
17.18000 3.167
17.20000 6.045
17.22000 9.490
17.24000 15.457
17.26000 16.940
17.28000 7.624
17.30000 -0.895
17.32000 2.275
17.34000 -4.407
17.36000 1.929
17.38000 10.769
17.40000 4.658
17.42000 7.922
17.44000 9.820
17.46000 4.387
17.48000 1.484
17.50000 7.194
17.52000 4.838
17.54000 -0.823
17.56000 -2.597
17.58000 3.129
17.60000 12.630
17.62000 15.280
17.64000 9.437
17.66000 8.092
17.68000 4.711
17.70000 3.017
17.72000 5.513
17.74000 5.677
17.76000 4.730
17.78000 7.975
17.80000 15.826
17.82000 2.085
17.84000 -1.242
17.86000 9.092
17.88000 2.777
17.90000 10.232
17.92000 3.769
17.94000 -1.635
17.96000 8.651
17.98000 9.504
18.00000 7.950
18.02000 5.546
18.04000 8.074
18.06000 15.212
18.08000 12.744
18.10000 12.163
18.12000 4.459
18.14000 7.565
18.16000 4.788
18.18000 2.148
18.20000 4.858
18.22000 4.371
18.24000 3.821
18.26000 5.634
18.28000 2.748
18.30000 4.289
18.32000 10.021
18.34000 14.517
18.36000 10.090
18.38000 -0.585
18.40000 1.048
18.42000 8.061
18.44000 6.068
18.46000 3.475
18.48000 0.308
18.50000 -0.859
18.52000 4.482
18.54000 3.376
18.56000 -4.022
18.58000 3.700
18.60000 9.743
18.62000 5.293
18.64000 2.598
18.66000 3.318
18.68000 5.553
18.70000 3.733
18.72000 2.763
18.74000 1.767
18.76000 7.773
18.78000 6.147
18.80000 1.101
18.82000 -2.517
18.84000 1.503
18.86000 7.881
18.88000 8.299
18.90000 4.326
18.92000 2.351
18.94000 2.179
18.96000 0.854
18.98000 5.070
19.00000 4.156
19.02000 -0.557
19.04000 -1.210
19.06000 -1.950
19.08000 2.921
19.10000 6.286
19.12000 11.822
19.14000 9.170
19.16000 5.023
19.18000 8.950
19.20000 10.395
19.22000 0.557
19.24000 -4.294
19.26000 -0.921
19.28000 6.492
19.30000 5.733
19.32000 5.452
19.34000 9.590
19.36000 2.664
19.38000 5.288
19.40000 0.354
19.42000 0.965
19.44000 7.981
19.46000 8.679
19.48000 7.361
19.50000 2.353
19.52000 7.001
19.54000 8.960
19.56000 0.865
19.58000 -2.117
19.60000 8.954
19.62000 9.077
19.64000 9.482
19.66000 8.751
19.68000 12.414
19.70000 7.871
19.72000 5.482
19.74000 9.711
19.76000 7.855
19.78000 7.943
19.80000 1.470
19.82000 2.285
19.84000 -2.760
19.86000 -4.063
19.88000 3.489
19.90000 0.660
19.92000 -3.273
19.94000 1.455
19.96000 6.712
19.98000 10.323
20.00000 6.963
20.02000 3.780
20.04000 -0.801
20.06000 3.968
20.08000 1.501
20.10000 7.804
20.12000 9.230
20.14000 5.373
20.16000 2.552
20.18000 -3.059
20.20000 2.927
20.22000 5.898
20.24000 11.663
20.26000 10.145
20.28000 7.472
20.30000 7.434
20.32000 4.969
20.34000 1.757
20.36000 -3.428
20.38000 -4.180
20.40000 6.592
20.42000 6.771
20.44000 7.218
20.46000 6.477
20.48000 10.699
20.50000 10.704
20.52000 5.798
20.54000 7.817
20.56000 8.727
20.58000 8.918
20.60000 8.652
20.62000 6.571
20.64000 15.287
20.66000 7.897
20.68000 2.067
20.70000 -0.684
20.72000 1.863
20.74000 7.102
20.76000 11.484
20.78000 12.650
20.80000 9.581
20.82000 7.552
20.84000 6.482
20.86000 10.807
20.88000 6.319
20.90000 13.587
20.92000 13.357
20.94000 11.455
20.96000 4.011
20.98000 6.048
21.00000 7.106
21.02000 11.184
21.04000 6.375
21.06000 8.341
21.08000 8.250
21.10000 7.804
21.12000 8.588
21.14000 3.845
21.16000 1.797
21.18000 11.118
21.20000 13.507
21.22000 9.000
21.24000 7.666
21.26000 -0.306
21.28000 3.548
21.30000 2.006
21.32000 4.299
21.34000 2.017
21.36000 3.619
21.38000 4.760
21.40000 7.196
21.42000 11.059
21.44000 5.241
21.46000 0.035
21.48000 12.850
21.50000 16.972
21.52000 13.701
21.54000 18.578
21.56000 13.760
21.58000 12.256
21.60000 12.364
21.62000 8.893
21.64000 9.198
21.66000 5.750
21.68000 3.360
21.70000 8.573
21.72000 6.370
21.74000 7.362
21.76000 13.946
21.78000 9.817
21.80000 9.523
21.82000 4.289
21.84000 10.560
21.86000 13.798
21.88000 7.881
21.90000 6.467
21.92000 2.487
21.94000 0.415
21.96000 -3.848
21.98000 -4.104
22.00000 2.319
22.02000 8.911
22.04000 12.750
22.06000 10.615
22.08000 3.740
22.10000 6.169
22.12000 7.161
22.14000 6.414
22.16000 7.572
22.18000 4.631
22.20000 5.251
22.22000 7.839
22.24000 5.727
22.26000 8.524
22.28000 10.259
22.30000 11.014
22.32000 8.606
22.34000 4.468
22.36000 4.120
22.38000 7.084
22.40000 12.782
22.42000 15.087
22.44000 10.412
22.46000 6.928
22.48000 6.539
22.50000 3.977
22.52000 2.729
22.54000 0.030
22.56000 3.242
22.58000 6.458
22.60000 5.292
22.62000 1.094
22.64000 5.811
22.66000 4.310
22.68000 1.939
22.70000 6.475
22.72000 4.171
22.74000 3.167
22.76000 4.695
22.78000 2.597
22.80000 4.549
22.82000 3.405
22.84000 6.428
22.86000 4.466
22.88000 5.949
22.90000 10.745
22.92000 10.811
22.94000 7.510
22.96000 1.922
22.98000 5.958
23.00000 2.748
23.02000 -1.982
23.04000 1.501
23.06000 6.645
23.08000 4.345
23.10000 5.298
23.12000 4.999
23.14000 5.814
23.16000 1.050
23.18000 -0.752
23.20000 -1.013
23.22000 4.380
23.24000 10.774
23.26000 11.151
23.28000 9.503
23.30000 6.196
23.32000 0.682
23.34000 -0.855
23.36000 0.694
23.38000 4.340
23.40000 2.717
23.42000 2.398
23.44000 2.872
23.46000 -2.000
23.48000 1.186
23.50000 10.865
23.52000 4.885
23.54000 -1.367
23.56000 -1.261
23.58000 0.592
23.60000 6.243
23.62000 5.065
23.64000 -0.212
23.66000 -0.682
23.68000 0.244
23.70000 -2.998
23.72000 0.073
23.74000 1.069
23.76000 1.213
23.78000 2.476
23.80000 1.441
23.82000 2.401
23.84000 4.845
23.86000 -1.357
23.88000 2.844
23.90000 4.983
23.92000 8.991
23.94000 0.762
23.96000 0.716
23.98000 3.744
24.00000 3.230
24.02000 3.565
24.04000 3.047
24.06000 -2.513
24.08000 -4.037
24.10000 -2.732
24.12000 3.205
24.14000 2.687
24.16000 2.266
24.18000 1.121
24.20000 6.328
24.22000 2.728
24.24000 0.619
24.26000 0.831
24.28000 6.634
24.30000 1.210
24.32000 -2.742
24.34000 2.544
24.36000 6.842
24.38000 3.623
24.40000 6.706
24.42000 6.878
24.44000 9.705
24.46000 6.749
24.48000 0.137
24.50000 0.226
24.52000 3.163
24.54000 3.286
24.56000 2.345
24.58000 0.013
24.60000 -0.926
24.62000 -0.514
24.64000 2.580
24.66000 2.090
24.68000 1.299
24.70000 0.878
24.72000 -2.797
24.74000 3.410
24.76000 5.464
24.78000 -1.567
24.80000 -4.007
24.82000 -2.826
24.84000 -1.216
24.86000 2.700
24.88000 0.583
24.90000 5.716
24.92000 5.339
24.94000 5.563
24.96000 1.642
24.98000 -2.434
25.00000 1.407
25.02000 4.588
25.04000 -1.176
25.06000 -3.049
25.08000 0.671
25.10000 -1.280
25.12000 -2.110
25.14000 2.486
25.16000 2.036
25.18000 0.604
25.20000 3.973
25.22000 2.669
25.24000 3.183
25.26000 5.974
25.28000 3.922
25.30000 6.020
25.32000 5.689
25.34000 0.631
25.36000 0.266
25.38000 2.870
25.40000 2.690
25.42000 1.471
25.44000 1.692
25.46000 -3.974
25.48000 -2.443
25.50000 2.107
25.52000 -0.203
25.54000 2.703
25.56000 5.525
25.58000 -2.582
25.60000 0.494
25.62000 1.927
25.64000 -3.317
25.66000 -1.983
25.68000 0.624
25.70000 1.721
25.72000 6.222
25.74000 -3.942
25.76000 -0.082
25.78000 -0.356
25.80000 -3.786
25.82000 0.670
25.84000 5.177
25.86000 1.148
25.88000 -3.947
25.90000 4.177
25.92000 4.054
25.94000 1.899
25.96000 1.235
25.98000 -1.549
26.00000 -0.034
26.02000 2.352
26.04000 7.451
26.06000 8.977
26.08000 9.200
26.10000 5.263
26.12000 10.339
26.14000 7.726
26.16000 3.990
26.18000 -2.039
26.20000 -2.304
26.22000 0.555
26.24000 2.215
26.26000 -1.262
26.28000 0.055
26.30000 5.396
26.32000 5.883
26.34000 6.212
26.36000 3.959
26.38000 3.337
26.40000 4.736
26.42000 7.608
26.44000 4.902
26.46000 5.245
26.48000 1.468
26.50000 0.557
26.52000 -2.211
26.54000 -1.163
26.56000 1.643
26.58000 7.605
26.60000 9.091
26.62000 4.281
26.64000 -1.567
26.66000 1.905
26.68000 0.513
26.70000 2.977
26.72000 3.986
26.74000 2.256
26.76000 -0.344
26.78000 -3.882
26.80000 -3.536
26.82000 1.483
26.84000 5.904
26.86000 5.019
26.88000 3.920
26.90000 2.002
26.92000 3.844
26.94000 0.662
26.96000 0.895
26.98000 5.146
27.00000 4.918
27.02000 4.273
27.04000 3.484
27.06000 6.641
27.08000 2.067
27.10000 5.586
27.12000 4.990
27.14000 3.084
27.16000 0.102
27.18000 0.170
27.20000 1.977
27.22000 3.721
27.24000 3.396
27.26000 4.731
27.28000 3.978
27.30000 3.577
27.32000 1.983
27.34000 1.031
27.36000 5.916
27.38000 10.441
27.40000 8.233
27.42000 3.743
27.44000 -0.670
27.46000 -3.867
27.48000 -1.693
27.50000 2.256
27.52000 2.542
27.54000 3.505
27.56000 0.805
27.58000 -1.209
27.60000 2.205
27.62000 2.946
27.64000 3.155
27.66000 0.722
27.68000 2.306
27.70000 1.712
27.72000 3.330
27.74000 4.928
27.76000 3.298
27.78000 1.778
27.80000 -2.204
27.82000 3.883
27.84000 0.514
27.86000 1.794
27.88000 3.289
27.90000 1.100
27.92000 -2.662
27.94000 -1.231
27.96000 6.081
27.98000 1.752
28.00000 -0.688
28.02000 -0.597
28.04000 -0.515
28.06000 3.805
28.08000 0.545
28.10000 3.132
28.12000 -1.395
28.14000 -2.852
28.16000 0.756
28.18000 0.570
28.20000 2.339
28.22000 6.582
28.24000 -0.799
28.26000 -1.324
28.28000 0.389
28.30000 1.557
28.32000 6.112
28.34000 2.419
28.36000 2.297
28.38000 0.328
28.40000 2.766
28.42000 4.483
28.44000 -0.334
28.46000 -2.307
28.48000 -1.191
28.50000 -1.864
28.52000 -1.436
28.54000 -2.719
28.56000 0.008
28.58000 -1.126
28.60000 0.306
28.62000 -3.812
28.64000 1.786
28.66000 5.657
28.68000 -1.835
28.70000 -3.807
28.72000 -0.537
28.74000 1.854
28.76000 4.472
28.78000 1.745
28.80000 5.764
28.82000 6.600
28.84000 5.577
28.86000 8.250
28.88000 3.784
28.90000 2.264
28.92000 -1.256
28.94000 -2.013
28.96000 -3.029
28.98000 -1.715
29.00000 0.636
29.02000 -0.343
29.04000 0.556
29.06000 5.220
29.08000 9.066
29.10000 0.086
29.12000 -1.812
29.14000 -1.207
29.16000 -1.675
29.18000 -0.488
29.20000 -2.022
29.22000 1.517
29.24000 8.407
29.26000 12.584
29.28000 7.431
29.30000 0.570
29.32000 -3.770
29.34000 -0.512
29.36000 2.848
29.38000 0.682
29.40000 -1.081
29.42000 -1.269
29.44000 5.557
29.46000 -0.316
29.48000 -1.658
29.50000 3.756
29.52000 4.018
29.54000 3.335
29.56000 -3.755
29.58000 0.681
29.60000 3.120
29.62000 -0.920
29.64000 -3.654
29.66000 4.736
29.68000 8.810
29.70000 7.919
29.72000 5.315
29.74000 9.885
29.76000 6.489
29.78000 3.641
29.80000 4.583
29.82000 2.847
29.84000 0.025
29.86000 2.105
29.88000 0.207
29.90000 5.945
29.92000 8.269
29.94000 5.342
29.96000 4.256
29.98000 0.891
30.00000 0.933
30.02000 3.284
30.04000 2.041
30.06000 0.917
30.08000 5.963
30.10000 8.510
30.12000 1.901
30.14000 3.240
30.16000 5.580
30.18000 0.773
30.20000 3.230
30.22000 1.114
30.24000 -0.330
30.26000 -1.430
30.28000 2.043
30.30000 3.101
30.32000 -3.693
30.34000 2.394
30.36000 0.774
30.38000 1.294
30.40000 6.033
30.42000 2.597
30.44000 2.899
30.46000 4.442
30.48000 3.171
30.50000 0.214
30.52000 1.554
30.54000 2.030
30.56000 1.427
30.58000 2.151
30.60000 1.999
30.62000 7.905
30.64000 6.822
30.66000 9.580
30.68000 9.014
30.70000 2.009
30.72000 0.655
30.74000 2.711
30.76000 4.099
30.78000 2.713
30.80000 2.156
30.82000 2.296
30.84000 1.661
30.86000 3.294
30.88000 6.939
30.90000 1.270
30.92000 -1.437
30.94000 3.888
30.96000 4.849
30.98000 6.065
31.00000 6.529
31.02000 6.776
31.04000 1.501
31.06000 7.324
31.08000 2.558
31.10000 4.509
31.12000 0.043
31.14000 1.600
31.16000 1.273
31.18000 -1.701
31.20000 -1.750
31.22000 1.977
31.24000 -0.790
31.26000 3.054
31.28000 3.992
31.30000 8.143
31.32000 5.646
31.34000 5.118
31.36000 10.194
31.38000 6.070
31.40000 2.531
31.42000 -1.353
31.44000 -0.433
31.46000 -1.347
31.48000 4.258
31.50000 3.141
31.52000 4.662
31.54000 4.583
31.56000 8.290
31.58000 3.207
31.60000 3.490
31.62000 3.835
31.64000 2.299
31.66000 1.060
31.68000 4.252
31.70000 9.132
31.72000 7.567
31.74000 6.486
31.76000 3.342
31.78000 5.786
31.80000 4.305
31.82000 -3.167
31.84000 -3.651
31.86000 1.823
31.88000 4.684
31.90000 8.013
31.92000 2.030
31.94000 3.497
31.96000 8.532
31.98000 11.008
32.00000 3.070
32.02000 2.060
32.04000 2.694
32.06000 4.775
32.08000 5.804
32.10000 4.811
32.12000 3.580
32.14000 3.253
32.16000 -1.959
32.18000 -3.565
32.20000 1.950
32.22000 3.610
32.24000 4.699
32.26000 1.468
32.28000 2.012
32.30000 -0.580
32.32000 2.680
32.34000 2.683
32.36000 0.815
32.38000 5.046
32.40000 4.291
32.42000 2.922
32.44000 1.183
32.46000 -0.366
32.48000 1.035
32.50000 2.099
32.52000 2.432
32.54000 0.929
32.56000 -0.840
32.58000 -3.185
32.60000 1.798
32.62000 1.535
32.64000 3.116
32.66000 2.073
32.68000 2.476
32.70000 -0.209
32.72000 2.956
32.74000 -3.593
32.76000 4.507
32.78000 5.707
32.80000 2.787
32.82000 3.200
32.84000 -0.812
32.86000 1.635
32.88000 1.278
32.90000 1.889
32.92000 0.929
32.94000 4.065
32.96000 6.747
32.98000 8.454
33.00000 4.962
33.02000 3.527
33.04000 -0.470
33.06000 3.986
33.08000 4.325
33.10000 2.701
33.12000 -1.125
33.14000 -2.908
33.16000 0.681
33.18000 7.711
33.20000 11.524
33.22000 3.732
33.24000 4.609
33.26000 8.277
33.28000 4.980
33.30000 2.280
33.32000 5.157
33.34000 -0.029
33.36000 2.304
33.38000 3.917
33.40000 -3.634
33.42000 -3.381
33.44000 2.436
33.46000 1.997
33.48000 0.567
33.50000 4.662
33.52000 6.423
33.54000 4.757
33.56000 7.875
33.58000 9.531
33.60000 7.869
33.62000 10.228
33.64000 10.167
33.66000 9.535
33.68000 6.287
33.70000 3.420
33.72000 0.103
33.74000 5.420
33.76000 8.756
33.78000 4.315
33.80000 6.080
33.82000 6.242
33.84000 3.043
33.86000 9.401
33.88000 5.352
33.90000 8.987
33.92000 5.518
33.94000 5.052
33.96000 3.316
33.98000 4.667
34.00000 4.432
34.02000 3.333
34.04000 3.550
34.06000 1.823
34.08000 6.640
34.10000 7.438
34.12000 7.911
34.14000 7.003
34.16000 8.276
34.18000 7.686
34.20000 4.580
34.22000 10.921
34.24000 9.836
34.26000 8.559
34.28000 9.140
34.30000 2.655
34.32000 -3.603
34.34000 3.685
34.36000 2.796
34.38000 5.365
34.40000 5.950
34.42000 1.383
34.44000 2.004
34.46000 0.886
34.48000 5.303
34.50000 7.743
34.52000 5.899
34.54000 4.273
34.56000 5.032
34.58000 0.191
34.60000 -3.357
34.62000 0.466
34.64000 3.072
34.66000 0.683
34.68000 4.986
34.70000 4.292
34.72000 7.744
34.74000 8.379
34.76000 11.153
34.78000 7.524
34.80000 5.836
34.82000 2.378
34.84000 9.878
34.86000 2.865
34.88000 1.110
34.90000 4.571
34.92000 0.084
34.94000 8.848
34.96000 8.044
34.98000 4.827
35.00000 0.920
35.02000 -0.398
35.04000 0.959
35.06000 8.070
35.08000 4.646
35.10000 10.465
35.12000 10.343
35.14000 6.437
35.16000 2.437
35.18000 2.921
35.20000 3.689
35.22000 4.118
35.24000 2.708
35.26000 5.212
35.28000 6.672
35.30000 7.022
35.32000 -1.246
35.34000 -3.600
35.36000 0.644
35.38000 6.861
35.40000 5.766
35.42000 6.252
35.44000 8.169
35.46000 6.456
35.48000 8.522
35.50000 9.331
35.52000 7.494
35.54000 4.540
35.56000 2.271
35.58000 0.445
35.60000 5.005
35.62000 2.121
35.64000 3.401
35.66000 3.679
35.68000 -2.925
35.70000 -3.633
35.72000 -2.936
35.74000 2.510
35.76000 4.462
35.78000 4.967
35.80000 -0.335
35.82000 0.936
35.84000 3.906
35.86000 1.341
35.88000 1.469
35.90000 1.770
35.92000 4.926
35.94000 3.219
35.96000 -2.652
35.98000 -1.516
36.00000 3.876
36.02000 5.020
36.04000 5.714
36.06000 5.898
36.08000 1.965
36.10000 2.162
36.12000 -1.918
36.14000 -3.232
36.16000 -3.446
36.18000 0.481
36.20000 3.490
36.22000 5.185
36.24000 0.270
36.26000 -0.663
36.28000 4.581
36.30000 0.529
36.32000 0.068
36.34000 4.478
36.36000 4.123
36.38000 5.252
36.40000 2.688
36.42000 -0.031
36.44000 -0.182
36.46000 0.520
36.48000 -1.181
36.50000 -0.387
36.52000 3.940
36.54000 5.787
36.56000 5.767
36.58000 3.256
36.60000 -0.039
36.62000 2.174
36.64000 4.079
36.66000 5.978
36.68000 4.003
36.70000 1.806
36.72000 5.109
36.74000 7.595
36.76000 11.710
36.78000 10.428
36.80000 6.924
36.82000 8.353
36.84000 9.414
36.86000 6.189
36.88000 1.921
36.90000 6.293
36.92000 8.511
36.94000 11.925
36.96000 8.980
36.98000 5.539
37.00000 8.479
37.02000 8.318
37.04000 4.930
37.06000 12.209
37.08000 5.299
37.10000 8.230
37.12000 10.018
37.14000 11.019
37.16000 8.209
37.18000 8.459
37.20000 7.352
37.22000 2.186
37.24000 6.578
37.26000 12.024
37.28000 13.070
37.30000 12.777
37.32000 14.645
37.34000 13.523
37.36000 14.473
37.38000 15.688
37.40000 18.496
37.42000 23.958
37.44000 22.575
37.46000 13.979
37.48000 15.959
37.50000 19.082
37.52000 19.108
37.54000 14.001
37.56000 17.854
37.58000 21.159
37.60000 23.663
37.62000 22.126
37.64000 19.302
37.66000 21.107
37.68000 20.804
37.70000 23.986
37.72000 23.965
37.74000 26.611
37.76000 26.203
37.78000 29.826
37.80000 31.794
37.82000 33.292
37.84000 34.707
37.86000 36.332
37.88000 37.022
37.90000 37.866
37.92000 31.876
37.94000 34.727
37.96000 40.549
37.98000 43.118
38.00000 42.665
38.02000 41.237
38.04000 37.457
38.06000 40.964
38.08000 41.986
38.10000 39.613
38.12000 46.045
38.14000 48.540
38.16000 48.402
38.18000 55.859
38.20000 55.026
38.22000 57.978
38.24000 56.439
38.26000 64.389
38.28000 68.968
38.30000 69.838
38.32000 68.725
38.34000 71.080
38.36000 77.231
38.38000 80.746
38.40000 80.819
38.42000 86.891
38.44000 96.017
38.46000 100.452
38.48000 100.428
38.50000 104.270
38.52000 113.711
38.54000 126.129
38.56000 125.780
38.58000 131.969
38.60000 145.291
38.62000 159.299
38.64000 164.652
38.66000 171.177
38.68000 181.883
38.70000 194.238
38.72000 202.964
38.74000 205.657
38.76000 221.454
38.78000 233.947
38.80000 246.216
38.82000 265.356
38.84000 280.588
38.86000 294.063
38.88000 304.389
38.90000 312.722
38.92000 325.069
38.94000 335.007
38.96000 341.438
38.98000 346.386
39.00000 354.938
39.02000 362.740
39.04000 363.456
39.06000 365.737
39.08000 365.048
39.10000 360.559
39.12000 360.622
39.14000 350.261
39.16000 343.390
39.18000 330.865
39.20000 331.951
39.22000 326.259
39.24000 308.929
39.26000 292.585
39.28000 285.273
39.30000 273.715
39.32000 257.166
39.34000 248.289
39.36000 240.479
39.38000 241.011
39.40000 216.192
39.42000 194.956
39.44000 185.510
39.46000 180.143
39.48000 165.673
39.50000 161.399
39.52000 148.405
39.54000 136.093
39.56000 129.281
39.58000 118.410
39.60000 110.416
39.62000 106.282
39.64000 106.703
39.66000 98.605
39.68000 90.294
39.70000 89.021
39.72000 83.062
39.74000 78.325
39.76000 71.420
39.78000 63.901
39.80000 57.266
39.82000 58.004
39.84000 57.628
39.86000 54.808
39.88000 53.745
39.90000 47.187
39.92000 45.254
39.94000 41.935
39.96000 38.659
39.98000 41.887
40.00000 41.461
40.02000 37.942
40.04000 38.102
40.06000 37.856
40.08000 34.088
40.10000 36.596
40.12000 31.721
40.14000 28.926
40.16000 22.409
40.18000 27.723
40.20000 31.220
40.22000 24.186
40.24000 21.888
40.26000 20.442
40.28000 18.105
40.30000 19.491
40.32000 20.943
40.34000 20.169
40.36000 21.950
40.38000 18.728
40.40000 21.078
40.42000 17.021
40.44000 17.733
40.46000 22.226
40.48000 16.237
40.50000 14.164
40.52000 12.993
40.54000 14.901
40.56000 14.900
40.58000 13.138
40.60000 13.061
40.62000 11.812
40.64000 8.609
40.66000 4.512
40.68000 6.342
40.70000 10.242
40.72000 10.230
40.74000 10.862
40.76000 9.372
40.78000 11.303
40.80000 8.557
40.82000 6.355
40.84000 8.636
40.86000 9.626
40.88000 6.388
40.90000 5.396
40.92000 5.758
40.94000 8.026
40.96000 7.611
40.98000 4.259
41.00000 5.220
41.02000 8.218
41.04000 9.455
41.06000 6.393
41.08000 6.842
41.10000 5.269
41.12000 5.008
41.14000 4.866
41.16000 2.063
41.18000 2.787
41.20000 1.999
41.22000 5.139
41.24000 5.443
41.26000 0.865
41.28000 1.991
41.30000 2.089
41.32000 2.239
41.34000 4.657
41.36000 5.781
41.38000 5.798
41.40000 2.500
41.42000 -0.149
41.44000 3.922
41.46000 0.129
41.48000 2.072
41.50000 2.044
41.52000 3.518
41.54000 4.167
41.56000 4.818
41.58000 1.376
41.60000 5.548
41.62000 4.518
41.64000 -0.887
41.66000 1.965
41.68000 5.045
41.70000 4.549
41.72000 1.019
41.74000 -0.291
41.76000 -0.576
41.78000 0.782
41.80000 -1.104
41.82000 -0.181
41.84000 0.734
41.86000 -1.831
41.88000 -3.410
41.90000 -1.650
41.92000 -0.778
41.94000 -1.499
41.96000 -0.908
41.98000 -0.691
42.00000 -1.899
42.02000 -3.387
42.04000 -1.906
42.06000 -0.498
42.08000 2.646
42.10000 -1.593
42.12000 -0.857
42.14000 1.014
42.16000 -1.183
42.18000 1.101
42.20000 2.789
42.22000 -0.080
42.24000 -1.512
42.26000 -0.930
42.28000 -0.391
42.30000 -3.346
42.32000 0.040
42.34000 4.905
42.36000 3.770
42.38000 4.897
42.40000 5.483
42.42000 1.878
42.44000 3.806
42.46000 3.312
42.48000 1.239
42.50000 3.372
42.52000 5.536
42.54000 5.022
42.56000 0.963
42.58000 4.349
42.60000 5.669
42.62000 4.211
42.64000 2.854
42.66000 4.122
42.68000 5.958
42.70000 3.658
42.72000 -1.414
42.74000 0.262
42.76000 2.446
42.78000 2.932
42.80000 4.972
42.82000 2.827
42.84000 3.722
42.86000 0.337
42.88000 -3.284
42.90000 -0.195
42.92000 2.290
42.94000 2.125
42.96000 1.350
42.98000 2.070
43.00000 -2.658
43.02000 -3.145
43.04000 -0.335
43.06000 1.599
43.08000 2.935
43.10000 4.253
43.12000 -1.204
43.14000 2.395
43.16000 1.791
43.18000 1.910
43.20000 2.069
43.22000 4.238
43.24000 3.017
43.26000 0.182
43.28000 -0.974
43.30000 -1.514
43.32000 -3.253
43.34000 -1.717
43.36000 0.245
43.38000 3.219
43.40000 3.682
43.42000 2.319
43.44000 1.066
43.46000 3.412
43.48000 -0.892
43.50000 1.298
43.52000 0.206
43.54000 -0.692
43.56000 2.541
43.58000 4.386
43.60000 1.708
43.62000 1.768
43.64000 1.373
43.66000 2.804
43.68000 2.265
43.70000 0.849
43.72000 -0.674
43.74000 -1.321
43.76000 0.659
43.78000 1.617
43.80000 2.537
43.82000 2.251
43.84000 -0.678
43.86000 -0.323
43.88000 1.985
43.90000 0.989
43.92000 2.817
43.94000 3.720
43.96000 4.098
43.98000 4.985
44.00000 4.331
44.02000 1.625
44.04000 0.141
44.06000 -0.625
44.08000 3.066
44.10000 1.814
44.12000 1.905
44.14000 1.321
44.16000 5.912
44.18000 3.852
44.20000 -0.103
44.22000 0.758
44.24000 4.186
44.26000 3.955
44.28000 2.420
44.30000 4.544
44.32000 4.528
44.34000 6.448
44.36000 9.451
44.38000 8.486
44.40000 5.389
44.42000 7.547
44.44000 5.147
44.46000 7.096
44.48000 9.257
44.50000 13.431
44.52000 15.189
44.54000 12.728
44.56000 12.201
44.58000 7.809
44.60000 8.394
44.62000 10.952
44.64000 11.137
44.66000 14.418
44.68000 13.334
44.70000 11.227
44.72000 14.262
44.74000 19.735
44.76000 17.881
44.78000 18.749
44.80000 21.390
44.82000 21.418
44.84000 20.652
44.86000 21.675
44.88000 23.431
44.90000 26.165
44.92000 33.211
44.94000 32.348
44.96000 31.881
44.98000 36.929
45.00000 36.950
45.02000 39.271
45.04000 41.159
45.06000 40.785
45.08000 41.649
45.10000 40.906
45.12000 45.172
45.14000 48.373
45.16000 54.902
45.18000 56.928
45.20000 59.511
45.22000 66.235
45.24000 68.791
45.26000 60.426
45.28000 63.307
45.30000 68.691
45.32000 76.699
45.34000 80.492
45.36000 79.772
45.38000 82.599
45.40000 77.507
45.42000 82.976
45.44000 84.561
45.46000 86.815
45.48000 92.326
45.50000 87.407
45.52000 89.385
45.54000 97.024
45.56000 96.926
45.58000 94.287
45.60000 93.351
45.62000 94.883
45.64000 89.631
45.66000 93.607
45.68000 90.821
45.70000 87.151
45.72000 89.983
45.74000 89.804
45.76000 80.911
45.78000 85.547
45.80000 84.690
45.82000 76.764
45.84000 71.188
45.86000 67.952
45.88000 68.217
45.90000 63.813
45.92000 63.189
45.94000 61.680
45.96000 53.718
45.98000 53.636
46.00000 57.221
46.02000 53.347
46.04000 52.921
46.06000 47.657
46.08000 43.857
46.10000 40.133
46.12000 38.623
46.14000 40.385
46.16000 40.143
46.18000 38.991
46.20000 36.235
46.22000 27.362
46.24000 29.031
46.26000 34.720
46.28000 33.629
46.30000 27.356
46.32000 22.073
46.34000 22.154
46.36000 17.784
46.38000 14.205
46.40000 14.476
46.42000 11.755
46.44000 13.052
46.46000 4.239
46.48000 8.318
46.50000 9.645
46.52000 7.434
46.54000 4.811
46.56000 6.649
46.58000 8.606
46.60000 6.772
46.62000 4.749
46.64000 3.043
46.66000 6.578
46.68000 9.192
46.70000 7.406
46.72000 3.420
46.74000 -0.708
46.76000 -0.167
46.78000 -2.369
46.80000 -0.280
46.82000 -0.281
46.84000 -1.587
46.86000 -0.362
46.88000 -2.038
46.90000 1.818
46.92000 3.554
46.94000 0.490
46.96000 0.024
46.98000 -0.004
47.00000 3.633
47.02000 0.914
47.04000 -0.259
47.06000 1.828
47.08000 2.844
47.10000 1.130
47.12000 -1.998
47.14000 -2.889
47.16000 0.110
47.18000 -0.686
47.20000 -2.556
47.22000 1.597
47.24000 1.456
47.26000 -0.458
47.28000 0.971
47.30000 -1.486
47.32000 2.541
47.34000 1.280
47.36000 2.434
47.38000 2.233
47.40000 2.946
47.42000 5.333
47.44000 4.793
47.46000 0.997
47.48000 0.399
47.50000 -2.049
47.52000 -1.163
47.54000 0.963
47.56000 1.005
47.58000 1.931
47.60000 -0.083
47.62000 -0.249
47.64000 1.035
47.66000 1.668
47.68000 3.044
47.70000 -2.813
47.72000 -2.211
47.74000 0.779
47.76000 -0.124
47.78000 0.123
47.80000 0.108
47.82000 -2.060
47.84000 -1.293
47.86000 0.123
47.88000 5.108
47.90000 4.408
47.92000 -1.332
47.94000 -2.792
47.96000 -1.421
47.98000 0.035
48.00000 -2.531
48.02000 -1.687
48.04000 2.194
48.06000 0.681
48.08000 6.222
48.10000 6.398
48.12000 3.484
48.14000 4.017
48.16000 3.338
48.18000 4.413
48.20000 3.545
48.22000 1.578
48.24000 3.795
48.26000 2.299
48.28000 3.793
48.30000 1.463
48.32000 0.851
48.34000 2.855
48.36000 4.800
48.38000 3.740
48.40000 0.498
48.42000 3.146
48.44000 3.235
48.46000 3.411
48.48000 0.653
48.50000 -1.433
48.52000 0.743
48.54000 4.360
48.56000 3.291
48.58000 0.680
48.60000 -0.714
48.62000 -2.717
48.64000 -0.915
48.66000 1.831
48.68000 4.730
48.70000 6.722
48.72000 5.989
48.74000 6.257
48.76000 1.374
48.78000 -0.051
48.80000 -0.507
48.82000 4.079
48.84000 4.697
48.86000 -0.168
48.88000 3.311
48.90000 4.385
48.92000 1.876
48.94000 3.681
48.96000 6.242
48.98000 7.753
49.00000 7.403
49.02000 9.698
49.04000 4.412
49.06000 -1.309
49.08000 0.796
49.10000 3.124
49.12000 -0.474
49.14000 4.186
49.16000 6.456
49.18000 7.097
49.20000 3.573
49.22000 -0.485
49.24000 -0.723
49.26000 3.020
49.28000 1.811
49.30000 2.758
49.32000 2.949
49.34000 4.713
49.36000 2.908
49.38000 4.303
49.40000 3.498
49.42000 3.367
49.44000 4.495
49.46000 0.060
49.48000 2.125
49.50000 1.381
49.52000 -0.181
49.54000 -2.654
49.56000 2.685
49.58000 4.634
49.60000 3.996
49.62000 2.983
49.64000 2.609
49.66000 3.628
49.68000 5.888
49.70000 7.763
49.72000 4.499
49.74000 2.543
49.76000 3.344
49.78000 0.946
49.80000 2.527
49.82000 0.387
49.84000 -0.353
49.86000 1.684
49.88000 3.202
49.90000 5.151
49.92000 2.681
49.94000 4.938
49.96000 9.218
49.98000 3.351
50.00000 2.805
50.02000 4.561
50.04000 4.643
50.06000 4.095
50.08000 1.824
50.10000 3.829
50.12000 2.060
50.14000 3.558
50.16000 2.479
50.18000 2.180
50.20000 2.144
50.22000 3.084
50.24000 -2.616
50.26000 -2.349
50.28000 3.075
50.30000 2.778
50.32000 2.982
50.34000 7.707
50.36000 4.847
50.38000 3.961
50.40000 2.861
50.42000 2.261
50.44000 3.221
50.46000 2.195
50.48000 0.398
50.50000 2.064
50.52000 2.268
50.54000 3.194
50.56000 6.925
50.58000 5.315
50.60000 6.260
50.62000 3.421
50.64000 4.197
50.66000 0.116
50.68000 -1.200
50.70000 0.641
50.72000 5.525
50.74000 8.812
50.76000 10.422
50.78000 7.299
50.80000 7.710
50.82000 2.900
50.84000 3.408
50.86000 1.105
50.88000 2.194
50.90000 3.378
50.92000 0.218
50.94000 2.031
50.96000 5.664
50.98000 2.110
51.00000 -0.893
51.02000 3.374
51.04000 3.904
51.06000 3.057
51.08000 2.542
51.10000 3.870
51.12000 4.029
51.14000 4.065
51.16000 1.579
51.18000 -0.443
51.20000 3.124
51.22000 2.993
51.24000 -2.112
51.26000 1.861
51.28000 2.089
51.30000 2.507
51.32000 5.194
51.34000 5.652
51.36000 5.159
51.38000 2.115
51.40000 0.919
51.42000 3.381
51.44000 2.338
51.46000 3.703
51.48000 0.997
51.50000 2.917
51.52000 5.348
51.54000 5.221
51.56000 2.821
51.58000 1.208
51.60000 4.780
51.62000 6.783
51.64000 3.811
51.66000 2.608
51.68000 3.435
51.70000 4.694
51.72000 4.158
51.74000 2.055
51.76000 1.941
51.78000 -2.220
51.80000 0.290
51.82000 5.358
51.84000 7.327
51.86000 5.859
51.88000 6.506
51.90000 7.813
51.92000 6.235
51.94000 2.808
51.96000 -2.556
51.98000 0.731
52.00000 3.256
52.02000 1.332
52.04000 2.139
52.06000 3.345
52.08000 3.617
52.10000 7.368
52.12000 3.119
52.14000 2.322
52.16000 4.330
52.18000 1.870
52.20000 1.518
52.22000 0.869
52.24000 2.579
52.26000 4.349
52.28000 7.406
52.30000 0.964
52.32000 -2.545
52.34000 -0.805
52.36000 1.869
52.38000 1.456
52.40000 10.367
52.42000 8.625
52.44000 4.052
52.46000 1.023
52.48000 2.855
52.50000 4.670
52.52000 1.755
52.54000 2.656
52.56000 1.766
52.58000 -2.535
52.60000 2.756
52.62000 3.243
52.64000 6.905
52.66000 4.017
52.68000 2.905
52.70000 3.704
52.72000 0.313
52.74000 2.059
52.76000 2.920
52.78000 4.563
52.80000 4.973
52.82000 4.578
52.84000 0.752
52.86000 -0.194
52.88000 3.345
52.90000 2.492
52.92000 5.504
52.94000 1.936
52.96000 2.785
52.98000 4.550
53.00000 6.139
53.02000 3.728
53.04000 2.482
53.06000 2.952
53.08000 3.727
53.10000 3.550
53.12000 4.542
53.14000 4.785
53.16000 2.809
53.18000 3.571
53.20000 6.972
53.22000 6.493
53.24000 3.620
53.26000 6.834
53.28000 4.746
53.30000 2.314
53.32000 4.784
53.34000 3.942
53.36000 4.329
53.38000 4.769
53.40000 9.543
53.42000 8.759
53.44000 3.000
53.46000 3.712
53.48000 6.129
53.50000 5.089
53.52000 5.551
53.54000 7.679
53.56000 1.508
53.58000 1.639
53.60000 1.932
53.62000 -0.025
53.64000 -0.474
53.66000 1.245
53.68000 2.903
53.70000 3.543
53.72000 -0.227
53.74000 -0.857
53.76000 2.429
53.78000 2.165
53.80000 -2.175
53.82000 -0.073
53.84000 7.177
53.86000 2.465
53.88000 0.016
53.90000 0.227
53.92000 -1.038
53.94000 0.211
53.96000 -0.331
53.98000 2.725
54.00000 2.643
54.02000 2.776
54.04000 2.644
54.06000 2.154
54.08000 3.948
54.10000 9.298
54.12000 7.451
54.14000 1.247
54.16000 2.547
54.18000 5.147
54.20000 3.469
54.22000 2.151
54.24000 3.775
54.26000 6.106
54.28000 5.066
54.30000 1.026
54.32000 0.697
54.34000 2.458
54.36000 3.008
54.38000 4.123
54.40000 -0.167
54.42000 1.569
54.44000 2.319
54.46000 2.811
54.48000 1.642
54.50000 -2.493
54.52000 2.984
54.54000 1.549
54.56000 3.787
54.58000 1.967
54.60000 2.030
54.62000 5.441
54.64000 2.825
54.66000 5.739
54.68000 2.809
54.70000 1.125
54.72000 4.015
54.74000 3.415
54.76000 4.672
54.78000 1.613
54.80000 0.212
54.82000 2.393
54.84000 5.539
54.86000 7.965
54.88000 7.619
54.90000 3.602
54.92000 0.684
54.94000 3.284
54.96000 5.040
54.98000 9.073
55.00000 4.962
55.02000 4.705
55.04000 3.193
55.06000 3.203
55.08000 2.734
55.10000 4.619
55.12000 4.026
55.14000 1.394
55.16000 -2.108
55.18000 -0.443
55.20000 4.809
55.22000 7.354
55.24000 8.346
55.26000 5.745
55.28000 3.367
55.30000 3.690
55.32000 4.181
55.34000 1.845
55.36000 4.003
55.38000 6.748
55.40000 7.889
55.42000 4.771
55.44000 1.247
55.46000 3.735
55.48000 5.410
55.50000 4.104
55.52000 4.835
55.54000 1.084
55.56000 2.281
55.58000 4.385
55.60000 5.926
55.62000 5.432
55.64000 3.978
55.66000 2.410
55.68000 2.750
55.70000 0.915
55.72000 1.685
55.74000 1.934
55.76000 5.404
55.78000 8.295
55.80000 4.398
55.82000 7.513
55.84000 7.354
55.86000 11.608
55.88000 7.007
55.90000 4.535
55.92000 2.482
55.94000 5.037
55.96000 5.103
55.98000 4.668
56.00000 3.208
56.02000 -2.433
56.04000 -1.637
56.06000 0.271
56.08000 0.026
56.10000 2.738
56.12000 3.322
56.14000 4.763
56.16000 5.582
56.18000 4.560
56.20000 4.234
56.22000 3.249
56.24000 2.583
56.26000 2.258
56.28000 4.948
56.30000 3.771
56.32000 -1.434
56.34000 1.331
56.36000 1.087
56.38000 0.909
56.40000 5.379
56.42000 4.817
56.44000 4.379
56.46000 3.022
56.48000 2.816
56.50000 3.018
56.52000 7.761
56.54000 9.037
56.56000 3.756
56.58000 0.990
56.60000 3.168
56.62000 1.464
56.64000 -0.245
56.66000 1.549
56.68000 2.963
56.70000 5.759
56.72000 6.865
56.74000 0.249
56.76000 4.376
56.78000 5.847
56.80000 1.534
56.82000 0.490
56.84000 1.514
56.86000 4.248
56.88000 -0.057
56.90000 0.628
56.92000 4.945
56.94000 7.614
56.96000 5.848
56.98000 4.320
57.00000 2.963
57.02000 2.776
57.04000 1.008
57.06000 3.326
57.08000 4.223
57.10000 2.994
57.12000 2.847
57.14000 2.635
57.16000 1.167
57.18000 -0.069
57.20000 -0.016
57.22000 2.403
57.24000 1.690
57.26000 3.437
57.28000 4.828
57.30000 3.427
57.32000 4.324
57.34000 6.787
57.36000 7.978
57.38000 2.415
57.40000 2.033
57.42000 -0.311
57.44000 5.267
57.46000 3.659
57.48000 2.847
57.50000 0.047
57.52000 -2.424
57.54000 1.382
57.56000 3.975
57.58000 5.934
57.60000 7.197
57.62000 9.257
57.64000 4.886
57.66000 3.247
57.68000 1.986
57.70000 2.461
57.72000 3.886
57.74000 2.757
57.76000 0.808
57.78000 2.266
57.80000 1.392
57.82000 2.363
57.84000 2.182
57.86000 1.064
57.88000 1.129
57.90000 -1.775
57.92000 0.822
57.94000 1.318
57.96000 2.539
57.98000 2.886
58.00000 3.508
58.02000 4.918
58.04000 0.915
58.06000 1.251
58.08000 0.312
58.10000 -1.082
58.12000 -0.314
58.14000 0.905
58.16000 0.445
58.18000 2.656
58.20000 4.672
58.22000 4.425
58.24000 5.742
58.26000 4.969
58.28000 0.317
58.30000 5.156
58.32000 4.125
58.34000 -0.355
58.36000 -0.640
58.38000 -2.208
58.40000 -1.513
58.42000 1.434
58.44000 3.479
58.46000 4.042
58.48000 2.834
58.50000 2.978
58.52000 2.908
58.54000 2.181
58.56000 3.668
58.58000 -1.999
58.60000 -1.844
58.62000 2.105
58.64000 1.403
58.66000 -1.080
58.68000 2.948
58.70000 2.362
58.72000 2.859
58.74000 5.417
58.76000 10.423
58.78000 4.467
58.80000 2.602
58.82000 5.237
58.84000 4.193
58.86000 2.213
58.88000 1.865
58.90000 -2.373
58.92000 -0.385
58.94000 -1.509
58.96000 -0.821
58.98000 1.614
59.00000 5.126
59.02000 3.165
59.04000 0.760
59.06000 1.735
59.08000 3.829
59.10000 5.060
59.12000 6.300
59.14000 3.303
59.16000 4.437
59.18000 3.504
59.20000 0.553
59.22000 -0.091
59.24000 1.906
59.26000 3.061
59.28000 4.006
59.30000 3.094
59.32000 3.600
59.34000 2.092
59.36000 2.170
59.38000 5.621
59.40000 2.696
59.42000 3.828
59.44000 1.964
59.46000 0.923
59.48000 3.031
59.50000 3.310
59.52000 0.570
59.54000 0.153
59.56000 0.397
59.58000 0.303
59.60000 2.957
59.62000 0.088
59.64000 -0.281
59.66000 -0.145
59.68000 -2.367
59.70000 2.100
59.72000 2.205
59.74000 2.538
59.76000 2.664
59.78000 2.937
59.80000 6.288
59.82000 6.547
59.84000 2.829
59.86000 -0.098
59.88000 1.207
59.90000 0.026
59.92000 -1.876
59.94000 2.284
59.96000 5.180
59.98000 4.731
60.00000 3.384
60.02000 3.663
60.04000 5.033
60.06000 3.431
60.08000 1.958
60.10000 1.630
60.12000 2.250
60.14000 -0.387
60.16000 0.814
60.18000 -0.133
60.20000 -1.422
60.22000 -0.629
60.24000 0.440
60.26000 0.442
60.28000 4.774
60.30000 3.590
60.32000 8.041
60.34000 3.671
60.36000 1.352
60.38000 3.552
60.40000 -0.646
60.42000 0.409
60.44000 2.177
60.46000 2.210
60.48000 2.396
60.50000 3.764
60.52000 0.548
60.54000 -1.115
60.56000 1.424
60.58000 2.108
60.60000 0.457
60.62000 0.468
60.64000 -0.068
60.66000 -2.324
60.68000 -1.650
60.70000 3.504
60.72000 5.401
60.74000 4.254
60.76000 3.805
60.78000 0.156
60.80000 -1.029
60.82000 -0.775
60.84000 1.507
60.86000 2.261
60.88000 1.573
60.90000 2.196
60.92000 3.434
60.94000 3.819
60.96000 2.970
60.98000 3.734
61.00000 2.875
61.02000 6.337
61.04000 4.402
61.06000 2.227
61.08000 1.217
61.10000 0.394
61.12000 1.180
61.14000 3.801
61.16000 3.394
61.18000 2.281
61.20000 3.045
61.22000 2.602
61.24000 2.330
61.26000 0.325
61.28000 4.890
61.30000 1.859
61.32000 -2.306
61.34000 2.266
61.36000 2.619
61.38000 3.588
61.40000 1.340
61.42000 2.640
61.44000 6.493
61.46000 3.914
61.48000 0.098
61.50000 3.107
61.52000 4.410
61.54000 0.948
61.56000 -0.445
61.58000 3.318
61.60000 2.937
61.62000 2.235
61.64000 2.966
61.66000 4.877
61.68000 5.797
61.70000 3.649
61.72000 3.153
61.74000 3.704
61.76000 3.691
61.78000 0.304
61.80000 -0.093
61.82000 2.398
61.84000 4.051
61.86000 4.549
61.88000 4.362
61.90000 0.776
61.92000 2.539
61.94000 2.807
61.96000 2.282
61.98000 3.846
62.00000 1.915
62.02000 1.898
62.04000 1.135
62.06000 -2.270
62.08000 2.137
62.10000 3.444
62.12000 3.748
62.14000 0.087
62.16000 -0.759
62.18000 -1.001
62.20000 2.979
62.22000 1.488
62.24000 3.496
62.26000 1.466
62.28000 2.101
62.30000 -0.481
62.32000 0.118
62.34000 -0.325
62.36000 3.665
62.38000 4.848
62.40000 2.075
62.42000 2.724
62.44000 3.203
62.46000 0.959
62.48000 2.966
62.50000 4.897
62.52000 5.723
62.54000 1.482
62.56000 0.346
62.58000 -0.811
62.60000 3.911
62.62000 1.964
62.64000 -1.621
62.66000 2.589
62.68000 1.595
62.70000 3.214
62.72000 1.774
62.74000 0.129
62.76000 -0.144
62.78000 -0.670
62.80000 -1.591
62.82000 -2.270
62.84000 1.475
62.86000 5.721
62.88000 2.880
62.90000 6.318
62.92000 5.855
62.94000 6.379
62.96000 5.264
62.98000 2.813
63.00000 2.830
63.02000 0.699
63.04000 1.254
63.06000 2.081
63.08000 3.316
63.10000 3.105
63.12000 2.017
63.14000 0.399
63.16000 -0.836
63.18000 -1.406
63.20000 -1.728
63.22000 2.226
63.24000 0.340
63.26000 0.499
63.28000 -0.032
63.30000 -1.275
63.32000 -0.337
63.34000 0.831
63.36000 2.532
63.38000 3.441
63.40000 1.613
63.42000 0.422
63.44000 2.743
63.46000 1.712
63.48000 1.912
63.50000 2.585
63.52000 2.486
63.54000 -0.164
63.56000 -0.818
63.58000 2.311
63.60000 1.621
63.62000 2.674
63.64000 -0.575
63.66000 -1.410
63.68000 2.309
63.70000 -0.217
63.72000 0.720
63.74000 -0.614
63.76000 1.623
63.78000 4.283
63.80000 3.394
63.82000 4.960
63.84000 1.519
63.86000 0.331
63.88000 -1.707
63.90000 -0.440
63.92000 0.272
63.94000 0.470
63.96000 -0.940
63.98000 0.663
64.00000 2.397
64.02000 2.357
64.04000 1.948
64.06000 3.844
64.08000 3.047
64.10000 1.564
64.12000 2.823
64.14000 2.013
64.16000 0.068
64.18000 1.936
64.20000 4.884
64.22000 3.090
64.24000 1.103
64.26000 -0.676
64.28000 0.179
64.30000 -0.741
64.32000 0.164
64.34000 0.775
64.36000 0.867
64.38000 1.627
64.40000 -0.713
64.42000 0.638
64.44000 2.608
64.46000 0.240
64.48000 1.471
64.50000 2.807
64.52000 4.235
64.54000 1.388
64.56000 0.177
64.58000 3.010
64.60000 3.009
64.62000 1.112
64.64000 1.413
64.66000 3.454
64.68000 4.675
64.70000 -0.054
64.72000 0.530
64.74000 3.308
64.76000 4.609
64.78000 0.447
64.80000 -2.250
64.82000 1.370
64.84000 3.343
64.86000 1.274
64.88000 2.520
64.90000 2.882
64.92000 3.746
64.94000 2.728
64.96000 1.285
64.98000 0.037
65.00000 3.562
65.02000 2.954
65.04000 1.064
65.06000 1.653
65.08000 -0.992
65.10000 1.443
65.12000 1.547
65.14000 1.350
65.16000 0.088
65.18000 -1.358
65.20000 2.243
65.22000 1.604
65.24000 1.584
65.26000 4.600
65.28000 3.700
65.30000 2.217
65.32000 -0.436
65.34000 4.704
65.36000 3.601
65.38000 -0.799
65.40000 -0.588
65.42000 2.985
65.44000 5.048
65.46000 6.557
65.48000 1.260
65.50000 1.209
65.52000 1.332
65.54000 2.029
65.56000 1.286
65.58000 1.191
65.60000 2.991
65.62000 1.416
65.64000 5.312
65.66000 5.860
65.68000 4.888
65.70000 1.454
65.72000 1.946
65.74000 2.705
65.76000 3.621
65.78000 4.915
65.80000 3.304
65.82000 4.567
65.84000 5.317
65.86000 5.960
65.88000 6.017
65.90000 5.760
65.92000 6.585
65.94000 5.126
65.96000 5.102
65.98000 2.439
66.00000 6.836
66.02000 5.901
66.04000 3.486
66.06000 3.157
66.08000 5.814
66.10000 6.643
66.12000 4.745
66.14000 5.621
66.16000 6.305
66.18000 6.878
66.20000 7.456
66.22000 5.878
66.24000 4.194
66.26000 5.565
66.28000 4.291
66.30000 6.462
66.32000 8.375
66.34000 8.077
66.36000 9.149
66.38000 9.032
66.40000 5.794
66.42000 7.704
66.44000 6.675
66.46000 7.083
66.48000 6.722
66.50000 3.873
66.52000 6.940
66.54000 5.272
66.56000 6.864
66.58000 6.720
66.60000 5.359
66.62000 4.959
66.64000 6.494
66.66000 4.851
66.68000 5.168
66.70000 6.999
66.72000 6.832
66.74000 5.294
66.76000 3.235
66.78000 3.468
66.80000 5.824
66.82000 5.029
66.84000 4.429
66.86000 8.264
66.88000 5.297
66.90000 4.147
66.92000 3.003
66.94000 3.042
66.96000 3.159
66.98000 1.796
67.00000 1.504
67.02000 1.666
67.04000 2.818
67.06000 1.006
67.08000 0.741
67.10000 3.997
67.12000 0.810
67.14000 0.759
67.16000 2.051
67.18000 3.864
67.20000 4.465
67.22000 6.123
67.24000 -0.111
67.26000 -2.201
67.28000 1.546
67.30000 1.945
67.32000 5.831
67.34000 4.570
67.36000 3.776
67.38000 2.206
67.40000 2.693
67.42000 2.007
67.44000 1.242
67.46000 3.173
67.48000 2.905
67.50000 2.220
67.52000 1.108
67.54000 1.870
67.56000 2.935
67.58000 -0.678
67.60000 -1.339
67.62000 0.448
67.64000 -0.553
67.66000 -0.476
67.68000 0.994
67.70000 2.292
67.72000 2.032
67.74000 -1.348
67.76000 -1.926
67.78000 1.705
67.80000 1.216
67.82000 -0.378
67.84000 -0.527
67.86000 -0.297
67.88000 0.352
67.90000 0.481
67.92000 0.291
67.94000 0.678
67.96000 1.020
67.98000 1.800
68.00000 2.998
68.02000 4.115
68.04000 0.409
68.06000 -0.065
68.08000 -1.783
68.10000 0.182
68.12000 0.241
68.14000 -0.721
68.16000 -1.017
68.18000 2.024
68.20000 2.038
68.22000 1.679
68.24000 -1.060
68.26000 1.017
68.28000 1.592
68.30000 0.042
68.32000 -2.172
68.34000 2.546
68.36000 2.543
68.38000 1.075
68.40000 1.426
68.42000 -0.729
68.44000 1.794
68.46000 2.310
68.48000 2.458
68.50000 2.497
68.52000 0.890
68.54000 0.405
68.56000 -0.153
68.58000 -0.846
68.60000 1.238
68.62000 0.972
68.64000 1.033
68.66000 1.499
68.68000 1.335
68.70000 0.248
68.72000 -2.001
68.74000 -2.006
68.76000 -0.991
68.78000 -0.013
68.80000 1.928
68.82000 1.451
68.84000 0.165
68.86000 2.180
68.88000 1.700
68.90000 0.323
68.92000 1.022
68.94000 2.863
68.96000 1.901
68.98000 0.938
69.00000 2.303
69.02000 4.251
69.04000 2.619
69.06000 -2.134
69.08000 0.508
69.10000 1.552
69.12000 1.073
69.14000 -0.438
69.16000 2.458
69.18000 2.990
69.20000 2.283
69.22000 1.340
69.24000 2.937
69.26000 1.442
69.28000 1.618
69.30000 0.192
69.32000 0.614
69.34000 3.634
69.36000 1.018
69.38000 0.283
69.40000 0.135
69.42000 -0.490
69.44000 -0.639
69.46000 3.070
69.48000 2.014
69.50000 -2.111
69.52000 -0.580
69.54000 2.304
69.56000 0.694
69.58000 0.672
69.60000 3.510
69.62000 2.910
69.64000 2.715
69.66000 2.686
69.68000 2.621
69.70000 3.862
69.72000 2.597
69.74000 -0.101
69.76000 -0.857
69.78000 0.801
69.80000 1.535
69.82000 0.728
69.84000 0.352
69.86000 0.364
69.88000 1.033
69.90000 0.425
69.92000 1.745
69.94000 0.565
69.96000 -0.443
69.98000 -0.402
70.00000 -0.440
70.02000 -2.095
70.04000 -0.093
70.06000 0.849
70.08000 0.995
70.10000 1.855
70.12000 -0.511
70.14000 0.178
70.16000 0.396
70.18000 1.574
70.20000 1.502
70.22000 1.993
70.24000 2.178
70.26000 2.538
70.28000 0.334
70.30000 -1.136
70.32000 0.741
70.34000 0.060
70.36000 3.979
70.38000 3.061
70.40000 1.528
70.42000 0.096
70.44000 1.296
70.46000 5.041
70.48000 2.405
70.50000 1.590
70.52000 0.403
70.54000 3.005
70.56000 -0.126
70.58000 -0.620
70.60000 1.579
70.62000 0.785
70.64000 -0.804
70.66000 0.100
70.68000 0.812
70.70000 0.326
70.72000 0.529
70.74000 0.090
70.76000 0.025
70.78000 -1.188
70.80000 1.918
70.82000 2.454
70.84000 0.224
70.86000 0.995
70.88000 0.352
70.90000 -1.409
70.92000 -0.817
70.94000 -0.621
70.96000 -0.413
70.98000 0.316
71.00000 -1.203
71.02000 1.611
71.04000 3.126
71.06000 2.088
71.08000 1.572
71.10000 2.262
71.12000 2.907
71.14000 0.996
71.16000 2.903
71.18000 1.890
71.20000 0.770
71.22000 1.719
71.24000 1.105
71.26000 4.344
71.28000 3.150
71.30000 2.135
71.32000 0.493
71.34000 0.654
71.36000 0.134
71.38000 -0.014
71.40000 -2.045
71.42000 -0.197
71.44000 0.158
71.46000 -0.365
71.48000 0.711
71.50000 1.018
71.52000 1.977
71.54000 3.144
71.56000 1.956
71.58000 2.028
71.60000 0.920
71.62000 1.519
71.64000 0.447
71.66000 -0.158
71.68000 0.834
71.70000 0.369
71.72000 3.565
71.74000 2.524
71.76000 -0.029
71.78000 0.742
71.80000 1.117
71.82000 1.053
71.84000 -0.105
71.86000 0.690
71.88000 2.325
71.90000 2.836
71.92000 0.473
71.94000 1.569
71.96000 2.514
71.98000 5.097
72.00000 4.040
72.02000 1.649
72.04000 -1.756
72.06000 0.610
72.08000 3.546
72.10000 1.212
72.12000 -0.323
72.14000 1.613
72.16000 2.123
72.18000 1.237
72.20000 1.641
72.22000 -0.331
72.24000 -0.721
72.26000 0.125
72.28000 0.247
72.30000 0.516
72.32000 -0.506
72.34000 1.222
72.36000 1.996
72.38000 0.423
72.40000 -0.612
72.42000 0.511
72.44000 2.167
72.46000 2.815
72.48000 3.650
72.50000 2.628
72.52000 -1.506
72.54000 -2.010
72.56000 1.570
72.58000 -1.072
72.60000 1.057
72.62000 -0.280
72.64000 -1.209
72.66000 -0.209
72.68000 1.179
72.70000 4.324
72.72000 2.072
72.74000 -0.644
72.76000 -0.846
72.78000 -0.472
72.80000 0.096
72.82000 -0.270
72.84000 0.113
72.86000 1.347
72.88000 3.458
72.90000 4.055
72.92000 1.411
72.94000 -0.900
72.96000 1.082
72.98000 0.657
73.00000 0.571
73.02000 0.755
73.04000 -0.611
73.06000 0.107
73.08000 -2.004
73.10000 -0.498
73.12000 1.411
73.14000 0.886
73.16000 2.477
73.18000 2.961
73.20000 0.067
73.22000 1.263
73.24000 0.776
73.26000 1.437
73.28000 4.545
73.30000 2.170
73.32000 3.844
73.34000 3.231
73.36000 -0.010
73.38000 -1.096
73.40000 2.066
73.42000 1.807
73.44000 4.187
73.46000 0.467
73.48000 1.767
73.50000 -1.986
73.52000 0.350
73.54000 1.005
73.56000 1.412
73.58000 -1.046
73.60000 -0.581
73.62000 -0.911
73.64000 2.730
73.66000 -1.088
73.68000 -1.584
73.70000 2.912
73.72000 3.245
73.74000 5.215
73.76000 5.835
73.78000 2.511
73.80000 1.169
73.82000 3.369
73.84000 -0.539
73.86000 1.367
73.88000 2.150
73.90000 1.387
73.92000 1.463
73.94000 1.673
73.96000 2.304
73.98000 2.262
74.00000 0.740
74.02000 1.512
74.04000 2.876
74.06000 4.218
74.08000 2.351
74.10000 -0.101
74.12000 -0.843
74.14000 -0.007
74.16000 0.846
74.18000 0.651
74.20000 -1.985
74.22000 -1.598
74.24000 -0.156
74.26000 0.712
74.28000 3.360
74.30000 2.601
74.32000 3.526
74.34000 5.992
74.36000 5.593
74.38000 0.259
74.40000 0.237
74.42000 1.256
74.44000 0.259
74.46000 1.199
74.48000 3.238
74.50000 3.639
74.52000 1.680
74.54000 1.667
74.56000 2.736
74.58000 3.403
74.60000 -0.369
74.62000 -1.343
74.64000 0.040
74.66000 0.508
74.68000 3.505
74.70000 2.471
74.72000 5.108
74.74000 2.806
74.76000 1.658
74.78000 3.803
74.80000 4.987
74.82000 2.950
74.84000 4.375
74.86000 3.426
74.88000 -0.797
74.90000 -0.816
74.92000 -0.073
74.94000 -1.366
74.96000 -1.964
74.98000 2.263
75.00000 2.938
75.02000 4.475
75.04000 2.945
75.06000 3.982
75.08000 4.397
75.10000 1.508
75.12000 1.694
75.14000 2.805
75.16000 0.522
75.18000 -0.893
75.20000 -1.973
75.22000 0.563
75.24000 2.348
75.26000 3.371
75.28000 1.464
75.30000 1.507
75.32000 2.310
75.34000 4.293
75.36000 3.025
75.38000 3.375
75.40000 0.747
75.42000 1.300
75.44000 -0.140
75.46000 4.874
75.48000 5.885
75.50000 3.799
75.52000 0.967
75.54000 3.324
75.56000 3.666
75.58000 1.868
75.60000 1.356
75.62000 0.472
75.64000 0.944
75.66000 2.398
75.68000 1.676
75.70000 2.523
75.72000 6.670
75.74000 7.009
75.76000 4.956
75.78000 1.889
75.80000 0.432
75.82000 -1.990
75.84000 -0.452
75.86000 0.494
75.88000 1.643
75.90000 3.352
75.92000 5.202
75.94000 3.797
75.96000 2.225
75.98000 1.107
76.00000 -0.192
76.02000 3.264
76.04000 2.890
76.06000 6.488
76.08000 5.607
76.10000 4.647
76.12000 3.260
76.14000 1.381
76.16000 4.459
76.18000 0.079
76.20000 2.301
76.22000 4.812
76.24000 3.595
76.26000 3.282
76.28000 0.990
76.30000 -0.231
76.32000 4.053
76.34000 5.930
76.36000 3.347
76.38000 2.390
76.40000 2.586
76.42000 1.751
76.44000 -1.046
76.46000 -1.155
76.48000 1.095
76.50000 3.889
76.52000 3.333
76.54000 3.289
76.56000 2.332
76.58000 4.291
76.60000 2.042
76.62000 1.349
76.64000 1.110
76.66000 1.694
76.68000 -0.643
76.70000 2.206
76.72000 3.753
76.74000 1.859
76.76000 2.642
76.78000 1.900
76.80000 3.913
76.82000 4.363
76.84000 2.160
76.86000 1.616
76.88000 0.232
76.90000 -2.041
76.92000 2.427
76.94000 2.895
76.96000 3.022
76.98000 1.657
77.00000 -1.916
77.02000 2.494
77.04000 3.475
77.06000 3.054
77.08000 2.475
77.10000 2.337
77.12000 1.795
77.14000 0.641
77.16000 0.819
77.18000 1.928
77.20000 3.588
77.22000 3.565
77.24000 4.684
77.26000 1.842
77.28000 4.704
77.30000 4.835
77.32000 4.504
77.34000 4.270
77.36000 2.218
77.38000 0.109
77.40000 3.299
77.42000 3.553
77.44000 2.489
77.46000 3.372
77.48000 4.218
77.50000 3.179
77.52000 1.747
77.54000 3.306
77.56000 2.156
77.58000 0.228
77.60000 -1.245
77.62000 -0.510
77.64000 2.460
77.66000 1.463
77.68000 0.975
77.70000 -2.055
77.72000 1.076
77.74000 2.540
77.76000 3.462
77.78000 3.116
77.80000 6.205
77.82000 4.976
77.84000 1.401
77.86000 4.079
77.88000 3.214
77.90000 4.121
77.92000 4.784
77.94000 2.275
77.96000 0.009
77.98000 4.546
78.00000 6.040
78.02000 4.799
78.04000 0.976
78.06000 2.837
78.08000 2.319
78.10000 2.304
78.12000 0.615
78.14000 -0.311
78.16000 0.253
78.18000 0.421
78.20000 4.160
78.22000 7.302
78.24000 2.118
78.26000 -1.484
78.28000 -0.618
78.30000 2.790
78.32000 0.019
78.34000 -0.593
78.36000 -2.147
78.38000 0.277
78.40000 2.088
78.42000 3.634
78.44000 2.482
78.46000 4.115
78.48000 3.853
78.50000 1.469
78.52000 0.628
78.54000 3.115
78.56000 3.593
78.58000 6.366
78.60000 5.181
78.62000 3.181
78.64000 2.439
78.66000 3.315
78.68000 2.728
78.70000 1.241
78.72000 2.657
78.74000 2.647
78.76000 4.622
78.78000 3.506
78.80000 3.021
78.82000 3.050
78.84000 2.512
78.86000 3.188
78.88000 3.948
78.90000 3.008
78.92000 -0.900
78.94000 6.111
78.96000 4.259
78.98000 7.149
79.00000 12.206
79.02000 11.832
79.04000 10.513
79.06000 12.702
79.08000 7.829
79.10000 4.568
79.12000 4.621
79.14000 8.960
79.16000 9.671
79.18000 12.598
79.20000 9.485
79.22000 9.909
79.24000 8.705
79.26000 12.731
79.28000 17.090
79.30000 15.611
79.32000 14.800
79.34000 14.272
79.36000 16.622
79.38000 16.582
79.40000 19.827
79.42000 20.110
79.44000 19.107
79.46000 16.239
79.48000 17.632
79.50000 17.939
79.52000 18.134
79.54000 19.814
79.56000 20.097
79.58000 23.724
79.60000 23.012
79.62000 25.204
79.64000 19.599
79.66000 21.200
79.68000 24.380
79.70000 25.521
79.72000 24.231
79.74000 26.151
79.76000 23.505
79.78000 25.057
79.80000 25.389
79.82000 22.461
79.84000 21.587
79.86000 21.757
79.88000 25.534
79.90000 24.909
79.92000 21.109
79.94000 20.716
79.96000 21.763
79.98000 15.623
80.00000 19.508
80.02000 25.227
80.04000 28.027
80.06000 29.209
80.08000 26.482
80.10000 22.156
80.12000 20.683
80.14000 24.439
80.16000 20.911
80.18000 15.370
80.20000 13.668
80.22000 16.529
80.24000 16.777
80.26000 17.858
80.28000 20.418
80.30000 20.751
80.32000 17.347
80.34000 14.410
80.36000 15.010
80.38000 14.197
80.40000 15.480
80.42000 16.459
80.44000 15.494
80.46000 19.102
80.48000 13.810
80.50000 12.646
80.52000 12.963
80.54000 13.077
80.56000 9.080
80.58000 9.784
80.60000 9.259
80.62000 7.271
80.64000 7.856
80.66000 9.862
80.68000 8.609
80.70000 5.876
80.72000 8.434
80.74000 5.358
80.76000 5.428
80.78000 4.403
80.80000 5.518
80.82000 7.852
80.84000 9.368
80.86000 8.040
80.88000 5.915
80.90000 2.142
80.92000 5.127
80.94000 3.934
80.96000 4.109
80.98000 4.899
81.00000 8.558
81.02000 2.225
81.04000 -2.225
81.06000 2.678
81.08000 3.972
81.10000 4.652
81.12000 5.194
81.14000 7.122
81.16000 8.399
81.18000 7.055
81.20000 3.285
81.22000 5.413
81.24000 6.184
81.26000 3.288
81.28000 -0.035
81.30000 -0.939
81.32000 0.550
81.34000 1.058
81.36000 0.700
81.38000 2.380
81.40000 4.638
81.42000 0.694
81.44000 0.159
81.46000 4.301
81.48000 5.059
81.50000 3.831
81.52000 1.000
81.54000 1.160
81.56000 0.005
81.58000 -1.076
81.60000 0.672
81.62000 2.201
81.64000 1.868
81.66000 1.523
81.68000 -0.889
81.70000 0.147
81.72000 1.651
81.74000 2.386
81.76000 0.198
81.78000 1.076
81.80000 3.681
81.82000 2.225
81.84000 5.880
81.86000 5.203
81.88000 3.441
81.90000 -0.022
81.92000 2.273
81.94000 1.006
81.96000 2.023
81.98000 0.454
82.00000 1.328
82.02000 0.142
82.04000 -0.540
82.06000 1.546
82.08000 -1.394
82.10000 1.100
82.12000 2.704
82.14000 0.924
82.16000 -0.633
82.18000 -2.272
82.20000 0.881
82.22000 3.036
82.24000 2.830
82.26000 3.755
82.28000 5.374
82.30000 1.606
82.32000 0.829
82.34000 1.223
82.36000 4.637
82.38000 2.632
82.40000 10.187
82.42000 9.560
82.44000 5.243
82.46000 9.093
82.48000 7.370
82.50000 3.327
82.52000 1.190
82.54000 3.581
82.56000 4.182
82.58000 6.286
82.60000 5.657
82.62000 9.350
82.64000 5.616
82.66000 4.569
82.68000 3.900
82.70000 5.513
82.72000 7.079
82.74000 8.929
82.76000 9.124
82.78000 9.317
82.80000 10.972
82.82000 11.491
82.84000 8.054
82.86000 4.885
82.88000 5.598
82.90000 5.800
82.92000 11.486
82.94000 12.329
82.96000 17.594
82.98000 8.658
83.00000 10.724
83.02000 14.054
83.04000 13.489
83.06000 12.411
83.08000 11.931
83.10000 16.055
83.12000 18.766
83.14000 19.568
83.16000 20.280
83.18000 17.168
83.20000 24.691
83.22000 23.423
83.24000 20.784
83.26000 25.959
83.28000 24.264
83.30000 27.296
83.32000 25.167
83.34000 26.544
83.36000 28.933
83.38000 28.896
83.40000 29.206
83.42000 33.686
83.44000 34.665
83.46000 30.564
83.48000 34.136
83.50000 35.735
83.52000 34.942
83.54000 36.561
83.56000 39.688
83.58000 36.673
83.60000 37.415
83.62000 42.652
83.64000 44.533
83.66000 45.447
83.68000 48.612
83.70000 48.339
83.72000 50.308
83.74000 48.256
83.76000 48.596
83.78000 48.355
83.80000 47.937
83.82000 49.263
83.84000 48.622
83.86000 46.935
83.88000 46.636
83.90000 49.905
83.92000 46.250
83.94000 44.536
83.96000 44.213
83.98000 44.963
84.00000 44.883
84.02000 39.536
84.04000 42.837
84.06000 45.055
84.08000 39.298
84.10000 37.051
84.12000 41.140
84.14000 38.340
84.16000 36.508
84.18000 34.937
84.20000 33.365
84.22000 33.739
84.24000 33.546
84.26000 31.948
84.28000 26.317
84.30000 28.742
84.32000 26.421
84.34000 24.886
84.36000 27.265
84.38000 25.567
84.40000 24.592
84.42000 23.544
84.44000 18.321
84.46000 15.536
84.48000 13.838
84.50000 17.706
84.52000 19.021
84.54000 21.173
84.56000 17.516
84.58000 15.297
84.60000 11.715
84.62000 11.894
84.64000 12.522
84.66000 11.408
84.68000 14.029
84.70000 11.815
84.72000 9.461
84.74000 8.521
84.76000 9.848
84.78000 6.834
84.80000 5.130
84.82000 6.674
84.84000 9.709
84.86000 8.298
84.88000 8.906
84.90000 7.313
84.92000 4.176
84.94000 6.202
84.96000 6.128
84.98000 5.542
85.00000 4.155
85.02000 2.782
85.04000 4.486
85.06000 3.530
85.08000 5.697
85.10000 5.848
85.12000 3.705
85.14000 -1.102
85.16000 0.267
85.18000 -1.532
85.20000 0.582
85.22000 0.550
85.24000 1.628
85.26000 -1.592
85.28000 0.250
85.30000 -2.065
85.32000 1.160
85.34000 3.781
85.36000 1.310
85.38000 -1.052
85.40000 -0.158
85.42000 0.843
85.44000 4.616
85.46000 2.196
85.48000 2.198
85.50000 -0.489
85.52000 -1.535
85.54000 0.533
85.56000 0.414
85.58000 1.029
85.60000 -0.340
85.62000 2.346
85.64000 2.031
85.66000 0.243
85.68000 2.243
85.70000 -0.376
85.72000 0.646
85.74000 2.622
85.76000 3.865
85.78000 2.541
85.80000 0.833
85.82000 -1.047
85.84000 -0.070
85.86000 0.166
85.88000 -0.522
85.90000 0.327
85.92000 1.240
85.94000 3.283
85.96000 2.601
85.98000 2.819
86.00000 3.307
86.02000 2.936
86.04000 4.521
86.06000 2.491
86.08000 -1.012
86.10000 -1.963
86.12000 2.688
86.14000 1.176
86.16000 1.329
86.18000 -1.024
86.20000 4.270
86.22000 3.401
86.24000 3.362
86.26000 3.220
86.28000 2.134
86.30000 4.939
86.32000 2.250
86.34000 0.562
86.36000 2.861
86.38000 2.860
86.40000 1.091
86.42000 -0.009
86.44000 4.181
86.46000 2.008
86.48000 2.485
86.50000 -0.339
86.52000 0.954
86.54000 4.537
86.56000 4.680
86.58000 3.186
86.60000 1.318
86.62000 0.269
86.64000 -1.915
86.66000 1.365
86.68000 2.748
86.70000 2.680
86.72000 1.870
86.74000 2.013
86.76000 1.386
86.78000 1.582
86.80000 0.108
86.82000 2.519
86.84000 -0.030
86.86000 0.880
86.88000 -0.459
86.90000 2.185
86.92000 3.861
86.94000 0.685
86.96000 -0.891
86.98000 3.825
87.00000 2.547
87.02000 -0.845
87.04000 6.489
87.06000 4.554
87.08000 1.604
87.10000 0.909
87.12000 3.643
87.14000 4.137
87.16000 2.180
87.18000 -0.570
87.20000 -0.070
87.22000 -0.531
87.24000 0.247
87.26000 0.876
87.28000 -1.763
87.30000 0.417
87.32000 1.861
87.34000 2.878
87.36000 1.309
87.38000 1.111
87.40000 -1.496
87.42000 -0.131
87.44000 2.219
87.46000 -0.565
87.48000 3.106
87.50000 2.259
87.52000 2.860
87.54000 0.529
87.56000 1.769
87.58000 3.764
87.60000 2.374
87.62000 1.028
87.64000 0.352
87.66000 -0.175
87.68000 2.851
87.70000 4.790
87.72000 6.944
87.74000 3.746
87.76000 0.335
87.78000 1.624
87.80000 1.483
87.82000 -0.210
87.84000 0.632
87.86000 2.774
87.88000 0.945
87.90000 -0.610
87.92000 0.218
87.94000 1.843
87.96000 0.601
87.98000 -0.697
88.00000 1.890
88.02000 2.657
88.04000 0.258
88.06000 -0.591
88.08000 0.306
88.10000 2.423
88.12000 3.607
88.14000 1.745
88.16000 1.696
88.18000 1.727
88.20000 0.270
88.22000 -1.869
88.24000 1.665
88.26000 3.232
88.28000 1.717
88.30000 2.934
88.32000 3.280
88.34000 2.663
88.36000 1.021
88.38000 0.545
88.40000 -0.281
88.42000 -0.888
88.44000 1.400
88.46000 0.299
88.48000 0.865
88.50000 0.420
88.52000 3.832
88.54000 2.412
88.56000 2.473
88.58000 2.213
88.60000 3.492
88.62000 1.669
88.64000 3.403
88.66000 5.868
88.68000 3.458
88.70000 1.548
88.72000 3.286
88.74000 2.335
88.76000 3.554
88.78000 5.513
88.80000 5.056
88.82000 3.736
88.84000 0.100
88.86000 2.239
88.88000 -1.110
88.90000 -0.296
88.92000 -0.840
88.94000 -1.840
88.96000 -0.934
88.98000 3.223
89.00000 4.135
89.02000 -0.517
89.04000 3.430
89.06000 2.674
89.08000 2.104
89.10000 0.409
89.12000 -0.482
89.14000 0.009
89.16000 3.169
89.18000 3.920
89.20000 6.260
89.22000 6.227
89.24000 4.141
89.26000 1.754
89.28000 0.186
89.30000 1.382
89.32000 3.366
89.34000 2.597
89.36000 3.078
89.38000 2.093
89.40000 1.865
89.42000 4.269
89.44000 0.848
89.46000 1.788
89.48000 0.693
89.50000 -1.095
89.52000 0.100
89.54000 2.072
89.56000 4.414
89.58000 1.850
89.60000 5.839
89.62000 3.797
89.64000 3.866
89.66000 0.684
89.68000 2.228
89.70000 3.749
89.72000 4.636
89.74000 6.979
89.76000 1.260
89.78000 1.278
89.80000 4.737
89.82000 3.990
89.84000 5.147
89.86000 3.751
89.88000 -0.149
89.90000 -1.179
89.92000 1.985
89.94000 1.828
89.96000 1.706
89.98000 1.162
90.00000 0.940
90.02000 1.930
90.04000 1.602
90.06000 -0.639
90.08000 0.659
90.10000 2.669
90.12000 2.643
90.14000 -0.778
90.16000 1.789
90.18000 1.486
90.20000 -1.491
90.22000 2.711
90.24000 5.014
90.26000 2.221
90.28000 2.380
90.30000 0.885
90.32000 2.839
90.34000 0.877
90.36000 -1.873
90.38000 0.626
90.40000 2.924
90.42000 5.757
90.44000 3.165
90.46000 0.238
90.48000 3.088
90.50000 1.938
90.52000 2.412
90.54000 2.598
90.56000 3.061
90.58000 0.716
90.60000 -1.870
90.62000 -1.026
90.64000 1.824
90.66000 3.403
90.68000 0.161
90.70000 -1.369
90.72000 0.729
90.74000 1.266
90.76000 2.478
90.78000 1.974
90.80000 2.766
90.82000 4.615
90.84000 4.468
90.86000 3.514
90.88000 1.326
90.90000 0.358
90.92000 3.466
90.94000 4.267
90.96000 2.181
90.98000 3.995
91.00000 5.160
91.02000 2.784
91.04000 1.249
91.06000 1.832
91.08000 3.947
91.10000 2.902
91.12000 0.677
91.14000 2.218
91.16000 5.181
91.18000 7.106
91.20000 2.767
91.22000 2.530
91.24000 3.497
91.26000 2.205
91.28000 0.293
91.30000 -0.665
91.32000 1.282
91.34000 2.919
91.36000 1.020
91.38000 0.498
91.40000 3.158
91.42000 4.174
91.44000 4.128
91.46000 4.363
91.48000 2.207
91.50000 1.218
91.52000 -1.840
91.54000 1.063
91.56000 4.134
91.58000 3.155
91.60000 2.920
91.62000 2.161
91.64000 3.155
91.66000 0.717
91.68000 1.221
91.70000 2.011
91.72000 0.782
91.74000 0.033
91.76000 -0.219
91.78000 3.028
91.80000 4.552
91.82000 0.140
91.84000 1.449
91.86000 2.158
91.88000 2.638
91.90000 3.424
91.92000 3.636
91.94000 2.192
91.96000 5.430
91.98000 4.508
92.00000 2.771
92.02000 1.331
92.04000 2.629
92.06000 0.931
92.08000 2.772
92.10000 5.557
92.12000 3.221
92.14000 2.497
92.16000 4.918
92.18000 5.528
92.20000 2.461
92.22000 0.313
92.24000 -1.130
92.26000 -0.545
92.28000 -1.126
92.30000 0.162
92.32000 0.869
92.34000 -1.784
92.36000 -0.248
92.38000 2.888
92.40000 -1.548
92.42000 -0.108
92.44000 0.363
92.46000 3.179
92.48000 7.062
92.50000 7.641
92.52000 3.204
92.54000 4.229
92.56000 2.788
92.58000 1.443
92.60000 -1.860
92.62000 0.878
92.64000 3.781
92.66000 4.980
92.68000 2.361
92.70000 0.164
92.72000 2.345
92.74000 3.455
92.76000 3.901
92.78000 3.439
92.80000 3.903
92.82000 1.964
92.84000 3.026
92.86000 0.553
92.88000 0.054
92.90000 -1.206
92.92000 -0.288
92.94000 1.479
92.96000 4.278
92.98000 3.298
93.00000 3.266
93.02000 2.258
93.04000 3.529
93.06000 2.354
93.08000 4.705
93.10000 2.281
93.12000 0.941
93.14000 4.011
93.16000 2.873
93.18000 5.835
93.20000 1.480
93.22000 0.734
93.24000 4.523
93.26000 2.693
93.28000 -0.391
93.30000 3.731
93.32000 0.840
93.34000 2.691
93.36000 5.605
93.38000 3.334
93.40000 3.235
93.42000 4.508
93.44000 4.457
93.46000 2.880
93.48000 2.140
93.50000 4.001
93.52000 1.114
93.54000 2.654
93.56000 3.591
93.58000 3.425
93.60000 4.028
93.62000 6.678
93.64000 6.177
93.66000 4.025
93.68000 3.746
93.70000 3.746
93.72000 2.794
93.74000 1.383
93.76000 2.653
93.78000 3.740
93.80000 4.546
93.82000 3.871
93.84000 4.175
93.86000 1.659
93.88000 -1.854
93.90000 2.013
93.92000 2.819
93.94000 2.203
93.96000 3.023
93.98000 1.070
94.00000 4.625
94.02000 5.296
94.04000 2.554
94.06000 -0.034
94.08000 1.864
94.10000 3.763
94.12000 2.429
94.14000 0.674
94.16000 2.850
94.18000 3.661
94.20000 5.060
94.22000 3.244
94.24000 2.617
94.26000 3.602
94.28000 3.126
94.30000 3.100
94.32000 2.740
94.34000 4.811
94.36000 6.487
94.38000 6.509
94.40000 -0.011
94.42000 -1.876
94.44000 2.563
94.46000 3.348
94.48000 6.603
94.50000 5.150
94.52000 1.897
94.54000 3.139
94.56000 5.780
94.58000 2.515
94.60000 4.849
94.62000 5.088
94.64000 0.401
94.66000 0.580
94.68000 1.882
94.70000 -0.079
94.72000 -0.647
94.74000 0.487
94.76000 6.115
94.78000 2.655
94.80000 3.070
94.82000 5.170
94.84000 6.053
94.86000 5.891
94.88000 5.393
94.90000 4.419
94.92000 2.526
94.94000 2.052
94.96000 1.547
94.98000 2.092
95.00000 4.099
95.02000 8.315
95.04000 2.587
95.06000 0.060
95.08000 0.606
95.10000 0.544
95.12000 0.832
95.14000 1.161
95.16000 4.038
95.18000 1.647
95.20000 3.743
95.22000 1.814
95.24000 2.000
95.26000 1.876
95.28000 3.710
95.30000 5.668
95.32000 0.537
95.34000 0.307
95.36000 0.590
95.38000 -1.718
95.40000 -1.334
95.42000 0.078
95.44000 -0.202
95.46000 5.854
95.48000 6.325
95.50000 2.418
95.52000 7.042
95.54000 5.458
95.56000 0.414
95.58000 0.723
95.60000 2.677
95.62000 -0.487
95.64000 2.189
95.66000 -1.652
95.68000 -1.201
95.70000 1.866
95.72000 5.382
95.74000 0.346
95.76000 -1.272
95.78000 2.199
95.80000 2.069
95.82000 -0.648
95.84000 -1.900
95.86000 0.603
95.88000 3.226
95.90000 3.158
95.92000 3.200
95.94000 1.412
95.96000 -1.111
95.98000 1.280
96.00000 5.096
96.02000 1.619
96.04000 2.820
96.06000 3.756
96.08000 5.013
96.10000 0.987
96.12000 2.857
96.14000 1.929
96.16000 1.815
96.18000 5.184
96.20000 1.261
96.22000 0.100
96.24000 1.302
96.26000 4.580
96.28000 1.489
96.30000 -1.608
96.32000 1.021
96.34000 1.248
96.36000 0.468
96.38000 3.405
96.40000 3.445
96.42000 1.651
96.44000 0.940
96.46000 0.973
96.48000 2.098
96.50000 2.632
96.52000 2.200
96.54000 6.548
96.56000 3.642
96.58000 2.935
96.60000 2.264
96.62000 4.476
96.64000 4.937
96.66000 2.166
96.68000 -1.743
96.70000 -1.508
96.72000 0.988
96.74000 3.707
96.76000 4.730
96.78000 4.813
96.80000 -1.869
96.82000 1.414
96.84000 5.376
96.86000 4.940
96.88000 0.015
96.90000 3.446
96.92000 7.680
96.94000 4.624
96.96000 0.404
96.98000 5.147
97.00000 2.398
97.02000 7.588
97.04000 5.936
97.06000 0.901
97.08000 -0.605
97.10000 2.293
97.12000 2.369
97.14000 3.707
97.16000 6.460
97.18000 6.332
97.20000 7.795
97.22000 7.763
97.24000 7.119
97.26000 7.218
97.28000 5.517
97.30000 5.459
97.32000 1.597
97.34000 7.128
97.36000 3.204
97.38000 6.668
97.40000 8.464
97.42000 5.168
97.44000 2.351
97.46000 1.843
97.48000 3.334
97.50000 2.006
97.52000 1.801
97.54000 1.361
97.56000 2.261
97.58000 1.479
97.60000 1.169
97.62000 1.430
97.64000 0.831
97.66000 -1.134
97.68000 3.294
97.70000 2.958
97.72000 1.744
97.74000 -0.099
97.76000 1.169
97.78000 0.190
97.80000 -1.853
97.82000 2.031
97.84000 6.546
97.86000 4.583
97.88000 7.172
97.90000 7.386
97.92000 4.605
97.94000 2.478
97.96000 0.821
97.98000 -0.110
98.00000 4.314
98.02000 4.792
98.04000 5.701
98.06000 3.713
98.08000 2.358
98.10000 3.179
98.12000 -1.280
98.14000 -0.357
98.16000 3.061
98.18000 4.625
98.20000 0.875
98.22000 2.873
98.24000 2.568
98.26000 3.061
98.28000 6.521
98.30000 7.545
98.32000 8.074
98.34000 9.038
98.36000 2.967
98.38000 0.226
98.40000 2.554
98.42000 -1.827
98.44000 0.458
98.46000 2.400
98.48000 1.054
98.50000 3.254
98.52000 2.443
98.54000 4.164
98.56000 5.104
98.58000 6.257
98.60000 4.174
98.62000 6.505
98.64000 0.750
98.66000 1.794
98.68000 5.070
98.70000 1.144
98.72000 4.511
98.74000 5.743
98.76000 3.230
98.78000 0.631
98.80000 2.739
98.82000 5.018
98.84000 2.492
98.86000 4.991
98.88000 1.844
98.90000 4.656
98.92000 7.555
98.94000 6.260
98.96000 3.705
98.98000 6.362
99.00000 3.871
99.02000 6.011
99.04000 2.891
99.06000 5.568
99.08000 4.356
99.10000 0.592
99.12000 -0.528
99.14000 -1.420
99.16000 2.598
99.18000 6.911
99.20000 5.251
99.22000 8.854
99.24000 5.443
99.26000 3.640
99.28000 2.860
99.30000 -1.699
99.32000 -1.705
99.34000 -0.373
99.36000 4.366
99.38000 8.146
99.40000 5.792
99.42000 -0.031
99.44000 0.835
99.46000 0.441
99.48000 3.066
99.50000 11.171
99.52000 14.142
99.54000 4.200
99.56000 -0.473
99.58000 -1.836
99.60000 5.982
99.62000 3.496
99.64000 3.618
99.66000 4.937
99.68000 2.197
99.70000 2.361
99.72000 -1.879
99.74000 -1.089
99.76000 1.522
99.78000 2.638
99.80000 12.252
99.82000 4.811
99.84000 -3.414
99.86000 5.000
99.88000 2.650
99.90000 2.032
99.92000 -2.315
99.94000 7.938
99.96000 5.602
99.98000 0.000
