'Id: "0011388" Comment: "Integrate frame 0011388_Au-Ir-Rh_Rh-rich_XRD-Mapping-151-0000.gfrmwith cursor Wedge Cursor #5" Operator: "B?rgel" Anode: "Cu" Wavelength: "1.5406" Scantype: "2Theta (TwoTheta)" TimePerStep: "1" X: "22.5" Y: "-4.5" Z: "5.95" 
10.00000 0.000
10.02000 7.247
10.04000 13.728
10.06000 5.697
10.08000 10.181
10.10000 1.887
10.12000 17.074
10.14000 14.396
10.16000 13.043
10.18000 12.082
10.20000 5.568
10.22000 8.777
10.24000 18.771
10.26000 20.310
10.28000 23.090
10.30000 26.603
10.32000 21.460
10.34000 9.647
10.36000 20.689
10.38000 20.640
10.40000 21.977
10.42000 20.866
10.44000 21.270
10.46000 19.262
10.48000 15.578
10.50000 11.999
10.52000 18.147
10.54000 13.270
10.56000 6.451
10.58000 11.814
10.60000 21.657
10.62000 18.448
10.64000 13.438
10.66000 15.279
10.68000 20.611
10.70000 21.537
10.72000 15.679
10.74000 26.121
10.76000 23.669
10.78000 28.561
10.80000 22.487
10.82000 31.639
10.84000 27.633
10.86000 21.200
10.88000 25.371
10.90000 19.298
10.92000 16.419
10.94000 25.002
10.96000 20.645
10.98000 18.820
11.00000 18.271
11.02000 18.227
11.04000 24.540
11.06000 25.483
11.08000 30.154
11.10000 31.765
11.12000 34.367
11.14000 31.559
11.16000 21.518
11.18000 26.888
11.20000 33.681
11.22000 26.315
11.24000 36.944
11.26000 33.169
11.28000 29.361
11.30000 18.182
11.32000 12.101
11.34000 15.372
11.36000 18.424
11.38000 24.098
11.40000 27.737
11.42000 24.646
11.44000 15.583
11.46000 16.481
11.48000 27.211
11.50000 22.986
11.52000 25.259
11.54000 30.857
11.56000 23.376
11.58000 24.024
11.60000 25.846
11.62000 30.593
11.64000 33.979
11.66000 23.875
11.68000 22.684
11.70000 24.084
11.72000 21.204
11.74000 28.550
11.76000 22.626
11.78000 26.176
11.80000 29.654
11.82000 27.362
11.84000 23.462
11.86000 27.725
11.88000 38.467
11.90000 30.372
11.92000 27.755
11.94000 38.844
11.96000 40.798
11.98000 26.941
12.00000 19.403
12.02000 23.226
12.04000 27.180
12.06000 23.635
12.08000 20.093
12.10000 18.438
12.12000 21.993
12.14000 28.367
12.16000 21.055
12.18000 19.053
12.20000 19.089
12.22000 26.208
12.24000 32.580
12.26000 26.207
12.28000 23.428
12.30000 30.027
12.32000 38.144
12.34000 30.904
12.36000 34.463
12.38000 38.957
12.40000 29.515
12.42000 32.324
12.44000 26.852
12.46000 27.518
12.48000 25.008
12.50000 33.576
12.52000 24.175
12.54000 20.718
12.56000 29.767
12.58000 31.013
12.60000 32.228
12.62000 33.574
12.64000 31.570
12.66000 27.050
12.68000 36.219
12.70000 36.822
12.72000 23.513
12.74000 22.924
12.76000 21.791
12.78000 32.485
12.80000 34.232
12.82000 27.302
12.84000 25.643
12.86000 29.407
12.88000 30.101
12.90000 33.696
12.92000 32.918
12.94000 39.994
12.96000 26.425
12.98000 30.919
13.00000 30.334
13.02000 25.146
13.04000 24.262
13.06000 25.971
13.08000 26.558
13.10000 30.305
13.12000 28.977
13.14000 28.392
13.16000 22.339
13.18000 26.420
13.20000 30.804
13.22000 35.637
13.24000 36.638
13.26000 28.606
13.28000 25.935
13.30000 37.630
13.32000 39.253
13.34000 41.045
13.36000 24.522
13.38000 25.124
13.40000 32.792
13.42000 26.006
13.44000 32.975
13.46000 31.848
13.48000 28.430
13.50000 31.681
13.52000 25.686
13.54000 26.530
13.56000 29.301
13.58000 24.852
13.60000 21.430
13.62000 20.817
13.64000 26.048
13.66000 31.512
13.68000 30.113
13.70000 24.815
13.72000 20.249
13.74000 21.252
13.76000 18.091
13.78000 13.342
13.80000 24.256
13.82000 31.893
13.84000 31.965
13.86000 29.290
13.88000 21.327
13.90000 23.267
13.92000 29.173
13.94000 24.644
13.96000 27.043
13.98000 15.556
14.00000 12.673
14.02000 23.095
14.04000 27.613
14.06000 20.618
14.08000 17.500
14.10000 22.813
14.12000 15.860
14.14000 16.225
14.16000 20.508
14.18000 27.534
14.20000 21.363
14.22000 22.450
14.24000 25.951
14.26000 19.917
14.28000 20.621
14.30000 23.744
14.32000 16.829
14.34000 16.439
14.36000 20.887
14.38000 25.996
14.40000 21.167
14.42000 24.006
14.44000 21.765
14.46000 16.225
14.48000 14.242
14.50000 15.072
14.52000 25.378
14.54000 23.102
14.56000 13.453
14.58000 4.409
14.60000 16.233
14.62000 18.228
14.64000 19.657
14.66000 19.912
14.68000 13.772
14.70000 12.920
14.72000 14.661
14.74000 3.309
14.76000 -2.667
14.78000 22.512
14.80000 15.379
14.82000 22.072
14.84000 17.232
14.86000 10.746
14.88000 6.822
14.90000 14.504
14.92000 15.563
14.94000 14.240
14.96000 12.345
14.98000 8.031
15.00000 11.241
15.02000 20.239
15.04000 19.783
15.06000 13.259
15.08000 18.096
15.10000 11.426
15.12000 14.641
15.14000 6.139
15.16000 6.243
15.18000 11.098
15.20000 6.441
15.22000 3.320
15.24000 9.027
15.26000 11.204
15.28000 10.284
15.30000 11.783
15.32000 12.712
15.34000 20.330
15.36000 19.949
15.38000 17.467
15.40000 18.430
15.42000 16.848
15.44000 13.589
15.46000 17.038
15.48000 11.997
15.50000 18.267
15.52000 14.787
15.54000 2.845
15.56000 2.488
15.58000 10.786
15.60000 12.511
15.62000 10.458
15.64000 9.409
15.66000 11.369
15.68000 13.287
15.70000 19.540
15.72000 13.159
15.74000 7.180
15.76000 13.485
15.78000 9.460
15.80000 13.497
15.82000 13.775
15.84000 11.797
15.86000 9.038
15.88000 13.146
15.90000 11.587
15.92000 8.133
15.94000 3.858
15.96000 12.492
15.98000 10.102
16.00000 6.301
16.02000 10.648
16.04000 8.260
16.06000 2.211
16.08000 3.220
16.10000 11.831
16.12000 13.091
16.14000 13.494
16.16000 6.553
16.18000 3.121
16.20000 7.677
16.22000 7.724
16.24000 6.873
16.26000 8.312
16.28000 10.932
16.30000 9.213
16.32000 2.704
16.34000 5.516
16.36000 -0.695
16.38000 6.630
16.40000 4.026
16.42000 4.274
16.44000 11.789
16.46000 12.409
16.48000 13.282
16.50000 19.180
16.52000 16.381
16.54000 10.042
16.56000 10.210
16.58000 10.667
16.60000 16.187
16.62000 11.666
16.64000 4.646
16.66000 1.194
16.68000 2.961
16.70000 5.023
16.72000 10.041
16.74000 6.977
16.76000 8.716
16.78000 6.109
16.80000 2.137
16.82000 3.174
16.84000 4.588
16.86000 6.887
16.88000 12.328
16.90000 6.880
16.92000 5.938
16.94000 1.706
16.96000 0.186
16.98000 9.551
17.00000 6.836
17.02000 3.638
17.04000 1.990
17.06000 1.836
17.08000 1.392
17.10000 2.316
17.12000 2.623
17.14000 5.948
17.16000 3.263
17.18000 -2.908
17.20000 -4.182
17.22000 2.998
17.24000 3.634
17.26000 11.248
17.28000 8.002
17.30000 10.858
17.32000 15.147
17.34000 9.418
17.36000 11.154
17.38000 2.302
17.40000 -4.381
17.42000 4.308
17.44000 -1.318
17.46000 2.582
17.48000 6.391
17.50000 8.464
17.52000 6.898
17.54000 9.294
17.56000 10.016
17.58000 5.692
17.60000 2.863
17.62000 6.562
17.64000 4.782
17.66000 4.161
17.68000 4.642
17.70000 5.022
17.72000 11.895
17.74000 10.256
17.76000 4.871
17.78000 4.758
17.80000 5.414
17.82000 4.499
17.84000 -0.445
17.86000 7.251
17.88000 10.452
17.90000 10.339
17.92000 5.839
17.94000 6.436
17.96000 4.618
17.98000 1.953
18.00000 -4.354
18.02000 -0.357
18.04000 2.926
18.06000 -2.951
18.08000 2.860
18.10000 -1.983
18.12000 2.628
18.14000 4.192
18.16000 3.775
18.18000 -0.459
18.20000 -0.533
18.22000 4.404
18.24000 4.762
18.26000 4.265
18.28000 9.444
18.30000 8.292
18.32000 -1.375
18.34000 6.526
18.36000 2.750
18.38000 3.270
18.40000 4.577
18.42000 6.428
18.44000 7.843
18.46000 6.860
18.48000 -4.333
18.50000 1.066
18.52000 1.354
18.54000 0.728
18.56000 3.099
18.58000 6.685
18.60000 16.823
18.62000 9.821
18.64000 1.318
18.66000 6.405
18.68000 5.867
18.70000 -2.644
18.72000 0.826
18.74000 -3.287
18.76000 2.515
18.78000 7.662
18.80000 -0.541
18.82000 -4.008
18.84000 -3.766
18.86000 3.718
18.88000 7.609
18.90000 8.546
18.92000 4.410
18.94000 0.498
18.96000 -2.490
18.98000 2.067
19.00000 -1.767
19.02000 0.014
19.04000 4.920
19.06000 2.424
19.08000 -0.470
19.10000 -1.491
19.12000 9.133
19.14000 5.954
19.16000 0.181
19.18000 5.113
19.20000 4.763
19.22000 8.112
19.24000 0.916
19.26000 -1.177
19.28000 2.916
19.30000 -0.858
19.32000 5.297
19.34000 5.409
19.36000 -1.591
19.38000 0.121
19.40000 2.549
19.42000 6.477
19.44000 4.835
19.46000 5.755
19.48000 -0.810
19.50000 2.381
19.52000 6.636
19.54000 -2.370
19.56000 -2.052
19.58000 4.967
19.60000 1.376
19.62000 3.483
19.64000 7.795
19.66000 4.792
19.68000 3.665
19.70000 2.191
19.72000 -3.214
19.74000 -2.133
19.76000 4.076
19.78000 0.202
19.80000 5.184
19.82000 0.236
19.84000 -0.663
19.86000 -1.098
19.88000 -0.171
19.90000 4.885
19.92000 4.453
19.94000 -0.139
19.96000 -2.211
19.98000 5.241
20.00000 1.505
20.02000 1.153
20.04000 6.486
20.06000 0.888
20.08000 1.692
20.10000 4.798
20.12000 0.908
20.14000 5.832
20.16000 5.335
20.18000 5.330
20.20000 3.804
20.22000 3.681
20.24000 7.896
20.26000 9.097
20.28000 4.529
20.30000 1.575
20.32000 2.983
20.34000 7.499
20.36000 6.050
20.38000 3.119
20.40000 15.390
20.42000 17.620
20.44000 10.853
20.46000 5.842
20.48000 8.077
20.50000 3.072
20.52000 6.006
20.54000 8.619
20.56000 11.107
20.58000 4.796
20.60000 -3.972
20.62000 -4.155
20.64000 4.767
20.66000 3.519
20.68000 4.479
20.70000 3.349
20.72000 8.786
20.74000 4.231
20.76000 5.033
20.78000 8.237
20.80000 4.586
20.82000 8.833
20.84000 12.263
20.86000 9.923
20.88000 12.277
20.90000 20.785
20.92000 13.796
20.94000 9.473
20.96000 7.867
20.98000 3.626
21.00000 3.702
21.02000 7.054
21.04000 9.143
21.06000 9.688
21.08000 9.948
21.10000 10.040
21.12000 5.821
21.14000 11.272
21.16000 13.321
21.18000 9.697
21.20000 0.894
21.22000 1.061
21.24000 3.777
21.26000 8.042
21.28000 4.441
21.30000 2.530
21.32000 5.274
21.34000 -0.997
21.36000 1.598
21.38000 1.366
21.40000 -0.475
21.42000 8.688
21.44000 7.499
21.46000 8.715
21.48000 5.143
21.50000 -0.488
21.52000 3.467
21.54000 5.551
21.56000 4.153
21.58000 7.841
21.60000 4.916
21.62000 1.048
21.64000 3.616
21.66000 2.475
21.68000 6.048
21.70000 9.921
21.72000 6.057
21.74000 4.059
21.76000 1.402
21.78000 6.400
21.80000 7.158
21.82000 7.648
21.84000 7.447
21.86000 2.819
21.88000 5.546
21.90000 6.471
21.92000 6.476
21.94000 9.580
21.96000 5.867
21.98000 6.298
22.00000 4.811
22.02000 3.039
22.04000 4.792
22.06000 4.431
22.08000 0.280
22.10000 2.911
22.12000 2.154
22.14000 5.816
22.16000 8.440
22.18000 3.613
22.20000 1.408
22.22000 4.216
22.24000 2.866
22.26000 6.504
22.28000 6.126
22.30000 -1.440
22.32000 -4.072
22.34000 -0.587
22.36000 4.401
22.38000 3.584
22.40000 2.939
22.42000 8.181
22.44000 5.522
22.46000 2.486
22.48000 4.247
22.50000 4.793
22.52000 7.501
22.54000 15.938
22.56000 6.185
22.58000 5.057
22.60000 5.421
22.62000 8.530
22.64000 7.071
22.66000 5.874
22.68000 1.046
22.70000 4.274
22.72000 5.334
22.74000 7.080
22.76000 6.761
22.78000 5.422
22.80000 11.583
22.82000 10.485
22.84000 3.368
22.86000 6.187
22.88000 8.169
22.90000 6.227
22.92000 5.325
22.94000 6.092
22.96000 7.616
22.98000 5.534
23.00000 3.399
23.02000 9.077
23.04000 2.361
23.06000 -2.502
23.08000 4.474
23.10000 9.654
23.12000 5.382
23.14000 -1.094
23.16000 2.350
23.18000 6.584
23.20000 11.601
23.22000 15.942
23.24000 7.948
23.26000 4.942
23.28000 1.327
23.30000 -4.012
23.32000 2.443
23.34000 7.765
23.36000 10.802
23.38000 5.512
23.40000 4.343
23.42000 5.604
23.44000 7.420
23.46000 8.325
23.48000 5.041
23.50000 8.529
23.52000 3.768
23.54000 3.213
23.56000 3.389
23.58000 3.896
23.60000 0.893
23.62000 5.037
23.64000 7.069
23.66000 8.768
23.68000 6.933
23.70000 3.406
23.72000 -0.112
23.74000 1.626
23.76000 2.363
23.78000 5.477
23.80000 10.078
23.82000 8.401
23.84000 4.921
23.86000 -0.726
23.88000 -1.281
23.90000 2.881
23.92000 4.271
23.94000 6.087
23.96000 5.232
23.98000 5.583
24.00000 1.729
24.02000 0.887
24.04000 3.444
24.06000 4.070
24.08000 3.731
24.10000 4.748
24.12000 4.862
24.14000 4.933
24.16000 4.232
24.18000 3.211
24.20000 3.531
24.22000 2.918
24.24000 5.204
24.26000 3.622
24.28000 5.680
24.30000 10.906
24.32000 9.019
24.34000 9.872
24.36000 7.554
24.38000 2.766
24.40000 7.056
24.42000 7.768
24.44000 4.018
24.46000 5.390
24.48000 11.601
24.50000 11.364
24.52000 7.066
24.54000 6.329
24.56000 4.465
24.58000 3.277
24.60000 4.117
24.62000 5.198
24.64000 15.191
24.66000 10.876
24.68000 0.283
24.70000 -0.938
24.72000 6.994
24.74000 2.544
24.76000 0.448
24.78000 6.631
24.80000 10.724
24.82000 3.036
24.84000 3.685
24.86000 6.713
24.88000 4.530
24.90000 3.482
24.92000 -1.320
24.94000 0.408
24.96000 5.720
24.98000 5.303
25.00000 -0.716
25.02000 -1.636
25.04000 2.148
25.06000 4.740
25.08000 5.550
25.10000 5.374
25.12000 4.207
25.14000 5.163
25.16000 2.330
25.18000 5.273
25.20000 5.590
25.22000 3.588
25.24000 -2.697
25.26000 -3.919
25.28000 -2.476
25.30000 2.506
25.32000 8.859
25.34000 10.254
25.36000 10.172
25.38000 5.349
25.40000 7.436
25.42000 5.054
25.44000 2.152
25.46000 4.336
25.48000 0.502
25.50000 3.538
25.52000 5.118
25.54000 7.569
25.56000 4.717
25.58000 0.756
25.60000 4.398
25.62000 3.722
25.64000 5.727
25.66000 4.958
25.68000 1.523
25.70000 5.856
25.72000 7.516
25.74000 1.799
25.76000 -1.836
25.78000 2.527
25.80000 7.424
25.82000 5.643
25.84000 3.126
25.86000 0.762
25.88000 0.412
25.90000 3.126
25.92000 4.621
25.94000 3.825
25.96000 2.660
25.98000 1.433
26.00000 4.992
26.02000 1.575
26.04000 -2.466
26.06000 1.025
26.08000 6.296
26.10000 5.260
26.12000 4.263
26.14000 0.992
26.16000 5.266
26.18000 2.144
26.20000 3.003
26.22000 6.819
26.24000 5.081
26.26000 1.711
26.28000 0.697
26.30000 0.682
26.32000 4.535
26.34000 2.188
26.36000 5.306
26.38000 12.111
26.40000 6.450
26.42000 4.824
26.44000 2.721
26.46000 -0.110
26.48000 1.820
26.50000 11.373
26.52000 5.935
26.54000 2.365
26.56000 0.889
26.58000 -3.865
26.60000 -0.093
26.62000 7.322
26.64000 9.438
26.66000 7.265
26.68000 7.485
26.70000 1.897
26.72000 0.903
26.74000 2.008
26.76000 2.870
26.78000 5.453
26.80000 6.791
26.82000 8.406
26.84000 4.627
26.86000 6.409
26.88000 9.639
26.90000 8.451
26.92000 7.972
26.94000 7.985
26.96000 6.054
26.98000 7.989
27.00000 6.795
27.02000 1.714
27.04000 1.072
27.06000 5.156
27.08000 4.392
27.10000 3.599
27.12000 -1.206
27.14000 0.740
27.16000 1.396
27.18000 -3.324
27.20000 -0.155
27.22000 4.553
27.24000 8.232
27.26000 3.357
27.28000 1.944
27.30000 2.599
27.32000 4.931
27.34000 0.196
27.36000 5.862
27.38000 2.176
27.40000 -1.332
27.42000 -1.153
27.44000 0.368
27.46000 5.776
27.48000 4.331
27.50000 2.747
27.52000 10.410
27.54000 9.216
27.56000 2.575
27.58000 6.379
27.60000 7.929
27.62000 2.662
27.64000 1.077
27.66000 -0.058
27.68000 2.269
27.70000 3.995
27.72000 1.029
27.74000 4.669
27.76000 7.406
27.78000 5.594
27.80000 5.875
27.82000 7.336
27.84000 2.261
27.86000 -1.104
27.88000 7.151
27.90000 11.881
27.92000 9.217
27.94000 5.318
27.96000 7.388
27.98000 5.689
28.00000 -1.240
28.02000 -3.766
28.04000 -1.996
28.06000 6.886
28.08000 11.005
28.10000 10.465
28.12000 12.378
28.14000 4.909
28.16000 4.675
28.18000 1.430
28.20000 6.347
28.22000 5.803
28.24000 4.973
28.26000 7.439
28.28000 4.634
28.30000 1.257
28.32000 0.721
28.34000 5.379
28.36000 8.444
28.38000 11.200
28.40000 6.925
28.42000 0.583
28.44000 3.594
28.46000 7.167
28.48000 4.403
28.50000 6.106
28.52000 6.991
28.54000 4.143
28.56000 5.622
28.58000 4.218
28.60000 -3.757
28.62000 1.435
28.64000 1.682
28.66000 2.216
28.68000 2.757
28.70000 8.644
28.72000 2.451
28.74000 7.329
28.76000 9.809
28.78000 7.529
28.80000 6.772
28.82000 7.106
28.84000 2.042
28.86000 7.102
28.88000 4.649
28.90000 1.827
28.92000 5.155
28.94000 5.837
28.96000 7.395
28.98000 6.937
29.00000 7.446
29.02000 -0.103
29.04000 -1.350
29.06000 3.593
29.08000 2.866
29.10000 1.867
29.12000 3.075
29.14000 -3.053
29.16000 -2.288
29.18000 1.483
29.20000 0.218
29.22000 3.193
29.24000 1.434
29.26000 3.635
29.28000 1.880
29.30000 5.978
29.32000 3.396
29.34000 3.262
29.36000 0.050
29.38000 0.856
29.40000 1.311
29.42000 2.573
29.44000 4.372
29.46000 2.768
29.48000 -3.067
29.50000 -1.885
29.52000 2.657
29.54000 5.793
29.56000 3.118
29.58000 -1.431
29.60000 -1.258
29.62000 3.058
29.64000 3.787
29.66000 2.764
29.68000 4.146
29.70000 8.155
29.72000 7.479
29.74000 7.512
29.76000 6.436
29.78000 7.791
29.80000 5.930
29.82000 3.609
29.84000 0.743
29.86000 6.127
29.88000 7.390
29.90000 4.894
29.92000 -0.309
29.94000 1.095
29.96000 4.770
29.98000 6.736
30.00000 -0.873
30.02000 0.595
30.04000 4.448
30.06000 7.837
30.08000 1.364
30.10000 1.993
30.12000 3.566
30.14000 3.815
30.16000 4.570
30.18000 6.049
30.20000 8.266
30.22000 8.735
30.24000 9.374
30.26000 2.533
30.28000 0.873
30.30000 -1.463
30.32000 5.645
30.34000 7.996
30.36000 5.764
30.38000 2.001
30.40000 4.002
30.42000 9.214
30.44000 5.268
30.46000 2.106
30.48000 2.575
30.50000 0.238
30.52000 -3.615
30.54000 -3.216
30.56000 5.457
30.58000 10.992
30.60000 15.848
30.62000 13.488
30.64000 6.500
30.66000 7.421
30.68000 8.137
30.70000 9.517
30.72000 8.928
30.74000 3.742
30.76000 4.297
30.78000 3.826
30.80000 1.821
30.82000 1.508
30.84000 7.264
30.86000 9.077
30.88000 8.874
30.90000 6.639
30.92000 3.877
30.94000 4.269
30.96000 0.414
30.98000 5.697
31.00000 8.913
31.02000 5.882
31.04000 8.519
31.06000 11.338
31.08000 9.795
31.10000 6.671
31.12000 5.157
31.14000 5.522
31.16000 3.875
31.18000 -1.751
31.20000 2.664
31.22000 2.276
31.24000 8.004
31.26000 7.589
31.28000 3.803
31.30000 3.385
31.32000 3.783
31.34000 4.132
31.36000 2.246
31.38000 -0.476
31.40000 3.463
31.42000 1.725
31.44000 -1.563
31.46000 5.840
31.48000 6.706
31.50000 4.385
31.52000 3.527
31.54000 2.513
31.56000 -0.209
31.58000 -0.201
31.60000 -0.308
31.62000 5.469
31.64000 8.934
31.66000 -0.164
31.68000 4.605
31.70000 7.897
31.72000 6.965
31.74000 4.920
31.76000 1.566
31.78000 3.109
31.80000 4.779
31.82000 7.005
31.84000 6.961
31.86000 11.020
31.88000 7.924
31.90000 7.965
31.92000 3.270
31.94000 1.488
31.96000 6.976
31.98000 4.634
32.00000 -0.349
32.02000 2.335
32.04000 4.175
32.06000 5.747
32.08000 3.740
32.10000 -0.966
32.12000 5.530
32.14000 3.567
32.16000 1.062
32.18000 -1.186
32.20000 -3.579
32.22000 -1.629
32.24000 5.033
32.26000 -1.338
32.28000 7.321
32.30000 5.470
32.32000 5.663
32.34000 4.243
32.36000 5.396
32.38000 7.401
32.40000 1.724
32.42000 2.869
32.44000 4.749
32.46000 4.690
32.48000 5.669
32.50000 3.311
32.52000 -0.024
32.54000 0.308
32.56000 7.837
32.58000 7.944
32.60000 2.039
32.62000 3.154
32.64000 2.715
32.66000 0.612
32.68000 2.823
32.70000 5.936
32.72000 11.832
32.74000 7.270
32.76000 8.083
32.78000 5.562
32.80000 1.830
32.82000 4.761
32.84000 8.546
32.86000 8.134
32.88000 6.223
32.90000 7.452
32.92000 2.004
32.94000 0.214
32.96000 -2.415
32.98000 -3.553
33.00000 3.803
33.02000 3.930
33.04000 5.503
33.06000 6.082
33.08000 3.433
33.10000 5.205
33.12000 4.239
33.14000 -3.276
33.16000 -0.981
33.18000 5.966
33.20000 7.274
33.22000 7.718
33.24000 1.981
33.26000 0.837
33.28000 4.701
33.30000 5.303
33.32000 9.138
33.34000 7.925
33.36000 4.342
33.38000 5.131
33.40000 3.231
33.42000 2.397
33.44000 7.734
33.46000 12.456
33.48000 7.974
33.50000 6.888
33.52000 8.617
33.54000 6.574
33.56000 5.113
33.58000 9.477
33.60000 6.990
33.62000 7.326
33.64000 8.860
33.66000 6.473
33.68000 2.523
33.70000 4.524
33.72000 4.252
33.74000 6.879
33.76000 -3.527
33.78000 -1.578
33.80000 0.286
33.82000 5.318
33.84000 5.300
33.86000 3.749
33.88000 1.171
33.90000 2.608
33.92000 7.982
33.94000 5.466
33.96000 7.601
33.98000 6.886
34.00000 6.793
34.02000 7.630
34.04000 8.357
34.06000 6.969
34.08000 5.607
34.10000 5.392
34.12000 3.940
34.14000 5.760
34.16000 9.415
34.18000 7.807
34.20000 5.721
34.22000 4.405
34.24000 0.873
34.26000 4.093
34.28000 5.417
34.30000 -0.085
34.32000 1.501
34.34000 3.629
34.36000 2.042
34.38000 2.517
34.40000 -1.765
34.42000 2.286
34.44000 5.128
34.46000 6.398
34.48000 3.370
34.50000 1.111
34.52000 6.751
34.54000 4.563
34.56000 3.993
34.58000 3.952
34.60000 3.650
34.62000 4.590
34.64000 1.853
34.66000 0.770
34.68000 -1.832
34.70000 0.273
34.72000 3.380
34.74000 5.400
34.76000 4.677
34.78000 4.125
34.80000 4.697
34.82000 1.582
34.84000 0.346
34.86000 4.974
34.88000 6.016
34.90000 4.485
34.92000 2.108
34.94000 4.910
34.96000 0.905
34.98000 0.183
35.00000 -1.035
35.02000 0.064
35.04000 -2.190
35.06000 -0.991
35.08000 1.023
35.10000 -0.111
35.12000 2.182
35.14000 4.181
35.16000 2.754
35.18000 0.136
35.20000 5.442
35.22000 3.974
35.24000 4.682
35.26000 7.948
35.28000 7.293
35.30000 3.651
35.32000 1.345
35.34000 5.540
35.36000 5.096
35.38000 1.897
35.40000 3.653
35.42000 4.081
35.44000 3.908
35.46000 1.590
35.48000 5.009
35.50000 7.556
35.52000 6.198
35.54000 0.739
35.56000 0.832
35.58000 4.584
35.60000 3.129
35.62000 4.387
35.64000 2.075
35.66000 -3.491
35.68000 1.841
35.70000 6.675
35.72000 4.325
35.74000 3.835
35.76000 4.974
35.78000 1.811
35.80000 1.231
35.82000 0.492
35.84000 7.431
35.86000 5.564
35.88000 6.522
35.90000 6.016
35.92000 2.395
35.94000 2.223
35.96000 3.221
35.98000 1.673
36.00000 -1.291
36.02000 2.657
36.04000 3.417
36.06000 4.743
36.08000 4.379
36.10000 -1.556
36.12000 -3.500
36.14000 1.395
36.16000 6.584
36.18000 5.127
36.20000 -2.165
36.22000 -3.020
36.24000 4.742
36.26000 4.382
36.28000 1.402
36.30000 0.915
36.32000 8.460
36.34000 6.490
36.36000 5.863
36.38000 5.343
36.40000 3.474
36.42000 6.489
36.44000 5.740
36.46000 0.293
36.48000 -0.057
36.50000 -0.746
36.52000 -1.821
36.54000 -0.307
36.56000 4.115
36.58000 3.094
36.60000 1.167
36.62000 8.904
36.64000 9.197
36.66000 3.185
36.68000 -0.980
36.70000 -0.582
36.72000 1.123
36.74000 5.265
36.76000 5.008
36.78000 0.332
36.80000 -1.367
36.82000 4.144
36.84000 3.101
36.86000 5.514
36.88000 3.088
36.90000 1.468
36.92000 5.324
36.94000 3.803
36.96000 2.182
36.98000 2.145
37.00000 -3.525
37.02000 -1.986
37.04000 6.344
37.06000 5.393
37.08000 2.862
37.10000 0.086
37.12000 0.497
37.14000 0.730
37.16000 0.614
37.18000 -2.736
37.20000 -1.561
37.22000 0.877
37.24000 2.977
37.26000 5.071
37.28000 3.197
37.30000 0.814
37.32000 0.217
37.34000 4.688
37.36000 6.602
37.38000 8.670
37.40000 8.739
37.42000 8.050
37.44000 1.213
37.46000 -3.536
37.48000 2.144
37.50000 3.402
37.52000 6.593
37.54000 9.316
37.56000 8.408
37.58000 5.524
37.60000 6.196
37.62000 1.706
37.64000 -0.750
37.66000 0.256
37.68000 1.885
37.70000 4.300
37.72000 3.338
37.74000 6.822
37.76000 6.057
37.78000 3.195
37.80000 2.780
37.82000 1.695
37.84000 1.860
37.86000 2.878
37.88000 3.555
37.90000 2.321
37.92000 -0.123
37.94000 4.224
37.96000 10.261
37.98000 9.381
38.00000 4.783
38.02000 2.348
38.04000 4.259
38.06000 6.563
38.08000 4.780
38.10000 6.561
38.12000 5.806
38.14000 5.878
38.16000 6.590
38.18000 13.636
38.20000 12.147
38.22000 10.833
38.24000 6.982
38.26000 8.114
38.28000 11.074
38.30000 6.646
38.32000 7.900
38.34000 7.606
38.36000 10.673
38.38000 10.835
38.40000 16.907
38.42000 18.784
38.44000 13.099
38.46000 11.739
38.48000 16.056
38.50000 18.575
38.52000 18.720
38.54000 16.389
38.56000 16.857
38.58000 23.305
38.60000 27.073
38.62000 24.577
38.64000 23.784
38.66000 20.665
38.68000 14.544
38.70000 18.637
38.72000 17.509
38.74000 15.355
38.76000 20.039
38.78000 19.838
38.80000 24.620
38.82000 22.477
38.84000 25.043
38.86000 25.601
38.88000 20.896
38.90000 20.701
38.92000 26.499
38.94000 30.477
38.96000 24.265
38.98000 25.303
39.00000 31.739
39.02000 27.263
39.04000 24.063
39.06000 28.107
39.08000 36.361
39.10000 36.760
39.12000 37.839
39.14000 34.307
39.16000 33.260
39.18000 40.595
39.20000 43.561
39.22000 44.757
39.24000 44.241
39.26000 44.241
39.28000 45.607
39.30000 47.181
39.32000 45.637
39.34000 46.820
39.36000 51.751
39.38000 57.038
39.40000 58.239
39.42000 63.641
39.44000 61.057
39.46000 64.574
39.48000 68.267
39.50000 68.196
39.52000 70.398
39.54000 68.788
39.56000 70.924
39.58000 80.674
39.60000 81.425
39.62000 87.039
39.64000 91.853
39.66000 96.093
39.68000 100.789
39.70000 105.893
39.72000 105.687
39.74000 105.868
39.76000 117.221
39.78000 118.890
39.80000 131.243
39.82000 141.460
39.84000 138.535
39.86000 144.974
39.88000 157.757
39.90000 162.337
39.92000 160.886
39.94000 174.615
39.96000 184.704
39.98000 187.953
40.00000 194.209
40.02000 208.123
40.04000 221.691
40.06000 234.650
40.08000 247.884
40.10000 258.465
40.12000 267.093
40.14000 274.137
40.16000 285.648
40.18000 296.738
40.20000 307.184
40.22000 325.109
40.24000 333.539
40.26000 355.548
40.28000 371.919
40.30000 388.402
40.32000 398.299
40.34000 417.514
40.36000 433.559
40.38000 447.507
40.40000 466.543
40.42000 476.507
40.44000 486.919
40.46000 500.368
40.48000 514.944
40.50000 524.586
40.52000 527.716
40.54000 543.928
40.56000 545.766
40.58000 554.699
40.60000 561.079
40.62000 575.358
40.64000 584.708
40.66000 578.648
40.68000 565.927
40.70000 564.468
40.72000 561.735
40.74000 567.878
40.76000 567.520
40.78000 553.171
40.80000 544.175
40.82000 532.916
40.84000 532.813
40.86000 516.352
40.88000 485.838
40.90000 481.919
40.92000 465.692
40.94000 463.010
40.96000 446.642
40.98000 426.067
41.00000 415.829
41.02000 402.724
41.04000 388.247
41.06000 367.520
41.08000 353.153
41.10000 341.265
41.12000 324.756
41.14000 305.431
41.16000 292.328
41.18000 279.348
41.20000 271.685
41.22000 255.583
41.24000 244.520
41.26000 237.211
41.28000 221.402
41.30000 207.228
41.32000 199.053
41.34000 189.643
41.36000 181.408
41.38000 169.824
41.40000 161.113
41.42000 150.678
41.44000 142.157
41.46000 135.606
41.48000 126.644
41.50000 122.672
41.52000 117.768
41.54000 114.041
41.56000 101.352
41.58000 99.505
41.60000 95.188
41.62000 95.342
41.64000 84.782
41.66000 79.338
41.68000 78.124
41.70000 71.045
41.72000 70.939
41.74000 69.443
41.76000 61.836
41.78000 58.046
41.80000 59.732
41.82000 57.350
41.84000 50.369
41.86000 49.887
41.88000 46.033
41.90000 45.355
41.92000 41.634
41.94000 36.886
41.96000 35.603
41.98000 34.139
42.00000 33.042
42.02000 33.745
42.04000 31.020
42.06000 35.731
42.08000 36.371
42.10000 26.070
42.12000 23.135
42.14000 25.431
42.16000 29.259
42.18000 26.172
42.20000 22.792
42.22000 22.146
42.24000 21.549
42.26000 20.033
42.28000 14.949
42.30000 13.121
42.32000 14.183
42.34000 14.380
42.36000 12.550
42.38000 14.125
42.40000 12.915
42.42000 13.168
42.44000 14.595
42.46000 10.803
42.48000 10.743
42.50000 9.938
42.52000 11.818
42.54000 11.424
42.56000 9.881
42.58000 3.737
42.60000 7.648
42.62000 5.683
42.64000 4.184
42.66000 4.000
42.68000 9.206
42.70000 11.078
42.72000 6.692
42.74000 7.462
42.76000 9.638
42.78000 6.217
42.80000 0.478
42.82000 1.740
42.84000 4.570
42.86000 5.201
42.88000 3.038
42.90000 -0.769
42.92000 -0.860
42.94000 -0.418
42.96000 1.174
42.98000 4.819
43.00000 1.943
43.02000 0.244
43.04000 2.850
43.06000 2.732
43.08000 0.705
43.10000 3.581
43.12000 3.026
43.14000 -2.577
43.16000 -3.018
43.18000 4.877
43.20000 3.106
43.22000 3.423
43.24000 2.135
43.26000 4.082
43.28000 -0.441
43.30000 0.962
43.32000 3.397
43.34000 4.017
43.36000 5.070
43.38000 3.296
43.40000 -0.039
43.42000 2.035
43.44000 1.561
43.46000 -0.457
43.48000 -1.409
43.50000 0.790
43.52000 -2.055
43.54000 -2.885
43.56000 0.578
43.58000 3.180
43.60000 0.043
43.62000 -2.215
43.64000 1.861
43.66000 4.402
43.68000 4.097
43.70000 4.042
43.72000 2.075
43.74000 3.749
43.76000 -1.127
43.78000 -3.488
43.80000 -1.285
43.82000 2.221
43.84000 3.758
43.86000 2.087
43.88000 1.166
43.90000 -2.615
43.92000 -0.247
43.94000 -1.669
43.96000 0.067
43.98000 -0.673
44.00000 1.703
44.02000 4.428
44.04000 3.691
44.06000 4.640
44.08000 3.977
44.10000 5.190
44.12000 0.564
44.14000 3.623
44.16000 5.782
44.18000 -1.390
44.20000 2.833
44.22000 4.914
44.24000 -1.000
44.26000 -2.285
44.28000 -0.608
44.30000 0.254
44.32000 0.160
44.34000 0.438
44.36000 7.161
44.38000 3.923
44.40000 -1.584
44.42000 1.439
44.44000 -2.359
44.46000 -1.150
44.48000 1.904
44.50000 2.706
44.52000 3.282
44.54000 1.484
44.56000 -2.797
44.58000 2.538
44.60000 6.214
44.62000 5.587
44.64000 2.961
44.66000 0.155
44.68000 -1.466
44.70000 4.301
44.72000 3.350
44.74000 1.562
44.76000 -1.416
44.78000 -3.460
44.80000 0.092
44.82000 -1.727
44.84000 3.665
44.86000 3.112
44.88000 -0.942
44.90000 -3.463
44.92000 -0.645
44.94000 3.346
44.96000 4.652
44.98000 -0.198
45.00000 3.168
45.02000 3.224
45.04000 4.255
45.06000 3.434
45.08000 5.336
45.10000 3.399
45.12000 -0.691
45.14000 -2.515
45.16000 1.357
45.18000 7.871
45.20000 6.469
45.22000 5.106
45.24000 1.731
45.26000 -3.470
45.28000 1.377
45.30000 0.633
45.32000 0.243
45.34000 4.015
45.36000 5.161
45.38000 7.131
45.40000 9.490
45.42000 5.295
45.44000 -0.513
45.46000 1.303
45.48000 4.155
45.50000 8.045
45.52000 9.649
45.54000 8.459
45.56000 10.119
45.58000 13.706
45.60000 13.245
45.62000 9.805
45.64000 8.818
45.66000 11.111
45.68000 7.541
45.70000 11.561
45.72000 16.591
45.74000 15.283
45.76000 16.001
45.78000 11.794
45.80000 13.138
45.82000 13.740
45.84000 16.299
45.86000 18.146
45.88000 16.242
45.90000 12.780
45.92000 21.948
45.94000 21.321
45.96000 14.630
45.98000 16.174
46.00000 20.556
46.02000 21.851
46.04000 22.917
46.06000 21.957
46.08000 19.317
46.10000 12.742
46.12000 17.294
46.14000 25.064
46.16000 26.937
46.18000 27.261
46.20000 25.054
46.22000 23.597
46.24000 24.731
46.26000 30.381
46.28000 29.779
46.30000 31.145
46.32000 28.774
46.34000 29.323
46.36000 35.493
46.38000 33.552
46.40000 36.440
46.42000 35.864
46.44000 35.075
46.46000 34.891
46.48000 39.650
46.50000 37.799
46.52000 41.514
46.54000 38.849
46.56000 41.783
46.58000 46.466
46.60000 51.848
46.62000 44.381
46.64000 51.555
46.66000 52.094
46.68000 47.385
46.70000 45.581
46.72000 49.583
46.74000 55.699
46.76000 57.284
46.78000 59.802
46.80000 55.714
46.82000 55.086
46.84000 54.594
46.86000 60.710
46.88000 64.611
46.90000 69.012
46.92000 72.350
46.94000 68.046
46.96000 64.634
46.98000 59.078
47.00000 62.275
47.02000 65.544
47.04000 68.266
47.06000 72.027
47.08000 73.947
47.10000 76.098
47.12000 74.683
47.14000 65.917
47.16000 71.926
47.18000 73.381
47.20000 78.261
47.22000 73.419
47.24000 72.355
47.26000 70.612
47.28000 69.413
47.30000 67.215
47.32000 70.272
47.34000 73.165
47.36000 73.813
47.38000 68.133
47.40000 69.770
47.42000 71.431
47.44000 68.599
47.46000 64.438
47.48000 62.222
47.50000 65.322
47.52000 55.961
47.54000 58.203
47.56000 60.709
47.58000 61.866
47.60000 68.326
47.62000 64.628
47.64000 60.424
47.66000 60.973
47.68000 59.234
47.70000 47.631
47.72000 49.209
47.74000 49.478
47.76000 46.562
47.78000 48.482
47.80000 45.566
47.82000 46.058
47.84000 41.549
47.86000 41.145
47.88000 43.615
47.90000 42.316
47.92000 43.211
47.94000 41.099
47.96000 31.071
47.98000 36.972
48.00000 34.836
48.02000 32.812
48.04000 26.709
48.06000 22.287
48.08000 22.398
48.10000 27.965
48.12000 23.584
48.14000 19.876
48.16000 16.908
48.18000 23.926
48.20000 23.721
48.22000 25.223
48.24000 24.130
48.26000 21.060
48.28000 20.489
48.30000 20.565
48.32000 14.183
48.34000 15.804
48.36000 14.441
48.38000 15.122
48.40000 12.543
48.42000 13.689
48.44000 15.168
48.46000 15.214
48.48000 10.663
48.50000 6.703
48.52000 3.651
48.54000 10.364
48.56000 11.244
48.58000 8.610
48.60000 8.775
48.62000 6.228
48.64000 9.111
48.66000 5.336
48.68000 0.918
48.70000 6.149
48.72000 4.654
48.74000 1.140
48.76000 2.823
48.78000 1.507
48.80000 4.325
48.82000 1.371
48.84000 3.985
48.86000 1.458
48.88000 3.068
48.90000 5.644
48.92000 5.798
48.94000 5.398
48.96000 2.923
48.98000 0.190
49.00000 -2.383
49.02000 -3.183
49.04000 -2.630
49.06000 -1.399
49.08000 3.655
49.10000 0.796
49.12000 -2.226
49.14000 -2.230
49.16000 -1.648
49.18000 -0.587
49.20000 0.549
49.22000 1.774
49.24000 3.678
49.26000 -1.832
49.28000 2.189
49.30000 6.671
49.32000 4.514
49.34000 4.561
49.36000 2.883
49.38000 0.544
49.40000 -0.992
49.42000 -1.319
49.44000 0.869
49.46000 3.635
49.48000 5.185
49.50000 0.700
49.52000 -0.757
49.54000 3.625
49.56000 9.315
49.58000 10.631
49.60000 7.270
49.62000 7.368
49.64000 1.159
49.66000 -3.093
49.68000 1.236
49.70000 0.458
49.72000 -2.016
49.74000 0.427
49.76000 1.713
49.78000 9.645
49.80000 6.335
49.82000 -1.190
49.84000 0.498
49.86000 -1.182
49.88000 -0.140
49.90000 -0.333
49.92000 2.914
49.94000 4.711
49.96000 2.317
49.98000 -0.248
50.00000 0.933
50.02000 1.815
50.04000 1.699
50.06000 3.299
50.08000 2.850
50.10000 7.659
50.12000 4.146
50.14000 3.591
50.16000 1.397
50.18000 0.297
50.20000 5.424
50.22000 6.852
50.24000 3.122
50.26000 3.301
50.28000 0.521
50.30000 4.537
50.32000 -2.368
50.34000 3.630
50.36000 8.878
50.38000 3.708
50.40000 2.492
50.42000 7.925
50.44000 6.258
50.46000 5.524
50.48000 8.649
50.50000 7.572
50.52000 -2.934
50.54000 -2.451
50.56000 5.251
50.58000 3.527
50.60000 3.083
50.62000 8.028
50.64000 9.305
50.66000 7.621
50.68000 4.771
50.70000 3.250
50.72000 1.945
50.74000 2.107
50.76000 1.573
50.78000 4.211
50.80000 9.751
50.82000 6.092
50.84000 5.215
50.86000 8.363
50.88000 8.963
50.90000 6.692
50.92000 5.853
50.94000 5.604
50.96000 0.607
50.98000 -0.805
51.00000 5.363
51.02000 1.265
51.04000 0.785
51.06000 0.163
51.08000 0.531
51.10000 6.065
51.12000 10.075
51.14000 5.541
51.16000 4.998
51.18000 3.326
51.20000 6.433
51.22000 8.252
51.24000 3.275
51.26000 1.283
51.28000 0.196
51.30000 2.453
51.32000 0.797
51.34000 2.211
51.36000 4.962
51.38000 3.693
51.40000 5.365
51.42000 1.777
51.44000 3.409
51.46000 3.923
51.48000 3.404
51.50000 8.666
51.52000 3.119
51.54000 5.587
51.56000 3.617
51.58000 3.614
51.60000 3.741
51.62000 2.623
51.64000 3.953
51.66000 -1.663
51.68000 -1.827
51.70000 -2.745
51.72000 2.556
51.74000 0.841
51.76000 1.481
51.78000 -2.941
51.80000 -2.492
51.82000 7.087
51.84000 8.168
51.86000 3.659
51.88000 -2.271
51.90000 0.728
51.92000 4.756
51.94000 7.758
51.96000 8.133
51.98000 6.906
52.00000 5.352
52.02000 3.039
52.04000 7.419
52.06000 6.380
52.08000 4.975
52.10000 0.166
52.12000 -1.034
52.14000 2.573
52.16000 -0.442
52.18000 0.060
52.20000 -0.646
52.22000 4.874
52.24000 -1.395
52.26000 3.855
52.28000 3.906
52.30000 1.968
52.32000 -1.622
52.34000 -0.784
52.36000 1.515
52.38000 2.928
52.40000 2.141
52.42000 5.373
52.44000 4.240
52.46000 3.198
52.48000 3.197
52.50000 1.135
52.52000 -0.336
52.54000 -2.903
52.56000 6.271
52.58000 10.911
52.60000 3.023
52.62000 1.597
52.64000 0.112
52.66000 4.138
52.68000 7.156
52.70000 10.288
52.72000 4.047
52.74000 -2.644
52.76000 -0.797
52.78000 -1.003
52.80000 -0.730
52.82000 -0.068
52.84000 2.813
52.86000 4.399
52.88000 2.579
52.90000 1.338
52.92000 3.716
52.94000 0.957
52.96000 5.630
52.98000 7.265
53.00000 1.331
53.02000 2.150
53.04000 0.890
53.06000 4.496
53.08000 6.471
53.10000 6.306
53.12000 7.330
53.14000 1.743
53.16000 5.258
53.18000 6.132
53.20000 5.724
53.22000 1.400
53.24000 -1.189
53.26000 -0.821
53.28000 3.995
53.30000 3.664
53.32000 0.509
53.34000 -0.003
53.36000 2.555
53.38000 0.087
53.40000 2.224
53.42000 3.705
53.44000 2.573
53.46000 1.819
53.48000 -1.622
53.50000 0.505
53.52000 2.577
53.54000 6.794
53.56000 4.916
53.58000 3.143
53.60000 0.301
53.62000 0.399
53.64000 -2.864
53.66000 -1.096
53.68000 1.295
53.70000 1.131
53.72000 3.268
53.74000 4.336
53.76000 8.708
53.78000 9.560
53.80000 6.259
53.82000 8.102
53.84000 0.039
53.86000 1.191
53.88000 0.710
53.90000 0.468
53.92000 -1.192
53.94000 -2.856
53.96000 3.512
53.98000 3.433
54.00000 1.533
54.02000 4.504
54.04000 7.672
54.06000 4.624
54.08000 4.267
54.10000 2.223
54.12000 2.987
54.14000 6.105
54.16000 4.636
54.18000 5.353
54.20000 9.027
54.22000 4.670
54.24000 4.311
54.26000 4.422
54.28000 -0.195
54.30000 1.950
54.32000 4.199
54.34000 4.117
54.36000 1.765
54.38000 -0.685
54.40000 -0.980
54.42000 4.550
54.44000 3.679
54.46000 1.581
54.48000 2.922
54.50000 2.391
54.52000 1.532
54.54000 4.626
54.56000 -2.335
54.58000 0.790
54.60000 3.671
54.62000 8.155
54.64000 9.440
54.66000 1.941
54.68000 3.106
54.70000 0.709
54.72000 0.938
54.74000 1.040
54.76000 -0.915
54.78000 -2.838
54.80000 1.737
54.82000 7.255
54.84000 3.901
54.86000 2.297
54.88000 4.914
54.90000 8.840
54.92000 2.706
54.94000 -0.831
54.96000 -0.919
54.98000 2.431
55.00000 5.907
55.02000 3.384
55.04000 4.434
55.06000 1.768
55.08000 2.558
55.10000 3.698
55.12000 4.478
55.14000 2.388
55.16000 2.405
55.18000 0.752
55.20000 1.686
55.22000 5.508
55.24000 2.098
55.26000 3.352
55.28000 0.468
55.30000 4.487
55.32000 2.183
55.34000 3.779
55.36000 -0.589
55.38000 3.434
55.40000 7.570
55.42000 11.058
55.44000 5.478
55.46000 -0.341
55.48000 3.797
55.50000 3.488
55.52000 1.840
55.54000 6.601
55.56000 10.360
55.58000 4.985
55.60000 3.481
55.62000 9.461
55.64000 10.285
55.66000 5.420
55.68000 10.438
55.70000 7.222
55.72000 -1.124
55.74000 0.562
55.76000 7.896
55.78000 5.612
55.80000 3.335
55.82000 4.873
55.84000 5.029
55.86000 8.710
55.88000 8.718
55.90000 4.688
55.92000 -2.771
55.94000 0.934
55.96000 6.577
55.98000 10.000
56.00000 5.046
56.02000 3.464
56.04000 -0.358
56.06000 5.335
56.08000 8.031
56.10000 0.299
56.12000 0.598
56.14000 1.401
56.16000 3.515
56.18000 2.465
56.20000 2.658
56.22000 1.794
56.24000 2.373
56.26000 3.656
56.28000 4.390
56.30000 5.425
56.32000 4.682
56.34000 5.199
56.36000 3.970
56.38000 6.860
56.40000 6.755
56.42000 5.971
56.44000 5.877
56.46000 3.615
56.48000 3.790
56.50000 1.253
56.52000 6.801
56.54000 3.084
56.56000 -1.006
56.58000 1.901
56.60000 4.793
56.62000 1.750
56.64000 0.319
56.66000 0.468
56.68000 4.780
56.70000 4.361
56.72000 0.618
56.74000 0.778
56.76000 3.554
56.78000 2.734
56.80000 0.895
56.82000 2.491
56.84000 4.064
56.86000 -0.078
56.88000 1.499
56.90000 7.809
56.92000 3.573
56.94000 -0.651
56.96000 1.227
56.98000 2.199
57.00000 6.567
57.02000 3.004
57.04000 -0.655
57.06000 1.796
57.08000 4.274
57.10000 4.679
57.12000 4.335
57.14000 6.705
57.16000 6.902
57.18000 4.078
57.20000 1.128
57.22000 -0.606
57.24000 3.514
57.26000 -1.012
57.28000 -0.457
57.30000 3.145
57.32000 4.205
57.34000 2.834
57.36000 -0.301
57.38000 2.231
57.40000 0.143
57.42000 -2.744
57.44000 -0.863
57.46000 4.645
57.48000 2.824
57.50000 2.295
57.52000 3.956
57.54000 -0.298
57.56000 3.567
57.58000 3.200
57.60000 3.086
57.62000 3.329
57.64000 1.329
57.66000 3.405
57.68000 3.983
57.70000 6.295
57.72000 3.545
57.74000 6.477
57.76000 6.069
57.78000 2.154
57.80000 2.274
57.82000 4.398
57.84000 2.519
57.86000 2.707
57.88000 3.340
57.90000 6.401
57.92000 6.389
57.94000 4.083
57.96000 1.095
57.98000 1.775
58.00000 7.885
58.02000 7.359
58.04000 4.447
58.06000 6.108
58.08000 7.452
58.10000 2.995
58.12000 3.531
58.14000 -2.719
58.16000 0.050
58.18000 1.493
58.20000 1.018
58.22000 -1.048
58.24000 3.032
58.26000 2.197
58.28000 1.085
58.30000 2.597
58.32000 -1.658
58.34000 -0.503
58.36000 0.713
58.38000 1.857
58.40000 2.204
58.42000 -0.057
58.44000 4.862
58.46000 4.736
58.48000 2.971
58.50000 1.369
58.52000 3.209
58.54000 7.068
58.56000 0.457
58.58000 -0.005
58.60000 5.814
58.62000 2.086
58.64000 0.678
58.66000 3.504
58.68000 8.781
58.70000 4.023
58.72000 4.549
58.74000 2.939
58.76000 3.920
58.78000 1.810
58.80000 0.096
58.82000 -0.810
58.84000 -1.246
58.86000 -0.121
58.88000 -0.486
58.90000 -0.314
58.92000 5.853
58.94000 5.578
58.96000 2.410
58.98000 3.177
59.00000 5.180
59.02000 -2.672
59.04000 -1.110
59.06000 3.147
59.08000 4.162
59.10000 2.617
59.12000 4.870
59.14000 -0.092
59.16000 3.828
59.18000 -0.173
59.20000 -0.287
59.22000 2.822
59.24000 0.569
59.26000 -1.015
59.28000 -1.293
59.30000 3.572
59.32000 4.623
59.34000 7.854
59.36000 10.822
59.38000 13.882
59.40000 14.212
59.42000 14.353
59.44000 4.920
59.46000 1.884
59.48000 2.129
59.50000 1.353
59.52000 1.269
59.54000 1.332
59.56000 1.523
59.58000 0.359
59.60000 -0.413
59.62000 3.421
59.64000 4.259
59.66000 2.947
59.68000 4.363
59.70000 4.910
59.72000 3.462
59.74000 0.329
59.76000 -2.650
59.78000 2.017
59.80000 7.075
59.82000 2.568
59.84000 0.458
59.86000 3.307
59.88000 2.945
59.90000 1.190
59.92000 -1.728
59.94000 1.165
59.96000 -0.198
59.98000 3.181
60.00000 7.284
60.02000 5.787
60.04000 5.144
60.06000 1.489
60.08000 2.621
60.10000 5.847
60.12000 9.210
60.14000 6.321
60.16000 7.031
60.18000 3.126
60.20000 1.458
60.22000 2.828
60.24000 2.519
60.26000 2.695
60.28000 5.201
60.30000 -0.380
60.32000 -1.182
60.34000 -2.208
60.36000 -2.634
60.38000 3.939
60.40000 3.339
60.42000 3.121
60.44000 4.044
60.46000 6.698
60.48000 8.280
60.50000 4.742
60.52000 1.869
60.54000 7.320
60.56000 5.200
60.58000 6.228
60.60000 6.365
60.62000 1.328
60.64000 4.262
60.66000 4.981
60.68000 5.767
60.70000 6.032
60.72000 4.095
60.74000 1.941
60.76000 2.172
60.78000 4.976
60.80000 1.372
60.82000 5.730
60.84000 4.281
60.86000 2.346
60.88000 5.715
60.90000 5.032
60.92000 4.074
60.94000 6.655
60.96000 4.739
60.98000 7.994
61.00000 5.159
61.02000 1.183
61.04000 4.740
61.06000 4.121
61.08000 1.529
61.10000 5.083
61.12000 7.341
61.14000 4.619
61.16000 2.940
61.18000 6.017
61.20000 4.174
61.22000 0.479
61.24000 2.232
61.26000 2.279
61.28000 -0.661
61.30000 -0.400
61.32000 -1.334
61.34000 0.164
61.36000 5.990
61.38000 1.210
61.40000 5.934
61.42000 4.873
61.44000 -1.304
61.46000 0.874
61.48000 4.440
61.50000 4.454
61.52000 4.413
61.54000 2.473
61.56000 2.270
61.58000 3.820
61.60000 2.344
61.62000 1.931
61.64000 4.929
61.66000 9.203
61.68000 5.380
61.70000 2.505
61.72000 6.971
61.74000 1.413
61.76000 0.146
61.78000 3.448
61.80000 0.824
61.82000 -2.594
61.84000 -1.571
61.86000 1.357
61.88000 3.220
61.90000 2.930
61.92000 4.351
61.94000 2.717
61.96000 1.700
61.98000 1.313
62.00000 3.877
62.02000 10.974
62.04000 6.702
62.06000 11.012
62.08000 8.887
62.10000 2.415
62.12000 4.745
62.14000 4.438
62.16000 2.655
62.18000 1.570
62.20000 2.612
62.22000 6.443
62.24000 4.064
62.26000 3.356
62.28000 3.038
62.30000 4.774
62.32000 4.840
62.34000 7.680
62.36000 4.288
62.38000 -0.247
62.40000 2.397
62.42000 0.415
62.44000 1.283
62.46000 2.961
62.48000 3.653
62.50000 3.648
62.52000 1.685
62.54000 -1.321
62.56000 -2.579
62.58000 -1.513
62.60000 -2.066
62.62000 -2.185
62.64000 4.529
62.66000 6.015
62.68000 3.901
62.70000 2.536
62.72000 -0.280
62.74000 -0.692
62.76000 -0.847
62.78000 7.105
62.80000 4.270
62.82000 -0.425
62.84000 1.336
62.86000 0.403
62.88000 2.423
62.90000 3.254
62.92000 2.495
62.94000 2.102
62.96000 3.688
62.98000 3.512
63.00000 0.793
63.02000 0.480
63.04000 0.951
63.06000 2.693
63.08000 5.533
63.10000 4.935
63.12000 1.131
63.14000 5.878
63.16000 9.251
63.18000 6.068
63.20000 -0.495
63.22000 6.905
63.24000 10.323
63.26000 3.119
63.28000 2.617
63.30000 1.129
63.32000 0.110
63.34000 -2.565
63.36000 0.509
63.38000 2.454
63.40000 -0.368
63.42000 -1.282
63.44000 1.636
63.46000 5.396
63.48000 3.191
63.50000 2.391
63.52000 4.935
63.54000 0.517
63.56000 3.967
63.58000 1.331
63.60000 0.550
63.62000 1.239
63.64000 4.157
63.66000 6.542
63.68000 4.031
63.70000 5.320
63.72000 5.777
63.74000 4.965
63.76000 0.000
63.78000 0.787
63.80000 0.897
63.82000 4.129
63.84000 -1.349
63.86000 -2.563
63.88000 2.246
63.90000 1.152
63.92000 -1.601
63.94000 0.685
63.96000 3.405
63.98000 2.751
64.00000 3.795
64.02000 3.420
64.04000 0.486
64.06000 1.601
64.08000 3.534
64.10000 0.778
64.12000 -2.345
64.14000 -2.122
64.16000 6.155
64.18000 7.267
64.20000 3.274
64.22000 2.925
64.24000 3.135
64.26000 2.797
64.28000 -0.043
64.30000 -0.421
64.32000 -0.064
64.34000 0.525
64.36000 3.445
64.38000 1.901
64.40000 -0.131
64.42000 -1.682
64.44000 -2.556
64.46000 -1.596
64.48000 2.821
64.50000 -0.799
64.52000 -2.400
64.54000 3.522
64.56000 3.881
64.58000 6.287
64.60000 0.946
64.62000 2.672
64.64000 -1.013
64.66000 -2.553
64.68000 -0.999
64.70000 0.402
64.72000 1.957
64.74000 4.589
64.76000 2.479
64.78000 -0.835
64.80000 -1.610
64.82000 -2.422
64.84000 -2.091
64.86000 1.601
64.88000 2.168
64.90000 4.130
64.92000 1.470
64.94000 0.429
64.96000 0.914
64.98000 4.098
65.00000 4.661
65.02000 3.302
65.04000 3.523
65.06000 0.016
65.08000 -2.145
65.10000 3.073
65.12000 5.701
65.14000 0.973
65.16000 1.239
65.18000 -2.506
65.20000 -0.457
65.22000 0.140
65.24000 2.031
65.26000 0.587
65.28000 2.585
65.30000 0.537
65.32000 -0.128
65.34000 0.800
65.36000 0.596
65.38000 -1.048
65.40000 -0.169
65.42000 0.188
65.44000 3.988
65.46000 -0.491
65.48000 -0.008
65.50000 -0.475
65.52000 2.653
65.54000 3.689
65.56000 2.635
65.58000 -2.543
65.60000 -0.026
65.62000 5.047
65.64000 3.492
65.66000 4.599
65.68000 6.280
65.70000 -0.413
65.72000 -0.994
65.74000 2.405
65.76000 1.180
65.78000 0.255
65.80000 2.913
65.82000 -1.266
65.84000 -2.042
65.86000 -0.126
65.88000 -0.990
65.90000 -0.326
65.92000 0.890
65.94000 0.076
65.96000 1.702
65.98000 3.613
66.00000 1.584
66.02000 -0.951
66.04000 -2.017
66.06000 0.576
66.08000 2.219
66.10000 2.704
66.12000 0.673
66.14000 -0.791
66.16000 2.998
66.18000 4.586
66.20000 1.294
66.22000 4.284
66.24000 3.367
66.26000 3.164
66.28000 2.862
66.30000 0.095
66.32000 0.493
66.34000 2.963
66.36000 1.338
66.38000 -1.627
66.40000 -2.535
66.42000 -0.404
66.44000 4.214
66.46000 2.366
66.48000 2.118
66.50000 1.324
66.52000 3.018
66.54000 1.777
66.56000 3.813
66.58000 1.833
66.60000 -0.618
66.62000 1.414
66.64000 1.920
66.66000 -0.263
66.68000 -2.530
66.70000 -0.095
66.72000 2.786
66.74000 2.190
66.76000 1.894
66.78000 1.631
66.80000 2.601
66.82000 2.704
66.84000 3.223
66.86000 1.311
66.88000 2.743
66.90000 1.788
66.92000 1.894
66.94000 2.067
66.96000 2.801
66.98000 0.885
67.00000 0.538
67.02000 3.009
67.04000 0.332
67.06000 2.354
67.08000 1.152
67.10000 2.361
67.12000 1.933
67.14000 2.007
67.16000 -2.176
67.18000 -0.442
67.20000 1.665
67.22000 0.881
67.24000 -2.537
67.26000 0.638
67.28000 0.945
67.30000 2.051
67.32000 1.262
67.34000 1.205
67.36000 3.895
67.38000 5.600
67.40000 6.089
67.42000 5.610
67.44000 4.421
67.46000 3.110
67.48000 3.629
67.50000 2.722
67.52000 5.180
67.54000 1.753
67.56000 1.603
67.58000 3.684
67.60000 3.583
67.62000 2.834
67.64000 5.529
67.66000 6.828
67.68000 4.739
67.70000 3.397
67.72000 1.787
67.74000 2.160
67.76000 5.312
67.78000 6.908
67.80000 5.701
67.82000 3.284
67.84000 2.150
67.86000 3.002
67.88000 2.698
67.90000 4.969
67.92000 4.859
67.94000 4.225
67.96000 10.010
67.98000 10.076
68.00000 6.548
68.02000 5.679
68.04000 6.412
68.06000 4.633
68.08000 7.798
68.10000 9.437
68.12000 6.666
68.14000 8.567
68.16000 9.677
68.18000 11.328
68.20000 10.680
68.22000 7.221
68.24000 6.933
68.26000 9.640
68.28000 12.874
68.30000 12.430
68.32000 9.542
68.34000 7.315
68.36000 9.324
68.38000 12.637
68.40000 12.561
68.42000 9.982
68.44000 7.884
68.46000 11.366
68.48000 12.825
68.50000 12.659
68.52000 16.310
68.54000 14.849
68.56000 13.265
68.58000 9.896
68.60000 13.748
68.62000 14.323
68.64000 17.144
68.66000 14.901
68.68000 11.819
68.70000 14.751
68.72000 20.007
68.74000 21.283
68.76000 20.021
68.78000 17.658
68.80000 17.018
68.82000 16.659
68.84000 20.598
68.86000 20.730
68.88000 20.715
68.90000 22.743
68.92000 22.694
68.94000 22.542
68.96000 22.647
68.98000 23.640
69.00000 20.372
69.02000 20.884
69.04000 22.425
69.06000 19.960
69.08000 26.806
69.10000 27.266
69.12000 20.394
69.14000 20.261
69.16000 21.228
69.18000 21.841
69.20000 23.654
69.22000 23.173
69.24000 22.313
69.26000 22.972
69.28000 26.785
69.30000 25.516
69.32000 22.287
69.34000 20.843
69.36000 15.909
69.38000 17.247
69.40000 17.334
69.42000 19.400
69.44000 19.018
69.46000 16.208
69.48000 21.614
69.50000 19.110
69.52000 13.020
69.54000 15.638
69.56000 16.590
69.58000 13.768
69.60000 12.000
69.62000 12.429
69.64000 12.618
69.66000 13.284
69.68000 10.489
69.70000 8.731
69.72000 11.071
69.74000 13.009
69.76000 14.901
69.78000 9.029
69.80000 9.724
69.82000 9.404
69.84000 9.382
69.86000 7.065
69.88000 7.225
69.90000 5.503
69.92000 7.255
69.94000 10.658
69.96000 8.465
69.98000 6.468
70.00000 5.988
70.02000 4.493
70.04000 7.945
70.06000 7.546
70.08000 5.878
70.10000 4.133
70.12000 0.222
70.14000 -2.088
70.16000 4.870
70.18000 5.492
70.20000 5.259
70.22000 4.932
70.24000 2.348
70.26000 2.953
70.28000 3.122
70.30000 3.550
70.32000 5.255
70.34000 5.735
70.36000 5.549
70.38000 2.087
70.40000 3.338
70.42000 1.911
70.44000 1.177
70.46000 0.036
70.48000 5.015
70.50000 8.937
70.52000 0.649
70.54000 -0.280
70.56000 2.364
70.58000 2.380
70.60000 1.586
70.62000 3.540
70.64000 1.245
70.66000 1.963
70.68000 4.192
70.70000 1.951
70.72000 -2.113
70.74000 1.347
70.76000 2.616
70.78000 1.425
70.80000 1.685
70.82000 -0.021
70.84000 3.381
70.86000 4.369
70.88000 2.907
70.90000 -2.369
70.92000 -0.655
70.94000 2.775
70.96000 0.590
70.98000 1.399
71.00000 -0.017
71.02000 0.665
71.04000 1.292
71.06000 2.365
71.08000 2.260
71.10000 4.777
71.12000 3.067
71.14000 3.046
71.16000 0.790
71.18000 0.458
71.20000 2.546
71.22000 0.835
71.24000 0.841
71.26000 2.475
71.28000 2.588
71.30000 1.492
71.32000 4.196
71.34000 7.710
71.36000 6.188
71.38000 1.519
71.40000 1.661
71.42000 1.911
71.44000 1.250
71.46000 -0.758
71.48000 -1.035
71.50000 -0.625
71.52000 1.648
71.54000 0.770
71.56000 -0.284
71.58000 -2.312
71.60000 -1.405
71.62000 -0.242
71.64000 1.978
71.66000 4.350
71.68000 0.297
71.70000 -1.642
71.72000 -0.461
71.74000 1.131
71.76000 6.316
71.78000 4.310
71.80000 2.284
71.82000 2.528
71.84000 0.449
71.86000 3.847
71.88000 5.131
71.90000 4.569
71.92000 1.892
71.94000 2.205
71.96000 0.379
71.98000 1.676
72.00000 1.480
72.02000 4.142
72.04000 5.070
72.06000 4.668
72.08000 2.731
72.10000 3.467
72.12000 4.009
72.14000 4.210
72.16000 -0.429
72.18000 0.761
72.20000 1.621
72.22000 2.500
72.24000 3.859
72.26000 0.366
72.28000 0.521
72.30000 1.612
72.32000 4.203
72.34000 -0.352
72.36000 -2.268
72.38000 2.116
72.40000 4.058
72.42000 3.098
72.44000 -2.266
72.46000 4.670
72.48000 2.045
72.50000 -0.366
72.52000 2.161
72.54000 -0.822
72.56000 3.805
72.58000 2.451
72.60000 2.332
72.62000 4.624
72.64000 1.039
72.66000 2.506
72.68000 2.858
72.70000 2.014
72.72000 -0.977
72.74000 -1.874
72.76000 -1.950
72.78000 -1.672
72.80000 1.167
72.82000 -1.791
72.84000 -2.262
72.86000 1.451
72.88000 1.944
72.90000 -1.470
72.92000 -1.058
72.94000 1.742
72.96000 3.521
72.98000 3.923
73.00000 2.373
73.02000 -2.154
73.04000 2.144
73.06000 1.952
73.08000 3.539
73.10000 -0.897
73.12000 1.346
73.14000 -0.718
73.16000 0.737
73.18000 2.794
73.20000 2.105
73.22000 -0.793
73.24000 0.343
73.26000 2.301
73.28000 4.884
73.30000 3.878
73.32000 -0.413
73.34000 2.905
73.36000 2.206
73.38000 1.348
73.40000 -1.660
73.42000 3.815
73.44000 -0.795
73.46000 1.944
73.48000 -0.743
73.50000 -1.574
73.52000 0.675
73.54000 5.195
73.56000 6.217
73.58000 4.792
73.60000 5.066
73.62000 2.296
73.64000 0.609
73.66000 1.413
73.68000 0.067
73.70000 3.856
73.72000 7.852
73.74000 2.542
73.76000 3.062
73.78000 5.248
73.80000 3.352
73.82000 2.733
73.84000 6.044
73.86000 2.602
73.88000 4.032
73.90000 2.914
73.92000 1.221
73.94000 4.338
73.96000 4.132
73.98000 9.850
74.00000 10.140
74.02000 8.601
74.04000 5.556
74.06000 1.756
74.08000 -2.171
74.10000 5.585
74.12000 6.238
74.14000 1.779
74.16000 2.431
74.18000 0.535
74.20000 3.038
74.22000 3.149
74.24000 5.695
74.26000 5.333
74.28000 4.705
74.30000 1.749
74.32000 4.361
74.34000 3.132
74.36000 1.151
74.38000 1.767
74.40000 -0.240
74.42000 2.228
74.44000 -0.198
74.46000 0.436
74.48000 3.769
74.50000 3.308
74.52000 -1.369
74.54000 -2.040
74.56000 -1.808
74.58000 0.263
74.60000 1.239
74.62000 -0.550
74.64000 5.354
74.66000 1.501
74.68000 -0.170
74.70000 -0.075
74.72000 1.501
74.74000 -0.141
74.76000 3.090
74.78000 7.586
74.80000 0.681
74.82000 -2.196
74.84000 2.926
74.86000 4.482
74.88000 1.851
74.90000 2.945
74.92000 3.785
74.94000 2.792
74.96000 1.816
74.98000 2.160
75.00000 1.138
75.02000 0.775
75.04000 0.079
75.06000 -0.409
75.08000 1.363
75.10000 2.626
75.12000 2.306
75.14000 -2.195
75.16000 -0.287
75.18000 2.664
75.20000 1.254
75.22000 0.066
75.24000 3.061
75.26000 5.982
75.28000 4.742
75.30000 1.479
75.32000 4.616
75.34000 3.723
75.36000 4.874
75.38000 5.249
75.40000 2.991
75.42000 1.885
75.44000 2.967
75.46000 1.959
75.48000 2.291
75.50000 0.866
75.52000 2.131
75.54000 2.355
75.56000 6.872
75.58000 5.057
75.60000 2.965
75.62000 1.462
75.64000 0.342
75.66000 -2.206
75.68000 1.472
75.70000 3.734
75.72000 4.676
75.74000 -0.932
75.76000 3.618
75.78000 1.606
75.80000 4.174
75.82000 2.458
75.84000 2.199
75.86000 -1.228
75.88000 2.367
75.90000 3.135
75.92000 2.021
75.94000 2.487
75.96000 4.054
75.98000 1.602
76.00000 0.673
76.02000 1.638
76.04000 2.860
76.06000 -0.042
76.08000 -1.298
76.10000 4.551
76.12000 2.916
76.14000 2.050
76.16000 2.090
76.18000 0.335
76.20000 0.520
76.22000 4.102
76.24000 2.682
76.26000 4.427
76.28000 4.504
76.30000 3.611
76.32000 1.172
76.34000 2.695
76.36000 0.064
76.38000 2.379
76.40000 3.684
76.42000 3.369
76.44000 1.892
76.46000 -2.102
76.48000 -0.523
76.50000 -0.048
76.52000 -2.187
76.54000 0.713
76.56000 5.327
76.58000 3.476
76.60000 0.195
76.62000 -2.034
76.64000 1.229
76.66000 3.861
76.68000 5.101
76.70000 2.787
76.72000 5.025
76.74000 7.108
76.76000 6.390
76.78000 3.602
76.80000 1.693
76.82000 1.717
76.84000 4.348
76.86000 4.835
76.88000 7.554
76.90000 4.622
76.92000 2.864
76.94000 -0.100
76.96000 0.275
76.98000 1.543
77.00000 2.665
77.02000 0.323
77.04000 -2.206
77.06000 1.971
77.08000 5.365
77.10000 3.458
77.12000 2.433
77.14000 0.891
77.16000 2.305
77.18000 5.044
77.20000 0.907
77.22000 2.065
77.24000 2.702
77.26000 1.299
77.28000 3.801
77.30000 5.818
77.32000 4.558
77.34000 0.671
77.36000 -0.233
77.38000 -0.183
77.40000 2.028
77.42000 1.858
77.44000 0.698
77.46000 -0.826
77.48000 -1.181
77.50000 -1.028
77.52000 1.384
77.54000 5.322
77.56000 4.083
77.58000 2.071
77.60000 -1.504
77.62000 -0.925
77.64000 1.878
77.66000 4.299
77.68000 -0.116
77.70000 -0.170
77.72000 -0.867
77.74000 -1.543
77.76000 1.162
77.78000 -1.481
77.80000 -0.868
77.82000 2.258
77.84000 3.481
77.86000 -1.524
77.88000 -0.763
77.90000 0.819
77.92000 3.390
77.94000 -1.239
77.96000 -2.203
77.98000 3.658
78.00000 0.844
78.02000 -1.655
78.04000 -2.237
78.06000 -1.420
78.08000 -0.613
78.10000 2.138
78.12000 3.959
78.14000 1.034
78.16000 1.112
78.18000 1.894
78.20000 0.886
78.22000 -0.161
78.24000 2.651
78.26000 3.361
78.28000 2.736
78.30000 0.782
78.32000 1.462
78.34000 4.311
78.36000 1.298
78.38000 1.264
78.40000 3.004
78.42000 4.568
78.44000 1.262
78.46000 -2.239
78.48000 -1.798
78.50000 -0.859
78.52000 1.023
78.54000 -1.369
78.56000 -1.850
78.58000 0.776
78.60000 -0.372
78.62000 0.683
78.64000 4.989
78.66000 8.929
78.68000 4.209
78.70000 -0.283
78.72000 -0.647
78.74000 1.445
78.76000 2.456
78.78000 2.614
78.80000 0.684
78.82000 3.507
78.84000 -0.064
78.86000 -2.063
78.88000 1.630
78.90000 2.301
78.92000 5.023
78.94000 2.342
78.96000 1.582
78.98000 -0.917
79.00000 -2.247
79.02000 1.435
79.04000 3.333
79.06000 3.112
79.08000 2.344
79.10000 1.820
79.12000 -0.954
79.14000 0.154
79.16000 0.450
79.18000 5.462
79.20000 3.512
79.22000 4.695
79.24000 4.499
79.26000 -0.515
79.28000 0.798
79.30000 2.958
79.32000 2.852
79.34000 1.966
79.36000 5.107
79.38000 2.118
79.40000 2.685
79.42000 2.856
79.44000 0.160
79.46000 1.663
79.48000 3.341
79.50000 5.691
79.52000 3.330
79.54000 -1.433
79.56000 1.505
79.58000 -0.303
79.60000 2.150
79.62000 1.997
79.64000 0.769
79.66000 2.315
79.68000 4.198
79.70000 1.887
79.72000 3.473
79.74000 -2.235
79.76000 -2.180
79.78000 1.901
79.80000 1.537
79.82000 -0.656
79.84000 1.852
79.86000 3.089
79.88000 3.292
79.90000 2.923
79.92000 1.544
79.94000 -1.044
79.96000 0.446
79.98000 2.180
80.00000 4.287
80.02000 1.112
80.04000 -2.252
80.06000 -0.861
80.08000 2.360
80.10000 3.848
80.12000 5.014
80.14000 5.378
80.16000 4.353
80.18000 5.524
80.20000 1.092
80.22000 3.825
80.24000 1.806
80.26000 1.976
80.28000 0.715
80.30000 0.583
80.32000 -0.262
80.34000 1.701
80.36000 5.988
80.38000 4.735
80.40000 -0.064
80.42000 -0.127
80.44000 2.767
80.46000 3.633
80.48000 4.647
80.50000 1.780
80.52000 1.942
80.54000 4.125
80.56000 2.082
80.58000 5.368
80.60000 3.782
80.62000 4.792
80.64000 8.744
80.66000 3.234
80.68000 0.001
80.70000 -0.977
80.72000 4.357
80.74000 1.430
80.76000 3.201
80.78000 3.354
80.80000 1.230
80.82000 1.170
80.84000 -0.933
80.86000 0.630
80.88000 4.284
80.90000 5.899
80.92000 4.705
80.94000 3.054
80.96000 1.647
80.98000 -0.962
81.00000 -2.285
81.02000 0.234
81.04000 2.502
81.06000 4.724
81.08000 5.560
81.10000 2.909
81.12000 6.174
81.14000 4.694
81.16000 8.754
81.18000 10.168
81.20000 7.508
81.22000 3.068
81.24000 3.667
81.26000 3.454
81.28000 4.119
81.30000 3.843
81.32000 3.253
81.34000 3.050
81.36000 3.334
81.38000 3.289
81.40000 -0.780
81.42000 0.764
81.44000 -0.279
81.46000 0.807
81.48000 5.240
81.50000 7.800
81.52000 8.848
81.54000 7.456
81.56000 1.254
81.58000 2.127
81.60000 2.688
81.62000 3.451
81.64000 4.849
81.66000 3.964
81.68000 6.690
81.70000 7.994
81.72000 6.404
81.74000 1.768
81.76000 3.433
81.78000 2.869
81.80000 5.451
81.82000 3.712
81.84000 1.256
81.86000 0.432
81.88000 -0.769
81.90000 1.718
81.92000 2.847
81.94000 1.375
81.96000 -0.120
81.98000 6.201
82.00000 4.146
82.02000 4.002
82.04000 5.449
82.06000 -0.659
82.08000 -0.815
82.10000 3.899
82.12000 8.935
82.14000 8.927
82.16000 4.452
82.18000 2.949
82.20000 9.973
82.22000 7.780
82.24000 9.373
82.26000 9.020
82.28000 8.576
82.30000 6.180
82.32000 7.249
82.34000 10.434
82.36000 11.744
82.38000 8.289
82.40000 5.164
82.42000 7.736
82.44000 5.971
82.46000 7.243
82.48000 12.693
82.50000 14.071
82.52000 10.568
82.54000 9.955
82.56000 12.657
82.58000 8.995
82.60000 6.183
82.62000 12.711
82.64000 8.774
82.66000 5.581
82.68000 11.530
82.70000 12.684
82.72000 16.882
82.74000 12.262
82.76000 10.072
82.78000 11.046
82.80000 10.432
82.82000 16.071
82.84000 18.197
82.86000 16.481
82.88000 12.469
82.90000 12.649
82.92000 11.325
82.94000 15.407
82.96000 17.591
82.98000 17.495
83.00000 16.005
83.02000 15.199
83.04000 22.928
83.06000 19.436
83.08000 14.355
83.10000 19.404
83.12000 18.345
83.14000 19.563
83.16000 13.339
83.18000 13.413
83.20000 18.530
83.22000 21.077
83.24000 23.530
83.26000 29.041
83.28000 25.497
83.30000 21.708
83.32000 21.416
83.34000 24.461
83.36000 26.806
83.38000 25.818
83.40000 24.025
83.42000 27.835
83.44000 25.275
83.46000 22.550
83.48000 22.187
83.50000 23.336
83.52000 26.386
83.54000 23.482
83.56000 18.593
83.58000 21.955
83.60000 23.486
83.62000 17.963
83.64000 20.830
83.66000 26.018
83.68000 26.315
83.70000 24.439
83.72000 17.506
83.74000 17.635
83.76000 21.136
83.78000 20.805
83.80000 22.925
83.82000 24.321
83.84000 21.889
83.86000 23.895
83.88000 20.556
83.90000 19.055
83.92000 19.014
83.94000 17.056
83.96000 22.206
83.98000 17.745
84.00000 14.963
84.02000 18.150
84.04000 19.086
84.06000 20.016
84.08000 13.534
84.10000 15.184
84.12000 16.140
84.14000 17.675
84.16000 16.336
84.18000 12.443
84.20000 12.551
84.22000 9.151
84.24000 8.394
84.26000 8.784
84.28000 12.093
84.30000 13.359
84.32000 14.311
84.34000 13.600
84.36000 17.840
84.38000 15.922
84.40000 11.119
84.42000 10.689
84.44000 7.721
84.46000 6.758
84.48000 6.099
84.50000 6.283
84.52000 11.546
84.54000 10.819
84.56000 10.207
84.58000 12.316
84.60000 10.683
84.62000 5.151
84.64000 5.861
84.66000 8.387
84.68000 5.512
84.70000 5.658
84.72000 1.190
84.74000 4.624
84.76000 3.870
84.78000 6.901
84.80000 11.632
84.82000 11.419
84.84000 7.132
84.86000 6.314
84.88000 9.405
84.90000 12.678
84.92000 8.170
84.94000 6.481
84.96000 4.797
84.98000 -0.322
85.00000 4.437
85.02000 3.736
85.04000 0.981
85.06000 0.056
85.08000 1.724
85.10000 4.517
85.12000 2.629
85.14000 5.680
85.16000 6.529
85.18000 7.767
85.20000 6.721
85.22000 5.207
85.24000 5.753
85.26000 6.818
85.28000 9.602
85.30000 12.266
85.32000 8.996
85.34000 2.324
85.36000 4.368
85.38000 6.345
85.40000 5.500
85.42000 7.944
85.44000 4.582
85.46000 -0.889
85.48000 3.674
85.50000 1.825
85.52000 -2.205
85.54000 4.041
85.56000 8.887
85.58000 7.024
85.60000 9.117
85.62000 6.553
85.64000 5.390
85.66000 5.603
85.68000 2.053
85.70000 -0.059
85.72000 5.116
85.74000 5.568
85.76000 3.069
85.78000 2.382
85.80000 6.038
85.82000 6.127
85.84000 2.464
85.86000 5.306
85.88000 3.903
85.90000 3.842
85.92000 3.035
85.94000 0.160
85.96000 2.086
85.98000 1.601
86.00000 2.264
86.02000 1.025
86.04000 2.209
86.06000 -0.206
86.08000 0.478
86.10000 3.799
86.12000 0.518
86.14000 -0.476
86.16000 0.532
86.18000 1.876
86.20000 0.058
86.22000 3.838
86.24000 1.268
86.26000 0.611
86.28000 -0.722
86.30000 -0.435
86.32000 0.318
86.34000 0.146
86.36000 3.949
86.38000 2.269
86.40000 -1.614
86.42000 -2.303
86.44000 0.985
86.46000 4.563
86.48000 4.542
86.50000 1.832
86.52000 7.638
86.54000 7.913
86.56000 4.728
86.58000 3.135
86.60000 1.507
86.62000 0.699
86.64000 -0.930
86.66000 -0.348
86.68000 3.467
86.70000 3.764
86.72000 3.189
86.74000 -0.346
86.76000 3.454
86.78000 3.202
86.80000 2.041
86.82000 2.577
86.84000 5.484
86.86000 3.072
86.88000 2.061
86.90000 2.202
86.92000 3.325
86.94000 3.735
86.96000 5.380
86.98000 3.641
87.00000 5.131
87.02000 7.556
87.04000 3.510
87.06000 0.729
87.08000 5.317
87.10000 9.159
87.12000 6.671
87.14000 2.143
87.16000 2.724
87.18000 6.961
87.20000 6.365
87.22000 5.762
87.24000 5.946
87.26000 4.170
87.28000 8.750
87.30000 3.863
87.32000 5.631
87.34000 8.423
87.36000 8.485
87.38000 9.997
87.40000 7.418
87.42000 11.832
87.44000 11.349
87.46000 11.383
87.48000 6.929
87.50000 7.830
87.52000 10.969
87.54000 11.327
87.56000 9.633
87.58000 11.294
87.60000 12.137
87.62000 15.301
87.64000 16.492
87.66000 14.934
87.68000 11.512
87.70000 10.054
87.72000 9.808
87.74000 12.304
87.76000 14.056
87.78000 9.161
87.80000 13.005
87.82000 11.558
87.84000 12.601
87.86000 13.303
87.88000 12.645
87.90000 18.829
87.92000 15.281
87.94000 17.080
87.96000 15.884
87.98000 17.916
88.00000 19.053
88.02000 17.069
88.04000 13.747
88.06000 15.805
88.08000 14.530
88.10000 19.515
88.12000 16.717
88.14000 16.322
88.16000 14.600
88.18000 14.964
88.20000 16.014
88.22000 15.214
88.24000 10.477
88.26000 15.957
88.28000 17.067
88.30000 18.318
88.32000 16.705
88.34000 17.368
88.36000 14.733
88.38000 13.036
88.40000 15.137
88.42000 16.056
88.44000 15.627
88.46000 11.342
88.48000 13.801
88.50000 18.140
88.52000 17.482
88.54000 12.913
88.56000 11.410
88.58000 15.004
88.60000 15.474
88.62000 6.278
88.64000 7.724
88.66000 6.432
88.68000 9.654
88.70000 7.464
88.72000 7.268
88.74000 9.425
88.76000 9.695
88.78000 8.561
88.80000 6.564
88.82000 7.707
88.84000 10.140
88.86000 3.904
88.88000 6.425
88.90000 7.832
88.92000 3.478
88.94000 3.431
88.96000 6.108
88.98000 4.166
89.00000 8.114
89.02000 7.172
89.04000 5.952
89.06000 7.171
89.08000 8.593
89.10000 6.159
89.12000 3.617
89.14000 2.533
89.16000 2.041
89.18000 6.437
89.20000 2.926
89.22000 -0.552
89.24000 4.114
89.26000 5.049
89.28000 -0.085
89.30000 -0.800
89.32000 -0.714
89.34000 1.280
89.36000 5.544
89.38000 4.072
89.40000 -0.643
89.42000 -0.582
89.44000 1.534
89.46000 2.575
89.48000 1.248
89.50000 2.677
89.52000 4.879
89.54000 5.523
89.56000 1.651
89.58000 0.327
89.60000 -2.182
89.62000 -1.455
89.64000 3.572
89.66000 6.123
89.68000 6.273
89.70000 -0.235
89.72000 -0.803
89.74000 0.926
89.76000 1.225
89.78000 3.464
89.80000 2.912
89.82000 1.050
89.84000 3.618
89.86000 1.445
89.88000 1.163
89.90000 1.433
89.92000 6.404
89.94000 5.931
89.96000 4.976
89.98000 4.906
90.00000 3.322
90.02000 2.193
90.04000 2.494
90.06000 3.828
90.08000 2.105
90.10000 5.450
90.12000 4.162
90.14000 -0.665
90.16000 2.362
90.18000 3.171
90.20000 3.323
90.22000 1.643
90.24000 1.045
90.26000 5.287
90.28000 3.024
90.30000 2.026
90.32000 4.800
90.34000 2.788
90.36000 2.737
90.38000 5.967
90.40000 6.994
90.42000 4.168
90.44000 -2.105
90.46000 4.036
90.48000 5.576
90.50000 7.220
90.52000 6.397
90.54000 3.949
90.56000 1.188
90.58000 1.406
90.60000 2.885
90.62000 2.700
90.64000 5.033
90.66000 0.420
90.68000 6.701
90.70000 2.087
90.72000 1.350
90.74000 3.173
90.76000 -1.114
90.78000 2.504
90.80000 3.096
90.82000 3.051
90.84000 4.046
90.86000 6.244
90.88000 6.756
90.90000 4.277
90.92000 0.563
90.94000 0.295
90.96000 0.871
90.98000 2.324
91.00000 1.821
91.02000 0.260
91.04000 4.385
91.06000 3.431
91.08000 5.454
91.10000 7.844
91.12000 10.745
91.14000 3.398
91.16000 7.390
91.18000 4.576
91.20000 4.656
91.22000 1.494
91.24000 -0.196
91.26000 1.946
91.28000 4.010
91.30000 6.632
91.32000 5.651
91.34000 0.587
91.36000 0.386
91.38000 4.102
91.40000 4.882
91.42000 7.072
91.44000 2.538
91.46000 -2.064
91.48000 0.075
91.50000 1.265
91.52000 6.031
91.54000 7.012
91.56000 7.146
91.58000 3.618
91.60000 6.722
91.62000 6.673
91.64000 5.998
91.66000 1.782
91.68000 3.273
91.70000 2.977
91.72000 1.454
91.74000 5.209
91.76000 8.738
91.78000 6.312
91.80000 5.154
91.82000 2.144
91.84000 4.695
91.86000 5.232
91.88000 0.462
91.90000 -1.082
91.92000 -0.325
91.94000 0.828
91.96000 0.495
91.98000 0.759
92.00000 5.465
92.02000 4.437
92.04000 2.846
92.06000 0.903
92.08000 -1.143
92.10000 1.091
92.12000 -0.649
92.14000 -0.975
92.16000 1.760
92.18000 2.397
92.20000 0.647
92.22000 5.798
92.24000 5.846
92.26000 7.268
92.28000 4.590
92.30000 1.614
92.32000 6.778
92.34000 7.601
92.36000 5.950
92.38000 5.031
92.40000 7.740
92.42000 8.683
92.44000 6.469
92.46000 5.441
92.48000 7.342
92.50000 2.876
92.52000 3.225
92.54000 3.101
92.56000 1.011
92.58000 -1.320
92.60000 -2.063
92.62000 0.718
92.64000 1.557
92.66000 3.172
92.68000 -0.208
92.70000 0.918
92.72000 1.900
92.74000 2.777
92.76000 7.675
92.78000 5.247
92.80000 4.185
92.82000 0.579
92.84000 2.144
92.86000 8.662
92.88000 8.090
92.90000 4.252
92.92000 4.668
92.94000 2.593
92.96000 -1.052
92.98000 2.938
93.00000 3.470
93.02000 2.114
93.04000 5.472
93.06000 6.909
93.08000 1.980
93.10000 -2.086
93.12000 -0.113
93.14000 0.634
93.16000 0.366
93.18000 0.031
93.20000 3.016
93.22000 4.937
93.24000 4.471
93.26000 0.874
93.28000 3.664
93.30000 6.934
93.32000 2.578
93.34000 1.606
93.36000 4.249
93.38000 -0.901
93.40000 2.247
93.42000 3.057
93.44000 0.074
93.46000 -2.093
93.48000 -0.224
93.50000 1.628
93.52000 6.927
93.54000 5.427
93.56000 5.137
93.58000 1.316
93.60000 -2.097
93.62000 2.268
93.64000 3.516
93.66000 5.666
93.68000 3.422
93.70000 2.826
93.72000 3.691
93.74000 4.296
93.76000 4.542
93.78000 4.260
93.80000 8.818
93.82000 6.818
93.84000 6.749
93.86000 6.604
93.88000 3.685
93.90000 2.476
93.92000 1.144
93.94000 1.366
93.96000 3.563
93.98000 8.190
94.00000 4.880
94.02000 0.265
94.04000 -0.466
94.06000 0.997
94.08000 3.495
94.10000 3.744
94.12000 1.433
94.14000 6.280
94.16000 5.498
94.18000 2.478
94.20000 6.948
94.22000 6.612
94.24000 -1.736
94.26000 0.810
94.28000 3.292
94.30000 4.062
94.32000 5.544
94.34000 1.778
94.36000 6.455
94.38000 6.779
94.40000 -0.339
94.42000 2.056
94.44000 2.068
94.46000 2.726
94.48000 1.324
94.50000 -1.750
94.52000 -2.118
94.54000 -0.078
94.56000 0.281
94.58000 1.682
94.60000 2.732
94.62000 2.221
94.64000 4.024
94.66000 2.595
94.68000 2.756
94.70000 -0.891
94.72000 1.378
94.74000 2.586
94.76000 2.530
94.78000 1.890
94.80000 5.703
94.82000 3.931
94.84000 2.413
94.86000 2.095
94.88000 2.083
94.90000 2.163
94.92000 -2.107
94.94000 3.069
94.96000 3.803
94.98000 2.837
95.00000 9.115
95.02000 5.287
95.04000 1.299
95.06000 1.595
95.08000 3.543
95.10000 3.793
95.12000 5.478
95.14000 5.471
95.16000 0.755
95.18000 1.754
95.20000 2.425
95.22000 2.357
95.24000 2.510
95.26000 6.404
95.28000 6.480
95.30000 4.130
95.32000 0.554
95.34000 -0.823
95.36000 -0.227
95.38000 3.263
95.40000 6.753
95.42000 10.633
95.44000 6.164
95.46000 4.033
95.48000 6.049
95.50000 8.099
95.52000 5.986
95.54000 2.289
95.56000 4.714
95.58000 2.960
95.60000 2.555
95.62000 6.515
95.64000 8.347
95.66000 3.228
95.68000 6.548
95.70000 3.695
95.72000 5.026
95.74000 5.915
95.76000 3.276
95.78000 5.901
95.80000 5.316
95.82000 4.483
95.84000 -0.009
95.86000 0.965
95.88000 5.077
95.90000 1.088
95.92000 4.119
95.94000 -0.241
95.96000 4.942
95.98000 5.067
96.00000 2.444
96.02000 0.443
96.04000 4.559
96.06000 7.576
96.08000 3.698
96.10000 6.053
96.12000 1.521
96.14000 -0.023
96.16000 2.042
96.18000 -0.496
96.20000 4.086
96.22000 2.448
96.24000 1.390
96.26000 9.223
96.28000 7.604
96.30000 3.082
96.32000 -0.778
96.34000 5.149
96.36000 3.772
96.38000 0.071
96.40000 -2.100
96.42000 3.549
96.44000 7.555
96.46000 1.242
96.48000 1.159
96.50000 2.522
96.52000 6.684
96.54000 2.290
96.56000 5.156
96.58000 2.817
96.60000 7.730
96.62000 3.826
96.64000 3.796
96.66000 3.172
96.68000 6.944
96.70000 6.244
96.72000 6.559
96.74000 4.639
96.76000 7.426
96.78000 4.498
96.80000 0.484
96.82000 5.275
96.84000 3.956
96.86000 5.104
96.88000 7.625
96.90000 7.077
96.92000 6.085
96.94000 1.659
96.96000 0.945
96.98000 6.619
97.00000 4.167
97.02000 4.558
97.04000 1.401
97.06000 3.808
97.08000 7.227
97.10000 5.888
97.12000 5.770
97.14000 1.326
97.16000 6.106
97.18000 9.353
97.20000 14.864
97.22000 12.181
97.24000 2.989
97.26000 3.840
97.28000 2.897
97.30000 3.150
97.32000 7.379
97.34000 3.949
97.36000 -2.035
97.38000 6.440
97.40000 6.718
97.42000 4.533
97.44000 3.714
97.46000 6.699
97.48000 5.877
97.50000 8.249
97.52000 8.710
97.54000 7.921
97.56000 6.478
97.58000 0.941
97.60000 5.028
97.62000 1.467
97.64000 3.009
97.66000 7.014
97.68000 6.073
97.70000 10.917
97.72000 7.061
97.74000 2.916
97.76000 4.413
97.78000 1.487
97.80000 -0.335
97.82000 -2.021
97.84000 -0.543
97.86000 5.833
97.88000 6.779
97.90000 8.317
97.92000 4.272
97.94000 -0.712
97.96000 -0.052
97.98000 2.190
98.00000 6.912
98.02000 2.934
98.04000 4.384
98.06000 3.597
98.08000 3.297
98.10000 -2.026
98.12000 0.655
98.14000 1.673
98.16000 4.149
98.18000 3.902
98.20000 9.528
98.22000 2.295
98.24000 7.029
98.26000 -2.029
98.28000 2.221
98.30000 3.778
98.32000 2.600
98.34000 2.990
98.36000 4.022
98.38000 9.121
98.40000 8.328
98.42000 6.227
98.44000 10.126
98.46000 7.039
98.48000 5.002
98.50000 -0.228
98.52000 1.953
98.54000 -0.333
98.56000 1.061
98.58000 3.140
98.60000 0.504
98.62000 10.531
98.64000 7.431
98.66000 8.878
98.68000 11.112
98.70000 13.061
98.72000 4.255
98.74000 3.092
98.76000 1.240
98.78000 7.098
98.80000 5.317
98.82000 5.955
98.84000 2.573
98.86000 4.934
98.88000 8.974
98.90000 6.979
98.92000 12.208
98.94000 4.599
98.96000 -2.019
98.98000 2.729
99.00000 11.229
99.02000 3.655
99.04000 5.124
99.06000 4.318
99.08000 4.116
99.10000 6.682
99.12000 8.641
99.14000 9.254
99.16000 1.051
99.18000 4.039
99.20000 4.682
99.22000 2.649
99.24000 2.549
99.26000 12.033
99.28000 8.801
99.30000 8.998
99.32000 7.972
99.34000 5.092
99.36000 7.816
99.38000 6.562
99.40000 9.193
99.42000 0.272
99.44000 1.260
99.46000 13.277
99.48000 10.475
99.50000 6.849
99.52000 12.204
99.54000 10.537
99.56000 9.186
99.58000 5.529
99.60000 5.562
99.62000 5.484
99.64000 12.323
99.66000 13.076
99.68000 2.060
99.70000 2.659
99.72000 0.688
99.74000 2.792
99.76000 5.407
99.78000 11.521
99.80000 10.101
99.82000 14.297
99.84000 20.141
99.86000 3.130
99.88000 -1.975
99.90000 1.558
99.92000 -0.314
99.94000 -0.641
99.96000 3.518
99.98000 0.000
