'Id: "0011388" Comment: "Integrate frame 0011388_Au-Ir-Rh_Rh-rich_XRD-Mapping-185-0000.gfrmwith cursor Wedge Cursor #5" Operator: "B?rgel" Anode: "Cu" Wavelength: "1.5406" Scantype: "2Theta (TwoTheta)" TimePerStep: "1" X: "-13.5" Y: "4.5" Z: "5.95" 
10.00000 0.000
10.02000 13.018
10.04000 5.982
10.06000 -1.813
10.08000 5.746
10.10000 -4.349
10.12000 -4.337
10.14000 6.988
10.16000 17.261
10.18000 0.108
10.20000 5.879
10.22000 6.999
10.24000 14.805
10.26000 13.478
10.28000 -3.084
10.30000 -4.757
10.32000 22.995
10.34000 32.913
10.36000 14.694
10.38000 13.044
10.40000 6.286
10.42000 16.498
10.44000 27.900
10.46000 24.159
10.48000 9.661
10.50000 5.343
10.52000 16.148
10.54000 2.915
10.56000 -0.833
10.58000 15.716
10.60000 16.003
10.62000 13.911
10.64000 21.408
10.66000 21.000
10.68000 22.293
10.70000 11.670
10.72000 14.242
10.74000 13.772
10.76000 2.574
10.78000 -4.310
10.80000 3.702
10.82000 8.632
10.84000 13.742
10.86000 12.952
10.88000 14.867
10.90000 26.326
10.92000 27.106
10.94000 9.389
10.96000 12.317
10.98000 25.350
11.00000 15.093
11.02000 6.455
11.04000 9.621
11.06000 15.896
11.08000 17.500
11.10000 18.931
11.12000 27.993
11.14000 4.113
11.16000 -1.839
11.18000 4.010
11.20000 -0.456
11.22000 5.252
11.24000 8.149
11.26000 15.806
11.28000 23.867
11.30000 24.852
11.32000 17.063
11.34000 8.361
11.36000 1.375
11.38000 4.058
11.40000 3.429
11.42000 7.606
11.44000 8.165
11.46000 8.810
11.48000 2.219
11.50000 14.230
11.52000 14.954
11.54000 3.120
11.56000 1.140
11.58000 6.753
11.60000 8.072
11.62000 6.658
11.64000 14.166
11.66000 25.218
11.68000 17.870
11.70000 16.852
11.72000 6.035
11.74000 11.331
11.76000 10.406
11.78000 16.014
11.80000 -2.476
11.82000 -0.745
11.84000 -1.697
11.86000 -0.263
11.88000 5.635
11.90000 7.663
11.92000 7.848
11.94000 9.684
11.96000 20.330
11.98000 23.364
12.00000 26.887
12.02000 24.249
12.04000 14.008
12.06000 15.528
12.08000 19.114
12.10000 20.802
12.12000 7.828
12.14000 7.723
12.16000 6.866
12.18000 6.690
12.20000 14.275
12.22000 10.304
12.24000 9.548
12.26000 13.704
12.28000 9.355
12.30000 12.380
12.32000 11.361
12.34000 4.777
12.36000 10.872
12.38000 3.441
12.40000 14.913
12.42000 13.915
12.44000 17.370
12.46000 14.822
12.48000 11.854
12.50000 13.784
12.52000 18.097
12.54000 12.531
12.56000 10.390
12.58000 6.899
12.60000 -0.541
12.62000 4.436
12.64000 3.685
12.66000 8.756
12.68000 24.306
12.70000 18.726
12.72000 17.360
12.74000 2.352
12.76000 0.248
12.78000 23.930
12.80000 21.430
12.82000 23.402
12.84000 19.260
12.86000 23.516
12.88000 29.811
12.90000 6.316
12.92000 5.883
12.94000 13.223
12.96000 6.109
12.98000 6.065
13.00000 0.037
13.02000 7.665
13.04000 10.637
13.06000 4.358
13.08000 9.462
13.10000 19.764
13.12000 17.675
13.14000 15.841
13.16000 5.463
13.18000 5.446
13.20000 9.072
13.22000 16.460
13.24000 15.965
13.26000 11.113
13.28000 2.122
13.30000 14.199
13.32000 24.764
13.34000 18.003
13.36000 13.565
13.38000 13.234
13.40000 15.013
13.42000 14.371
13.44000 21.416
13.46000 14.055
13.48000 6.183
13.50000 10.673
13.52000 6.025
13.54000 1.105
13.56000 13.615
13.58000 13.426
13.60000 10.887
13.62000 9.858
13.64000 7.054
13.66000 4.029
13.68000 5.844
13.70000 5.151
13.72000 6.763
13.74000 17.078
13.76000 15.809
13.78000 17.145
13.80000 10.555
13.82000 19.370
13.84000 7.923
13.86000 5.184
13.88000 14.670
13.90000 11.510
13.92000 13.947
13.94000 11.226
13.96000 11.312
13.98000 2.087
14.00000 10.792
14.02000 8.574
14.04000 -5.160
14.06000 13.055
14.08000 16.444
14.10000 12.639
14.12000 12.136
14.14000 8.086
14.16000 15.920
14.18000 13.539
14.20000 6.513
14.22000 5.167
14.24000 11.093
14.26000 12.008
14.28000 12.508
14.30000 12.801
14.32000 15.133
14.34000 7.270
14.36000 9.251
14.38000 9.729
14.40000 12.042
14.42000 12.014
14.44000 6.906
14.46000 14.268
14.48000 14.409
14.50000 1.063
14.52000 11.101
14.54000 19.303
14.56000 17.412
14.58000 12.819
14.60000 13.829
14.62000 12.144
14.64000 5.962
14.66000 1.601
14.68000 7.672
14.70000 9.244
14.72000 -3.593
14.74000 -2.967
14.76000 1.732
14.78000 7.073
14.80000 11.661
14.82000 6.258
14.84000 8.736
14.86000 3.923
14.88000 11.646
14.90000 18.697
14.92000 10.816
14.94000 9.188
14.96000 8.284
14.98000 6.744
15.00000 13.656
15.02000 2.513
15.04000 1.531
15.06000 13.277
15.08000 11.044
15.10000 9.365
15.12000 8.977
15.14000 11.911
15.16000 15.713
15.18000 14.484
15.20000 23.682
15.22000 13.852
15.24000 14.151
15.26000 20.990
15.28000 8.286
15.30000 7.707
15.32000 13.321
15.34000 9.032
15.36000 12.344
15.38000 14.525
15.40000 11.930
15.42000 14.828
15.44000 10.849
15.46000 13.592
15.48000 9.079
15.50000 6.881
15.52000 19.115
15.54000 16.990
15.56000 12.213
15.58000 5.769
15.60000 3.981
15.62000 1.088
15.64000 -4.309
15.66000 -0.691
15.68000 0.459
15.70000 10.183
15.72000 10.144
15.74000 12.542
15.76000 9.119
15.78000 9.179
15.80000 5.016
15.82000 -0.893
15.84000 -3.992
15.86000 2.036
15.88000 9.961
15.90000 17.139
15.92000 15.126
15.94000 7.439
15.96000 6.526
15.98000 5.045
16.00000 -0.545
16.02000 -1.432
16.04000 9.722
16.06000 11.377
16.08000 11.234
16.10000 8.495
16.12000 9.671
16.14000 18.222
16.16000 2.978
16.18000 -4.396
16.20000 1.320
16.22000 1.093
16.24000 4.326
16.26000 4.109
16.28000 8.307
16.30000 -0.087
16.32000 0.706
16.34000 1.996
16.36000 4.257
16.38000 0.196
16.40000 4.956
16.42000 7.043
16.44000 9.352
16.46000 6.429
16.48000 13.228
16.50000 12.234
16.52000 1.610
16.54000 3.485
16.56000 3.647
16.58000 5.905
16.60000 9.914
16.62000 9.114
16.64000 7.627
16.66000 2.272
16.68000 0.648
16.70000 0.023
16.72000 6.574
16.74000 8.701
16.76000 11.072
16.78000 7.433
16.80000 4.140
16.82000 5.806
16.84000 8.714
16.86000 9.216
16.88000 5.574
16.90000 4.057
16.92000 10.704
16.94000 15.828
16.96000 12.908
16.98000 8.847
17.00000 9.818
17.02000 11.897
17.04000 4.315
17.06000 2.445
17.08000 0.045
17.10000 -2.703
17.12000 3.409
17.14000 4.390
17.16000 12.310
17.18000 17.738
17.20000 13.898
17.22000 14.934
17.24000 11.079
17.26000 10.464
17.28000 1.044
17.30000 -1.101
17.32000 -2.793
17.34000 7.157
17.36000 17.691
17.38000 20.483
17.40000 12.126
17.42000 15.802
17.44000 15.316
17.46000 8.525
17.48000 4.354
17.50000 3.063
17.52000 -1.015
17.54000 -4.346
17.56000 7.656
17.58000 11.153
17.60000 9.937
17.62000 3.865
17.64000 6.907
17.66000 2.219
17.68000 0.920
17.70000 -3.560
17.72000 7.687
17.74000 11.925
17.76000 9.736
17.78000 8.926
17.80000 2.763
17.82000 1.716
17.84000 -0.485
17.86000 2.028
17.88000 10.411
17.90000 12.930
17.92000 1.838
17.94000 -0.132
17.96000 3.881
17.98000 7.967
18.00000 4.286
18.02000 3.798
18.04000 4.872
18.06000 3.365
18.08000 4.755
18.10000 6.622
18.12000 6.814
18.14000 5.095
18.16000 10.581
18.18000 6.473
18.20000 3.644
18.22000 5.241
18.24000 10.673
18.26000 12.404
18.28000 5.732
18.30000 0.865
18.32000 5.648
18.34000 7.657
18.36000 10.237
18.38000 10.405
18.40000 9.347
18.42000 -1.493
18.44000 -4.316
18.46000 1.711
18.48000 -0.788
18.50000 -0.507
18.52000 2.526
18.54000 5.933
18.56000 1.215
18.58000 4.869
18.60000 6.765
18.62000 11.884
18.64000 8.069
18.66000 1.321
18.68000 1.560
18.70000 2.130
18.72000 -1.143
18.74000 5.699
18.76000 8.949
18.78000 0.243
18.80000 1.636
18.82000 2.656
18.84000 9.644
18.86000 8.222
18.88000 -0.277
18.90000 3.390
18.92000 -0.476
18.94000 1.532
18.96000 0.125
18.98000 4.243
19.00000 4.049
19.02000 -1.865
19.04000 3.560
19.06000 6.369
19.08000 5.720
19.10000 6.218
19.12000 8.104
19.14000 1.279
19.16000 -2.068
19.18000 6.707
19.20000 11.073
19.22000 -0.301
19.24000 -2.405
19.26000 -1.497
19.28000 -0.839
19.30000 2.485
19.32000 4.823
19.34000 -0.211
19.36000 4.734
19.38000 2.902
19.40000 5.483
19.42000 8.077
19.44000 -0.213
19.46000 1.718
19.48000 6.287
19.50000 6.304
19.52000 11.203
19.54000 -1.862
19.56000 -0.013
19.58000 3.119
19.60000 2.131
19.62000 0.741
19.64000 10.985
19.66000 9.752
19.68000 1.248
19.70000 -0.491
19.72000 4.194
19.74000 -2.667
19.76000 1.186
19.78000 6.324
19.80000 6.422
19.82000 2.742
19.84000 -1.543
19.86000 2.511
19.88000 -2.000
19.90000 1.750
19.92000 8.539
19.94000 3.019
19.96000 -0.670
19.98000 0.221
20.00000 -1.205
20.02000 5.557
20.04000 2.920
20.06000 8.515
20.08000 7.126
20.10000 5.852
20.12000 4.155
20.14000 7.579
20.16000 7.139
20.18000 4.658
20.20000 4.853
20.22000 4.166
20.24000 7.148
20.26000 5.634
20.28000 1.562
20.30000 4.906
20.32000 4.137
20.34000 -0.678
20.36000 0.239
20.38000 -1.837
20.40000 6.668
20.42000 7.697
20.44000 4.306
20.46000 6.642
20.48000 5.994
20.50000 8.807
20.52000 4.472
20.54000 3.349
20.56000 -4.201
20.58000 0.680
20.60000 7.813
20.62000 5.824
20.64000 4.325
20.66000 10.199
20.68000 9.884
20.70000 4.524
20.72000 -0.813
20.74000 2.693
20.76000 1.941
20.78000 -1.066
20.80000 -4.179
20.82000 2.048
20.84000 15.356
20.86000 9.161
20.88000 9.579
20.90000 8.974
20.92000 8.210
20.94000 12.116
20.96000 11.574
20.98000 2.595
21.00000 -4.169
21.02000 -1.211
21.04000 -1.550
21.06000 2.909
21.08000 2.714
21.10000 3.452
21.12000 5.139
21.14000 4.860
21.16000 2.309
21.18000 1.114
21.20000 4.614
21.22000 5.646
21.24000 1.855
21.26000 2.952
21.28000 -2.799
21.30000 -1.527
21.32000 -0.603
21.34000 -0.022
21.36000 3.597
21.38000 -1.231
21.40000 1.689
21.42000 0.719
21.44000 1.165
21.46000 1.435
21.48000 2.198
21.50000 -0.236
21.52000 1.630
21.54000 1.423
21.56000 4.454
21.58000 9.141
21.60000 2.404
21.62000 1.862
21.64000 1.457
21.66000 4.353
21.68000 4.035
21.70000 4.762
21.72000 2.095
21.74000 3.042
21.76000 2.107
21.78000 6.041
21.80000 7.658
21.82000 10.834
21.84000 5.014
21.86000 7.143
21.88000 -0.059
21.90000 5.184
21.92000 7.062
21.94000 6.587
21.96000 7.646
21.98000 3.921
22.00000 5.733
22.02000 4.491
22.04000 -0.625
22.06000 1.018
22.08000 6.141
22.10000 7.523
22.12000 5.148
22.14000 4.425
22.16000 1.482
22.18000 -3.877
22.20000 -4.100
22.22000 -0.873
22.24000 1.612
22.26000 7.576
22.28000 5.451
22.30000 0.525
22.32000 3.071
22.34000 3.150
22.36000 0.413
22.38000 -2.607
22.40000 0.267
22.42000 3.013
22.44000 -0.563
22.46000 4.681
22.48000 -0.498
22.50000 3.531
22.52000 10.119
22.54000 7.435
22.56000 6.257
22.58000 2.973
22.60000 4.484
22.62000 7.510
22.64000 0.466
22.66000 -2.232
22.68000 2.927
22.70000 6.786
22.72000 1.324
22.74000 -3.219
22.76000 -0.718
22.78000 2.356
22.80000 8.173
22.82000 7.746
22.84000 5.361
22.86000 0.496
22.88000 1.149
22.90000 0.347
22.92000 -1.183
22.94000 1.153
22.96000 2.435
22.98000 -4.066
23.00000 -0.784
23.02000 3.681
23.04000 4.566
23.06000 -0.359
23.08000 8.662
23.10000 3.911
23.12000 -2.541
23.14000 -2.628
23.16000 2.840
23.18000 3.080
23.20000 2.284
23.22000 1.190
23.24000 -0.852
23.26000 3.800
23.28000 -2.040
23.30000 0.058
23.32000 7.259
23.34000 2.561
23.36000 0.553
23.38000 3.508
23.40000 3.621
23.42000 2.621
23.44000 5.516
23.46000 4.765
23.48000 0.928
23.50000 2.110
23.52000 -2.460
23.54000 -0.440
23.56000 3.334
23.58000 7.668
23.60000 4.229
23.62000 4.231
23.64000 2.842
23.66000 -0.223
23.68000 0.919
23.70000 -3.908
23.72000 -4.038
23.74000 5.087
23.76000 8.643
23.78000 11.404
23.80000 5.374
23.82000 1.054
23.84000 1.455
23.86000 1.754
23.88000 1.466
23.90000 1.830
23.92000 4.422
23.94000 0.216
23.96000 2.548
23.98000 8.846
24.00000 10.815
24.02000 10.634
24.04000 1.633
24.06000 0.090
24.08000 0.507
24.10000 -1.664
24.12000 -1.188
24.14000 3.546
24.16000 11.143
24.18000 10.959
24.20000 8.945
24.22000 12.235
24.24000 10.172
24.26000 2.913
24.28000 0.133
24.30000 1.501
24.32000 4.743
24.34000 -0.717
24.36000 -1.200
24.38000 1.568
24.40000 1.881
24.42000 1.147
24.44000 5.285
24.46000 9.470
24.48000 5.547
24.50000 0.744
24.52000 1.216
24.54000 6.570
24.56000 5.653
24.58000 -1.044
24.60000 -1.305
24.62000 -0.011
24.64000 5.505
24.66000 7.300
24.68000 3.327
24.70000 3.334
24.72000 8.217
24.74000 8.347
24.76000 9.302
24.78000 9.252
24.80000 6.873
24.82000 -1.889
24.84000 0.684
24.86000 2.105
24.88000 -0.161
24.90000 4.699
24.92000 -1.030
24.94000 -1.103
24.96000 1.731
24.98000 2.654
25.00000 5.047
25.02000 2.158
25.04000 -0.631
25.06000 2.832
25.08000 4.950
25.10000 2.115
25.12000 0.802
25.14000 6.966
25.16000 3.480
25.18000 4.410
25.20000 4.495
25.22000 3.956
25.24000 3.825
25.26000 2.237
25.28000 2.834
25.30000 4.594
25.32000 8.895
25.34000 11.565
25.36000 6.332
25.38000 7.588
25.40000 7.443
25.42000 14.165
25.44000 12.933
25.46000 12.165
25.48000 13.327
25.50000 7.149
25.52000 8.223
25.54000 11.878
25.56000 7.981
25.58000 8.832
25.60000 8.610
25.62000 11.312
25.64000 2.266
25.66000 -3.860
25.68000 5.020
25.70000 11.332
25.72000 11.686
25.74000 7.881
25.76000 8.262
25.78000 5.368
25.80000 10.532
25.82000 7.104
25.84000 8.986
25.86000 9.298
25.88000 5.735
25.90000 6.951
25.92000 6.339
25.94000 9.974
25.96000 6.789
25.98000 3.142
26.00000 6.132
26.02000 9.516
26.04000 5.842
26.06000 5.495
26.08000 8.798
26.10000 11.666
26.12000 12.565
26.14000 16.033
26.16000 9.458
26.18000 1.099
26.20000 0.917
26.22000 11.101
26.24000 12.192
26.26000 6.945
26.28000 7.249
26.30000 8.437
26.32000 7.208
26.34000 4.948
26.36000 5.068
26.38000 1.364
26.40000 3.029
26.42000 2.999
26.44000 1.858
26.46000 4.418
26.48000 4.171
26.50000 5.980
26.52000 5.632
26.54000 4.252
26.56000 4.252
26.58000 3.353
26.60000 6.759
26.62000 12.996
26.64000 8.501
26.66000 7.788
26.68000 3.389
26.70000 -0.420
26.72000 2.301
26.74000 1.446
26.76000 1.650
26.78000 8.506
26.80000 12.048
26.82000 7.177
26.84000 5.082
26.86000 5.550
26.88000 6.972
26.90000 5.139
26.92000 6.428
26.94000 2.780
26.96000 0.823
26.98000 -0.662
27.00000 0.111
27.02000 -1.751
27.04000 -2.938
27.06000 2.562
27.08000 6.261
27.10000 1.400
27.12000 -3.851
27.14000 0.104
27.16000 -1.431
27.18000 1.160
27.20000 4.102
27.22000 4.460
27.24000 4.250
27.26000 3.870
27.28000 4.594
27.30000 2.676
27.32000 5.184
27.34000 3.634
27.36000 3.225
27.38000 7.315
27.40000 6.063
27.42000 1.425
27.44000 1.982
27.46000 -1.373
27.48000 1.366
27.50000 -0.456
27.52000 -2.246
27.54000 2.837
27.56000 11.382
27.58000 10.886
27.60000 1.212
27.62000 -0.615
27.64000 4.070
27.66000 6.155
27.68000 2.201
27.70000 5.194
27.72000 0.289
27.74000 1.787
27.76000 4.415
27.78000 -0.769
27.80000 2.560
27.82000 6.140
27.84000 0.409
27.86000 -2.437
27.88000 0.658
27.90000 -1.198
27.92000 0.612
27.94000 4.636
27.96000 3.817
27.98000 -2.198
28.00000 5.927
28.02000 9.240
28.04000 5.048
28.06000 2.736
28.08000 4.458
28.10000 7.729
28.12000 7.255
28.14000 2.959
28.16000 3.035
28.18000 7.269
28.20000 2.923
28.22000 0.683
28.24000 2.721
28.26000 2.190
28.28000 1.147
28.30000 5.487
28.32000 9.829
28.34000 8.202
28.36000 8.250
28.38000 1.767
28.40000 -3.777
28.42000 -0.081
28.44000 4.978
28.46000 2.785
28.48000 5.410
28.50000 5.559
28.52000 2.357
28.54000 0.824
28.56000 2.022
28.58000 -0.504
28.60000 4.263
28.62000 7.935
28.64000 4.435
28.66000 1.416
28.68000 5.750
28.70000 3.031
28.72000 4.714
28.74000 4.596
28.76000 8.468
28.78000 5.651
28.80000 4.318
28.82000 0.197
28.84000 -0.058
28.86000 1.712
28.88000 0.779
28.90000 0.935
28.92000 4.335
28.94000 6.369
28.96000 5.363
28.98000 4.871
29.00000 2.987
29.02000 0.522
29.04000 -0.729
29.06000 0.238
29.08000 -0.587
29.10000 4.202
29.12000 3.379
29.14000 -1.187
29.16000 -3.725
29.18000 -0.905
29.20000 0.165
29.22000 6.673
29.24000 6.164
29.26000 -1.020
29.28000 1.941
29.30000 5.042
29.32000 7.144
29.34000 3.517
29.36000 3.113
29.38000 1.177
29.40000 1.469
29.42000 -1.784
29.44000 -3.017
29.46000 -1.518
29.48000 1.644
29.50000 1.680
29.52000 1.625
29.54000 4.268
29.56000 1.459
29.58000 2.560
29.60000 7.394
29.62000 4.122
29.64000 5.055
29.66000 6.465
29.68000 6.171
29.70000 1.699
29.72000 -0.364
29.74000 3.584
29.76000 4.422
29.78000 7.368
29.80000 7.849
29.82000 10.563
29.84000 8.381
29.86000 6.539
29.88000 3.272
29.90000 4.631
29.92000 3.690
29.94000 1.416
29.96000 2.030
29.98000 3.304
30.00000 3.442
30.02000 0.858
30.04000 4.639
30.06000 2.304
30.08000 -1.430
30.10000 3.569
30.12000 5.121
30.14000 2.288
30.16000 2.713
30.18000 9.635
30.20000 5.707
30.22000 3.544
30.24000 4.058
30.26000 -0.366
30.28000 -3.656
30.30000 -3.575
30.32000 1.554
30.34000 4.904
30.36000 8.090
30.38000 9.357
30.40000 5.439
30.42000 3.943
30.44000 1.823
30.46000 6.036
30.48000 3.688
30.50000 6.307
30.52000 8.288
30.54000 12.252
30.56000 8.261
30.58000 -0.663
30.60000 4.314
30.62000 6.418
30.64000 7.131
30.66000 5.565
30.68000 3.877
30.70000 -1.083
30.72000 1.934
30.74000 0.791
30.76000 5.339
30.78000 6.402
30.80000 5.272
30.82000 5.595
30.84000 0.591
30.86000 -0.775
30.88000 0.806
30.90000 2.462
30.92000 3.250
30.94000 4.315
30.96000 7.175
30.98000 2.761
31.00000 3.696
31.02000 3.967
31.04000 7.586
31.06000 7.528
31.08000 7.860
31.10000 6.638
31.12000 1.620
31.14000 -0.612
31.16000 4.761
31.18000 5.551
31.20000 6.687
31.22000 8.299
31.24000 -0.175
31.26000 -3.603
31.28000 -0.531
31.30000 2.520
31.32000 0.410
31.34000 5.539
31.36000 9.938
31.38000 11.747
31.40000 8.312
31.42000 9.360
31.44000 5.177
31.46000 9.103
31.48000 4.784
31.50000 2.305
31.52000 4.789
31.54000 8.322
31.56000 4.836
31.58000 4.199
31.60000 5.146
31.62000 3.444
31.64000 3.719
31.66000 1.719
31.68000 5.394
31.70000 1.875
31.72000 2.362
31.74000 4.922
31.76000 9.870
31.78000 8.802
31.80000 4.048
31.82000 5.348
31.84000 4.428
31.86000 2.525
31.88000 7.089
31.90000 2.737
31.92000 2.541
31.94000 3.878
31.96000 -2.746
31.98000 -0.571
32.00000 1.981
32.02000 5.550
32.04000 3.281
32.06000 2.207
32.08000 2.253
32.10000 2.135
32.12000 6.657
32.14000 4.245
32.16000 3.496
32.18000 4.626
32.20000 3.888
32.22000 -0.051
32.24000 4.282
32.26000 5.046
32.28000 -2.013
32.30000 2.148
32.32000 3.370
32.34000 3.983
32.36000 5.942
32.38000 5.663
32.40000 -3.605
32.42000 -2.501
32.44000 3.004
32.46000 4.029
32.48000 2.459
32.50000 -0.717
32.52000 -1.266
32.54000 1.181
32.56000 0.534
32.58000 -1.125
32.60000 2.493
32.62000 5.067
32.64000 2.538
32.66000 -2.033
32.68000 -0.374
32.70000 8.859
32.72000 7.040
32.74000 2.558
32.76000 2.637
32.78000 9.673
32.80000 8.398
32.82000 1.348
32.84000 -0.725
32.86000 -1.278
32.88000 -0.398
32.90000 1.697
32.92000 2.787
32.94000 0.998
32.96000 1.786
32.98000 -0.569
33.00000 4.266
33.02000 10.252
33.04000 4.861
33.06000 3.444
33.08000 6.124
33.10000 5.667
33.12000 -0.596
33.14000 -0.778
33.16000 4.906
33.18000 1.618
33.20000 -2.704
33.22000 7.184
33.24000 6.251
33.26000 6.057
33.28000 3.754
33.30000 5.525
33.32000 4.750
33.34000 6.608
33.36000 3.671
33.38000 -0.464
33.40000 3.504
33.42000 6.240
33.44000 2.194
33.46000 1.054
33.48000 1.215
33.50000 7.613
33.52000 6.524
33.54000 9.859
33.56000 8.321
33.58000 2.670
33.60000 1.755
33.62000 2.921
33.64000 5.673
33.66000 3.893
33.68000 3.694
33.70000 0.033
33.72000 -3.562
33.74000 1.192
33.76000 6.720
33.78000 7.883
33.80000 3.973
33.82000 1.568
33.84000 6.324
33.86000 11.562
33.88000 5.547
33.90000 5.439
33.92000 3.116
33.94000 6.223
33.96000 5.486
33.98000 6.197
34.00000 7.066
34.02000 3.813
34.04000 1.071
34.06000 2.165
34.08000 5.088
34.10000 3.354
34.12000 3.345
34.14000 8.938
34.16000 6.099
34.18000 8.638
34.20000 6.655
34.22000 3.340
34.24000 2.923
34.26000 3.001
34.28000 7.351
34.30000 4.538
34.32000 -3.542
34.34000 -0.420
34.36000 3.372
34.38000 3.224
34.40000 3.398
34.42000 0.605
34.44000 3.677
34.46000 11.764
34.48000 9.427
34.50000 4.701
34.52000 6.782
34.54000 4.640
34.56000 4.796
34.58000 3.022
34.60000 2.829
34.62000 0.191
34.64000 4.954
34.66000 9.887
34.68000 4.302
34.70000 -0.389
34.72000 2.067
34.74000 6.623
34.76000 7.486
34.78000 5.900
34.80000 0.561
34.82000 0.434
34.84000 0.501
34.86000 4.322
34.88000 1.897
34.90000 1.566
34.92000 4.410
34.94000 1.628
34.96000 -0.709
34.98000 0.357
35.00000 2.569
35.02000 1.381
35.04000 -0.463
35.06000 -2.019
35.08000 2.292
35.10000 3.999
35.12000 1.281
35.14000 5.334
35.16000 3.808
35.18000 4.087
35.20000 1.019
35.22000 4.953
35.24000 1.224
35.26000 -3.528
35.28000 0.384
35.30000 0.288
35.32000 0.375
35.34000 -0.932
35.36000 0.341
35.38000 3.610
35.40000 -2.159
35.42000 2.228
35.44000 6.706
35.46000 7.995
35.48000 3.601
35.50000 4.668
35.52000 5.454
35.54000 4.408
35.56000 3.538
35.58000 1.876
35.60000 1.021
35.62000 5.800
35.64000 2.750
35.66000 2.646
35.68000 1.130
35.70000 1.086
35.72000 3.623
35.74000 3.423
35.76000 4.111
35.78000 4.025
35.80000 -1.535
35.82000 -3.402
35.84000 3.154
35.86000 6.618
35.88000 4.153
35.90000 0.320
35.92000 1.651
35.94000 2.460
35.96000 -2.739
35.98000 -0.928
36.00000 -3.546
36.02000 -0.961
36.04000 2.435
36.06000 1.636
36.08000 4.901
36.10000 5.586
36.12000 1.498
36.14000 3.041
36.16000 2.577
36.18000 0.697
36.20000 0.112
36.22000 4.980
36.24000 7.124
36.26000 2.071
36.28000 5.029
36.30000 4.217
36.32000 -3.443
36.34000 3.029
36.36000 6.099
36.38000 0.087
36.40000 2.186
36.42000 4.229
36.44000 -0.797
36.46000 0.387
36.48000 -0.588
36.50000 1.362
36.52000 1.455
36.54000 2.565
36.56000 -1.563
36.58000 -2.566
36.60000 0.319
36.62000 2.622
36.64000 4.300
36.66000 2.515
36.68000 3.443
36.70000 3.727
36.72000 0.926
36.74000 5.558
36.76000 1.989
36.78000 -1.201
36.80000 -2.059
36.82000 -1.463
36.84000 -3.575
36.86000 -1.329
36.88000 2.847
36.90000 2.683
36.92000 -1.940
36.94000 -3.577
36.96000 2.434
36.98000 5.540
37.00000 -0.371
37.02000 -1.679
37.04000 -0.707
37.06000 7.150
37.08000 8.235
37.10000 2.847
37.12000 5.385
37.14000 1.349
37.16000 0.748
37.18000 0.629
37.20000 -2.131
37.22000 -3.583
37.24000 3.199
37.26000 2.924
37.28000 2.845
37.30000 3.186
37.32000 6.403
37.34000 3.777
37.36000 0.805
37.38000 0.666
37.40000 1.755
37.42000 2.049
37.44000 3.628
37.46000 0.111
37.48000 1.881
37.50000 0.554
37.52000 2.959
37.54000 4.963
37.56000 7.477
37.58000 0.539
37.60000 4.879
37.62000 3.022
37.64000 -1.165
37.66000 1.320
37.68000 1.945
37.70000 6.179
37.72000 3.373
37.74000 1.660
37.76000 2.321
37.78000 5.584
37.80000 6.040
37.82000 5.245
37.84000 5.591
37.86000 0.516
37.88000 5.116
37.90000 5.974
37.92000 6.045
37.94000 3.977
37.96000 -0.124
37.98000 4.212
38.00000 7.726
38.02000 10.444
38.04000 13.024
38.06000 9.804
38.08000 11.983
38.10000 14.439
38.12000 10.957
38.14000 7.127
38.16000 10.723
38.18000 14.240
38.20000 8.198
38.22000 8.057
38.24000 7.589
38.26000 11.077
38.28000 9.410
38.30000 10.317
38.32000 15.859
38.34000 16.652
38.36000 15.300
38.38000 13.711
38.40000 12.986
38.42000 17.484
38.44000 18.775
38.46000 17.046
38.48000 12.226
38.50000 16.106
38.52000 16.595
38.54000 15.967
38.56000 13.946
38.58000 17.571
38.60000 22.011
38.62000 21.945
38.64000 26.033
38.66000 30.409
38.68000 23.903
38.70000 21.313
38.72000 25.160
38.74000 26.453
38.76000 28.615
38.78000 27.034
38.80000 27.541
38.82000 31.660
38.84000 35.484
38.86000 35.644
38.88000 39.594
38.90000 35.693
38.92000 38.997
38.94000 40.193
38.96000 38.216
38.98000 41.237
39.00000 40.653
39.02000 44.483
39.04000 48.679
39.06000 45.843
39.08000 48.297
39.10000 58.293
39.12000 62.912
39.14000 60.795
39.16000 59.810
39.18000 62.393
39.20000 64.712
39.22000 68.898
39.24000 71.752
39.26000 73.898
39.28000 83.937
39.30000 84.834
39.32000 80.670
39.34000 82.473
39.36000 89.133
39.38000 96.815
39.40000 102.109
39.42000 104.322
39.44000 106.052
39.46000 114.683
39.48000 115.595
39.50000 123.627
39.52000 132.630
39.54000 131.895
39.56000 147.160
39.58000 156.016
39.60000 155.773
39.62000 156.890
39.64000 167.987
39.66000 181.520
39.68000 189.058
39.70000 191.183
39.72000 202.379
39.74000 223.504
39.76000 229.904
39.78000 237.365
39.80000 252.756
39.82000 268.065
39.84000 275.781
39.86000 288.436
39.88000 297.474
39.90000 309.901
39.92000 323.086
39.94000 334.620
39.96000 353.164
39.98000 370.946
40.00000 372.145
40.02000 390.635
40.04000 408.663
40.06000 432.055
40.08000 453.362
40.10000 467.394
40.12000 476.345
40.14000 487.544
40.16000 504.283
40.18000 500.463
40.20000 513.249
40.22000 525.261
40.24000 529.131
40.26000 543.567
40.28000 550.620
40.30000 551.000
40.32000 547.941
40.34000 553.554
40.36000 561.607
40.38000 558.320
40.40000 552.666
40.42000 547.601
40.44000 552.445
40.46000 552.170
40.48000 539.830
40.50000 524.405
40.52000 513.718
40.54000 502.328
40.56000 492.080
40.58000 479.791
40.60000 469.103
40.62000 448.039
40.64000 430.061
40.66000 424.387
40.68000 410.186
40.70000 397.647
40.72000 383.470
40.74000 369.623
40.76000 355.723
40.78000 342.277
40.80000 325.904
40.82000 303.393
40.84000 294.842
40.86000 285.347
40.88000 270.038
40.90000 253.034
40.92000 242.214
40.94000 228.173
40.96000 224.722
40.98000 221.167
41.00000 202.950
41.02000 188.078
41.04000 174.058
41.06000 169.018
41.08000 155.724
41.10000 144.963
41.12000 138.828
41.14000 135.462
41.16000 133.604
41.18000 126.146
41.20000 110.430
41.22000 108.232
41.24000 101.983
41.26000 97.129
41.28000 93.669
41.30000 89.116
41.32000 88.609
41.34000 87.520
41.36000 81.318
41.38000 77.290
41.40000 70.182
41.42000 61.653
41.44000 62.592
41.46000 55.481
41.48000 54.328
41.50000 53.789
41.52000 45.726
41.54000 41.442
41.56000 41.496
41.58000 42.179
41.60000 38.615
41.62000 40.085
41.64000 36.523
41.66000 34.492
41.68000 34.160
41.70000 29.210
41.72000 29.128
41.74000 25.948
41.76000 25.487
41.78000 22.611
41.80000 20.009
41.82000 20.039
41.84000 17.367
41.86000 15.297
41.88000 13.917
41.90000 16.583
41.92000 18.545
41.94000 20.537
41.96000 18.664
41.98000 15.415
42.00000 12.843
42.02000 4.838
42.04000 6.985
42.06000 11.985
42.08000 9.164
42.10000 12.113
42.12000 10.406
42.14000 8.025
42.16000 6.945
42.18000 3.558
42.20000 5.957
42.22000 6.445
42.24000 4.697
42.26000 1.401
42.28000 2.903
42.30000 4.967
42.32000 7.293
42.34000 6.432
42.36000 3.668
42.38000 2.275
42.40000 1.827
42.42000 0.476
42.44000 -2.444
42.46000 1.439
42.48000 3.063
42.50000 1.020
42.52000 2.663
42.54000 3.504
42.56000 1.884
42.58000 4.205
42.60000 0.619
42.62000 1.010
42.64000 -3.096
42.66000 -0.203
42.68000 3.125
42.70000 0.595
42.72000 4.868
42.74000 0.779
42.76000 -1.841
42.78000 4.165
42.80000 4.641
42.82000 -0.820
42.84000 -1.404
42.86000 -1.688
42.88000 -2.799
42.90000 0.711
42.92000 1.475
42.94000 -2.128
42.96000 -2.996
42.98000 1.319
43.00000 -1.046
43.02000 -2.893
43.04000 -1.757
43.06000 2.644
43.08000 0.260
43.10000 -2.316
43.12000 2.935
43.14000 -2.616
43.16000 -2.222
43.18000 3.131
43.20000 1.549
43.22000 -3.039
43.24000 -3.530
43.26000 -1.944
43.28000 -1.296
43.30000 -2.836
43.32000 -2.304
43.34000 -3.441
43.36000 -3.116
43.38000 -1.822
43.40000 -3.512
43.42000 -0.567
43.44000 4.632
43.46000 7.693
43.48000 1.435
43.50000 -3.503
43.52000 -2.690
43.54000 1.018
43.56000 1.340
43.58000 5.501
43.60000 7.803
43.62000 6.135
43.64000 2.496
43.66000 3.165
43.68000 0.616
43.70000 3.301
43.72000 1.236
43.74000 0.393
43.76000 1.925
43.78000 2.392
43.80000 5.670
43.82000 3.320
43.84000 4.465
43.86000 3.318
43.88000 1.644
43.90000 1.051
43.92000 2.606
43.94000 -3.455
43.96000 -3.130
43.98000 0.326
44.00000 0.252
44.02000 -0.976
44.04000 -0.931
44.06000 0.287
44.08000 -0.770
44.10000 4.568
44.12000 2.033
44.14000 -1.864
44.16000 -2.401
44.18000 -0.934
44.20000 3.090
44.22000 -0.950
44.24000 -1.926
44.26000 0.376
44.28000 0.364
44.30000 2.427
44.32000 0.759
44.34000 0.076
44.36000 -1.483
44.38000 1.158
44.40000 0.576
44.42000 -0.198
44.44000 -1.538
44.46000 -0.835
44.48000 1.067
44.50000 1.004
44.52000 0.312
44.54000 1.067
44.56000 -2.312
44.58000 -0.703
44.60000 0.452
44.62000 -1.208
44.64000 3.433
44.66000 6.406
44.68000 4.691
44.70000 4.198
44.72000 3.032
44.74000 4.253
44.76000 6.437
44.78000 7.288
44.80000 3.535
44.82000 -0.624
44.84000 -3.360
44.86000 -0.728
44.88000 3.491
44.90000 -1.971
44.92000 -1.633
44.94000 4.425
44.96000 6.379
44.98000 0.191
45.00000 2.588
45.02000 0.960
45.04000 1.608
45.06000 1.716
45.08000 3.815
45.10000 6.979
45.12000 1.548
45.14000 1.495
45.16000 -0.092
45.18000 5.509
45.20000 5.863
45.22000 8.038
45.24000 11.141
45.26000 12.834
45.28000 7.506
45.30000 8.295
45.32000 8.383
45.34000 8.651
45.36000 7.070
45.38000 8.339
45.40000 12.996
45.42000 17.593
45.44000 14.280
45.46000 13.232
45.48000 11.421
45.50000 11.927
45.52000 14.809
45.54000 12.462
45.56000 12.186
45.58000 15.342
45.60000 17.413
45.62000 22.777
45.64000 21.405
45.66000 19.708
45.68000 20.380
45.70000 12.091
45.72000 15.510
45.74000 21.143
45.76000 24.427
45.78000 24.689
45.80000 23.574
45.82000 22.728
45.84000 16.879
45.86000 18.896
45.88000 25.816
45.90000 27.251
45.92000 30.350
45.94000 29.108
45.96000 24.820
45.98000 27.020
46.00000 29.728
46.02000 31.908
46.04000 32.902
46.06000 31.816
46.08000 35.234
46.10000 39.159
46.12000 37.344
46.14000 44.723
46.16000 46.193
46.18000 44.660
46.20000 43.217
46.22000 48.344
46.24000 52.806
46.26000 54.442
46.28000 53.267
46.30000 42.213
46.32000 46.222
46.34000 51.034
46.36000 56.045
46.38000 61.050
46.40000 58.026
46.42000 58.951
46.44000 63.219
46.46000 62.347
46.48000 64.380
46.50000 67.343
46.52000 70.949
46.54000 67.869
46.56000 67.050
46.58000 69.026
46.60000 72.802
46.62000 78.151
46.64000 81.910
46.66000 80.520
46.68000 81.029
46.70000 81.434
46.72000 78.362
46.74000 81.591
46.76000 79.881
46.78000 81.541
46.80000 84.623
46.82000 81.353
46.84000 82.139
46.86000 79.203
46.88000 84.478
46.90000 91.565
46.92000 84.512
46.94000 82.141
46.96000 85.077
46.98000 89.803
47.00000 76.658
47.02000 75.721
47.04000 85.830
47.06000 85.557
47.08000 77.830
47.10000 71.870
47.12000 74.955
47.14000 71.054
47.16000 70.227
47.18000 67.316
47.20000 65.145
47.22000 70.308
47.24000 71.838
47.26000 70.510
47.28000 65.070
47.30000 65.340
47.32000 67.516
47.34000 65.523
47.36000 63.211
47.38000 62.031
47.40000 58.882
47.42000 56.212
47.44000 55.787
47.46000 49.762
47.48000 46.297
47.50000 48.634
47.52000 47.042
47.54000 42.543
47.56000 44.646
47.58000 46.833
47.60000 45.331
47.62000 46.184
47.64000 41.463
47.66000 29.915
47.68000 30.391
47.70000 30.413
47.72000 29.655
47.74000 31.096
47.76000 34.054
47.78000 29.929
47.80000 25.542
47.82000 25.065
47.84000 23.788
47.86000 28.726
47.88000 27.484
47.90000 24.739
47.92000 22.105
47.94000 18.693
47.96000 18.601
47.98000 16.172
48.00000 21.955
48.02000 19.212
48.04000 14.836
48.06000 11.268
48.08000 13.482
48.10000 16.359
48.12000 15.314
48.14000 14.849
48.16000 13.522
48.18000 14.680
48.20000 11.759
48.22000 7.308
48.24000 8.165
48.26000 8.378
48.28000 9.230
48.30000 4.828
48.32000 1.345
48.34000 3.168
48.36000 6.958
48.38000 7.342
48.40000 5.511
48.42000 5.308
48.44000 13.491
48.46000 12.172
48.48000 2.436
48.50000 1.276
48.52000 5.229
48.54000 5.895
48.56000 2.704
48.58000 3.861
48.60000 4.346
48.62000 1.603
48.64000 3.061
48.66000 -0.032
48.68000 2.520
48.70000 6.356
48.72000 3.844
48.74000 1.972
48.76000 2.198
48.78000 3.934
48.80000 -0.082
48.82000 -3.192
48.84000 -1.499
48.86000 7.335
48.88000 8.676
48.90000 7.255
48.92000 4.794
48.94000 -1.290
48.96000 5.142
48.98000 2.424
49.00000 4.560
49.02000 3.169
49.04000 0.101
49.06000 1.209
49.08000 -2.026
49.10000 -0.759
49.12000 1.461
49.14000 1.794
49.16000 -2.116
49.18000 0.428
49.20000 2.280
49.22000 0.952
49.24000 2.051
49.26000 -0.201
49.28000 0.475
49.30000 2.750
49.32000 1.830
49.34000 4.617
49.36000 -0.189
49.38000 -0.559
49.40000 -1.627
49.42000 -1.824
49.44000 3.614
49.46000 3.527
49.48000 3.792
49.50000 2.722
49.52000 1.321
49.54000 -0.470
49.56000 -0.389
49.58000 -3.068
49.60000 0.620
49.62000 7.330
49.64000 6.690
49.66000 3.117
49.68000 6.252
49.70000 8.048
49.72000 4.994
49.74000 4.024
49.76000 -0.831
49.78000 0.203
49.80000 4.566
49.82000 2.195
49.84000 5.221
49.86000 2.113
49.88000 0.031
49.90000 -2.636
49.92000 -1.398
49.94000 -0.475
49.96000 2.523
49.98000 -0.817
50.00000 2.074
50.02000 -1.007
50.04000 4.083
50.06000 1.645
50.08000 -2.770
50.10000 2.740
50.12000 3.024
50.14000 3.656
50.16000 4.147
50.18000 4.428
50.20000 6.733
50.22000 1.926
50.24000 2.617
50.26000 4.700
50.28000 -0.911
50.30000 0.962
50.32000 0.726
50.34000 2.524
50.36000 5.177
50.38000 7.059
50.40000 3.809
50.42000 1.300
50.44000 -2.803
50.46000 -0.344
50.48000 4.212
50.50000 3.695
50.52000 5.476
50.54000 8.582
50.56000 5.504
50.58000 2.096
50.60000 1.514
50.62000 5.390
50.64000 4.611
50.66000 3.730
50.68000 1.268
50.70000 -1.232
50.72000 -2.940
50.74000 2.234
50.76000 4.260
50.78000 3.673
50.80000 5.452
50.82000 4.925
50.84000 10.468
50.86000 7.222
50.88000 5.918
50.90000 4.461
50.92000 4.991
50.94000 7.266
50.96000 11.173
50.98000 8.391
51.00000 0.662
51.02000 1.638
51.04000 3.961
51.06000 1.599
51.08000 3.569
51.10000 4.634
51.12000 -2.908
51.14000 -0.150
51.16000 6.246
51.18000 9.948
51.20000 10.361
51.22000 7.503
51.24000 7.751
51.26000 6.728
51.28000 6.465
51.30000 2.064
51.32000 1.983
51.34000 -0.157
51.36000 0.946
51.38000 3.882
51.40000 3.252
51.42000 6.570
51.44000 5.668
51.46000 7.537
51.48000 8.175
51.50000 2.651
51.52000 1.661
51.54000 5.442
51.56000 2.250
51.58000 -0.527
51.60000 5.166
51.62000 7.561
51.64000 5.456
51.66000 5.757
51.68000 6.028
51.70000 -1.355
51.72000 -2.878
51.74000 2.409
51.76000 7.475
51.78000 5.532
51.80000 6.323
51.82000 8.184
51.84000 8.397
51.86000 4.077
51.88000 4.047
51.90000 1.471
51.92000 -1.128
51.94000 0.396
51.96000 5.171
51.98000 4.588
52.00000 1.005
52.02000 -1.775
52.04000 1.612
52.06000 2.670
52.08000 -0.887
52.10000 2.183
52.12000 6.179
52.14000 7.185
52.16000 4.440
52.18000 2.734
52.20000 1.637
52.22000 1.320
52.24000 0.439
52.26000 1.527
52.28000 3.803
52.30000 5.178
52.32000 9.014
52.34000 5.674
52.36000 1.970
52.38000 4.496
52.40000 2.069
52.42000 6.064
52.44000 2.551
52.46000 3.188
52.48000 1.260
52.50000 2.680
52.52000 2.594
52.54000 3.921
52.56000 2.891
52.58000 9.052
52.60000 4.484
52.62000 2.371
52.64000 1.172
52.66000 -0.534
52.68000 2.233
52.70000 2.216
52.72000 3.842
52.74000 6.758
52.76000 4.772
52.78000 3.523
52.80000 5.382
52.82000 5.825
52.84000 7.468
52.86000 6.011
52.88000 -0.650
52.90000 2.592
52.92000 6.889
52.94000 5.330
52.96000 -0.307
52.98000 -2.873
53.00000 5.666
53.02000 8.279
53.04000 0.568
53.06000 -0.999
53.08000 -0.156
53.10000 2.872
53.12000 1.811
53.14000 1.043
53.16000 1.972
53.18000 4.571
53.20000 0.752
53.22000 1.689
53.24000 1.759
53.26000 1.307
53.28000 2.286
53.30000 1.587
53.32000 -2.479
53.34000 -2.529
53.36000 4.818
53.38000 3.568
53.40000 3.458
53.42000 4.574
53.44000 0.556
53.46000 -1.408
53.48000 -2.502
53.50000 3.258
53.52000 5.496
53.54000 4.969
53.56000 6.841
53.58000 10.427
53.60000 4.152
53.62000 -0.240
53.64000 0.386
53.66000 3.163
53.68000 9.853
53.70000 4.680
53.72000 5.330
53.74000 0.884
53.76000 3.317
53.78000 4.558
53.80000 4.876
53.82000 3.080
53.84000 6.677
53.86000 5.757
53.88000 7.753
53.90000 10.081
53.92000 7.973
53.94000 2.667
53.96000 -2.163
53.98000 0.536
54.00000 0.284
54.02000 3.616
54.04000 6.017
54.06000 6.870
54.08000 2.744
54.10000 6.324
54.12000 2.464
54.14000 2.477
54.16000 2.631
54.18000 2.835
54.20000 5.335
54.22000 4.924
54.24000 2.570
54.26000 7.235
54.28000 7.215
54.30000 5.059
54.32000 2.782
54.34000 -0.355
54.36000 -2.814
54.38000 -1.563
54.40000 3.284
54.42000 5.947
54.44000 4.291
54.46000 7.121
54.48000 5.702
54.50000 0.931
54.52000 3.329
54.54000 8.927
54.56000 3.108
54.58000 3.735
54.60000 3.544
54.62000 5.457
54.64000 3.685
54.66000 3.972
54.68000 5.982
54.70000 5.540
54.72000 2.064
54.74000 3.347
54.76000 1.253
54.78000 3.532
54.80000 4.349
54.82000 2.663
54.84000 1.629
54.86000 2.436
54.88000 -0.686
54.90000 0.234
54.92000 -0.281
54.94000 4.437
54.96000 5.167
54.98000 4.435
55.00000 9.597
55.02000 6.421
55.04000 8.848
55.06000 5.793
55.08000 1.232
55.10000 -0.915
55.12000 1.130
55.14000 3.750
55.16000 -2.251
55.18000 -0.374
55.20000 3.833
55.22000 9.572
55.24000 2.737
55.26000 -1.478
55.28000 -0.471
55.30000 -1.152
55.32000 2.469
55.34000 2.157
55.36000 1.916
55.38000 0.866
55.40000 2.760
55.42000 1.014
55.44000 5.694
55.46000 5.288
55.48000 4.212
55.50000 2.933
55.52000 6.716
55.54000 4.421
55.56000 3.628
55.58000 2.935
55.60000 3.827
55.62000 2.738
55.64000 6.429
55.66000 5.943
55.68000 3.525
55.70000 6.624
55.72000 6.924
55.74000 7.336
55.76000 2.787
55.78000 0.229
55.80000 0.180
55.82000 2.734
55.84000 4.983
55.86000 5.949
55.88000 3.192
55.90000 3.047
55.92000 4.426
55.94000 5.519
55.96000 6.490
55.98000 3.073
56.00000 2.880
56.02000 3.739
56.04000 2.036
56.06000 3.456
56.08000 4.310
56.10000 1.616
56.12000 3.644
56.14000 2.645
56.16000 0.782
56.18000 0.625
56.20000 0.483
56.22000 -0.697
56.24000 -2.748
56.26000 5.183
56.28000 6.017
56.30000 8.384
56.32000 8.215
56.34000 9.183
56.36000 4.622
56.38000 0.152
56.40000 2.741
56.42000 9.110
56.44000 9.512
56.46000 5.290
56.48000 4.324
56.50000 4.635
56.52000 6.916
56.54000 6.587
56.56000 4.332
56.58000 6.686
56.60000 3.355
56.62000 -0.383
56.64000 0.029
56.66000 5.957
56.68000 5.650
56.70000 7.589
56.72000 6.542
56.74000 3.910
56.76000 6.181
56.78000 3.809
56.80000 6.861
56.82000 12.261
56.84000 6.210
56.86000 6.516
56.88000 4.281
56.90000 4.324
56.92000 8.821
56.94000 6.933
56.96000 8.108
56.98000 4.535
57.00000 0.861
57.02000 4.951
57.04000 5.322
57.06000 3.343
57.08000 2.528
57.10000 5.007
57.12000 7.735
57.14000 4.863
57.16000 6.569
57.18000 10.150
57.20000 3.653
57.22000 1.503
57.24000 9.095
57.26000 9.726
57.28000 0.914
57.30000 6.853
57.32000 8.036
57.34000 9.541
57.36000 11.194
57.38000 8.807
57.40000 10.481
57.42000 9.157
57.44000 8.626
57.46000 4.506
57.48000 -2.671
57.50000 5.306
57.52000 11.291
57.54000 9.048
57.56000 9.326
57.58000 5.909
57.60000 6.890
57.62000 9.298
57.64000 7.278
57.66000 3.930
57.68000 5.184
57.70000 6.914
57.72000 5.199
57.74000 2.469
57.76000 5.467
57.78000 4.789
57.80000 4.330
57.82000 5.907
57.84000 5.787
57.86000 2.414
57.88000 3.650
57.90000 3.525
57.92000 3.713
57.94000 6.033
57.96000 4.829
57.98000 4.058
58.00000 2.423
58.02000 4.452
58.04000 4.850
58.06000 7.711
58.08000 9.324
58.10000 2.705
58.12000 -1.564
58.14000 6.614
58.16000 5.510
58.18000 0.907
58.20000 2.706
58.22000 4.324
58.24000 6.784
58.26000 1.295
58.28000 2.583
58.30000 1.740
58.32000 1.648
58.34000 -0.436
58.36000 4.651
58.38000 4.536
58.40000 2.928
58.42000 5.598
58.44000 3.933
58.46000 1.817
58.48000 0.198
58.50000 5.036
58.52000 3.177
58.54000 2.639
58.56000 -1.141
58.58000 0.935
58.60000 1.058
58.62000 4.673
58.64000 6.191
58.66000 -2.697
58.68000 0.844
58.70000 0.480
58.72000 -2.534
58.74000 -1.711
58.76000 2.790
58.78000 4.443
58.80000 2.318
58.82000 -0.366
58.84000 -1.819
58.86000 0.170
58.88000 4.601
58.90000 -0.449
58.92000 3.863
58.94000 3.601
58.96000 3.999
58.98000 3.559
59.00000 7.944
59.02000 7.783
59.04000 3.381
59.06000 1.706
59.08000 3.781
59.10000 3.449
59.12000 1.634
59.14000 0.552
59.16000 4.126
59.18000 3.311
59.20000 3.872
59.22000 5.831
59.24000 0.277
59.26000 1.640
59.28000 1.166
59.30000 -1.933
59.32000 -2.682
59.34000 2.272
59.36000 4.828
59.38000 1.281
59.40000 -1.799
59.42000 2.331
59.44000 7.659
59.46000 3.260
59.48000 2.348
59.50000 1.242
59.52000 5.189
59.54000 6.685
59.56000 5.873
59.58000 6.883
59.60000 7.872
59.62000 4.759
59.64000 6.026
59.66000 5.230
59.68000 -0.082
59.70000 2.513
59.72000 3.768
59.74000 3.899
59.76000 1.373
59.78000 0.168
59.80000 -0.429
59.82000 2.592
59.84000 0.853
59.86000 -2.441
59.88000 0.784
59.90000 6.821
59.92000 4.298
59.94000 6.257
59.96000 5.753
59.98000 1.988
60.00000 1.773
60.02000 5.491
60.04000 3.300
60.06000 1.823
60.08000 7.808
60.10000 3.084
60.12000 -2.554
60.14000 0.330
60.16000 1.310
60.18000 2.878
60.20000 0.556
60.22000 -1.917
60.24000 -2.651
60.26000 3.365
60.28000 2.768
60.30000 1.474
60.32000 -0.140
60.34000 -0.721
60.36000 4.085
60.38000 -1.859
60.40000 -2.646
60.42000 1.175
60.44000 3.464
60.46000 6.214
60.48000 2.479
60.50000 -0.268
60.52000 3.681
60.54000 2.252
60.56000 1.943
60.58000 -0.774
60.60000 -0.738
60.62000 0.006
60.64000 -1.466
60.66000 1.089
60.68000 3.485
60.70000 3.952
60.72000 2.268
60.74000 -1.843
60.76000 -0.585
60.78000 2.628
60.80000 2.719
60.82000 1.267
60.84000 2.838
60.86000 5.283
60.88000 1.890
60.90000 3.089
60.92000 2.958
60.94000 -0.732
60.96000 6.421
60.98000 5.148
61.00000 0.456
61.02000 0.987
61.04000 2.830
61.06000 -0.593
61.08000 0.134
61.10000 -2.561
61.12000 -1.635
61.14000 0.024
61.16000 4.458
61.18000 -0.174
61.20000 -0.696
61.22000 2.480
61.24000 3.325
61.26000 -0.663
61.28000 -2.619
61.30000 2.184
61.32000 0.325
61.34000 3.381
61.36000 4.445
61.38000 2.014
61.40000 6.028
61.42000 5.711
61.44000 3.671
61.46000 3.473
61.48000 2.831
61.50000 4.434
61.52000 4.772
61.54000 0.168
61.56000 1.868
61.58000 -2.608
61.60000 0.425
61.62000 1.434
61.64000 0.881
61.66000 1.398
61.68000 4.694
61.70000 -0.153
61.72000 1.295
61.74000 1.599
61.76000 2.943
61.78000 3.816
61.80000 0.371
61.82000 -2.014
61.84000 -2.183
61.86000 0.193
61.88000 0.305
61.90000 0.702
61.92000 2.765
61.94000 4.684
61.96000 0.661
61.98000 4.754
62.00000 6.921
62.02000 3.600
62.04000 2.407
62.06000 4.272
62.08000 3.378
62.10000 5.603
62.12000 6.085
62.14000 4.444
62.16000 -0.589
62.18000 -0.060
62.20000 4.756
62.22000 2.659
62.24000 1.658
62.26000 -0.556
62.28000 0.602
62.30000 4.057
62.32000 2.981
62.34000 3.410
62.36000 0.830
62.38000 -1.522
62.40000 -2.609
62.42000 0.978
62.44000 1.306
62.46000 2.335
62.48000 2.686
62.50000 -0.796
62.52000 -1.189
62.54000 -0.198
62.56000 1.111
62.58000 -0.152
62.60000 -0.867
62.62000 1.676
62.64000 5.501
62.66000 4.992
62.68000 -0.410
62.70000 -1.254
62.72000 3.764
62.74000 1.318
62.76000 0.162
62.78000 0.312
62.80000 3.847
62.82000 2.175
62.84000 2.869
62.86000 0.357
62.88000 0.651
62.90000 -1.410
62.92000 1.222
62.94000 -0.704
62.96000 0.318
62.98000 -1.130
63.00000 -2.624
63.02000 0.179
63.04000 -0.683
63.06000 0.007
63.08000 2.621
63.10000 1.458
63.12000 -1.693
63.14000 -2.174
63.16000 -0.735
63.18000 -0.472
63.20000 2.648
63.22000 0.744
63.24000 -0.177
63.26000 2.036
63.28000 2.056
63.30000 -0.776
63.32000 -0.748
63.34000 -0.934
63.36000 0.910
63.38000 0.151
63.40000 1.804
63.42000 4.270
63.44000 2.705
63.46000 1.752
63.48000 -0.367
63.50000 4.895
63.52000 2.912
63.54000 -0.703
63.56000 -2.604
63.58000 1.878
63.60000 1.474
63.62000 0.215
63.64000 0.641
63.66000 -1.035
63.68000 -1.663
63.70000 -1.855
63.72000 1.404
63.74000 -1.155
63.76000 0.294
63.78000 -1.383
63.80000 0.762
63.82000 2.957
63.84000 1.801
63.86000 1.492
63.88000 -0.995
63.90000 -1.311
63.92000 -2.605
63.94000 -1.941
63.96000 3.410
63.98000 2.415
64.00000 0.991
64.02000 0.821
64.04000 3.133
64.06000 5.154
64.08000 6.233
64.10000 2.205
64.12000 0.282
64.14000 4.389
64.16000 1.307
64.18000 -0.749
64.20000 -0.216
64.22000 2.944
64.24000 3.239
64.26000 1.767
64.28000 2.563
64.30000 5.510
64.32000 2.701
64.34000 2.484
64.36000 4.054
64.38000 2.494
64.40000 2.594
64.42000 3.172
64.44000 2.609
64.46000 2.758
64.48000 1.282
64.50000 -0.713
64.52000 0.966
64.54000 2.167
64.56000 -0.721
64.58000 3.082
64.60000 1.182
64.62000 1.814
64.64000 -2.569
64.66000 -0.136
64.68000 -0.571
64.70000 2.530
64.72000 5.571
64.74000 3.918
64.76000 4.758
64.78000 2.751
64.80000 2.301
64.82000 3.972
64.84000 4.064
64.86000 3.897
64.88000 4.262
64.90000 4.799
64.92000 3.502
64.94000 0.643
64.96000 1.773
64.98000 2.623
65.00000 5.189
65.02000 5.122
65.04000 1.740
65.06000 -1.087
65.08000 1.062
65.10000 4.790
65.12000 4.683
65.14000 4.784
65.16000 1.893
65.18000 6.159
65.20000 2.996
65.22000 3.154
65.24000 -0.899
65.26000 2.501
65.28000 5.401
65.30000 1.442
65.32000 0.036
65.34000 0.506
65.36000 1.881
65.38000 -0.224
65.40000 1.367
65.42000 -0.778
65.44000 2.078
65.46000 4.918
65.48000 8.079
65.50000 4.021
65.52000 -0.965
65.54000 2.277
65.56000 3.567
65.58000 3.151
65.60000 4.140
65.62000 4.217
65.64000 2.765
65.66000 0.468
65.68000 -2.606
65.70000 0.066
65.72000 1.518
65.74000 3.524
65.76000 2.877
65.78000 3.477
65.80000 7.326
65.82000 0.115
65.84000 -2.619
65.86000 -0.597
65.88000 2.831
65.90000 4.071
65.92000 1.411
65.94000 1.673
65.96000 3.073
65.98000 4.127
66.00000 -0.177
66.02000 0.463
66.04000 0.750
66.06000 2.287
66.08000 2.882
66.10000 -0.147
66.12000 -0.878
66.14000 -0.568
66.16000 0.205
66.18000 2.445
66.20000 3.672
66.22000 3.220
66.24000 -0.115
66.26000 -0.496
66.28000 0.771
66.30000 1.428
66.32000 -1.709
66.34000 -2.371
66.36000 -2.450
66.38000 -1.281
66.40000 3.278
66.42000 2.330
66.44000 0.361
66.46000 4.222
66.48000 3.112
66.50000 3.032
66.52000 1.615
66.54000 2.138
66.56000 -0.400
66.58000 1.640
66.60000 -0.911
66.62000 -0.257
66.64000 1.252
66.66000 2.890
66.68000 3.569
66.70000 2.641
66.72000 3.822
66.74000 0.497
66.76000 -1.592
66.78000 0.091
66.80000 -0.180
66.82000 -2.673
66.84000 1.086
66.86000 2.147
66.88000 5.069
66.90000 5.460
66.92000 2.804
66.94000 6.326
66.96000 6.968
66.98000 4.492
67.00000 6.105
67.02000 3.329
67.04000 5.002
67.06000 4.673
67.08000 8.509
67.10000 8.057
67.12000 6.296
67.14000 8.616
67.16000 7.188
67.18000 5.474
67.20000 8.156
67.22000 3.667
67.24000 3.055
67.26000 3.494
67.28000 3.768
67.30000 6.058
67.32000 6.777
67.34000 5.435
67.36000 3.989
67.38000 1.174
67.40000 4.306
67.42000 8.606
67.44000 8.996
67.46000 7.086
67.48000 4.928
67.50000 10.355
67.52000 9.552
67.54000 7.603
67.56000 4.197
67.58000 5.284
67.60000 6.191
67.62000 11.260
67.64000 13.821
67.66000 15.860
67.68000 12.036
67.70000 5.404
67.72000 5.702
67.74000 8.222
67.76000 8.076
67.78000 8.265
67.80000 10.532
67.82000 13.378
67.84000 11.693
67.86000 12.600
67.88000 13.896
67.90000 11.570
67.92000 12.581
67.94000 19.483
67.96000 15.749
67.98000 18.690
68.00000 18.803
68.02000 14.270
68.04000 13.288
68.06000 16.281
68.08000 15.993
68.10000 17.762
68.12000 20.911
68.14000 20.047
68.16000 17.470
68.18000 22.661
68.20000 22.964
68.22000 23.046
68.24000 22.311
68.26000 20.079
68.28000 21.559
68.30000 22.838
68.32000 19.777
68.34000 17.255
68.36000 20.707
68.38000 21.831
68.40000 25.334
68.42000 23.714
68.44000 17.253
68.46000 18.128
68.48000 20.828
68.50000 21.748
68.52000 26.039
68.54000 23.916
68.56000 21.651
68.58000 20.726
68.60000 20.106
68.62000 18.624
68.64000 19.767
68.66000 20.488
68.68000 20.606
68.70000 21.315
68.72000 23.608
68.74000 21.852
68.76000 24.228
68.78000 22.363
68.80000 18.686
68.82000 17.541
68.84000 21.639
68.86000 21.969
68.88000 21.720
68.90000 19.123
68.92000 13.742
68.94000 15.258
68.96000 13.729
68.98000 13.033
69.00000 15.909
69.02000 12.688
69.04000 15.644
69.06000 14.847
69.08000 13.948
69.10000 14.521
69.12000 17.503
69.14000 13.923
69.16000 13.891
69.18000 14.477
69.20000 12.828
69.22000 14.034
69.24000 16.479
69.26000 16.905
69.28000 11.539
69.30000 8.850
69.32000 8.996
69.34000 7.565
69.36000 10.021
69.38000 9.451
69.40000 5.705
69.42000 2.595
69.44000 3.912
69.46000 10.717
69.48000 10.674
69.50000 9.141
69.52000 7.141
69.54000 1.763
69.56000 2.337
69.58000 4.184
69.60000 8.395
69.62000 7.379
69.64000 5.790
69.66000 2.662
69.68000 0.888
69.70000 3.581
69.72000 4.536
69.74000 3.873
69.76000 0.810
69.78000 1.590
69.80000 1.043
69.82000 1.953
69.84000 0.275
69.86000 -2.390
69.88000 0.078
69.90000 1.382
69.92000 1.414
69.94000 1.666
69.96000 -2.084
69.98000 0.890
70.00000 0.710
70.02000 3.870
70.04000 3.369
70.06000 -0.829
70.08000 1.618
70.10000 -0.415
70.12000 -2.604
70.14000 -1.577
70.16000 2.215
70.18000 1.146
70.20000 1.335
70.22000 -0.735
70.24000 0.383
70.26000 4.732
70.28000 3.887
70.30000 2.953
70.32000 5.262
70.34000 -0.392
70.36000 -0.395
70.38000 1.119
70.40000 -0.271
70.42000 1.120
70.44000 -1.064
70.46000 -1.112
70.48000 3.655
70.50000 0.630
70.52000 3.755
70.54000 3.487
70.56000 0.613
70.58000 2.429
70.60000 2.003
70.62000 -1.630
70.64000 -1.828
70.66000 2.867
70.68000 0.978
70.70000 1.137
70.72000 6.362
70.74000 3.292
70.76000 2.515
70.78000 4.769
70.80000 7.202
70.82000 5.240
70.84000 4.332
70.86000 0.214
70.88000 1.733
70.90000 3.514
70.92000 2.562
70.94000 4.270
70.96000 7.702
70.98000 1.610
71.00000 0.409
71.02000 2.656
71.04000 1.273
71.06000 1.179
71.08000 -1.171
71.10000 3.054
71.12000 4.322
71.14000 -1.373
71.16000 1.697
71.18000 -0.214
71.20000 1.980
71.22000 -0.328
71.24000 2.879
71.26000 3.091
71.28000 3.606
71.30000 0.512
71.32000 2.986
71.34000 0.745
71.36000 -1.123
71.38000 6.281
71.40000 -0.312
71.42000 0.066
71.44000 -2.176
71.46000 -2.452
71.48000 -0.117
71.50000 -1.948
71.52000 0.632
71.54000 2.474
71.56000 1.348
71.58000 1.974
71.60000 2.117
71.62000 1.767
71.64000 4.869
71.66000 4.326
71.68000 3.840
71.70000 4.971
71.72000 5.192
71.74000 -0.978
71.76000 4.864
71.78000 2.506
71.80000 2.110
71.82000 4.369
71.84000 5.816
71.86000 2.748
71.88000 2.447
71.90000 1.138
71.92000 2.849
71.94000 -1.726
71.96000 1.156
71.98000 -0.615
72.00000 1.048
72.02000 -0.240
72.04000 0.039
72.06000 -1.250
72.08000 4.161
72.10000 2.023
72.12000 9.653
72.14000 6.645
72.16000 3.544
72.18000 2.176
72.20000 4.324
72.22000 3.502
72.24000 4.094
72.26000 0.478
72.28000 -2.271
72.30000 -0.734
72.32000 0.936
72.34000 3.746
72.36000 -1.165
72.38000 -2.427
72.40000 0.053
72.42000 0.369
72.44000 3.412
72.46000 6.839
72.48000 3.547
72.50000 1.202
72.52000 6.729
72.54000 7.101
72.56000 5.164
72.58000 -1.457
72.60000 -0.458
72.62000 2.819
72.64000 7.193
72.66000 6.338
72.68000 3.053
72.70000 0.703
72.72000 0.624
72.74000 1.425
72.76000 5.022
72.78000 4.436
72.80000 -0.141
72.82000 -2.097
72.84000 -2.143
72.86000 1.762
72.88000 0.742
72.90000 4.175
72.92000 5.708
72.94000 0.066
72.96000 -1.703
72.98000 -2.424
73.00000 -1.303
73.02000 3.544
73.04000 2.350
73.06000 2.576
73.08000 0.460
73.10000 -1.273
73.12000 -2.122
73.14000 -0.950
73.16000 3.995
73.18000 4.319
73.20000 0.148
73.22000 -1.478
73.24000 -0.023
73.26000 1.563
73.28000 3.644
73.30000 3.352
73.32000 5.916
73.34000 6.351
73.36000 7.532
73.38000 0.583
73.40000 -1.783
73.42000 -1.974
73.44000 6.215
73.46000 5.068
73.48000 4.934
73.50000 2.649
73.52000 -2.404
73.54000 0.252
73.56000 1.235
73.58000 5.215
73.60000 10.233
73.62000 6.756
73.64000 7.321
73.66000 5.662
73.68000 3.967
73.70000 3.829
73.72000 1.994
73.74000 5.722
73.76000 4.671
73.78000 4.378
73.80000 2.920
73.82000 3.755
73.84000 7.809
73.86000 3.785
73.88000 -1.226
73.90000 -1.548
73.92000 0.166
73.94000 -0.496
73.96000 1.517
73.98000 4.289
74.00000 4.906
74.02000 3.175
74.04000 2.601
74.06000 2.115
74.08000 4.265
74.10000 0.724
74.12000 2.212
74.14000 4.111
74.16000 5.384
74.18000 1.905
74.20000 -0.471
74.22000 -0.829
74.24000 0.464
74.26000 -1.424
74.28000 1.451
74.30000 3.798
74.32000 4.894
74.34000 4.771
74.36000 0.330
74.38000 6.508
74.40000 6.578
74.42000 0.103
74.44000 5.066
74.46000 4.505
74.48000 2.140
74.50000 1.099
74.52000 2.814
74.54000 5.089
74.56000 5.252
74.58000 1.989
74.60000 0.785
74.62000 4.903
74.64000 4.376
74.66000 1.461
74.68000 3.670
74.70000 5.673
74.72000 5.297
74.74000 6.956
74.76000 5.538
74.78000 4.719
74.80000 5.110
74.82000 7.009
74.84000 3.065
74.86000 -0.836
74.88000 4.107
74.90000 9.086
74.92000 3.953
74.94000 0.643
74.96000 1.663
74.98000 3.589
75.00000 1.261
75.02000 4.046
75.04000 5.662
75.06000 3.298
75.08000 -0.887
75.10000 -0.307
75.12000 -2.373
75.14000 3.826
75.16000 8.428
75.18000 4.229
75.20000 3.141
75.22000 10.917
75.24000 8.263
75.26000 3.953
75.28000 -1.770
75.30000 4.875
75.32000 6.378
75.34000 8.001
75.36000 7.380
75.38000 5.905
75.40000 6.865
75.42000 5.066
75.44000 1.124
75.46000 0.596
75.48000 4.876
75.50000 1.747
75.52000 2.155
75.54000 3.285
75.56000 5.262
75.58000 4.545
75.60000 0.154
75.62000 0.660
75.64000 7.678
75.66000 6.198
75.68000 1.213
75.70000 4.051
75.72000 3.970
75.74000 4.326
75.76000 5.771
75.78000 8.044
75.80000 6.142
75.82000 4.109
75.84000 -0.575
75.86000 -1.283
75.88000 -2.377
75.90000 5.218
75.92000 6.342
75.94000 9.790
75.96000 7.965
75.98000 6.366
76.00000 6.678
76.02000 7.080
76.04000 8.764
76.06000 4.988
76.08000 3.124
76.10000 5.833
76.12000 3.068
76.14000 4.349
76.16000 3.962
76.18000 -0.505
76.20000 0.111
76.22000 0.595
76.24000 2.842
76.26000 0.648
76.28000 0.636
76.30000 3.503
76.32000 2.093
76.34000 -2.392
76.36000 -1.046
76.38000 -0.226
76.40000 1.206
76.42000 6.633
76.44000 12.659
76.46000 6.608
76.48000 4.099
76.50000 0.843
76.52000 3.622
76.54000 1.442
76.56000 2.961
76.58000 3.843
76.60000 6.626
76.62000 6.159
76.64000 8.050
76.66000 6.746
76.68000 6.212
76.70000 5.866
76.72000 7.312
76.74000 7.833
76.76000 4.734
76.78000 3.521
76.80000 0.789
76.82000 -0.665
76.84000 -2.409
76.86000 2.664
76.88000 3.734
76.90000 2.691
76.92000 4.819
76.94000 3.052
76.96000 7.314
76.98000 10.261
77.00000 9.299
77.02000 3.560
77.04000 2.299
77.06000 -0.569
77.08000 -0.852
77.10000 0.752
77.12000 2.677
77.14000 2.372
77.16000 7.329
77.18000 9.550
77.20000 8.294
77.22000 7.004
77.24000 -0.410
77.26000 0.716
77.28000 4.059
77.30000 2.719
77.32000 5.701
77.34000 2.052
77.36000 1.951
77.38000 4.144
77.40000 3.674
77.42000 3.527
77.44000 4.612
77.46000 4.906
77.48000 4.882
77.50000 5.228
77.52000 4.532
77.54000 4.890
77.56000 1.155
77.58000 -1.635
77.60000 -0.225
77.62000 3.674
77.64000 3.174
77.66000 1.200
77.68000 5.962
77.70000 7.931
77.72000 4.293
77.74000 0.727
77.76000 -0.348
77.78000 -0.876
77.80000 1.306
77.82000 1.227
77.84000 1.481
77.86000 4.207
77.88000 5.640
77.90000 4.338
77.92000 1.914
77.94000 2.843
77.96000 7.227
77.98000 8.670
78.00000 9.850
78.02000 6.142
78.04000 1.217
78.06000 4.885
78.08000 2.702
78.10000 2.987
78.12000 5.463
78.14000 6.626
78.16000 9.323
78.18000 7.477
78.20000 3.973
78.22000 3.373
78.24000 3.356
78.26000 2.530
78.28000 5.487
78.30000 1.257
78.32000 2.374
78.34000 6.259
78.36000 10.713
78.38000 6.875
78.40000 5.338
78.42000 4.278
78.44000 5.521
78.46000 7.117
78.48000 11.764
78.50000 8.899
78.52000 5.263
78.54000 2.282
78.56000 4.023
78.58000 3.835
78.60000 4.155
78.62000 1.842
78.64000 10.278
78.66000 9.247
78.68000 8.232
78.70000 0.142
78.72000 -0.113
78.74000 5.284
78.76000 8.606
78.78000 3.655
78.80000 -0.076
78.82000 1.626
78.84000 -0.701
78.86000 -2.375
78.88000 2.129
78.90000 7.512
78.92000 6.791
78.94000 4.939
78.96000 5.292
78.98000 8.020
79.00000 3.138
79.02000 3.822
79.04000 2.317
79.06000 7.567
79.08000 1.622
79.10000 4.253
79.12000 9.761
79.14000 7.614
79.16000 8.851
79.18000 4.677
79.20000 5.435
79.22000 5.889
79.24000 2.222
79.26000 4.033
79.28000 2.438
79.30000 0.373
79.32000 0.764
79.34000 2.977
79.36000 3.974
79.38000 -0.172
79.40000 0.461
79.42000 2.502
79.44000 5.511
79.46000 2.092
79.48000 2.702
79.50000 1.692
79.52000 5.259
79.54000 4.787
79.56000 7.078
79.58000 5.215
79.60000 1.020
79.62000 3.869
79.64000 1.402
79.66000 4.905
79.68000 7.665
79.70000 6.944
79.72000 -1.456
79.74000 1.442
79.76000 6.431
79.78000 3.420
79.80000 0.997
79.82000 -1.015
79.84000 -0.331
79.86000 6.064
79.88000 7.453
79.90000 8.364
79.92000 3.844
79.94000 2.841
79.96000 4.371
79.98000 6.142
80.00000 4.738
80.02000 0.605
80.04000 0.089
80.06000 0.872
80.08000 5.489
80.10000 1.635
80.12000 0.626
80.14000 2.562
80.16000 4.505
80.18000 5.772
80.20000 7.332
80.22000 3.559
80.24000 4.380
80.26000 4.985
80.28000 -2.529
80.30000 -1.899
80.32000 2.405
80.34000 5.548
80.36000 1.337
80.38000 0.321
80.40000 1.087
80.42000 2.638
80.44000 2.292
80.46000 5.996
80.48000 9.275
80.50000 3.088
80.52000 4.435
80.54000 -1.271
80.56000 -1.273
80.58000 2.483
80.60000 4.187
80.62000 1.633
80.64000 -1.916
80.66000 -0.171
80.68000 2.565
80.70000 6.195
80.72000 4.115
80.74000 2.464
80.76000 3.096
80.78000 1.651
80.80000 1.768
80.82000 1.209
80.84000 3.298
80.86000 6.869
80.88000 5.991
80.90000 5.407
80.92000 5.702
80.94000 8.597
80.96000 3.439
80.98000 2.709
81.00000 -0.888
81.02000 3.684
81.04000 6.197
81.06000 4.869
81.08000 3.923
81.10000 4.137
81.12000 4.176
81.14000 3.982
81.16000 5.633
81.18000 7.987
81.20000 12.111
81.22000 8.300
81.24000 6.893
81.26000 8.414
81.28000 11.156
81.30000 10.584
81.32000 3.770
81.34000 6.202
81.36000 3.672
81.38000 5.085
81.40000 9.423
81.42000 5.082
81.44000 6.550
81.46000 6.192
81.48000 5.053
81.50000 4.568
81.52000 6.130
81.54000 8.675
81.56000 12.203
81.58000 13.967
81.60000 8.942
81.62000 7.995
81.64000 11.085
81.66000 7.540
81.68000 12.293
81.70000 10.345
81.72000 9.574
81.74000 13.255
81.76000 17.147
81.78000 17.251
81.80000 13.743
81.82000 11.053
81.84000 10.624
81.86000 12.606
81.88000 13.469
81.90000 14.604
81.92000 15.676
81.94000 13.918
81.96000 12.783
81.98000 16.212
82.00000 14.405
82.02000 14.136
82.04000 15.464
82.06000 16.025
82.08000 16.369
82.10000 16.031
82.12000 13.950
82.14000 14.073
82.16000 18.671
82.18000 21.824
82.20000 21.569
82.22000 20.216
82.24000 28.826
82.26000 17.888
82.28000 19.332
82.30000 20.088
82.32000 19.501
82.34000 18.464
82.36000 18.173
82.38000 20.832
82.40000 17.513
82.42000 12.651
82.44000 14.470
82.46000 21.641
82.48000 19.254
82.50000 22.813
82.52000 25.705
82.54000 23.342
82.56000 22.538
82.58000 21.254
82.60000 25.751
82.62000 24.568
82.64000 23.980
82.66000 19.844
82.68000 22.995
82.70000 21.371
82.72000 24.643
82.74000 27.750
82.76000 28.702
82.78000 30.140
82.80000 24.352
82.82000 24.492
82.84000 26.014
82.86000 24.628
82.88000 27.898
82.90000 27.709
82.92000 25.959
82.94000 23.759
82.96000 22.725
82.98000 19.128
83.00000 21.824
83.02000 20.832
83.04000 21.950
83.06000 19.751
83.08000 21.221
83.10000 18.864
83.12000 18.917
83.14000 23.059
83.16000 22.852
83.18000 21.327
83.20000 20.055
83.22000 18.363
83.24000 22.049
83.26000 22.078
83.28000 14.851
83.30000 13.940
83.32000 18.923
83.34000 16.190
83.36000 23.130
83.38000 19.337
83.40000 20.659
83.42000 27.204
83.44000 24.941
83.46000 18.116
83.48000 13.627
83.50000 13.423
83.52000 13.234
83.54000 12.913
83.56000 11.339
83.58000 6.835
83.60000 9.922
83.62000 14.498
83.64000 12.687
83.66000 9.643
83.68000 10.143
83.70000 7.976
83.72000 7.430
83.74000 6.752
83.76000 13.686
83.78000 15.402
83.80000 9.122
83.82000 4.553
83.84000 2.956
83.86000 12.251
83.88000 8.416
83.90000 7.233
83.92000 6.164
83.94000 8.022
83.96000 4.983
83.98000 5.742
84.00000 3.813
84.02000 4.930
84.04000 3.696
84.06000 0.879
84.08000 5.094
84.10000 3.840
84.12000 4.114
84.14000 2.417
84.16000 1.096
84.18000 3.427
84.20000 9.334
84.22000 4.482
84.24000 4.440
84.26000 4.955
84.28000 3.967
84.30000 4.220
84.32000 9.582
84.34000 8.546
84.36000 2.796
84.38000 0.154
84.40000 -0.049
84.42000 -0.839
84.44000 -1.114
84.46000 5.401
84.48000 4.166
84.50000 0.948
84.52000 1.029
84.54000 0.347
84.56000 2.884
84.58000 4.872
84.60000 3.299
84.62000 2.873
84.64000 1.652
84.66000 -2.523
84.68000 1.428
84.70000 4.341
84.72000 11.065
84.74000 7.444
84.76000 2.984
84.78000 -0.484
84.80000 3.597
84.82000 4.567
84.84000 5.020
84.86000 3.298
84.88000 5.004
84.90000 8.852
84.92000 7.282
84.94000 4.742
84.96000 7.376
84.98000 3.883
85.00000 -0.629
85.02000 -2.465
85.04000 1.835
85.06000 -0.948
85.08000 3.194
85.10000 3.231
85.12000 5.962
85.14000 4.418
85.16000 4.073
85.18000 2.451
85.20000 2.322
85.22000 5.803
85.24000 4.719
85.26000 5.503
85.28000 9.275
85.30000 4.417
85.32000 3.250
85.34000 0.720
85.36000 -0.440
85.38000 2.163
85.40000 3.726
85.42000 3.433
85.44000 2.919
85.46000 1.016
85.48000 1.415
85.50000 4.391
85.52000 1.486
85.54000 0.621
85.56000 1.874
85.58000 3.069
85.60000 -1.866
85.62000 1.768
85.64000 3.415
85.66000 1.739
85.68000 3.287
85.70000 1.767
85.72000 3.722
85.74000 5.882
85.76000 6.121
85.78000 5.656
85.80000 6.473
85.82000 1.810
85.84000 0.090
85.86000 -0.911
85.88000 1.345
85.90000 -0.704
85.92000 3.983
85.94000 4.958
85.96000 7.070
85.98000 6.010
86.00000 -1.113
86.02000 -2.521
86.04000 0.985
86.06000 4.629
86.08000 1.349
86.10000 -0.837
86.12000 0.016
86.14000 1.737
86.16000 2.081
86.18000 2.349
86.20000 1.780
86.22000 3.275
86.24000 1.014
86.26000 2.147
86.28000 10.386
86.30000 11.733
86.32000 10.604
86.34000 9.103
86.36000 6.527
86.38000 3.512
86.40000 5.748
86.42000 8.147
86.44000 8.625
86.46000 11.856
86.48000 11.950
86.50000 7.438
86.52000 4.384
86.54000 9.790
86.56000 13.627
86.58000 18.115
86.60000 11.835
86.62000 11.356
86.64000 14.133
86.66000 14.213
86.68000 13.664
86.70000 14.717
86.72000 17.202
86.74000 20.335
86.76000 14.754
86.78000 15.826
86.80000 11.018
86.82000 11.245
86.84000 17.595
86.86000 18.480
86.88000 15.248
86.90000 12.771
86.92000 16.846
86.94000 23.535
86.96000 23.432
86.98000 15.817
87.00000 21.045
87.02000 16.726
87.04000 18.366
87.06000 20.772
87.08000 22.865
87.10000 29.029
87.12000 25.855
87.14000 22.906
87.16000 15.116
87.18000 19.287
87.20000 19.828
87.22000 16.287
87.24000 19.818
87.26000 19.833
87.28000 15.115
87.30000 14.197
87.32000 14.866
87.34000 18.575
87.36000 23.857
87.38000 20.459
87.40000 13.676
87.42000 14.240
87.44000 19.751
87.46000 15.140
87.48000 19.918
87.50000 22.247
87.52000 15.702
87.54000 14.590
87.56000 20.163
87.58000 22.752
87.60000 20.526
87.62000 19.143
87.64000 17.228
87.66000 12.858
87.68000 17.053
87.70000 15.265
87.72000 14.954
87.74000 15.073
87.76000 11.325
87.78000 10.109
87.80000 12.957
87.82000 11.613
87.84000 13.484
87.86000 12.633
87.88000 11.619
87.90000 5.514
87.92000 3.770
87.94000 7.988
87.96000 8.572
87.98000 10.315
88.00000 8.921
88.02000 9.887
88.04000 9.374
88.06000 3.953
88.08000 4.522
88.10000 5.267
88.12000 4.188
88.14000 6.306
88.16000 6.764
88.18000 5.529
88.20000 6.667
88.22000 10.288
88.24000 6.492
88.26000 1.347
88.28000 5.244
88.30000 11.293
88.32000 6.784
88.34000 1.897
88.36000 1.997
88.38000 7.929
88.40000 5.030
88.42000 4.114
88.44000 3.583
88.46000 2.662
88.48000 3.724
88.50000 0.284
88.52000 -1.700
88.54000 2.580
88.56000 6.481
88.58000 4.114
88.60000 1.923
88.62000 5.955
88.64000 2.426
88.66000 -2.417
88.68000 -0.371
88.70000 1.526
88.72000 2.576
88.74000 1.717
88.76000 -1.090
88.78000 1.082
88.80000 -0.416
88.82000 2.681
88.84000 0.855
88.86000 -2.393
88.88000 -2.054
88.90000 -1.076
88.92000 2.317
88.94000 2.483
88.96000 3.566
88.98000 1.334
89.00000 5.235
89.02000 3.084
89.04000 1.659
89.06000 1.557
89.08000 -1.279
89.10000 3.223
89.12000 0.971
89.14000 5.855
89.16000 5.060
89.18000 1.543
89.20000 0.228
89.22000 2.382
89.24000 3.501
89.26000 1.224
89.28000 3.713
89.30000 0.164
89.32000 -2.346
89.34000 2.302
89.36000 4.338
89.38000 2.590
89.40000 2.894
89.42000 -0.667
89.44000 -0.259
89.46000 0.129
89.48000 0.317
89.50000 2.389
89.52000 3.009
89.54000 4.315
89.56000 9.602
89.58000 6.726
89.60000 3.855
89.62000 4.652
89.64000 2.321
89.66000 2.487
89.68000 7.104
89.70000 3.505
89.72000 2.960
89.74000 4.895
89.76000 3.679
89.78000 3.813
89.80000 -2.139
89.82000 -2.297
89.84000 3.716
89.86000 -0.054
89.88000 3.802
89.90000 6.187
89.92000 0.804
89.94000 4.618
89.96000 4.589
89.98000 2.281
90.00000 3.793
90.02000 4.658
90.04000 3.146
90.06000 2.127
90.08000 3.391
90.10000 4.906
90.12000 5.998
90.14000 8.034
90.16000 8.295
90.18000 4.789
90.20000 1.371
90.22000 6.866
90.24000 6.975
90.26000 2.598
90.28000 0.283
90.30000 2.386
90.32000 3.869
90.34000 7.664
90.36000 7.861
90.38000 10.781
90.40000 6.710
90.42000 3.237
90.44000 1.641
90.46000 4.488
90.48000 6.269
90.50000 5.577
90.52000 7.639
90.54000 4.529
90.56000 -0.272
90.58000 1.093
90.60000 5.630
90.62000 6.532
90.64000 4.689
90.66000 5.718
90.68000 10.410
90.70000 5.911
90.72000 1.381
90.74000 -2.192
90.76000 1.161
90.78000 7.025
90.80000 4.789
90.82000 3.147
90.84000 2.553
90.86000 5.963
90.88000 7.155
90.90000 7.796
90.92000 3.644
90.94000 5.965
90.96000 6.752
90.98000 10.362
91.00000 9.913
91.02000 2.186
91.04000 2.194
91.06000 4.740
91.08000 0.184
91.10000 3.321
91.12000 6.715
91.14000 8.326
91.16000 7.207
91.18000 11.188
91.20000 9.223
91.22000 5.008
91.24000 4.594
91.26000 7.928
91.28000 9.241
91.30000 8.960
91.32000 7.076
91.34000 6.362
91.36000 5.999
91.38000 5.442
91.40000 1.225
91.42000 2.413
91.44000 2.794
91.46000 4.979
91.48000 8.551
91.50000 8.447
91.52000 4.331
91.54000 4.198
91.56000 4.090
91.58000 5.019
91.60000 9.792
91.62000 8.375
91.64000 7.241
91.66000 4.878
91.68000 5.021
91.70000 6.601
91.72000 5.245
91.74000 7.044
91.76000 4.878
91.78000 6.250
91.80000 7.958
91.82000 6.290
91.84000 10.582
91.86000 11.272
91.88000 8.640
91.90000 6.550
91.92000 5.984
91.94000 2.955
91.96000 1.992
91.98000 6.158
92.00000 3.268
92.02000 6.251
92.04000 2.782
92.06000 -0.660
92.08000 2.938
92.10000 6.619
92.12000 1.972
92.14000 5.274
92.16000 9.889
92.18000 6.128
92.20000 4.637
92.22000 1.191
92.24000 -0.113
92.26000 4.878
92.28000 7.928
92.30000 7.862
92.32000 11.199
92.34000 6.340
92.36000 6.610
92.38000 6.824
92.40000 7.969
92.42000 10.958
92.44000 10.183
92.46000 8.356
92.48000 4.332
92.50000 3.167
92.52000 5.892
92.54000 4.865
92.56000 2.864
92.58000 4.237
92.60000 6.676
92.62000 10.670
92.64000 7.231
92.66000 -2.193
92.68000 -0.397
92.70000 5.432
92.72000 9.198
92.74000 4.812
92.76000 8.203
92.78000 9.022
92.80000 8.325
92.82000 5.446
92.84000 9.322
92.86000 11.467
92.88000 4.146
92.90000 5.329
92.92000 6.024
92.94000 5.947
92.96000 4.644
92.98000 6.976
93.00000 4.552
93.02000 8.030
93.04000 8.431
93.06000 4.992
93.08000 2.516
93.10000 3.162
93.12000 4.096
93.14000 7.612
93.16000 2.372
93.18000 5.289
93.20000 7.053
93.22000 9.139
93.24000 9.568
93.26000 4.574
93.28000 6.162
93.30000 2.691
93.32000 2.816
93.34000 11.193
93.36000 9.250
93.38000 9.703
93.40000 10.128
93.42000 10.673
93.44000 10.165
93.46000 3.888
93.48000 7.684
93.50000 6.529
93.52000 4.088
93.54000 7.004
93.56000 13.455
93.58000 9.024
93.60000 6.708
93.62000 -0.336
93.64000 -2.207
93.66000 2.061
93.68000 5.690
93.70000 2.934
93.72000 1.446
93.74000 7.454
93.76000 6.229
93.78000 8.325
93.80000 9.243
93.82000 9.751
93.84000 9.026
93.86000 13.283
93.88000 12.185
93.90000 6.484
93.92000 10.342
93.94000 9.274
93.96000 7.997
93.98000 7.912
94.00000 8.485
94.02000 5.661
94.04000 9.360
94.06000 7.339
94.08000 3.487
94.10000 0.508
94.12000 7.214
94.14000 8.453
94.16000 4.076
94.18000 3.425
94.20000 7.883
94.22000 3.984
94.24000 9.270
94.26000 5.009
94.28000 4.088
94.30000 5.845
94.32000 5.415
94.34000 4.594
94.36000 5.772
94.38000 9.277
94.40000 8.293
94.42000 7.611
94.44000 3.276
94.46000 2.955
94.48000 4.880
94.50000 3.317
94.52000 5.155
94.54000 8.374
94.56000 5.297
94.58000 7.413
94.60000 6.886
94.62000 7.361
94.64000 3.049
94.66000 3.784
94.68000 7.327
94.70000 4.255
94.72000 7.064
94.74000 8.971
94.76000 8.308
94.78000 5.256
94.80000 6.979
94.82000 2.841
94.84000 1.362
94.86000 2.277
94.88000 1.905
94.90000 1.962
94.92000 1.669
94.94000 2.742
94.96000 2.863
94.98000 3.790
95.00000 6.252
95.02000 4.993
95.04000 2.438
95.06000 1.641
95.08000 6.146
95.10000 5.306
95.12000 5.369
95.14000 6.703
95.16000 8.227
95.18000 4.760
95.20000 4.957
95.22000 2.544
95.24000 5.340
95.26000 10.286
95.28000 7.495
95.30000 5.197
95.32000 1.454
95.34000 8.058
95.36000 12.702
95.38000 3.751
95.40000 -2.264
95.42000 3.134
95.44000 9.887
95.46000 8.555
95.48000 7.888
95.50000 5.695
95.52000 3.139
95.54000 3.853
95.56000 5.568
95.58000 0.868
95.60000 3.151
95.62000 6.967
95.64000 3.703
95.66000 6.366
95.68000 7.507
95.70000 5.315
95.72000 3.349
95.74000 4.603
95.76000 6.585
95.78000 8.009
95.80000 6.454
95.82000 3.258
95.84000 4.004
95.86000 9.513
95.88000 5.595
95.90000 1.916
95.92000 5.747
95.94000 4.841
95.96000 3.568
95.98000 5.299
96.00000 4.714
96.02000 -1.279
96.04000 2.424
96.06000 2.675
96.08000 7.859
96.10000 3.915
96.12000 0.208
96.14000 2.006
96.16000 -1.689
96.18000 -2.288
96.20000 4.999
96.22000 7.994
96.24000 5.801
96.26000 4.924
96.28000 6.419
96.30000 7.506
96.32000 6.429
96.34000 4.737
96.36000 5.493
96.38000 6.944
96.40000 1.003
96.42000 5.037
96.44000 6.429
96.46000 8.353
96.48000 5.751
96.50000 0.503
96.52000 1.845
96.54000 0.778
96.56000 8.866
96.58000 6.929
96.60000 0.602
96.62000 -0.743
96.64000 0.519
96.66000 1.099
96.68000 6.209
96.70000 9.128
96.72000 7.097
96.74000 5.951
96.76000 4.123
96.78000 2.190
96.80000 1.479
96.82000 6.139
96.84000 5.608
96.86000 3.851
96.88000 6.453
96.90000 4.217
96.92000 -1.657
96.94000 -1.767
96.96000 0.214
96.98000 7.010
97.00000 8.824
97.02000 5.381
97.04000 9.317
97.06000 6.195
97.08000 6.217
97.10000 8.520
97.12000 5.142
97.14000 7.777
97.16000 7.691
97.18000 6.213
97.20000 -1.029
97.22000 0.481
97.24000 8.284
97.26000 7.278
97.28000 6.759
97.30000 5.024
97.32000 7.993
97.34000 6.269
97.36000 7.802
97.38000 8.324
97.40000 6.292
97.42000 10.678
97.44000 9.110
97.46000 6.710
97.48000 4.504
97.50000 9.023
97.52000 15.719
97.54000 10.811
97.56000 6.222
97.58000 6.001
97.60000 4.671
97.62000 9.547
97.64000 11.012
97.66000 11.185
97.68000 13.059
97.70000 7.631
97.72000 2.846
97.74000 -1.884
97.76000 3.154
97.78000 2.439
97.80000 -2.207
97.82000 4.660
97.84000 9.660
97.86000 10.768
97.88000 14.118
97.90000 6.916
97.92000 9.062
97.94000 6.289
97.96000 4.929
97.98000 4.673
98.00000 5.191
98.02000 4.345
98.04000 7.374
98.06000 9.817
98.08000 -2.866
98.10000 1.190
98.12000 1.746
98.14000 6.780
98.16000 10.602
98.18000 5.657
98.20000 0.158
98.22000 5.975
98.24000 10.403
98.26000 10.879
98.28000 9.166
98.30000 8.364
98.32000 5.196
98.34000 8.557
98.36000 12.456
98.38000 6.670
98.40000 -0.477
98.42000 -0.400
98.44000 7.032
98.46000 4.729
98.48000 10.258
98.50000 15.280
98.52000 9.490
98.54000 8.010
98.56000 11.627
98.58000 6.640
98.60000 0.472
98.62000 7.116
98.64000 12.101
98.66000 11.972
98.68000 7.788
98.70000 5.029
98.72000 0.584
98.74000 1.975
98.76000 7.119
98.78000 11.085
98.80000 18.589
98.82000 11.999
98.84000 7.474
98.86000 10.137
98.88000 -2.714
98.90000 8.828
98.92000 7.102
98.94000 7.265
98.96000 5.485
98.98000 1.861
99.00000 3.500
99.02000 5.420
99.04000 -0.828
99.06000 4.137
99.08000 4.597
99.10000 7.945
99.12000 6.655
99.14000 10.478
99.16000 11.101
99.18000 7.637
99.20000 -3.457
99.22000 3.553
99.24000 7.277
99.26000 11.169
99.28000 1.510
99.30000 5.495
99.32000 7.161
99.34000 12.480
99.36000 15.431
99.38000 -4.541
99.40000 -1.313
99.42000 0.406
99.44000 13.214
99.46000 13.240
99.48000 14.631
99.50000 29.281
99.52000 6.936
99.54000 3.167
99.56000 3.058
99.58000 3.108
99.60000 1.952
99.62000 13.237
99.64000 5.021
99.66000 0.877
99.68000 -2.245
99.70000 9.227
99.72000 0.662
99.74000 0.590
99.76000 3.032
99.78000 2.279
99.80000 5.319
99.82000 13.318
99.84000 16.404
99.86000 -1.808
99.88000 7.657
99.90000 8.480
99.92000 -2.325
99.94000 -2.366
99.96000 6.551
99.98000 0.000
