'Id: "0011388" Comment: "Integrate frame 0011388_Au-Ir-Rh_Rh-rich_XRD-Mapping-221-0000.gfrmwith cursor Wedge Cursor #5" Operator: "B?rgel" Anode: "Cu" Wavelength: "1.5406" Scantype: "2Theta (TwoTheta)" TimePerStep: "1" X: "-40.5" Y: "13.5" Z: "5.95" 
10.00000 0.000
10.02000 20.189
10.04000 22.581
10.06000 14.117
10.08000 5.812
10.10000 1.985
10.12000 11.676
10.14000 13.616
10.16000 26.826
10.18000 17.346
10.20000 5.964
10.22000 9.820
10.24000 16.590
10.26000 26.074
10.28000 28.073
10.30000 20.807
10.32000 10.234
10.34000 11.703
10.36000 5.797
10.38000 0.639
10.40000 14.391
10.42000 25.367
10.44000 18.763
10.46000 -4.528
10.48000 1.656
10.50000 2.060
10.52000 15.325
10.54000 11.738
10.56000 6.355
10.58000 9.897
10.60000 16.719
10.62000 23.090
10.64000 10.032
10.66000 9.362
10.68000 8.125
10.70000 15.696
10.72000 25.185
10.74000 22.554
10.76000 19.673
10.78000 17.246
10.80000 14.872
10.82000 23.421
10.84000 23.735
10.86000 14.655
10.88000 21.908
10.90000 22.410
10.92000 7.465
10.94000 9.536
10.96000 4.329
10.98000 16.970
11.00000 13.971
11.02000 13.627
11.04000 19.467
11.06000 26.774
11.08000 25.056
11.10000 14.596
11.12000 13.289
11.14000 5.423
11.16000 -4.486
11.18000 6.304
11.20000 20.177
11.22000 20.930
11.24000 11.907
11.26000 12.493
11.28000 16.797
11.30000 14.984
11.32000 16.765
11.34000 6.999
11.36000 -0.197
11.38000 14.685
11.40000 25.633
11.42000 29.163
11.44000 26.659
11.46000 20.759
11.48000 22.019
11.50000 11.317
11.52000 3.809
11.54000 17.596
11.56000 18.785
11.58000 9.454
11.60000 9.104
11.62000 4.517
11.64000 1.117
11.66000 11.305
11.68000 3.502
11.70000 7.232
11.72000 -1.235
11.74000 6.197
11.76000 11.480
11.78000 19.762
11.80000 14.859
11.82000 19.639
11.84000 18.217
11.86000 6.358
11.88000 26.173
11.90000 14.108
11.92000 6.943
11.94000 0.079
11.96000 -4.491
11.98000 4.307
12.00000 3.968
12.02000 28.694
12.04000 22.725
12.06000 12.204
12.08000 17.028
12.10000 13.257
12.12000 1.244
12.14000 9.585
12.16000 11.362
12.18000 2.314
12.20000 3.048
12.22000 7.336
12.24000 10.186
12.26000 11.605
12.28000 6.531
12.30000 3.379
12.32000 1.569
12.34000 10.947
12.36000 2.228
12.38000 6.495
12.40000 5.635
12.42000 13.759
12.44000 20.641
12.46000 14.443
12.48000 16.210
12.50000 20.000
12.52000 1.047
12.54000 4.214
12.56000 18.685
12.58000 12.167
12.60000 2.954
12.62000 3.861
12.64000 13.068
12.66000 20.305
12.68000 22.992
12.70000 15.418
12.72000 14.114
12.74000 9.747
12.76000 12.081
12.78000 13.926
12.80000 8.710
12.82000 5.764
12.84000 12.822
12.86000 12.308
12.88000 9.231
12.90000 9.668
12.92000 4.304
12.94000 10.664
12.96000 9.740
12.98000 7.938
13.00000 7.526
13.02000 16.218
13.04000 7.682
13.06000 11.758
13.08000 13.292
13.10000 6.861
13.12000 11.057
13.14000 16.110
13.16000 8.621
13.18000 7.165
13.20000 10.958
13.22000 16.036
13.24000 22.523
13.26000 15.521
13.28000 13.300
13.30000 9.720
13.32000 7.284
13.34000 10.935
13.36000 7.156
13.38000 5.824
13.40000 2.593
13.42000 1.874
13.44000 2.223
13.46000 8.322
13.48000 10.564
13.50000 7.049
13.52000 2.488
13.54000 16.682
13.56000 11.594
13.58000 10.349
13.60000 15.000
13.62000 18.525
13.64000 10.376
13.66000 6.790
13.68000 5.520
13.70000 2.554
13.72000 6.148
13.74000 14.915
13.76000 12.568
13.78000 1.603
13.80000 1.198
13.82000 -0.077
13.84000 6.393
13.86000 3.379
13.88000 -4.515
13.90000 -0.965
13.92000 6.797
13.94000 4.033
13.96000 7.217
13.98000 5.090
14.00000 8.726
14.02000 14.407
14.04000 11.575
14.06000 4.129
14.08000 12.821
14.10000 14.519
14.12000 8.181
14.14000 8.617
14.16000 22.485
14.18000 22.045
14.20000 9.348
14.22000 -4.333
14.24000 -2.908
14.26000 19.728
14.28000 18.197
14.30000 9.231
14.32000 -2.885
14.34000 -1.627
14.36000 15.925
14.38000 14.493
14.40000 1.696
14.42000 3.929
14.44000 3.200
14.46000 4.397
14.48000 9.142
14.50000 8.131
14.52000 5.661
14.54000 2.192
14.56000 0.115
14.58000 14.218
14.60000 19.993
14.62000 18.730
14.64000 6.379
14.66000 5.396
14.68000 6.728
14.70000 7.968
14.72000 6.649
14.74000 8.670
14.76000 2.143
14.78000 1.524
14.80000 6.030
14.82000 5.022
14.84000 6.998
14.86000 -2.632
14.88000 -2.831
14.90000 0.825
14.92000 9.118
14.94000 3.957
14.96000 0.811
14.98000 6.431
15.00000 7.387
15.02000 6.294
15.04000 8.177
15.06000 11.299
15.08000 13.414
15.10000 8.547
15.12000 4.257
15.14000 8.012
15.16000 2.610
15.18000 4.176
15.20000 15.267
15.22000 11.087
15.24000 8.311
15.26000 7.686
15.28000 5.911
15.30000 10.746
15.32000 9.110
15.34000 3.252
15.36000 7.366
15.38000 13.242
15.40000 10.953
15.42000 7.864
15.44000 5.826
15.46000 5.976
15.48000 11.618
15.50000 12.257
15.52000 9.855
15.54000 15.068
15.56000 17.097
15.58000 11.858
15.60000 11.163
15.62000 7.844
15.64000 4.183
15.66000 10.499
15.68000 2.041
15.70000 1.205
15.72000 5.701
15.74000 18.091
15.76000 13.741
15.78000 5.247
15.80000 4.407
15.82000 8.726
15.84000 10.697
15.86000 13.024
15.88000 12.741
15.90000 18.904
15.92000 18.064
15.94000 21.764
15.96000 12.694
15.98000 6.791
16.00000 2.597
16.02000 8.415
16.04000 11.340
16.06000 8.640
16.08000 15.360
16.10000 12.900
16.12000 8.809
16.14000 9.169
16.16000 -0.901
16.18000 6.118
16.20000 16.784
16.22000 13.272
16.24000 11.674
16.26000 5.007
16.28000 5.260
16.30000 6.811
16.32000 11.070
16.34000 18.697
16.36000 15.539
16.38000 19.565
16.40000 15.665
16.42000 18.487
16.44000 25.222
16.46000 20.887
16.48000 2.747
16.50000 -4.337
16.52000 4.402
16.54000 8.288
16.56000 12.021
16.58000 13.347
16.60000 17.044
16.62000 15.563
16.64000 11.229
16.66000 13.725
16.68000 13.394
16.70000 10.991
16.72000 10.668
16.74000 14.540
16.76000 6.641
16.78000 8.695
16.80000 12.053
16.82000 9.248
16.84000 14.986
16.86000 10.263
16.88000 12.912
16.90000 15.886
16.92000 8.982
16.94000 12.944
16.96000 7.390
16.98000 2.423
17.00000 2.102
17.02000 3.952
17.04000 15.421
17.06000 12.348
17.08000 13.370
17.10000 17.513
17.12000 13.876
17.14000 14.127
17.16000 11.411
17.18000 8.788
17.20000 1.103
17.22000 5.182
17.24000 7.063
17.26000 17.673
17.28000 17.364
17.30000 8.262
17.32000 6.565
17.34000 8.742
17.36000 13.165
17.38000 6.918
17.40000 -0.478
17.42000 0.717
17.44000 7.765
17.46000 10.979
17.48000 3.648
17.50000 5.248
17.52000 6.986
17.54000 5.944
17.56000 4.907
17.58000 9.406
17.60000 14.559
17.62000 9.231
17.64000 1.748
17.66000 0.923
17.68000 4.254
17.70000 3.781
17.72000 7.930
17.74000 11.732
17.76000 7.883
17.78000 4.502
17.80000 7.682
17.82000 11.668
17.84000 12.755
17.86000 5.531
17.88000 5.472
17.90000 8.698
17.92000 4.531
17.94000 6.881
17.96000 4.687
17.98000 7.894
18.00000 16.476
18.02000 6.940
18.04000 3.500
18.06000 4.994
18.08000 5.860
18.10000 7.322
18.12000 0.803
18.14000 6.374
18.16000 11.676
18.18000 4.480
18.20000 3.023
18.22000 2.173
18.24000 9.133
18.26000 12.379
18.28000 8.009
18.30000 -0.618
18.32000 -2.076
18.34000 -0.888
18.36000 -0.995
18.38000 -2.040
18.40000 4.506
18.42000 10.420
18.44000 8.908
18.46000 6.812
18.48000 0.223
18.50000 4.579
18.52000 0.487
18.54000 3.586
18.56000 8.467
18.58000 6.888
18.60000 9.285
18.62000 8.022
18.64000 6.629
18.66000 8.490
18.68000 9.380
18.70000 3.217
18.72000 2.083
18.74000 1.981
18.76000 -0.054
18.78000 3.853
18.80000 12.868
18.82000 11.525
18.84000 11.577
18.86000 9.322
18.88000 -0.647
18.90000 -1.791
18.92000 7.205
18.94000 12.167
18.96000 8.515
18.98000 9.024
19.00000 11.056
19.02000 3.691
19.04000 6.661
19.06000 7.420
19.08000 -4.147
19.10000 -4.273
19.12000 3.223
19.14000 4.850
19.16000 7.487
19.18000 10.469
19.20000 10.520
19.22000 6.153
19.24000 9.589
19.26000 1.662
19.28000 4.678
19.30000 5.222
19.32000 0.702
19.34000 7.944
19.36000 7.040
19.38000 4.176
19.40000 1.455
19.42000 5.945
19.44000 8.825
19.46000 7.632
19.48000 -0.838
19.50000 -2.227
19.52000 5.145
19.54000 2.123
19.56000 7.892
19.58000 4.853
19.60000 6.468
19.62000 6.042
19.64000 6.198
19.66000 -0.748
19.68000 -0.130
19.70000 -4.231
19.72000 6.075
19.74000 4.430
19.76000 0.270
19.78000 3.821
19.80000 3.699
19.82000 8.266
19.84000 16.233
19.86000 12.347
19.88000 9.239
19.90000 10.569
19.92000 5.692
19.94000 -2.161
19.96000 1.047
19.98000 5.133
20.00000 8.849
20.02000 13.735
20.04000 15.178
20.06000 8.517
20.08000 4.253
20.10000 9.284
20.12000 -1.253
20.14000 -2.892
20.16000 2.658
20.18000 9.662
20.20000 8.336
20.22000 0.374
20.24000 5.773
20.26000 4.223
20.28000 8.458
20.30000 3.144
20.32000 4.263
20.34000 6.594
20.36000 2.895
20.38000 -0.122
20.40000 5.505
20.42000 8.675
20.44000 8.998
20.46000 10.651
20.48000 6.259
20.50000 8.342
20.52000 5.747
20.54000 2.313
20.56000 4.470
20.58000 1.409
20.60000 3.016
20.62000 10.601
20.64000 9.256
20.66000 9.917
20.68000 11.969
20.70000 15.778
20.72000 9.275
20.74000 10.051
20.76000 7.071
20.78000 6.118
20.80000 -4.149
20.82000 4.992
20.84000 10.874
20.86000 8.319
20.88000 5.832
20.90000 8.185
20.92000 6.691
20.94000 9.282
20.96000 7.451
20.98000 10.662
21.00000 6.863
21.02000 4.664
21.04000 4.359
21.06000 9.591
21.08000 10.583
21.10000 6.712
21.12000 4.838
21.14000 6.500
21.16000 3.979
21.18000 5.321
21.20000 4.082
21.22000 6.620
21.24000 8.689
21.26000 9.108
21.28000 11.857
21.30000 3.419
21.32000 7.761
21.34000 9.488
21.36000 -0.154
21.38000 0.327
21.40000 2.505
21.42000 4.421
21.44000 7.432
21.46000 10.630
21.48000 10.361
21.50000 14.791
21.52000 9.510
21.54000 8.353
21.56000 6.486
21.58000 -4.132
21.60000 2.034
21.62000 8.897
21.64000 13.102
21.66000 9.748
21.68000 2.855
21.70000 -3.553
21.72000 5.427
21.74000 2.299
21.76000 1.914
21.78000 2.345
21.80000 5.983
21.82000 12.285
21.84000 3.249
21.86000 2.216
21.88000 7.352
21.90000 4.535
21.92000 10.778
21.94000 6.727
21.96000 6.198
21.98000 0.816
22.00000 0.562
22.02000 1.907
22.04000 6.719
22.06000 3.326
22.08000 0.509
22.10000 3.518
22.12000 5.185
22.14000 5.929
22.16000 4.709
22.18000 -1.622
22.20000 1.521
22.22000 3.777
22.24000 10.388
22.26000 8.403
22.28000 7.281
22.30000 0.820
22.32000 3.687
22.34000 5.529
22.36000 7.994
22.38000 5.920
22.40000 0.405
22.42000 0.689
22.44000 2.067
22.46000 4.944
22.48000 6.605
22.50000 9.537
22.52000 6.777
22.54000 4.161
22.56000 6.593
22.58000 5.286
22.60000 5.400
22.62000 4.611
22.64000 2.718
22.66000 1.981
22.68000 6.539
22.70000 4.685
22.72000 -4.088
22.74000 -1.494
22.76000 7.969
22.78000 6.930
22.80000 8.803
22.82000 5.778
22.84000 -1.969
22.86000 -2.699
22.88000 3.074
22.90000 2.024
22.92000 7.918
22.94000 10.126
22.96000 3.194
22.98000 11.251
23.00000 4.435
23.02000 -0.059
23.04000 11.114
23.06000 10.530
23.08000 5.850
23.10000 8.338
23.12000 8.211
23.14000 3.372
23.16000 3.728
23.18000 0.057
23.20000 2.951
23.22000 4.707
23.24000 3.271
23.26000 -1.274
23.28000 -4.061
23.30000 -0.692
23.32000 7.779
23.34000 7.159
23.36000 6.366
23.38000 -0.808
23.40000 -1.268
23.42000 -1.844
23.44000 1.056
23.46000 -3.455
23.48000 0.881
23.50000 6.088
23.52000 -0.895
23.54000 0.116
23.56000 0.165
23.58000 0.322
23.60000 2.749
23.62000 1.058
23.64000 -0.677
23.66000 -2.695
23.68000 -3.127
23.70000 -3.532
23.72000 0.402
23.74000 3.358
23.76000 9.464
23.78000 5.562
23.80000 4.564
23.82000 6.799
23.84000 3.317
23.86000 4.167
23.88000 6.032
23.90000 1.758
23.92000 3.417
23.94000 2.300
23.96000 5.237
23.98000 5.487
24.00000 6.525
24.02000 7.047
24.04000 5.617
24.06000 1.138
24.08000 1.222
24.10000 0.515
24.12000 -1.728
24.14000 -1.923
24.16000 3.386
24.18000 4.959
24.20000 1.755
24.22000 2.023
24.24000 -0.195
24.26000 -2.147
24.28000 5.003
24.30000 8.016
24.32000 -2.042
24.34000 1.785
24.36000 2.483
24.38000 2.239
24.40000 -2.057
24.42000 7.683
24.44000 2.500
24.46000 -3.996
24.48000 -2.861
24.50000 7.840
24.52000 7.528
24.54000 10.280
24.56000 8.935
24.58000 0.483
24.60000 -2.091
24.62000 -3.419
24.64000 3.793
24.66000 5.759
24.68000 5.366
24.70000 4.823
24.72000 0.797
24.74000 2.736
24.76000 -0.019
24.78000 2.008
24.80000 7.655
24.82000 4.681
24.84000 4.167
24.86000 5.278
24.88000 2.637
24.90000 1.188
24.92000 5.534
24.94000 6.641
24.96000 10.109
24.98000 4.929
25.00000 2.735
25.02000 1.467
25.04000 4.451
25.06000 9.694
25.08000 8.497
25.10000 9.364
25.12000 2.917
25.14000 -0.866
25.16000 -1.887
25.18000 1.058
25.20000 -1.040
25.22000 -1.030
25.24000 6.370
25.26000 12.680
25.28000 3.172
25.30000 -0.545
25.32000 5.513
25.34000 7.830
25.36000 5.681
25.38000 7.961
25.40000 5.445
25.42000 6.510
25.44000 1.913
25.46000 -2.891
25.48000 7.730
25.50000 6.305
25.52000 4.618
25.54000 -1.364
25.56000 2.015
25.58000 6.347
25.60000 6.128
25.62000 5.844
25.64000 8.193
25.66000 1.389
25.68000 5.231
25.70000 2.207
25.72000 -1.347
25.74000 4.083
25.76000 9.944
25.78000 7.828
25.80000 2.488
25.82000 3.731
25.84000 4.655
25.86000 7.629
25.88000 8.527
25.90000 4.033
25.92000 1.859
25.94000 -3.885
25.96000 -2.070
25.98000 0.815
26.00000 -2.189
26.02000 0.752
26.04000 0.836
26.06000 4.303
26.08000 4.436
26.10000 4.734
26.12000 6.107
26.14000 4.918
26.16000 4.028
26.18000 6.362
26.20000 2.890
26.22000 -2.481
26.24000 3.776
26.26000 6.614
26.28000 5.593
26.30000 1.475
26.32000 -3.869
26.34000 2.815
26.36000 5.900
26.38000 8.664
26.40000 6.615
26.42000 6.249
26.44000 3.358
26.46000 6.302
26.48000 5.954
26.50000 8.895
26.52000 4.298
26.54000 4.046
26.56000 4.179
26.58000 3.481
26.60000 8.442
26.62000 8.866
26.64000 7.532
26.66000 5.426
26.68000 3.216
26.70000 5.386
26.72000 11.318
26.74000 10.759
26.76000 5.002
26.78000 4.259
26.80000 3.346
26.82000 2.230
26.84000 0.009
26.86000 4.856
26.88000 9.313
26.90000 0.585
26.92000 1.034
26.94000 4.184
26.96000 6.600
26.98000 9.468
27.00000 5.010
27.02000 -3.857
27.04000 0.721
27.06000 0.837
27.08000 0.926
27.10000 5.427
27.12000 7.619
27.14000 1.489
27.16000 2.094
27.18000 2.200
27.20000 7.584
27.22000 8.810
27.24000 8.805
27.26000 7.254
27.28000 8.539
27.30000 10.387
27.32000 5.131
27.34000 -2.894
27.36000 -0.654
27.38000 2.858
27.40000 5.051
27.42000 9.809
27.44000 10.549
27.46000 5.253
27.48000 1.698
27.50000 8.213
27.52000 9.765
27.54000 6.746
27.56000 8.484
27.58000 4.970
27.60000 2.844
27.62000 5.196
27.64000 6.015
27.66000 2.541
27.68000 0.786
27.70000 6.636
27.72000 2.314
27.74000 0.195
27.76000 1.634
27.78000 1.249
27.80000 3.097
27.82000 3.705
27.84000 3.209
27.86000 6.775
27.88000 2.034
27.90000 3.780
27.92000 2.903
27.94000 0.178
27.96000 0.512
27.98000 6.052
28.00000 7.937
28.02000 1.347
28.04000 -2.438
28.06000 -1.252
28.08000 -3.799
28.10000 -1.584
28.12000 4.122
28.14000 5.099
28.16000 0.241
28.18000 2.331
28.20000 9.445
28.22000 7.431
28.24000 4.677
28.26000 2.437
28.28000 9.712
28.30000 9.248
28.32000 11.191
28.34000 6.920
28.36000 2.769
28.38000 4.883
28.40000 1.081
28.42000 9.291
28.44000 6.700
28.46000 3.472
28.48000 4.727
28.50000 6.256
28.52000 3.298
28.54000 4.358
28.56000 0.448
28.58000 0.423
28.60000 -3.760
28.62000 -3.290
28.64000 -2.259
28.66000 -3.515
28.68000 1.408
28.70000 5.211
28.72000 7.201
28.74000 0.298
28.76000 -1.153
28.78000 1.554
28.80000 4.173
28.82000 11.431
28.84000 8.098
28.86000 8.689
28.88000 8.846
28.90000 0.545
28.92000 0.521
28.94000 0.197
28.96000 0.521
28.98000 6.068
29.00000 8.734
29.02000 2.794
29.04000 3.236
29.06000 11.141
29.08000 0.631
29.10000 0.020
29.12000 2.994
29.14000 3.261
29.16000 4.594
29.18000 3.761
29.20000 5.039
29.22000 6.170
29.24000 6.245
29.26000 3.970
29.28000 5.716
29.30000 5.316
29.32000 3.186
29.34000 4.754
29.36000 5.851
29.38000 -1.013
29.40000 6.747
29.42000 5.750
29.44000 4.037
29.46000 0.420
29.48000 -1.355
29.50000 -3.718
29.52000 0.331
29.54000 0.686
29.56000 4.056
29.58000 5.203
29.60000 4.459
29.62000 2.280
29.64000 3.067
29.66000 -0.650
29.68000 -1.704
29.70000 2.149
29.72000 11.298
29.74000 3.095
29.76000 4.898
29.78000 5.847
29.80000 10.013
29.82000 1.072
29.84000 -0.710
29.86000 -0.945
29.88000 1.042
29.90000 6.740
29.92000 4.118
29.94000 6.438
29.96000 4.511
29.98000 4.675
30.00000 0.311
30.02000 -0.359
30.04000 -0.024
30.06000 1.515
30.08000 1.523
30.10000 -0.341
30.12000 -3.347
30.14000 -2.313
30.16000 3.879
30.18000 3.643
30.20000 -1.273
30.22000 -3.684
30.24000 -2.565
30.26000 3.967
30.28000 2.351
30.30000 1.236
30.32000 7.711
30.34000 7.015
30.36000 5.224
30.38000 4.314
30.40000 0.388
30.42000 2.619
30.44000 4.335
30.46000 4.153
30.48000 1.071
30.50000 2.084
30.52000 5.669
30.54000 7.131
30.56000 3.810
30.58000 3.805
30.60000 4.998
30.62000 0.004
30.64000 0.136
30.66000 -2.089
30.68000 3.044
30.70000 3.583
30.72000 2.189
30.74000 1.557
30.76000 2.379
30.78000 0.615
30.80000 -2.681
30.82000 -0.916
30.84000 3.232
30.86000 0.877
30.88000 -2.403
30.90000 2.961
30.92000 5.898
30.94000 6.463
30.96000 8.432
30.98000 5.089
31.00000 0.596
31.02000 6.350
31.04000 12.076
31.06000 10.245
31.08000 6.456
31.10000 6.437
31.12000 1.841
31.14000 1.197
31.16000 -3.638
31.18000 -0.545
31.20000 3.892
31.22000 2.862
31.24000 5.047
31.26000 4.757
31.28000 1.002
31.30000 2.537
31.32000 3.965
31.34000 3.157
31.36000 6.196
31.38000 6.283
31.40000 6.974
31.42000 1.085
31.44000 -1.339
31.46000 1.551
31.48000 6.463
31.50000 2.946
31.52000 3.328
31.54000 2.690
31.56000 3.170
31.58000 10.376
31.60000 5.092
31.62000 6.500
31.64000 2.651
31.66000 1.656
31.68000 4.847
31.70000 0.576
31.72000 2.057
31.74000 5.883
31.76000 2.135
31.78000 2.660
31.80000 5.015
31.82000 4.478
31.84000 1.946
31.86000 -3.600
31.88000 1.724
31.90000 8.125
31.92000 12.990
31.94000 10.998
31.96000 3.480
31.98000 2.549
32.00000 4.165
32.02000 3.349
32.04000 3.427
32.06000 2.605
32.08000 0.500
32.10000 4.282
32.12000 7.726
32.14000 2.265
32.16000 -1.501
32.18000 -3.600
32.20000 -0.571
32.22000 7.270
32.24000 4.844
32.26000 -0.150
32.28000 1.169
32.30000 2.763
32.32000 3.703
32.34000 2.552
32.36000 6.436
32.38000 5.249
32.40000 -2.741
32.42000 1.287
32.44000 2.992
32.46000 5.262
32.48000 2.848
32.50000 -0.433
32.52000 1.703
32.54000 4.826
32.56000 5.354
32.58000 3.323
32.60000 6.299
32.62000 2.854
32.64000 3.114
32.66000 0.109
32.68000 0.367
32.70000 10.036
32.72000 6.335
32.74000 1.917
32.76000 3.243
32.78000 2.072
32.80000 5.275
32.82000 2.227
32.84000 4.011
32.86000 9.457
32.88000 9.291
32.90000 2.692
32.92000 1.259
32.94000 2.670
32.96000 1.149
32.98000 1.420
33.00000 4.214
33.02000 5.967
33.04000 3.233
33.06000 1.235
33.08000 5.936
33.10000 5.903
33.12000 9.045
33.14000 5.250
33.16000 8.755
33.18000 9.476
33.20000 3.020
33.22000 3.352
33.24000 7.007
33.26000 -0.833
33.28000 -3.568
33.30000 3.705
33.32000 5.921
33.34000 3.674
33.36000 1.996
33.38000 1.755
33.40000 3.252
33.42000 1.682
33.44000 1.320
33.46000 1.734
33.48000 2.402
33.50000 3.545
33.52000 3.287
33.54000 2.260
33.56000 3.682
33.58000 3.768
33.60000 8.526
33.62000 7.808
33.64000 3.092
33.66000 1.597
33.68000 2.202
33.70000 2.207
33.72000 0.224
33.74000 1.817
33.76000 -0.580
33.78000 0.540
33.80000 2.987
33.82000 3.385
33.84000 3.486
33.86000 3.240
33.88000 4.916
33.90000 8.925
33.92000 6.169
33.94000 2.248
33.96000 5.323
33.98000 4.795
34.00000 1.198
34.02000 -0.495
34.04000 2.388
34.06000 1.992
34.08000 -2.564
34.10000 1.429
34.12000 1.671
34.14000 2.015
34.16000 5.474
34.18000 3.573
34.20000 -0.772
34.22000 -0.308
34.24000 2.361
34.26000 4.710
34.28000 1.919
34.30000 1.458
34.32000 7.169
34.34000 7.357
34.36000 1.640
34.38000 1.025
34.40000 2.660
34.42000 6.284
34.44000 3.265
34.46000 0.350
34.48000 -3.569
34.50000 -0.930
34.52000 -2.208
34.54000 1.647
34.56000 3.270
34.58000 -1.042
34.60000 0.190
34.62000 3.049
34.64000 3.614
34.66000 0.325
34.68000 0.618
34.70000 -0.021
34.72000 1.923
34.74000 3.056
34.76000 0.515
34.78000 2.417
34.80000 7.599
34.82000 8.259
34.84000 5.332
34.86000 4.426
34.88000 4.831
34.90000 -1.857
34.92000 2.117
34.94000 3.940
34.96000 4.344
34.98000 1.649
35.00000 1.687
35.02000 -1.750
35.04000 2.458
35.06000 3.166
35.08000 1.311
35.10000 1.974
35.12000 5.177
35.14000 5.913
35.16000 4.162
35.18000 0.752
35.20000 3.278
35.22000 2.021
35.24000 0.020
35.26000 1.722
35.28000 2.294
35.30000 6.677
35.32000 5.734
35.34000 5.516
35.36000 3.684
35.38000 -0.784
35.40000 -3.524
35.42000 1.339
35.44000 6.149
35.46000 3.674
35.48000 0.394
35.50000 1.575
35.52000 3.904
35.54000 2.247
35.56000 2.937
35.58000 4.615
35.60000 0.797
35.62000 4.079
35.64000 3.229
35.66000 2.274
35.68000 2.036
35.70000 8.709
35.72000 10.245
35.74000 9.291
35.76000 5.602
35.78000 0.325
35.80000 3.143
35.82000 5.355
35.84000 1.115
35.86000 6.318
35.88000 5.244
35.90000 -2.870
35.92000 0.554
35.94000 6.287
35.96000 7.027
35.98000 7.991
36.00000 5.591
36.02000 4.848
36.04000 5.150
36.06000 2.076
36.08000 -3.529
36.10000 -2.901
36.12000 3.363
36.14000 1.885
36.16000 0.936
36.18000 5.419
36.20000 8.542
36.22000 7.969
36.24000 3.410
36.26000 5.048
36.28000 5.376
36.30000 1.808
36.32000 2.666
36.34000 4.163
36.36000 -0.736
36.38000 0.088
36.40000 1.259
36.42000 1.622
36.44000 2.470
36.46000 4.310
36.48000 1.669
36.50000 1.945
36.52000 -1.139
36.54000 -1.470
36.56000 -0.482
36.58000 -2.540
36.60000 0.485
36.62000 0.518
36.64000 5.580
36.66000 1.371
36.68000 3.069
36.70000 4.405
36.72000 0.197
36.74000 -0.867
36.76000 -1.936
36.78000 1.445
36.80000 -1.464
36.82000 -2.587
36.84000 -2.620
36.86000 -0.975
36.88000 1.408
36.90000 1.925
36.92000 1.594
36.94000 1.606
36.96000 -2.646
36.98000 -3.642
37.00000 1.711
37.02000 2.110
37.04000 4.602
37.06000 0.236
37.08000 0.350
37.10000 0.142
37.12000 2.475
37.14000 0.506
37.16000 -1.484
37.18000 -0.724
37.20000 -0.054
37.22000 -0.032
37.24000 -0.241
37.26000 -0.322
37.28000 2.888
37.30000 6.968
37.32000 2.728
37.34000 2.272
37.36000 3.289
37.38000 0.148
37.40000 5.740
37.42000 3.689
37.44000 0.282
37.46000 5.421
37.48000 2.753
37.50000 -1.313
37.52000 0.516
37.54000 0.133
37.56000 3.914
37.58000 3.463
37.60000 3.179
37.62000 2.978
37.64000 6.963
37.66000 5.153
37.68000 6.728
37.70000 8.430
37.72000 12.147
37.74000 9.336
37.76000 5.242
37.78000 5.520
37.80000 10.443
37.82000 13.130
37.84000 14.851
37.86000 10.289
37.88000 9.511
37.90000 7.748
37.92000 11.710
37.94000 13.360
37.96000 12.851
37.98000 8.835
38.00000 9.909
38.02000 15.244
38.04000 14.303
38.06000 12.371
38.08000 13.452
38.10000 18.830
38.12000 20.177
38.14000 21.069
38.16000 18.545
38.18000 15.479
38.20000 14.023
38.22000 18.769
38.24000 19.562
38.26000 21.320
38.28000 21.065
38.30000 23.359
38.32000 25.172
38.34000 28.781
38.36000 26.320
38.38000 25.802
38.40000 31.256
38.42000 30.765
38.44000 34.036
38.46000 34.972
38.48000 32.025
38.50000 35.762
38.52000 38.649
38.54000 36.741
38.56000 35.357
38.58000 37.458
38.60000 37.029
38.62000 41.081
38.64000 40.000
38.66000 41.960
38.68000 44.138
38.70000 49.596
38.72000 51.397
38.74000 51.512
38.76000 49.223
38.78000 54.630
38.80000 54.748
38.82000 59.720
38.84000 67.726
38.86000 68.798
38.88000 61.332
38.90000 66.236
38.92000 74.637
38.94000 78.463
38.96000 77.705
38.98000 85.098
39.00000 85.092
39.02000 89.983
39.04000 89.051
39.06000 95.622
39.08000 105.534
39.10000 113.227
39.12000 117.186
39.14000 121.443
39.16000 123.832
39.18000 129.472
39.20000 140.375
39.22000 147.330
39.24000 151.696
39.26000 152.616
39.28000 154.215
39.30000 167.971
39.32000 176.452
39.34000 182.497
39.36000 195.240
39.38000 199.501
39.40000 213.506
39.42000 220.696
39.44000 229.290
39.46000 248.984
39.48000 263.058
39.50000 265.890
39.52000 275.453
39.54000 293.911
39.56000 310.936
39.58000 329.369
39.60000 343.548
39.62000 348.335
39.64000 365.449
39.66000 388.186
39.68000 409.641
39.70000 428.731
39.72000 449.120
39.74000 468.134
39.76000 481.376
39.78000 493.581
39.80000 513.859
39.82000 534.180
39.84000 554.108
39.86000 579.431
39.88000 595.316
39.90000 617.429
39.92000 633.023
39.94000 645.510
39.96000 651.732
39.98000 668.600
40.00000 683.760
40.02000 691.762
40.04000 693.816
40.06000 693.935
40.08000 711.252
40.10000 713.313
40.12000 703.218
40.14000 710.698
40.16000 703.173
40.18000 704.001
40.20000 703.642
40.22000 689.810
40.24000 682.607
40.26000 659.682
40.28000 643.021
40.30000 631.992
40.32000 599.231
40.34000 585.401
40.36000 573.363
40.38000 548.542
40.40000 530.579
40.42000 509.777
40.44000 485.219
40.46000 474.689
40.48000 456.454
40.50000 431.330
40.52000 412.125
40.54000 388.718
40.56000 361.047
40.58000 348.031
40.60000 339.295
40.62000 328.967
40.64000 302.449
40.66000 282.806
40.68000 262.289
40.70000 246.902
40.72000 233.155
40.74000 221.176
40.76000 208.650
40.78000 199.541
40.80000 191.428
40.82000 182.348
40.84000 166.992
40.86000 155.988
40.88000 149.860
40.90000 141.605
40.92000 134.638
40.94000 124.092
40.96000 114.219
40.98000 109.934
41.00000 109.053
41.02000 104.448
41.04000 95.160
41.06000 88.395
41.08000 82.411
41.10000 69.614
41.12000 70.216
41.14000 71.515
41.16000 66.656
41.18000 62.885
41.20000 62.324
41.22000 58.597
41.24000 55.259
41.26000 55.743
41.28000 51.890
41.30000 46.025
41.32000 44.879
41.34000 37.027
41.36000 37.496
41.38000 35.735
41.40000 31.585
41.42000 28.247
41.44000 27.846
41.46000 28.635
41.48000 24.021
41.50000 22.860
41.52000 26.639
41.54000 23.261
41.56000 16.642
41.58000 17.864
41.60000 16.264
41.62000 16.579
41.64000 19.636
41.66000 21.294
41.68000 17.899
41.70000 16.336
41.72000 20.267
41.74000 16.135
41.76000 13.472
41.78000 11.134
41.80000 15.413
41.82000 14.775
41.84000 10.396
41.86000 8.004
41.88000 5.783
41.90000 10.620
41.92000 12.397
41.94000 12.849
41.96000 10.779
41.98000 5.227
42.00000 6.653
42.02000 5.678
42.04000 8.992
42.06000 5.375
42.08000 4.964
42.10000 5.461
42.12000 6.033
42.14000 5.619
42.16000 4.683
42.18000 6.570
42.20000 3.946
42.22000 4.295
42.24000 5.333
42.26000 6.074
42.28000 4.497
42.30000 0.937
42.32000 4.123
42.34000 4.879
42.36000 2.436
42.38000 1.415
42.40000 -3.610
42.42000 -0.269
42.44000 1.610
42.46000 6.160
42.48000 4.545
42.50000 5.268
42.52000 7.612
42.54000 6.959
42.56000 4.018
42.58000 3.143
42.60000 4.148
42.62000 5.978
42.64000 -0.406
42.66000 2.548
42.68000 5.474
42.70000 -0.084
42.72000 0.132
42.74000 -3.288
42.76000 -1.610
42.78000 5.286
42.80000 3.493
42.82000 -0.438
42.84000 -1.150
42.86000 -0.614
42.88000 -2.760
42.90000 -3.516
42.92000 -0.071
42.94000 0.923
42.96000 -1.308
42.98000 1.325
43.00000 -0.169
43.02000 -2.505
43.04000 1.248
43.06000 3.885
43.08000 0.402
43.10000 -0.582
43.12000 2.475
43.14000 3.772
43.16000 4.193
43.18000 5.988
43.20000 3.362
43.22000 3.243
43.24000 5.232
43.26000 5.144
43.28000 0.102
43.30000 4.677
43.32000 3.685
43.34000 4.611
43.36000 2.583
43.38000 3.143
43.40000 -1.068
43.42000 -3.489
43.44000 0.784
43.46000 5.019
43.48000 6.222
43.50000 -1.141
43.52000 -1.251
43.54000 4.932
43.56000 2.022
43.58000 -0.483
43.60000 -0.679
43.62000 0.604
43.64000 -0.487
43.66000 6.475
43.68000 3.656
43.70000 -0.422
43.72000 -0.482
43.74000 3.359
43.76000 5.853
43.78000 6.397
43.80000 4.193
43.82000 1.475
43.84000 -1.041
43.86000 -1.975
43.88000 2.014
43.90000 3.685
43.92000 3.491
43.94000 5.165
43.96000 5.149
43.98000 5.700
44.00000 1.879
44.02000 2.136
44.04000 5.025
44.06000 4.638
44.08000 1.161
44.10000 -1.912
44.12000 -2.050
44.14000 -1.529
44.16000 1.517
44.18000 5.232
44.20000 3.763
44.22000 2.993
44.24000 -0.121
44.26000 -3.478
44.28000 1.557
44.30000 3.125
44.32000 1.754
44.34000 4.006
44.36000 9.512
44.38000 6.993
44.40000 4.391
44.42000 2.650
44.44000 8.183
44.46000 4.717
44.48000 2.379
44.50000 2.703
44.52000 5.646
44.54000 9.450
44.56000 10.802
44.58000 4.626
44.60000 3.533
44.62000 0.097
44.64000 1.259
44.66000 4.834
44.68000 3.589
44.70000 6.415
44.72000 4.153
44.74000 5.156
44.76000 9.975
44.78000 10.654
44.80000 8.059
44.82000 7.478
44.84000 4.577
44.86000 3.351
44.88000 10.844
44.90000 13.549
44.92000 7.564
44.94000 11.883
44.96000 9.022
44.98000 4.462
45.00000 8.582
45.02000 19.061
45.04000 17.345
45.06000 11.728
45.08000 15.035
45.10000 14.994
45.12000 18.630
45.14000 14.677
45.16000 13.597
45.18000 14.636
45.20000 13.102
45.22000 8.474
45.24000 20.115
45.26000 15.723
45.28000 16.571
45.30000 13.625
45.32000 15.844
45.34000 17.146
45.36000 17.721
45.38000 19.962
45.40000 18.187
45.42000 18.524
45.44000 17.956
45.46000 24.675
45.48000 27.491
45.50000 22.872
45.52000 23.625
45.54000 24.972
45.56000 22.494
45.58000 21.279
45.60000 23.528
45.62000 27.327
45.64000 32.481
45.66000 31.735
45.68000 36.246
45.70000 35.510
45.72000 30.586
45.74000 37.324
45.76000 35.050
45.78000 32.273
45.80000 40.293
45.82000 40.693
45.84000 37.259
45.86000 38.224
45.88000 39.487
45.90000 43.902
45.92000 39.503
45.94000 44.387
45.96000 47.887
45.98000 46.744
46.00000 50.427
46.02000 53.298
46.04000 50.309
46.06000 50.435
46.08000 47.890
46.10000 54.509
46.12000 56.115
46.14000 62.279
46.16000 64.310
46.18000 61.936
46.20000 59.185
46.22000 57.963
46.24000 64.069
46.26000 59.715
46.28000 58.977
46.30000 69.424
46.32000 68.571
46.34000 64.641
46.36000 70.786
46.38000 73.056
46.40000 73.528
46.42000 75.581
46.44000 82.636
46.46000 83.530
46.48000 87.752
46.50000 80.489
46.52000 82.795
46.54000 84.917
46.56000 82.540
46.58000 81.624
46.60000 82.073
46.62000 85.799
46.64000 84.822
46.66000 84.743
46.68000 91.192
46.70000 85.760
46.72000 91.432
46.74000 92.173
46.76000 92.769
46.78000 87.680
46.80000 86.070
46.82000 83.781
46.84000 86.914
46.86000 84.515
46.88000 79.841
46.90000 82.575
46.92000 86.047
46.94000 86.161
46.96000 89.989
46.98000 78.311
47.00000 78.635
47.02000 78.297
47.04000 75.657
47.06000 66.359
47.08000 67.083
47.10000 66.785
47.12000 63.450
47.14000 63.065
47.16000 64.931
47.18000 69.537
47.20000 69.163
47.22000 61.018
47.24000 58.882
47.26000 53.410
47.28000 49.962
47.30000 47.290
47.32000 43.858
47.34000 47.357
47.36000 49.648
47.38000 52.460
47.40000 46.262
47.42000 41.743
47.44000 39.078
47.46000 36.862
47.48000 36.860
47.50000 36.389
47.52000 30.971
47.54000 31.621
47.56000 30.366
47.58000 28.865
47.60000 25.537
47.62000 25.473
47.64000 24.201
47.66000 21.159
47.68000 24.330
47.70000 23.310
47.72000 22.497
47.74000 15.436
47.76000 15.966
47.78000 14.951
47.80000 23.228
47.82000 18.771
47.84000 12.094
47.86000 10.730
47.88000 10.551
47.90000 14.481
47.92000 15.940
47.94000 15.641
47.96000 12.015
47.98000 13.000
48.00000 9.430
48.02000 8.511
48.04000 7.680
48.06000 6.528
48.08000 5.625
48.10000 0.969
48.12000 -0.954
48.14000 3.764
48.16000 2.984
48.18000 7.635
48.20000 8.471
48.22000 5.825
48.24000 10.428
48.26000 8.152
48.28000 5.718
48.30000 2.090
48.32000 8.019
48.34000 9.150
48.36000 4.820
48.38000 -0.259
48.40000 2.482
48.42000 -2.779
48.44000 -2.017
48.46000 -2.785
48.48000 5.576
48.50000 2.063
48.52000 -0.261
48.54000 -3.214
48.56000 2.355
48.58000 5.347
48.60000 4.592
48.62000 5.223
48.64000 4.124
48.66000 -0.644
48.68000 5.000
48.70000 5.381
48.72000 6.694
48.74000 2.431
48.76000 2.743
48.78000 5.211
48.80000 -0.047
48.82000 7.292
48.84000 0.926
48.86000 -2.850
48.88000 -0.472
48.90000 1.284
48.92000 0.808
48.94000 5.480
48.96000 1.254
48.98000 2.241
49.00000 2.036
49.02000 -0.337
49.04000 -0.245
49.06000 -1.089
49.08000 4.286
49.10000 9.319
49.12000 7.929
49.14000 4.435
49.16000 1.898
49.18000 2.413
49.20000 -1.516
49.22000 -3.088
49.24000 -0.070
49.26000 9.589
49.28000 12.367
49.30000 8.601
49.32000 7.732
49.34000 0.374
49.36000 1.350
49.38000 4.130
49.40000 5.512
49.42000 3.724
49.44000 1.638
49.46000 3.780
49.48000 6.039
49.50000 8.043
49.52000 3.754
49.54000 2.528
49.56000 4.437
49.58000 6.542
49.60000 5.650
49.62000 8.829
49.64000 3.370
49.66000 8.117
49.68000 5.423
49.70000 5.924
49.72000 6.720
49.74000 7.927
49.76000 2.919
49.78000 1.736
49.80000 6.528
49.82000 2.271
49.84000 2.506
49.86000 9.816
49.88000 4.883
49.90000 2.216
49.92000 -2.218
49.94000 -1.145
49.96000 1.611
49.98000 5.485
50.00000 2.035
50.02000 2.501
50.04000 5.366
50.06000 3.844
50.08000 -0.775
50.10000 -3.032
50.12000 0.146
50.14000 3.001
50.16000 -2.420
50.18000 -2.887
50.20000 -0.113
50.22000 3.374
50.24000 3.183
50.26000 2.939
50.28000 3.701
50.30000 5.293
50.32000 0.404
50.34000 0.679
50.36000 -0.140
50.38000 -1.401
50.40000 -1.633
50.42000 2.501
50.44000 8.931
50.46000 4.645
50.48000 0.779
50.50000 1.527
50.52000 3.899
50.54000 1.091
50.56000 -0.065
50.58000 0.907
50.60000 2.447
50.62000 4.553
50.64000 5.764
50.66000 -0.564
50.68000 -0.885
50.70000 2.555
50.72000 4.941
50.74000 7.711
50.76000 2.847
50.78000 3.389
50.80000 3.332
50.82000 6.894
50.84000 5.622
50.86000 7.043
50.88000 -0.829
50.90000 -0.724
50.92000 6.492
50.94000 3.688
50.96000 3.562
50.98000 5.279
51.00000 5.091
51.02000 7.131
51.04000 5.162
51.06000 1.325
51.08000 -0.948
51.10000 0.616
51.12000 0.988
51.14000 3.369
51.16000 2.363
51.18000 7.953
51.20000 7.983
51.22000 11.150
51.24000 9.668
51.26000 3.786
51.28000 3.916
51.30000 3.168
51.32000 2.435
51.34000 -2.962
51.36000 -0.988
51.38000 3.957
51.40000 7.580
51.42000 6.059
51.44000 4.571
51.46000 0.854
51.48000 0.766
51.50000 3.996
51.52000 4.239
51.54000 1.559
51.56000 1.215
51.58000 6.330
51.60000 11.018
51.62000 8.674
51.64000 6.110
51.66000 4.586
51.68000 5.110
51.70000 6.054
51.72000 6.294
51.74000 2.018
51.76000 -0.501
51.78000 0.685
51.80000 -2.955
51.82000 -1.200
51.84000 -0.153
51.86000 2.976
51.88000 2.210
51.90000 6.340
51.92000 9.120
51.94000 2.566
51.96000 2.817
51.98000 4.452
52.00000 2.040
52.02000 1.652
52.04000 7.272
52.06000 6.644
52.08000 2.080
52.10000 1.830
52.12000 -1.084
52.14000 1.569
52.16000 -0.575
52.18000 1.623
52.20000 7.575
52.22000 5.883
52.24000 1.571
52.26000 2.776
52.28000 5.601
52.30000 5.452
52.32000 -1.182
52.34000 0.099
52.36000 2.419
52.38000 4.932
52.40000 -0.724
52.42000 0.646
52.44000 1.753
52.46000 3.408
52.48000 1.220
52.50000 4.705
52.52000 5.380
52.54000 6.994
52.56000 7.087
52.58000 4.789
52.60000 9.372
52.62000 4.462
52.64000 6.436
52.66000 7.305
52.68000 3.004
52.70000 1.688
52.72000 3.671
52.74000 3.211
52.76000 2.338
52.78000 5.103
52.80000 5.080
52.82000 4.671
52.84000 3.060
52.86000 4.542
52.88000 4.000
52.90000 2.689
52.92000 3.999
52.94000 3.841
52.96000 3.732
52.98000 6.088
53.00000 4.820
53.02000 4.974
53.04000 8.238
53.06000 5.389
53.08000 5.794
53.10000 8.298
53.12000 5.633
53.14000 4.951
53.16000 11.760
53.18000 7.126
53.20000 3.072
53.22000 3.099
53.24000 5.875
53.26000 7.425
53.28000 9.577
53.30000 8.041
53.32000 10.583
53.34000 10.166
53.36000 9.614
53.38000 11.508
53.40000 9.573
53.42000 8.394
53.44000 10.594
53.46000 11.831
53.48000 6.242
53.50000 14.948
53.52000 17.061
53.54000 14.542
53.56000 5.610
53.58000 4.660
53.60000 1.956
53.62000 -2.824
53.64000 -2.223
53.66000 8.895
53.68000 10.313
53.70000 10.309
53.72000 8.262
53.74000 4.730
53.76000 5.839
53.78000 9.021
53.80000 7.683
53.82000 10.385
53.84000 10.802
53.86000 13.598
53.88000 10.340
53.90000 6.457
53.92000 3.124
53.94000 8.327
53.96000 7.067
53.98000 5.688
54.00000 5.400
54.02000 8.470
54.04000 1.060
54.06000 0.104
54.08000 6.030
54.10000 12.093
54.12000 12.094
54.14000 4.980
54.16000 3.614
54.18000 4.071
54.20000 2.764
54.22000 2.311
54.24000 3.499
54.26000 4.655
54.28000 2.694
54.30000 2.282
54.32000 6.683
54.34000 4.791
54.36000 2.275
54.38000 -0.571
54.40000 -2.847
54.42000 4.313
54.44000 6.087
54.46000 6.237
54.48000 2.947
54.50000 4.515
54.52000 7.421
54.54000 6.286
54.56000 3.837
54.58000 7.728
54.60000 2.916
54.62000 4.109
54.64000 6.399
54.66000 6.060
54.68000 2.680
54.70000 0.025
54.72000 2.204
54.74000 0.988
54.76000 4.172
54.78000 -1.087
54.80000 3.575
54.82000 6.571
54.84000 6.450
54.86000 -1.925
54.88000 -0.793
54.90000 9.890
54.92000 5.658
54.94000 2.191
54.96000 5.432
54.98000 -0.056
55.00000 -1.817
55.02000 2.074
55.04000 0.751
55.06000 5.797
55.08000 7.486
55.10000 4.941
55.12000 7.827
55.14000 5.197
55.16000 -0.098
55.18000 -0.197
55.20000 3.990
55.22000 4.255
55.24000 8.311
55.26000 6.467
55.28000 3.841
55.30000 4.455
55.32000 6.378
55.34000 1.633
55.36000 -1.197
55.38000 -0.013
55.40000 2.596
55.42000 5.981
55.44000 6.575
55.46000 7.151
55.48000 4.674
55.50000 -2.162
55.52000 1.032
55.54000 3.098
55.56000 4.394
55.58000 7.246
55.60000 2.009
55.62000 -0.609
55.64000 2.708
55.66000 8.356
55.68000 5.578
55.70000 6.083
55.72000 7.912
55.74000 3.644
55.76000 0.174
55.78000 0.186
55.80000 2.032
55.82000 3.086
55.84000 4.514
55.86000 3.276
55.88000 1.031
55.90000 0.448
55.92000 1.337
55.94000 4.853
55.96000 4.260
55.98000 5.359
56.00000 8.601
56.02000 8.355
56.04000 8.126
56.06000 7.879
56.08000 7.582
56.10000 5.750
56.12000 3.461
56.14000 4.458
56.16000 8.034
56.18000 8.931
56.20000 6.927
56.22000 4.064
56.24000 0.689
56.26000 3.581
56.28000 5.109
56.30000 3.276
56.32000 0.311
56.34000 0.378
56.36000 -1.035
56.38000 1.992
56.40000 6.466
56.42000 2.707
56.44000 -2.780
56.46000 0.097
56.48000 2.920
56.50000 2.874
56.52000 0.754
56.54000 0.348
56.56000 3.473
56.58000 3.630
56.60000 5.886
56.62000 7.103
56.64000 2.803
56.66000 6.259
56.68000 7.171
56.70000 7.892
56.72000 7.273
56.74000 4.005
56.76000 -0.723
56.78000 1.473
56.80000 0.888
56.82000 2.687
56.84000 0.558
56.86000 4.563
56.88000 8.249
56.90000 3.742
56.92000 3.927
56.94000 1.513
56.96000 4.086
56.98000 4.506
57.00000 1.044
57.02000 1.908
57.04000 5.843
57.06000 4.233
57.08000 -0.572
57.10000 -0.504
57.12000 2.706
57.14000 3.788
57.16000 7.327
57.18000 1.413
57.20000 3.612
57.22000 9.719
57.24000 8.318
57.26000 3.018
57.28000 4.468
57.30000 -2.491
57.32000 1.093
57.34000 5.341
57.36000 4.613
57.38000 5.223
57.40000 2.210
57.42000 4.217
57.44000 9.385
57.46000 3.801
57.48000 -1.115
57.50000 2.303
57.52000 2.812
57.54000 2.459
57.56000 3.290
57.58000 -1.718
57.60000 0.465
57.62000 2.003
57.64000 -0.574
57.66000 4.706
57.68000 3.012
57.70000 2.274
57.72000 4.413
57.74000 1.657
57.76000 1.778
57.78000 3.407
57.80000 0.396
57.82000 3.094
57.84000 4.191
57.86000 4.480
57.88000 2.977
57.90000 3.273
57.92000 1.180
57.94000 7.510
57.96000 4.685
57.98000 1.464
58.00000 0.662
58.02000 -2.309
58.04000 -2.753
58.06000 -0.122
58.08000 3.991
58.10000 5.214
58.12000 5.390
58.14000 6.320
58.16000 3.820
58.18000 2.713
58.20000 0.577
58.22000 5.849
58.24000 6.468
58.26000 4.938
58.28000 -0.398
58.30000 1.700
58.32000 1.849
58.34000 4.192
58.36000 5.821
58.38000 5.117
58.40000 4.560
58.42000 6.660
58.44000 2.892
58.46000 -2.411
58.48000 -2.754
58.50000 1.062
58.52000 6.122
58.54000 4.807
58.56000 4.155
58.58000 8.615
58.60000 5.396
58.62000 2.037
58.64000 -0.922
58.66000 2.398
58.68000 -1.353
58.70000 -0.256
58.72000 2.444
58.74000 9.102
58.76000 9.593
58.78000 4.890
58.80000 3.248
58.82000 1.608
58.84000 3.817
58.86000 2.039
58.88000 3.591
58.90000 -0.747
58.92000 -0.372
58.94000 4.375
58.96000 3.668
58.98000 5.879
59.00000 1.230
59.02000 5.708
59.04000 5.222
59.06000 -0.262
59.08000 -2.740
59.10000 -0.738
59.12000 1.671
59.14000 -1.659
59.16000 0.664
59.18000 4.238
59.20000 0.103
59.22000 -0.947
59.24000 -1.761
59.26000 0.442
59.28000 -0.179
59.30000 3.253
59.32000 1.916
59.34000 3.013
59.36000 5.647
59.38000 4.409
59.40000 1.622
59.42000 0.605
59.44000 4.914
59.46000 5.303
59.48000 2.124
59.50000 7.519
59.52000 8.052
59.54000 4.844
59.56000 3.000
59.58000 2.748
59.60000 1.834
59.62000 1.392
59.64000 2.596
59.66000 3.090
59.68000 3.772
59.70000 2.122
59.72000 3.084
59.74000 0.577
59.76000 -0.614
59.78000 0.843
59.80000 -2.526
59.82000 -1.465
59.84000 -2.712
59.86000 5.482
59.88000 4.678
59.90000 2.404
59.92000 0.345
59.94000 2.393
59.96000 3.283
59.98000 2.207
60.00000 1.014
60.02000 0.805
60.04000 -2.588
60.06000 -1.686
60.08000 -1.172
60.10000 -0.445
60.12000 -0.134
60.14000 1.571
60.16000 5.352
60.18000 2.645
60.20000 4.213
60.22000 -1.212
60.24000 -2.256
60.26000 0.261
60.28000 1.940
60.30000 3.800
60.32000 0.629
60.34000 1.221
60.36000 2.295
60.38000 3.229
60.40000 3.213
60.42000 1.297
60.44000 3.785
60.46000 6.245
60.48000 3.525
60.50000 3.275
60.52000 0.831
60.54000 4.388
60.56000 0.549
60.58000 -2.680
60.60000 0.831
60.62000 4.470
60.64000 2.213
60.66000 2.626
60.68000 3.322
60.70000 8.968
60.72000 5.031
60.74000 2.633
60.76000 5.463
60.78000 3.433
60.80000 2.062
60.82000 -1.204
60.84000 1.814
60.86000 5.382
60.88000 4.814
60.90000 1.469
60.92000 4.975
60.94000 1.461
60.96000 4.210
60.98000 3.749
61.00000 3.304
61.02000 5.483
61.04000 3.756
61.06000 4.099
61.08000 5.494
61.10000 2.569
61.12000 -1.167
61.14000 0.963
61.16000 5.447
61.18000 7.350
61.20000 5.661
61.22000 4.446
61.24000 -1.876
61.26000 -0.801
61.28000 2.882
61.30000 4.375
61.32000 3.427
61.34000 0.182
61.36000 -2.646
61.38000 2.979
61.40000 4.092
61.42000 5.411
61.44000 6.578
61.46000 1.472
61.48000 2.822
61.50000 6.035
61.52000 4.789
61.54000 1.770
61.56000 3.595
61.58000 1.538
61.60000 1.669
61.62000 2.888
61.64000 0.767
61.66000 2.463
61.68000 5.741
61.70000 -1.023
61.72000 0.225
61.74000 2.695
61.76000 5.178
61.78000 0.405
61.80000 4.367
61.82000 7.887
61.84000 3.571
61.86000 1.318
61.88000 0.442
61.90000 0.667
61.92000 3.212
61.94000 1.510
61.96000 3.258
61.98000 2.842
62.00000 3.064
62.02000 5.342
62.04000 1.597
62.06000 2.953
62.08000 -1.397
62.10000 -0.036
62.12000 1.287
62.14000 1.806
62.16000 -0.043
62.18000 3.735
62.20000 9.290
62.22000 7.155
62.24000 3.768
62.26000 5.005
62.28000 2.991
62.30000 -2.166
62.32000 -0.562
62.34000 1.172
62.36000 1.419
62.38000 3.549
62.40000 4.054
62.42000 5.522
62.44000 -0.224
62.46000 1.270
62.48000 3.550
62.50000 2.202
62.52000 2.419
62.54000 2.156
62.56000 2.573
62.58000 2.871
62.60000 0.665
62.62000 4.977
62.64000 6.991
62.66000 3.311
62.68000 3.436
62.70000 5.336
62.72000 3.213
62.74000 2.119
62.76000 3.106
62.78000 1.752
62.80000 -1.946
62.82000 -2.630
62.84000 2.673
62.86000 4.343
62.88000 2.344
62.90000 0.304
62.92000 1.732
62.94000 6.732
62.96000 4.686
62.98000 3.795
63.00000 1.382
63.02000 -1.561
63.04000 1.065
63.06000 3.029
63.08000 -2.205
63.10000 0.879
63.12000 1.708
63.14000 1.387
63.16000 4.034
63.18000 3.527
63.20000 1.658
63.22000 3.500
63.24000 2.029
63.26000 -0.057
63.28000 2.824
63.30000 4.950
63.32000 -0.998
63.34000 -1.460
63.36000 -2.612
63.38000 -0.430
63.40000 1.272
63.42000 4.786
63.44000 0.728
63.46000 0.052
63.48000 1.396
63.50000 5.370
63.52000 8.415
63.54000 7.674
63.56000 4.348
63.58000 2.824
63.60000 4.672
63.62000 7.737
63.64000 8.743
63.66000 2.088
63.68000 0.258
63.70000 3.682
63.72000 5.635
63.74000 6.087
63.76000 6.328
63.78000 3.691
63.80000 3.272
63.82000 3.029
63.84000 5.663
63.86000 2.663
63.88000 -1.093
63.90000 -0.807
63.92000 3.545
63.94000 -0.579
63.96000 2.207
63.98000 3.578
64.00000 1.572
64.02000 1.931
64.04000 -1.611
64.06000 -1.454
64.08000 -0.930
64.10000 0.346
64.12000 -0.181
64.14000 0.156
64.16000 2.263
64.18000 0.758
64.20000 1.677
64.22000 3.907
64.24000 -0.186
64.26000 2.101
64.28000 2.252
64.30000 0.793
64.32000 0.277
64.34000 -0.068
64.36000 1.138
64.38000 2.868
64.40000 0.011
64.42000 -1.062
64.44000 0.085
64.46000 2.033
64.48000 2.911
64.50000 3.592
64.52000 1.126
64.54000 -2.257
64.56000 0.255
64.58000 0.026
64.60000 3.144
64.62000 0.501
64.64000 1.647
64.66000 1.587
64.68000 3.338
64.70000 2.673
64.72000 0.551
64.74000 3.080
64.76000 2.115
64.78000 0.933
64.80000 3.167
64.82000 2.060
64.84000 0.286
64.86000 1.348
64.88000 -2.668
64.90000 -2.381
64.92000 3.014
64.94000 4.145
64.96000 2.833
64.98000 3.064
65.00000 1.094
65.02000 -0.163
65.04000 1.565
65.06000 1.895
65.08000 2.769
65.10000 0.357
65.12000 1.887
65.14000 2.057
65.16000 0.724
65.18000 -2.175
65.20000 3.675
65.22000 1.835
65.24000 3.578
65.26000 4.318
65.28000 2.709
65.30000 2.224
65.32000 0.103
65.34000 1.204
65.36000 -1.156
65.38000 -2.132
65.40000 0.220
65.42000 -0.520
65.44000 -1.375
65.46000 -1.487
65.48000 3.780
65.50000 -0.799
65.52000 -2.674
65.54000 -0.399
65.56000 -0.002
65.58000 2.140
65.60000 1.201
65.62000 5.654
65.64000 3.506
65.66000 3.712
65.68000 2.754
65.70000 -0.891
65.72000 -1.537
65.74000 1.415
65.76000 4.376
65.78000 4.872
65.80000 4.889
65.82000 0.845
65.84000 0.712
65.86000 1.141
65.88000 0.851
65.90000 3.212
65.92000 2.326
65.94000 -0.803
65.96000 0.023
65.98000 0.693
66.00000 3.865
66.02000 -0.731
66.04000 0.580
66.06000 2.967
66.08000 -1.026
66.10000 0.065
66.12000 3.292
66.14000 3.634
66.16000 2.721
66.18000 -2.442
66.20000 -2.727
66.22000 3.259
66.24000 3.236
66.26000 4.781
66.28000 2.958
66.30000 -1.248
66.32000 -0.123
66.34000 1.924
66.36000 5.034
66.38000 5.585
66.40000 3.915
66.42000 4.176
66.44000 4.801
66.46000 0.727
66.48000 1.376
66.50000 0.967
66.52000 3.112
66.54000 3.695
66.56000 3.625
66.58000 -0.877
66.60000 1.252
66.62000 -0.723
66.64000 -0.894
66.66000 2.038
66.68000 1.199
66.70000 1.517
66.72000 2.192
66.74000 2.047
66.76000 3.277
66.78000 0.599
66.80000 4.126
66.82000 6.689
66.84000 4.188
66.86000 -1.282
66.88000 2.006
66.90000 4.304
66.92000 3.863
66.94000 4.656
66.96000 3.322
66.98000 4.003
67.00000 2.420
67.02000 2.613
67.04000 5.416
67.06000 1.312
67.08000 7.908
67.10000 6.101
67.12000 -0.043
67.14000 5.532
67.16000 8.494
67.18000 8.376
67.20000 10.895
67.22000 9.720
67.24000 6.089
67.26000 7.089
67.28000 6.418
67.30000 7.180
67.32000 11.864
67.34000 8.018
67.36000 11.429
67.38000 8.411
67.40000 10.166
67.42000 12.251
67.44000 9.980
67.46000 6.598
67.48000 9.792
67.50000 15.431
67.52000 14.765
67.54000 11.268
67.56000 10.418
67.58000 9.973
67.60000 12.003
67.62000 12.116
67.64000 13.543
67.66000 12.765
67.68000 13.947
67.70000 12.607
67.72000 14.929
67.74000 18.026
67.76000 20.882
67.78000 19.670
67.80000 16.097
67.82000 12.520
67.84000 15.811
67.86000 22.462
67.88000 18.475
67.90000 16.534
67.92000 20.805
67.94000 20.149
67.96000 16.475
67.98000 15.795
68.00000 23.678
68.02000 18.544
68.04000 15.560
68.06000 17.915
68.08000 16.598
68.10000 14.128
68.12000 13.987
68.14000 14.838
68.16000 18.654
68.18000 18.336
68.20000 16.475
68.22000 17.342
68.24000 18.395
68.26000 17.945
68.28000 21.434
68.30000 20.710
68.32000 16.699
68.34000 16.826
68.36000 18.781
68.38000 13.914
68.40000 17.322
68.42000 15.961
68.44000 15.058
68.46000 15.994
68.48000 18.662
68.50000 16.109
68.52000 11.570
68.54000 14.751
68.56000 12.705
68.58000 14.612
68.60000 17.341
68.62000 17.709
68.64000 15.441
68.66000 14.588
68.68000 10.404
68.70000 10.860
68.72000 15.407
68.74000 11.733
68.76000 5.840
68.78000 5.666
68.80000 6.152
68.82000 5.474
68.84000 7.236
68.86000 10.573
68.88000 9.687
68.90000 8.346
68.92000 7.662
68.94000 1.551
68.96000 0.554
68.98000 9.081
69.00000 9.302
69.02000 7.389
69.04000 3.732
69.06000 2.129
69.08000 2.217
69.10000 3.101
69.12000 1.330
69.14000 2.034
69.16000 2.033
69.18000 0.001
69.20000 4.881
69.22000 7.281
69.24000 1.430
69.26000 7.269
69.28000 3.936
69.30000 0.119
69.32000 3.655
69.34000 3.772
69.36000 1.329
69.38000 3.436
69.40000 4.489
69.42000 0.778
69.44000 0.312
69.46000 1.882
69.48000 0.533
69.50000 1.742
69.52000 2.516
69.54000 0.614
69.56000 0.564
69.58000 0.380
69.60000 1.372
69.62000 7.010
69.64000 7.475
69.66000 3.372
69.68000 1.101
69.70000 1.585
69.72000 -0.229
69.74000 1.333
69.76000 1.970
69.78000 4.809
69.80000 2.656
69.82000 2.539
69.84000 -0.096
69.86000 -1.262
69.88000 -1.355
69.90000 0.757
69.92000 -1.304
69.94000 3.174
69.96000 -1.180
69.98000 2.555
70.00000 3.035
70.02000 -1.504
70.04000 -2.563
70.06000 1.364
70.08000 4.841
70.10000 8.066
70.12000 8.095
70.14000 4.156
70.16000 5.785
70.18000 1.546
70.20000 3.607
70.22000 -1.207
70.24000 -0.400
70.26000 3.473
70.28000 3.196
70.30000 6.683
70.32000 2.716
70.34000 -0.394
70.36000 6.983
70.38000 9.396
70.40000 2.172
70.42000 0.884
70.44000 0.681
70.46000 3.132
70.48000 9.534
70.50000 5.138
70.52000 4.602
70.54000 5.206
70.56000 1.165
70.58000 1.579
70.60000 4.361
70.62000 -0.466
70.64000 1.155
70.66000 0.149
70.68000 0.336
70.70000 1.169
70.72000 4.648
70.74000 3.482
70.76000 1.993
70.78000 1.601
70.80000 5.947
70.82000 6.192
70.84000 4.994
70.86000 2.265
70.88000 -0.845
70.90000 3.914
70.92000 3.482
70.94000 2.232
70.96000 7.142
70.98000 2.751
71.00000 3.755
71.02000 5.815
71.04000 6.020
71.06000 6.523
71.08000 -1.096
71.10000 -0.520
71.12000 3.940
71.14000 4.351
71.16000 6.991
71.18000 7.653
71.20000 3.292
71.22000 1.731
71.24000 4.182
71.26000 9.945
71.28000 9.300
71.30000 5.085
71.32000 3.728
71.34000 6.898
71.36000 2.092
71.38000 3.170
71.40000 1.408
71.42000 1.165
71.44000 2.660
71.46000 3.414
71.48000 4.764
71.50000 2.874
71.52000 3.807
71.54000 3.198
71.56000 6.073
71.58000 6.542
71.60000 2.246
71.62000 -2.468
71.64000 -0.423
71.66000 2.862
71.68000 2.587
71.70000 0.931
71.72000 -2.188
71.74000 -0.227
71.76000 8.518
71.78000 7.630
71.80000 2.902
71.82000 0.063
71.84000 -1.472
71.86000 1.083
71.88000 0.774
71.90000 2.835
71.92000 4.026
71.94000 2.444
71.96000 -2.461
71.98000 -0.055
72.00000 3.130
72.02000 5.937
72.04000 10.822
72.06000 8.850
72.08000 3.358
72.10000 3.278
72.12000 5.402
72.14000 6.010
72.16000 2.972
72.18000 2.724
72.20000 6.830
72.22000 4.059
72.24000 4.065
72.26000 2.356
72.28000 -0.821
72.30000 1.868
72.32000 4.212
72.34000 6.635
72.36000 5.849
72.38000 5.927
72.40000 1.761
72.42000 4.040
72.44000 2.725
72.46000 6.231
72.48000 6.368
72.50000 6.090
72.52000 5.538
72.54000 8.893
72.56000 9.469
72.58000 7.940
72.60000 3.186
72.62000 0.871
72.64000 1.700
72.66000 4.915
72.68000 4.144
72.70000 2.668
72.72000 3.358
72.74000 7.052
72.76000 5.115
72.78000 -2.442
72.80000 -0.419
72.82000 2.413
72.84000 5.059
72.86000 5.158
72.88000 3.385
72.90000 5.584
72.92000 3.583
72.94000 7.319
72.96000 6.747
72.98000 3.763
73.00000 0.773
73.02000 3.392
73.04000 7.037
73.06000 4.745
73.08000 3.294
73.10000 0.613
73.12000 -0.664
73.14000 4.477
73.16000 8.177
73.18000 9.397
73.20000 6.244
73.22000 1.718
73.24000 2.397
73.26000 4.455
73.28000 7.069
73.30000 5.887
73.32000 4.112
73.34000 5.891
73.36000 4.806
73.38000 1.218
73.40000 2.896
73.42000 3.720
73.44000 2.738
73.46000 1.092
73.48000 3.774
73.50000 5.064
73.52000 4.896
73.54000 4.786
73.56000 1.989
73.58000 4.225
73.60000 2.348
73.62000 7.621
73.64000 6.682
73.66000 8.105
73.68000 7.660
73.70000 2.066
73.72000 -0.060
73.74000 1.478
73.76000 3.365
73.78000 5.685
73.80000 0.589
73.82000 2.672
73.84000 5.820
73.86000 8.176
73.88000 5.232
73.90000 2.635
73.92000 3.916
73.94000 5.200
73.96000 6.815
73.98000 7.580
74.00000 8.216
74.02000 5.189
74.04000 4.288
74.06000 5.608
74.08000 10.067
74.10000 10.981
74.12000 5.033
74.14000 1.316
74.16000 -2.382
74.18000 2.494
74.20000 3.768
74.22000 4.354
74.24000 6.918
74.26000 6.187
74.28000 2.582
74.30000 4.410
74.32000 7.220
74.34000 4.660
74.36000 5.870
74.38000 4.190
74.40000 3.925
74.42000 5.047
74.44000 5.129
74.46000 6.628
74.48000 7.922
74.50000 8.580
74.52000 4.564
74.54000 4.186
74.56000 4.882
74.58000 3.559
74.60000 7.491
74.62000 8.972
74.64000 7.081
74.66000 7.326
74.68000 3.719
74.70000 4.181
74.72000 5.709
74.74000 8.242
74.76000 7.265
74.78000 8.708
74.80000 6.795
74.82000 7.258
74.84000 8.332
74.86000 5.015
74.88000 3.968
74.90000 6.433
74.92000 6.232
74.94000 5.594
74.96000 -0.831
74.98000 -2.394
75.00000 1.968
75.02000 0.174
75.04000 -2.301
75.06000 1.902
75.08000 5.628
75.10000 6.227
75.12000 4.565
75.14000 8.087
75.16000 10.409
75.18000 7.561
75.20000 7.555
75.22000 7.627
75.24000 5.949
75.26000 3.065
75.28000 0.934
75.30000 2.067
75.32000 3.364
75.34000 6.360
75.36000 3.738
75.38000 1.778
75.40000 6.009
75.42000 5.214
75.44000 1.930
75.46000 -2.427
75.48000 1.254
75.50000 3.848
75.52000 3.341
75.54000 1.600
75.56000 8.432
75.58000 7.041
75.60000 5.525
75.62000 3.343
75.64000 4.632
75.66000 9.089
75.68000 2.804
75.70000 3.716
75.72000 5.315
75.74000 9.925
75.76000 2.612
75.78000 0.294
75.80000 1.784
75.82000 -0.969
75.84000 -2.109
75.86000 3.226
75.88000 3.017
75.90000 2.673
75.92000 4.361
75.94000 7.293
75.96000 6.316
75.98000 7.493
76.00000 4.039
76.02000 4.286
76.04000 6.926
76.06000 6.543
76.08000 5.561
76.10000 5.068
76.12000 9.167
76.14000 1.988
76.16000 -0.899
76.18000 2.459
76.20000 2.721
76.22000 6.523
76.24000 7.950
76.26000 3.183
76.28000 -2.461
76.30000 2.762
76.32000 8.500
76.34000 6.046
76.36000 7.024
76.38000 6.618
76.40000 5.417
76.42000 3.713
76.44000 3.831
76.46000 0.840
76.48000 2.077
76.50000 4.010
76.52000 4.759
76.54000 3.417
76.56000 3.250
76.58000 0.047
76.60000 2.558
76.62000 2.065
76.64000 4.330
76.66000 6.101
76.68000 5.041
76.70000 3.297
76.72000 1.939
76.74000 0.691
76.76000 3.162
76.78000 2.898
76.80000 0.540
76.82000 0.133
76.84000 -2.462
76.86000 -2.318
76.88000 -0.356
76.90000 6.895
76.92000 3.286
76.94000 -1.721
76.96000 2.205
76.98000 2.794
77.00000 1.718
77.02000 0.293
77.04000 1.762
77.06000 1.220
77.08000 1.883
77.10000 3.871
77.12000 3.806
77.14000 2.493
77.16000 2.914
77.18000 1.580
77.20000 2.385
77.22000 1.800
77.24000 1.513
77.26000 2.147
77.28000 3.309
77.30000 4.463
77.32000 9.779
77.34000 4.232
77.36000 3.155
77.38000 4.657
77.40000 3.133
77.42000 1.271
77.44000 2.108
77.46000 6.119
77.48000 8.081
77.50000 2.546
77.52000 0.590
77.54000 1.125
77.56000 3.514
77.58000 3.065
77.60000 9.151
77.62000 5.331
77.64000 7.712
77.66000 4.699
77.68000 1.163
77.70000 1.835
77.72000 5.976
77.74000 4.056
77.76000 4.466
77.78000 4.360
77.80000 1.909
77.82000 2.622
77.84000 4.126
77.86000 2.851
77.88000 2.190
77.90000 -2.487
77.92000 1.012
77.94000 3.407
77.96000 2.313
77.98000 0.915
78.00000 3.177
78.02000 0.955
78.04000 5.198
78.06000 9.448
78.08000 6.322
78.10000 6.576
78.12000 4.900
78.14000 9.109
78.16000 2.946
78.18000 -0.240
78.20000 2.779
78.22000 -0.168
78.24000 2.187
78.26000 0.921
78.28000 5.233
78.30000 11.953
78.32000 6.107
78.34000 1.191
78.36000 4.180
78.38000 6.429
78.40000 4.530
78.42000 3.852
78.44000 7.038
78.46000 3.707
78.48000 4.054
78.50000 3.960
78.52000 -0.332
78.54000 2.650
78.56000 9.214
78.58000 9.221
78.60000 1.094
78.62000 0.444
78.64000 6.309
78.66000 6.336
78.68000 4.098
78.70000 3.159
78.72000 0.018
78.74000 -0.018
78.76000 0.708
78.78000 1.986
78.80000 -0.375
78.82000 1.871
78.84000 3.626
78.86000 1.153
78.88000 1.038
78.90000 -0.064
78.92000 0.899
78.94000 3.272
78.96000 7.989
78.98000 3.387
79.00000 -1.062
79.02000 -0.294
79.04000 1.810
79.06000 1.017
79.08000 9.550
79.10000 5.656
79.12000 0.177
79.14000 -2.091
79.16000 -2.530
79.18000 1.441
79.20000 3.832
79.22000 6.173
79.24000 3.455
79.26000 3.472
79.28000 6.637
79.30000 4.584
79.32000 3.510
79.34000 3.348
79.36000 3.755
79.38000 1.326
79.40000 6.410
79.42000 7.932
79.44000 3.321
79.46000 2.844
79.48000 1.400
79.50000 -1.390
79.52000 1.059
79.54000 4.207
79.56000 3.624
79.58000 6.197
79.60000 5.408
79.62000 5.993
79.64000 5.999
79.66000 8.307
79.68000 11.465
79.70000 7.670
79.72000 3.367
79.74000 6.842
79.76000 8.621
79.78000 4.254
79.80000 3.887
79.82000 9.066
79.84000 3.660
79.86000 -2.523
79.88000 1.084
79.90000 9.686
79.92000 8.497
79.94000 9.027
79.96000 6.435
79.98000 6.008
80.00000 10.629
80.02000 6.576
80.04000 5.844
80.06000 8.913
80.08000 10.222
80.10000 8.860
80.12000 8.210
80.14000 4.562
80.16000 4.403
80.18000 9.625
80.20000 14.744
80.22000 10.177
80.24000 3.837
80.26000 4.366
80.28000 6.244
80.30000 10.277
80.32000 14.289
80.34000 10.041
80.36000 7.515
80.38000 8.764
80.40000 7.459
80.42000 5.669
80.44000 4.947
80.46000 6.662
80.48000 6.555
80.50000 8.329
80.52000 7.515
80.54000 4.512
80.56000 7.197
80.58000 6.100
80.60000 8.282
80.62000 5.027
80.64000 5.375
80.66000 6.545
80.68000 8.819
80.70000 6.294
80.72000 6.205
80.74000 9.786
80.76000 14.924
80.78000 17.560
80.80000 14.434
80.82000 20.799
80.84000 13.361
80.86000 10.828
80.88000 10.866
80.90000 9.015
80.92000 12.997
80.94000 15.062
80.96000 13.297
80.98000 8.198
81.00000 13.912
81.02000 18.438
81.04000 15.065
81.06000 9.334
81.08000 8.504
81.10000 9.944
81.12000 8.923
81.14000 11.035
81.16000 17.133
81.18000 18.842
81.20000 12.184
81.22000 13.129
81.24000 13.515
81.26000 14.681
81.28000 17.318
81.30000 17.460
81.32000 12.412
81.34000 8.752
81.36000 13.788
81.38000 14.895
81.40000 14.276
81.42000 12.813
81.44000 17.419
81.46000 23.655
81.48000 20.770
81.50000 20.714
81.52000 16.848
81.54000 17.373
81.56000 15.449
81.58000 12.757
81.60000 19.565
81.62000 20.332
81.64000 18.928
81.66000 21.991
81.68000 20.717
81.70000 20.383
81.72000 24.916
81.74000 18.321
81.76000 16.616
81.78000 13.947
81.80000 20.133
81.82000 23.343
81.84000 26.076
81.86000 27.376
81.88000 24.876
81.90000 22.943
81.92000 22.541
81.94000 22.131
81.96000 30.053
81.98000 26.431
82.00000 29.276
82.02000 23.206
82.04000 21.350
82.06000 22.257
82.08000 21.840
82.10000 23.106
82.12000 27.434
82.14000 24.088
82.16000 24.825
82.18000 29.358
82.20000 36.292
82.22000 25.110
82.24000 25.265
82.26000 20.188
82.28000 18.075
82.30000 25.304
82.32000 25.965
82.34000 21.988
82.36000 14.859
82.38000 28.410
82.40000 29.591
82.42000 29.531
82.44000 29.487
82.46000 32.490
82.48000 25.385
82.50000 28.399
82.52000 26.663
82.54000 24.331
82.56000 20.502
82.58000 26.159
82.60000 21.978
82.62000 21.898
82.64000 25.035
82.66000 23.583
82.68000 28.282
82.70000 27.352
82.72000 22.093
82.74000 19.875
82.76000 18.732
82.78000 20.356
82.80000 20.242
82.82000 17.529
82.84000 17.842
82.86000 14.871
82.88000 9.799
82.90000 6.831
82.92000 12.829
82.94000 19.344
82.96000 21.098
82.98000 16.103
83.00000 17.873
83.02000 15.176
83.04000 16.001
83.06000 8.092
83.08000 7.749
83.10000 12.689
83.12000 13.922
83.14000 14.291
83.16000 12.619
83.18000 8.976
83.20000 8.361
83.22000 13.980
83.24000 12.402
83.26000 12.088
83.28000 10.119
83.30000 9.983
83.32000 8.865
83.34000 8.436
83.36000 3.657
83.38000 5.389
83.40000 6.902
83.42000 3.606
83.44000 3.811
83.46000 4.051
83.48000 10.568
83.50000 9.761
83.52000 2.685
83.54000 1.602
83.56000 1.892
83.58000 -2.650
83.60000 -2.153
83.62000 1.812
83.64000 0.045
83.66000 6.943
83.68000 9.795
83.70000 5.732
83.72000 7.617
83.74000 8.275
83.76000 6.466
83.78000 5.652
83.80000 7.541
83.82000 11.151
83.84000 11.765
83.86000 7.905
83.88000 4.447
83.90000 -1.263
83.92000 4.565
83.94000 4.925
83.96000 5.559
83.98000 -0.198
84.00000 -0.023
84.02000 2.211
84.04000 4.941
84.06000 3.888
84.08000 5.739
84.10000 5.238
84.12000 3.869
84.14000 -1.987
84.16000 0.463
84.18000 2.898
84.20000 4.031
84.22000 2.830
84.24000 3.369
84.26000 -0.626
84.28000 0.655
84.30000 -0.882
84.32000 -1.656
84.34000 0.897
84.36000 1.316
84.38000 6.115
84.40000 4.583
84.42000 3.766
84.44000 3.006
84.46000 -2.604
84.48000 -0.645
84.50000 0.188
84.52000 5.316
84.54000 1.468
84.56000 2.128
84.58000 0.175
84.60000 8.842
84.62000 8.636
84.64000 7.271
84.66000 0.141
84.68000 1.656
84.70000 -2.588
84.72000 0.061
84.74000 5.344
84.76000 10.229
84.78000 7.084
84.80000 2.552
84.82000 4.808
84.84000 3.884
84.86000 -2.597
84.88000 -0.078
84.90000 3.706
84.92000 5.276
84.94000 8.920
84.96000 7.620
84.98000 8.141
85.00000 8.560
85.02000 13.573
85.04000 7.050
85.06000 1.310
85.08000 1.522
85.10000 -0.082
85.12000 0.776
85.14000 3.466
85.16000 4.894
85.18000 4.506
85.20000 5.077
85.22000 2.566
85.24000 7.222
85.26000 10.080
85.28000 12.663
85.30000 11.566
85.32000 9.112
85.34000 7.908
85.36000 11.077
85.38000 10.679
85.40000 8.432
85.42000 8.020
85.44000 11.724
85.46000 15.232
85.48000 12.179
85.50000 11.847
85.52000 11.869
85.54000 14.639
85.56000 13.746
85.58000 13.921
85.60000 13.499
85.62000 13.611
85.64000 16.099
85.66000 15.628
85.68000 13.932
85.70000 12.968
85.72000 17.488
85.74000 14.857
85.76000 18.177
85.78000 15.449
85.80000 20.270
85.82000 17.523
85.84000 24.727
85.86000 28.605
85.88000 22.990
85.90000 21.337
85.92000 20.302
85.94000 18.460
85.96000 24.362
85.98000 31.902
86.00000 27.104
86.02000 23.924
86.04000 23.058
86.06000 25.892
86.08000 28.712
86.10000 27.932
86.12000 26.145
86.14000 27.058
86.16000 28.496
86.18000 28.776
86.20000 32.248
86.22000 33.520
86.24000 38.946
86.26000 36.596
86.28000 32.313
86.30000 40.650
86.32000 37.371
86.34000 35.877
86.36000 37.236
86.38000 41.393
86.40000 44.102
86.42000 40.437
86.44000 36.683
86.46000 37.193
86.48000 41.708
86.50000 38.677
86.52000 42.370
86.54000 39.642
86.56000 32.712
86.58000 34.835
86.60000 39.202
86.62000 34.994
86.64000 34.504
86.66000 27.240
86.68000 29.423
86.70000 35.638
86.72000 44.041
86.74000 36.472
86.76000 34.053
86.78000 34.116
86.80000 33.212
86.82000 33.137
86.84000 34.427
86.86000 28.691
86.88000 27.374
86.90000 30.363
86.92000 37.637
86.94000 30.322
86.96000 27.381
86.98000 32.519
87.00000 32.889
87.02000 29.836
87.04000 28.977
87.06000 25.502
87.08000 22.059
87.10000 28.691
87.12000 23.132
87.14000 18.700
87.16000 18.918
87.18000 20.316
87.20000 18.883
87.22000 21.931
87.24000 18.751
87.26000 13.801
87.28000 16.778
87.30000 19.578
87.32000 17.504
87.34000 16.700
87.36000 16.226
87.38000 15.249
87.40000 12.494
87.42000 16.892
87.44000 14.708
87.46000 14.868
87.48000 13.700
87.50000 12.277
87.52000 6.537
87.54000 4.523
87.56000 8.090
87.58000 15.804
87.60000 12.385
87.62000 11.840
87.64000 11.867
87.66000 9.899
87.68000 4.852
87.70000 7.186
87.72000 12.316
87.74000 11.248
87.76000 14.531
87.78000 14.606
87.80000 9.939
87.82000 2.107
87.84000 3.888
87.86000 5.882
87.88000 8.050
87.90000 2.766
87.92000 5.929
87.94000 6.061
87.96000 11.193
87.98000 6.163
88.00000 5.751
88.02000 3.975
88.04000 3.005
88.06000 4.899
88.08000 9.478
88.10000 8.016
88.12000 8.646
88.14000 6.122
88.16000 8.725
88.18000 5.958
88.20000 4.890
88.22000 3.926
88.24000 9.112
88.26000 6.715
88.28000 1.391
88.30000 -2.353
88.32000 2.118
88.34000 9.307
88.36000 12.841
88.38000 13.568
88.40000 13.410
88.42000 9.191
88.44000 7.156
88.46000 0.057
88.48000 1.135
88.50000 4.545
88.52000 6.175
88.54000 11.003
88.56000 9.246
88.58000 9.939
88.60000 3.888
88.62000 1.052
88.64000 6.171
88.66000 7.760
88.68000 6.919
88.70000 7.906
88.72000 4.750
88.74000 0.549
88.76000 -1.137
88.78000 2.467
88.80000 0.332
88.82000 3.704
88.84000 6.358
88.86000 4.851
88.88000 5.610
88.90000 5.556
88.92000 6.459
88.94000 2.059
88.96000 2.706
88.98000 10.654
89.00000 7.877
89.02000 0.804
89.04000 1.659
89.06000 7.919
89.08000 7.704
89.10000 4.829
89.12000 2.168
89.14000 -1.470
89.16000 2.845
89.18000 3.138
89.20000 -1.700
89.22000 -1.715
89.24000 6.197
89.26000 8.865
89.28000 5.668
89.30000 0.156
89.32000 0.945
89.34000 2.658
89.36000 4.086
89.38000 2.177
89.40000 4.894
89.42000 8.379
89.44000 7.777
89.46000 0.415
89.48000 1.163
89.50000 1.439
89.52000 4.236
89.54000 6.773
89.56000 9.056
89.58000 5.710
89.60000 1.625
89.62000 4.065
89.64000 8.175
89.66000 7.891
89.68000 5.701
89.70000 4.119
89.72000 5.653
89.74000 5.363
89.76000 4.469
89.78000 4.798
89.80000 6.396
89.82000 3.795
89.84000 12.889
89.86000 8.353
89.88000 4.765
89.90000 5.399
89.92000 6.726
89.94000 10.072
89.96000 12.644
89.98000 10.626
90.00000 7.265
90.02000 8.238
90.04000 10.798
90.06000 8.444
90.08000 4.005
90.10000 -2.229
90.12000 1.995
90.14000 6.473
90.16000 0.081
90.18000 7.935
90.20000 8.480
90.22000 10.575
90.24000 11.120
90.26000 8.154
90.28000 7.864
90.30000 13.931
90.32000 10.221
90.34000 6.292
90.36000 6.872
90.38000 5.028
90.40000 4.435
90.42000 8.840
90.44000 7.708
90.46000 3.570
90.48000 3.754
90.50000 6.604
90.52000 2.184
90.54000 5.505
90.56000 3.922
90.58000 -2.134
90.60000 0.628
90.62000 4.481
90.64000 4.496
90.66000 7.013
90.68000 4.330
90.70000 3.356
90.72000 1.867
90.74000 7.569
90.76000 9.012
90.78000 8.421
90.80000 2.245
90.82000 1.864
90.84000 3.025
90.86000 6.645
90.88000 1.087
90.90000 2.633
90.92000 1.027
90.94000 1.808
90.96000 2.247
90.98000 6.383
91.00000 4.877
91.02000 4.253
91.04000 4.552
91.06000 4.455
91.08000 6.651
91.10000 8.796
91.12000 10.314
91.14000 9.175
91.16000 6.872
91.18000 4.206
91.20000 0.731
91.22000 -0.452
91.24000 -2.314
91.26000 1.913
91.28000 4.468
91.30000 4.535
91.32000 6.899
91.34000 9.795
91.36000 7.975
91.38000 3.830
91.40000 0.848
91.42000 0.770
91.44000 -1.575
91.46000 -0.258
91.48000 2.665
91.50000 5.093
91.52000 -0.257
91.54000 3.309
91.56000 5.017
91.58000 1.726
91.60000 1.066
91.62000 2.458
91.64000 0.705
91.66000 3.793
91.68000 3.715
91.70000 6.658
91.72000 4.389
91.74000 7.000
91.76000 8.761
91.78000 3.819
91.80000 7.928
91.82000 3.671
91.84000 3.549
91.86000 5.585
91.88000 5.956
91.90000 7.395
91.92000 6.150
91.94000 3.820
91.96000 4.343
91.98000 4.288
92.00000 0.760
92.02000 4.835
92.04000 7.912
92.06000 4.662
92.08000 1.563
92.10000 4.622
92.12000 6.512
92.14000 8.054
92.16000 5.948
92.18000 2.234
92.20000 -1.418
92.22000 0.687
92.24000 0.306
92.26000 3.417
92.28000 7.901
92.30000 -0.819
92.32000 -2.300
92.34000 -1.324
92.36000 3.370
92.38000 11.822
92.40000 5.860
92.42000 5.356
92.44000 8.625
92.46000 11.278
92.48000 5.024
92.50000 8.142
92.52000 3.668
92.54000 9.265
92.56000 11.060
92.58000 9.262
92.60000 4.622
92.62000 4.633
92.64000 5.750
92.66000 3.892
92.68000 0.962
92.70000 3.177
92.72000 7.670
92.74000 4.440
92.76000 1.531
92.78000 6.331
92.80000 3.491
92.82000 8.851
92.84000 12.263
92.86000 9.699
92.88000 7.394
92.90000 4.793
92.92000 7.096
92.94000 8.011
92.96000 5.174
92.98000 4.657
93.00000 2.753
93.02000 -0.171
93.04000 -2.037
93.06000 2.089
93.08000 -2.041
93.10000 -2.285
93.12000 -0.147
93.14000 2.952
93.16000 0.500
93.18000 4.367
93.20000 6.536
93.22000 6.789
93.24000 2.971
93.26000 3.073
93.28000 4.182
93.30000 6.031
93.32000 -2.284
93.34000 2.727
93.36000 5.523
93.38000 7.105
93.40000 11.199
93.42000 7.745
93.44000 4.589
93.46000 6.019
93.48000 7.127
93.50000 2.275
93.52000 0.440
93.54000 0.437
93.56000 7.064
93.58000 7.707
93.60000 4.102
93.62000 6.449
93.64000 5.596
93.66000 7.361
93.68000 9.327
93.70000 8.861
93.72000 6.515
93.74000 -0.083
93.76000 2.220
93.78000 6.511
93.80000 7.865
93.82000 5.632
93.84000 5.028
93.86000 5.696
93.88000 5.814
93.90000 2.102
93.92000 2.755
93.94000 1.860
93.96000 8.731
93.98000 2.524
94.00000 2.136
94.02000 -0.519
94.04000 -2.317
94.06000 -0.466
94.08000 2.571
94.10000 3.249
94.12000 2.197
94.14000 5.045
94.16000 8.094
94.18000 7.639
94.20000 9.718
94.22000 6.148
94.24000 5.253
94.26000 6.671
94.28000 4.601
94.30000 3.502
94.32000 3.982
94.34000 3.748
94.36000 6.489
94.38000 -0.608
94.40000 -0.824
94.42000 2.588
94.44000 6.324
94.46000 5.023
94.48000 7.090
94.50000 4.537
94.52000 4.830
94.54000 12.230
94.56000 8.518
94.58000 6.405
94.60000 6.822
94.62000 6.073
94.64000 6.956
94.66000 10.860
94.68000 8.502
94.70000 4.222
94.72000 1.678
94.74000 4.681
94.76000 10.522
94.78000 7.524
94.80000 4.910
94.82000 3.231
94.84000 6.431
94.86000 6.993
94.88000 5.253
94.90000 3.065
94.92000 3.891
94.94000 6.929
94.96000 6.382
94.98000 14.133
95.00000 11.216
95.02000 5.330
95.04000 4.603
95.06000 0.733
95.08000 4.856
95.10000 -0.650
95.12000 2.445
95.14000 6.383
95.16000 5.610
95.18000 4.292
95.20000 1.121
95.22000 1.987
95.24000 7.205
95.26000 11.762
95.28000 10.576
95.30000 4.915
95.32000 5.937
95.34000 8.367
95.36000 5.459
95.38000 3.945
95.40000 2.368
95.42000 3.544
95.44000 -2.327
95.46000 1.060
95.48000 1.981
95.50000 2.926
95.52000 5.288
95.54000 3.287
95.56000 5.619
95.58000 4.650
95.60000 4.849
95.62000 -1.429
95.64000 3.013
95.66000 4.900
95.68000 3.466
95.70000 0.367
95.72000 -1.619
95.74000 -1.987
95.76000 -2.333
95.78000 0.908
95.80000 5.239
95.82000 2.295
95.84000 5.461
95.86000 0.315
95.88000 0.055
95.90000 2.708
95.92000 6.825
95.94000 6.590
95.96000 9.644
95.98000 7.240
96.00000 -2.334
96.02000 -1.599
96.04000 -1.646
96.06000 5.550
96.08000 12.195
96.10000 11.620
96.12000 3.884
96.14000 1.836
96.16000 4.356
96.18000 4.964
96.20000 5.228
96.22000 5.017
96.24000 9.284
96.26000 3.465
96.28000 2.215
96.30000 10.407
96.32000 4.504
96.34000 4.934
96.36000 11.166
96.38000 1.373
96.40000 8.023
96.42000 6.616
96.44000 6.924
96.46000 8.060
96.48000 6.386
96.50000 13.179
96.52000 8.906
96.54000 5.476
96.56000 -0.990
96.58000 2.541
96.60000 2.851
96.62000 0.792
96.64000 0.034
96.66000 2.471
96.68000 6.211
96.70000 7.968
96.72000 6.397
96.74000 7.136
96.76000 5.102
96.78000 0.456
96.80000 0.866
96.82000 -0.099
96.84000 4.887
96.86000 3.390
96.88000 2.456
96.90000 2.157
96.92000 7.754
96.94000 5.900
96.96000 3.983
96.98000 8.834
97.00000 4.990
97.02000 8.162
97.04000 7.124
97.06000 8.659
97.08000 3.514
97.10000 9.252
97.12000 6.015
97.14000 8.185
97.16000 9.606
97.18000 9.506
97.20000 5.332
97.22000 1.590
97.24000 7.928
97.26000 12.386
97.28000 1.260
97.30000 6.231
97.32000 10.383
97.34000 8.301
97.36000 0.751
97.38000 7.389
97.40000 11.321
97.42000 6.664
97.44000 4.653
97.46000 1.885
97.48000 6.681
97.50000 11.157
97.52000 4.218
97.54000 8.148
97.56000 9.818
97.58000 11.325
97.60000 6.651
97.62000 4.642
97.64000 4.310
97.66000 6.753
97.68000 8.731
97.70000 7.191
97.72000 5.047
97.74000 8.351
97.76000 5.074
97.78000 3.208
97.80000 5.846
97.82000 5.239
97.84000 14.067
97.86000 16.668
97.88000 13.801
97.90000 12.670
97.92000 9.930
97.94000 10.814
97.96000 10.803
97.98000 2.509
98.00000 4.240
98.02000 9.280
98.04000 10.425
98.06000 9.773
98.08000 5.094
98.10000 -4.312
98.12000 6.403
98.14000 11.736
98.16000 7.878
98.18000 9.339
98.20000 10.268
98.22000 5.836
98.24000 8.954
98.26000 1.899
98.28000 5.873
98.30000 7.315
98.32000 14.784
98.34000 16.304
98.36000 11.354
98.38000 5.720
98.40000 11.232
98.42000 8.762
98.44000 9.005
98.46000 11.698
98.48000 11.212
98.50000 11.763
98.52000 15.992
98.54000 12.103
98.56000 11.619
98.58000 5.260
98.60000 -2.165
98.62000 3.393
98.64000 6.566
98.66000 11.750
98.68000 13.309
98.70000 9.319
98.72000 12.860
98.74000 10.871
98.76000 20.800
98.78000 23.110
98.80000 10.085
98.82000 17.799
98.84000 13.943
98.86000 7.707
98.88000 8.017
98.90000 20.827
98.92000 18.247
98.94000 10.118
98.96000 10.949
98.98000 8.016
99.00000 6.835
99.02000 8.958
99.04000 12.740
99.06000 17.413
99.08000 3.754
99.10000 5.916
99.12000 12.517
99.14000 10.329
99.16000 8.938
99.18000 9.514
99.20000 3.488
99.22000 13.979
99.24000 15.545
99.26000 8.261
99.28000 4.180
99.30000 11.416
99.32000 11.776
99.34000 16.161
99.36000 19.436
99.38000 18.998
99.40000 10.987
99.42000 13.782
99.44000 7.005
99.46000 11.344
99.48000 20.788
99.50000 16.164
99.52000 6.769
99.54000 12.357
99.56000 18.413
99.58000 16.747
99.60000 11.705
99.62000 0.204
99.64000 10.024
99.66000 12.797
99.68000 3.101
99.70000 -4.668
99.72000 7.172
99.74000 10.718
99.76000 9.598
99.78000 15.961
99.80000 6.420
99.82000 14.104
99.84000 9.760
99.86000 -0.370
99.88000 11.107
99.90000 12.499
99.92000 4.648
99.94000 2.644
99.96000 7.477
99.98000 0.000
