'Id: "0011389" Comment: "Integrate frame 0011389_Au-Ir-Rh_Au-Rich_XRD_Mapping-328-0000.gfrmwith cursor Wedge Cursor #5" Operator: "B?rgel" Anode: "Cu" Wavelength: "1.5406" Scantype: "2Theta (TwoTheta)" TimePerStep: "1" X: "-4.5" Y: "40.5" Z: "5.95" 
10.00000 0.000
10.02000 -4.551
10.04000 -4.456
10.06000 -4.396
10.08000 -4.321
10.10000 5.859
10.12000 18.145
10.14000 7.318
10.16000 33.435
10.18000 24.043
10.20000 17.001
10.22000 23.410
10.24000 15.022
10.26000 20.568
10.28000 27.654
10.30000 25.242
10.32000 27.882
10.34000 19.093
10.36000 14.999
10.38000 29.385
10.40000 29.367
10.42000 31.121
10.44000 25.161
10.46000 16.523
10.48000 13.359
10.50000 16.125
10.52000 9.409
10.54000 2.148
10.56000 9.438
10.58000 13.452
10.60000 17.963
10.62000 17.158
10.64000 5.740
10.66000 5.871
10.68000 12.048
10.70000 17.379
10.72000 6.417
10.74000 16.273
10.76000 18.948
10.78000 14.559
10.80000 23.823
10.82000 13.311
10.84000 18.345
10.86000 19.108
10.88000 16.745
10.90000 10.318
10.92000 32.678
10.94000 19.879
10.96000 10.224
10.98000 0.263
11.00000 -4.447
11.02000 4.057
11.04000 7.057
11.06000 31.090
11.08000 35.450
11.10000 24.228
11.12000 4.364
11.14000 9.416
11.16000 20.505
11.18000 17.288
11.20000 19.297
11.22000 24.688
11.24000 20.252
11.26000 19.842
11.28000 24.365
11.30000 19.939
11.32000 20.411
11.34000 17.523
11.36000 22.917
11.38000 13.663
11.40000 27.186
11.42000 22.843
11.44000 18.096
11.46000 17.737
11.48000 11.177
11.50000 4.746
11.52000 4.219
11.54000 -2.651
11.56000 3.714
11.58000 8.040
11.60000 7.364
11.62000 2.086
11.64000 -1.083
11.66000 2.440
11.68000 10.631
11.70000 21.699
11.72000 12.884
11.74000 11.600
11.76000 19.902
11.78000 17.149
11.80000 14.161
11.82000 17.129
11.84000 16.385
11.86000 13.914
11.88000 3.694
11.90000 5.579
11.92000 17.929
11.94000 29.300
11.96000 15.340
11.98000 10.580
12.00000 5.986
12.02000 6.325
12.04000 3.188
12.06000 21.803
12.08000 10.196
12.10000 15.485
12.12000 13.609
12.14000 5.490
12.16000 5.714
12.18000 7.800
12.20000 2.012
12.22000 9.868
12.24000 7.408
12.26000 5.959
12.28000 7.117
12.30000 16.083
12.32000 11.392
12.34000 11.004
12.36000 12.644
12.38000 22.578
12.40000 30.512
12.42000 13.760
12.44000 19.063
12.46000 14.527
12.48000 6.683
12.50000 21.260
12.52000 12.324
12.54000 21.476
12.56000 25.988
12.58000 20.390
12.60000 13.462
12.62000 5.642
12.64000 10.822
12.66000 14.959
12.68000 16.767
12.70000 16.317
12.72000 10.752
12.74000 12.548
12.76000 24.432
12.78000 18.089
12.80000 8.434
12.82000 9.192
12.84000 10.128
12.86000 14.573
12.88000 11.411
12.90000 7.105
12.92000 7.194
12.94000 10.710
12.96000 9.650
12.98000 14.732
13.00000 19.868
13.02000 15.649
13.04000 24.777
13.06000 11.449
13.08000 -0.481
13.10000 -3.089
13.12000 0.426
13.14000 11.543
13.16000 5.912
13.18000 7.752
13.20000 21.753
13.22000 20.977
13.24000 25.177
13.26000 23.611
13.28000 9.619
13.30000 12.400
13.32000 23.209
13.34000 17.821
13.36000 14.990
13.38000 16.711
13.40000 14.022
13.42000 11.795
13.44000 10.464
13.46000 1.639
13.48000 6.651
13.50000 14.573
13.52000 5.905
13.54000 0.821
13.56000 1.860
13.58000 -0.787
13.60000 -3.861
13.62000 3.300
13.64000 10.144
13.66000 -1.320
13.68000 2.716
13.70000 10.638
13.72000 15.180
13.74000 18.878
13.76000 18.494
13.78000 13.189
13.80000 3.858
13.82000 4.376
13.84000 9.597
13.86000 5.650
13.88000 6.769
13.90000 13.424
13.92000 17.804
13.94000 14.742
13.96000 5.368
13.98000 7.847
14.00000 7.279
14.02000 5.068
14.04000 2.298
14.06000 5.884
14.08000 0.006
14.10000 8.801
14.12000 3.656
14.14000 -0.986
14.16000 0.535
14.18000 5.105
14.20000 8.587
14.22000 1.594
14.24000 1.610
14.26000 6.381
14.28000 11.561
14.30000 3.327
14.32000 1.066
14.34000 11.379
14.36000 17.851
14.38000 11.489
14.40000 9.410
14.42000 4.159
14.44000 6.351
14.46000 5.461
14.48000 12.860
14.50000 19.225
14.52000 18.435
14.54000 10.946
14.56000 5.248
14.58000 6.478
14.60000 9.682
14.62000 -4.521
14.64000 -0.370
14.66000 5.627
14.68000 6.033
14.70000 10.753
14.72000 14.416
14.74000 4.878
14.76000 2.805
14.78000 6.698
14.80000 7.838
14.82000 7.851
14.84000 6.808
14.86000 18.830
14.88000 16.704
14.90000 14.522
14.92000 18.321
14.94000 2.505
14.96000 7.317
14.98000 13.224
15.00000 10.652
15.02000 10.203
15.04000 -1.831
15.06000 2.702
15.08000 5.653
15.10000 6.839
15.12000 13.788
15.14000 6.928
15.16000 10.149
15.18000 9.448
15.20000 16.411
15.22000 15.941
15.24000 13.120
15.26000 12.732
15.28000 10.236
15.30000 5.583
15.32000 1.543
15.34000 10.226
15.36000 15.054
15.38000 10.900
15.40000 -2.494
15.42000 6.778
15.44000 10.571
15.46000 7.653
15.48000 10.114
15.50000 12.869
15.52000 16.765
15.54000 18.366
15.56000 12.450
15.58000 8.724
15.60000 4.638
15.62000 7.129
15.64000 5.708
15.66000 3.372
15.68000 14.337
15.70000 16.091
15.72000 6.453
15.74000 6.669
15.76000 6.204
15.78000 0.955
15.80000 4.092
15.82000 5.335
15.84000 5.299
15.86000 14.217
15.88000 13.115
15.90000 13.301
15.92000 10.989
15.94000 0.571
15.96000 5.433
15.98000 7.415
16.00000 3.225
16.02000 -0.040
16.04000 5.065
16.06000 8.060
16.08000 7.071
16.10000 7.339
16.12000 14.537
16.14000 7.810
16.16000 2.674
16.18000 3.206
16.20000 6.177
16.22000 4.702
16.24000 7.792
16.26000 5.269
16.28000 8.291
16.30000 8.205
16.32000 11.863
16.34000 10.060
16.36000 12.586
16.38000 11.249
16.40000 6.596
16.42000 2.552
16.44000 1.838
16.46000 3.934
16.48000 -4.433
16.50000 -0.374
16.52000 5.507
16.54000 4.086
16.56000 9.041
16.58000 11.322
16.60000 4.546
16.62000 7.851
16.64000 8.363
16.66000 7.903
16.68000 9.410
16.70000 7.397
16.72000 3.813
16.74000 12.779
16.76000 4.697
16.78000 1.581
16.80000 0.114
16.82000 0.308
16.84000 7.595
16.86000 8.292
16.88000 15.770
16.90000 11.517
16.92000 11.771
16.94000 7.254
16.96000 9.721
16.98000 10.585
17.00000 1.883
17.02000 6.279
17.04000 11.346
17.06000 8.648
17.08000 8.951
17.10000 1.885
17.12000 4.766
17.14000 8.893
17.16000 6.945
17.18000 7.832
17.20000 6.639
17.22000 7.886
17.24000 14.021
17.26000 8.332
17.28000 7.109
17.30000 2.445
17.32000 1.250
17.34000 2.977
17.36000 6.230
17.38000 10.383
17.40000 5.386
17.42000 -1.753
17.44000 1.299
17.46000 2.346
17.48000 3.438
17.50000 8.062
17.52000 10.519
17.54000 10.721
17.56000 7.770
17.58000 8.242
17.60000 9.879
17.62000 5.376
17.64000 2.702
17.66000 7.874
17.68000 9.372
17.70000 2.332
17.72000 1.680
17.74000 8.916
17.76000 11.473
17.78000 11.205
17.80000 13.393
17.82000 6.427
17.84000 -3.033
17.86000 4.671
17.88000 9.241
17.90000 7.093
17.92000 5.392
17.94000 2.338
17.96000 8.651
17.98000 20.817
18.00000 21.122
18.02000 12.300
18.04000 9.798
18.06000 5.158
18.08000 5.270
18.10000 10.733
18.12000 9.199
18.14000 6.354
18.16000 4.503
18.18000 6.817
18.20000 13.610
18.22000 11.981
18.24000 6.744
18.26000 8.574
18.28000 2.720
18.30000 6.258
18.32000 7.525
18.34000 3.418
18.36000 6.086
18.38000 0.230
18.40000 0.009
18.42000 9.982
18.44000 5.931
18.46000 7.577
18.48000 4.313
18.50000 0.129
18.52000 -4.084
18.54000 -0.866
18.56000 3.846
18.58000 6.137
18.60000 3.894
18.62000 3.668
18.64000 6.503
18.66000 9.598
18.68000 9.328
18.70000 5.459
18.72000 8.040
18.74000 11.808
18.76000 9.982
18.78000 4.977
18.80000 6.651
18.82000 11.087
18.84000 6.503
18.86000 6.518
18.88000 -0.717
18.90000 -3.198
18.92000 9.034
18.94000 10.465
18.96000 5.646
18.98000 0.955
19.00000 -1.501
19.02000 -2.936
19.04000 1.922
19.06000 8.515
19.08000 8.495
19.10000 10.900
19.12000 5.719
19.14000 2.537
19.16000 6.794
19.18000 9.537
19.20000 11.896
19.22000 8.208
19.24000 1.700
19.26000 5.826
19.28000 10.156
19.30000 9.687
19.32000 7.480
19.34000 -4.272
19.36000 -1.853
19.38000 -1.139
19.40000 -1.250
19.42000 8.638
19.44000 3.097
19.46000 2.175
19.48000 8.791
19.50000 10.640
19.52000 1.099
19.54000 0.828
19.56000 2.249
19.58000 -2.414
19.60000 2.168
19.62000 9.702
19.64000 9.844
19.66000 7.323
19.68000 11.714
19.70000 11.743
19.72000 10.456
19.74000 10.617
19.76000 8.784
19.78000 0.740
19.80000 1.690
19.82000 1.421
19.84000 2.553
19.86000 3.588
19.88000 4.923
19.90000 -0.357
19.92000 4.624
19.94000 4.016
19.96000 1.033
19.98000 5.646
20.00000 16.739
20.02000 12.206
20.04000 9.430
20.06000 3.828
20.08000 5.461
20.10000 2.162
20.12000 2.442
20.14000 10.192
20.16000 9.291
20.18000 8.499
20.20000 5.569
20.22000 11.975
20.24000 11.886
20.26000 5.928
20.28000 6.431
20.30000 8.261
20.32000 6.309
20.34000 1.166
20.36000 8.168
20.38000 12.439
20.40000 12.454
20.42000 -2.261
20.44000 -0.019
20.46000 -4.208
20.48000 -0.530
20.50000 7.171
20.52000 8.912
20.54000 2.951
20.56000 5.941
20.58000 8.332
20.60000 8.020
20.62000 10.573
20.64000 3.560
20.66000 7.020
20.68000 11.772
20.70000 8.114
20.72000 5.747
20.74000 12.526
20.76000 10.677
20.78000 13.184
20.80000 8.921
20.82000 10.123
20.84000 7.610
20.86000 9.672
20.88000 9.901
20.90000 9.615
20.92000 4.899
20.94000 7.436
20.96000 1.977
20.98000 3.443
21.00000 8.262
21.02000 8.424
21.04000 9.109
21.06000 4.699
21.08000 -0.344
21.10000 3.400
21.12000 1.836
21.14000 -0.015
21.16000 6.424
21.18000 10.965
21.20000 6.716
21.22000 3.704
21.24000 9.525
21.26000 11.543
21.28000 10.519
21.30000 11.806
21.32000 12.879
21.34000 12.336
21.36000 5.109
21.38000 4.132
21.40000 3.046
21.42000 -0.547
21.44000 5.323
21.46000 4.227
21.48000 1.282
21.50000 0.850
21.52000 4.203
21.54000 6.921
21.56000 7.843
21.58000 1.819
21.60000 -2.923
21.62000 -2.091
21.64000 -0.413
21.66000 4.368
21.68000 6.574
21.70000 10.707
21.72000 11.945
21.74000 5.016
21.76000 5.790
21.78000 6.711
21.80000 0.614
21.82000 4.025
21.84000 11.900
21.86000 16.192
21.88000 14.631
21.90000 7.319
21.92000 2.230
21.94000 -0.854
21.96000 7.679
21.98000 8.525
22.00000 5.476
22.02000 4.717
22.04000 4.828
22.06000 3.624
22.08000 5.540
22.10000 7.666
22.12000 2.707
22.14000 6.491
22.16000 9.731
22.18000 5.573
22.20000 7.005
22.22000 5.410
22.24000 4.291
22.26000 8.094
22.28000 9.726
22.30000 12.551
22.32000 13.321
22.34000 8.284
22.36000 -4.079
22.38000 6.540
22.40000 15.780
22.42000 12.659
22.44000 3.612
22.46000 2.272
22.48000 6.007
22.50000 7.613
22.52000 5.029
22.54000 8.387
22.56000 3.835
22.58000 2.510
22.60000 0.649
22.62000 6.010
22.64000 13.071
22.66000 10.539
22.68000 5.520
22.70000 10.271
22.72000 8.200
22.74000 12.886
22.76000 12.434
22.78000 8.752
22.80000 7.030
22.82000 7.230
22.84000 9.246
22.86000 5.528
22.88000 6.270
22.90000 3.659
22.92000 2.443
22.94000 6.739
22.96000 4.104
22.98000 4.963
23.00000 -1.084
23.02000 -1.939
23.04000 2.013
23.06000 5.645
23.08000 4.501
23.10000 5.035
23.12000 4.627
23.14000 6.568
23.16000 7.042
23.18000 10.785
23.20000 4.116
23.22000 3.590
23.24000 4.648
23.26000 4.807
23.28000 6.699
23.30000 5.017
23.32000 1.472
23.34000 2.527
23.36000 3.563
23.38000 2.213
23.40000 5.694
23.42000 -0.066
23.44000 2.077
23.46000 4.964
23.48000 9.693
23.50000 6.482
23.52000 7.745
23.54000 7.125
23.56000 6.468
23.58000 7.780
23.60000 2.292
23.62000 -1.963
23.64000 -0.788
23.66000 5.507
23.68000 7.066
23.70000 5.133
23.72000 6.883
23.74000 5.534
23.76000 8.006
23.78000 8.529
23.80000 5.300
23.82000 2.430
23.84000 3.452
23.86000 1.901
23.88000 -1.437
23.90000 6.104
23.92000 12.975
23.94000 6.092
23.96000 2.857
23.98000 5.537
24.00000 5.930
24.02000 -2.499
24.04000 3.316
24.06000 5.795
24.08000 5.121
24.10000 3.315
24.12000 3.224
24.14000 2.634
24.16000 2.924
24.18000 2.339
24.20000 5.957
24.22000 3.482
24.24000 2.532
24.26000 0.716
24.28000 -1.320
24.30000 4.964
24.32000 8.780
24.34000 7.617
24.36000 6.446
24.38000 7.094
24.40000 3.617
24.42000 2.739
24.44000 4.538
24.46000 4.658
24.48000 2.191
24.50000 0.343
24.52000 -3.811
24.54000 4.785
24.56000 5.207
24.58000 1.312
24.60000 1.376
24.62000 3.575
24.64000 2.891
24.66000 0.293
24.68000 -0.562
24.70000 2.121
24.72000 -3.997
24.74000 1.233
24.76000 5.190
24.78000 3.745
24.80000 2.522
24.82000 1.395
24.84000 3.076
24.86000 1.797
24.88000 2.444
24.90000 4.475
24.92000 2.116
24.94000 3.937
24.96000 3.666
24.98000 -3.253
25.00000 -3.986
25.02000 0.851
25.04000 1.238
25.06000 0.397
25.08000 -2.223
25.10000 5.296
25.12000 -1.918
25.14000 -3.349
25.16000 1.473
25.18000 7.319
25.20000 3.133
25.22000 -0.386
25.24000 0.726
25.26000 4.959
25.28000 2.651
25.30000 2.348
25.32000 -1.642
25.34000 -3.295
25.36000 -0.926
25.38000 7.326
25.40000 8.760
25.42000 8.558
25.44000 6.883
25.46000 1.760
25.48000 4.244
25.50000 4.196
25.52000 4.752
25.54000 0.623
25.56000 0.425
25.58000 0.239
25.60000 1.197
25.62000 -0.304
25.64000 1.738
25.66000 2.660
25.68000 1.330
25.70000 -0.761
25.72000 -0.502
25.74000 -1.478
25.76000 2.550
25.78000 9.221
25.80000 4.295
25.82000 2.725
25.84000 4.357
25.86000 0.765
25.88000 7.462
25.90000 7.488
25.92000 0.328
25.94000 -3.811
25.96000 -0.329
25.98000 3.045
26.00000 1.054
26.02000 -2.808
26.04000 -1.088
26.06000 -3.633
26.08000 -2.319
26.10000 5.620
26.12000 5.803
26.14000 4.959
26.16000 1.254
26.18000 -0.269
26.20000 -1.048
26.22000 1.735
26.24000 6.460
26.26000 5.268
26.28000 -0.882
26.30000 1.444
26.32000 -0.221
26.34000 -0.397
26.36000 0.896
26.38000 2.131
26.40000 0.822
26.42000 1.740
26.44000 4.352
26.46000 -0.086
26.48000 1.118
26.50000 -1.787
26.52000 1.140
26.54000 3.117
26.56000 2.433
26.58000 2.439
26.60000 -1.026
26.62000 -1.750
26.64000 -3.928
26.66000 -1.684
26.68000 1.117
26.70000 5.989
26.72000 0.944
26.74000 1.800
26.76000 1.317
26.78000 1.387
26.80000 2.919
26.82000 8.344
26.84000 4.908
26.86000 2.024
26.88000 0.218
26.90000 -0.257
26.92000 0.591
26.94000 1.992
26.96000 5.608
26.98000 6.004
27.00000 2.359
27.02000 -3.914
27.04000 -1.981
27.06000 2.848
27.08000 0.942
27.10000 1.385
27.12000 0.684
27.14000 -0.334
27.16000 -3.620
27.18000 -1.946
27.20000 1.169
27.22000 -3.347
27.24000 -0.541
27.26000 -0.900
27.28000 -2.864
27.30000 -0.681
27.32000 1.805
27.34000 -0.884
27.36000 -3.900
27.38000 2.883
27.40000 4.112
27.42000 3.156
27.44000 1.304
27.46000 -0.882
27.48000 3.727
27.50000 7.027
27.52000 4.103
27.54000 1.404
27.56000 1.468
27.58000 2.070
27.60000 0.090
27.62000 -2.038
27.64000 0.832
27.66000 1.216
27.68000 0.543
27.70000 -1.078
27.72000 -2.892
27.74000 2.357
27.76000 5.692
27.78000 3.401
27.80000 2.691
27.82000 5.173
27.84000 2.405
27.86000 3.495
27.88000 0.637
27.90000 -0.055
27.92000 -3.151
27.94000 -1.656
27.96000 -0.560
27.98000 0.290
28.00000 2.435
28.02000 1.474
28.04000 -3.317
28.06000 1.633
28.08000 -3.856
28.10000 5.057
28.12000 3.315
28.14000 -1.806
28.16000 -0.786
28.18000 -2.347
28.20000 -3.849
28.22000 -0.345
28.24000 7.764
28.26000 9.289
28.28000 4.419
28.30000 2.505
28.32000 0.482
28.34000 -2.692
28.36000 -2.977
28.38000 0.291
28.40000 2.226
28.42000 5.511
28.44000 3.049
28.46000 -1.731
28.48000 -3.834
28.50000 -3.458
28.52000 -1.459
28.54000 5.909
28.56000 1.840
28.58000 0.471
28.60000 1.213
28.62000 -0.055
28.64000 1.071
28.66000 2.940
28.68000 0.969
28.70000 -2.531
28.72000 1.526
28.74000 0.821
28.76000 0.936
28.78000 -0.949
28.80000 -1.736
28.82000 3.224
28.84000 -0.997
28.86000 -1.751
28.88000 3.494
28.90000 5.183
28.92000 6.953
28.94000 4.526
28.96000 -1.798
28.98000 -1.407
29.00000 0.649
29.02000 -2.615
29.04000 0.671
29.06000 3.380
29.08000 4.780
29.10000 1.162
29.12000 1.454
29.14000 5.490
29.16000 6.497
29.18000 2.507
29.20000 1.991
29.22000 2.062
29.24000 -1.279
29.26000 -3.602
29.28000 2.528
29.30000 6.457
29.32000 0.297
29.34000 1.447
29.36000 3.797
29.38000 0.375
29.40000 -0.162
29.42000 1.570
29.44000 -3.768
29.46000 0.348
29.48000 3.359
29.50000 5.837
29.52000 4.139
29.54000 1.344
29.56000 3.883
29.58000 4.459
29.60000 1.198
29.62000 4.257
29.64000 4.343
29.66000 5.164
29.68000 7.008
29.70000 8.352
29.72000 2.497
29.74000 -3.149
29.76000 3.326
29.78000 2.906
29.80000 0.466
29.82000 4.844
29.84000 4.709
29.86000 -0.054
29.88000 1.373
29.90000 3.422
29.92000 2.489
29.94000 3.884
29.96000 6.597
29.98000 3.784
30.00000 0.229
30.02000 5.366
30.04000 3.449
30.06000 3.519
30.08000 6.709
30.10000 9.643
30.12000 1.389
30.14000 -1.527
30.16000 2.969
30.18000 2.605
30.20000 1.556
30.22000 3.409
30.24000 1.140
30.26000 -0.668
30.28000 -2.095
30.30000 2.403
30.32000 -2.041
30.34000 2.000
30.36000 1.208
30.38000 -1.683
30.40000 -3.735
30.42000 -1.157
30.44000 2.258
30.46000 7.185
30.48000 2.455
30.50000 1.145
30.52000 -2.542
30.54000 -0.607
30.56000 1.191
30.58000 3.350
30.60000 -1.281
30.62000 5.157
30.64000 4.702
30.66000 4.303
30.68000 4.951
30.70000 6.060
30.72000 3.463
30.74000 1.323
30.76000 -0.384
30.78000 4.439
30.80000 2.424
30.82000 2.341
30.84000 0.659
30.86000 -1.057
30.88000 1.569
30.90000 0.845
30.92000 0.305
30.94000 0.340
30.96000 3.597
30.98000 1.347
31.00000 -0.432
31.02000 2.776
31.04000 2.786
31.06000 3.191
31.08000 -0.176
31.10000 -0.082
31.12000 -1.791
31.14000 -1.165
31.16000 0.584
31.18000 1.862
31.20000 4.833
31.22000 0.385
31.24000 0.536
31.26000 -2.635
31.28000 0.997
31.30000 -0.308
31.32000 -3.713
31.34000 -0.462
31.36000 1.373
31.38000 -3.381
31.40000 -2.783
31.42000 0.433
31.44000 1.951
31.46000 -2.264
31.48000 2.058
31.50000 3.287
31.52000 -1.573
31.54000 -3.293
31.56000 0.852
31.58000 2.161
31.60000 1.739
31.62000 2.985
31.64000 5.499
31.66000 1.429
31.68000 0.804
31.70000 -1.704
31.72000 1.875
31.74000 -1.442
31.76000 1.680
31.78000 2.747
31.80000 2.123
31.82000 -2.838
31.84000 -0.067
31.86000 1.382
31.88000 0.220
31.90000 4.910
31.92000 6.021
31.94000 2.392
31.96000 -0.067
31.98000 3.392
32.00000 5.212
32.02000 -2.048
32.04000 -0.111
32.06000 3.858
32.08000 3.446
32.10000 0.593
32.12000 -2.946
32.14000 -3.680
32.16000 2.328
32.18000 1.912
32.20000 0.433
32.22000 4.574
32.24000 10.322
32.26000 5.183
32.28000 -0.803
32.30000 -0.695
32.32000 1.084
32.34000 0.284
32.36000 2.317
32.38000 5.821
32.40000 6.044
32.42000 2.675
32.44000 1.739
32.46000 3.518
32.48000 3.573
32.50000 6.382
32.52000 1.955
32.54000 -0.735
32.56000 4.118
32.58000 2.185
32.60000 2.428
32.62000 3.140
32.64000 11.291
32.66000 1.921
32.68000 0.509
32.70000 4.497
32.72000 3.984
32.74000 5.606
32.76000 3.853
32.78000 7.065
32.80000 -0.302
32.82000 -2.426
32.84000 -0.342
32.86000 3.076
32.88000 1.788
32.90000 3.058
32.92000 4.306
32.94000 8.274
32.96000 2.699
32.98000 0.244
33.00000 5.236
33.02000 7.613
33.04000 4.950
33.06000 1.681
33.08000 6.962
33.10000 7.992
33.12000 -0.589
33.14000 -3.622
33.16000 -1.305
33.18000 -2.608
33.20000 0.124
33.22000 9.126
33.24000 10.459
33.26000 5.881
33.28000 7.330
33.30000 4.123
33.32000 4.345
33.34000 11.567
33.36000 11.189
33.38000 10.324
33.40000 3.641
33.42000 -1.190
33.44000 4.047
33.46000 7.948
33.48000 7.733
33.50000 7.659
33.52000 5.183
33.54000 6.467
33.56000 1.389
33.58000 2.905
33.60000 7.232
33.62000 2.416
33.64000 0.738
33.66000 3.383
33.68000 0.321
33.70000 4.063
33.72000 4.045
33.74000 4.754
33.76000 6.608
33.78000 4.012
33.80000 7.070
33.82000 5.836
33.84000 2.825
33.86000 1.608
33.88000 2.685
33.90000 2.728
33.92000 -0.553
33.94000 5.694
33.96000 5.155
33.98000 -1.478
34.00000 -1.386
34.02000 3.702
34.04000 2.351
34.06000 5.224
34.08000 4.346
34.10000 3.774
34.12000 3.529
34.14000 0.500
34.16000 -0.671
34.18000 -1.015
34.20000 0.571
34.22000 4.697
34.24000 2.261
34.26000 4.581
34.28000 1.301
34.30000 -2.515
34.32000 -0.770
34.34000 3.852
34.36000 3.852
34.38000 1.071
34.40000 -3.641
34.42000 -2.563
34.44000 0.253
34.46000 4.612
34.48000 2.766
34.50000 2.059
34.52000 5.310
34.54000 9.846
34.56000 1.300
34.58000 0.844
34.60000 0.525
34.62000 2.409
34.64000 5.606
34.66000 3.434
34.68000 1.306
34.70000 5.996
34.72000 3.979
34.74000 4.727
34.76000 4.956
34.78000 6.131
34.80000 6.699
34.82000 3.258
34.84000 6.992
34.86000 2.485
34.88000 9.194
34.90000 8.907
34.92000 5.785
34.94000 2.302
34.96000 2.943
34.98000 -0.994
35.00000 3.842
35.02000 5.099
35.04000 3.915
35.06000 -0.227
35.08000 -1.005
35.10000 0.166
35.12000 0.103
35.14000 -0.045
35.16000 1.804
35.18000 -0.329
35.20000 -1.608
35.22000 1.227
35.24000 -1.149
35.26000 -1.694
35.28000 7.442
35.30000 8.322
35.32000 1.353
35.34000 0.644
35.36000 5.557
35.38000 3.613
35.40000 -1.585
35.42000 -3.624
35.44000 -2.469
35.46000 3.196
35.48000 1.128
35.50000 1.475
35.52000 2.959
35.54000 3.538
35.56000 1.541
35.58000 4.184
35.60000 -0.863
35.62000 -2.151
35.64000 -2.403
35.66000 1.859
35.68000 -1.168
35.70000 0.592
35.72000 8.278
35.74000 7.965
35.76000 -0.885
35.78000 -1.553
35.80000 -3.115
35.82000 0.023
35.84000 6.254
35.86000 3.958
35.88000 2.310
35.90000 3.687
35.92000 0.427
35.94000 2.845
35.96000 0.080
35.98000 3.864
36.00000 1.523
36.02000 -1.572
36.04000 -0.829
36.06000 -0.947
36.08000 3.490
36.10000 8.834
36.12000 6.598
36.14000 -1.620
36.16000 -0.165
36.18000 5.441
36.20000 1.151
36.22000 2.002
36.24000 2.236
36.26000 3.042
36.28000 6.193
36.30000 7.615
36.32000 3.481
36.34000 2.444
36.36000 3.344
36.38000 -0.252
36.40000 1.832
36.42000 0.550
36.44000 3.117
36.46000 3.141
36.48000 7.583
36.50000 5.226
36.52000 6.516
36.54000 12.118
36.56000 8.138
36.58000 4.006
36.60000 5.789
36.62000 9.484
36.64000 4.528
36.66000 5.231
36.68000 6.033
36.70000 9.714
36.72000 5.981
36.74000 3.943
36.76000 11.397
36.78000 7.764
36.80000 6.087
36.82000 6.816
36.84000 6.878
36.86000 5.170
36.88000 4.073
36.90000 10.120
36.92000 9.067
36.94000 7.525
36.96000 11.190
36.98000 10.393
37.00000 9.851
37.02000 11.027
37.04000 7.213
37.06000 9.820
37.08000 13.577
37.10000 16.465
37.12000 11.817
37.14000 15.748
37.16000 15.056
37.18000 12.303
37.20000 17.471
37.22000 20.317
37.24000 15.103
37.26000 13.485
37.28000 18.369
37.30000 21.630
37.32000 24.114
37.34000 21.758
37.36000 19.679
37.38000 23.737
37.40000 25.952
37.42000 26.807
37.44000 21.793
37.46000 22.388
37.48000 21.320
37.50000 21.620
37.52000 23.467
37.54000 26.253
37.56000 24.997
37.58000 25.622
37.60000 21.252
37.62000 27.161
37.64000 30.217
37.66000 31.344
37.68000 29.612
37.70000 28.118
37.72000 34.020
37.74000 33.249
37.76000 39.710
37.78000 39.066
37.80000 33.209
37.82000 31.236
37.84000 36.431
37.86000 42.761
37.88000 41.331
37.90000 38.559
37.92000 43.329
37.94000 49.751
37.96000 49.000
37.98000 52.934
38.00000 50.660
38.02000 55.008
38.04000 55.750
38.06000 52.925
38.08000 56.890
38.10000 54.174
38.12000 60.945
38.14000 65.359
38.16000 60.904
38.18000 67.159
38.20000 71.026
38.22000 75.405
38.24000 78.208
38.26000 85.793
38.28000 87.611
38.30000 89.405
38.32000 97.956
38.34000 108.600
38.36000 115.152
38.38000 114.552
38.40000 115.500
38.42000 127.979
38.44000 140.074
38.46000 145.309
38.48000 157.650
38.50000 165.364
38.52000 176.353
38.54000 186.787
38.56000 197.068
38.58000 206.714
38.60000 219.733
38.62000 232.793
38.64000 236.584
38.66000 247.313
38.68000 260.912
38.70000 268.516
38.72000 280.230
38.74000 285.627
38.76000 288.726
38.78000 289.261
38.80000 302.285
38.82000 318.158
38.84000 315.836
38.86000 313.605
38.88000 312.138
38.90000 316.854
38.92000 301.561
38.94000 295.011
38.96000 291.060
38.98000 281.003
39.00000 275.531
39.02000 271.805
39.04000 264.233
39.06000 246.472
39.08000 234.112
39.10000 227.290
39.12000 219.197
39.14000 206.677
39.16000 198.075
39.18000 186.093
39.20000 174.753
39.22000 163.188
39.24000 158.329
39.26000 150.213
39.28000 144.820
39.30000 131.385
39.32000 123.783
39.34000 119.100
39.36000 112.528
39.38000 103.635
39.40000 101.597
39.42000 96.340
39.44000 85.406
39.46000 83.392
39.48000 77.464
39.50000 73.307
39.52000 69.118
39.54000 66.254
39.56000 67.061
39.58000 59.484
39.60000 57.220
39.62000 54.506
39.64000 56.375
39.66000 55.910
39.68000 50.508
39.70000 44.790
39.72000 39.580
39.74000 40.540
39.76000 41.794
39.78000 36.185
39.80000 36.139
39.82000 32.986
39.84000 30.826
39.86000 35.066
39.88000 38.172
39.90000 36.019
39.92000 29.192
39.94000 26.950
39.96000 29.877
39.98000 27.347
40.00000 25.088
40.02000 24.918
40.04000 22.261
40.06000 22.238
40.08000 17.156
40.10000 20.226
40.12000 26.546
40.14000 22.643
40.16000 22.732
40.18000 21.485
40.20000 26.077
40.22000 19.751
40.24000 16.270
40.26000 12.861
40.28000 12.285
40.30000 12.653
40.32000 15.363
40.34000 12.843
40.36000 13.932
40.38000 15.191
40.40000 15.280
40.42000 10.782
40.44000 11.624
40.46000 18.168
40.48000 11.926
40.50000 8.227
40.52000 7.010
40.54000 8.065
40.56000 9.860
40.58000 6.098
40.60000 9.765
40.62000 14.137
40.64000 8.943
40.66000 6.791
40.68000 6.471
40.70000 7.486
40.72000 4.786
40.74000 8.146
40.76000 8.354
40.78000 8.925
40.80000 10.586
40.82000 8.163
40.84000 5.695
40.86000 4.538
40.88000 -0.542
40.90000 1.390
40.92000 5.917
40.94000 3.935
40.96000 4.760
40.98000 9.258
41.00000 6.034
41.02000 4.313
41.04000 1.549
41.06000 0.659
41.08000 0.885
41.10000 1.663
41.12000 3.114
41.14000 1.502
41.16000 -0.287
41.18000 0.383
41.20000 1.318
41.22000 1.387
41.24000 3.452
41.26000 5.041
41.28000 -1.106
41.30000 -3.539
41.32000 -1.156
41.34000 4.632
41.36000 0.540
41.38000 -0.882
41.40000 3.501
41.42000 2.269
41.44000 2.514
41.46000 2.094
41.48000 -0.610
41.50000 1.720
41.52000 1.543
41.54000 0.987
41.56000 0.368
41.58000 -2.742
41.60000 -2.915
41.62000 -1.700
41.64000 4.251
41.66000 4.230
41.68000 2.538
41.70000 -2.181
41.72000 -0.464
41.74000 0.705
41.76000 0.542
41.78000 3.080
41.80000 0.262
41.82000 -1.450
41.84000 0.688
41.86000 1.669
41.88000 -0.476
41.90000 5.200
41.92000 1.087
41.94000 -3.450
41.96000 -2.344
41.98000 -1.786
42.00000 1.721
42.02000 -1.577
42.04000 0.474
42.06000 0.820
42.08000 0.144
42.10000 -1.099
42.12000 2.527
42.14000 2.860
42.16000 1.117
42.18000 1.173
42.20000 2.493
42.22000 4.405
42.24000 -1.293
42.26000 -1.575
42.28000 0.021
42.30000 2.002
42.32000 2.930
42.34000 3.056
42.36000 2.635
42.38000 4.310
42.40000 5.427
42.42000 2.268
42.44000 0.116
42.46000 1.479
42.48000 -1.695
42.50000 -0.694
42.52000 0.025
42.54000 0.828
42.56000 2.745
42.58000 2.097
42.60000 3.031
42.62000 2.280
42.64000 -1.162
42.66000 -3.357
42.68000 -0.168
42.70000 1.492
42.72000 3.620
42.74000 3.588
42.76000 1.141
42.78000 1.051
42.80000 -1.714
42.82000 0.317
42.84000 0.285
42.86000 0.753
42.88000 -2.475
42.90000 -1.382
42.92000 5.415
42.94000 3.005
42.96000 -1.488
42.98000 1.074
43.00000 3.637
43.02000 4.252
43.04000 2.614
43.06000 2.982
43.08000 0.609
43.10000 -1.278
43.12000 -3.324
43.14000 -1.317
43.16000 1.710
43.18000 -0.739
43.20000 -0.453
43.22000 -2.975
43.24000 -0.979
43.26000 5.044
43.28000 0.790
43.30000 -0.114
43.32000 3.141
43.34000 4.271
43.36000 5.043
43.38000 3.572
43.40000 -0.758
43.42000 0.293
43.44000 3.073
43.46000 3.572
43.48000 6.155
43.50000 3.922
43.52000 1.711
43.54000 2.466
43.56000 -0.570
43.58000 0.052
43.60000 2.860
43.62000 2.561
43.64000 1.890
43.66000 2.045
43.68000 -0.809
43.70000 -0.943
43.72000 -0.978
43.74000 -1.117
43.76000 1.436
43.78000 2.645
43.80000 0.165
43.82000 4.575
43.84000 3.765
43.86000 0.690
43.88000 3.540
43.90000 4.893
43.92000 4.310
43.94000 6.039
43.96000 -0.271
43.98000 0.126
44.00000 3.785
44.02000 5.649
44.04000 5.858
44.06000 3.475
44.08000 2.966
44.10000 10.548
44.12000 9.167
44.14000 7.777
44.16000 11.216
44.18000 5.751
44.20000 5.149
44.22000 9.517
44.24000 13.333
44.26000 13.063
44.28000 12.155
44.30000 8.875
44.32000 11.841
44.34000 16.408
44.36000 13.635
44.38000 11.666
44.40000 11.276
44.42000 15.703
44.44000 18.427
44.46000 17.095
44.48000 19.898
44.50000 25.320
44.52000 29.640
44.54000 25.684
44.56000 26.147
44.58000 30.308
44.60000 29.426
44.62000 29.923
44.64000 36.758
44.66000 42.973
44.68000 40.298
44.70000 42.936
44.72000 45.258
44.74000 48.031
44.76000 49.388
44.78000 47.921
44.80000 55.890
44.82000 58.630
44.84000 61.761
44.86000 64.750
44.88000 70.158
44.90000 73.947
44.92000 76.908
44.94000 85.244
44.96000 93.669
44.98000 95.805
45.00000 92.047
45.02000 92.453
45.04000 94.182
45.06000 101.992
45.08000 108.959
45.10000 111.749
45.12000 112.432
45.14000 117.713
45.16000 114.944
45.18000 115.192
45.20000 121.318
45.22000 125.460
45.24000 122.995
45.26000 124.370
45.28000 125.253
45.30000 127.295
45.32000 125.058
45.34000 121.191
45.36000 115.947
45.38000 115.640
45.40000 114.711
45.42000 109.307
45.44000 105.861
45.46000 103.367
45.48000 100.094
45.50000 100.434
45.52000 101.963
45.54000 90.867
45.56000 84.520
45.58000 82.962
45.60000 76.678
45.62000 74.146
45.64000 72.405
45.66000 67.728
45.68000 60.622
45.70000 54.949
45.72000 55.678
45.74000 61.558
45.76000 56.881
45.78000 49.885
45.80000 46.211
45.82000 38.518
45.84000 36.973
45.86000 37.153
45.88000 33.892
45.90000 34.276
45.92000 35.723
45.94000 33.551
45.96000 26.371
45.98000 27.003
46.00000 25.998
46.02000 23.662
46.04000 25.321
46.06000 19.544
46.08000 13.407
46.10000 15.031
46.12000 21.952
46.14000 18.645
46.16000 13.990
46.18000 12.436
46.20000 10.882
46.22000 8.259
46.24000 6.758
46.26000 10.603
46.28000 6.945
46.30000 8.448
46.32000 4.341
46.34000 4.776
46.36000 8.465
46.38000 11.231
46.40000 8.253
46.42000 5.441
46.44000 3.379
46.46000 5.362
46.48000 6.757
46.50000 5.783
46.52000 10.184
46.54000 7.501
46.56000 6.008
46.58000 5.109
46.60000 3.999
46.62000 -2.994
46.64000 -0.331
46.66000 2.940
46.68000 -0.776
46.70000 0.473
46.72000 -0.717
46.74000 -2.958
46.76000 0.947
46.78000 1.753
46.80000 3.648
46.82000 0.840
46.84000 4.011
46.86000 1.622
46.88000 1.123
46.90000 -2.953
46.92000 0.813
46.94000 1.970
46.96000 2.302
46.98000 3.511
47.00000 -0.146
47.02000 0.601
47.04000 -2.670
47.06000 1.154
47.08000 2.433
47.10000 -1.441
47.12000 3.115
47.14000 1.852
47.16000 1.556
47.18000 -0.075
47.20000 -0.042
47.22000 2.359
47.24000 3.674
47.26000 1.876
47.28000 4.663
47.30000 3.954
47.32000 2.636
47.34000 3.433
47.36000 1.507
47.38000 -1.438
47.40000 3.944
47.42000 1.389
47.44000 -1.558
47.46000 -2.070
47.48000 2.964
47.50000 4.895
47.52000 -0.856
47.54000 -0.442
47.56000 1.243
47.58000 -1.731
47.60000 -0.338
47.62000 0.625
47.64000 0.949
47.66000 0.082
47.68000 1.032
47.70000 0.674
47.72000 -0.273
47.74000 0.464
47.76000 -1.255
47.78000 0.109
47.80000 -2.837
47.82000 1.132
47.84000 -0.229
47.86000 1.109
47.88000 0.600
47.90000 2.322
47.92000 3.191
47.94000 1.253
47.96000 -0.224
47.98000 1.532
48.00000 0.181
48.02000 -0.762
48.04000 -0.975
48.06000 3.304
48.08000 1.241
48.10000 2.297
48.12000 -1.032
48.14000 0.185
48.16000 2.858
48.18000 3.466
48.20000 -0.093
48.22000 -0.964
48.24000 -2.652
48.26000 0.883
48.28000 0.895
48.30000 -2.209
48.32000 -2.641
48.34000 -0.646
48.36000 1.506
48.38000 0.744
48.40000 0.762
48.42000 3.323
48.44000 3.947
48.46000 3.693
48.48000 -0.437
48.50000 -0.273
48.52000 0.296
48.54000 -1.030
48.56000 -0.727
48.58000 -1.362
48.60000 2.150
48.62000 0.826
48.64000 4.161
48.66000 4.994
48.68000 6.051
48.70000 2.033
48.72000 -0.130
48.74000 2.870
48.76000 3.559
48.78000 1.494
48.80000 0.178
48.82000 -0.616
48.84000 -1.959
48.86000 -0.425
48.88000 0.582
48.90000 2.202
48.92000 3.642
48.94000 6.270
48.96000 6.508
48.98000 2.623
49.00000 4.313
49.02000 2.506
49.04000 6.182
49.06000 1.736
49.08000 3.024
49.10000 3.086
49.12000 -0.413
49.14000 -1.635
49.16000 -2.716
49.18000 -2.338
49.20000 0.428
49.22000 4.527
49.24000 6.368
49.26000 4.516
49.28000 5.871
49.30000 4.743
49.32000 4.924
49.34000 2.555
49.36000 0.374
49.38000 -1.053
49.40000 0.349
49.42000 3.804
49.44000 0.074
49.46000 2.717
49.48000 3.660
49.50000 5.682
49.52000 4.519
49.54000 5.208
49.56000 2.353
49.58000 0.835
49.60000 1.566
49.62000 1.684
49.64000 1.498
49.66000 1.849
49.68000 4.793
49.70000 5.434
49.72000 7.761
49.74000 2.031
49.76000 -1.138
49.78000 1.339
49.80000 0.672
49.82000 4.207
49.84000 4.729
49.86000 3.980
49.88000 0.944
49.90000 4.119
49.92000 -0.257
49.94000 -0.498
49.96000 2.399
49.98000 3.527
50.00000 0.157
50.02000 1.799
50.04000 3.465
50.06000 2.558
50.08000 0.298
50.10000 0.384
50.12000 0.579
50.14000 -0.012
50.16000 0.958
50.18000 2.708
50.20000 6.792
50.22000 8.266
50.24000 4.526
50.26000 -1.001
50.28000 -2.665
50.30000 3.810
50.32000 5.602
50.34000 3.752
50.36000 4.355
50.38000 5.641
50.40000 5.367
50.42000 0.749
50.44000 0.368
50.46000 -1.120
50.48000 1.751
50.50000 1.012
50.52000 3.071
50.54000 4.049
50.56000 4.256
50.58000 2.480
50.60000 1.787
50.62000 0.270
50.64000 2.772
50.66000 5.753
50.68000 4.985
50.70000 2.699
50.72000 -0.516
50.74000 5.753
50.76000 6.518
50.78000 3.615
50.80000 4.854
50.82000 4.556
50.84000 4.247
50.86000 4.663
50.88000 1.441
50.90000 0.165
50.92000 3.172
50.94000 4.655
50.96000 2.988
50.98000 1.064
51.00000 1.863
51.02000 0.557
51.04000 -1.253
51.06000 0.375
51.08000 0.812
51.10000 3.228
51.12000 1.408
51.14000 1.295
51.16000 3.017
51.18000 1.589
51.20000 3.404
51.22000 -0.610
51.24000 -0.804
51.26000 -1.125
51.28000 -1.229
51.30000 0.136
51.32000 1.432
51.34000 4.715
51.36000 1.383
51.38000 3.987
51.40000 6.429
51.42000 4.425
51.44000 2.690
51.46000 0.994
51.48000 -0.824
51.50000 3.888
51.52000 2.541
51.54000 -1.167
51.56000 0.578
51.58000 -0.689
51.60000 -2.677
51.62000 0.990
51.64000 0.506
51.66000 0.216
51.68000 -0.743
51.70000 -2.000
51.72000 -0.676
51.74000 1.942
51.76000 -1.982
51.78000 3.893
51.80000 6.267
51.82000 3.037
51.84000 -2.088
51.86000 -1.785
51.88000 3.506
51.90000 3.731
51.92000 -0.818
51.94000 -2.670
51.96000 -1.105
51.98000 -0.370
52.00000 3.134
52.02000 0.857
52.04000 -0.230
52.06000 -2.142
52.08000 1.033
52.10000 4.847
52.12000 0.397
52.14000 -0.740
52.16000 0.316
52.18000 2.896
52.20000 1.319
52.22000 -2.100
52.24000 -1.160
52.26000 2.417
52.28000 1.475
52.30000 -0.015
52.32000 3.795
52.34000 4.899
52.36000 3.895
52.38000 -0.443
52.40000 3.142
52.42000 1.487
52.44000 4.022
52.46000 2.830
52.48000 4.347
52.50000 3.815
52.52000 4.875
52.54000 2.272
52.56000 1.797
52.58000 0.961
52.60000 -0.159
52.62000 4.130
52.64000 -0.957
52.66000 -0.896
52.68000 -0.936
52.70000 0.052
52.72000 4.243
52.74000 3.940
52.76000 4.396
52.78000 0.185
52.80000 -2.628
52.82000 1.326
52.84000 2.950
52.86000 3.380
52.88000 0.500
52.90000 1.558
52.92000 -0.411
52.94000 0.147
52.96000 4.473
52.98000 2.471
53.00000 4.801
53.02000 0.939
53.04000 0.139
53.06000 1.174
53.08000 -1.100
53.10000 2.653
53.12000 3.152
53.14000 1.490
53.16000 0.029
53.18000 -2.162
53.20000 -1.906
53.22000 -2.602
53.24000 -0.896
53.26000 6.695
53.28000 3.237
53.30000 7.004
53.32000 2.435
53.34000 1.675
53.36000 6.802
53.38000 6.481
53.40000 2.204
53.42000 4.233
53.44000 3.191
53.46000 1.566
53.48000 -0.795
53.50000 1.944
53.52000 4.035
53.54000 4.300
53.56000 6.464
53.58000 2.737
53.60000 0.631
53.62000 3.138
53.64000 5.611
53.66000 5.686
53.68000 3.324
53.70000 5.208
53.72000 5.081
53.74000 0.044
53.76000 3.181
53.78000 6.416
53.80000 3.392
53.82000 -2.561
53.84000 1.403
53.86000 4.902
53.88000 3.652
53.90000 4.233
53.92000 3.979
53.94000 6.136
53.96000 5.122
53.98000 4.356
54.00000 0.022
54.02000 5.942
54.04000 8.045
54.06000 3.903
54.08000 6.282
54.10000 7.223
54.12000 2.512
54.14000 5.455
54.16000 4.622
54.18000 3.566
54.20000 4.830
54.22000 3.739
54.24000 4.736
54.26000 5.223
54.28000 0.737
54.30000 1.412
54.32000 2.755
54.34000 -0.513
54.36000 -2.111
54.38000 -1.119
54.40000 2.051
54.42000 1.785
54.44000 6.033
54.46000 4.385
54.48000 4.473
54.50000 1.632
54.52000 0.536
54.54000 -0.177
54.56000 2.252
54.58000 1.832
54.60000 1.339
54.62000 1.632
54.64000 1.304
54.66000 0.455
54.68000 0.322
54.70000 -1.791
54.72000 -1.419
54.74000 -0.630
54.76000 3.337
54.78000 3.819
54.80000 3.200
54.82000 2.740
54.84000 -0.281
54.86000 1.286
54.88000 3.046
54.90000 0.203
54.92000 -0.278
54.94000 1.629
54.96000 0.122
54.98000 4.301
55.00000 4.405
55.02000 3.506
55.04000 2.915
55.06000 7.205
55.08000 4.712
55.10000 0.980
55.12000 0.529
55.14000 3.263
55.16000 4.769
55.18000 2.532
55.20000 2.647
55.22000 2.602
55.24000 4.267
55.26000 1.002
55.28000 4.379
55.30000 1.800
55.32000 -1.019
55.34000 -0.055
55.36000 1.717
55.38000 1.799
55.40000 1.353
55.42000 5.692
55.44000 3.893
55.46000 1.795
55.48000 0.534
55.50000 2.166
55.52000 3.765
55.54000 5.020
55.56000 5.531
55.58000 2.126
55.60000 1.933
55.62000 0.945
55.64000 2.578
55.66000 -1.539
55.68000 2.505
55.70000 3.966
55.72000 3.643
55.74000 6.320
55.76000 5.565
55.78000 3.101
55.80000 0.372
55.82000 -1.379
55.84000 -0.329
55.86000 5.224
55.88000 5.051
55.90000 2.143
55.92000 4.469
55.94000 7.903
55.96000 8.179
55.98000 5.756
56.00000 3.529
56.02000 4.470
56.04000 5.118
56.06000 2.829
56.08000 1.791
56.10000 3.957
56.12000 5.499
56.14000 4.271
56.16000 1.640
56.18000 4.475
56.20000 5.619
56.22000 5.531
56.24000 3.641
56.26000 -2.502
56.28000 1.533
56.30000 3.742
56.32000 5.698
56.34000 8.428
56.36000 5.155
56.38000 0.161
56.40000 2.978
56.42000 5.346
56.44000 5.943
56.46000 3.253
56.48000 2.201
56.50000 2.453
56.52000 1.629
56.54000 4.081
56.56000 0.673
56.58000 -1.171
56.60000 0.034
56.62000 3.520
56.64000 3.893
56.66000 3.156
56.68000 2.893
56.70000 1.963
56.72000 1.311
56.74000 3.700
56.76000 2.221
56.78000 1.854
56.80000 1.081
56.82000 4.200
56.84000 6.164
56.86000 3.844
56.88000 2.399
56.90000 2.786
56.92000 5.502
56.94000 6.911
56.96000 0.147
56.98000 1.410
57.00000 1.965
57.02000 2.543
57.04000 0.597
57.06000 2.062
57.08000 6.225
57.10000 3.972
57.12000 0.762
57.14000 2.759
57.16000 -0.292
57.18000 2.107
57.20000 4.894
57.22000 -0.984
57.24000 3.799
57.26000 1.414
57.28000 -0.941
57.30000 -0.701
57.32000 2.830
57.34000 0.067
57.36000 1.971
57.38000 2.622
57.40000 -0.182
57.42000 4.705
57.44000 8.221
57.46000 3.205
57.48000 -0.451
57.50000 -1.126
57.52000 2.811
57.54000 -0.206
57.56000 0.722
57.58000 1.789
57.60000 0.674
57.62000 0.046
57.64000 -1.041
57.66000 0.731
57.68000 2.774
57.70000 0.916
57.72000 0.073
57.74000 0.032
57.76000 1.225
57.78000 -1.644
57.80000 4.077
57.82000 5.535
57.84000 4.898
57.86000 1.187
57.88000 -2.490
57.90000 -0.391
57.92000 -0.474
57.94000 2.562
57.96000 1.926
57.98000 1.983
58.00000 -0.156
58.02000 2.262
58.04000 0.927
58.06000 6.745
58.08000 3.932
58.10000 2.207
58.12000 -1.435
58.14000 -1.970
58.16000 -1.762
58.18000 1.680
58.20000 3.008
58.22000 5.702
58.24000 5.356
58.26000 2.668
58.28000 1.350
58.30000 2.279
58.32000 1.593
58.34000 2.718
58.36000 2.315
58.38000 4.300
58.40000 2.583
58.42000 1.539
58.44000 5.445
58.46000 3.167
58.48000 1.523
58.50000 2.753
58.52000 2.013
58.54000 1.809
58.56000 0.416
58.58000 -2.469
58.60000 1.619
58.62000 0.928
58.64000 -1.689
58.66000 0.964
58.68000 0.038
58.70000 -0.848
58.72000 -0.781
58.74000 4.237
58.76000 4.292
58.78000 2.219
58.80000 3.546
58.82000 0.971
58.84000 1.037
58.86000 -1.008
58.88000 0.259
58.90000 0.661
58.92000 3.808
58.94000 5.768
58.96000 3.311
58.98000 5.888
59.00000 5.900
59.02000 3.663
59.04000 0.402
59.06000 0.224
59.08000 1.051
59.10000 2.910
59.12000 2.579
59.14000 -1.642
59.16000 -2.447
59.18000 -1.709
59.20000 0.879
59.22000 3.659
59.24000 -1.247
59.26000 0.487
59.28000 -1.563
59.30000 0.083
59.32000 1.560
59.34000 6.523
59.36000 2.136
59.38000 1.945
59.40000 0.627
59.42000 0.946
59.44000 -2.251
59.46000 0.017
59.48000 -0.771
59.50000 -1.306
59.52000 1.748
59.54000 0.949
59.56000 0.751
59.58000 3.113
59.60000 5.073
59.62000 1.903
59.64000 -1.790
59.66000 5.013
59.68000 3.464
59.70000 1.135
59.72000 -0.791
59.74000 4.257
59.76000 -0.434
59.78000 -0.865
59.80000 -0.477
59.82000 0.775
59.84000 -2.061
59.86000 -2.421
59.88000 0.953
59.90000 2.791
59.92000 0.587
59.94000 -0.356
59.96000 1.354
59.98000 0.289
60.00000 -1.202
60.02000 -0.100
60.04000 5.305
60.06000 5.098
60.08000 5.456
60.10000 4.235
60.12000 2.790
60.14000 1.209
60.16000 0.949
60.18000 -0.664
60.20000 1.348
60.22000 0.538
60.24000 -1.756
60.26000 0.806
60.28000 0.891
60.30000 -0.506
60.32000 -1.944
60.34000 -0.743
60.36000 -0.027
60.38000 0.974
60.40000 1.682
60.42000 0.481
60.44000 3.273
60.46000 7.478
60.48000 5.647
60.50000 1.181
60.52000 -0.031
60.54000 3.459
60.56000 6.915
60.58000 8.495
60.60000 4.919
60.62000 -0.490
60.64000 -1.058
60.66000 1.562
60.68000 -1.097
60.70000 1.129
60.72000 3.253
60.74000 3.975
60.76000 4.638
60.78000 3.081
60.80000 -0.635
60.82000 1.082
60.84000 3.519
60.86000 4.297
60.88000 3.129
60.90000 2.962
60.92000 2.262
60.94000 -2.116
60.96000 1.745
60.98000 -1.097
61.00000 -2.383
61.02000 -1.632
61.04000 0.202
61.06000 3.024
61.08000 1.474
61.10000 2.067
61.12000 1.006
61.14000 2.221
61.16000 1.959
61.18000 3.742
61.20000 1.279
61.22000 4.752
61.24000 3.500
61.26000 3.103
61.28000 2.593
61.30000 1.733
61.32000 0.065
61.34000 1.193
61.36000 0.083
61.38000 3.975
61.40000 6.190
61.42000 3.666
61.44000 1.214
61.46000 2.292
61.48000 1.442
61.50000 0.055
61.52000 -2.346
61.54000 -1.944
61.56000 2.509
61.58000 3.291
61.60000 2.546
61.62000 3.777
61.64000 3.766
61.66000 3.997
61.68000 4.546
61.70000 3.786
61.72000 5.666
61.74000 4.390
61.76000 4.541
61.78000 4.621
61.80000 3.052
61.82000 1.490
61.84000 2.478
61.86000 2.976
61.88000 4.814
61.90000 2.814
61.92000 0.771
61.94000 1.095
61.96000 5.840
61.98000 6.274
62.00000 4.679
62.02000 0.656
62.04000 0.660
62.06000 0.978
62.08000 1.896
62.10000 0.315
62.12000 -0.239
62.14000 1.345
62.16000 2.095
62.18000 3.296
62.20000 -0.138
62.22000 -2.340
62.24000 1.671
62.26000 2.970
62.28000 2.970
62.30000 3.466
62.32000 3.711
62.34000 -0.709
62.36000 -0.075
62.38000 4.207
62.40000 3.762
62.42000 2.867
62.44000 2.329
62.46000 0.818
62.48000 3.695
62.50000 4.874
62.52000 3.955
62.54000 3.436
62.56000 4.232
62.58000 4.196
62.60000 6.077
62.62000 4.835
62.64000 1.583
62.66000 3.366
62.68000 0.510
62.70000 -1.997
62.72000 1.763
62.74000 2.230
62.76000 -0.505
62.78000 3.243
62.80000 4.883
62.82000 5.234
62.84000 5.849
62.86000 4.664
62.88000 4.719
62.90000 0.636
62.92000 -2.307
62.94000 1.796
62.96000 4.672
62.98000 4.848
63.00000 5.432
63.02000 5.288
63.04000 6.905
63.06000 5.126
63.08000 7.633
63.10000 3.584
63.12000 3.152
63.14000 1.206
63.16000 -1.192
63.18000 0.721
63.20000 1.190
63.22000 2.657
63.24000 0.032
63.26000 3.979
63.28000 3.591
63.30000 5.438
63.32000 3.729
63.34000 -0.433
63.36000 -2.288
63.38000 -0.570
63.40000 0.029
63.42000 2.201
63.44000 1.755
63.46000 2.922
63.48000 3.059
63.50000 4.573
63.52000 4.481
63.54000 1.738
63.56000 1.151
63.58000 2.062
63.60000 3.359
63.62000 4.755
63.64000 4.074
63.66000 2.506
63.68000 5.964
63.70000 3.922
63.72000 5.903
63.74000 5.388
63.76000 -0.497
63.78000 2.184
63.80000 3.825
63.82000 1.525
63.84000 -0.418
63.86000 2.567
63.88000 2.785
63.90000 -0.093
63.92000 3.036
63.94000 4.969
63.96000 3.242
63.98000 4.835
64.00000 6.169
64.02000 3.899
64.04000 4.758
64.06000 7.194
64.08000 3.890
64.10000 2.971
64.12000 -2.320
64.14000 -0.366
64.16000 3.914
64.18000 2.839
64.20000 1.987
64.22000 1.126
64.24000 2.794
64.26000 1.212
64.28000 -0.630
64.30000 -0.514
64.32000 0.272
64.34000 -1.390
64.36000 0.181
64.38000 3.012
64.40000 2.137
64.42000 1.229
64.44000 0.774
64.46000 2.874
64.48000 5.228
64.50000 3.424
64.52000 -0.789
64.54000 -1.252
64.56000 -2.333
64.58000 0.638
64.60000 0.822
64.62000 4.149
64.64000 1.886
64.66000 -1.397
64.68000 0.144
64.70000 2.600
64.72000 1.497
64.74000 1.112
64.76000 1.614
64.78000 -0.528
64.80000 2.635
64.82000 5.055
64.84000 4.468
64.86000 0.698
64.88000 3.079
64.90000 2.396
64.92000 1.771
64.94000 3.952
64.96000 2.620
64.98000 3.097
65.00000 2.804
65.02000 -0.064
65.04000 1.217
65.06000 2.502
65.08000 0.399
65.10000 2.066
65.12000 4.567
65.14000 3.338
65.16000 3.656
65.18000 3.248
65.20000 3.342
65.22000 0.431
65.24000 3.175
65.26000 6.139
65.28000 4.727
65.30000 1.978
65.32000 0.772
65.34000 3.096
65.36000 4.125
65.38000 4.912
65.40000 5.487
65.42000 7.526
65.44000 5.014
65.46000 6.792
65.48000 5.567
65.50000 3.181
65.52000 3.308
65.54000 6.325
65.56000 7.097
65.58000 8.246
65.60000 9.642
65.62000 6.455
65.64000 9.827
65.66000 6.301
65.68000 7.017
65.70000 7.808
65.72000 5.651
65.74000 5.496
65.76000 8.794
65.78000 10.171
65.80000 8.099
65.82000 7.999
65.84000 9.342
65.86000 9.349
65.88000 7.300
65.90000 10.134
65.92000 7.165
65.94000 6.124
65.96000 9.897
65.98000 11.824
66.00000 9.028
66.02000 7.801
66.04000 7.143
66.06000 10.238
66.08000 8.950
66.10000 6.627
66.12000 4.562
66.14000 3.316
66.16000 5.098
66.18000 4.750
66.20000 3.559
66.22000 3.749
66.24000 4.218
66.26000 4.892
66.28000 3.127
66.30000 5.583
66.32000 5.173
66.34000 3.453
66.36000 2.878
66.38000 6.083
66.40000 5.201
66.42000 3.414
66.44000 0.304
66.46000 0.629
66.48000 1.461
66.50000 3.481
66.52000 2.118
66.54000 0.270
66.56000 1.576
66.58000 2.274
66.60000 3.108
66.62000 3.518
66.64000 3.463
66.66000 2.293
66.68000 3.746
66.70000 0.477
66.72000 1.977
66.74000 1.145
66.76000 -0.374
66.78000 0.214
66.80000 -0.064
66.82000 4.022
66.84000 1.742
66.86000 0.778
66.88000 2.504
66.90000 2.308
66.92000 1.219
66.94000 0.673
66.96000 1.880
66.98000 2.962
67.00000 3.599
67.02000 0.815
67.04000 4.061
67.06000 3.761
67.08000 1.147
67.10000 2.932
67.12000 2.159
67.14000 1.717
67.16000 2.205
67.18000 1.042
67.20000 0.091
67.22000 4.938
67.24000 4.346
67.26000 1.381
67.28000 1.564
67.30000 1.794
67.32000 -0.642
67.34000 0.103
67.36000 0.954
67.38000 3.007
67.40000 6.146
67.42000 4.050
67.44000 3.552
67.46000 -2.214
67.48000 1.844
67.50000 4.114
67.52000 3.701
67.54000 3.958
67.56000 2.109
67.58000 2.611
67.60000 2.751
67.62000 2.220
67.64000 2.590
67.66000 4.847
67.68000 7.753
67.70000 5.094
67.72000 3.269
67.74000 3.010
67.76000 4.740
67.78000 5.008
67.80000 2.759
67.82000 0.989
67.84000 1.240
67.86000 1.857
67.88000 1.937
67.90000 -0.078
67.92000 0.532
67.94000 2.114
67.96000 4.454
67.98000 5.627
68.00000 1.173
68.02000 -2.215
68.04000 0.804
68.06000 -0.058
68.08000 -0.676
68.10000 0.483
68.12000 -0.462
68.14000 0.620
68.16000 0.719
68.18000 2.963
68.20000 2.984
68.22000 2.218
68.24000 3.612
68.26000 3.482
68.28000 2.908
68.30000 0.967
68.32000 1.818
68.34000 1.157
68.36000 1.900
68.38000 1.535
68.40000 0.523
68.42000 0.726
68.44000 2.717
68.46000 2.344
68.48000 0.029
68.50000 -0.149
68.52000 -0.009
68.54000 0.912
68.56000 0.687
68.58000 0.574
68.60000 0.389
68.62000 0.716
68.64000 -0.419
68.66000 0.340
68.68000 0.926
68.70000 0.592
68.72000 1.165
68.74000 2.934
68.76000 2.188
68.78000 3.534
68.80000 0.726
68.82000 -1.637
68.84000 -0.836
68.86000 3.349
68.88000 1.894
68.90000 2.605
68.92000 2.215
68.94000 0.977
68.96000 -0.039
68.98000 -0.208
69.00000 -2.197
69.02000 -0.919
69.04000 -0.886
69.06000 -0.128
69.08000 -1.682
69.10000 0.912
69.12000 0.041
69.14000 2.265
69.16000 0.279
69.18000 2.611
69.20000 1.810
69.22000 -0.268
69.24000 -1.116
69.26000 1.458
69.28000 -0.215
69.30000 1.985
69.32000 0.763
69.34000 0.636
69.36000 -0.807
69.38000 -1.164
69.40000 -0.156
69.42000 1.294
69.44000 -2.033
69.46000 0.805
69.48000 0.586
69.50000 1.619
69.52000 -0.214
69.54000 -0.718
69.56000 0.870
69.58000 1.985
69.60000 4.066
69.62000 2.537
69.64000 -0.150
69.66000 -0.610
69.68000 1.585
69.70000 3.120
69.72000 0.639
69.74000 0.737
69.76000 1.503
69.78000 3.434
69.80000 0.459
69.82000 -0.507
69.84000 -0.150
69.86000 1.941
69.88000 0.519
69.90000 2.286
69.92000 -2.157
69.94000 -1.206
69.96000 2.075
69.98000 0.225
70.00000 -0.094
70.02000 -1.879
70.04000 0.577
70.06000 0.702
70.08000 -1.143
70.10000 -2.156
70.12000 -1.107
70.14000 -1.702
70.16000 0.720
70.18000 0.471
70.20000 2.803
70.22000 2.978
70.24000 -1.019
70.26000 -2.153
70.28000 -0.703
70.30000 3.019
70.32000 1.580
70.34000 0.250
70.36000 -2.051
70.38000 -1.644
70.40000 -0.731
70.42000 -0.652
70.44000 3.233
70.46000 -0.461
70.48000 2.407
70.50000 3.918
70.52000 3.639
70.54000 1.807
70.56000 0.501
70.58000 -0.265
70.60000 4.080
70.62000 2.808
70.64000 0.289
70.66000 3.672
70.68000 3.654
70.70000 1.113
70.72000 -0.476
70.74000 -0.749
70.76000 2.554
70.78000 2.684
70.80000 2.399
70.82000 2.202
70.84000 2.653
70.86000 3.975
70.88000 2.800
70.90000 1.844
70.92000 3.282
70.94000 4.149
70.96000 0.833
70.98000 -0.669
71.00000 -1.075
71.02000 -1.179
71.04000 0.079
71.06000 2.868
71.08000 1.092
71.10000 0.754
71.12000 -0.512
71.14000 -1.601
71.16000 -0.890
71.18000 0.633
71.20000 2.367
71.22000 2.296
71.24000 2.204
71.26000 0.129
71.28000 2.265
71.30000 7.506
71.32000 1.712
71.34000 2.646
71.36000 1.839
71.38000 1.405
71.40000 1.069
71.42000 1.516
71.44000 -0.419
71.46000 2.219
71.48000 1.085
71.50000 3.460
71.52000 5.170
71.54000 4.360
71.56000 0.353
71.58000 -0.322
71.60000 -2.076
71.62000 0.190
71.64000 4.212
71.66000 3.900
71.68000 3.529
71.70000 5.468
71.72000 1.708
71.74000 1.228
71.76000 3.906
71.78000 4.491
71.80000 1.736
71.82000 -0.374
71.84000 0.111
71.86000 1.138
71.88000 1.485
71.90000 1.661
71.92000 1.136
71.94000 3.068
71.96000 4.758
71.98000 5.500
72.00000 4.332
72.02000 3.030
72.04000 4.542
72.06000 0.640
72.08000 2.710
72.10000 2.690
72.12000 0.380
72.14000 1.010
72.16000 1.180
72.18000 0.658
72.20000 2.107
72.22000 1.810
72.24000 -0.380
72.26000 2.030
72.28000 0.295
72.30000 -0.139
72.32000 1.677
72.34000 3.623
72.36000 -0.611
72.38000 -0.251
72.40000 0.624
72.42000 1.711
72.44000 2.172
72.46000 1.911
72.48000 0.086
72.50000 -1.487
72.52000 -0.521
72.54000 0.147
72.56000 2.080
72.58000 -0.233
72.60000 -1.455
72.62000 2.118
72.64000 2.886
72.66000 0.183
72.68000 -0.306
72.70000 1.479
72.72000 0.846
72.74000 2.638
72.76000 1.337
72.78000 0.843
72.80000 3.773
72.82000 5.435
72.84000 4.075
72.86000 1.683
72.88000 2.113
72.90000 1.820
72.92000 0.229
72.94000 1.411
72.96000 0.717
72.98000 -1.209
73.00000 -2.070
73.02000 0.653
73.04000 0.195
73.06000 0.081
73.08000 3.725
73.10000 2.656
73.12000 -2.058
73.14000 1.009
73.16000 3.068
73.18000 1.908
73.20000 -1.271
73.22000 -0.577
73.24000 2.048
73.26000 1.575
73.28000 3.545
73.30000 2.565
73.32000 -2.054
73.34000 0.918
73.36000 0.081
73.38000 -0.794
73.40000 1.150
73.42000 1.771
73.44000 0.673
73.46000 1.289
73.48000 4.341
73.50000 2.630
73.52000 0.067
73.54000 0.246
73.56000 1.381
73.58000 3.342
73.60000 2.344
73.62000 -1.907
73.64000 1.976
73.66000 3.413
73.68000 1.068
73.70000 1.987
73.72000 4.144
73.74000 3.696
73.76000 1.215
73.78000 -2.027
73.80000 4.243
73.82000 3.229
73.84000 1.200
73.86000 4.692
73.88000 4.218
73.90000 4.426
73.92000 1.750
73.94000 2.211
73.96000 0.752
73.98000 2.096
74.00000 3.822
74.02000 6.257
74.04000 6.522
74.06000 5.130
74.08000 4.453
74.10000 1.417
74.12000 0.362
74.14000 2.349
74.16000 3.883
74.18000 1.779
74.20000 0.279
74.22000 1.708
74.24000 0.935
74.26000 0.493
74.28000 3.892
74.30000 2.718
74.32000 1.941
74.34000 1.617
74.36000 1.674
74.38000 2.801
74.40000 3.187
74.42000 1.536
74.44000 -0.759
74.46000 0.405
74.48000 0.200
74.50000 0.904
74.52000 3.138
74.54000 0.187
74.56000 0.827
74.58000 0.210
74.60000 3.618
74.62000 1.499
74.64000 1.626
74.66000 1.371
74.68000 4.192
74.70000 2.325
74.72000 0.887
74.74000 0.633
74.76000 2.466
74.78000 2.987
74.80000 1.602
74.82000 1.635
74.84000 2.270
74.86000 3.093
74.88000 2.459
74.90000 0.078
74.92000 0.428
74.94000 -2.054
74.96000 0.272
74.98000 1.043
75.00000 0.023
75.02000 1.025
75.04000 0.631
75.06000 0.776
75.08000 -2.038
75.10000 1.149
75.12000 4.637
75.14000 3.912
75.16000 2.597
75.18000 0.902
75.20000 1.546
75.22000 0.745
75.24000 0.490
75.26000 -0.177
75.28000 -0.626
75.30000 -0.545
75.32000 0.043
75.34000 0.366
75.36000 2.596
75.38000 2.921
75.40000 0.810
75.42000 3.692
75.44000 1.912
75.46000 2.410
75.48000 3.395
75.50000 1.423
75.52000 0.919
75.54000 0.293
75.56000 -1.854
75.58000 -2.079
75.60000 0.481
75.62000 -0.559
75.64000 -1.193
75.66000 -1.697
75.68000 0.628
75.70000 1.827
75.72000 2.453
75.74000 4.990
75.76000 5.523
75.78000 3.038
75.80000 3.712
75.82000 6.300
75.84000 4.931
75.86000 1.493
75.88000 1.235
75.90000 1.955
75.92000 2.254
75.94000 1.038
75.96000 -0.887
75.98000 -2.085
76.00000 -0.172
76.02000 0.013
76.04000 -0.003
76.06000 -0.703
76.08000 -0.846
76.10000 1.577
76.12000 1.293
76.14000 -1.019
76.16000 0.678
76.18000 3.821
76.20000 1.547
76.22000 1.216
76.24000 -0.438
76.26000 2.913
76.28000 4.540
76.30000 1.349
76.32000 -0.228
76.34000 0.882
76.36000 0.752
76.38000 -1.068
76.40000 0.832
76.42000 4.295
76.44000 4.601
76.46000 5.315
76.48000 1.832
76.50000 -0.705
76.52000 0.926
76.54000 0.090
76.56000 3.487
76.58000 4.498
76.60000 -0.142
76.62000 0.693
76.64000 4.453
76.66000 -0.334
76.68000 -2.106
76.70000 0.361
76.72000 0.528
76.74000 0.437
76.76000 2.799
76.78000 -0.089
76.80000 2.521
76.82000 3.417
76.84000 0.703
76.86000 2.905
76.88000 2.190
76.90000 -0.692
76.92000 0.937
76.94000 1.652
76.96000 1.326
76.98000 -0.303
77.00000 0.048
77.02000 0.591
77.04000 2.056
77.06000 3.403
77.08000 4.047
77.10000 1.290
77.12000 1.972
77.14000 4.403
77.16000 8.097
77.18000 7.212
77.20000 5.075
77.22000 1.366
77.24000 -2.159
77.26000 0.069
77.28000 3.224
77.30000 2.308
77.32000 -0.376
77.34000 -1.005
77.36000 -1.944
77.38000 -2.172
77.40000 2.416
77.42000 2.395
77.44000 -1.422
77.46000 0.399
77.48000 0.142
77.50000 1.269
77.52000 -1.292
77.54000 -2.187
77.56000 0.396
77.58000 2.530
77.60000 1.093
77.62000 -1.484
77.64000 0.158
77.66000 2.191
77.68000 4.799
77.70000 0.237
77.72000 0.656
77.74000 1.960
77.76000 4.860
77.78000 4.751
77.80000 3.937
77.82000 3.753
77.84000 3.625
77.86000 3.293
77.88000 2.548
77.90000 -0.163
77.92000 4.084
77.94000 3.095
77.96000 0.206
77.98000 -2.246
78.00000 -0.755
78.02000 1.361
78.04000 5.194
78.06000 2.756
78.08000 2.221
78.10000 3.016
78.12000 2.596
78.14000 0.873
78.16000 2.315
78.18000 0.841
78.20000 3.508
78.22000 5.550
78.24000 5.740
78.26000 6.076
78.28000 7.277
78.30000 5.108
78.32000 4.617
78.34000 1.810
78.36000 3.931
78.38000 5.139
78.40000 5.230
78.42000 3.003
78.44000 4.644
78.46000 3.716
78.48000 7.230
78.50000 5.546
78.52000 5.901
78.54000 8.882
78.56000 13.202
78.58000 9.633
78.60000 6.526
78.62000 9.564
78.64000 11.329
78.66000 14.798
78.68000 11.861
78.70000 18.880
78.72000 16.225
78.74000 19.367
78.76000 19.237
78.78000 12.545
78.80000 16.785
78.82000 20.155
78.84000 19.749
78.86000 22.026
78.88000 24.717
78.90000 23.283
78.92000 23.734
78.94000 28.371
78.96000 32.223
78.98000 30.728
79.00000 28.113
79.02000 28.722
79.04000 30.594
79.06000 29.005
79.08000 25.651
79.10000 27.390
79.12000 31.861
79.14000 29.011
79.16000 29.814
79.18000 28.123
79.20000 35.320
79.22000 37.480
79.24000 35.912
79.26000 37.456
79.28000 37.210
79.30000 34.281
79.32000 32.328
79.34000 34.570
79.36000 32.225
79.38000 27.073
79.40000 27.594
79.42000 27.993
79.44000 29.731
79.46000 29.488
79.48000 29.431
79.50000 28.747
79.52000 25.961
79.54000 21.814
79.56000 23.069
79.58000 24.865
79.60000 21.450
79.62000 22.995
79.64000 18.932
79.66000 19.367
79.68000 20.944
79.70000 21.790
79.72000 20.157
79.74000 21.689
79.76000 19.714
79.78000 17.652
79.80000 19.084
79.82000 17.113
79.84000 13.380
79.86000 16.415
79.88000 14.526
79.90000 12.159
79.92000 6.972
79.94000 5.729
79.96000 7.315
79.98000 6.342
80.00000 5.224
80.02000 4.230
80.04000 7.487
80.06000 7.157
80.08000 5.206
80.10000 5.999
80.12000 7.867
80.14000 7.523
80.16000 3.392
80.18000 5.040
80.20000 5.064
80.22000 1.526
80.24000 1.160
80.26000 0.042
80.28000 -1.053
80.30000 2.320
80.32000 3.352
80.34000 1.382
80.36000 -1.709
80.38000 -0.203
80.40000 2.112
80.42000 0.504
80.44000 0.462
80.46000 2.402
80.48000 1.794
80.50000 -1.181
80.52000 2.366
80.54000 5.860
80.56000 4.531
80.58000 3.574
80.60000 4.680
80.62000 1.019
80.64000 -1.091
80.66000 -2.370
80.68000 1.520
80.70000 2.519
80.72000 0.759
80.74000 0.807
80.76000 1.212
80.78000 3.876
80.80000 1.633
80.82000 3.748
80.84000 3.712
80.86000 0.550
80.88000 0.475
80.90000 2.089
80.92000 5.044
80.94000 3.403
80.96000 3.699
80.98000 -1.883
81.00000 2.010
81.02000 3.541
81.04000 -0.420
81.06000 -1.652
81.08000 2.075
81.10000 1.821
81.12000 1.216
81.14000 0.972
81.16000 2.263
81.18000 2.742
81.20000 1.722
81.22000 1.796
81.24000 1.612
81.26000 -0.367
81.28000 1.009
81.30000 -1.791
81.32000 2.850
81.34000 5.377
81.36000 1.016
81.38000 -2.387
81.40000 2.572
81.42000 1.724
81.44000 6.074
81.46000 5.226
81.48000 5.643
81.50000 5.262
81.52000 3.301
81.54000 3.486
81.56000 2.004
81.58000 3.961
81.60000 2.433
81.62000 1.653
81.64000 1.868
81.66000 0.365
81.68000 0.318
81.70000 2.758
81.72000 3.530
81.74000 3.405
81.76000 5.112
81.78000 0.758
81.80000 1.112
81.82000 -0.370
81.84000 -2.400
81.86000 3.384
81.88000 9.281
81.90000 4.715
81.92000 5.414
81.94000 5.695
81.96000 3.127
81.98000 4.387
82.00000 8.219
82.02000 3.114
82.04000 7.226
82.06000 4.506
82.08000 6.412
82.10000 9.033
82.12000 10.236
82.14000 10.451
82.16000 9.129
82.18000 8.066
82.20000 7.256
82.22000 8.783
82.24000 8.649
82.26000 7.417
82.28000 11.357
82.30000 15.179
82.32000 12.920
82.34000 12.547
82.36000 14.177
82.38000 18.062
82.40000 18.677
82.42000 15.698
82.44000 17.812
82.46000 21.309
82.48000 21.333
82.50000 20.212
82.52000 19.613
82.54000 23.549
82.56000 27.208
82.58000 28.742
82.60000 27.425
82.62000 28.907
82.64000 29.018
82.66000 30.130
82.68000 30.718
82.70000 28.495
82.72000 30.683
82.74000 32.145
82.76000 35.102
82.78000 37.536
82.80000 36.050
82.82000 36.497
82.84000 42.659
82.86000 43.823
82.88000 43.638
82.90000 44.924
82.92000 48.960
82.94000 49.970
82.96000 56.502
82.98000 55.674
83.00000 59.581
83.02000 65.669
83.04000 66.340
83.06000 65.449
83.08000 65.860
83.10000 68.239
83.12000 72.513
83.14000 74.568
83.16000 77.252
83.18000 83.397
83.20000 84.765
83.22000 84.359
83.24000 80.509
83.26000 84.811
83.28000 91.387
83.30000 89.677
83.32000 83.982
83.34000 81.273
83.36000 84.111
83.38000 81.516
83.40000 82.666
83.42000 77.285
83.44000 87.568
83.46000 88.254
83.48000 88.980
83.50000 86.386
83.52000 80.805
83.54000 77.876
83.56000 77.427
83.58000 72.347
83.60000 72.749
83.62000 72.796
83.64000 73.343
83.66000 67.505
83.68000 66.891
83.70000 64.724
83.72000 62.796
83.74000 58.868
83.76000 57.432
83.78000 57.105
83.80000 49.357
83.82000 47.548
83.84000 48.164
83.86000 50.652
83.88000 50.558
83.90000 40.909
83.92000 37.553
83.94000 39.559
83.96000 36.727
83.98000 33.083
84.00000 29.613
84.02000 28.374
84.04000 26.530
84.06000 26.964
84.08000 21.458
84.10000 17.730
84.12000 18.829
84.14000 19.812
84.16000 20.882
84.18000 22.399
84.20000 17.555
84.22000 18.322
84.24000 17.549
84.26000 15.087
84.28000 12.203
84.30000 13.136
84.32000 13.743
84.34000 11.546
84.36000 11.348
84.38000 13.073
84.40000 12.736
84.42000 10.914
84.44000 7.823
84.46000 5.344
84.48000 3.531
84.50000 9.389
84.52000 6.819
84.54000 6.120
84.56000 6.112
84.58000 4.647
84.60000 4.011
84.62000 0.753
84.64000 1.721
84.66000 0.796
84.68000 2.677
84.70000 3.444
84.72000 2.424
84.74000 3.213
84.76000 7.086
84.78000 7.524
84.80000 6.441
84.82000 3.302
84.84000 2.689
84.86000 1.917
84.88000 4.551
84.90000 6.556
84.92000 3.758
84.94000 4.516
84.96000 1.417
84.98000 -1.844
85.00000 0.365
85.02000 1.875
85.04000 -0.222
85.06000 2.499
85.08000 1.732
85.10000 -1.183
85.12000 -1.294
85.14000 1.363
85.16000 0.686
85.18000 -0.327
85.20000 0.244
85.22000 0.783
85.24000 0.157
85.26000 3.749
85.28000 6.174
85.30000 6.351
85.32000 2.442
85.34000 -0.037
85.36000 4.373
85.38000 6.137
85.40000 0.198
85.42000 0.851
85.44000 -2.065
85.46000 -1.290
85.48000 1.872
85.50000 2.235
85.52000 2.537
85.54000 1.577
85.56000 3.108
85.58000 2.890
85.60000 2.391
85.62000 3.159
85.64000 5.333
85.66000 5.572
85.68000 2.677
85.70000 1.285
85.72000 1.354
85.74000 -1.998
85.76000 -1.398
85.78000 2.851
85.80000 2.788
85.82000 2.079
85.84000 0.304
85.86000 3.187
85.88000 3.462
85.90000 4.580
85.92000 4.445
85.94000 4.045
85.96000 3.820
85.98000 4.830
86.00000 6.698
86.02000 3.919
86.04000 2.379
86.06000 -0.055
86.08000 -1.945
86.10000 2.060
86.12000 6.277
86.14000 6.152
86.16000 4.010
86.18000 6.964
86.20000 8.424
86.22000 3.923
86.24000 4.735
86.26000 5.166
86.28000 3.963
86.30000 2.289
86.32000 5.780
86.34000 1.789
86.36000 2.724
86.38000 4.570
86.40000 5.028
86.42000 6.860
86.44000 7.333
86.46000 6.885
86.48000 5.788
86.50000 4.807
86.52000 4.038
86.54000 2.294
86.56000 1.778
86.58000 2.998
86.60000 6.387
86.62000 3.844
86.64000 -1.931
86.66000 0.825
86.68000 4.272
86.70000 3.976
86.72000 1.449
86.74000 3.863
86.76000 5.093
86.78000 3.145
86.80000 4.081
86.82000 6.771
86.84000 3.386
86.86000 2.782
86.88000 -0.889
86.90000 -0.235
86.92000 0.546
86.94000 1.291
86.96000 6.188
86.98000 5.986
87.00000 5.752
87.02000 3.534
87.04000 4.000
87.06000 4.745
87.08000 1.863
87.10000 0.603
87.12000 2.813
87.14000 5.082
87.16000 2.944
87.18000 3.220
87.20000 0.239
87.22000 3.028
87.24000 3.488
87.26000 2.833
87.28000 2.013
87.30000 -0.723
87.32000 3.330
87.34000 3.913
87.36000 0.942
87.38000 -1.909
87.40000 0.363
87.42000 2.526
87.44000 3.235
87.46000 6.584
87.48000 4.557
87.50000 3.242
87.52000 2.086
87.54000 3.349
87.56000 5.303
87.58000 5.025
87.60000 2.416
87.62000 4.394
87.64000 1.006
87.66000 1.407
87.68000 3.202
87.70000 2.855
87.72000 1.283
87.74000 0.478
87.76000 1.854
87.78000 3.390
87.80000 3.544
87.82000 1.504
87.84000 0.419
87.86000 -1.064
87.88000 0.301
87.90000 1.647
87.92000 1.958
87.94000 0.677
87.96000 5.179
87.98000 3.568
88.00000 1.043
88.02000 1.791
88.04000 0.884
88.06000 0.266
88.08000 1.166
88.10000 3.563
88.12000 0.691
88.14000 3.441
88.16000 6.038
88.18000 3.297
88.20000 6.541
88.22000 4.023
88.24000 2.938
88.26000 1.294
88.28000 2.264
88.30000 4.066
88.32000 -1.902
88.34000 -1.901
88.36000 1.732
88.38000 0.068
88.40000 2.079
88.42000 5.269
88.44000 3.553
88.46000 1.263
88.48000 -1.573
88.50000 -0.372
88.52000 0.636
88.54000 2.851
88.56000 1.425
88.58000 3.368
88.60000 4.421
88.62000 1.852
88.64000 0.227
88.66000 4.092
88.68000 1.172
88.70000 0.853
88.72000 -1.826
88.74000 -0.913
88.76000 -0.018
88.78000 -0.450
88.80000 -0.679
88.82000 1.836
88.84000 0.789
88.86000 0.149
88.88000 -0.172
88.90000 -1.461
88.92000 0.521
88.94000 3.235
88.96000 0.613
88.98000 -0.841
89.00000 -0.936
89.02000 0.290
89.04000 4.752
89.06000 1.598
89.08000 -0.385
89.10000 -0.208
89.12000 0.345
89.14000 1.453
89.16000 2.955
89.18000 4.185
89.20000 2.978
89.22000 3.375
89.24000 4.073
89.26000 -0.460
89.28000 0.090
89.30000 0.858
89.32000 0.619
89.34000 -0.311
89.36000 0.893
89.38000 -0.859
89.40000 1.600
89.42000 3.683
89.44000 4.488
89.46000 1.082
89.48000 1.113
89.50000 4.622
89.52000 3.340
89.54000 1.385
89.56000 3.233
89.58000 1.652
89.60000 -1.908
89.62000 0.510
89.64000 2.304
89.66000 4.181
89.68000 2.476
89.70000 2.671
89.72000 3.305
89.74000 4.030
89.76000 0.818
89.78000 1.265
89.80000 1.372
89.82000 3.205
89.84000 2.942
89.86000 3.840
89.88000 4.418
89.90000 1.983
89.92000 1.984
89.94000 1.600
89.96000 1.426
89.98000 4.076
90.00000 7.791
90.02000 6.298
90.04000 1.655
90.06000 0.723
90.08000 0.013
90.10000 3.243
90.12000 0.740
90.14000 3.240
90.16000 2.432
90.18000 1.830
90.20000 4.774
90.22000 4.263
90.24000 2.689
90.26000 5.344
90.28000 5.287
90.30000 1.032
90.32000 -1.716
90.34000 1.192
90.36000 0.863
90.38000 0.526
90.40000 2.999
90.42000 6.220
90.44000 7.551
90.46000 4.022
90.48000 1.794
90.50000 7.314
90.52000 4.025
90.54000 0.883
90.56000 -1.884
90.58000 2.058
90.60000 3.271
90.62000 5.118
90.64000 5.404
90.66000 3.496
90.68000 1.562
90.70000 -0.836
90.72000 -0.251
90.74000 4.153
90.76000 3.399
90.78000 3.554
90.80000 2.802
90.82000 6.764
90.84000 7.693
90.86000 5.945
90.88000 7.108
90.90000 4.802
90.92000 6.286
90.94000 2.436
90.96000 -1.871
90.98000 1.020
91.00000 1.349
91.02000 3.623
91.04000 4.683
91.06000 4.248
91.08000 4.228
91.10000 4.262
91.12000 0.794
91.14000 1.105
91.16000 4.254
91.18000 5.153
91.20000 4.563
91.22000 5.762
91.24000 2.036
91.26000 2.533
91.28000 1.236
91.30000 0.574
91.32000 2.636
91.34000 2.682
91.36000 3.923
91.38000 5.148
91.40000 4.434
91.42000 -0.449
91.44000 -1.868
91.46000 2.701
91.48000 3.347
91.50000 2.543
91.52000 1.609
91.54000 1.093
91.56000 2.581
91.58000 5.023
91.60000 4.860
91.62000 5.416
91.64000 3.087
91.66000 4.428
91.68000 1.116
91.70000 0.963
91.72000 4.557
91.74000 4.732
91.76000 8.135
91.78000 2.600
91.80000 1.238
91.82000 1.249
91.84000 1.026
91.86000 4.581
91.88000 3.867
91.90000 -0.946
91.92000 0.837
91.94000 0.581
91.96000 0.383
91.98000 3.418
92.00000 4.555
92.02000 1.224
92.04000 4.111
92.06000 5.268
92.08000 2.356
92.10000 2.005
92.12000 1.993
92.14000 0.992
92.16000 3.841
92.18000 3.743
92.20000 2.390
92.22000 3.926
92.24000 2.006
92.26000 1.881
92.28000 3.486
92.30000 6.491
92.32000 4.870
92.34000 4.432
92.36000 2.474
92.38000 2.243
92.40000 2.989
92.42000 4.465
92.44000 1.909
92.46000 2.191
92.48000 1.872
92.50000 1.700
92.52000 4.068
92.54000 1.471
92.56000 2.298
92.58000 2.219
92.60000 1.817
92.62000 -0.178
92.64000 -0.890
92.66000 0.604
92.68000 -1.135
92.70000 -1.926
92.72000 -0.708
92.74000 0.822
92.76000 2.746
92.78000 1.534
92.80000 0.177
92.82000 -0.295
92.84000 3.185
92.86000 1.748
92.88000 3.320
92.90000 4.020
92.92000 1.555
92.94000 -0.458
92.96000 1.640
92.98000 -0.024
93.00000 2.116
93.02000 2.725
93.04000 3.711
93.06000 0.127
93.08000 0.936
93.10000 4.232
93.12000 2.651
93.14000 2.272
93.16000 1.410
93.18000 2.501
93.20000 5.596
93.22000 3.067
93.24000 0.087
93.26000 -1.113
93.28000 -0.817
93.30000 -0.513
93.32000 -0.749
93.34000 0.682
93.36000 2.289
93.38000 1.532
93.40000 2.172
93.42000 2.526
93.44000 6.321
93.46000 3.242
93.48000 4.322
93.50000 2.081
93.52000 -0.675
93.54000 1.955
93.56000 2.421
93.58000 1.385
93.60000 3.213
93.62000 3.203
93.64000 6.418
93.66000 6.991
93.68000 3.568
93.70000 4.223
93.72000 5.231
93.74000 4.163
93.76000 1.256
93.78000 0.394
93.80000 0.953
93.82000 1.477
93.84000 -1.657
93.86000 -1.898
93.88000 -0.900
93.90000 2.905
93.92000 0.196
93.94000 4.556
93.96000 4.045
93.98000 3.763
94.00000 1.351
94.02000 1.947
94.04000 0.753
94.06000 -0.081
94.08000 0.919
94.10000 5.674
94.12000 7.281
94.14000 4.236
94.16000 1.311
94.18000 1.684
94.20000 5.153
94.22000 3.324
94.24000 -0.760
94.26000 -0.130
94.28000 -1.040
94.30000 2.614
94.32000 6.233
94.34000 2.958
94.36000 5.397
94.38000 4.813
94.40000 3.518
94.42000 -0.896
94.44000 1.321
94.46000 5.425
94.48000 3.549
94.50000 3.634
94.52000 2.794
94.54000 -1.076
94.56000 -0.073
94.58000 1.814
94.60000 1.674
94.62000 0.914
94.64000 0.581
94.66000 2.241
94.68000 6.323
94.70000 2.313
94.72000 0.151
94.74000 0.449
94.76000 4.017
94.78000 4.574
94.80000 4.677
94.82000 3.982
94.84000 1.807
94.86000 6.311
94.88000 5.997
94.90000 3.251
94.92000 0.301
94.94000 2.890
94.96000 4.383
94.98000 5.267
95.00000 4.931
95.02000 4.635
95.04000 1.868
95.06000 3.950
95.08000 -1.113
95.10000 1.136
95.12000 2.151
95.14000 0.739
95.16000 1.536
95.18000 6.971
95.20000 1.688
95.22000 1.116
95.24000 3.606
95.26000 2.830
95.28000 0.649
95.30000 1.815
95.32000 1.726
95.34000 4.657
95.36000 4.968
95.38000 3.671
95.40000 3.331
95.42000 2.366
95.44000 2.114
95.46000 1.196
95.48000 1.428
95.50000 2.981
95.52000 3.633
95.54000 4.814
95.56000 6.668
95.58000 6.523
95.60000 2.297
95.62000 0.248
95.64000 4.747
95.66000 4.219
95.68000 4.302
95.70000 2.784
95.72000 6.549
95.74000 5.721
95.76000 2.705
95.78000 5.202
95.80000 3.411
95.82000 -0.074
95.84000 -0.433
95.86000 2.286
95.88000 5.222
95.90000 2.705
95.92000 1.217
95.94000 3.715
95.96000 3.261
95.98000 -1.906
96.00000 2.817
96.02000 4.600
96.04000 5.694
96.06000 4.360
96.08000 1.314
96.10000 2.090
96.12000 4.712
96.14000 2.214
96.16000 1.086
96.18000 5.767
96.20000 6.899
96.22000 3.759
96.24000 3.203
96.26000 4.341
96.28000 3.807
96.30000 5.769
96.32000 5.585
96.34000 1.810
96.36000 3.526
96.38000 4.184
96.40000 3.287
96.42000 2.153
96.44000 5.848
96.46000 10.811
96.48000 6.520
96.50000 1.037
96.52000 3.566
96.54000 2.967
96.56000 2.215
96.58000 7.230
96.60000 3.055
96.62000 4.248
96.64000 5.398
96.66000 4.957
96.68000 6.703
96.70000 7.341
96.72000 7.696
96.74000 8.726
96.76000 8.494
96.78000 8.062
96.80000 8.657
96.82000 4.396
96.84000 2.719
96.86000 1.329
96.88000 2.141
96.90000 1.643
96.92000 3.949
96.94000 1.730
96.96000 0.840
96.98000 -1.345
97.00000 -1.692
97.02000 1.475
97.04000 6.908
97.06000 4.021
97.08000 5.480
97.10000 5.904
97.12000 3.286
97.14000 1.234
97.16000 1.617
97.18000 0.915
97.20000 2.554
97.22000 4.680
97.24000 5.692
97.26000 9.477
97.28000 7.365
97.30000 1.683
97.32000 -1.920
97.34000 -0.974
97.36000 0.176
97.38000 -0.375
97.40000 4.652
97.42000 3.589
97.44000 3.258
97.46000 2.229
97.48000 1.156
97.50000 -0.762
97.52000 0.476
97.54000 1.349
97.56000 1.408
97.58000 1.660
97.60000 3.169
97.62000 0.009
97.64000 0.003
97.66000 3.215
97.68000 -1.200
97.70000 -1.040
97.72000 6.788
97.74000 7.940
97.76000 4.987
97.78000 4.989
97.80000 11.277
97.82000 12.129
97.84000 10.989
97.86000 7.415
97.88000 5.339
97.90000 4.224
97.92000 8.079
97.94000 6.892
97.96000 6.675
97.98000 4.599
98.00000 5.082
98.02000 6.848
98.04000 5.588
98.06000 7.029
98.08000 4.548
98.10000 3.581
98.12000 3.273
98.14000 -0.616
98.16000 5.433
98.18000 8.987
98.20000 5.623
98.22000 4.528
98.24000 6.140
98.26000 1.524
98.28000 1.857
98.30000 5.636
98.32000 4.146
98.34000 1.135
98.36000 -0.974
98.38000 1.007
98.40000 2.837
98.42000 1.097
98.44000 -1.852
98.46000 3.727
98.48000 3.771
98.50000 4.999
98.52000 11.406
98.54000 8.831
98.56000 6.393
98.58000 8.209
98.60000 9.058
98.62000 13.987
98.64000 13.013
98.66000 10.280
98.68000 7.442
98.70000 3.007
98.72000 7.575
98.74000 7.486
98.76000 5.403
98.78000 0.086
98.80000 -1.759
98.82000 7.893
98.84000 3.559
98.86000 8.263
98.88000 7.315
98.90000 7.272
98.92000 -0.298
98.94000 1.076
98.96000 2.329
98.98000 3.349
99.00000 6.016
99.02000 5.282
99.04000 1.513
99.06000 1.734
99.08000 5.016
99.10000 7.743
99.12000 5.697
99.14000 5.443
99.16000 9.230
99.18000 3.035
99.20000 -1.010
99.22000 0.826
99.24000 1.727
99.26000 2.127
99.28000 -0.208
99.30000 2.885
99.32000 2.556
99.34000 1.850
99.36000 -1.839
99.38000 0.014
99.40000 6.799
99.42000 3.939
99.44000 2.716
99.46000 5.008
99.48000 3.143
99.50000 0.951
99.52000 1.101
99.54000 0.428
99.56000 1.746
99.58000 -1.047
99.60000 7.656
99.62000 6.005
99.64000 2.285
99.66000 6.028
99.68000 0.060
99.70000 0.731
99.72000 -1.011
99.74000 -1.557
99.76000 -2.025
99.78000 2.270
99.80000 4.340
99.82000 1.262
99.84000 5.492
99.86000 2.993
99.88000 4.001
99.90000 1.691
99.92000 5.464
99.94000 2.359
99.96000 0.101
99.98000 0.000
