'Id: "0011387" Comment: "Integrate frame 0011387_Au-Ir-Rh_Rh-rich_XRD-Mapping-306-0000.gfrmwith cursor Wedge Cursor #5" Operator: "B?rgel" Anode: "Cu" Wavelength: "1.5406" Scantype: "2Theta (TwoTheta)" TimePerStep: "1" X: "13.5" Y: "31.5" Z: "5.95" 
10.00000 0.000
10.02000 21.314
10.04000 26.815
10.06000 23.223
10.08000 15.053
10.10000 10.811
10.12000 31.389
10.14000 30.118
10.16000 33.498
10.18000 29.965
10.20000 13.507
10.22000 22.602
10.24000 20.653
10.26000 16.598
10.28000 6.910
10.30000 19.000
10.32000 20.741
10.34000 24.272
10.36000 11.248
10.38000 1.488
10.40000 16.201
10.42000 26.366
10.44000 22.504
10.46000 20.026
10.48000 19.056
10.50000 18.059
10.52000 14.998
10.54000 20.593
10.56000 23.195
10.58000 32.159
10.60000 22.844
10.62000 15.666
10.64000 9.755
10.66000 9.818
10.68000 19.381
10.70000 11.364
10.72000 22.233
10.74000 32.323
10.76000 19.548
10.78000 14.615
10.80000 13.008
10.82000 13.753
10.84000 20.669
10.86000 20.348
10.88000 22.820
10.90000 16.245
10.92000 16.555
10.94000 13.093
10.96000 14.393
10.98000 15.738
11.00000 8.779
11.02000 5.814
11.04000 14.272
11.06000 13.320
11.08000 16.142
11.10000 24.811
11.12000 14.746
11.14000 13.623
11.16000 34.404
11.18000 25.952
11.20000 23.137
11.22000 28.329
11.24000 25.857
11.26000 25.435
11.28000 13.275
11.30000 4.008
11.32000 4.552
11.34000 3.387
11.36000 27.628
11.38000 14.551
11.40000 9.384
11.42000 34.691
11.44000 28.339
11.46000 20.975
11.48000 24.950
11.50000 20.158
11.52000 10.193
11.54000 9.763
11.56000 6.569
11.58000 8.880
11.60000 19.381
11.62000 19.661
11.64000 21.805
11.66000 18.871
11.68000 10.068
11.70000 12.663
11.72000 18.504
11.74000 24.448
11.76000 24.849
11.78000 32.176
11.80000 24.390
11.82000 21.136
11.84000 11.723
11.86000 14.758
11.88000 13.525
11.90000 23.743
11.92000 21.477
11.94000 10.191
11.96000 7.820
11.98000 4.994
12.00000 17.154
12.02000 19.458
12.04000 15.589
12.06000 25.386
12.08000 26.916
12.10000 16.441
12.12000 21.801
12.14000 24.673
12.16000 26.678
12.18000 19.485
12.20000 10.070
12.22000 5.786
12.24000 13.822
12.26000 12.236
12.28000 23.276
12.30000 23.839
12.32000 18.959
12.34000 15.633
12.36000 15.850
12.38000 19.959
12.40000 10.670
12.42000 13.759
12.44000 8.829
12.46000 15.056
12.48000 23.010
12.50000 20.465
12.52000 8.866
12.54000 15.496
12.56000 15.757
12.58000 21.724
12.60000 13.523
12.62000 6.521
12.64000 13.603
12.66000 25.247
12.68000 27.080
12.70000 21.875
12.72000 20.773
12.74000 20.167
12.76000 16.760
12.78000 17.221
12.80000 22.031
12.82000 9.478
12.84000 12.865
12.86000 10.905
12.88000 13.386
12.90000 20.408
12.92000 10.615
12.94000 17.849
12.96000 26.108
12.98000 19.711
13.00000 13.763
13.02000 15.961
13.04000 14.871
13.06000 11.746
13.08000 17.043
13.10000 17.140
13.12000 23.391
13.14000 16.108
13.16000 8.360
13.18000 19.818
13.20000 11.914
13.22000 15.695
13.24000 29.369
13.26000 21.951
13.28000 16.322
13.30000 19.254
13.32000 22.541
13.34000 24.173
13.36000 16.838
13.38000 17.319
13.40000 16.097
13.42000 17.736
13.44000 20.150
13.46000 27.270
13.48000 16.924
13.50000 19.506
13.52000 16.762
13.54000 17.876
13.56000 18.827
13.58000 15.810
13.60000 16.060
13.62000 18.855
13.64000 14.575
13.66000 12.022
13.68000 19.880
13.70000 14.029
13.72000 16.218
13.74000 20.731
13.76000 5.981
13.78000 11.134
13.80000 16.176
13.82000 5.738
13.84000 8.262
13.86000 11.826
13.88000 15.224
13.90000 7.734
13.92000 7.857
13.94000 20.174
13.96000 18.214
13.98000 12.115
14.00000 15.778
14.02000 19.400
14.04000 17.385
14.06000 15.951
14.08000 16.995
14.10000 17.109
14.12000 11.039
14.14000 10.359
14.16000 0.498
14.18000 8.213
14.20000 11.483
14.22000 7.452
14.24000 7.568
14.26000 16.321
14.28000 10.267
14.30000 10.144
14.32000 18.572
14.34000 14.614
14.36000 11.523
14.38000 -2.163
14.40000 1.596
14.42000 3.238
14.44000 6.883
14.46000 12.672
14.48000 14.048
14.50000 10.873
14.52000 8.690
14.54000 10.250
14.56000 22.156
14.58000 12.284
14.60000 11.541
14.62000 -0.449
14.64000 3.052
14.66000 8.054
14.68000 3.552
14.70000 8.451
14.72000 13.121
14.74000 14.495
14.76000 14.421
14.78000 7.311
14.80000 11.459
14.82000 13.464
14.84000 4.091
14.86000 8.995
14.88000 5.991
14.90000 11.912
14.92000 15.827
14.94000 7.188
14.96000 4.747
14.98000 5.778
15.00000 16.369
15.02000 23.728
15.04000 21.083
15.06000 16.735
15.08000 4.578
15.10000 7.057
15.12000 13.207
15.14000 6.746
15.16000 11.769
15.18000 13.251
15.20000 4.919
15.22000 2.297
15.24000 0.965
15.26000 8.703
15.28000 12.526
15.30000 8.231
15.32000 0.948
15.34000 9.365
15.36000 6.715
15.38000 10.500
15.40000 23.110
15.42000 20.958
15.44000 5.586
15.46000 6.886
15.48000 9.847
15.50000 10.859
15.52000 11.461
15.54000 4.239
15.56000 0.282
15.58000 4.519
15.60000 4.897
15.62000 9.305
15.64000 8.765
15.66000 -4.474
15.68000 3.991
15.70000 8.074
15.72000 11.905
15.74000 6.713
15.76000 5.703
15.78000 9.361
15.80000 7.584
15.82000 9.856
15.84000 9.313
15.86000 4.681
15.88000 7.004
15.90000 5.817
15.92000 6.634
15.94000 7.152
15.96000 5.633
15.98000 2.600
16.00000 -1.056
16.02000 10.070
16.04000 15.056
16.06000 10.987
16.08000 14.081
16.10000 14.909
16.12000 8.694
16.14000 7.836
16.16000 8.775
16.18000 14.881
16.20000 3.540
16.22000 10.971
16.24000 11.319
16.26000 12.112
16.28000 9.711
16.30000 7.772
16.32000 8.880
16.34000 10.259
16.36000 10.846
16.38000 5.089
16.40000 4.344
16.42000 5.209
16.44000 -3.175
16.46000 1.944
16.48000 3.231
16.50000 1.138
16.52000 3.077
16.54000 6.018
16.56000 6.823
16.58000 10.927
16.60000 7.142
16.62000 2.786
16.64000 10.399
16.66000 4.443
16.68000 2.555
16.70000 -1.012
16.72000 0.220
16.74000 11.226
16.76000 9.883
16.78000 4.339
16.80000 9.116
16.82000 11.180
16.84000 13.162
16.86000 7.055
16.88000 7.941
16.90000 7.579
16.92000 8.139
16.94000 8.425
16.96000 4.450
16.98000 3.937
17.00000 4.271
17.02000 3.146
17.04000 2.943
17.06000 3.106
17.08000 4.853
17.10000 0.202
17.12000 4.453
17.14000 7.944
17.16000 11.395
17.18000 8.871
17.20000 6.903
17.22000 13.972
17.24000 11.490
17.26000 5.908
17.28000 12.236
17.30000 9.827
17.32000 7.985
17.34000 11.638
17.36000 10.964
17.38000 5.095
17.40000 -4.405
17.42000 -0.231
17.44000 10.144
17.46000 13.909
17.48000 5.190
17.50000 3.981
17.52000 0.175
17.54000 3.354
17.56000 5.769
17.58000 1.427
17.60000 -3.061
17.62000 4.927
17.64000 8.539
17.66000 10.864
17.68000 11.076
17.70000 1.613
17.72000 7.138
17.74000 -2.458
17.76000 -0.729
17.78000 0.486
17.80000 1.030
17.82000 -0.511
17.84000 4.081
17.86000 5.327
17.88000 7.361
17.90000 5.494
17.92000 0.461
17.94000 -0.767
17.96000 5.722
17.98000 1.993
18.00000 2.603
18.02000 4.089
18.04000 4.668
18.06000 7.854
18.08000 4.388
18.10000 -1.423
18.12000 -3.605
18.14000 -0.387
18.16000 4.750
18.18000 5.580
18.20000 8.454
18.22000 2.599
18.24000 2.227
18.26000 4.927
18.28000 -0.653
18.30000 2.794
18.32000 3.585
18.34000 3.276
18.36000 -4.144
18.38000 -1.826
18.40000 -3.774
18.42000 0.031
18.44000 8.165
18.46000 4.075
18.48000 -0.044
18.50000 -4.350
18.52000 2.780
18.54000 1.771
18.56000 4.647
18.58000 1.633
18.60000 3.264
18.62000 2.692
18.64000 1.728
18.66000 8.057
18.68000 7.177
18.70000 5.383
18.72000 5.384
18.74000 -1.764
18.76000 -0.654
18.78000 3.023
18.80000 -1.668
18.82000 4.428
18.84000 1.520
18.86000 -4.327
18.88000 3.335
18.90000 3.297
18.92000 4.715
18.94000 7.788
18.96000 0.774
18.98000 -2.758
19.00000 2.764
19.02000 1.468
19.04000 0.458
19.06000 5.213
19.08000 4.446
19.10000 0.546
19.12000 -3.856
19.14000 2.598
19.16000 3.636
19.18000 2.069
19.20000 1.763
19.22000 -3.293
19.24000 2.779
19.26000 4.362
19.28000 6.238
19.30000 2.506
19.32000 5.346
19.34000 1.908
19.36000 -1.605
19.38000 4.794
19.40000 10.254
19.42000 7.923
19.44000 1.089
19.46000 0.221
19.48000 -4.289
19.50000 -0.050
19.52000 4.883
19.54000 7.894
19.56000 5.082
19.58000 2.276
19.60000 -3.913
19.62000 1.843
19.64000 5.995
19.66000 7.896
19.68000 7.126
19.70000 2.306
19.72000 1.009
19.74000 8.701
19.76000 4.099
19.78000 7.365
19.80000 12.483
19.82000 7.565
19.84000 2.266
19.86000 4.958
19.88000 0.592
19.90000 2.680
19.92000 3.300
19.94000 3.844
19.96000 -0.835
19.98000 -2.483
20.00000 0.919
20.02000 -1.417
20.04000 3.360
20.06000 5.852
20.08000 11.793
20.10000 13.836
20.12000 5.820
20.14000 4.107
20.16000 3.508
20.18000 7.532
20.20000 4.684
20.22000 1.475
20.24000 4.712
20.26000 0.439
20.28000 5.592
20.30000 3.907
20.32000 3.691
20.34000 10.203
20.36000 1.185
20.38000 -1.409
20.40000 8.907
20.42000 12.544
20.44000 12.270
20.46000 12.789
20.48000 8.966
20.50000 -0.654
20.52000 -4.226
20.54000 -2.493
20.56000 3.224
20.58000 7.649
20.60000 -3.285
20.62000 -2.258
20.64000 1.300
20.66000 0.756
20.68000 2.823
20.70000 2.990
20.72000 4.639
20.74000 7.399
20.76000 1.225
20.78000 2.397
20.80000 -0.670
20.82000 5.275
20.84000 4.794
20.86000 7.021
20.88000 8.580
20.90000 3.089
20.92000 3.901
20.94000 1.751
20.96000 4.761
20.98000 8.897
21.00000 3.168
21.02000 3.081
21.04000 6.067
21.06000 2.173
21.08000 4.081
21.10000 5.596
21.12000 -1.377
21.14000 -0.880
21.16000 3.071
21.18000 4.207
21.20000 2.472
21.22000 3.161
21.24000 -0.398
21.26000 5.830
21.28000 5.837
21.30000 -0.042
21.32000 4.380
21.34000 5.986
21.36000 1.315
21.38000 0.104
21.40000 2.637
21.42000 9.109
21.44000 6.266
21.46000 3.023
21.48000 10.430
21.50000 7.573
21.52000 8.406
21.54000 9.117
21.56000 6.034
21.58000 3.591
21.60000 7.429
21.62000 6.312
21.64000 5.445
21.66000 9.186
21.68000 3.557
21.70000 4.243
21.72000 7.397
21.74000 8.203
21.76000 6.411
21.78000 0.478
21.80000 1.497
21.82000 -4.162
21.84000 1.623
21.86000 6.560
21.88000 3.403
21.90000 4.678
21.92000 7.845
21.94000 6.463
21.96000 10.309
21.98000 1.632
22.00000 -1.794
22.02000 -4.146
22.04000 -2.736
22.06000 3.438
22.08000 2.094
22.10000 -0.186
22.12000 2.656
22.14000 5.030
22.16000 3.922
22.18000 1.622
22.20000 0.426
22.22000 8.425
22.24000 2.745
22.26000 1.056
22.28000 5.298
22.30000 5.556
22.32000 7.914
22.34000 1.677
22.36000 5.740
22.38000 8.809
22.40000 2.613
22.42000 -3.085
22.44000 -3.365
22.46000 4.139
22.48000 12.336
22.50000 1.349
22.52000 1.946
22.54000 2.617
22.56000 2.853
22.58000 -1.436
22.60000 -1.811
22.62000 0.526
22.64000 10.574
22.66000 6.865
22.68000 -2.809
22.70000 -3.511
22.72000 -1.721
22.74000 -0.676
22.76000 4.993
22.78000 3.385
22.80000 2.592
22.82000 0.897
22.84000 -2.532
22.86000 2.439
22.88000 6.273
22.90000 7.725
22.92000 7.183
22.94000 -0.122
22.96000 -2.267
22.98000 3.227
23.00000 2.631
23.02000 -0.995
23.04000 2.966
23.06000 13.354
23.08000 12.835
23.10000 6.397
23.12000 5.362
23.14000 3.924
23.16000 2.204
23.18000 6.514
23.20000 5.695
23.22000 1.905
23.24000 9.767
23.26000 12.923
23.28000 3.309
23.30000 -0.544
23.32000 2.396
23.34000 4.991
23.36000 7.024
23.38000 4.084
23.40000 10.135
23.42000 10.305
23.44000 11.115
23.46000 8.512
23.48000 6.302
23.50000 7.050
23.52000 10.142
23.54000 3.686
23.56000 1.831
23.58000 4.118
23.60000 6.462
23.62000 7.847
23.64000 5.187
23.66000 9.563
23.68000 8.284
23.70000 2.185
23.72000 1.355
23.74000 3.613
23.76000 6.228
23.78000 7.016
23.80000 6.238
23.82000 4.587
23.84000 -4.030
23.86000 1.013
23.88000 0.192
23.90000 1.718
23.92000 0.296
23.94000 1.547
23.96000 1.881
23.98000 4.512
24.00000 10.771
24.02000 11.152
24.04000 7.602
24.06000 6.056
24.08000 4.024
24.10000 5.236
24.12000 5.330
24.14000 0.579
24.16000 -0.425
24.18000 -0.377
24.20000 2.267
24.22000 -1.566
24.24000 2.846
24.26000 11.889
24.28000 7.114
24.30000 6.702
24.32000 0.630
24.34000 -1.928
24.36000 6.773
24.38000 6.001
24.40000 5.438
24.42000 3.994
24.44000 2.272
24.46000 4.684
24.48000 2.050
24.50000 0.510
24.52000 -3.995
24.54000 1.174
24.56000 5.795
24.58000 3.079
24.60000 4.696
24.62000 3.265
24.64000 2.684
24.66000 -0.392
24.68000 4.146
24.70000 6.792
24.72000 1.034
24.74000 -2.010
24.76000 -1.045
24.78000 1.904
24.80000 3.311
24.82000 3.409
24.84000 0.163
24.86000 3.755
24.88000 8.066
24.90000 3.579
24.92000 -1.330
24.94000 -3.293
24.96000 4.069
24.98000 5.524
25.00000 8.113
25.02000 5.766
25.04000 3.909
25.06000 5.345
25.08000 -3.992
25.10000 -3.127
25.12000 3.440
25.14000 0.880
25.16000 4.491
25.18000 6.651
25.20000 5.449
25.22000 2.344
25.24000 -0.579
25.26000 6.061
25.28000 5.158
25.30000 3.083
25.32000 -1.936
25.34000 -2.387
25.36000 -2.566
25.38000 0.951
25.40000 4.600
25.42000 1.500
25.44000 4.595
25.46000 5.142
25.48000 1.410
25.50000 -1.150
25.52000 3.055
25.54000 -1.160
25.56000 -0.041
25.58000 0.437
25.60000 -0.293
25.62000 -1.323
25.64000 -0.460
25.66000 3.169
25.68000 6.051
25.70000 5.601
25.72000 -0.401
25.74000 1.179
25.76000 1.265
25.78000 0.185
25.80000 0.169
25.82000 2.907
25.84000 2.459
25.86000 -2.609
25.88000 -2.685
25.90000 -0.032
25.92000 1.394
25.94000 -3.167
25.96000 -2.516
25.98000 -0.417
26.00000 0.552
26.02000 0.251
26.04000 -0.778
26.06000 0.222
26.08000 7.794
26.10000 6.309
26.12000 2.812
26.14000 3.158
26.16000 0.253
26.18000 3.701
26.20000 2.812
26.22000 1.394
26.24000 2.361
26.26000 4.571
26.28000 -1.516
26.30000 0.348
26.32000 1.476
26.34000 2.385
26.36000 0.686
26.38000 -0.705
26.40000 1.212
26.42000 0.907
26.44000 -1.725
26.46000 2.744
26.48000 5.304
26.50000 3.986
26.52000 2.122
26.54000 5.285
26.56000 5.518
26.58000 4.692
26.60000 3.813
26.62000 5.017
26.64000 2.878
26.66000 7.932
26.68000 4.292
26.70000 0.857
26.72000 6.969
26.74000 6.326
26.76000 -0.721
26.78000 -3.253
26.80000 -3.905
26.82000 4.656
26.84000 7.841
26.86000 8.930
26.88000 -0.038
26.90000 2.992
26.92000 6.416
26.94000 0.957
26.96000 -1.479
26.98000 -3.039
27.00000 -2.677
27.02000 -0.389
27.04000 1.723
27.06000 5.834
27.08000 2.259
27.10000 -2.861
27.12000 3.530
27.14000 3.519
27.16000 1.595
27.18000 -2.178
27.20000 -3.880
27.22000 -2.569
27.24000 -1.055
27.26000 -1.249
27.28000 1.403
27.30000 3.212
27.32000 2.340
27.34000 0.678
27.36000 2.162
27.38000 1.787
27.40000 -1.445
27.42000 1.831
27.44000 -3.624
27.46000 -1.365
27.48000 5.539
27.50000 3.772
27.52000 2.172
27.54000 -2.418
27.56000 -3.860
27.58000 -1.254
27.60000 -0.189
27.62000 -1.864
27.64000 -0.331
27.66000 2.433
27.68000 6.750
27.70000 2.023
27.72000 6.916
27.74000 4.808
27.76000 3.680
27.78000 2.322
27.80000 -2.403
27.82000 -0.134
27.84000 1.101
27.86000 0.126
27.88000 5.061
27.90000 2.054
27.92000 3.846
27.94000 3.379
27.96000 5.147
27.98000 -0.490
28.00000 0.664
28.02000 -1.140
28.04000 -2.259
28.06000 2.956
28.08000 8.242
28.10000 3.752
28.12000 3.888
28.14000 0.574
28.16000 -1.312
28.18000 2.359
28.20000 -1.102
28.22000 0.350
28.24000 3.170
28.26000 1.231
28.28000 3.514
28.30000 4.857
28.32000 2.010
28.34000 1.733
28.36000 4.094
28.38000 6.816
28.40000 4.204
28.42000 -1.601
28.44000 -3.811
28.46000 1.348
28.48000 4.522
28.50000 4.829
28.52000 0.554
28.54000 0.652
28.56000 3.033
28.58000 1.403
28.60000 0.521
28.62000 2.027
28.64000 4.059
28.66000 -1.020
28.68000 -1.308
28.70000 2.830
28.72000 8.414
28.74000 2.545
28.76000 4.838
28.78000 1.134
28.80000 3.011
28.82000 -0.110
28.84000 -0.584
28.86000 -2.174
28.88000 -3.795
28.90000 -2.571
28.92000 -1.076
28.94000 -1.555
28.96000 -1.387
28.98000 3.040
29.00000 3.357
29.02000 -3.263
29.04000 0.593
29.06000 6.396
29.08000 1.842
29.10000 1.128
29.12000 -2.399
29.14000 -2.948
29.16000 -3.773
29.18000 -1.288
29.20000 -1.624
29.22000 -1.542
29.24000 6.910
29.26000 5.439
29.28000 -1.962
29.30000 -0.618
29.32000 0.676
29.34000 -2.266
29.36000 0.590
29.38000 6.167
29.40000 -0.638
29.42000 1.025
29.44000 5.125
29.46000 2.633
29.48000 4.619
29.50000 6.942
29.52000 4.799
29.54000 4.177
29.56000 7.908
29.58000 4.822
29.60000 1.827
29.62000 4.300
29.64000 3.721
29.66000 0.004
29.68000 0.054
29.70000 -0.176
29.72000 -3.047
29.74000 -3.734
29.76000 2.046
29.78000 -0.444
29.80000 1.429
29.82000 -3.256
29.84000 0.175
29.86000 1.461
29.88000 3.277
29.90000 1.320
29.92000 6.411
29.94000 1.392
29.96000 -1.837
29.98000 -1.090
30.00000 1.132
30.02000 6.100
30.04000 6.361
30.06000 5.515
30.08000 -0.849
30.10000 -0.036
30.12000 5.128
30.14000 2.880
30.16000 1.313
30.18000 7.579
30.20000 7.658
30.22000 3.997
30.24000 0.098
30.26000 0.532
30.28000 6.062
30.30000 -1.728
30.32000 1.730
30.34000 2.204
30.36000 2.856
30.38000 4.155
30.40000 5.195
30.42000 6.445
30.44000 4.487
30.46000 2.885
30.48000 0.936
30.50000 2.476
30.52000 0.198
30.54000 -2.162
30.56000 -2.631
30.58000 1.268
30.60000 0.081
30.62000 -3.677
30.64000 2.013
30.66000 2.898
30.68000 2.753
30.70000 9.957
30.72000 8.632
30.74000 1.307
30.76000 4.467
30.78000 5.859
30.80000 1.246
30.82000 -0.497
30.84000 0.603
30.86000 1.590
30.88000 1.131
30.90000 2.298
30.92000 2.929
30.94000 6.232
30.96000 9.209
30.98000 7.855
31.00000 8.796
31.02000 7.892
31.04000 3.878
31.06000 0.027
31.08000 -1.039
31.10000 4.065
31.12000 8.099
31.14000 5.601
31.16000 0.929
31.18000 -0.971
31.20000 0.235
31.22000 6.085
31.24000 4.852
31.26000 4.875
31.28000 8.600
31.30000 4.545
31.32000 3.009
31.34000 6.210
31.36000 2.915
31.38000 -3.665
31.40000 -2.939
31.42000 -0.646
31.44000 -1.889
31.46000 -2.600
31.48000 -2.810
31.50000 1.946
31.52000 3.418
31.54000 2.730
31.56000 5.837
31.58000 3.152
31.60000 3.606
31.62000 6.198
31.64000 4.848
31.66000 -0.962
31.68000 -0.285
31.70000 3.429
31.72000 2.773
31.74000 -3.404
31.76000 -0.042
31.78000 3.288
31.80000 7.685
31.82000 3.660
31.84000 2.393
31.86000 3.060
31.88000 0.450
31.90000 1.604
31.92000 2.489
31.94000 -1.122
31.96000 0.710
31.98000 3.556
32.00000 2.618
32.02000 -2.729
32.04000 -2.686
32.06000 6.010
32.08000 8.998
32.10000 6.071
32.12000 4.100
32.14000 -2.599
32.16000 1.343
32.18000 0.963
32.20000 -0.024
32.22000 2.730
32.24000 -0.027
32.26000 -0.781
32.28000 3.051
32.30000 3.850
32.32000 3.081
32.34000 8.417
32.36000 7.319
32.38000 0.900
32.40000 0.015
32.42000 1.397
32.44000 6.154
32.46000 0.992
32.48000 -2.293
32.50000 -3.501
32.52000 -1.185
32.54000 6.052
32.56000 3.932
32.58000 3.334
32.60000 3.633
32.62000 2.658
32.64000 6.220
32.66000 -2.035
32.68000 -3.621
32.70000 6.114
32.72000 7.465
32.74000 8.672
32.76000 2.726
32.78000 -0.867
32.80000 3.130
32.82000 2.897
32.84000 3.454
32.86000 6.240
32.88000 5.519
32.90000 3.937
32.92000 5.463
32.94000 5.491
32.96000 4.039
32.98000 0.913
33.00000 6.292
33.02000 8.412
33.04000 4.254
33.06000 5.518
33.08000 1.837
33.10000 2.249
33.12000 3.213
33.14000 -3.611
33.16000 -2.861
33.18000 3.143
33.20000 0.629
33.22000 -2.377
33.24000 4.778
33.26000 5.341
33.28000 2.691
33.30000 0.008
33.32000 6.572
33.34000 9.201
33.36000 7.754
33.38000 5.620
33.40000 1.651
33.42000 3.153
33.44000 -1.235
33.46000 -1.282
33.48000 0.486
33.50000 -0.787
33.52000 -3.614
33.54000 -1.578
33.56000 3.800
33.58000 2.836
33.60000 1.807
33.62000 3.712
33.64000 4.838
33.66000 4.604
33.68000 7.732
33.70000 7.387
33.72000 7.408
33.74000 3.888
33.76000 2.771
33.78000 3.907
33.80000 5.164
33.82000 5.913
33.84000 4.557
33.86000 3.233
33.88000 2.602
33.90000 5.860
33.92000 7.076
33.94000 6.112
33.96000 0.157
33.98000 0.321
34.00000 -2.462
34.02000 2.394
34.04000 2.308
34.06000 -0.195
34.08000 -1.168
34.10000 3.914
34.12000 2.239
34.14000 0.246
34.16000 2.258
34.18000 0.844
34.20000 -2.041
34.22000 -1.856
34.24000 -2.875
34.26000 1.779
34.28000 8.623
34.30000 8.327
34.32000 6.837
34.34000 3.675
34.36000 3.297
34.38000 7.198
34.40000 5.719
34.42000 0.536
34.44000 0.917
34.46000 1.258
34.48000 0.254
34.50000 1.174
34.52000 0.456
34.54000 -3.588
34.56000 -1.750
34.58000 3.941
34.60000 5.195
34.62000 3.014
34.64000 2.208
34.66000 3.578
34.68000 1.206
34.70000 -1.102
34.72000 -1.282
34.74000 5.448
34.76000 4.657
34.78000 6.477
34.80000 2.742
34.82000 -1.387
34.84000 2.600
34.86000 -0.705
34.88000 1.771
34.90000 4.141
34.92000 -0.802
34.94000 2.948
34.96000 1.146
34.98000 3.018
35.00000 3.019
35.02000 -0.236
35.04000 -1.299
35.06000 6.556
35.08000 8.402
35.10000 10.018
35.12000 4.797
35.14000 1.986
35.16000 5.564
35.18000 3.404
35.20000 -1.139
35.22000 4.907
35.24000 3.949
35.26000 4.376
35.28000 1.331
35.30000 -3.540
35.32000 -0.796
35.34000 5.850
35.36000 2.305
35.38000 2.492
35.40000 3.324
35.42000 6.417
35.44000 6.399
35.46000 2.400
35.48000 2.883
35.50000 2.543
35.52000 1.307
35.54000 2.522
35.56000 1.049
35.58000 4.124
35.60000 -1.090
35.62000 -0.864
35.64000 1.453
35.66000 4.537
35.68000 -1.558
35.70000 -0.681
35.72000 2.840
35.74000 3.214
35.76000 1.897
35.78000 -0.422
35.80000 -3.551
35.82000 2.460
35.84000 8.514
35.86000 13.434
35.88000 5.685
35.90000 -0.013
35.92000 -2.659
35.94000 -2.252
35.96000 -1.664
35.98000 -0.432
36.00000 1.735
36.02000 2.655
36.04000 3.408
36.06000 5.217
36.08000 7.770
36.10000 7.729
36.12000 1.192
36.14000 -0.450
36.16000 2.562
36.18000 4.350
36.20000 1.727
36.22000 2.074
36.24000 0.551
36.26000 1.612
36.28000 0.472
36.30000 0.829
36.32000 -0.913
36.34000 0.640
36.36000 1.802
36.38000 1.111
36.40000 2.877
36.42000 -0.768
36.44000 -1.815
36.46000 -1.592
36.48000 1.418
36.50000 3.609
36.52000 3.234
36.54000 -1.251
36.56000 -0.221
36.58000 2.996
36.60000 4.069
36.62000 3.564
36.64000 8.487
36.66000 8.008
36.68000 2.209
36.70000 -0.557
36.72000 1.010
36.74000 1.030
36.76000 -0.441
36.78000 2.452
36.80000 -0.919
36.82000 -1.587
36.84000 -3.526
36.86000 -0.374
36.88000 4.297
36.90000 1.957
36.92000 -2.074
36.94000 1.969
36.96000 -2.080
36.98000 -0.944
37.00000 -0.551
37.02000 0.715
37.04000 2.839
37.06000 2.462
37.08000 2.833
37.10000 5.771
37.12000 2.855
37.14000 -3.614
37.16000 -0.923
37.18000 0.795
37.20000 -1.618
37.22000 -1.632
37.24000 3.271
37.26000 2.845
37.28000 2.426
37.30000 4.955
37.32000 2.451
37.34000 3.616
37.36000 4.062
37.38000 0.565
37.40000 -0.632
37.42000 0.968
37.44000 3.987
37.46000 6.937
37.48000 2.217
37.50000 1.782
37.52000 4.203
37.54000 1.252
37.56000 4.787
37.58000 0.952
37.60000 3.637
37.62000 3.543
37.64000 6.232
37.66000 11.060
37.68000 13.952
37.70000 8.645
37.72000 7.290
37.74000 8.823
37.76000 6.595
37.78000 8.397
37.80000 10.982
37.82000 10.656
37.84000 6.467
37.86000 6.864
37.88000 12.676
37.90000 18.935
37.92000 12.288
37.94000 14.710
37.96000 16.277
37.98000 10.847
38.00000 9.935
38.02000 10.817
38.04000 13.638
38.06000 12.225
38.08000 14.949
38.10000 13.563
38.12000 12.592
38.14000 15.550
38.16000 14.116
38.18000 15.439
38.20000 21.340
38.22000 21.377
38.24000 22.463
38.26000 17.861
38.28000 16.575
38.30000 20.062
38.32000 24.763
38.34000 23.566
38.36000 24.029
38.38000 27.918
38.40000 27.226
38.42000 25.824
38.44000 29.822
38.46000 25.709
38.48000 23.737
38.50000 24.133
38.52000 28.656
38.54000 31.908
38.56000 32.045
38.58000 39.198
38.60000 37.208
38.62000 34.348
38.64000 31.453
38.66000 31.538
38.68000 37.165
38.70000 41.475
38.72000 40.834
38.74000 45.402
38.76000 46.264
38.78000 46.138
38.80000 48.790
38.82000 53.067
38.84000 56.068
38.86000 59.743
38.88000 56.371
38.90000 59.927
38.92000 66.076
38.94000 64.985
38.96000 64.439
38.98000 68.290
39.00000 70.624
39.02000 75.587
39.04000 83.782
39.06000 84.632
39.08000 83.177
39.10000 84.342
39.12000 90.767
39.14000 95.549
39.16000 104.306
39.18000 110.390
39.20000 106.838
39.22000 107.722
39.24000 115.833
39.26000 126.487
39.28000 134.868
39.30000 137.152
39.32000 140.235
39.34000 154.101
39.36000 161.202
39.38000 167.880
39.40000 178.603
39.42000 193.084
39.44000 198.811
39.46000 202.999
39.48000 213.229
39.50000 221.703
39.52000 237.393
39.54000 250.087
39.56000 262.528
39.58000 269.832
39.60000 288.475
39.62000 310.208
39.64000 323.757
39.66000 329.648
39.68000 350.175
39.70000 367.047
39.72000 382.034
39.74000 400.054
39.76000 415.182
39.78000 424.159
39.80000 447.834
39.82000 466.891
39.84000 489.813
39.86000 511.555
39.88000 528.569
39.90000 537.300
39.92000 552.550
39.94000 561.586
39.96000 582.519
39.98000 585.301
40.00000 583.843
40.02000 597.556
40.04000 606.494
40.06000 607.563
40.08000 601.101
40.10000 616.732
40.12000 623.374
40.14000 614.092
40.16000 610.393
40.18000 597.318
40.20000 595.076
40.22000 590.650
40.24000 582.367
40.26000 557.838
40.28000 547.357
40.30000 536.972
40.32000 513.652
40.34000 501.802
40.36000 489.560
40.38000 471.040
40.40000 460.228
40.42000 449.223
40.44000 435.216
40.46000 407.478
40.48000 383.391
40.50000 370.074
40.52000 364.040
40.54000 347.936
40.56000 323.352
40.58000 308.530
40.60000 295.289
40.62000 280.482
40.64000 269.406
40.66000 249.266
40.68000 235.307
40.70000 224.653
40.72000 212.427
40.74000 201.232
40.76000 195.460
40.78000 191.283
40.80000 174.753
40.82000 161.131
40.84000 155.411
40.86000 147.182
40.88000 133.413
40.90000 123.004
40.92000 119.006
40.94000 115.359
40.96000 106.090
40.98000 98.678
41.00000 92.166
41.02000 90.330
41.04000 83.633
41.06000 82.370
41.08000 80.779
41.10000 75.362
41.12000 72.609
41.14000 66.327
41.16000 68.430
41.18000 61.409
41.20000 55.355
41.22000 48.028
41.24000 48.592
41.26000 43.780
41.28000 42.704
41.30000 41.598
41.32000 39.979
41.34000 42.549
41.36000 39.988
41.38000 35.626
41.40000 34.477
41.42000 29.787
41.44000 31.241
41.46000 33.996
41.48000 27.683
41.50000 25.401
41.52000 28.935
41.54000 26.609
41.56000 19.089
41.58000 23.736
41.60000 21.474
41.62000 20.537
41.64000 18.557
41.66000 16.014
41.68000 18.072
41.70000 20.051
41.72000 17.009
41.74000 14.092
41.76000 12.352
41.78000 13.468
41.80000 10.588
41.82000 12.941
41.84000 11.974
41.86000 10.629
41.88000 10.845
41.90000 15.149
41.92000 12.145
41.94000 9.849
41.96000 7.652
41.98000 5.408
42.00000 6.101
42.02000 6.638
42.04000 3.988
42.06000 5.045
42.08000 5.910
42.10000 5.330
42.12000 2.787
42.14000 3.464
42.16000 3.042
42.18000 5.035
42.20000 7.673
42.22000 8.297
42.24000 4.908
42.26000 2.300
42.28000 5.924
42.30000 6.719
42.32000 2.344
42.34000 -2.121
42.36000 -3.526
42.38000 4.010
42.40000 6.835
42.42000 5.765
42.44000 4.744
42.46000 3.469
42.48000 2.873
42.50000 7.929
42.52000 4.150
42.54000 -0.440
42.56000 4.395
42.58000 1.094
42.60000 2.194
42.62000 1.647
42.64000 1.683
42.66000 2.146
42.68000 2.612
42.70000 -1.848
42.72000 0.302
42.74000 0.306
42.76000 -0.762
42.78000 -0.986
42.80000 -1.369
42.82000 -0.027
42.84000 2.707
42.86000 1.917
42.88000 1.060
42.90000 2.591
42.92000 1.947
42.94000 -1.517
42.96000 -1.571
42.98000 -1.099
43.00000 -1.696
43.02000 -1.347
43.04000 -1.979
43.06000 1.448
43.08000 1.575
43.10000 0.338
43.12000 0.533
43.14000 5.795
43.16000 4.345
43.18000 3.615
43.20000 2.279
43.22000 0.263
43.24000 -2.031
43.26000 -1.083
43.28000 1.703
43.30000 4.050
43.32000 6.478
43.34000 1.239
43.36000 1.837
43.38000 2.087
43.40000 2.443
43.42000 4.263
43.44000 1.543
43.46000 -0.105
43.48000 -3.269
43.50000 -3.371
43.52000 -1.291
43.54000 3.942
43.56000 1.331
43.58000 3.063
43.60000 7.287
43.62000 6.431
43.64000 1.321
43.66000 2.639
43.68000 1.041
43.70000 4.966
43.72000 1.129
43.74000 -2.093
43.76000 -1.326
43.78000 -0.759
43.80000 5.084
43.82000 4.996
43.84000 2.296
43.86000 4.905
43.88000 5.897
43.90000 3.401
43.92000 -2.918
43.94000 -3.359
43.96000 0.673
43.98000 3.516
44.00000 4.768
44.02000 2.073
44.04000 4.977
44.06000 3.281
44.08000 1.531
44.10000 2.198
44.12000 4.100
44.14000 3.270
44.16000 6.512
44.18000 6.038
44.20000 5.093
44.22000 2.346
44.24000 0.364
44.26000 0.417
44.28000 2.601
44.30000 1.495
44.32000 -2.001
44.34000 0.419
44.36000 2.464
44.38000 -0.203
44.40000 -3.375
44.42000 0.554
44.44000 3.717
44.46000 1.270
44.48000 2.300
44.50000 1.235
44.52000 -0.210
44.54000 1.219
44.56000 1.082
44.58000 2.820
44.60000 0.750
44.62000 3.305
44.64000 3.923
44.66000 3.039
44.68000 3.795
44.70000 2.693
44.72000 10.035
44.74000 6.382
44.76000 -1.080
44.78000 -1.187
44.80000 0.404
44.82000 0.334
44.84000 1.608
44.86000 2.143
44.88000 -1.728
44.90000 2.860
44.92000 6.616
44.94000 2.678
44.96000 4.574
44.98000 8.515
45.00000 3.720
45.02000 7.822
45.04000 15.085
45.06000 14.576
45.08000 6.687
45.10000 6.416
45.12000 11.825
45.14000 14.484
45.16000 12.607
45.18000 13.770
45.20000 9.778
45.22000 11.564
45.24000 15.261
45.26000 16.533
45.28000 14.332
45.30000 12.734
45.32000 13.569
45.34000 18.412
45.36000 18.334
45.38000 19.059
45.40000 19.608
45.42000 13.277
45.44000 13.293
45.46000 14.322
45.48000 15.922
45.50000 19.289
45.52000 22.858
45.54000 25.524
45.56000 17.243
45.58000 19.451
45.60000 19.790
45.62000 21.665
45.64000 24.920
45.66000 27.317
45.68000 28.397
45.70000 30.995
45.72000 27.701
45.74000 29.486
45.76000 32.340
45.78000 31.420
45.80000 34.553
45.82000 35.297
45.84000 34.723
45.86000 37.481
45.88000 35.457
45.90000 40.575
45.92000 44.150
45.94000 43.399
45.96000 49.877
45.98000 48.050
46.00000 50.419
46.02000 49.481
46.04000 49.106
46.06000 52.049
46.08000 55.747
46.10000 57.892
46.12000 53.647
46.14000 56.392
46.16000 63.800
46.18000 65.027
46.20000 67.058
46.22000 68.066
46.24000 68.004
46.26000 72.182
46.28000 80.062
46.30000 80.766
46.32000 75.127
46.34000 70.081
46.36000 75.034
46.38000 82.059
46.40000 85.134
46.42000 83.537
46.44000 86.059
46.46000 88.635
46.48000 91.955
46.50000 92.705
46.52000 94.788
46.54000 98.724
46.56000 96.811
46.58000 96.405
46.60000 101.006
46.62000 102.735
46.64000 99.968
46.66000 101.449
46.68000 104.333
46.70000 106.595
46.72000 102.425
46.74000 104.941
46.76000 103.822
46.78000 104.105
46.80000 99.126
46.82000 101.301
46.84000 105.587
46.86000 105.918
46.88000 102.263
46.90000 95.306
46.92000 97.949
46.94000 101.838
46.96000 98.794
46.98000 98.847
47.00000 95.157
47.02000 94.064
47.04000 95.043
47.06000 91.788
47.08000 87.639
47.10000 87.262
47.12000 88.336
47.14000 82.311
47.16000 82.047
47.18000 81.765
47.20000 75.217
47.22000 70.455
47.24000 67.970
47.26000 66.839
47.28000 66.874
47.30000 64.100
47.32000 67.010
47.34000 61.101
47.36000 58.088
47.38000 59.639
47.40000 56.383
47.42000 53.978
47.44000 57.322
47.46000 54.403
47.48000 49.804
47.50000 48.782
47.52000 52.330
47.54000 44.642
47.56000 41.504
47.58000 39.544
47.60000 36.992
47.62000 29.636
47.64000 31.085
47.66000 29.434
47.68000 32.359
47.70000 30.457
47.72000 29.249
47.74000 24.465
47.76000 23.147
47.78000 22.186
47.80000 21.532
47.82000 22.757
47.84000 18.873
47.86000 13.261
47.88000 18.329
47.90000 17.683
47.92000 17.570
47.94000 14.264
47.96000 13.079
47.98000 8.037
48.00000 16.884
48.02000 17.887
48.04000 14.443
48.06000 13.021
48.08000 10.400
48.10000 10.306
48.12000 9.075
48.14000 11.446
48.16000 5.261
48.18000 5.030
48.20000 7.496
48.22000 8.624
48.24000 3.223
48.26000 2.928
48.28000 5.528
48.30000 3.659
48.32000 0.707
48.34000 5.425
48.36000 8.087
48.38000 3.282
48.40000 4.228
48.42000 8.584
48.44000 6.433
48.46000 6.364
48.48000 7.020
48.50000 8.252
48.52000 6.433
48.54000 2.035
48.56000 0.961
48.58000 3.592
48.60000 0.946
48.62000 -2.985
48.64000 2.703
48.66000 3.531
48.68000 3.042
48.70000 6.908
48.72000 7.373
48.74000 4.347
48.76000 5.952
48.78000 3.676
48.80000 2.874
48.82000 2.852
48.84000 7.595
48.86000 6.789
48.88000 1.088
48.90000 2.497
48.92000 6.903
48.94000 3.672
48.96000 1.676
48.98000 3.781
49.00000 1.512
49.02000 0.385
49.04000 2.932
49.06000 3.555
49.08000 1.920
49.10000 5.192
49.12000 8.006
49.14000 10.783
49.16000 1.267
49.18000 -2.873
49.20000 1.131
49.22000 -1.709
49.24000 -1.116
49.26000 0.457
49.28000 1.616
49.30000 6.127
49.32000 1.640
49.34000 -0.648
49.36000 2.764
49.38000 3.200
49.40000 3.769
49.42000 6.510
49.44000 6.750
49.46000 6.205
49.48000 5.609
49.50000 3.835
49.52000 0.387
49.54000 0.847
49.56000 1.869
49.58000 -0.225
49.60000 0.164
49.62000 -0.026
49.64000 2.400
49.66000 0.965
49.68000 3.580
49.70000 4.144
49.72000 2.826
49.74000 3.012
49.76000 3.914
49.78000 3.816
49.80000 6.378
49.82000 6.960
49.84000 4.821
49.86000 2.592
49.88000 1.815
49.90000 2.002
49.92000 0.926
49.94000 2.050
49.96000 1.062
49.98000 4.286
50.00000 4.574
50.02000 6.371
50.04000 5.313
50.06000 1.495
50.08000 1.220
50.10000 2.321
50.12000 4.007
50.14000 5.358
50.16000 1.152
50.18000 -0.160
50.20000 0.778
50.22000 2.429
50.24000 3.566
50.26000 6.617
50.28000 8.299
50.30000 6.064
50.32000 1.643
50.34000 4.181
50.36000 6.487
50.38000 2.736
50.40000 -1.424
50.42000 2.083
50.44000 1.690
50.46000 0.614
50.48000 4.804
50.50000 5.917
50.52000 3.942
50.54000 1.898
50.56000 1.805
50.58000 0.464
50.60000 0.316
50.62000 2.448
50.64000 -0.883
50.66000 -2.767
50.68000 -0.072
50.70000 1.577
50.72000 7.389
50.74000 7.240
50.76000 5.117
50.78000 6.561
50.80000 3.662
50.82000 1.339
50.84000 5.927
50.86000 2.071
50.88000 -0.554
50.90000 -0.657
50.92000 2.233
50.94000 4.352
50.96000 0.039
50.98000 -0.456
51.00000 0.667
51.02000 2.126
51.04000 2.189
51.06000 3.199
51.08000 5.581
51.10000 6.239
51.12000 3.786
51.14000 2.599
51.16000 -0.302
51.18000 -0.552
51.20000 2.903
51.22000 4.446
51.24000 3.965
51.26000 2.201
51.28000 -2.775
51.30000 1.265
51.32000 2.076
51.34000 -0.939
51.36000 1.595
51.38000 0.830
51.40000 0.515
51.42000 0.304
51.44000 1.867
51.46000 1.380
51.48000 1.296
51.50000 1.376
51.52000 -2.226
51.54000 -1.840
51.56000 -0.262
51.58000 1.489
51.60000 5.537
51.62000 7.251
51.64000 3.292
51.66000 -1.506
51.68000 -1.324
51.70000 3.126
51.72000 0.006
51.74000 3.118
51.76000 0.890
51.78000 -1.582
51.80000 0.954
51.82000 -0.333
51.84000 -0.478
51.86000 1.663
51.88000 -1.057
51.90000 1.459
51.92000 4.838
51.94000 1.290
51.96000 -0.509
51.98000 6.454
52.00000 3.051
52.02000 0.760
52.04000 1.521
52.06000 1.482
52.08000 2.907
52.10000 -0.256
52.12000 -0.421
52.14000 3.418
52.16000 -0.904
52.18000 0.841
52.20000 4.501
52.22000 7.033
52.24000 3.023
52.26000 1.409
52.28000 1.265
52.30000 0.977
52.32000 0.812
52.34000 0.432
52.36000 -0.562
52.38000 5.023
52.40000 3.807
52.42000 2.180
52.44000 0.016
52.46000 0.148
52.48000 1.570
52.50000 -1.454
52.52000 -1.386
52.54000 0.294
52.56000 2.423
52.58000 1.941
52.60000 0.904
52.62000 3.082
52.64000 3.283
52.66000 3.284
52.68000 2.613
52.70000 1.143
52.72000 3.005
52.74000 0.945
52.76000 -1.657
52.78000 -0.055
52.80000 2.872
52.82000 0.391
52.84000 4.155
52.86000 3.207
52.88000 -2.478
52.90000 -2.688
52.92000 2.926
52.94000 7.384
52.96000 4.728
52.98000 1.874
53.00000 0.356
53.02000 -0.106
53.04000 2.511
53.06000 3.786
53.08000 5.074
53.10000 3.543
53.12000 0.811
53.14000 -0.565
53.16000 2.570
53.18000 7.903
53.20000 5.483
53.22000 6.080
53.24000 6.901
53.26000 7.776
53.28000 4.871
53.30000 2.039
53.32000 2.536
53.34000 2.024
53.36000 0.293
53.38000 5.023
53.40000 6.576
53.42000 6.066
53.44000 3.835
53.46000 2.558
53.48000 3.796
53.50000 3.686
53.52000 6.273
53.54000 0.830
53.56000 -2.645
53.58000 3.191
53.60000 4.615
53.62000 6.023
53.64000 5.957
53.66000 2.971
53.68000 3.416
53.70000 6.969
53.72000 5.140
53.74000 4.571
53.76000 5.567
53.78000 6.171
53.80000 5.795
53.82000 7.532
53.84000 1.323
53.86000 0.126
53.88000 4.510
53.90000 7.231
53.92000 4.808
53.94000 5.072
53.96000 3.176
53.98000 2.039
54.00000 4.542
54.02000 -0.564
54.04000 -2.654
54.06000 4.167
54.08000 3.201
54.10000 6.095
54.12000 5.689
54.14000 3.277
54.16000 4.302
54.18000 0.860
54.20000 3.234
54.22000 5.384
54.24000 2.687
54.26000 6.378
54.28000 2.972
54.30000 5.353
54.32000 6.051
54.34000 1.876
54.36000 5.578
54.38000 2.509
54.40000 0.760
54.42000 -0.266
54.44000 -2.656
54.46000 -1.910
54.48000 2.758
54.50000 7.621
54.52000 4.117
54.54000 2.545
54.56000 2.037
54.58000 1.835
54.60000 0.947
54.62000 3.125
54.64000 1.508
54.66000 -0.318
54.68000 -1.627
54.70000 4.945
54.72000 7.201
54.74000 3.195
54.76000 1.209
54.78000 2.054
54.80000 5.699
54.82000 0.660
54.84000 -2.652
54.86000 0.263
54.88000 1.465
54.90000 2.053
54.92000 1.526
54.94000 4.001
54.96000 2.266
54.98000 0.832
55.00000 0.568
55.02000 -0.211
55.04000 -0.938
55.06000 2.348
55.08000 2.802
55.10000 1.536
55.12000 -1.078
55.14000 1.253
55.16000 0.998
55.18000 -0.316
55.20000 0.407
55.22000 -1.418
55.24000 1.120
55.26000 0.097
55.28000 2.652
55.30000 2.261
55.32000 5.188
55.34000 4.740
55.36000 5.968
55.38000 5.589
55.40000 8.633
55.42000 3.157
55.44000 3.974
55.46000 2.239
55.48000 -2.634
55.50000 0.539
55.52000 2.845
55.54000 3.033
55.56000 1.139
55.58000 2.631
55.60000 -1.648
55.62000 0.946
55.64000 5.618
55.66000 7.303
55.68000 -0.208
55.70000 0.272
55.72000 2.947
55.74000 3.499
55.76000 3.472
55.78000 1.690
55.80000 1.531
55.82000 2.218
55.84000 0.155
55.86000 1.999
55.88000 1.118
55.90000 0.799
55.92000 4.250
55.94000 0.824
55.96000 1.124
55.98000 2.998
56.00000 1.440
56.02000 5.957
56.04000 2.397
56.06000 1.955
56.08000 2.081
56.10000 3.184
56.12000 -0.392
56.14000 -2.614
56.16000 0.972
56.18000 6.821
56.20000 4.533
56.22000 3.748
56.24000 0.939
56.26000 0.457
56.28000 1.783
56.30000 -0.614
56.32000 -1.609
56.34000 -2.382
56.36000 -0.472
56.38000 0.899
56.40000 1.499
56.42000 0.277
56.44000 -0.086
56.46000 -1.744
56.48000 -0.166
56.50000 2.712
56.52000 3.215
56.54000 1.378
56.56000 0.094
56.58000 -2.477
56.60000 -2.606
56.62000 -1.384
56.64000 3.458
56.66000 3.791
56.68000 -0.031
56.70000 3.274
56.72000 4.827
56.74000 4.268
56.76000 1.934
56.78000 3.844
56.80000 4.273
56.82000 4.019
56.84000 -0.157
56.86000 -0.183
56.88000 2.502
56.90000 4.216
56.92000 3.749
56.94000 3.031
56.96000 -1.532
56.98000 4.319
57.00000 1.081
57.02000 1.338
57.04000 4.873
57.06000 2.488
57.08000 0.265
57.10000 0.817
57.12000 2.667
57.14000 4.368
57.16000 2.720
57.18000 1.433
57.20000 -0.464
57.22000 0.187
57.24000 -1.401
57.26000 4.051
57.28000 5.316
57.30000 4.117
57.32000 2.825
57.34000 3.317
57.36000 2.541
57.38000 1.994
57.40000 1.693
57.42000 4.178
57.44000 5.241
57.46000 -2.233
57.48000 -1.466
57.50000 2.002
57.52000 2.687
57.54000 0.285
57.56000 0.883
57.58000 2.320
57.60000 -1.474
57.62000 1.319
57.64000 1.144
57.66000 2.379
57.68000 -1.492
57.70000 -0.959
57.72000 1.220
57.74000 4.664
57.76000 2.938
57.78000 4.576
57.80000 5.754
57.82000 2.243
57.84000 2.903
57.86000 3.646
57.88000 3.763
57.90000 4.839
57.92000 4.437
57.94000 2.837
57.96000 -0.276
57.98000 -2.513
58.00000 2.150
58.02000 7.875
58.04000 6.505
58.06000 7.511
58.08000 6.273
58.10000 5.028
58.12000 2.541
58.14000 7.531
58.16000 11.465
58.18000 6.103
58.20000 2.707
58.22000 7.996
58.24000 5.754
58.26000 0.961
58.28000 1.317
58.30000 2.341
58.32000 5.562
58.34000 2.700
58.36000 1.735
58.38000 1.185
58.40000 -1.278
58.42000 -0.285
58.44000 1.885
58.46000 1.913
58.48000 3.027
58.50000 6.414
58.52000 8.777
58.54000 5.288
58.56000 0.235
58.58000 6.556
58.60000 4.069
58.62000 3.062
58.64000 4.430
58.66000 0.522
58.68000 3.077
58.70000 4.781
58.72000 1.619
58.74000 2.415
58.76000 4.519
58.78000 1.119
58.80000 -2.200
58.82000 -2.535
58.84000 -0.470
58.86000 1.432
58.88000 3.563
58.90000 1.962
58.92000 6.239
58.94000 0.904
58.96000 2.150
58.98000 2.610
59.00000 -1.716
59.02000 -0.817
59.04000 1.197
59.06000 4.513
59.08000 2.092
59.10000 -0.224
59.12000 0.310
59.14000 2.298
59.16000 1.999
59.18000 1.906
59.20000 -0.229
59.22000 0.002
59.24000 2.055
59.26000 3.181
59.28000 0.329
59.30000 -1.927
59.32000 1.351
59.34000 3.298
59.36000 1.590
59.38000 1.060
59.40000 2.887
59.42000 1.867
59.44000 0.142
59.46000 -2.533
59.48000 0.258
59.50000 1.751
59.52000 2.673
59.54000 -0.665
59.56000 0.348
59.58000 1.292
59.60000 -1.034
59.62000 0.198
59.64000 3.205
59.66000 4.174
59.68000 6.420
59.70000 4.790
59.72000 -0.587
59.74000 1.769
59.76000 1.210
59.78000 3.333
59.80000 3.045
59.82000 -1.112
59.84000 -0.482
59.86000 1.053
59.88000 1.751
59.90000 -1.657
59.92000 1.379
59.94000 -1.307
59.96000 -1.984
59.98000 1.273
60.00000 3.587
60.02000 2.107
60.04000 -0.277
60.06000 -2.510
60.08000 -0.505
60.10000 -0.195
60.12000 4.652
60.14000 2.496
60.16000 -0.218
60.18000 4.186
60.20000 3.509
60.22000 0.119
60.24000 1.631
60.26000 0.275
60.28000 0.596
60.30000 -0.585
60.32000 -2.499
60.34000 -0.629
60.36000 2.065
60.38000 1.489
60.40000 0.576
60.42000 0.430
60.44000 -0.534
60.46000 1.788
60.48000 2.962
60.50000 1.389
60.52000 2.987
60.54000 2.713
60.56000 0.139
60.58000 1.668
60.60000 2.614
60.62000 1.124
60.64000 -0.820
60.66000 -2.181
60.68000 4.735
60.70000 5.565
60.72000 0.726
60.74000 1.041
60.76000 3.284
60.78000 5.299
60.80000 4.227
60.82000 6.461
60.84000 -0.199
60.86000 -1.087
60.88000 4.366
60.90000 3.141
60.92000 2.987
60.94000 2.818
60.96000 5.193
60.98000 5.401
61.00000 2.903
61.02000 2.536
61.04000 2.261
61.06000 2.917
61.08000 3.811
61.10000 3.601
61.12000 0.166
61.14000 0.628
61.16000 -1.435
61.18000 -0.510
61.20000 0.988
61.22000 5.720
61.24000 5.064
61.26000 2.353
61.28000 6.229
61.30000 3.153
61.32000 -2.436
61.34000 4.807
61.36000 7.287
61.38000 4.518
61.40000 3.712
61.42000 1.055
61.44000 0.351
61.46000 2.237
61.48000 1.678
61.50000 -0.155
61.52000 2.772
61.54000 0.924
61.56000 1.618
61.58000 4.125
61.60000 5.796
61.62000 5.668
61.64000 10.668
61.66000 4.280
61.68000 2.447
61.70000 5.325
61.72000 7.297
61.74000 2.702
61.76000 3.785
61.78000 8.032
61.80000 6.295
61.82000 4.304
61.84000 5.552
61.86000 6.789
61.88000 6.503
61.90000 0.619
61.92000 0.991
61.94000 2.055
61.96000 1.781
61.98000 1.589
62.00000 0.053
62.02000 3.593
62.04000 1.891
62.06000 3.946
62.08000 2.431
62.10000 3.964
62.12000 4.339
62.14000 8.607
62.16000 7.978
62.18000 4.635
62.20000 1.270
62.22000 -2.442
62.24000 3.162
62.26000 2.278
62.28000 1.271
62.30000 6.271
62.32000 6.691
62.34000 5.448
62.36000 4.360
62.38000 2.371
62.40000 1.901
62.42000 3.964
62.44000 4.340
62.46000 -0.542
62.48000 0.988
62.50000 2.130
62.52000 3.932
62.54000 1.310
62.56000 3.970
62.58000 1.312
62.60000 -0.055
62.62000 0.708
62.64000 3.453
62.66000 0.286
62.68000 1.770
62.70000 3.168
62.72000 1.757
62.74000 2.699
62.76000 3.422
62.78000 3.484
62.80000 1.164
62.82000 0.430
62.84000 0.029
62.86000 1.908
62.88000 2.715
62.90000 1.604
62.92000 0.430
62.94000 -0.198
62.96000 1.633
62.98000 1.928
63.00000 0.913
63.02000 1.986
63.04000 1.510
63.06000 -1.203
63.08000 -1.047
63.10000 -2.185
63.12000 -1.328
63.14000 4.064
63.16000 3.886
63.18000 0.304
63.20000 -1.424
63.22000 0.647
63.24000 3.349
63.26000 4.814
63.28000 1.113
63.30000 2.096
63.32000 2.027
63.34000 3.654
63.36000 1.559
63.38000 -1.037
63.40000 0.206
63.42000 0.203
63.44000 2.850
63.46000 1.827
63.48000 2.153
63.50000 1.515
63.52000 -1.106
63.54000 1.517
63.56000 1.332
63.58000 1.076
63.60000 -2.444
63.62000 -1.950
63.64000 1.218
63.66000 2.979
63.68000 0.530
63.70000 0.608
63.72000 0.561
63.74000 -1.989
63.76000 -2.436
63.78000 -2.436
63.80000 0.294
63.82000 -0.489
63.84000 0.777
63.86000 2.537
63.88000 1.110
63.90000 3.543
63.92000 4.485
63.94000 2.108
63.96000 1.159
63.98000 0.542
64.00000 2.108
64.02000 1.619
64.04000 2.827
64.06000 0.971
64.08000 0.798
64.10000 2.293
64.12000 0.201
64.14000 1.120
64.16000 -1.112
64.18000 -1.512
64.20000 1.403
64.22000 1.117
64.24000 2.523
64.26000 2.625
64.28000 1.701
64.30000 1.361
64.32000 2.176
64.34000 0.306
64.36000 1.355
64.38000 0.301
64.40000 -1.639
64.42000 -2.465
64.44000 0.289
64.46000 1.330
64.48000 2.015
64.50000 2.880
64.52000 -0.751
64.54000 -0.285
64.56000 1.027
64.58000 -0.995
64.60000 1.344
64.62000 0.644
64.64000 0.757
64.66000 2.781
64.68000 2.193
64.70000 2.381
64.72000 3.651
64.74000 2.089
64.76000 -0.488
64.78000 2.748
64.80000 3.572
64.82000 2.483
64.84000 -0.712
64.86000 -1.038
64.88000 0.325
64.90000 1.996
64.92000 0.554
64.94000 1.130
64.96000 2.446
64.98000 2.241
65.00000 0.690
65.02000 -0.821
65.04000 2.944
65.06000 4.935
65.08000 0.808
65.10000 0.841
65.12000 0.235
65.14000 -0.123
65.16000 -1.333
65.18000 0.376
65.20000 2.334
65.22000 2.522
65.24000 -0.585
65.26000 3.496
65.28000 3.275
65.30000 2.833
65.32000 1.151
65.34000 1.279
65.36000 0.273
65.38000 -1.636
65.40000 0.622
65.42000 5.118
65.44000 4.984
65.46000 3.929
65.48000 1.419
65.50000 1.277
65.52000 -2.473
65.54000 -2.030
65.56000 -0.247
65.58000 0.435
65.60000 -1.038
65.62000 0.479
65.64000 2.962
65.66000 3.519
65.68000 0.003
65.70000 0.851
65.72000 -0.832
65.74000 1.535
65.76000 4.251
65.78000 2.245
65.80000 0.947
65.82000 -2.003
65.84000 -1.846
65.86000 -0.795
65.88000 -1.213
65.90000 1.765
65.92000 -0.091
65.94000 -1.509
65.96000 0.622
65.98000 0.617
66.00000 -1.015
66.02000 1.207
66.04000 0.887
66.06000 0.945
66.08000 -1.181
66.10000 0.608
66.12000 -0.528
66.14000 3.321
66.16000 3.147
66.18000 1.142
66.20000 -1.216
66.22000 -1.088
66.24000 -0.184
66.26000 -0.128
66.28000 -1.923
66.30000 -1.757
66.32000 0.498
66.34000 2.531
66.36000 2.444
66.38000 -0.033
66.40000 -2.532
66.42000 1.064
66.44000 3.052
66.46000 2.706
66.48000 4.713
66.50000 5.035
66.52000 2.493
66.54000 1.589
66.56000 1.020
66.58000 0.569
66.60000 1.268
66.62000 2.363
66.64000 0.052
66.66000 0.791
66.68000 0.215
66.70000 -0.851
66.72000 1.190
66.74000 2.295
66.76000 0.478
66.78000 4.949
66.80000 6.376
66.82000 3.890
66.84000 1.786
66.86000 2.149
66.88000 5.045
66.90000 3.291
66.92000 2.362
66.94000 1.877
66.96000 3.711
66.98000 1.455
67.00000 2.422
67.02000 3.635
67.04000 3.679
67.06000 4.552
67.08000 6.958
67.10000 6.163
67.12000 5.730
67.14000 8.123
67.16000 10.016
67.18000 7.424
67.20000 3.012
67.22000 3.984
67.24000 7.886
67.26000 7.155
67.28000 7.469
67.30000 5.753
67.32000 8.271
67.34000 7.666
67.36000 9.431
67.38000 10.387
67.40000 10.630
67.42000 7.468
67.44000 5.503
67.46000 9.794
67.48000 10.221
67.50000 9.994
67.52000 9.907
67.54000 10.960
67.56000 10.220
67.58000 12.348
67.60000 12.762
67.62000 13.860
67.64000 15.184
67.66000 12.512
67.68000 12.314
67.70000 13.006
67.72000 13.092
67.74000 15.780
67.76000 16.185
67.78000 19.269
67.80000 19.399
67.82000 16.483
67.84000 17.725
67.86000 17.896
67.88000 16.993
67.90000 16.970
67.92000 15.818
67.94000 17.758
67.96000 19.152
67.98000 16.144
68.00000 15.265
68.02000 19.910
68.04000 21.157
68.06000 19.028
68.08000 19.808
68.10000 23.279
68.12000 22.038
68.14000 18.358
68.16000 21.555
68.18000 23.034
68.20000 23.270
68.22000 23.695
68.24000 24.249
68.26000 25.404
68.28000 22.889
68.30000 21.867
68.32000 20.358
68.34000 22.368
68.36000 23.818
68.38000 21.050
68.40000 22.228
68.42000 21.484
68.44000 22.226
68.46000 21.054
68.48000 20.769
68.50000 20.851
68.52000 18.301
68.54000 18.783
68.56000 18.753
68.58000 19.532
68.60000 17.111
68.62000 13.392
68.64000 13.987
68.66000 15.631
68.68000 16.385
68.70000 15.252
68.72000 16.034
68.74000 15.860
68.76000 12.648
68.78000 13.654
68.80000 11.768
68.82000 9.423
68.84000 10.858
68.86000 10.154
68.88000 10.631
68.90000 12.873
68.92000 12.797
68.94000 10.833
68.96000 10.610
68.98000 8.327
69.00000 5.957
69.02000 8.077
69.04000 10.203
69.06000 11.356
69.08000 9.435
69.10000 6.703
69.12000 7.611
69.14000 5.393
69.16000 2.972
69.18000 4.122
69.20000 3.559
69.22000 3.711
69.24000 3.093
69.26000 1.639
69.28000 2.776
69.30000 3.475
69.32000 2.212
69.34000 3.737
69.36000 1.991
69.38000 1.585
69.40000 1.830
69.42000 1.569
69.44000 2.578
69.46000 1.625
69.48000 1.793
69.50000 4.095
69.52000 0.606
69.54000 0.542
69.56000 -2.052
69.58000 -1.070
69.60000 0.663
69.62000 1.619
69.64000 -0.685
69.66000 1.057
69.68000 2.126
69.70000 0.293
69.72000 -2.287
69.74000 -2.379
69.76000 1.336
69.78000 -0.403
69.80000 2.254
69.82000 4.603
69.84000 4.489
69.86000 3.535
69.88000 1.273
69.90000 -0.200
69.92000 -1.457
69.94000 -0.225
69.96000 1.998
69.98000 1.742
70.00000 3.285
70.02000 -0.312
70.04000 1.688
70.06000 -2.426
70.08000 0.915
70.10000 1.527
70.12000 2.708
70.14000 3.191
70.16000 0.983
70.18000 0.920
70.20000 -0.675
70.22000 1.228
70.24000 1.828
70.26000 -1.058
70.28000 -2.395
70.30000 2.129
70.32000 1.632
70.34000 1.152
70.36000 0.706
70.38000 -1.340
70.40000 1.141
70.42000 5.105
70.44000 4.572
70.46000 2.503
70.48000 2.440
70.50000 0.998
70.52000 -1.415
70.54000 1.556
70.56000 0.802
70.58000 2.351
70.60000 2.090
70.62000 2.608
70.64000 1.566
70.66000 -0.278
70.68000 0.357
70.70000 0.044
70.72000 2.691
70.74000 -0.127
70.76000 1.003
70.78000 2.579
70.80000 1.955
70.82000 -0.368
70.84000 2.029
70.86000 3.771
70.88000 -0.280
70.90000 -2.365
70.92000 -0.879
70.94000 1.014
70.96000 1.878
70.98000 0.488
71.00000 -0.584
71.02000 -1.266
71.04000 0.206
71.06000 2.216
71.08000 -2.143
71.10000 0.067
71.12000 0.608
71.14000 2.777
71.16000 0.994
71.18000 2.621
71.20000 -0.362
71.22000 -2.354
71.24000 3.040
71.26000 3.495
71.28000 1.373
71.30000 2.251
71.32000 7.219
71.34000 6.544
71.36000 1.795
71.38000 1.174
71.40000 1.201
71.42000 0.761
71.44000 5.103
71.46000 3.174
71.48000 0.098
71.50000 -0.569
71.52000 -0.465
71.54000 -1.865
71.56000 -1.812
71.58000 -0.546
71.60000 0.928
71.62000 4.762
71.64000 4.439
71.66000 3.093
71.68000 3.836
71.70000 4.530
71.72000 5.413
71.74000 5.298
71.76000 2.671
71.78000 10.168
71.80000 8.869
71.82000 2.566
71.84000 1.568
71.86000 3.568
71.88000 8.312
71.90000 3.859
71.92000 3.336
71.94000 0.545
71.96000 4.757
71.98000 6.067
72.00000 6.726
72.02000 6.842
72.04000 6.265
72.06000 2.961
72.08000 -2.258
72.10000 2.791
72.12000 8.626
72.14000 5.235
72.16000 3.547
72.18000 0.955
72.20000 3.737
72.22000 6.358
72.24000 4.744
72.26000 2.848
72.28000 1.625
72.30000 1.975
72.32000 2.614
72.34000 3.576
72.36000 5.187
72.38000 7.404
72.40000 4.309
72.42000 2.936
72.44000 3.924
72.46000 5.799
72.48000 5.279
72.50000 6.892
72.52000 3.411
72.54000 7.326
72.56000 7.266
72.58000 5.745
72.60000 4.817
72.62000 5.676
72.64000 0.985
72.66000 4.948
72.68000 2.009
72.70000 0.595
72.72000 1.170
72.74000 4.196
72.76000 4.437
72.78000 3.913
72.80000 0.682
72.82000 2.092
72.84000 5.270
72.86000 2.415
72.88000 6.617
72.90000 6.324
72.92000 5.616
72.94000 5.054
72.96000 4.743
72.98000 5.663
73.00000 2.094
73.02000 -1.196
73.04000 0.419
73.06000 0.109
73.08000 3.213
73.10000 3.323
73.12000 1.235
73.14000 0.799
73.16000 -2.252
73.18000 0.842
73.20000 4.869
73.22000 3.056
73.24000 1.712
73.26000 4.276
73.28000 4.076
73.30000 3.388
73.32000 2.063
73.34000 3.429
73.36000 5.242
73.38000 3.524
73.40000 2.335
73.42000 0.891
73.44000 1.597
73.46000 7.393
73.48000 6.158
73.50000 3.597
73.52000 0.684
73.54000 4.315
73.56000 5.649
73.58000 1.904
73.60000 7.919
73.62000 4.156
73.64000 1.361
73.66000 2.333
73.68000 7.972
73.70000 4.923
73.72000 -1.565
73.74000 0.779
73.76000 -0.546
73.78000 0.008
73.80000 3.049
73.82000 4.729
73.84000 7.645
73.86000 3.701
73.88000 4.580
73.90000 5.167
73.92000 3.278
73.94000 2.311
73.96000 2.703
73.98000 2.383
74.00000 4.716
74.02000 1.675
74.04000 0.727
74.06000 4.534
74.08000 7.016
74.10000 3.299
74.12000 0.241
74.14000 2.163
74.16000 3.609
74.18000 5.778
74.20000 0.361
74.22000 4.426
74.24000 6.039
74.26000 1.481
74.28000 -0.214
74.30000 -0.122
74.32000 4.501
74.34000 4.559
74.36000 6.941
74.38000 3.131
74.40000 6.287
74.42000 5.304
74.44000 2.219
74.46000 2.936
74.48000 5.399
74.50000 3.861
74.52000 4.320
74.54000 0.628
74.56000 1.729
74.58000 1.327
74.60000 -2.217
74.62000 2.199
74.64000 2.291
74.66000 5.332
74.68000 7.750
74.70000 6.718
74.72000 5.701
74.74000 8.206
74.76000 8.591
74.78000 1.000
74.80000 0.488
74.82000 1.360
74.84000 2.402
74.86000 -0.467
74.88000 2.565
74.90000 3.253
74.92000 0.055
74.94000 4.567
74.96000 8.135
74.98000 6.388
75.00000 5.124
75.02000 4.168
75.04000 -0.191
75.06000 1.415
75.08000 3.686
75.10000 5.764
75.12000 3.149
75.14000 5.081
75.16000 6.432
75.18000 6.968
75.20000 7.077
75.22000 4.059
75.24000 5.935
75.26000 6.140
75.28000 6.984
75.30000 4.036
75.32000 3.480
75.34000 3.010
75.36000 -0.037
75.38000 3.565
75.40000 6.326
75.42000 6.107
75.44000 4.662
75.46000 3.516
75.48000 4.878
75.50000 6.638
75.52000 5.934
75.54000 1.622
75.56000 1.719
75.58000 4.085
75.60000 10.291
75.62000 7.200
75.64000 6.939
75.66000 3.639
75.68000 6.551
75.70000 8.638
75.72000 8.282
75.74000 8.269
75.76000 7.880
75.78000 5.535
75.80000 3.386
75.82000 0.428
75.84000 -2.204
75.86000 -1.513
75.88000 1.369
75.90000 4.047
75.92000 8.177
75.94000 9.605
75.96000 6.748
75.98000 9.359
76.00000 7.489
76.02000 1.867
76.04000 -0.160
76.06000 2.916
76.08000 4.647
76.10000 2.392
76.12000 0.366
76.14000 7.255
76.16000 7.538
76.18000 6.618
76.20000 -0.514
76.22000 2.536
76.24000 3.944
76.26000 2.574
76.28000 7.484
76.30000 3.684
76.32000 1.530
76.34000 -0.027
76.36000 2.982
76.38000 7.657
76.40000 5.702
76.42000 5.705
76.44000 6.617
76.46000 4.485
76.48000 1.587
76.50000 4.279
76.52000 4.510
76.54000 2.909
76.56000 0.236
76.58000 2.541
76.60000 1.170
76.62000 0.696
76.64000 1.937
76.66000 4.558
76.68000 3.167
76.70000 2.951
76.72000 4.381
76.74000 6.483
76.76000 1.684
76.78000 3.676
76.80000 3.362
76.82000 5.575
76.84000 6.033
76.86000 3.120
76.88000 2.902
76.90000 1.843
76.92000 1.392
76.94000 4.402
76.96000 4.443
76.98000 4.178
77.00000 1.945
77.02000 2.876
77.04000 0.111
77.06000 -1.613
77.08000 1.940
77.10000 5.779
77.12000 4.172
77.14000 2.472
77.16000 1.032
77.18000 -0.375
77.20000 4.754
77.22000 5.037
77.24000 7.157
77.26000 5.547
77.28000 4.099
77.30000 0.813
77.32000 4.939
77.34000 6.192
77.36000 5.770
77.38000 4.821
77.40000 -0.395
77.42000 -0.836
77.44000 0.733
77.46000 1.095
77.48000 2.808
77.50000 3.917
77.52000 3.407
77.54000 2.280
77.56000 5.364
77.58000 1.190
77.60000 2.663
77.62000 1.517
77.64000 1.124
77.66000 2.837
77.68000 3.149
77.70000 2.912
77.72000 1.366
77.74000 -2.280
77.76000 3.386
77.78000 5.735
77.80000 4.209
77.82000 4.591
77.84000 2.478
77.86000 1.024
77.88000 2.581
77.90000 3.850
77.92000 3.457
77.94000 6.223
77.96000 7.898
77.98000 3.763
78.00000 3.093
78.02000 8.041
78.04000 8.081
78.06000 6.364
78.08000 7.058
78.10000 6.006
78.12000 7.242
78.14000 7.376
78.16000 5.327
78.18000 3.573
78.20000 4.243
78.22000 5.774
78.24000 2.246
78.26000 -2.303
78.28000 1.311
78.30000 6.316
78.32000 6.604
78.34000 6.781
78.36000 2.457
78.38000 -0.398
78.40000 -1.533
78.42000 1.992
78.44000 4.678
78.46000 1.950
78.48000 4.563
78.50000 8.763
78.52000 5.942
78.54000 5.343
78.56000 4.748
78.58000 2.466
78.60000 3.068
78.62000 2.161
78.64000 1.495
78.66000 2.121
78.68000 5.121
78.70000 3.042
78.72000 3.375
78.74000 0.848
78.76000 -2.332
78.78000 -0.840
78.80000 -1.893
78.82000 -0.362
78.84000 2.405
78.86000 3.973
78.88000 0.671
78.90000 -1.104
78.92000 0.983
78.94000 1.503
78.96000 2.291
78.98000 1.066
79.00000 2.660
79.02000 0.599
79.04000 4.458
79.06000 6.194
79.08000 7.430
79.10000 6.346
79.12000 4.111
79.14000 4.445
79.16000 2.363
79.18000 3.422
79.20000 1.841
79.22000 3.161
79.24000 3.969
79.26000 7.720
79.28000 0.078
79.30000 -1.620
79.32000 0.875
79.34000 0.728
79.36000 0.790
79.38000 -1.366
79.40000 1.202
79.42000 1.241
79.44000 3.251
79.46000 2.921
79.48000 3.509
79.50000 1.029
79.52000 0.883
79.54000 -2.364
79.56000 0.890
79.58000 2.632
79.60000 2.616
79.62000 -0.383
79.64000 -2.374
79.66000 2.766
79.68000 4.676
79.70000 6.030
79.72000 0.595
79.74000 1.299
79.76000 3.577
79.78000 1.507
79.80000 -0.231
79.82000 -1.314
79.84000 -0.717
79.86000 1.306
79.88000 1.155
79.90000 4.449
79.92000 2.714
79.94000 3.521
79.96000 6.644
79.98000 4.724
80.00000 4.569
80.02000 1.523
80.04000 -0.301
80.06000 1.623
80.08000 5.918
80.10000 4.044
80.12000 0.806
80.14000 -2.047
80.16000 -2.446
80.18000 1.979
80.20000 11.368
80.22000 7.729
80.24000 2.036
80.26000 0.900
80.28000 3.904
80.30000 1.908
80.32000 -2.334
80.34000 1.769
80.36000 6.054
80.38000 3.461
80.40000 -0.164
80.42000 1.097
80.44000 0.805
80.46000 -2.006
80.48000 -2.485
80.50000 6.054
80.52000 4.529
80.54000 3.497
80.56000 0.131
80.58000 0.017
80.60000 3.594
80.62000 3.421
80.64000 1.037
80.66000 4.799
80.68000 5.095
80.70000 5.084
80.72000 4.599
80.74000 3.877
80.76000 4.264
80.78000 3.313
80.80000 0.050
80.82000 2.228
80.84000 1.123
80.86000 4.349
80.88000 2.307
80.90000 5.611
80.92000 7.192
80.94000 7.926
80.96000 11.717
80.98000 10.042
81.00000 6.631
81.02000 7.417
81.04000 6.182
81.06000 4.094
81.08000 6.428
81.10000 8.035
81.12000 11.048
81.14000 11.007
81.16000 10.530
81.18000 9.374
81.20000 11.303
81.22000 8.833
81.24000 5.776
81.26000 0.655
81.28000 4.773
81.30000 7.734
81.32000 7.331
81.34000 10.027
81.36000 13.525
81.38000 11.120
81.40000 11.579
81.42000 13.666
81.44000 9.116
81.46000 5.541
81.48000 9.783
81.50000 11.058
81.52000 13.278
81.54000 11.172
81.56000 10.511
81.58000 15.653
81.60000 12.096
81.62000 14.557
81.64000 18.139
81.66000 12.545
81.68000 13.934
81.70000 14.662
81.72000 18.498
81.74000 16.514
81.76000 23.084
81.78000 23.835
81.80000 22.485
81.82000 23.214
81.84000 19.602
81.86000 22.060
81.88000 24.990
81.90000 23.323
81.92000 22.931
81.94000 25.652
81.96000 23.023
81.98000 22.296
82.00000 23.433
82.02000 18.480
82.04000 15.798
82.06000 23.971
82.08000 25.366
82.10000 27.259
82.12000 26.983
82.14000 32.817
82.16000 25.616
82.18000 23.298
82.20000 22.889
82.22000 19.653
82.24000 23.555
82.26000 23.806
82.28000 26.536
82.30000 26.272
82.32000 30.092
82.34000 27.249
82.36000 30.296
82.38000 23.877
82.40000 25.025
82.42000 18.937
82.44000 24.886
82.46000 30.496
82.48000 23.891
82.50000 25.121
82.52000 22.507
82.54000 22.033
82.56000 25.874
82.58000 26.048
82.60000 28.341
82.62000 24.422
82.64000 20.556
82.66000 23.559
82.68000 25.689
82.70000 25.720
82.72000 24.223
82.74000 22.579
82.76000 20.862
82.78000 20.135
82.80000 16.991
82.82000 17.964
82.84000 23.473
82.86000 21.739
82.88000 15.378
82.90000 15.123
82.92000 16.275
82.94000 20.643
82.96000 24.427
82.98000 22.888
83.00000 18.992
83.02000 8.573
83.04000 10.577
83.06000 14.419
83.08000 15.082
83.10000 15.472
83.12000 9.262
83.14000 9.516
83.16000 10.139
83.18000 9.965
83.20000 10.001
83.22000 9.652
83.24000 12.073
83.26000 10.481
83.28000 8.600
83.30000 9.663
83.32000 9.789
83.34000 8.317
83.36000 8.817
83.38000 11.186
83.40000 10.458
83.42000 9.799
83.44000 5.938
83.46000 2.898
83.48000 6.153
83.50000 7.311
83.52000 9.702
83.54000 9.481
83.56000 4.642
83.58000 4.577
83.60000 3.761
83.62000 4.366
83.64000 5.275
83.66000 4.545
83.68000 3.606
83.70000 4.722
83.72000 1.824
83.74000 -2.039
83.76000 3.159
83.78000 8.422
83.80000 5.747
83.82000 1.944
83.84000 1.526
83.86000 2.937
83.88000 3.139
83.90000 7.085
83.92000 6.769
83.94000 2.510
83.96000 1.137
83.98000 2.300
84.00000 2.562
84.02000 0.585
84.04000 -0.662
84.06000 1.329
84.08000 0.986
84.10000 1.641
84.12000 2.156
84.14000 0.818
84.16000 -2.448
84.18000 2.155
84.20000 1.897
84.22000 2.540
84.24000 2.318
84.26000 3.207
84.28000 3.010
84.30000 0.901
84.32000 -0.966
84.34000 -2.424
84.36000 -1.087
84.38000 2.421
84.40000 -0.469
84.42000 0.589
84.44000 -0.025
84.46000 -2.409
84.48000 0.418
84.50000 0.348
84.52000 2.522
84.54000 1.427
84.56000 2.877
84.58000 3.436
84.60000 -1.265
84.62000 -2.099
84.64000 -2.389
84.66000 1.990
84.68000 4.431
84.70000 1.006
84.72000 0.286
84.74000 0.940
84.76000 3.859
84.78000 5.384
84.80000 7.574
84.82000 4.246
84.84000 1.335
84.86000 0.398
84.88000 1.454
84.90000 -0.008
84.92000 2.176
84.94000 -2.380
84.96000 0.956
84.98000 4.618
85.00000 1.816
85.02000 1.596
85.04000 1.845
85.06000 1.211
85.08000 0.475
85.10000 -2.386
85.12000 0.160
85.14000 5.705
85.16000 4.700
85.18000 3.840
85.20000 4.837
85.22000 4.447
85.24000 6.211
85.26000 3.373
85.28000 3.031
85.30000 0.222
85.32000 -1.046
85.34000 -0.674
85.36000 0.003
85.38000 1.156
85.40000 -0.065
85.42000 2.691
85.44000 5.131
85.46000 2.279
85.48000 3.353
85.50000 4.350
85.52000 3.332
85.54000 4.479
85.56000 5.019
85.58000 6.077
85.60000 6.268
85.62000 6.075
85.64000 4.575
85.66000 7.369
85.68000 7.228
85.70000 1.971
85.72000 0.375
85.74000 5.734
85.76000 4.582
85.78000 6.970
85.80000 7.595
85.82000 10.002
85.84000 5.991
85.86000 7.933
85.88000 5.799
85.90000 1.615
85.92000 6.090
85.94000 10.167
85.96000 9.427
85.98000 5.990
86.00000 8.551
86.02000 5.225
86.04000 8.461
86.06000 12.385
86.08000 15.951
86.10000 13.972
86.12000 16.655
86.14000 15.769
86.16000 15.655
86.18000 15.405
86.20000 13.540
86.22000 17.533
86.24000 18.808
86.26000 14.220
86.28000 14.416
86.30000 17.758
86.32000 14.151
86.34000 13.348
86.36000 13.530
86.38000 13.168
86.40000 17.306
86.42000 21.689
86.44000 25.736
86.46000 22.373
86.48000 17.648
86.50000 17.889
86.52000 18.988
86.54000 19.258
86.56000 17.135
86.58000 23.314
86.60000 19.566
86.62000 20.639
86.64000 21.876
86.66000 17.541
86.68000 18.416
86.70000 24.176
86.72000 23.916
86.74000 20.664
86.76000 19.964
86.78000 20.101
86.80000 21.097
86.82000 16.897
86.84000 13.778
86.86000 16.975
86.88000 16.633
86.90000 16.498
86.92000 17.945
86.94000 23.152
86.96000 19.785
86.98000 16.478
87.00000 17.797
87.02000 17.087
87.04000 11.758
87.06000 15.737
87.08000 16.546
87.10000 15.340
87.12000 13.510
87.14000 12.170
87.16000 13.358
87.18000 15.152
87.20000 12.302
87.22000 12.998
87.24000 11.284
87.26000 7.575
87.28000 8.885
87.30000 11.149
87.32000 14.108
87.34000 12.673
87.36000 8.727
87.38000 6.966
87.40000 6.017
87.42000 5.175
87.44000 6.619
87.46000 8.386
87.48000 5.698
87.50000 7.555
87.52000 7.183
87.54000 7.117
87.56000 9.997
87.58000 7.313
87.60000 5.856
87.62000 3.498
87.64000 6.457
87.66000 -0.260
87.68000 2.541
87.70000 2.675
87.72000 3.898
87.74000 5.845
87.76000 8.112
87.78000 5.546
87.80000 2.016
87.82000 5.097
87.84000 4.841
87.86000 2.871
87.88000 0.049
87.90000 0.647
87.92000 0.446
87.94000 -0.428
87.96000 1.127
87.98000 3.392
88.00000 -0.430
88.02000 1.981
88.04000 4.263
88.06000 7.633
88.08000 4.686
88.10000 -0.497
88.12000 2.948
88.14000 0.083
88.16000 -1.776
88.18000 0.225
88.20000 0.846
88.22000 3.150
88.24000 3.177
88.26000 0.377
88.28000 0.445
88.30000 1.617
88.32000 3.017
88.34000 3.249
88.36000 4.105
88.38000 4.254
88.40000 3.094
88.42000 -2.196
88.44000 1.188
88.46000 1.734
88.48000 2.762
88.50000 2.045
88.52000 0.238
88.54000 4.073
88.56000 7.121
88.58000 2.735
88.60000 4.130
88.62000 0.514
88.64000 3.393
88.66000 6.733
88.68000 5.788
88.70000 2.862
88.72000 1.379
88.74000 0.978
88.76000 2.105
88.78000 -0.240
88.80000 -0.282
88.82000 -2.176
88.84000 2.804
88.86000 4.575
88.88000 3.219
88.90000 3.846
88.92000 -1.200
88.94000 -1.279
88.96000 1.955
88.98000 0.834
89.00000 -1.085
89.02000 0.771
89.04000 -0.608
89.06000 -1.813
89.08000 -0.201
89.10000 2.418
89.12000 0.485
89.14000 4.620
89.16000 3.175
89.18000 1.641
89.20000 3.756
89.22000 4.077
89.24000 3.167
89.26000 -0.012
89.28000 1.417
89.30000 -0.665
89.32000 3.681
89.34000 2.787
89.36000 5.575
89.38000 9.127
89.40000 5.865
89.42000 2.475
89.44000 3.180
89.46000 4.181
89.48000 2.153
89.50000 0.055
89.52000 1.632
89.54000 3.851
89.56000 3.139
89.58000 1.900
89.60000 1.105
89.62000 -0.562
89.64000 2.435
89.66000 2.733
89.68000 0.624
89.70000 4.912
89.72000 4.737
89.74000 4.398
89.76000 11.125
89.78000 6.470
89.80000 3.388
89.82000 -1.907
89.84000 1.655
89.86000 2.069
89.88000 5.869
89.90000 8.036
89.92000 6.790
89.94000 4.334
89.96000 0.350
89.98000 1.206
90.00000 4.299
90.02000 6.108
90.04000 6.523
90.06000 3.471
90.08000 7.606
90.10000 8.006
90.12000 9.343
90.14000 2.623
90.16000 5.561
90.18000 4.402
90.20000 2.877
90.22000 -2.110
90.24000 0.343
90.26000 4.068
90.28000 7.021
90.30000 5.303
90.32000 -2.104
90.34000 0.025
90.36000 3.328
90.38000 4.212
90.40000 5.970
90.42000 3.642
90.44000 4.980
90.46000 1.669
90.48000 3.960
90.50000 6.878
90.52000 4.846
90.54000 4.836
90.56000 6.638
90.58000 4.072
90.60000 2.951
90.62000 2.057
90.64000 0.602
90.66000 6.631
90.68000 3.724
90.70000 3.863
90.72000 7.156
90.74000 6.610
90.76000 3.427
90.78000 6.758
90.80000 6.384
90.82000 4.708
90.84000 5.812
90.86000 5.344
90.88000 5.569
90.90000 4.996
90.92000 5.861
90.94000 6.472
90.96000 3.556
90.98000 4.979
91.00000 7.103
91.02000 5.192
91.04000 0.484
91.06000 2.340
91.08000 3.086
91.10000 4.058
91.12000 4.146
91.14000 3.294
91.16000 2.860
91.18000 0.726
91.20000 4.134
91.22000 9.161
91.24000 9.595
91.26000 6.254
91.28000 2.783
91.30000 1.541
91.32000 5.906
91.34000 7.066
91.36000 8.608
91.38000 8.515
91.40000 5.286
91.42000 6.142
91.44000 8.443
91.46000 4.859
91.48000 5.539
91.50000 1.631
91.52000 -2.090
91.54000 1.429
91.56000 1.493
91.58000 0.367
91.60000 1.381
91.62000 4.121
91.64000 5.288
91.66000 5.409
91.68000 7.046
91.70000 9.689
91.72000 8.509
91.74000 5.140
91.76000 2.842
91.78000 1.029
91.80000 5.030
91.82000 7.833
91.84000 3.363
91.86000 7.376
91.88000 6.204
91.90000 3.879
91.92000 4.965
91.94000 3.140
91.96000 5.462
91.98000 7.218
92.00000 3.107
92.02000 1.484
92.04000 5.251
92.06000 3.471
92.08000 4.183
92.10000 3.880
92.12000 1.442
92.14000 2.531
92.16000 2.364
92.18000 3.996
92.20000 7.629
92.22000 5.624
92.24000 3.175
92.26000 4.309
92.28000 4.502
92.30000 6.105
92.32000 5.309
92.34000 4.604
92.36000 3.300
92.38000 1.753
92.40000 2.844
92.42000 4.257
92.44000 4.095
92.46000 4.188
92.48000 7.772
92.50000 6.378
92.52000 7.311
92.54000 6.397
92.56000 3.981
92.58000 3.115
92.60000 6.803
92.62000 3.350
92.64000 3.680
92.66000 4.920
92.68000 6.259
92.70000 3.478
92.72000 3.521
92.74000 0.495
92.76000 5.648
92.78000 6.368
92.80000 6.603
92.82000 1.781
92.84000 4.140
92.86000 1.348
92.88000 1.868
92.90000 5.686
92.92000 9.223
92.94000 6.464
92.96000 3.295
92.98000 3.453
93.00000 4.660
93.02000 2.509
93.04000 7.338
93.06000 8.929
93.08000 6.107
93.10000 4.899
93.12000 6.190
93.14000 5.225
93.16000 3.410
93.18000 1.168
93.20000 1.215
93.22000 -2.124
93.24000 3.882
93.26000 7.271
93.28000 6.097
93.30000 5.953
93.32000 7.225
93.34000 5.768
93.36000 7.737
93.38000 7.724
93.40000 6.463
93.42000 3.256
93.44000 7.501
93.46000 4.076
93.48000 4.193
93.50000 3.366
93.52000 7.283
93.54000 7.390
93.56000 2.729
93.58000 2.947
93.60000 6.908
93.62000 7.410
93.64000 7.270
93.66000 1.796
93.68000 2.828
93.70000 3.777
93.72000 3.696
93.74000 5.552
93.76000 8.630
93.78000 6.585
93.80000 5.234
93.82000 5.853
93.84000 2.599
93.86000 1.549
93.88000 -2.136
93.90000 1.512
93.92000 4.786
93.94000 5.374
93.96000 6.290
93.98000 7.662
94.00000 8.006
94.02000 5.020
94.04000 1.543
94.06000 1.863
94.08000 3.533
94.10000 4.706
94.12000 9.087
94.14000 8.514
94.16000 9.570
94.18000 3.355
94.20000 1.459
94.22000 4.101
94.24000 4.523
94.26000 10.346
94.28000 11.014
94.30000 5.430
94.32000 3.126
94.34000 7.005
94.36000 6.511
94.38000 5.297
94.40000 5.526
94.42000 3.274
94.44000 4.734
94.46000 9.033
94.48000 5.576
94.50000 6.352
94.52000 10.454
94.54000 7.464
94.56000 1.574
94.58000 0.199
94.60000 4.713
94.62000 6.110
94.64000 7.837
94.66000 7.468
94.68000 6.364
94.70000 3.493
94.72000 2.002
94.74000 -0.164
94.76000 3.437
94.78000 4.305
94.80000 6.887
94.82000 2.816
94.84000 5.023
94.86000 8.439
94.88000 8.041
94.90000 7.515
94.92000 4.520
94.94000 8.259
94.96000 3.109
94.98000 6.071
95.00000 9.884
95.02000 5.672
95.04000 4.833
95.06000 9.547
95.08000 7.603
95.10000 2.291
95.12000 8.083
95.14000 6.772
95.16000 8.167
95.18000 4.823
95.20000 3.752
95.22000 12.367
95.24000 6.664
95.26000 7.785
95.28000 6.396
95.30000 4.198
95.32000 -2.094
95.34000 1.875
95.36000 3.918
95.38000 1.590
95.40000 4.149
95.42000 3.809
95.44000 3.191
95.46000 2.588
95.48000 5.922
95.50000 5.869
95.52000 7.728
95.54000 3.617
95.56000 4.984
95.58000 8.886
95.60000 7.315
95.62000 7.336
95.64000 8.919
95.66000 1.928
95.68000 2.787
95.70000 7.211
95.72000 7.432
95.74000 3.618
95.76000 7.106
95.78000 8.242
95.80000 6.362
95.82000 7.525
95.84000 9.178
95.86000 3.675
95.88000 4.997
95.90000 -1.037
95.92000 1.560
95.94000 5.593
95.96000 6.443
95.98000 4.114
96.00000 5.618
96.02000 6.460
96.04000 3.944
96.06000 -1.433
96.08000 0.897
96.10000 2.818
96.12000 5.878
96.14000 4.764
96.16000 3.106
96.18000 5.791
96.20000 7.688
96.22000 10.711
96.24000 0.512
96.26000 0.057
96.28000 7.137
96.30000 6.557
96.32000 4.164
96.34000 6.183
96.36000 4.215
96.38000 3.469
96.40000 5.172
96.42000 11.043
96.44000 5.867
96.46000 3.100
96.48000 2.326
96.50000 -0.986
96.52000 2.916
96.54000 4.392
96.56000 6.800
96.58000 4.157
96.60000 2.731
96.62000 2.768
96.64000 6.000
96.66000 10.792
96.68000 8.557
96.70000 3.294
96.72000 2.266
96.74000 4.420
96.76000 2.885
96.78000 4.165
96.80000 5.122
96.82000 5.159
96.84000 3.676
96.86000 3.084
96.88000 3.472
96.90000 9.506
96.92000 3.757
96.94000 1.818
96.96000 1.777
96.98000 3.980
97.00000 4.839
97.02000 4.422
97.04000 3.045
97.06000 4.885
97.08000 6.781
97.10000 3.916
97.12000 -1.837
97.14000 0.907
97.16000 11.660
97.18000 6.191
97.20000 1.446
97.22000 7.903
97.24000 2.909
97.26000 -2.093
97.28000 5.937
97.30000 11.025
97.32000 9.516
97.34000 9.370
97.36000 7.801
97.38000 2.757
97.40000 6.947
97.42000 7.155
97.44000 11.781
97.46000 6.962
97.48000 8.631
97.50000 4.255
97.52000 6.794
97.54000 5.089
97.56000 3.751
97.58000 1.680
97.60000 0.735
97.62000 1.480
97.64000 2.089
97.66000 5.029
97.68000 8.989
97.70000 9.280
97.72000 9.694
97.74000 9.083
97.76000 4.265
97.78000 3.374
97.80000 7.216
97.82000 3.591
97.84000 9.490
97.86000 9.059
97.88000 3.720
97.90000 4.572
97.92000 1.362
97.94000 2.924
97.96000 14.196
97.98000 9.480
98.00000 4.709
98.02000 2.931
98.04000 6.683
98.06000 9.436
98.08000 9.788
98.10000 5.707
98.12000 6.903
98.14000 4.678
98.16000 7.936
98.18000 2.496
98.20000 2.301
98.22000 9.508
98.24000 2.441
98.26000 8.101
98.28000 16.411
98.30000 15.725
98.32000 8.655
98.34000 7.551
98.36000 3.767
98.38000 5.448
98.40000 2.083
98.42000 9.731
98.44000 8.715
98.46000 2.920
98.48000 10.190
98.50000 14.952
98.52000 8.134
98.54000 -2.685
98.56000 2.422
98.58000 6.492
98.60000 2.025
98.62000 0.962
98.64000 10.370
98.66000 10.067
98.68000 8.440
98.70000 7.073
98.72000 10.241
98.74000 2.329
98.76000 6.819
98.78000 10.342
98.80000 11.774
98.82000 12.269
98.84000 12.324
98.86000 9.348
98.88000 5.776
98.90000 6.488
98.92000 4.054
98.94000 11.149
98.96000 3.018
98.98000 1.287
99.00000 2.698
99.02000 -1.566
99.04000 1.561
99.06000 0.177
99.08000 2.840
99.10000 9.790
99.12000 5.996
99.14000 1.754
99.16000 2.433
99.18000 0.589
99.20000 -0.330
99.22000 9.151
99.24000 4.646
99.26000 5.510
99.28000 4.566
99.30000 10.715
99.32000 6.837
99.34000 -2.109
99.36000 2.370
99.38000 1.009
99.40000 9.193
99.42000 8.082
99.44000 14.848
99.46000 5.453
99.48000 -3.138
99.50000 6.543
99.52000 8.126
99.54000 5.735
99.56000 2.020
99.58000 -3.937
99.60000 8.763
99.62000 1.885
99.64000 8.724
99.66000 3.998
99.68000 2.921
99.70000 10.986
99.72000 5.636
99.74000 4.555
99.76000 7.590
99.78000 11.222
99.80000 0.177
99.82000 0.324
99.84000 4.155
99.86000 3.257
99.88000 1.622
99.90000 1.332
99.92000 3.811
99.94000 4.873
99.96000 1.465
99.98000 0.000
