'Id: "0011388" Comment: "Integrate frame 0011388_Au-Ir-Rh_Rh-rich_XRD-Mapping-169-0000.gfrmwith cursor Wedge Cursor #5" Operator: "B?rgel" Anode: "Cu" Wavelength: "1.5406" Scantype: "2Theta (TwoTheta)" TimePerStep: "1" X: "9" Y: "0" Z: "5.95" 
10.00000 0.000
10.02000 4.650
10.04000 6.462
10.06000 4.628
10.08000 -3.950
10.10000 6.272
10.12000 3.856
10.14000 13.396
10.16000 19.207
10.18000 7.268
10.20000 -2.366
10.22000 -3.947
10.24000 9.993
10.26000 18.239
10.28000 27.704
10.30000 17.842
10.32000 19.809
10.34000 23.166
10.36000 3.346
10.38000 -3.951
10.40000 2.138
10.42000 21.754
10.44000 33.153
10.46000 26.141
10.48000 23.512
10.50000 25.082
10.52000 38.096
10.54000 25.080
10.56000 14.040
10.58000 12.199
10.60000 22.145
10.62000 17.034
10.64000 8.366
10.66000 3.293
10.68000 -1.456
10.70000 7.357
10.72000 14.738
10.74000 18.431
10.76000 27.156
10.78000 23.997
10.80000 16.919
10.82000 13.715
10.84000 -4.034
10.86000 3.713
10.88000 20.344
10.90000 17.476
10.92000 7.103
10.94000 30.245
10.96000 20.122
10.98000 18.913
11.00000 13.282
11.02000 14.177
11.04000 14.909
11.06000 16.788
11.08000 14.383
11.10000 31.461
11.12000 18.177
11.14000 6.607
11.16000 1.208
11.18000 3.779
11.20000 4.915
11.22000 18.220
11.24000 19.754
11.26000 21.624
11.28000 19.704
11.30000 24.199
11.32000 22.087
11.34000 15.727
11.36000 8.862
11.38000 12.217
11.40000 13.324
11.42000 21.406
11.44000 13.367
11.46000 10.975
11.48000 23.790
11.50000 14.526
11.52000 1.346
11.54000 -1.726
11.56000 9.659
11.58000 25.552
11.60000 24.035
11.62000 12.319
11.64000 17.455
11.66000 19.656
11.68000 7.284
11.70000 24.039
11.72000 32.429
11.74000 29.156
11.76000 19.315
11.78000 18.190
11.80000 19.167
11.82000 31.773
11.84000 24.945
11.86000 10.011
11.88000 5.109
11.90000 19.004
11.92000 29.660
11.94000 34.878
11.96000 23.584
11.98000 14.916
12.00000 14.210
12.02000 12.267
12.04000 18.402
12.06000 30.348
12.08000 28.897
12.10000 33.913
12.12000 28.473
12.14000 28.382
12.16000 26.872
12.18000 24.482
12.20000 20.176
12.22000 16.359
12.24000 20.715
12.26000 22.790
12.28000 31.751
12.30000 27.109
12.32000 18.663
12.34000 20.193
12.36000 14.382
12.38000 13.658
12.40000 20.296
12.42000 32.818
12.44000 30.336
12.46000 24.129
12.48000 25.606
12.50000 19.970
12.52000 19.210
12.54000 17.747
12.56000 22.416
12.58000 26.850
12.60000 24.120
12.62000 21.948
12.64000 18.173
12.66000 18.268
12.68000 22.236
12.70000 25.085
12.72000 23.746
12.74000 23.279
12.76000 24.445
12.78000 19.458
12.80000 15.181
12.82000 26.463
12.84000 22.834
12.86000 19.720
12.88000 13.704
12.90000 9.999
12.92000 13.847
12.94000 20.340
12.96000 18.916
12.98000 12.658
13.00000 16.271
13.02000 15.464
13.04000 8.126
13.06000 13.116
13.08000 17.638
13.10000 7.425
13.12000 4.342
13.14000 24.489
13.16000 27.843
13.18000 23.298
13.20000 16.514
13.22000 22.509
13.24000 26.480
13.26000 18.207
13.28000 11.677
13.30000 22.216
13.32000 17.610
13.34000 19.943
13.36000 22.884
13.38000 20.461
13.40000 17.176
13.42000 9.317
13.44000 5.600
13.46000 7.398
13.48000 19.339
13.50000 13.802
13.52000 8.772
13.54000 6.649
13.56000 13.133
13.58000 17.687
13.60000 19.100
13.62000 12.751
13.64000 15.944
13.66000 15.227
13.68000 11.858
13.70000 13.849
13.72000 11.174
13.74000 6.636
13.76000 6.361
13.78000 15.057
13.80000 21.490
13.82000 18.318
13.84000 13.067
13.86000 13.957
13.88000 9.834
13.90000 15.977
13.92000 9.617
13.94000 9.229
13.96000 13.823
13.98000 14.077
14.00000 13.392
14.02000 8.522
14.04000 11.209
14.06000 7.832
14.08000 14.171
14.10000 15.271
14.12000 15.075
14.14000 16.028
14.16000 15.750
14.18000 13.074
14.20000 13.450
14.22000 16.479
14.24000 21.669
14.26000 17.998
14.28000 14.220
14.30000 10.907
14.32000 13.102
14.34000 12.397
14.36000 9.863
14.38000 10.135
14.40000 9.443
14.42000 14.006
14.44000 17.036
14.46000 17.488
14.48000 11.089
14.50000 11.347
14.52000 14.799
14.54000 5.604
14.56000 7.556
14.58000 10.409
14.60000 10.263
14.62000 15.215
14.64000 15.292
14.66000 7.393
14.68000 3.321
14.70000 0.810
14.72000 8.606
14.74000 10.406
14.76000 7.588
14.78000 9.751
14.80000 13.204
14.82000 6.811
14.84000 7.772
14.86000 7.098
14.88000 14.782
14.90000 9.235
14.92000 5.425
14.94000 5.792
14.96000 7.018
14.98000 7.203
15.00000 6.692
15.02000 7.625
15.04000 12.672
15.06000 12.698
15.08000 2.592
15.10000 4.918
15.12000 14.009
15.14000 12.717
15.16000 7.203
15.18000 16.030
15.20000 22.726
15.22000 12.917
15.24000 8.845
15.26000 9.547
15.28000 13.180
15.30000 9.096
15.32000 8.315
15.34000 10.175
15.36000 8.974
15.38000 0.106
15.40000 -4.414
15.42000 1.048
15.44000 9.560
15.46000 12.779
15.48000 4.298
15.50000 6.056
15.52000 3.227
15.54000 0.750
15.56000 9.942
15.58000 8.157
15.60000 7.708
15.62000 2.637
15.64000 9.779
15.66000 7.455
15.68000 3.105
15.70000 5.256
15.72000 12.055
15.74000 7.025
15.76000 2.776
15.78000 7.446
15.80000 9.620
15.82000 6.034
15.84000 8.523
15.86000 12.422
15.88000 5.159
15.90000 0.587
15.92000 3.338
15.94000 8.845
15.96000 1.913
15.98000 7.224
16.00000 11.219
16.02000 7.294
16.04000 7.822
16.06000 8.096
16.08000 6.635
16.10000 3.761
16.12000 12.366
16.14000 7.397
16.16000 4.650
16.18000 6.802
16.20000 9.956
16.22000 1.077
16.24000 1.464
16.26000 3.144
16.28000 5.493
16.30000 2.358
16.32000 4.202
16.34000 9.902
16.36000 14.464
16.38000 9.158
16.40000 10.464
16.42000 13.347
16.44000 7.447
16.46000 2.001
16.48000 3.776
16.50000 6.991
16.52000 8.473
16.54000 5.388
16.56000 -3.390
16.58000 2.765
16.60000 6.723
16.62000 9.796
16.64000 -0.432
16.66000 1.968
16.68000 -1.271
16.70000 4.611
16.72000 7.992
16.74000 9.866
16.76000 8.357
16.78000 6.911
16.80000 3.670
16.82000 6.493
16.84000 5.616
16.86000 6.353
16.88000 13.046
16.90000 5.726
16.92000 3.723
16.94000 9.485
16.96000 4.338
16.98000 1.221
17.00000 3.900
17.02000 7.862
17.04000 7.742
17.06000 8.755
17.08000 0.299
17.10000 -4.337
17.12000 -3.605
17.14000 4.144
17.16000 12.872
17.18000 16.630
17.20000 11.348
17.22000 12.092
17.24000 13.975
17.26000 5.561
17.28000 -1.202
17.30000 5.176
17.32000 8.991
17.34000 8.754
17.36000 9.664
17.38000 7.332
17.40000 1.065
17.42000 -0.295
17.44000 5.998
17.46000 3.665
17.48000 3.331
17.50000 -4.168
17.52000 0.766
17.54000 6.227
17.56000 10.942
17.58000 6.507
17.60000 5.532
17.62000 -1.063
17.64000 4.450
17.66000 4.122
17.68000 6.403
17.70000 5.262
17.72000 9.598
17.74000 3.447
17.76000 0.348
17.78000 2.577
17.80000 8.313
17.82000 4.659
17.84000 2.927
17.86000 6.616
17.88000 -3.966
17.90000 2.039
17.92000 6.151
17.94000 8.761
17.96000 4.695
17.98000 6.313
18.00000 10.669
18.02000 14.886
18.04000 11.195
18.06000 8.866
18.08000 15.075
18.10000 14.782
18.12000 8.027
18.14000 3.247
18.16000 8.777
18.18000 7.316
18.20000 3.782
18.22000 -2.045
18.24000 -0.590
18.26000 3.125
18.28000 -4.319
18.30000 0.219
18.32000 6.639
18.34000 7.440
18.36000 2.351
18.38000 0.970
18.40000 -1.261
18.42000 -0.090
18.44000 4.531
18.46000 1.422
18.48000 0.094
18.50000 -1.259
18.52000 5.616
18.54000 4.875
18.56000 11.311
18.58000 8.733
18.60000 2.534
18.62000 4.956
18.64000 9.880
18.66000 4.309
18.68000 2.477
18.70000 -1.490
18.72000 1.503
18.74000 5.879
18.76000 10.449
18.78000 6.455
18.80000 12.070
18.82000 13.264
18.84000 12.162
18.86000 6.390
18.88000 -0.301
18.90000 -4.231
18.92000 0.363
18.94000 8.137
18.96000 4.354
18.98000 5.716
19.00000 10.181
19.02000 7.801
19.04000 3.664
19.06000 6.190
19.08000 6.893
19.10000 4.924
19.12000 5.914
19.14000 2.929
19.16000 5.198
19.18000 9.420
19.20000 9.898
19.22000 2.406
19.24000 6.747
19.26000 10.317
19.28000 3.611
19.30000 7.585
19.32000 10.920
19.34000 8.193
19.36000 3.647
19.38000 6.789
19.40000 7.176
19.42000 -4.226
19.44000 -1.513
19.46000 9.660
19.48000 11.121
19.50000 12.635
19.52000 8.201
19.54000 9.635
19.56000 8.247
19.58000 7.888
19.60000 8.006
19.62000 5.577
19.64000 8.043
19.66000 12.534
19.68000 7.984
19.70000 3.971
19.72000 2.375
19.74000 6.224
19.76000 1.339
19.78000 -4.080
19.80000 0.857
19.82000 -2.341
19.84000 2.013
19.86000 4.132
19.88000 3.911
19.90000 -0.113
19.92000 1.431
19.94000 6.914
19.96000 7.307
19.98000 1.116
20.00000 2.691
20.02000 4.033
20.04000 1.034
20.06000 5.350
20.08000 10.167
20.10000 9.423
20.12000 7.940
20.14000 4.444
20.16000 3.319
20.18000 8.959
20.20000 4.931
20.22000 6.601
20.24000 10.911
20.26000 5.967
20.28000 1.160
20.30000 3.778
20.32000 -3.609
20.34000 4.703
20.36000 11.422
20.38000 8.708
20.40000 6.428
20.42000 4.517
20.44000 7.027
20.46000 3.141
20.48000 -1.670
20.50000 -3.003
20.52000 -4.204
20.54000 -0.021
20.56000 2.703
20.58000 6.751
20.60000 7.171
20.62000 4.645
20.64000 1.490
20.66000 7.897
20.68000 6.030
20.70000 2.199
20.72000 2.702
20.74000 5.886
20.76000 1.298
20.78000 3.471
20.80000 7.201
20.82000 11.269
20.84000 10.122
20.86000 12.288
20.88000 10.475
20.90000 6.094
20.92000 0.238
20.94000 1.445
20.96000 0.154
20.98000 -1.520
21.00000 0.789
21.02000 7.817
21.04000 1.996
21.06000 6.944
21.08000 4.170
21.10000 5.091
21.12000 8.342
21.14000 2.413
21.16000 3.130
21.18000 -0.092
21.20000 -0.965
21.22000 0.156
21.24000 6.208
21.26000 5.398
21.28000 7.752
21.30000 9.308
21.32000 9.145
21.34000 3.291
21.36000 4.361
21.38000 7.010
21.40000 5.566
21.42000 5.959
21.44000 2.540
21.46000 7.052
21.48000 6.330
21.50000 4.965
21.52000 3.585
21.54000 2.429
21.56000 0.452
21.58000 0.405
21.60000 -4.151
21.62000 1.666
21.64000 3.603
21.66000 4.731
21.68000 1.975
21.70000 -2.644
21.72000 -0.672
21.74000 -1.240
21.76000 5.840
21.78000 10.280
21.80000 1.052
21.82000 3.938
21.84000 4.257
21.86000 3.767
21.88000 4.969
21.90000 0.623
21.92000 0.090
21.94000 -1.968
21.96000 3.468
21.98000 9.749
22.00000 8.341
22.02000 11.705
22.04000 6.431
22.06000 7.869
22.08000 6.797
22.10000 -4.118
22.12000 4.038
22.14000 6.731
22.16000 6.699
22.18000 8.783
22.20000 7.846
22.22000 5.261
22.24000 4.336
22.26000 1.486
22.28000 1.323
22.30000 8.475
22.32000 8.946
22.34000 3.890
22.36000 -0.159
22.38000 -0.562
22.40000 12.165
22.42000 8.274
22.44000 -2.721
22.46000 -0.273
22.48000 -0.500
22.50000 -0.434
22.52000 -0.273
22.54000 6.709
22.56000 7.520
22.58000 5.034
22.60000 4.511
22.62000 7.457
22.64000 2.449
22.66000 -1.232
22.68000 -4.076
22.70000 8.278
22.72000 14.435
22.74000 5.945
22.76000 5.395
22.78000 0.475
22.80000 5.598
22.82000 3.545
22.84000 8.784
22.86000 3.203
22.88000 3.280
22.90000 8.017
22.92000 8.160
22.94000 6.732
22.96000 3.081
22.98000 2.819
23.00000 2.278
23.02000 6.045
23.04000 4.160
23.06000 1.426
23.08000 5.219
23.10000 7.008
23.12000 7.011
23.14000 6.530
23.16000 4.351
23.18000 -1.048
23.20000 -4.040
23.22000 4.540
23.24000 1.717
23.26000 1.677
23.28000 5.245
23.30000 9.331
23.32000 7.871
23.34000 7.666
23.36000 2.383
23.38000 5.332
23.40000 13.084
23.42000 14.386
23.44000 11.494
23.46000 7.233
23.48000 18.025
23.50000 15.116
23.52000 5.369
23.54000 3.491
23.56000 6.708
23.58000 7.126
23.60000 3.209
23.62000 3.420
23.64000 1.573
23.66000 2.399
23.68000 3.580
23.70000 -4.005
23.72000 0.237
23.74000 5.266
23.76000 5.120
23.78000 9.520
23.80000 5.274
23.82000 12.509
23.84000 9.473
23.86000 9.599
23.88000 14.046
23.90000 9.144
23.92000 3.072
23.94000 3.259
23.96000 5.146
23.98000 0.969
24.00000 0.205
24.02000 2.842
24.04000 6.353
24.06000 2.504
24.08000 3.541
24.10000 10.171
24.12000 11.333
24.14000 6.155
24.16000 3.564
24.18000 8.341
24.20000 9.644
24.22000 9.665
24.24000 4.929
24.26000 7.409
24.28000 8.551
24.30000 10.528
24.32000 6.187
24.34000 6.866
24.36000 2.200
24.38000 2.083
24.40000 0.322
24.42000 -3.602
24.44000 -0.273
24.46000 6.361
24.48000 2.376
24.50000 5.337
24.52000 2.958
24.54000 -3.970
24.56000 -1.547
24.58000 8.518
24.60000 5.097
24.62000 0.685
24.64000 2.221
24.66000 6.447
24.68000 8.240
24.70000 13.541
24.72000 7.676
24.74000 1.935
24.76000 -1.880
24.78000 0.559
24.80000 5.334
24.82000 4.750
24.84000 3.566
24.86000 6.342
24.88000 7.727
24.90000 6.334
24.92000 6.560
24.94000 2.229
24.96000 4.285
24.98000 3.508
25.00000 6.214
25.02000 8.387
25.04000 2.760
25.06000 1.020
25.08000 4.620
25.10000 5.946
25.12000 1.567
25.14000 1.850
25.16000 8.899
25.18000 4.601
25.20000 1.491
25.22000 2.436
25.24000 1.530
25.26000 9.396
25.28000 8.190
25.30000 7.961
25.32000 7.927
25.34000 9.294
25.36000 7.090
25.38000 3.684
25.40000 3.576
25.42000 10.977
25.44000 2.237
25.46000 -2.256
25.48000 1.830
25.50000 5.942
25.52000 3.304
25.54000 4.914
25.56000 -0.380
25.58000 -3.892
25.60000 4.467
25.62000 8.652
25.64000 1.594
25.66000 -0.522
25.68000 9.902
25.70000 9.303
25.72000 7.251
25.74000 3.813
25.76000 7.245
25.78000 7.539
25.80000 6.073
25.82000 1.492
25.84000 -1.473
25.86000 4.957
25.88000 5.244
25.90000 5.497
25.92000 9.722
25.94000 4.897
25.96000 2.244
25.98000 9.192
26.00000 10.768
26.02000 12.211
26.04000 4.091
26.06000 -1.522
26.08000 0.327
26.10000 -0.638
26.12000 0.531
26.14000 3.822
26.16000 4.636
26.18000 2.451
26.20000 2.895
26.22000 1.340
26.24000 -0.334
26.26000 1.184
26.28000 3.785
26.30000 4.919
26.32000 6.563
26.34000 5.039
26.36000 3.856
26.38000 5.237
26.40000 0.427
26.42000 3.871
26.44000 4.806
26.46000 4.121
26.48000 -0.454
26.50000 0.857
26.52000 0.901
26.54000 -0.176
26.56000 2.155
26.58000 5.976
26.60000 3.652
26.62000 0.744
26.64000 2.499
26.66000 0.700
26.68000 -1.746
26.70000 -0.102
26.72000 2.829
26.74000 2.737
26.76000 1.318
26.78000 4.607
26.80000 4.414
26.82000 5.567
26.84000 1.920
26.86000 -0.988
26.88000 5.601
26.90000 4.241
26.92000 2.553
26.94000 2.229
26.96000 5.691
26.98000 4.709
27.00000 7.368
27.02000 4.756
27.04000 1.771
27.06000 3.002
27.08000 4.574
27.10000 -0.523
27.12000 -0.924
27.14000 -0.838
27.16000 3.138
27.18000 3.046
27.20000 0.862
27.22000 2.164
27.24000 2.224
27.26000 -0.332
27.28000 -3.851
27.30000 1.254
27.32000 4.621
27.34000 7.140
27.36000 2.102
27.38000 0.469
27.40000 -1.712
27.42000 -0.502
27.44000 5.550
27.46000 6.090
27.48000 4.652
27.50000 9.066
27.52000 6.358
27.54000 2.319
27.56000 -0.091
27.58000 6.790
27.60000 0.994
27.62000 -1.627
27.64000 1.558
27.66000 8.753
27.68000 10.326
27.70000 8.218
27.72000 5.903
27.74000 1.387
27.76000 -0.055
27.78000 0.500
27.80000 2.276
27.82000 5.399
27.84000 1.793
27.86000 3.593
27.88000 3.655
27.90000 3.096
27.92000 5.963
27.94000 3.114
27.96000 3.860
27.98000 -0.622
28.00000 -0.981
28.02000 1.430
28.04000 -0.343
28.06000 -3.603
28.08000 -1.660
28.10000 1.648
28.12000 -1.901
28.14000 -3.784
28.16000 0.354
28.18000 6.000
28.20000 4.904
28.22000 -0.997
28.24000 0.693
28.26000 4.715
28.28000 5.151
28.30000 2.673
28.32000 7.737
28.34000 3.386
28.36000 2.049
28.38000 0.728
28.40000 0.736
28.42000 0.114
28.44000 1.459
28.46000 2.115
28.48000 -0.873
28.50000 0.677
28.52000 4.012
28.54000 -3.677
28.56000 0.276
28.58000 7.787
28.60000 6.693
28.62000 11.316
28.64000 10.153
28.66000 2.742
28.68000 0.623
28.70000 3.733
28.72000 2.386
28.74000 -0.544
28.76000 3.047
28.78000 2.329
28.80000 -0.457
28.82000 3.486
28.84000 5.599
28.86000 1.547
28.88000 2.240
28.90000 1.459
28.92000 1.129
28.94000 5.729
28.96000 2.571
28.98000 3.743
29.00000 1.484
29.02000 -3.015
29.04000 -1.638
29.06000 -1.204
29.08000 0.499
29.10000 -1.082
29.12000 4.983
29.14000 3.509
29.16000 4.720
29.18000 4.722
29.20000 2.664
29.22000 2.528
29.24000 0.474
29.26000 -0.384
29.28000 0.078
29.30000 -2.056
29.32000 5.506
29.34000 5.694
29.36000 4.038
29.38000 2.806
29.40000 1.916
29.42000 2.991
29.44000 3.271
29.46000 7.145
29.48000 10.403
29.50000 5.689
29.52000 1.716
29.54000 3.277
29.56000 5.288
29.58000 2.838
29.60000 -3.165
29.62000 -0.168
29.64000 4.701
29.66000 5.736
29.68000 2.515
29.70000 1.174
29.72000 -0.806
29.74000 0.912
29.76000 -1.489
29.78000 -1.453
29.80000 -2.910
29.82000 4.335
29.84000 5.083
29.86000 1.636
29.88000 -0.030
29.90000 3.665
29.92000 6.722
29.94000 0.773
29.96000 -3.690
29.98000 3.346
30.00000 6.146
30.02000 8.056
30.04000 7.084
30.06000 5.289
30.08000 3.310
30.10000 2.241
30.12000 5.685
30.14000 3.469
30.16000 5.146
30.18000 1.737
30.20000 3.960
30.22000 7.414
30.24000 4.976
30.26000 1.205
30.28000 -3.323
30.30000 -2.105
30.32000 -2.701
30.34000 -3.282
30.36000 -1.235
30.38000 -1.082
30.40000 3.451
30.42000 6.813
30.44000 9.402
30.46000 6.843
30.48000 4.547
30.50000 6.371
30.52000 4.428
30.54000 4.754
30.56000 4.215
30.58000 2.468
30.60000 4.254
30.62000 7.092
30.64000 5.624
30.66000 3.842
30.68000 0.502
30.70000 4.534
30.72000 4.754
30.74000 7.645
30.76000 8.075
30.78000 4.633
30.80000 4.385
30.82000 3.516
30.84000 0.093
30.86000 -3.435
30.88000 -1.366
30.90000 4.930
30.92000 1.555
30.94000 2.224
30.96000 3.652
30.98000 4.446
31.00000 0.188
31.02000 2.740
31.04000 6.013
31.06000 9.296
31.08000 1.324
31.10000 -1.411
31.12000 -2.299
31.14000 0.602
31.16000 0.292
31.18000 -2.562
31.20000 -1.620
31.22000 0.646
31.24000 6.116
31.26000 4.801
31.28000 5.439
31.30000 4.569
31.32000 -0.741
31.34000 0.135
31.36000 0.729
31.38000 -0.459
31.40000 1.098
31.42000 4.406
31.44000 -1.654
31.46000 0.883
31.48000 1.636
31.50000 4.947
31.52000 5.126
31.54000 3.520
31.56000 0.872
31.58000 5.869
31.60000 9.697
31.62000 2.880
31.64000 0.009
31.66000 1.802
31.68000 0.631
31.70000 0.973
31.72000 3.508
31.74000 5.430
31.76000 3.045
31.78000 0.378
31.80000 -0.757
31.82000 -0.034
31.84000 2.213
31.86000 0.833
31.88000 -1.889
31.90000 6.351
31.92000 7.477
31.94000 6.336
31.96000 1.461
31.98000 5.348
32.00000 7.059
32.02000 5.699
32.04000 1.206
32.06000 1.764
32.08000 8.568
32.10000 6.769
32.12000 8.609
32.14000 6.683
32.16000 1.068
32.18000 0.970
32.20000 -2.749
32.22000 1.143
32.24000 3.543
32.26000 -2.553
32.28000 -3.575
32.30000 3.307
32.32000 4.537
32.34000 0.262
32.36000 5.765
32.38000 3.223
32.40000 1.278
32.42000 0.736
32.44000 -0.002
32.46000 0.840
32.48000 5.666
32.50000 9.298
32.52000 1.500
32.54000 -3.355
32.56000 -0.422
32.58000 -1.654
32.60000 2.378
32.62000 2.315
32.64000 5.227
32.66000 5.757
32.68000 4.423
32.70000 4.758
32.72000 5.832
32.74000 0.846
32.76000 -3.229
32.78000 -3.174
32.80000 2.702
32.82000 3.164
32.84000 -0.392
32.86000 -2.323
32.88000 0.158
32.90000 1.135
32.92000 4.927
32.94000 4.521
32.96000 7.918
32.98000 4.420
33.00000 4.943
33.02000 3.193
33.04000 4.903
33.06000 1.594
33.08000 1.333
33.10000 -0.334
33.12000 -1.775
33.14000 -2.740
33.16000 -2.125
33.18000 1.257
33.20000 1.393
33.22000 -0.784
33.24000 -2.355
33.26000 -0.221
33.28000 5.314
33.30000 6.614
33.32000 8.081
33.34000 2.648
33.36000 1.462
33.38000 3.685
33.40000 3.508
33.42000 5.032
33.44000 2.998
33.46000 -0.942
33.48000 -2.052
33.50000 -0.196
33.52000 7.493
33.54000 6.008
33.56000 11.853
33.58000 3.562
33.60000 1.690
33.62000 6.575
33.64000 6.625
33.66000 5.925
33.68000 5.742
33.70000 2.542
33.72000 -0.076
33.74000 4.076
33.76000 2.582
33.78000 7.854
33.80000 7.572
33.82000 5.238
33.84000 0.854
33.86000 6.832
33.88000 4.570
33.90000 3.924
33.92000 2.663
33.94000 5.232
33.96000 3.464
33.98000 -1.388
34.00000 -3.557
34.02000 0.335
34.04000 -0.269
34.06000 -1.940
34.08000 -0.473
34.10000 2.403
34.12000 7.926
34.14000 6.334
34.16000 7.858
34.18000 3.414
34.20000 0.516
34.22000 -1.430
34.24000 0.574
34.26000 -3.503
34.28000 1.191
34.30000 2.054
34.32000 -0.298
34.34000 -0.309
34.36000 5.188
34.38000 1.047
34.40000 4.102
34.42000 7.459
34.44000 3.985
34.46000 0.744
34.48000 2.701
34.50000 2.007
34.52000 0.991
34.54000 -3.114
34.56000 -2.679
34.58000 1.538
34.60000 -1.004
34.62000 -1.854
34.64000 3.437
34.66000 10.019
34.68000 8.574
34.70000 5.808
34.72000 4.005
34.74000 3.391
34.76000 -0.136
34.78000 3.007
34.80000 1.721
34.82000 1.137
34.84000 1.043
34.86000 4.662
34.88000 3.854
34.90000 2.440
34.92000 -3.540
34.94000 1.188
34.96000 3.170
34.98000 0.590
35.00000 1.570
35.02000 1.640
35.04000 1.689
35.06000 -1.207
35.08000 -0.353
35.10000 1.787
35.12000 1.474
35.14000 -1.845
35.16000 -0.012
35.18000 1.774
35.20000 2.966
35.22000 2.625
35.24000 2.846
35.26000 -2.317
35.28000 -1.231
35.30000 2.162
35.32000 2.655
35.34000 1.550
35.36000 -3.028
35.38000 -2.740
35.40000 -0.857
35.42000 1.177
35.44000 -0.954
35.46000 0.647
35.48000 -1.273
35.50000 -1.546
35.52000 1.488
35.54000 6.144
35.56000 6.018
35.58000 2.941
35.60000 -2.603
35.62000 -3.047
35.64000 -3.542
35.66000 -3.130
35.68000 -1.663
35.70000 1.624
35.72000 2.100
35.74000 2.029
35.76000 5.065
35.78000 3.292
35.80000 3.453
35.82000 6.467
35.84000 1.404
35.86000 0.767
35.88000 -0.493
35.90000 -3.066
35.92000 -2.107
35.94000 3.190
35.96000 -0.945
35.98000 1.057
36.00000 0.007
36.02000 0.358
36.04000 0.043
36.06000 -0.229
36.08000 -2.102
36.10000 -2.913
36.12000 -0.191
36.14000 -0.619
36.16000 -1.159
36.18000 -0.519
36.20000 -2.979
36.22000 0.855
36.24000 1.225
36.26000 2.154
36.28000 2.430
36.30000 0.976
36.32000 0.282
36.34000 2.440
36.36000 3.294
36.38000 5.330
36.40000 1.608
36.42000 0.446
36.44000 1.031
36.46000 2.102
36.48000 2.252
36.50000 -0.855
36.52000 1.274
36.54000 2.586
36.56000 2.895
36.58000 4.678
36.60000 5.811
36.62000 0.767
36.64000 0.967
36.66000 0.606
36.68000 -0.177
36.70000 5.344
36.72000 7.406
36.74000 4.633
36.76000 1.213
36.78000 2.641
36.80000 5.917
36.82000 4.768
36.84000 3.546
36.86000 -0.727
36.88000 -3.537
36.90000 5.725
36.92000 6.664
36.94000 2.916
36.96000 -1.157
36.98000 0.954
37.00000 -2.120
37.02000 4.274
37.04000 6.494
37.06000 4.232
37.08000 2.825
37.10000 3.437
37.12000 2.478
37.14000 1.911
37.16000 1.492
37.18000 -3.561
37.20000 -1.752
37.22000 1.145
37.24000 0.423
37.26000 1.798
37.28000 -0.235
37.30000 -0.142
37.32000 0.964
37.34000 0.763
37.36000 -1.509
37.38000 0.819
37.40000 2.242
37.42000 -0.509
37.44000 -0.644
37.46000 1.740
37.48000 0.894
37.50000 -0.157
37.52000 2.728
37.54000 0.028
37.56000 -3.608
37.58000 -0.288
37.60000 4.295
37.62000 0.943
37.64000 3.254
37.66000 -0.407
37.68000 -0.395
37.70000 4.386
37.72000 4.417
37.74000 0.485
37.76000 0.905
37.78000 -0.652
37.80000 -1.933
37.82000 1.615
37.84000 1.519
37.86000 0.156
37.88000 2.759
37.90000 6.039
37.92000 4.103
37.94000 6.452
37.96000 7.244
37.98000 9.512
38.00000 7.947
38.02000 8.515
38.04000 6.922
38.06000 4.638
38.08000 3.714
38.10000 5.651
38.12000 7.621
38.14000 9.324
38.16000 10.824
38.18000 9.427
38.20000 7.132
38.22000 8.730
38.24000 4.328
38.26000 7.252
38.28000 12.048
38.30000 14.709
38.32000 11.571
38.34000 14.828
38.36000 12.497
38.38000 10.700
38.40000 12.977
38.42000 8.702
38.44000 13.621
38.46000 15.896
38.48000 14.581
38.50000 16.356
38.52000 13.232
38.54000 13.807
38.56000 13.656
38.58000 10.214
38.60000 16.436
38.62000 17.169
38.64000 16.495
38.66000 18.136
38.68000 19.472
38.70000 14.504
38.72000 17.168
38.74000 15.331
38.76000 16.199
38.78000 21.709
38.80000 23.921
38.82000 24.235
38.84000 18.990
38.86000 18.435
38.88000 23.195
38.90000 24.347
38.92000 23.660
38.94000 29.397
38.96000 31.184
38.98000 30.532
39.00000 33.248
39.02000 34.891
39.04000 29.928
39.06000 29.497
39.08000 29.329
39.10000 35.759
39.12000 38.755
39.14000 39.682
39.16000 38.745
39.18000 34.541
39.20000 38.847
39.22000 43.766
39.24000 45.215
39.26000 48.978
39.28000 49.813
39.30000 50.181
39.32000 53.122
39.34000 57.375
39.36000 63.600
39.38000 60.382
39.40000 67.332
39.42000 72.382
39.44000 74.212
39.46000 78.653
39.48000 79.840
39.50000 78.287
39.52000 82.506
39.54000 89.063
39.56000 92.096
39.58000 97.989
39.60000 105.673
39.62000 108.319
39.64000 110.729
39.66000 111.827
39.68000 113.936
39.70000 125.260
39.72000 133.313
39.74000 141.805
39.76000 146.507
39.78000 156.775
39.80000 156.037
39.82000 163.362
39.84000 173.062
39.86000 185.546
39.88000 192.503
39.90000 202.562
39.92000 212.007
39.94000 227.090
39.96000 236.286
39.98000 245.542
40.00000 254.578
40.02000 261.116
40.04000 271.553
40.06000 285.505
40.08000 298.456
40.10000 314.135
40.12000 329.480
40.14000 340.090
40.16000 356.211
40.18000 367.329
40.20000 376.363
40.22000 387.423
40.24000 407.948
40.26000 426.957
40.28000 435.795
40.30000 450.838
40.32000 462.865
40.34000 470.825
40.36000 482.835
40.38000 497.318
40.40000 506.831
40.42000 513.514
40.44000 515.386
40.46000 526.354
40.48000 531.833
40.50000 532.741
40.52000 546.107
40.54000 541.990
40.56000 545.248
40.58000 548.617
40.60000 546.523
40.62000 542.188
40.64000 530.483
40.66000 516.862
40.68000 503.841
40.70000 496.818
40.72000 490.554
40.74000 487.625
40.76000 483.099
40.78000 473.957
40.80000 459.571
40.82000 445.095
40.84000 431.872
40.86000 406.521
40.88000 386.488
40.90000 379.146
40.92000 377.230
40.94000 364.428
40.96000 346.416
40.98000 333.822
41.00000 318.006
41.02000 296.004
41.04000 278.382
41.06000 271.491
41.08000 258.512
41.10000 247.630
41.12000 234.378
41.14000 228.819
41.16000 224.333
41.18000 205.835
41.20000 195.105
41.22000 182.950
41.24000 173.421
41.26000 171.644
41.28000 162.660
41.30000 149.595
41.32000 140.287
41.34000 139.533
41.36000 132.549
41.38000 121.312
41.40000 114.405
41.42000 108.464
41.44000 109.320
41.46000 101.035
41.48000 92.790
41.50000 94.013
41.52000 82.993
41.54000 77.220
41.56000 75.196
41.58000 71.503
41.60000 71.224
41.62000 64.108
41.64000 61.672
41.66000 60.683
41.68000 56.105
41.70000 50.950
41.72000 53.795
41.74000 50.746
41.76000 49.320
41.78000 48.654
41.80000 42.945
41.82000 38.928
41.84000 38.075
41.86000 35.674
41.88000 35.169
41.90000 34.434
41.92000 33.268
41.94000 27.465
41.96000 25.277
41.98000 26.103
42.00000 28.865
42.02000 27.539
42.04000 24.252
42.06000 23.881
42.08000 24.190
42.10000 22.163
42.12000 18.614
42.14000 15.444
42.16000 16.135
42.18000 16.394
42.20000 14.453
42.22000 13.297
42.24000 14.213
42.26000 13.750
42.28000 13.647
42.30000 7.728
42.32000 7.357
42.34000 6.093
42.36000 10.370
42.38000 11.666
42.40000 10.966
42.42000 11.958
42.44000 10.387
42.46000 10.430
42.48000 10.345
42.50000 7.771
42.52000 9.871
42.54000 6.260
42.56000 5.631
42.58000 6.118
42.60000 5.858
42.62000 2.644
42.64000 4.038
42.66000 8.228
42.68000 9.582
42.70000 6.787
42.72000 7.820
42.74000 9.548
42.76000 6.981
42.78000 3.854
42.80000 0.945
42.82000 3.211
42.84000 5.136
42.86000 3.553
42.88000 3.379
42.90000 1.259
42.92000 1.617
42.94000 -0.369
42.96000 1.017
42.98000 -0.231
43.00000 -3.553
43.02000 6.822
43.04000 6.788
43.06000 -0.837
43.08000 2.037
43.10000 7.306
43.12000 7.744
43.14000 4.409
43.16000 4.608
43.18000 2.276
43.20000 -0.572
43.22000 2.911
43.24000 1.728
43.26000 1.372
43.28000 -2.039
43.30000 -2.592
43.32000 -2.528
43.34000 -3.506
43.36000 0.153
43.38000 -0.741
43.40000 -2.627
43.42000 -3.315
43.44000 0.262
43.46000 3.911
43.48000 1.315
43.50000 -1.070
43.52000 2.477
43.54000 4.602
43.56000 2.740
43.58000 6.131
43.60000 0.893
43.62000 -3.178
43.64000 -3.377
43.66000 -1.602
43.68000 0.894
43.70000 1.704
43.72000 0.852
43.74000 0.292
43.76000 1.557
43.78000 2.058
43.80000 -0.635
43.82000 1.020
43.84000 -2.954
43.86000 -0.716
43.88000 -0.195
43.90000 3.186
43.92000 3.821
43.94000 8.417
43.96000 6.135
43.98000 2.189
44.00000 3.162
44.02000 2.960
44.04000 2.706
44.06000 3.736
44.08000 1.824
44.10000 2.423
44.12000 -3.132
44.14000 2.503
44.16000 5.898
44.18000 6.952
44.20000 3.123
44.22000 -2.391
44.24000 3.583
44.26000 9.720
44.28000 9.137
44.30000 6.821
44.32000 5.680
44.34000 3.909
44.36000 1.153
44.38000 -2.094
44.40000 0.592
44.42000 0.073
44.44000 0.415
44.46000 -2.747
44.48000 -3.426
44.50000 1.790
44.52000 6.356
44.54000 6.860
44.56000 4.862
44.58000 10.131
44.60000 7.202
44.62000 5.256
44.64000 4.373
44.66000 2.893
44.68000 5.162
44.70000 2.589
44.72000 4.259
44.74000 3.559
44.76000 4.207
44.78000 1.604
44.80000 4.665
44.82000 5.368
44.84000 8.089
44.86000 4.411
44.88000 6.222
44.90000 2.235
44.92000 -0.186
44.94000 1.057
44.96000 6.593
44.98000 5.879
45.00000 5.892
45.02000 12.523
45.04000 9.923
45.06000 10.751
45.08000 5.483
45.10000 5.935
45.12000 9.267
45.14000 7.908
45.16000 4.815
45.18000 7.341
45.20000 10.797
45.22000 8.415
45.24000 5.315
45.26000 7.484
45.28000 4.359
45.30000 2.467
45.32000 4.615
45.34000 7.090
45.36000 7.566
45.38000 8.739
45.40000 5.185
45.42000 7.231
45.44000 7.843
45.46000 5.453
45.48000 9.188
45.50000 6.807
45.52000 2.350
45.54000 6.523
45.56000 8.430
45.58000 11.684
45.60000 13.832
45.62000 14.160
45.64000 15.189
45.66000 22.558
45.68000 18.933
45.70000 12.544
45.72000 13.453
45.74000 13.743
45.76000 18.365
45.78000 19.133
45.80000 20.886
45.82000 23.604
45.84000 23.458
45.86000 22.246
45.88000 21.939
45.90000 21.789
45.92000 18.165
45.94000 22.350
45.96000 21.117
45.98000 23.423
46.00000 27.108
46.02000 31.755
46.04000 30.397
46.06000 34.806
46.08000 27.621
46.10000 26.747
46.12000 25.814
46.14000 29.892
46.16000 29.965
46.18000 33.255
46.20000 37.527
46.22000 39.731
46.24000 41.326
46.26000 36.734
46.28000 44.948
46.30000 41.554
46.32000 39.312
46.34000 40.386
46.36000 39.351
46.38000 48.998
46.40000 53.882
46.42000 46.233
46.44000 42.745
46.46000 44.960
46.48000 41.728
46.50000 49.599
46.52000 52.893
46.54000 52.966
46.56000 57.118
46.58000 54.438
46.60000 51.546
46.62000 61.160
46.64000 59.395
46.66000 59.736
46.68000 65.044
46.70000 66.121
46.72000 61.385
46.74000 57.053
46.76000 64.966
46.78000 65.935
46.80000 62.549
46.82000 70.624
46.84000 71.330
46.86000 76.514
46.88000 78.935
46.90000 77.297
46.92000 68.252
46.94000 71.650
46.96000 72.464
46.98000 75.790
47.00000 80.082
47.02000 72.796
47.04000 73.587
47.06000 74.715
47.08000 71.177
47.10000 76.278
47.12000 79.991
47.14000 75.603
47.16000 75.431
47.18000 77.312
47.20000 80.235
47.22000 79.995
47.24000 75.775
47.26000 77.064
47.28000 75.551
47.30000 69.430
47.32000 63.360
47.34000 66.244
47.36000 72.179
47.38000 73.543
47.40000 74.572
47.42000 79.910
47.44000 72.499
47.46000 66.048
47.48000 66.146
47.50000 65.645
47.52000 67.202
47.54000 64.152
47.56000 56.081
47.58000 52.431
47.60000 54.494
47.62000 59.522
47.64000 53.158
47.66000 55.146
47.68000 45.084
47.70000 45.542
47.72000 50.964
47.74000 45.406
47.76000 40.067
47.78000 46.775
47.80000 42.052
47.82000 36.726
47.84000 39.647
47.86000 35.893
47.88000 33.262
47.90000 34.650
47.92000 34.563
47.94000 32.270
47.96000 25.596
47.98000 27.707
48.00000 26.827
48.02000 24.633
48.04000 23.612
48.06000 19.268
48.08000 20.046
48.10000 22.359
48.12000 25.845
48.14000 17.623
48.16000 17.120
48.18000 21.665
48.20000 15.108
48.22000 16.570
48.24000 17.717
48.26000 15.249
48.28000 15.397
48.30000 15.230
48.32000 12.588
48.34000 12.938
48.36000 15.486
48.38000 13.394
48.40000 14.233
48.42000 10.477
48.44000 8.165
48.46000 10.485
48.48000 12.004
48.50000 3.563
48.52000 0.883
48.54000 2.599
48.56000 5.978
48.58000 7.329
48.60000 6.211
48.62000 3.261
48.64000 -0.975
48.66000 0.425
48.68000 4.337
48.70000 9.542
48.72000 -0.322
48.74000 -1.008
48.76000 1.291
48.78000 4.957
48.80000 3.633
48.82000 5.321
48.84000 5.620
48.86000 5.874
48.88000 -1.397
48.90000 -3.191
48.92000 0.225
48.94000 0.692
48.96000 6.412
48.98000 10.989
49.00000 -0.135
49.02000 2.438
49.04000 5.700
49.06000 1.801
49.08000 3.772
49.10000 5.228
49.12000 5.308
49.14000 0.079
49.16000 2.486
49.18000 5.729
49.20000 11.557
49.22000 5.212
49.24000 0.078
49.26000 1.975
49.28000 3.245
49.30000 0.993
49.32000 -1.248
49.34000 -2.386
49.36000 1.060
49.38000 1.535
49.40000 -1.575
49.42000 -1.388
49.44000 1.448
49.46000 4.838
49.48000 3.165
49.50000 5.172
49.52000 3.834
49.54000 -0.321
49.56000 -1.798
49.58000 3.568
49.60000 2.588
49.62000 0.822
49.64000 3.065
49.66000 0.682
49.68000 2.326
49.70000 4.958
49.72000 5.225
49.74000 7.008
49.76000 4.252
49.78000 2.489
49.80000 -3.025
49.82000 -1.878
49.84000 -1.412
49.86000 -3.016
49.88000 -1.880
49.90000 4.365
49.92000 2.746
49.94000 0.651
49.96000 -0.154
49.98000 2.209
50.00000 2.958
50.02000 -0.012
50.04000 1.236
50.06000 7.875
50.08000 7.437
50.10000 3.313
50.12000 1.290
50.14000 0.538
50.16000 6.663
50.18000 4.548
50.20000 4.717
50.22000 5.759
50.24000 6.163
50.26000 1.904
50.28000 0.232
50.30000 -0.542
50.32000 0.868
50.34000 6.392
50.36000 3.932
50.38000 1.750
50.40000 3.592
50.42000 4.786
50.44000 4.830
50.46000 3.872
50.48000 8.433
50.50000 5.716
50.52000 5.349
50.54000 2.600
50.56000 -0.900
50.58000 1.554
50.60000 0.291
50.62000 2.385
50.64000 9.062
50.66000 2.387
50.68000 -2.290
50.70000 3.711
50.72000 3.627
50.74000 5.820
50.76000 4.158
50.78000 8.516
50.80000 6.144
50.82000 2.804
50.84000 1.921
50.86000 -2.945
50.88000 2.934
50.90000 5.056
50.92000 3.243
50.94000 7.088
50.96000 0.519
50.98000 0.494
51.00000 1.287
51.02000 2.196
51.04000 1.711
51.06000 3.696
51.08000 4.245
51.10000 2.273
51.12000 4.715
51.14000 2.011
51.16000 2.011
51.18000 4.607
51.20000 7.153
51.22000 3.763
51.24000 6.111
51.26000 5.809
51.28000 2.373
51.30000 4.119
51.32000 -2.598
51.34000 0.607
51.36000 3.379
51.38000 4.052
51.40000 5.536
51.42000 9.001
51.44000 8.976
51.46000 3.197
51.48000 1.778
51.50000 4.396
51.52000 4.107
51.54000 0.857
51.56000 0.592
51.58000 4.640
51.60000 -0.987
51.62000 -0.144
51.64000 6.575
51.66000 6.522
51.68000 1.507
51.70000 3.235
51.72000 6.973
51.74000 3.297
51.76000 1.503
51.78000 5.227
51.80000 5.788
51.82000 6.050
51.84000 2.168
51.86000 4.956
51.88000 6.287
51.90000 2.198
51.92000 0.685
51.94000 3.910
51.96000 1.811
51.98000 3.918
52.00000 8.921
52.02000 7.683
52.04000 4.048
52.06000 6.824
52.08000 2.986
52.10000 1.407
52.12000 6.694
52.14000 5.720
52.16000 2.444
52.18000 -2.442
52.20000 -2.873
52.22000 0.869
52.24000 6.409
52.26000 1.385
52.28000 -2.039
52.30000 -0.083
52.32000 -2.558
52.34000 1.553
52.36000 3.290
52.38000 2.776
52.40000 0.331
52.42000 0.420
52.44000 -1.178
52.46000 3.185
52.48000 4.718
52.50000 3.615
52.52000 1.428
52.54000 -1.091
52.56000 -0.828
52.58000 0.678
52.60000 2.162
52.62000 7.174
52.64000 2.489
52.66000 3.076
52.68000 5.950
52.70000 3.352
52.72000 5.879
52.74000 5.829
52.76000 7.537
52.78000 2.525
52.80000 2.911
52.82000 7.190
52.84000 6.705
52.86000 -0.952
52.88000 -2.776
52.90000 4.383
52.92000 5.583
52.94000 1.700
52.96000 -2.879
52.98000 -1.531
53.00000 -1.285
53.02000 -0.717
53.04000 4.937
53.06000 6.138
53.08000 2.625
53.10000 0.981
53.12000 -2.245
53.14000 -1.488
53.16000 4.652
53.18000 4.102
53.20000 3.035
53.22000 0.711
53.24000 0.729
53.26000 1.630
53.28000 6.673
53.30000 4.311
53.32000 2.325
53.34000 6.010
53.36000 7.734
53.38000 7.767
53.40000 7.395
53.42000 7.262
53.44000 6.890
53.46000 6.437
53.48000 6.419
53.50000 1.902
53.52000 2.506
53.54000 0.584
53.56000 -2.862
53.58000 1.560
53.60000 5.886
53.62000 6.874
53.64000 -1.974
53.66000 1.718
53.68000 4.704
53.70000 2.271
53.72000 2.649
53.74000 6.168
53.76000 4.497
53.78000 5.996
53.80000 5.142
53.82000 3.529
53.84000 2.947
53.86000 3.745
53.88000 6.854
53.90000 7.317
53.92000 4.822
53.94000 -0.100
53.96000 5.306
53.98000 8.374
54.00000 1.064
54.02000 2.367
54.04000 5.081
54.06000 4.937
54.08000 4.600
54.10000 -1.173
54.12000 -1.234
54.14000 2.774
54.16000 1.510
54.18000 4.971
54.20000 2.789
54.22000 -0.949
54.24000 1.060
54.26000 -1.882
54.28000 1.191
54.30000 3.552
54.32000 2.540
54.34000 2.003
54.36000 -0.204
54.38000 6.137
54.40000 1.348
54.42000 1.769
54.44000 6.167
54.46000 9.636
54.48000 4.433
54.50000 -2.834
54.52000 -2.717
54.54000 1.741
54.56000 5.871
54.58000 2.376
54.60000 2.488
54.62000 -0.039
54.64000 1.540
54.66000 6.713
54.68000 9.155
54.70000 10.211
54.72000 6.316
54.74000 2.929
54.76000 6.093
54.78000 0.305
54.80000 0.035
54.82000 5.210
54.84000 0.100
54.86000 0.635
54.88000 4.195
54.90000 5.484
54.92000 5.585
54.94000 1.375
54.96000 2.625
54.98000 4.088
55.00000 7.374
55.02000 2.658
55.04000 3.936
55.06000 8.420
55.08000 6.097
55.10000 3.603
55.12000 9.195
55.14000 6.706
55.16000 2.590
55.18000 1.924
55.20000 -0.644
55.22000 -2.786
55.24000 2.616
55.26000 4.624
55.28000 1.189
55.30000 1.531
55.32000 7.659
55.34000 6.926
55.36000 5.688
55.38000 3.291
55.40000 3.827
55.42000 1.517
55.44000 4.468
55.46000 4.794
55.48000 4.758
55.50000 -0.886
55.52000 3.327
55.54000 5.717
55.56000 4.700
55.58000 2.337
55.60000 3.423
55.62000 3.653
55.64000 6.426
55.66000 -0.006
55.68000 2.365
55.70000 0.038
55.72000 1.794
55.74000 4.588
55.76000 5.016
55.78000 3.863
55.80000 6.476
55.82000 7.507
55.84000 7.365
55.86000 4.759
55.88000 7.328
55.90000 3.253
55.92000 -1.036
55.94000 6.325
55.96000 9.341
55.98000 8.959
56.00000 9.642
56.02000 4.275
56.04000 5.798
56.06000 4.736
56.08000 2.485
56.10000 2.866
56.12000 3.716
56.14000 6.213
56.16000 6.219
56.18000 4.415
56.20000 8.708
56.22000 7.890
56.24000 7.141
56.26000 7.543
56.28000 4.676
56.30000 5.449
56.32000 2.149
56.34000 2.778
56.36000 0.685
56.38000 -2.728
56.40000 7.380
56.42000 9.549
56.44000 5.151
56.46000 2.101
56.48000 2.839
56.50000 4.262
56.52000 6.352
56.54000 8.363
56.56000 2.801
56.58000 0.324
56.60000 2.173
56.62000 4.459
56.64000 5.422
56.66000 8.733
56.68000 4.765
56.70000 4.633
56.72000 9.124
56.74000 7.729
56.76000 1.373
56.78000 0.810
56.80000 4.890
56.82000 4.319
56.84000 -0.493
56.86000 2.552
56.88000 1.118
56.90000 3.787
56.92000 3.945
56.94000 5.633
56.96000 4.272
56.98000 6.133
57.00000 6.197
57.02000 2.768
57.04000 -1.706
57.06000 -1.493
57.08000 2.851
57.10000 3.721
57.12000 3.751
57.14000 7.760
57.16000 8.980
57.18000 8.290
57.20000 1.013
57.22000 2.724
57.24000 2.598
57.26000 4.598
57.28000 5.283
57.30000 3.535
57.32000 3.610
57.34000 1.681
57.36000 1.699
57.38000 3.797
57.40000 5.242
57.42000 4.141
57.44000 4.986
57.46000 1.132
57.48000 4.419
57.50000 5.377
57.52000 6.269
57.54000 4.650
57.56000 1.451
57.58000 1.731
57.60000 4.664
57.62000 4.208
57.64000 3.286
57.66000 4.634
57.68000 6.941
57.70000 1.167
57.72000 -2.709
57.74000 -2.468
57.76000 0.974
57.78000 1.555
57.80000 7.332
57.82000 6.771
57.84000 3.060
57.86000 2.200
57.88000 -2.338
57.90000 1.934
57.92000 5.021
57.94000 1.509
57.96000 5.021
57.98000 7.719
58.00000 0.224
58.02000 0.528
58.04000 -0.162
58.06000 5.812
58.08000 4.231
58.10000 3.610
58.12000 8.342
58.14000 5.620
58.16000 4.170
58.18000 1.832
58.20000 2.981
58.22000 1.679
58.24000 2.896
58.26000 3.915
58.28000 4.405
58.30000 5.957
58.32000 3.613
58.34000 7.052
58.36000 5.639
58.38000 2.355
58.40000 1.971
58.42000 -0.098
58.44000 -0.906
58.46000 4.037
58.48000 3.667
58.50000 3.346
58.52000 5.282
58.54000 4.466
58.56000 3.189
58.58000 1.752
58.60000 1.809
58.62000 -2.221
58.64000 3.669
58.66000 7.794
58.68000 3.386
58.70000 -0.194
58.72000 1.403
58.74000 1.591
58.76000 -1.392
58.78000 -1.715
58.80000 1.402
58.82000 6.803
58.84000 8.398
58.86000 1.236
58.88000 -0.086
58.90000 4.531
58.92000 5.847
58.94000 3.848
58.96000 1.525
58.98000 4.103
59.00000 5.074
59.02000 6.052
59.04000 4.607
59.06000 6.612
59.08000 4.967
59.10000 -0.388
59.12000 -0.016
59.14000 2.114
59.16000 1.263
59.18000 1.995
59.20000 0.148
59.22000 -2.661
59.24000 6.736
59.26000 4.495
59.28000 3.288
59.30000 0.423
59.32000 6.193
59.34000 7.012
59.36000 5.307
59.38000 4.535
59.40000 2.811
59.42000 5.735
59.44000 10.940
59.46000 11.464
59.48000 6.366
59.50000 5.853
59.52000 3.560
59.54000 1.483
59.56000 2.260
59.58000 6.281
59.60000 5.892
59.62000 5.881
59.64000 6.763
59.66000 5.226
59.68000 6.031
59.70000 5.886
59.72000 1.318
59.74000 5.611
59.76000 7.878
59.78000 7.611
59.80000 1.821
59.82000 1.795
59.84000 4.412
59.86000 4.459
59.88000 0.110
59.90000 0.085
59.92000 2.616
59.94000 3.321
59.96000 4.809
59.98000 -2.122
60.00000 -2.314
60.02000 3.306
60.04000 5.293
60.06000 4.066
60.08000 6.746
60.10000 1.181
60.12000 2.695
60.14000 6.585
60.16000 4.515
60.18000 3.051
60.20000 3.086
60.22000 5.965
60.24000 5.776
60.26000 1.475
60.28000 -1.384
60.30000 -0.216
60.32000 1.937
60.34000 -0.978
60.36000 -1.762
60.38000 0.318
60.40000 -0.753
60.42000 -2.652
60.44000 -1.074
60.46000 -0.844
60.48000 -1.890
60.50000 1.521
60.52000 0.484
60.54000 -0.929
60.56000 -1.652
60.58000 -2.117
60.60000 1.557
60.62000 2.044
60.64000 -0.718
60.66000 2.605
60.68000 4.855
60.70000 4.903
60.72000 0.984
60.74000 2.807
60.76000 2.594
60.78000 2.148
60.80000 2.160
60.82000 6.483
60.84000 2.698
60.86000 2.530
60.88000 -0.237
60.90000 -0.971
60.92000 5.513
60.94000 5.894
60.96000 4.501
60.98000 0.198
61.00000 -0.763
61.02000 4.492
61.04000 -2.634
61.06000 -2.009
61.08000 -1.485
61.10000 0.011
61.12000 1.050
61.14000 2.655
61.16000 1.419
61.18000 1.259
61.20000 -1.389
61.22000 1.021
61.24000 2.438
61.26000 4.602
61.28000 0.037
61.30000 1.254
61.32000 1.566
61.34000 1.408
61.36000 -0.501
61.38000 -2.134
61.40000 2.517
61.42000 2.629
61.44000 2.797
61.46000 -1.278
61.48000 -1.006
61.50000 -1.667
61.52000 1.561
61.54000 4.931
61.56000 5.699
61.58000 -0.455
61.60000 0.167
61.62000 0.122
61.64000 -1.274
61.66000 -1.180
61.68000 1.369
61.70000 2.921
61.72000 0.695
61.74000 3.018
61.76000 0.218
61.78000 1.163
61.80000 4.559
61.82000 3.140
61.84000 2.666
61.86000 2.833
61.88000 -0.463
61.90000 1.301
61.92000 1.089
61.94000 8.329
61.96000 9.347
61.98000 2.347
62.00000 3.004
62.02000 0.789
62.04000 -2.470
62.06000 1.069
62.08000 2.205
62.10000 2.834
62.12000 2.798
62.14000 5.776
62.16000 2.916
62.18000 3.603
62.20000 3.611
62.22000 3.236
62.24000 2.797
62.26000 5.941
62.28000 6.883
62.30000 6.779
62.32000 4.384
62.34000 2.947
62.36000 1.482
62.38000 2.570
62.40000 2.000
62.42000 3.276
62.44000 6.633
62.46000 4.885
62.48000 3.818
62.50000 3.979
62.52000 1.932
62.54000 -2.554
62.56000 3.017
62.58000 1.672
62.60000 5.197
62.62000 3.649
62.64000 0.717
62.66000 -2.342
62.68000 0.614
62.70000 -1.877
62.72000 4.036
62.74000 5.295
62.76000 5.052
62.78000 3.486
62.80000 5.741
62.82000 3.230
62.84000 -0.631
62.86000 1.779
62.88000 3.997
62.90000 4.727
62.92000 5.099
62.94000 4.515
62.96000 -0.633
62.98000 6.398
63.00000 6.057
63.02000 4.257
63.04000 6.584
63.06000 2.801
63.08000 -0.967
63.10000 -0.520
63.12000 1.857
63.14000 2.505
63.16000 0.869
63.18000 4.170
63.20000 4.720
63.22000 7.138
63.24000 5.230
63.26000 1.848
63.28000 3.795
63.30000 3.161
63.32000 3.704
63.34000 3.331
63.36000 0.477
63.38000 2.430
63.40000 4.843
63.42000 4.062
63.44000 3.331
63.46000 -2.557
63.48000 -1.509
63.50000 -0.096
63.52000 -1.938
63.54000 -1.348
63.56000 1.362
63.58000 5.597
63.60000 4.324
63.62000 5.849
63.64000 9.612
63.66000 8.592
63.68000 7.207
63.70000 3.291
63.72000 0.938
63.74000 4.322
63.76000 1.691
63.78000 1.435
63.80000 0.297
63.82000 0.951
63.84000 2.356
63.86000 5.957
63.88000 5.956
63.90000 0.733
63.92000 0.888
63.94000 3.236
63.96000 3.121
63.98000 2.913
64.00000 4.477
64.02000 4.203
64.04000 4.452
64.06000 6.755
64.08000 9.167
64.10000 5.739
64.12000 4.806
64.14000 6.292
64.16000 7.900
64.18000 10.464
64.20000 3.405
64.22000 1.966
64.24000 3.791
64.26000 4.163
64.28000 3.578
64.30000 -0.048
64.32000 5.092
64.34000 4.465
64.36000 -1.504
64.38000 1.769
64.40000 -1.830
64.42000 -2.134
64.44000 -2.575
64.46000 -0.267
64.48000 4.137
64.50000 2.665
64.52000 6.120
64.54000 8.685
64.56000 8.638
64.58000 1.678
64.60000 1.929
64.62000 2.317
64.64000 3.461
64.66000 1.176
64.68000 0.061
64.70000 1.214
64.72000 6.873
64.74000 4.420
64.76000 3.708
64.78000 3.274
64.80000 0.656
64.82000 -1.276
64.84000 -1.666
64.86000 2.575
64.88000 0.267
64.90000 0.029
64.92000 1.197
64.94000 0.253
64.96000 -0.124
64.98000 0.787
65.00000 -0.315
65.02000 -2.386
65.04000 -0.356
65.06000 2.955
65.08000 3.229
65.10000 -0.539
65.12000 -1.834
65.14000 -1.849
65.16000 -1.521
65.18000 1.510
65.20000 2.212
65.22000 1.620
65.24000 -0.436
65.26000 2.818
65.28000 2.842
65.30000 2.316
65.32000 1.338
65.34000 1.954
65.36000 3.961
65.38000 -1.142
65.40000 0.715
65.42000 2.788
65.44000 3.413
65.46000 0.356
65.48000 -2.350
65.50000 -1.897
65.52000 -0.004
65.54000 0.929
65.56000 0.733
65.58000 -1.331
65.60000 3.609
65.62000 2.233
65.64000 3.269
65.66000 3.245
65.68000 2.725
65.70000 1.567
65.72000 -1.498
65.74000 0.485
65.76000 -1.668
65.78000 -2.644
65.80000 -1.389
65.82000 -0.416
65.84000 -0.947
65.86000 -1.356
65.88000 1.081
65.90000 2.150
65.92000 0.313
65.94000 -1.174
65.96000 2.259
65.98000 1.360
66.00000 -1.295
66.02000 -0.747
66.04000 1.030
66.06000 -1.100
66.08000 -0.607
66.10000 2.711
66.12000 3.277
66.14000 2.360
66.16000 2.208
66.18000 4.627
66.20000 0.463
66.22000 -0.087
66.24000 -0.222
66.26000 -0.634
66.28000 2.153
66.30000 -0.255
66.32000 -0.553
66.34000 -0.159
66.36000 -2.644
66.38000 -2.347
66.40000 2.175
66.42000 5.930
66.44000 3.389
66.46000 -0.135
66.48000 2.955
66.50000 1.828
66.52000 3.528
66.54000 5.057
66.56000 0.455
66.58000 -1.014
66.60000 0.584
66.62000 2.164
66.64000 1.572
66.66000 2.419
66.68000 -2.424
66.70000 -0.068
66.72000 3.487
66.74000 0.630
66.76000 -0.142
66.78000 2.168
66.80000 2.166
66.82000 4.084
66.84000 5.417
66.86000 5.374
66.88000 1.122
66.90000 2.525
66.92000 -0.307
66.94000 1.178
66.96000 3.086
66.98000 0.826
67.00000 1.093
67.02000 -1.269
67.04000 0.101
67.06000 -0.296
67.08000 -1.762
67.10000 -2.587
67.12000 -2.675
67.14000 1.093
67.16000 5.522
67.18000 4.749
67.20000 3.841
67.22000 2.881
67.24000 2.117
67.26000 0.056
67.28000 1.418
67.30000 2.214
67.32000 6.371
67.34000 5.914
67.36000 3.963
67.38000 2.062
67.40000 4.071
67.42000 2.819
67.44000 1.326
67.46000 -0.123
67.48000 1.842
67.50000 1.970
67.52000 1.386
67.54000 2.487
67.56000 3.546
67.58000 0.276
67.60000 3.211
67.62000 2.016
67.64000 3.212
67.66000 5.062
67.68000 3.446
67.70000 3.889
67.72000 2.180
67.74000 3.031
67.76000 5.971
67.78000 6.834
67.80000 5.665
67.82000 7.743
67.84000 6.686
67.86000 6.093
67.88000 7.902
67.90000 9.024
67.92000 9.836
67.94000 8.484
67.96000 11.998
67.98000 9.393
68.00000 5.390
68.02000 3.841
68.04000 6.430
68.06000 8.691
68.08000 8.701
68.10000 11.013
68.12000 9.931
68.14000 9.317
68.16000 11.848
68.18000 17.767
68.20000 15.487
68.22000 17.949
68.24000 16.318
68.26000 15.092
68.28000 13.763
68.30000 15.602
68.32000 17.829
68.34000 13.844
68.36000 15.040
68.38000 12.576
68.40000 15.264
68.42000 23.390
68.44000 19.883
68.46000 20.092
68.48000 20.464
68.50000 19.649
68.52000 18.657
68.54000 20.069
68.56000 23.189
68.58000 19.372
68.60000 19.346
68.62000 20.735
68.64000 21.861
68.66000 22.140
68.68000 24.009
68.70000 27.332
68.72000 28.606
68.74000 27.511
68.76000 29.572
68.78000 30.177
68.80000 27.563
68.82000 24.732
68.84000 27.613
68.86000 23.996
68.88000 24.987
68.90000 24.182
68.92000 21.319
68.94000 22.477
68.96000 21.599
68.98000 24.380
69.00000 26.695
69.02000 24.386
69.04000 27.983
69.06000 32.609
69.08000 28.437
69.10000 22.953
69.12000 24.982
69.14000 21.540
69.16000 25.378
69.18000 25.314
69.20000 28.398
69.22000 27.834
69.24000 21.512
69.26000 19.039
69.28000 19.251
69.30000 16.881
69.32000 20.616
69.34000 18.874
69.36000 14.568
69.38000 17.373
69.40000 18.233
69.42000 19.895
69.44000 19.911
69.46000 13.867
69.48000 18.270
69.50000 16.574
69.52000 14.566
69.54000 16.440
69.56000 11.878
69.58000 10.060
69.60000 14.326
69.62000 11.972
69.64000 11.087
69.66000 10.415
69.68000 11.471
69.70000 13.962
69.72000 12.382
69.74000 10.915
69.76000 13.867
69.78000 10.213
69.80000 8.920
69.82000 7.661
69.84000 8.928
69.86000 9.357
69.88000 12.372
69.90000 6.818
69.92000 7.984
69.94000 10.618
69.96000 6.105
69.98000 5.135
70.00000 2.294
70.02000 1.924
70.04000 -0.509
70.06000 0.922
70.08000 5.307
70.10000 6.971
70.12000 1.792
70.14000 -0.596
70.16000 4.175
70.18000 2.345
70.20000 2.030
70.22000 5.364
70.24000 -0.272
70.26000 -2.591
70.28000 -1.630
70.30000 2.707
70.32000 2.162
70.34000 4.827
70.36000 1.654
70.38000 1.271
70.40000 2.172
70.42000 1.940
70.44000 1.284
70.46000 -1.935
70.48000 1.050
70.50000 -1.484
70.52000 -0.714
70.54000 2.870
70.56000 5.108
70.58000 5.945
70.60000 -0.420
70.62000 -0.349
70.64000 2.514
70.66000 1.057
70.68000 -0.856
70.70000 -0.783
70.72000 0.509
70.74000 0.999
70.76000 1.430
70.78000 0.791
70.80000 0.708
70.82000 -0.040
70.84000 1.387
70.86000 4.070
70.88000 5.099
70.90000 6.268
70.92000 3.030
70.94000 -1.251
70.96000 -2.532
70.98000 -0.721
71.00000 4.392
71.02000 2.297
71.04000 3.764
71.06000 -0.009
71.08000 -0.689
71.10000 4.424
71.12000 7.597
71.14000 4.106
71.16000 -1.128
71.18000 0.503
71.20000 -0.558
71.22000 -0.748
71.24000 -0.146
71.26000 0.717
71.28000 1.020
71.30000 1.721
71.32000 3.560
71.34000 7.135
71.36000 4.912
71.38000 2.105
71.40000 0.495
71.42000 0.651
71.44000 2.874
71.46000 0.541
71.48000 0.963
71.50000 0.060
71.52000 4.955
71.54000 5.071
71.56000 3.659
71.58000 4.504
71.60000 2.065
71.62000 -2.498
71.64000 1.823
71.66000 1.345
71.68000 4.117
71.70000 3.308
71.72000 2.058
71.74000 2.461
71.76000 0.374
71.78000 -0.276
71.80000 1.244
71.82000 2.592
71.84000 -1.309
71.86000 2.247
71.88000 2.987
71.90000 3.983
71.92000 5.120
71.94000 3.563
71.96000 0.341
71.98000 1.830
72.00000 0.326
72.02000 -1.001
72.04000 -0.404
72.06000 1.452
72.08000 3.823
72.10000 2.672
72.12000 6.143
72.14000 8.366
72.16000 4.758
72.18000 -2.332
72.20000 -1.322
72.22000 -2.034
72.24000 3.962
72.26000 1.855
72.28000 2.762
72.30000 3.069
72.32000 3.542
72.34000 -0.686
72.36000 2.679
72.38000 2.543
72.40000 0.970
72.42000 1.485
72.44000 3.311
72.46000 2.742
72.48000 2.441
72.50000 2.145
72.52000 -1.282
72.54000 -2.081
72.56000 -0.507
72.58000 1.718
72.60000 -0.349
72.62000 5.341
72.64000 6.715
72.66000 0.995
72.68000 2.882
72.70000 0.200
72.72000 0.790
72.74000 2.204
72.76000 7.482
72.78000 3.782
72.80000 0.952
72.82000 2.568
72.84000 3.111
72.86000 1.682
72.88000 -2.400
72.90000 1.874
72.92000 4.679
72.94000 4.002
72.96000 8.873
72.98000 8.526
73.00000 3.600
73.02000 1.928
73.04000 3.732
73.06000 2.858
73.08000 -0.531
73.10000 3.853
73.12000 6.538
73.14000 3.510
73.16000 0.470
73.18000 1.176
73.20000 -2.399
73.22000 0.837
73.24000 2.385
73.26000 2.715
73.28000 4.040
73.30000 5.417
73.32000 1.362
73.34000 4.799
73.36000 4.187
73.38000 1.777
73.40000 1.689
73.42000 7.262
73.44000 3.808
73.46000 2.668
73.48000 4.792
73.50000 7.236
73.52000 5.615
73.54000 0.557
73.56000 0.695
73.58000 1.608
73.60000 1.029
73.62000 0.381
73.64000 -0.208
73.66000 3.218
73.68000 6.663
73.70000 -0.158
73.72000 -0.997
73.74000 4.484
73.76000 0.784
73.78000 -1.913
73.80000 -2.409
73.82000 2.649
73.84000 4.149
73.86000 7.253
73.88000 3.930
73.90000 3.058
73.92000 3.024
73.94000 5.464
73.96000 6.476
73.98000 4.941
74.00000 4.550
74.02000 5.560
74.04000 8.100
74.06000 1.837
74.08000 3.809
74.10000 0.642
74.12000 0.487
74.14000 3.426
74.16000 1.323
74.18000 0.394
74.20000 2.436
74.22000 4.967
74.24000 0.987
74.26000 -1.560
74.28000 -0.098
74.30000 2.846
74.32000 2.942
74.34000 1.419
74.36000 3.696
74.38000 2.251
74.40000 0.982
74.42000 4.565
74.44000 1.697
74.46000 3.142
74.48000 1.131
74.50000 0.568
74.52000 3.605
74.54000 1.931
74.56000 2.667
74.58000 3.531
74.60000 1.929
74.62000 6.742
74.64000 2.243
74.66000 -0.983
74.68000 2.592
74.70000 3.486
74.72000 5.231
74.74000 3.041
74.76000 -1.011
74.78000 -0.069
74.80000 2.563
74.82000 2.685
74.84000 2.058
74.86000 4.009
74.88000 4.608
74.90000 3.586
74.92000 1.374
74.94000 0.815
74.96000 2.816
74.98000 1.852
75.00000 0.756
75.02000 1.322
75.04000 1.912
75.06000 3.194
75.08000 1.706
75.10000 -2.388
75.12000 0.755
75.14000 4.711
75.16000 6.185
75.18000 7.873
75.20000 6.047
75.22000 -0.190
75.24000 0.751
75.26000 5.950
75.28000 5.985
75.30000 7.221
75.32000 5.449
75.34000 0.395
75.36000 2.713
75.38000 7.627
75.40000 6.710
75.42000 2.263
75.44000 -2.392
75.46000 1.644
75.48000 3.734
75.50000 3.999
75.52000 4.561
75.54000 3.606
75.56000 5.608
75.58000 10.338
75.60000 6.949
75.62000 5.531
75.64000 0.317
75.66000 -1.584
75.68000 5.281
75.70000 6.181
75.72000 3.110
75.74000 5.435
75.76000 4.659
75.78000 5.274
75.80000 -2.088
75.82000 -1.682
75.84000 1.318
75.86000 3.260
75.88000 2.608
75.90000 2.023
75.92000 4.392
75.94000 4.933
75.96000 7.797
75.98000 7.101
76.00000 2.021
76.02000 5.399
76.04000 3.851
76.06000 3.816
76.08000 2.291
76.10000 -2.390
76.12000 -0.208
76.14000 1.699
76.16000 4.416
76.18000 5.445
76.20000 0.172
76.22000 -2.392
76.24000 1.364
76.26000 7.016
76.28000 7.869
76.30000 4.621
76.32000 3.732
76.34000 5.582
76.36000 2.486
76.38000 0.923
76.40000 3.964
76.42000 -1.443
76.44000 -1.420
76.46000 5.397
76.48000 4.241
76.50000 4.268
76.52000 1.436
76.54000 1.428
76.56000 -0.601
76.58000 0.788
76.60000 5.304
76.62000 4.341
76.64000 -0.583
76.66000 3.148
76.68000 5.300
76.70000 2.686
76.72000 3.458
76.74000 -0.055
76.76000 -0.963
76.78000 3.277
76.80000 2.898
76.82000 -2.166
76.84000 0.432
76.86000 1.538
76.88000 5.421
76.90000 2.959
76.92000 0.991
76.94000 -2.394
76.96000 5.420
76.98000 6.580
77.00000 3.795
77.02000 4.730
77.04000 7.620
77.06000 10.516
77.08000 8.964
77.10000 6.332
77.12000 6.610
77.14000 4.401
77.16000 8.023
77.18000 5.915
77.20000 3.637
77.22000 3.141
77.24000 1.449
77.26000 0.449
77.28000 -1.225
77.30000 2.681
77.32000 4.911
77.34000 3.000
77.36000 2.605
77.38000 -0.567
77.40000 4.963
77.42000 4.394
77.44000 1.155
77.46000 4.351
77.48000 7.585
77.50000 1.822
77.52000 -0.161
77.54000 0.775
77.56000 4.115
77.58000 3.736
77.60000 6.472
77.62000 6.795
77.64000 5.299
77.66000 4.046
77.68000 3.510
77.70000 -0.628
77.72000 -0.573
77.74000 2.301
77.76000 4.314
77.78000 3.862
77.80000 1.548
77.82000 4.915
77.84000 8.002
77.86000 0.593
77.88000 0.822
77.90000 -0.450
77.92000 2.755
77.94000 3.991
77.96000 2.845
77.98000 5.618
78.00000 4.419
78.02000 3.500
78.04000 3.008
78.06000 0.715
78.08000 -1.291
78.10000 7.194
78.12000 9.114
78.14000 8.280
78.16000 8.998
78.18000 9.517
78.20000 3.283
78.22000 7.228
78.24000 1.780
78.26000 0.472
78.28000 1.820
78.30000 1.812
78.32000 4.962
78.34000 5.186
78.36000 7.426
78.38000 4.370
78.40000 -1.257
78.42000 3.380
78.44000 3.773
78.46000 -2.415
78.48000 2.467
78.50000 1.528
78.52000 5.471
78.54000 8.528
78.56000 0.143
78.58000 5.009
78.60000 2.991
78.62000 6.988
78.64000 0.834
78.66000 3.066
78.68000 -2.425
78.70000 0.619
78.72000 0.559
78.74000 3.601
78.76000 3.250
78.78000 5.599
78.80000 3.963
78.82000 4.144
78.84000 5.067
78.86000 1.915
78.88000 4.169
78.90000 2.413
78.92000 4.372
78.94000 4.001
78.96000 4.068
78.98000 4.867
79.00000 6.515
79.02000 5.956
79.04000 4.472
79.06000 7.467
79.08000 2.616
79.10000 5.348
79.12000 4.962
79.14000 7.200
79.16000 5.345
79.18000 4.590
79.20000 3.344
79.22000 6.932
79.24000 4.601
79.26000 4.917
79.28000 6.792
79.30000 6.173
79.32000 4.448
79.34000 6.118
79.36000 6.004
79.38000 7.927
79.40000 6.991
79.42000 6.962
79.44000 9.116
79.46000 3.178
79.48000 1.380
79.50000 5.643
79.52000 0.363
79.54000 -0.185
79.56000 -1.882
79.58000 -2.444
79.60000 4.720
79.62000 4.892
79.64000 3.128
79.66000 3.101
79.68000 1.843
79.70000 4.337
79.72000 4.003
79.74000 5.647
79.76000 8.120
79.78000 8.892
79.80000 4.824
79.82000 2.917
79.84000 4.648
79.86000 2.622
79.88000 -2.023
79.90000 3.907
79.92000 4.604
79.94000 0.943
79.96000 -0.724
79.98000 5.294
80.00000 5.682
80.02000 3.043
80.04000 2.080
80.06000 6.493
80.08000 6.274
80.10000 5.100
80.12000 5.142
80.14000 3.801
80.16000 2.196
80.18000 3.098
80.20000 -2.478
80.22000 2.165
80.24000 3.230
80.26000 2.526
80.28000 2.021
80.30000 3.825
80.32000 0.395
80.34000 -0.281
80.36000 2.221
80.38000 5.283
80.40000 5.853
80.42000 3.933
80.44000 1.794
80.46000 -1.737
80.48000 4.511
80.50000 4.567
80.52000 2.760
80.54000 6.550
80.56000 1.841
80.58000 -0.231
80.60000 6.295
80.62000 4.076
80.64000 3.916
80.66000 0.020
80.68000 2.122
80.70000 -0.637
80.72000 -1.860
80.74000 2.708
80.76000 6.375
80.78000 5.801
80.80000 0.809
80.82000 -0.780
80.84000 3.666
80.86000 4.534
80.88000 -2.539
80.90000 -1.163
80.92000 3.669
80.94000 1.025
80.96000 -1.597
80.98000 0.608
81.00000 4.758
81.02000 7.334
81.04000 9.911
81.06000 7.906
81.08000 6.299
81.10000 6.198
81.12000 5.414
81.14000 3.757
81.16000 1.603
81.18000 3.215
81.20000 0.996
81.22000 2.595
81.24000 1.505
81.26000 3.260
81.28000 1.312
81.30000 -0.698
81.32000 2.934
81.34000 -2.593
81.36000 3.441
81.38000 6.154
81.40000 1.096
81.42000 -2.228
81.44000 -1.338
81.46000 -0.360
81.48000 3.032
81.50000 2.439
81.52000 6.782
81.54000 8.538
81.56000 4.626
81.58000 7.639
81.60000 10.063
81.62000 6.811
81.64000 0.688
81.66000 2.652
81.68000 1.839
81.70000 6.162
81.72000 4.039
81.74000 2.833
81.76000 4.068
81.78000 4.350
81.80000 5.325
81.82000 5.404
81.84000 3.162
81.86000 3.512
81.88000 4.648
81.90000 9.807
81.92000 7.167
81.94000 6.737
81.96000 5.642
81.98000 8.491
82.00000 9.714
82.02000 11.659
82.04000 8.518
82.06000 9.488
82.08000 8.823
82.10000 8.482
82.12000 7.058
82.14000 4.740
82.16000 7.785
82.18000 12.763
82.20000 14.029
82.22000 12.325
82.24000 10.287
82.26000 17.331
82.28000 11.908
82.30000 8.924
82.32000 6.612
82.34000 11.968
82.36000 14.178
82.38000 15.244
82.40000 10.863
82.42000 14.170
82.44000 15.162
82.46000 19.088
82.48000 15.864
82.50000 14.415
82.52000 13.947
82.54000 16.106
82.56000 14.203
82.58000 14.227
82.60000 15.944
82.62000 17.659
82.64000 23.521
82.66000 22.154
82.68000 17.490
82.70000 16.501
82.72000 20.274
82.74000 22.323
82.76000 20.040
82.78000 22.839
82.80000 20.924
82.82000 21.005
82.84000 26.215
82.86000 22.283
82.88000 22.885
82.90000 18.110
82.92000 14.583
82.94000 19.430
82.96000 22.963
82.98000 21.771
83.00000 26.416
83.02000 21.454
83.04000 25.337
83.06000 24.398
83.08000 21.256
83.10000 21.398
83.12000 24.392
83.14000 25.124
83.16000 27.477
83.18000 18.630
83.20000 22.738
83.22000 22.425
83.24000 21.889
83.26000 27.550
83.28000 23.163
83.30000 21.472
83.32000 20.991
83.34000 19.457
83.36000 28.212
83.38000 28.165
83.40000 25.901
83.42000 19.896
83.44000 25.530
83.46000 29.226
83.48000 27.688
83.50000 27.259
83.52000 27.737
83.54000 29.473
83.56000 24.851
83.58000 17.194
83.60000 20.365
83.62000 22.503
83.64000 23.173
83.66000 17.096
83.68000 12.671
83.70000 17.298
83.72000 16.958
83.74000 18.701
83.76000 17.159
83.78000 15.803
83.80000 13.975
83.82000 14.191
83.84000 12.895
83.86000 13.069
83.88000 10.473
83.90000 9.131
83.92000 7.681
83.94000 5.687
83.96000 11.464
83.98000 13.441
84.00000 7.670
84.02000 12.488
84.04000 10.508
84.06000 11.535
84.08000 15.504
84.10000 13.862
84.12000 12.272
84.14000 7.766
84.16000 3.952
84.18000 2.844
84.20000 10.213
84.22000 12.862
84.24000 6.610
84.26000 1.944
84.28000 1.797
84.30000 1.519
84.32000 9.845
84.34000 8.389
84.36000 4.916
84.38000 8.384
84.40000 6.650
84.42000 7.200
84.44000 8.052
84.46000 9.727
84.48000 9.580
84.50000 11.081
84.52000 3.754
84.54000 2.581
84.56000 6.590
84.58000 6.404
84.60000 9.868
84.62000 5.737
84.64000 5.053
84.66000 2.585
84.68000 3.534
84.70000 6.745
84.72000 3.693
84.74000 0.733
84.76000 2.766
84.78000 2.701
84.80000 3.170
84.82000 1.361
84.84000 2.225
84.86000 4.198
84.88000 5.522
84.90000 9.063
84.92000 4.261
84.94000 2.554
84.96000 4.414
84.98000 -2.379
85.00000 -2.531
85.02000 1.655
85.04000 4.285
85.06000 3.053
85.08000 2.761
85.10000 0.305
85.12000 -0.505
85.14000 3.432
85.16000 8.476
85.18000 2.993
85.20000 2.094
85.22000 2.736
85.24000 -1.413
85.26000 0.376
85.28000 1.168
85.30000 2.517
85.32000 0.590
85.34000 2.756
85.36000 5.417
85.38000 5.553
85.40000 2.187
85.42000 -1.368
85.44000 -2.482
85.46000 -0.734
85.48000 1.464
85.50000 0.149
85.52000 3.824
85.54000 4.454
85.56000 7.146
85.58000 5.986
85.60000 3.046
85.62000 7.723
85.64000 5.782
85.66000 5.735
85.68000 -0.645
85.70000 -2.473
85.72000 -0.877
85.74000 -1.037
85.76000 -1.730
85.78000 2.503
85.80000 4.808
85.82000 3.922
85.84000 -0.525
85.86000 0.615
85.88000 -2.000
85.90000 5.968
85.92000 6.263
85.94000 6.999
85.96000 4.618
85.98000 7.032
86.00000 5.870
86.02000 3.802
86.04000 3.077
86.06000 4.832
86.08000 3.134
86.10000 1.041
86.12000 0.820
86.14000 2.768
86.16000 1.465
86.18000 4.061
86.20000 5.096
86.22000 7.313
86.24000 1.957
86.26000 2.022
86.28000 -1.041
86.30000 4.581
86.32000 3.290
86.34000 2.910
86.36000 0.426
86.38000 6.309
86.40000 10.574
86.42000 6.458
86.44000 5.806
86.46000 9.135
86.48000 7.979
86.50000 2.941
86.52000 1.035
86.54000 -2.493
86.56000 0.046
86.58000 5.568
86.60000 10.478
86.62000 10.399
86.64000 8.350
86.66000 9.328
86.68000 8.204
86.70000 5.314
86.72000 5.846
86.74000 8.402
86.76000 4.885
86.78000 5.760
86.80000 8.847
86.82000 1.626
86.84000 2.638
86.86000 3.635
86.88000 7.157
86.90000 8.928
86.92000 8.458
86.94000 11.014
86.96000 9.125
86.98000 14.912
87.00000 14.431
87.02000 7.132
87.04000 -2.193
87.06000 5.290
87.08000 7.876
87.10000 9.175
87.12000 8.528
87.14000 12.749
87.16000 7.035
87.18000 6.786
87.20000 14.189
87.22000 19.381
87.24000 14.697
87.26000 12.181
87.28000 9.512
87.30000 11.844
87.32000 17.001
87.34000 12.848
87.36000 13.366
87.38000 17.661
87.40000 16.603
87.42000 13.054
87.44000 9.527
87.46000 16.054
87.48000 14.878
87.50000 15.761
87.52000 12.847
87.54000 12.537
87.56000 16.136
87.58000 14.674
87.60000 18.109
87.62000 18.823
87.64000 17.396
87.66000 15.812
87.68000 13.602
87.70000 16.410
87.72000 16.876
87.74000 16.371
87.76000 22.304
87.78000 18.945
87.80000 19.994
87.82000 15.280
87.84000 13.521
87.86000 20.527
87.88000 16.082
87.90000 16.489
87.92000 17.113
87.94000 19.144
87.96000 15.778
87.98000 20.956
88.00000 14.432
88.02000 17.096
88.04000 19.491
88.06000 12.230
88.08000 13.798
88.10000 17.140
88.12000 15.189
88.14000 9.769
88.16000 16.725
88.18000 17.781
88.20000 18.385
88.22000 15.863
88.24000 8.963
88.26000 11.670
88.28000 13.547
88.30000 8.212
88.32000 4.130
88.34000 8.128
88.36000 4.533
88.38000 5.949
88.40000 12.589
88.42000 7.313
88.44000 10.518
88.46000 11.998
88.48000 3.817
88.50000 5.215
88.52000 2.420
88.54000 1.238
88.56000 5.649
88.58000 5.084
88.60000 3.235
88.62000 2.071
88.64000 4.018
88.66000 2.730
88.68000 3.179
88.70000 4.044
88.72000 3.901
88.74000 6.740
88.76000 8.082
88.78000 9.806
88.80000 2.440
88.82000 -1.347
88.84000 6.358
88.86000 9.355
88.88000 6.410
88.90000 2.850
88.92000 3.084
88.94000 4.469
88.96000 2.772
88.98000 4.844
89.00000 3.507
89.02000 3.060
89.04000 -1.096
89.06000 -0.032
89.08000 1.138
89.10000 2.480
89.12000 8.974
89.14000 2.678
89.16000 -1.314
89.18000 3.371
89.20000 4.022
89.22000 2.203
89.24000 0.218
89.26000 3.224
89.28000 6.262
89.30000 4.512
89.32000 2.473
89.34000 4.517
89.36000 1.997
89.38000 1.217
89.40000 7.374
89.42000 3.683
89.44000 6.331
89.46000 8.678
89.48000 6.788
89.50000 0.292
89.52000 1.887
89.54000 3.556
89.56000 4.196
89.58000 10.066
89.60000 8.918
89.62000 3.781
89.64000 0.772
89.66000 3.445
89.68000 3.303
89.70000 3.856
89.72000 4.360
89.74000 -1.423
89.76000 3.119
89.78000 1.471
89.80000 -0.360
89.82000 3.167
89.84000 2.660
89.86000 0.706
89.88000 -1.540
89.90000 -2.323
89.92000 1.392
89.94000 3.979
89.96000 7.305
89.98000 6.307
90.00000 3.507
90.02000 2.994
90.04000 2.332
90.06000 1.792
90.08000 0.638
90.10000 6.662
90.12000 5.773
90.14000 1.773
90.16000 -2.299
90.18000 2.040
90.20000 2.875
90.22000 0.300
90.24000 0.914
90.26000 1.751
90.28000 5.201
90.30000 4.279
90.32000 3.889
90.34000 5.336
90.36000 6.175
90.38000 0.500
90.40000 1.283
90.42000 4.463
90.44000 1.717
90.46000 2.210
90.48000 6.522
90.50000 4.599
90.52000 2.561
90.54000 -2.250
90.56000 0.883
90.58000 5.594
90.60000 1.333
90.62000 -1.336
90.64000 -0.287
90.66000 2.644
90.68000 3.107
90.70000 4.979
90.72000 7.156
90.74000 7.119
90.76000 9.324
90.78000 5.525
90.80000 2.673
90.82000 -2.275
90.84000 1.353
90.86000 5.793
90.88000 3.757
90.90000 2.767
90.92000 -1.257
90.94000 -1.139
90.96000 1.868
90.98000 5.665
91.00000 4.603
91.02000 -1.239
91.04000 1.648
91.06000 4.017
91.08000 5.264
91.10000 4.135
91.12000 7.154
91.14000 9.502
91.16000 4.945
91.18000 0.926
91.20000 3.081
91.22000 2.705
91.24000 9.836
91.26000 3.879
91.28000 2.931
91.30000 3.645
91.32000 2.762
91.34000 5.923
91.36000 9.359
91.38000 8.014
91.40000 5.332
91.42000 3.137
91.44000 -0.863
91.46000 3.558
91.48000 7.650
91.50000 10.295
91.52000 12.010
91.54000 7.220
91.56000 8.919
91.58000 2.399
91.60000 3.705
91.62000 4.304
91.64000 1.009
91.66000 3.282
91.68000 8.697
91.70000 7.464
91.72000 8.253
91.74000 1.576
91.76000 3.119
91.78000 2.554
91.80000 2.098
91.82000 1.982
91.84000 3.347
91.86000 6.939
91.88000 1.394
91.90000 -1.712
91.92000 0.170
91.94000 3.729
91.96000 4.859
91.98000 4.267
92.00000 4.820
92.02000 4.841
92.04000 6.664
92.06000 1.782
92.08000 6.269
92.10000 5.057
92.12000 7.778
92.14000 10.578
92.16000 8.819
92.18000 8.090
92.20000 8.411
92.22000 9.758
92.24000 4.167
92.26000 3.538
92.28000 3.256
92.30000 -2.205
92.32000 1.668
92.34000 7.429
92.36000 6.793
92.38000 6.355
92.40000 9.413
92.42000 6.081
92.44000 4.923
92.46000 7.598
92.48000 8.500
92.50000 7.841
92.52000 8.137
92.54000 5.535
92.56000 11.330
92.58000 6.675
92.60000 3.040
92.62000 4.379
92.64000 6.850
92.66000 1.520
92.68000 3.560
92.70000 1.930
92.72000 2.533
92.74000 3.939
92.76000 4.602
92.78000 3.314
92.80000 6.335
92.82000 7.938
92.84000 4.297
92.86000 0.635
92.88000 4.132
92.90000 4.792
92.92000 2.592
92.94000 3.622
92.96000 3.599
92.98000 5.289
93.00000 7.790
93.02000 4.143
93.04000 2.520
93.06000 8.072
93.08000 7.464
93.10000 7.163
93.12000 6.905
93.14000 6.475
93.16000 4.691
93.18000 5.664
93.20000 2.356
93.22000 8.451
93.24000 3.057
93.26000 2.300
93.28000 1.179
93.30000 5.155
93.32000 3.690
93.34000 0.729
93.36000 3.426
93.38000 5.335
93.40000 3.396
93.42000 -1.817
93.44000 4.515
93.46000 5.493
93.48000 0.618
93.50000 3.165
93.52000 4.119
93.54000 5.471
93.56000 7.957
93.58000 7.641
93.60000 3.433
93.62000 6.041
93.64000 2.670
93.66000 6.088
93.68000 2.023
93.70000 2.065
93.72000 5.833
93.74000 5.044
93.76000 1.409
93.78000 -0.715
93.80000 5.524
93.82000 3.312
93.84000 0.531
93.86000 2.075
93.88000 1.804
93.90000 9.879
93.92000 6.439
93.94000 5.957
93.96000 7.754
93.98000 7.377
94.00000 10.232
94.02000 14.271
94.04000 4.919
94.06000 2.695
94.08000 2.861
94.10000 6.879
94.12000 5.676
94.14000 6.050
94.16000 7.456
94.18000 4.702
94.20000 5.352
94.22000 -2.260
94.24000 -0.385
94.26000 4.402
94.28000 7.828
94.30000 2.259
94.32000 -1.365
94.34000 3.831
94.36000 7.800
94.38000 6.070
94.40000 7.681
94.42000 5.363
94.44000 9.145
94.46000 4.832
94.48000 7.714
94.50000 0.836
94.52000 1.093
94.54000 1.312
94.56000 5.058
94.58000 5.212
94.60000 0.817
94.62000 5.668
94.64000 6.468
94.66000 5.017
94.68000 -0.463
94.70000 2.040
94.72000 4.807
94.74000 4.462
94.76000 5.806
94.78000 4.905
94.80000 4.368
94.82000 5.772
94.84000 5.693
94.86000 5.844
94.88000 5.411
94.90000 4.490
94.92000 0.143
94.94000 0.299
94.96000 3.462
94.98000 4.622
95.00000 5.271
95.02000 2.507
95.04000 8.940
95.06000 4.736
95.08000 1.830
95.10000 2.760
95.12000 2.488
95.14000 6.433
95.16000 3.162
95.18000 -0.605
95.20000 0.880
95.22000 6.673
95.24000 8.426
95.26000 8.712
95.28000 5.623
95.30000 4.373
95.32000 -0.669
95.34000 -0.520
95.36000 4.371
95.38000 1.462
95.40000 1.488
95.42000 7.194
95.44000 8.374
95.46000 5.151
95.48000 1.229
95.50000 1.842
95.52000 3.860
95.54000 2.241
95.56000 2.284
95.58000 -0.178
95.60000 -1.373
95.62000 4.175
95.64000 -0.349
95.66000 3.374
95.68000 2.637
95.70000 1.040
95.72000 -2.292
95.74000 2.093
95.76000 4.827
95.78000 4.329
95.80000 4.147
95.82000 -0.849
95.84000 2.298
95.86000 6.256
95.88000 3.583
95.90000 -0.774
95.92000 2.562
95.94000 7.967
95.96000 4.891
95.98000 2.231
96.00000 1.962
96.02000 3.418
96.04000 0.738
96.06000 7.450
96.08000 4.907
96.10000 4.600
96.12000 3.933
96.14000 3.533
96.16000 -2.276
96.18000 7.484
96.20000 9.348
96.22000 3.664
96.24000 -1.542
96.26000 0.212
96.28000 3.378
96.30000 12.328
96.32000 9.537
96.34000 7.522
96.36000 5.097
96.38000 1.103
96.40000 -2.010
96.42000 1.231
96.44000 5.502
96.46000 10.431
96.48000 8.469
96.50000 8.441
96.52000 4.673
96.54000 6.424
96.56000 13.496
96.58000 13.834
96.60000 10.112
96.62000 6.405
96.64000 7.877
96.66000 14.722
96.68000 10.755
96.70000 7.665
96.72000 8.800
96.74000 5.680
96.76000 5.996
96.78000 8.034
96.80000 5.438
96.82000 4.474
96.84000 12.383
96.86000 9.211
96.88000 8.070
96.90000 0.356
96.92000 0.455
96.94000 4.691
96.96000 2.577
96.98000 1.856
97.00000 3.816
97.02000 5.427
97.04000 3.251
97.06000 0.592
97.08000 9.077
97.10000 9.216
97.12000 4.607
97.14000 -0.975
97.16000 2.108
97.18000 11.058
97.20000 5.833
97.22000 1.458
97.24000 -2.284
97.26000 -0.215
97.28000 5.731
97.30000 3.826
97.32000 0.803
97.34000 -1.594
97.36000 1.025
97.38000 4.312
97.40000 6.485
97.42000 1.421
97.44000 2.379
97.46000 3.237
97.48000 6.716
97.50000 7.165
97.52000 2.906
97.54000 2.917
97.56000 3.583
97.58000 -0.152
97.60000 5.097
97.62000 7.145
97.64000 8.053
97.66000 1.365
97.68000 1.765
97.70000 5.325
97.72000 10.390
97.74000 10.758
97.76000 3.415
97.78000 0.307
97.80000 -1.669
97.82000 -0.034
97.84000 6.250
97.86000 9.713
97.88000 5.806
97.90000 2.562
97.92000 2.072
97.94000 9.218
97.96000 11.448
97.98000 5.603
98.00000 1.449
98.02000 1.200
98.04000 5.264
98.06000 6.000
98.08000 3.299
98.10000 3.240
98.12000 6.054
98.14000 1.088
98.16000 3.069
98.18000 3.641
98.20000 -1.149
98.22000 -0.640
98.24000 2.872
98.26000 1.437
98.28000 8.236
98.30000 9.875
98.32000 4.207
98.34000 4.715
98.36000 3.780
98.38000 0.972
98.40000 -1.873
98.42000 1.007
98.44000 5.548
98.46000 6.327
98.48000 4.739
98.50000 4.030
98.52000 2.543
98.54000 -1.156
98.56000 -0.574
98.58000 -0.262
98.60000 -2.272
98.62000 8.145
98.64000 2.920
98.66000 3.392
98.68000 0.284
98.70000 2.315
98.72000 6.380
98.74000 5.346
98.76000 4.791
98.78000 8.038
98.80000 8.433
98.82000 11.622
98.84000 5.469
98.86000 1.890
98.88000 -0.838
98.90000 2.237
98.92000 10.975
98.94000 9.147
98.96000 4.830
98.98000 14.507
99.00000 8.336
99.02000 4.349
99.04000 2.496
99.06000 9.748
99.08000 7.306
99.10000 13.224
99.12000 24.993
99.14000 15.204
99.16000 10.975
99.18000 2.446
99.20000 1.578
99.22000 6.353
99.24000 5.022
99.26000 5.322
99.28000 5.936
99.30000 7.272
99.32000 11.356
99.34000 8.429
99.36000 10.727
99.38000 2.680
99.40000 2.466
99.42000 -0.162
99.44000 12.348
99.46000 16.307
99.48000 -1.645
99.50000 1.778
99.52000 4.998
99.54000 0.990
99.56000 10.381
99.58000 11.743
99.60000 10.071
99.62000 13.647
99.64000 4.654
99.66000 17.480
99.68000 12.541
99.70000 6.859
99.72000 -2.189
99.74000 1.882
99.76000 10.677
99.78000 8.219
99.80000 17.828
99.82000 9.750
99.84000 -4.157
99.86000 8.106
99.88000 9.286
99.90000 5.018
99.92000 -2.332
99.94000 0.476
99.96000 0.810
99.98000 0.000
