'Id: "0011388" Comment: "Integrate frame 0011388_Au-Ir-Rh_Rh-rich_XRD-Mapping-102-0000.gfrmwith cursor Wedge Cursor #5" Operator: "B?rgel" Anode: "Cu" Wavelength: "1.5406" Scantype: "2Theta (TwoTheta)" TimePerStep: "1" X: "-9" Y: "-13.5" Z: "5.95" 
10.00000 0.000
10.02000 -4.355
10.04000 -4.292
10.06000 8.428
10.08000 11.236
10.10000 -7.297
10.12000 30.281
10.14000 18.244
10.16000 11.446
10.18000 -1.107
10.20000 -4.159
10.22000 17.307
10.24000 18.385
10.26000 25.351
10.28000 27.001
10.30000 28.333
10.32000 23.704
10.34000 8.605
10.36000 17.710
10.38000 6.264
10.40000 14.416
10.42000 35.900
10.44000 29.058
10.46000 22.681
10.48000 25.168
10.50000 18.416
10.52000 21.977
10.54000 19.696
10.56000 17.857
10.58000 10.091
10.60000 7.342
10.62000 12.356
10.64000 15.547
10.66000 20.261
10.68000 13.768
10.70000 13.816
10.72000 13.070
10.74000 9.679
10.76000 15.033
10.78000 8.937
10.80000 19.931
10.82000 19.044
10.84000 13.712
10.86000 12.730
10.88000 12.937
10.90000 2.112
10.92000 0.463
10.94000 8.683
10.96000 8.319
10.98000 5.165
11.00000 16.970
11.02000 15.816
11.04000 12.678
11.06000 14.928
11.08000 17.023
11.10000 25.290
11.12000 16.207
11.14000 6.300
11.16000 6.921
11.18000 1.261
11.20000 3.845
11.22000 12.493
11.24000 23.083
11.26000 7.672
11.28000 14.638
11.30000 20.851
11.32000 11.245
11.34000 17.378
11.36000 25.678
11.38000 22.670
11.40000 16.497
11.42000 19.474
11.44000 22.612
11.46000 22.131
11.48000 18.756
11.50000 0.640
11.52000 6.132
11.54000 4.776
11.56000 10.338
11.58000 24.795
11.60000 31.538
11.62000 14.123
11.64000 12.488
11.66000 17.460
11.68000 10.670
11.70000 8.699
11.72000 8.083
11.74000 11.712
11.76000 20.627
11.78000 20.530
11.80000 7.534
11.82000 8.852
11.84000 14.043
11.86000 19.490
11.88000 19.297
11.90000 13.564
11.92000 12.661
11.94000 8.804
11.96000 7.082
11.98000 17.665
12.00000 12.839
12.02000 8.197
12.04000 3.007
12.06000 5.738
12.08000 14.018
12.10000 21.297
12.12000 18.747
12.14000 18.614
12.16000 17.109
12.18000 23.893
12.20000 16.899
12.22000 5.538
12.24000 11.465
12.26000 19.119
12.28000 21.013
12.30000 14.106
12.32000 14.270
12.34000 19.956
12.36000 18.667
12.38000 12.916
12.40000 12.206
12.42000 8.238
12.44000 13.859
12.46000 7.118
12.48000 9.868
12.50000 12.810
12.52000 7.164
12.54000 5.619
12.56000 12.983
12.58000 12.780
12.60000 14.648
12.62000 17.843
12.64000 15.637
12.66000 21.362
12.68000 27.297
12.70000 22.917
12.72000 7.105
12.74000 -1.824
12.76000 4.800
12.78000 14.696
12.80000 19.088
12.82000 14.935
12.84000 12.332
12.86000 13.900
12.88000 9.895
12.90000 13.702
12.92000 17.092
12.94000 15.832
12.96000 6.928
12.98000 6.968
13.00000 9.247
13.02000 12.563
13.04000 10.850
13.06000 10.615
13.08000 22.481
13.10000 16.202
13.12000 7.453
13.14000 16.453
13.16000 19.981
13.18000 23.812
13.20000 12.099
13.22000 13.402
13.24000 10.001
13.26000 12.401
13.28000 15.971
13.30000 18.199
13.32000 15.916
13.34000 24.237
13.36000 14.641
13.38000 12.692
13.40000 14.892
13.42000 12.387
13.44000 11.401
13.46000 13.087
13.48000 14.571
13.50000 16.195
13.52000 11.319
13.54000 18.294
13.56000 4.420
13.58000 1.798
13.60000 4.115
13.62000 12.109
13.64000 15.810
13.66000 15.392
13.68000 26.277
13.70000 9.712
13.72000 3.367
13.74000 9.638
13.76000 12.906
13.78000 6.510
13.80000 12.105
13.82000 18.495
13.84000 12.394
13.86000 15.162
13.88000 7.171
13.90000 2.804
13.92000 4.622
13.94000 6.870
13.96000 2.552
13.98000 5.408
14.00000 6.694
14.02000 6.242
14.04000 10.072
14.06000 8.776
14.08000 13.422
14.10000 6.713
14.12000 10.538
14.14000 10.096
14.16000 9.855
14.18000 5.156
14.20000 0.568
14.22000 8.802
14.24000 15.888
14.26000 10.903
14.28000 12.279
14.30000 7.274
14.32000 -0.850
14.34000 6.322
14.36000 12.100
14.38000 10.548
14.40000 3.037
14.42000 5.472
14.44000 9.938
14.46000 16.034
14.48000 4.439
14.50000 2.426
14.52000 1.982
14.54000 2.279
14.56000 1.092
14.58000 0.294
14.60000 1.505
14.62000 3.661
14.64000 12.593
14.66000 5.857
14.68000 15.796
14.70000 14.242
14.72000 7.478
14.74000 8.489
14.76000 4.838
14.78000 6.705
14.80000 2.184
14.82000 2.970
14.84000 14.270
14.86000 3.397
14.88000 1.218
14.90000 3.481
14.92000 15.076
14.94000 17.079
14.96000 11.956
14.98000 4.657
15.00000 6.223
15.02000 6.599
15.04000 13.115
15.06000 -0.682
15.08000 -0.058
15.10000 4.838
15.12000 5.419
15.14000 4.496
15.16000 12.764
15.18000 8.548
15.20000 7.265
15.22000 8.219
15.24000 8.094
15.26000 2.849
15.28000 -0.087
15.30000 2.474
15.32000 9.672
15.34000 11.432
15.36000 9.905
15.38000 6.512
15.40000 1.464
15.42000 -4.415
15.44000 -1.482
15.46000 10.284
15.48000 18.534
15.50000 16.578
15.52000 4.146
15.54000 1.849
15.56000 10.253
15.58000 6.210
15.60000 1.564
15.62000 7.607
15.64000 7.586
15.66000 8.434
15.68000 15.811
15.70000 13.666
15.72000 2.735
15.74000 3.006
15.76000 0.671
15.78000 4.279
15.80000 9.641
15.82000 9.402
15.84000 16.202
15.86000 12.669
15.88000 10.343
15.90000 2.848
15.92000 2.518
15.94000 3.039
15.96000 11.160
15.98000 11.785
16.00000 4.934
16.02000 4.770
16.04000 10.415
16.06000 8.628
16.08000 -2.752
16.10000 4.078
16.12000 3.828
16.14000 2.347
16.16000 2.055
16.18000 2.304
16.20000 -2.653
16.22000 0.602
16.24000 2.134
16.26000 6.231
16.28000 5.171
16.30000 8.546
16.32000 11.920
16.34000 9.311
16.36000 3.195
16.38000 4.420
16.40000 4.640
16.42000 4.727
16.44000 5.771
16.46000 16.414
16.48000 10.336
16.50000 7.350
16.52000 2.415
16.54000 0.687
16.56000 -4.259
16.58000 -0.105
16.60000 5.811
16.62000 6.378
16.64000 8.135
16.66000 10.343
16.68000 3.724
16.70000 4.346
16.72000 2.226
16.74000 2.465
16.76000 0.379
16.78000 5.279
16.80000 2.789
16.82000 3.407
16.84000 5.400
16.86000 4.539
16.88000 -0.190
16.90000 -2.534
16.92000 2.381
16.94000 7.755
16.96000 5.965
16.98000 0.449
17.00000 -2.361
17.02000 9.028
17.04000 10.975
17.06000 -0.272
17.08000 4.209
17.10000 5.585
17.12000 0.425
17.14000 2.442
17.16000 2.840
17.18000 3.739
17.20000 -0.110
17.22000 -3.519
17.24000 -2.402
17.26000 0.035
17.28000 5.825
17.30000 11.281
17.32000 6.747
17.34000 5.310
17.36000 1.251
17.38000 9.740
17.40000 4.831
17.42000 4.160
17.44000 -1.389
17.46000 -4.343
17.48000 -2.388
17.50000 1.953
17.52000 10.653
17.54000 3.240
17.56000 0.398
17.58000 6.865
17.60000 6.898
17.62000 6.582
17.64000 5.047
17.66000 2.906
17.68000 1.613
17.70000 9.664
17.72000 5.139
17.74000 9.029
17.76000 6.455
17.78000 8.526
17.80000 3.780
17.82000 6.721
17.84000 2.463
17.86000 7.082
17.88000 10.682
17.90000 6.591
17.92000 6.590
17.94000 11.424
17.96000 1.608
17.98000 4.425
18.00000 1.007
18.02000 4.311
18.04000 -4.313
18.06000 8.412
18.08000 13.301
18.10000 11.768
18.12000 10.288
18.14000 8.800
18.16000 8.134
18.18000 4.476
18.20000 3.834
18.22000 7.148
18.24000 5.523
18.26000 8.439
18.28000 8.634
18.30000 9.568
18.32000 8.821
18.34000 8.600
18.36000 2.772
18.38000 -2.651
18.40000 1.558
18.42000 3.050
18.44000 7.261
18.46000 7.763
18.48000 5.548
18.50000 8.709
18.52000 6.494
18.54000 8.552
18.56000 3.781
18.58000 9.000
18.60000 4.206
18.62000 4.172
18.64000 6.205
18.66000 13.575
18.68000 10.364
18.70000 0.290
18.72000 1.702
18.74000 2.441
18.76000 1.288
18.78000 3.563
18.80000 6.292
18.82000 6.299
18.84000 0.310
18.86000 4.799
18.88000 1.580
18.90000 -2.383
18.92000 0.150
18.94000 5.337
18.96000 2.034
18.98000 -4.260
19.00000 2.860
19.02000 0.554
19.04000 3.169
19.06000 5.987
19.08000 3.905
19.10000 8.426
19.12000 2.717
19.14000 -0.890
19.16000 5.678
19.18000 6.530
19.20000 14.981
19.22000 6.265
19.24000 1.002
19.26000 -4.249
19.28000 0.831
19.30000 8.785
19.32000 8.654
19.34000 13.563
19.36000 15.176
19.38000 2.686
19.40000 -1.200
19.42000 -1.012
19.44000 5.909
19.46000 4.338
19.48000 0.233
19.50000 6.580
19.52000 4.776
19.54000 3.921
19.56000 1.346
19.58000 -0.323
19.60000 0.663
19.62000 -0.330
19.64000 2.646
19.66000 5.283
19.68000 8.075
19.70000 7.402
19.72000 8.030
19.74000 4.154
19.76000 -0.469
19.78000 5.459
19.80000 6.069
19.82000 1.355
19.84000 8.195
19.86000 3.801
19.88000 5.397
19.90000 0.118
19.92000 1.433
19.94000 5.263
19.96000 4.826
19.98000 7.559
20.00000 2.774
20.02000 1.016
20.04000 2.796
20.06000 5.020
20.08000 5.146
20.10000 1.887
20.12000 1.696
20.14000 5.219
20.16000 9.185
20.18000 2.790
20.20000 1.116
20.22000 4.093
20.24000 0.259
20.26000 3.797
20.28000 6.332
20.30000 9.237
20.32000 5.836
20.34000 2.883
20.36000 2.381
20.38000 -2.691
20.40000 -4.211
20.42000 1.266
20.44000 1.379
20.46000 -3.095
20.48000 -3.629
20.50000 -4.122
20.52000 0.181
20.54000 2.198
20.56000 5.499
20.58000 8.022
20.60000 5.122
20.62000 4.083
20.64000 -1.062
20.66000 2.925
20.68000 -0.387
20.70000 -1.435
20.72000 4.209
20.74000 -0.141
20.76000 1.711
20.78000 5.647
20.80000 12.722
20.82000 7.640
20.84000 3.342
20.86000 -0.718
20.88000 1.269
20.90000 2.651
20.92000 3.607
20.94000 -3.264
20.96000 5.167
20.98000 9.037
21.00000 0.687
21.02000 0.595
21.04000 -4.183
21.06000 -0.700
21.08000 5.227
21.10000 7.310
21.12000 9.237
21.14000 3.043
21.16000 5.398
21.18000 3.406
21.20000 -1.038
21.22000 -2.762
21.24000 -2.718
21.26000 1.751
21.28000 6.956
21.30000 5.221
21.32000 4.693
21.34000 5.261
21.36000 -0.633
21.38000 -1.090
21.40000 2.351
21.42000 4.728
21.44000 2.283
21.46000 6.911
21.48000 2.952
21.50000 0.134
21.52000 -3.981
21.54000 7.294
21.56000 9.484
21.58000 2.578
21.60000 -1.562
21.62000 -1.984
21.64000 8.898
21.66000 2.451
21.68000 1.653
21.70000 9.432
21.72000 2.665
21.74000 -0.958
21.76000 -4.137
21.78000 -2.268
21.80000 1.263
21.82000 -0.313
21.84000 7.010
21.86000 0.563
21.88000 4.234
21.90000 1.989
21.92000 5.487
21.94000 0.329
21.96000 2.428
21.98000 6.454
22.00000 5.728
22.02000 3.258
22.04000 0.950
22.06000 3.128
22.08000 4.168
22.10000 6.693
22.12000 5.586
22.14000 -3.052
22.16000 5.947
22.18000 7.977
22.20000 6.774
22.22000 5.743
22.24000 0.616
22.26000 2.338
22.28000 4.344
22.30000 9.194
22.32000 4.423
22.34000 1.943
22.36000 8.223
22.38000 3.514
22.40000 9.852
22.42000 2.086
22.44000 8.201
22.46000 3.549
22.48000 -4.078
22.50000 2.193
22.52000 5.566
22.54000 6.943
22.56000 3.324
22.58000 2.347
22.60000 7.188
22.62000 2.265
22.64000 7.367
22.66000 8.362
22.68000 6.851
22.70000 5.714
22.72000 -0.881
22.74000 7.907
22.76000 15.708
22.78000 9.498
22.80000 0.494
22.82000 1.206
22.84000 -4.060
22.86000 1.682
22.88000 3.636
22.90000 1.052
22.92000 1.281
22.94000 4.589
22.96000 7.623
22.98000 2.723
23.00000 8.301
23.02000 5.535
23.04000 8.288
23.06000 10.586
23.08000 1.201
23.10000 -1.494
23.12000 -2.102
23.14000 0.212
23.16000 7.266
23.18000 -2.909
23.20000 -4.042
23.22000 1.464
23.24000 -0.228
23.26000 -0.545
23.28000 6.442
23.30000 10.718
23.32000 -2.359
23.34000 -2.459
23.36000 -0.142
23.38000 -3.027
23.40000 -0.100
23.42000 5.287
23.44000 9.447
23.46000 7.343
23.48000 3.009
23.50000 4.864
23.52000 5.903
23.54000 2.514
23.56000 -2.782
23.58000 4.363
23.60000 6.469
23.62000 7.654
23.64000 2.178
23.66000 0.674
23.68000 0.796
23.70000 3.466
23.72000 2.670
23.74000 0.795
23.76000 0.779
23.78000 0.795
23.80000 2.766
23.82000 0.609
23.84000 4.983
23.86000 4.061
23.88000 1.453
23.90000 5.083
23.92000 6.945
23.94000 1.370
23.96000 0.746
23.98000 4.620
24.00000 5.164
24.02000 0.549
24.04000 3.155
24.06000 4.950
24.08000 7.413
24.10000 8.250
24.12000 4.416
24.14000 3.158
24.16000 0.954
24.18000 0.844
24.20000 -0.680
24.22000 0.335
24.24000 1.880
24.26000 7.792
24.28000 7.399
24.30000 5.869
24.32000 1.624
24.34000 0.353
24.36000 0.673
24.38000 2.752
24.40000 8.490
24.42000 10.909
24.44000 6.746
24.46000 6.877
24.48000 8.425
24.50000 0.754
24.52000 -1.316
24.54000 7.866
24.56000 10.442
24.58000 7.965
24.60000 2.169
24.62000 1.599
24.64000 3.859
24.66000 1.472
24.68000 1.894
24.70000 2.235
24.72000 4.929
24.74000 1.342
24.76000 -3.937
24.78000 2.457
24.80000 5.107
24.82000 12.353
24.84000 3.762
24.86000 2.070
24.88000 5.048
24.90000 1.572
24.92000 4.039
24.94000 6.457
24.96000 2.463
24.98000 4.847
25.00000 7.468
25.02000 5.861
25.04000 2.106
25.06000 1.151
25.08000 4.995
25.10000 4.594
25.12000 0.626
25.14000 -2.508
25.16000 0.816
25.18000 4.540
25.20000 8.961
25.22000 4.167
25.24000 2.298
25.26000 2.671
25.28000 -3.912
25.30000 0.644
25.32000 0.879
25.34000 5.477
25.36000 7.178
25.38000 7.805
25.40000 5.079
25.42000 7.843
25.44000 16.322
25.46000 7.729
25.48000 2.012
25.50000 1.236
25.52000 5.250
25.54000 4.992
25.56000 3.667
25.58000 9.995
25.60000 5.748
25.62000 3.603
25.64000 5.741
25.66000 1.821
25.68000 5.217
25.70000 4.020
25.72000 -1.075
25.74000 1.005
25.76000 5.246
25.78000 7.341
25.80000 8.876
25.82000 8.193
25.84000 5.282
25.86000 5.373
25.88000 6.595
25.90000 2.682
25.92000 0.422
25.94000 4.835
25.96000 6.601
25.98000 1.544
26.00000 -0.204
26.02000 6.034
26.04000 6.700
26.06000 4.615
26.08000 -1.155
26.10000 -3.878
26.12000 3.753
26.14000 1.613
26.16000 2.586
26.18000 -0.242
26.20000 -3.873
26.22000 -2.329
26.24000 5.342
26.26000 6.213
26.28000 3.334
26.30000 -0.837
26.32000 -0.037
26.34000 4.611
26.36000 0.805
26.38000 -0.936
26.40000 0.262
26.42000 2.052
26.44000 0.995
26.46000 3.784
26.48000 0.799
26.50000 2.651
26.52000 4.145
26.54000 4.784
26.56000 -0.608
26.58000 -3.007
26.60000 -1.374
26.62000 1.903
26.64000 2.817
26.66000 4.248
26.68000 5.693
26.70000 5.775
26.72000 5.770
26.74000 -1.557
26.76000 -0.736
26.78000 2.632
26.80000 4.861
26.82000 4.241
26.84000 5.144
26.86000 7.558
26.88000 3.667
26.90000 1.636
26.92000 3.225
26.94000 4.330
26.96000 -2.485
26.98000 -3.833
27.00000 4.539
27.02000 0.743
27.04000 2.011
27.06000 4.699
27.08000 6.651
27.10000 9.155
27.12000 2.272
27.14000 -0.384
27.16000 7.605
27.18000 8.229
27.20000 4.067
27.22000 -1.355
27.24000 -0.671
27.26000 -3.118
27.28000 1.090
27.30000 -0.164
27.32000 -0.399
27.34000 1.627
27.36000 -1.315
27.38000 1.861
27.40000 0.366
27.42000 1.981
27.44000 3.626
27.46000 3.886
27.48000 0.939
27.50000 2.641
27.52000 5.361
27.54000 3.292
27.56000 2.238
27.58000 4.008
27.60000 3.980
27.62000 8.723
27.64000 4.634
27.66000 7.035
27.68000 3.416
27.70000 -0.025
27.72000 -0.435
27.74000 1.058
27.76000 3.490
27.78000 5.344
27.80000 5.075
27.82000 3.355
27.84000 0.462
27.86000 1.516
27.88000 5.246
27.90000 2.834
27.92000 -2.972
27.94000 3.183
27.96000 7.084
27.98000 5.976
28.00000 2.709
28.02000 6.014
28.04000 5.806
28.06000 -3.022
28.08000 -0.706
28.10000 -1.970
28.12000 7.195
28.14000 4.574
28.16000 2.267
28.18000 2.018
28.20000 -3.766
28.22000 1.616
28.24000 3.040
28.26000 0.824
28.28000 -1.571
28.30000 -1.487
28.32000 5.591
28.34000 1.388
28.36000 -3.757
28.38000 -3.753
28.40000 1.087
28.42000 8.204
28.44000 6.996
28.46000 0.889
28.48000 2.078
28.50000 1.627
28.52000 3.791
28.54000 1.708
28.56000 1.444
28.58000 4.290
28.60000 9.463
28.62000 6.170
28.64000 5.405
28.66000 6.697
28.68000 6.449
28.70000 4.830
28.72000 -0.293
28.74000 1.002
28.76000 -0.301
28.78000 -2.306
28.80000 3.344
28.82000 4.424
28.84000 4.315
28.86000 4.977
28.88000 3.959
28.90000 0.118
28.92000 -1.238
28.94000 2.056
28.96000 0.407
28.98000 -0.180
29.00000 6.016
29.02000 9.146
29.04000 7.751
29.06000 6.103
29.08000 1.901
29.10000 0.804
29.12000 3.327
29.14000 -0.619
29.16000 3.475
29.18000 5.183
29.20000 3.885
29.22000 1.988
29.24000 1.814
29.26000 5.111
29.28000 6.912
29.30000 1.626
29.32000 -3.504
29.34000 -1.490
29.36000 4.415
29.38000 5.019
29.40000 3.435
29.42000 4.362
29.44000 4.768
29.46000 3.911
29.48000 2.089
29.50000 3.300
29.52000 -0.054
29.54000 -1.772
29.56000 6.668
29.58000 9.161
29.60000 5.476
29.62000 5.722
29.64000 5.180
29.66000 9.500
29.68000 8.692
29.70000 4.634
29.72000 -3.396
29.74000 -3.679
29.76000 -0.219
29.78000 4.735
29.80000 3.725
29.82000 3.838
29.84000 1.240
29.86000 4.109
29.88000 -3.467
29.90000 -3.056
29.92000 2.758
29.94000 0.363
29.96000 -1.830
29.98000 2.380
30.00000 3.480
30.02000 -1.124
30.04000 1.300
30.06000 2.283
30.08000 -0.914
30.10000 -1.750
30.12000 3.331
30.14000 3.921
30.16000 6.026
30.18000 0.673
30.20000 2.555
30.22000 4.582
30.24000 3.888
30.26000 2.938
30.28000 5.633
30.30000 0.935
30.32000 1.675
30.34000 -0.094
30.36000 -2.272
30.38000 -2.709
30.40000 -0.094
30.42000 7.298
30.44000 4.384
30.46000 0.547
30.48000 -0.020
30.50000 3.236
30.52000 1.366
30.54000 1.653
30.56000 2.274
30.58000 3.114
30.60000 3.661
30.62000 -0.966
30.64000 -2.882
30.66000 -0.960
30.68000 0.454
30.70000 2.211
30.72000 4.165
30.74000 5.420
30.76000 2.697
30.78000 -1.944
30.80000 -3.650
30.82000 -2.853
30.84000 1.839
30.86000 3.498
30.88000 1.777
30.90000 7.936
30.92000 8.281
30.94000 5.971
30.96000 4.118
30.98000 4.426
31.00000 1.373
31.02000 -1.064
31.04000 -0.927
31.06000 8.993
31.08000 10.110
31.10000 13.829
31.12000 9.956
31.14000 4.991
31.16000 -0.985
31.18000 0.053
31.20000 3.569
31.22000 2.578
31.24000 3.075
31.26000 3.683
31.28000 2.033
31.30000 1.429
31.32000 2.744
31.34000 6.523
31.36000 3.555
31.38000 1.855
31.40000 -1.706
31.42000 4.272
31.44000 1.928
31.46000 -2.508
31.48000 0.789
31.50000 3.681
31.52000 1.234
31.54000 -0.009
31.56000 -0.043
31.58000 3.827
31.60000 5.545
31.62000 3.818
31.64000 3.891
31.66000 7.195
31.68000 3.107
31.70000 -0.015
31.72000 3.802
31.74000 1.005
31.76000 -0.361
31.78000 -0.684
31.80000 -3.600
31.82000 1.399
31.84000 3.776
31.86000 1.102
31.88000 0.095
31.90000 2.999
31.92000 3.641
31.94000 3.072
31.96000 9.989
31.98000 5.005
32.00000 4.254
32.02000 6.762
32.04000 6.149
32.06000 3.404
32.08000 1.570
32.10000 -0.835
32.12000 5.482
32.14000 6.165
32.16000 5.871
32.18000 0.879
32.20000 0.714
32.22000 1.736
32.24000 -0.408
32.26000 -2.476
32.28000 0.522
32.30000 3.070
32.32000 5.200
32.34000 3.541
32.36000 -1.918
32.38000 -2.105
32.40000 -3.587
32.42000 -1.187
32.44000 4.721
32.46000 3.048
32.48000 5.989
32.50000 3.128
32.52000 7.032
32.54000 5.075
32.56000 3.179
32.58000 -1.519
32.60000 0.202
32.62000 5.384
32.64000 3.143
32.66000 1.798
32.68000 0.973
32.70000 1.504
32.72000 1.497
32.74000 4.071
32.76000 -3.032
32.78000 2.485
32.80000 0.623
32.82000 2.873
32.84000 2.588
32.86000 1.141
32.88000 0.266
32.90000 -3.579
32.92000 0.708
32.94000 1.437
32.96000 -1.320
32.98000 2.197
33.00000 2.846
33.02000 0.850
33.04000 0.607
33.06000 0.255
33.08000 2.329
33.10000 1.230
33.12000 -0.586
33.14000 -2.011
33.16000 2.397
33.18000 -0.891
33.20000 0.501
33.22000 -2.229
33.24000 -1.717
33.26000 2.312
33.28000 3.076
33.30000 -0.154
33.32000 2.464
33.34000 2.029
33.36000 5.819
33.38000 1.931
33.40000 3.004
33.42000 2.650
33.44000 2.675
33.46000 0.219
33.48000 1.068
33.50000 1.375
33.52000 0.515
33.54000 -0.501
33.56000 4.470
33.58000 0.876
33.60000 0.656
33.62000 0.438
33.64000 5.305
33.66000 7.206
33.68000 3.158
33.70000 0.466
33.72000 2.331
33.74000 3.062
33.76000 1.139
33.78000 -0.231
33.80000 -0.161
33.82000 3.668
33.84000 6.753
33.86000 3.534
33.88000 4.374
33.90000 7.714
33.92000 9.288
33.94000 7.969
33.96000 2.956
33.98000 2.968
34.00000 1.597
34.02000 0.798
34.04000 3.036
34.06000 7.900
34.08000 7.092
34.10000 9.858
34.12000 6.189
34.14000 -0.510
34.16000 0.329
34.18000 4.906
34.20000 9.240
34.22000 11.118
34.24000 5.444
34.26000 0.981
34.28000 5.903
34.30000 5.999
34.32000 8.393
34.34000 8.276
34.36000 8.893
34.38000 8.414
34.40000 4.164
34.42000 2.825
34.44000 4.184
34.46000 7.913
34.48000 5.984
34.50000 4.224
34.52000 3.919
34.54000 7.701
34.56000 6.476
34.58000 3.305
34.60000 4.897
34.62000 5.940
34.64000 3.105
34.66000 3.426
34.68000 4.586
34.70000 7.794
34.72000 7.180
34.74000 9.934
34.76000 7.830
34.78000 7.755
34.80000 5.866
34.82000 3.357
34.84000 6.245
34.86000 8.385
34.88000 10.418
34.90000 8.241
34.92000 8.926
34.94000 8.279
34.96000 5.389
34.98000 4.357
35.00000 2.448
35.02000 -0.668
35.04000 -3.432
35.06000 -1.575
35.08000 1.084
35.10000 3.381
35.12000 8.818
35.14000 9.699
35.16000 10.463
35.18000 8.324
35.20000 5.032
35.22000 8.111
35.24000 9.469
35.26000 9.445
35.28000 8.597
35.30000 6.826
35.32000 5.120
35.34000 5.423
35.36000 8.032
35.38000 8.101
35.40000 8.359
35.42000 9.453
35.44000 8.650
35.46000 7.427
35.48000 4.610
35.50000 4.007
35.52000 8.461
35.54000 8.554
35.56000 2.510
35.58000 5.230
35.60000 6.199
35.62000 7.832
35.64000 6.656
35.66000 1.007
35.68000 1.027
35.70000 3.086
35.72000 3.979
35.74000 2.849
35.76000 3.446
35.78000 7.774
35.80000 9.843
35.82000 6.300
35.84000 4.616
35.86000 5.078
35.88000 3.446
35.90000 1.660
35.92000 4.864
35.94000 6.974
35.96000 2.481
35.98000 -1.115
36.00000 -1.119
36.02000 -0.529
36.04000 -0.040
36.06000 0.220
36.08000 -0.168
36.10000 -1.152
36.12000 0.702
36.14000 0.128
36.16000 0.022
36.18000 0.053
36.20000 3.323
36.22000 3.476
36.24000 0.088
36.26000 0.972
36.28000 4.022
36.30000 1.314
36.32000 -0.144
36.34000 -3.304
36.36000 -3.288
36.38000 -0.955
36.40000 3.370
36.42000 3.633
36.44000 1.285
36.46000 1.936
36.48000 6.958
36.50000 3.329
36.52000 -0.353
36.54000 2.266
36.56000 8.809
36.58000 6.364
36.60000 4.323
36.62000 4.881
36.64000 0.757
36.66000 -3.417
36.68000 -1.872
36.70000 2.230
36.72000 -3.502
36.74000 0.832
36.76000 0.753
36.78000 4.567
36.80000 6.418
36.82000 5.065
36.84000 4.060
36.86000 2.544
36.88000 2.788
36.90000 2.835
36.92000 2.058
36.94000 1.184
36.96000 2.605
36.98000 0.670
37.00000 1.922
37.02000 -1.591
37.04000 -3.523
37.06000 1.285
37.08000 3.432
37.10000 4.867
37.12000 0.588
37.14000 0.462
37.16000 -0.698
37.18000 -0.036
37.20000 -0.331
37.22000 5.765
37.24000 3.707
37.26000 0.888
37.28000 1.550
37.30000 1.030
37.32000 -3.559
37.34000 -3.289
37.36000 -3.023
37.38000 -2.133
37.40000 -0.768
37.42000 -0.257
37.44000 -2.626
37.46000 0.806
37.48000 1.190
37.50000 6.484
37.52000 3.202
37.54000 -1.259
37.56000 -2.434
37.58000 2.401
37.60000 3.468
37.62000 6.030
37.64000 6.303
37.66000 -0.541
37.68000 0.052
37.70000 1.454
37.72000 1.364
37.74000 5.067
37.76000 5.543
37.78000 -2.478
37.80000 1.028
37.82000 1.633
37.84000 4.539
37.86000 0.944
37.88000 5.122
37.90000 1.795
37.92000 1.789
37.94000 5.560
37.96000 5.149
37.98000 4.672
38.00000 2.278
38.02000 3.348
38.04000 2.101
38.06000 4.886
38.08000 3.553
38.10000 0.305
38.12000 5.519
38.14000 5.221
38.16000 11.058
38.18000 7.441
38.20000 6.631
38.22000 7.583
38.24000 7.637
38.26000 9.116
38.28000 6.929
38.30000 2.214
38.32000 8.970
38.34000 8.700
38.36000 11.500
38.38000 15.804
38.40000 17.275
38.42000 12.750
38.44000 9.973
38.46000 10.245
38.48000 8.754
38.50000 14.396
38.52000 14.417
38.54000 13.125
38.56000 7.420
38.58000 10.613
38.60000 18.889
38.62000 20.039
38.64000 18.074
38.66000 14.047
38.68000 14.331
38.70000 14.592
38.72000 19.156
38.74000 20.572
38.76000 18.856
38.78000 18.459
38.80000 22.868
38.82000 21.530
38.84000 22.681
38.86000 26.392
38.88000 24.463
38.90000 25.911
38.92000 27.075
38.94000 25.981
38.96000 25.996
38.98000 24.834
39.00000 26.704
39.02000 28.984
39.04000 34.833
39.06000 31.041
39.08000 34.241
39.10000 33.264
39.12000 39.664
39.14000 38.173
39.16000 37.424
39.18000 36.764
39.20000 36.756
39.22000 40.163
39.24000 45.130
39.26000 45.139
39.28000 47.551
39.30000 52.506
39.32000 47.160
39.34000 52.699
39.36000 56.178
39.38000 61.524
39.40000 62.929
39.42000 64.765
39.44000 65.379
39.46000 69.072
39.48000 74.741
39.50000 80.130
39.52000 76.704
39.54000 77.318
39.56000 87.594
39.58000 93.397
39.60000 97.376
39.62000 97.982
39.64000 103.879
39.66000 110.939
39.68000 122.569
39.70000 122.066
39.72000 131.119
39.74000 137.577
39.76000 140.884
39.78000 145.605
39.80000 154.239
39.82000 157.336
39.84000 160.913
39.86000 174.548
39.88000 188.916
39.90000 196.589
39.92000 202.638
39.94000 217.042
39.96000 231.185
39.98000 236.004
40.00000 239.486
40.02000 259.805
40.04000 271.417
40.06000 285.713
40.08000 297.938
40.10000 314.241
40.12000 326.630
40.14000 338.043
40.16000 355.437
40.18000 374.604
40.20000 390.396
40.22000 399.612
40.24000 403.596
40.26000 425.029
40.28000 443.090
40.30000 451.068
40.32000 460.654
40.34000 474.287
40.36000 480.926
40.38000 489.691
40.40000 505.942
40.42000 518.737
40.44000 530.347
40.46000 528.182
40.48000 531.974
40.50000 526.051
40.52000 522.884
40.54000 531.190
40.56000 523.627
40.58000 518.432
40.60000 527.763
40.62000 529.498
40.64000 522.407
40.66000 505.897
40.68000 493.523
40.70000 486.196
40.72000 473.967
40.74000 465.577
40.76000 456.185
40.78000 446.271
40.80000 422.599
40.82000 407.452
40.84000 399.369
40.86000 380.136
40.88000 372.417
40.90000 358.862
40.92000 342.591
40.94000 320.832
40.96000 314.126
40.98000 307.115
41.00000 295.374
41.02000 278.510
41.04000 262.741
41.06000 248.663
41.08000 237.177
41.10000 229.026
41.12000 210.677
41.14000 201.115
41.16000 193.453
41.18000 186.146
41.20000 180.085
41.22000 164.437
41.24000 159.607
41.26000 154.996
41.28000 138.690
41.30000 134.445
41.32000 126.625
41.34000 120.797
41.36000 117.489
41.38000 108.316
41.40000 105.016
41.42000 100.905
41.44000 94.166
41.46000 89.937
41.48000 86.151
41.50000 81.905
41.52000 79.296
41.54000 70.052
41.56000 69.367
41.58000 67.708
41.60000 64.875
41.62000 61.929
41.64000 59.664
41.66000 57.204
41.68000 54.515
41.70000 50.967
41.72000 47.172
41.74000 42.223
41.76000 44.081
41.78000 44.050
41.80000 35.273
41.82000 30.646
41.84000 31.312
41.86000 29.061
41.88000 24.487
41.90000 32.416
41.92000 30.909
41.94000 26.819
41.96000 25.739
41.98000 29.703
42.00000 32.263
42.02000 31.043
42.04000 28.379
42.06000 22.733
42.08000 21.999
42.10000 19.211
42.12000 16.005
42.14000 16.927
42.16000 16.934
42.18000 12.176
42.20000 11.272
42.22000 10.472
42.24000 13.873
42.26000 16.466
42.28000 15.743
42.30000 12.504
42.32000 12.717
42.34000 9.387
42.36000 7.150
42.38000 11.660
42.40000 10.324
42.42000 5.408
42.44000 9.989
42.46000 7.818
42.48000 9.768
42.50000 7.348
42.52000 8.212
42.54000 8.721
42.56000 6.600
42.58000 3.474
42.60000 8.129
42.62000 8.079
42.64000 4.969
42.66000 2.676
42.68000 5.324
42.70000 7.258
42.72000 6.303
42.74000 -0.352
42.76000 3.405
42.78000 4.140
42.80000 1.743
42.82000 -2.665
42.84000 -1.285
42.86000 1.982
42.88000 3.544
42.90000 2.057
42.92000 2.041
42.94000 4.435
42.96000 3.320
42.98000 4.846
43.00000 3.941
43.02000 3.372
43.04000 3.247
43.06000 1.839
43.08000 0.543
43.10000 1.132
43.12000 -2.625
43.14000 0.881
43.16000 3.891
43.18000 6.543
43.20000 3.682
43.22000 5.177
43.24000 6.946
43.26000 7.814
43.28000 8.575
43.30000 6.582
43.32000 5.550
43.34000 4.098
43.36000 2.188
43.38000 0.060
43.40000 -1.746
43.42000 -3.452
43.44000 -0.316
43.46000 -0.901
43.48000 3.919
43.50000 2.155
43.52000 5.577
43.54000 2.325
43.56000 -0.697
43.58000 2.871
43.60000 5.023
43.62000 3.188
43.64000 5.904
43.66000 3.260
43.68000 0.478
43.70000 -0.885
43.72000 0.537
43.74000 4.375
43.76000 3.972
43.78000 2.213
43.80000 1.761
43.82000 -1.371
43.84000 -2.509
43.86000 -1.444
43.88000 -0.193
43.90000 1.345
43.92000 5.638
43.94000 2.938
43.96000 0.551
43.98000 1.255
44.00000 2.136
44.02000 2.776
44.04000 0.797
44.06000 1.801
44.08000 5.046
44.10000 -0.462
44.12000 -3.448
44.14000 -1.012
44.16000 2.959
44.18000 1.727
44.20000 2.357
44.22000 0.531
44.24000 -0.713
44.26000 -0.447
44.28000 0.583
44.30000 -0.484
44.32000 0.533
44.34000 -0.169
44.36000 2.279
44.38000 3.301
44.40000 3.830
44.42000 1.120
44.44000 5.249
44.46000 6.842
44.48000 1.082
44.50000 1.952
44.52000 -3.442
44.54000 -2.401
44.56000 0.228
44.58000 -0.605
44.60000 -0.100
44.62000 8.142
44.64000 3.319
44.66000 2.880
44.68000 7.458
44.70000 10.852
44.72000 6.725
44.74000 1.148
44.76000 -1.354
44.78000 -1.444
44.80000 -3.059
44.82000 2.800
44.84000 0.940
44.86000 1.329
44.88000 -1.208
44.90000 -2.590
44.92000 -0.242
44.94000 3.086
44.96000 -1.993
44.98000 5.938
45.00000 5.504
45.02000 1.495
45.04000 1.049
45.06000 -0.290
45.08000 0.238
45.10000 1.543
45.12000 -0.481
45.14000 0.835
45.16000 4.258
45.18000 7.361
45.20000 3.530
45.22000 2.414
45.24000 3.039
45.26000 3.090
45.28000 -0.170
45.30000 -2.708
45.32000 2.837
45.34000 7.017
45.36000 6.760
45.38000 7.463
45.40000 8.895
45.42000 8.283
45.44000 7.145
45.46000 11.127
45.48000 8.873
45.50000 4.961
45.52000 10.279
45.54000 7.985
45.56000 5.904
45.58000 9.531
45.60000 10.411
45.62000 16.916
45.64000 14.870
45.66000 7.159
45.68000 6.737
45.70000 8.369
45.72000 9.233
45.74000 12.032
45.76000 11.600
45.78000 7.932
45.80000 13.239
45.82000 18.129
45.84000 18.212
45.86000 17.560
45.88000 18.916
45.90000 17.164
45.92000 19.679
45.94000 23.699
45.96000 22.132
45.98000 24.357
46.00000 20.025
46.02000 24.239
46.04000 28.932
46.06000 20.633
46.08000 22.932
46.10000 26.097
46.12000 26.333
46.14000 34.967
46.16000 35.798
46.18000 35.382
46.20000 31.314
46.22000 29.518
46.24000 33.401
46.26000 29.285
46.28000 35.263
46.30000 39.044
46.32000 39.908
46.34000 39.552
46.36000 43.580
46.38000 45.384
46.40000 43.725
46.42000 52.173
46.44000 55.690
46.46000 47.786
46.48000 38.931
46.50000 48.075
46.52000 53.761
46.54000 52.951
46.56000 49.208
46.58000 49.117
46.60000 56.735
46.62000 58.746
46.64000 60.023
46.66000 57.237
46.68000 58.655
46.70000 68.258
46.72000 73.473
46.74000 63.523
46.76000 62.951
46.78000 72.696
46.80000 68.700
46.82000 64.278
46.84000 64.973
46.86000 67.948
46.88000 69.934
46.90000 72.775
46.92000 76.325
46.94000 74.519
46.96000 78.171
46.98000 80.717
47.00000 82.590
47.02000 81.232
47.04000 81.455
47.06000 79.001
47.08000 83.501
47.10000 82.957
47.12000 84.655
47.14000 78.825
47.16000 74.853
47.18000 80.739
47.20000 80.303
47.22000 76.742
47.24000 77.048
47.26000 78.210
47.28000 69.825
47.30000 67.951
47.32000 69.811
47.34000 70.546
47.36000 67.520
47.38000 73.859
47.40000 73.643
47.42000 68.786
47.44000 62.826
47.46000 67.216
47.48000 62.967
47.50000 56.369
47.52000 57.843
47.54000 60.557
47.56000 63.599
47.58000 65.125
47.60000 60.753
47.62000 61.052
47.64000 50.949
47.66000 45.354
47.68000 48.332
47.70000 46.879
47.72000 48.921
47.74000 46.584
47.76000 46.620
47.78000 43.942
47.80000 45.556
47.82000 44.051
47.84000 42.311
47.86000 42.878
47.88000 38.774
47.90000 31.778
47.92000 27.320
47.94000 38.343
47.96000 36.367
47.98000 27.479
48.00000 26.868
48.02000 27.578
48.04000 27.490
48.06000 31.809
48.08000 25.401
48.10000 23.034
48.12000 24.538
48.14000 23.672
48.16000 19.974
48.18000 17.952
48.20000 27.035
48.22000 22.116
48.24000 20.873
48.26000 21.977
48.28000 18.568
48.30000 16.737
48.32000 11.082
48.34000 8.221
48.36000 9.379
48.38000 11.683
48.40000 13.301
48.42000 9.357
48.44000 7.805
48.46000 10.745
48.48000 5.787
48.50000 0.370
48.52000 2.005
48.54000 8.225
48.56000 6.300
48.58000 0.773
48.60000 -1.383
48.62000 2.969
48.64000 7.612
48.66000 10.600
48.68000 1.515
48.70000 2.401
48.72000 4.103
48.74000 2.906
48.76000 2.857
48.78000 -2.340
48.80000 1.741
48.82000 -1.584
48.84000 1.362
48.86000 3.667
48.88000 0.734
48.90000 0.551
48.92000 4.510
48.94000 2.234
48.96000 1.742
48.98000 -1.569
49.00000 0.048
49.02000 1.282
49.04000 -3.103
49.06000 -1.738
49.08000 2.906
49.10000 3.221
49.12000 2.807
49.14000 3.696
49.16000 1.752
49.18000 2.564
49.20000 1.984
49.22000 4.500
49.24000 -1.147
49.26000 -0.920
49.28000 2.328
49.30000 6.579
49.32000 6.945
49.34000 4.899
49.36000 5.377
49.38000 11.169
49.40000 7.102
49.42000 4.535
49.44000 8.298
49.46000 5.188
49.48000 0.004
49.50000 3.812
49.52000 3.391
49.54000 2.231
49.56000 1.567
49.58000 3.906
49.60000 2.191
49.62000 0.468
49.64000 1.477
49.66000 -0.100
49.68000 -1.764
49.70000 2.639
49.72000 9.689
49.74000 5.119
49.76000 3.308
49.78000 4.144
49.80000 3.759
49.82000 4.020
49.84000 2.530
49.86000 4.782
49.88000 3.987
49.90000 1.486
49.92000 4.147
49.94000 3.362
49.96000 5.462
49.98000 5.037
50.00000 3.472
50.02000 4.531
50.04000 3.640
50.06000 3.210
50.08000 4.556
50.10000 3.556
50.12000 3.866
50.14000 3.524
50.16000 7.816
50.18000 12.517
50.20000 8.664
50.22000 6.821
50.24000 0.540
50.26000 -2.901
50.28000 4.143
50.30000 6.219
50.32000 0.359
50.34000 9.014
50.36000 11.654
50.38000 7.369
50.40000 10.257
50.42000 7.149
50.44000 8.731
50.46000 5.775
50.48000 10.123
50.50000 7.007
50.52000 6.108
50.54000 4.924
50.56000 1.633
50.58000 4.645
50.60000 2.913
50.62000 -0.316
50.64000 4.587
50.66000 2.539
50.68000 -2.898
50.70000 0.574
50.72000 2.296
50.74000 3.326
50.76000 2.451
50.78000 6.473
50.80000 7.662
50.82000 9.398
50.84000 7.932
50.86000 7.252
50.88000 6.802
50.90000 7.901
50.92000 3.327
50.94000 3.565
50.96000 4.775
50.98000 4.686
51.00000 2.745
51.02000 1.315
51.04000 2.295
51.06000 0.315
51.08000 0.530
51.10000 1.308
51.12000 3.686
51.14000 2.767
51.16000 5.017
51.18000 11.524
51.20000 10.427
51.22000 4.621
51.24000 4.497
51.26000 0.229
51.28000 0.515
51.30000 -0.395
51.32000 2.682
51.34000 0.716
51.36000 -0.844
51.38000 0.652
51.40000 -2.497
51.42000 -2.287
51.44000 0.400
51.46000 3.517
51.48000 1.294
51.50000 3.655
51.52000 4.029
51.54000 3.581
51.56000 2.440
51.58000 1.935
51.60000 1.491
51.62000 -0.146
51.64000 3.691
51.66000 2.989
51.68000 -2.676
51.70000 -2.605
51.72000 2.087
51.74000 1.046
51.76000 -2.891
51.78000 2.399
51.80000 1.973
51.82000 7.179
51.84000 7.080
51.86000 8.957
51.88000 0.856
51.90000 0.195
51.92000 -1.080
51.94000 -0.119
51.96000 5.550
51.98000 1.941
52.00000 1.133
52.02000 1.636
52.04000 1.491
52.06000 3.928
52.08000 2.398
52.10000 4.621
52.12000 6.453
52.14000 5.792
52.16000 6.028
52.18000 6.456
52.20000 4.991
52.22000 1.041
52.24000 0.509
52.26000 2.161
52.28000 3.848
52.30000 6.121
52.32000 3.775
52.34000 4.751
52.36000 2.812
52.38000 3.549
52.40000 5.056
52.42000 7.309
52.44000 4.111
52.46000 1.213
52.48000 3.334
52.50000 2.432
52.52000 5.877
52.54000 5.006
52.56000 0.887
52.58000 2.745
52.60000 -1.333
52.62000 -2.849
52.64000 4.779
52.66000 2.747
52.68000 2.859
52.70000 7.948
52.72000 5.093
52.74000 0.627
52.76000 2.031
52.78000 3.353
52.80000 2.147
52.82000 1.981
52.84000 1.318
52.86000 4.769
52.88000 4.680
52.90000 5.793
52.92000 2.320
52.94000 2.031
52.96000 1.464
52.98000 -2.661
53.00000 2.879
53.02000 4.550
53.04000 0.134
53.06000 4.098
53.08000 2.804
53.10000 -0.560
53.12000 1.604
53.14000 2.014
53.16000 6.874
53.18000 4.584
53.20000 6.197
53.22000 5.183
53.24000 0.873
53.26000 5.089
53.28000 -0.624
53.30000 -0.690
53.32000 -0.221
53.34000 3.096
53.36000 1.594
53.38000 2.500
53.40000 6.006
53.42000 6.453
53.44000 3.640
53.46000 -0.816
53.48000 0.159
53.50000 1.242
53.52000 3.483
53.54000 1.952
53.56000 2.290
53.58000 -2.802
53.60000 0.636
53.62000 1.857
53.64000 3.716
53.66000 2.465
53.68000 2.195
53.70000 5.215
53.72000 0.596
53.74000 0.680
53.76000 0.653
53.78000 3.964
53.80000 2.494
53.82000 3.157
53.84000 4.687
53.86000 3.425
53.88000 2.712
53.90000 3.894
53.92000 -0.395
53.94000 1.732
53.96000 -0.167
53.98000 4.100
54.00000 1.502
54.02000 2.368
54.04000 2.866
54.06000 0.714
54.08000 -1.284
54.10000 0.033
54.12000 -2.246
54.14000 -1.457
54.16000 0.451
54.18000 1.195
54.20000 6.323
54.22000 3.878
54.24000 7.170
54.26000 4.637
54.28000 2.617
54.30000 6.406
54.32000 2.370
54.34000 -0.398
54.36000 2.401
54.38000 6.544
54.40000 0.802
54.42000 -1.474
54.44000 2.961
54.46000 -1.772
54.48000 0.958
54.50000 -0.164
54.52000 2.187
54.54000 -0.093
54.56000 0.045
54.58000 2.337
54.60000 4.799
54.62000 8.019
54.64000 3.713
54.66000 4.055
54.68000 6.475
54.70000 3.254
54.72000 -0.257
54.74000 -2.786
54.76000 2.490
54.78000 2.179
54.80000 0.579
54.82000 1.052
54.84000 -0.298
54.86000 0.250
54.88000 3.553
54.90000 1.825
54.92000 0.166
54.94000 -0.265
54.96000 1.664
54.98000 0.266
55.00000 -0.146
55.02000 -2.040
55.04000 -2.530
55.06000 -1.236
55.08000 -1.518
55.10000 -0.427
55.12000 5.902
55.14000 5.409
55.16000 5.594
55.18000 4.512
55.20000 6.663
55.22000 4.643
55.24000 4.744
55.26000 2.425
55.28000 3.620
55.30000 6.457
55.32000 4.312
55.34000 0.276
55.36000 2.668
55.38000 3.877
55.40000 5.995
55.42000 4.457
55.44000 2.276
55.46000 0.721
55.48000 2.972
55.50000 4.461
55.52000 -2.742
55.54000 -2.448
55.56000 3.152
55.58000 3.355
55.60000 5.453
55.62000 2.544
55.64000 -1.198
55.66000 -2.636
55.68000 2.922
55.70000 -0.282
55.72000 0.020
55.74000 0.497
55.76000 0.929
55.78000 7.658
55.80000 8.137
55.82000 5.561
55.84000 5.704
55.86000 9.656
55.88000 8.501
55.90000 2.517
55.92000 4.757
55.94000 8.547
55.96000 9.395
55.98000 1.560
56.00000 6.242
56.02000 5.191
56.04000 5.195
56.06000 1.591
56.08000 0.050
56.10000 5.912
56.12000 2.167
56.14000 3.553
56.16000 6.164
56.18000 4.011
56.20000 6.863
56.22000 2.439
56.24000 4.815
56.26000 7.955
56.28000 3.778
56.30000 1.654
56.32000 0.483
56.34000 3.797
56.36000 4.194
56.38000 -0.936
56.40000 2.268
56.42000 0.356
56.44000 -2.424
56.46000 -1.424
56.48000 3.121
56.50000 1.117
56.52000 0.302
56.54000 0.688
56.56000 1.851
56.58000 2.367
56.60000 1.159
56.62000 3.922
56.64000 1.600
56.66000 6.535
56.68000 2.396
56.70000 1.027
56.72000 4.357
56.74000 2.901
56.76000 3.682
56.78000 2.546
56.80000 -0.916
56.82000 6.018
56.84000 7.499
56.86000 2.774
56.88000 4.429
56.90000 3.999
56.92000 2.552
56.94000 4.463
56.96000 2.975
56.98000 5.990
57.00000 2.452
57.02000 4.696
57.04000 3.059
57.06000 3.213
57.08000 0.375
57.10000 -0.971
57.12000 -0.375
57.14000 0.856
57.16000 0.625
57.18000 1.081
57.20000 3.459
57.22000 3.961
57.24000 4.311
57.26000 1.509
57.28000 -1.773
57.30000 -1.949
57.32000 -2.673
57.34000 3.136
57.36000 6.457
57.38000 5.910
57.40000 4.044
57.42000 5.186
57.44000 5.299
57.46000 4.076
57.48000 2.592
57.50000 -1.263
57.52000 1.966
57.54000 2.610
57.56000 4.382
57.58000 6.378
57.60000 9.585
57.62000 5.268
57.64000 3.275
57.66000 2.723
57.68000 4.123
57.70000 3.835
57.72000 3.955
57.74000 2.302
57.76000 3.526
57.78000 1.313
57.80000 3.276
57.82000 3.809
57.84000 1.755
57.86000 2.004
57.88000 1.652
57.90000 6.680
57.92000 5.448
57.94000 -0.248
57.96000 2.512
57.98000 4.036
58.00000 3.855
58.02000 3.905
58.04000 6.368
58.06000 4.234
58.08000 -0.023
58.10000 2.483
58.12000 1.389
58.14000 -1.466
58.16000 -0.878
58.18000 -1.435
58.20000 3.927
58.22000 4.783
58.24000 3.789
58.26000 1.776
58.28000 3.708
58.30000 4.466
58.32000 2.756
58.34000 2.428
58.36000 0.669
58.38000 1.262
58.40000 -1.409
58.42000 0.895
58.44000 6.390
58.46000 1.799
58.48000 -2.370
58.50000 -0.367
58.52000 4.788
58.54000 7.104
58.56000 0.366
58.58000 4.729
58.60000 5.969
58.62000 4.726
58.64000 1.064
58.66000 2.331
58.68000 5.217
58.70000 2.884
58.72000 0.599
58.74000 3.830
58.76000 5.022
58.78000 5.567
58.80000 7.778
58.82000 9.517
58.84000 5.879
58.86000 3.955
58.88000 2.126
58.90000 2.330
58.92000 0.590
58.94000 -2.637
58.96000 3.878
58.98000 3.978
59.00000 7.329
59.02000 5.685
59.04000 2.734
59.06000 4.014
59.08000 5.234
59.10000 3.382
59.12000 2.084
59.14000 1.894
59.16000 4.818
59.18000 9.012
59.20000 7.003
59.22000 4.703
59.24000 4.089
59.26000 5.643
59.28000 4.950
59.30000 3.090
59.32000 4.944
59.34000 6.151
59.36000 5.475
59.38000 3.282
59.40000 2.084
59.42000 2.755
59.44000 8.321
59.46000 5.097
59.48000 6.113
59.50000 2.658
59.52000 0.103
59.54000 3.204
59.56000 9.245
59.58000 10.496
59.60000 8.384
59.62000 5.632
59.64000 3.973
59.66000 3.359
59.68000 9.014
59.70000 2.584
59.72000 1.199
59.74000 2.977
59.76000 6.903
59.78000 5.636
59.80000 4.130
59.82000 7.587
59.84000 6.293
59.86000 8.177
59.88000 2.453
59.90000 -2.041
59.92000 -2.263
59.94000 -0.013
59.96000 5.314
59.98000 1.853
60.00000 4.111
60.02000 0.613
60.04000 2.290
60.06000 2.000
60.08000 1.770
60.10000 0.406
60.12000 3.415
60.14000 4.697
60.16000 0.974
60.18000 -2.595
60.20000 -0.651
60.22000 4.150
60.24000 0.933
60.26000 4.974
60.28000 2.007
60.30000 0.353
60.32000 -0.410
60.34000 1.044
60.36000 0.749
60.38000 -0.573
60.40000 2.325
60.42000 2.758
60.44000 2.164
60.46000 -0.088
60.48000 4.075
60.50000 4.170
60.52000 4.921
60.54000 6.464
60.56000 1.920
60.58000 3.998
60.60000 2.335
60.62000 1.066
60.64000 2.391
60.66000 2.740
60.68000 0.517
60.70000 -2.589
60.72000 0.799
60.74000 6.353
60.76000 3.405
60.78000 1.785
60.80000 1.234
60.82000 -2.513
60.84000 -1.177
60.86000 0.340
60.88000 0.940
60.90000 0.742
60.92000 2.182
60.94000 1.468
60.96000 1.820
60.98000 3.813
61.00000 3.546
61.02000 6.820
61.04000 5.404
61.06000 5.194
61.08000 2.423
61.10000 2.922
61.12000 4.264
61.14000 3.760
61.16000 -0.849
61.18000 -1.467
61.20000 0.623
61.22000 -0.031
61.24000 0.079
61.26000 2.223
61.28000 -0.590
61.30000 -2.297
61.32000 -1.261
61.34000 0.003
61.36000 -2.074
61.38000 -0.327
61.40000 2.507
61.42000 -1.946
61.44000 -2.564
61.46000 0.155
61.48000 2.245
61.50000 -2.175
61.52000 -0.928
61.54000 3.184
61.56000 4.379
61.58000 1.917
61.60000 0.947
61.62000 -0.956
61.64000 7.400
61.66000 5.788
61.68000 2.242
61.70000 -1.290
61.72000 2.102
61.74000 0.014
61.76000 -2.566
61.78000 2.998
61.80000 1.940
61.82000 4.885
61.84000 0.229
61.86000 1.351
61.88000 0.187
61.90000 -0.822
61.92000 1.920
61.94000 2.894
61.96000 4.720
61.98000 1.006
62.00000 0.404
62.02000 0.530
62.04000 0.550
62.06000 1.066
62.08000 4.412
62.10000 3.589
62.12000 2.983
62.14000 4.802
62.16000 2.602
62.18000 0.719
62.20000 2.380
62.22000 2.717
62.24000 -0.241
62.26000 3.774
62.28000 2.608
62.30000 2.034
62.32000 2.462
62.34000 3.100
62.36000 4.682
62.38000 4.640
62.40000 3.887
62.42000 1.678
62.44000 -1.693
62.46000 -1.884
62.48000 0.246
62.50000 3.209
62.52000 2.743
62.54000 4.219
62.56000 2.031
62.58000 1.766
62.60000 0.686
62.62000 -1.138
62.64000 -2.497
62.66000 -0.210
62.68000 -2.007
62.70000 -1.568
62.72000 -1.624
62.74000 2.471
62.76000 2.146
62.78000 4.152
62.80000 -0.568
62.82000 1.423
62.84000 6.632
62.86000 1.075
62.88000 1.501
62.90000 0.597
62.92000 -1.912
62.94000 2.481
62.96000 1.599
62.98000 2.783
63.00000 1.198
63.02000 0.278
63.04000 0.405
63.06000 0.791
63.08000 0.650
63.10000 1.540
63.12000 6.923
63.14000 6.973
63.16000 2.541
63.18000 3.112
63.20000 3.418
63.22000 3.902
63.24000 3.415
63.26000 3.494
63.28000 4.035
63.30000 3.355
63.32000 1.987
63.34000 -0.526
63.36000 -1.700
63.38000 2.047
63.40000 4.118
63.42000 -0.331
63.44000 -0.123
63.46000 0.587
63.48000 -2.534
63.50000 2.375
63.52000 5.180
63.54000 3.653
63.56000 0.071
63.58000 0.801
63.60000 0.945
63.62000 1.694
63.64000 1.159
63.66000 5.535
63.68000 5.439
63.70000 6.949
63.72000 5.560
63.74000 -1.520
63.76000 -2.512
63.78000 0.934
63.80000 1.852
63.82000 -0.605
63.84000 0.145
63.86000 2.751
63.88000 2.717
63.90000 5.751
63.92000 5.646
63.94000 3.225
63.96000 1.566
63.98000 -1.027
64.00000 1.507
64.02000 4.489
64.04000 2.348
64.06000 1.921
64.08000 0.845
64.10000 3.428
64.12000 3.180
64.14000 1.563
64.16000 -1.857
64.18000 2.378
64.20000 7.231
64.22000 2.289
64.24000 1.715
64.26000 2.992
64.28000 1.421
64.30000 2.005
64.32000 4.778
64.34000 2.821
64.36000 2.413
64.38000 4.693
64.40000 3.750
64.42000 -0.631
64.44000 3.054
64.46000 -2.269
64.48000 -2.335
64.50000 -2.290
64.52000 -2.227
64.54000 2.654
64.56000 4.738
64.58000 4.972
64.60000 2.784
64.62000 1.326
64.64000 -2.548
64.66000 2.223
64.68000 2.727
64.70000 2.344
64.72000 2.709
64.74000 2.367
64.76000 2.906
64.78000 5.188
64.80000 2.422
64.82000 4.426
64.84000 5.437
64.86000 2.592
64.88000 2.213
64.90000 -1.188
64.92000 -1.572
64.94000 -1.880
64.96000 2.838
64.98000 4.169
65.00000 1.590
65.02000 -1.461
65.04000 -0.512
65.06000 2.507
65.08000 3.159
65.10000 6.022
65.12000 5.418
65.14000 2.087
65.16000 1.024
65.18000 1.988
65.20000 3.337
65.22000 -2.548
65.24000 -1.881
65.26000 1.067
65.28000 1.771
65.30000 0.715
65.32000 2.778
65.34000 -1.014
65.36000 0.502
65.38000 0.191
65.40000 2.135
65.42000 4.250
65.44000 4.006
65.46000 1.948
65.48000 -0.402
65.50000 0.284
65.52000 0.002
65.54000 1.045
65.56000 2.055
65.58000 1.103
65.60000 1.815
65.62000 1.505
65.64000 2.893
65.66000 1.292
65.68000 2.661
65.70000 3.357
65.72000 1.377
65.74000 1.558
65.76000 3.243
65.78000 1.345
65.80000 2.086
65.82000 1.584
65.84000 2.424
65.86000 5.490
65.88000 4.119
65.90000 0.089
65.92000 -0.971
65.94000 1.163
65.96000 1.715
65.98000 2.174
66.00000 2.185
66.02000 0.946
66.04000 0.908
66.06000 -2.528
66.08000 -0.446
66.10000 -1.267
66.12000 2.819
66.14000 2.898
66.16000 2.429
66.18000 -0.287
66.20000 -2.565
66.22000 -0.290
66.24000 -0.341
66.26000 3.312
66.28000 7.214
66.30000 0.898
66.32000 -1.103
66.34000 1.589
66.36000 2.171
66.38000 2.262
66.40000 3.880
66.42000 1.028
66.44000 2.816
66.46000 2.308
66.48000 2.775
66.50000 3.487
66.52000 1.729
66.54000 0.894
66.56000 2.035
66.58000 2.377
66.60000 -0.058
66.62000 2.472
66.64000 2.572
66.66000 1.090
66.68000 3.535
66.70000 6.324
66.72000 3.753
66.74000 2.398
66.76000 1.140
66.78000 1.427
66.80000 -2.596
66.82000 0.410
66.84000 2.337
66.86000 2.434
66.88000 2.453
66.90000 3.648
66.92000 5.109
66.94000 4.801
66.96000 2.496
66.98000 0.103
67.00000 -0.850
67.02000 -0.233
67.04000 0.825
67.06000 4.181
67.08000 4.187
67.10000 1.657
67.12000 -1.660
67.14000 -2.446
67.16000 5.987
67.18000 1.958
67.20000 0.300
67.22000 -0.317
67.24000 3.011
67.26000 4.345
67.28000 3.009
67.30000 5.927
67.32000 4.904
67.34000 6.646
67.36000 1.525
67.38000 2.663
67.40000 3.323
67.42000 0.697
67.44000 1.988
67.46000 3.218
67.48000 -0.558
67.50000 1.602
67.52000 2.389
67.54000 2.927
67.56000 4.175
67.58000 4.375
67.60000 2.401
67.62000 2.422
67.64000 0.997
67.66000 3.572
67.68000 3.830
67.70000 4.889
67.72000 3.470
67.74000 2.302
67.76000 4.018
67.78000 9.093
67.80000 5.978
67.82000 8.293
67.84000 8.136
67.86000 6.724
67.88000 6.588
67.90000 3.927
67.92000 5.317
67.94000 9.626
67.96000 8.333
67.98000 3.711
68.00000 6.723
68.02000 6.770
68.04000 7.874
68.06000 7.746
68.08000 9.198
68.10000 13.754
68.12000 14.975
68.14000 15.403
68.16000 14.908
68.18000 16.295
68.20000 15.248
68.22000 12.236
68.24000 13.255
68.26000 14.780
68.28000 15.739
68.30000 13.869
68.32000 14.182
68.34000 15.375
68.36000 18.608
68.38000 15.904
68.40000 16.503
68.42000 16.403
68.44000 18.068
68.46000 18.209
68.48000 17.420
68.50000 19.637
68.52000 16.931
68.54000 21.683
68.56000 23.681
68.58000 20.562
68.60000 16.314
68.62000 17.857
68.64000 20.941
68.66000 22.480
68.68000 21.952
68.70000 22.480
68.72000 24.739
68.74000 22.797
68.76000 19.583
68.78000 25.800
68.80000 24.361
68.82000 20.545
68.84000 19.281
68.86000 24.587
68.88000 25.158
68.90000 24.350
68.92000 22.865
68.94000 22.347
68.96000 26.126
68.98000 26.811
69.00000 24.606
69.02000 22.345
69.04000 23.649
69.06000 19.521
69.08000 17.481
69.10000 16.991
69.12000 19.622
69.14000 23.783
69.16000 18.940
69.18000 16.169
69.20000 18.464
69.22000 17.631
69.24000 13.218
69.26000 16.939
69.28000 20.454
69.30000 14.164
69.32000 13.479
69.34000 15.144
69.36000 12.070
69.38000 14.232
69.40000 16.080
69.42000 14.802
69.44000 15.208
69.46000 15.657
69.48000 10.162
69.50000 11.119
69.52000 9.453
69.54000 8.922
69.56000 8.175
69.58000 6.694
69.60000 9.278
69.62000 14.131
69.64000 10.591
69.66000 9.105
69.68000 0.595
69.70000 1.144
69.72000 5.369
69.74000 5.751
69.76000 8.510
69.78000 8.338
69.80000 9.307
69.82000 3.653
69.84000 3.062
69.86000 8.329
69.88000 5.393
69.90000 2.537
69.92000 4.189
69.94000 -0.154
69.96000 3.289
69.98000 3.336
70.00000 8.280
70.02000 7.287
70.04000 6.932
70.06000 6.563
70.08000 2.422
70.10000 3.956
70.12000 2.992
70.14000 6.067
70.16000 7.571
70.18000 2.071
70.20000 0.879
70.22000 1.435
70.24000 6.140
70.26000 0.555
70.28000 1.459
70.30000 -0.497
70.32000 2.579
70.34000 3.413
70.36000 0.196
70.38000 0.428
70.40000 4.443
70.42000 4.287
70.44000 -0.368
70.46000 0.880
70.48000 1.047
70.50000 2.164
70.52000 3.742
70.54000 4.098
70.56000 4.659
70.58000 -1.170
70.60000 1.048
70.62000 3.920
70.64000 2.861
70.66000 3.277
70.68000 -1.853
70.70000 1.343
70.72000 -0.155
70.74000 -2.509
70.76000 2.317
70.78000 5.647
70.80000 -1.178
70.82000 -1.540
70.84000 5.500
70.86000 4.120
70.88000 -0.284
70.90000 2.464
70.92000 3.597
70.94000 0.149
70.96000 3.821
70.98000 1.965
71.00000 -2.041
71.02000 -2.469
71.04000 2.380
71.06000 2.772
71.08000 2.821
71.10000 0.239
71.12000 1.856
71.14000 7.792
71.16000 3.408
71.18000 6.168
71.20000 3.804
71.22000 4.668
71.24000 3.384
71.26000 4.108
71.28000 5.574
71.30000 3.533
71.32000 1.696
71.34000 2.288
71.36000 2.076
71.38000 3.315
71.40000 6.635
71.42000 8.841
71.44000 4.355
71.46000 0.983
71.48000 -0.218
71.50000 6.383
71.52000 5.343
71.54000 3.750
71.56000 4.764
71.58000 1.978
71.60000 -2.385
71.62000 4.168
71.64000 7.513
71.66000 5.925
71.68000 4.202
71.70000 7.161
71.72000 3.519
71.74000 0.444
71.76000 1.272
71.78000 -0.264
71.80000 1.199
71.82000 2.260
71.84000 5.228
71.86000 5.256
71.88000 8.742
71.90000 6.883
71.92000 4.318
71.94000 3.446
71.96000 6.011
71.98000 7.373
72.00000 9.958
72.02000 6.579
72.04000 -0.233
72.06000 0.746
72.08000 3.868
72.10000 1.606
72.12000 2.052
72.14000 2.302
72.16000 -0.598
72.18000 0.189
72.20000 2.059
72.22000 2.760
72.24000 5.496
72.26000 4.508
72.28000 7.495
72.30000 4.672
72.32000 0.167
72.34000 0.359
72.36000 4.922
72.38000 7.369
72.40000 4.825
72.42000 7.843
72.44000 1.998
72.46000 -2.391
72.48000 3.243
72.50000 3.173
72.52000 4.270
72.54000 3.420
72.56000 4.442
72.58000 6.674
72.60000 8.824
72.62000 4.926
72.64000 1.163
72.66000 0.050
72.68000 -0.599
72.70000 3.754
72.72000 7.031
72.74000 6.158
72.76000 4.264
72.78000 5.879
72.80000 2.406
72.82000 3.558
72.84000 3.128
72.86000 0.232
72.88000 3.277
72.90000 4.234
72.92000 4.052
72.94000 2.392
72.96000 -0.236
72.98000 -0.890
73.00000 3.350
73.02000 4.745
73.04000 1.945
73.06000 -2.374
73.08000 -0.436
73.10000 5.555
73.12000 2.888
73.14000 1.750
73.16000 1.438
73.18000 5.937
73.20000 6.151
73.22000 6.223
73.24000 6.742
73.26000 6.383
73.28000 3.178
73.30000 0.063
73.32000 0.331
73.34000 2.355
73.36000 3.087
73.38000 2.192
73.40000 2.036
73.42000 2.279
73.44000 1.267
73.46000 1.495
73.48000 4.304
73.50000 6.377
73.52000 6.260
73.54000 3.832
73.56000 4.377
73.58000 5.494
73.60000 7.277
73.62000 -2.345
73.64000 1.737
73.66000 4.674
73.68000 7.236
73.70000 3.997
73.72000 4.899
73.74000 0.840
73.76000 0.279
73.78000 1.611
73.80000 2.857
73.82000 3.299
73.84000 1.031
73.86000 0.033
73.88000 2.224
73.90000 3.393
73.92000 3.997
73.94000 3.922
73.96000 6.627
73.98000 6.371
74.00000 5.423
74.02000 2.859
74.04000 1.578
74.06000 2.952
74.08000 3.250
74.10000 0.456
74.12000 3.535
74.14000 3.767
74.16000 -0.477
74.18000 2.127
74.20000 1.900
74.22000 0.049
74.24000 -0.643
74.26000 3.448
74.28000 7.341
74.30000 6.435
74.32000 7.252
74.34000 8.609
74.36000 5.636
74.38000 0.373
74.40000 1.130
74.42000 -2.369
74.44000 -0.562
74.46000 2.797
74.48000 2.383
74.50000 2.171
74.52000 1.426
74.54000 3.206
74.56000 -0.998
74.58000 -1.155
74.60000 -1.753
74.62000 1.474
74.64000 5.257
74.66000 5.226
74.68000 1.406
74.70000 0.737
74.72000 0.535
74.74000 -0.856
74.76000 -1.567
74.78000 0.498
74.80000 -1.446
74.82000 0.610
74.84000 6.325
74.86000 6.312
74.88000 3.715
74.90000 -0.527
74.92000 -0.784
74.94000 0.903
74.96000 -0.161
74.98000 -1.810
75.00000 1.619
75.02000 0.675
75.04000 -2.359
75.06000 -1.343
75.08000 4.441
75.10000 9.091
75.12000 6.727
75.14000 4.462
75.16000 4.557
75.18000 9.955
75.20000 6.386
75.22000 4.315
75.24000 4.184
75.26000 0.354
75.28000 -0.941
75.30000 2.056
75.32000 1.659
75.34000 1.459
75.36000 0.235
75.38000 1.952
75.40000 2.555
75.42000 6.616
75.44000 3.081
75.46000 6.106
75.48000 8.029
75.50000 1.267
75.52000 0.532
75.54000 3.085
75.56000 5.381
75.58000 4.902
75.60000 0.177
75.62000 -0.730
75.64000 1.818
75.66000 2.925
75.68000 3.452
75.70000 1.969
75.72000 2.267
75.74000 5.298
75.76000 1.523
75.78000 3.726
75.80000 0.673
75.82000 0.094
75.84000 7.105
75.86000 3.260
75.88000 0.367
75.90000 1.240
75.92000 3.403
75.94000 6.239
75.96000 3.081
75.98000 -1.581
76.00000 -2.369
76.02000 0.909
76.04000 -1.184
76.06000 1.409
76.08000 5.027
76.10000 8.834
76.12000 3.405
76.14000 0.941
76.16000 4.240
76.18000 3.576
76.20000 1.666
76.22000 2.096
76.24000 5.428
76.26000 2.134
76.28000 2.720
76.30000 5.201
76.32000 0.070
76.34000 0.422
76.36000 3.880
76.38000 2.502
76.40000 4.840
76.42000 3.333
76.44000 1.537
76.46000 0.961
76.48000 0.025
76.50000 4.991
76.52000 3.158
76.54000 -0.551
76.56000 1.769
76.58000 0.916
76.60000 2.540
76.62000 3.225
76.64000 4.236
76.66000 2.339
76.68000 3.964
76.70000 1.793
76.72000 2.730
76.74000 -0.154
76.76000 0.199
76.78000 4.663
76.80000 2.172
76.82000 -0.278
76.84000 -0.272
76.86000 0.145
76.88000 2.816
76.90000 3.208
76.92000 1.381
76.94000 -1.831
76.96000 0.585
76.98000 2.136
77.00000 6.882
77.02000 6.035
77.04000 4.744
77.06000 2.314
77.08000 3.829
77.10000 2.582
77.12000 0.147
77.14000 -0.346
77.16000 1.197
77.18000 3.006
77.20000 0.591
77.22000 -0.005
77.24000 -0.253
77.26000 -2.379
77.28000 1.505
77.30000 2.071
77.32000 0.949
77.34000 -1.574
77.36000 2.188
77.38000 9.266
77.40000 7.884
77.42000 5.660
77.44000 0.496
77.46000 1.300
77.48000 -0.912
77.50000 1.837
77.52000 6.798
77.54000 1.877
77.56000 1.177
77.58000 2.209
77.60000 5.966
77.62000 4.849
77.64000 4.305
77.66000 1.091
77.68000 1.463
77.70000 6.316
77.72000 6.939
77.74000 0.149
77.76000 2.493
77.78000 1.857
77.80000 -2.400
77.82000 1.037
77.84000 3.261
77.86000 3.154
77.88000 1.485
77.90000 5.517
77.92000 2.783
77.94000 4.763
77.96000 2.320
77.98000 3.336
78.00000 9.560
78.02000 8.877
78.04000 5.704
78.06000 1.208
78.08000 3.809
78.10000 7.531
78.12000 5.752
78.14000 5.633
78.16000 1.643
78.18000 5.354
78.20000 5.134
78.22000 3.847
78.24000 5.898
78.26000 -0.075
78.28000 5.291
78.30000 3.925
78.32000 0.905
78.34000 0.968
78.36000 4.459
78.38000 3.512
78.40000 5.042
78.42000 2.408
78.44000 2.209
78.46000 5.050
78.48000 2.944
78.50000 3.655
78.52000 2.095
78.54000 1.679
78.56000 2.803
78.58000 5.492
78.60000 0.960
78.62000 1.556
78.64000 6.715
78.66000 5.701
78.68000 -0.753
78.70000 2.193
78.72000 2.976
78.74000 5.278
78.76000 3.319
78.78000 4.925
78.80000 0.813
78.82000 -1.049
78.84000 2.241
78.86000 5.196
78.88000 6.144
78.90000 7.401
78.92000 8.579
78.94000 5.235
78.96000 -0.011
78.98000 -2.396
79.00000 4.948
79.02000 5.374
79.04000 6.581
79.06000 4.964
79.08000 4.329
79.10000 6.508
79.12000 3.599
79.14000 0.628
79.16000 -0.691
79.18000 3.231
79.20000 6.805
79.22000 5.018
79.24000 3.819
79.26000 8.895
79.28000 8.311
79.30000 5.313
79.32000 5.499
79.34000 4.189
79.36000 5.694
79.38000 6.783
79.40000 6.133
79.42000 0.049
79.44000 -2.385
79.46000 -1.319
79.48000 1.791
79.50000 -1.030
79.52000 1.698
79.54000 2.256
79.56000 3.415
79.58000 5.053
79.60000 5.926
79.62000 6.827
79.64000 7.925
79.66000 7.423
79.68000 11.483
79.70000 7.925
79.72000 7.696
79.74000 3.363
79.76000 5.696
79.78000 3.186
79.80000 1.677
79.82000 2.204
79.84000 5.534
79.86000 7.773
79.88000 8.392
79.90000 7.152
79.92000 6.832
79.94000 4.164
79.96000 6.255
79.98000 6.444
80.00000 5.356
80.02000 2.742
80.04000 5.878
80.06000 5.329
80.08000 2.792
80.10000 2.657
80.12000 3.105
80.14000 8.744
80.16000 6.790
80.18000 7.036
80.20000 8.813
80.22000 9.544
80.24000 5.675
80.26000 6.398
80.28000 7.474
80.30000 6.660
80.32000 3.743
80.34000 1.844
80.36000 3.470
80.38000 1.932
80.40000 -1.206
80.42000 4.763
80.44000 1.596
80.46000 3.783
80.48000 7.651
80.50000 6.506
80.52000 3.919
80.54000 3.636
80.56000 8.247
80.58000 11.700
80.60000 11.462
80.62000 8.225
80.64000 6.365
80.66000 5.820
80.68000 7.261
80.70000 9.072
80.72000 5.842
80.74000 5.276
80.76000 1.322
80.78000 6.934
80.80000 7.401
80.82000 5.387
80.84000 6.961
80.86000 7.911
80.88000 8.050
80.90000 9.740
80.92000 7.494
80.94000 7.931
80.96000 2.591
80.98000 -2.432
81.00000 -0.225
81.02000 2.205
81.04000 8.210
81.06000 12.486
81.08000 8.123
81.10000 4.523
81.12000 6.604
81.14000 6.960
81.16000 4.922
81.18000 2.378
81.20000 4.743
81.22000 8.942
81.24000 12.892
81.26000 8.289
81.28000 1.061
81.30000 5.458
81.32000 8.865
81.34000 9.266
81.36000 12.004
81.38000 11.350
81.40000 7.974
81.42000 4.732
81.44000 0.968
81.46000 2.170
81.48000 5.386
81.50000 3.295
81.52000 5.953
81.54000 4.803
81.56000 3.688
81.58000 4.075
81.60000 3.609
81.62000 6.272
81.64000 9.989
81.66000 11.599
81.68000 9.083
81.70000 8.180
81.72000 9.181
81.74000 8.143
81.76000 12.583
81.78000 7.710
81.80000 8.638
81.82000 6.731
81.84000 4.185
81.86000 10.016
81.88000 9.456
81.90000 11.813
81.92000 9.779
81.94000 14.876
81.96000 17.393
81.98000 17.609
82.00000 18.398
82.02000 12.726
82.04000 16.169
82.06000 17.964
82.08000 16.911
82.10000 14.293
82.12000 16.823
82.14000 16.146
82.16000 11.860
82.18000 11.549
82.20000 14.900
82.22000 14.541
82.24000 17.002
82.26000 19.421
82.28000 15.487
82.30000 16.916
82.32000 15.945
82.34000 17.945
82.36000 18.716
82.38000 17.482
82.40000 17.288
82.42000 19.590
82.44000 15.696
82.46000 12.882
82.48000 13.757
82.50000 10.895
82.52000 19.382
82.54000 24.691
82.56000 23.280
82.58000 20.502
82.60000 21.984
82.62000 24.181
82.64000 31.054
82.66000 28.842
82.68000 23.590
82.70000 22.555
82.72000 21.263
82.74000 17.259
82.76000 23.239
82.78000 25.168
82.80000 22.910
82.82000 25.177
82.84000 20.293
82.86000 20.291
82.88000 24.336
82.90000 24.014
82.92000 26.579
82.94000 24.007
82.96000 31.224
82.98000 32.383
83.00000 32.824
83.02000 25.465
83.04000 24.702
83.06000 29.301
83.08000 26.604
83.10000 23.639
83.12000 21.971
83.14000 26.746
83.16000 28.642
83.18000 24.301
83.20000 27.694
83.22000 24.161
83.24000 25.304
83.26000 27.632
83.28000 21.976
83.30000 24.809
83.32000 23.739
83.34000 27.022
83.36000 29.036
83.38000 27.428
83.40000 30.282
83.42000 28.041
83.44000 32.529
83.46000 29.941
83.48000 26.636
83.50000 25.338
83.52000 27.369
83.54000 27.353
83.56000 23.803
83.58000 16.920
83.60000 18.438
83.62000 19.699
83.64000 15.439
83.66000 19.992
83.68000 16.763
83.70000 16.753
83.72000 21.189
83.74000 18.684
83.76000 20.935
83.78000 17.148
83.80000 15.543
83.82000 19.662
83.84000 21.221
83.86000 18.554
83.88000 16.395
83.90000 17.485
83.92000 12.136
83.94000 8.180
83.96000 12.957
83.98000 13.092
84.00000 14.981
84.02000 12.894
84.04000 11.590
84.06000 13.910
84.08000 12.852
84.10000 16.269
84.12000 18.864
84.14000 15.213
84.16000 11.988
84.18000 9.394
84.20000 12.159
84.22000 6.405
84.24000 8.055
84.26000 13.809
84.28000 6.239
84.30000 9.085
84.32000 5.116
84.34000 4.656
84.36000 9.634
84.38000 1.313
84.40000 6.038
84.42000 4.143
84.44000 4.877
84.46000 3.572
84.48000 5.292
84.50000 6.713
84.52000 4.136
84.54000 2.992
84.56000 6.022
84.58000 5.655
84.60000 5.187
84.62000 3.047
84.64000 5.070
84.66000 1.503
84.68000 4.083
84.70000 7.761
84.72000 3.231
84.74000 3.640
84.76000 4.076
84.78000 4.231
84.80000 0.660
84.82000 -0.743
84.84000 3.593
84.86000 3.003
84.88000 -0.662
84.90000 4.618
84.92000 2.539
84.94000 1.847
84.96000 0.083
84.98000 3.137
85.00000 2.807
85.02000 0.451
85.04000 1.371
85.06000 -1.533
85.08000 6.574
85.10000 3.685
85.12000 1.846
85.14000 -1.366
85.16000 -2.445
85.18000 0.242
85.20000 3.717
85.22000 2.738
85.24000 4.300
85.26000 3.427
85.28000 0.113
85.30000 0.894
85.32000 4.668
85.34000 2.681
85.36000 0.641
85.38000 -2.423
85.40000 2.346
85.42000 4.084
85.44000 3.154
85.46000 1.550
85.48000 -2.413
85.50000 6.504
85.52000 10.647
85.54000 9.304
85.56000 5.156
85.58000 7.418
85.60000 1.741
85.62000 1.391
85.64000 4.747
85.66000 0.340
85.68000 1.587
85.70000 2.010
85.72000 1.997
85.74000 4.088
85.76000 3.059
85.78000 -0.809
85.80000 1.593
85.82000 1.642
85.84000 0.984
85.86000 4.693
85.88000 2.496
85.90000 2.940
85.92000 -2.208
85.94000 -1.375
85.96000 0.888
85.98000 1.013
86.00000 0.348
86.02000 -1.371
86.04000 0.007
86.06000 0.266
86.08000 0.762
86.10000 5.958
86.12000 5.128
86.14000 2.919
86.16000 2.519
86.18000 3.135
86.20000 1.542
86.22000 2.528
86.24000 2.781
86.26000 8.029
86.28000 9.226
86.30000 6.331
86.32000 6.644
86.34000 7.479
86.36000 6.048
86.38000 6.505
86.40000 2.902
86.42000 -2.042
86.44000 -0.231
86.46000 3.854
86.48000 9.238
86.50000 9.532
86.52000 6.316
86.54000 -1.357
86.56000 1.726
86.58000 6.859
86.60000 8.870
86.62000 7.533
86.64000 9.686
86.66000 9.086
86.68000 12.642
86.70000 10.094
86.72000 10.674
86.74000 6.214
86.76000 1.951
86.78000 6.483
86.80000 9.237
86.82000 2.252
86.84000 3.182
86.86000 9.641
86.88000 5.890
86.90000 11.794
86.92000 12.742
86.94000 8.961
86.96000 4.595
86.98000 1.198
87.00000 10.801
87.02000 13.572
87.04000 12.634
87.06000 15.641
87.08000 16.061
87.10000 14.841
87.12000 12.454
87.14000 14.899
87.16000 14.886
87.18000 13.376
87.20000 13.083
87.22000 12.151
87.24000 17.352
87.26000 15.825
87.28000 15.247
87.30000 15.624
87.32000 18.805
87.34000 24.162
87.36000 24.820
87.38000 17.593
87.40000 17.188
87.42000 18.736
87.44000 17.200
87.46000 19.021
87.48000 19.044
87.50000 22.306
87.52000 23.482
87.54000 18.820
87.56000 15.109
87.58000 13.401
87.60000 17.234
87.62000 19.889
87.64000 15.702
87.66000 18.783
87.68000 19.548
87.70000 19.655
87.72000 22.243
87.74000 19.737
87.76000 17.427
87.78000 21.654
87.80000 18.253
87.82000 16.307
87.84000 18.395
87.86000 20.213
87.88000 20.829
87.90000 22.725
87.92000 23.461
87.94000 19.172
87.96000 25.738
87.98000 25.192
88.00000 19.250
88.02000 19.401
88.04000 14.290
88.06000 11.207
88.08000 20.464
88.10000 14.853
88.12000 8.542
88.14000 10.909
88.16000 13.616
88.18000 14.223
88.20000 14.847
88.22000 13.667
88.24000 5.551
88.26000 8.152
88.28000 13.508
88.30000 14.303
88.32000 9.489
88.34000 11.019
88.36000 9.171
88.38000 4.278
88.40000 5.101
88.42000 6.764
88.44000 8.635
88.46000 14.688
88.48000 11.183
88.50000 16.091
88.52000 13.279
88.54000 5.457
88.56000 9.110
88.58000 9.257
88.60000 8.458
88.62000 5.481
88.64000 11.192
88.66000 8.523
88.68000 6.569
88.70000 7.699
88.72000 5.142
88.74000 5.232
88.76000 4.223
88.78000 -0.440
88.80000 2.354
88.82000 2.341
88.84000 6.486
88.86000 5.208
88.88000 3.993
88.90000 6.680
88.92000 7.758
88.94000 8.589
88.96000 7.629
88.98000 11.184
89.00000 6.629
89.02000 1.979
89.04000 1.853
89.06000 -0.183
89.08000 0.537
89.10000 -2.311
89.12000 3.039
89.14000 6.505
89.16000 2.612
89.18000 5.938
89.20000 5.206
89.22000 5.295
89.24000 3.975
89.26000 1.192
89.28000 2.823
89.30000 3.410
89.32000 5.692
89.34000 3.397
89.36000 7.826
89.38000 2.922
89.40000 1.752
89.42000 4.578
89.44000 3.054
89.46000 3.722
89.48000 6.588
89.50000 5.447
89.52000 5.819
89.54000 3.296
89.56000 4.742
89.58000 2.842
89.60000 -0.221
89.62000 0.233
89.64000 -0.261
89.66000 1.661
89.68000 4.237
89.70000 4.771
89.72000 2.488
89.74000 2.868
89.76000 2.517
89.78000 2.886
89.80000 3.266
89.82000 2.476
89.84000 3.356
89.86000 8.038
89.88000 3.654
89.90000 3.239
89.92000 1.034
89.94000 0.676
89.96000 3.565
89.98000 5.725
90.00000 4.773
90.02000 3.495
90.04000 1.790
90.06000 -2.264
90.08000 -0.760
90.10000 0.628
90.12000 -0.749
90.14000 5.502
90.16000 3.407
90.18000 0.797
90.20000 2.812
90.22000 2.959
90.24000 3.029
90.26000 4.905
90.28000 -0.860
90.30000 -2.027
90.32000 -2.049
90.34000 4.410
90.36000 1.942
90.38000 4.283
90.40000 -0.646
90.42000 -1.184
90.44000 2.537
90.46000 1.425
90.48000 1.707
90.50000 -1.371
90.52000 0.394
90.54000 4.797
90.56000 1.082
90.58000 1.457
90.60000 -0.083
90.62000 -0.268
90.64000 1.427
90.66000 5.825
90.68000 5.057
90.70000 5.395
90.72000 6.038
90.74000 7.958
90.76000 1.842
90.78000 -2.225
90.80000 -2.144
90.82000 0.843
90.84000 0.865
90.86000 0.821
90.88000 3.016
90.90000 3.054
90.92000 2.847
90.94000 3.261
90.96000 5.897
90.98000 3.273
91.00000 3.257
91.02000 5.145
91.04000 2.080
91.06000 1.655
91.08000 1.247
91.10000 4.125
91.12000 7.463
91.14000 7.148
91.16000 3.911
91.18000 2.072
91.20000 3.404
91.22000 5.624
91.24000 6.409
91.26000 9.082
91.28000 7.724
91.30000 6.093
91.32000 4.007
91.34000 4.271
91.36000 0.081
91.38000 3.339
91.40000 6.680
91.42000 5.958
91.44000 1.917
91.46000 2.135
91.48000 1.168
91.50000 0.384
91.52000 6.624
91.54000 5.867
91.56000 2.183
91.58000 1.963
91.60000 0.122
91.62000 -0.583
91.64000 0.980
91.66000 2.925
91.68000 2.752
91.70000 4.879
91.72000 2.041
91.74000 -0.672
91.76000 -1.407
91.78000 3.669
91.80000 2.603
91.82000 5.275
91.84000 5.509
91.86000 2.677
91.88000 3.397
91.90000 3.020
91.92000 3.652
91.94000 4.405
91.96000 1.624
91.98000 4.241
92.00000 3.776
92.02000 2.323
92.04000 1.283
92.06000 -1.545
92.08000 1.043
92.10000 0.404
92.12000 4.150
92.14000 9.086
92.16000 11.307
92.18000 10.460
92.20000 12.113
92.22000 1.826
92.24000 0.627
92.26000 3.953
92.28000 3.747
92.30000 3.968
92.32000 6.047
92.34000 3.415
92.36000 3.395
92.38000 1.234
92.40000 1.624
92.42000 7.406
92.44000 6.585
92.46000 6.266
92.48000 2.899
92.50000 2.744
92.52000 9.476
92.54000 7.740
92.56000 5.390
92.58000 -1.747
92.60000 -2.225
92.62000 1.207
92.64000 1.120
92.66000 -1.752
92.68000 -0.732
92.70000 1.605
92.72000 2.539
92.74000 2.879
92.76000 5.009
92.78000 5.482
92.80000 3.317
92.82000 1.545
92.84000 7.892
92.86000 3.639
92.88000 2.936
92.90000 7.667
92.92000 7.828
92.94000 6.094
92.96000 3.217
92.98000 5.101
93.00000 5.438
93.02000 5.838
93.04000 11.425
93.06000 7.876
93.08000 4.181
93.10000 2.329
93.12000 5.533
93.14000 2.647
93.16000 3.075
93.18000 3.064
93.20000 -1.318
93.22000 4.489
93.24000 5.719
93.26000 8.412
93.28000 5.878
93.30000 6.983
93.32000 10.041
93.34000 6.640
93.36000 8.490
93.38000 7.971
93.40000 7.289
93.42000 5.122
93.44000 2.174
93.46000 3.964
93.48000 4.319
93.50000 4.733
93.52000 5.329
93.54000 3.239
93.56000 3.983
93.58000 6.517
93.60000 -0.538
93.62000 -2.228
93.64000 4.259
93.66000 3.881
93.68000 3.529
93.70000 5.434
93.72000 4.714
93.74000 9.847
93.76000 6.689
93.78000 4.226
93.80000 8.718
93.82000 7.214
93.84000 3.103
93.86000 2.400
93.88000 0.770
93.90000 6.546
93.92000 5.345
93.94000 2.081
93.96000 6.117
93.98000 8.016
94.00000 2.080
94.02000 1.225
94.04000 2.999
94.06000 4.951
94.08000 11.053
94.10000 8.835
94.12000 8.162
94.14000 1.670
94.16000 -1.092
94.18000 5.006
94.20000 8.485
94.22000 -0.813
94.24000 5.431
94.26000 8.317
94.28000 1.464
94.30000 1.398
94.32000 -0.689
94.34000 -0.052
94.36000 2.739
94.38000 5.279
94.40000 7.922
94.42000 12.200
94.44000 5.740
94.46000 3.914
94.48000 4.200
94.50000 4.550
94.52000 0.473
94.54000 0.865
94.56000 3.922
94.58000 4.499
94.60000 3.302
94.62000 7.182
94.64000 7.974
94.66000 4.205
94.68000 3.937
94.70000 1.967
94.72000 3.097
94.74000 3.149
94.76000 6.119
94.78000 9.909
94.80000 6.844
94.82000 1.339
94.84000 3.216
94.86000 9.131
94.88000 6.104
94.90000 2.111
94.92000 0.145
94.94000 6.825
94.96000 5.860
94.98000 4.623
95.00000 7.375
95.02000 4.797
95.04000 3.952
95.06000 3.833
95.08000 5.394
95.10000 1.907
95.12000 -2.247
95.14000 3.074
95.16000 6.346
95.18000 11.338
95.20000 7.244
95.22000 6.571
95.24000 5.268
95.26000 -0.439
95.28000 3.948
95.30000 4.867
95.32000 1.424
95.34000 6.618
95.36000 0.290
95.38000 -0.635
95.40000 3.292
95.42000 4.150
95.44000 2.388
95.46000 3.721
95.48000 2.158
95.50000 4.610
95.52000 7.778
95.54000 7.317
95.56000 2.207
95.58000 4.971
95.60000 3.454
95.62000 4.488
95.64000 3.174
95.66000 8.006
95.68000 8.150
95.70000 4.192
95.72000 1.943
95.74000 5.700
95.76000 5.581
95.78000 4.771
95.80000 3.311
95.82000 3.522
95.84000 3.614
95.86000 4.823
95.88000 -0.306
95.90000 5.028
95.92000 5.294
95.94000 4.570
95.96000 -0.009
95.98000 -0.264
96.00000 9.484
96.02000 5.093
96.04000 4.401
96.06000 2.923
96.08000 4.812
96.10000 7.579
96.12000 0.835
96.14000 5.318
96.16000 7.106
96.18000 6.447
96.20000 5.551
96.22000 3.741
96.24000 7.327
96.26000 3.223
96.28000 3.592
96.30000 4.183
96.32000 2.240
96.34000 4.155
96.36000 3.336
96.38000 6.449
96.40000 2.175
96.42000 -0.169
96.44000 1.385
96.46000 3.129
96.48000 2.194
96.50000 4.190
96.52000 13.180
96.54000 9.267
96.56000 3.210
96.58000 3.659
96.60000 -1.221
96.62000 1.193
96.64000 0.352
96.66000 1.106
96.68000 1.861
96.70000 7.198
96.72000 10.560
96.74000 11.883
96.76000 13.761
96.78000 9.678
96.80000 10.152
96.82000 6.353
96.84000 4.893
96.86000 6.046
96.88000 8.305
96.90000 14.482
96.92000 11.075
96.94000 7.370
96.96000 4.832
96.98000 6.212
97.00000 14.267
97.02000 14.557
97.04000 13.683
97.06000 10.026
97.08000 4.053
97.10000 9.501
97.12000 7.597
97.14000 6.449
97.16000 5.439
97.18000 5.674
97.20000 8.422
97.22000 13.896
97.24000 13.716
97.26000 6.645
97.28000 8.033
97.30000 8.090
97.32000 2.389
97.34000 -2.156
97.36000 6.071
97.38000 10.060
97.40000 12.938
97.42000 9.754
97.44000 5.084
97.46000 6.447
97.48000 8.313
97.50000 5.114
97.52000 6.882
97.54000 11.467
97.56000 12.520
97.58000 7.644
97.60000 4.342
97.62000 1.772
97.64000 4.367
97.66000 11.449
97.68000 15.619
97.70000 15.150
97.72000 12.807
97.74000 7.436
97.76000 3.530
97.78000 2.472
97.80000 6.712
97.82000 5.815
97.84000 6.580
97.86000 7.885
97.88000 5.428
97.90000 7.943
97.92000 2.504
97.94000 4.044
97.96000 2.318
97.98000 10.194
98.00000 9.412
98.02000 12.330
98.04000 10.359
98.06000 0.944
98.08000 2.014
98.10000 6.799
98.12000 9.546
98.14000 6.120
98.16000 10.926
98.18000 10.324
98.20000 8.144
98.22000 3.984
98.24000 9.050
98.26000 12.031
98.28000 12.226
98.30000 8.582
98.32000 7.915
98.34000 10.949
98.36000 9.093
98.38000 3.262
98.40000 7.038
98.42000 12.604
98.44000 9.715
98.46000 12.843
98.48000 8.395
98.50000 10.888
98.52000 15.376
98.54000 7.686
98.56000 4.322
98.58000 -2.154
98.60000 0.587
98.62000 1.618
98.64000 0.609
98.66000 3.101
98.68000 -0.470
98.70000 8.873
98.72000 11.654
98.74000 12.112
98.76000 9.388
98.78000 8.787
98.80000 7.840
98.82000 5.773
98.84000 7.675
98.86000 10.616
98.88000 7.069
98.90000 4.101
98.92000 5.917
98.94000 3.944
98.96000 8.151
98.98000 5.165
99.00000 4.015
99.02000 2.437
99.04000 7.031
99.06000 4.611
99.08000 4.619
99.10000 10.022
99.12000 6.310
99.14000 1.072
99.16000 3.285
99.18000 6.995
99.20000 6.140
99.22000 2.389
99.24000 6.616
99.26000 12.889
99.28000 15.701
99.30000 18.496
99.32000 10.999
99.34000 1.808
99.36000 -2.533
99.38000 9.025
99.40000 14.791
99.42000 8.150
99.44000 10.033
99.46000 10.681
99.48000 11.254
99.50000 11.958
99.52000 17.941
99.54000 20.777
99.56000 17.847
99.58000 10.249
99.60000 13.588
99.62000 14.659
99.64000 7.282
99.66000 1.411
99.68000 7.151
99.70000 8.052
99.72000 10.999
99.74000 8.872
99.76000 11.529
99.78000 15.624
99.80000 18.867
99.82000 18.978
99.84000 14.419
99.86000 0.134
99.88000 -2.173
99.90000 3.232
99.92000 3.708
99.94000 8.495
99.96000 10.021
99.98000 0.000
