'Id: "0011388" Comment: "Integrate frame 0011388_Au-Ir-Rh_Rh-rich_XRD-Mapping-111-0000.gfrmwith cursor Wedge Cursor #5" Operator: "B?rgel" Anode: "Cu" Wavelength: "1.5406" Scantype: "2Theta (TwoTheta)" TimePerStep: "1" X: "31.5" Y: "-13.5" Z: "5.95" 
10.00000 0.000
10.02000 3.397
10.04000 -0.707
10.06000 -3.493
10.08000 -1.980
10.10000 11.045
10.12000 10.716
10.14000 6.879
10.16000 4.396
10.18000 4.018
10.20000 -0.946
10.22000 -3.490
10.24000 1.496
10.26000 4.097
10.28000 2.760
10.30000 8.623
10.32000 10.959
10.34000 3.850
10.36000 7.239
10.38000 9.770
10.40000 21.845
10.42000 21.892
10.44000 12.313
10.46000 6.211
10.48000 21.036
10.50000 4.601
10.52000 -3.563
10.54000 1.946
10.56000 6.871
10.58000 11.097
10.60000 15.393
10.62000 16.099
10.64000 10.429
10.66000 9.964
10.68000 20.358
10.70000 32.236
10.72000 17.146
10.74000 25.165
10.76000 13.745
10.78000 19.858
10.80000 20.705
10.82000 23.805
10.84000 20.149
10.86000 22.119
10.88000 21.650
10.90000 26.087
10.92000 19.516
10.94000 24.996
10.96000 31.501
10.98000 19.221
11.00000 6.799
11.02000 8.504
11.04000 7.651
11.06000 23.064
11.08000 27.850
11.10000 28.361
11.12000 22.195
11.14000 24.751
11.16000 14.790
11.18000 15.649
11.20000 12.315
11.22000 10.663
11.24000 21.100
11.26000 36.294
11.28000 24.083
11.30000 26.627
11.32000 29.739
11.34000 26.766
11.36000 25.441
11.38000 22.087
11.40000 21.854
11.42000 18.738
11.44000 21.119
11.46000 14.729
11.48000 24.679
11.50000 23.574
11.52000 23.729
11.54000 42.602
11.56000 36.352
11.58000 27.383
11.60000 26.752
11.62000 44.034
11.64000 34.532
11.66000 35.011
11.68000 30.276
11.70000 25.762
11.72000 25.481
11.74000 24.072
11.76000 31.017
11.78000 26.065
11.80000 30.974
11.82000 27.481
11.84000 25.423
11.86000 26.605
11.88000 31.699
11.90000 30.682
11.92000 26.483
11.94000 35.404
11.96000 40.074
11.98000 31.052
12.00000 32.518
12.02000 28.148
12.04000 34.320
12.06000 36.166
12.08000 32.988
12.10000 34.871
12.12000 28.674
12.14000 28.117
12.16000 32.530
12.18000 34.356
12.20000 32.432
12.22000 34.126
12.24000 26.472
12.26000 23.911
12.28000 31.974
12.30000 35.263
12.32000 41.398
12.34000 35.178
12.36000 23.233
12.38000 20.551
12.40000 23.150
12.42000 29.264
12.44000 39.044
12.46000 40.661
12.48000 37.956
12.50000 32.438
12.52000 39.780
12.54000 28.284
12.56000 28.203
12.58000 25.010
12.60000 32.465
12.62000 44.825
12.64000 37.840
12.66000 37.208
12.68000 43.937
12.70000 42.933
12.72000 41.756
12.74000 37.401
12.76000 44.775
12.78000 39.688
12.80000 32.007
12.82000 35.991
12.84000 36.974
12.86000 34.217
12.88000 40.564
12.90000 36.652
12.92000 32.648
12.94000 38.014
12.96000 39.292
12.98000 30.377
13.00000 37.196
13.02000 39.229
13.04000 38.645
13.06000 38.020
13.08000 34.632
13.10000 25.622
13.12000 30.841
13.14000 38.650
13.16000 48.911
13.18000 45.332
13.20000 44.966
13.22000 41.008
13.24000 33.648
13.26000 47.332
13.28000 42.265
13.30000 31.778
13.32000 33.861
13.34000 33.692
13.36000 30.349
13.38000 27.637
13.40000 32.581
13.42000 37.542
13.44000 35.816
13.46000 33.061
13.48000 29.924
13.50000 21.991
13.52000 27.307
13.54000 35.005
13.56000 33.735
13.58000 32.772
13.60000 32.595
13.62000 32.782
13.64000 25.368
13.66000 27.032
13.68000 26.872
13.70000 27.310
13.72000 29.872
13.74000 30.435
13.76000 25.703
13.78000 30.097
13.80000 19.393
13.82000 21.356
13.84000 22.626
13.86000 25.448
13.88000 25.640
13.90000 39.613
13.92000 41.265
13.94000 33.123
13.96000 24.238
13.98000 19.794
14.00000 27.975
14.02000 35.671
14.04000 30.680
14.06000 23.622
14.08000 18.619
14.10000 25.917
14.12000 28.328
14.14000 25.503
14.16000 31.687
14.18000 28.966
14.20000 30.957
14.22000 25.604
14.24000 28.851
14.26000 30.828
14.28000 21.483
14.30000 23.552
14.32000 24.105
14.34000 24.426
14.36000 30.936
14.38000 36.583
14.40000 36.310
14.42000 43.901
14.44000 35.361
14.46000 32.348
14.48000 31.951
14.50000 24.089
14.52000 22.687
14.54000 28.735
14.56000 24.062
14.58000 25.109
14.60000 22.349
14.62000 26.166
14.64000 28.655
14.66000 23.366
14.68000 28.424
14.70000 19.668
14.72000 17.049
14.74000 21.752
14.76000 20.217
14.78000 22.183
14.80000 23.717
14.82000 26.744
14.84000 29.692
14.86000 24.553
14.88000 20.064
14.90000 32.862
14.92000 24.389
14.94000 27.018
14.96000 21.692
14.98000 17.630
15.00000 12.383
15.02000 15.940
15.04000 25.594
15.06000 21.673
15.08000 16.033
15.10000 15.133
15.12000 25.588
15.14000 22.994
15.16000 17.142
15.18000 13.239
15.20000 15.696
15.22000 15.023
15.24000 11.730
15.26000 21.750
15.28000 18.336
15.30000 7.893
15.32000 16.107
15.34000 21.861
15.36000 17.872
15.38000 20.941
15.40000 22.018
15.42000 14.652
15.44000 14.417
15.46000 16.623
15.48000 21.329
15.50000 17.877
15.52000 21.618
15.54000 16.939
15.56000 20.578
15.58000 19.325
15.60000 17.010
15.62000 22.954
15.64000 22.179
15.66000 21.147
15.68000 17.086
15.70000 13.533
15.72000 13.844
15.74000 9.291
15.76000 5.189
15.78000 9.026
15.80000 8.491
15.82000 14.066
15.84000 8.778
15.86000 14.657
15.88000 13.242
15.90000 12.001
15.92000 12.580
15.94000 7.484
15.96000 14.058
15.98000 10.312
16.00000 7.889
16.02000 5.943
16.04000 15.277
16.06000 7.234
16.08000 9.310
16.10000 7.917
16.12000 8.151
16.14000 12.252
16.16000 9.569
16.18000 -2.984
16.20000 5.422
16.22000 14.913
16.24000 17.112
16.26000 14.282
16.28000 13.238
16.30000 10.296
16.32000 15.194
16.34000 12.809
16.36000 11.856
16.38000 16.292
16.40000 21.374
16.42000 12.965
16.44000 6.407
16.46000 9.957
16.48000 21.604
16.50000 15.585
16.52000 10.579
16.54000 9.169
16.56000 5.562
16.58000 6.287
16.60000 8.663
16.62000 8.036
16.64000 8.140
16.66000 8.444
16.68000 8.834
16.70000 8.119
16.72000 14.332
16.74000 15.245
16.76000 8.443
16.78000 11.139
16.80000 4.569
16.82000 10.648
16.84000 12.623
16.86000 15.758
16.88000 14.376
16.90000 10.294
16.92000 3.302
16.94000 4.244
16.96000 24.145
16.98000 17.148
17.00000 2.665
17.02000 6.153
17.04000 12.598
17.06000 17.012
17.08000 16.876
17.10000 10.121
17.12000 9.643
17.14000 12.013
17.16000 11.690
17.18000 9.129
17.20000 1.024
17.22000 1.490
17.24000 8.131
17.26000 8.994
17.28000 9.953
17.30000 14.198
17.32000 12.080
17.34000 4.721
17.36000 1.084
17.38000 9.223
17.40000 12.175
17.42000 8.087
17.44000 4.991
17.46000 -2.137
17.48000 6.178
17.50000 11.522
17.52000 13.945
17.54000 15.914
17.56000 6.055
17.58000 8.708
17.60000 13.606
17.62000 0.337
17.64000 7.756
17.66000 11.703
17.68000 9.016
17.70000 9.735
17.72000 15.825
17.74000 13.142
17.76000 15.522
17.78000 12.589
17.80000 8.348
17.82000 8.075
17.84000 7.815
17.86000 7.171
17.88000 12.147
17.90000 11.642
17.92000 11.732
17.94000 11.577
17.96000 3.081
17.98000 6.507
18.00000 5.692
18.02000 -0.071
18.04000 3.078
18.06000 -3.485
18.08000 9.974
18.10000 7.968
18.12000 8.407
18.14000 9.243
18.16000 3.065
18.18000 5.041
18.20000 9.580
18.22000 15.228
18.24000 7.725
18.26000 9.859
18.28000 9.682
18.30000 8.836
18.32000 1.242
18.34000 0.574
18.36000 -2.396
18.38000 0.866
18.40000 9.651
18.42000 11.200
18.44000 9.698
18.46000 5.526
18.48000 1.567
18.50000 4.291
18.52000 2.952
18.54000 0.292
18.56000 9.056
18.58000 6.076
18.60000 10.466
18.62000 11.641
18.64000 8.822
18.66000 -0.968
18.68000 -4.259
18.70000 0.811
18.72000 6.730
18.74000 8.333
18.76000 8.437
18.78000 9.249
18.80000 10.826
18.82000 9.266
18.84000 6.569
18.86000 5.150
18.88000 4.540
18.90000 4.573
18.92000 6.129
18.94000 5.710
18.96000 1.570
18.98000 1.527
19.00000 5.208
19.02000 11.151
19.04000 4.023
19.06000 5.772
19.08000 7.639
19.10000 4.296
19.12000 -4.238
19.14000 -1.266
19.16000 0.828
19.18000 2.392
19.20000 8.463
19.22000 0.973
19.24000 -3.790
19.26000 2.657
19.28000 3.361
19.30000 -1.073
19.32000 8.715
19.34000 8.915
19.36000 9.190
19.38000 10.583
19.40000 8.681
19.42000 10.493
19.44000 10.953
19.46000 5.613
19.48000 3.160
19.50000 2.013
19.52000 9.129
19.54000 7.160
19.56000 6.273
19.58000 2.200
19.60000 0.000
19.62000 4.510
19.64000 3.048
19.66000 7.109
19.68000 10.541
19.70000 8.250
19.72000 5.244
19.74000 9.015
19.76000 -3.148
19.78000 0.689
19.80000 7.279
19.82000 8.980
19.84000 -1.277
19.86000 -0.304
19.88000 4.631
19.90000 2.579
19.92000 5.986
19.94000 5.509
19.96000 2.782
19.98000 3.721
20.00000 3.179
20.02000 1.056
20.04000 0.110
20.06000 -1.314
20.08000 -0.522
20.10000 -4.226
20.12000 -0.677
20.14000 -1.041
20.16000 1.948
20.18000 -0.145
20.20000 -4.180
20.22000 1.028
20.24000 1.951
20.26000 2.367
20.28000 4.094
20.30000 4.624
20.32000 2.806
20.34000 0.520
20.36000 6.803
20.38000 6.047
20.40000 2.545
20.42000 8.083
20.44000 6.129
20.46000 1.577
20.48000 6.645
20.50000 11.545
20.52000 1.224
20.54000 1.592
20.56000 0.382
20.58000 -1.131
20.60000 4.069
20.62000 1.059
20.64000 3.370
20.66000 5.791
20.68000 6.326
20.70000 -0.260
20.72000 -1.975
20.74000 5.322
20.76000 7.200
20.78000 6.211
20.80000 9.811
20.82000 8.112
20.84000 10.543
20.86000 4.090
20.88000 3.565
20.90000 6.636
20.92000 3.993
20.94000 1.711
20.96000 2.051
20.98000 1.734
21.00000 -4.165
21.02000 -3.045
21.04000 7.020
21.06000 9.989
21.08000 9.946
21.10000 7.476
21.12000 10.022
21.14000 7.367
21.16000 14.035
21.18000 11.368
21.20000 5.771
21.22000 4.174
21.24000 -4.148
21.26000 2.179
21.28000 3.282
21.30000 5.355
21.32000 6.150
21.34000 8.798
21.36000 13.881
21.38000 7.112
21.40000 11.468
21.42000 5.139
21.44000 -0.351
21.46000 2.901
21.48000 10.699
21.50000 10.139
21.52000 4.534
21.54000 7.313
21.56000 7.972
21.58000 9.754
21.60000 6.650
21.62000 4.508
21.64000 0.889
21.66000 -1.884
21.68000 4.187
21.70000 7.584
21.72000 8.456
21.74000 -0.745
21.76000 4.862
21.78000 4.338
21.80000 2.328
21.82000 7.333
21.84000 6.706
21.86000 5.646
21.88000 5.898
21.90000 3.141
21.92000 3.101
21.94000 -4.097
21.96000 -0.913
21.98000 4.755
22.00000 7.186
22.02000 8.018
22.04000 2.865
22.06000 0.720
22.08000 -1.675
22.10000 5.726
22.12000 4.431
22.14000 8.504
22.16000 9.040
22.18000 6.768
22.20000 6.253
22.22000 8.635
22.24000 6.983
22.26000 -2.748
22.28000 -0.880
22.30000 6.927
22.32000 8.770
22.34000 4.744
22.36000 9.331
22.38000 11.679
22.40000 8.825
22.42000 8.039
22.44000 2.849
22.46000 -1.012
22.48000 6.301
22.50000 7.167
22.52000 9.239
22.54000 6.962
22.56000 6.260
22.58000 4.917
22.60000 7.019
22.62000 3.123
22.64000 0.530
22.66000 2.875
22.68000 8.262
22.70000 8.646
22.72000 9.039
22.74000 9.796
22.76000 8.558
22.78000 6.032
22.80000 4.909
22.82000 1.049
22.84000 0.875
22.86000 9.713
22.88000 11.342
22.90000 6.058
22.92000 2.943
22.94000 1.566
22.96000 5.269
22.98000 5.757
23.00000 3.071
23.02000 6.277
23.04000 7.439
23.06000 5.369
23.08000 7.497
23.10000 3.176
23.12000 1.273
23.14000 -1.021
23.16000 -0.715
23.18000 -2.921
23.20000 -2.957
23.22000 2.845
23.24000 0.015
23.26000 0.787
23.28000 3.769
23.30000 -0.096
23.32000 1.790
23.34000 3.659
23.36000 3.964
23.38000 4.527
23.40000 4.613
23.42000 4.136
23.44000 6.407
23.46000 2.904
23.48000 1.723
23.50000 1.437
23.52000 0.517
23.54000 -0.524
23.56000 2.481
23.58000 6.927
23.60000 0.748
23.62000 -2.262
23.64000 -0.399
23.66000 -2.070
23.68000 1.104
23.70000 5.454
23.72000 7.712
23.74000 7.279
23.76000 4.847
23.78000 -1.855
23.80000 -0.292
23.82000 5.614
23.84000 8.892
23.86000 8.856
23.88000 7.134
23.90000 6.114
23.92000 7.857
23.94000 1.454
23.96000 -0.187
23.98000 7.147
24.00000 8.590
24.02000 7.446
24.04000 0.702
24.06000 -3.988
24.08000 2.248
24.10000 5.984
24.12000 4.326
24.14000 -2.995
24.16000 3.459
24.18000 3.867
24.20000 2.942
24.22000 1.304
24.24000 8.948
24.26000 5.899
24.28000 4.977
24.30000 5.890
24.32000 1.964
24.34000 0.160
24.36000 3.062
24.38000 1.822
24.40000 6.680
24.42000 6.419
24.44000 6.143
24.46000 3.606
24.48000 4.152
24.50000 7.371
24.52000 4.449
24.54000 -0.008
24.56000 0.640
24.58000 0.748
24.60000 1.698
24.62000 1.531
24.64000 2.741
24.66000 2.530
24.68000 5.972
24.70000 8.055
24.72000 11.371
24.74000 11.313
24.76000 5.039
24.78000 2.978
24.80000 3.731
24.82000 4.540
24.84000 6.777
24.86000 6.322
24.88000 8.768
24.90000 7.640
24.92000 2.090
24.94000 2.909
24.96000 3.960
24.98000 1.161
25.00000 -3.923
25.02000 4.443
25.04000 4.711
25.06000 2.836
25.08000 3.080
25.10000 7.455
25.12000 6.735
25.14000 7.769
25.16000 5.007
25.18000 3.276
25.20000 -1.017
25.22000 2.524
25.24000 9.204
25.26000 7.839
25.28000 2.604
25.30000 -0.383
25.32000 -0.567
25.34000 -2.440
25.36000 -2.496
25.38000 4.224
25.40000 3.579
25.42000 3.033
25.44000 2.973
25.46000 6.930
25.48000 5.488
25.50000 5.636
25.52000 8.688
25.54000 4.075
25.56000 1.977
25.58000 1.132
25.60000 6.360
25.62000 8.262
25.64000 6.890
25.66000 4.780
25.68000 -2.415
25.70000 -1.808
25.72000 4.838
25.74000 6.180
25.76000 5.440
25.78000 5.411
25.80000 2.885
25.82000 2.851
25.84000 -0.880
25.86000 -0.181
25.88000 -1.326
25.90000 0.961
25.92000 1.232
25.94000 0.553
25.96000 7.798
25.98000 8.977
26.00000 6.811
26.02000 3.235
26.04000 4.150
26.06000 -0.751
26.08000 -2.351
26.10000 -0.028
26.12000 3.469
26.14000 0.638
26.16000 1.066
26.18000 2.686
26.20000 0.259
26.22000 1.652
26.24000 1.300
26.26000 1.075
26.28000 -0.809
26.30000 3.534
26.32000 4.766
26.34000 -0.441
26.36000 0.982
26.38000 5.701
26.40000 1.244
26.42000 1.124
26.44000 6.932
26.46000 4.888
26.48000 2.175
26.50000 -0.419
26.52000 -3.879
26.54000 -0.230
26.56000 -2.498
26.58000 -0.798
26.60000 -2.739
26.62000 -0.756
26.64000 -1.501
26.66000 3.947
26.68000 4.015
26.70000 8.756
26.72000 6.601
26.74000 5.594
26.76000 5.517
26.78000 6.293
26.80000 2.177
26.82000 2.198
26.84000 1.608
26.86000 2.603
26.88000 -0.729
26.90000 0.015
26.92000 2.682
26.94000 -1.280
26.96000 1.862
26.98000 5.080
27.00000 5.491
27.02000 2.035
27.04000 2.583
27.06000 2.247
27.08000 2.859
27.10000 -1.266
27.12000 -1.950
27.14000 9.248
27.16000 11.582
27.18000 7.854
27.20000 3.434
27.22000 1.024
27.24000 5.047
27.26000 4.816
27.28000 -0.115
27.30000 -1.464
27.32000 -3.825
27.34000 0.949
27.36000 3.745
27.38000 5.034
27.40000 5.567
27.42000 2.789
27.44000 0.506
27.46000 0.693
27.48000 4.530
27.50000 7.840
27.52000 6.515
27.54000 2.690
27.56000 3.061
27.58000 3.141
27.60000 4.305
27.62000 0.730
27.64000 0.653
27.66000 -3.814
27.68000 0.194
27.70000 3.045
27.72000 2.697
27.74000 -0.510
27.76000 2.177
27.78000 2.726
27.80000 3.462
27.82000 6.801
27.84000 5.866
27.86000 1.005
27.88000 4.147
27.90000 6.668
27.92000 4.050
27.94000 0.610
27.96000 4.822
27.98000 0.917
28.00000 1.997
28.02000 4.603
28.04000 7.395
28.06000 2.488
28.08000 4.936
28.10000 11.211
28.12000 4.017
28.14000 3.396
28.16000 3.304
28.18000 3.475
28.20000 -1.273
28.22000 1.582
28.24000 -1.447
28.26000 3.925
28.28000 2.831
28.30000 0.175
28.32000 -0.040
28.34000 0.910
28.36000 3.800
28.38000 7.520
28.40000 5.849
28.42000 -2.900
28.44000 -3.773
28.46000 1.549
28.48000 2.382
28.50000 2.132
28.52000 5.318
28.54000 6.194
28.56000 4.329
28.58000 5.153
28.60000 6.357
28.62000 3.987
28.64000 3.545
28.66000 3.877
28.68000 3.950
28.70000 0.634
28.72000 0.574
28.74000 -0.736
28.76000 -1.213
28.78000 1.885
28.80000 1.256
28.82000 7.636
28.84000 0.727
28.86000 0.181
28.88000 -1.611
28.90000 -3.596
28.92000 2.145
28.94000 1.115
28.96000 1.968
28.98000 3.747
29.00000 3.404
29.02000 -0.536
29.04000 -3.738
29.06000 -3.640
29.08000 0.976
29.10000 2.004
29.12000 2.324
29.14000 3.069
29.16000 3.247
29.18000 4.993
29.20000 8.013
29.22000 4.733
29.24000 2.830
29.26000 3.578
29.28000 5.960
29.30000 6.647
29.32000 7.214
29.34000 3.947
29.36000 4.420
29.38000 9.160
29.40000 12.393
29.42000 8.661
29.44000 2.036
29.46000 1.747
29.48000 1.300
29.50000 -2.547
29.52000 -3.715
29.54000 -0.815
29.56000 -0.026
29.58000 -0.202
29.60000 -1.540
29.62000 2.878
29.64000 6.716
29.66000 3.924
29.68000 5.605
29.70000 7.572
29.72000 3.906
29.74000 1.145
29.76000 -0.574
29.78000 -0.705
29.80000 1.928
29.82000 6.139
29.84000 4.098
29.86000 2.300
29.88000 5.751
29.90000 2.546
29.92000 -3.185
29.94000 -2.994
29.96000 3.306
29.98000 7.770
30.00000 6.102
30.02000 0.972
30.04000 -0.091
30.06000 3.330
30.08000 6.381
30.10000 2.127
30.12000 1.726
30.14000 0.288
30.16000 1.640
30.18000 -0.427
30.20000 2.293
30.22000 9.446
30.24000 1.129
30.26000 3.681
30.28000 2.893
30.30000 4.270
30.32000 -0.460
30.34000 0.312
30.36000 8.682
30.38000 5.793
30.40000 9.038
30.42000 7.382
30.44000 7.141
30.46000 7.785
30.48000 3.273
30.50000 -3.656
30.52000 -2.607
30.54000 4.311
30.56000 7.098
30.58000 3.561
30.60000 4.191
30.62000 6.257
30.64000 6.552
30.66000 4.250
30.68000 2.583
30.70000 4.329
30.72000 3.567
30.74000 3.908
30.76000 0.682
30.78000 5.944
30.80000 -0.036
30.82000 0.606
30.84000 2.244
30.86000 6.052
30.88000 5.631
30.90000 1.223
30.92000 -0.284
30.94000 4.491
30.96000 5.323
30.98000 5.675
31.00000 4.967
31.02000 5.209
31.04000 0.532
31.06000 -1.098
31.08000 4.016
31.10000 2.088
31.12000 1.907
31.14000 -3.277
31.16000 -0.570
31.18000 1.316
31.20000 -0.153
31.22000 -0.479
31.24000 -1.129
31.26000 0.391
31.28000 11.358
31.30000 8.144
31.32000 4.451
31.34000 0.858
31.36000 -1.257
31.38000 2.017
31.40000 -3.626
31.42000 2.911
31.44000 3.072
31.46000 0.498
31.48000 -1.041
31.50000 -3.520
31.52000 -1.258
31.54000 -0.779
31.56000 3.336
31.58000 4.867
31.60000 8.347
31.62000 7.380
31.64000 6.262
31.66000 5.423
31.68000 4.511
31.70000 3.209
31.72000 3.598
31.74000 3.125
31.76000 -0.008
31.78000 -2.649
31.80000 -3.393
31.82000 0.480
31.84000 3.627
31.86000 -0.124
31.88000 1.420
31.90000 -1.311
31.92000 -1.557
31.94000 -0.200
31.96000 -0.847
31.98000 1.325
32.00000 -0.069
32.02000 1.879
32.04000 -2.012
32.06000 3.513
32.08000 5.658
32.10000 1.017
32.12000 -0.438
32.14000 -2.031
32.16000 1.705
32.18000 0.923
32.20000 -0.095
32.22000 5.107
32.24000 4.103
32.26000 -2.172
32.28000 -1.251
32.30000 -2.927
32.32000 1.468
32.34000 3.850
32.36000 6.782
32.38000 2.993
32.40000 -1.586
32.42000 -3.591
32.44000 3.089
32.46000 0.860
32.48000 -0.352
32.50000 5.045
32.52000 -1.498
32.54000 -0.323
32.56000 0.487
32.58000 2.114
32.60000 0.451
32.62000 0.270
32.64000 3.683
32.66000 7.164
32.68000 -0.138
32.70000 0.380
32.72000 0.284
32.74000 0.971
32.76000 1.504
32.78000 4.179
32.80000 6.696
32.82000 6.266
32.84000 4.041
32.86000 0.183
32.88000 -0.116
32.90000 0.101
32.92000 5.922
32.94000 0.067
32.96000 3.317
32.98000 6.776
33.00000 6.065
33.02000 -0.782
33.04000 3.690
33.06000 -1.971
33.08000 -1.026
33.10000 -0.538
33.12000 0.897
33.14000 -0.701
33.16000 2.192
33.18000 2.444
33.20000 3.866
33.22000 3.545
33.24000 4.824
33.26000 1.496
33.28000 -0.593
33.30000 0.211
33.32000 6.020
33.34000 6.469
33.36000 4.129
33.38000 4.090
33.40000 1.017
33.42000 3.481
33.44000 4.218
33.46000 0.866
33.48000 0.259
33.50000 -0.567
33.52000 -3.552
33.54000 -0.997
33.56000 5.743
33.58000 7.809
33.60000 3.921
33.62000 1.820
33.64000 5.340
33.66000 7.059
33.68000 4.952
33.70000 0.352
33.72000 0.451
33.74000 0.259
33.76000 -0.596
33.78000 0.903
33.80000 4.942
33.82000 9.284
33.84000 5.784
33.86000 2.896
33.88000 6.625
33.90000 2.672
33.92000 -0.023
33.94000 -0.081
33.96000 3.565
33.98000 3.099
34.00000 6.359
34.02000 5.201
34.04000 6.187
34.06000 9.472
34.08000 1.950
34.10000 2.480
34.12000 5.660
34.14000 6.669
34.16000 5.221
34.18000 7.703
34.20000 3.715
34.22000 -0.692
34.24000 0.412
34.26000 2.973
34.28000 6.211
34.30000 5.517
34.32000 8.208
34.34000 8.730
34.36000 9.644
34.38000 9.174
34.40000 5.510
34.42000 1.034
34.44000 2.480
34.46000 -0.016
34.48000 1.011
34.50000 -0.301
34.52000 6.051
34.54000 6.299
34.56000 3.989
34.58000 1.717
34.60000 4.389
34.62000 10.106
34.64000 7.504
34.66000 4.775
34.68000 2.072
34.70000 1.273
34.72000 -0.853
34.74000 2.690
34.76000 5.922
34.78000 6.499
34.80000 2.272
34.82000 9.334
34.84000 6.999
34.86000 1.401
34.88000 -1.926
34.90000 0.545
34.92000 -2.843
34.94000 -0.605
34.96000 0.851
34.98000 0.279
35.00000 -1.565
35.02000 0.445
35.04000 4.739
35.06000 4.960
35.08000 4.840
35.10000 3.642
35.12000 5.145
35.14000 3.788
35.16000 4.377
35.18000 2.611
35.20000 5.846
35.22000 4.564
35.24000 3.267
35.26000 3.389
35.28000 -1.390
35.30000 -3.474
35.32000 -1.688
35.34000 -3.475
35.36000 3.650
35.38000 3.056
35.40000 8.171
35.42000 5.869
35.44000 2.558
35.46000 1.599
35.48000 2.370
35.50000 2.436
35.52000 5.515
35.54000 4.401
35.56000 0.543
35.58000 3.929
35.60000 1.936
35.62000 5.569
35.64000 6.092
35.66000 1.328
35.68000 1.678
35.70000 1.400
35.72000 -2.073
35.74000 5.597
35.76000 2.724
35.78000 4.307
35.80000 5.333
35.82000 8.099
35.84000 4.893
35.86000 2.650
35.88000 0.286
35.90000 1.795
35.92000 -0.189
35.94000 0.362
35.96000 2.320
35.98000 2.169
36.00000 2.101
36.02000 3.939
36.04000 2.517
36.06000 -1.260
36.08000 -0.633
36.10000 -0.027
36.12000 3.610
36.14000 -0.167
36.16000 0.665
36.18000 6.552
36.20000 6.335
36.22000 0.827
36.24000 0.172
36.26000 0.309
36.28000 3.793
36.30000 1.456
36.32000 3.352
36.34000 3.320
36.36000 3.590
36.38000 4.575
36.40000 4.172
36.42000 1.652
36.44000 3.689
36.46000 0.824
36.48000 -0.324
36.50000 0.286
36.52000 0.795
36.54000 2.076
36.56000 7.047
36.58000 2.675
36.60000 3.437
36.62000 0.713
36.64000 4.947
36.66000 3.974
36.68000 3.993
36.70000 4.498
36.72000 2.727
36.74000 1.853
36.76000 -0.027
36.78000 1.251
36.80000 6.586
36.82000 4.579
36.84000 4.657
36.86000 2.607
36.88000 2.626
36.90000 -3.500
36.92000 1.779
36.94000 0.413
36.96000 1.233
36.98000 3.294
37.00000 5.384
37.02000 1.453
37.04000 -1.119
37.06000 2.396
37.08000 0.439
37.10000 -1.170
37.12000 1.424
37.14000 1.992
37.16000 4.789
37.18000 4.045
37.20000 -2.886
37.22000 -2.808
37.24000 -0.840
37.26000 -2.111
37.28000 1.836
37.30000 1.626
37.32000 2.613
37.34000 2.727
37.36000 4.529
37.38000 0.632
37.40000 -1.446
37.42000 -3.533
37.44000 0.327
37.46000 4.790
37.48000 0.764
37.50000 1.543
37.52000 0.440
37.54000 2.696
37.56000 3.880
37.58000 -0.309
37.60000 -1.339
37.62000 -0.080
37.64000 -1.170
37.66000 1.546
37.68000 4.940
37.70000 2.306
37.72000 3.788
37.74000 10.116
37.76000 5.514
37.78000 0.092
37.80000 0.516
37.82000 -3.572
37.84000 -1.846
37.86000 1.282
37.88000 6.728
37.90000 8.263
37.92000 5.082
37.94000 0.434
37.96000 5.189
37.98000 4.007
38.00000 7.126
38.02000 2.334
38.04000 2.710
38.06000 5.968
38.08000 2.952
38.10000 4.828
38.12000 7.782
38.14000 9.235
38.16000 14.266
38.18000 11.720
38.20000 15.280
38.22000 12.028
38.24000 12.141
38.26000 12.564
38.28000 13.301
38.30000 9.475
38.32000 9.489
38.34000 10.042
38.36000 12.192
38.38000 11.323
38.40000 10.901
38.42000 11.696
38.44000 13.683
38.46000 14.441
38.48000 17.438
38.50000 18.715
38.52000 18.359
38.54000 17.062
38.56000 16.437
38.58000 17.082
38.60000 18.307
38.62000 15.088
38.64000 16.143
38.66000 16.374
38.68000 16.985
38.70000 17.988
38.72000 22.514
38.74000 20.682
38.76000 21.289
38.78000 23.403
38.80000 25.430
38.82000 20.440
38.84000 21.446
38.86000 23.545
38.88000 23.255
38.90000 23.753
38.92000 16.342
38.94000 22.919
38.96000 27.140
38.98000 17.957
39.00000 21.537
39.02000 26.685
39.04000 29.093
39.06000 30.847
39.08000 26.135
39.10000 23.348
39.12000 29.433
39.14000 28.459
39.16000 27.831
39.18000 30.820
39.20000 35.960
39.22000 33.972
39.24000 35.944
39.26000 35.202
39.28000 39.604
39.30000 42.218
39.32000 46.865
39.34000 44.530
39.36000 48.057
39.38000 46.320
39.40000 45.187
39.42000 45.717
39.44000 49.128
39.46000 54.774
39.48000 58.697
39.50000 61.706
39.52000 60.563
39.54000 61.532
39.56000 70.060
39.58000 68.261
39.60000 72.510
39.62000 73.717
39.64000 73.192
39.66000 73.484
39.68000 78.907
39.70000 84.037
39.72000 89.907
39.74000 87.920
39.76000 96.065
39.78000 100.189
39.80000 105.313
39.82000 109.590
39.84000 110.561
39.86000 118.205
39.88000 127.499
39.90000 136.726
39.92000 143.187
39.94000 148.904
39.96000 155.793
39.98000 163.132
40.00000 166.933
40.02000 171.943
40.04000 178.258
40.06000 192.258
40.08000 205.587
40.10000 217.500
40.12000 231.680
40.14000 244.871
40.16000 251.731
40.18000 255.111
40.20000 259.883
40.22000 269.363
40.24000 284.426
40.26000 306.219
40.28000 325.063
40.30000 344.234
40.32000 349.660
40.34000 360.638
40.36000 364.733
40.38000 377.791
40.40000 392.526
40.42000 422.233
40.44000 432.569
40.46000 446.145
40.48000 461.162
40.50000 470.250
40.52000 487.007
40.54000 490.490
40.56000 506.577
40.58000 538.342
40.60000 549.474
40.62000 556.547
40.64000 566.659
40.66000 567.572
40.68000 576.381
40.70000 581.079
40.72000 587.102
40.74000 596.949
40.76000 596.680
40.78000 603.573
40.80000 609.026
40.82000 598.926
40.84000 578.593
40.86000 571.390
40.88000 562.558
40.90000 557.412
40.92000 545.936
40.94000 539.694
40.96000 531.294
40.98000 519.912
41.00000 499.787
41.02000 484.763
41.04000 477.291
41.06000 456.220
41.08000 437.899
41.10000 422.061
41.12000 402.947
41.14000 392.907
41.16000 385.447
41.18000 363.304
41.20000 337.495
41.22000 328.244
41.24000 308.834
41.26000 295.771
41.28000 285.045
41.30000 274.165
41.32000 260.639
41.34000 252.892
41.36000 235.777
41.38000 221.711
41.40000 206.680
41.42000 202.439
41.44000 185.345
41.46000 176.447
41.48000 174.561
41.50000 164.481
41.52000 156.947
41.54000 147.098
41.56000 137.874
41.58000 134.756
41.60000 127.684
41.62000 125.919
41.64000 115.548
41.66000 104.800
41.68000 101.971
41.70000 97.031
41.72000 99.902
41.74000 91.959
41.76000 84.133
41.78000 79.212
41.80000 80.196
41.82000 74.759
41.84000 73.243
41.86000 66.722
41.88000 62.436
41.90000 59.303
41.92000 53.570
41.94000 55.303
41.96000 55.291
41.98000 52.905
42.00000 46.889
42.02000 42.912
42.04000 37.959
42.06000 33.896
42.08000 36.256
42.10000 33.032
42.12000 35.377
42.14000 37.670
42.16000 30.403
42.18000 29.522
42.20000 27.606
42.22000 22.737
42.24000 19.976
42.26000 23.880
42.28000 26.233
42.30000 26.413
42.32000 23.156
42.34000 19.497
42.36000 16.826
42.38000 13.440
42.40000 21.554
42.42000 17.749
42.44000 13.152
42.46000 13.952
42.48000 14.471
42.50000 19.086
42.52000 20.897
42.54000 15.700
42.56000 11.445
42.58000 9.976
42.60000 8.322
42.62000 4.423
42.64000 7.043
42.66000 10.546
42.68000 8.524
42.70000 6.758
42.72000 7.499
42.74000 4.924
42.76000 4.520
42.78000 4.845
42.80000 7.211
42.82000 9.568
42.84000 6.993
42.86000 3.950
42.88000 4.345
42.90000 9.326
42.92000 11.602
42.94000 9.668
42.96000 8.532
42.98000 4.625
43.00000 2.558
43.02000 3.996
43.04000 4.291
43.06000 3.777
43.08000 1.385
43.10000 4.054
43.12000 0.382
43.14000 1.056
43.16000 2.232
43.18000 -0.541
43.20000 2.174
43.22000 1.498
43.24000 3.647
43.26000 5.950
43.28000 3.529
43.30000 0.287
43.32000 2.290
43.34000 1.630
43.36000 2.468
43.38000 8.346
43.40000 6.229
43.42000 0.764
43.44000 5.340
43.46000 6.262
43.48000 4.862
43.50000 1.349
43.52000 0.700
43.54000 0.293
43.56000 -1.850
43.58000 1.249
43.60000 2.046
43.62000 6.988
43.64000 2.582
43.66000 -1.090
43.68000 1.523
43.70000 -0.378
43.72000 0.766
43.74000 1.069
43.76000 -0.091
43.78000 3.385
43.80000 -3.516
43.82000 -2.389
43.84000 1.676
43.86000 3.157
43.88000 0.450
43.90000 1.055
43.92000 -0.668
43.94000 3.604
43.96000 1.013
43.98000 -2.647
44.00000 0.511
44.02000 2.924
44.04000 3.259
44.06000 -3.485
44.08000 -1.712
44.10000 3.904
44.12000 8.140
44.14000 4.432
44.16000 5.272
44.18000 5.652
44.20000 2.945
44.22000 6.453
44.24000 2.533
44.26000 6.190
44.28000 0.364
44.30000 -2.890
44.32000 0.853
44.34000 3.968
44.36000 0.290
44.38000 -3.369
44.40000 -2.691
44.42000 2.071
44.44000 3.916
44.46000 1.865
44.48000 3.741
44.50000 -1.368
44.52000 -3.480
44.54000 0.123
44.56000 -0.921
44.58000 -0.550
44.60000 -0.590
44.62000 -1.038
44.64000 -1.898
44.66000 0.031
44.68000 3.796
44.70000 5.304
44.72000 2.935
44.74000 3.139
44.76000 3.240
44.78000 8.227
44.80000 5.645
44.82000 2.704
44.84000 2.333
44.86000 6.700
44.88000 5.110
44.90000 5.103
44.92000 6.359
44.94000 5.093
44.96000 0.013
44.98000 -3.464
45.00000 0.828
45.02000 9.310
45.04000 9.153
45.06000 3.440
45.08000 3.688
45.10000 6.470
45.12000 8.478
45.14000 3.717
45.16000 1.398
45.18000 4.461
45.20000 4.684
45.22000 4.751
45.24000 1.984
45.26000 4.046
45.28000 -0.314
45.30000 -1.684
45.32000 6.524
45.34000 11.355
45.36000 7.499
45.38000 7.182
45.40000 7.285
45.42000 4.866
45.44000 1.557
45.46000 1.513
45.48000 0.075
45.50000 2.783
45.52000 5.017
45.54000 6.174
45.56000 2.791
45.58000 7.125
45.60000 9.039
45.62000 1.974
45.64000 11.724
45.66000 6.623
45.68000 2.002
45.70000 6.078
45.72000 5.239
45.74000 8.574
45.76000 12.016
45.78000 11.264
45.80000 11.695
45.82000 11.236
45.84000 8.732
45.86000 8.477
45.88000 5.153
45.90000 9.773
45.92000 12.050
45.94000 9.076
45.96000 10.008
45.98000 9.157
46.00000 14.561
46.02000 14.838
46.04000 15.292
46.06000 13.526
46.08000 11.157
46.10000 18.183
46.12000 13.124
46.14000 16.061
46.16000 16.412
46.18000 22.508
46.20000 27.134
46.22000 19.237
46.24000 24.377
46.26000 26.165
46.28000 26.533
46.30000 27.660
46.32000 30.480
46.34000 24.047
46.36000 21.708
46.38000 26.080
46.40000 24.596
46.42000 32.416
46.44000 33.609
46.46000 32.806
46.48000 31.138
46.50000 30.706
46.52000 34.210
46.54000 39.889
46.56000 36.801
46.58000 39.719
46.60000 35.460
46.62000 36.833
46.64000 40.150
46.66000 39.318
46.68000 47.690
46.70000 48.583
46.72000 48.332
46.74000 49.872
46.76000 42.280
46.78000 49.470
46.80000 52.339
46.82000 46.384
46.84000 43.564
46.86000 52.266
46.88000 46.883
46.90000 44.813
46.92000 52.249
46.94000 56.256
46.96000 55.152
46.98000 48.107
47.00000 55.666
47.02000 57.212
47.04000 62.716
47.06000 69.123
47.08000 68.045
47.10000 66.094
47.12000 59.404
47.14000 55.285
47.16000 58.008
47.18000 63.520
47.20000 68.101
47.22000 68.687
47.24000 61.826
47.26000 63.882
47.28000 71.996
47.30000 65.733
47.32000 59.075
47.34000 63.454
47.36000 69.813
47.38000 69.774
47.40000 63.771
47.42000 64.031
47.44000 62.878
47.46000 63.700
47.48000 62.764
47.50000 59.114
47.52000 57.875
47.54000 64.036
47.56000 71.300
47.58000 63.523
47.60000 62.082
47.62000 54.569
47.64000 55.814
47.66000 58.662
47.68000 58.222
47.70000 62.667
47.72000 53.647
47.74000 48.846
47.76000 49.825
47.78000 59.212
47.80000 56.674
47.82000 51.705
47.84000 49.775
47.86000 42.894
47.88000 42.690
47.90000 40.917
47.92000 41.024
47.94000 35.584
47.96000 33.065
47.98000 32.225
48.00000 34.653
48.02000 33.733
48.04000 33.167
48.06000 32.024
48.08000 25.226
48.10000 26.342
48.12000 31.235
48.14000 24.266
48.16000 18.279
48.18000 17.004
48.20000 20.439
48.22000 23.005
48.24000 15.562
48.26000 18.405
48.28000 23.377
48.30000 17.915
48.32000 15.505
48.34000 17.534
48.36000 11.363
48.38000 10.602
48.40000 16.215
48.42000 14.388
48.44000 11.661
48.46000 6.565
48.48000 4.329
48.50000 6.235
48.52000 9.715
48.54000 8.097
48.56000 8.354
48.58000 6.334
48.60000 11.297
48.62000 8.900
48.64000 6.299
48.66000 6.903
48.68000 5.522
48.70000 2.536
48.72000 5.650
48.74000 6.048
48.76000 8.791
48.78000 8.713
48.80000 0.616
48.82000 0.848
48.84000 5.195
48.86000 8.775
48.88000 2.867
48.90000 -1.372
48.92000 -0.053
48.94000 2.495
48.96000 1.996
48.98000 6.873
49.00000 5.929
49.02000 1.826
49.04000 7.451
49.06000 5.833
49.08000 2.484
49.10000 -0.208
49.12000 -0.424
49.14000 -3.153
49.16000 3.107
49.18000 4.730
49.20000 4.490
49.22000 3.576
49.24000 0.311
49.26000 2.117
49.28000 4.735
49.30000 4.241
49.32000 1.721
49.34000 -0.299
49.36000 -1.733
49.38000 3.257
49.40000 2.590
49.42000 -3.145
49.44000 -1.673
49.46000 1.426
49.48000 2.016
49.50000 3.908
49.52000 1.958
49.54000 1.107
49.56000 7.684
49.58000 2.605
49.60000 0.041
49.62000 0.433
49.64000 5.616
49.66000 6.393
49.68000 0.419
49.70000 -1.357
49.72000 1.119
49.74000 2.365
49.76000 1.507
49.78000 2.462
49.80000 2.738
49.82000 1.954
49.84000 2.905
49.86000 6.108
49.88000 1.833
49.90000 -0.490
49.92000 4.782
49.94000 6.753
49.96000 5.526
49.98000 1.823
50.00000 -3.066
50.02000 -0.942
50.04000 2.578
50.06000 -0.204
50.08000 -1.288
50.10000 -0.951
50.12000 -0.517
50.14000 2.338
50.16000 3.882
50.18000 3.632
50.20000 4.853
50.22000 -1.512
50.24000 -1.877
50.26000 0.589
50.28000 1.801
50.30000 3.106
50.32000 2.768
50.34000 -0.091
50.36000 -2.256
50.38000 0.866
50.40000 2.027
50.42000 1.223
50.44000 -2.688
50.46000 5.035
50.48000 11.520
50.50000 6.869
50.52000 5.247
50.54000 0.977
50.56000 2.494
50.58000 1.084
50.60000 -0.641
50.62000 0.611
50.64000 1.826
50.66000 3.574
50.68000 2.663
50.70000 3.876
50.72000 6.633
50.74000 6.184
50.76000 7.351
50.78000 4.953
50.80000 3.326
50.82000 -1.459
50.84000 0.745
50.86000 0.770
50.88000 3.109
50.90000 4.115
50.92000 3.058
50.94000 1.705
50.96000 6.632
50.98000 8.179
51.00000 4.741
51.02000 1.276
51.04000 2.158
51.06000 2.787
51.08000 -2.936
51.10000 0.744
51.12000 6.215
51.14000 4.197
51.16000 7.663
51.18000 5.710
51.20000 7.695
51.22000 7.854
51.24000 3.114
51.26000 -0.307
51.28000 1.046
51.30000 4.582
51.32000 7.402
51.34000 5.147
51.36000 6.604
51.38000 9.718
51.40000 4.039
51.42000 5.613
51.44000 10.800
51.46000 7.153
51.48000 3.204
51.50000 -1.102
51.52000 -0.047
51.54000 6.956
51.56000 7.998
51.58000 6.501
51.60000 7.539
51.62000 7.211
51.64000 5.450
51.66000 6.748
51.68000 6.028
51.70000 8.273
51.72000 5.021
51.74000 5.202
51.76000 1.014
51.78000 0.756
51.80000 3.005
51.82000 0.297
51.84000 0.165
51.86000 5.935
51.88000 5.623
51.90000 5.442
51.92000 7.527
51.94000 2.920
51.96000 0.620
51.98000 4.955
52.00000 5.536
52.02000 3.905
52.04000 1.077
52.06000 0.875
52.08000 0.186
52.10000 4.418
52.12000 8.918
52.14000 7.306
52.16000 7.250
52.18000 6.495
52.20000 6.993
52.22000 3.597
52.24000 4.891
52.26000 6.237
52.28000 11.538
52.30000 10.632
52.32000 11.547
52.34000 13.523
52.36000 5.694
52.38000 1.425
52.40000 4.808
52.42000 3.943
52.44000 8.721
52.46000 5.388
52.48000 6.851
52.50000 3.888
52.52000 -1.235
52.54000 0.830
52.56000 -2.886
52.58000 -1.695
52.60000 3.820
52.62000 7.749
52.64000 7.589
52.66000 6.241
52.68000 6.749
52.70000 5.738
52.72000 4.903
52.74000 1.783
52.76000 2.067
52.78000 4.405
52.80000 8.276
52.82000 3.828
52.84000 7.042
52.86000 5.446
52.88000 4.328
52.90000 7.376
52.92000 7.874
52.94000 6.313
52.96000 1.891
52.98000 -1.122
53.00000 0.282
53.02000 4.027
53.04000 4.126
53.06000 4.049
53.08000 3.605
53.10000 5.287
53.12000 7.687
53.14000 3.897
53.16000 -1.347
53.18000 -2.629
53.20000 0.185
53.22000 0.706
53.24000 -2.244
53.26000 1.863
53.28000 3.372
53.30000 -2.740
53.32000 0.845
53.34000 5.294
53.36000 4.378
53.38000 6.912
53.40000 7.679
53.42000 2.521
53.44000 1.082
53.46000 0.489
53.48000 4.432
53.50000 6.897
53.52000 4.048
53.54000 2.801
53.56000 1.594
53.58000 1.645
53.60000 -2.771
53.62000 -0.519
53.64000 3.896
53.66000 2.300
53.68000 1.994
53.70000 4.762
53.72000 5.557
53.74000 0.318
53.76000 -0.599
53.78000 -2.869
53.80000 4.803
53.82000 5.970
53.84000 3.839
53.86000 1.506
53.88000 0.086
53.90000 4.844
53.92000 4.794
53.94000 1.479
53.96000 1.397
53.98000 1.211
54.00000 -2.859
54.02000 -0.467
54.04000 2.575
54.06000 4.033
54.08000 3.973
54.10000 3.751
54.12000 4.082
54.14000 0.329
54.16000 -2.684
54.18000 1.222
54.20000 2.074
54.22000 2.096
54.24000 0.186
54.26000 4.023
54.28000 4.419
54.30000 7.337
54.32000 4.870
54.34000 -0.338
54.36000 0.516
54.38000 3.267
54.40000 -0.013
54.42000 3.243
54.44000 7.934
54.46000 6.299
54.48000 -0.288
54.50000 -2.825
54.52000 1.175
54.54000 5.862
54.56000 4.678
54.58000 4.588
54.60000 6.472
54.62000 5.543
54.64000 5.331
54.66000 3.721
54.68000 6.119
54.70000 7.372
54.72000 8.735
54.74000 6.380
54.76000 3.842
54.78000 5.624
54.80000 3.509
54.82000 3.271
54.84000 5.090
54.86000 1.613
54.88000 3.134
54.90000 4.413
54.92000 2.008
54.94000 2.355
54.96000 2.279
54.98000 -0.682
55.00000 3.588
55.02000 6.457
55.04000 2.740
55.06000 -0.236
55.08000 3.476
55.10000 4.266
55.12000 4.209
55.14000 4.738
55.16000 2.756
55.18000 9.504
55.20000 5.654
55.22000 -0.415
55.24000 3.717
55.26000 4.324
55.28000 -0.106
55.30000 3.913
55.32000 11.086
55.34000 2.116
55.36000 -0.202
55.38000 2.290
55.40000 1.149
55.42000 0.112
55.44000 -1.268
55.46000 0.412
55.48000 -2.434
55.50000 1.794
55.52000 4.292
55.54000 5.780
55.56000 6.671
55.58000 1.774
55.60000 -1.799
55.62000 2.138
55.64000 2.846
55.66000 4.444
55.68000 3.132
55.70000 3.839
55.72000 -1.340
55.74000 -2.815
55.76000 5.345
55.78000 8.623
55.80000 4.484
55.82000 -0.644
55.84000 -1.121
55.86000 0.100
55.88000 -2.582
55.90000 1.093
55.92000 10.676
55.94000 7.491
55.96000 3.204
55.98000 4.301
56.00000 6.297
56.02000 0.711
56.04000 -2.814
56.06000 -0.225
56.08000 4.475
56.10000 7.479
56.12000 6.618
56.14000 0.305
56.16000 2.229
56.18000 4.057
56.20000 6.593
56.22000 6.361
56.24000 5.832
56.26000 -0.408
56.28000 -0.104
56.30000 0.332
56.32000 -0.870
56.34000 2.155
56.36000 -0.197
56.38000 -0.941
56.40000 -1.043
56.42000 3.426
56.44000 3.987
56.46000 -0.992
56.48000 1.962
56.50000 1.081
56.52000 3.022
56.54000 4.005
56.56000 -0.244
56.58000 1.268
56.60000 6.396
56.62000 7.916
56.64000 5.797
56.66000 1.004
56.68000 1.446
56.70000 4.031
56.72000 -0.232
56.74000 2.868
56.76000 3.190
56.78000 0.242
56.80000 -1.981
56.82000 3.655
56.84000 -2.191
56.86000 4.819
56.88000 3.452
56.90000 2.247
56.92000 -0.580
56.94000 0.772
56.96000 5.574
56.98000 1.334
57.00000 -2.317
57.02000 5.229
57.04000 0.994
57.06000 1.979
57.08000 0.617
57.10000 1.505
57.12000 2.910
57.14000 0.196
57.16000 1.655
57.18000 3.692
57.20000 3.900
57.22000 1.799
57.24000 6.405
57.26000 7.648
57.28000 2.993
57.30000 0.928
57.32000 2.348
57.34000 4.720
57.36000 6.647
57.38000 3.448
57.40000 -0.577
57.42000 -2.081
57.44000 -1.942
57.46000 1.009
57.48000 2.943
57.50000 3.717
57.52000 2.641
57.54000 2.164
57.56000 0.320
57.58000 -0.962
57.60000 1.042
57.62000 2.022
57.64000 1.775
57.66000 3.588
57.68000 3.200
57.70000 2.999
57.72000 6.221
57.74000 7.310
57.76000 7.917
57.78000 7.579
57.80000 -2.726
57.82000 0.637
57.84000 3.384
57.86000 5.379
57.88000 3.232
57.90000 2.348
57.92000 2.645
57.94000 1.329
57.96000 5.157
57.98000 7.823
58.00000 7.537
58.02000 6.361
58.04000 5.317
58.06000 10.178
58.08000 5.758
58.10000 5.346
58.12000 7.678
58.14000 6.571
58.16000 5.752
58.18000 2.224
58.20000 1.771
58.22000 1.256
58.24000 4.757
58.26000 5.040
58.28000 2.359
58.30000 6.352
58.32000 8.267
58.34000 6.024
58.36000 4.421
58.38000 4.349
58.40000 3.746
58.42000 6.260
58.44000 5.176
58.46000 3.494
58.48000 6.606
58.50000 9.362
58.52000 4.989
58.54000 1.710
58.56000 -1.474
58.58000 0.293
58.60000 1.277
58.62000 -2.690
58.64000 2.057
58.66000 6.743
58.68000 6.570
58.70000 2.504
58.72000 4.216
58.74000 6.277
58.76000 4.515
58.78000 7.226
58.80000 1.560
58.82000 4.585
58.84000 6.556
58.86000 3.573
58.88000 2.561
58.90000 2.753
58.92000 2.009
58.94000 -0.482
58.96000 6.443
58.98000 4.101
59.00000 2.978
59.02000 7.097
59.04000 1.885
59.06000 4.272
59.08000 3.651
59.10000 2.823
59.12000 2.456
59.14000 2.113
59.16000 0.022
59.18000 4.579
59.20000 7.109
59.22000 6.822
59.24000 12.705
59.26000 9.463
59.28000 6.762
59.30000 4.787
59.32000 4.434
59.34000 3.098
59.36000 4.446
59.38000 3.621
59.40000 0.256
59.42000 0.613
59.44000 4.574
59.46000 0.916
59.48000 4.740
59.50000 5.016
59.52000 1.382
59.54000 2.218
59.56000 1.433
59.58000 3.248
59.60000 3.563
59.62000 0.138
59.64000 -0.575
59.66000 -1.583
59.68000 1.307
59.70000 2.292
59.72000 4.691
59.74000 7.973
59.76000 9.959
59.78000 3.726
59.80000 -0.965
59.82000 -1.666
59.84000 -2.298
59.86000 -0.780
59.88000 3.615
59.90000 0.025
59.92000 0.561
59.94000 3.103
59.96000 3.109
59.98000 -1.392
60.00000 -2.675
60.02000 0.736
60.04000 -1.912
60.06000 -1.209
60.08000 -1.854
60.10000 -0.703
60.12000 -1.856
60.14000 1.783
60.16000 3.225
60.18000 4.930
60.20000 4.053
60.22000 3.230
60.24000 2.412
60.26000 -2.453
60.28000 3.893
60.30000 5.852
60.32000 3.100
60.34000 -0.072
60.36000 0.756
60.38000 -0.563
60.40000 3.524
60.42000 2.308
60.44000 1.722
60.46000 2.458
60.48000 1.963
60.50000 2.779
60.52000 0.870
60.54000 4.679
60.56000 5.574
60.58000 1.645
60.60000 3.284
60.62000 4.682
60.64000 -0.117
60.66000 0.113
60.68000 2.253
60.70000 2.636
60.72000 3.487
60.74000 6.638
60.76000 5.227
60.78000 4.154
60.80000 0.521
60.82000 4.657
60.84000 1.181
60.86000 0.365
60.88000 2.528
60.90000 4.933
60.92000 2.083
60.94000 1.882
60.96000 5.406
60.98000 4.295
61.00000 2.559
61.02000 1.566
61.04000 -2.627
61.06000 1.450
61.08000 3.654
61.10000 4.851
61.12000 4.009
61.14000 1.255
61.16000 2.620
61.18000 1.037
61.20000 0.712
61.22000 0.182
61.24000 3.200
61.26000 4.249
61.28000 3.001
61.30000 0.843
61.32000 5.375
61.34000 4.389
61.36000 6.071
61.38000 5.631
61.40000 1.282
61.42000 3.604
61.44000 4.901
61.46000 4.092
61.48000 4.352
61.50000 4.538
61.52000 3.422
61.54000 1.551
61.56000 4.983
61.58000 2.764
61.60000 7.282
61.62000 9.617
61.64000 8.695
61.66000 1.983
61.68000 3.072
61.70000 0.139
61.72000 -0.378
61.74000 0.425
61.76000 -0.606
61.78000 0.250
61.80000 4.803
61.82000 3.803
61.84000 2.776
61.86000 2.554
61.88000 4.005
61.90000 3.170
61.92000 4.809
61.94000 5.552
61.96000 0.842
61.98000 1.711
62.00000 3.571
62.02000 0.498
62.04000 -2.608
62.06000 4.461
62.08000 3.320
62.10000 7.626
62.12000 2.274
62.14000 -0.507
62.16000 1.714
62.18000 3.537
62.20000 2.515
62.22000 3.250
62.24000 -1.086
62.26000 -0.509
62.28000 -0.336
62.30000 1.060
62.32000 5.805
62.34000 6.736
62.36000 4.242
62.38000 1.247
62.40000 1.203
62.42000 3.847
62.44000 2.467
62.46000 2.196
62.48000 -0.923
62.50000 -0.307
62.52000 6.349
62.54000 4.740
62.56000 0.797
62.58000 1.407
62.60000 2.678
62.62000 -2.571
62.64000 2.001
62.66000 2.939
62.68000 0.196
62.70000 2.263
62.72000 2.385
62.74000 2.007
62.76000 2.335
62.78000 0.140
62.80000 -2.185
62.82000 5.369
62.84000 1.527
62.86000 0.370
62.88000 0.119
62.90000 0.606
62.92000 4.781
62.94000 5.071
62.96000 1.630
62.98000 -1.927
63.00000 -0.905
63.02000 -0.459
63.04000 4.902
63.06000 4.811
63.08000 1.312
63.10000 1.749
63.12000 -0.854
63.14000 -0.135
63.16000 1.229
63.18000 1.492
63.20000 1.109
63.22000 2.334
63.24000 3.070
63.26000 3.164
63.28000 0.472
63.30000 1.532
63.32000 2.382
63.34000 3.817
63.36000 3.583
63.38000 4.243
63.40000 3.448
63.42000 2.688
63.44000 -0.431
63.46000 1.757
63.48000 6.460
63.50000 1.872
63.52000 0.802
63.54000 1.456
63.56000 2.055
63.58000 5.666
63.60000 4.474
63.62000 0.188
63.64000 0.548
63.66000 -0.950
63.68000 -0.475
63.70000 1.268
63.72000 2.522
63.74000 4.381
63.76000 3.188
63.78000 0.056
63.80000 3.608
63.82000 3.734
63.84000 3.725
63.86000 -0.743
63.88000 3.320
63.90000 -0.491
63.92000 1.717
63.94000 3.000
63.96000 3.170
63.98000 1.762
64.00000 1.040
64.02000 4.739
64.04000 2.082
64.06000 0.456
64.08000 -2.495
64.10000 1.058
64.12000 2.066
64.14000 3.226
64.16000 1.448
64.18000 -0.365
64.20000 -2.613
64.22000 0.836
64.24000 0.051
64.26000 1.391
64.28000 0.759
64.30000 -2.613
64.32000 3.964
64.34000 3.334
64.36000 0.939
64.38000 -0.550
64.40000 -0.135
64.42000 1.389
64.44000 1.992
64.46000 1.650
64.48000 2.203
64.50000 4.115
64.52000 3.938
64.54000 0.623
64.56000 2.042
64.58000 3.815
64.60000 0.966
64.62000 1.578
64.64000 2.882
64.66000 0.428
64.68000 1.112
64.70000 3.663
64.72000 -0.944
64.74000 -2.608
64.76000 0.024
64.78000 2.378
64.80000 2.434
64.82000 0.810
64.84000 -0.759
64.86000 1.088
64.88000 1.880
64.90000 1.093
64.92000 3.604
64.94000 2.869
64.96000 -0.955
64.98000 2.807
65.00000 4.585
65.02000 4.865
65.04000 0.062
65.06000 3.250
65.08000 6.516
65.10000 3.539
65.12000 4.503
65.14000 -0.977
65.16000 -2.602
65.18000 0.649
65.20000 -0.387
65.22000 0.277
65.24000 1.639
65.26000 1.450
65.28000 1.229
65.30000 3.253
65.32000 -1.974
65.34000 -2.602
65.36000 1.929
65.38000 0.304
65.40000 -0.693
65.42000 -1.946
65.44000 -0.777
65.46000 3.129
65.48000 1.702
65.50000 -0.165
65.52000 2.869
65.54000 -0.424
65.56000 -1.961
65.58000 -1.580
65.60000 -1.557
65.62000 -0.694
65.64000 5.950
65.66000 2.482
65.68000 -1.607
65.70000 -0.160
65.72000 0.899
65.74000 1.205
65.76000 1.826
65.78000 -1.260
65.80000 2.035
65.82000 3.403
65.84000 2.444
65.86000 3.668
65.88000 5.310
65.90000 1.429
65.92000 -1.041
65.94000 0.961
65.96000 0.814
65.98000 2.294
66.00000 2.366
66.02000 3.827
66.04000 2.317
66.06000 -0.295
66.08000 0.164
66.10000 1.698
66.12000 3.708
66.14000 3.414
66.16000 2.029
66.18000 3.055
66.20000 1.531
66.22000 2.082
66.24000 -1.599
66.26000 0.823
66.28000 1.599
66.30000 -0.622
66.32000 0.727
66.34000 2.213
66.36000 2.177
66.38000 3.835
66.40000 3.620
66.42000 5.484
66.44000 8.102
66.46000 4.294
66.48000 3.073
66.50000 2.514
66.52000 2.073
66.54000 2.277
66.56000 0.571
66.58000 0.834
66.60000 -2.347
66.62000 0.902
66.64000 2.423
66.66000 4.189
66.68000 0.229
66.70000 2.194
66.72000 2.354
66.74000 -0.375
66.76000 -0.142
66.78000 1.815
66.80000 0.513
66.82000 -0.519
66.84000 1.956
66.86000 4.516
66.88000 2.170
66.90000 1.797
66.92000 3.705
66.94000 2.258
66.96000 1.087
66.98000 1.029
67.00000 3.114
67.02000 2.274
67.04000 -0.319
67.06000 1.479
67.08000 3.527
67.10000 -2.599
67.12000 0.451
67.14000 0.473
67.16000 5.865
67.18000 5.318
67.20000 4.461
67.22000 2.027
67.24000 0.209
67.26000 3.505
67.28000 4.959
67.30000 1.631
67.32000 0.486
67.34000 0.415
67.36000 1.845
67.38000 -0.431
67.40000 0.868
67.42000 3.164
67.44000 3.066
67.46000 1.620
67.48000 1.051
67.50000 2.236
67.52000 1.156
67.54000 1.160
67.56000 4.302
67.58000 9.543
67.60000 8.377
67.62000 3.656
67.64000 3.706
67.66000 4.913
67.68000 2.591
67.70000 -0.982
67.72000 0.854
67.74000 -0.225
67.76000 -2.658
67.78000 -0.227
67.80000 4.353
67.82000 4.539
67.84000 1.722
67.86000 2.711
67.88000 3.699
67.90000 1.640
67.92000 5.435
67.94000 8.069
67.96000 10.096
67.98000 6.897
68.00000 3.069
68.02000 6.292
68.04000 6.408
68.06000 6.168
68.08000 5.572
68.10000 5.247
68.12000 9.894
68.14000 9.102
68.16000 8.448
68.18000 8.647
68.20000 6.726
68.22000 3.226
68.24000 3.533
68.26000 7.288
68.28000 9.777
68.30000 13.046
68.32000 13.769
68.34000 6.473
68.36000 7.572
68.38000 7.504
68.40000 11.105
68.42000 10.981
68.44000 12.221
68.46000 10.329
68.48000 9.826
68.50000 11.833
68.52000 12.773
68.54000 15.382
68.56000 14.211
68.58000 13.648
68.60000 16.016
68.62000 13.663
68.64000 17.611
68.66000 20.122
68.68000 15.141
68.70000 16.044
68.72000 22.085
68.74000 24.256
68.76000 22.747
68.78000 18.840
68.80000 19.218
68.82000 17.003
68.84000 19.046
68.86000 21.180
68.88000 23.406
68.90000 23.820
68.92000 25.562
68.94000 25.276
68.96000 22.219
68.98000 22.750
69.00000 21.850
69.02000 28.833
69.04000 28.616
69.06000 26.934
69.08000 24.817
69.10000 26.849
69.12000 25.246
69.14000 24.727
69.16000 24.554
69.18000 26.787
69.20000 28.996
69.22000 27.309
69.24000 24.148
69.26000 27.092
69.28000 27.818
69.30000 19.179
69.32000 17.350
69.34000 19.546
69.36000 24.426
69.38000 22.275
69.40000 23.158
69.42000 26.104
69.44000 26.438
69.46000 24.697
69.48000 21.037
69.50000 22.893
69.52000 21.883
69.54000 23.405
69.56000 18.995
69.58000 18.059
69.60000 20.701
69.62000 23.833
69.64000 22.402
69.66000 16.814
69.68000 12.790
69.70000 14.518
69.72000 16.406
69.74000 21.050
69.76000 22.766
69.78000 15.846
69.80000 16.872
69.82000 16.412
69.84000 15.897
69.86000 14.408
69.88000 14.059
69.90000 18.069
69.92000 12.898
69.94000 13.494
69.96000 14.574
69.98000 11.560
70.00000 11.134
70.02000 11.266
70.04000 13.694
70.06000 7.902
70.08000 4.341
70.10000 3.695
70.12000 6.502
70.14000 7.169
70.16000 8.009
70.18000 9.775
70.20000 8.896
70.22000 7.819
70.24000 10.652
70.26000 6.834
70.28000 4.414
70.30000 7.281
70.32000 4.238
70.34000 5.980
70.36000 9.038
70.38000 6.188
70.40000 4.378
70.42000 1.207
70.44000 2.806
70.46000 4.318
70.48000 6.020
70.50000 1.923
70.52000 2.816
70.54000 0.711
70.56000 3.193
70.58000 5.699
70.60000 8.613
70.62000 7.039
70.64000 2.110
70.66000 4.384
70.68000 -0.267
70.70000 1.476
70.72000 3.246
70.74000 0.390
70.76000 -2.559
70.78000 -0.234
70.80000 0.945
70.82000 2.123
70.84000 4.869
70.86000 0.199
70.88000 1.517
70.90000 6.698
70.92000 3.589
70.94000 4.796
70.96000 1.273
70.98000 0.052
71.00000 -0.585
71.02000 3.238
71.04000 1.627
71.06000 0.279
71.08000 2.060
71.10000 2.042
71.12000 3.907
71.14000 1.708
71.16000 -0.656
71.18000 0.591
71.20000 5.691
71.22000 10.594
71.24000 7.220
71.26000 3.160
71.28000 -0.824
71.30000 2.259
71.32000 3.731
71.34000 1.123
71.36000 3.475
71.38000 3.930
71.40000 1.463
71.42000 3.183
71.44000 2.410
71.46000 1.541
71.48000 7.295
71.50000 8.280
71.52000 3.633
71.54000 3.179
71.56000 2.310
71.58000 -2.453
71.60000 -2.040
71.62000 2.701
71.64000 8.445
71.66000 2.405
71.68000 2.253
71.70000 5.091
71.72000 6.200
71.74000 7.384
71.76000 5.912
71.78000 2.407
71.80000 0.385
71.82000 1.220
71.84000 1.278
71.86000 5.321
71.88000 6.925
71.90000 3.949
71.92000 2.719
71.94000 2.471
71.96000 -0.936
71.98000 4.466
72.00000 2.043
72.02000 1.549
72.04000 4.679
72.06000 4.917
72.08000 8.462
72.10000 7.405
72.12000 9.011
72.14000 7.165
72.16000 -2.413
72.18000 1.802
72.20000 9.373
72.22000 6.587
72.24000 4.426
72.26000 4.332
72.28000 6.204
72.30000 5.179
72.32000 3.638
72.34000 6.467
72.36000 4.397
72.38000 1.358
72.40000 5.213
72.42000 4.603
72.44000 3.673
72.46000 7.639
72.48000 6.370
72.50000 3.670
72.52000 -0.654
72.54000 -1.747
72.56000 1.199
72.58000 3.156
72.60000 6.250
72.62000 11.614
72.64000 7.933
72.66000 6.775
72.68000 7.088
72.70000 6.377
72.72000 7.791
72.74000 10.853
72.76000 11.410
72.78000 6.888
72.80000 3.766
72.82000 3.632
72.84000 -2.358
72.86000 2.846
72.88000 7.478
72.90000 8.885
72.92000 6.124
72.94000 5.425
72.96000 8.715
72.98000 4.394
73.00000 4.407
73.02000 4.781
73.04000 5.989
73.06000 9.848
73.08000 9.154
73.10000 9.022
73.12000 7.560
73.14000 3.881
73.16000 6.048
73.18000 7.768
73.20000 3.664
73.22000 4.918
73.24000 8.431
73.26000 5.361
73.28000 4.410
73.30000 4.644
73.32000 6.996
73.34000 6.229
73.36000 7.837
73.38000 6.126
73.40000 7.764
73.42000 3.045
73.44000 2.092
73.46000 1.837
73.48000 5.297
73.50000 6.057
73.52000 -0.130
73.54000 -2.048
73.56000 2.534
73.58000 5.169
73.60000 3.455
73.62000 3.748
73.64000 4.337
73.66000 4.391
73.68000 1.445
73.70000 2.627
73.72000 4.437
73.74000 6.828
73.76000 6.082
73.78000 6.895
73.80000 1.563
73.82000 -1.330
73.84000 -0.048
73.86000 3.610
73.88000 3.498
73.90000 5.698
73.92000 3.738
73.94000 7.732
73.96000 5.285
73.98000 1.734
74.00000 1.622
74.02000 1.633
74.04000 1.462
74.06000 5.532
74.08000 6.132
74.10000 5.776
74.12000 3.829
74.14000 5.526
74.16000 4.120
74.18000 5.858
74.20000 4.332
74.22000 2.689
74.24000 2.038
74.26000 2.095
74.28000 1.835
74.30000 1.738
74.32000 1.476
74.34000 7.599
74.36000 3.488
74.38000 1.415
74.40000 -2.388
74.42000 -2.382
74.44000 -1.426
74.46000 2.728
74.48000 2.741
74.50000 5.604
74.52000 4.031
74.54000 4.225
74.56000 7.771
74.58000 5.792
74.60000 3.967
74.62000 1.133
74.64000 -1.130
74.66000 0.361
74.68000 1.961
74.70000 0.367
74.72000 1.919
74.74000 0.815
74.76000 3.481
74.78000 0.758
74.80000 4.179
74.82000 4.780
74.84000 2.618
74.86000 2.669
74.88000 -1.680
74.90000 1.820
74.92000 2.306
74.94000 5.198
74.96000 6.143
74.98000 4.908
75.00000 6.384
75.02000 1.875
75.04000 1.706
75.06000 2.101
75.08000 2.980
75.10000 0.686
75.12000 3.705
75.14000 -0.815
75.16000 4.611
75.18000 5.159
75.20000 5.088
75.22000 5.602
75.24000 6.817
75.26000 5.475
75.28000 -2.361
75.30000 0.577
75.32000 5.198
75.34000 5.420
75.36000 2.604
75.38000 4.510
75.40000 -0.063
75.42000 3.079
75.44000 8.130
75.46000 3.614
75.48000 3.421
75.50000 9.598
75.52000 4.407
75.54000 -1.629
75.56000 -2.145
75.58000 3.782
75.60000 7.542
75.62000 5.984
75.64000 4.481
75.66000 -0.665
75.68000 1.192
75.70000 5.811
75.72000 8.370
75.74000 9.104
75.76000 4.992
75.78000 4.903
75.80000 4.235
75.82000 5.167
75.84000 0.618
75.86000 0.443
75.88000 0.810
75.90000 2.762
75.92000 3.083
75.94000 3.045
75.96000 1.776
75.98000 1.387
76.00000 2.436
76.02000 -0.024
76.04000 -0.478
76.06000 -0.092
76.08000 2.384
76.10000 0.926
76.12000 2.078
76.14000 4.818
76.16000 2.136
76.18000 2.782
76.20000 1.464
76.22000 1.521
76.24000 1.566
76.26000 6.737
76.28000 4.641
76.30000 -2.424
76.32000 3.054
76.34000 3.279
76.36000 2.850
76.38000 3.093
76.40000 5.745
76.42000 1.840
76.44000 0.022
76.46000 0.905
76.48000 -0.908
76.50000 -0.710
76.52000 -2.299
76.54000 1.408
76.56000 2.201
76.58000 3.564
76.60000 9.506
76.62000 6.788
76.64000 4.328
76.66000 2.977
76.68000 3.805
76.70000 2.186
76.72000 -0.217
76.74000 -2.435
76.76000 -1.634
76.78000 1.058
76.80000 -0.705
76.82000 0.267
76.84000 -0.584
76.86000 2.647
76.88000 0.383
76.90000 -0.349
76.92000 -1.839
76.94000 4.519
76.96000 3.956
76.98000 -1.158
77.00000 -0.388
77.02000 0.723
77.04000 -1.588
77.06000 1.903
77.08000 3.588
77.10000 -0.633
77.12000 4.398
77.14000 2.209
77.16000 1.219
77.18000 5.681
77.20000 3.742
77.22000 2.063
77.24000 0.860
77.26000 2.254
77.28000 -1.135
77.30000 0.149
77.32000 0.966
77.34000 5.619
77.36000 6.242
77.38000 4.369
77.40000 7.867
77.42000 6.191
77.44000 10.703
77.46000 4.825
77.48000 2.744
77.50000 5.565
77.52000 3.178
77.54000 1.490
77.56000 3.252
77.58000 0.541
77.60000 -1.453
77.62000 -2.424
77.64000 -2.191
77.66000 -2.188
77.68000 1.701
77.70000 4.032
77.72000 3.172
77.74000 3.368
77.76000 5.010
77.78000 1.862
77.80000 7.278
77.82000 6.901
77.84000 6.431
77.86000 0.491
77.88000 -2.431
77.90000 -0.556
77.92000 3.613
77.94000 0.112
77.96000 -0.770
77.98000 -1.190
78.00000 -1.428
78.02000 0.363
78.04000 5.486
78.06000 1.584
78.08000 -1.511
78.10000 -2.018
78.12000 -0.738
78.14000 1.428
78.16000 4.157
78.18000 6.536
78.20000 6.153
78.22000 2.069
78.24000 1.161
78.26000 -0.856
78.28000 2.280
78.30000 -0.335
78.32000 2.494
78.34000 -0.085
78.36000 1.432
78.38000 -0.924
78.40000 -1.166
78.42000 0.299
78.44000 1.549
78.46000 4.341
78.48000 -0.813
78.50000 -0.848
78.52000 5.506
78.54000 6.306
78.56000 2.914
78.58000 -0.511
78.60000 1.277
78.62000 2.376
78.64000 0.172
78.66000 -0.415
78.68000 -0.331
78.70000 1.562
78.72000 -2.143
78.74000 -2.391
78.76000 3.202
78.78000 7.895
78.80000 3.750
78.82000 -0.685
78.84000 -2.409
78.86000 3.011
78.88000 0.882
78.90000 0.544
78.92000 0.820
78.94000 -0.785
78.96000 1.371
78.98000 -0.956
79.00000 -1.453
79.02000 2.100
79.04000 1.738
79.06000 -2.437
79.08000 0.395
79.10000 1.784
79.12000 -0.278
79.14000 3.275
79.16000 7.321
79.18000 10.140
79.20000 2.433
79.22000 -0.242
79.24000 1.418
79.26000 5.539
79.28000 2.202
79.30000 0.531
79.32000 2.401
79.34000 4.214
79.36000 4.486
79.38000 3.841
79.40000 4.133
79.42000 4.918
79.44000 5.735
79.46000 2.225
79.48000 2.948
79.50000 1.615
79.52000 6.763
79.54000 -0.170
79.56000 0.481
79.58000 6.724
79.60000 5.874
79.62000 4.711
79.64000 7.855
79.66000 6.747
79.68000 5.654
79.70000 2.553
79.72000 1.123
79.74000 2.681
79.76000 1.367
79.78000 -1.401
79.80000 -1.994
79.82000 1.333
79.84000 1.659
79.86000 6.858
79.88000 5.028
79.90000 3.134
79.92000 2.115
79.94000 0.012
79.96000 -0.462
79.98000 5.292
80.00000 5.919
80.02000 5.395
80.04000 6.472
80.06000 5.587
80.08000 4.540
80.10000 5.654
80.12000 1.171
80.14000 3.373
80.16000 4.132
80.18000 3.732
80.20000 3.985
80.22000 1.575
80.24000 -2.437
80.26000 1.362
80.28000 5.324
80.30000 7.765
80.32000 2.657
80.34000 4.261
80.36000 4.713
80.38000 7.042
80.40000 7.435
80.42000 4.835
80.44000 4.910
80.46000 8.629
80.48000 5.172
80.50000 5.399
80.52000 4.678
80.54000 2.998
80.56000 3.569
80.58000 4.770
80.60000 0.615
80.62000 -2.441
80.64000 1.470
80.66000 5.968
80.68000 4.494
80.70000 5.970
80.72000 7.970
80.74000 5.127
80.76000 -0.691
80.78000 3.236
80.80000 -1.109
80.82000 1.389
80.84000 4.969
80.86000 4.131
80.88000 1.633
80.90000 5.082
80.92000 7.076
80.94000 8.951
80.96000 6.915
80.98000 3.028
81.00000 4.643
81.02000 5.094
81.04000 3.095
81.06000 7.165
81.08000 9.785
81.10000 5.750
81.12000 6.699
81.14000 4.928
81.16000 7.101
81.18000 8.482
81.20000 6.559
81.22000 8.352
81.24000 3.178
81.26000 2.854
81.28000 -0.610
81.30000 -2.447
81.32000 1.420
81.34000 6.656
81.36000 10.069
81.38000 4.127
81.40000 2.353
81.42000 7.676
81.44000 4.516
81.46000 8.090
81.48000 6.596
81.50000 7.054
81.52000 5.654
81.54000 4.415
81.56000 2.710
81.58000 7.126
81.60000 7.165
81.62000 5.667
81.64000 1.548
81.66000 6.470
81.68000 7.126
81.70000 2.366
81.72000 4.433
81.74000 2.883
81.76000 4.041
81.78000 3.053
81.80000 8.422
81.82000 4.564
81.84000 8.581
81.86000 8.020
81.88000 8.425
81.90000 9.006
81.92000 12.208
81.94000 8.838
81.96000 6.490
81.98000 8.201
82.00000 10.457
82.02000 13.492
82.04000 6.530
82.06000 5.488
82.08000 5.942
82.10000 8.398
82.12000 8.229
82.14000 4.039
82.16000 2.710
82.18000 6.927
82.20000 9.963
82.22000 8.778
82.24000 8.462
82.26000 6.140
82.28000 7.177
82.30000 8.056
82.32000 7.496
82.34000 5.987
82.36000 9.536
82.38000 7.713
82.40000 7.603
82.42000 7.528
82.44000 8.743
82.46000 12.309
82.48000 14.781
82.50000 6.443
82.52000 5.728
82.54000 15.490
82.56000 13.512
82.58000 8.495
82.60000 14.686
82.62000 14.446
82.64000 18.397
82.66000 17.281
82.68000 15.838
82.70000 15.025
82.72000 10.840
82.74000 11.494
82.76000 18.065
82.78000 17.189
82.80000 15.308
82.82000 13.301
82.84000 15.593
82.86000 13.419
82.88000 14.154
82.90000 12.773
82.92000 16.416
82.94000 16.171
82.96000 14.653
82.98000 11.896
83.00000 12.432
83.02000 14.139
83.04000 15.475
83.06000 15.052
83.08000 12.513
83.10000 12.103
83.12000 13.922
83.14000 16.830
83.16000 20.009
83.18000 22.961
83.20000 23.829
83.22000 24.734
83.24000 23.663
83.26000 20.568
83.28000 19.443
83.30000 22.531
83.32000 26.647
83.34000 23.991
83.36000 19.156
83.38000 26.943
83.40000 23.928
83.42000 21.321
83.44000 24.496
83.46000 23.947
83.48000 26.796
83.50000 24.219
83.52000 25.590
83.54000 29.672
83.56000 30.736
83.58000 27.383
83.60000 21.106
83.62000 26.585
83.64000 27.576
83.66000 26.157
83.68000 28.414
83.70000 26.226
83.72000 25.629
83.74000 27.510
83.76000 29.274
83.78000 33.926
83.80000 27.079
83.82000 24.040
83.84000 24.418
83.86000 27.138
83.88000 24.281
83.90000 27.148
83.92000 25.581
83.94000 22.733
83.96000 18.412
83.98000 17.432
84.00000 26.836
84.02000 28.915
84.04000 25.834
84.06000 20.152
84.08000 20.190
84.10000 20.886
84.12000 17.726
84.14000 15.968
84.16000 20.406
84.18000 15.426
84.20000 14.089
84.22000 14.314
84.24000 21.339
84.26000 18.956
84.28000 17.321
84.30000 14.521
84.32000 9.694
84.34000 16.897
84.36000 14.043
84.38000 14.707
84.40000 18.778
84.42000 15.772
84.44000 16.424
84.46000 13.672
84.48000 13.068
84.50000 11.974
84.52000 12.894
84.54000 12.981
84.56000 12.344
84.58000 12.103
84.60000 14.347
84.62000 12.775
84.64000 9.746
84.66000 9.973
84.68000 8.291
84.70000 4.068
84.72000 3.232
84.74000 8.548
84.76000 8.793
84.78000 9.588
84.80000 8.700
84.82000 6.595
84.84000 5.313
84.86000 4.443
84.88000 2.681
84.90000 2.688
84.92000 7.356
84.94000 5.764
84.96000 5.039
84.98000 4.602
85.00000 5.155
85.02000 4.636
85.04000 2.965
85.06000 4.531
85.08000 9.222
85.10000 6.632
85.12000 8.148
85.14000 1.533
85.16000 -0.799
85.18000 0.796
85.20000 -0.491
85.22000 1.936
85.24000 5.550
85.26000 2.691
85.28000 -1.422
85.30000 1.590
85.32000 7.070
85.34000 6.399
85.36000 1.174
85.38000 -1.378
85.40000 -1.314
85.42000 0.655
85.44000 -1.975
85.46000 -2.386
85.48000 2.433
85.50000 2.090
85.52000 4.974
85.54000 2.631
85.56000 4.282
85.58000 6.384
85.60000 7.498
85.62000 1.817
85.64000 -2.496
85.66000 0.203
85.68000 0.795
85.70000 -1.559
85.72000 -1.057
85.74000 0.615
85.76000 8.270
85.78000 4.609
85.80000 1.052
85.82000 0.907
85.84000 4.448
85.86000 2.553
85.88000 2.342
85.90000 6.723
85.92000 7.452
85.94000 6.609
85.96000 4.086
85.98000 2.647
86.00000 2.585
86.02000 -2.404
86.04000 -2.465
86.06000 1.465
86.08000 4.022
86.10000 4.088
86.12000 4.551
86.14000 5.026
86.16000 2.050
86.18000 5.220
86.20000 3.903
86.22000 3.123
86.24000 8.022
86.26000 7.089
86.28000 0.693
86.30000 2.604
86.32000 2.721
86.34000 2.354
86.36000 6.091
86.38000 7.593
86.40000 4.881
86.42000 -0.057
86.44000 0.699
86.46000 2.391
86.48000 5.721
86.50000 6.261
86.52000 2.458
86.54000 -2.467
86.56000 4.682
86.58000 5.356
86.60000 3.421
86.62000 8.037
86.64000 10.882
86.66000 6.421
86.68000 1.381
86.70000 3.284
86.72000 1.387
86.74000 1.444
86.76000 2.383
86.78000 6.053
86.80000 12.584
86.82000 6.952
86.84000 7.991
86.86000 6.483
86.88000 8.927
86.90000 7.491
86.92000 6.729
86.94000 0.801
86.96000 3.725
86.98000 8.219
87.00000 8.535
87.02000 12.760
87.04000 9.576
87.06000 5.761
87.08000 6.760
87.10000 6.817
87.12000 7.063
87.14000 8.434
87.16000 11.340
87.18000 6.933
87.20000 1.704
87.22000 3.066
87.24000 8.552
87.26000 12.313
87.28000 18.251
87.30000 9.118
87.32000 7.968
87.34000 8.185
87.36000 7.208
87.38000 7.396
87.40000 13.027
87.42000 10.758
87.44000 8.968
87.46000 12.633
87.48000 17.823
87.50000 19.416
87.52000 16.920
87.54000 15.770
87.56000 12.931
87.58000 13.387
87.60000 17.128
87.62000 14.799
87.64000 19.195
87.66000 14.541
87.68000 13.732
87.70000 11.972
87.72000 18.482
87.74000 16.216
87.76000 13.330
87.78000 17.112
87.80000 20.198
87.82000 19.808
87.84000 18.302
87.86000 19.246
87.88000 21.394
87.90000 23.037
87.92000 17.764
87.94000 15.909
87.96000 17.802
87.98000 23.633
88.00000 30.686
88.02000 29.650
88.04000 26.167
88.06000 23.353
88.08000 21.594
88.10000 22.016
88.12000 26.279
88.14000 28.445
88.16000 31.145
88.18000 30.247
88.20000 30.126
88.22000 29.598
88.24000 30.584
88.26000 26.313
88.28000 27.553
88.30000 22.175
88.32000 26.173
88.34000 28.816
88.36000 28.864
88.38000 28.231
88.40000 24.792
88.42000 19.519
88.44000 27.182
88.46000 28.400
88.48000 23.335
88.50000 25.904
88.52000 22.004
88.54000 19.519
88.56000 23.520
88.58000 23.777
88.60000 21.530
88.62000 24.153
88.64000 25.071
88.66000 22.267
88.68000 19.134
88.70000 16.206
88.72000 18.858
88.74000 18.944
88.76000 21.601
88.78000 20.248
88.80000 13.470
88.82000 15.124
88.84000 15.064
88.86000 20.274
88.88000 19.486
88.90000 20.080
88.92000 17.693
88.94000 14.779
88.96000 17.452
88.98000 18.075
89.00000 16.211
89.02000 12.436
89.04000 14.246
89.06000 15.398
89.08000 20.768
89.10000 10.248
89.12000 9.953
89.14000 10.002
89.16000 10.536
89.18000 12.580
89.20000 14.453
89.22000 13.321
89.24000 9.153
89.26000 10.293
89.28000 12.283
89.30000 9.704
89.32000 10.782
89.34000 9.783
89.36000 6.474
89.38000 10.481
89.40000 8.557
89.42000 6.913
89.44000 12.202
89.46000 9.132
89.48000 4.287
89.50000 4.140
89.52000 7.173
89.54000 12.099
89.56000 15.086
89.58000 4.155
89.60000 4.738
89.62000 6.113
89.64000 -2.364
89.66000 2.418
89.68000 4.777
89.70000 11.392
89.72000 8.871
89.74000 9.650
89.76000 5.058
89.78000 4.689
89.80000 9.103
89.82000 3.741
89.84000 6.253
89.86000 2.345
89.88000 3.370
89.90000 8.127
89.92000 9.838
89.94000 4.349
89.96000 2.837
89.98000 5.713
90.00000 6.449
90.02000 6.511
90.04000 7.142
90.06000 5.927
90.08000 4.126
90.10000 2.790
90.12000 6.042
90.14000 6.901
90.16000 12.160
90.18000 7.459
90.20000 4.049
90.22000 6.699
90.24000 6.869
90.26000 4.608
90.28000 8.750
90.30000 7.726
90.32000 5.432
90.34000 8.761
90.36000 8.004
90.38000 13.621
90.40000 10.987
90.42000 -3.399
90.44000 0.282
90.46000 5.409
90.48000 7.387
90.50000 8.042
90.52000 9.364
90.54000 11.952
90.56000 8.923
90.58000 8.101
90.60000 8.729
90.62000 8.654
90.64000 2.079
90.66000 3.555
90.68000 6.967
90.70000 2.473
90.72000 1.432
90.74000 4.755
90.76000 3.619
90.78000 4.604
90.80000 6.902
90.82000 4.675
90.84000 1.313
90.86000 2.513
90.88000 2.003
90.90000 1.676
90.92000 2.706
90.94000 6.022
90.96000 2.067
90.98000 3.283
91.00000 4.429
91.02000 2.994
91.04000 2.922
91.06000 -0.247
91.08000 -0.713
91.10000 3.832
91.12000 7.479
91.14000 9.482
91.16000 4.700
91.18000 4.677
91.20000 3.382
91.22000 4.772
91.24000 4.010
91.26000 0.133
91.28000 2.511
91.30000 8.807
91.32000 3.967
91.34000 2.555
91.36000 3.471
91.38000 3.894
91.40000 3.111
91.42000 4.554
91.44000 3.759
91.46000 3.161
91.48000 5.026
91.50000 5.446
91.52000 2.584
91.54000 2.701
91.56000 2.157
91.58000 2.597
91.60000 3.008
91.62000 1.085
91.64000 2.298
91.66000 -1.516
91.68000 0.422
91.70000 2.682
91.72000 2.279
91.74000 -2.305
91.76000 -0.668
91.78000 5.750
91.80000 4.402
91.82000 3.293
91.84000 0.388
91.86000 5.311
91.88000 6.401
91.90000 2.744
91.92000 1.496
91.94000 -1.203
91.96000 4.970
91.98000 4.497
92.00000 4.793
92.02000 3.223
92.04000 -0.422
92.06000 3.237
92.08000 3.304
92.10000 4.640
92.12000 0.809
92.14000 4.268
92.16000 -1.116
92.18000 -0.118
92.20000 -1.354
92.22000 -0.733
92.24000 2.637
92.26000 5.892
92.28000 2.144
92.30000 5.280
92.32000 0.245
92.34000 1.501
92.36000 6.992
92.38000 5.817
92.40000 -2.319
92.42000 -1.526
92.44000 5.588
92.46000 5.655
92.48000 4.333
92.50000 -1.221
92.52000 0.097
92.54000 -0.392
92.56000 2.454
92.58000 -0.639
92.60000 1.184
92.62000 1.943
92.64000 -1.200
92.66000 0.412
92.68000 0.001
92.70000 0.420
92.72000 2.494
92.74000 2.997
92.76000 8.707
92.78000 7.843
92.80000 3.245
92.82000 -0.562
92.84000 -0.113
92.86000 3.563
92.88000 5.487
92.90000 6.452
92.92000 6.854
92.94000 -0.330
92.96000 4.978
92.98000 6.202
93.00000 5.422
93.02000 6.233
93.04000 2.285
93.06000 -0.399
93.08000 -1.060
93.10000 1.972
93.12000 5.762
93.14000 6.581
93.16000 7.921
93.18000 4.741
93.20000 6.669
93.22000 3.658
93.24000 2.634
93.26000 -0.771
93.28000 1.190
93.30000 -1.525
93.32000 1.036
93.34000 7.312
93.36000 5.953
93.38000 3.733
93.40000 4.100
93.42000 6.346
93.44000 10.796
93.46000 4.576
93.48000 3.244
93.50000 4.919
93.52000 1.848
93.54000 9.521
93.56000 8.384
93.58000 2.968
93.60000 4.098
93.62000 4.199
93.64000 7.698
93.66000 9.442
93.68000 4.131
93.70000 0.442
93.72000 -0.146
93.74000 -2.268
93.76000 -0.065
93.78000 3.338
93.80000 1.250
93.82000 0.979
93.84000 2.752
93.86000 1.301
93.88000 4.506
93.90000 2.800
93.92000 4.296
93.94000 4.007
93.96000 0.624
93.98000 3.719
94.00000 -0.083
94.02000 2.162
94.04000 4.809
94.06000 -0.147
94.08000 -1.859
94.10000 4.773
94.12000 8.029
94.14000 0.661
94.16000 3.100
94.18000 10.569
94.20000 10.592
94.22000 7.543
94.24000 1.229
94.26000 3.828
94.28000 3.575
94.30000 8.854
94.32000 10.123
94.34000 6.396
94.36000 4.907
94.38000 5.426
94.40000 1.373
94.42000 0.435
94.44000 6.812
94.46000 5.589
94.48000 3.542
94.50000 6.382
94.52000 1.121
94.54000 2.204
94.56000 8.773
94.58000 9.641
94.60000 9.790
94.62000 4.268
94.64000 8.059
94.66000 5.372
94.68000 1.540
94.70000 0.001
94.72000 3.790
94.74000 2.198
94.76000 -0.672
94.78000 7.169
94.80000 7.479
94.82000 4.520
94.84000 1.045
94.86000 2.143
94.88000 5.098
94.90000 4.612
94.92000 4.648
94.94000 9.541
94.96000 9.307
94.98000 2.839
95.00000 3.712
95.02000 7.896
95.04000 7.556
95.06000 11.144
95.08000 3.920
95.10000 3.629
95.12000 6.745
95.14000 6.072
95.16000 4.769
95.18000 8.742
95.20000 8.219
95.22000 3.604
95.24000 1.729
95.26000 2.447
95.28000 5.958
95.30000 10.757
95.32000 6.736
95.34000 1.982
95.36000 -2.268
95.38000 5.240
95.40000 5.165
95.42000 5.436
95.44000 3.981
95.46000 4.055
95.48000 10.299
95.50000 7.564
95.52000 6.854
95.54000 4.200
95.56000 7.068
95.58000 9.222
95.60000 5.878
95.62000 4.897
95.64000 2.809
95.66000 4.631
95.68000 2.704
95.70000 3.393
95.72000 0.305
95.74000 -0.123
95.76000 -0.442
95.78000 0.714
95.80000 -1.255
95.82000 -2.297
95.84000 0.894
95.86000 13.341
95.88000 12.396
95.90000 7.164
95.92000 6.968
95.94000 7.415
95.96000 6.980
95.98000 1.987
96.00000 -1.405
96.02000 2.716
96.04000 5.741
96.06000 11.252
96.08000 4.362
96.10000 -1.237
96.12000 5.026
96.14000 4.770
96.16000 -0.734
96.18000 -0.956
96.20000 5.754
96.22000 2.879
96.24000 4.932
96.26000 8.665
96.28000 7.055
96.30000 0.792
96.32000 0.512
96.34000 7.161
96.36000 7.124
96.38000 3.291
96.40000 1.008
96.42000 -2.313
96.44000 3.790
96.46000 4.965
96.48000 5.848
96.50000 8.096
96.52000 7.310
96.54000 8.891
96.56000 3.716
96.58000 -0.048
96.60000 0.550
96.62000 0.693
96.64000 2.982
96.66000 3.342
96.68000 5.449
96.70000 0.831
96.72000 0.029
96.74000 3.696
96.76000 11.474
96.78000 3.905
96.80000 0.427
96.82000 1.637
96.84000 0.481
96.86000 -1.812
96.88000 -2.313
96.90000 6.277
96.92000 8.589
96.94000 6.772
96.96000 3.911
96.98000 2.818
97.00000 1.805
97.02000 -0.595
97.04000 3.297
97.06000 7.311
97.08000 10.053
97.10000 8.113
97.12000 1.996
97.14000 1.775
97.16000 7.707
97.18000 10.059
97.20000 3.354
97.22000 5.804
97.24000 5.599
97.26000 2.209
97.28000 3.251
97.30000 9.403
97.32000 6.137
97.34000 3.737
97.36000 1.788
97.38000 3.127
97.40000 11.736
97.42000 10.373
97.44000 8.989
97.46000 11.084
97.48000 6.366
97.50000 1.167
97.52000 5.016
97.54000 7.978
97.56000 4.601
97.58000 0.004
97.60000 0.398
97.62000 4.485
97.64000 -0.894
97.66000 -0.804
97.68000 6.195
97.70000 -0.948
97.72000 6.437
97.74000 2.800
97.76000 3.924
97.78000 1.416
97.80000 0.461
97.82000 -0.731
97.84000 5.199
97.86000 8.416
97.88000 12.884
97.90000 6.033
97.92000 2.637
97.94000 -0.245
97.96000 3.210
97.98000 3.594
98.00000 7.238
98.02000 7.068
98.04000 2.992
98.06000 7.598
98.08000 -2.945
98.10000 3.871
98.12000 3.124
98.14000 0.649
98.16000 1.795
98.18000 8.927
98.20000 7.359
98.22000 8.675
98.24000 6.450
98.26000 1.603
98.28000 6.037
98.30000 7.329
98.32000 10.239
98.34000 16.349
98.36000 5.868
98.38000 7.873
98.40000 7.667
98.42000 1.264
98.44000 5.683
98.46000 3.253
98.48000 2.556
98.50000 7.134
98.52000 9.972
98.54000 11.769
98.56000 10.959
98.58000 0.942
98.60000 2.157
98.62000 5.532
98.64000 8.593
98.66000 7.771
98.68000 1.542
98.70000 2.402
98.72000 5.628
98.74000 5.796
98.76000 5.806
98.78000 10.209
98.80000 0.057
98.82000 3.793
98.84000 7.526
98.86000 1.857
98.88000 11.828
98.90000 7.861
98.92000 13.577
98.94000 13.116
98.96000 8.235
98.98000 7.182
99.00000 10.309
99.02000 7.257
99.04000 16.050
99.06000 4.028
99.08000 9.608
99.10000 6.434
99.12000 0.184
99.14000 7.405
99.16000 12.166
99.18000 6.759
99.20000 10.510
99.22000 10.223
99.24000 11.145
99.26000 14.726
99.28000 13.408
99.30000 12.388
99.32000 10.156
99.34000 8.056
99.36000 7.889
99.38000 7.774
99.40000 12.234
99.42000 15.856
99.44000 9.012
99.46000 2.324
99.48000 2.539
99.50000 10.152
99.52000 10.976
99.54000 3.721
99.56000 -2.742
99.58000 6.434
99.60000 0.618
99.62000 10.059
99.64000 14.838
99.66000 8.718
99.68000 1.803
99.70000 12.306
99.72000 3.350
99.74000 -1.072
99.76000 4.174
99.78000 11.435
99.80000 2.369
99.82000 -2.284
99.84000 7.056
99.86000 2.363
99.88000 1.312
99.90000 -2.401
99.92000 3.496
99.94000 11.931
99.96000 2.146
99.98000 0.000
