'Id: "0011387" Comment: "Integrate frame 0011387_Au-Ir-Rh_Rh-rich_XRD-Mapping-164-0000.gfrmwith cursor Wedge Cursor #5" Operator: "B?rgel" Anode: "Cu" Wavelength: "1.5406" Scantype: "2Theta (TwoTheta)" TimePerStep: "1" X: "-13.5" Y: "0" Z: "5.95" 
10.00000 0.000
10.02000 -4.454
10.04000 -12.838
10.06000 15.996
10.08000 22.626
10.10000 22.203
10.12000 29.915
10.14000 25.848
10.16000 1.155
10.18000 -1.886
10.20000 -4.323
10.22000 3.186
10.24000 2.863
10.26000 1.628
10.28000 9.943
10.30000 13.497
10.32000 5.198
10.34000 1.270
10.36000 11.106
10.38000 -3.884
10.40000 -4.311
10.42000 13.275
10.44000 1.831
10.46000 13.925
10.48000 -1.048
10.50000 16.797
10.52000 7.561
10.54000 2.285
10.56000 28.374
10.58000 20.434
10.60000 16.566
10.62000 17.360
10.64000 12.859
10.66000 23.902
10.68000 9.155
10.70000 4.536
10.72000 1.790
10.74000 -1.031
10.76000 4.435
10.78000 15.254
10.80000 7.547
10.82000 -4.302
10.84000 9.475
10.86000 19.964
10.88000 8.409
10.90000 12.224
10.92000 12.642
10.94000 5.755
10.96000 11.985
10.98000 6.837
11.00000 18.564
11.02000 17.955
11.04000 10.405
11.06000 8.193
11.08000 0.384
11.10000 18.286
11.12000 20.034
11.14000 14.357
11.16000 3.478
11.18000 5.842
11.20000 19.831
11.22000 9.771
11.24000 0.485
11.26000 14.421
11.28000 10.454
11.30000 10.093
11.32000 7.145
11.34000 18.514
11.36000 11.853
11.38000 12.339
11.40000 7.838
11.42000 13.304
11.44000 7.271
11.46000 17.888
11.48000 21.902
11.50000 9.619
11.52000 0.463
11.54000 3.950
11.56000 11.524
11.58000 14.871
11.60000 14.074
11.62000 6.723
11.64000 16.634
11.66000 9.779
11.68000 8.338
11.70000 9.276
11.72000 8.740
11.74000 16.196
11.76000 11.247
11.78000 11.601
11.80000 14.169
11.82000 -0.897
11.84000 -0.111
11.86000 11.674
11.88000 1.940
11.90000 4.637
11.92000 16.489
11.94000 14.586
11.96000 3.224
11.98000 9.936
12.00000 7.813
12.02000 2.773
12.04000 4.588
12.06000 8.211
12.08000 22.521
12.10000 16.278
12.12000 18.143
12.14000 10.637
12.16000 3.944
12.18000 5.593
12.20000 12.550
12.22000 11.796
12.24000 8.324
12.26000 3.582
12.28000 12.624
12.30000 23.663
12.32000 19.344
12.34000 22.602
12.36000 18.448
12.38000 8.464
12.40000 4.887
12.42000 14.515
12.44000 13.587
12.46000 12.591
12.48000 10.887
12.50000 10.337
12.52000 9.545
12.54000 4.870
12.56000 9.195
12.58000 18.118
12.60000 5.553
12.62000 6.656
12.64000 8.361
12.66000 12.688
12.68000 9.061
12.70000 3.571
12.72000 11.303
12.74000 14.618
12.76000 18.083
12.78000 12.860
12.80000 11.012
12.82000 19.375
12.84000 23.574
12.86000 4.014
12.88000 2.009
12.90000 7.713
12.92000 12.362
12.94000 20.152
12.96000 18.887
12.98000 11.727
13.00000 0.023
13.02000 0.404
13.04000 11.151
13.06000 18.396
13.08000 14.857
13.10000 1.682
13.12000 -2.343
13.14000 -2.064
13.16000 0.158
13.18000 10.634
13.20000 12.047
13.22000 16.478
13.24000 10.273
13.26000 2.553
13.28000 2.014
13.30000 10.205
13.32000 22.050
13.34000 14.000
13.36000 6.514
13.38000 3.359
13.40000 -3.793
13.42000 -4.459
13.44000 1.582
13.46000 5.655
13.48000 6.208
13.50000 14.036
13.52000 12.047
13.54000 14.688
13.56000 20.382
13.58000 15.009
13.60000 7.717
13.62000 5.681
13.64000 5.850
13.66000 11.081
13.68000 4.457
13.70000 14.518
13.72000 16.063
13.74000 8.160
13.76000 5.301
13.78000 13.853
13.80000 12.630
13.82000 7.062
13.84000 3.980
13.86000 12.776
13.88000 10.347
13.90000 16.441
13.92000 15.582
13.94000 18.271
13.96000 8.015
13.98000 10.025
14.00000 14.454
14.02000 10.623
14.04000 19.268
14.06000 15.883
14.08000 15.817
14.10000 16.978
14.12000 0.979
14.14000 12.215
14.16000 13.583
14.18000 12.730
14.20000 3.181
14.22000 0.444
14.24000 11.849
14.26000 11.504
14.28000 18.348
14.30000 7.779
14.32000 14.655
14.34000 10.028
14.36000 6.458
14.38000 5.965
14.40000 -1.544
14.42000 2.443
14.44000 16.241
14.46000 5.212
14.48000 12.335
14.50000 10.430
14.52000 5.515
14.54000 3.098
14.56000 6.910
14.58000 9.492
14.60000 5.752
14.62000 6.081
14.64000 10.251
14.66000 9.188
14.68000 5.212
14.70000 5.354
14.72000 0.303
14.74000 5.096
14.76000 15.760
14.78000 18.616
14.80000 6.338
14.82000 -3.195
14.84000 3.580
14.86000 17.672
14.88000 18.204
14.90000 -0.835
14.92000 4.426
14.94000 3.771
14.96000 0.794
14.98000 8.152
15.00000 11.501
15.02000 3.604
15.04000 3.666
15.06000 -1.721
15.08000 4.452
15.10000 7.971
15.12000 5.846
15.14000 8.979
15.16000 3.028
15.18000 1.424
15.20000 3.901
15.22000 4.038
15.24000 9.602
15.26000 13.954
15.28000 11.354
15.30000 16.042
15.32000 9.748
15.34000 8.318
15.36000 3.410
15.38000 2.622
15.40000 8.989
15.42000 11.219
15.44000 13.890
15.46000 12.330
15.48000 3.458
15.50000 7.881
15.52000 10.897
15.54000 5.365
15.56000 2.854
15.58000 5.542
15.60000 2.605
15.62000 2.509
15.64000 0.129
15.66000 10.357
15.68000 2.400
15.70000 3.262
15.72000 3.894
15.74000 0.475
15.76000 -4.427
15.78000 5.798
15.80000 6.547
15.82000 6.724
15.84000 2.561
15.86000 0.713
15.88000 4.459
15.90000 6.012
15.92000 7.255
15.94000 10.049
15.96000 9.896
15.98000 5.361
16.00000 7.521
16.02000 5.844
16.04000 5.159
16.06000 7.825
16.08000 7.541
16.10000 0.243
16.12000 1.581
16.14000 5.697
16.16000 1.405
16.18000 5.013
16.20000 11.380
16.22000 5.650
16.24000 -0.136
16.26000 -3.843
16.28000 3.835
16.30000 5.017
16.32000 9.273
16.34000 4.481
16.36000 5.249
16.38000 7.825
16.40000 13.031
16.42000 13.887
16.44000 4.281
16.46000 10.151
16.48000 3.813
16.50000 -3.012
16.52000 0.275
16.54000 5.904
16.56000 0.534
16.58000 4.062
16.60000 5.606
16.62000 2.400
16.64000 6.222
16.66000 14.707
16.68000 9.860
16.70000 1.544
16.72000 3.609
16.74000 5.628
16.76000 7.575
16.78000 -0.134
16.80000 8.354
16.82000 4.295
16.84000 2.588
16.86000 3.388
16.88000 1.953
16.90000 5.885
16.92000 5.403
16.94000 6.098
16.96000 3.593
16.98000 7.140
17.00000 5.066
17.02000 13.951
17.04000 11.997
17.06000 4.649
17.08000 9.204
17.10000 3.396
17.12000 3.883
17.14000 5.526
17.16000 3.489
17.18000 7.281
17.20000 10.358
17.22000 8.921
17.24000 6.510
17.26000 0.439
17.28000 3.155
17.30000 1.400
17.32000 9.396
17.34000 3.570
17.36000 8.022
17.38000 5.078
17.40000 10.786
17.42000 6.243
17.44000 4.424
17.46000 0.053
17.48000 0.731
17.50000 3.364
17.52000 11.665
17.54000 3.811
17.56000 -1.038
17.58000 -2.125
17.60000 -0.880
17.62000 1.003
17.64000 1.560
17.66000 -0.823
17.68000 4.886
17.70000 2.718
17.72000 4.027
17.74000 11.687
17.76000 8.433
17.78000 2.672
17.80000 4.844
17.82000 -2.498
17.84000 -0.566
17.86000 1.031
17.88000 5.972
17.90000 4.913
17.92000 0.876
17.94000 -1.713
17.96000 6.887
17.98000 7.249
18.00000 3.317
18.02000 1.453
18.04000 5.065
18.06000 0.001
18.08000 0.713
18.10000 -4.303
18.12000 0.907
18.14000 10.050
18.16000 7.153
18.18000 0.010
18.20000 4.648
18.22000 4.138
18.24000 10.665
18.26000 11.425
18.28000 11.183
18.30000 18.802
18.32000 10.349
18.34000 0.689
18.36000 -3.004
18.38000 4.714
18.40000 5.137
18.42000 8.108
18.44000 -0.607
18.46000 -1.382
18.48000 -1.325
18.50000 1.679
18.52000 12.117
18.54000 12.315
18.56000 5.467
18.58000 8.087
18.60000 -1.372
18.62000 -1.887
18.64000 0.940
18.66000 10.575
18.68000 7.960
18.70000 5.141
18.72000 8.713
18.74000 6.900
18.76000 8.430
18.78000 9.453
18.80000 7.414
18.82000 8.837
18.84000 7.102
18.86000 5.405
18.88000 5.190
18.90000 10.522
18.92000 0.705
18.94000 0.302
18.96000 7.103
18.98000 3.012
19.00000 5.567
19.02000 2.445
19.04000 1.238
19.06000 6.114
19.08000 7.562
19.10000 9.393
19.12000 1.855
19.14000 2.399
19.16000 4.109
19.18000 3.885
19.20000 2.515
19.22000 2.883
19.24000 5.006
19.26000 5.809
19.28000 10.197
19.30000 5.021
19.32000 4.187
19.34000 8.686
19.36000 10.841
19.38000 10.155
19.40000 9.330
19.42000 6.302
19.44000 5.388
19.46000 -4.241
19.48000 -3.181
19.50000 -0.584
19.52000 0.610
19.54000 1.543
19.56000 3.599
19.58000 2.456
19.60000 1.168
19.62000 1.635
19.64000 0.296
19.66000 0.061
19.68000 0.683
19.70000 6.350
19.72000 5.313
19.74000 2.939
19.76000 4.390
19.78000 3.034
19.80000 8.825
19.82000 6.166
19.84000 1.178
19.86000 9.754
19.88000 1.617
19.90000 0.951
19.92000 10.319
19.94000 6.662
19.96000 6.123
19.98000 6.069
20.00000 1.105
20.02000 0.765
20.04000 5.064
20.06000 7.380
20.08000 2.884
20.10000 -0.104
20.12000 1.857
20.14000 1.350
20.16000 0.997
20.18000 2.349
20.20000 9.858
20.22000 9.831
20.24000 1.648
20.26000 4.663
20.28000 10.641
20.30000 8.624
20.32000 4.997
20.34000 1.287
20.36000 -4.175
20.38000 -0.328
20.40000 -0.928
20.42000 5.394
20.44000 11.412
20.46000 9.539
20.48000 8.551
20.50000 7.121
20.52000 6.732
20.54000 9.569
20.56000 15.934
20.58000 15.031
20.60000 16.176
20.62000 8.526
20.64000 8.592
20.66000 6.294
20.68000 9.482
20.70000 7.934
20.72000 6.295
20.74000 6.084
20.76000 6.486
20.78000 4.006
20.80000 -1.531
20.82000 4.454
20.84000 6.922
20.86000 14.068
20.88000 13.541
20.90000 6.647
20.92000 3.071
20.94000 4.962
20.96000 12.792
20.98000 10.643
21.00000 9.631
21.02000 9.037
21.04000 8.889
21.06000 4.664
21.08000 6.958
21.10000 5.495
21.12000 4.949
21.14000 12.199
21.16000 13.326
21.18000 6.978
21.20000 -4.105
21.22000 -3.392
21.24000 1.926
21.26000 6.352
21.28000 8.717
21.30000 7.463
21.32000 8.186
21.34000 12.006
21.36000 10.221
21.38000 1.779
21.40000 0.353
21.42000 5.853
21.44000 4.139
21.46000 -0.116
21.48000 4.592
21.50000 3.171
21.52000 4.520
21.54000 9.971
21.56000 4.811
21.58000 3.902
21.60000 5.503
21.62000 11.015
21.64000 5.551
21.66000 -0.983
21.68000 3.480
21.70000 6.477
21.72000 3.747
21.74000 2.149
21.76000 -0.292
21.78000 -2.275
21.80000 2.628
21.82000 -1.034
21.84000 0.314
21.86000 2.545
21.88000 1.667
21.90000 1.955
21.92000 3.234
21.94000 1.624
21.96000 4.562
21.98000 5.170
22.00000 6.455
22.02000 12.614
22.04000 12.363
22.06000 15.173
22.08000 7.125
22.10000 3.231
22.12000 4.971
22.14000 10.939
22.16000 16.330
22.18000 7.862
22.20000 2.941
22.22000 3.181
22.24000 2.155
22.26000 2.154
22.28000 1.994
22.30000 3.954
22.32000 3.612
22.34000 5.144
22.36000 9.144
22.38000 4.590
22.40000 10.158
22.42000 6.438
22.44000 -4.072
22.46000 0.897
22.48000 8.043
22.50000 5.874
22.52000 6.056
22.54000 9.858
22.56000 9.292
22.58000 7.018
22.60000 6.717
22.62000 2.479
22.64000 -1.048
22.66000 -1.267
22.68000 4.515
22.70000 4.553
22.72000 7.890
22.74000 7.433
22.76000 8.407
22.78000 2.501
22.80000 7.635
22.82000 8.121
22.84000 5.172
22.86000 6.870
22.88000 6.415
22.90000 6.240
22.92000 5.789
22.94000 0.360
22.96000 -1.947
22.98000 -2.159
23.00000 -2.857
23.02000 3.708
23.04000 1.626
23.06000 1.581
23.08000 4.836
23.10000 1.557
23.12000 2.740
23.14000 6.307
23.16000 5.702
23.18000 5.253
23.20000 9.331
23.22000 3.809
23.24000 3.865
23.26000 6.890
23.28000 9.274
23.30000 6.908
23.32000 4.579
23.34000 -2.627
23.36000 -0.506
23.38000 4.826
23.40000 5.276
23.42000 10.467
23.44000 7.466
23.46000 8.894
23.48000 7.224
23.50000 8.736
23.52000 2.141
23.54000 0.784
23.56000 0.886
23.58000 0.604
23.60000 7.152
23.62000 3.457
23.64000 -0.257
23.66000 6.557
23.68000 6.329
23.70000 11.028
23.72000 4.472
23.74000 2.352
23.76000 5.100
23.78000 3.196
23.80000 -2.206
23.82000 -0.739
23.84000 -2.955
23.86000 -2.324
23.88000 1.994
23.90000 3.306
23.92000 0.553
23.94000 4.726
23.96000 6.826
23.98000 4.122
24.00000 4.689
24.02000 -0.487
24.04000 1.632
24.06000 3.098
24.08000 8.016
24.10000 8.965
24.12000 3.109
24.14000 3.750
24.16000 7.550
24.18000 6.242
24.20000 9.803
24.22000 6.245
24.24000 6.362
24.26000 10.556
24.28000 7.300
24.30000 5.906
24.32000 8.971
24.34000 5.237
24.36000 4.868
24.38000 4.075
24.40000 -2.428
24.42000 0.880
24.44000 -0.451
24.46000 -0.449
24.48000 4.881
24.50000 6.280
24.52000 6.526
24.54000 5.329
24.56000 5.547
24.58000 1.917
24.60000 -3.930
24.62000 -0.407
24.64000 5.975
24.66000 6.591
24.68000 7.547
24.70000 7.279
24.72000 9.462
24.74000 10.927
24.76000 8.321
24.78000 -0.958
24.80000 0.267
24.82000 5.254
24.84000 12.372
24.86000 2.664
24.88000 1.980
24.90000 1.101
24.92000 6.316
24.94000 5.134
24.96000 4.386
24.98000 3.914
25.00000 5.593
25.02000 7.306
25.04000 3.015
25.06000 5.449
25.08000 5.156
25.10000 1.472
25.12000 -0.784
25.14000 1.003
25.16000 -2.375
25.18000 0.503
25.20000 3.590
25.22000 2.002
25.24000 4.257
25.26000 7.560
25.28000 5.111
25.30000 0.550
25.32000 2.036
25.34000 5.361
25.36000 4.689
25.38000 1.429
25.40000 2.889
25.42000 6.517
25.44000 8.582
25.46000 3.147
25.48000 2.560
25.50000 4.331
25.52000 1.067
25.54000 3.668
25.56000 7.009
25.58000 9.751
25.60000 8.918
25.62000 6.288
25.64000 7.162
25.66000 0.170
25.68000 -3.266
25.70000 -3.891
25.72000 -0.098
25.74000 5.476
25.76000 2.807
25.78000 1.305
25.80000 2.345
25.82000 0.315
25.84000 2.347
25.86000 6.373
25.88000 5.213
25.90000 8.918
25.92000 9.109
25.94000 6.270
25.96000 3.051
25.98000 -0.222
26.00000 3.538
26.02000 3.358
26.04000 7.394
26.06000 7.310
26.08000 -0.462
26.10000 1.883
26.12000 4.644
26.14000 6.746
26.16000 3.541
26.18000 -0.767
26.20000 -1.893
26.22000 3.039
26.24000 1.551
26.26000 -1.006
26.28000 -1.880
26.30000 4.058
26.32000 2.734
26.34000 1.383
26.36000 1.900
26.38000 1.601
26.40000 5.950
26.42000 11.405
26.44000 5.510
26.46000 3.583
26.48000 1.921
26.50000 3.522
26.52000 3.496
26.54000 4.563
26.56000 6.523
26.58000 8.077
26.60000 3.174
26.62000 -1.877
26.64000 4.786
26.66000 8.441
26.68000 6.977
26.70000 2.058
26.72000 3.880
26.74000 0.061
26.76000 2.865
26.78000 0.414
26.80000 2.518
26.82000 7.031
26.84000 8.321
26.86000 5.313
26.88000 9.292
26.90000 7.792
26.92000 -2.988
26.94000 -0.325
26.96000 2.170
26.98000 6.142
27.00000 6.923
27.02000 2.388
27.04000 2.018
27.06000 3.862
27.08000 6.216
27.10000 8.103
27.12000 5.060
27.14000 5.255
27.16000 6.378
27.18000 7.838
27.20000 6.846
27.22000 8.276
27.24000 2.372
27.26000 -3.786
27.28000 1.859
27.30000 5.635
27.32000 4.236
27.34000 0.615
27.36000 -3.785
27.38000 -1.296
27.40000 5.599
27.42000 7.619
27.44000 7.562
27.46000 3.911
27.48000 3.968
27.50000 5.141
27.52000 5.768
27.54000 3.137
27.56000 3.098
27.58000 6.168
27.60000 6.500
27.62000 4.710
27.64000 5.077
27.66000 8.309
27.68000 2.675
27.70000 -0.434
27.72000 0.797
27.74000 1.519
27.76000 5.893
27.78000 3.267
27.80000 3.596
27.82000 2.616
27.84000 1.598
27.86000 2.131
27.88000 1.735
27.90000 5.170
27.92000 6.457
27.94000 -0.115
27.96000 -3.728
27.98000 1.535
28.00000 7.787
28.02000 5.302
28.04000 0.158
28.06000 5.663
28.08000 2.243
28.10000 4.018
28.12000 3.399
28.14000 -0.247
28.16000 3.475
28.18000 3.712
28.20000 1.942
28.22000 4.468
28.24000 9.613
28.26000 11.137
28.28000 8.501
28.30000 7.542
28.32000 0.527
28.34000 -0.147
28.36000 8.009
28.38000 1.668
28.40000 2.007
28.42000 7.118
28.44000 11.040
28.46000 14.333
28.48000 4.611
28.50000 0.075
28.52000 1.751
28.54000 1.269
28.56000 3.366
28.58000 4.118
28.60000 2.984
28.62000 2.282
28.64000 -1.066
28.66000 -3.729
28.68000 -0.132
28.70000 3.502
28.72000 7.383
28.74000 5.051
28.76000 6.106
28.78000 3.139
28.80000 3.132
28.82000 4.826
28.84000 1.539
28.86000 4.119
28.88000 9.311
28.90000 4.873
28.92000 5.005
28.94000 6.194
28.96000 4.724
28.98000 4.507
29.00000 3.670
29.02000 0.451
29.04000 2.042
29.06000 4.683
29.08000 4.854
29.10000 6.374
29.12000 5.513
29.14000 0.072
29.16000 2.004
29.18000 1.682
29.20000 7.320
29.22000 7.623
29.24000 4.394
29.26000 3.960
29.28000 1.871
29.30000 -2.017
29.32000 -3.692
29.34000 -3.430
29.36000 -1.229
29.38000 3.046
29.40000 9.565
29.42000 8.118
29.44000 3.884
29.46000 3.576
29.48000 0.871
29.50000 0.503
29.52000 3.901
29.54000 6.810
29.56000 9.464
29.58000 7.006
29.60000 2.607
29.62000 3.278
29.64000 5.609
29.66000 1.854
29.68000 -0.585
29.70000 -1.020
29.72000 -1.949
29.74000 0.397
29.76000 4.057
29.78000 -1.534
29.80000 1.527
29.82000 8.350
29.84000 11.074
29.86000 8.788
29.88000 0.742
29.90000 -3.146
29.92000 -0.913
29.94000 2.722
29.96000 3.423
29.98000 4.374
30.00000 -1.819
30.02000 -1.169
30.04000 -3.056
30.06000 -3.683
30.08000 -2.676
30.10000 -1.450
30.12000 -0.169
30.14000 0.579
30.16000 -2.964
30.18000 4.009
30.20000 7.696
30.22000 0.663
30.24000 3.155
30.26000 -0.878
30.28000 -3.327
30.30000 -1.862
30.32000 -0.260
30.34000 0.251
30.36000 -2.281
30.38000 -1.867
30.40000 2.404
30.42000 6.625
30.44000 6.991
30.46000 4.972
30.48000 4.479
30.50000 4.114
30.52000 0.537
30.54000 3.293
30.56000 0.226
30.58000 8.103
30.60000 6.174
30.62000 4.333
30.64000 3.265
30.66000 1.209
30.68000 0.955
30.70000 -0.872
30.72000 4.107
30.74000 3.771
30.76000 2.165
30.78000 3.035
30.80000 -0.904
30.82000 -0.558
30.84000 -0.988
30.86000 1.262
30.88000 2.824
30.90000 -0.936
30.92000 -3.636
30.94000 -2.881
30.96000 -2.615
30.98000 0.874
31.00000 1.282
31.02000 2.573
31.04000 5.831
31.06000 5.273
31.08000 3.000
31.10000 5.776
31.12000 2.690
31.14000 3.120
31.16000 -1.134
31.18000 1.169
31.20000 4.732
31.22000 1.856
31.24000 2.676
31.26000 5.031
31.28000 0.823
31.30000 3.227
31.32000 2.197
31.34000 3.019
31.36000 6.051
31.38000 -0.630
31.40000 -2.471
31.42000 3.044
31.44000 2.612
31.46000 6.163
31.48000 7.570
31.50000 2.150
31.52000 5.614
31.54000 3.827
31.56000 7.079
31.58000 6.894
31.60000 9.340
31.62000 3.817
31.64000 1.122
31.66000 4.406
31.68000 0.352
31.70000 7.165
31.72000 8.529
31.74000 12.154
31.76000 14.693
31.78000 10.518
31.80000 -0.413
31.82000 5.053
31.84000 5.786
31.86000 4.562
31.88000 5.600
31.90000 2.520
31.92000 7.873
31.94000 9.724
31.96000 7.458
31.98000 9.984
32.00000 8.009
32.02000 7.573
32.04000 0.125
32.06000 -3.532
32.08000 0.437
32.10000 5.265
32.12000 2.657
32.14000 1.564
32.16000 2.060
32.18000 3.258
32.20000 1.652
32.22000 6.899
32.24000 9.942
32.26000 8.172
32.28000 8.768
32.30000 7.014
32.32000 4.135
32.34000 2.341
32.36000 3.359
32.38000 1.594
32.40000 2.719
32.42000 4.684
32.44000 12.567
32.46000 7.742
32.48000 3.181
32.50000 6.897
32.52000 0.372
32.54000 1.981
32.56000 5.570
32.58000 5.252
32.60000 0.866
32.62000 4.240
32.64000 5.219
32.66000 -3.072
32.68000 1.975
32.70000 3.358
32.72000 2.455
32.74000 3.457
32.76000 5.916
32.78000 4.058
32.80000 3.479
32.82000 1.235
32.84000 2.977
32.86000 3.074
32.88000 4.028
32.90000 3.384
32.92000 4.256
32.94000 2.896
32.96000 5.245
32.98000 1.029
33.00000 -1.267
33.02000 2.936
33.04000 6.505
33.06000 -3.555
33.08000 -1.625
33.10000 0.638
33.12000 1.413
33.14000 3.827
33.16000 -1.409
33.18000 6.033
33.20000 10.608
33.22000 4.388
33.24000 0.979
33.26000 5.607
33.28000 2.120
33.30000 1.369
33.32000 -0.335
33.34000 -0.962
33.36000 1.122
33.38000 4.321
33.40000 -0.332
33.42000 2.414
33.44000 4.771
33.46000 -0.884
33.48000 1.965
33.50000 2.796
33.52000 1.344
33.54000 0.737
33.56000 -0.672
33.58000 -0.059
33.60000 1.946
33.62000 -0.571
33.64000 1.605
33.66000 1.619
33.68000 1.880
33.70000 5.403
33.72000 6.021
33.74000 -0.269
33.76000 -1.767
33.78000 1.345
33.80000 -0.825
33.82000 0.245
33.84000 -2.836
33.86000 -0.724
33.88000 0.347
33.90000 -2.192
33.92000 -3.540
33.94000 -1.224
33.96000 5.793
33.98000 4.801
34.00000 3.725
34.02000 0.241
34.04000 3.693
34.06000 0.224
34.08000 1.266
34.10000 1.695
34.12000 0.502
34.14000 -3.310
34.16000 -0.056
34.18000 1.849
34.20000 0.592
34.22000 1.389
34.24000 1.988
34.26000 4.581
34.28000 4.021
34.30000 1.767
34.32000 -0.861
34.34000 2.739
34.36000 1.148
34.38000 2.267
34.40000 0.247
34.42000 -0.543
34.44000 2.711
34.46000 3.576
34.48000 4.618
34.50000 7.549
34.52000 6.078
34.54000 2.208
34.56000 4.668
34.58000 4.338
34.60000 2.152
34.62000 -0.302
34.64000 -0.029
34.66000 0.461
34.68000 7.810
34.70000 3.611
34.72000 -1.195
34.74000 -1.980
34.76000 -2.006
34.78000 -2.673
34.80000 -3.194
34.82000 1.023
34.84000 6.644
34.86000 3.610
34.88000 -2.006
34.90000 0.250
34.92000 2.122
34.94000 4.407
34.96000 -1.552
34.98000 2.514
35.00000 0.475
35.02000 2.507
35.04000 4.477
35.06000 7.107
35.08000 4.362
35.10000 1.493
35.12000 0.164
35.14000 -0.270
35.16000 5.781
35.18000 -1.545
35.20000 2.457
35.22000 0.964
35.24000 2.384
35.26000 2.128
35.28000 1.950
35.30000 0.349
35.32000 2.680
35.34000 2.636
35.36000 -3.481
35.38000 -1.002
35.40000 5.433
35.42000 6.254
35.44000 5.643
35.46000 3.420
35.48000 -0.142
35.50000 2.891
35.52000 4.409
35.54000 4.044
35.56000 0.871
35.58000 3.777
35.60000 7.176
35.62000 11.604
35.64000 2.599
35.66000 0.445
35.68000 1.312
35.70000 -0.569
35.72000 1.740
35.74000 7.921
35.76000 8.436
35.78000 0.995
35.80000 -0.267
35.82000 2.228
35.84000 7.469
35.86000 6.734
35.88000 5.177
35.90000 3.793
35.92000 5.491
35.94000 4.148
35.96000 2.026
35.98000 1.942
36.00000 3.294
36.02000 1.001
36.04000 -2.215
36.06000 -0.933
36.08000 0.418
36.10000 1.153
36.12000 2.841
36.14000 -0.033
36.16000 -2.142
36.18000 1.439
36.20000 2.294
36.22000 1.337
36.24000 -1.781
36.26000 1.377
36.28000 5.862
36.30000 4.991
36.32000 3.517
36.34000 4.472
36.36000 6.912
36.38000 5.738
36.40000 -0.315
36.42000 -0.689
36.44000 7.110
36.46000 1.062
36.48000 -1.636
36.50000 0.497
36.52000 -3.510
36.54000 0.683
36.56000 1.958
36.58000 1.497
36.60000 1.380
36.62000 1.163
36.64000 2.071
36.66000 2.471
36.68000 2.278
36.70000 -3.144
36.72000 -3.258
36.74000 0.778
36.76000 -0.367
36.78000 0.433
36.80000 0.761
36.82000 -3.519
36.84000 -3.220
36.86000 2.153
36.88000 5.120
36.90000 5.553
36.92000 3.775
36.94000 2.727
36.96000 3.035
36.98000 -0.117
37.00000 2.186
37.02000 2.715
37.04000 1.016
37.06000 0.317
37.08000 1.400
37.10000 2.987
37.12000 4.482
37.14000 3.288
37.16000 3.152
37.18000 5.272
37.20000 7.315
37.22000 7.421
37.24000 6.449
37.26000 3.964
37.28000 5.204
37.30000 1.718
37.32000 -0.064
37.34000 0.678
37.36000 -2.200
37.38000 -3.556
37.40000 -2.356
37.42000 0.481
37.44000 3.274
37.46000 0.730
37.48000 -2.064
37.50000 2.059
37.52000 2.369
37.54000 3.014
37.56000 4.650
37.58000 1.705
37.60000 4.392
37.62000 3.386
37.64000 3.482
37.66000 -0.169
37.68000 4.038
37.70000 5.282
37.72000 4.868
37.74000 2.928
37.76000 -0.128
37.78000 0.493
37.80000 3.070
37.82000 4.458
37.84000 4.607
37.86000 2.746
37.88000 0.044
37.90000 -0.248
37.92000 7.311
37.94000 9.254
37.96000 11.417
37.98000 5.143
38.00000 7.138
38.02000 9.829
38.04000 15.225
38.06000 16.003
38.08000 9.021
38.10000 12.773
38.12000 11.204
38.14000 9.977
38.16000 9.417
38.18000 4.621
38.20000 8.125
38.22000 10.221
38.24000 9.408
38.26000 15.835
38.28000 20.491
38.30000 19.915
38.32000 15.257
38.34000 17.905
38.36000 19.638
38.38000 18.145
38.40000 18.871
38.42000 17.484
38.44000 21.362
38.46000 16.848
38.48000 16.631
38.50000 18.304
38.52000 19.139
38.54000 21.807
38.56000 20.348
38.58000 23.009
38.60000 29.716
38.62000 25.244
38.64000 23.833
38.66000 24.304
38.68000 26.735
38.70000 28.311
38.72000 30.550
38.74000 33.448
38.76000 31.018
38.78000 29.530
38.80000 29.819
38.82000 24.759
38.84000 29.510
38.86000 34.360
38.88000 35.436
38.90000 34.294
38.92000 31.647
38.94000 31.058
38.96000 33.282
38.98000 41.764
39.00000 41.039
39.02000 44.218
39.04000 44.653
39.06000 39.626
39.08000 45.706
39.10000 52.834
39.12000 55.347
39.14000 55.348
39.16000 57.908
39.18000 56.224
39.20000 62.873
39.22000 61.199
39.24000 63.739
39.26000 66.636
39.28000 68.199
39.30000 69.593
39.32000 74.167
39.34000 76.915
39.36000 76.426
39.38000 85.534
39.40000 89.845
39.42000 90.531
39.44000 99.339
39.46000 106.866
39.48000 108.900
39.50000 110.366
39.52000 116.641
39.54000 121.603
39.56000 128.900
39.58000 138.730
39.60000 151.764
39.62000 152.930
39.64000 167.165
39.66000 180.428
39.68000 188.262
39.70000 201.849
39.72000 212.034
39.74000 221.673
39.76000 226.769
39.78000 244.481
39.80000 258.780
39.82000 278.664
39.84000 299.298
39.86000 316.967
39.88000 330.426
39.90000 357.038
39.92000 378.098
39.94000 404.853
39.96000 425.247
39.98000 450.116
40.00000 472.405
40.02000 497.486
40.04000 533.600
40.06000 562.726
40.08000 587.165
40.10000 621.711
40.12000 645.527
40.14000 664.505
40.16000 702.330
40.18000 733.133
40.20000 761.137
40.22000 779.301
40.24000 811.621
40.26000 831.276
40.28000 836.512
40.30000 851.766
40.32000 857.649
40.34000 862.550
40.36000 869.124
40.38000 864.276
40.40000 856.973
40.42000 851.894
40.44000 853.440
40.46000 848.506
40.48000 835.933
40.50000 814.084
40.52000 798.441
40.54000 789.132
40.56000 768.476
40.58000 744.309
40.60000 707.484
40.62000 687.018
40.64000 662.014
40.66000 646.642
40.68000 616.375
40.70000 591.132
40.72000 557.914
40.74000 543.038
40.76000 513.187
40.78000 487.666
40.80000 467.425
40.82000 446.781
40.84000 421.671
40.86000 395.891
40.88000 378.420
40.90000 361.825
40.92000 342.121
40.94000 324.422
40.96000 295.353
40.98000 279.800
41.00000 267.959
41.02000 259.240
41.04000 249.103
41.06000 229.332
41.08000 215.535
41.10000 204.106
41.12000 187.787
41.14000 174.194
41.16000 163.529
41.18000 153.095
41.20000 150.593
41.22000 142.870
41.24000 132.895
41.26000 124.963
41.28000 120.783
41.30000 113.929
41.32000 107.639
41.34000 106.187
41.36000 101.746
41.38000 98.357
41.40000 91.222
41.42000 84.651
41.44000 79.477
41.46000 74.023
41.48000 73.745
41.50000 69.691
41.52000 65.407
41.54000 62.361
41.56000 57.255
41.58000 57.024
41.60000 53.958
41.62000 53.585
41.64000 49.813
41.66000 48.522
41.68000 43.575
41.70000 38.401
41.72000 44.390
41.74000 45.105
41.76000 36.498
41.78000 32.254
41.80000 31.569
41.82000 27.175
41.84000 29.683
41.86000 26.051
41.88000 24.819
41.90000 25.994
41.92000 20.237
41.94000 20.420
41.96000 19.554
41.98000 22.546
42.00000 22.675
42.02000 19.149
42.04000 18.899
42.06000 17.621
42.08000 17.105
42.10000 15.270
42.12000 14.625
42.14000 16.592
42.16000 15.475
42.18000 13.858
42.20000 13.115
42.22000 12.977
42.24000 12.064
42.26000 10.173
42.28000 11.272
42.30000 10.771
42.32000 7.064
42.34000 6.559
42.36000 13.860
42.38000 11.033
42.40000 11.079
42.42000 10.185
42.44000 7.153
42.46000 7.501
42.48000 8.577
42.50000 6.559
42.52000 4.397
42.54000 4.534
42.56000 6.236
42.58000 4.006
42.60000 2.931
42.62000 7.999
42.64000 2.009
42.66000 2.499
42.68000 5.002
42.70000 7.024
42.72000 5.714
42.74000 5.859
42.76000 6.604
42.78000 5.381
42.80000 6.085
42.82000 2.681
42.84000 -1.025
42.86000 -1.670
42.88000 1.056
42.90000 0.910
42.92000 1.219
42.94000 1.626
42.96000 1.528
42.98000 2.347
43.00000 -1.042
43.02000 1.014
43.04000 -1.560
43.06000 -3.489
43.08000 -0.718
43.10000 4.460
43.12000 3.535
43.14000 3.192
43.16000 2.889
43.18000 0.864
43.20000 -0.884
43.22000 -1.653
43.24000 -0.782
43.26000 -1.712
43.28000 2.319
43.30000 2.655
43.32000 0.841
43.34000 0.023
43.36000 0.445
43.38000 -0.655
43.40000 -0.249
43.42000 -1.675
43.44000 -0.079
43.46000 2.075
43.48000 -0.084
43.50000 -0.625
43.52000 -1.850
43.54000 -2.243
43.56000 -0.527
43.58000 2.265
43.60000 -1.017
43.62000 -0.075
43.64000 1.030
43.66000 3.035
43.68000 -2.588
43.70000 -0.042
43.72000 -1.726
43.74000 1.354
43.76000 0.773
43.78000 -1.239
43.80000 0.550
43.82000 1.499
43.84000 3.934
43.86000 1.156
43.88000 2.871
43.90000 4.874
43.92000 -0.412
43.94000 -3.354
43.96000 -0.885
43.98000 -0.942
44.00000 2.149
44.02000 -0.984
44.04000 -0.981
44.06000 1.649
44.08000 0.374
44.10000 2.681
44.12000 -0.282
44.14000 1.075
44.16000 2.980
44.18000 1.136
44.20000 2.467
44.22000 1.328
44.24000 1.184
44.26000 4.738
44.28000 0.842
44.30000 1.180
44.32000 1.644
44.34000 2.213
44.36000 0.442
44.38000 -0.872
44.40000 0.285
44.42000 0.151
44.44000 2.494
44.46000 0.774
44.48000 1.663
44.50000 1.764
44.52000 -3.325
44.54000 0.403
44.56000 -1.823
44.58000 1.216
44.60000 4.365
44.62000 6.038
44.64000 5.862
44.66000 5.021
44.68000 -0.079
44.70000 -1.841
44.72000 -1.557
44.74000 -0.589
44.76000 -1.723
44.78000 0.919
44.80000 -2.726
44.82000 2.099
44.84000 2.074
44.86000 -2.136
44.88000 1.411
44.90000 3.353
44.92000 1.101
44.94000 0.806
44.96000 -1.331
44.98000 1.573
45.00000 0.833
45.02000 1.296
45.04000 2.847
45.06000 9.703
45.08000 9.047
45.10000 1.113
45.12000 1.843
45.14000 1.496
45.16000 3.050
45.18000 3.458
45.20000 3.666
45.22000 2.888
45.24000 -1.648
45.26000 0.807
45.28000 0.675
45.30000 3.749
45.32000 0.286
45.34000 3.153
45.36000 4.210
45.38000 5.443
45.40000 8.822
45.42000 7.866
45.44000 6.100
45.46000 2.491
45.48000 0.899
45.50000 2.832
45.52000 7.277
45.54000 7.239
45.56000 8.737
45.58000 9.359
45.60000 9.581
45.62000 9.027
45.64000 11.526
45.66000 10.078
45.68000 16.939
45.70000 15.793
45.72000 19.637
45.74000 22.414
45.76000 23.477
45.78000 19.585
45.80000 18.592
45.82000 16.529
45.84000 17.955
45.86000 20.670
45.88000 19.038
45.90000 26.299
45.92000 30.340
45.94000 29.451
45.96000 26.171
45.98000 29.107
46.00000 35.259
46.02000 33.419
46.04000 29.708
46.06000 30.189
46.08000 35.566
46.10000 41.882
46.12000 39.643
46.14000 44.246
46.16000 38.381
46.18000 41.929
46.20000 44.068
46.22000 48.378
46.24000 51.948
46.26000 56.335
46.28000 56.363
46.30000 60.046
46.32000 66.447
46.34000 69.379
46.36000 73.751
46.38000 74.387
46.40000 76.582
46.42000 69.859
46.44000 72.867
46.46000 83.115
46.48000 91.746
46.50000 95.108
46.52000 92.935
46.54000 92.136
46.56000 99.447
46.58000 101.725
46.60000 108.480
46.62000 113.801
46.64000 116.828
46.66000 117.956
46.68000 121.026
46.70000 124.912
46.72000 131.359
46.74000 135.459
46.76000 138.078
46.78000 140.415
46.80000 139.782
46.82000 143.841
46.84000 146.158
46.86000 149.923
46.88000 152.825
46.90000 156.125
46.92000 159.313
46.94000 158.489
46.96000 159.208
46.98000 165.846
47.00000 164.540
47.02000 168.100
47.04000 161.523
47.06000 163.810
47.08000 158.497
47.10000 156.406
47.12000 157.404
47.14000 150.775
47.16000 153.908
47.18000 149.980
47.20000 142.833
47.22000 145.010
47.24000 137.230
47.26000 121.712
47.28000 117.637
47.30000 117.868
47.32000 119.632
47.34000 118.192
47.36000 115.540
47.38000 112.186
47.40000 104.766
47.42000 96.121
47.44000 90.205
47.46000 88.233
47.48000 82.622
47.50000 83.103
47.52000 75.838
47.54000 78.495
47.56000 78.047
47.58000 75.758
47.60000 67.102
47.62000 65.115
47.64000 60.390
47.66000 58.020
47.68000 50.766
47.70000 48.126
47.72000 49.078
47.74000 45.496
47.76000 45.134
47.78000 48.196
47.80000 43.251
47.82000 40.938
47.84000 31.940
47.86000 27.281
47.88000 30.041
47.90000 29.226
47.92000 25.513
47.94000 23.105
47.96000 21.326
47.98000 23.570
48.00000 17.480
48.02000 15.239
48.04000 17.468
48.06000 18.380
48.08000 18.041
48.10000 19.749
48.12000 17.724
48.14000 15.416
48.16000 11.011
48.18000 10.903
48.20000 10.710
48.22000 8.420
48.24000 15.738
48.26000 15.418
48.28000 10.312
48.30000 6.639
48.32000 7.561
48.34000 6.582
48.36000 10.112
48.38000 9.343
48.40000 8.172
48.42000 8.102
48.44000 11.785
48.46000 9.634
48.48000 1.262
48.50000 5.296
48.52000 6.847
48.54000 8.434
48.56000 8.634
48.58000 6.539
48.60000 4.895
48.62000 5.710
48.64000 3.038
48.66000 4.572
48.68000 3.319
48.70000 -0.908
48.72000 2.258
48.74000 5.155
48.76000 1.994
48.78000 4.166
48.80000 0.596
48.82000 0.492
48.84000 -2.890
48.86000 -0.846
48.88000 4.714
48.90000 6.179
48.92000 7.769
48.94000 4.114
48.96000 -2.140
48.98000 -0.280
49.00000 3.599
49.02000 5.757
49.04000 5.744
49.06000 2.008
49.08000 1.541
49.10000 4.917
49.12000 2.524
49.14000 0.730
49.16000 1.613
49.18000 0.311
49.20000 2.862
49.22000 2.970
49.24000 -1.846
49.26000 -1.504
49.28000 3.621
49.30000 1.663
49.32000 1.470
49.34000 0.845
49.36000 -0.953
49.38000 0.210
49.40000 3.909
49.42000 1.905
49.44000 0.083
49.46000 -0.385
49.48000 0.472
49.50000 2.629
49.52000 -1.258
49.54000 -1.903
49.56000 3.301
49.58000 2.824
49.60000 3.237
49.62000 -2.770
49.64000 -1.934
49.66000 1.894
49.68000 4.614
49.70000 2.572
49.72000 2.819
49.74000 1.425
49.76000 4.231
49.78000 5.768
49.80000 4.209
49.82000 1.678
49.84000 4.045
49.86000 1.670
49.88000 3.334
49.90000 3.163
49.92000 5.343
49.94000 4.690
49.96000 3.222
49.98000 0.236
50.00000 4.608
50.02000 4.901
50.04000 2.722
50.06000 8.395
50.08000 9.410
50.10000 5.101
50.12000 0.285
50.14000 0.197
50.16000 -1.506
50.18000 -2.688
50.20000 -2.354
50.22000 2.016
50.24000 2.080
50.26000 5.429
50.28000 3.280
50.30000 5.325
50.32000 3.483
50.34000 0.070
50.36000 4.894
50.38000 3.510
50.40000 6.644
50.42000 1.584
50.44000 -0.961
50.46000 1.433
50.48000 2.089
50.50000 5.635
50.52000 4.393
50.54000 4.246
50.56000 6.146
50.58000 5.878
50.60000 7.851
50.62000 2.034
50.64000 0.440
50.66000 0.615
50.68000 -0.061
50.70000 -1.379
50.72000 2.368
50.74000 3.646
50.76000 3.376
50.78000 3.058
50.80000 -2.652
50.82000 -2.423
50.84000 -0.147
50.86000 1.739
50.88000 -0.213
50.90000 0.256
50.92000 0.181
50.94000 3.564
50.96000 7.591
50.98000 4.334
51.00000 2.214
51.02000 -1.151
51.04000 2.761
51.06000 0.229
51.08000 3.395
51.10000 1.345
51.12000 3.822
51.14000 6.322
51.16000 3.011
51.18000 1.511
51.20000 4.714
51.22000 5.193
51.24000 4.457
51.26000 1.994
51.28000 -1.780
51.30000 -1.323
51.32000 2.646
51.34000 4.775
51.36000 3.234
51.38000 -1.047
51.40000 -0.838
51.42000 5.192
51.44000 3.029
51.46000 1.387
51.48000 2.926
51.50000 5.120
51.52000 1.598
51.54000 1.846
51.56000 1.908
51.58000 -0.033
51.60000 0.675
51.62000 -0.961
51.64000 -2.642
51.66000 3.247
51.68000 5.795
51.70000 4.269
51.72000 1.532
51.74000 -1.528
51.76000 1.475
51.78000 0.608
51.80000 1.751
51.82000 2.673
51.84000 5.709
51.86000 3.722
51.88000 3.288
51.90000 4.918
51.92000 5.140
51.94000 3.357
51.96000 1.177
51.98000 -1.194
52.00000 2.688
52.02000 4.313
52.04000 5.210
52.06000 2.021
52.08000 1.767
52.10000 2.769
52.12000 -1.776
52.14000 2.334
52.16000 4.641
52.18000 1.807
52.20000 2.725
52.22000 1.858
52.24000 0.046
52.26000 3.476
52.28000 2.494
52.30000 -2.359
52.32000 -2.616
52.34000 -1.809
52.36000 3.200
52.38000 2.292
52.40000 1.083
52.42000 -0.227
52.44000 -0.211
52.46000 -2.461
52.48000 0.515
52.50000 1.633
52.52000 -0.046
52.54000 -1.307
52.56000 3.122
52.58000 5.139
52.60000 3.212
52.62000 3.699
52.64000 1.278
52.66000 1.855
52.68000 4.864
52.70000 2.817
52.72000 4.013
52.74000 5.212
52.76000 3.086
52.78000 0.252
52.80000 4.192
52.82000 2.378
52.84000 -0.142
52.86000 -2.534
52.88000 2.247
52.90000 -2.240
52.92000 -2.590
52.94000 1.580
52.96000 4.633
52.98000 7.345
53.00000 4.589
53.02000 2.570
53.04000 0.055
53.06000 -2.584
53.08000 2.832
53.10000 0.494
53.12000 0.656
53.14000 0.975
53.16000 3.136
53.18000 4.670
53.20000 7.354
53.22000 -0.636
53.24000 -0.147
53.26000 -0.025
53.28000 0.200
53.30000 -1.294
53.32000 1.805
53.34000 0.498
53.36000 1.444
53.38000 6.511
53.40000 6.441
53.42000 3.244
53.44000 0.234
53.46000 0.334
53.48000 -0.546
53.50000 -2.000
53.52000 2.324
53.54000 3.206
53.56000 0.636
53.58000 2.293
53.60000 2.562
53.62000 2.728
53.64000 1.148
53.66000 1.538
53.68000 -0.038
53.70000 2.237
53.72000 0.567
53.74000 0.409
53.76000 0.166
53.78000 -0.699
53.80000 2.200
53.82000 3.563
53.84000 -2.577
53.86000 1.340
53.88000 2.306
53.90000 3.583
53.92000 5.418
53.94000 5.420
53.96000 1.390
53.98000 1.890
54.00000 1.656
54.02000 3.988
54.04000 4.679
54.06000 2.293
54.08000 -2.215
54.10000 0.412
54.12000 3.501
54.14000 1.759
54.16000 6.294
54.18000 1.249
54.20000 4.272
54.22000 6.630
54.24000 -1.366
54.26000 -1.221
54.28000 1.040
54.30000 -0.612
54.32000 2.139
54.34000 2.288
54.36000 3.138
54.38000 1.927
54.40000 0.417
54.42000 3.398
54.44000 4.049
54.46000 2.373
54.48000 -0.601
54.50000 0.656
54.52000 0.725
54.54000 0.154
54.56000 -0.747
54.58000 -2.547
54.60000 1.293
54.62000 -0.426
54.64000 2.269
54.66000 3.208
54.68000 2.186
54.70000 -0.119
54.72000 0.460
54.74000 0.574
54.76000 1.569
54.78000 1.629
54.80000 2.832
54.82000 1.511
54.84000 2.561
54.86000 0.020
54.88000 1.704
54.90000 2.723
54.92000 6.463
54.94000 0.495
54.96000 -2.517
54.98000 3.398
55.00000 4.357
55.02000 5.583
55.04000 5.619
55.06000 4.611
55.08000 2.685
55.10000 1.688
55.12000 0.642
55.14000 3.062
55.16000 2.367
55.18000 1.379
55.20000 -1.031
55.22000 1.646
55.24000 5.422
55.26000 4.949
55.28000 5.490
55.30000 -0.830
55.32000 0.024
55.34000 -0.934
55.36000 -0.089
55.38000 0.115
55.40000 2.470
55.42000 7.387
55.44000 8.181
55.46000 4.367
55.48000 5.353
55.50000 7.001
55.52000 3.134
55.54000 3.609
55.56000 7.647
55.58000 3.195
55.60000 1.741
55.62000 2.754
55.64000 5.025
55.66000 3.540
55.68000 0.750
55.70000 0.348
55.72000 1.971
55.74000 0.254
55.76000 1.942
55.78000 1.922
55.80000 3.532
55.82000 0.343
55.84000 2.510
55.86000 1.890
55.88000 3.267
55.90000 3.738
55.92000 1.376
55.94000 2.034
55.96000 2.766
55.98000 -0.719
56.00000 0.717
56.02000 1.156
56.04000 3.832
56.06000 2.895
56.08000 3.466
56.10000 3.576
56.12000 1.513
56.14000 4.322
56.16000 0.823
56.18000 -2.479
56.20000 -0.961
56.22000 4.862
56.24000 5.050
56.26000 7.080
56.28000 7.131
56.30000 6.504
56.32000 5.548
56.34000 4.695
56.36000 2.395
56.38000 1.051
56.40000 0.532
56.42000 0.335
56.44000 1.541
56.46000 7.933
56.48000 7.402
56.50000 5.155
56.52000 3.390
56.54000 3.775
56.56000 3.562
56.58000 2.694
56.60000 2.834
56.62000 1.749
56.64000 2.973
56.66000 -0.461
56.68000 3.221
56.70000 5.220
56.72000 3.432
56.74000 6.844
56.76000 7.505
56.78000 3.836
56.80000 3.796
56.82000 2.075
56.84000 4.475
56.86000 5.737
56.88000 3.503
56.90000 2.411
56.92000 2.510
56.94000 4.064
56.96000 6.894
56.98000 2.639
57.00000 2.484
57.02000 5.145
57.04000 3.544
57.06000 -0.680
57.08000 -2.462
57.10000 1.804
57.12000 4.197
57.14000 2.213
57.16000 5.499
57.18000 -1.044
57.20000 1.758
57.22000 2.905
57.24000 1.679
57.26000 4.500
57.28000 1.730
57.30000 3.121
57.32000 7.566
57.34000 7.901
57.36000 4.955
57.38000 1.142
57.40000 -0.845
57.42000 -0.208
57.44000 -2.403
57.46000 -0.026
57.48000 0.627
57.50000 1.925
57.52000 7.917
57.54000 7.991
57.56000 3.239
57.58000 1.157
57.60000 2.984
57.62000 5.732
57.64000 3.253
57.66000 5.139
57.68000 1.974
57.70000 0.301
57.72000 -0.236
57.74000 0.690
57.76000 3.887
57.78000 1.364
57.80000 2.234
57.82000 3.374
57.84000 3.053
57.86000 6.034
57.88000 4.159
57.90000 4.766
57.92000 3.126
57.94000 1.940
57.96000 2.109
57.98000 0.514
58.00000 3.770
58.02000 4.207
58.04000 5.863
58.06000 2.803
58.08000 -0.617
58.10000 1.311
58.12000 5.766
58.14000 1.792
58.16000 -0.236
58.18000 1.999
58.20000 -0.630
58.22000 1.987
58.24000 2.004
58.26000 1.789
58.28000 0.003
58.30000 1.734
58.32000 4.161
58.34000 7.069
58.36000 5.200
58.38000 -2.389
58.40000 0.328
58.42000 5.752
58.44000 7.002
58.46000 9.008
58.48000 7.025
58.50000 5.677
58.52000 6.290
58.54000 7.659
58.56000 3.346
58.58000 6.028
58.60000 4.390
58.62000 2.571
58.64000 1.802
58.66000 3.852
58.68000 3.416
58.70000 2.239
58.72000 1.432
58.74000 2.039
58.76000 3.755
58.78000 3.573
58.80000 4.083
58.82000 2.504
58.84000 1.630
58.86000 2.007
58.88000 2.576
58.90000 4.673
58.92000 3.072
58.94000 5.491
58.96000 4.957
58.98000 7.628
59.00000 4.627
59.02000 2.469
59.04000 4.671
59.06000 4.993
59.08000 5.434
59.10000 5.586
59.12000 0.173
59.14000 1.138
59.16000 4.167
59.18000 3.463
59.20000 -0.170
59.22000 1.954
59.24000 1.099
59.26000 2.166
59.28000 1.498
59.30000 2.803
59.32000 0.143
59.34000 0.997
59.36000 -1.109
59.38000 2.440
59.40000 -0.028
59.42000 1.839
59.44000 6.225
59.46000 3.116
59.48000 3.725
59.50000 4.929
59.52000 4.178
59.54000 0.799
59.56000 2.603
59.58000 0.296
59.60000 -0.653
59.62000 0.174
59.64000 -0.575
59.66000 -1.019
59.68000 0.562
59.70000 2.381
59.72000 -0.564
59.74000 1.391
59.76000 0.636
59.78000 3.302
59.80000 -0.002
59.82000 -0.098
59.84000 3.773
59.86000 4.926
59.88000 3.687
59.90000 2.848
59.92000 2.685
59.94000 -0.595
59.96000 2.061
59.98000 1.752
60.00000 1.123
60.02000 1.051
60.04000 1.269
60.06000 -1.546
60.08000 -1.778
60.10000 -0.656
60.12000 0.199
60.14000 3.256
60.16000 4.929
60.18000 2.486
60.20000 -1.811
60.22000 -2.355
60.24000 -1.603
60.26000 0.789
60.28000 -1.558
60.30000 1.258
60.32000 5.101
60.34000 3.185
60.36000 2.939
60.38000 4.819
60.40000 0.743
60.42000 2.353
60.44000 2.190
60.46000 3.513
60.48000 5.636
60.50000 5.065
60.52000 5.012
60.54000 5.306
60.56000 3.168
60.58000 4.766
60.60000 2.676
60.62000 1.542
60.64000 2.582
60.66000 2.873
60.68000 2.982
60.70000 5.977
60.72000 2.689
60.74000 4.916
60.76000 3.314
60.78000 -0.720
60.80000 -0.593
60.82000 -0.164
60.84000 1.935
60.86000 2.680
60.88000 2.353
60.90000 0.158
60.92000 0.598
60.94000 1.809
60.96000 0.831
60.98000 0.944
61.00000 -0.187
61.02000 -0.791
61.04000 -1.182
61.06000 2.462
61.08000 -0.201
61.10000 1.024
61.12000 1.180
61.14000 0.549
61.16000 0.304
61.18000 2.493
61.20000 0.208
61.22000 1.801
61.24000 2.118
61.26000 2.072
61.28000 2.156
61.30000 0.607
61.32000 -2.349
61.34000 -1.198
61.36000 -1.680
61.38000 1.158
61.40000 4.218
61.42000 1.839
61.44000 2.186
61.46000 1.381
61.48000 -0.915
61.50000 -0.259
61.52000 0.526
61.54000 -0.106
61.56000 2.041
61.58000 -1.249
61.60000 -2.101
61.62000 1.282
61.64000 5.968
61.66000 2.820
61.68000 2.470
61.70000 2.384
61.72000 2.583
61.74000 5.764
61.76000 4.640
61.78000 2.550
61.80000 0.621
61.82000 3.458
61.84000 -0.128
61.86000 1.932
61.88000 3.339
61.90000 3.651
61.92000 -0.296
61.94000 2.026
61.96000 1.656
61.98000 3.591
62.00000 2.672
62.02000 1.268
62.04000 0.995
62.06000 0.667
62.08000 2.002
62.10000 4.007
62.12000 3.936
62.14000 2.669
62.16000 1.748
62.18000 1.930
62.20000 2.945
62.22000 3.048
62.24000 -0.756
62.26000 -2.324
62.28000 -2.091
62.30000 0.537
62.32000 2.771
62.34000 2.209
62.36000 3.939
62.38000 3.709
62.40000 2.926
62.42000 1.276
62.44000 1.869
62.46000 1.597
62.48000 -0.029
62.50000 0.565
62.52000 1.744
62.54000 3.358
62.56000 3.395
62.58000 3.374
62.60000 2.192
62.62000 2.918
62.64000 1.247
62.66000 0.440
62.68000 5.407
62.70000 4.695
62.72000 0.690
62.74000 -0.673
62.76000 2.020
62.78000 -2.091
62.80000 0.446
62.82000 1.048
62.84000 0.564
62.86000 -1.364
62.88000 2.727
62.90000 4.319
62.92000 3.090
62.94000 1.256
62.96000 0.193
62.98000 0.943
63.00000 1.997
63.02000 0.516
63.04000 -0.029
63.06000 0.266
63.08000 -0.678
63.10000 0.575
63.12000 1.054
63.14000 0.596
63.16000 5.038
63.18000 5.443
63.20000 1.640
63.22000 0.591
63.24000 -1.068
63.26000 0.513
63.28000 2.130
63.30000 1.145
63.32000 -0.060
63.34000 -2.265
63.36000 -0.848
63.38000 2.324
63.40000 0.913
63.42000 -2.305
63.44000 1.013
63.46000 -0.143
63.48000 3.057
63.50000 4.423
63.52000 0.327
63.54000 2.203
63.56000 0.482
63.58000 2.812
63.60000 2.589
63.62000 0.724
63.64000 2.196
63.66000 4.866
63.68000 1.184
63.70000 2.215
63.72000 0.500
63.74000 -1.122
63.76000 -0.204
63.78000 1.168
63.80000 -1.118
63.82000 0.094
63.84000 -0.528
63.86000 -1.452
63.88000 1.197
63.90000 0.321
63.92000 0.404
63.94000 0.052
63.96000 0.653
63.98000 1.250
64.00000 2.356
64.02000 3.146
64.04000 2.110
64.06000 -2.234
64.08000 3.152
64.10000 4.037
64.12000 0.746
64.14000 0.728
64.16000 0.620
64.18000 -2.335
64.20000 -0.099
64.22000 0.706
64.24000 0.240
64.26000 0.078
64.28000 0.923
64.30000 -0.605
64.32000 -1.066
64.34000 -2.339
64.36000 1.420
64.38000 0.507
64.40000 2.338
64.42000 -1.027
64.44000 -0.610
64.46000 2.020
64.48000 -0.909
64.50000 -0.720
64.52000 1.720
64.54000 -1.048
64.56000 1.217
64.58000 1.509
64.60000 3.288
64.62000 5.276
64.64000 1.635
64.66000 0.252
64.68000 1.404
64.70000 2.147
64.72000 -2.015
64.74000 -1.571
64.76000 1.345
64.78000 1.043
64.80000 2.250
64.82000 0.667
64.84000 0.979
64.86000 3.475
64.88000 2.209
64.90000 3.051
64.92000 -2.357
64.94000 -0.644
64.96000 -0.555
64.98000 -1.403
65.00000 -2.167
65.02000 0.878
65.04000 -0.699
65.06000 -0.462
65.08000 1.428
65.10000 0.053
65.12000 2.209
65.14000 -0.609
65.16000 -0.124
65.18000 2.009
65.20000 1.505
65.22000 2.387
65.24000 -0.504
65.26000 2.035
65.28000 2.497
65.30000 0.478
65.32000 -2.334
65.34000 0.357
65.36000 0.242
65.38000 -0.193
65.40000 -0.493
65.42000 -2.368
65.44000 0.794
65.46000 4.052
65.48000 2.368
65.50000 -1.850
65.52000 -0.726
65.54000 0.970
65.56000 1.200
65.58000 0.531
65.60000 1.381
65.62000 0.359
65.64000 -0.161
65.66000 0.577
65.68000 0.010
65.70000 2.959
65.72000 -0.741
65.74000 -0.953
65.76000 2.192
65.78000 2.857
65.80000 1.779
65.82000 2.112
65.84000 -0.012
65.86000 -0.237
65.88000 2.947
65.90000 1.845
65.92000 2.774
65.94000 0.155
65.96000 -1.107
65.98000 1.145
66.00000 0.452
66.02000 0.012
66.04000 -1.114
66.06000 1.486
66.08000 0.756
66.10000 -0.617
66.12000 -0.114
66.14000 1.269
66.16000 -0.237
66.18000 1.319
66.20000 2.410
66.22000 2.128
66.24000 4.872
66.26000 1.435
66.28000 1.089
66.30000 3.069
66.32000 1.143
66.34000 3.259
66.36000 1.162
66.38000 -2.341
66.40000 -0.375
66.42000 1.144
66.44000 -1.473
66.46000 1.242
66.48000 4.901
66.50000 2.819
66.52000 -0.577
66.54000 -0.569
66.56000 0.485
66.58000 0.224
66.60000 -1.112
66.62000 0.082
66.64000 -1.626
66.66000 -1.433
66.68000 1.913
66.70000 0.336
66.72000 0.310
66.74000 3.339
66.76000 2.284
66.78000 1.303
66.80000 2.531
66.82000 3.920
66.84000 3.735
66.86000 2.819
66.88000 2.760
66.90000 3.791
66.92000 4.684
66.94000 3.755
66.96000 3.092
66.98000 0.060
67.00000 2.502
67.02000 3.108
67.04000 3.412
67.06000 4.298
67.08000 -0.527
67.10000 -2.381
67.12000 -0.969
67.14000 0.587
67.16000 5.471
67.18000 2.627
67.20000 3.119
67.22000 5.758
67.24000 6.359
67.26000 5.447
67.28000 3.680
67.30000 3.530
67.32000 3.658
67.34000 5.835
67.36000 5.446
67.38000 6.755
67.40000 5.208
67.42000 4.945
67.44000 4.981
67.46000 4.535
67.48000 5.979
67.50000 5.797
67.52000 5.269
67.54000 6.153
67.56000 6.328
67.58000 7.670
67.60000 7.561
67.62000 3.884
67.64000 4.013
67.66000 6.353
67.68000 8.607
67.70000 7.918
67.72000 6.974
67.74000 10.941
67.76000 9.548
67.78000 8.275
67.80000 11.014
67.82000 10.022
67.84000 8.135
67.86000 14.311
67.88000 13.358
67.90000 10.589
67.92000 8.429
67.94000 11.238
67.96000 14.549
67.98000 17.678
68.00000 15.889
68.02000 16.361
68.04000 20.118
68.06000 16.829
68.08000 16.437
68.10000 17.445
68.12000 19.265
68.14000 19.442
68.16000 22.408
68.18000 24.529
68.20000 20.860
68.22000 22.866
68.24000 25.871
68.26000 27.941
68.28000 26.961
68.30000 25.441
68.32000 27.776
68.34000 29.515
68.36000 28.829
68.38000 29.454
68.40000 33.172
68.42000 34.726
68.44000 32.870
68.46000 32.549
68.48000 33.450
68.50000 32.894
68.52000 31.907
68.54000 37.533
68.56000 38.881
68.58000 37.185
68.60000 33.835
68.62000 34.647
68.64000 36.095
68.66000 39.964
68.68000 40.351
68.70000 40.065
68.72000 36.091
68.74000 38.034
68.76000 38.270
68.78000 35.921
68.80000 35.830
68.82000 35.815
68.84000 39.191
68.86000 34.413
68.88000 32.274
68.90000 34.926
68.92000 37.310
68.94000 34.026
68.96000 31.379
68.98000 30.075
69.00000 30.775
69.02000 30.116
69.04000 32.450
69.06000 30.208
69.08000 28.784
69.10000 26.473
69.12000 21.995
69.14000 16.658
69.16000 19.431
69.18000 22.441
69.20000 20.448
69.22000 18.252
69.24000 18.170
69.26000 17.838
69.28000 16.970
69.30000 15.513
69.32000 14.013
69.34000 15.322
69.36000 14.220
69.38000 11.397
69.40000 13.284
69.42000 12.257
69.44000 9.169
69.46000 9.876
69.48000 9.706
69.50000 8.099
69.52000 7.447
69.54000 6.874
69.56000 8.756
69.58000 7.013
69.60000 6.875
69.62000 6.177
69.64000 8.037
69.66000 4.784
69.68000 6.702
69.70000 2.430
69.72000 2.959
69.74000 4.772
69.76000 8.525
69.78000 4.533
69.80000 3.301
69.82000 1.443
69.84000 2.219
69.86000 5.156
69.88000 6.248
69.90000 5.677
69.92000 4.421
69.94000 5.355
69.96000 2.831
69.98000 1.386
70.00000 2.573
70.02000 2.350
70.04000 4.280
70.06000 3.218
70.08000 5.299
70.10000 5.274
70.12000 2.530
70.14000 -1.045
70.16000 -0.766
70.18000 1.728
70.20000 3.476
70.22000 1.849
70.24000 0.517
70.26000 1.550
70.28000 0.589
70.30000 2.707
70.32000 2.484
70.34000 0.484
70.36000 -0.310
70.38000 -0.423
70.40000 1.247
70.42000 -0.707
70.44000 -2.280
70.46000 2.920
70.48000 3.656
70.50000 1.568
70.52000 1.414
70.54000 2.415
70.56000 2.035
70.58000 1.735
70.60000 -2.266
70.62000 -1.632
70.64000 0.334
70.66000 3.660
70.68000 2.310
70.70000 -1.168
70.72000 1.503
70.74000 1.576
70.76000 2.032
70.78000 0.881
70.80000 -0.373
70.82000 2.020
70.84000 4.387
70.86000 0.773
70.88000 2.332
70.90000 -0.150
70.92000 1.776
70.94000 1.603
70.96000 4.427
70.98000 7.576
71.00000 5.173
71.02000 1.536
71.04000 2.620
71.06000 1.624
71.08000 3.583
71.10000 4.334
71.12000 0.941
71.14000 -0.288
71.16000 3.374
71.18000 2.715
71.20000 0.452
71.22000 -0.380
71.24000 -2.230
71.26000 -1.369
71.28000 0.800
71.30000 0.641
71.32000 4.977
71.34000 2.186
71.36000 2.006
71.38000 -0.811
71.40000 -1.703
71.42000 1.217
71.44000 2.605
71.46000 3.748
71.48000 2.211
71.50000 2.138
71.52000 3.685
71.54000 3.544
71.56000 1.456
71.58000 7.204
71.60000 6.068
71.62000 0.961
71.64000 1.961
71.66000 1.913
71.68000 0.991
71.70000 -0.401
71.72000 -1.829
71.74000 1.415
71.76000 0.822
71.78000 2.079
71.80000 0.684
71.82000 3.053
71.84000 4.045
71.86000 3.242
71.88000 3.764
71.90000 2.150
71.92000 1.246
71.94000 0.326
71.96000 -0.130
71.98000 4.494
72.00000 6.004
72.02000 4.431
72.04000 5.058
72.06000 3.320
72.08000 2.615
72.10000 2.049
72.12000 -2.191
72.14000 1.106
72.16000 2.996
72.18000 2.319
72.20000 2.571
72.22000 -0.259
72.24000 -1.890
72.26000 1.501
72.28000 2.258
72.30000 1.859
72.32000 -0.423
72.34000 -2.172
72.36000 -0.965
72.38000 2.101
72.40000 3.638
72.42000 3.342
72.44000 4.884
72.46000 3.612
72.48000 5.044
72.50000 6.638
72.52000 4.073
72.54000 6.702
72.56000 5.966
72.58000 5.281
72.60000 5.555
72.62000 -0.500
72.64000 2.381
72.66000 5.100
72.68000 2.999
72.70000 2.805
72.72000 1.416
72.74000 -0.882
72.76000 0.617
72.78000 2.589
72.80000 1.622
72.82000 3.150
72.84000 4.414
72.86000 1.105
72.88000 2.555
72.90000 3.134
72.92000 3.108
72.94000 0.547
72.96000 1.293
72.98000 0.850
73.00000 4.584
73.02000 0.662
73.04000 2.544
73.06000 4.727
73.08000 5.598
73.10000 2.890
73.12000 -0.649
73.14000 -2.171
73.16000 0.573
73.18000 4.012
73.20000 5.654
73.22000 8.645
73.24000 1.884
73.26000 1.894
73.28000 4.086
73.30000 2.180
73.32000 3.304
73.34000 -0.348
73.36000 1.550
73.38000 3.763
73.40000 2.975
73.42000 2.430
73.44000 1.818
73.46000 1.692
73.48000 -0.785
73.50000 -2.154
73.52000 -0.196
73.54000 1.727
73.56000 4.884
73.58000 5.026
73.60000 4.577
73.62000 0.146
73.64000 0.347
73.66000 2.817
73.68000 2.781
73.70000 0.789
73.72000 0.535
73.74000 -1.763
73.76000 2.788
73.78000 6.068
73.80000 2.855
73.82000 0.090
73.84000 3.281
73.86000 3.952
73.88000 0.210
73.90000 -1.306
73.92000 1.996
73.94000 5.253
73.96000 4.171
73.98000 3.436
74.00000 5.786
74.02000 3.359
74.04000 0.551
74.06000 -0.346
74.08000 -0.111
74.10000 2.357
74.12000 1.834
74.14000 0.564
74.16000 2.358
74.18000 0.657
74.20000 1.590
74.22000 0.958
74.24000 -0.016
74.26000 1.954
74.28000 0.953
74.30000 1.588
74.32000 5.931
74.34000 4.445
74.36000 3.030
74.38000 0.659
74.40000 -0.566
74.42000 -0.086
74.44000 -1.079
74.46000 -2.134
74.48000 -1.853
74.50000 -0.100
74.52000 1.080
74.54000 1.562
74.56000 1.366
74.58000 4.585
74.60000 4.081
74.62000 3.036
74.64000 6.824
74.66000 6.903
74.68000 8.677
74.70000 3.674
74.72000 -0.650
74.74000 -0.862
74.76000 -0.110
74.78000 3.182
74.80000 3.633
74.82000 4.435
74.84000 4.159
74.86000 3.299
74.88000 2.681
74.90000 2.706
74.92000 -0.019
74.94000 2.355
74.96000 5.380
74.98000 3.062
75.00000 2.454
75.02000 4.102
75.04000 8.315
75.06000 6.961
75.08000 2.053
75.10000 -0.206
75.12000 0.010
75.14000 -0.482
75.16000 0.587
75.18000 2.756
75.20000 4.733
75.22000 5.335
75.24000 3.715
75.26000 -1.384
75.28000 -0.269
75.30000 3.489
75.32000 5.396
75.34000 5.896
75.36000 0.959
75.38000 -0.489
75.40000 2.867
75.42000 2.473
75.44000 -1.659
75.46000 -1.979
75.48000 3.502
75.50000 3.460
75.52000 -0.907
75.54000 -0.963
75.56000 0.122
75.58000 3.950
75.60000 7.343
75.62000 5.226
75.64000 1.135
75.66000 1.934
75.68000 0.264
75.70000 1.809
75.72000 -0.740
75.74000 0.631
75.76000 1.592
75.78000 1.171
75.80000 -0.482
75.82000 -0.158
75.84000 2.728
75.86000 0.774
75.88000 2.436
75.90000 1.804
75.92000 -1.632
75.94000 -1.628
75.96000 3.502
75.98000 3.055
76.00000 1.488
76.02000 4.218
76.04000 1.924
76.06000 -2.155
76.08000 -0.428
76.10000 1.129
76.12000 0.792
76.14000 3.973
76.16000 1.253
76.18000 3.912
76.20000 4.407
76.22000 4.449
76.24000 2.190
76.26000 0.897
76.28000 0.880
76.30000 3.807
76.32000 6.829
76.34000 3.489
76.36000 0.634
76.38000 2.699
76.40000 2.490
76.42000 5.714
76.44000 4.996
76.46000 2.390
76.48000 5.242
76.50000 2.361
76.52000 4.795
76.54000 3.570
76.56000 3.789
76.58000 -2.140
76.60000 2.075
76.62000 6.291
76.64000 5.121
76.66000 6.705
76.68000 5.798
76.70000 3.876
76.72000 1.038
76.74000 -0.724
76.76000 -0.576
76.78000 1.793
76.80000 3.491
76.82000 3.392
76.84000 3.625
76.86000 3.869
76.88000 3.941
76.90000 7.197
76.92000 -0.569
76.94000 2.582
76.96000 4.068
76.98000 3.131
77.00000 4.441
77.02000 4.902
77.04000 3.066
77.06000 2.499
77.08000 3.893
77.10000 6.921
77.12000 5.564
77.14000 5.652
77.16000 4.524
77.18000 2.483
77.20000 -1.676
77.22000 0.117
77.24000 -0.587
77.26000 1.527
77.28000 1.555
77.30000 2.408
77.32000 3.017
77.34000 3.968
77.36000 4.580
77.38000 4.073
77.40000 6.111
77.42000 2.610
77.44000 3.998
77.46000 5.338
77.48000 8.979
77.50000 5.991
77.52000 1.807
77.54000 4.235
77.56000 2.726
77.58000 2.480
77.60000 2.074
77.62000 0.803
77.64000 2.638
77.66000 6.956
77.68000 6.245
77.70000 2.949
77.72000 -2.151
77.74000 0.549
77.76000 0.471
77.78000 4.891
77.80000 4.393
77.82000 5.600
77.84000 6.054
77.86000 2.715
77.88000 2.134
77.90000 2.415
77.92000 1.009
77.94000 2.930
77.96000 2.325
77.98000 1.171
78.00000 7.432
78.02000 4.295
78.04000 3.427
78.06000 5.443
78.08000 6.043
78.10000 2.616
78.12000 0.462
78.14000 4.745
78.16000 6.165
78.18000 1.039
78.20000 2.023
78.22000 0.819
78.24000 2.412
78.26000 4.906
78.28000 4.488
78.30000 3.526
78.32000 2.994
78.34000 1.414
78.36000 4.129
78.38000 6.752
78.40000 6.338
78.42000 -0.049
78.44000 2.571
78.46000 0.968
78.48000 0.000
78.50000 3.513
78.52000 2.405
78.54000 4.067
78.56000 -0.999
78.58000 -1.952
78.60000 0.878
78.62000 0.036
78.64000 -1.124
78.66000 1.250
78.68000 4.828
78.70000 4.774
78.72000 4.046
78.74000 2.956
78.76000 4.466
78.78000 5.887
78.80000 5.227
78.82000 6.593
78.84000 6.283
78.86000 3.052
78.88000 2.994
78.90000 1.747
78.92000 2.186
78.94000 3.518
78.96000 7.069
78.98000 9.540
79.00000 2.563
79.02000 3.838
79.04000 2.943
79.06000 1.387
79.08000 1.249
79.10000 2.117
79.12000 5.345
79.14000 4.517
79.16000 6.398
79.18000 8.379
79.20000 7.625
79.22000 8.888
79.24000 6.339
79.26000 5.818
79.28000 9.618
79.30000 7.804
79.32000 8.058
79.34000 6.926
79.36000 2.827
79.38000 -2.121
79.40000 4.315
79.42000 4.922
79.44000 5.749
79.46000 5.083
79.48000 2.787
79.50000 1.346
79.52000 2.919
79.54000 4.850
79.56000 7.920
79.58000 6.975
79.60000 5.471
79.62000 5.330
79.64000 4.679
79.66000 3.097
79.68000 5.865
79.70000 2.382
79.72000 3.320
79.74000 3.696
79.76000 2.760
79.78000 4.741
79.80000 5.198
79.82000 4.774
79.84000 7.424
79.86000 7.681
79.88000 5.741
79.90000 4.532
79.92000 4.357
79.94000 5.067
79.96000 4.135
79.98000 3.876
80.00000 4.751
80.02000 2.875
80.04000 3.674
80.06000 3.672
80.08000 2.180
80.10000 2.284
80.12000 4.177
80.14000 2.009
80.16000 2.379
80.18000 3.983
80.20000 4.029
80.22000 7.645
80.24000 8.195
80.26000 3.739
80.28000 3.846
80.30000 6.324
80.32000 7.345
80.34000 4.210
80.36000 1.694
80.38000 1.407
80.40000 6.783
80.42000 1.731
80.44000 -2.250
80.46000 3.992
80.48000 4.130
80.50000 9.435
80.52000 6.046
80.54000 3.543
80.56000 4.262
80.58000 4.601
80.60000 -0.525
80.62000 -1.228
80.64000 2.042
80.66000 2.460
80.68000 0.613
80.70000 0.622
80.72000 2.546
80.74000 4.465
80.76000 4.213
80.78000 2.751
80.80000 1.555
80.82000 1.951
80.84000 2.679
80.86000 5.685
80.88000 0.694
80.90000 0.990
80.92000 3.812
80.94000 1.662
80.96000 1.616
80.98000 -2.301
81.00000 2.573
81.02000 2.805
81.04000 2.349
81.06000 6.755
81.08000 3.604
81.10000 2.199
81.12000 3.475
81.14000 2.091
81.16000 1.912
81.18000 6.329
81.20000 7.850
81.22000 3.674
81.24000 3.544
81.26000 6.960
81.28000 6.995
81.30000 5.371
81.32000 4.401
81.34000 7.897
81.36000 5.654
81.38000 4.920
81.40000 4.682
81.42000 5.844
81.44000 4.085
81.46000 4.452
81.48000 10.434
81.50000 12.406
81.52000 9.651
81.54000 10.363
81.56000 8.247
81.58000 6.732
81.60000 5.403
81.62000 2.641
81.64000 4.009
81.66000 8.662
81.68000 12.910
81.70000 8.817
81.72000 11.907
81.74000 15.122
81.76000 10.604
81.78000 8.583
81.80000 11.971
81.82000 13.160
81.84000 10.726
81.86000 11.852
81.88000 14.571
81.90000 14.395
81.92000 15.178
81.94000 15.138
81.96000 15.789
81.98000 18.570
82.00000 22.874
82.02000 21.401
82.04000 17.950
82.06000 14.521
82.08000 12.558
82.10000 13.211
82.12000 20.824
82.14000 22.555
82.16000 23.875
82.18000 25.168
82.20000 26.840
82.22000 25.069
82.24000 30.023
82.26000 32.241
82.28000 33.191
82.30000 38.289
82.32000 32.184
82.34000 32.543
82.36000 31.189
82.38000 28.702
82.40000 29.103
82.42000 32.533
82.44000 34.078
82.46000 34.916
82.48000 41.290
82.50000 42.077
82.52000 44.551
82.54000 43.882
82.56000 44.319
82.58000 40.137
82.60000 43.059
82.62000 45.848
82.64000 42.592
82.66000 47.024
82.68000 51.317
82.70000 53.291
82.72000 51.939
82.74000 51.362
82.76000 49.589
82.78000 45.955
82.80000 46.021
82.82000 46.959
82.84000 49.826
82.86000 52.979
82.88000 54.606
82.90000 51.228
82.92000 46.585
82.94000 43.754
82.96000 47.827
82.98000 46.570
83.00000 50.028
83.02000 49.042
83.04000 49.696
83.06000 48.478
83.08000 52.115
83.10000 51.652
83.12000 46.791
83.14000 46.525
83.16000 48.556
83.18000 46.019
83.20000 42.823
83.22000 41.075
83.24000 39.573
83.26000 35.061
83.28000 37.053
83.30000 35.302
83.32000 31.628
83.34000 36.396
83.36000 32.044
83.38000 30.647
83.40000 32.407
83.42000 28.227
83.44000 30.040
83.46000 32.322
83.48000 32.116
83.50000 26.990
83.52000 19.874
83.54000 23.531
83.56000 23.493
83.58000 16.268
83.60000 16.755
83.62000 19.021
83.64000 21.083
83.66000 22.274
83.68000 18.063
83.70000 18.472
83.72000 16.815
83.74000 13.923
83.76000 12.187
83.78000 14.344
83.80000 15.178
83.82000 8.361
83.84000 10.666
83.86000 11.928
83.88000 9.777
83.90000 7.708
83.92000 9.788
83.94000 8.708
83.96000 11.983
83.98000 5.887
84.00000 5.446
84.02000 6.163
84.04000 5.803
84.06000 2.576
84.08000 6.468
84.10000 0.429
84.12000 -0.124
84.14000 3.259
84.16000 7.778
84.18000 7.873
84.20000 7.185
84.22000 4.077
84.24000 6.843
84.26000 1.478
84.28000 3.067
84.30000 2.618
84.32000 1.806
84.34000 2.322
84.36000 1.586
84.38000 0.426
84.40000 -1.075
84.42000 1.880
84.44000 3.632
84.46000 7.642
84.48000 6.246
84.50000 4.510
84.52000 0.969
84.54000 3.104
84.56000 7.731
84.58000 1.054
84.60000 -2.343
84.62000 0.540
84.64000 -1.885
84.66000 1.038
84.68000 -1.470
84.70000 -1.846
84.72000 -1.328
84.74000 -0.851
84.76000 -1.392
84.78000 0.861
84.80000 -0.710
84.82000 -1.086
84.84000 1.596
84.86000 1.051
84.88000 0.768
84.90000 3.056
84.92000 2.241
84.94000 3.999
84.96000 4.454
84.98000 1.226
85.00000 1.294
85.02000 0.868
85.04000 -2.165
85.06000 0.548
85.08000 3.018
85.10000 2.424
85.12000 -0.863
85.14000 -0.849
85.16000 3.672
85.18000 1.330
85.20000 2.057
85.22000 -2.258
85.24000 -1.201
85.26000 0.372
85.28000 -0.998
85.30000 1.781
85.32000 7.428
85.34000 6.423
85.36000 3.094
85.38000 4.348
85.40000 3.745
85.42000 3.816
85.44000 3.504
85.46000 4.779
85.48000 0.983
85.50000 3.698
85.52000 9.144
85.54000 0.803
85.56000 -1.630
85.58000 0.433
85.60000 4.488
85.62000 4.570
85.64000 -0.031
85.66000 1.892
85.68000 1.967
85.70000 2.234
85.72000 1.833
85.74000 1.901
85.76000 3.698
85.78000 1.092
85.80000 -2.268
85.82000 1.743
85.84000 1.478
85.86000 1.054
85.88000 1.883
85.90000 1.534
85.92000 4.747
85.94000 1.368
85.96000 0.688
85.98000 1.105
86.00000 4.876
86.02000 1.900
86.04000 2.784
86.06000 -1.499
86.08000 3.474
86.10000 5.566
86.12000 4.919
86.14000 4.104
86.16000 1.055
86.18000 4.375
86.20000 2.250
86.22000 7.463
86.24000 9.913
86.26000 3.297
86.28000 -0.158
86.30000 3.645
86.32000 12.762
86.34000 9.731
86.36000 4.357
86.38000 8.818
86.40000 7.515
86.42000 0.978
86.44000 8.209
86.46000 7.934
86.48000 5.808
86.50000 5.212
86.52000 6.021
86.54000 9.471
86.56000 11.282
86.58000 10.566
86.60000 6.079
86.62000 7.781
86.64000 7.750
86.66000 6.861
86.68000 10.905
86.70000 13.039
86.72000 8.435
86.74000 12.668
86.76000 12.477
86.78000 12.318
86.80000 15.362
86.82000 20.243
86.84000 20.947
86.86000 17.026
86.88000 17.599
86.90000 20.484
86.92000 22.729
86.94000 18.745
86.96000 17.017
86.98000 22.465
87.00000 25.446
87.02000 25.481
87.04000 21.446
87.06000 20.535
87.08000 22.492
87.10000 26.201
87.12000 27.661
87.14000 29.785
87.16000 31.828
87.18000 30.535
87.20000 27.524
87.22000 30.785
87.24000 29.889
87.26000 25.637
87.28000 25.754
87.30000 27.042
87.32000 29.010
87.34000 28.732
87.36000 27.888
87.38000 22.708
87.40000 24.847
87.42000 26.435
87.44000 24.196
87.46000 26.387
87.48000 26.298
87.50000 23.525
87.52000 29.884
87.54000 26.288
87.56000 23.936
87.58000 23.821
87.60000 23.771
87.62000 23.269
87.64000 22.570
87.66000 17.887
87.68000 16.110
87.70000 18.046
87.72000 18.430
87.74000 16.986
87.76000 15.473
87.78000 16.583
87.80000 15.060
87.82000 14.987
87.84000 15.305
87.86000 13.801
87.88000 15.549
87.90000 14.174
87.92000 12.523
87.94000 12.337
87.96000 12.736
87.98000 12.416
88.00000 11.532
88.02000 9.455
88.04000 3.164
88.06000 4.307
88.08000 9.089
88.10000 12.786
88.12000 9.596
88.14000 1.894
88.16000 5.505
88.18000 6.652
88.20000 5.177
88.22000 7.359
88.24000 4.198
88.26000 3.199
88.28000 1.226
88.30000 2.067
88.32000 0.232
88.34000 2.756
88.36000 2.471
88.38000 3.193
88.40000 1.584
88.42000 1.844
88.44000 3.076
88.46000 2.612
88.48000 4.146
88.50000 7.360
88.52000 6.021
88.54000 1.238
88.56000 -1.177
88.58000 1.986
88.60000 3.714
88.62000 -1.300
88.64000 1.635
88.66000 5.860
88.68000 3.962
88.70000 2.503
88.72000 2.314
88.74000 2.280
88.76000 3.914
88.78000 2.630
88.80000 3.596
88.82000 4.185
88.84000 1.508
88.86000 -2.179
88.88000 -2.149
88.90000 2.449
88.92000 1.031
88.94000 -0.075
88.96000 2.184
88.98000 1.538
89.00000 -1.807
89.02000 -0.002
89.04000 1.126
89.06000 -1.283
89.08000 0.393
89.10000 5.625
89.12000 4.479
89.14000 -0.271
89.16000 0.423
89.18000 4.077
89.20000 4.446
89.22000 3.228
89.24000 -0.755
89.26000 -1.952
89.28000 -0.935
89.30000 0.889
89.32000 1.320
89.34000 4.293
89.36000 2.705
89.38000 1.944
89.40000 -1.128
89.42000 -2.098
89.44000 2.575
89.46000 1.606
89.48000 2.854
89.50000 2.364
89.52000 2.186
89.54000 5.679
89.56000 -1.157
89.58000 -2.070
89.60000 2.637
89.62000 2.009
89.64000 6.784
89.66000 4.581
89.68000 1.370
89.70000 0.318
89.72000 4.632
89.74000 8.675
89.76000 7.710
89.78000 0.548
89.80000 1.822
89.82000 2.695
89.84000 1.953
89.86000 6.255
89.88000 1.151
89.90000 2.169
89.92000 1.301
89.94000 0.788
89.96000 3.272
89.98000 3.874
90.00000 2.947
90.02000 3.575
90.04000 4.289
90.06000 3.627
90.08000 3.171
90.10000 3.508
90.12000 1.283
90.14000 3.716
90.16000 1.346
90.18000 1.935
90.20000 0.101
90.22000 0.168
90.24000 0.182
90.26000 -0.461
90.28000 -0.854
90.30000 3.507
90.32000 3.050
90.34000 -0.684
90.36000 4.698
90.38000 0.931
90.40000 1.856
90.42000 4.054
90.44000 3.392
90.46000 3.600
90.48000 3.197
90.50000 3.568
90.52000 0.685
90.54000 0.743
90.56000 1.491
90.58000 2.942
90.60000 4.216
90.62000 -1.121
90.64000 -0.078
90.66000 1.925
90.68000 8.271
90.70000 3.650
90.72000 0.482
90.74000 0.827
90.76000 3.423
90.78000 -1.943
90.80000 -1.915
90.82000 4.058
90.84000 2.062
90.86000 3.973
90.88000 3.074
90.90000 2.476
90.92000 0.357
90.94000 6.692
90.96000 5.600
90.98000 5.817
91.00000 3.236
91.02000 2.398
91.04000 2.284
91.06000 2.878
91.08000 1.147
91.10000 3.856
91.12000 2.483
91.14000 1.833
91.16000 5.478
91.18000 1.714
91.20000 0.417
91.22000 5.111
91.24000 6.561
91.26000 0.478
91.28000 -1.531
91.30000 -2.013
91.32000 3.118
91.34000 5.607
91.36000 2.820
91.38000 2.348
91.40000 3.074
91.42000 4.004
91.44000 2.107
91.46000 4.103
91.48000 5.112
91.50000 7.372
91.52000 9.219
91.54000 2.846
91.56000 5.230
91.58000 2.804
91.60000 -1.184
91.62000 2.476
91.64000 3.616
91.66000 -0.016
91.68000 0.087
91.70000 -0.798
91.72000 -0.758
91.74000 2.469
91.76000 1.482
91.78000 0.829
91.80000 1.034
91.82000 2.554
91.84000 4.551
91.86000 3.446
91.88000 6.390
91.90000 8.988
91.92000 3.824
91.94000 4.041
91.96000 3.679
91.98000 1.004
92.00000 0.641
92.02000 2.208
92.04000 4.227
92.06000 5.416
92.08000 2.846
92.10000 3.782
92.12000 3.759
92.14000 2.507
92.16000 2.142
92.18000 2.283
92.20000 4.608
92.22000 4.585
92.24000 5.232
92.26000 4.908
92.28000 3.606
92.30000 4.447
92.32000 6.500
92.34000 3.455
92.36000 4.311
92.38000 3.025
92.40000 4.797
92.42000 3.764
92.44000 1.721
92.46000 0.425
92.48000 1.140
92.50000 4.576
92.52000 0.553
92.54000 0.628
92.56000 5.021
92.58000 3.936
92.60000 4.478
92.62000 3.706
92.64000 2.615
92.66000 -2.038
92.68000 5.853
92.70000 11.054
92.72000 5.574
92.74000 3.307
92.76000 1.794
92.78000 1.139
92.80000 -0.711
92.82000 4.294
92.84000 5.907
92.86000 6.767
92.88000 8.325
92.90000 5.028
92.92000 0.944
92.94000 0.790
92.96000 -2.039
92.98000 0.812
93.00000 0.984
93.02000 0.045
93.04000 1.324
93.06000 0.966
93.08000 1.729
93.10000 3.873
93.12000 -0.729
93.14000 1.358
93.16000 0.203
93.18000 -1.013
93.20000 1.789
93.22000 7.625
93.24000 2.178
93.26000 1.558
93.28000 4.473
93.30000 3.190
93.32000 2.245
93.34000 0.015
93.36000 -1.195
93.38000 2.576
93.40000 5.060
93.42000 5.248
93.44000 7.252
93.46000 4.172
93.48000 3.287
93.50000 3.376
93.52000 7.207
93.54000 4.317
93.56000 0.575
93.58000 2.586
93.60000 2.025
93.62000 2.377
93.64000 0.370
93.66000 0.000
93.68000 2.997
93.70000 3.993
93.72000 0.831
93.74000 2.406
93.76000 -1.630
93.78000 -0.205
93.80000 2.515
93.82000 4.163
93.84000 5.483
93.86000 1.354
93.88000 1.451
93.90000 2.047
93.92000 -0.807
93.94000 1.771
93.96000 5.583
93.98000 6.710
94.00000 4.478
94.02000 1.583
94.04000 3.563
94.06000 1.206
94.08000 -2.061
94.10000 1.011
94.12000 0.575
94.14000 0.803
94.16000 0.493
94.18000 2.351
94.20000 0.407
94.22000 -2.061
94.24000 2.291
94.26000 5.679
94.28000 8.329
94.30000 5.740
94.32000 0.660
94.34000 2.509
94.36000 0.783
94.38000 1.014
94.40000 1.338
94.42000 0.036
94.44000 -0.902
94.46000 2.600
94.48000 3.189
94.50000 6.856
94.52000 2.780
94.54000 7.686
94.56000 3.839
94.58000 2.301
94.60000 1.238
94.62000 0.937
94.64000 2.147
94.66000 1.631
94.68000 4.924
94.70000 5.083
94.72000 2.151
94.74000 1.631
94.76000 -0.014
94.78000 2.597
94.80000 1.692
94.82000 1.283
94.84000 1.998
94.86000 5.130
94.88000 7.297
94.90000 1.744
94.92000 1.337
94.94000 1.094
94.96000 -0.329
94.98000 -1.433
95.00000 0.652
95.02000 -0.550
95.04000 1.763
95.06000 4.665
95.08000 1.561
95.10000 1.706
95.12000 -0.298
95.14000 1.983
95.16000 1.973
95.18000 4.262
95.20000 5.459
95.22000 5.015
95.24000 5.294
95.26000 4.887
95.28000 8.835
95.30000 6.867
95.32000 2.250
95.34000 2.498
95.36000 4.453
95.38000 4.765
95.40000 5.842
95.42000 6.511
95.44000 8.411
95.46000 9.043
95.48000 6.581
95.50000 4.022
95.52000 1.477
95.54000 -2.045
95.56000 2.531
95.58000 4.469
95.60000 4.171
95.62000 1.294
95.64000 -0.663
95.66000 1.906
95.68000 6.725
95.70000 5.065
95.72000 5.752
95.74000 5.503
95.76000 3.807
95.78000 2.201
95.80000 1.710
95.82000 1.938
95.84000 4.247
95.86000 3.690
95.88000 3.209
95.90000 3.899
95.92000 6.621
95.94000 9.207
95.96000 5.989
95.98000 3.388
96.00000 5.746
96.02000 3.442
96.04000 1.564
96.06000 4.000
96.08000 5.067
96.10000 2.555
96.12000 0.721
96.14000 2.636
96.16000 2.103
96.18000 3.895
96.20000 4.416
96.22000 7.243
96.24000 5.312
96.26000 5.011
96.28000 8.245
96.30000 8.522
96.32000 4.683
96.34000 -2.054
96.36000 -0.560
96.38000 3.550
96.40000 2.521
96.42000 4.861
96.44000 5.571
96.46000 0.674
96.48000 -0.481
96.50000 2.011
96.52000 1.748
96.54000 4.404
96.56000 5.093
96.58000 -1.904
96.60000 -2.046
96.62000 4.041
96.64000 4.941
96.66000 4.358
96.68000 7.848
96.70000 1.877
96.72000 3.740
96.74000 2.778
96.76000 2.107
96.78000 4.647
96.80000 10.888
96.82000 7.463
96.84000 6.889
96.86000 7.164
96.88000 4.429
96.90000 2.959
96.92000 9.729
96.94000 10.876
96.96000 6.449
96.98000 2.286
97.00000 6.728
97.02000 2.052
97.04000 5.802
97.06000 8.846
97.08000 9.862
97.10000 6.178
97.12000 1.408
97.14000 -2.008
97.16000 0.710
97.18000 4.077
97.20000 6.005
97.22000 6.002
97.24000 0.190
97.26000 0.238
97.28000 6.341
97.30000 6.935
97.32000 4.577
97.34000 4.809
97.36000 0.888
97.38000 9.297
97.40000 4.869
97.42000 0.738
97.44000 3.197
97.46000 5.184
97.48000 6.271
97.50000 5.696
97.52000 4.411
97.54000 4.439
97.56000 8.585
97.58000 7.833
97.60000 4.271
97.62000 1.329
97.64000 3.597
97.66000 2.327
97.68000 6.307
97.70000 11.789
97.72000 2.424
97.74000 5.527
97.76000 5.843
97.78000 5.156
97.80000 3.460
97.82000 4.285
97.84000 9.570
97.86000 5.245
97.88000 4.623
97.90000 7.632
97.92000 1.008
97.94000 -1.721
97.96000 3.316
97.98000 0.023
98.00000 0.832
98.02000 4.006
98.04000 4.439
98.06000 2.645
98.08000 8.778
98.10000 1.757
98.12000 0.546
98.14000 8.720
98.16000 7.656
98.18000 1.339
98.20000 6.532
98.22000 13.199
98.24000 8.066
98.26000 3.158
98.28000 2.471
98.30000 5.302
98.32000 2.380
98.34000 3.585
98.36000 1.196
98.38000 1.029
98.40000 3.236
98.42000 6.115
98.44000 10.778
98.46000 4.185
98.48000 5.949
98.50000 9.177
98.52000 6.784
98.54000 4.689
98.56000 3.678
98.58000 1.804
98.60000 9.147
98.62000 8.956
98.64000 4.496
98.66000 6.393
98.68000 -0.242
98.70000 2.488
98.72000 4.937
98.74000 2.053
98.76000 7.103
98.78000 13.191
98.80000 9.443
98.82000 5.151
98.84000 5.116
98.86000 4.299
98.88000 5.801
98.90000 1.753
98.92000 -1.965
98.94000 0.586
98.96000 9.576
98.98000 7.033
99.00000 5.661
99.02000 2.424
99.04000 4.493
99.06000 6.633
99.08000 2.368
99.10000 -0.571
99.12000 2.942
99.14000 8.002
99.16000 6.143
99.18000 5.120
99.20000 5.637
99.22000 8.770
99.24000 14.295
99.26000 5.345
99.28000 5.372
99.30000 2.174
99.32000 7.740
99.34000 6.216
99.36000 3.394
99.38000 -0.890
99.40000 7.700
99.42000 5.985
99.44000 1.397
99.46000 9.532
99.48000 6.104
99.50000 5.547
99.52000 -0.827
99.54000 -2.019
99.56000 2.555
99.58000 6.974
99.60000 -1.382
99.62000 6.157
99.64000 13.146
99.66000 9.849
99.68000 6.564
99.70000 1.161
99.72000 2.639
99.74000 4.324
99.76000 5.425
99.78000 1.077
99.80000 3.316
99.82000 12.452
99.84000 11.677
99.86000 12.594
99.88000 7.168
99.90000 -3.199
99.92000 3.009
99.94000 12.817
99.96000 6.131
99.98000 0.000
