'Id: "0011387" Comment: "Integrate frame 0011387_Au-Ir-Rh_Rh-rich_XRD-Mapping-103-0000.gfrmwith cursor Wedge Cursor #5" Operator: "B?rgel" Anode: "Cu" Wavelength: "1.5406" Scantype: "2Theta (TwoTheta)" TimePerStep: "1" X: "-4.5" Y: "-13.5" Z: "5.95" 
10.00000 0.000
10.02000 11.856
10.04000 9.611
10.06000 11.590
10.08000 11.195
10.10000 27.814
10.12000 25.660
10.14000 15.956
10.16000 14.027
10.18000 11.151
10.20000 14.643
10.22000 7.672
10.24000 0.175
10.26000 9.231
10.28000 27.501
10.30000 18.699
10.32000 7.207
10.34000 16.490
10.36000 6.245
10.38000 -4.190
10.40000 11.925
10.42000 17.314
10.44000 9.792
10.46000 14.644
10.48000 20.769
10.50000 10.392
10.52000 4.729
10.54000 5.017
10.56000 10.896
10.58000 9.024
10.60000 15.734
10.62000 8.148
10.64000 1.640
10.66000 9.803
10.68000 4.950
10.70000 3.493
10.72000 8.858
10.74000 6.942
10.76000 -0.847
10.78000 6.800
10.80000 -2.426
10.82000 -2.262
10.84000 6.909
10.86000 16.030
10.88000 20.271
10.90000 0.994
10.92000 8.226
10.94000 11.547
10.96000 0.466
10.98000 11.395
11.00000 5.838
11.02000 -3.848
11.04000 -0.283
11.06000 16.440
11.08000 24.365
11.10000 19.193
11.12000 13.399
11.14000 5.634
11.16000 4.791
11.18000 5.915
11.20000 5.293
11.22000 0.953
11.24000 0.522
11.26000 2.260
11.28000 7.582
11.30000 0.074
11.32000 -0.877
11.34000 13.449
11.36000 8.074
11.38000 11.713
11.40000 17.377
11.42000 17.816
11.44000 6.081
11.46000 11.660
11.48000 0.301
11.50000 -3.230
11.52000 5.108
11.54000 0.881
11.56000 5.238
11.58000 2.676
11.60000 12.172
11.62000 12.264
11.64000 2.427
11.66000 -0.380
11.68000 2.070
11.70000 1.192
11.72000 6.680
11.74000 6.024
11.76000 11.676
11.78000 15.676
11.80000 7.242
11.82000 -2.584
11.84000 -4.296
11.86000 -4.364
11.88000 8.645
11.90000 2.942
11.92000 7.091
11.94000 19.637
11.96000 22.458
11.98000 11.718
12.00000 12.892
12.02000 6.686
12.04000 15.911
12.06000 20.799
12.08000 15.804
12.10000 9.215
12.12000 10.634
12.14000 15.144
12.16000 5.432
12.18000 7.811
12.20000 16.224
12.22000 4.053
12.24000 11.174
12.26000 13.294
12.28000 9.742
12.30000 15.858
12.32000 12.446
12.34000 2.763
12.36000 12.847
12.38000 11.609
12.40000 12.956
12.42000 21.670
12.44000 13.272
12.46000 1.156
12.48000 12.199
12.50000 10.722
12.52000 15.108
12.54000 15.757
12.56000 12.705
12.58000 15.851
12.60000 13.311
12.62000 -0.634
12.64000 4.237
12.66000 10.249
12.68000 4.432
12.70000 11.982
12.72000 13.682
12.74000 10.004
12.76000 3.017
12.78000 2.238
12.80000 2.505
12.82000 -3.658
12.84000 14.409
12.86000 20.678
12.88000 7.464
12.90000 5.221
12.92000 9.537
12.94000 15.037
12.96000 17.470
12.98000 21.171
13.00000 9.627
13.02000 5.408
13.04000 4.086
13.06000 2.265
13.08000 5.637
13.10000 11.493
13.12000 21.343
13.14000 9.752
13.16000 12.281
13.18000 14.885
13.20000 16.153
13.22000 13.985
13.24000 11.218
13.26000 8.268
13.28000 9.253
13.30000 6.333
13.32000 -0.322
13.34000 1.565
13.36000 3.039
13.38000 7.556
13.40000 9.623
13.42000 9.432
13.44000 21.054
13.46000 18.798
13.48000 1.767
13.50000 1.485
13.52000 2.646
13.54000 8.747
13.56000 8.201
13.58000 5.507
13.60000 2.503
13.62000 13.315
13.64000 12.399
13.66000 11.101
13.68000 11.567
13.70000 -1.819
13.72000 11.130
13.74000 19.772
13.76000 8.250
13.78000 1.154
13.80000 2.673
13.82000 1.529
13.84000 5.072
13.86000 4.549
13.88000 5.349
13.90000 7.976
13.92000 10.413
13.94000 8.457
13.96000 0.917
13.98000 -3.292
14.00000 6.981
14.02000 9.203
14.04000 4.424
14.06000 9.402
14.08000 11.405
14.10000 24.209
14.12000 21.628
14.14000 16.089
14.16000 16.294
14.18000 11.730
14.20000 2.835
14.22000 1.800
14.24000 -4.437
14.26000 1.094
14.28000 15.986
14.30000 9.250
14.32000 4.363
14.34000 4.492
14.36000 6.221
14.38000 4.225
14.40000 0.938
14.42000 6.438
14.44000 10.448
14.46000 16.854
14.48000 18.783
14.50000 10.804
14.52000 6.100
14.54000 7.181
14.56000 4.764
14.58000 8.631
14.60000 11.639
14.62000 16.623
14.64000 14.223
14.66000 5.058
14.68000 8.176
14.70000 10.444
14.72000 7.489
14.74000 0.323
14.76000 11.539
14.78000 13.030
14.80000 6.677
14.82000 0.615
14.84000 5.873
14.86000 15.168
14.88000 1.016
14.90000 -1.704
14.92000 5.710
14.94000 12.392
14.96000 3.084
14.98000 2.265
15.00000 15.630
15.02000 13.424
15.04000 3.757
15.06000 2.599
15.08000 6.084
15.10000 0.878
15.12000 8.116
15.14000 5.849
15.16000 7.865
15.18000 4.919
15.20000 -2.216
15.22000 7.243
15.24000 7.073
15.26000 3.290
15.28000 2.744
15.30000 -1.071
15.32000 4.269
15.34000 10.481
15.36000 5.919
15.38000 6.855
15.40000 8.240
15.42000 9.943
15.44000 7.670
15.46000 0.614
15.48000 0.928
15.50000 -0.975
15.52000 -0.761
15.54000 9.161
15.56000 2.490
15.58000 4.669
15.60000 2.725
15.62000 6.460
15.64000 0.946
15.66000 9.282
15.68000 9.657
15.70000 5.475
15.72000 7.969
15.74000 8.952
15.76000 10.658
15.78000 11.535
15.80000 12.889
15.82000 4.408
15.84000 6.066
15.86000 18.698
15.88000 13.445
15.90000 9.329
15.92000 12.700
15.94000 13.031
15.96000 3.898
15.98000 6.534
16.00000 14.082
16.02000 6.042
16.04000 8.186
16.06000 13.367
16.08000 14.853
16.10000 4.952
16.12000 -1.126
16.14000 6.126
16.16000 8.600
16.18000 14.385
16.20000 14.997
16.22000 9.859
16.24000 1.052
16.26000 -4.384
16.28000 3.651
16.30000 1.870
16.32000 2.058
16.34000 8.387
16.36000 5.555
16.38000 -1.218
16.40000 3.429
16.42000 -2.745
16.44000 5.476
16.46000 10.519
16.48000 3.951
16.50000 7.782
16.52000 10.478
16.54000 16.348
16.56000 13.283
16.58000 11.974
16.60000 3.437
16.62000 3.202
16.64000 3.653
16.66000 8.548
16.68000 8.575
16.70000 5.875
16.72000 -0.610
16.74000 -0.809
16.76000 0.906
16.78000 3.124
16.80000 10.737
16.82000 10.237
16.84000 8.389
16.86000 10.440
16.88000 6.201
16.90000 14.137
16.92000 3.295
16.94000 3.149
16.96000 2.671
16.98000 13.035
17.00000 15.246
17.02000 20.500
17.04000 1.904
17.06000 -3.238
17.08000 2.443
17.10000 2.072
17.12000 4.533
17.14000 4.129
17.16000 15.005
17.18000 12.818
17.20000 13.728
17.22000 17.456
17.24000 7.376
17.26000 10.555
17.28000 10.463
17.30000 7.914
17.32000 7.165
17.34000 7.630
17.36000 6.411
17.38000 8.160
17.40000 11.385
17.42000 8.129
17.44000 0.397
17.46000 -4.313
17.48000 4.198
17.50000 6.011
17.52000 4.529
17.54000 4.477
17.56000 5.394
17.58000 6.882
17.60000 4.119
17.62000 4.711
17.64000 7.885
17.66000 8.243
17.68000 7.964
17.70000 9.648
17.72000 15.677
17.74000 11.923
17.76000 8.855
17.78000 4.853
17.80000 -0.652
17.82000 -1.428
17.84000 1.786
17.86000 5.016
17.88000 16.338
17.90000 15.828
17.92000 3.535
17.94000 -2.064
17.96000 3.284
17.98000 9.761
18.00000 8.357
18.02000 3.573
18.04000 3.285
18.06000 7.196
18.08000 13.696
18.10000 14.406
18.12000 16.748
18.14000 7.546
18.16000 2.261
18.18000 2.926
18.20000 6.676
18.22000 13.664
18.24000 3.051
18.26000 8.638
18.28000 13.657
18.30000 6.299
18.32000 7.461
18.34000 13.758
18.36000 0.429
18.38000 8.433
18.40000 5.123
18.42000 -2.558
18.44000 -4.285
18.46000 4.024
18.48000 7.523
18.50000 9.850
18.52000 13.618
18.54000 10.374
18.56000 4.877
18.58000 6.350
18.60000 11.103
18.62000 3.283
18.64000 -2.107
18.66000 7.182
18.68000 11.690
18.70000 13.046
18.72000 3.536
18.74000 -2.159
18.76000 5.106
18.78000 0.814
18.80000 -0.802
18.82000 2.310
18.84000 0.348
18.86000 5.813
18.88000 9.102
18.90000 8.742
18.92000 1.545
18.94000 4.495
18.96000 5.246
18.98000 4.297
19.00000 7.656
19.02000 -1.697
19.04000 -0.195
19.06000 6.505
19.08000 3.496
19.10000 1.007
19.12000 -0.113
19.14000 -2.919
19.16000 6.823
19.18000 6.513
19.20000 9.508
19.22000 4.833
19.24000 2.137
19.26000 4.426
19.28000 7.321
19.30000 9.237
19.32000 5.184
19.34000 -1.544
19.36000 -0.139
19.38000 -0.797
19.40000 0.575
19.42000 0.786
19.44000 5.364
19.46000 3.134
19.48000 7.104
19.50000 5.293
19.52000 3.962
19.54000 1.817
19.56000 -4.232
19.58000 -2.868
19.60000 2.686
19.62000 2.807
19.64000 6.118
19.66000 -0.807
19.68000 -2.793
19.70000 5.539
19.72000 6.572
19.74000 0.702
19.76000 -0.482
19.78000 2.076
19.80000 4.382
19.82000 8.907
19.84000 9.285
19.86000 14.129
19.88000 6.154
19.90000 2.101
19.92000 4.235
19.94000 -0.079
19.96000 0.240
19.98000 -4.211
20.00000 -2.008
20.02000 0.282
20.04000 -0.522
20.06000 1.807
20.08000 5.462
20.10000 4.209
20.12000 3.091
20.14000 1.623
20.16000 4.017
20.18000 2.243
20.20000 0.706
20.22000 -0.340
20.24000 2.416
20.26000 4.529
20.28000 5.341
20.30000 0.811
20.32000 -0.310
20.34000 -0.552
20.36000 -1.030
20.38000 -0.130
20.40000 4.759
20.42000 1.560
20.44000 3.342
20.46000 2.217
20.48000 2.777
20.50000 4.648
20.52000 6.061
20.54000 3.960
20.56000 -0.942
20.58000 3.399
20.60000 6.604
20.62000 4.049
20.64000 -0.396
20.66000 -3.117
20.68000 2.185
20.70000 8.652
20.72000 -0.152
20.74000 -4.168
20.76000 -4.166
20.78000 0.371
20.80000 7.604
20.82000 6.478
20.84000 0.368
20.86000 -0.042
20.88000 6.792
20.90000 11.589
20.92000 10.665
20.94000 0.318
20.96000 1.573
20.98000 3.164
21.00000 -2.715
21.02000 2.136
21.04000 3.865
21.06000 6.243
21.08000 7.700
21.10000 1.896
21.12000 -2.329
21.14000 4.849
21.16000 7.623
21.18000 -0.709
21.20000 -1.569
21.22000 4.624
21.24000 5.387
21.26000 -2.694
21.28000 -0.508
21.30000 3.268
21.32000 9.892
21.34000 4.459
21.36000 6.438
21.38000 7.537
21.40000 4.107
21.42000 8.216
21.44000 2.453
21.46000 4.522
21.48000 10.874
21.50000 7.199
21.52000 3.477
21.54000 4.069
21.56000 2.436
21.58000 -2.347
21.60000 -0.773
21.62000 1.391
21.64000 -4.110
21.66000 1.092
21.68000 1.775
21.70000 0.744
21.72000 2.518
21.74000 4.367
21.76000 -2.472
21.78000 7.719
21.80000 9.285
21.82000 2.567
21.84000 -3.400
21.86000 1.232
21.88000 2.507
21.90000 3.593
21.92000 7.117
21.94000 4.559
21.96000 0.443
21.98000 3.840
22.00000 2.097
22.02000 -2.155
22.04000 -0.874
22.06000 3.834
22.08000 3.841
22.10000 2.893
22.12000 1.437
22.14000 5.901
22.16000 3.602
22.18000 1.588
22.20000 -3.824
22.22000 -3.528
22.24000 -1.332
22.26000 -0.545
22.28000 4.647
22.30000 5.063
22.32000 0.988
22.34000 -3.378
22.36000 1.552
22.38000 4.622
22.40000 8.438
22.42000 5.682
22.44000 -3.507
22.46000 -1.522
22.48000 1.510
22.50000 4.420
22.52000 0.131
22.54000 1.080
22.56000 2.562
22.58000 -2.283
22.60000 2.616
22.62000 4.061
22.64000 3.231
22.66000 7.652
22.68000 4.492
22.70000 5.091
22.72000 0.982
22.74000 3.133
22.76000 -1.136
22.78000 -1.058
22.80000 4.631
22.82000 4.719
22.84000 3.931
22.86000 3.091
22.88000 1.698
22.90000 0.129
22.92000 -0.817
22.94000 0.224
22.96000 -0.045
22.98000 4.668
23.00000 2.733
23.02000 1.102
23.04000 1.336
23.06000 1.971
23.08000 5.543
23.10000 3.672
23.12000 -0.591
23.14000 -0.081
23.16000 1.508
23.18000 2.944
23.20000 -0.632
23.22000 -2.569
23.24000 4.818
23.26000 2.074
23.28000 3.004
23.30000 1.627
23.32000 1.519
23.34000 -2.913
23.36000 -4.018
23.38000 1.944
23.40000 5.141
23.42000 6.771
23.44000 1.648
23.46000 4.348
23.48000 7.392
23.50000 -2.253
23.52000 0.364
23.54000 5.662
23.56000 -1.253
23.58000 -1.891
23.60000 2.462
23.62000 -1.019
23.64000 -1.601
23.66000 3.235
23.68000 -0.687
23.70000 -2.660
23.72000 6.252
23.74000 5.072
23.76000 3.675
23.78000 1.608
23.80000 1.262
23.82000 -3.607
23.84000 -2.497
23.86000 4.552
23.88000 3.410
23.90000 0.503
23.92000 6.806
23.94000 8.744
23.96000 3.511
23.98000 0.519
24.00000 2.758
24.02000 2.126
24.04000 -2.622
24.06000 2.167
24.08000 3.348
24.10000 3.774
24.12000 1.458
24.14000 -3.244
24.16000 6.468
24.18000 9.253
24.20000 7.385
24.22000 4.869
24.24000 3.751
24.26000 1.707
24.28000 2.703
24.30000 8.590
24.32000 3.728
24.34000 7.616
24.36000 6.559
24.38000 1.604
24.40000 2.947
24.42000 7.415
24.44000 9.605
24.46000 2.016
24.48000 -0.643
24.50000 -0.598
24.52000 0.081
24.54000 -3.931
24.56000 2.677
24.58000 4.252
24.60000 8.426
24.62000 5.865
24.64000 0.450
24.66000 5.378
24.68000 1.392
24.70000 2.448
24.72000 6.553
24.74000 4.291
24.76000 1.368
24.78000 -2.240
24.80000 3.019
24.82000 6.509
24.84000 2.184
24.86000 3.044
24.88000 4.402
24.90000 1.711
24.92000 4.130
24.94000 1.892
24.96000 -3.293
24.98000 0.796
25.00000 7.399
25.02000 5.758
25.04000 7.429
25.06000 3.523
25.08000 4.527
25.10000 10.457
25.12000 7.305
25.14000 1.020
25.16000 3.731
25.18000 9.582
25.20000 6.297
25.22000 5.329
25.24000 8.372
25.26000 8.052
25.28000 4.886
25.30000 8.631
25.32000 7.885
25.34000 7.547
25.36000 8.339
25.38000 8.545
25.40000 2.719
25.42000 2.339
25.44000 -3.868
25.46000 -2.928
25.48000 -0.150
25.50000 0.404
25.52000 2.083
25.54000 2.148
25.56000 3.686
25.58000 -0.272
25.60000 1.301
25.62000 0.143
25.64000 1.879
25.66000 2.754
25.68000 6.315
25.70000 0.962
25.72000 -2.388
25.74000 -2.009
25.76000 2.422
25.78000 8.637
25.80000 6.611
25.82000 7.888
25.84000 5.513
25.86000 2.098
25.88000 2.700
25.90000 1.889
25.92000 1.160
25.94000 3.187
25.96000 3.363
25.98000 -1.582
26.00000 2.403
26.02000 1.432
26.04000 3.875
26.06000 0.677
26.08000 0.980
26.10000 2.867
26.12000 -1.035
26.14000 -1.039
26.16000 4.750
26.18000 6.702
26.20000 3.346
26.22000 2.331
26.24000 9.395
26.26000 7.808
26.28000 4.436
26.30000 5.978
26.32000 8.061
26.34000 2.302
26.36000 -1.066
26.38000 -0.234
26.40000 3.018
26.42000 6.984
26.44000 4.914
26.46000 3.053
26.48000 0.699
26.50000 2.225
26.52000 2.536
26.54000 2.875
26.56000 -0.175
26.58000 -0.838
26.60000 -0.580
26.62000 2.729
26.64000 8.002
26.66000 10.969
26.68000 12.371
26.70000 8.138
26.72000 0.668
26.74000 0.715
26.76000 2.490
26.78000 7.219
26.80000 5.344
26.82000 4.161
26.84000 -1.800
26.86000 7.715
26.88000 6.234
26.90000 2.879
26.92000 3.642
26.94000 5.023
26.96000 0.898
26.98000 1.521
27.00000 7.345
27.02000 6.721
27.04000 1.404
27.06000 0.902
27.08000 -0.232
27.10000 -2.188
27.12000 1.033
27.14000 3.846
27.16000 6.910
27.18000 9.151
27.20000 5.498
27.22000 -1.209
27.24000 0.257
27.26000 -2.302
27.28000 -0.299
27.30000 4.631
27.32000 9.367
27.34000 6.664
27.36000 -1.011
27.38000 -3.769
27.40000 1.623
27.42000 3.670
27.44000 4.228
27.46000 4.817
27.48000 7.480
27.50000 2.601
27.52000 0.608
27.54000 1.034
27.56000 8.441
27.58000 7.031
27.60000 9.945
27.62000 4.935
27.64000 1.998
27.66000 0.590
27.68000 5.307
27.70000 8.221
27.72000 4.375
27.74000 4.016
27.76000 2.867
27.78000 1.581
27.80000 2.001
27.82000 3.956
27.84000 4.322
27.86000 -1.333
27.88000 0.661
27.90000 -2.687
27.92000 -3.426
27.94000 2.957
27.96000 9.117
27.98000 6.872
28.00000 1.401
28.02000 3.642
28.04000 3.427
28.06000 4.324
28.08000 7.650
28.10000 1.212
28.12000 -3.279
28.14000 4.569
28.16000 8.041
28.18000 5.131
28.20000 4.038
28.22000 5.860
28.24000 1.339
28.26000 2.299
28.28000 0.280
28.30000 4.202
28.32000 -0.974
28.34000 -0.661
28.36000 4.636
28.38000 0.565
28.40000 1.348
28.42000 -0.003
28.44000 0.347
28.46000 5.603
28.48000 7.597
28.50000 3.585
28.52000 9.669
28.54000 7.447
28.56000 5.489
28.58000 2.971
28.60000 1.721
28.62000 4.914
28.64000 -3.735
28.66000 -2.506
28.68000 -0.899
28.70000 4.662
28.72000 8.130
28.74000 6.393
28.76000 1.514
28.78000 0.478
28.80000 3.320
28.82000 2.591
28.84000 4.673
28.86000 7.102
28.88000 5.065
28.90000 -0.814
28.92000 1.239
28.94000 0.223
28.96000 1.633
28.98000 0.570
29.00000 1.104
29.02000 3.962
29.04000 3.365
29.06000 5.441
29.08000 1.605
29.10000 1.142
29.12000 2.621
29.14000 1.213
29.16000 0.723
29.18000 1.916
29.20000 6.105
29.22000 2.185
29.24000 1.189
29.26000 -1.206
29.28000 2.978
29.30000 7.100
29.32000 10.718
29.34000 7.920
29.36000 2.780
29.38000 0.428
29.40000 1.001
29.42000 2.384
29.44000 5.536
29.46000 1.696
29.48000 3.161
29.50000 3.682
29.52000 -1.993
29.54000 -0.351
29.56000 1.729
29.58000 0.638
29.60000 1.781
29.62000 1.146
29.64000 3.396
29.66000 5.029
29.68000 4.218
29.70000 6.455
29.72000 6.796
29.74000 4.371
29.76000 8.380
29.78000 2.483
29.80000 -1.900
29.82000 -3.638
29.84000 3.706
29.86000 4.494
29.88000 0.401
29.90000 3.574
29.92000 2.751
29.94000 7.972
29.96000 3.134
29.98000 1.860
30.00000 0.119
30.02000 5.907
30.04000 4.427
30.06000 2.311
30.08000 0.959
30.10000 2.171
30.12000 6.818
30.14000 6.423
30.16000 4.520
30.18000 2.444
30.20000 0.264
30.22000 2.581
30.24000 3.465
30.26000 1.030
30.28000 -1.889
30.30000 3.464
30.32000 5.833
30.34000 4.888
30.36000 2.493
30.38000 6.686
30.40000 3.060
30.42000 -3.548
30.44000 0.550
30.46000 1.008
30.48000 1.998
30.50000 -0.872
30.52000 5.537
30.54000 8.335
30.56000 2.418
30.58000 2.907
30.60000 3.646
30.62000 4.113
30.64000 1.548
30.66000 1.072
30.68000 0.092
30.70000 1.246
30.72000 4.528
30.74000 8.695
30.76000 3.793
30.78000 2.407
30.80000 -0.385
30.82000 -0.049
30.84000 -1.909
30.86000 -1.977
30.88000 -1.647
30.90000 1.425
30.92000 2.800
30.94000 3.701
30.96000 6.810
30.98000 -0.918
31.00000 -3.489
31.02000 -0.083
31.04000 2.083
31.06000 6.008
31.08000 5.659
31.10000 5.883
31.12000 3.384
31.14000 5.948
31.16000 3.644
31.18000 2.085
31.20000 -0.880
31.22000 -1.536
31.24000 -2.204
31.26000 1.544
31.28000 3.073
31.30000 -1.216
31.32000 0.221
31.34000 -1.641
31.36000 1.426
31.38000 -0.083
31.40000 1.196
31.42000 2.439
31.44000 0.634
31.46000 -0.656
31.48000 1.861
31.50000 3.650
31.52000 0.852
31.54000 -0.498
31.56000 -2.373
31.58000 -1.200
31.60000 -3.592
31.62000 -0.769
31.64000 1.688
31.66000 4.483
31.68000 2.849
31.70000 3.136
31.72000 0.493
31.74000 -0.177
31.76000 1.924
31.78000 1.072
31.80000 2.931
31.82000 -0.214
31.84000 1.985
31.86000 0.275
31.88000 4.409
31.90000 6.400
31.92000 1.587
31.94000 0.070
31.96000 -3.580
31.98000 0.662
32.00000 2.549
32.02000 1.148
32.04000 2.390
32.06000 6.778
32.08000 8.159
32.10000 1.737
32.12000 1.050
32.14000 4.141
32.16000 3.323
32.18000 3.877
32.20000 2.022
32.22000 -0.392
32.24000 -1.907
32.26000 -0.772
32.28000 -0.463
32.30000 0.816
32.32000 0.377
32.34000 3.412
32.36000 7.948
32.38000 7.387
32.40000 1.568
32.42000 -1.994
32.44000 -0.972
32.46000 2.098
32.48000 5.900
32.50000 6.625
32.52000 3.609
32.54000 4.211
32.56000 6.408
32.58000 8.041
32.60000 6.805
32.62000 2.496
32.64000 1.423
32.66000 -0.151
32.68000 -2.917
32.70000 -0.787
32.72000 -3.539
32.74000 0.149
32.76000 -0.205
32.78000 -1.720
32.80000 0.608
32.82000 2.373
32.84000 5.829
32.86000 5.904
32.88000 5.038
32.90000 6.278
32.92000 4.920
32.94000 10.570
32.96000 5.997
32.98000 3.611
33.00000 4.781
33.02000 3.047
33.04000 -0.320
33.06000 1.545
33.08000 5.538
33.10000 3.381
33.12000 1.682
33.14000 1.264
33.16000 1.877
33.18000 4.503
33.20000 -0.044
33.22000 0.228
33.24000 3.121
33.26000 7.795
33.28000 4.777
33.30000 3.970
33.32000 3.017
33.34000 2.933
33.36000 1.541
33.38000 5.750
33.40000 6.469
33.42000 4.342
33.44000 1.730
33.46000 3.825
33.48000 3.859
33.50000 1.720
33.52000 0.386
33.54000 0.773
33.56000 0.433
33.58000 0.337
33.60000 -2.907
33.62000 -3.227
33.64000 -0.208
33.66000 4.672
33.68000 1.852
33.70000 3.584
33.72000 5.716
33.74000 1.857
33.76000 0.883
33.78000 4.138
33.80000 3.237
33.82000 3.318
33.84000 0.934
33.86000 1.186
33.88000 2.285
33.90000 -1.130
33.92000 0.726
33.94000 0.932
33.96000 0.250
33.98000 -0.605
34.00000 -1.118
34.02000 1.736
34.04000 4.238
34.06000 0.251
34.08000 -3.516
34.10000 -2.240
34.12000 -1.701
34.14000 -2.214
34.16000 -1.025
34.18000 3.251
34.20000 5.166
34.22000 7.138
34.24000 0.618
34.26000 -0.333
34.28000 -1.420
34.30000 5.920
34.32000 8.697
34.34000 6.885
34.36000 2.483
34.38000 -1.758
34.40000 1.783
34.42000 5.081
34.44000 3.499
34.46000 0.802
34.48000 3.709
34.50000 2.192
34.52000 7.710
34.54000 6.938
34.56000 2.363
34.58000 5.177
34.60000 11.343
34.62000 7.661
34.64000 2.863
34.66000 1.542
34.68000 3.295
34.70000 6.685
34.72000 7.870
34.74000 3.807
34.76000 5.415
34.78000 -2.277
34.80000 -0.221
34.82000 0.488
34.84000 5.066
34.86000 6.288
34.88000 4.398
34.90000 3.640
34.92000 4.605
34.94000 4.688
34.96000 7.048
34.98000 7.426
35.00000 6.286
35.02000 4.041
35.04000 6.027
35.06000 7.768
35.08000 2.873
35.10000 7.028
35.12000 7.637
35.14000 3.125
35.16000 7.861
35.18000 4.254
35.20000 -3.445
35.22000 2.597
35.24000 6.960
35.26000 6.918
35.28000 8.763
35.30000 8.428
35.32000 6.969
35.34000 0.372
35.36000 3.007
35.38000 5.151
35.40000 4.191
35.42000 6.259
35.44000 5.057
35.46000 2.568
35.48000 3.853
35.50000 5.922
35.52000 4.405
35.54000 4.898
35.56000 6.498
35.58000 1.662
35.60000 6.062
35.62000 7.872
35.64000 0.042
35.66000 0.608
35.68000 4.821
35.70000 6.464
35.72000 2.305
35.74000 5.557
35.76000 5.999
35.78000 4.563
35.80000 6.030
35.82000 7.160
35.84000 4.734
35.86000 0.949
35.88000 1.863
35.90000 5.400
35.92000 7.073
35.94000 11.242
35.96000 7.356
35.98000 3.793
36.00000 4.840
36.02000 3.490
36.04000 2.299
36.06000 4.024
36.08000 5.841
36.10000 4.543
36.12000 5.029
36.14000 7.157
36.16000 3.116
36.18000 2.145
36.20000 5.363
36.22000 8.869
36.24000 7.529
36.26000 5.509
36.28000 6.861
36.30000 6.965
36.32000 9.090
36.34000 9.880
36.36000 7.370
36.38000 7.182
36.40000 11.622
36.42000 10.734
36.44000 5.595
36.46000 3.981
36.48000 5.399
36.50000 3.173
36.52000 -3.410
36.54000 -3.413
36.56000 8.362
36.58000 7.900
36.60000 5.490
36.62000 7.234
36.64000 2.929
36.66000 8.040
36.68000 7.268
36.70000 3.256
36.72000 -0.087
36.74000 1.801
36.76000 3.643
36.78000 3.083
36.80000 0.633
36.82000 1.246
36.84000 2.044
36.86000 2.789
36.88000 7.536
36.90000 1.611
36.92000 0.512
36.94000 1.194
36.96000 2.455
36.98000 6.263
37.00000 1.775
37.02000 4.577
37.04000 2.996
37.06000 3.189
37.08000 2.779
37.10000 -1.174
37.12000 -1.585
37.14000 4.786
37.16000 6.102
37.18000 2.960
37.20000 3.205
37.22000 0.793
37.24000 0.436
37.26000 3.026
37.28000 4.326
37.30000 2.340
37.32000 1.845
37.34000 1.755
37.36000 3.094
37.38000 5.897
37.40000 0.834
37.42000 1.535
37.44000 -3.131
37.46000 -0.643
37.48000 2.903
37.50000 5.365
37.52000 5.180
37.54000 3.720
37.56000 3.528
37.58000 4.722
37.60000 -1.168
37.62000 2.203
37.64000 1.064
37.66000 0.818
37.68000 4.974
37.70000 5.953
37.72000 2.385
37.74000 -3.564
37.76000 1.939
37.78000 1.253
37.80000 -1.966
37.82000 0.434
37.84000 3.607
37.86000 5.812
37.88000 2.868
37.90000 3.869
37.92000 5.010
37.94000 7.111
37.96000 5.184
37.98000 1.077
38.00000 3.007
38.02000 5.348
38.04000 3.616
38.06000 7.508
38.08000 9.032
38.10000 11.589
38.12000 14.501
38.14000 15.695
38.16000 13.091
38.18000 12.552
38.20000 11.156
38.22000 12.337
38.24000 11.152
38.26000 14.524
38.28000 12.130
38.30000 6.330
38.32000 9.534
38.34000 18.323
38.36000 17.124
38.38000 15.301
38.40000 13.441
38.42000 16.555
38.44000 16.298
38.46000 11.333
38.48000 14.383
38.50000 15.013
38.52000 12.713
38.54000 16.244
38.56000 14.005
38.58000 14.541
38.60000 18.605
38.62000 16.929
38.64000 15.857
38.66000 22.701
38.68000 24.117
38.70000 19.816
38.72000 23.177
38.74000 25.074
38.76000 24.859
38.78000 23.322
38.80000 22.229
38.82000 21.274
38.84000 24.549
38.86000 26.663
38.88000 27.085
38.90000 29.668
38.92000 33.259
38.94000 32.241
38.96000 28.628
38.98000 28.071
39.00000 29.680
39.02000 35.072
39.04000 36.797
39.06000 34.900
39.08000 33.242
39.10000 35.735
39.12000 36.773
39.14000 35.915
39.16000 38.807
39.18000 44.269
39.20000 42.897
39.22000 45.180
39.24000 48.654
39.26000 48.568
39.28000 53.526
39.30000 55.254
39.32000 54.396
39.34000 60.226
39.36000 61.397
39.38000 64.980
39.40000 68.260
39.42000 75.559
39.44000 78.025
39.46000 77.973
39.48000 73.398
39.50000 76.647
39.52000 91.463
39.54000 99.566
39.56000 101.508
39.58000 106.570
39.60000 112.514
39.62000 113.216
39.64000 119.526
39.66000 125.561
39.68000 137.742
39.70000 144.967
39.72000 150.076
39.74000 163.869
39.76000 169.182
39.78000 175.831
39.80000 185.722
39.82000 200.815
39.84000 210.628
39.86000 230.673
39.88000 249.522
39.90000 266.121
39.92000 277.037
39.94000 287.297
39.96000 307.911
39.98000 337.071
40.00000 362.382
40.02000 382.145
40.04000 405.632
40.06000 440.305
40.08000 473.696
40.10000 495.868
40.12000 524.456
40.14000 559.138
40.16000 586.588
40.18000 626.593
40.20000 662.551
40.22000 698.160
40.24000 734.992
40.26000 773.435
40.28000 795.549
40.30000 823.990
40.32000 851.673
40.34000 869.069
40.36000 902.273
40.38000 924.768
40.40000 938.394
40.42000 952.650
40.44000 961.498
40.46000 963.597
40.48000 970.871
40.50000 954.958
40.52000 949.091
40.54000 945.067
40.56000 928.056
40.58000 907.739
40.60000 887.235
40.62000 870.205
40.64000 856.593
40.66000 824.789
40.68000 794.266
40.70000 764.373
40.72000 747.275
40.74000 726.657
40.76000 703.042
40.78000 669.513
40.80000 638.087
40.82000 597.701
40.84000 577.615
40.86000 554.671
40.88000 525.349
40.90000 502.420
40.92000 472.781
40.94000 433.564
40.96000 410.329
40.98000 395.956
41.00000 381.214
41.02000 363.182
41.04000 342.695
41.06000 319.400
41.08000 290.477
41.10000 284.756
41.12000 276.429
41.14000 254.197
41.16000 244.938
41.18000 231.028
41.20000 208.636
41.22000 193.424
41.24000 189.497
41.26000 183.197
41.28000 172.028
41.30000 161.280
41.32000 153.179
41.34000 142.285
41.36000 138.732
41.38000 133.928
41.40000 128.727
41.42000 119.381
41.44000 106.923
41.46000 101.978
41.48000 101.210
41.50000 99.106
41.52000 97.604
41.54000 92.424
41.56000 83.946
41.58000 84.332
41.60000 81.342
41.62000 74.811
41.64000 67.291
41.66000 70.707
41.68000 66.831
41.70000 58.125
41.72000 56.729
41.74000 62.759
41.76000 55.450
41.78000 53.542
41.80000 47.811
41.82000 44.445
41.84000 38.370
41.86000 41.583
41.88000 38.627
41.90000 33.415
41.92000 33.728
41.94000 35.558
41.96000 34.488
41.98000 31.023
42.00000 30.520
42.02000 31.854
42.04000 31.895
42.06000 24.116
42.08000 24.327
42.10000 22.081
42.12000 20.286
42.14000 21.776
42.16000 18.987
42.18000 21.463
42.20000 16.614
42.22000 14.496
42.24000 15.517
42.26000 15.421
42.28000 22.669
42.30000 18.947
42.32000 16.308
42.34000 15.482
42.36000 13.670
42.38000 13.222
42.40000 10.968
42.42000 10.933
42.44000 14.511
42.46000 9.950
42.48000 4.744
42.50000 8.456
42.52000 14.282
42.54000 10.341
42.56000 7.896
42.58000 8.110
42.60000 2.726
42.62000 2.673
42.64000 8.081
42.66000 5.564
42.68000 5.065
42.70000 7.705
42.72000 8.774
42.74000 11.762
42.76000 8.771
42.78000 4.419
42.80000 0.460
42.82000 4.968
42.84000 5.305
42.86000 4.712
42.88000 3.988
42.90000 5.047
42.92000 1.046
42.94000 -3.507
42.96000 -1.263
42.98000 2.685
43.00000 0.366
43.02000 -1.203
43.04000 1.051
43.06000 6.737
43.08000 3.959
43.10000 2.384
43.12000 4.752
43.14000 3.676
43.16000 1.341
43.18000 -0.661
43.20000 -1.411
43.22000 1.803
43.24000 -1.654
43.26000 -0.559
43.28000 -2.394
43.30000 0.321
43.32000 2.441
43.34000 1.526
43.36000 -0.652
43.38000 0.139
43.40000 -0.554
43.42000 -0.767
43.44000 -1.614
43.46000 -3.434
43.48000 0.182
43.50000 -0.920
43.52000 -1.737
43.54000 1.249
43.56000 4.965
43.58000 1.289
43.60000 -2.022
43.62000 -0.335
43.64000 1.101
43.66000 4.642
43.68000 3.516
43.70000 -0.124
43.72000 -3.398
43.74000 -1.092
43.76000 -1.686
43.78000 2.551
43.80000 2.048
43.82000 -0.928
43.84000 -1.726
43.86000 -1.219
43.88000 1.650
43.90000 0.754
43.92000 -3.005
43.94000 -2.607
43.96000 -0.328
43.98000 -1.246
44.00000 -2.795
44.02000 0.851
44.04000 -1.234
44.06000 -3.349
44.08000 1.901
44.10000 0.598
44.12000 2.260
44.14000 0.504
44.16000 -0.259
44.18000 1.523
44.20000 0.303
44.22000 -2.956
44.24000 -2.281
44.26000 1.154
44.28000 0.155
44.30000 -0.217
44.32000 4.510
44.34000 6.554
44.36000 2.953
44.38000 2.608
44.40000 0.600
44.42000 -3.291
44.44000 3.763
44.46000 6.608
44.48000 4.767
44.50000 0.397
44.52000 -3.283
44.54000 -0.942
44.56000 -2.024
44.58000 0.700
44.60000 -0.943
44.62000 1.867
44.64000 4.173
44.66000 2.597
44.68000 0.976
44.70000 -2.155
44.72000 -0.935
44.74000 -3.290
44.76000 -3.227
44.78000 -0.768
44.80000 -0.410
44.82000 0.010
44.84000 1.845
44.86000 0.128
44.88000 2.765
44.90000 3.934
44.92000 1.553
44.94000 2.519
44.96000 1.632
44.98000 0.155
45.00000 1.809
45.02000 0.685
45.04000 0.269
45.06000 2.957
45.08000 -0.039
45.10000 2.165
45.12000 2.048
45.14000 2.341
45.16000 2.987
45.18000 2.257
45.20000 0.215
45.22000 2.652
45.24000 -0.642
45.26000 2.534
45.28000 4.676
45.30000 1.500
45.32000 -3.294
45.34000 -0.050
45.36000 4.488
45.38000 0.703
45.40000 -0.832
45.42000 2.046
45.44000 2.123
45.46000 3.300
45.48000 5.102
45.50000 7.079
45.52000 6.854
45.54000 6.348
45.56000 7.247
45.58000 6.710
45.60000 5.530
45.62000 6.316
45.64000 4.242
45.66000 7.303
45.68000 7.822
45.70000 7.966
45.72000 9.782
45.74000 11.776
45.76000 12.206
45.78000 10.089
45.80000 8.448
45.82000 10.673
45.84000 14.486
45.86000 13.048
45.88000 13.365
45.90000 9.446
45.92000 9.215
45.94000 16.360
45.96000 18.309
45.98000 16.033
46.00000 15.284
46.02000 16.885
46.04000 18.405
46.06000 17.754
46.08000 18.740
46.10000 21.280
46.12000 26.026
46.14000 25.406
46.16000 25.241
46.18000 25.649
46.20000 28.876
46.22000 35.029
46.24000 32.566
46.26000 33.074
46.28000 34.612
46.30000 34.065
46.32000 35.389
46.34000 41.727
46.36000 45.198
46.38000 42.479
46.40000 46.403
46.42000 54.810
46.44000 52.477
46.46000 53.408
46.48000 56.486
46.50000 60.228
46.52000 68.475
46.54000 66.904
46.56000 67.913
46.58000 72.923
46.60000 76.035
46.62000 76.645
46.64000 83.479
46.66000 87.020
46.68000 87.903
46.70000 95.265
46.72000 103.737
46.74000 102.403
46.76000 106.331
46.78000 112.301
46.80000 118.904
46.82000 115.687
46.84000 119.368
46.86000 128.463
46.88000 131.044
46.90000 129.995
46.92000 134.087
46.94000 138.573
46.96000 145.790
46.98000 145.397
47.00000 143.284
47.02000 155.051
47.04000 156.401
47.06000 151.252
47.08000 150.046
47.10000 145.130
47.12000 151.673
47.14000 150.480
47.16000 146.267
47.18000 140.399
47.20000 134.447
47.22000 138.223
47.24000 141.584
47.26000 133.579
47.28000 131.532
47.30000 134.042
47.32000 126.456
47.34000 118.738
47.36000 121.205
47.38000 124.306
47.40000 116.662
47.42000 103.589
47.44000 102.590
47.46000 96.917
47.48000 93.719
47.50000 89.083
47.52000 81.838
47.54000 81.904
47.56000 73.828
47.58000 75.039
47.60000 73.776
47.62000 69.674
47.64000 66.641
47.66000 63.466
47.68000 56.882
47.70000 58.213
47.72000 56.084
47.74000 54.774
47.76000 46.425
47.78000 42.351
47.80000 44.767
47.82000 43.803
47.84000 42.035
47.86000 41.358
47.88000 37.271
47.90000 35.745
47.92000 28.664
47.94000 23.540
47.96000 24.137
47.98000 23.541
48.00000 23.195
48.02000 21.858
48.04000 22.082
48.06000 19.439
48.08000 17.948
48.10000 15.375
48.12000 14.933
48.14000 15.758
48.16000 15.218
48.18000 13.105
48.20000 8.520
48.22000 8.838
48.24000 6.744
48.26000 7.851
48.28000 9.910
48.30000 10.129
48.32000 6.945
48.34000 6.938
48.36000 6.672
48.38000 6.599
48.40000 3.817
48.42000 4.683
48.44000 3.125
48.46000 3.819
48.48000 2.485
48.50000 3.325
48.52000 7.114
48.54000 6.889
48.56000 2.659
48.58000 1.165
48.60000 1.204
48.62000 4.108
48.64000 1.703
48.66000 1.829
48.68000 1.544
48.70000 2.087
48.72000 -1.854
48.74000 -1.638
48.76000 2.700
48.78000 3.508
48.80000 2.410
48.82000 -0.881
48.84000 1.770
48.86000 0.757
48.88000 1.624
48.90000 0.645
48.92000 2.555
48.94000 -0.319
48.96000 -0.912
48.98000 2.679
49.00000 -1.017
49.02000 -2.457
49.04000 -2.739
49.06000 -0.430
49.08000 5.974
49.10000 5.459
49.12000 3.385
49.14000 -1.922
49.16000 -2.800
49.18000 4.780
49.20000 3.447
49.22000 -0.050
49.24000 -1.255
49.26000 -1.716
49.28000 0.208
49.30000 -0.551
49.32000 2.214
49.34000 -0.022
49.36000 -1.257
49.38000 0.988
49.40000 -0.862
49.42000 1.428
49.44000 1.202
49.46000 0.556
49.48000 -0.088
49.50000 -1.507
49.52000 0.684
49.54000 1.337
49.56000 1.962
49.58000 2.185
49.60000 0.923
49.62000 -0.773
49.64000 -2.725
49.66000 -0.448
49.68000 -0.233
49.70000 4.831
49.72000 4.756
49.74000 3.454
49.76000 -2.541
49.78000 -0.843
49.80000 -0.271
49.82000 2.564
49.84000 0.206
49.86000 1.223
49.88000 3.212
49.90000 6.095
49.92000 2.157
49.94000 -0.690
49.96000 1.363
49.98000 0.194
50.00000 -2.596
50.02000 2.802
50.04000 4.101
50.06000 -0.430
50.08000 -2.676
50.10000 -0.961
50.12000 2.185
50.14000 3.455
50.16000 -1.623
50.18000 -2.666
50.20000 -0.537
50.22000 -0.895
50.24000 -1.406
50.26000 1.252
50.28000 3.813
50.30000 3.683
50.32000 7.143
50.34000 6.793
50.36000 3.870
50.38000 7.270
50.40000 7.057
50.42000 2.769
50.44000 1.610
50.46000 1.278
50.48000 2.207
50.50000 -0.010
50.52000 -2.630
50.54000 -0.878
50.56000 2.425
50.58000 2.611
50.60000 3.079
50.62000 1.760
50.64000 2.587
50.66000 1.389
50.68000 2.868
50.70000 3.716
50.72000 1.303
50.74000 3.719
50.76000 2.700
50.78000 -1.758
50.80000 0.586
50.82000 1.696
50.84000 1.597
50.86000 -1.503
50.88000 -0.463
50.90000 -0.177
50.92000 0.836
50.94000 1.926
50.96000 2.294
50.98000 -0.812
51.00000 1.378
51.02000 2.013
51.04000 1.898
51.06000 0.488
51.08000 0.235
51.10000 -2.234
51.12000 -1.613
51.14000 0.964
51.16000 0.738
51.18000 2.182
51.20000 3.842
51.22000 1.713
51.24000 1.440
51.26000 2.738
51.28000 5.059
51.30000 5.782
51.32000 3.440
51.34000 1.436
51.36000 3.591
51.38000 7.387
51.40000 5.520
51.42000 2.309
51.44000 4.168
51.46000 3.660
51.48000 1.387
51.50000 3.872
51.52000 3.866
51.54000 3.166
51.56000 -0.852
51.58000 4.248
51.60000 4.101
51.62000 4.944
51.64000 3.679
51.66000 0.190
51.68000 -2.559
51.70000 1.730
51.72000 0.832
51.74000 2.263
51.76000 2.480
51.78000 1.064
51.80000 -2.549
51.82000 -1.023
51.84000 2.513
51.86000 3.951
51.88000 7.057
51.90000 5.682
51.92000 2.451
51.94000 -0.774
51.96000 1.402
51.98000 -1.356
52.00000 -0.584
52.02000 6.654
52.04000 3.205
52.06000 0.631
52.08000 1.381
52.10000 0.411
52.12000 3.476
52.14000 4.509
52.16000 0.557
52.18000 0.520
52.20000 5.701
52.22000 6.166
52.24000 3.690
52.26000 5.556
52.28000 5.125
52.30000 5.110
52.32000 2.626
52.34000 2.389
52.36000 -0.623
52.38000 3.016
52.40000 1.343
52.42000 -1.055
52.44000 0.671
52.46000 0.390
52.48000 3.319
52.50000 2.095
52.52000 1.110
52.54000 0.028
52.56000 -2.257
52.58000 -0.867
52.60000 2.348
52.62000 0.454
52.64000 0.250
52.66000 0.580
52.68000 2.312
52.70000 3.013
52.72000 2.143
52.74000 -0.352
52.76000 2.958
52.78000 4.982
52.80000 1.862
52.82000 3.834
52.84000 3.557
52.86000 8.420
52.88000 7.275
52.90000 3.967
52.92000 3.783
52.94000 2.136
52.96000 4.479
52.98000 4.784
53.00000 1.955
53.02000 0.157
53.04000 -0.159
53.06000 -2.501
53.08000 -1.499
53.10000 1.734
53.12000 3.498
53.14000 3.648
53.16000 7.002
53.18000 7.750
53.20000 4.093
53.22000 1.662
53.24000 1.395
53.26000 2.950
53.28000 0.129
53.30000 4.377
53.32000 7.590
53.34000 3.893
53.36000 3.396
53.38000 2.836
53.40000 3.779
53.42000 2.646
53.44000 3.399
53.46000 3.971
53.48000 3.810
53.50000 2.786
53.52000 0.530
53.54000 4.390
53.56000 3.692
53.58000 1.915
53.60000 0.963
53.62000 1.208
53.64000 0.579
53.66000 0.377
53.68000 0.457
53.70000 2.692
53.72000 3.636
53.74000 2.464
53.76000 1.148
53.78000 2.533
53.80000 -0.220
53.82000 -0.822
53.84000 -1.640
53.86000 -2.496
53.88000 0.812
53.90000 -1.840
53.92000 2.097
53.94000 5.419
53.96000 2.929
53.98000 1.257
54.00000 3.755
54.02000 5.071
54.04000 1.848
54.06000 -2.492
54.08000 1.623
54.10000 2.921
54.12000 0.858
54.14000 -0.119
54.16000 3.994
54.18000 2.762
54.20000 2.895
54.22000 3.697
54.24000 3.212
54.26000 2.976
54.28000 3.267
54.30000 4.403
54.32000 2.483
54.34000 3.244
54.36000 2.460
54.38000 0.958
54.40000 -1.916
54.42000 1.385
54.44000 3.974
54.46000 2.066
54.48000 0.001
54.50000 2.176
54.52000 0.413
54.54000 2.668
54.56000 3.107
54.58000 0.634
54.60000 5.064
54.62000 1.452
54.64000 5.105
54.66000 3.041
54.68000 -0.619
54.70000 -1.592
54.72000 -2.170
54.74000 0.548
54.76000 5.710
54.78000 5.908
54.80000 1.387
54.82000 3.438
54.84000 5.515
54.86000 3.215
54.88000 0.553
54.90000 1.283
54.92000 7.568
54.94000 0.971
54.96000 -0.088
54.98000 3.574
55.00000 5.706
55.02000 5.441
55.04000 5.951
55.06000 4.327
55.08000 5.515
55.10000 2.900
55.12000 1.519
55.14000 1.283
55.16000 4.552
55.18000 3.204
55.20000 2.673
55.22000 -1.585
55.24000 -2.455
55.26000 -0.837
55.28000 0.512
55.30000 4.445
55.32000 4.917
55.34000 0.983
55.36000 0.157
55.38000 1.206
55.40000 7.656
55.42000 5.765
55.44000 1.658
55.46000 -1.466
55.48000 1.591
55.50000 5.707
55.52000 2.669
55.54000 2.793
55.56000 3.020
55.58000 2.477
55.60000 2.599
55.62000 5.537
55.64000 4.077
55.66000 2.682
55.68000 5.338
55.70000 1.417
55.72000 -1.470
55.74000 -0.157
55.76000 0.515
55.78000 0.758
55.80000 1.891
55.82000 0.108
55.84000 4.941
55.86000 6.065
55.88000 2.154
55.90000 3.209
55.92000 5.830
55.94000 3.525
55.96000 1.361
55.98000 -0.111
56.00000 -0.196
56.02000 -1.131
56.04000 1.587
56.06000 5.373
56.08000 5.079
56.10000 2.565
56.12000 5.334
56.14000 2.537
56.16000 -1.480
56.18000 2.743
56.20000 4.212
56.22000 0.776
56.24000 2.805
56.26000 1.116
56.28000 2.748
56.30000 2.256
56.32000 5.467
56.34000 3.054
56.36000 4.059
56.38000 4.109
56.40000 3.742
56.42000 0.246
56.44000 -2.417
56.46000 1.020
56.48000 3.337
56.50000 6.780
56.52000 3.880
56.54000 1.657
56.56000 4.537
56.58000 3.030
56.60000 2.807
56.62000 3.188
56.64000 4.371
56.66000 1.718
56.68000 4.730
56.70000 5.422
56.72000 4.417
56.74000 -0.479
56.76000 1.322
56.78000 4.059
56.80000 6.836
56.82000 7.065
56.84000 5.975
56.86000 4.490
56.88000 2.248
56.90000 0.581
56.92000 0.167
56.94000 -0.197
56.96000 -2.419
56.98000 -1.956
57.00000 2.754
57.02000 6.296
57.04000 7.301
57.06000 6.012
57.08000 4.251
57.10000 2.886
57.12000 2.503
57.14000 3.192
57.16000 0.219
57.18000 -0.164
57.20000 -1.646
57.22000 4.386
57.24000 7.868
57.26000 7.594
57.28000 3.666
57.30000 1.272
57.32000 5.064
57.34000 3.261
57.36000 -0.807
57.38000 -0.020
57.40000 2.674
57.42000 4.063
57.44000 5.894
57.46000 0.514
57.48000 -0.583
57.50000 -1.092
57.52000 0.092
57.54000 1.649
57.56000 2.392
57.58000 0.303
57.60000 0.853
57.62000 4.240
57.64000 2.528
57.66000 1.624
57.68000 2.395
57.70000 -0.374
57.72000 -0.657
57.74000 1.997
57.76000 2.545
57.78000 0.566
57.80000 3.715
57.82000 3.492
57.84000 1.369
57.86000 1.124
57.88000 -0.760
57.90000 0.115
57.92000 -2.393
57.94000 -0.763
57.96000 1.605
57.98000 3.617
58.00000 3.435
58.02000 5.293
58.04000 5.169
58.06000 3.458
58.08000 1.293
58.10000 0.861
58.12000 1.366
58.14000 2.048
58.16000 1.718
58.18000 2.282
58.20000 0.915
58.22000 3.363
58.24000 2.688
58.26000 3.504
58.28000 3.167
58.30000 3.522
58.32000 1.050
58.34000 -2.364
58.36000 1.825
58.38000 0.995
58.40000 0.595
58.42000 4.573
58.44000 2.381
58.46000 3.345
58.48000 3.381
58.50000 1.219
58.52000 -1.387
58.54000 -0.039
58.56000 3.145
58.58000 5.958
58.60000 3.859
58.62000 2.505
58.64000 3.938
58.66000 3.187
58.68000 1.096
58.70000 1.559
58.72000 0.682
58.74000 -0.576
58.76000 2.074
58.78000 0.556
58.80000 -1.888
58.82000 -1.711
58.84000 -1.770
58.86000 -0.949
58.88000 -0.058
58.90000 0.531
58.92000 1.702
58.94000 -1.551
58.96000 -2.364
58.98000 -0.470
59.00000 -1.185
59.02000 0.161
59.04000 2.365
59.06000 2.078
59.08000 -0.470
59.10000 1.489
59.12000 0.698
59.14000 -0.925
59.16000 -0.559
59.18000 0.871
59.20000 3.453
59.22000 0.144
59.24000 -2.084
59.26000 -2.362
59.28000 -0.542
59.30000 1.105
59.32000 1.397
59.34000 2.896
59.36000 2.947
59.38000 0.522
59.40000 -0.522
59.42000 0.984
59.44000 1.095
59.46000 2.046
59.48000 2.958
59.50000 1.941
59.52000 1.695
59.54000 -1.593
59.56000 3.450
59.58000 5.729
59.60000 4.238
59.62000 0.074
59.64000 0.730
59.66000 2.586
59.68000 1.626
59.70000 0.631
59.72000 0.484
59.74000 2.219
59.76000 0.896
59.78000 2.110
59.80000 1.276
59.82000 -2.341
59.84000 1.008
59.86000 2.134
59.88000 1.468
59.90000 6.694
59.92000 4.412
59.94000 4.781
59.96000 0.244
59.98000 1.161
60.00000 0.826
60.02000 -2.330
60.04000 -0.410
60.06000 -0.070
60.08000 3.299
60.10000 2.330
60.12000 1.743
60.14000 1.948
60.16000 1.330
60.18000 2.249
60.20000 1.247
60.22000 2.359
60.24000 1.902
60.26000 2.898
60.28000 4.833
60.30000 3.977
60.32000 5.210
60.34000 3.272
60.36000 2.813
60.38000 3.758
60.40000 0.777
60.42000 0.395
60.44000 2.619
60.46000 5.581
60.48000 2.576
60.50000 -2.290
60.52000 1.702
60.54000 3.169
60.56000 5.294
60.58000 3.726
60.60000 1.859
60.62000 4.205
60.64000 2.858
60.66000 0.458
60.68000 2.085
60.70000 5.857
60.72000 6.974
60.74000 6.803
60.76000 5.984
60.78000 5.587
60.80000 4.477
60.82000 7.120
60.84000 8.996
60.86000 6.083
60.88000 3.384
60.90000 -0.021
60.92000 0.490
60.94000 1.811
60.96000 1.497
60.98000 0.427
61.00000 3.602
61.02000 4.416
61.04000 2.829
61.06000 -2.255
61.08000 0.031
61.10000 5.237
61.12000 6.191
61.14000 -0.560
61.16000 0.191
61.18000 4.443
61.20000 5.937
61.22000 6.906
61.24000 5.417
61.26000 4.469
61.28000 3.906
61.30000 4.192
61.32000 4.421
61.34000 5.373
61.36000 5.049
61.38000 2.943
61.40000 -0.151
61.42000 2.732
61.44000 1.330
61.46000 5.208
61.48000 1.384
61.50000 1.649
61.52000 2.725
61.54000 4.508
61.56000 0.919
61.58000 1.837
61.60000 0.694
61.62000 1.279
61.64000 0.464
61.66000 1.982
61.68000 1.502
61.70000 -2.020
61.72000 1.851
61.74000 -0.559
61.76000 4.473
61.78000 7.139
61.80000 1.406
61.82000 2.673
61.84000 5.371
61.86000 0.972
61.88000 1.275
61.90000 -0.178
61.92000 -1.151
61.94000 2.342
61.96000 0.873
61.98000 1.906
62.00000 3.977
62.02000 0.464
62.04000 1.076
62.06000 0.386
62.08000 1.405
62.10000 -0.280
62.12000 1.676
62.14000 3.521
62.16000 3.528
62.18000 6.441
62.20000 2.717
62.22000 3.897
62.24000 1.752
62.26000 1.915
62.28000 1.661
62.30000 4.463
62.32000 3.159
62.34000 1.313
62.36000 2.878
62.38000 2.084
62.40000 0.944
62.42000 3.203
62.44000 2.832
62.46000 4.732
62.48000 3.623
62.50000 0.330
62.52000 1.437
62.54000 -2.233
62.56000 -0.681
62.58000 2.133
62.60000 5.182
62.62000 0.911
62.64000 -0.155
62.66000 -0.630
62.68000 0.454
62.70000 1.738
62.72000 2.323
62.74000 1.126
62.76000 3.095
62.78000 7.471
62.80000 8.860
62.82000 5.983
62.84000 5.588
62.86000 6.013
62.88000 4.921
62.90000 0.814
62.92000 2.376
62.94000 1.891
62.96000 3.372
62.98000 0.891
63.00000 1.602
63.02000 0.973
63.04000 1.981
63.06000 2.264
63.08000 -1.349
63.10000 1.512
63.12000 2.165
63.14000 4.552
63.16000 3.096
63.18000 3.270
63.20000 3.812
63.22000 2.328
63.24000 -1.409
63.26000 -0.920
63.28000 1.631
63.30000 0.782
63.32000 0.124
63.34000 0.146
63.36000 1.692
63.38000 0.543
63.40000 3.797
63.42000 -0.596
63.44000 -2.266
63.46000 1.282
63.48000 2.880
63.50000 3.347
63.52000 1.341
63.54000 1.694
63.56000 2.405
63.58000 -0.596
63.60000 0.042
63.62000 1.120
63.64000 3.333
63.66000 2.816
63.68000 -1.764
63.70000 1.025
63.72000 1.194
63.74000 4.028
63.76000 3.891
63.78000 2.788
63.80000 1.247
63.82000 0.959
63.84000 1.372
63.86000 -1.008
63.88000 1.063
63.90000 0.790
63.92000 2.989
63.94000 3.220
63.96000 -0.364
63.98000 -1.216
64.00000 -1.452
64.02000 -0.355
64.04000 3.165
64.06000 1.495
64.08000 -2.290
64.10000 -0.754
64.12000 -0.783
64.14000 -1.540
64.16000 -0.179
64.18000 -0.401
64.20000 -1.454
64.22000 2.042
64.24000 3.048
64.26000 4.515
64.28000 3.080
64.30000 1.216
64.32000 -2.298
64.34000 0.820
64.36000 0.814
64.38000 -1.630
64.40000 -1.281
64.42000 -0.764
64.44000 -0.132
64.46000 -0.697
64.48000 -0.194
64.50000 -0.508
64.52000 0.931
64.54000 -0.917
64.56000 0.988
64.58000 -0.856
64.60000 1.613
64.62000 1.125
64.64000 -0.600
64.66000 -0.974
64.68000 -1.311
64.70000 -0.435
64.72000 -0.218
64.74000 -1.908
64.76000 -1.387
64.78000 0.365
64.80000 0.784
64.82000 1.462
64.84000 -1.288
64.86000 0.887
64.88000 -0.663
64.90000 -1.993
64.92000 -1.429
64.94000 1.084
64.96000 2.633
64.98000 0.932
65.00000 -0.007
65.02000 -0.370
65.04000 -1.271
65.06000 0.577
65.08000 1.834
65.10000 0.470
65.12000 -0.408
65.14000 1.136
65.16000 1.780
65.18000 0.202
65.20000 2.143
65.22000 6.205
65.24000 4.598
65.26000 -0.950
65.28000 -1.651
65.30000 1.919
65.32000 2.606
65.34000 4.493
65.36000 5.793
65.38000 1.025
65.40000 -1.351
65.42000 -2.276
65.44000 2.267
65.46000 2.123
65.48000 -0.266
65.50000 -0.865
65.52000 0.848
65.54000 1.267
65.56000 1.443
65.58000 -0.067
65.60000 -1.042
65.62000 0.011
65.64000 2.919
65.66000 1.508
65.68000 -0.393
65.70000 -0.031
65.72000 3.623
65.74000 2.556
65.76000 4.049
65.78000 2.852
65.80000 0.148
65.82000 -0.452
65.84000 0.235
65.86000 1.044
65.88000 -2.269
65.90000 2.539
65.92000 4.062
65.94000 2.533
65.96000 2.200
65.98000 -0.203
66.00000 1.760
66.02000 2.318
66.04000 2.257
66.06000 6.001
66.08000 2.718
66.10000 0.702
66.12000 0.810
66.14000 -0.078
66.16000 2.641
66.18000 3.576
66.20000 5.980
66.22000 1.006
66.24000 -0.452
66.26000 -0.267
66.28000 2.793
66.30000 3.202
66.32000 2.771
66.34000 3.745
66.36000 2.449
66.38000 1.558
66.40000 1.518
66.42000 1.729
66.44000 1.664
66.46000 2.864
66.48000 3.697
66.50000 3.089
66.52000 0.591
66.54000 0.058
66.56000 1.023
66.58000 1.401
66.60000 3.770
66.62000 3.423
66.64000 1.337
66.66000 -2.267
66.68000 0.469
66.70000 2.357
66.72000 2.249
66.74000 2.799
66.76000 5.835
66.78000 3.275
66.80000 0.366
66.82000 1.256
66.84000 2.993
66.86000 2.076
66.88000 0.996
66.90000 -0.272
66.92000 1.204
66.94000 -0.222
66.96000 0.275
66.98000 1.086
67.00000 0.154
67.02000 -1.465
67.04000 1.135
67.06000 1.815
67.08000 0.905
67.10000 3.558
67.12000 0.338
67.14000 0.414
67.16000 0.014
67.18000 -0.045
67.20000 1.055
67.22000 2.627
67.24000 2.783
67.26000 5.625
67.28000 4.630
67.30000 1.103
67.32000 1.565
67.34000 1.713
67.36000 -0.343
67.38000 -0.666
67.40000 0.108
67.42000 -0.229
67.44000 0.681
67.46000 1.552
67.48000 -1.609
67.50000 0.608
67.52000 -1.763
67.54000 -0.903
67.56000 -0.094
67.58000 -2.369
67.60000 0.944
67.62000 1.640
67.64000 3.204
67.66000 1.485
67.68000 0.315
67.70000 5.209
67.72000 4.353
67.74000 3.365
67.76000 4.362
67.78000 3.225
67.80000 5.107
67.82000 3.503
67.84000 3.663
67.86000 3.979
67.88000 2.743
67.90000 6.080
67.92000 6.149
67.94000 5.927
67.96000 6.068
67.98000 3.877
68.00000 3.392
68.02000 3.428
68.04000 7.305
68.06000 6.882
68.08000 5.884
68.10000 5.140
68.12000 7.514
68.14000 6.943
68.16000 7.534
68.18000 9.562
68.20000 7.124
68.22000 8.749
68.24000 13.225
68.26000 9.949
68.28000 12.023
68.30000 16.851
68.32000 17.375
68.34000 16.370
68.36000 11.629
68.38000 15.306
68.40000 21.768
68.42000 21.238
68.44000 19.127
68.46000 23.466
68.48000 28.334
68.50000 28.406
68.52000 25.869
68.54000 24.423
68.56000 25.762
68.58000 24.844
68.60000 28.390
68.62000 30.187
68.64000 30.942
68.66000 30.498
68.68000 31.118
68.70000 34.669
68.72000 36.842
68.74000 34.822
68.76000 32.237
68.78000 31.830
68.80000 33.416
68.82000 34.577
68.84000 31.817
68.86000 34.115
68.88000 34.240
68.90000 36.332
68.92000 35.426
68.94000 37.614
68.96000 38.337
68.98000 36.001
69.00000 33.857
69.02000 30.718
69.04000 29.205
69.06000 33.101
69.08000 31.361
69.10000 25.917
69.12000 22.813
69.14000 25.968
69.16000 23.280
69.18000 27.669
69.20000 25.799
69.22000 27.306
69.24000 27.154
69.26000 25.664
69.28000 23.435
69.30000 21.386
69.32000 19.431
69.34000 14.551
69.36000 17.794
69.38000 18.427
69.40000 12.942
69.42000 14.442
69.44000 13.706
69.46000 14.144
69.48000 11.871
69.50000 12.644
69.52000 13.671
69.54000 8.296
69.56000 4.624
69.58000 8.114
69.60000 8.699
69.62000 4.891
69.64000 6.694
69.66000 7.904
69.68000 7.317
69.70000 3.093
69.72000 5.594
69.74000 5.561
69.76000 2.644
69.78000 2.894
69.80000 2.924
69.82000 5.443
69.84000 2.208
69.86000 1.219
69.88000 2.491
69.90000 2.964
69.92000 3.257
69.94000 0.134
69.96000 -2.322
69.98000 0.070
70.00000 0.773
70.02000 0.533
70.04000 1.792
70.06000 -0.155
70.08000 -1.318
70.10000 -0.636
70.12000 1.425
70.14000 2.356
70.16000 1.702
70.18000 0.344
70.20000 -2.077
70.22000 -1.131
70.24000 -1.527
70.26000 -0.398
70.28000 -0.760
70.30000 -2.285
70.32000 1.196
70.34000 -1.175
70.36000 -0.848
70.38000 -1.429
70.40000 0.356
70.42000 0.348
70.44000 3.061
70.46000 0.266
70.48000 -1.440
70.50000 -1.456
70.52000 -1.124
70.54000 0.494
70.56000 1.814
70.58000 1.736
70.60000 0.480
70.62000 -0.238
70.64000 -0.029
70.66000 -0.777
70.68000 1.221
70.70000 3.441
70.72000 1.254
70.74000 0.001
70.76000 2.257
70.78000 0.428
70.80000 -0.098
70.82000 2.548
70.84000 3.583
70.86000 2.878
70.88000 0.339
70.90000 0.455
70.92000 0.863
70.94000 -0.240
70.96000 -0.656
70.98000 0.826
71.00000 -1.020
71.02000 -0.874
71.04000 3.068
71.06000 2.315
71.08000 2.126
71.10000 2.367
71.12000 -0.018
71.14000 -2.190
71.16000 -1.026
71.18000 1.097
71.20000 0.380
71.22000 1.072
71.24000 -0.896
71.26000 2.206
71.28000 1.535
71.30000 -0.482
71.32000 3.223
71.34000 4.379
71.36000 3.381
71.38000 2.125
71.40000 0.576
71.42000 3.254
71.44000 1.415
71.46000 1.321
71.48000 4.025
71.50000 5.978
71.52000 2.337
71.54000 1.314
71.56000 1.229
71.58000 1.745
71.60000 0.972
71.62000 -1.774
71.64000 -2.153
71.66000 -0.767
71.68000 3.298
71.70000 3.625
71.72000 1.857
71.74000 -0.045
71.76000 -0.192
71.78000 1.734
71.80000 0.999
71.82000 2.671
71.84000 4.603
71.86000 2.424
71.88000 -0.679
71.90000 1.800
71.92000 4.084
71.94000 5.178
71.96000 3.207
71.98000 4.064
72.00000 6.637
72.02000 4.549
72.04000 1.733
72.06000 1.262
72.08000 2.377
72.10000 4.051
72.12000 4.445
72.14000 0.776
72.16000 -2.131
72.18000 0.555
72.20000 0.846
72.22000 1.628
72.24000 2.633
72.26000 1.316
72.28000 -0.350
72.30000 1.593
72.32000 1.541
72.34000 2.843
72.36000 2.494
72.38000 1.464
72.40000 4.945
72.42000 1.560
72.44000 -1.279
72.46000 -1.049
72.48000 -2.127
72.50000 2.259
72.52000 0.798
72.54000 -1.292
72.56000 -1.595
72.58000 1.943
72.60000 1.743
72.62000 2.971
72.64000 3.282
72.66000 2.774
72.68000 2.293
72.70000 -1.521
72.72000 0.019
72.74000 3.216
72.76000 -0.400
72.78000 -2.116
72.80000 -1.030
72.82000 1.037
72.84000 3.010
72.86000 4.365
72.88000 0.652
72.90000 4.301
72.92000 3.885
72.94000 2.284
72.96000 2.137
72.98000 2.295
73.00000 -1.350
73.02000 4.404
73.04000 5.228
73.06000 3.399
73.08000 2.608
73.10000 2.834
73.12000 3.370
73.14000 3.424
73.16000 4.580
73.18000 0.964
73.20000 0.654
73.22000 1.901
73.24000 0.379
73.26000 4.964
73.28000 2.636
73.30000 3.744
73.32000 6.872
73.34000 5.848
73.36000 4.377
73.38000 1.479
73.40000 2.429
73.42000 4.486
73.44000 3.016
73.46000 2.673
73.48000 0.326
73.50000 -0.255
73.52000 -2.063
73.54000 -1.103
73.56000 -1.375
73.58000 3.020
73.60000 6.183
73.62000 6.734
73.64000 4.375
73.66000 4.306
73.68000 5.071
73.70000 3.884
73.72000 3.589
73.74000 2.141
73.76000 1.802
73.78000 3.194
73.80000 -0.767
73.82000 3.144
73.84000 6.132
73.86000 5.986
73.88000 6.787
73.90000 2.860
73.92000 6.135
73.94000 5.046
73.96000 3.214
73.98000 1.120
74.00000 3.954
74.02000 1.754
74.04000 1.490
74.06000 4.993
74.08000 8.348
74.10000 4.205
74.12000 2.723
74.14000 4.316
74.16000 4.831
74.18000 3.578
74.20000 7.452
74.22000 5.829
74.24000 3.591
74.26000 -0.297
74.28000 -0.251
74.30000 0.762
74.32000 0.515
74.34000 1.781
74.36000 4.321
74.38000 5.414
74.40000 4.026
74.42000 4.913
74.44000 2.314
74.46000 4.045
74.48000 6.017
74.50000 2.950
74.52000 -2.046
74.54000 -1.361
74.56000 2.173
74.58000 5.461
74.60000 2.150
74.62000 0.208
74.64000 -0.207
74.66000 2.260
74.68000 7.057
74.70000 6.235
74.72000 1.823
74.74000 5.763
74.76000 5.885
74.78000 4.001
74.80000 0.883
74.82000 1.373
74.84000 -0.769
74.86000 -0.062
74.88000 3.092
74.90000 1.885
74.92000 0.438
74.94000 1.536
74.96000 4.129
74.98000 1.207
75.00000 1.564
75.02000 4.396
75.04000 5.114
75.06000 1.642
75.08000 1.773
75.10000 3.502
75.12000 3.371
75.14000 3.892
75.16000 2.144
75.18000 1.583
75.20000 1.036
75.22000 1.137
75.24000 4.626
75.26000 5.305
75.28000 5.001
75.30000 3.528
75.32000 4.790
75.34000 2.947
75.36000 1.133
75.38000 -0.605
75.40000 1.275
75.42000 -0.487
75.44000 -1.713
75.46000 -0.372
75.48000 -0.002
75.50000 1.618
75.52000 4.698
75.54000 3.644
75.56000 5.685
75.58000 -0.104
75.60000 -2.118
75.62000 3.391
75.64000 4.228
75.66000 2.730
75.68000 2.872
75.70000 2.958
75.72000 1.393
75.74000 0.629
75.76000 0.714
75.78000 -1.006
75.80000 3.077
75.82000 3.609
75.84000 -0.300
75.86000 1.252
75.88000 -0.419
75.90000 0.693
75.92000 -1.209
75.94000 -1.579
75.96000 -2.117
75.98000 1.097
76.00000 0.939
76.02000 1.276
76.04000 0.273
76.06000 -0.845
76.08000 3.455
76.10000 0.999
76.12000 -0.907
76.14000 -1.694
76.16000 -0.889
76.18000 0.676
76.20000 -0.763
76.22000 1.330
76.24000 4.299
76.26000 1.213
76.28000 1.323
76.30000 3.951
76.32000 -0.932
76.34000 -0.754
76.36000 0.952
76.38000 -0.001
76.40000 -0.997
76.42000 -0.861
76.44000 0.117
76.46000 1.964
76.48000 3.605
76.50000 1.912
76.52000 1.257
76.54000 2.911
76.56000 4.358
76.58000 5.812
76.60000 3.308
76.62000 -1.199
76.64000 -2.091
76.66000 0.682
76.68000 2.718
76.70000 -0.291
76.72000 2.723
76.74000 2.105
76.76000 0.791
76.78000 3.343
76.80000 6.475
76.82000 0.139
76.84000 -0.370
76.86000 0.188
76.88000 -1.068
76.90000 1.450
76.92000 0.602
76.94000 0.509
76.96000 1.327
76.98000 1.506
77.00000 3.629
77.02000 6.112
77.04000 1.355
77.06000 1.524
77.08000 3.611
77.10000 2.655
77.12000 0.749
77.14000 4.582
77.16000 2.253
77.18000 5.704
77.20000 4.451
77.22000 3.617
77.24000 1.733
77.26000 4.451
77.28000 2.470
77.30000 0.773
77.32000 2.922
77.34000 0.256
77.36000 2.713
77.38000 1.111
77.40000 -2.095
77.42000 -1.481
77.44000 -1.922
77.46000 -0.796
77.48000 1.204
77.50000 4.452
77.52000 3.308
77.54000 2.840
77.56000 0.513
77.58000 -0.029
77.60000 4.981
77.62000 3.924
77.64000 4.438
77.66000 0.861
77.68000 -0.831
77.70000 0.906
77.72000 3.823
77.74000 3.362
77.76000 2.231
77.78000 2.427
77.80000 2.468
77.82000 1.560
77.84000 3.014
77.86000 1.723
77.88000 0.494
77.90000 -0.833
77.92000 2.669
77.94000 1.598
77.96000 3.668
77.98000 3.796
78.00000 -0.972
78.02000 -2.130
78.04000 -1.114
78.06000 -0.414
78.08000 0.051
78.10000 3.130
78.12000 0.796
78.14000 0.303
78.16000 2.440
78.18000 0.214
78.20000 0.310
78.22000 1.517
78.24000 2.972
78.26000 1.046
78.28000 0.142
78.30000 -1.736
78.32000 -0.901
78.34000 -1.435
78.36000 0.963
78.38000 2.148
78.40000 -0.054
78.42000 -0.061
78.44000 1.439
78.46000 4.675
78.48000 4.457
78.50000 2.520
78.52000 4.445
78.54000 4.047
78.56000 -2.133
78.58000 -1.707
78.60000 0.973
78.62000 0.425
78.64000 -2.147
78.66000 2.993
78.68000 1.752
78.70000 0.308
78.72000 3.123
78.74000 3.217
78.76000 1.967
78.78000 3.947
78.80000 2.138
78.82000 2.358
78.84000 3.639
78.86000 0.963
78.88000 -0.107
78.90000 1.464
78.92000 1.716
78.94000 4.773
78.96000 3.207
78.98000 3.128
79.00000 2.402
79.02000 -0.338
79.04000 -0.126
79.06000 3.251
79.08000 0.907
79.10000 1.074
79.12000 -0.767
79.14000 -0.339
79.16000 3.001
79.18000 3.425
79.20000 3.157
79.22000 4.603
79.24000 -1.617
79.26000 -0.464
79.28000 2.737
79.30000 3.709
79.32000 0.281
79.34000 -2.143
79.36000 0.677
79.38000 4.812
79.40000 2.766
79.42000 2.202
79.44000 1.666
79.46000 -1.228
79.48000 -0.510
79.50000 1.767
79.52000 4.933
79.54000 1.743
79.56000 0.124
79.58000 0.427
79.60000 1.008
79.62000 3.912
79.64000 4.229
79.66000 4.594
79.68000 2.160
79.70000 1.628
79.72000 2.664
79.74000 3.985
79.76000 1.630
79.78000 1.014
79.80000 5.214
79.82000 5.139
79.84000 4.456
79.86000 2.674
79.88000 -2.164
79.90000 -1.617
79.92000 1.896
79.94000 1.661
79.96000 1.258
79.98000 0.701
80.00000 3.214
80.02000 5.430
80.04000 4.496
80.06000 4.672
80.08000 5.870
80.10000 5.175
80.12000 5.338
80.14000 3.752
80.16000 1.367
80.18000 0.864
80.20000 -0.211
80.22000 1.592
80.24000 1.832
80.26000 4.348
80.28000 3.431
80.30000 5.227
80.32000 2.632
80.34000 3.614
80.36000 0.723
80.38000 2.422
80.40000 2.802
80.42000 -1.345
80.44000 -0.299
80.46000 -0.450
80.48000 1.482
80.50000 3.033
80.52000 5.453
80.54000 5.398
80.56000 2.515
80.58000 -2.194
80.60000 4.864
80.62000 5.365
80.64000 -0.126
80.66000 0.168
80.68000 -0.110
80.70000 1.648
80.72000 2.709
80.74000 3.314
80.76000 -2.020
80.78000 -1.508
80.80000 5.968
80.82000 1.009
80.84000 -1.079
80.86000 1.801
80.88000 1.275
80.90000 4.086
80.92000 5.087
80.94000 5.836
80.96000 5.371
80.98000 4.687
81.00000 1.862
81.02000 2.078
81.04000 0.085
81.06000 -1.192
81.08000 1.524
81.10000 0.559
81.12000 3.048
81.14000 4.898
81.16000 2.819
81.18000 2.608
81.20000 3.099
81.22000 2.363
81.24000 1.288
81.26000 1.955
81.28000 1.814
81.30000 -0.520
81.32000 -0.873
81.34000 -0.444
81.36000 2.711
81.38000 5.769
81.40000 4.539
81.42000 3.915
81.44000 1.580
81.46000 0.006
81.48000 -1.101
81.50000 -0.629
81.52000 5.040
81.54000 5.477
81.56000 2.784
81.58000 2.277
81.60000 -2.297
81.62000 3.098
81.64000 4.306
81.66000 2.457
81.68000 3.639
81.70000 4.338
81.72000 5.456
81.74000 4.534
81.76000 3.613
81.78000 1.240
81.80000 5.162
81.82000 6.965
81.84000 6.468
81.86000 7.643
81.88000 7.816
81.90000 6.038
81.92000 7.406
81.94000 7.752
81.96000 10.270
81.98000 6.376
82.00000 9.033
82.02000 12.646
82.04000 6.121
82.06000 4.004
82.08000 5.925
82.10000 5.668
82.12000 8.724
82.14000 13.764
82.16000 9.935
82.18000 12.412
82.20000 10.843
82.22000 10.205
82.24000 16.856
82.26000 16.320
82.28000 18.513
82.30000 18.604
82.32000 17.355
82.34000 16.733
82.36000 20.846
82.38000 19.109
82.40000 16.153
82.42000 21.008
82.44000 23.633
82.46000 26.958
82.48000 27.977
82.50000 26.542
82.52000 26.422
82.54000 31.519
82.56000 36.272
82.58000 35.430
82.60000 36.456
82.62000 35.289
82.64000 39.175
82.66000 37.930
82.68000 37.207
82.70000 38.715
82.72000 38.037
82.74000 38.895
82.76000 47.968
82.78000 48.933
82.80000 44.880
82.82000 43.263
82.84000 44.569
82.86000 52.178
82.88000 47.833
82.90000 51.535
82.92000 50.872
82.94000 56.229
82.96000 58.165
82.98000 55.491
83.00000 55.505
83.02000 52.928
83.04000 60.523
83.06000 61.686
83.08000 59.174
83.10000 60.186
83.12000 58.588
83.14000 52.147
83.16000 53.401
83.18000 54.830
83.20000 51.237
83.22000 54.932
83.24000 54.679
83.26000 53.034
83.28000 56.039
83.30000 52.071
83.32000 51.544
83.34000 52.082
83.36000 53.379
83.38000 48.016
83.40000 46.595
83.42000 48.282
83.44000 41.954
83.46000 40.421
83.48000 44.170
83.50000 39.662
83.52000 35.272
83.54000 37.847
83.56000 38.986
83.58000 33.192
83.60000 24.743
83.62000 32.220
83.64000 32.749
83.66000 30.940
83.68000 28.557
83.70000 30.816
83.72000 28.053
83.74000 24.697
83.76000 23.805
83.78000 23.477
83.80000 19.928
83.82000 20.669
83.84000 19.879
83.86000 16.726
83.88000 13.434
83.90000 18.289
83.92000 20.859
83.94000 20.456
83.96000 21.142
83.98000 17.960
84.00000 16.216
84.02000 16.212
84.04000 11.215
84.06000 8.350
84.08000 10.072
84.10000 9.855
84.12000 11.763
84.14000 9.733
84.16000 9.989
84.18000 8.218
84.20000 6.723
84.22000 9.027
84.24000 6.659
84.26000 4.333
84.28000 5.791
84.30000 4.229
84.32000 1.033
84.34000 4.436
84.36000 9.468
84.38000 5.675
84.40000 2.393
84.42000 5.311
84.44000 5.215
84.46000 4.981
84.48000 9.447
84.50000 9.070
84.52000 3.634
84.54000 2.759
84.56000 2.942
84.58000 6.333
84.60000 6.604
84.62000 7.606
84.64000 4.663
84.66000 3.116
84.68000 3.158
84.70000 4.677
84.72000 4.184
84.74000 3.433
84.76000 1.438
84.78000 -0.759
84.80000 5.298
84.82000 7.575
84.84000 -0.642
84.86000 -0.764
84.88000 -1.803
84.90000 2.154
84.92000 4.674
84.94000 7.138
84.96000 3.256
84.98000 1.783
85.00000 2.657
85.02000 3.305
85.04000 1.610
85.06000 1.083
85.08000 4.183
85.10000 2.723
85.12000 0.498
85.14000 -1.002
85.16000 -2.179
85.18000 3.476
85.20000 3.872
85.22000 2.384
85.24000 2.102
85.26000 6.627
85.28000 2.635
85.30000 2.484
85.32000 2.049
85.34000 -1.247
85.36000 -1.495
85.38000 -1.853
85.40000 -0.441
85.42000 -0.535
85.44000 3.869
85.46000 4.134
85.48000 2.740
85.50000 4.601
85.52000 6.979
85.54000 3.397
85.56000 0.864
85.58000 -2.154
85.60000 2.683
85.62000 0.891
85.64000 2.402
85.66000 5.804
85.68000 4.118
85.70000 5.831
85.72000 2.877
85.74000 4.387
85.76000 4.589
85.78000 5.239
85.80000 2.625
85.82000 4.141
85.84000 4.115
85.86000 4.389
85.88000 1.510
85.90000 2.172
85.92000 3.529
85.94000 3.891
85.96000 5.250
85.98000 2.647
86.00000 2.344
86.02000 1.980
86.04000 0.385
86.06000 4.238
86.08000 7.353
86.10000 3.426
86.12000 0.564
86.14000 -1.647
86.16000 0.921
86.18000 -2.195
86.20000 -0.049
86.22000 -0.534
86.24000 0.225
86.26000 3.123
86.28000 2.304
86.30000 1.882
86.32000 -0.152
86.34000 -2.211
86.36000 4.230
86.38000 7.760
86.40000 1.996
86.42000 -0.418
86.44000 2.313
86.46000 3.841
86.48000 4.309
86.50000 3.345
86.52000 3.373
86.54000 4.471
86.56000 4.105
86.58000 3.840
86.60000 6.913
86.62000 9.151
86.64000 9.580
86.66000 6.348
86.68000 4.368
86.70000 9.421
86.72000 10.494
86.74000 8.417
86.76000 5.411
86.78000 6.170
86.80000 7.452
86.82000 9.127
86.84000 11.204
86.86000 8.550
86.88000 11.117
86.90000 13.825
86.92000 16.632
86.94000 16.413
86.96000 15.802
86.98000 15.785
87.00000 14.242
87.02000 15.102
87.04000 19.283
87.06000 16.539
87.08000 18.626
87.10000 17.243
87.12000 14.644
87.14000 17.424
87.16000 24.832
87.18000 25.615
87.20000 22.919
87.22000 24.603
87.24000 21.395
87.26000 20.017
87.28000 25.934
87.30000 28.250
87.32000 28.334
87.34000 26.956
87.36000 24.478
87.38000 22.710
87.40000 27.745
87.42000 30.275
87.44000 31.921
87.46000 31.531
87.48000 28.740
87.50000 30.624
87.52000 26.348
87.54000 28.463
87.56000 31.028
87.58000 34.840
87.60000 35.356
87.62000 27.918
87.64000 26.249
87.66000 27.776
87.68000 25.257
87.70000 26.970
87.72000 30.390
87.74000 26.834
87.76000 26.337
87.78000 28.307
87.80000 26.541
87.82000 28.486
87.84000 27.369
87.86000 24.985
87.88000 23.440
87.90000 21.772
87.92000 24.317
87.94000 20.533
87.96000 21.438
87.98000 20.239
88.00000 19.479
88.02000 22.121
88.04000 20.559
88.06000 18.612
88.08000 13.901
88.10000 15.076
88.12000 13.515
88.14000 13.146
88.16000 12.980
88.18000 12.195
88.20000 11.942
88.22000 14.148
88.24000 9.688
88.26000 8.832
88.28000 9.632
88.30000 11.661
88.32000 9.525
88.34000 9.287
88.36000 7.408
88.38000 8.144
88.40000 6.665
88.42000 6.425
88.44000 5.128
88.46000 4.295
88.48000 5.805
88.50000 7.405
88.52000 3.873
88.54000 1.766
88.56000 2.150
88.58000 5.251
88.60000 6.109
88.62000 6.467
88.64000 4.198
88.66000 3.704
88.68000 -0.824
88.70000 0.801
88.72000 3.617
88.74000 2.345
88.76000 0.132
88.78000 2.277
88.80000 1.919
88.82000 5.420
88.84000 4.770
88.86000 0.131
88.88000 -2.127
88.90000 0.128
88.92000 1.627
88.94000 3.431
88.96000 4.019
88.98000 4.845
89.00000 1.886
89.02000 -0.122
89.04000 1.237
89.06000 2.482
89.08000 3.956
89.10000 2.171
89.12000 5.714
89.14000 2.635
89.16000 -1.443
89.18000 -0.207
89.20000 2.057
89.22000 6.114
89.24000 4.221
89.26000 0.868
89.28000 2.287
89.30000 0.102
89.32000 3.726
89.34000 1.896
89.36000 1.895
89.38000 2.641
89.40000 2.668
89.42000 1.506
89.44000 1.539
89.46000 -1.476
89.48000 -2.066
89.50000 0.613
89.52000 4.276
89.54000 5.165
89.56000 1.642
89.58000 1.309
89.60000 3.024
89.62000 1.599
89.64000 2.084
89.66000 1.094
89.68000 1.345
89.70000 -0.311
89.72000 0.287
89.74000 1.933
89.76000 3.035
89.78000 -2.022
89.80000 3.526
89.82000 2.136
89.84000 0.013
89.86000 3.240
89.88000 2.853
89.90000 2.079
89.92000 4.148
89.94000 1.541
89.96000 3.162
89.98000 5.838
90.00000 3.649
90.02000 0.351
90.04000 1.601
90.06000 4.021
90.08000 1.809
90.10000 2.806
90.12000 5.790
90.14000 6.489
90.16000 0.908
90.18000 2.856
90.20000 3.503
90.22000 4.866
90.24000 2.086
90.26000 1.364
90.28000 -0.948
90.30000 1.413
90.32000 3.530
90.34000 1.568
90.36000 6.323
90.38000 3.969
90.40000 2.508
90.42000 1.931
90.44000 2.948
90.46000 0.478
90.48000 -0.174
90.50000 0.210
90.52000 -1.965
90.54000 -0.983
90.56000 -0.341
90.58000 2.871
90.60000 3.982
90.62000 5.126
90.64000 -1.284
90.66000 4.167
90.68000 2.649
90.70000 4.773
90.72000 2.706
90.74000 1.852
90.76000 6.115
90.78000 7.267
90.80000 7.060
90.82000 2.179
90.84000 0.916
90.86000 3.216
90.88000 3.852
90.90000 2.903
90.92000 1.915
90.94000 1.204
90.96000 1.154
90.98000 2.663
91.00000 1.321
91.02000 -0.176
91.04000 2.015
91.06000 6.652
91.08000 10.139
91.10000 8.196
91.12000 3.531
91.14000 1.795
91.16000 3.242
91.18000 1.275
91.20000 4.800
91.22000 3.421
91.24000 0.482
91.26000 -0.605
91.28000 3.867
91.30000 3.899
91.32000 2.784
91.34000 0.768
91.36000 3.836
91.38000 7.143
91.40000 4.512
91.42000 3.420
91.44000 4.459
91.46000 1.068
91.48000 -0.296
91.50000 -0.369
91.52000 1.557
91.54000 4.998
91.56000 0.537
91.58000 0.072
91.60000 2.915
91.62000 6.818
91.64000 3.874
91.66000 4.233
91.68000 4.718
91.70000 4.917
91.72000 6.623
91.74000 5.304
91.76000 3.073
91.78000 1.457
91.80000 4.594
91.82000 8.876
91.84000 9.414
91.86000 6.731
91.88000 4.489
91.90000 -1.958
91.92000 1.083
91.94000 5.493
91.96000 1.418
91.98000 2.724
92.00000 4.973
92.02000 2.977
92.04000 3.534
92.06000 1.807
92.08000 1.680
92.10000 6.509
92.12000 5.478
92.14000 2.917
92.16000 6.342
92.18000 5.697
92.20000 3.546
92.22000 4.917
92.24000 6.001
92.26000 6.496
92.28000 6.234
92.30000 5.750
92.32000 4.389
92.34000 5.908
92.36000 5.745
92.38000 3.180
92.40000 5.660
92.42000 3.206
92.44000 5.572
92.46000 5.530
92.48000 6.165
92.50000 4.732
92.52000 5.887
92.54000 5.852
92.56000 5.005
92.58000 1.884
92.60000 2.456
92.62000 1.231
92.64000 -1.952
92.66000 0.270
92.68000 0.934
92.70000 2.943
92.72000 7.737
92.74000 5.768
92.76000 3.122
92.78000 4.274
92.80000 3.058
92.82000 3.266
92.84000 3.558
92.86000 3.046
92.88000 5.211
92.90000 4.841
92.92000 6.589
92.94000 4.338
92.96000 6.128
92.98000 5.977
93.00000 5.702
93.02000 7.338
93.04000 2.110
93.06000 0.239
93.08000 1.416
93.10000 0.934
93.12000 2.602
93.14000 2.676
93.16000 2.152
93.18000 5.469
93.20000 7.191
93.22000 5.160
93.24000 5.322
93.26000 3.288
93.28000 2.103
93.30000 0.533
93.32000 -0.126
93.34000 2.098
93.36000 7.390
93.38000 5.886
93.40000 4.596
93.42000 2.764
93.44000 5.542
93.46000 9.882
93.48000 4.735
93.50000 3.802
93.52000 2.531
93.54000 1.285
93.56000 2.227
93.58000 3.249
93.60000 3.364
93.62000 7.172
93.64000 7.548
93.66000 3.223
93.68000 0.241
93.70000 -0.331
93.72000 3.138
93.74000 3.964
93.76000 2.437
93.78000 5.181
93.80000 4.829
93.82000 6.249
93.84000 1.314
93.86000 -1.962
93.88000 0.274
93.90000 0.424
93.92000 2.633
93.94000 2.544
93.96000 4.359
93.98000 8.002
94.00000 5.668
94.02000 2.015
94.04000 -0.541
94.06000 2.603
94.08000 2.244
94.10000 3.639
94.12000 3.289
94.14000 1.520
94.16000 1.704
94.18000 2.578
94.20000 4.208
94.22000 3.525
94.24000 2.675
94.26000 3.191
94.28000 3.428
94.30000 4.583
94.32000 4.115
94.34000 3.471
94.36000 5.517
94.38000 6.848
94.40000 4.478
94.42000 4.647
94.44000 3.083
94.46000 2.740
94.48000 3.407
94.50000 1.889
94.52000 5.033
94.54000 3.172
94.56000 0.143
94.58000 1.720
94.60000 1.854
94.62000 1.694
94.64000 3.860
94.66000 3.009
94.68000 -2.024
94.70000 2.491
94.72000 1.214
94.74000 1.026
94.76000 2.159
94.78000 2.313
94.80000 4.188
94.82000 3.836
94.84000 0.943
94.86000 2.602
94.88000 3.028
94.90000 1.075
94.92000 2.494
94.94000 3.328
94.96000 2.211
94.98000 2.140
95.00000 5.433
95.02000 0.806
95.04000 2.204
95.06000 1.897
95.08000 3.745
95.10000 1.035
95.12000 0.253
95.14000 -0.908
95.16000 0.990
95.18000 5.346
95.20000 -0.660
95.22000 1.241
95.24000 0.887
95.26000 0.169
95.28000 -1.777
95.30000 -0.496
95.32000 3.339
95.34000 3.401
95.36000 0.945
95.38000 3.476
95.40000 2.243
95.42000 -2.023
95.44000 2.201
95.46000 4.064
95.48000 6.100
95.50000 4.836
95.52000 4.476
95.54000 3.840
95.56000 1.079
95.58000 0.951
95.60000 1.685
95.62000 8.187
95.64000 7.308
95.66000 1.495
95.68000 2.554
95.70000 2.716
95.72000 3.601
95.74000 -1.618
95.76000 -0.286
95.78000 3.168
95.80000 3.409
95.82000 3.295
95.84000 2.660
95.86000 7.182
95.88000 3.001
95.90000 2.656
95.92000 3.564
95.94000 4.694
95.96000 -0.174
95.98000 2.306
96.00000 -0.650
96.02000 3.320
96.04000 4.108
96.06000 -0.549
96.08000 -0.467
96.10000 1.624
96.12000 0.449
96.14000 3.079
96.16000 0.544
96.18000 -1.675
96.20000 -0.913
96.22000 3.720
96.24000 -0.592
96.26000 2.385
96.28000 6.555
96.30000 4.206
96.32000 -0.610
96.34000 2.518
96.36000 5.050
96.38000 4.868
96.40000 1.002
96.42000 3.601
96.44000 3.853
96.46000 0.476
96.48000 -2.040
96.50000 -0.581
96.52000 1.410
96.54000 2.592
96.56000 1.149
96.58000 -1.570
96.60000 2.233
96.62000 1.524
96.64000 -0.625
96.66000 -1.311
96.68000 1.226
96.70000 5.017
96.72000 4.434
96.74000 3.637
96.76000 1.515
96.78000 3.980
96.80000 0.886
96.82000 0.142
96.84000 -1.224
96.86000 -1.416
96.88000 4.490
96.90000 2.773
96.92000 4.967
96.94000 6.901
96.96000 2.011
96.98000 0.311
97.00000 3.176
97.02000 4.181
97.04000 3.650
97.06000 3.145
97.08000 2.880
97.10000 0.844
97.12000 0.584
97.14000 -1.631
97.16000 2.706
97.18000 3.535
97.20000 6.193
97.22000 3.112
97.24000 3.432
97.26000 1.500
97.28000 -0.184
97.30000 2.419
97.32000 1.391
97.34000 -2.010
97.36000 0.980
97.38000 6.433
97.40000 3.246
97.42000 4.392
97.44000 0.581
97.46000 0.784
97.48000 -1.085
97.50000 -0.970
97.52000 1.517
97.54000 9.008
97.56000 9.277
97.58000 4.471
97.60000 -0.322
97.62000 -1.240
97.64000 3.301
97.66000 0.937
97.68000 0.035
97.70000 1.612
97.72000 11.216
97.74000 5.214
97.76000 1.592
97.78000 4.738
97.80000 6.305
97.82000 3.636
97.84000 5.425
97.86000 5.095
97.88000 3.239
97.90000 -1.049
97.92000 5.182
97.94000 5.896
97.96000 6.021
97.98000 2.893
98.00000 6.334
98.02000 11.597
98.04000 7.321
98.06000 5.318
98.08000 1.184
98.10000 2.584
98.12000 9.159
98.14000 3.347
98.16000 3.504
98.18000 10.191
98.20000 4.985
98.22000 -1.158
98.24000 -1.922
98.26000 2.234
98.28000 7.868
98.30000 9.456
98.32000 8.331
98.34000 9.301
98.36000 3.046
98.38000 -1.254
98.40000 5.838
98.42000 11.678
98.44000 7.237
98.46000 6.136
98.48000 3.824
98.50000 4.349
98.52000 9.148
98.54000 6.410
98.56000 4.682
98.58000 7.070
98.60000 2.590
98.62000 5.539
98.64000 7.642
98.66000 6.375
98.68000 4.009
98.70000 5.033
98.72000 3.162
98.74000 1.576
98.76000 3.967
98.78000 2.560
98.80000 4.928
98.82000 4.564
98.84000 6.272
98.86000 0.152
98.88000 -0.840
98.90000 6.814
98.92000 7.348
98.94000 2.975
98.96000 8.208
98.98000 10.004
99.00000 2.405
99.02000 5.899
99.04000 5.445
99.06000 4.885
99.08000 5.797
99.10000 13.576
99.12000 5.947
99.14000 2.752
99.16000 2.523
99.18000 0.981
99.20000 8.532
99.22000 7.696
99.24000 10.407
99.26000 0.152
99.28000 2.762
99.30000 6.048
99.32000 7.479
99.34000 10.887
99.36000 6.088
99.38000 6.003
99.40000 3.867
99.42000 -1.921
99.44000 2.889
99.46000 8.609
99.48000 2.610
99.50000 4.820
99.52000 5.035
99.54000 9.617
99.56000 14.329
99.58000 5.965
99.60000 -1.819
99.62000 6.420
99.64000 3.922
99.66000 9.183
99.68000 3.263
99.70000 -1.900
99.72000 3.956
99.74000 9.554
99.76000 7.447
99.78000 7.332
99.80000 13.820
99.82000 8.540
99.84000 3.705
99.86000 -1.926
99.88000 1.221
99.90000 -1.480
99.92000 -1.975
99.94000 0.034
99.96000 2.192
99.98000 0.000
