'Id: "0011388" Comment: "Integrate frame 0011388_Au-Ir-Rh_Rh-rich_XRD-Mapping-208-0000.gfrmwith cursor Wedge Cursor #5" Operator: "B?rgel" Anode: "Cu" Wavelength: "1.5406" Scantype: "2Theta (TwoTheta)" TimePerStep: "1" X: "-4.5" Y: "9" Z: "5.95" 
10.00000 0.000
10.02000 9.333
10.04000 -4.327
10.06000 1.565
10.08000 8.204
10.10000 7.879
10.12000 -3.324
10.14000 4.790
10.16000 -1.959
10.18000 -4.242
10.20000 2.379
10.22000 8.924
10.24000 5.802
10.26000 2.598
10.28000 7.373
10.30000 7.923
10.32000 3.918
10.34000 13.220
10.36000 13.720
10.38000 16.954
10.40000 20.003
10.42000 10.797
10.44000 4.022
10.46000 23.270
10.48000 9.474
10.50000 -4.172
10.52000 2.462
10.54000 18.796
10.56000 22.375
10.58000 23.703
10.60000 30.319
10.62000 20.750
10.64000 13.288
10.66000 7.629
10.68000 11.988
10.70000 5.857
10.72000 8.383
10.74000 15.139
10.76000 23.663
10.78000 30.917
10.80000 16.419
10.82000 -2.411
10.84000 1.006
10.86000 -0.327
10.88000 0.034
10.90000 1.078
10.92000 7.411
10.94000 26.988
10.96000 13.807
10.98000 9.896
11.00000 15.552
11.02000 18.801
11.04000 21.607
11.06000 22.828
11.08000 12.494
11.10000 12.170
11.12000 26.272
11.14000 24.968
11.16000 17.726
11.18000 26.431
11.20000 29.277
11.22000 23.706
11.24000 16.720
11.26000 22.455
11.28000 24.466
11.30000 28.324
11.32000 18.667
11.34000 7.410
11.36000 -4.279
11.38000 12.977
11.40000 11.882
11.42000 22.009
11.44000 25.941
11.46000 17.086
11.48000 11.258
11.50000 17.360
11.52000 15.333
11.54000 13.891
11.56000 15.978
11.58000 7.877
11.60000 13.159
11.62000 15.928
11.64000 10.030
11.66000 8.705
11.68000 18.074
11.70000 19.400
11.72000 18.137
11.74000 25.967
11.76000 14.499
11.78000 10.033
11.80000 10.735
11.82000 18.326
11.84000 18.845
11.86000 12.364
11.88000 12.777
11.90000 9.829
11.92000 15.012
11.94000 20.719
11.96000 22.611
11.98000 28.020
12.00000 6.497
12.02000 5.831
12.04000 24.980
12.06000 23.574
12.08000 16.651
12.10000 12.727
12.12000 4.125
12.14000 12.891
12.16000 19.928
12.18000 13.911
12.20000 -2.405
12.22000 0.504
12.24000 12.652
12.26000 16.582
12.28000 16.408
12.30000 18.803
12.32000 7.539
12.34000 0.095
12.36000 11.254
12.38000 8.379
12.40000 15.535
12.42000 12.611
12.44000 12.021
12.46000 13.989
12.48000 17.779
12.50000 24.579
12.52000 13.504
12.54000 16.330
12.56000 20.730
12.58000 23.785
12.60000 29.659
12.62000 24.647
12.64000 22.161
12.66000 12.040
12.68000 10.214
12.70000 17.604
12.72000 13.988
12.74000 7.197
12.76000 6.152
12.78000 15.810
12.80000 10.747
12.82000 8.724
12.84000 16.895
12.86000 25.200
12.88000 24.729
12.90000 15.813
12.92000 7.773
12.94000 2.845
12.96000 8.069
12.98000 18.249
13.00000 15.969
13.02000 10.917
13.04000 -0.730
13.06000 7.750
13.08000 11.251
13.10000 4.574
13.12000 8.502
13.14000 17.207
13.16000 23.218
13.18000 25.543
13.20000 16.910
13.22000 7.750
13.24000 6.438
13.26000 9.925
13.28000 19.831
13.30000 18.902
13.32000 12.807
13.34000 16.855
13.36000 18.027
13.38000 3.305
13.40000 4.462
13.42000 12.649
13.44000 13.031
13.46000 8.912
13.48000 2.456
13.50000 10.907
13.52000 20.888
13.54000 15.700
13.56000 0.710
13.58000 12.726
13.60000 16.857
13.62000 13.224
13.64000 6.153
13.66000 9.345
13.68000 7.282
13.70000 2.499
13.72000 3.180
13.74000 10.677
13.76000 3.292
13.78000 12.845
13.80000 12.471
13.82000 15.121
13.84000 12.717
13.86000 17.338
13.88000 16.937
13.90000 7.568
13.92000 5.583
13.94000 7.084
13.96000 2.669
13.98000 8.896
14.00000 14.360
14.02000 5.236
14.04000 0.059
14.06000 11.181
14.08000 11.944
14.10000 6.219
14.12000 9.200
14.14000 14.355
14.16000 12.283
14.18000 7.569
14.20000 8.406
14.22000 -2.262
14.24000 5.622
14.26000 14.635
14.28000 11.773
14.30000 16.781
14.32000 15.000
14.34000 12.421
14.36000 1.534
14.38000 10.280
14.40000 10.049
14.42000 8.432
14.44000 2.034
14.46000 8.859
14.48000 8.755
14.50000 10.570
14.52000 10.484
14.54000 13.956
14.56000 13.207
14.58000 8.368
14.60000 4.536
14.62000 1.730
14.64000 12.292
14.66000 13.728
14.68000 7.253
14.70000 4.397
14.72000 2.434
14.74000 4.622
14.76000 6.338
14.78000 12.642
14.80000 14.645
14.82000 12.103
14.84000 4.665
14.86000 7.101
14.88000 4.326
14.90000 -3.611
14.92000 1.585
14.94000 14.039
14.96000 10.846
14.98000 4.686
15.00000 7.377
15.02000 11.616
15.04000 12.588
15.06000 8.540
15.08000 19.497
15.10000 12.025
15.12000 14.508
15.14000 11.658
15.16000 3.896
15.18000 7.829
15.20000 11.479
15.22000 10.389
15.24000 12.574
15.26000 5.100
15.28000 12.689
15.30000 21.274
15.32000 9.689
15.34000 -0.531
15.36000 9.784
15.38000 10.180
15.40000 5.476
15.42000 13.185
15.44000 15.129
15.46000 9.411
15.48000 13.761
15.50000 12.681
15.52000 10.665
15.54000 9.769
15.56000 14.443
15.58000 14.131
15.60000 4.790
15.62000 5.906
15.64000 3.375
15.66000 4.539
15.68000 5.676
15.70000 13.525
15.72000 14.201
15.74000 14.625
15.76000 6.650
15.78000 7.279
15.80000 10.666
15.82000 7.966
15.84000 9.745
15.86000 16.810
15.88000 16.070
15.90000 11.146
15.92000 10.426
15.94000 10.349
15.96000 8.049
15.98000 2.900
16.00000 -4.408
16.02000 2.455
16.04000 18.677
16.06000 11.308
16.08000 14.769
16.10000 10.166
16.12000 1.426
16.14000 7.238
16.16000 3.681
16.18000 3.966
16.20000 -3.083
16.22000 0.841
16.24000 -0.838
16.26000 5.447
16.28000 13.253
16.30000 12.090
16.32000 9.715
16.34000 9.292
16.36000 7.818
16.38000 1.107
16.40000 7.187
16.42000 4.530
16.44000 5.032
16.46000 4.613
16.48000 8.906
16.50000 9.456
16.52000 6.212
16.54000 2.901
16.56000 -3.335
16.58000 0.831
16.60000 5.500
16.62000 13.722
16.64000 14.689
16.66000 8.143
16.68000 7.089
16.70000 7.959
16.72000 8.669
16.74000 14.657
16.76000 14.803
16.78000 13.712
16.80000 13.198
16.82000 10.098
16.84000 14.964
16.86000 13.653
16.88000 10.326
16.90000 10.522
16.92000 9.640
16.94000 12.132
16.96000 10.168
16.98000 14.171
17.00000 13.532
17.02000 12.257
17.04000 13.163
17.06000 14.490
17.08000 8.738
17.10000 11.661
17.12000 8.409
17.14000 10.745
17.16000 16.137
17.18000 7.295
17.20000 -1.928
17.22000 5.978
17.24000 9.341
17.26000 -2.165
17.28000 -4.341
17.30000 0.323
17.32000 11.987
17.34000 12.715
17.36000 9.458
17.38000 8.096
17.40000 12.928
17.42000 13.001
17.44000 9.594
17.46000 10.198
17.48000 12.588
17.50000 4.356
17.52000 6.220
17.54000 10.004
17.56000 7.730
17.58000 6.759
17.60000 10.319
17.62000 10.036
17.64000 3.736
17.66000 9.631
17.68000 13.392
17.70000 8.324
17.72000 9.827
17.74000 8.127
17.76000 15.019
17.78000 14.069
17.80000 12.937
17.82000 4.697
17.84000 6.535
17.86000 8.248
17.88000 14.117
17.90000 12.219
17.92000 10.210
17.94000 11.293
17.96000 7.307
17.98000 4.326
18.00000 5.594
18.02000 4.557
18.04000 11.892
18.06000 15.791
18.08000 15.396
18.10000 5.806
18.12000 10.553
18.14000 14.056
18.16000 11.546
18.18000 8.896
18.20000 6.086
18.22000 9.056
18.24000 5.797
18.26000 0.889
18.28000 -1.855
18.30000 6.717
18.32000 8.841
18.34000 4.042
18.36000 5.062
18.38000 6.909
18.40000 5.368
18.42000 9.793
18.44000 5.712
18.46000 2.432
18.48000 7.344
18.50000 6.097
18.52000 0.995
18.54000 1.511
18.56000 5.749
18.58000 0.818
18.60000 2.455
18.62000 5.136
18.64000 1.429
18.66000 0.670
18.68000 7.746
18.70000 8.466
18.72000 12.553
18.74000 8.318
18.76000 6.193
18.78000 10.454
18.80000 14.214
18.82000 9.089
18.84000 4.493
18.86000 3.998
18.88000 6.875
18.90000 7.776
18.92000 4.280
18.94000 5.600
18.96000 4.174
18.98000 6.991
19.00000 8.604
19.02000 0.438
19.04000 -3.175
19.06000 0.560
19.08000 3.986
19.10000 5.791
19.12000 6.938
19.14000 1.072
19.16000 7.204
19.18000 0.576
19.20000 -0.573
19.22000 6.676
19.24000 4.038
19.26000 1.480
19.28000 1.902
19.30000 3.010
19.32000 1.208
19.34000 -4.254
19.36000 4.304
19.38000 10.949
19.40000 12.657
19.42000 8.431
19.44000 4.307
19.46000 6.302
19.48000 6.169
19.50000 7.246
19.52000 6.146
19.54000 5.927
19.56000 4.434
19.58000 13.110
19.60000 9.177
19.62000 7.194
19.64000 3.355
19.66000 5.832
19.68000 2.734
19.70000 4.724
19.72000 7.898
19.74000 5.673
19.76000 1.866
19.78000 1.296
19.80000 -0.464
19.82000 5.181
19.84000 5.891
19.86000 9.321
19.88000 8.050
19.90000 12.857
19.92000 14.497
19.94000 5.863
19.96000 3.702
19.98000 -4.221
20.00000 -1.495
20.02000 6.035
20.04000 4.552
20.06000 11.269
20.08000 7.066
20.10000 5.526
20.12000 5.588
20.14000 2.260
20.16000 -1.712
20.18000 7.504
20.20000 8.076
20.22000 6.847
20.24000 7.214
20.26000 0.337
20.28000 1.755
20.30000 7.101
20.32000 7.374
20.34000 4.274
20.36000 7.401
20.38000 4.338
20.40000 0.080
20.42000 2.568
20.44000 6.852
20.46000 3.625
20.48000 2.082
20.50000 0.979
20.52000 -3.522
20.54000 1.481
20.56000 5.909
20.58000 4.813
20.60000 9.481
20.62000 9.870
20.64000 6.086
20.66000 5.631
20.68000 3.537
20.70000 2.385
20.72000 -2.673
20.74000 -4.191
20.76000 3.075
20.78000 15.044
20.80000 5.536
20.82000 9.306
20.84000 12.172
20.86000 6.141
20.88000 5.619
20.90000 7.121
20.92000 10.985
20.94000 14.020
20.96000 13.612
20.98000 8.795
21.00000 12.680
21.02000 8.719
21.04000 1.331
21.06000 5.378
21.08000 9.398
21.10000 11.169
21.12000 6.049
21.14000 8.621
21.16000 2.759
21.18000 0.167
21.20000 -0.954
21.22000 2.804
21.24000 5.188
21.26000 3.700
21.28000 3.926
21.30000 3.972
21.32000 3.422
21.34000 6.522
21.36000 1.975
21.38000 0.281
21.40000 9.413
21.42000 10.543
21.44000 1.739
21.46000 3.900
21.48000 -2.105
21.50000 5.347
21.52000 8.375
21.54000 12.063
21.56000 6.270
21.58000 3.624
21.60000 -1.886
21.62000 -3.512
21.64000 6.319
21.66000 6.446
21.68000 0.819
21.70000 -3.053
21.72000 -0.429
21.74000 1.905
21.76000 1.488
21.78000 3.338
21.80000 -0.218
21.82000 4.482
21.84000 5.073
21.86000 1.372
21.88000 8.012
21.90000 13.897
21.92000 7.635
21.94000 0.386
21.96000 6.432
21.98000 0.214
22.00000 -0.094
22.02000 4.529
22.04000 9.665
22.06000 5.277
22.08000 2.222
22.10000 5.396
22.12000 8.542
22.14000 4.810
22.16000 5.509
22.18000 6.808
22.20000 4.030
22.22000 0.499
22.24000 3.557
22.26000 5.307
22.28000 3.300
22.30000 0.948
22.32000 6.734
22.34000 -0.132
22.36000 -3.438
22.38000 3.171
22.40000 3.155
22.42000 1.463
22.44000 -0.055
22.46000 1.544
22.48000 4.093
22.50000 6.486
22.52000 6.131
22.54000 6.452
22.56000 0.451
22.58000 -1.769
22.60000 -4.077
22.62000 -2.948
22.64000 2.897
22.66000 3.199
22.68000 0.712
22.70000 0.002
22.72000 5.739
22.74000 16.513
22.76000 9.833
22.78000 1.685
22.80000 1.568
22.82000 3.381
22.84000 3.706
22.86000 2.795
22.88000 7.104
22.90000 4.023
22.92000 -1.814
22.94000 0.131
22.96000 -0.942
22.98000 3.647
23.00000 6.498
23.02000 5.850
23.04000 2.671
23.06000 1.779
23.08000 -0.101
23.10000 -0.065
23.12000 4.053
23.14000 7.757
23.16000 7.764
23.18000 8.359
23.20000 5.810
23.22000 -1.769
23.24000 2.976
23.26000 4.099
23.28000 -0.105
23.30000 2.039
23.32000 6.683
23.34000 5.996
23.36000 2.073
23.38000 4.160
23.40000 2.184
23.42000 -2.453
23.44000 7.026
23.46000 11.405
23.48000 7.720
23.50000 1.180
23.52000 0.492
23.54000 5.992
23.56000 6.089
23.58000 -1.628
23.60000 -2.271
23.62000 -0.738
23.64000 1.053
23.66000 5.372
23.68000 5.391
23.70000 -2.828
23.72000 -4.029
23.74000 -0.896
23.76000 1.225
23.78000 3.564
23.80000 5.452
23.82000 9.169
23.84000 5.600
23.86000 5.987
23.88000 5.281
23.90000 7.553
23.92000 1.278
23.94000 -0.678
23.96000 2.548
23.98000 3.087
24.00000 0.776
24.02000 -0.804
24.04000 5.753
24.06000 6.090
24.08000 9.211
24.10000 8.635
24.12000 8.087
24.14000 4.388
24.16000 3.076
24.18000 2.657
24.20000 0.786
24.22000 -0.714
24.24000 0.771
24.26000 -0.875
24.28000 2.250
24.30000 6.676
24.32000 2.365
24.34000 3.520
24.36000 -1.139
24.38000 -2.266
24.40000 3.342
24.42000 0.619
24.44000 0.722
24.46000 -0.134
24.48000 -2.343
24.50000 2.878
24.52000 -1.981
24.54000 -1.044
24.56000 0.911
24.58000 0.690
24.60000 4.138
24.62000 5.081
24.64000 -0.167
24.66000 0.469
24.68000 0.555
24.70000 8.372
24.72000 4.171
24.74000 5.728
24.76000 1.256
24.78000 1.733
24.80000 0.933
24.82000 8.574
24.84000 8.519
24.86000 9.617
24.88000 6.216
24.90000 4.780
24.92000 7.522
24.94000 9.495
24.96000 3.123
24.98000 6.757
25.00000 9.866
25.02000 6.456
25.04000 6.301
25.06000 7.197
25.08000 8.266
25.10000 6.794
25.12000 6.882
25.14000 7.761
25.16000 3.775
25.18000 1.407
25.20000 2.629
25.22000 5.469
25.24000 5.447
25.26000 0.487
25.28000 -1.488
25.30000 4.503
25.32000 7.155
25.34000 4.932
25.36000 4.539
25.38000 4.522
25.40000 3.735
25.42000 2.805
25.44000 5.470
25.46000 10.920
25.48000 11.147
25.50000 2.215
25.52000 -3.924
25.54000 1.398
25.56000 5.127
25.58000 8.454
25.60000 12.334
25.62000 7.969
25.64000 2.413
25.66000 7.800
25.68000 7.563
25.70000 1.861
25.72000 -1.958
25.74000 0.085
25.76000 7.934
25.78000 4.065
25.80000 1.402
25.82000 3.722
25.84000 4.680
25.86000 3.516
25.88000 4.544
25.90000 6.778
25.92000 4.315
25.94000 1.448
25.96000 -1.762
25.98000 -2.296
26.00000 -2.148
26.02000 -1.997
26.04000 1.055
26.06000 4.464
26.08000 5.339
26.10000 3.569
26.12000 4.719
26.14000 3.524
26.16000 4.682
26.18000 2.383
26.20000 6.206
26.22000 1.852
26.24000 3.071
26.26000 3.242
26.28000 2.563
26.30000 7.184
26.32000 9.270
26.34000 6.261
26.36000 1.067
26.38000 2.865
26.40000 8.262
26.42000 8.338
26.44000 4.360
26.46000 5.996
26.48000 4.352
26.50000 6.826
26.52000 4.281
26.54000 7.430
26.56000 6.795
26.58000 2.596
26.60000 -2.033
26.62000 -1.765
26.64000 4.116
26.66000 2.515
26.68000 4.172
26.70000 3.765
26.72000 3.270
26.74000 7.556
26.76000 3.519
26.78000 -1.970
26.80000 3.923
26.82000 6.292
26.84000 5.299
26.86000 7.943
26.88000 13.331
26.90000 11.776
26.92000 7.019
26.94000 5.625
26.96000 3.862
26.98000 3.297
27.00000 9.784
27.02000 5.108
27.04000 5.857
27.06000 2.615
27.08000 -1.618
27.10000 -3.831
27.12000 -3.827
27.14000 6.879
27.16000 15.270
27.18000 9.916
27.20000 3.340
27.22000 5.894
27.24000 10.071
27.26000 10.697
27.28000 4.326
27.30000 2.997
27.32000 2.508
27.34000 4.915
27.36000 9.476
27.38000 4.422
27.40000 4.197
27.42000 3.294
27.44000 0.025
27.46000 4.239
27.48000 8.968
27.50000 6.208
27.52000 -1.244
27.54000 2.331
27.56000 0.570
27.58000 2.472
27.60000 7.560
27.62000 5.590
27.64000 6.697
27.66000 8.154
27.68000 4.517
27.70000 3.974
27.72000 3.199
27.74000 5.540
27.76000 1.493
27.78000 3.695
27.80000 9.543
27.82000 5.990
27.84000 4.105
27.86000 10.467
27.88000 4.154
27.90000 2.200
27.92000 5.366
27.94000 2.071
27.96000 4.195
27.98000 5.477
28.00000 -0.723
28.02000 -1.087
28.04000 6.361
28.06000 6.903
28.08000 2.479
28.10000 3.097
28.12000 11.137
28.14000 4.962
28.16000 5.706
28.18000 5.430
28.20000 6.117
28.22000 7.546
28.24000 2.944
28.26000 6.501
28.28000 2.378
28.30000 1.994
28.32000 6.349
28.34000 10.206
28.36000 7.823
28.38000 5.952
28.40000 10.330
28.42000 11.000
28.44000 9.574
28.46000 -2.058
28.48000 0.203
28.50000 2.946
28.52000 7.614
28.54000 6.741
28.56000 5.298
28.58000 2.121
28.60000 6.199
28.62000 0.266
28.64000 -3.754
28.66000 -1.016
28.68000 2.049
28.70000 3.217
28.72000 1.626
28.74000 2.339
28.76000 6.427
28.78000 5.840
28.80000 8.076
28.82000 5.134
28.84000 3.791
28.86000 0.984
28.88000 4.091
28.90000 4.175
28.92000 4.938
28.94000 5.535
28.96000 6.412
28.98000 7.806
29.00000 9.977
29.02000 9.660
29.04000 4.945
29.06000 -0.045
29.08000 -2.879
29.10000 -1.400
29.12000 -0.485
29.14000 -0.214
29.16000 1.575
29.18000 5.386
29.20000 5.725
29.22000 4.760
29.24000 5.190
29.26000 4.839
29.28000 6.352
29.30000 3.485
29.32000 3.617
29.34000 -1.023
29.36000 -0.137
29.38000 -2.262
29.40000 2.168
29.42000 2.367
29.44000 3.144
29.46000 5.129
29.48000 1.995
29.50000 5.001
29.52000 9.084
29.54000 1.313
29.56000 2.917
29.58000 1.544
29.60000 1.180
29.62000 8.273
29.64000 8.522
29.66000 8.945
29.68000 3.259
29.70000 4.580
29.72000 5.213
29.74000 7.772
29.76000 6.917
29.78000 2.550
29.80000 3.447
29.82000 5.312
29.84000 4.291
29.86000 6.831
29.88000 9.804
29.90000 6.917
29.92000 2.338
29.94000 -1.264
29.96000 0.117
29.98000 5.082
30.00000 7.747
30.02000 9.710
30.04000 6.713
30.06000 -0.694
30.08000 -3.658
30.10000 0.342
30.12000 0.196
30.14000 4.038
30.16000 5.305
30.18000 2.433
30.20000 5.453
30.22000 6.760
30.24000 8.923
30.26000 6.484
30.28000 2.025
30.30000 1.242
30.32000 -3.660
30.34000 0.620
30.36000 2.127
30.38000 3.575
30.40000 5.492
30.42000 6.469
30.44000 9.002
30.46000 3.895
30.48000 1.098
30.50000 8.366
30.52000 7.513
30.54000 5.360
30.56000 1.971
30.58000 6.441
30.60000 -0.517
30.62000 1.726
30.64000 2.078
30.66000 1.016
30.68000 5.720
30.70000 5.902
30.72000 3.518
30.74000 5.271
30.76000 5.041
30.78000 8.311
30.80000 7.093
30.82000 6.516
30.84000 8.089
30.86000 5.523
30.88000 3.485
30.90000 2.989
30.92000 5.724
30.94000 3.978
30.96000 -0.245
30.98000 -0.284
31.00000 5.359
31.02000 6.166
31.04000 1.109
31.06000 -0.864
31.08000 3.779
31.10000 2.653
31.12000 0.861
31.14000 2.933
31.16000 2.666
31.18000 5.073
31.20000 6.285
31.22000 6.516
31.24000 2.515
31.26000 0.689
31.28000 3.843
31.30000 5.831
31.32000 8.456
31.34000 4.749
31.36000 0.109
31.38000 -1.280
31.40000 -3.554
31.42000 4.462
31.44000 8.785
31.46000 3.966
31.48000 1.113
31.50000 1.800
31.52000 0.119
31.54000 1.653
31.56000 3.251
31.58000 4.390
31.60000 4.506
31.62000 4.128
31.64000 1.709
31.66000 3.851
31.68000 5.538
31.70000 3.236
31.72000 1.113
31.74000 -1.729
31.76000 6.152
31.78000 8.148
31.80000 5.903
31.82000 8.959
31.84000 6.813
31.86000 1.775
31.88000 -3.613
31.90000 1.628
31.92000 2.551
31.94000 0.657
31.96000 -0.503
31.98000 -3.045
32.00000 0.487
32.02000 4.014
32.04000 6.687
32.06000 2.992
32.08000 2.540
32.10000 4.185
32.12000 8.468
32.14000 5.069
32.16000 6.346
32.18000 1.839
32.20000 2.759
32.22000 5.263
32.24000 4.972
32.26000 4.301
32.28000 7.272
32.30000 7.478
32.32000 4.343
32.34000 4.867
32.36000 4.448
32.38000 -0.633
32.40000 -3.573
32.42000 4.664
32.44000 10.785
32.46000 7.891
32.48000 6.629
32.50000 7.077
32.52000 8.008
32.54000 3.106
32.56000 -2.331
32.58000 3.451
32.60000 2.274
32.62000 3.699
32.64000 5.207
32.66000 5.580
32.68000 2.708
32.70000 5.458
32.72000 7.645
32.74000 10.664
32.76000 10.158
32.78000 5.817
32.80000 1.195
32.82000 1.156
32.84000 2.860
32.86000 3.865
32.88000 1.164
32.90000 2.395
32.92000 2.638
32.94000 5.503
32.96000 7.192
32.98000 9.137
33.00000 2.727
33.02000 0.017
33.04000 -1.737
33.06000 0.330
33.08000 0.926
33.10000 3.704
33.12000 -1.022
33.14000 2.485
33.16000 2.595
33.18000 4.253
33.20000 -0.952
33.22000 -1.772
33.24000 -2.069
33.26000 -0.356
33.28000 3.499
33.30000 -3.123
33.32000 2.363
33.34000 6.878
33.36000 4.282
33.38000 4.465
33.40000 3.294
33.42000 0.618
33.44000 -1.001
33.46000 -1.942
33.48000 5.590
33.50000 4.688
33.52000 4.009
33.54000 4.552
33.56000 1.006
33.58000 2.212
33.60000 2.557
33.62000 7.070
33.64000 3.492
33.66000 5.670
33.68000 5.557
33.70000 3.045
33.72000 2.567
33.74000 7.118
33.76000 4.676
33.78000 1.367
33.80000 -0.311
33.82000 3.504
33.84000 2.512
33.86000 3.102
33.88000 1.494
33.90000 4.123
33.92000 6.083
33.94000 8.518
33.96000 5.434
33.98000 8.283
34.00000 9.254
34.02000 6.650
34.04000 7.364
34.06000 7.068
34.08000 4.874
34.10000 3.845
34.12000 -0.192
34.14000 4.853
34.16000 6.204
34.18000 4.085
34.20000 4.056
34.22000 2.819
34.24000 1.056
34.26000 -2.541
34.28000 -3.541
34.30000 -0.221
34.32000 0.003
34.34000 -0.138
34.36000 0.550
34.38000 7.312
34.40000 5.200
34.42000 4.033
34.44000 5.777
34.46000 6.855
34.48000 8.248
34.50000 8.348
34.52000 5.400
34.54000 4.836
34.56000 2.255
34.58000 -1.082
34.60000 2.068
34.62000 3.029
34.64000 6.616
34.66000 7.363
34.68000 4.766
34.70000 4.462
34.72000 0.870
34.74000 2.084
34.76000 6.821
34.78000 6.756
34.80000 -0.388
34.82000 2.902
34.84000 5.022
34.86000 0.087
34.88000 0.878
34.90000 -1.148
34.92000 0.356
34.94000 -3.541
34.96000 -0.083
34.98000 -0.276
35.00000 1.448
35.02000 3.633
35.04000 0.869
35.06000 -2.009
35.08000 -0.748
35.10000 1.015
35.12000 3.983
35.14000 1.828
35.16000 -0.108
35.18000 0.575
35.20000 -1.928
35.22000 1.998
35.24000 3.567
35.26000 2.817
35.28000 5.240
35.30000 3.982
35.32000 4.923
35.34000 3.349
35.36000 0.781
35.38000 1.750
35.40000 3.987
35.42000 9.890
35.44000 6.846
35.46000 3.252
35.48000 4.563
35.50000 3.433
35.52000 2.297
35.54000 -3.532
35.56000 -0.937
35.58000 1.904
35.60000 4.728
35.62000 4.094
35.64000 2.835
35.66000 1.004
35.68000 2.400
35.70000 2.213
35.72000 4.895
35.74000 0.306
35.76000 -0.744
35.78000 -0.528
35.80000 1.106
35.82000 1.668
35.84000 2.578
35.86000 4.589
35.88000 5.767
35.90000 8.052
35.92000 9.338
35.94000 4.461
35.96000 -0.546
35.98000 -2.296
36.00000 -0.995
36.02000 -0.936
36.04000 0.257
36.06000 -0.616
36.08000 2.753
36.10000 3.330
36.12000 4.201
36.14000 4.215
36.16000 0.238
36.18000 0.402
36.20000 -0.326
36.22000 2.900
36.24000 3.619
36.26000 7.491
36.28000 5.967
36.30000 1.864
36.32000 1.233
36.34000 3.422
36.36000 6.385
36.38000 4.899
36.40000 7.497
36.42000 0.734
36.44000 2.680
36.46000 10.194
36.48000 3.106
36.50000 2.196
36.52000 6.816
36.54000 5.765
36.56000 -3.531
36.58000 2.599
36.60000 11.156
36.62000 6.745
36.64000 5.701
36.66000 0.119
36.68000 3.748
36.70000 4.907
36.72000 3.015
36.74000 2.773
36.76000 2.972
36.78000 10.615
36.80000 6.065
36.82000 -2.196
36.84000 -3.087
36.86000 1.497
36.88000 9.329
36.90000 7.317
36.92000 5.458
36.94000 0.966
36.96000 2.461
36.98000 2.505
37.00000 1.117
37.02000 3.983
37.04000 4.995
37.06000 4.692
37.08000 2.304
37.10000 5.808
37.12000 5.904
37.14000 6.348
37.16000 2.334
37.18000 -0.174
37.20000 0.487
37.22000 2.003
37.24000 1.467
37.26000 7.346
37.28000 1.379
37.30000 -3.605
37.32000 0.431
37.34000 2.305
37.36000 -1.306
37.38000 -1.652
37.40000 -2.285
37.42000 1.687
37.44000 0.334
37.46000 -1.242
37.48000 -0.115
37.50000 0.668
37.52000 1.783
37.54000 3.440
37.56000 1.680
37.58000 2.036
37.60000 3.322
37.62000 4.540
37.64000 4.337
37.66000 5.618
37.68000 7.138
37.70000 2.011
37.72000 0.991
37.74000 5.743
37.76000 3.016
37.78000 3.511
37.80000 5.149
37.82000 4.458
37.84000 -0.301
37.86000 3.859
37.88000 8.387
37.90000 9.299
37.92000 6.226
37.94000 6.841
37.96000 6.373
37.98000 7.482
38.00000 5.443
38.02000 3.333
38.04000 3.759
38.06000 7.081
38.08000 5.104
38.10000 12.775
38.12000 16.590
38.14000 9.744
38.16000 10.042
38.18000 8.915
38.20000 8.006
38.22000 9.336
38.24000 9.529
38.26000 6.722
38.28000 12.896
38.30000 12.530
38.32000 10.845
38.34000 9.088
38.36000 10.917
38.38000 11.768
38.40000 15.628
38.42000 21.509
38.44000 21.481
38.46000 12.886
38.48000 16.409
38.50000 23.587
38.52000 22.255
38.54000 16.104
38.56000 19.109
38.58000 20.773
38.60000 21.447
38.62000 20.976
38.64000 22.909
38.66000 23.354
38.68000 20.859
38.70000 24.274
38.72000 26.116
38.74000 31.874
38.76000 29.255
38.78000 24.824
38.80000 26.326
38.82000 27.808
38.84000 29.274
38.86000 34.991
38.88000 37.605
38.90000 34.003
38.92000 31.739
38.94000 36.608
38.96000 38.671
38.98000 38.694
39.00000 42.103
39.02000 41.386
39.04000 37.003
39.06000 43.270
39.08000 43.773
39.10000 54.042
39.12000 57.461
39.14000 59.785
39.16000 56.954
39.18000 59.735
39.20000 61.367
39.22000 66.375
39.24000 71.041
39.26000 71.399
39.28000 79.408
39.30000 85.146
39.32000 84.021
39.34000 85.217
39.36000 89.530
39.38000 91.880
39.40000 92.429
39.42000 104.009
39.44000 112.402
39.46000 118.712
39.48000 113.279
39.50000 119.256
39.52000 127.113
39.54000 141.637
39.56000 135.999
39.58000 140.481
39.60000 158.220
39.62000 165.562
39.64000 164.253
39.66000 171.042
39.68000 183.488
39.70000 196.371
39.72000 206.900
39.74000 209.733
39.76000 218.616
39.78000 229.988
39.80000 241.139
39.82000 249.698
39.84000 266.226
39.86000 278.003
39.88000 288.581
39.90000 297.248
39.92000 318.530
39.94000 328.370
39.96000 340.394
39.98000 356.360
40.00000 366.016
40.02000 381.381
40.04000 395.837
40.06000 412.178
40.08000 428.118
40.10000 449.532
40.12000 454.622
40.14000 466.545
40.16000 477.001
40.18000 486.602
40.20000 500.392
40.22000 510.428
40.24000 519.244
40.26000 530.391
40.28000 542.059
40.30000 554.063
40.32000 552.875
40.34000 550.724
40.36000 557.983
40.38000 564.400
40.40000 566.633
40.42000 560.731
40.44000 548.850
40.46000 550.308
40.48000 544.256
40.50000 546.798
40.52000 528.940
40.54000 511.732
40.56000 499.042
40.58000 493.447
40.60000 493.111
40.62000 477.668
40.64000 458.174
40.66000 454.840
40.68000 435.298
40.70000 408.588
40.72000 394.316
40.74000 392.153
40.76000 377.879
40.78000 359.306
40.80000 350.484
40.82000 336.297
40.84000 317.630
40.86000 301.465
40.88000 290.910
40.90000 273.139
40.92000 267.591
40.94000 254.531
40.96000 234.757
40.98000 219.952
41.00000 219.798
41.02000 206.923
41.04000 193.472
41.06000 181.552
41.08000 173.817
41.10000 167.946
41.12000 153.998
41.14000 143.708
41.16000 133.786
41.18000 133.605
41.20000 123.126
41.22000 119.170
41.24000 117.326
41.26000 107.115
41.28000 102.617
41.30000 98.794
41.32000 92.527
41.34000 86.301
41.36000 78.687
41.38000 78.484
41.40000 78.939
41.42000 71.736
41.44000 65.539
41.46000 60.467
41.48000 56.001
41.50000 55.512
41.52000 53.442
41.54000 49.736
41.56000 49.550
41.58000 50.295
41.60000 47.080
41.62000 41.901
41.64000 34.090
41.66000 33.188
41.68000 37.065
41.70000 39.830
41.72000 33.821
41.74000 34.045
41.76000 29.748
41.78000 30.773
41.80000 26.610
41.82000 22.986
41.84000 28.123
41.86000 27.743
41.88000 23.422
41.90000 20.085
41.92000 16.090
41.94000 18.211
41.96000 17.726
41.98000 17.216
42.00000 11.193
42.02000 13.739
42.04000 10.451
42.06000 9.206
42.08000 13.606
42.10000 9.182
42.12000 8.544
42.14000 12.355
42.16000 8.920
42.18000 2.045
42.20000 -2.525
42.22000 8.550
42.24000 9.747
42.26000 6.007
42.28000 7.564
42.30000 3.525
42.32000 3.534
42.34000 5.764
42.36000 4.879
42.38000 2.835
42.40000 1.387
42.42000 4.252
42.44000 4.474
42.46000 1.992
42.48000 5.280
42.50000 5.942
42.52000 1.399
42.54000 3.262
42.56000 8.080
42.58000 7.086
42.60000 4.464
42.62000 6.304
42.64000 4.843
42.66000 -2.013
42.68000 -1.281
42.70000 5.076
42.72000 8.652
42.74000 4.283
42.76000 2.047
42.78000 6.127
42.80000 1.274
42.82000 -1.203
42.84000 0.838
42.86000 7.917
42.88000 8.270
42.90000 2.752
42.92000 0.556
42.94000 -2.013
42.96000 -3.067
42.98000 -1.312
43.00000 -1.893
43.02000 -0.896
43.04000 2.346
43.06000 0.301
43.08000 1.702
43.10000 2.998
43.12000 3.407
43.14000 -0.725
43.16000 -1.858
43.18000 -1.507
43.20000 0.427
43.22000 1.848
43.24000 2.535
43.26000 -1.240
43.28000 0.716
43.30000 5.489
43.32000 0.242
43.34000 -3.515
43.36000 1.461
43.38000 -3.512
43.40000 -2.326
43.42000 2.165
43.44000 0.046
43.46000 0.137
43.48000 1.248
43.50000 -1.983
43.52000 -1.274
43.54000 0.256
43.56000 -2.575
43.58000 -1.999
43.60000 2.800
43.62000 0.464
43.64000 0.364
43.66000 0.984
43.68000 -1.881
43.70000 -0.907
43.72000 -0.012
43.74000 -1.531
43.76000 -1.920
43.78000 1.794
43.80000 2.805
43.82000 -3.382
43.84000 -0.690
43.86000 -1.169
43.88000 -0.380
43.90000 -0.548
43.92000 0.536
43.94000 -1.407
43.96000 -1.552
43.98000 -0.020
44.00000 -0.124
44.02000 -0.897
44.04000 -2.597
44.06000 -0.755
44.08000 2.666
44.10000 3.049
44.12000 0.672
44.14000 -1.715
44.16000 -2.857
44.18000 -3.413
44.20000 -1.682
44.22000 3.085
44.24000 3.738
44.26000 -1.173
44.28000 -0.813
44.30000 -2.806
44.32000 -0.142
44.34000 1.008
44.36000 -0.207
44.38000 1.337
44.40000 -0.261
44.42000 -2.297
44.44000 -3.491
44.46000 1.619
44.48000 1.825
44.50000 3.012
44.52000 3.532
44.54000 1.400
44.56000 -2.168
44.58000 -1.584
44.60000 2.350
44.62000 0.565
44.64000 -2.887
44.66000 -0.740
44.68000 0.121
44.70000 3.062
44.72000 1.891
44.74000 4.081
44.76000 3.600
44.78000 4.342
44.80000 11.183
44.82000 6.617
44.84000 6.703
44.86000 2.420
44.88000 -1.465
44.90000 0.745
44.92000 0.778
44.94000 1.922
44.96000 -3.335
44.98000 0.094
45.00000 0.520
45.02000 4.016
45.04000 2.768
45.06000 2.157
45.08000 0.419
45.10000 1.100
45.12000 -1.014
45.14000 5.786
45.16000 5.896
45.18000 5.379
45.20000 3.708
45.22000 4.746
45.24000 5.445
45.26000 8.159
45.28000 9.735
45.30000 10.335
45.32000 8.129
45.34000 4.427
45.36000 3.022
45.38000 6.165
45.40000 8.388
45.42000 6.825
45.44000 1.990
45.46000 5.044
45.48000 8.830
45.50000 12.372
45.52000 17.420
45.54000 16.389
45.56000 17.777
45.58000 16.612
45.60000 20.761
45.62000 20.639
45.64000 21.562
45.66000 22.222
45.68000 15.190
45.70000 16.414
45.72000 21.938
45.74000 29.597
45.76000 31.512
45.78000 27.148
45.80000 22.064
45.82000 18.164
45.84000 20.926
45.86000 27.405
45.88000 27.524
45.90000 27.436
45.92000 27.091
45.94000 29.394
45.96000 33.671
45.98000 34.648
46.00000 35.679
46.02000 35.081
46.04000 36.791
46.06000 37.295
46.08000 37.758
46.10000 32.160
46.12000 38.656
46.14000 45.910
46.16000 43.098
46.18000 41.447
46.20000 42.848
46.22000 43.661
46.24000 47.970
46.26000 55.314
46.28000 54.391
46.30000 49.923
46.32000 50.814
46.34000 49.845
46.36000 49.883
46.38000 58.023
46.40000 54.469
46.42000 59.135
46.44000 55.872
46.46000 54.454
46.48000 59.666
46.50000 68.295
46.52000 66.405
46.54000 63.791
46.56000 65.477
46.58000 67.582
46.60000 68.706
46.62000 67.463
46.64000 78.973
46.66000 77.216
46.68000 69.945
46.70000 69.566
46.72000 71.709
46.74000 77.215
46.76000 77.165
46.78000 76.779
46.80000 80.428
46.82000 77.826
46.84000 86.201
46.86000 80.146
46.88000 75.800
46.90000 78.139
46.92000 86.928
46.94000 87.586
46.96000 81.502
46.98000 82.416
47.00000 79.013
47.02000 81.970
47.04000 82.043
47.06000 76.049
47.08000 76.312
47.10000 75.375
47.12000 74.390
47.14000 77.115
47.16000 72.935
47.18000 75.338
47.20000 71.031
47.22000 73.193
47.24000 74.734
47.26000 71.079
47.28000 71.685
47.30000 71.959
47.32000 68.767
47.34000 70.376
47.36000 65.713
47.38000 63.146
47.40000 67.552
47.42000 62.650
47.44000 50.463
47.46000 45.312
47.48000 47.983
47.50000 53.097
47.52000 55.939
47.54000 57.480
47.56000 49.731
47.58000 49.906
47.60000 43.676
47.62000 42.639
47.64000 40.246
47.66000 46.085
47.68000 47.882
47.70000 43.306
47.72000 33.029
47.74000 42.337
47.76000 40.764
47.78000 35.744
47.80000 40.979
47.82000 41.871
47.84000 34.670
47.86000 24.979
47.88000 29.349
47.90000 25.785
47.92000 22.900
47.94000 23.590
47.96000 23.115
47.98000 24.579
48.00000 26.101
48.02000 18.898
48.04000 9.738
48.06000 10.710
48.08000 19.753
48.10000 15.996
48.12000 15.092
48.14000 10.058
48.16000 12.203
48.18000 9.704
48.20000 8.302
48.22000 11.753
48.24000 10.845
48.26000 12.074
48.28000 10.733
48.30000 8.271
48.32000 4.525
48.34000 9.174
48.36000 9.846
48.38000 6.148
48.40000 2.216
48.42000 -2.744
48.44000 4.984
48.46000 10.222
48.48000 9.874
48.50000 7.143
48.52000 6.599
48.54000 1.726
48.56000 1.697
48.58000 2.116
48.60000 1.133
48.62000 0.901
48.64000 -2.391
48.66000 -0.992
48.68000 4.357
48.70000 4.655
48.72000 2.727
48.74000 1.621
48.76000 2.833
48.78000 -0.733
48.80000 0.197
48.82000 -0.630
48.84000 -1.026
48.86000 -0.276
48.88000 3.353
48.90000 2.623
48.92000 0.475
48.94000 2.254
48.96000 6.312
48.98000 7.403
49.00000 4.721
49.02000 0.801
49.04000 -0.114
49.06000 0.736
49.08000 1.822
49.10000 8.217
49.12000 9.900
49.14000 10.047
49.16000 4.228
49.18000 -3.131
49.20000 5.821
49.22000 6.213
49.24000 -0.484
49.26000 2.988
49.28000 6.481
49.30000 6.715
49.32000 6.203
49.34000 5.428
49.36000 5.103
49.38000 3.197
49.40000 5.925
49.42000 2.392
49.44000 4.110
49.46000 1.279
49.48000 2.493
49.50000 -1.294
49.52000 1.710
49.54000 4.826
49.56000 5.871
49.58000 3.863
49.60000 -3.051
49.62000 -0.735
49.64000 3.739
49.66000 8.735
49.68000 6.712
49.70000 2.098
49.72000 -2.884
49.74000 -1.088
49.76000 3.155
49.78000 4.950
49.80000 7.129
49.82000 7.890
49.84000 3.547
49.86000 5.718
49.88000 3.605
49.90000 4.154
49.92000 4.122
49.94000 2.851
49.96000 7.127
49.98000 4.072
50.00000 2.719
50.02000 4.131
50.04000 6.202
50.06000 2.953
50.08000 -0.749
50.10000 -0.043
50.12000 10.480
50.14000 7.223
50.16000 8.711
50.18000 7.804
50.20000 4.359
50.22000 4.656
50.24000 8.975
50.26000 8.600
50.28000 4.021
50.30000 6.612
50.32000 4.882
50.34000 1.353
50.36000 -2.941
50.38000 0.667
50.40000 2.605
50.42000 5.865
50.44000 4.935
50.46000 0.324
50.48000 5.302
50.50000 5.789
50.52000 4.014
50.54000 -1.211
50.56000 2.733
50.58000 6.422
50.60000 6.903
50.62000 8.102
50.64000 8.494
50.66000 6.125
50.68000 7.048
50.70000 4.105
50.72000 6.008
50.74000 3.761
50.76000 3.714
50.78000 0.386
50.80000 4.119
50.82000 6.046
50.84000 8.918
50.86000 3.622
50.88000 6.307
50.90000 4.608
50.92000 5.191
50.94000 10.979
50.96000 6.627
50.98000 0.332
51.00000 -1.659
51.02000 0.180
51.04000 0.792
51.06000 -0.171
51.08000 4.431
51.10000 7.898
51.12000 8.274
51.14000 5.237
51.16000 5.685
51.18000 6.839
51.20000 6.304
51.22000 8.580
51.24000 5.100
51.26000 0.445
51.28000 -1.210
51.30000 4.179
51.32000 4.594
51.34000 3.979
51.36000 3.592
51.38000 1.433
51.40000 3.943
51.42000 3.928
51.44000 3.698
51.46000 0.924
51.48000 5.056
51.50000 3.716
51.52000 3.010
51.54000 3.530
51.56000 2.135
51.58000 6.426
51.60000 7.156
51.62000 7.035
51.64000 2.364
51.66000 3.787
51.68000 9.507
51.70000 4.339
51.72000 -1.152
51.74000 2.262
51.76000 3.824
51.78000 2.533
51.80000 8.018
51.82000 9.487
51.84000 6.758
51.86000 7.095
51.88000 9.013
51.90000 6.066
51.92000 8.535
51.94000 7.780
51.96000 0.231
51.98000 -2.880
52.00000 -0.495
52.02000 3.239
52.04000 7.582
52.06000 5.960
52.08000 8.735
52.10000 1.898
52.12000 2.148
52.14000 4.117
52.16000 4.207
52.18000 3.371
52.20000 5.394
52.22000 1.477
52.24000 2.852
52.26000 7.276
52.28000 3.488
52.30000 -1.102
52.32000 0.242
52.34000 5.297
52.36000 4.102
52.38000 7.853
52.40000 8.008
52.42000 9.431
52.44000 3.538
52.46000 0.560
52.48000 1.253
52.50000 3.428
52.52000 -1.003
52.54000 -2.890
52.56000 0.460
52.58000 5.238
52.60000 7.770
52.62000 5.058
52.64000 5.919
52.66000 5.077
52.68000 2.238
52.70000 6.762
52.72000 5.178
52.74000 0.178
52.76000 3.776
52.78000 6.244
52.80000 5.866
52.82000 2.381
52.84000 1.675
52.86000 6.744
52.88000 11.224
52.90000 5.632
52.92000 7.351
52.94000 8.795
52.96000 2.989
52.98000 5.211
53.00000 1.603
53.02000 4.330
53.04000 -0.886
53.06000 -0.406
53.08000 2.984
53.10000 1.119
53.12000 1.020
53.14000 -0.844
53.16000 2.637
53.18000 1.257
53.20000 -0.216
53.22000 -1.044
53.24000 0.915
53.26000 1.877
53.28000 8.435
53.30000 4.759
53.32000 4.817
53.34000 0.932
53.36000 4.065
53.38000 5.886
53.40000 1.559
53.42000 -0.792
53.44000 4.928
53.46000 6.438
53.48000 4.644
53.50000 5.918
53.52000 2.358
53.54000 1.927
53.56000 2.681
53.58000 2.703
53.60000 7.514
53.62000 4.923
53.64000 1.340
53.66000 4.911
53.68000 4.857
53.70000 2.094
53.72000 4.379
53.74000 3.452
53.76000 5.141
53.78000 0.748
53.80000 5.678
53.82000 6.122
53.84000 4.609
53.86000 -2.548
53.88000 -2.846
53.90000 1.336
53.92000 3.525
53.94000 2.822
53.96000 6.001
53.98000 0.287
54.00000 -0.059
54.02000 1.972
54.04000 3.034
54.06000 4.157
54.08000 0.880
54.10000 -2.666
54.12000 -0.942
54.14000 0.058
54.16000 5.357
54.18000 6.333
54.20000 4.842
54.22000 9.593
54.24000 8.894
54.26000 5.256
54.28000 2.746
54.30000 -2.489
54.32000 4.393
54.34000 4.814
54.36000 5.493
54.38000 3.250
54.40000 3.259
54.42000 6.952
54.44000 3.141
54.46000 -0.064
54.48000 2.532
54.50000 2.094
54.52000 0.333
54.54000 0.906
54.56000 6.073
54.58000 6.539
54.60000 2.560
54.62000 -0.251
54.64000 0.122
54.66000 0.133
54.68000 3.138
54.70000 3.181
54.72000 -2.846
54.74000 0.966
54.76000 7.940
54.78000 4.464
54.80000 5.584
54.82000 1.708
54.84000 -1.027
54.86000 0.438
54.88000 3.335
54.90000 -1.602
54.92000 -2.502
54.94000 0.049
54.96000 2.551
54.98000 5.899
55.00000 6.348
55.02000 -0.445
55.04000 3.048
55.06000 3.435
55.08000 5.125
55.10000 7.635
55.12000 5.036
55.14000 -2.830
55.16000 -1.238
55.18000 6.015
55.20000 5.019
55.22000 2.402
55.24000 2.067
55.26000 2.078
55.28000 -0.221
55.30000 1.507
55.32000 1.407
55.34000 -0.456
55.36000 -2.824
55.38000 -1.310
55.40000 -2.558
55.42000 -1.968
55.44000 -0.348
55.46000 1.961
55.48000 5.082
55.50000 3.183
55.52000 1.713
55.54000 0.710
55.56000 3.033
55.58000 7.033
55.60000 9.164
55.62000 12.414
55.64000 8.737
55.66000 5.796
55.68000 6.721
55.70000 -0.095
55.72000 1.287
55.74000 6.360
55.76000 1.232
55.78000 4.950
55.80000 3.584
55.82000 -0.250
55.84000 1.948
55.86000 0.002
55.88000 -1.332
55.90000 -2.528
55.92000 2.087
55.94000 4.622
55.96000 -0.258
55.98000 1.088
56.00000 -0.315
56.02000 4.339
56.04000 6.679
56.06000 6.245
56.08000 3.660
56.10000 0.970
56.12000 1.465
56.14000 3.653
56.16000 2.561
56.18000 0.661
56.20000 -0.900
56.22000 0.246
56.24000 3.109
56.26000 -0.364
56.28000 -0.803
56.30000 -0.754
56.32000 1.571
56.34000 -1.701
56.36000 3.356
56.38000 2.494
56.40000 2.910
56.42000 5.257
56.44000 2.923
56.46000 5.267
56.48000 4.094
56.50000 2.116
56.52000 2.003
56.54000 8.555
56.56000 4.768
56.58000 3.150
56.60000 2.898
56.62000 0.359
56.64000 3.256
56.66000 2.645
56.68000 5.129
56.70000 2.408
56.72000 2.580
56.74000 3.251
56.76000 6.240
56.78000 7.337
56.80000 1.331
56.82000 -0.611
56.84000 -1.365
56.86000 -2.781
56.88000 -0.658
56.90000 4.398
56.92000 5.399
56.94000 6.402
56.96000 3.731
56.98000 -1.297
57.00000 3.024
57.02000 3.246
57.04000 3.541
57.06000 0.710
57.08000 5.970
57.10000 2.536
57.12000 -1.753
57.14000 -0.587
57.16000 -0.660
57.18000 4.334
57.20000 3.045
57.22000 -2.124
57.24000 -2.678
57.26000 3.486
57.28000 3.535
57.30000 1.692
57.32000 -0.494
57.34000 -2.112
57.36000 -1.281
57.38000 -0.604
57.40000 -0.489
57.42000 -1.729
57.44000 3.649
57.46000 5.274
57.48000 4.531
57.50000 5.099
57.52000 5.192
57.54000 4.993
57.56000 4.451
57.58000 6.586
57.60000 2.510
57.62000 0.569
57.64000 0.803
57.66000 0.862
57.68000 0.650
57.70000 0.865
57.72000 -1.527
57.74000 0.498
57.76000 1.112
57.78000 7.658
57.80000 9.450
57.82000 3.773
57.84000 -0.165
57.86000 3.227
57.88000 0.458
57.90000 -2.754
57.92000 -0.215
57.94000 5.311
57.96000 1.804
57.98000 -0.976
58.00000 1.282
58.02000 0.904
58.04000 -0.337
58.06000 1.584
58.08000 5.111
58.10000 3.252
58.12000 1.120
58.14000 0.584
58.16000 -2.145
58.18000 -2.736
58.20000 2.228
58.22000 4.425
58.24000 2.505
58.26000 3.746
58.28000 1.855
58.30000 4.351
58.32000 1.875
58.34000 -0.662
58.36000 -1.264
58.38000 -0.440
58.40000 1.966
58.42000 2.845
58.44000 -0.459
58.46000 1.928
58.48000 1.850
58.50000 5.718
58.52000 5.730
58.54000 0.690
58.56000 -1.062
58.58000 1.268
58.60000 2.523
58.62000 5.827
58.64000 7.409
58.66000 1.170
58.68000 2.919
58.70000 5.228
58.72000 0.274
58.74000 5.578
58.76000 7.353
58.78000 4.869
58.80000 2.250
58.82000 1.825
58.84000 2.893
58.86000 1.951
58.88000 1.133
58.90000 8.447
58.92000 5.389
58.94000 0.498
58.96000 3.068
58.98000 3.731
59.00000 2.330
59.02000 6.655
59.04000 2.070
59.06000 4.617
59.08000 4.604
59.10000 2.895
59.12000 2.915
59.14000 4.767
59.16000 7.467
59.18000 6.599
59.20000 -1.198
59.22000 -2.671
59.24000 6.255
59.26000 6.699
59.28000 5.377
59.30000 3.955
59.32000 1.095
59.34000 4.390
59.36000 3.224
59.38000 2.124
59.40000 3.425
59.42000 5.983
59.44000 3.063
59.46000 6.620
59.48000 7.819
59.50000 5.742
59.52000 -1.447
59.54000 0.770
59.56000 2.886
59.58000 6.469
59.60000 3.162
59.62000 2.245
59.64000 3.919
59.66000 5.094
59.68000 6.257
59.70000 6.583
59.72000 1.880
59.74000 1.052
59.76000 2.789
59.78000 -0.658
59.80000 0.373
59.82000 6.354
59.84000 7.696
59.86000 4.883
59.88000 2.183
59.90000 4.089
59.92000 5.301
59.94000 4.261
59.96000 1.617
59.98000 2.618
60.00000 4.853
60.02000 0.272
60.04000 -2.190
60.06000 0.679
60.08000 -2.433
60.10000 1.510
60.12000 -0.913
60.14000 -0.685
60.16000 3.654
60.18000 6.817
60.20000 6.400
60.22000 8.273
60.24000 6.190
60.26000 4.931
60.28000 4.281
60.30000 2.355
60.32000 3.799
60.34000 4.192
60.36000 4.914
60.38000 1.914
60.40000 4.166
60.42000 -0.298
60.44000 -2.639
60.46000 0.148
60.48000 1.004
60.50000 4.127
60.52000 10.657
60.54000 3.924
60.56000 3.895
60.58000 5.822
60.60000 3.282
60.62000 2.505
60.64000 4.328
60.66000 3.405
60.68000 2.507
60.70000 1.313
60.72000 2.745
60.74000 0.109
60.76000 0.365
60.78000 1.539
60.80000 0.693
60.82000 -0.467
60.84000 1.725
60.86000 1.048
60.88000 -2.001
60.90000 -0.362
60.92000 3.493
60.94000 3.951
60.96000 2.327
60.98000 6.923
61.00000 4.274
61.02000 3.434
61.04000 5.927
61.06000 7.159
61.08000 5.403
61.10000 2.082
61.12000 2.045
61.14000 4.321
61.16000 1.182
61.18000 0.990
61.20000 -0.633
61.22000 2.257
61.24000 5.900
61.26000 3.493
61.28000 3.115
61.30000 0.387
61.32000 0.060
61.34000 3.842
61.36000 4.201
61.38000 2.046
61.40000 3.000
61.42000 -0.400
61.44000 -2.080
61.46000 -1.117
61.48000 0.028
61.50000 -0.190
61.52000 0.997
61.54000 0.784
61.56000 1.997
61.58000 -2.601
61.60000 -1.681
61.62000 4.917
61.64000 4.973
61.66000 3.943
61.68000 0.872
61.70000 -2.607
61.72000 2.628
61.74000 3.498
61.76000 1.038
61.78000 -2.426
61.80000 3.462
61.82000 1.760
61.84000 1.763
61.86000 2.797
61.88000 4.565
61.90000 3.790
61.92000 5.532
61.94000 0.565
61.96000 1.691
61.98000 -1.927
62.00000 -1.735
62.02000 -1.346
62.04000 2.294
62.06000 2.403
62.08000 3.983
62.10000 6.707
62.12000 4.639
62.14000 6.345
62.16000 4.887
62.18000 4.731
62.20000 5.013
62.22000 9.306
62.24000 5.737
62.26000 1.376
62.28000 0.564
62.30000 1.794
62.32000 1.792
62.34000 0.890
62.36000 3.482
62.38000 1.326
62.40000 3.002
62.42000 4.923
62.44000 1.595
62.46000 -0.974
62.48000 1.959
62.50000 5.034
62.52000 0.142
62.54000 -1.857
62.56000 2.618
62.58000 0.565
62.60000 2.003
62.62000 4.150
62.64000 1.136
62.66000 -1.067
62.68000 3.287
62.70000 0.486
62.72000 -1.859
62.74000 -2.045
62.76000 -0.328
62.78000 0.102
62.80000 0.088
62.82000 0.071
62.84000 2.727
62.86000 4.601
62.88000 1.107
62.90000 0.989
62.92000 1.014
62.94000 0.160
62.96000 -0.336
62.98000 4.281
63.00000 6.201
63.02000 1.281
63.04000 1.758
63.06000 4.234
63.08000 2.394
63.10000 -2.604
63.12000 -0.410
63.14000 3.447
63.16000 4.562
63.18000 0.717
63.20000 1.236
63.22000 0.450
63.24000 -1.457
63.26000 2.339
63.28000 2.589
63.30000 0.735
63.32000 1.323
63.34000 -1.505
63.36000 2.400
63.38000 0.204
63.40000 1.256
63.42000 3.497
63.44000 0.961
63.46000 -2.134
63.48000 2.422
63.50000 4.025
63.52000 1.203
63.54000 -0.414
63.56000 3.744
63.58000 3.364
63.60000 3.478
63.62000 5.203
63.64000 8.242
63.66000 4.219
63.68000 1.884
63.70000 1.289
63.72000 0.182
63.74000 2.000
63.76000 4.598
63.78000 4.260
63.80000 3.428
63.82000 4.556
63.84000 1.972
63.86000 -1.858
63.88000 1.264
63.90000 -0.165
63.92000 -1.433
63.94000 0.924
63.96000 2.337
63.98000 7.583
64.00000 3.119
64.02000 1.008
64.04000 3.921
64.06000 6.223
64.08000 0.977
64.10000 2.464
64.12000 2.985
64.14000 7.063
64.16000 6.045
64.18000 5.861
64.20000 3.665
64.22000 2.745
64.24000 1.002
64.26000 2.562
64.28000 7.874
64.30000 7.749
64.32000 6.428
64.34000 4.282
64.36000 1.549
64.38000 1.031
64.40000 1.299
64.42000 1.434
64.44000 -0.098
64.46000 5.339
64.48000 6.489
64.50000 3.714
64.52000 4.991
64.54000 6.465
64.56000 4.140
64.58000 5.290
64.60000 6.184
64.62000 2.900
64.64000 3.022
64.66000 5.867
64.68000 6.216
64.70000 6.194
64.72000 9.846
64.74000 6.830
64.76000 -1.325
64.78000 -2.550
64.80000 2.678
64.82000 7.240
64.84000 6.952
64.86000 5.616
64.88000 0.770
64.90000 5.803
64.92000 9.285
64.94000 6.848
64.96000 7.511
64.98000 5.703
65.00000 4.791
65.02000 2.336
65.04000 7.804
65.06000 7.857
65.08000 7.298
65.10000 4.662
65.12000 4.300
65.14000 8.305
65.16000 6.338
65.18000 5.037
65.20000 2.293
65.22000 2.700
65.24000 3.223
65.26000 1.425
65.28000 0.962
65.30000 1.158
65.32000 -2.582
65.34000 -1.580
65.36000 5.500
65.38000 5.385
65.40000 6.647
65.42000 2.412
65.44000 3.447
65.46000 2.248
65.48000 5.011
65.50000 4.919
65.52000 2.907
65.54000 5.360
65.56000 5.050
65.58000 4.907
65.60000 3.884
65.62000 5.688
65.64000 7.951
65.66000 6.118
65.68000 0.543
65.70000 4.285
65.72000 3.573
65.74000 -0.520
65.76000 -0.950
65.78000 1.114
65.80000 5.945
65.82000 4.905
65.84000 -2.623
65.86000 -2.525
65.88000 2.422
65.90000 2.326
65.92000 2.735
65.94000 2.322
65.96000 0.899
65.98000 3.302
66.00000 2.698
66.02000 4.694
66.04000 2.874
66.06000 1.764
66.08000 2.025
66.10000 -0.645
66.12000 -0.993
66.14000 1.362
66.16000 1.064
66.18000 1.365
66.20000 1.617
66.22000 -1.458
66.24000 -0.764
66.26000 -1.861
66.28000 -0.393
66.30000 0.191
66.32000 1.700
66.34000 3.391
66.36000 5.668
66.38000 2.256
66.40000 1.250
66.42000 1.669
66.44000 -0.486
66.46000 1.074
66.48000 0.386
66.50000 0.781
66.52000 -2.681
66.54000 -1.833
66.56000 1.729
66.58000 1.709
66.60000 2.280
66.62000 0.424
66.64000 -2.670
66.66000 -1.784
66.68000 2.687
66.70000 5.670
66.72000 5.309
66.74000 2.641
66.76000 -0.134
66.78000 0.519
66.80000 2.734
66.82000 4.035
66.84000 1.683
66.86000 3.046
66.88000 6.298
66.90000 8.870
66.92000 7.173
66.94000 4.669
66.96000 1.922
66.98000 1.814
67.00000 1.389
67.02000 1.290
67.04000 1.303
67.06000 -0.962
67.08000 -0.794
67.10000 1.425
67.12000 0.104
67.14000 1.721
67.16000 2.196
67.18000 3.896
67.20000 6.336
67.22000 5.413
67.24000 3.652
67.26000 0.131
67.28000 3.818
67.30000 4.129
67.32000 1.429
67.34000 4.452
67.36000 3.851
67.38000 3.261
67.40000 2.756
67.42000 5.549
67.44000 7.482
67.46000 4.811
67.48000 2.180
67.50000 7.520
67.52000 10.539
67.54000 8.207
67.56000 7.573
67.58000 9.293
67.60000 9.629
67.62000 13.368
67.64000 12.156
67.66000 11.202
67.68000 10.321
67.70000 10.604
67.72000 10.590
67.74000 10.535
67.76000 11.730
67.78000 12.311
67.80000 11.341
67.82000 13.900
67.84000 15.730
67.86000 13.805
67.88000 16.122
67.90000 12.997
67.92000 13.852
67.94000 15.184
67.96000 14.068
67.98000 20.526
68.00000 16.683
68.02000 15.498
68.04000 20.588
68.06000 17.639
68.08000 16.417
68.10000 14.378
68.12000 12.414
68.14000 16.915
68.16000 20.412
68.18000 20.526
68.20000 20.144
68.22000 20.553
68.24000 16.183
68.26000 19.527
68.28000 21.647
68.30000 19.210
68.32000 24.046
68.34000 23.605
68.36000 20.648
68.38000 21.989
68.40000 23.601
68.42000 23.701
68.44000 20.441
68.46000 18.614
68.48000 21.789
68.50000 20.277
68.52000 19.066
68.54000 19.189
68.56000 21.719
68.58000 20.077
68.60000 20.741
68.62000 24.653
68.64000 25.563
68.66000 30.036
68.68000 27.149
68.70000 26.728
68.72000 27.237
68.74000 26.219
68.76000 21.238
68.78000 21.944
68.80000 23.590
68.82000 23.934
68.84000 25.571
68.86000 26.964
68.88000 25.270
68.90000 20.881
68.92000 21.886
68.94000 19.385
68.96000 17.224
68.98000 22.418
69.00000 20.014
69.02000 16.433
69.04000 18.285
69.06000 14.438
69.08000 15.407
69.10000 13.195
69.12000 16.363
69.14000 16.956
69.16000 17.478
69.18000 16.638
69.20000 16.181
69.22000 14.765
69.24000 19.120
69.26000 16.986
69.28000 12.155
69.30000 13.315
69.32000 15.449
69.34000 11.209
69.36000 8.094
69.38000 8.854
69.40000 12.078
69.42000 14.056
69.44000 11.094
69.46000 11.036
69.48000 11.960
69.50000 11.457
69.52000 8.604
69.54000 7.480
69.56000 11.678
69.58000 11.248
69.60000 10.953
69.62000 5.992
69.64000 4.538
69.66000 10.559
69.68000 8.684
69.70000 9.119
69.72000 9.275
69.74000 4.593
69.76000 8.567
69.78000 5.921
69.80000 4.451
69.82000 6.492
69.84000 7.748
69.86000 7.299
69.88000 5.165
69.90000 2.941
69.92000 2.764
69.94000 5.041
69.96000 10.005
69.98000 4.294
70.00000 2.503
70.02000 5.133
70.04000 3.644
70.06000 0.038
70.08000 -1.885
70.10000 -0.681
70.12000 0.732
70.14000 2.899
70.16000 3.872
70.18000 1.918
70.20000 5.740
70.22000 4.486
70.24000 2.923
70.26000 2.174
70.28000 3.660
70.30000 4.551
70.32000 4.353
70.34000 6.488
70.36000 4.809
70.38000 4.935
70.40000 2.009
70.42000 -2.545
70.44000 -0.227
70.46000 4.335
70.48000 -0.176
70.50000 0.275
70.52000 3.333
70.54000 2.052
70.56000 0.736
70.58000 1.758
70.60000 2.713
70.62000 3.383
70.64000 1.458
70.66000 6.066
70.68000 5.947
70.70000 2.902
70.72000 3.476
70.74000 6.831
70.76000 10.449
70.78000 4.146
70.80000 -0.506
70.82000 3.613
70.84000 5.074
70.86000 2.109
70.88000 1.652
70.90000 1.602
70.92000 6.346
70.94000 5.348
70.96000 2.538
70.98000 -1.344
71.00000 -0.280
71.02000 0.149
71.04000 1.893
71.06000 2.298
71.08000 -0.247
71.10000 -2.504
71.12000 0.994
71.14000 2.985
71.16000 0.392
71.18000 0.109
71.20000 -1.079
71.22000 -1.650
71.24000 2.214
71.26000 1.766
71.28000 5.789
71.30000 8.211
71.32000 2.748
71.34000 4.284
71.36000 6.310
71.38000 1.469
71.40000 3.083
71.42000 5.818
71.44000 5.630
71.46000 3.662
71.48000 3.866
71.50000 2.457
71.52000 2.071
71.54000 1.698
71.56000 3.673
71.58000 1.931
71.60000 1.771
71.62000 6.065
71.64000 2.096
71.66000 5.249
71.68000 5.226
71.70000 5.504
71.72000 7.409
71.74000 3.451
71.76000 3.211
71.78000 3.896
71.80000 0.105
71.82000 5.518
71.84000 5.404
71.86000 6.075
71.88000 6.398
71.90000 4.264
71.92000 6.416
71.94000 2.671
71.96000 8.555
71.98000 8.187
72.00000 6.314
72.02000 9.203
72.04000 8.147
72.06000 3.493
72.08000 3.587
72.10000 4.402
72.12000 0.051
72.14000 -2.379
72.16000 8.953
72.18000 11.492
72.20000 11.705
72.22000 9.752
72.24000 8.999
72.26000 8.411
72.28000 3.763
72.30000 3.608
72.32000 6.989
72.34000 4.710
72.36000 2.337
72.38000 2.411
72.40000 3.488
72.42000 0.278
72.44000 5.679
72.46000 7.130
72.48000 4.538
72.50000 7.580
72.52000 7.484
72.54000 5.559
72.56000 3.751
72.58000 5.112
72.60000 6.951
72.62000 4.875
72.64000 10.886
72.66000 6.915
72.68000 3.883
72.70000 1.912
72.72000 5.920
72.74000 8.358
72.76000 7.202
72.78000 4.011
72.80000 5.583
72.82000 11.534
72.84000 6.703
72.86000 3.833
72.88000 -2.395
72.90000 0.830
72.92000 6.300
72.94000 3.026
72.96000 1.939
72.98000 4.493
73.00000 2.020
73.02000 0.127
73.04000 2.716
73.06000 4.912
73.08000 3.517
73.10000 8.465
73.12000 4.244
73.14000 -1.058
73.16000 0.606
73.18000 2.962
73.20000 5.610
73.22000 5.212
73.24000 4.798
73.26000 4.416
73.28000 6.063
73.30000 9.393
73.32000 11.339
73.34000 2.854
73.36000 4.111
73.38000 4.218
73.40000 2.145
73.42000 1.697
73.44000 1.546
73.46000 3.559
73.48000 5.854
73.50000 2.849
73.52000 -1.335
73.54000 2.172
73.56000 4.888
73.58000 5.079
73.60000 1.985
73.62000 3.867
73.64000 2.857
73.66000 5.185
73.68000 5.724
73.70000 1.800
73.72000 2.156
73.74000 -0.204
73.76000 -1.737
73.78000 0.728
73.80000 6.204
73.82000 -0.611
73.84000 -1.564
73.86000 -0.155
73.88000 -1.596
73.90000 -0.019
73.92000 6.439
73.94000 5.958
73.96000 3.842
73.98000 0.351
74.00000 0.791
74.02000 1.807
74.04000 -1.074
74.06000 1.408
74.08000 0.621
74.10000 3.551
74.12000 0.120
74.14000 -1.639
74.16000 0.634
74.18000 2.906
74.20000 4.056
74.22000 2.382
74.24000 2.888
74.26000 4.933
74.28000 2.612
74.30000 0.595
74.32000 1.466
74.34000 3.681
74.36000 4.601
74.38000 0.937
74.40000 1.634
74.42000 -2.424
74.44000 -2.038
74.46000 -0.597
74.48000 3.718
74.50000 2.959
74.52000 0.705
74.54000 3.464
74.56000 4.018
74.58000 2.262
74.60000 4.819
74.62000 2.550
74.64000 3.854
74.66000 2.365
74.68000 3.698
74.70000 2.751
74.72000 -0.825
74.74000 -0.723
74.76000 1.518
74.78000 5.951
74.80000 4.996
74.82000 2.531
74.84000 0.287
74.86000 -0.519
74.88000 1.540
74.90000 0.673
74.92000 3.590
74.94000 4.155
74.96000 3.015
74.98000 1.819
75.00000 4.960
75.02000 4.246
75.04000 -0.721
75.06000 0.302
75.08000 1.732
75.10000 2.928
75.12000 7.104
75.14000 4.553
75.16000 -1.314
75.18000 6.481
75.20000 7.746
75.22000 5.223
75.24000 2.291
75.26000 1.930
75.28000 -2.261
75.30000 1.667
75.32000 2.818
75.34000 0.081
75.36000 3.325
75.38000 1.541
75.40000 0.812
75.42000 1.766
75.44000 3.002
75.46000 3.972
75.48000 2.233
75.50000 -0.628
75.52000 -2.415
75.54000 3.603
75.56000 11.630
75.58000 6.687
75.60000 1.503
75.62000 2.499
75.64000 0.527
75.66000 3.155
75.68000 0.828
75.70000 2.758
75.72000 5.127
75.74000 3.415
75.76000 3.837
75.78000 2.199
75.80000 4.101
75.82000 3.920
75.84000 2.115
75.86000 7.018
75.88000 3.200
75.90000 1.651
75.92000 5.145
75.94000 3.030
75.96000 5.273
75.98000 0.907
76.00000 1.776
76.02000 2.179
76.04000 4.793
76.06000 5.610
76.08000 0.911
76.10000 1.298
76.12000 5.440
76.14000 6.659
76.16000 3.505
76.18000 3.813
76.20000 1.527
76.22000 2.912
76.24000 5.055
76.26000 3.732
76.28000 5.466
76.30000 -1.501
76.32000 -2.400
76.34000 0.377
76.36000 5.962
76.38000 4.686
76.40000 -0.385
76.42000 1.546
76.44000 5.718
76.46000 5.361
76.48000 5.594
76.50000 2.151
76.52000 3.468
76.54000 0.679
76.56000 0.460
76.58000 1.875
76.60000 4.530
76.62000 4.341
76.64000 4.412
76.66000 3.642
76.68000 1.188
76.70000 -1.349
76.72000 7.439
76.74000 2.858
76.76000 -0.121
76.78000 2.160
76.80000 3.480
76.82000 0.265
76.84000 0.833
76.86000 4.428
76.88000 0.759
76.90000 -1.599
76.92000 1.381
76.94000 3.086
76.96000 1.897
76.98000 4.636
77.00000 10.008
77.02000 7.308
77.04000 1.071
77.06000 3.002
77.08000 4.590
77.10000 0.150
77.12000 0.565
77.14000 -0.099
77.16000 -2.417
77.18000 -2.074
77.20000 1.509
77.22000 2.523
77.24000 5.299
77.26000 2.889
77.28000 -1.652
77.30000 -0.510
77.32000 4.527
77.34000 5.648
77.36000 5.845
77.38000 3.094
77.40000 3.892
77.42000 3.801
77.44000 4.897
77.46000 1.439
77.48000 5.710
77.50000 2.269
77.52000 4.675
77.54000 7.411
77.56000 5.756
77.58000 1.118
77.60000 2.341
77.62000 -0.645
77.64000 4.113
77.66000 6.778
77.68000 0.102
77.70000 9.079
77.72000 9.654
77.74000 8.782
77.76000 7.553
77.78000 5.460
77.80000 2.949
77.82000 -0.245
77.84000 -1.721
77.86000 0.483
77.88000 -0.898
77.90000 3.820
77.92000 5.066
77.94000 4.150
77.96000 0.735
77.98000 2.203
78.00000 3.804
78.02000 5.222
78.04000 0.829
78.06000 1.910
78.08000 6.961
78.10000 3.938
78.12000 5.143
78.14000 -2.446
78.16000 -0.038
78.18000 0.070
78.20000 2.103
78.22000 2.814
78.24000 4.543
78.26000 1.157
78.28000 3.390
78.30000 1.782
78.32000 1.835
78.34000 3.378
78.36000 3.754
78.38000 2.803
78.40000 3.817
78.42000 3.294
78.44000 2.921
78.46000 4.170
78.48000 1.546
78.50000 0.354
78.52000 1.448
78.54000 6.263
78.56000 0.122
78.58000 5.282
78.60000 5.026
78.62000 0.358
78.64000 1.197
78.66000 4.466
78.68000 6.139
78.70000 4.266
78.72000 3.487
78.74000 7.994
78.76000 6.722
78.78000 1.717
78.80000 0.756
78.82000 -0.649
78.84000 -2.073
78.86000 0.914
78.88000 3.279
78.90000 3.708
78.92000 4.136
78.94000 3.641
78.96000 1.429
78.98000 -1.226
79.00000 -0.010
79.02000 -1.746
79.04000 0.050
79.06000 -1.715
79.08000 1.381
79.10000 -0.829
79.12000 3.528
79.14000 0.511
79.16000 -2.462
79.18000 0.616
79.20000 1.739
79.22000 3.166
79.24000 4.017
79.26000 1.701
79.28000 5.789
79.30000 -1.244
79.32000 0.574
79.34000 1.832
79.36000 5.792
79.38000 6.740
79.40000 0.638
79.42000 4.305
79.44000 7.083
79.46000 5.577
79.48000 0.015
79.50000 -2.034
79.52000 1.778
79.54000 6.318
79.56000 5.915
79.58000 2.486
79.60000 3.154
79.62000 2.088
79.64000 -0.022
79.66000 0.894
79.68000 1.741
79.70000 5.105
79.72000 5.546
79.74000 4.155
79.76000 3.798
79.78000 5.566
79.80000 2.871
79.82000 2.706
79.84000 0.765
79.86000 2.769
79.88000 3.995
79.90000 6.377
79.92000 7.182
79.94000 6.685
79.96000 0.312
79.98000 2.253
80.00000 6.239
80.02000 3.869
80.04000 2.484
80.06000 3.111
80.08000 1.927
80.10000 1.083
80.12000 4.169
80.14000 3.256
80.16000 0.950
80.18000 6.914
80.20000 5.752
80.22000 4.324
80.24000 4.696
80.26000 6.896
80.28000 8.941
80.30000 5.521
80.32000 3.411
80.34000 1.350
80.36000 1.097
80.38000 1.514
80.40000 0.005
80.42000 -2.515
80.44000 5.654
80.46000 7.709
80.48000 5.129
80.50000 3.082
80.52000 9.687
80.54000 6.002
80.56000 4.320
80.58000 6.009
80.60000 5.154
80.62000 5.754
80.64000 2.923
80.66000 4.308
80.68000 3.692
80.70000 -1.761
80.72000 1.575
80.74000 4.797
80.76000 5.258
80.78000 8.031
80.80000 7.560
80.82000 6.856
80.84000 8.848
80.86000 9.720
80.88000 4.869
80.90000 7.314
80.92000 5.121
80.94000 3.775
80.96000 5.954
80.98000 5.835
81.00000 10.079
81.02000 4.141
81.04000 2.872
81.06000 7.305
81.08000 7.831
81.10000 4.325
81.12000 4.594
81.14000 13.441
81.16000 13.593
81.18000 9.214
81.20000 9.250
81.22000 8.347
81.24000 6.753
81.26000 7.302
81.28000 4.352
81.30000 6.040
81.32000 3.432
81.34000 2.060
81.36000 8.212
81.38000 10.543
81.40000 11.123
81.42000 10.513
81.44000 9.300
81.46000 12.703
81.48000 10.273
81.50000 4.136
81.52000 9.301
81.54000 9.844
81.56000 9.713
81.58000 14.198
81.60000 17.628
81.62000 12.916
81.64000 11.295
81.66000 6.582
81.68000 11.745
81.70000 15.841
81.72000 11.734
81.74000 13.031
81.76000 14.930
81.78000 8.601
81.80000 16.377
81.82000 13.301
81.84000 14.036
81.86000 16.167
81.88000 12.414
81.90000 14.421
81.92000 10.058
81.94000 11.095
81.96000 13.843
81.98000 10.559
82.00000 14.304
82.02000 17.717
82.04000 15.743
82.06000 14.071
82.08000 19.043
82.10000 17.560
82.12000 15.236
82.14000 13.803
82.16000 16.062
82.18000 15.138
82.20000 17.218
82.22000 21.080
82.24000 13.683
82.26000 13.390
82.28000 20.962
82.30000 21.856
82.32000 18.744
82.34000 20.482
82.36000 15.841
82.38000 21.621
82.40000 18.540
82.42000 17.334
82.44000 16.588
82.46000 20.030
82.48000 21.000
82.50000 19.956
82.52000 24.527
82.54000 21.744
82.56000 22.247
82.58000 22.366
82.60000 27.576
82.62000 26.696
82.64000 22.226
82.66000 21.649
82.68000 22.413
82.70000 25.757
82.72000 24.067
82.74000 20.852
82.76000 19.577
82.78000 18.851
82.80000 23.811
82.82000 22.909
82.84000 27.089
82.86000 24.907
82.88000 24.215
82.90000 24.249
82.92000 27.682
82.94000 29.316
82.96000 25.528
82.98000 28.256
83.00000 25.031
83.02000 21.149
83.04000 21.711
83.06000 29.143
83.08000 28.197
83.10000 27.292
83.12000 17.103
83.14000 14.700
83.16000 13.054
83.18000 24.717
83.20000 26.396
83.22000 20.129
83.24000 20.515
83.26000 18.337
83.28000 23.975
83.30000 21.943
83.32000 20.005
83.34000 20.267
83.36000 18.685
83.38000 16.089
83.40000 20.728
83.42000 17.982
83.44000 15.842
83.46000 19.319
83.48000 15.873
83.50000 18.224
83.52000 20.374
83.54000 16.756
83.56000 11.168
83.58000 14.621
83.60000 11.373
83.62000 12.470
83.64000 12.218
83.66000 15.138
83.68000 20.385
83.70000 17.233
83.72000 13.629
83.74000 9.970
83.76000 5.499
83.78000 8.238
83.80000 12.035
83.82000 17.916
83.84000 13.601
83.86000 10.466
83.88000 8.278
83.90000 8.331
83.92000 11.394
83.94000 12.445
83.96000 8.869
83.98000 11.592
84.00000 6.638
84.02000 3.716
84.04000 10.516
84.06000 7.974
84.08000 1.606
84.10000 -0.920
84.12000 5.520
84.14000 9.474
84.16000 7.729
84.18000 5.771
84.20000 8.602
84.22000 10.913
84.24000 3.307
84.26000 3.823
84.28000 6.084
84.30000 5.851
84.32000 5.884
84.34000 7.678
84.36000 5.797
84.38000 1.928
84.40000 1.812
84.42000 0.794
84.44000 -1.260
84.46000 3.582
84.48000 3.357
84.50000 -1.439
84.52000 1.264
84.54000 0.346
84.56000 2.792
84.58000 1.532
84.60000 4.023
84.62000 3.710
84.64000 3.420
84.66000 0.330
84.68000 3.835
84.70000 -0.179
84.72000 -0.997
84.74000 -1.588
84.76000 -2.536
84.78000 2.008
84.80000 6.400
84.82000 1.361
84.84000 0.461
84.86000 -1.263
84.88000 2.396
84.90000 4.087
84.92000 5.528
84.94000 3.944
84.96000 8.371
84.98000 5.071
85.00000 -0.752
85.02000 3.317
85.04000 -0.179
85.06000 0.568
85.08000 8.228
85.10000 8.798
85.12000 2.052
85.14000 -1.344
85.16000 -2.490
85.18000 1.461
85.20000 5.067
85.22000 7.651
85.24000 4.701
85.26000 2.213
85.28000 3.349
85.30000 5.545
85.32000 5.101
85.34000 3.616
85.36000 4.128
85.38000 1.351
85.40000 0.653
85.42000 5.304
85.44000 5.859
85.46000 7.091
85.48000 1.393
85.50000 4.267
85.52000 3.505
85.54000 3.814
85.56000 4.663
85.58000 7.015
85.60000 9.943
85.62000 3.778
85.64000 3.037
85.66000 4.781
85.68000 5.530
85.70000 4.199
85.72000 4.751
85.74000 7.741
85.76000 7.589
85.78000 2.567
85.80000 -2.465
85.82000 2.795
85.84000 5.700
85.86000 6.066
85.88000 7.359
85.90000 6.753
85.92000 7.795
85.94000 3.467
85.96000 3.403
85.98000 6.434
86.00000 9.763
86.02000 5.886
86.04000 2.614
86.06000 5.914
86.08000 6.978
86.10000 6.531
86.12000 7.440
86.14000 7.054
86.16000 2.683
86.18000 3.797
86.20000 7.384
86.22000 7.937
86.24000 11.100
86.26000 13.960
86.28000 12.515
86.30000 6.265
86.32000 11.902
86.34000 7.305
86.36000 6.802
86.38000 9.448
86.40000 11.136
86.42000 12.922
86.44000 8.842
86.46000 11.845
86.48000 17.048
86.50000 11.133
86.52000 5.644
86.54000 10.618
86.56000 15.517
86.58000 15.794
86.60000 17.973
86.62000 16.021
86.64000 14.744
86.66000 14.233
86.68000 14.884
86.70000 12.376
86.72000 10.160
86.74000 11.760
86.76000 13.505
86.78000 12.620
86.80000 19.711
86.82000 20.791
86.84000 16.206
86.86000 11.196
86.88000 16.713
86.90000 21.802
86.92000 21.567
86.94000 15.339
86.96000 15.094
86.98000 12.943
87.00000 21.369
87.02000 28.157
87.04000 24.915
87.06000 24.860
87.08000 22.758
87.10000 18.881
87.12000 22.109
87.14000 19.877
87.16000 23.623
87.18000 21.809
87.20000 22.026
87.22000 18.695
87.24000 18.832
87.26000 26.783
87.28000 21.183
87.30000 22.911
87.32000 18.505
87.34000 19.413
87.36000 25.226
87.38000 18.837
87.40000 15.729
87.42000 12.679
87.44000 18.125
87.46000 18.227
87.48000 21.199
87.50000 21.678
87.52000 19.975
87.54000 21.529
87.56000 18.149
87.58000 20.198
87.60000 19.085
87.62000 15.633
87.64000 17.475
87.66000 16.002
87.68000 15.648
87.70000 19.111
87.72000 20.488
87.74000 19.901
87.76000 17.121
87.78000 18.399
87.80000 17.648
87.82000 14.625
87.84000 12.470
87.86000 10.565
87.88000 14.308
87.90000 20.597
87.92000 19.896
87.94000 9.806
87.96000 8.180
87.98000 9.677
88.00000 9.013
88.02000 4.103
88.04000 10.309
88.06000 17.438
88.08000 13.643
88.10000 13.392
88.12000 7.357
88.14000 12.390
88.16000 10.848
88.18000 8.335
88.20000 4.682
88.22000 4.052
88.24000 7.058
88.26000 10.043
88.28000 7.018
88.30000 3.255
88.32000 8.243
88.34000 6.009
88.36000 10.190
88.38000 7.862
88.40000 2.543
88.42000 3.505
88.44000 2.727
88.46000 2.360
88.48000 6.812
88.50000 5.327
88.52000 2.414
88.54000 3.444
88.56000 1.302
88.58000 7.320
88.60000 8.811
88.62000 4.141
88.64000 4.341
88.66000 6.137
88.68000 6.922
88.70000 7.505
88.72000 3.116
88.74000 3.248
88.76000 7.443
88.78000 5.043
88.80000 4.181
88.82000 5.489
88.84000 3.428
88.86000 3.511
88.88000 3.638
88.90000 1.365
88.92000 -1.330
88.94000 -2.382
88.96000 -1.606
88.98000 0.994
89.00000 1.454
89.02000 2.420
89.04000 8.982
89.06000 5.436
89.08000 1.737
89.10000 6.001
89.12000 1.526
89.14000 4.121
89.16000 0.849
89.18000 5.411
89.20000 5.238
89.22000 1.483
89.24000 -0.392
89.26000 -1.442
89.28000 6.710
89.30000 4.417
89.32000 1.813
89.34000 -0.288
89.36000 4.467
89.38000 5.131
89.40000 2.425
89.42000 3.228
89.44000 5.173
89.46000 -0.084
89.48000 -2.299
89.50000 -0.118
89.52000 0.759
89.54000 0.305
89.56000 4.531
89.58000 8.619
89.60000 4.688
89.62000 -2.296
89.64000 0.960
89.66000 3.656
89.68000 5.242
89.70000 5.763
89.72000 1.837
89.74000 -0.303
89.76000 1.447
89.78000 2.166
89.80000 4.140
89.82000 4.169
89.84000 3.452
89.86000 2.659
89.88000 1.785
89.90000 4.021
89.92000 2.084
89.94000 2.707
89.96000 1.396
89.98000 1.607
90.00000 2.707
90.02000 3.138
90.04000 4.158
90.06000 2.926
90.08000 5.505
90.10000 4.263
90.12000 4.974
90.14000 2.824
90.16000 6.661
90.18000 7.845
90.20000 6.269
90.22000 6.921
90.24000 5.713
90.26000 7.954
90.28000 5.124
90.30000 0.498
90.32000 3.499
90.34000 6.365
90.36000 8.119
90.38000 5.584
90.40000 2.793
90.42000 3.582
90.44000 3.343
90.46000 5.523
90.48000 7.271
90.50000 6.061
90.52000 7.078
90.54000 6.727
90.56000 7.705
90.58000 7.463
90.60000 7.984
90.62000 4.123
90.64000 2.337
90.66000 5.434
90.68000 9.545
90.70000 8.532
90.72000 -2.227
90.74000 -0.399
90.76000 7.648
90.78000 11.729
90.80000 7.723
90.82000 3.285
90.84000 3.196
90.86000 4.698
90.88000 8.322
90.90000 7.477
90.92000 8.762
90.94000 8.110
90.96000 7.763
90.98000 4.607
91.00000 7.470
91.02000 2.112
91.04000 -0.021
91.06000 6.656
91.08000 8.291
91.10000 13.240
91.12000 9.195
91.14000 10.239
91.16000 3.195
91.18000 2.379
91.20000 2.515
91.22000 7.078
91.24000 -0.251
91.26000 1.137
91.28000 7.972
91.30000 5.713
91.32000 7.758
91.34000 11.870
91.36000 8.582
91.38000 5.636
91.40000 8.971
91.42000 8.265
91.44000 0.468
91.46000 0.334
91.48000 -0.490
91.50000 5.611
91.52000 12.298
91.54000 9.928
91.56000 5.176
91.58000 3.888
91.60000 3.043
91.62000 1.373
91.64000 1.619
91.66000 3.757
91.68000 2.266
91.70000 5.785
91.72000 5.274
91.74000 9.971
91.76000 8.112
91.78000 2.031
91.80000 6.063
91.82000 8.342
91.84000 3.512
91.86000 2.180
91.88000 4.712
91.90000 2.157
91.92000 2.701
91.94000 2.765
91.96000 6.290
91.98000 4.167
92.00000 1.362
92.02000 0.933
92.04000 -2.256
92.06000 3.390
92.08000 5.822
92.10000 4.580
92.12000 2.563
92.14000 5.754
92.16000 5.702
92.18000 2.106
92.20000 6.863
92.22000 6.926
92.24000 -0.780
92.26000 -0.380
92.28000 5.685
92.30000 6.489
92.32000 5.319
92.34000 5.984
92.36000 6.490
92.38000 6.309
92.40000 6.047
92.42000 4.129
92.44000 5.185
92.46000 4.213
92.48000 2.771
92.50000 0.563
92.52000 5.067
92.54000 6.963
92.56000 9.929
92.58000 6.539
92.60000 3.988
92.62000 3.860
92.64000 4.659
92.66000 2.822
92.68000 4.441
92.70000 6.248
92.72000 7.912
92.74000 1.666
92.76000 2.267
92.78000 5.356
92.80000 1.967
92.82000 4.872
92.84000 -0.836
92.86000 -2.268
92.88000 1.207
92.90000 3.373
92.92000 2.767
92.94000 4.649
92.96000 -1.281
92.98000 0.772
93.00000 4.927
93.02000 1.732
93.04000 2.008
93.06000 2.737
93.08000 6.485
93.10000 10.818
93.12000 5.969
93.14000 5.333
93.16000 4.807
93.18000 2.895
93.20000 3.617
93.22000 3.759
93.24000 3.979
93.26000 4.872
93.28000 -0.362
93.30000 -0.488
93.32000 0.424
93.34000 0.543
93.36000 -1.161
93.38000 -2.286
93.40000 5.988
93.42000 2.590
93.44000 2.273
93.46000 3.409
93.48000 -0.118
93.50000 5.078
93.52000 0.484
93.54000 4.937
93.56000 9.760
93.58000 11.136
93.60000 5.088
93.62000 1.544
93.64000 4.506
93.66000 5.319
93.68000 5.218
93.70000 4.170
93.72000 5.610
93.74000 2.332
93.76000 1.123
93.78000 2.855
93.80000 4.851
93.82000 6.106
93.84000 5.953
93.86000 7.573
93.88000 4.602
93.90000 8.048
93.92000 4.097
93.94000 3.115
93.96000 4.822
93.98000 5.631
94.00000 5.576
94.02000 7.454
94.04000 4.859
94.06000 2.224
94.08000 3.647
94.10000 3.821
94.12000 1.761
94.14000 3.818
94.16000 6.261
94.18000 3.117
94.20000 2.742
94.22000 3.562
94.24000 2.697
94.26000 3.406
94.28000 0.684
94.30000 3.381
94.32000 3.840
94.34000 6.157
94.36000 4.085
94.38000 -0.415
94.40000 1.360
94.42000 1.295
94.44000 8.640
94.46000 8.596
94.48000 5.368
94.50000 6.328
94.52000 7.702
94.54000 5.634
94.56000 2.394
94.58000 4.008
94.60000 1.450
94.62000 0.453
94.64000 2.818
94.66000 1.234
94.68000 0.950
94.70000 0.815
94.72000 3.102
94.74000 1.764
94.76000 -0.438
94.78000 1.457
94.80000 -2.279
94.82000 1.751
94.84000 5.830
94.86000 1.990
94.88000 -0.313
94.90000 6.265
94.92000 4.011
94.94000 -0.938
94.96000 0.432
94.98000 2.602
95.00000 3.434
95.02000 2.055
95.04000 4.737
95.06000 1.121
95.08000 5.778
95.10000 12.300
95.12000 7.085
95.14000 6.151
95.16000 8.749
95.18000 12.094
95.20000 6.829
95.22000 10.330
95.24000 6.785
95.26000 2.667
95.28000 4.075
95.30000 1.549
95.32000 5.381
95.34000 8.111
95.36000 4.558
95.38000 5.318
95.40000 1.516
95.42000 1.852
95.44000 -0.840
95.46000 2.504
95.48000 5.668
95.50000 3.884
95.52000 2.455
95.54000 9.611
95.56000 10.403
95.58000 3.269
95.60000 -2.288
95.62000 5.816
95.64000 2.512
95.66000 1.625
95.68000 0.649
95.70000 1.552
95.72000 7.316
95.74000 7.732
95.76000 7.897
95.78000 0.393
95.80000 -2.233
95.82000 2.259
95.84000 2.872
95.86000 -0.896
95.88000 1.878
95.90000 3.551
95.92000 7.043
95.94000 4.205
95.96000 6.546
95.98000 3.499
96.00000 4.234
96.02000 4.265
96.04000 2.579
96.06000 -1.796
96.08000 -1.729
96.10000 1.327
96.12000 3.785
96.14000 7.728
96.16000 5.626
96.18000 1.500
96.20000 1.146
96.22000 0.427
96.24000 -1.025
96.26000 -1.079
96.28000 2.264
96.30000 10.167
96.32000 6.778
96.34000 -1.212
96.36000 7.912
96.38000 13.011
96.40000 2.978
96.42000 10.775
96.44000 5.584
96.46000 5.179
96.48000 4.608
96.50000 5.954
96.52000 6.440
96.54000 8.493
96.56000 15.300
96.58000 8.149
96.60000 2.908
96.62000 1.462
96.64000 2.987
96.66000 6.022
96.68000 5.122
96.70000 5.449
96.72000 -2.298
96.74000 -1.990
96.76000 -1.887
96.78000 1.113
96.80000 3.260
96.82000 7.539
96.84000 4.524
96.86000 3.326
96.88000 3.080
96.90000 4.915
96.92000 9.437
96.94000 6.546
96.96000 5.102
96.98000 3.472
97.00000 7.025
97.02000 7.046
97.04000 9.189
97.06000 10.338
97.08000 5.644
97.10000 -0.537
97.12000 3.446
97.14000 10.532
97.16000 2.384
97.18000 2.561
97.20000 3.500
97.22000 4.424
97.24000 5.789
97.26000 10.467
97.28000 0.579
97.30000 4.550
97.32000 8.542
97.34000 10.490
97.36000 15.685
97.38000 15.121
97.40000 7.240
97.42000 7.691
97.44000 12.321
97.46000 14.853
97.48000 7.867
97.50000 -2.255
97.52000 1.215
97.54000 4.161
97.56000 8.008
97.58000 -1.089
97.60000 -0.493
97.62000 6.493
97.64000 4.719
97.66000 6.223
97.68000 15.518
97.70000 21.151
97.72000 12.668
97.74000 3.196
97.76000 4.398
97.78000 3.034
97.80000 5.381
97.82000 7.616
97.84000 3.902
97.86000 -0.018
97.88000 9.694
97.90000 5.979
97.92000 9.594
97.94000 11.069
97.96000 9.697
97.98000 13.707
98.00000 13.245
98.02000 13.101
98.04000 9.741
98.06000 6.205
98.08000 4.642
98.10000 6.824
98.12000 8.215
98.14000 1.785
98.16000 3.887
98.18000 8.478
98.20000 10.793
98.22000 4.219
98.24000 -2.228
98.26000 -0.416
98.28000 5.704
98.30000 7.035
98.32000 5.584
98.34000 1.962
98.36000 -0.223
98.38000 5.369
98.40000 7.466
98.42000 0.159
98.44000 -1.947
98.46000 3.954
98.48000 5.608
98.50000 15.717
98.52000 15.876
98.54000 3.536
98.56000 2.967
98.58000 4.917
98.60000 3.355
98.62000 3.708
98.64000 8.291
98.66000 14.270
98.68000 15.049
98.70000 19.037
98.72000 6.136
98.74000 0.879
98.76000 6.027
98.78000 4.712
98.80000 6.244
98.82000 1.290
98.84000 8.910
98.86000 2.812
98.88000 -0.071
98.90000 6.611
98.92000 7.424
98.94000 12.635
98.96000 8.995
98.98000 2.872
99.00000 -2.194
99.02000 6.334
99.04000 -1.776
99.06000 8.912
99.08000 15.851
99.10000 4.232
99.12000 5.816
99.14000 -0.864
99.16000 0.222
99.18000 0.649
99.20000 11.914
99.22000 -2.100
99.24000 2.751
99.26000 3.275
99.28000 9.488
99.30000 5.666
99.32000 2.205
99.34000 0.527
99.36000 1.481
99.38000 9.218
99.40000 1.524
99.42000 -1.419
99.44000 3.828
99.46000 13.692
99.48000 10.531
99.50000 5.283
99.52000 12.996
99.54000 9.765
99.56000 6.638
99.58000 1.834
99.60000 6.617
99.62000 14.473
99.64000 3.836
99.66000 7.714
99.68000 13.976
99.70000 8.857
99.72000 5.542
99.74000 2.773
99.76000 12.017
99.78000 13.852
99.80000 8.112
99.82000 5.478
99.84000 6.550
99.86000 4.945
99.88000 1.356
99.90000 2.224
99.92000 -2.275
99.94000 2.059
99.96000 5.249
99.98000 0.000
