'Id: "0011389" Comment: "Integrate frame 0011389_Au-Ir-Rh_Au-Rich_XRD_Mapping-188-0000.gfrmwith cursor Wedge Cursor #5" Operator: "B?rgel" Anode: "Cu" Wavelength: "1.5406" Scantype: "2Theta (TwoTheta)" TimePerStep: "1" X: "0" Y: "4.5" Z: "5.95" 
10.00000 0.000
10.02000 -4.161
10.04000 3.532
10.06000 22.678
10.08000 31.443
10.10000 6.231
10.12000 8.765
10.14000 18.994
10.16000 14.431
10.18000 21.578
10.20000 1.597
10.22000 9.685
10.24000 -0.242
10.26000 0.636
10.28000 13.528
10.30000 10.495
10.32000 -0.537
10.34000 15.820
10.36000 14.667
10.38000 11.817
10.40000 8.702
10.42000 11.802
10.44000 18.167
10.46000 29.592
10.48000 31.526
10.50000 20.388
10.52000 16.196
10.54000 16.403
10.56000 12.476
10.58000 5.083
10.60000 14.670
10.62000 17.785
10.64000 13.393
10.66000 20.696
10.68000 12.877
10.70000 -1.627
10.72000 2.613
10.74000 11.086
10.76000 15.814
10.78000 20.268
10.80000 27.768
10.82000 27.897
10.84000 8.743
10.86000 10.546
10.88000 22.919
10.90000 8.503
10.92000 23.876
10.94000 40.086
10.96000 19.997
10.98000 21.747
11.00000 14.651
11.02000 19.530
11.04000 25.059
11.06000 22.843
11.08000 30.024
11.10000 19.787
11.12000 1.745
11.14000 -2.004
11.16000 26.382
11.18000 23.395
11.20000 16.349
11.22000 12.976
11.24000 10.951
11.26000 25.074
11.28000 29.191
11.30000 24.428
11.32000 18.924
11.34000 7.522
11.36000 -11.784
11.38000 12.758
11.40000 18.014
11.42000 23.090
11.44000 29.942
11.46000 27.500
11.48000 13.754
11.50000 11.292
11.52000 22.353
11.54000 15.197
11.56000 16.499
11.58000 21.861
11.60000 22.704
11.62000 19.806
11.64000 24.462
11.66000 21.789
11.68000 23.174
11.70000 32.294
11.72000 20.418
11.74000 26.025
11.76000 30.712
11.78000 29.162
11.80000 27.789
11.82000 27.100
11.84000 15.496
11.86000 11.161
11.88000 19.498
11.90000 13.048
11.92000 17.795
11.94000 19.744
11.96000 18.228
11.98000 29.510
12.00000 30.721
12.02000 19.103
12.04000 20.349
12.06000 26.914
12.08000 22.890
12.10000 26.377
12.12000 18.909
12.14000 9.589
12.16000 11.942
12.18000 19.146
12.20000 16.584
12.22000 13.988
12.24000 14.487
12.26000 29.494
12.28000 36.984
12.30000 21.821
12.32000 22.555
12.34000 24.019
12.36000 15.067
12.38000 20.518
12.40000 30.264
12.42000 17.734
12.44000 24.347
12.46000 27.147
12.48000 26.557
12.50000 22.056
12.52000 25.658
12.54000 23.562
12.56000 25.765
12.58000 33.403
12.60000 33.815
12.62000 23.048
12.64000 14.914
12.66000 26.988
12.68000 26.677
12.70000 18.621
12.72000 15.770
12.74000 15.588
12.76000 21.907
12.78000 20.975
12.80000 21.409
12.82000 12.964
12.84000 24.930
12.86000 31.251
12.88000 25.361
12.90000 20.136
12.92000 25.735
12.94000 19.239
12.96000 24.266
12.98000 18.501
13.00000 14.248
13.02000 16.015
13.04000 10.582
13.06000 14.881
13.08000 20.516
13.10000 19.504
13.12000 25.083
13.14000 18.729
13.16000 21.731
13.18000 21.465
13.20000 16.811
13.22000 20.006
13.24000 27.405
13.26000 22.893
13.28000 23.368
13.30000 27.625
13.32000 23.689
13.34000 13.186
13.36000 17.981
13.38000 30.160
13.40000 25.001
13.42000 30.087
13.44000 27.012
13.46000 14.116
13.48000 13.455
13.50000 13.067
13.52000 14.312
13.54000 18.848
13.56000 11.887
13.58000 5.141
13.60000 8.503
13.62000 14.106
13.64000 30.014
13.66000 21.758
13.68000 17.770
13.70000 13.511
13.72000 20.088
13.74000 27.265
13.76000 14.490
13.78000 3.753
13.80000 19.275
13.82000 24.510
13.84000 29.407
13.86000 8.635
13.88000 12.370
13.90000 19.177
13.92000 14.270
13.94000 12.626
13.96000 15.764
13.98000 17.083
14.00000 12.170
14.02000 7.422
14.04000 9.472
14.06000 11.620
14.08000 6.410
14.10000 15.442
14.12000 18.703
14.14000 14.649
14.16000 7.160
14.18000 8.390
14.20000 5.133
14.22000 19.987
14.24000 21.559
14.26000 14.858
14.28000 12.780
14.30000 13.322
14.32000 15.340
14.34000 27.191
14.36000 26.067
14.38000 14.306
14.40000 4.355
14.42000 7.913
14.44000 5.463
14.46000 2.444
14.48000 8.671
14.50000 19.522
14.52000 16.966
14.54000 12.085
14.56000 12.347
14.58000 15.167
14.60000 20.120
14.62000 25.062
14.64000 7.609
14.66000 5.148
14.68000 14.282
14.70000 8.378
14.72000 6.368
14.74000 8.830
14.76000 4.830
14.78000 0.105
14.80000 2.943
14.82000 10.992
14.84000 18.970
14.86000 14.958
14.88000 5.653
14.90000 4.736
14.92000 7.874
14.94000 7.260
14.96000 7.866
14.98000 4.074
15.00000 9.456
15.02000 11.039
15.04000 4.243
15.06000 1.981
15.08000 3.388
15.10000 10.894
15.12000 11.379
15.14000 13.147
15.16000 0.822
15.18000 1.006
15.20000 0.463
15.22000 9.473
15.24000 13.738
15.26000 14.582
15.28000 7.648
15.30000 7.589
15.32000 8.541
15.34000 13.278
15.36000 13.246
15.38000 5.582
15.40000 -1.455
15.42000 0.220
15.44000 -3.784
15.46000 6.765
15.48000 7.514
15.50000 12.047
15.52000 10.966
15.54000 8.449
15.56000 11.077
15.58000 5.969
15.60000 11.271
15.62000 10.964
15.64000 12.477
15.66000 4.217
15.68000 -3.673
15.70000 2.796
15.72000 6.672
15.74000 5.614
15.76000 11.726
15.78000 12.908
15.80000 8.863
15.82000 8.277
15.84000 7.565
15.86000 4.884
15.88000 7.702
15.90000 4.257
15.92000 5.085
15.94000 10.275
15.96000 9.779
15.98000 15.241
16.00000 11.100
16.02000 8.384
16.04000 2.501
16.06000 -3.940
16.08000 6.285
16.10000 6.920
16.12000 6.281
16.14000 3.047
16.16000 1.928
16.18000 8.392
16.20000 5.462
16.22000 8.222
16.24000 11.489
16.26000 8.054
16.28000 0.550
16.30000 -1.238
16.32000 3.233
16.34000 5.603
16.36000 10.972
16.38000 16.652
16.40000 12.108
16.42000 11.360
16.44000 9.179
16.46000 4.365
16.48000 4.607
16.50000 8.129
16.52000 5.385
16.54000 4.398
16.56000 -2.517
16.58000 7.429
16.60000 5.267
16.62000 2.994
16.64000 2.114
16.66000 3.225
16.68000 11.284
16.70000 10.797
16.72000 5.453
16.74000 0.099
16.76000 9.509
16.78000 12.020
16.80000 3.326
16.82000 0.991
16.84000 -1.474
16.86000 1.703
16.88000 1.925
16.90000 5.510
16.92000 5.165
16.94000 4.433
16.96000 8.974
16.98000 8.910
17.00000 3.131
17.02000 9.281
17.04000 10.792
17.06000 8.961
17.08000 8.796
17.10000 4.001
17.12000 8.055
17.14000 8.035
17.16000 5.254
17.18000 8.640
17.20000 12.103
17.22000 12.419
17.24000 8.671
17.26000 12.277
17.28000 10.466
17.30000 7.853
17.32000 14.530
17.34000 14.605
17.36000 15.901
17.38000 5.951
17.40000 -0.230
17.42000 4.208
17.44000 5.033
17.46000 3.669
17.48000 -1.160
17.50000 -4.377
17.52000 1.644
17.54000 7.580
17.56000 4.412
17.58000 7.724
17.60000 6.133
17.62000 1.803
17.64000 9.118
17.66000 16.458
17.68000 11.601
17.70000 7.144
17.72000 4.831
17.74000 11.230
17.76000 8.080
17.78000 1.656
17.80000 -0.010
17.82000 1.821
17.84000 7.223
17.86000 10.631
17.88000 11.432
17.90000 8.433
17.92000 13.849
17.94000 13.066
17.96000 6.865
17.98000 6.277
18.00000 1.929
18.02000 1.845
18.04000 5.440
18.06000 15.899
18.08000 11.655
18.10000 8.577
18.12000 5.706
18.14000 4.986
18.16000 6.348
18.18000 5.509
18.20000 4.042
18.22000 -0.081
18.24000 1.465
18.26000 13.252
18.28000 9.801
18.30000 3.255
18.32000 -0.667
18.34000 0.424
18.36000 5.308
18.38000 9.677
18.40000 2.904
18.42000 -4.314
18.44000 1.961
18.46000 11.334
18.48000 10.831
18.50000 2.956
18.52000 3.149
18.54000 4.877
18.56000 4.489
18.58000 3.644
18.60000 9.413
18.62000 13.407
18.64000 10.882
18.66000 7.661
18.68000 8.915
18.70000 7.707
18.72000 8.518
18.74000 5.395
18.76000 1.412
18.78000 1.551
18.80000 0.749
18.82000 12.651
18.84000 7.816
18.86000 6.683
18.88000 4.828
18.90000 13.356
18.92000 11.521
18.94000 5.828
18.96000 5.446
18.98000 0.119
19.00000 3.300
19.02000 3.976
19.04000 -4.286
19.06000 1.255
19.08000 -0.538
19.10000 0.483
19.12000 3.825
19.14000 7.506
19.16000 5.340
19.18000 7.758
19.20000 7.672
19.22000 -0.462
19.24000 4.959
19.26000 8.933
19.28000 6.321
19.30000 3.226
19.32000 1.100
19.34000 -2.127
19.36000 -2.418
19.38000 2.325
19.40000 7.001
19.42000 4.281
19.44000 7.664
19.46000 9.684
19.48000 5.560
19.50000 7.182
19.52000 4.884
19.54000 5.712
19.56000 12.006
19.58000 10.447
19.60000 -0.063
19.62000 2.943
19.64000 0.154
19.66000 0.332
19.68000 -2.081
19.70000 -1.937
19.72000 0.140
19.74000 7.844
19.76000 9.442
19.78000 4.541
19.80000 6.308
19.82000 5.839
19.84000 5.554
19.86000 5.043
19.88000 8.980
19.90000 12.910
19.92000 13.061
19.94000 4.602
19.96000 3.835
19.98000 5.849
20.00000 8.020
20.02000 8.595
20.04000 10.307
20.06000 11.589
20.08000 5.010
20.10000 8.051
20.12000 9.387
20.14000 8.854
20.16000 2.805
20.18000 8.593
20.20000 7.238
20.22000 5.972
20.24000 -0.078
20.26000 7.451
20.28000 12.567
20.30000 12.109
20.32000 5.345
20.34000 4.255
20.36000 7.071
20.38000 4.077
20.40000 -4.181
20.42000 3.277
20.44000 11.290
20.46000 11.004
20.48000 7.766
20.50000 8.125
20.52000 6.727
20.54000 2.030
20.56000 4.274
20.58000 5.119
20.60000 -1.799
20.62000 3.620
20.64000 6.477
20.66000 9.759
20.68000 9.304
20.70000 6.371
20.72000 6.058
20.74000 8.983
20.76000 9.698
20.78000 9.190
20.80000 12.697
20.82000 12.104
20.84000 11.452
20.86000 7.241
20.88000 7.745
20.90000 -0.218
20.92000 8.643
20.94000 10.201
20.96000 7.100
20.98000 3.430
21.00000 4.059
21.02000 3.051
21.04000 0.683
21.06000 9.057
21.08000 12.100
21.10000 8.859
21.12000 12.550
21.14000 7.153
21.16000 5.141
21.18000 -0.814
21.20000 -1.147
21.22000 2.081
21.24000 4.854
21.26000 3.086
21.28000 5.519
21.30000 6.680
21.32000 3.892
21.34000 3.863
21.36000 -4.149
21.38000 -0.382
21.40000 3.883
21.42000 4.367
21.44000 5.789
21.46000 8.300
21.48000 6.574
21.50000 4.109
21.52000 1.311
21.54000 3.571
21.56000 0.817
21.58000 2.907
21.60000 5.246
21.62000 6.587
21.64000 13.314
21.66000 5.544
21.68000 1.626
21.70000 3.530
21.72000 1.637
21.74000 6.986
21.76000 8.290
21.78000 3.884
21.80000 -0.601
21.82000 1.185
21.84000 3.299
21.86000 8.565
21.88000 4.710
21.90000 2.284
21.92000 -1.033
21.94000 -4.129
21.96000 -0.280
21.98000 0.007
22.00000 -1.230
22.02000 2.660
22.04000 5.708
22.06000 6.050
22.08000 3.623
22.10000 5.192
22.12000 7.007
22.14000 5.123
22.16000 6.027
22.18000 10.901
22.20000 1.458
22.22000 -2.182
22.24000 2.310
22.26000 3.182
22.28000 2.901
22.30000 2.942
22.32000 0.269
22.34000 -4.115
22.36000 0.016
22.38000 2.643
22.40000 6.221
22.42000 2.584
22.44000 -2.283
22.46000 1.083
22.48000 -0.469
22.50000 -2.913
22.52000 1.348
22.54000 9.469
22.56000 16.714
22.58000 3.391
22.60000 7.897
22.62000 12.527
22.64000 6.075
22.66000 1.577
22.68000 -3.855
22.70000 -2.652
22.72000 -0.917
22.74000 4.278
22.76000 7.588
22.78000 1.206
22.80000 -1.232
22.82000 1.240
22.84000 -3.141
22.86000 -2.582
22.88000 1.197
22.90000 -1.461
22.92000 7.855
22.94000 5.394
22.96000 -0.006
22.98000 2.155
23.00000 -2.054
23.02000 -3.842
23.04000 -2.371
23.06000 4.602
23.08000 2.325
23.10000 -2.576
23.12000 0.146
23.14000 5.434
23.16000 13.660
23.18000 12.462
23.20000 3.906
23.22000 -2.836
23.24000 -2.901
23.26000 3.269
23.28000 6.084
23.30000 3.689
23.32000 7.162
23.34000 8.097
23.36000 4.048
23.38000 -1.898
23.40000 -1.684
23.42000 -0.150
23.44000 3.133
23.46000 -1.809
23.48000 -1.190
23.50000 1.469
23.52000 4.328
23.54000 2.232
23.56000 4.128
23.58000 2.901
23.60000 5.671
23.62000 4.425
23.64000 0.979
23.66000 5.551
23.68000 7.837
23.70000 3.620
23.72000 2.742
23.74000 5.182
23.76000 1.779
23.78000 -2.570
23.80000 3.929
23.82000 -0.577
23.84000 -1.234
23.86000 6.267
23.88000 2.351
23.90000 1.535
23.92000 3.201
23.94000 -4.024
23.96000 -2.147
23.98000 3.248
24.00000 1.623
24.02000 3.078
24.04000 5.918
24.06000 3.304
24.08000 6.904
24.10000 1.392
24.12000 1.733
24.14000 3.428
24.16000 8.504
24.18000 4.866
24.20000 5.768
24.22000 3.064
24.24000 4.297
24.26000 4.880
24.28000 5.102
24.30000 1.347
24.32000 -3.815
24.34000 -2.779
24.36000 -1.366
24.38000 0.719
24.40000 1.918
24.42000 2.929
24.44000 3.734
24.46000 1.585
24.48000 -0.133
24.50000 2.803
24.52000 0.485
24.54000 -3.569
24.56000 6.225
24.58000 -0.807
24.60000 -0.994
24.62000 4.415
24.64000 2.286
24.66000 -0.323
24.68000 2.463
24.70000 5.559
24.72000 11.884
24.74000 14.491
24.76000 3.668
24.78000 -0.567
24.80000 0.374
24.82000 0.303
24.84000 -3.985
24.86000 -2.713
24.88000 -0.956
24.90000 3.744
24.92000 -3.131
24.94000 -2.340
24.96000 3.103
24.98000 4.511
25.00000 5.878
25.02000 3.808
25.04000 7.836
25.06000 8.848
25.08000 6.279
25.10000 2.302
25.12000 -0.583
25.14000 3.352
25.16000 6.209
25.18000 3.119
25.20000 0.303
25.22000 1.120
25.24000 2.003
25.26000 4.450
25.28000 5.689
25.30000 1.850
25.32000 0.735
25.34000 2.088
25.36000 2.303
25.38000 0.624
25.40000 2.352
25.42000 5.096
25.44000 -2.247
25.46000 -3.957
25.48000 -2.190
25.50000 -3.217
25.52000 1.598
25.54000 5.304
25.56000 5.496
25.58000 6.639
25.60000 7.564
25.62000 0.630
25.64000 3.198
25.66000 1.553
25.68000 -0.189
25.70000 -0.284
25.72000 -0.722
25.74000 -0.629
25.76000 -1.811
25.78000 -1.639
25.80000 -2.415
25.82000 -0.313
25.84000 1.176
25.86000 0.308
25.88000 -0.728
25.90000 3.257
25.92000 2.260
25.94000 0.009
25.96000 0.172
25.98000 0.260
26.00000 7.003
26.02000 9.585
26.04000 9.042
26.06000 5.678
26.08000 -0.168
26.10000 -1.338
26.12000 2.759
26.14000 -0.428
26.16000 -1.242
26.18000 1.989
26.20000 3.475
26.22000 1.058
26.24000 3.043
26.26000 -0.021
26.28000 -1.953
26.30000 -1.590
26.32000 2.068
26.34000 4.599
26.36000 4.769
26.38000 2.893
26.40000 4.253
26.42000 2.202
26.44000 -1.408
26.46000 4.805
26.48000 -1.111
26.50000 2.401
26.52000 7.708
26.54000 1.657
26.56000 0.851
26.58000 1.740
26.60000 6.369
26.62000 6.088
26.64000 3.156
26.66000 5.311
26.68000 0.295
26.70000 3.170
26.72000 6.105
26.74000 3.960
26.76000 6.853
26.78000 6.569
26.80000 -0.478
26.82000 1.897
26.84000 -3.866
26.86000 -0.992
26.88000 7.555
26.90000 4.708
26.92000 -0.154
26.94000 1.955
26.96000 4.364
26.98000 8.213
27.00000 8.006
27.02000 8.598
27.04000 3.523
27.06000 -0.440
27.08000 -3.122
27.10000 -1.361
27.12000 0.528
27.14000 3.606
27.16000 2.016
27.18000 2.719
27.20000 6.509
27.22000 3.701
27.24000 6.270
27.26000 4.312
27.28000 9.118
27.30000 7.163
27.32000 6.494
27.34000 7.220
27.36000 4.643
27.38000 4.371
27.40000 -0.076
27.42000 -0.608
27.44000 1.907
27.46000 4.728
27.48000 3.914
27.50000 1.330
27.52000 4.286
27.54000 4.808
27.56000 10.062
27.58000 8.608
27.60000 2.253
27.62000 -0.880
27.64000 -3.742
27.66000 -3.152
27.68000 4.120
27.70000 1.787
27.72000 5.691
27.74000 4.810
27.76000 1.675
27.78000 3.756
27.80000 4.062
27.82000 0.266
27.84000 1.634
27.86000 3.357
27.88000 4.707
27.90000 4.825
27.92000 7.587
27.94000 6.268
27.96000 3.809
27.98000 4.386
28.00000 2.916
28.02000 -2.402
28.04000 0.784
28.06000 5.036
28.08000 0.532
28.10000 -3.796
28.12000 -1.343
28.14000 0.151
28.16000 -1.169
28.18000 2.901
28.20000 7.062
28.22000 8.563
28.24000 6.914
28.26000 5.178
28.28000 8.247
28.30000 1.117
28.32000 1.965
28.34000 2.268
28.36000 6.346
28.38000 6.057
28.40000 2.081
28.42000 1.775
28.44000 1.184
28.46000 2.268
28.48000 4.669
28.50000 4.869
28.52000 4.389
28.54000 2.827
28.56000 -3.661
28.58000 2.692
28.60000 8.361
28.62000 8.755
28.64000 7.056
28.66000 4.685
28.68000 -2.118
28.70000 2.421
28.72000 2.692
28.74000 2.707
28.76000 2.415
28.78000 -3.359
28.80000 3.024
28.82000 4.054
28.84000 3.081
28.86000 0.623
28.88000 0.448
28.90000 -3.783
28.92000 0.033
28.94000 -0.986
28.96000 -3.050
28.98000 4.422
29.00000 3.152
29.02000 5.281
29.04000 6.404
29.06000 -0.168
29.08000 0.504
29.10000 0.134
29.12000 -0.670
29.14000 4.374
29.16000 3.946
29.18000 3.168
29.20000 2.773
29.22000 2.213
29.24000 1.536
29.26000 0.687
29.28000 -0.435
29.30000 1.027
29.32000 0.286
29.34000 2.175
29.36000 1.257
29.38000 -1.608
29.40000 -3.548
29.42000 -2.553
29.44000 -3.762
29.46000 -0.962
29.48000 -2.266
29.50000 -0.690
29.52000 1.073
29.54000 -1.771
29.56000 -1.077
29.58000 5.128
29.60000 4.083
29.62000 2.756
29.64000 -1.347
29.66000 1.696
29.68000 3.935
29.70000 3.945
29.72000 -0.608
29.74000 1.903
29.76000 2.201
29.78000 0.316
29.80000 -2.893
29.82000 0.187
29.84000 3.116
29.86000 -1.543
29.88000 -3.736
29.90000 0.420
29.92000 -0.205
29.94000 -2.686
29.96000 1.540
29.98000 1.662
30.00000 3.931
30.02000 -3.583
30.04000 1.048
30.06000 3.926
30.08000 1.392
30.10000 4.072
30.12000 6.408
30.14000 2.935
30.16000 1.572
30.18000 2.220
30.20000 3.708
30.22000 0.800
30.24000 1.415
30.26000 -1.340
30.28000 -3.299
30.30000 -3.475
30.32000 -3.719
30.34000 -3.631
30.36000 0.962
30.38000 5.102
30.40000 2.699
30.42000 1.346
30.44000 0.483
30.46000 0.152
30.48000 -2.657
30.50000 0.980
30.52000 5.884
30.54000 6.841
30.56000 2.602
30.58000 -1.971
30.60000 4.257
30.62000 4.657
30.64000 1.906
30.66000 1.870
30.68000 2.183
30.70000 4.754
30.72000 3.443
30.74000 6.524
30.76000 -0.376
30.78000 -2.609
30.80000 2.738
30.82000 -3.709
30.84000 -0.322
30.86000 1.717
30.88000 1.205
30.90000 0.209
30.92000 1.312
30.94000 1.767
30.96000 -0.365
30.98000 -2.490
31.00000 0.450
31.02000 2.458
31.04000 0.561
31.06000 3.430
31.08000 2.447
31.10000 5.420
31.12000 4.564
31.14000 1.255
31.16000 -0.554
31.18000 -2.118
31.20000 4.661
31.22000 1.153
31.24000 1.841
31.26000 4.517
31.28000 3.428
31.30000 7.379
31.32000 9.026
31.34000 1.486
31.36000 3.553
31.38000 -1.324
31.40000 -2.374
31.42000 -2.607
31.44000 -2.508
31.46000 0.319
31.48000 1.120
31.50000 0.279
31.52000 -0.985
31.54000 1.099
31.56000 3.897
31.58000 3.204
31.60000 2.341
31.62000 -0.913
31.64000 2.673
31.66000 0.915
31.68000 1.587
31.70000 0.669
31.72000 4.306
31.74000 8.763
31.76000 4.637
31.78000 1.639
31.80000 -1.085
31.82000 0.958
31.84000 0.460
31.86000 3.988
31.88000 5.246
31.90000 0.318
31.92000 0.894
31.94000 0.481
31.96000 2.720
31.98000 4.282
32.00000 0.880
32.02000 3.760
32.04000 1.845
32.06000 -1.088
32.08000 0.000
32.10000 0.691
32.12000 -0.492
32.14000 0.783
32.16000 0.049
32.18000 4.839
32.20000 1.257
32.22000 -2.423
32.24000 -2.324
32.26000 3.141
32.28000 0.141
32.30000 -3.633
32.32000 0.403
32.34000 3.705
32.36000 4.073
32.38000 4.533
32.40000 7.467
32.42000 4.358
32.44000 2.319
32.46000 3.310
32.48000 2.455
32.50000 3.534
32.52000 5.556
32.54000 5.455
32.56000 1.075
32.58000 -2.115
32.60000 0.136
32.62000 5.564
32.64000 -2.296
32.66000 -1.625
32.68000 4.307
32.70000 8.779
32.72000 5.046
32.74000 4.545
32.76000 -0.828
32.78000 5.601
32.80000 8.046
32.82000 1.288
32.84000 -0.395
32.86000 3.943
32.88000 -3.608
32.90000 0.330
32.92000 6.428
32.94000 -1.544
32.96000 5.944
32.98000 8.965
33.00000 7.828
33.02000 9.438
33.04000 6.584
33.06000 1.111
33.08000 3.913
33.10000 -1.628
33.12000 3.007
33.14000 3.388
33.16000 3.690
33.18000 1.224
33.20000 -0.975
33.22000 1.436
33.24000 -0.663
33.26000 5.247
33.28000 1.884
33.30000 4.448
33.32000 5.899
33.34000 0.678
33.36000 -0.059
33.38000 1.129
33.40000 1.220
33.42000 3.152
33.44000 3.031
33.46000 6.137
33.48000 4.610
33.50000 4.595
33.52000 2.383
33.54000 0.010
33.56000 4.910
33.58000 1.715
33.60000 -1.497
33.62000 -2.688
33.64000 0.704
33.66000 4.691
33.68000 3.324
33.70000 -0.149
33.72000 -2.307
33.74000 5.962
33.76000 -1.666
33.78000 -0.489
33.80000 5.641
33.82000 5.743
33.84000 9.131
33.86000 3.751
33.88000 -1.184
33.90000 0.224
33.92000 0.836
33.94000 3.151
33.96000 8.494
33.98000 8.125
34.00000 3.403
34.02000 5.642
34.04000 6.021
34.06000 3.803
34.08000 2.731
34.10000 12.361
34.12000 7.676
34.14000 6.064
34.16000 5.488
34.18000 6.512
34.20000 2.190
34.22000 4.062
34.24000 3.324
34.26000 3.044
34.28000 0.982
34.30000 -3.624
34.32000 -0.780
34.34000 0.860
34.36000 1.806
34.38000 0.545
34.40000 -2.931
34.42000 1.825
34.44000 5.359
34.46000 5.960
34.48000 7.339
34.50000 -2.225
34.52000 -3.465
34.54000 1.362
34.56000 0.442
34.58000 3.114
34.60000 0.171
34.62000 1.731
34.64000 3.519
34.66000 8.615
34.68000 3.766
34.70000 1.091
34.72000 0.240
34.74000 3.504
34.76000 3.884
34.78000 0.161
34.80000 -2.673
34.82000 -0.412
34.84000 0.721
34.86000 0.812
34.88000 0.547
34.90000 1.002
34.92000 -1.006
34.94000 2.842
34.96000 4.055
34.98000 -3.227
35.00000 6.767
35.02000 8.777
35.04000 7.473
35.06000 8.603
35.08000 4.001
35.10000 5.951
35.12000 7.952
35.14000 5.784
35.16000 1.973
35.18000 0.944
35.20000 3.107
35.22000 0.479
35.24000 -0.286
35.26000 -0.534
35.28000 2.275
35.30000 4.534
35.32000 2.885
35.34000 0.160
35.36000 2.301
35.38000 -3.580
35.40000 1.720
35.42000 2.220
35.44000 -1.558
35.46000 1.942
35.48000 2.271
35.50000 3.972
35.52000 4.219
35.54000 4.146
35.56000 5.026
35.58000 -0.273
35.60000 4.053
35.62000 10.292
35.64000 12.065
35.66000 8.689
35.68000 4.566
35.70000 0.856
35.72000 0.621
35.74000 1.637
35.76000 1.599
35.78000 1.518
35.80000 -3.571
35.82000 7.273
35.84000 2.168
35.86000 6.276
35.88000 11.509
35.90000 3.500
35.92000 1.348
35.94000 3.978
35.96000 3.874
35.98000 1.276
36.00000 2.205
36.02000 4.565
36.04000 1.316
36.06000 2.313
36.08000 1.306
36.10000 3.607
36.12000 7.042
36.14000 7.821
36.16000 3.745
36.18000 0.085
36.20000 1.784
36.22000 2.208
36.24000 2.345
36.26000 -0.044
36.28000 2.128
36.30000 3.264
36.32000 6.324
36.34000 5.491
36.36000 2.098
36.38000 0.553
36.40000 3.176
36.42000 6.062
36.44000 7.990
36.46000 4.915
36.48000 2.237
36.50000 -2.307
36.52000 -3.322
36.54000 -1.292
36.56000 0.339
36.58000 5.356
36.60000 7.770
36.62000 6.772
36.64000 5.534
36.66000 5.684
36.68000 4.359
36.70000 8.870
36.72000 6.508
36.74000 7.746
36.76000 6.152
36.78000 0.156
36.80000 -0.407
36.82000 -0.462
36.84000 7.928
36.86000 6.794
36.88000 7.776
36.90000 5.093
36.92000 5.664
36.94000 5.943
36.96000 8.159
36.98000 6.647
37.00000 4.641
37.02000 0.728
37.04000 -0.056
37.06000 6.102
37.08000 9.653
37.10000 11.153
37.12000 7.356
37.14000 2.584
37.16000 5.605
37.18000 7.551
37.20000 7.535
37.22000 3.083
37.24000 6.707
37.26000 12.271
37.28000 9.331
37.30000 8.073
37.32000 10.136
37.34000 11.854
37.36000 13.726
37.38000 18.055
37.40000 14.148
37.42000 12.116
37.44000 12.477
37.46000 14.742
37.48000 16.317
37.50000 15.197
37.52000 19.381
37.54000 18.138
37.56000 15.353
37.58000 15.125
37.60000 15.893
37.62000 17.808
37.64000 17.455
37.66000 14.495
37.68000 11.592
37.70000 17.617
37.72000 22.650
37.74000 20.858
37.76000 22.626
37.78000 22.313
37.80000 22.174
37.82000 22.932
37.84000 24.086
37.86000 21.041
37.88000 25.418
37.90000 29.934
37.92000 29.942
37.94000 30.197
37.96000 28.410
37.98000 27.807
38.00000 30.623
38.02000 32.713
38.04000 30.770
38.06000 32.663
38.08000 34.141
38.10000 33.660
38.12000 33.431
38.14000 43.041
38.16000 44.446
38.18000 39.954
38.20000 41.871
38.22000 48.341
38.24000 48.465
38.26000 46.246
38.28000 52.061
38.30000 56.096
38.32000 54.686
38.34000 55.279
38.36000 56.579
38.38000 61.786
38.40000 64.190
38.42000 67.847
38.44000 71.015
38.46000 74.954
38.48000 77.402
38.50000 80.367
38.52000 83.114
38.54000 86.384
38.56000 90.480
38.58000 96.142
38.60000 96.903
38.62000 104.279
38.64000 111.950
38.66000 113.138
38.68000 118.901
38.70000 135.670
38.72000 142.780
38.74000 144.633
38.76000 147.060
38.78000 153.576
38.80000 170.281
38.82000 183.944
38.84000 186.345
38.86000 195.320
38.88000 210.163
38.90000 230.621
38.92000 241.445
38.94000 254.490
38.96000 266.520
38.98000 275.539
39.00000 287.130
39.02000 311.555
39.04000 329.778
39.06000 344.170
39.08000 355.414
39.10000 375.803
39.12000 394.177
39.14000 405.739
39.16000 417.409
39.18000 435.415
39.20000 459.749
39.22000 465.716
39.24000 471.202
39.26000 465.561
39.28000 459.626
39.30000 467.533
39.32000 480.811
39.34000 480.063
39.36000 471.672
39.38000 465.675
39.40000 454.041
39.42000 451.854
39.44000 439.173
39.46000 425.114
39.48000 411.270
39.50000 405.145
39.52000 389.706
39.54000 375.757
39.56000 357.677
39.58000 343.717
39.60000 321.118
39.62000 306.069
39.64000 291.026
39.66000 276.804
39.68000 264.358
39.70000 257.411
39.72000 241.049
39.74000 220.532
39.76000 208.650
39.78000 192.498
39.80000 182.260
39.82000 170.851
39.84000 158.836
39.86000 147.641
39.88000 139.500
39.90000 133.117
39.92000 127.205
39.94000 118.108
39.96000 110.313
39.98000 99.637
40.00000 89.285
40.02000 87.880
40.04000 83.940
40.06000 82.041
40.08000 80.041
40.10000 73.313
40.12000 65.223
40.14000 62.804
40.16000 61.046
40.18000 51.362
40.20000 51.860
40.22000 51.229
40.24000 45.181
40.26000 44.550
40.28000 52.125
40.30000 49.079
40.32000 43.043
40.34000 40.878
40.36000 37.225
40.38000 34.691
40.40000 31.739
40.42000 33.310
40.44000 32.128
40.46000 30.347
40.48000 28.287
40.50000 28.170
40.52000 24.557
40.54000 18.946
40.56000 18.408
40.58000 18.013
40.60000 23.940
40.62000 23.416
40.64000 17.729
40.66000 14.662
40.68000 16.075
40.70000 15.588
40.72000 17.101
40.74000 16.457
40.76000 18.788
40.78000 21.000
40.80000 17.749
40.82000 13.790
40.84000 9.571
40.86000 10.360
40.88000 13.900
40.90000 14.666
40.92000 16.463
40.94000 11.452
40.96000 9.171
40.98000 10.246
41.00000 5.337
41.02000 7.095
41.04000 5.415
41.06000 10.798
41.08000 7.514
41.10000 7.200
41.12000 11.492
41.14000 14.000
41.16000 12.928
41.18000 9.341
41.20000 9.446
41.22000 11.082
41.24000 8.293
41.26000 8.551
41.28000 2.116
41.30000 -0.261
41.32000 3.545
41.34000 2.621
41.36000 3.851
41.38000 5.238
41.40000 4.784
41.42000 2.958
41.44000 3.505
41.46000 2.446
41.48000 2.169
41.50000 3.885
41.52000 8.001
41.54000 6.733
41.56000 3.688
41.58000 4.375
41.60000 7.562
41.62000 7.791
41.64000 5.122
41.66000 1.961
41.68000 -3.393
41.70000 -2.114
41.72000 5.753
41.74000 8.451
41.76000 3.959
41.78000 3.128
41.80000 4.431
41.82000 1.782
41.84000 1.024
41.86000 0.746
41.88000 -0.143
41.90000 4.723
41.92000 8.051
41.94000 0.590
41.96000 -1.607
41.98000 -1.552
42.00000 4.090
42.02000 4.251
42.04000 0.329
42.06000 3.565
42.08000 0.757
42.10000 1.928
42.12000 2.905
42.14000 1.400
42.16000 0.501
42.18000 -0.816
42.20000 -1.197
42.22000 -0.114
42.24000 2.481
42.26000 6.432
42.28000 6.392
42.30000 3.856
42.32000 3.318
42.34000 -1.509
42.36000 2.720
42.38000 0.713
42.40000 0.705
42.42000 5.792
42.44000 5.562
42.46000 -0.406
42.48000 -3.278
42.50000 -0.097
42.52000 3.338
42.54000 3.716
42.56000 2.923
42.58000 -1.397
42.60000 -0.629
42.62000 3.042
42.64000 3.371
42.66000 3.601
42.68000 4.624
42.70000 2.895
42.72000 0.421
42.74000 0.235
42.76000 1.525
42.78000 1.829
42.80000 1.982
42.82000 -1.513
42.84000 -1.256
42.86000 1.698
42.88000 -1.024
42.90000 2.347
42.92000 2.573
42.94000 1.535
42.96000 0.273
42.98000 -1.690
43.00000 -0.862
43.02000 2.428
43.04000 1.850
43.06000 1.125
43.08000 2.105
43.10000 1.996
43.12000 1.885
43.14000 1.038
43.16000 0.566
43.18000 3.600
43.20000 -0.875
43.22000 -0.972
43.24000 1.203
43.26000 3.087
43.28000 3.153
43.30000 3.972
43.32000 -0.298
43.34000 3.123
43.36000 3.665
43.38000 -0.486
43.40000 -0.787
43.42000 1.114
43.44000 2.479
43.46000 1.733
43.48000 -0.158
43.50000 1.525
43.52000 6.035
43.54000 7.437
43.56000 5.703
43.58000 4.247
43.60000 1.069
43.62000 3.992
43.64000 1.752
43.66000 -3.144
43.68000 0.669
43.70000 2.156
43.72000 1.556
43.74000 2.566
43.76000 3.960
43.78000 4.174
43.80000 2.697
43.82000 2.735
43.84000 2.854
43.86000 0.278
43.88000 -3.144
43.90000 1.065
43.92000 0.035
43.94000 -0.310
43.96000 1.593
43.98000 6.137
44.00000 5.796
44.02000 3.071
44.04000 1.795
44.06000 1.026
44.08000 0.987
44.10000 -1.465
44.12000 -0.770
44.14000 2.176
44.16000 2.651
44.18000 2.284
44.20000 2.074
44.22000 1.303
44.24000 5.234
44.26000 4.588
44.28000 5.072
44.30000 2.403
44.32000 1.538
44.34000 3.591
44.36000 6.583
44.38000 5.927
44.40000 2.504
44.42000 3.420
44.44000 5.580
44.46000 7.630
44.48000 1.396
44.50000 2.536
44.52000 7.378
44.54000 7.493
44.56000 2.516
44.58000 4.347
44.60000 5.552
44.62000 6.529
44.64000 8.182
44.66000 10.411
44.68000 6.364
44.70000 5.959
44.72000 9.221
44.74000 6.644
44.76000 10.111
44.78000 7.421
44.80000 9.053
44.82000 8.227
44.84000 8.418
44.86000 5.749
44.88000 7.741
44.90000 10.695
44.92000 10.528
44.94000 16.380
44.96000 13.135
44.98000 10.414
45.00000 11.019
45.02000 12.527
45.04000 12.975
45.06000 13.692
45.08000 16.682
45.10000 17.254
45.12000 19.686
45.14000 23.270
45.16000 22.739
45.18000 19.368
45.20000 19.226
45.22000 20.782
45.24000 20.110
45.26000 21.980
45.28000 26.195
45.30000 26.520
45.32000 26.941
45.34000 27.100
45.36000 28.820
45.38000 32.637
45.40000 34.111
45.42000 35.731
45.44000 34.941
45.46000 34.998
45.48000 37.350
45.50000 41.445
45.52000 41.337
45.54000 45.084
45.56000 46.834
45.58000 51.236
45.60000 50.968
45.62000 51.445
45.64000 51.927
45.66000 53.238
45.68000 53.813
45.70000 57.395
45.72000 59.198
45.74000 61.831
45.76000 62.514
45.78000 62.565
45.80000 64.541
45.82000 61.950
45.84000 62.938
45.86000 65.405
45.88000 66.161
45.90000 68.293
45.92000 68.247
45.94000 69.414
45.96000 67.503
45.98000 65.580
46.00000 66.439
46.02000 68.202
46.04000 68.455
46.06000 65.029
46.08000 59.263
46.10000 62.348
46.12000 61.857
46.14000 59.964
46.16000 56.254
46.18000 57.168
46.20000 57.823
46.22000 58.834
46.24000 56.887
46.26000 50.596
46.28000 43.281
46.30000 45.745
46.32000 45.219
46.34000 43.495
46.36000 41.538
46.38000 41.515
46.40000 40.955
46.42000 37.914
46.44000 34.704
46.46000 35.687
46.48000 33.548
46.50000 33.545
46.52000 30.651
46.54000 25.192
46.56000 24.158
46.58000 22.382
46.60000 22.281
46.62000 19.569
46.64000 19.842
46.66000 18.333
46.68000 17.626
46.70000 15.645
46.72000 18.226
46.74000 17.856
46.76000 14.254
46.78000 12.221
46.80000 10.359
46.82000 7.730
46.84000 6.248
46.86000 5.310
46.88000 6.550
46.90000 5.612
46.92000 4.878
46.94000 4.565
46.96000 8.001
46.98000 4.243
47.00000 4.313
47.02000 4.466
47.04000 3.378
47.06000 -0.689
47.08000 0.193
47.10000 -0.182
47.12000 1.305
47.14000 1.559
47.16000 0.540
47.18000 -0.972
47.20000 -2.705
47.22000 -2.848
47.24000 0.813
47.26000 1.914
47.28000 2.785
47.30000 1.725
47.32000 2.934
47.34000 -0.338
47.36000 2.764
47.38000 3.903
47.40000 -0.552
47.42000 1.859
47.44000 1.680
47.46000 -1.556
47.48000 -0.673
47.50000 1.497
47.52000 -0.548
47.54000 -1.910
47.56000 -0.981
47.58000 3.161
47.60000 5.076
47.62000 -0.655
47.64000 -0.380
47.66000 2.268
47.68000 -1.100
47.70000 -1.843
47.72000 -2.761
47.74000 -0.265
47.76000 -0.470
47.78000 1.181
47.80000 -0.593
47.82000 -1.952
47.84000 -1.494
47.86000 0.073
47.88000 5.677
47.90000 1.358
47.92000 2.064
47.94000 2.496
47.96000 -0.008
47.98000 -2.725
48.00000 -0.285
48.02000 2.635
48.04000 1.172
48.06000 -2.379
48.08000 -2.038
48.10000 -2.090
48.12000 -2.705
48.14000 -1.535
48.16000 0.769
48.18000 2.201
48.20000 -1.829
48.22000 -1.629
48.24000 2.001
48.26000 0.131
48.28000 -2.434
48.30000 2.079
48.32000 -0.815
48.34000 -1.314
48.36000 1.386
48.38000 6.186
48.40000 2.311
48.42000 2.175
48.44000 -0.290
48.46000 0.161
48.48000 -0.653
48.50000 0.900
48.52000 -0.631
48.54000 -2.661
48.56000 0.039
48.58000 -0.042
48.60000 -1.890
48.62000 1.119
48.64000 1.891
48.66000 1.836
48.68000 -0.460
48.70000 -0.265
48.72000 2.585
48.74000 -0.650
48.76000 -1.932
48.78000 -2.633
48.80000 -2.103
48.82000 1.454
48.84000 3.514
48.86000 1.841
48.88000 1.281
48.90000 2.556
48.92000 2.106
48.94000 -0.976
48.96000 3.320
48.98000 3.681
49.00000 -2.605
49.02000 1.821
49.04000 2.834
49.06000 1.246
49.08000 2.101
49.10000 3.400
49.12000 0.168
49.14000 -0.439
49.16000 2.535
49.18000 2.642
49.20000 2.387
49.22000 2.095
49.24000 2.250
49.26000 3.000
49.28000 -1.899
49.30000 -1.562
49.32000 2.797
49.34000 0.052
49.36000 0.980
49.38000 4.394
49.40000 1.400
49.42000 4.920
49.44000 4.538
49.46000 4.330
49.48000 1.678
49.50000 3.473
49.52000 2.087
49.54000 0.566
49.56000 4.757
49.58000 6.802
49.60000 3.081
49.62000 1.995
49.64000 2.175
49.66000 4.410
49.68000 3.837
49.70000 -1.442
49.72000 -2.574
49.74000 3.179
49.76000 5.840
49.78000 4.743
49.80000 3.088
49.82000 0.120
49.84000 0.122
49.86000 3.697
49.88000 0.937
49.90000 1.117
49.92000 4.245
49.94000 2.803
49.96000 0.214
49.98000 6.410
50.00000 5.528
50.02000 3.297
50.04000 3.789
50.06000 -0.451
50.08000 -0.058
50.10000 6.727
50.12000 5.468
50.14000 3.185
50.16000 1.421
50.18000 2.458
50.20000 0.799
50.22000 2.528
50.24000 5.069
50.26000 3.103
50.28000 1.181
50.30000 1.103
50.32000 2.477
50.34000 3.247
50.36000 4.344
50.38000 3.457
50.40000 2.538
50.42000 4.102
50.44000 4.972
50.46000 3.259
50.48000 1.481
50.50000 1.734
50.52000 0.352
50.54000 0.007
50.56000 2.652
50.58000 2.700
50.60000 0.472
50.62000 1.551
50.64000 -2.091
50.66000 0.314
50.68000 1.557
50.70000 0.872
50.72000 0.737
50.74000 1.751
50.76000 1.283
50.78000 2.917
50.80000 1.867
50.82000 -1.064
50.84000 2.895
50.86000 1.949
50.88000 -1.289
50.90000 -1.974
50.92000 -0.729
50.94000 -0.836
50.96000 -1.577
50.98000 -2.551
51.00000 -1.916
51.02000 -0.359
51.04000 -2.018
51.06000 -2.151
51.08000 3.174
51.10000 6.538
51.12000 4.466
51.14000 1.110
51.16000 -2.365
51.18000 -0.710
51.20000 1.872
51.22000 -0.423
51.24000 -1.962
51.26000 -2.543
51.28000 4.066
51.30000 3.445
51.32000 1.057
51.34000 -1.694
51.36000 -2.544
51.38000 -2.176
51.40000 -1.133
51.42000 1.013
51.44000 3.923
51.46000 3.872
51.48000 2.389
51.50000 -0.724
51.52000 -1.496
51.54000 -2.538
51.56000 1.987
51.58000 1.258
51.60000 1.650
51.62000 5.547
51.64000 3.467
51.66000 3.270
51.68000 2.456
51.70000 2.465
51.72000 2.270
51.74000 0.544
51.76000 -0.145
51.78000 1.404
51.80000 2.184
51.82000 2.128
51.84000 5.448
51.86000 4.727
51.88000 -2.524
51.90000 -1.013
51.92000 2.342
51.94000 3.274
51.96000 2.907
51.98000 5.169
52.00000 4.530
52.02000 2.779
52.04000 4.108
52.06000 8.506
52.08000 4.918
52.10000 2.482
52.12000 0.338
52.14000 3.887
52.16000 5.303
52.18000 3.615
52.20000 1.637
52.22000 3.394
52.24000 3.583
52.26000 4.042
52.28000 2.515
52.30000 0.799
52.32000 2.856
52.34000 4.043
52.36000 1.463
52.38000 2.629
52.40000 1.104
52.42000 -0.930
52.44000 -1.856
52.46000 -0.119
52.48000 0.490
52.50000 5.612
52.52000 2.969
52.54000 5.362
52.56000 8.958
52.58000 3.949
52.60000 0.005
52.62000 -1.276
52.64000 -0.834
52.66000 -0.176
52.68000 7.399
52.70000 6.685
52.72000 1.998
52.74000 3.118
52.76000 4.128
52.78000 2.661
52.80000 2.178
52.82000 2.063
52.84000 1.507
52.86000 4.131
52.88000 3.860
52.90000 0.347
52.92000 -2.487
52.94000 3.791
52.96000 0.671
52.98000 1.828
53.00000 3.444
53.02000 5.030
53.04000 2.571
53.06000 2.547
53.08000 -0.183
53.10000 1.425
53.12000 5.029
53.14000 2.872
53.16000 5.167
53.18000 5.322
53.20000 -0.531
53.22000 -2.458
53.24000 -1.128
53.26000 -2.463
53.28000 -0.977
53.30000 3.702
53.32000 5.806
53.34000 5.856
53.36000 4.501
53.38000 1.601
53.40000 0.695
53.42000 2.887
53.44000 0.040
53.46000 -1.646
53.48000 0.668
53.50000 2.984
53.52000 2.312
53.54000 6.231
53.56000 7.563
53.58000 4.946
53.60000 1.212
53.62000 -2.447
53.64000 1.711
53.66000 6.051
53.68000 5.443
53.70000 2.569
53.72000 3.824
53.74000 3.248
53.76000 1.860
53.78000 3.873
53.80000 5.121
53.82000 2.640
53.84000 5.008
53.86000 1.348
53.88000 4.186
53.90000 5.876
53.92000 0.736
53.94000 5.013
53.96000 5.168
53.98000 -1.330
54.00000 -0.017
54.02000 -1.432
54.04000 2.692
54.06000 5.524
54.08000 1.827
54.10000 1.396
54.12000 2.689
54.14000 4.852
54.16000 3.672
54.18000 3.423
54.20000 2.648
54.22000 0.812
54.24000 -0.060
54.26000 -2.431
54.28000 1.136
54.30000 0.174
54.32000 0.630
54.34000 -0.186
54.36000 1.572
54.38000 3.179
54.40000 2.296
54.42000 3.366
54.44000 4.996
54.46000 2.701
54.48000 1.744
54.50000 2.733
54.52000 5.114
54.54000 1.211
54.56000 1.040
54.58000 1.758
54.60000 0.995
54.62000 -2.412
54.64000 -0.948
54.66000 1.478
54.68000 2.079
54.70000 2.926
54.72000 2.544
54.74000 2.970
54.76000 1.621
54.78000 -0.428
54.80000 5.290
54.82000 3.659
54.84000 3.731
54.86000 4.092
54.88000 2.640
54.90000 1.743
54.92000 -0.409
54.94000 1.331
54.96000 1.646
54.98000 3.652
55.00000 3.697
55.02000 2.908
55.04000 -1.459
55.06000 -0.780
55.08000 2.483
55.10000 3.857
55.12000 2.960
55.14000 2.957
55.16000 5.092
55.18000 3.952
55.20000 2.206
55.22000 3.563
55.24000 3.764
55.26000 3.134
55.28000 2.497
55.30000 5.288
55.32000 5.441
55.34000 5.523
55.36000 5.787
55.38000 3.631
55.40000 2.880
55.42000 2.622
55.44000 -1.943
55.46000 -1.472
55.48000 1.791
55.50000 2.208
55.52000 4.326
55.54000 6.872
55.56000 5.448
55.58000 4.528
55.60000 4.110
55.62000 1.599
55.64000 -0.347
55.66000 2.299
55.68000 0.972
55.70000 0.466
55.72000 4.660
55.74000 4.307
55.76000 4.995
55.78000 2.784
55.80000 3.039
55.82000 1.735
55.84000 5.470
55.86000 3.772
55.88000 2.906
55.90000 3.305
55.92000 5.667
55.94000 -0.381
55.96000 1.265
55.98000 2.061
56.00000 4.513
56.02000 5.487
56.04000 4.624
56.06000 3.449
56.08000 0.888
56.10000 -1.074
56.12000 2.199
56.14000 1.802
56.16000 3.580
56.18000 6.107
56.20000 5.180
56.22000 4.877
56.24000 2.787
56.26000 5.374
56.28000 1.093
56.30000 3.329
56.32000 3.888
56.34000 3.910
56.36000 2.673
56.38000 4.610
56.40000 4.616
56.42000 2.976
56.44000 2.845
56.46000 5.594
56.48000 4.768
56.50000 5.044
56.52000 2.287
56.54000 4.018
56.56000 1.165
56.58000 -1.050
56.60000 -2.349
56.62000 0.284
56.64000 3.932
56.66000 3.941
56.68000 3.720
56.70000 2.985
56.72000 3.929
56.74000 2.730
56.76000 4.640
56.78000 4.380
56.80000 3.212
56.82000 3.935
56.84000 4.569
56.86000 6.060
56.88000 5.714
56.90000 3.684
56.92000 4.305
56.94000 3.553
56.96000 2.150
56.98000 -0.064
57.00000 -0.071
57.02000 4.032
57.04000 2.714
57.06000 4.580
57.08000 2.545
57.10000 5.800
57.12000 6.269
57.14000 3.641
57.16000 2.843
57.18000 0.605
57.20000 -0.984
57.22000 0.723
57.24000 1.432
57.26000 3.238
57.28000 5.589
57.30000 3.788
57.32000 3.578
57.34000 3.784
57.36000 3.145
57.38000 4.326
57.40000 0.623
57.42000 2.003
57.44000 0.842
57.46000 -2.337
57.48000 2.058
57.50000 3.367
57.52000 2.321
57.54000 2.313
57.56000 -0.227
57.58000 4.248
57.60000 4.772
57.62000 1.490
57.64000 0.094
57.66000 2.523
57.68000 5.700
57.70000 4.792
57.72000 4.659
57.74000 6.720
57.76000 5.837
57.78000 1.181
57.80000 1.064
57.82000 3.827
57.84000 0.805
57.86000 3.097
57.88000 2.260
57.90000 1.627
57.92000 -0.325
57.94000 -0.818
57.96000 2.180
57.98000 0.413
58.00000 0.656
58.02000 2.017
58.04000 4.400
58.06000 1.751
58.08000 2.308
58.10000 2.310
58.12000 2.823
58.14000 2.321
58.16000 1.305
58.18000 2.313
58.20000 1.200
58.22000 1.103
58.24000 2.167
58.26000 0.657
58.28000 -0.643
58.30000 1.514
58.32000 5.171
58.34000 3.910
58.36000 1.134
58.38000 1.172
58.40000 2.221
58.42000 4.564
58.44000 5.179
58.46000 4.451
58.48000 2.580
58.50000 2.900
58.52000 2.527
58.54000 4.954
58.56000 4.290
58.58000 4.181
58.60000 0.662
58.62000 -1.153
58.64000 0.739
58.66000 3.506
58.68000 -0.906
58.70000 -2.050
58.72000 -0.275
58.74000 -1.370
58.76000 1.782
58.78000 2.958
58.80000 2.518
58.82000 2.059
58.84000 -2.332
58.86000 -0.751
58.88000 1.928
58.90000 3.100
58.92000 2.909
58.94000 1.389
58.96000 0.962
58.98000 -0.347
59.00000 1.060
59.02000 0.067
59.04000 0.667
59.06000 1.827
59.08000 4.380
59.10000 1.022
59.12000 0.498
59.14000 1.614
59.16000 4.685
59.18000 3.667
59.20000 2.270
59.22000 -0.549
59.24000 -0.362
59.26000 -0.265
59.28000 0.998
59.30000 3.565
59.32000 4.415
59.34000 3.251
59.36000 3.091
59.38000 3.779
59.40000 2.161
59.42000 0.858
59.44000 2.314
59.46000 0.705
59.48000 1.649
59.50000 0.527
59.52000 2.585
59.54000 1.637
59.56000 -2.280
59.58000 -0.477
59.60000 1.855
59.62000 4.386
59.64000 4.050
59.66000 1.718
59.68000 1.827
59.70000 4.206
59.72000 3.423
59.74000 0.501
59.76000 2.266
59.78000 -0.454
59.80000 -0.061
59.82000 3.102
59.84000 6.375
59.86000 4.136
59.88000 1.307
59.90000 1.279
59.92000 2.263
59.94000 0.291
59.96000 3.972
59.98000 1.374
60.00000 -2.272
60.02000 4.003
60.04000 7.029
60.06000 2.683
60.08000 1.558
60.10000 2.449
60.12000 5.782
60.14000 3.560
60.16000 3.156
60.18000 0.886
60.20000 3.608
60.22000 3.780
60.24000 4.447
60.26000 3.956
60.28000 3.634
60.30000 3.669
60.32000 0.484
60.34000 1.341
60.36000 4.497
60.38000 5.986
60.40000 3.715
60.42000 2.254
60.44000 8.050
60.46000 6.866
60.48000 2.951
60.50000 0.727
60.52000 2.262
60.54000 2.823
60.56000 2.525
60.58000 -0.770
60.60000 0.425
60.62000 5.262
60.64000 6.793
60.66000 4.229
60.68000 0.905
60.70000 5.326
60.72000 5.558
60.74000 5.516
60.76000 5.518
60.78000 4.892
60.80000 2.664
60.82000 -2.074
60.84000 -1.272
60.86000 1.927
60.88000 4.240
60.90000 5.366
60.92000 5.390
60.94000 5.886
60.96000 0.751
60.98000 3.033
61.00000 3.015
61.02000 -0.616
61.04000 -2.229
61.06000 1.570
61.08000 4.122
61.10000 4.558
61.12000 4.481
61.14000 3.728
61.16000 3.887
61.18000 5.065
61.20000 6.206
61.22000 4.890
61.24000 1.093
61.26000 1.599
61.28000 -0.261
61.30000 1.852
61.32000 4.221
61.34000 2.786
61.36000 1.817
61.38000 3.085
61.40000 4.752
61.42000 1.976
61.44000 0.951
61.46000 -0.282
61.48000 1.371
61.50000 3.844
61.52000 4.504
61.54000 4.084
61.56000 0.907
61.58000 2.948
61.60000 2.821
61.62000 0.529
61.64000 2.756
61.66000 4.729
61.68000 7.072
61.70000 7.421
61.72000 6.073
61.74000 7.582
61.76000 4.123
61.78000 1.238
61.80000 5.414
61.82000 2.267
61.84000 2.494
61.86000 4.158
61.88000 4.337
61.90000 3.995
61.92000 1.287
61.94000 1.470
61.96000 1.592
61.98000 1.884
62.00000 2.466
62.02000 1.752
62.04000 -0.327
62.06000 -2.198
62.08000 -1.165
62.10000 2.233
62.12000 4.683
62.14000 2.406
62.16000 4.833
62.18000 7.424
62.20000 4.334
62.22000 6.866
62.24000 3.587
62.26000 3.328
62.28000 2.859
62.30000 2.949
62.32000 4.097
62.34000 2.625
62.36000 0.830
62.38000 3.507
62.40000 7.965
62.42000 5.759
62.44000 -0.557
62.46000 -1.653
62.48000 -2.172
62.50000 -0.051
62.52000 3.152
62.54000 -0.002
62.56000 -1.116
62.58000 1.583
62.60000 6.643
62.62000 5.900
62.64000 1.248
62.66000 3.116
62.68000 0.623
62.70000 2.716
62.72000 3.709
62.74000 6.248
62.76000 5.366
62.78000 7.975
62.80000 2.055
62.82000 -0.110
62.84000 3.091
62.86000 4.778
62.88000 1.213
62.90000 4.743
62.92000 6.496
62.94000 5.636
62.96000 3.761
62.98000 -1.531
63.00000 -1.404
63.02000 -0.038
63.04000 2.639
63.06000 1.281
63.08000 2.139
63.10000 4.387
63.12000 2.163
63.14000 0.015
63.16000 -1.682
63.18000 1.697
63.20000 4.267
63.22000 2.582
63.24000 3.746
63.26000 -0.245
63.28000 -0.088
63.30000 1.785
63.32000 2.339
63.34000 3.365
63.36000 0.534
63.38000 1.064
63.40000 1.871
63.42000 -0.613
63.44000 -0.416
63.46000 2.322
63.48000 -0.077
63.50000 -1.059
63.52000 -0.288
63.54000 0.860
63.56000 1.739
63.58000 3.506
63.60000 1.608
63.62000 -2.229
63.64000 -1.087
63.66000 1.788
63.68000 4.264
63.70000 1.280
63.72000 1.305
63.74000 0.282
63.76000 0.852
63.78000 0.336
63.80000 0.337
63.82000 -0.138
63.84000 -1.304
63.86000 -0.721
63.88000 -0.170
63.90000 0.010
63.92000 1.949
63.94000 -1.419
63.96000 -1.293
63.98000 -1.490
64.00000 -0.805
64.02000 -0.655
64.04000 3.906
64.06000 -0.220
64.08000 -0.859
64.10000 0.370
64.12000 2.519
64.14000 0.262
64.16000 2.955
64.18000 2.072
64.20000 -1.941
64.22000 0.133
64.24000 3.113
64.26000 1.881
64.28000 1.019
64.30000 -0.822
64.32000 1.518
64.34000 -0.082
64.36000 1.164
64.38000 0.297
64.40000 1.219
64.42000 2.403
64.44000 0.365
64.46000 -0.960
64.48000 -1.476
64.50000 -0.327
64.52000 -1.078
64.54000 0.494
64.56000 1.722
64.58000 0.404
64.60000 -1.576
64.62000 1.997
64.64000 -2.213
64.66000 -1.196
64.68000 -1.255
64.70000 1.151
64.72000 1.472
64.74000 -1.054
64.76000 -1.365
64.78000 0.602
64.80000 0.253
64.82000 1.188
64.84000 -1.289
64.86000 0.455
64.88000 -0.657
64.90000 -0.503
64.92000 0.110
64.94000 1.915
64.96000 1.299
64.98000 1.906
65.00000 1.099
65.02000 -0.931
65.04000 1.237
65.06000 -0.567
65.08000 -0.223
65.10000 1.361
65.12000 -1.928
65.14000 0.989
65.16000 1.410
65.18000 0.339
65.20000 2.183
65.22000 1.430
65.24000 0.638
65.26000 2.807
65.28000 2.166
65.30000 0.175
65.32000 0.902
65.34000 1.517
65.36000 -0.759
65.38000 -2.064
65.40000 0.023
65.42000 1.590
65.44000 -1.464
65.46000 -2.222
65.48000 0.313
65.50000 0.659
65.52000 -0.530
65.54000 -0.412
65.56000 1.109
65.58000 1.055
65.60000 0.687
65.62000 -0.216
65.64000 1.427
65.66000 0.544
65.68000 -0.849
65.70000 -1.187
65.72000 -0.177
65.74000 0.878
65.76000 2.073
65.78000 3.885
65.80000 4.058
65.82000 -1.120
65.84000 -1.961
65.86000 0.187
65.88000 0.691
65.90000 -2.237
65.92000 -0.445
65.94000 -0.659
65.96000 5.284
65.98000 5.416
66.00000 2.474
66.02000 1.810
66.04000 1.012
66.06000 -2.030
66.08000 -0.322
66.10000 0.248
66.12000 0.699
66.14000 1.315
66.16000 0.912
66.18000 2.545
66.20000 1.444
66.22000 3.299
66.24000 4.435
66.26000 2.013
66.28000 1.906
66.30000 3.993
66.32000 5.213
66.34000 2.696
66.36000 1.836
66.38000 0.930
66.40000 3.377
66.42000 5.498
66.44000 3.724
66.46000 3.098
66.48000 3.147
66.50000 3.989
66.52000 5.266
66.54000 5.795
66.56000 4.602
66.58000 3.373
66.60000 4.243
66.62000 0.804
66.64000 4.720
66.66000 6.451
66.68000 6.445
66.70000 3.667
66.72000 3.097
66.74000 7.709
66.76000 8.760
66.78000 4.656
66.80000 2.776
66.82000 6.328
66.84000 6.687
66.86000 5.672
66.88000 6.614
66.90000 6.779
66.92000 8.119
66.94000 8.623
66.96000 7.260
66.98000 8.052
67.00000 7.413
67.02000 4.544
67.04000 5.006
67.06000 3.669
67.08000 4.525
67.10000 3.934
67.12000 4.142
67.14000 7.006
67.16000 6.506
67.18000 3.498
67.20000 4.402
67.22000 6.354
67.24000 4.794
67.26000 4.642
67.28000 3.081
67.30000 1.160
67.32000 1.720
67.34000 1.157
67.36000 2.072
67.38000 3.027
67.40000 1.501
67.42000 0.106
67.44000 0.951
67.46000 3.516
67.48000 3.052
67.50000 4.740
67.52000 1.450
67.54000 -1.020
67.56000 1.560
67.58000 2.399
67.60000 2.606
67.62000 1.209
67.64000 -2.184
67.66000 -1.179
67.68000 -1.202
67.70000 1.028
67.72000 -0.883
67.74000 0.394
67.76000 2.975
67.78000 2.124
67.80000 0.285
67.82000 -0.174
67.84000 0.650
67.86000 3.067
67.88000 2.510
67.90000 -0.477
67.92000 -1.123
67.94000 -0.181
67.96000 -0.722
67.98000 0.409
68.00000 0.042
68.02000 1.026
68.04000 -1.027
68.06000 -0.636
68.08000 1.397
68.10000 1.513
68.12000 3.736
68.14000 2.128
68.16000 2.302
68.18000 0.641
68.20000 -0.400
68.22000 -1.007
68.24000 -1.351
68.26000 1.124
68.28000 0.676
68.30000 1.158
68.32000 1.424
68.34000 1.726
68.36000 1.974
68.38000 -0.512
68.40000 -2.105
68.42000 -0.614
68.44000 1.489
68.46000 1.726
68.48000 3.153
68.50000 1.875
68.52000 0.929
68.54000 2.900
68.56000 2.136
68.58000 -1.256
68.60000 -2.084
68.62000 0.033
68.64000 1.988
68.66000 3.090
68.68000 0.170
68.70000 1.111
68.72000 -0.138
68.74000 -0.564
68.76000 -1.316
68.78000 -1.150
68.80000 2.653
68.82000 1.939
68.84000 3.438
68.86000 2.827
68.88000 2.564
68.90000 2.657
68.92000 -2.062
68.94000 0.917
68.96000 2.653
68.98000 0.722
69.00000 0.952
69.02000 1.451
69.04000 2.128
69.06000 3.965
69.08000 4.087
69.10000 2.827
69.12000 -0.339
69.14000 0.192
69.16000 -1.076
69.18000 -0.505
69.20000 0.374
69.22000 -0.184
69.24000 0.843
69.26000 0.893
69.28000 0.554
69.30000 1.370
69.32000 -1.744
69.34000 -0.105
69.36000 2.005
69.38000 -0.349
69.40000 1.804
69.42000 1.630
69.44000 2.394
69.46000 1.112
69.48000 0.176
69.50000 1.243
69.52000 0.855
69.54000 -0.449
69.56000 2.214
69.58000 2.907
69.60000 1.219
69.62000 0.352
69.64000 1.072
69.66000 -1.231
69.68000 0.979
69.70000 0.419
69.72000 0.541
69.74000 0.811
69.76000 -0.395
69.78000 1.835
69.80000 3.619
69.82000 0.587
69.84000 2.810
69.86000 0.859
69.88000 -0.986
69.90000 -0.174
69.92000 2.169
69.94000 3.428
69.96000 2.338
69.98000 2.837
70.00000 2.185
70.02000 1.056
70.04000 -1.061
70.06000 1.366
70.08000 -2.009
70.10000 0.140
70.12000 0.188
70.14000 0.386
70.16000 0.488
70.18000 2.484
70.20000 0.584
70.22000 -0.181
70.24000 -0.323
70.26000 0.788
70.28000 -0.806
70.30000 2.390
70.32000 4.600
70.34000 2.935
70.36000 -0.130
70.38000 1.284
70.40000 1.064
70.42000 2.358
70.44000 2.910
70.46000 2.263
70.48000 0.548
70.50000 -0.306
70.52000 1.196
70.54000 0.763
70.56000 2.605
70.58000 2.644
70.60000 -1.335
70.62000 -0.543
70.64000 0.322
70.66000 1.164
70.68000 1.214
70.70000 0.257
70.72000 2.492
70.74000 1.335
70.76000 -1.986
70.78000 -1.831
70.80000 1.296
70.82000 0.442
70.84000 0.482
70.86000 0.340
70.88000 0.220
70.90000 3.314
70.92000 4.990
70.94000 1.147
70.96000 -0.559
70.98000 2.287
71.00000 3.493
71.02000 3.812
71.04000 3.397
71.06000 0.265
71.08000 -0.881
71.10000 2.480
71.12000 2.918
71.14000 2.371
71.16000 0.553
71.18000 1.373
71.20000 1.831
71.22000 -1.190
71.24000 0.737
71.26000 2.516
71.28000 0.176
71.30000 -1.976
71.32000 0.312
71.34000 2.719
71.36000 2.456
71.38000 1.705
71.40000 2.652
71.42000 3.161
71.44000 2.230
71.46000 2.631
71.48000 -0.652
71.50000 -0.381
71.52000 -0.901
71.54000 0.456
71.56000 0.754
71.58000 0.195
71.60000 -0.060
71.62000 1.113
71.64000 -0.095
71.66000 0.052
71.68000 1.230
71.70000 -1.213
71.72000 0.118
71.74000 0.654
71.76000 -0.547
71.78000 -0.512
71.80000 -0.088
71.82000 -1.451
71.84000 -0.961
71.86000 0.528
71.88000 0.302
71.90000 0.715
71.92000 4.480
71.94000 2.447
71.96000 0.944
71.98000 1.778
72.00000 0.809
72.02000 3.697
72.04000 1.157
72.06000 0.186
72.08000 1.219
72.10000 2.204
72.12000 0.780
72.14000 -0.327
72.16000 -0.422
72.18000 1.939
72.20000 3.856
72.22000 1.694
72.24000 0.386
72.26000 -0.933
72.28000 -0.616
72.30000 0.567
72.32000 0.120
72.34000 -0.408
72.36000 -0.599
72.38000 -0.788
72.40000 0.866
72.42000 0.430
72.44000 -0.547
72.46000 -1.649
72.48000 -0.186
72.50000 2.033
72.52000 3.580
72.54000 3.733
72.56000 2.876
72.58000 1.609
72.60000 -0.762
72.62000 -0.163
72.64000 3.609
72.66000 1.740
72.68000 -0.440
72.70000 0.280
72.72000 0.101
72.74000 -1.038
72.76000 -1.958
72.78000 -1.407
72.80000 0.821
72.82000 3.444
72.84000 0.552
72.86000 5.589
72.88000 5.575
72.90000 3.905
72.92000 3.670
72.94000 0.622
72.96000 2.157
72.98000 2.712
73.00000 0.046
73.02000 0.212
73.04000 0.640
73.06000 1.603
73.08000 1.760
73.10000 -0.235
73.12000 1.266
73.14000 2.243
73.16000 3.573
73.18000 2.023
73.20000 -0.600
73.22000 1.139
73.24000 0.416
73.26000 -0.300
73.28000 0.280
73.30000 -0.205
73.32000 -1.327
73.34000 -1.926
73.36000 0.301
73.38000 0.436
73.40000 -1.095
73.42000 0.151
73.44000 3.496
73.46000 2.181
73.48000 3.142
73.50000 5.032
73.52000 1.874
73.54000 3.715
73.56000 2.740
73.58000 -0.367
73.60000 1.846
73.62000 2.996
73.64000 2.398
73.66000 2.282
73.68000 -0.234
73.70000 -0.184
73.72000 -0.072
73.74000 2.523
73.76000 2.633
73.78000 1.910
73.80000 2.879
73.82000 0.029
73.84000 -0.681
73.86000 0.760
73.88000 -0.566
73.90000 0.222
73.92000 -0.681
73.94000 1.189
73.96000 2.270
73.98000 2.473
74.00000 2.364
74.02000 1.469
74.04000 -0.590
74.06000 -0.541
74.08000 -0.119
74.10000 2.280
74.12000 1.995
74.14000 1.559
74.16000 0.434
74.18000 -1.921
74.20000 -0.135
74.22000 1.821
74.24000 3.772
74.26000 3.675
74.28000 2.590
74.30000 3.233
74.32000 2.248
74.34000 1.749
74.36000 -0.181
74.38000 0.802
74.40000 1.775
74.42000 -0.126
74.44000 3.057
74.46000 2.668
74.48000 0.664
74.50000 4.907
74.52000 6.757
74.54000 2.051
74.56000 -0.330
74.58000 -0.886
74.60000 1.670
74.62000 3.401
74.64000 4.893
74.66000 4.663
74.68000 3.989
74.70000 0.236
74.72000 -1.914
74.74000 -0.960
74.76000 4.986
74.78000 4.317
74.80000 3.245
74.82000 4.553
74.84000 3.868
74.86000 0.945
74.88000 0.091
74.90000 -0.356
74.92000 0.183
74.94000 0.938
74.96000 0.386
74.98000 -0.431
75.00000 1.695
75.02000 2.374
75.04000 0.759
75.06000 0.322
75.08000 1.838
75.10000 0.928
75.12000 1.260
75.14000 1.663
75.16000 -1.196
75.18000 -1.193
75.20000 0.630
75.22000 0.569
75.24000 1.152
75.26000 4.952
75.28000 3.007
75.30000 2.489
75.32000 0.997
75.34000 2.559
75.36000 3.094
75.38000 2.124
75.40000 2.465
75.42000 1.980
75.44000 1.053
75.46000 1.268
75.48000 1.713
75.50000 1.211
75.52000 1.490
75.54000 1.855
75.56000 1.085
75.58000 1.518
75.60000 1.677
75.62000 2.426
75.64000 -0.115
75.66000 1.412
75.68000 2.772
75.70000 2.394
75.72000 0.668
75.74000 1.680
75.76000 1.839
75.78000 2.518
75.80000 2.804
75.82000 -0.063
75.84000 -1.003
75.86000 0.525
75.88000 1.685
75.90000 -1.022
75.92000 -0.574
75.94000 1.316
75.96000 -1.937
75.98000 2.249
76.00000 -0.855
76.02000 -0.687
76.04000 1.951
76.06000 2.368
76.08000 -0.640
76.10000 0.893
76.12000 4.813
76.14000 1.973
76.16000 1.319
76.18000 2.252
76.20000 1.131
76.22000 2.839
76.24000 2.003
76.26000 2.013
76.28000 1.731
76.30000 -1.799
76.32000 -1.160
76.34000 0.960
76.36000 0.159
76.38000 2.755
76.40000 0.873
76.42000 0.854
76.44000 0.467
76.46000 1.952
76.48000 4.453
76.50000 3.273
76.52000 1.652
76.54000 0.769
76.56000 -0.277
76.58000 0.819
76.60000 1.073
76.62000 0.182
76.64000 0.471
76.66000 -1.968
76.68000 1.517
76.70000 1.949
76.72000 5.088
76.74000 2.920
76.76000 -0.159
76.78000 0.146
76.80000 -1.382
76.82000 -0.722
76.84000 2.103
76.86000 3.138
76.88000 0.870
76.90000 -0.256
76.92000 0.050
76.94000 -1.180
76.96000 0.176
76.98000 0.261
77.00000 2.361
77.02000 -0.225
77.04000 0.390
77.06000 1.718
77.08000 1.147
77.10000 -0.550
77.12000 -1.229
77.14000 -0.314
77.16000 -0.797
77.18000 1.093
77.20000 2.065
77.22000 1.181
77.24000 -0.410
77.26000 0.866
77.28000 -0.279
77.30000 -1.979
77.32000 -1.929
77.34000 -1.978
77.36000 -1.272
77.38000 2.567
77.40000 1.185
77.42000 1.767
77.44000 0.533
77.46000 3.289
77.48000 1.437
77.50000 1.470
77.52000 1.017
77.54000 -0.463
77.56000 -0.853
77.58000 0.599
77.60000 1.398
77.62000 1.823
77.64000 0.337
77.66000 1.341
77.68000 0.914
77.70000 -1.207
77.72000 -0.163
77.74000 -1.182
77.76000 1.090
77.78000 0.066
77.80000 -1.987
77.82000 -0.028
77.84000 2.448
77.86000 -0.246
77.88000 -0.802
77.90000 0.667
77.92000 3.793
77.94000 1.786
77.96000 -0.304
77.98000 0.708
78.00000 -0.081
78.02000 -1.301
78.04000 -1.647
78.06000 -1.313
78.08000 1.111
78.10000 3.088
78.12000 -1.590
78.14000 0.502
78.16000 1.659
78.18000 4.424
78.20000 3.462
78.22000 2.638
78.24000 1.277
78.26000 1.958
78.28000 1.157
78.30000 0.617
78.32000 -1.438
78.34000 -0.844
78.36000 -0.531
78.38000 0.592
78.40000 -1.868
78.42000 -1.775
78.44000 -0.476
78.46000 1.215
78.48000 0.739
78.50000 3.918
78.52000 2.214
78.54000 -0.677
78.56000 -2.047
78.58000 -1.659
78.60000 -1.314
78.62000 -0.667
78.64000 -1.373
78.66000 0.497
78.68000 0.049
78.70000 -1.587
78.72000 -0.523
78.74000 1.649
78.76000 -1.947
78.78000 -1.043
78.80000 1.700
78.82000 -1.419
78.84000 0.643
78.86000 0.239
78.88000 1.554
78.90000 0.481
78.92000 1.587
78.94000 -0.166
78.96000 1.048
78.98000 0.672
79.00000 3.037
79.02000 -2.077
79.04000 -0.925
79.06000 -1.485
79.08000 0.734
79.10000 3.601
79.12000 4.885
79.14000 4.474
79.16000 3.064
79.18000 -1.778
79.20000 0.021
79.22000 1.277
79.24000 -1.316
79.26000 4.569
79.28000 7.596
79.30000 1.239
79.32000 -0.412
79.34000 1.007
79.36000 3.703
79.38000 2.853
79.40000 3.493
79.42000 4.595
79.44000 2.936
79.46000 4.577
79.48000 3.270
79.50000 -0.478
79.52000 2.495
79.54000 4.808
79.56000 5.014
79.58000 1.723
79.60000 3.160
79.62000 5.487
79.64000 5.276
79.66000 4.682
79.68000 5.809
79.70000 5.925
79.72000 5.853
79.74000 6.712
79.76000 4.749
79.78000 3.751
79.80000 4.345
79.82000 5.822
79.84000 5.110
79.86000 6.991
79.88000 7.757
79.90000 6.496
79.92000 8.714
79.94000 10.415
79.96000 11.537
79.98000 14.913
80.00000 8.807
80.02000 9.487
80.04000 8.314
80.06000 8.105
80.08000 8.986
80.10000 11.301
80.12000 13.238
80.14000 13.320
80.16000 11.563
80.18000 14.127
80.20000 14.419
80.22000 13.289
80.24000 13.110
80.26000 12.245
80.28000 11.447
80.30000 13.290
80.32000 15.883
80.34000 14.210
80.36000 15.773
80.38000 16.552
80.40000 18.475
80.42000 17.934
80.44000 15.922
80.46000 16.850
80.48000 18.235
80.50000 18.324
80.52000 17.298
80.54000 19.381
80.56000 20.422
80.58000 20.904
80.60000 17.715
80.62000 22.443
80.64000 22.210
80.66000 20.022
80.68000 17.874
80.70000 15.980
80.72000 13.633
80.74000 11.943
80.76000 16.890
80.78000 17.927
80.80000 17.324
80.82000 18.489
80.84000 16.605
80.86000 13.714
80.88000 12.598
80.90000 13.108
80.92000 14.578
80.94000 13.817
80.96000 14.092
80.98000 13.700
81.00000 15.921
81.02000 13.911
81.04000 12.652
81.06000 12.128
81.08000 12.919
81.10000 11.866
81.12000 9.209
81.14000 12.046
81.16000 10.325
81.18000 7.978
81.20000 6.428
81.22000 7.734
81.24000 5.815
81.26000 5.806
81.28000 6.729
81.30000 7.936
81.32000 7.673
81.34000 2.803
81.36000 4.567
81.38000 6.494
81.40000 6.410
81.42000 6.869
81.44000 5.522
81.46000 4.839
81.48000 6.203
81.50000 5.830
81.52000 4.741
81.54000 7.355
81.56000 4.008
81.58000 1.707
81.60000 2.328
81.62000 1.812
81.64000 0.746
81.66000 3.734
81.68000 3.358
81.70000 4.392
81.72000 5.675
81.74000 1.667
81.76000 2.667
81.78000 0.471
81.80000 0.356
81.82000 2.444
81.84000 2.076
81.86000 -0.137
81.88000 2.386
81.90000 -1.049
81.92000 -0.854
81.94000 0.844
81.96000 -0.224
81.98000 1.438
82.00000 0.783
82.02000 3.684
82.04000 3.664
82.06000 2.983
82.08000 -0.090
82.10000 1.948
82.12000 2.007
82.14000 2.627
82.16000 1.533
82.18000 -1.139
82.20000 -2.141
82.22000 0.065
82.24000 1.724
82.26000 1.543
82.28000 2.527
82.30000 -1.602
82.32000 0.462
82.34000 1.203
82.36000 3.389
82.38000 3.264
82.40000 1.828
82.42000 0.912
82.44000 1.832
82.46000 1.112
82.48000 2.066
82.50000 0.277
82.52000 1.700
82.54000 1.158
82.56000 1.578
82.58000 3.808
82.60000 -1.731
82.62000 -1.631
82.64000 0.082
82.66000 -0.007
82.68000 -2.145
82.70000 -0.060
82.72000 -0.225
82.74000 1.945
82.76000 2.069
82.78000 3.113
82.80000 2.095
82.82000 0.012
82.84000 0.283
82.86000 0.140
82.88000 1.152
82.90000 1.566
82.92000 -0.172
82.94000 -0.227
82.96000 -0.143
82.98000 -0.798
83.00000 1.355
83.02000 5.102
83.04000 4.946
83.06000 5.090
83.08000 3.006
83.10000 0.667
83.12000 1.543
83.14000 3.616
83.16000 4.139
83.18000 7.252
83.20000 4.195
83.22000 3.225
83.24000 2.767
83.26000 3.584
83.28000 3.900
83.30000 3.850
83.32000 2.523
83.34000 4.391
83.36000 6.237
83.38000 5.346
83.40000 4.243
83.42000 2.797
83.44000 0.455
83.46000 -1.125
83.48000 4.914
83.50000 7.019
83.52000 6.737
83.54000 3.546
83.56000 4.521
83.58000 6.074
83.60000 7.464
83.62000 6.478
83.64000 5.019
83.66000 7.243
83.68000 6.758
83.70000 8.332
83.72000 10.115
83.74000 10.047
83.76000 10.560
83.78000 8.279
83.80000 8.770
83.82000 11.509
83.84000 16.682
83.86000 15.936
83.88000 14.119
83.90000 12.809
83.92000 16.581
83.94000 14.688
83.96000 18.881
83.98000 21.506
84.00000 15.869
84.02000 15.245
84.04000 16.935
84.06000 22.433
84.08000 23.076
84.10000 18.066
84.12000 18.410
84.14000 21.125
84.16000 21.800
84.18000 25.353
84.20000 25.708
84.22000 23.803
84.24000 22.872
84.26000 21.756
84.28000 21.618
84.30000 21.660
84.32000 21.633
84.34000 20.810
84.36000 25.410
84.38000 27.809
84.40000 28.899
84.42000 28.184
84.44000 27.419
84.46000 24.196
84.48000 23.952
84.50000 21.509
84.52000 27.089
84.54000 28.614
84.56000 29.648
84.58000 28.604
84.60000 28.730
84.62000 25.542
84.64000 23.250
84.66000 23.252
84.68000 23.978
84.70000 22.423
84.72000 24.682
84.74000 27.012
84.76000 25.785
84.78000 21.612
84.80000 19.899
84.82000 16.835
84.84000 20.129
84.86000 16.599
84.88000 17.409
84.90000 17.785
84.92000 15.565
84.94000 14.303
84.96000 15.370
84.98000 13.416
85.00000 10.989
85.02000 11.482
85.04000 12.615
85.06000 14.905
85.08000 9.378
85.10000 10.934
85.12000 11.253
85.14000 10.696
85.16000 10.446
85.18000 11.035
85.20000 12.224
85.22000 8.199
85.24000 7.583
85.26000 8.688
85.28000 8.803
85.30000 8.175
85.32000 8.038
85.34000 6.869
85.36000 8.152
85.38000 7.223
85.40000 6.805
85.42000 3.680
85.44000 2.969
85.46000 2.324
85.48000 5.414
85.50000 6.246
85.52000 7.215
85.54000 4.943
85.56000 3.944
85.58000 1.551
85.60000 1.791
85.62000 1.348
85.64000 1.191
85.66000 3.525
85.68000 4.747
85.70000 4.557
85.72000 2.882
85.74000 0.751
85.76000 1.632
85.78000 2.250
85.80000 1.635
85.82000 2.145
85.84000 0.849
85.86000 -0.785
85.88000 -1.941
85.90000 3.696
85.92000 6.063
85.94000 2.550
85.96000 2.879
85.98000 1.098
86.00000 1.646
86.02000 3.187
86.04000 1.658
86.06000 0.241
86.08000 3.252
86.10000 2.843
86.12000 4.012
86.14000 1.628
86.16000 -1.904
86.18000 1.204
86.20000 1.028
86.22000 1.319
86.24000 -0.100
86.26000 -0.017
86.28000 0.240
86.30000 2.354
86.32000 0.878
86.34000 3.506
86.36000 3.212
86.38000 0.960
86.40000 0.390
86.42000 -1.526
86.44000 0.120
86.46000 2.619
86.48000 1.938
86.50000 1.823
86.52000 0.186
86.54000 -0.578
86.56000 -1.870
86.58000 1.693
86.60000 2.022
86.62000 0.076
86.64000 0.028
86.66000 0.212
86.68000 2.878
86.70000 3.103
86.72000 1.896
86.74000 0.950
86.76000 -1.281
86.78000 0.092
86.80000 -0.717
86.82000 -0.062
86.84000 1.777
86.86000 3.980
86.88000 5.111
86.90000 0.557
86.92000 -0.232
86.94000 1.185
86.96000 1.140
86.98000 3.057
87.00000 4.553
87.02000 3.570
87.04000 3.663
87.06000 0.439
87.08000 -1.838
87.10000 0.121
87.12000 2.134
87.14000 1.613
87.16000 0.488
87.18000 1.337
87.20000 3.800
87.22000 4.189
87.24000 3.557
87.26000 1.700
87.28000 1.953
87.30000 1.141
87.32000 2.294
87.34000 1.065
87.36000 -0.172
87.38000 -0.020
87.40000 -1.562
87.42000 -0.035
87.44000 -1.443
87.46000 2.180
87.48000 3.450
87.50000 3.327
87.52000 1.999
87.54000 0.237
87.56000 0.030
87.58000 2.271
87.60000 2.704
87.62000 -0.149
87.64000 2.694
87.66000 2.562
87.68000 1.265
87.70000 0.752
87.72000 0.473
87.74000 1.957
87.76000 2.822
87.78000 1.207
87.80000 1.231
87.82000 0.136
87.84000 2.166
87.86000 3.506
87.88000 3.183
87.90000 3.178
87.92000 0.227
87.94000 1.959
87.96000 5.789
87.98000 4.171
88.00000 2.961
88.02000 2.985
88.04000 -0.254
88.06000 -1.137
88.08000 -0.742
88.10000 1.267
88.12000 1.368
88.14000 3.465
88.16000 -0.088
88.18000 0.496
88.20000 2.709
88.22000 2.175
88.24000 3.205
88.26000 3.527
88.28000 2.578
88.30000 -0.081
88.32000 1.764
88.34000 -0.039
88.36000 1.913
88.38000 0.358
88.40000 1.284
88.42000 -0.374
88.44000 -0.034
88.46000 -0.303
88.48000 -1.798
88.50000 -0.365
88.52000 0.749
88.54000 4.101
88.56000 5.775
88.58000 1.933
88.60000 1.236
88.62000 5.917
88.64000 4.584
88.66000 4.054
88.68000 1.450
88.70000 3.875
88.72000 -0.047
88.74000 -1.785
88.76000 2.364
88.78000 1.142
88.80000 1.791
88.82000 0.502
88.84000 2.705
88.86000 1.896
88.88000 2.635
88.90000 5.678
88.92000 2.902
88.94000 0.797
88.96000 0.728
88.98000 -0.140
89.00000 1.192
89.02000 1.955
89.04000 -0.804
89.06000 0.258
89.08000 -1.253
89.10000 -0.377
89.12000 -0.614
89.14000 0.245
89.16000 2.826
89.18000 1.579
89.20000 3.502
89.22000 4.542
89.24000 1.420
89.26000 -0.651
89.28000 -1.638
89.30000 0.921
89.32000 0.898
89.34000 -0.602
89.36000 0.453
89.38000 0.900
89.40000 3.700
89.42000 4.784
89.44000 1.248
89.46000 1.287
89.48000 -0.090
89.50000 1.442
89.52000 6.320
89.54000 4.055
89.56000 0.895
89.58000 0.643
89.60000 4.717
89.62000 2.565
89.64000 -1.801
89.66000 -0.501
89.68000 2.937
89.70000 6.448
89.72000 6.695
89.74000 1.260
89.76000 1.378
89.78000 0.642
89.80000 3.129
89.82000 4.321
89.84000 2.199
89.86000 1.344
89.88000 -1.451
89.90000 0.455
89.92000 2.000
89.94000 0.665
89.96000 2.859
89.98000 4.494
90.00000 2.788
90.02000 1.475
90.04000 1.539
90.06000 2.754
90.08000 2.834
90.10000 4.331
90.12000 1.429
90.14000 0.042
90.16000 1.534
90.18000 1.572
90.20000 0.697
90.22000 2.321
90.24000 1.286
90.26000 0.603
90.28000 2.788
90.30000 4.478
90.32000 4.723
90.34000 3.075
90.36000 -1.548
90.38000 -1.789
90.40000 2.009
90.42000 4.175
90.44000 0.990
90.46000 1.883
90.48000 2.237
90.50000 0.336
90.52000 0.745
90.54000 1.119
90.56000 1.819
90.58000 4.031
90.60000 2.631
90.62000 1.885
90.64000 1.575
90.66000 0.811
90.68000 1.215
90.70000 -0.333
90.72000 0.330
90.74000 -0.606
90.76000 -1.015
90.78000 2.607
90.80000 4.068
90.82000 0.876
90.84000 0.876
90.86000 -0.193
90.88000 0.293
90.90000 2.729
90.92000 1.127
90.94000 2.656
90.96000 0.632
90.98000 1.013
91.00000 2.013
91.02000 3.967
91.04000 5.799
91.06000 3.724
91.08000 0.264
91.10000 -1.014
91.12000 -0.391
91.14000 -1.799
91.16000 -1.396
91.18000 2.375
91.20000 2.823
91.22000 0.378
91.24000 2.074
91.26000 1.332
91.28000 1.147
91.30000 1.220
91.32000 4.564
91.34000 2.141
91.36000 -0.565
91.38000 -1.793
91.40000 -1.208
91.42000 -0.255
91.44000 2.840
91.46000 3.543
91.48000 0.288
91.50000 -0.952
91.52000 0.927
91.54000 1.008
91.56000 0.971
91.58000 -1.116
91.60000 -0.319
91.62000 1.539
91.64000 1.474
91.66000 4.538
91.68000 3.443
91.70000 3.888
91.72000 1.349
91.74000 2.553
91.76000 0.955
91.78000 -1.797
91.80000 0.085
91.82000 2.555
91.84000 -0.482
91.86000 4.823
91.88000 2.134
91.90000 3.170
91.92000 1.656
91.94000 2.030
91.96000 4.396
91.98000 5.219
92.00000 1.626
92.02000 -0.754
92.04000 2.310
92.06000 4.093
92.08000 0.681
92.10000 -1.384
92.12000 1.999
92.14000 0.442
92.16000 2.025
92.18000 2.695
92.20000 2.913
92.22000 -0.840
92.24000 0.646
92.26000 -0.532
92.28000 1.192
92.30000 1.389
92.32000 4.113
92.34000 2.956
92.36000 4.980
92.38000 5.868
92.40000 3.457
92.42000 0.181
92.44000 -0.700
92.46000 -1.801
92.48000 -1.091
92.50000 -0.302
92.52000 1.812
92.54000 3.012
92.56000 1.595
92.58000 1.666
92.60000 1.188
92.62000 -1.810
92.64000 -1.713
92.66000 -0.241
92.68000 3.139
92.70000 3.876
92.72000 4.112
92.74000 4.864
92.76000 3.619
92.78000 4.349
92.80000 3.169
92.82000 2.409
92.84000 3.879
92.86000 2.064
92.88000 2.570
92.90000 4.019
92.92000 1.899
92.94000 4.482
92.96000 0.399
92.98000 2.107
93.00000 1.728
93.02000 2.596
93.04000 1.715
93.06000 1.047
93.08000 -0.634
93.10000 0.310
93.12000 -1.830
93.14000 -0.117
93.16000 0.741
93.18000 -1.238
93.20000 0.480
93.22000 0.994
93.24000 2.458
93.26000 0.688
93.28000 0.076
93.30000 0.157
93.32000 1.318
93.34000 -0.694
93.36000 -0.135
93.38000 -0.694
93.40000 0.310
93.42000 -0.597
93.44000 5.786
93.46000 6.076
93.48000 3.850
93.50000 3.686
93.52000 0.145
93.54000 1.270
93.56000 0.218
93.58000 3.579
93.60000 3.137
93.62000 1.157
93.64000 0.046
93.66000 -1.041
93.68000 -1.549
93.70000 0.434
93.72000 2.166
93.74000 2.297
93.76000 1.773
93.78000 1.129
93.80000 1.286
93.82000 2.281
93.84000 0.004
93.86000 0.625
93.88000 4.445
93.90000 6.974
93.92000 1.026
93.94000 1.625
93.96000 -1.492
93.98000 -0.035
94.00000 -1.006
94.02000 3.547
94.04000 3.052
94.06000 0.382
94.08000 1.015
94.10000 3.316
94.12000 5.505
94.14000 1.071
94.16000 -1.294
94.18000 0.471
94.20000 -0.037
94.22000 -1.831
94.24000 0.598
94.26000 -0.081
94.28000 0.958
94.30000 2.277
94.32000 1.141
94.34000 -0.382
94.36000 2.533
94.38000 2.369
94.40000 1.165
94.42000 2.168
94.44000 0.409
94.46000 -1.457
94.48000 0.863
94.50000 3.848
94.52000 4.692
94.54000 4.991
94.56000 3.013
94.58000 0.731
94.60000 1.189
94.62000 2.275
94.64000 0.522
94.66000 0.145
94.68000 1.330
94.70000 -0.552
94.72000 -0.265
94.74000 -0.438
94.76000 1.162
94.78000 0.337
94.80000 1.374
94.82000 2.806
94.84000 5.424
94.86000 3.288
94.88000 -0.396
94.90000 -1.836
94.92000 -1.802
94.94000 2.160
94.96000 1.169
94.98000 0.962
95.00000 3.687
95.02000 3.339
95.04000 3.678
95.06000 -0.270
95.08000 0.732
95.10000 2.479
95.12000 2.997
95.14000 1.668
95.16000 1.590
95.18000 3.681
95.20000 7.194
95.22000 7.327
95.24000 1.321
95.26000 0.733
95.28000 1.910
95.30000 4.673
95.32000 6.499
95.34000 3.810
95.36000 4.309
95.38000 1.584
95.40000 -0.612
95.42000 0.164
95.44000 -0.328
95.46000 3.252
95.48000 3.931
95.50000 0.909
95.52000 0.216
95.54000 4.789
95.56000 2.388
95.58000 1.103
95.60000 1.755
95.62000 -1.832
95.64000 -0.221
95.66000 2.232
95.68000 1.149
95.70000 3.062
95.72000 2.259
95.74000 0.955
95.76000 1.373
95.78000 0.374
95.80000 0.804
95.82000 -1.652
95.84000 -0.004
95.86000 5.699
95.88000 7.237
95.90000 3.020
95.92000 2.464
95.94000 1.060
95.96000 1.242
95.98000 3.174
96.00000 3.046
96.02000 1.793
96.04000 1.552
96.06000 4.166
96.08000 4.487
96.10000 4.484
96.12000 1.968
96.14000 0.743
96.16000 -0.146
96.18000 3.196
96.20000 -1.203
96.22000 1.617
96.24000 2.854
96.26000 3.270
96.28000 1.682
96.30000 2.135
96.32000 1.555
96.34000 3.586
96.36000 4.517
96.38000 2.707
96.40000 3.906
96.42000 2.517
96.44000 0.214
96.46000 -0.310
96.48000 2.403
96.50000 2.215
96.52000 4.089
96.54000 2.272
96.56000 5.324
96.58000 3.775
96.60000 1.067
96.62000 1.587
96.64000 2.469
96.66000 4.206
96.68000 0.470
96.70000 -1.066
96.72000 4.216
96.74000 4.602
96.76000 3.331
96.78000 5.362
96.80000 5.138
96.82000 5.520
96.84000 1.480
96.86000 -0.890
96.88000 3.371
96.90000 1.752
96.92000 0.529
96.94000 2.669
96.96000 4.448
96.98000 4.908
97.00000 2.639
97.02000 0.913
97.04000 4.984
97.06000 5.851
97.08000 6.089
97.10000 5.909
97.12000 1.828
97.14000 -0.986
97.16000 -1.781
97.18000 1.101
97.20000 5.161
97.22000 6.710
97.24000 5.688
97.26000 5.174
97.28000 0.830
97.30000 4.285
97.32000 2.476
97.34000 2.996
97.36000 5.802
97.38000 7.618
97.40000 6.418
97.42000 6.747
97.44000 7.893
97.46000 3.920
97.48000 5.574
97.50000 4.305
97.52000 5.715
97.54000 6.374
97.56000 3.167
97.58000 -0.253
97.60000 0.533
97.62000 -1.178
97.64000 1.418
97.66000 3.856
97.68000 2.717
97.70000 4.106
97.72000 7.324
97.74000 8.246
97.76000 3.617
97.78000 1.931
97.80000 1.617
97.82000 7.611
97.84000 3.162
97.86000 5.097
97.88000 3.752
97.90000 3.887
97.92000 3.207
97.94000 3.188
97.96000 2.933
97.98000 2.976
98.00000 1.342
98.02000 5.720
98.04000 8.175
98.06000 4.866
98.08000 -0.490
98.10000 4.793
98.12000 6.129
98.14000 4.038
98.16000 4.825
98.18000 0.342
98.20000 2.082
98.22000 3.609
98.24000 2.642
98.26000 -1.746
98.28000 3.674
98.30000 6.394
98.32000 1.699
98.34000 7.290
98.36000 8.570
98.38000 5.355
98.40000 6.955
98.42000 1.737
98.44000 4.577
98.46000 6.149
98.48000 8.080
98.50000 8.303
98.52000 6.667
98.54000 6.199
98.56000 4.838
98.58000 1.410
98.60000 2.277
98.62000 3.877
98.64000 7.520
98.66000 3.098
98.68000 3.603
98.70000 3.373
98.72000 2.279
98.74000 4.631
98.76000 4.786
98.78000 4.642
98.80000 3.108
98.82000 3.544
98.84000 -1.737
98.86000 3.398
98.88000 5.809
98.90000 8.039
98.92000 2.017
98.94000 1.116
98.96000 2.482
98.98000 5.548
99.00000 8.569
99.02000 4.030
99.04000 2.048
99.06000 3.074
99.08000 5.110
99.10000 2.469
99.12000 3.278
99.14000 5.444
99.16000 5.573
99.18000 5.241
99.20000 6.794
99.22000 -1.327
99.24000 2.517
99.26000 3.183
99.28000 -0.168
99.30000 6.590
99.32000 9.812
99.34000 2.554
99.36000 4.417
99.38000 3.450
99.40000 0.824
99.42000 -0.428
99.44000 -1.762
99.46000 2.105
99.48000 7.004
99.50000 5.158
99.52000 6.865
99.54000 4.287
99.56000 4.607
99.58000 9.106
99.60000 5.310
99.62000 0.302
99.64000 8.645
99.66000 5.660
99.68000 6.780
99.70000 0.054
99.72000 -1.764
99.74000 0.475
99.76000 4.542
99.78000 5.742
99.80000 4.380
99.82000 4.482
99.84000 1.997
99.86000 0.230
99.88000 -0.093
99.90000 2.150
99.92000 7.975
99.94000 5.622
99.96000 -1.964
99.98000 0.000
