'Id: "0011389" Comment: "Integrate frame 0011389_Au-Ir-Rh_Au-Rich_XRD_Mapping-335-0000.gfrmwith cursor Wedge Cursor #5" Operator: "B?rgel" Anode: "Cu" Wavelength: "1.5406" Scantype: "2Theta (TwoTheta)" TimePerStep: "1" X: "-13.5" Y: "45" Z: "5.95" 
10.00000 0.000
10.02000 10.034
10.04000 3.454
10.06000 -4.697
10.08000 -4.652
10.10000 2.389
10.12000 -4.620
10.14000 -3.095
10.16000 24.833
10.18000 21.897
10.20000 5.301
10.22000 11.315
10.24000 14.595
10.26000 15.777
10.28000 11.768
10.30000 23.347
10.32000 17.793
10.34000 6.283
10.36000 18.136
10.38000 12.806
10.40000 2.716
10.42000 14.235
10.44000 13.405
10.46000 22.563
10.48000 16.484
10.50000 -4.931
10.52000 5.924
10.54000 7.161
10.56000 19.426
10.58000 12.615
10.60000 10.691
10.62000 13.603
10.64000 16.026
10.66000 13.194
10.68000 11.006
10.70000 4.347
10.72000 5.119
10.74000 17.575
10.76000 8.699
10.78000 13.033
10.80000 15.587
10.82000 28.695
10.84000 25.279
10.86000 17.204
10.88000 8.987
10.90000 4.242
10.92000 2.894
10.94000 21.577
10.96000 14.651
10.98000 19.367
11.00000 2.576
11.02000 6.939
11.04000 5.544
11.06000 11.068
11.08000 -3.896
11.10000 7.930
11.12000 13.361
11.14000 11.158
11.16000 20.068
11.18000 32.654
11.20000 18.913
11.22000 13.244
11.24000 11.710
11.26000 9.039
11.28000 6.150
11.30000 0.261
11.32000 3.922
11.34000 22.529
11.36000 16.723
11.38000 13.366
11.40000 -1.113
11.42000 5.186
11.44000 12.975
11.46000 13.584
11.48000 20.792
11.50000 9.221
11.52000 11.527
11.54000 8.913
11.56000 19.841
11.58000 19.575
11.60000 4.653
11.62000 12.814
11.64000 9.525
11.66000 8.571
11.68000 12.835
11.70000 16.665
11.72000 25.319
11.74000 15.660
11.76000 8.876
11.78000 8.277
11.80000 14.971
11.82000 17.137
11.84000 11.033
11.86000 11.274
11.88000 2.169
11.90000 10.026
11.92000 19.706
11.94000 30.557
11.96000 26.054
11.98000 13.034
12.00000 2.014
12.02000 2.759
12.04000 13.435
12.06000 12.768
12.08000 11.622
12.10000 18.681
12.12000 17.196
12.14000 18.785
12.16000 6.858
12.18000 7.318
12.20000 9.167
12.22000 7.159
12.24000 -4.558
12.26000 7.524
12.28000 15.813
12.30000 16.940
12.32000 23.086
12.34000 15.102
12.36000 18.686
12.38000 16.673
12.40000 9.762
12.42000 13.018
12.44000 17.784
12.46000 13.426
12.48000 11.685
12.50000 23.000
12.52000 28.025
12.54000 22.627
12.56000 8.217
12.58000 3.865
12.60000 11.938
12.62000 9.370
12.64000 18.431
12.66000 16.057
12.68000 11.150
12.70000 25.018
12.72000 15.518
12.74000 6.790
12.76000 8.609
12.78000 16.050
12.80000 11.129
12.82000 8.274
12.84000 11.187
12.86000 11.720
12.88000 15.993
12.90000 13.026
12.92000 20.541
12.94000 10.327
12.96000 7.842
12.98000 7.244
13.00000 15.202
13.02000 15.666
13.04000 11.787
13.06000 8.226
13.08000 6.285
13.10000 6.036
13.12000 13.050
13.14000 7.302
13.16000 14.486
13.18000 12.315
13.20000 1.531
13.22000 4.874
13.24000 0.100
13.26000 0.195
13.28000 5.404
13.30000 11.497
13.32000 5.491
13.34000 20.598
13.36000 14.173
13.38000 2.323
13.40000 14.313
13.42000 10.847
13.44000 13.284
13.46000 11.021
13.48000 11.459
13.50000 12.975
13.52000 13.029
13.54000 10.420
13.56000 4.323
13.58000 3.846
13.60000 3.030
13.62000 3.596
13.64000 16.772
13.66000 17.966
13.68000 24.108
13.70000 17.132
13.72000 8.892
13.74000 13.808
13.76000 21.879
13.78000 21.722
13.80000 20.549
13.82000 16.140
13.84000 9.122
13.86000 2.340
13.88000 15.982
13.90000 13.115
13.92000 7.186
13.94000 17.242
13.96000 13.004
13.98000 15.805
14.00000 13.786
14.02000 8.467
14.04000 5.242
14.06000 6.186
14.08000 9.850
14.10000 9.773
14.12000 17.132
14.14000 19.343
14.16000 11.373
14.18000 9.791
14.20000 14.613
14.22000 9.323
14.24000 9.164
14.26000 12.762
14.28000 14.512
14.30000 8.480
14.32000 8.312
14.34000 2.026
14.36000 -4.243
14.38000 -2.206
14.40000 4.965
14.42000 -2.938
14.44000 -4.541
14.46000 7.450
14.48000 7.340
14.50000 5.007
14.52000 6.132
14.54000 12.133
14.56000 19.751
14.58000 14.133
14.60000 14.315
14.62000 9.131
14.64000 2.338
14.66000 4.858
14.68000 6.662
14.70000 8.503
14.72000 8.022
14.74000 5.608
14.76000 1.817
14.78000 10.027
14.80000 6.762
14.82000 1.925
14.84000 4.674
14.86000 8.062
14.88000 1.641
14.90000 -2.407
14.92000 1.019
14.94000 5.390
14.96000 11.132
14.98000 6.713
15.00000 12.154
15.02000 19.080
15.04000 12.948
15.06000 7.195
15.08000 7.133
15.10000 10.235
15.12000 8.254
15.14000 6.484
15.16000 6.473
15.18000 8.651
15.20000 14.130
15.22000 13.884
15.24000 9.154
15.26000 6.241
15.28000 11.598
15.30000 11.465
15.32000 13.587
15.34000 13.281
15.36000 12.027
15.38000 12.888
15.40000 9.041
15.42000 6.512
15.44000 6.605
15.46000 2.945
15.48000 3.535
15.50000 11.667
15.52000 9.972
15.54000 3.331
15.56000 7.667
15.58000 9.248
15.60000 5.818
15.62000 11.131
15.64000 4.357
15.66000 11.580
15.68000 4.348
15.70000 3.510
15.72000 11.613
15.74000 -2.794
15.76000 3.750
15.78000 10.305
15.80000 15.967
15.82000 14.963
15.84000 10.263
15.86000 1.081
15.88000 2.892
15.90000 7.896
15.92000 -1.708
15.94000 -4.495
15.96000 4.570
15.98000 10.094
16.00000 7.896
16.02000 6.563
16.04000 2.683
16.06000 0.607
16.08000 6.485
16.10000 12.623
16.12000 7.486
16.14000 4.379
16.16000 1.021
16.18000 3.703
16.20000 7.751
16.22000 11.513
16.24000 12.438
16.26000 10.762
16.28000 7.145
16.30000 7.577
16.32000 15.654
16.34000 12.988
16.36000 7.254
16.38000 4.516
16.40000 1.796
16.42000 3.902
16.44000 2.925
16.46000 9.770
16.48000 12.009
16.50000 12.416
16.52000 6.903
16.54000 5.650
16.56000 4.116
16.58000 8.168
16.60000 4.248
16.62000 7.323
16.64000 2.512
16.66000 1.641
16.68000 3.780
16.70000 -3.630
16.72000 -3.695
16.74000 6.902
16.76000 9.472
16.78000 3.898
16.80000 8.222
16.82000 11.302
16.84000 7.642
16.86000 12.335
16.88000 17.396
16.90000 15.736
16.92000 17.013
16.94000 14.102
16.96000 8.386
16.98000 9.050
17.00000 9.811
17.02000 15.422
17.04000 16.584
17.06000 1.609
17.08000 6.123
17.10000 5.060
17.12000 10.836
17.14000 6.496
17.16000 14.403
17.18000 7.503
17.20000 6.130
17.22000 7.185
17.24000 5.506
17.26000 4.970
17.28000 3.643
17.30000 3.828
17.32000 2.830
17.34000 7.507
17.36000 12.327
17.38000 8.126
17.40000 5.335
17.42000 6.869
17.44000 4.073
17.46000 -1.571
17.48000 4.852
17.50000 4.842
17.52000 4.305
17.54000 7.805
17.56000 5.311
17.58000 1.990
17.60000 3.000
17.62000 4.364
17.64000 -0.427
17.66000 2.096
17.68000 8.668
17.70000 7.301
17.72000 4.832
17.74000 7.998
17.76000 6.229
17.78000 8.670
17.80000 6.214
17.82000 0.114
17.84000 1.980
17.86000 9.401
17.88000 3.585
17.90000 1.414
17.92000 10.011
17.94000 11.420
17.96000 15.533
17.98000 2.993
18.00000 5.154
18.02000 8.275
18.04000 2.405
18.06000 5.060
18.08000 5.376
18.10000 2.117
18.12000 0.598
18.14000 6.521
18.16000 11.601
18.18000 4.022
18.20000 -2.911
18.22000 -4.364
18.24000 -1.285
18.26000 6.234
18.28000 12.391
18.30000 10.177
18.32000 2.981
18.34000 -0.764
18.36000 8.334
18.38000 3.365
18.40000 -1.242
18.42000 4.962
18.44000 8.562
18.46000 8.530
18.48000 5.583
18.50000 4.582
18.52000 5.976
18.54000 0.910
18.56000 7.122
18.58000 10.501
18.60000 5.606
18.62000 5.065
18.64000 2.026
18.66000 6.693
18.68000 9.997
18.70000 12.280
18.72000 5.538
18.74000 0.688
18.76000 4.518
18.78000 5.864
18.80000 0.561
18.82000 0.864
18.84000 4.654
18.86000 5.927
18.88000 5.013
18.90000 3.458
18.92000 7.584
18.94000 15.358
18.96000 11.704
18.98000 11.301
19.00000 4.769
19.02000 -0.029
19.04000 -1.785
19.06000 4.281
19.08000 6.814
19.10000 4.814
19.12000 9.111
19.14000 5.614
19.16000 4.408
19.18000 2.486
19.20000 0.035
19.22000 -0.640
19.24000 1.998
19.26000 3.086
19.28000 4.847
19.30000 7.501
19.32000 14.059
19.34000 10.206
19.36000 7.640
19.38000 4.214
19.40000 0.628
19.42000 -0.988
19.44000 -2.256
19.46000 3.413
19.48000 2.355
19.50000 4.792
19.52000 10.945
19.54000 7.689
19.56000 9.403
19.58000 9.614
19.60000 8.480
19.62000 5.120
19.64000 -0.727
19.66000 -3.837
19.68000 -0.073
19.70000 5.001
19.72000 6.676
19.74000 -1.082
19.76000 -2.594
19.78000 -2.149
19.80000 -1.093
19.82000 1.778
19.84000 7.597
19.86000 7.320
19.88000 5.711
19.90000 7.779
19.92000 5.097
19.94000 8.152
19.96000 4.939
19.98000 1.671
20.00000 2.450
20.02000 -4.271
20.04000 5.130
20.06000 0.943
20.08000 -1.001
20.10000 -1.725
20.12000 0.850
20.14000 -3.641
20.16000 0.761
20.18000 7.672
20.20000 -0.620
20.22000 1.021
20.24000 0.426
20.26000 -0.625
20.28000 1.626
20.30000 0.260
20.32000 3.279
20.34000 6.468
20.36000 6.827
20.38000 2.380
20.40000 3.510
20.42000 3.511
20.44000 -0.118
20.46000 0.379
20.48000 2.814
20.50000 9.302
20.52000 1.418
20.54000 1.462
20.56000 3.038
20.58000 2.271
20.60000 4.049
20.62000 -2.485
20.64000 3.688
20.66000 1.008
20.68000 1.499
20.70000 4.778
20.72000 2.901
20.74000 7.123
20.76000 9.244
20.78000 6.808
20.80000 9.673
20.82000 5.777
20.84000 3.193
20.86000 8.366
20.88000 5.265
20.90000 3.270
20.92000 5.461
20.94000 4.941
20.96000 9.363
20.98000 -1.387
21.00000 2.266
21.02000 7.035
21.04000 11.794
21.06000 8.120
21.08000 2.601
21.10000 -0.413
21.12000 1.658
21.14000 8.618
21.16000 5.377
21.18000 7.116
21.20000 6.836
21.22000 6.957
21.24000 9.381
21.26000 0.125
21.28000 0.669
21.30000 1.625
21.32000 1.732
21.34000 5.967
21.36000 10.938
21.38000 5.967
21.40000 6.018
21.42000 1.271
21.44000 -0.538
21.46000 4.688
21.48000 2.770
21.50000 4.424
21.52000 7.467
21.54000 4.073
21.56000 3.451
21.58000 -4.149
21.60000 -1.257
21.62000 8.198
21.64000 7.950
21.66000 8.494
21.68000 6.698
21.70000 12.017
21.72000 8.522
21.74000 6.916
21.76000 9.736
21.78000 9.725
21.80000 10.065
21.82000 7.974
21.84000 4.466
21.86000 5.318
21.88000 1.780
21.90000 3.784
21.92000 7.778
21.94000 10.527
21.96000 11.556
21.98000 7.373
22.00000 4.834
22.02000 3.137
22.04000 8.053
22.06000 12.492
22.08000 13.412
22.10000 5.884
22.12000 6.160
22.14000 12.559
22.16000 10.254
22.18000 2.229
22.20000 9.016
22.22000 2.560
22.24000 -4.102
22.26000 0.415
22.28000 7.423
22.30000 7.269
22.32000 3.820
22.34000 6.370
22.36000 7.285
22.38000 4.371
22.40000 3.527
22.42000 4.063
22.44000 2.531
22.46000 3.764
22.48000 8.798
22.50000 8.971
22.52000 7.538
22.54000 5.250
22.56000 3.755
22.58000 7.788
22.60000 6.285
22.62000 1.270
22.64000 -1.340
22.66000 0.639
22.68000 5.206
22.70000 5.904
22.72000 8.346
22.74000 8.589
22.76000 6.344
22.78000 8.170
22.80000 6.855
22.82000 8.563
22.84000 5.296
22.86000 8.856
22.88000 8.113
22.90000 7.304
22.92000 6.963
22.94000 6.223
22.96000 5.159
22.98000 7.969
23.00000 7.382
23.02000 8.000
23.04000 7.994
23.06000 6.401
23.08000 3.956
23.10000 2.662
23.12000 2.605
23.14000 1.395
23.16000 3.209
23.18000 11.057
23.20000 9.595
23.22000 6.136
23.24000 3.846
23.26000 0.693
23.28000 -0.269
23.30000 2.083
23.32000 5.542
23.34000 4.811
23.36000 10.367
23.38000 9.141
23.40000 4.570
23.42000 2.555
23.44000 3.695
23.46000 4.446
23.48000 1.286
23.50000 2.110
23.52000 2.352
23.54000 -0.218
23.56000 -0.401
23.58000 3.166
23.60000 6.927
23.62000 7.924
23.64000 5.709
23.66000 0.418
23.68000 0.265
23.70000 6.082
23.72000 5.193
23.74000 -3.217
23.76000 1.253
23.78000 3.613
23.80000 6.552
23.82000 15.777
23.84000 9.304
23.86000 5.009
23.88000 5.292
23.90000 7.189
23.92000 -0.335
23.94000 -0.156
23.96000 0.598
23.98000 5.600
24.00000 0.367
24.02000 -2.066
24.04000 1.153
24.06000 4.514
24.08000 4.319
24.10000 0.452
24.12000 -1.021
24.14000 -2.619
24.16000 0.028
24.18000 7.967
24.20000 4.070
24.22000 4.334
24.24000 9.734
24.26000 2.866
24.28000 2.956
24.30000 11.313
24.32000 3.786
24.34000 5.095
24.36000 3.401
24.38000 3.593
24.40000 4.313
24.42000 3.891
24.44000 1.403
24.46000 7.917
24.48000 7.116
24.50000 4.643
24.52000 5.489
24.54000 3.875
24.56000 5.205
24.58000 5.572
24.60000 5.205
24.62000 7.111
24.64000 10.364
24.66000 5.793
24.68000 9.541
24.70000 0.882
24.72000 4.596
24.74000 6.322
24.76000 6.772
24.78000 6.254
24.80000 6.697
24.82000 0.401
24.84000 1.107
24.86000 1.325
24.88000 5.368
24.90000 15.190
24.92000 14.142
24.94000 8.856
24.96000 2.054
24.98000 0.860
25.00000 -3.961
25.02000 -2.066
25.04000 5.448
25.06000 9.977
25.08000 9.800
25.10000 9.140
25.12000 12.042
25.14000 17.132
25.16000 12.348
25.18000 11.542
25.20000 9.464
25.22000 5.622
25.24000 6.952
25.26000 8.407
25.28000 9.427
25.30000 2.399
25.32000 -1.319
25.34000 -1.560
25.36000 -3.275
25.38000 2.339
25.40000 0.555
25.42000 0.413
25.44000 4.378
25.46000 4.945
25.48000 3.995
25.50000 2.192
25.52000 8.937
25.54000 10.508
25.56000 9.093
25.58000 7.227
25.60000 8.017
25.62000 4.569
25.64000 6.552
25.66000 3.326
25.68000 1.186
25.70000 5.390
25.72000 9.287
25.74000 14.320
25.76000 7.195
25.78000 5.507
25.80000 2.317
25.82000 4.739
25.84000 8.971
25.86000 8.882
25.88000 7.082
25.90000 4.884
25.92000 7.480
25.94000 7.855
25.96000 6.401
25.98000 6.447
26.00000 4.896
26.02000 3.820
26.04000 1.076
26.06000 5.004
26.08000 5.680
26.10000 4.167
26.12000 7.497
26.14000 4.592
26.16000 6.272
26.18000 11.933
26.20000 13.118
26.22000 12.387
26.24000 12.891
26.26000 14.866
26.28000 14.527
26.30000 8.910
26.32000 4.683
26.34000 2.774
26.36000 2.590
26.38000 9.944
26.40000 12.436
26.42000 9.868
26.44000 10.788
26.46000 3.415
26.48000 -3.864
26.50000 -1.419
26.52000 7.025
26.54000 11.105
26.56000 9.760
26.58000 3.674
26.60000 10.379
26.62000 11.107
26.64000 6.467
26.66000 6.176
26.68000 6.833
26.70000 6.236
26.72000 6.489
26.74000 9.086
26.76000 7.228
26.78000 6.442
26.80000 7.811
26.82000 7.658
26.84000 0.432
26.86000 5.899
26.88000 8.307
26.90000 3.678
26.92000 6.571
26.94000 11.957
26.96000 7.741
26.98000 2.100
27.00000 6.370
27.02000 3.839
27.04000 -1.135
27.06000 2.401
27.08000 5.253
27.10000 7.181
27.12000 5.594
27.14000 4.935
27.16000 4.360
27.18000 4.774
27.20000 4.684
27.22000 4.514
27.24000 7.765
27.26000 11.876
27.28000 3.850
27.30000 -2.503
27.32000 -1.255
27.34000 3.083
27.36000 3.042
27.38000 8.659
27.40000 5.976
27.42000 0.056
27.44000 -0.878
27.46000 -1.051
27.48000 1.458
27.50000 0.768
27.52000 5.430
27.54000 4.475
27.56000 3.003
27.58000 -1.162
27.60000 -2.833
27.62000 0.082
27.64000 2.580
27.66000 6.260
27.68000 1.588
27.70000 -3.555
27.72000 -3.849
27.74000 2.285
27.76000 3.521
27.78000 1.857
27.80000 0.033
27.82000 2.170
27.84000 7.846
27.86000 6.549
27.88000 -2.673
27.90000 -1.072
27.92000 7.296
27.94000 7.527
27.96000 7.707
27.98000 6.865
28.00000 4.570
28.02000 3.668
28.04000 4.701
28.06000 2.535
28.08000 -2.588
28.10000 -2.878
28.12000 -0.176
28.14000 2.490
28.16000 5.591
28.18000 8.087
28.20000 3.228
28.22000 4.460
28.24000 1.849
28.26000 1.193
28.28000 4.305
28.30000 6.034
28.32000 3.219
28.34000 2.926
28.36000 5.450
28.38000 6.631
28.40000 5.862
28.42000 9.950
28.44000 9.455
28.46000 7.634
28.48000 6.767
28.50000 -1.576
28.52000 -1.843
28.54000 0.253
28.56000 3.163
28.58000 3.468
28.60000 3.181
28.62000 1.042
28.64000 1.452
28.66000 -0.951
28.68000 2.732
28.70000 2.206
28.72000 2.106
28.74000 1.189
28.76000 4.677
28.78000 -1.942
28.80000 4.139
28.82000 5.866
28.84000 1.108
28.86000 0.085
28.88000 -2.051
28.90000 2.666
28.92000 5.641
28.94000 0.943
28.96000 -2.883
28.98000 -2.619
29.00000 -0.534
29.02000 -1.207
29.04000 0.668
29.06000 2.880
29.08000 4.063
29.10000 8.105
29.12000 7.314
29.14000 4.493
29.16000 1.458
29.18000 4.229
29.20000 4.100
29.22000 2.253
29.24000 2.968
29.26000 -1.448
29.28000 2.660
29.30000 2.421
29.32000 2.347
29.34000 3.688
29.36000 -3.768
29.38000 -2.402
29.40000 2.850
29.42000 5.745
29.44000 4.602
29.46000 9.782
29.48000 4.134
29.50000 4.562
29.52000 2.841
29.54000 2.217
29.56000 2.107
29.58000 -0.850
29.60000 0.155
29.62000 6.391
29.64000 5.436
29.66000 4.282
29.68000 3.923
29.70000 2.408
29.72000 2.378
29.74000 2.851
29.76000 3.304
29.78000 3.112
29.80000 3.668
29.82000 4.303
29.84000 5.936
29.86000 4.053
29.88000 2.187
29.90000 3.297
29.92000 0.737
29.94000 0.903
29.96000 2.479
29.98000 2.566
30.00000 3.943
30.02000 5.006
30.04000 4.445
30.06000 2.908
30.08000 6.633
30.10000 -1.933
30.12000 0.785
30.14000 5.904
30.16000 8.310
30.18000 5.517
30.20000 2.952
30.22000 -1.500
30.24000 -0.112
30.26000 3.920
30.28000 3.919
30.30000 1.839
30.32000 5.678
30.34000 6.873
30.36000 5.642
30.38000 -0.500
30.40000 -1.014
30.42000 3.518
30.44000 0.346
30.46000 -0.835
30.48000 0.629
30.50000 -0.154
30.52000 4.750
30.54000 9.072
30.56000 5.085
30.58000 4.168
30.60000 2.470
30.62000 11.303
30.64000 6.424
30.66000 5.943
30.68000 9.321
30.70000 6.571
30.72000 6.738
30.74000 7.740
30.76000 6.329
30.78000 7.298
30.80000 5.176
30.82000 7.787
30.84000 5.858
30.86000 3.194
30.88000 1.218
30.90000 7.052
30.92000 3.842
30.94000 1.756
30.96000 6.295
30.98000 4.697
31.00000 -2.535
31.02000 4.331
31.04000 6.594
31.06000 3.149
31.08000 6.977
31.10000 4.528
31.12000 2.842
31.14000 -3.654
31.16000 2.536
31.18000 3.821
31.20000 3.594
31.22000 2.244
31.24000 3.662
31.26000 6.651
31.28000 11.200
31.30000 12.859
31.32000 8.322
31.34000 3.860
31.36000 4.945
31.38000 3.528
31.40000 -3.637
31.42000 -2.060
31.44000 6.462
31.46000 7.184
31.48000 9.072
31.50000 5.008
31.52000 0.183
31.54000 2.264
31.56000 4.762
31.58000 7.201
31.60000 8.337
31.62000 6.305
31.64000 4.022
31.66000 0.350
31.68000 2.426
31.70000 6.062
31.72000 10.561
31.74000 7.689
31.76000 4.935
31.78000 2.970
31.80000 2.705
31.82000 4.553
31.84000 4.452
31.86000 5.917
31.88000 3.393
31.90000 4.217
31.92000 6.901
31.94000 5.386
31.96000 5.338
31.98000 4.994
32.00000 1.520
32.02000 4.975
32.04000 9.369
32.06000 5.198
32.08000 4.732
32.10000 1.548
32.12000 0.619
32.14000 4.854
32.16000 0.500
32.18000 -3.646
32.20000 5.591
32.22000 3.489
32.24000 -0.338
32.26000 -2.064
32.28000 -0.748
32.30000 3.583
32.32000 2.052
32.34000 4.483
32.36000 7.777
32.38000 -0.853
32.40000 -0.628
32.42000 2.068
32.44000 5.406
32.46000 2.248
32.48000 3.745
32.50000 -0.086
32.52000 -2.564
32.54000 -3.025
32.56000 4.368
32.58000 6.583
32.60000 4.177
32.62000 -0.246
32.64000 2.137
32.66000 0.403
32.68000 -0.302
32.70000 2.235
32.72000 3.972
32.74000 4.363
32.76000 4.147
32.78000 8.868
32.80000 2.659
32.82000 -2.083
32.84000 -0.970
32.86000 2.844
32.88000 1.266
32.90000 -1.326
32.92000 -2.258
32.94000 -1.171
32.96000 1.392
32.98000 3.142
33.00000 1.930
33.02000 1.288
33.04000 2.273
33.06000 2.307
33.08000 0.757
33.10000 0.216
33.12000 2.269
33.14000 -0.062
33.16000 -0.941
33.18000 8.807
33.20000 8.977
33.22000 4.303
33.24000 4.365
33.26000 4.595
33.28000 3.224
33.30000 3.800
33.32000 2.915
33.34000 3.582
33.36000 0.190
33.38000 -1.362
33.40000 -3.651
33.42000 1.772
33.44000 4.001
33.46000 10.238
33.48000 9.508
33.50000 4.149
33.52000 4.402
33.54000 4.197
33.56000 8.849
33.58000 1.574
33.60000 -1.225
33.62000 4.809
33.64000 7.627
33.66000 4.578
33.68000 1.687
33.70000 3.457
33.72000 3.506
33.74000 -0.124
33.76000 1.106
33.78000 0.187
33.80000 -2.887
33.82000 -0.314
33.84000 2.561
33.86000 5.651
33.88000 3.411
33.90000 0.265
33.92000 2.941
33.94000 0.184
33.96000 2.821
33.98000 1.088
34.00000 4.699
34.02000 4.091
34.04000 1.299
34.06000 1.004
34.08000 4.864
34.10000 3.067
34.12000 3.091
34.14000 8.280
34.16000 9.903
34.18000 5.461
34.20000 -0.436
34.22000 1.676
34.24000 1.930
34.26000 1.267
34.28000 3.007
34.30000 3.439
34.32000 8.390
34.34000 6.359
34.36000 5.592
34.38000 6.345
34.40000 -0.991
34.42000 -3.658
34.44000 -2.014
34.46000 -1.661
34.48000 0.547
34.50000 -2.005
34.52000 2.555
34.54000 4.286
34.56000 0.137
34.58000 -2.338
34.60000 -0.069
34.62000 2.981
34.64000 5.230
34.66000 1.707
34.68000 2.176
34.70000 5.161
34.72000 4.868
34.74000 3.061
34.76000 5.105
34.78000 3.257
34.80000 0.708
34.82000 -0.306
34.84000 3.002
34.86000 1.669
34.88000 1.405
34.90000 0.837
34.92000 -2.285
34.94000 1.072
34.96000 -2.050
34.98000 3.607
35.00000 0.894
35.02000 3.501
35.04000 2.902
35.06000 0.049
35.08000 -2.017
35.10000 -0.657
35.12000 -3.116
35.14000 -2.562
35.16000 -3.645
35.18000 1.869
35.20000 3.852
35.22000 3.644
35.24000 0.497
35.26000 -1.342
35.28000 -1.137
35.30000 -0.812
35.32000 5.394
35.34000 5.883
35.36000 2.973
35.38000 3.988
35.40000 3.768
35.42000 4.363
35.44000 4.869
35.46000 10.245
35.48000 8.143
35.50000 4.260
35.52000 0.082
35.54000 -2.968
35.56000 -2.834
35.58000 1.494
35.60000 2.336
35.62000 3.874
35.64000 1.902
35.66000 5.922
35.68000 7.009
35.70000 3.816
35.72000 3.285
35.74000 4.293
35.76000 7.826
35.78000 5.971
35.80000 3.841
35.82000 -1.056
35.84000 2.190
35.86000 3.446
35.88000 1.857
35.90000 1.503
35.92000 4.273
35.94000 7.573
35.96000 6.367
35.98000 2.339
36.00000 0.479
36.02000 -3.627
36.04000 -0.207
36.06000 4.601
36.08000 6.121
36.10000 6.897
36.12000 9.171
36.14000 12.098
36.16000 6.540
36.18000 3.685
36.20000 9.893
36.22000 10.507
36.24000 10.986
36.26000 9.047
36.28000 5.052
36.30000 4.516
36.32000 4.161
36.34000 7.020
36.36000 9.837
36.38000 8.821
36.40000 7.664
36.42000 6.828
36.44000 11.655
36.46000 8.660
36.48000 2.794
36.50000 4.136
36.52000 7.118
36.54000 8.930
36.56000 12.738
36.58000 11.451
36.60000 12.893
36.62000 9.843
36.64000 10.487
36.66000 13.684
36.68000 12.577
36.70000 11.992
36.72000 7.179
36.74000 11.141
36.76000 12.416
36.78000 10.301
36.80000 10.154
36.82000 12.241
36.84000 12.680
36.86000 14.534
36.88000 15.309
36.90000 18.902
36.92000 18.564
36.94000 14.233
36.96000 11.207
36.98000 13.704
37.00000 14.456
37.02000 15.510
37.04000 21.262
37.06000 18.953
37.08000 17.379
37.10000 19.680
37.12000 21.703
37.14000 20.826
37.16000 20.502
37.18000 20.355
37.20000 19.974
37.22000 17.423
37.24000 15.061
37.26000 21.957
37.28000 22.695
37.30000 22.087
37.32000 26.298
37.34000 27.279
37.36000 26.938
37.38000 20.804
37.40000 25.245
37.42000 29.807
37.44000 32.003
37.46000 30.980
37.48000 26.490
37.50000 26.879
37.52000 32.960
37.54000 31.535
37.56000 31.503
37.58000 36.777
37.60000 37.812
37.62000 38.746
37.64000 39.684
37.66000 29.191
37.68000 33.119
37.70000 36.344
37.72000 41.915
37.74000 44.417
37.76000 46.743
37.78000 41.137
37.80000 35.827
37.82000 40.280
37.84000 46.383
37.86000 46.360
37.88000 46.468
37.90000 47.758
37.92000 50.481
37.94000 57.046
37.96000 52.934
37.98000 53.887
38.00000 58.661
38.02000 62.172
38.04000 66.794
38.06000 64.992
38.08000 62.800
38.10000 73.107
38.12000 78.283
38.14000 78.008
38.16000 80.371
38.18000 89.552
38.20000 92.661
38.22000 97.678
38.24000 102.126
38.26000 110.017
38.28000 116.623
38.30000 122.174
38.32000 125.980
38.34000 134.762
38.36000 148.385
38.38000 158.098
38.40000 162.168
38.42000 172.523
38.44000 179.247
38.46000 192.057
38.48000 210.224
38.50000 215.206
38.52000 226.724
38.54000 242.331
38.56000 249.305
38.58000 257.730
38.60000 266.777
38.62000 270.001
38.64000 280.965
38.66000 292.406
38.68000 295.216
38.70000 298.258
38.72000 297.954
38.74000 295.364
38.76000 294.284
38.78000 293.714
38.80000 293.695
38.82000 292.252
38.84000 286.997
38.86000 277.988
38.88000 261.440
38.90000 250.829
38.92000 241.507
38.94000 242.738
38.96000 235.859
38.98000 221.528
39.00000 205.016
39.02000 199.728
39.04000 189.319
39.06000 178.457
39.08000 173.312
39.10000 164.471
39.12000 151.990
39.14000 140.780
39.16000 136.696
39.18000 130.858
39.20000 122.944
39.22000 115.564
39.24000 103.474
39.26000 98.106
39.28000 91.958
39.30000 92.155
39.32000 88.316
39.34000 79.631
39.36000 73.701
39.38000 79.392
39.40000 70.855
39.42000 59.441
39.44000 59.527
39.46000 59.484
39.48000 53.162
39.50000 53.396
39.52000 54.776
39.54000 53.491
39.56000 49.813
39.58000 47.766
39.60000 49.568
39.62000 39.667
39.64000 39.233
39.66000 41.109
39.68000 38.909
39.70000 37.441
39.72000 32.894
39.74000 41.267
39.76000 35.271
39.78000 30.871
39.80000 30.359
39.82000 27.302
39.84000 29.570
39.86000 34.773
39.88000 31.697
39.90000 26.343
39.92000 25.184
39.94000 27.181
39.96000 28.976
39.98000 22.205
40.00000 23.201
40.02000 20.936
40.04000 22.766
40.06000 28.670
40.08000 28.539
40.10000 21.698
40.12000 21.853
40.14000 18.430
40.16000 16.485
40.18000 16.190
40.20000 18.300
40.22000 14.671
40.24000 16.721
40.26000 14.535
40.28000 19.089
40.30000 18.418
40.32000 15.612
40.34000 11.729
40.36000 12.721
40.38000 14.046
40.40000 12.530
40.42000 9.907
40.44000 11.503
40.46000 14.743
40.48000 15.203
40.50000 16.154
40.52000 15.765
40.54000 10.211
40.56000 13.085
40.58000 13.867
40.60000 12.233
40.62000 9.097
40.64000 9.269
40.66000 8.826
40.68000 9.599
40.70000 12.483
40.72000 6.939
40.74000 2.564
40.76000 3.550
40.78000 10.723
40.80000 14.576
40.82000 10.934
40.84000 10.237
40.86000 8.807
40.88000 7.836
40.90000 6.144
40.92000 3.225
40.94000 2.781
40.96000 3.730
40.98000 -0.809
41.00000 1.041
41.02000 4.938
41.04000 1.315
41.06000 1.204
41.08000 4.476
41.10000 2.178
41.12000 3.771
41.14000 6.131
41.16000 5.594
41.18000 6.274
41.20000 6.084
41.22000 5.047
41.24000 8.011
41.26000 6.769
41.28000 7.247
41.30000 4.292
41.32000 3.245
41.34000 2.868
41.36000 2.536
41.38000 0.401
41.40000 -1.922
41.42000 2.466
41.44000 2.333
41.46000 4.182
41.48000 3.636
41.50000 -0.381
41.52000 0.670
41.54000 0.084
41.56000 -0.139
41.58000 1.167
41.60000 2.127
41.62000 1.062
41.64000 3.136
41.66000 2.101
41.68000 5.910
41.70000 4.779
41.72000 0.947
41.74000 -3.455
41.76000 -0.709
41.78000 3.544
41.80000 5.847
41.82000 3.076
41.84000 2.571
41.86000 0.171
41.88000 -0.994
41.90000 -1.005
41.92000 1.444
41.94000 -0.493
41.96000 -1.054
41.98000 0.472
42.00000 1.893
42.02000 4.897
42.04000 -0.305
42.06000 -0.031
42.08000 2.229
42.10000 0.105
42.12000 4.388
42.14000 3.151
42.16000 1.833
42.18000 2.623
42.20000 1.667
42.22000 0.319
42.24000 -0.132
42.26000 -1.764
42.28000 -2.078
42.30000 -1.767
42.32000 -2.738
42.34000 -3.402
42.36000 -1.688
42.38000 1.843
42.40000 -2.542
42.42000 0.283
42.44000 -1.841
42.46000 -1.508
42.48000 2.595
42.50000 0.083
42.52000 -0.422
42.54000 -3.063
42.56000 -2.454
42.58000 1.271
42.60000 -0.761
42.62000 1.806
42.64000 -0.346
42.66000 1.843
42.68000 2.876
42.70000 -0.575
42.72000 -1.726
42.74000 -2.035
42.76000 -3.376
42.78000 -2.357
42.80000 -1.138
42.82000 -0.524
42.84000 1.831
42.86000 0.184
42.88000 0.551
42.90000 0.051
42.92000 0.639
42.94000 -0.666
42.96000 -0.497
42.98000 1.158
43.00000 -0.348
43.02000 -1.818
43.04000 -1.618
43.06000 -2.864
43.08000 -3.228
43.10000 -0.150
43.12000 2.345
43.14000 0.645
43.16000 2.452
43.18000 2.282
43.20000 0.731
43.22000 -0.190
43.24000 -0.884
43.26000 -0.322
43.28000 0.690
43.30000 0.614
43.32000 -0.386
43.34000 1.235
43.36000 1.053
43.38000 0.645
43.40000 -2.890
43.42000 -1.469
43.44000 1.842
43.46000 -0.158
43.48000 1.102
43.50000 0.439
43.52000 -1.291
43.54000 -1.071
43.56000 -0.290
43.58000 -1.005
43.60000 -3.314
43.62000 2.040
43.64000 2.176
43.66000 -1.830
43.68000 4.795
43.70000 5.102
43.72000 5.468
43.74000 1.926
43.76000 -2.869
43.78000 2.762
43.80000 4.825
43.82000 5.557
43.84000 5.801
43.86000 6.688
43.88000 3.956
43.90000 2.739
43.92000 4.421
43.94000 7.723
43.96000 11.260
43.98000 8.843
44.00000 9.296
44.02000 6.730
44.04000 10.068
44.06000 14.332
44.08000 14.413
44.10000 15.900
44.12000 13.905
44.14000 12.715
44.16000 14.689
44.18000 17.400
44.20000 16.021
44.22000 16.812
44.24000 15.866
44.26000 15.156
44.28000 14.860
44.30000 16.888
44.32000 21.685
44.34000 19.934
44.36000 22.512
44.38000 27.161
44.40000 26.380
44.42000 24.464
44.44000 29.093
44.46000 35.207
44.48000 34.258
44.50000 30.979
44.52000 36.957
44.54000 41.074
44.56000 42.392
44.58000 44.864
44.60000 46.958
44.62000 54.671
44.64000 56.815
44.66000 58.655
44.68000 59.044
44.70000 62.912
44.72000 64.870
44.74000 74.742
44.76000 75.717
44.78000 79.051
44.80000 82.499
44.82000 81.691
44.84000 83.742
44.86000 92.618
44.88000 98.364
44.90000 104.796
44.92000 104.857
44.94000 107.721
44.96000 115.845
44.98000 110.653
45.00000 113.354
45.02000 115.904
45.04000 117.452
45.06000 115.802
45.08000 114.654
45.10000 107.654
45.12000 110.516
45.14000 112.480
45.16000 110.000
45.18000 108.837
45.20000 101.478
45.22000 99.319
45.24000 96.631
45.26000 91.732
45.28000 87.975
45.30000 86.221
45.32000 83.335
45.34000 82.484
45.36000 78.222
45.38000 75.414
45.40000 71.833
45.42000 68.151
45.44000 59.856
45.46000 57.732
45.48000 53.879
45.50000 49.964
45.52000 50.662
45.54000 49.366
45.56000 44.415
45.58000 42.401
45.60000 41.887
45.62000 40.279
45.64000 36.709
45.66000 36.999
45.68000 34.928
45.70000 29.509
45.72000 28.582
45.74000 27.672
45.76000 24.582
45.78000 22.540
45.80000 25.266
45.82000 23.501
45.84000 16.411
45.86000 16.060
45.88000 11.896
45.90000 11.150
45.92000 16.250
45.94000 18.425
45.96000 14.800
45.98000 11.248
46.00000 8.279
46.02000 16.058
46.04000 13.873
46.06000 8.941
46.08000 8.385
46.10000 9.754
46.12000 11.509
46.14000 7.901
46.16000 6.457
46.18000 6.856
46.20000 0.981
46.22000 3.338
46.24000 6.144
46.26000 2.715
46.28000 2.683
46.30000 3.228
46.32000 5.166
46.34000 2.978
46.36000 2.113
46.38000 3.575
46.40000 4.332
46.42000 7.890
46.44000 5.399
46.46000 5.555
46.48000 0.478
46.50000 5.195
46.52000 5.555
46.54000 3.469
46.56000 4.530
46.58000 5.570
46.60000 6.620
46.62000 8.687
46.64000 3.623
46.66000 1.371
46.68000 3.788
46.70000 4.907
46.72000 2.993
46.74000 1.745
46.76000 5.238
46.78000 4.194
46.80000 0.815
46.82000 -1.686
46.84000 -2.884
46.86000 0.360
46.88000 7.084
46.90000 6.354
46.92000 6.172
46.94000 4.029
46.96000 1.592
46.98000 3.684
47.00000 3.336
47.02000 0.828
47.04000 4.057
47.06000 3.783
47.08000 4.058
47.10000 -0.127
47.12000 -1.002
47.14000 0.584
47.16000 1.626
47.18000 0.972
47.20000 3.047
47.22000 7.968
47.24000 4.342
47.26000 2.238
47.28000 1.836
47.30000 2.817
47.32000 2.796
47.34000 5.767
47.36000 5.325
47.38000 3.108
47.40000 1.627
47.42000 2.508
47.44000 1.742
47.46000 3.926
47.48000 4.714
47.50000 5.630
47.52000 4.973
47.54000 4.880
47.56000 6.151
47.58000 7.063
47.60000 7.398
47.62000 7.177
47.64000 7.105
47.66000 5.776
47.68000 0.973
47.70000 -2.342
47.72000 3.164
47.74000 6.866
47.76000 5.188
47.78000 1.026
47.80000 3.928
47.82000 6.030
47.84000 11.473
47.86000 6.614
47.88000 7.644
47.90000 4.238
47.92000 5.817
47.94000 4.686
47.96000 7.493
47.98000 7.536
48.00000 6.593
48.02000 4.502
48.04000 4.424
48.06000 2.404
48.08000 3.126
48.10000 5.932
48.12000 4.873
48.14000 5.640
48.16000 5.493
48.18000 4.304
48.20000 3.973
48.22000 1.163
48.24000 -2.741
48.26000 0.026
48.28000 4.219
48.30000 3.346
48.32000 5.563
48.34000 8.109
48.36000 5.441
48.38000 2.350
48.40000 3.636
48.42000 5.114
48.44000 5.984
48.46000 8.033
48.48000 6.357
48.50000 7.047
48.52000 8.315
48.54000 4.552
48.56000 3.484
48.58000 2.898
48.60000 3.446
48.62000 2.724
48.64000 2.574
48.66000 2.162
48.68000 -0.194
48.70000 -0.583
48.72000 2.731
48.74000 5.791
48.76000 0.385
48.78000 1.328
48.80000 0.661
48.82000 2.449
48.84000 2.898
48.86000 10.312
48.88000 10.548
48.90000 7.249
48.92000 4.332
48.94000 2.866
48.96000 2.225
48.98000 5.434
49.00000 6.650
49.02000 1.943
49.04000 -1.032
49.06000 2.108
49.08000 5.268
49.10000 6.122
49.12000 3.512
49.14000 2.352
49.16000 3.536
49.18000 7.713
49.20000 5.456
49.22000 5.379
49.24000 2.382
49.26000 -0.324
49.28000 2.924
49.30000 3.663
49.32000 7.367
49.34000 5.735
49.36000 6.483
49.38000 6.746
49.40000 5.579
49.42000 1.849
49.44000 3.617
49.46000 4.154
49.48000 5.092
49.50000 4.650
49.52000 4.354
49.54000 3.879
49.56000 2.152
49.58000 4.651
49.60000 2.179
49.62000 1.606
49.64000 3.160
49.66000 2.742
49.68000 3.257
49.70000 7.617
49.72000 8.216
49.74000 9.439
49.76000 6.424
49.78000 2.318
49.80000 5.984
49.82000 6.643
49.84000 1.383
49.86000 -0.177
49.88000 0.957
49.90000 2.657
49.92000 -0.007
49.94000 2.495
49.96000 4.676
49.98000 6.943
50.00000 7.526
50.02000 3.554
50.04000 2.427
50.06000 1.550
50.08000 -2.663
50.10000 -0.706
50.12000 4.414
50.14000 7.578
50.16000 6.498
50.18000 6.719
50.20000 6.704
50.22000 2.798
50.24000 2.111
50.26000 8.115
50.28000 4.437
50.30000 3.721
50.32000 0.968
50.34000 2.814
50.36000 5.266
50.38000 0.467
50.40000 3.969
50.42000 2.637
50.44000 1.033
50.46000 3.428
50.48000 7.821
50.50000 3.416
50.52000 7.852
50.54000 5.119
50.56000 -0.842
50.58000 -1.011
50.60000 3.699
50.62000 3.098
50.64000 1.439
50.66000 1.713
50.68000 6.720
50.70000 4.137
50.72000 3.209
50.74000 4.888
50.76000 8.640
50.78000 5.977
50.80000 0.167
50.82000 -2.178
50.84000 2.979
50.86000 3.535
50.88000 3.074
50.90000 7.211
50.92000 2.501
50.94000 2.273
50.96000 4.910
50.98000 -1.630
51.00000 2.402
51.02000 4.985
51.04000 3.805
51.06000 4.829
51.08000 -2.658
51.10000 -1.565
51.12000 -0.995
51.14000 -1.168
51.16000 0.623
51.18000 2.427
51.20000 1.780
51.22000 4.270
51.24000 2.981
51.26000 3.542
51.28000 0.879
51.30000 0.980
51.32000 2.437
51.34000 0.084
51.36000 -2.147
51.38000 3.931
51.40000 7.258
51.42000 7.817
51.44000 3.230
51.46000 1.293
51.48000 1.808
51.50000 7.838
51.52000 5.847
51.54000 4.178
51.56000 0.423
51.58000 -1.753
51.60000 4.820
51.62000 7.291
51.64000 5.835
51.66000 4.720
51.68000 8.238
51.70000 3.585
51.72000 3.198
51.74000 5.663
51.76000 4.985
51.78000 5.378
51.80000 7.635
51.82000 5.350
51.84000 2.441
51.86000 3.307
51.88000 7.127
51.90000 3.970
51.92000 2.213
51.94000 3.284
51.96000 4.182
51.98000 8.403
52.00000 7.654
52.02000 6.166
52.04000 5.157
52.06000 1.945
52.08000 -1.156
52.10000 4.408
52.12000 5.170
52.14000 5.079
52.16000 3.614
52.18000 6.711
52.20000 8.280
52.22000 1.631
52.24000 -1.065
52.26000 3.835
52.28000 3.066
52.30000 1.551
52.32000 3.103
52.34000 3.613
52.36000 5.288
52.38000 3.625
52.40000 4.429
52.42000 4.131
52.44000 6.998
52.46000 6.317
52.48000 10.458
52.50000 7.839
52.52000 7.429
52.54000 1.871
52.56000 4.535
52.58000 8.045
52.60000 5.307
52.62000 1.028
52.64000 3.595
52.66000 4.783
52.68000 4.268
52.70000 9.547
52.72000 2.921
52.74000 -2.583
52.76000 -0.198
52.78000 -0.740
52.80000 2.702
52.82000 7.420
52.84000 5.997
52.86000 9.284
52.88000 6.808
52.90000 3.723
52.92000 4.263
52.94000 4.971
52.96000 5.335
52.98000 4.142
53.00000 1.994
53.02000 4.247
53.04000 6.488
53.06000 6.340
53.08000 5.080
53.10000 1.717
53.12000 1.798
53.14000 2.802
53.16000 2.281
53.18000 2.006
53.20000 3.465
53.22000 3.714
53.24000 9.281
53.26000 8.406
53.28000 3.549
53.30000 2.253
53.32000 3.442
53.34000 3.156
53.36000 5.315
53.38000 9.720
53.40000 1.912
53.42000 -2.581
53.44000 -0.485
53.46000 3.871
53.48000 3.489
53.50000 4.828
53.52000 7.095
53.54000 6.461
53.56000 7.679
53.58000 4.946
53.60000 7.326
53.62000 2.566
53.64000 2.257
53.66000 3.941
53.68000 4.758
53.70000 6.147
53.72000 3.201
53.74000 -1.011
53.76000 2.568
53.78000 7.567
53.80000 3.837
53.82000 1.821
53.84000 0.763
53.86000 0.919
53.88000 3.070
53.90000 6.296
53.92000 3.278
53.94000 4.349
53.96000 2.335
53.98000 4.754
54.00000 2.337
54.02000 -1.391
54.04000 1.694
54.06000 6.026
54.08000 5.042
54.10000 2.417
54.12000 2.342
54.14000 -1.468
54.16000 -1.172
54.18000 1.308
54.20000 -0.341
54.22000 0.910
54.24000 -1.433
54.26000 2.118
54.28000 2.130
54.30000 0.493
54.32000 2.763
54.34000 1.296
54.36000 -1.593
54.38000 -1.436
54.40000 4.889
54.42000 5.093
54.44000 4.162
54.46000 2.920
54.48000 -2.571
54.50000 0.399
54.52000 0.985
54.54000 4.367
54.56000 1.811
54.58000 -0.200
54.60000 -1.181
54.62000 0.110
54.64000 6.715
54.66000 4.596
54.68000 0.320
54.70000 -0.422
54.72000 -0.996
54.74000 4.530
54.76000 1.606
54.78000 2.595
54.80000 2.893
54.82000 1.953
54.84000 1.975
54.86000 3.427
54.88000 3.590
54.90000 0.768
54.92000 4.057
54.94000 7.245
54.96000 4.963
54.98000 -0.506
55.00000 1.529
55.02000 -1.215
55.04000 2.471
55.06000 5.042
55.08000 5.753
55.10000 3.029
55.12000 3.185
55.14000 0.893
55.16000 2.503
55.18000 3.969
55.20000 0.696
55.22000 0.203
55.24000 0.901
55.26000 -0.676
55.28000 4.149
55.30000 5.608
55.32000 2.628
55.34000 3.423
55.36000 -0.441
55.38000 2.491
55.40000 2.030
55.42000 1.792
55.44000 2.542
55.46000 1.379
55.48000 2.568
55.50000 4.508
55.52000 5.434
55.54000 4.394
55.56000 3.188
55.58000 1.816
55.60000 0.024
55.62000 3.469
55.64000 2.405
55.66000 2.269
55.68000 6.352
55.70000 4.067
55.72000 3.197
55.74000 1.660
55.76000 2.326
55.78000 6.732
55.80000 8.625
55.82000 3.213
55.84000 -2.536
55.86000 -2.129
55.88000 2.234
55.90000 5.786
55.92000 2.576
55.94000 0.272
55.96000 1.457
55.98000 3.173
56.00000 3.777
56.02000 4.296
56.04000 3.990
56.06000 2.133
56.08000 2.179
56.10000 3.327
56.12000 -1.413
56.14000 3.360
56.16000 6.119
56.18000 7.082
56.20000 2.606
56.22000 0.571
56.24000 0.386
56.26000 3.077
56.28000 0.056
56.30000 -1.555
56.32000 1.439
56.34000 3.333
56.36000 5.507
56.38000 3.530
56.40000 7.145
56.42000 7.144
56.44000 0.416
56.46000 -1.351
56.48000 3.308
56.50000 5.405
56.52000 5.564
56.54000 2.257
56.56000 4.125
56.58000 3.300
56.60000 0.039
56.62000 -2.524
56.64000 2.336
56.66000 2.287
56.68000 5.414
56.70000 5.579
56.72000 2.993
56.74000 -0.689
56.76000 2.435
56.78000 3.546
56.80000 1.200
56.82000 -1.720
56.84000 0.425
56.86000 5.772
56.88000 1.875
56.90000 3.835
56.92000 3.496
56.94000 7.892
56.96000 6.396
56.98000 5.389
57.00000 5.212
57.02000 1.814
57.04000 1.942
57.06000 2.308
57.08000 0.634
57.10000 0.054
57.12000 3.045
57.14000 2.516
57.16000 -0.671
57.18000 -2.350
57.20000 -1.801
57.22000 -0.744
57.24000 2.767
57.26000 1.078
57.28000 0.007
57.30000 2.015
57.32000 0.794
57.34000 0.558
57.36000 -0.542
57.38000 4.618
57.40000 3.519
57.42000 4.134
57.44000 0.537
57.46000 0.443
57.48000 -1.776
57.50000 -2.290
57.52000 0.570
57.54000 0.587
57.56000 -0.921
57.58000 -1.041
57.60000 0.086
57.62000 2.752
57.64000 1.001
57.66000 0.156
57.68000 3.345
57.70000 -2.509
57.72000 -1.604
57.74000 0.763
57.76000 1.062
57.78000 0.585
57.80000 -0.466
57.82000 2.634
57.84000 1.155
57.86000 -0.314
57.88000 -0.639
57.90000 -0.972
57.92000 1.316
57.94000 2.417
57.96000 1.530
57.98000 0.229
58.00000 1.455
58.02000 -0.487
58.04000 -0.682
58.06000 0.659
58.08000 -1.326
58.10000 -1.744
58.12000 -1.664
58.14000 -1.791
58.16000 1.583
58.18000 2.177
58.20000 0.547
58.22000 1.002
58.24000 -1.123
58.26000 0.552
58.28000 -0.320
58.30000 -2.028
58.32000 0.606
58.34000 4.880
58.36000 5.878
58.38000 1.142
58.40000 2.413
58.42000 3.682
58.44000 4.280
58.46000 2.427
58.48000 2.375
58.50000 3.899
58.52000 6.083
58.54000 5.764
58.56000 0.950
58.58000 -0.280
58.60000 -2.422
58.62000 3.733
58.64000 3.630
58.66000 3.253
58.68000 2.815
58.70000 6.308
58.72000 4.001
58.74000 7.221
58.76000 8.744
58.78000 5.248
58.80000 1.529
58.82000 0.585
58.84000 -0.974
58.86000 -2.444
58.88000 -2.022
58.90000 0.654
58.92000 4.440
58.94000 5.202
58.96000 2.004
58.98000 0.761
59.00000 2.451
59.02000 0.514
59.04000 1.695
59.06000 2.885
59.08000 2.114
59.10000 -0.189
59.12000 3.091
59.14000 3.094
59.16000 0.870
59.18000 0.101
59.20000 0.717
59.22000 1.597
59.24000 0.497
59.26000 2.691
59.28000 1.523
59.30000 2.171
59.32000 3.619
59.34000 0.839
59.36000 -0.893
59.38000 2.670
59.40000 1.016
59.42000 0.608
59.44000 3.188
59.46000 5.494
59.48000 3.733
59.50000 0.496
59.52000 1.458
59.54000 4.891
59.56000 1.551
59.58000 1.261
59.60000 2.614
59.62000 1.326
59.64000 0.550
59.66000 1.310
59.68000 0.474
59.70000 1.653
59.72000 1.672
59.74000 -1.328
59.76000 0.279
59.78000 2.249
59.80000 0.747
59.82000 -0.979
59.84000 0.536
59.86000 2.006
59.88000 3.232
59.90000 7.591
59.92000 4.479
59.94000 0.316
59.96000 -1.459
59.98000 1.529
60.00000 1.962
60.02000 2.507
60.04000 3.743
60.06000 0.406
60.08000 -1.632
60.10000 -1.447
60.12000 -2.404
60.14000 -2.359
60.16000 -2.328
60.18000 0.283
60.20000 1.643
60.22000 5.729
60.24000 4.389
60.26000 4.893
60.28000 5.426
60.30000 6.386
60.32000 1.713
60.34000 2.908
60.36000 4.659
60.38000 2.015
60.40000 6.714
60.42000 5.127
60.44000 -1.104
60.46000 3.746
60.48000 6.996
60.50000 5.914
60.52000 2.114
60.54000 1.727
60.56000 -0.280
60.58000 4.007
60.60000 5.285
60.62000 6.886
60.64000 5.661
60.66000 1.901
60.68000 2.930
60.70000 2.208
60.72000 2.783
60.74000 3.401
60.76000 1.735
60.78000 -0.670
60.80000 -2.361
60.82000 1.292
60.84000 3.436
60.86000 1.705
60.88000 0.633
60.90000 3.072
60.92000 4.522
60.94000 4.902
60.96000 4.165
60.98000 4.163
61.00000 2.029
61.02000 0.971
61.04000 1.720
61.06000 0.367
61.08000 1.969
61.10000 1.058
61.12000 -0.871
61.14000 1.443
61.16000 1.649
61.18000 1.136
61.20000 3.005
61.22000 4.518
61.24000 5.614
61.26000 2.836
61.28000 -0.582
61.30000 0.522
61.32000 0.376
61.34000 2.438
61.36000 3.804
61.38000 3.461
61.40000 4.759
61.42000 6.334
61.44000 8.369
61.46000 7.758
61.48000 6.849
61.50000 9.719
61.52000 3.001
61.54000 1.956
61.56000 4.984
61.58000 3.895
61.60000 0.602
61.62000 1.256
61.64000 1.467
61.66000 1.283
61.68000 -0.062
61.70000 -2.342
61.72000 0.097
61.74000 -1.216
61.76000 2.541
61.78000 7.412
61.80000 5.158
61.82000 2.856
61.84000 -1.038
61.86000 2.575
61.88000 3.506
61.90000 0.532
61.92000 1.252
61.94000 4.648
61.96000 3.510
61.98000 0.150
62.00000 0.149
62.02000 1.781
62.04000 1.930
62.06000 3.653
62.08000 1.966
62.10000 1.806
62.12000 3.722
62.14000 1.463
62.16000 1.471
62.18000 -1.190
62.20000 -0.337
62.22000 2.326
62.24000 3.985
62.26000 4.975
62.28000 3.091
62.30000 4.027
62.32000 -0.372
62.34000 -2.308
62.36000 -0.569
62.38000 4.019
62.40000 10.717
62.42000 3.501
62.44000 0.213
62.46000 2.334
62.48000 5.319
62.50000 2.779
62.52000 2.691
62.54000 0.911
62.56000 2.939
62.58000 6.080
62.60000 4.684
62.62000 5.049
62.64000 3.889
62.66000 3.458
62.68000 1.117
62.70000 -2.300
62.72000 1.469
62.74000 2.549
62.76000 1.940
62.78000 2.536
62.80000 4.169
62.82000 1.701
62.84000 1.204
62.86000 2.737
62.88000 4.826
62.90000 1.017
62.92000 2.861
62.94000 3.492
62.96000 2.156
62.98000 2.975
63.00000 6.830
63.02000 1.682
63.04000 1.868
63.06000 0.949
63.08000 4.155
63.10000 6.652
63.12000 6.056
63.14000 4.700
63.16000 2.401
63.18000 0.788
63.20000 2.639
63.22000 3.174
63.24000 -2.203
63.26000 -0.725
63.28000 0.586
63.30000 3.077
63.32000 4.802
63.34000 3.500
63.36000 7.187
63.38000 0.840
63.40000 0.999
63.42000 2.791
63.44000 1.306
63.46000 1.832
63.48000 0.993
63.50000 0.872
63.52000 2.459
63.54000 2.257
63.56000 3.419
63.58000 2.047
63.60000 1.330
63.62000 2.489
63.64000 5.872
63.66000 5.184
63.68000 3.771
63.70000 2.205
63.72000 3.487
63.74000 -0.156
63.76000 -0.994
63.78000 -1.900
63.80000 1.260
63.82000 1.209
63.84000 -2.296
63.86000 -0.355
63.88000 1.079
63.90000 2.678
63.92000 1.665
63.94000 4.101
63.96000 2.422
63.98000 0.810
64.00000 0.460
64.02000 1.604
64.04000 1.103
64.06000 3.274
64.08000 2.017
64.10000 3.936
64.12000 4.600
64.14000 -2.168
64.16000 0.006
64.18000 0.510
64.20000 1.380
64.22000 3.367
64.24000 2.526
64.26000 3.280
64.28000 0.618
64.30000 0.654
64.32000 0.510
64.34000 3.415
64.36000 1.973
64.38000 3.981
64.40000 1.936
64.42000 0.608
64.44000 1.693
64.46000 -0.574
64.48000 -0.520
64.50000 1.666
64.52000 2.894
64.54000 -0.030
64.56000 3.749
64.58000 2.282
64.60000 1.229
64.62000 0.806
64.64000 3.394
64.66000 2.481
64.68000 1.309
64.70000 1.039
64.72000 -0.599
64.74000 0.880
64.76000 3.365
64.78000 3.390
64.80000 4.142
64.82000 1.669
64.84000 -0.201
64.86000 2.866
64.88000 2.787
64.90000 2.102
64.92000 2.356
64.94000 1.562
64.96000 3.213
64.98000 7.606
65.00000 6.663
65.02000 4.915
65.04000 3.308
65.06000 5.447
65.08000 2.520
65.10000 4.164
65.12000 4.267
65.14000 4.229
65.16000 3.588
65.18000 3.305
65.20000 4.164
65.22000 4.757
65.24000 6.746
65.26000 7.669
65.28000 5.490
65.30000 1.642
65.32000 0.889
65.34000 8.221
65.36000 6.785
65.38000 3.952
65.40000 6.526
65.42000 8.310
65.44000 5.672
65.46000 7.056
65.48000 8.578
65.50000 6.247
65.52000 5.257
65.54000 6.858
65.56000 6.758
65.58000 9.767
65.60000 9.765
65.62000 7.290
65.64000 8.632
65.66000 9.764
65.68000 6.654
65.70000 6.324
65.72000 6.171
65.74000 8.091
65.76000 6.841
65.78000 8.025
65.80000 6.557
65.82000 5.053
65.84000 5.485
65.86000 6.597
65.88000 4.502
65.90000 4.589
65.92000 5.916
65.94000 6.403
65.96000 4.727
65.98000 4.069
66.00000 7.026
66.02000 4.882
66.04000 2.563
66.06000 2.904
66.08000 5.842
66.10000 5.518
66.12000 1.885
66.14000 2.145
66.16000 3.756
66.18000 5.895
66.20000 4.892
66.22000 3.060
66.24000 1.702
66.26000 3.937
66.28000 3.958
66.30000 1.055
66.32000 2.385
66.34000 3.857
66.36000 1.405
66.38000 3.786
66.40000 1.345
66.42000 0.928
66.44000 -0.839
66.46000 -1.012
66.48000 2.084
66.50000 0.182
66.52000 1.176
66.54000 -0.530
66.56000 1.077
66.58000 0.637
66.60000 0.838
66.62000 1.853
66.64000 -2.277
66.66000 3.408
66.68000 1.385
66.70000 -0.271
66.72000 0.686
66.74000 2.540
66.76000 3.706
66.78000 4.213
66.80000 3.858
66.82000 2.967
66.84000 1.738
66.86000 -0.232
66.88000 -1.270
66.90000 -1.108
66.92000 0.203
66.94000 5.214
66.96000 3.245
66.98000 1.431
67.00000 1.516
67.02000 3.810
67.04000 3.457
67.06000 2.370
67.08000 0.203
67.10000 1.062
67.12000 -0.456
67.14000 0.488
67.16000 1.211
67.18000 1.210
67.20000 -0.053
67.22000 -1.614
67.24000 0.338
67.26000 -0.972
67.28000 -2.206
67.30000 -0.078
67.32000 -1.629
67.34000 -0.935
67.36000 1.688
67.38000 2.406
67.40000 0.854
67.42000 1.239
67.44000 0.815
67.46000 -1.620
67.48000 1.547
67.50000 3.252
67.52000 0.697
67.54000 0.797
67.56000 0.252
67.58000 0.287
67.60000 3.015
67.62000 4.259
67.64000 3.770
67.66000 3.209
67.68000 2.751
67.70000 1.641
67.72000 3.642
67.74000 2.673
67.76000 2.461
67.78000 2.104
67.80000 -0.113
67.82000 -0.335
67.84000 2.525
67.86000 3.138
67.88000 2.566
67.90000 -0.428
67.92000 -0.214
67.94000 -2.204
67.96000 -0.893
67.98000 -0.644
68.00000 -0.246
68.02000 -0.340
68.04000 1.944
68.06000 2.002
68.08000 2.455
68.10000 2.655
68.12000 3.548
68.14000 1.990
68.16000 2.554
68.18000 2.696
68.20000 2.789
68.22000 2.827
68.24000 3.673
68.26000 3.890
68.28000 2.981
68.30000 2.726
68.32000 3.284
68.34000 4.406
68.36000 3.173
68.38000 -1.180
68.40000 -0.025
68.42000 2.477
68.44000 1.578
68.46000 3.503
68.48000 3.299
68.50000 1.246
68.52000 0.821
68.54000 1.090
68.56000 0.084
68.58000 0.708
68.60000 0.412
68.62000 2.061
68.64000 3.790
68.66000 1.880
68.68000 2.308
68.70000 3.155
68.72000 2.263
68.74000 1.811
68.76000 1.028
68.78000 0.343
68.80000 2.040
68.82000 3.188
68.84000 3.961
68.86000 4.107
68.88000 -0.144
68.90000 1.423
68.92000 2.245
68.94000 1.701
68.96000 0.464
68.98000 -1.051
69.00000 -1.378
69.02000 1.454
69.04000 2.854
69.06000 -1.858
69.08000 -2.166
69.10000 1.676
69.12000 2.842
69.14000 3.894
69.16000 2.072
69.18000 0.276
69.20000 0.315
69.22000 1.513
69.24000 3.046
69.26000 3.409
69.28000 0.891
69.30000 2.107
69.32000 -0.235
69.34000 1.149
69.36000 2.950
69.38000 1.259
69.40000 -0.428
69.42000 3.447
69.44000 4.979
69.46000 2.739
69.48000 0.888
69.50000 0.383
69.52000 -0.299
69.54000 1.767
69.56000 1.964
69.58000 3.339
69.60000 2.244
69.62000 1.539
69.64000 1.515
69.66000 1.396
69.68000 -1.758
69.70000 -0.432
69.72000 1.545
69.74000 1.911
69.76000 4.133
69.78000 2.714
69.80000 1.495
69.82000 1.676
69.84000 2.778
69.86000 0.233
69.88000 -1.875
69.90000 -1.437
69.92000 1.972
69.94000 3.287
69.96000 1.947
69.98000 -0.617
70.00000 2.209
70.02000 2.124
70.04000 2.649
70.06000 2.612
70.08000 1.743
70.10000 5.292
70.12000 2.876
70.14000 -1.006
70.16000 -2.149
70.18000 0.359
70.20000 2.038
70.22000 1.523
70.24000 1.294
70.26000 0.986
70.28000 1.296
70.30000 -1.473
70.32000 1.194
70.34000 -0.314
70.36000 0.528
70.38000 2.273
70.40000 2.309
70.42000 1.097
70.44000 0.719
70.46000 -2.137
70.48000 0.590
70.50000 0.901
70.52000 1.190
70.54000 1.210
70.56000 -0.353
70.58000 0.310
70.60000 -0.855
70.62000 -0.274
70.64000 -1.135
70.66000 -0.049
70.68000 2.164
70.70000 1.282
70.72000 3.561
70.74000 4.469
70.76000 5.906
70.78000 2.608
70.80000 2.522
70.82000 3.269
70.84000 -0.867
70.86000 1.508
70.88000 2.886
70.90000 4.497
70.92000 1.132
70.94000 1.463
70.96000 4.435
70.98000 2.685
71.00000 4.258
71.02000 3.653
71.04000 2.792
71.06000 4.154
71.08000 3.178
71.10000 0.982
71.12000 2.333
71.14000 3.637
71.16000 3.942
71.18000 2.853
71.20000 0.616
71.22000 0.762
71.24000 -1.495
71.26000 1.520
71.28000 0.378
71.30000 -0.484
71.32000 4.829
71.34000 5.624
71.36000 3.340
71.38000 2.298
71.40000 4.185
71.42000 1.262
71.44000 -2.095
71.46000 2.412
71.48000 4.398
71.50000 2.064
71.52000 2.598
71.54000 3.981
71.56000 3.500
71.58000 3.413
71.60000 2.867
71.62000 4.337
71.64000 2.095
71.66000 2.691
71.68000 5.058
71.70000 1.541
71.72000 2.841
71.74000 4.044
71.76000 1.450
71.78000 -1.713
71.80000 -0.284
71.82000 1.518
71.84000 1.747
71.86000 4.956
71.88000 4.354
71.90000 5.623
71.92000 4.334
71.94000 1.900
71.96000 3.135
71.98000 5.275
72.00000 3.909
72.02000 2.448
72.04000 2.008
72.06000 2.129
72.08000 -2.050
72.10000 1.503
72.12000 0.876
72.14000 0.505
72.16000 1.761
72.18000 3.092
72.20000 3.142
72.22000 1.970
72.24000 4.681
72.26000 4.011
72.28000 2.133
72.30000 -0.173
72.32000 2.832
72.34000 4.656
72.36000 2.944
72.38000 2.564
72.40000 1.959
72.42000 3.592
72.44000 2.413
72.46000 -1.011
72.48000 -0.035
72.50000 1.782
72.52000 2.911
72.54000 2.672
72.56000 0.630
72.58000 1.930
72.60000 1.267
72.62000 2.173
72.64000 2.060
72.66000 0.468
72.68000 -0.363
72.70000 3.136
72.72000 3.080
72.74000 3.066
72.76000 -2.070
72.78000 -1.989
72.80000 0.471
72.82000 1.380
72.84000 -1.140
72.86000 2.916
72.88000 0.377
72.90000 2.625
72.92000 -0.026
72.94000 -0.710
72.96000 -0.102
72.98000 -0.704
73.00000 1.049
73.02000 1.674
73.04000 2.492
73.06000 1.573
73.08000 -0.051
73.10000 -0.163
73.12000 1.086
73.14000 1.338
73.16000 1.222
73.18000 2.862
73.20000 2.507
73.22000 0.826
73.24000 -0.491
73.26000 0.535
73.28000 1.894
73.30000 1.550
73.32000 -1.384
73.34000 -1.102
73.36000 -1.703
73.38000 0.251
73.40000 0.722
73.42000 2.808
73.44000 1.971
73.46000 2.639
73.48000 1.435
73.50000 0.428
73.52000 0.396
73.54000 -1.082
73.56000 -0.540
73.58000 -1.524
73.60000 1.389
73.62000 5.102
73.64000 2.529
73.66000 1.242
73.68000 0.236
73.70000 1.796
73.72000 0.756
73.74000 -0.621
73.76000 0.653
73.78000 -1.837
73.80000 -1.560
73.82000 2.056
73.84000 5.563
73.86000 6.114
73.88000 4.337
73.90000 3.231
73.92000 4.003
73.94000 1.552
73.96000 2.184
73.98000 -1.448
74.00000 0.570
74.02000 -1.341
74.04000 -0.225
74.06000 -0.424
74.08000 0.221
74.10000 2.944
74.12000 3.131
74.14000 2.363
74.16000 2.497
74.18000 -1.456
74.20000 -0.520
74.22000 -1.095
74.24000 2.389
74.26000 0.682
74.28000 1.616
74.30000 0.493
74.32000 0.966
74.34000 1.999
74.36000 3.629
74.38000 7.121
74.40000 1.629
74.42000 -0.707
74.44000 0.122
74.46000 -0.069
74.48000 0.013
74.50000 1.497
74.52000 2.546
74.54000 1.143
74.56000 0.879
74.58000 -2.050
74.60000 1.176
74.62000 1.340
74.64000 0.106
74.66000 3.358
74.68000 5.698
74.70000 6.937
74.72000 3.078
74.74000 1.048
74.76000 1.271
74.78000 1.156
74.80000 -0.736
74.82000 -0.938
74.84000 -1.489
74.86000 3.298
74.88000 4.777
74.90000 3.150
74.92000 3.176
74.94000 4.069
74.96000 4.317
74.98000 0.366
75.00000 1.832
75.02000 1.355
75.04000 -2.061
75.06000 -0.442
75.08000 1.455
75.10000 0.501
75.12000 2.580
75.14000 5.275
75.16000 4.134
75.18000 -0.037
75.20000 0.416
75.22000 0.946
75.24000 -1.167
75.26000 -1.507
75.28000 -1.012
75.30000 0.653
75.32000 2.447
75.34000 2.831
75.36000 1.121
75.38000 0.369
75.40000 5.216
75.42000 6.976
75.44000 6.033
75.46000 0.600
75.48000 3.195
75.50000 4.102
75.52000 2.327
75.54000 1.665
75.56000 1.320
75.58000 1.120
75.60000 -0.184
75.62000 -1.088
75.64000 -0.703
75.66000 4.152
75.68000 -0.763
75.70000 -0.870
75.72000 0.737
75.74000 0.750
75.76000 3.108
75.78000 1.605
75.80000 -0.600
75.82000 -0.254
75.84000 -0.728
75.86000 -0.419
75.88000 4.148
75.90000 3.354
75.92000 2.402
75.94000 3.013
75.96000 1.160
75.98000 2.390
76.00000 1.606
76.02000 3.604
76.04000 1.854
76.06000 -0.113
76.08000 2.657
76.10000 0.215
76.12000 3.291
76.14000 -2.077
76.16000 0.062
76.18000 2.874
76.20000 3.280
76.22000 2.223
76.24000 3.791
76.26000 4.180
76.28000 1.197
76.30000 3.535
76.32000 -0.878
76.34000 -0.085
76.36000 0.208
76.38000 1.877
76.40000 3.293
76.42000 2.000
76.44000 -0.687
76.46000 -0.579
76.48000 0.733
76.50000 1.824
76.52000 1.718
76.54000 0.509
76.56000 1.332
76.58000 2.660
76.60000 7.188
76.62000 3.703
76.64000 3.913
76.66000 2.738
76.68000 0.951
76.70000 1.365
76.72000 -0.060
76.74000 2.003
76.76000 -1.145
76.78000 -1.963
76.80000 1.742
76.82000 0.385
76.84000 1.170
76.86000 0.733
76.88000 -2.142
76.90000 0.913
76.92000 3.133
76.94000 0.234
76.96000 2.893
76.98000 2.175
77.00000 2.871
77.02000 3.456
77.04000 2.263
77.06000 2.498
77.08000 3.900
77.10000 4.942
77.12000 2.581
77.14000 -0.786
77.16000 1.347
77.18000 3.242
77.20000 1.489
77.22000 0.554
77.24000 1.637
77.26000 2.876
77.28000 2.971
77.30000 0.900
77.32000 -1.187
77.34000 -1.562
77.36000 1.479
77.38000 3.780
77.40000 2.045
77.42000 1.878
77.44000 1.403
77.46000 4.782
77.48000 4.070
77.50000 2.240
77.52000 1.262
77.54000 -2.187
77.56000 -0.132
77.58000 2.968
77.60000 1.619
77.62000 1.230
77.64000 -1.803
77.66000 -2.201
77.68000 1.412
77.70000 1.857
77.72000 3.268
77.74000 0.620
77.76000 2.570
77.78000 0.780
77.80000 0.858
77.82000 3.130
77.84000 7.232
77.86000 4.435
77.88000 5.133
77.90000 4.651
77.92000 7.049
77.94000 8.477
77.96000 7.470
77.98000 4.943
78.00000 5.930
78.02000 7.697
78.04000 7.240
78.06000 8.131
78.08000 8.157
78.10000 7.927
78.12000 4.506
78.14000 9.363
78.16000 9.348
78.18000 7.957
78.20000 5.177
78.22000 7.670
78.24000 10.060
78.26000 12.058
78.28000 12.509
78.30000 13.407
78.32000 14.735
78.34000 12.966
78.36000 14.926
78.38000 15.437
78.40000 18.590
78.42000 17.394
78.44000 21.415
78.46000 21.406
78.48000 21.978
78.50000 21.295
78.52000 23.286
78.54000 22.116
78.56000 24.871
78.58000 26.151
78.60000 30.812
78.62000 29.011
78.64000 30.114
78.66000 33.587
78.68000 33.642
78.70000 29.855
78.72000 28.722
78.74000 30.119
78.76000 31.606
78.78000 36.044
78.80000 35.876
78.82000 33.370
78.84000 36.177
78.86000 32.811
78.88000 33.776
78.90000 35.499
78.92000 36.378
78.94000 35.540
78.96000 41.026
78.98000 35.528
79.00000 33.872
79.02000 31.135
79.04000 29.671
79.06000 31.020
79.08000 32.866
79.10000 30.569
79.12000 29.224
79.14000 28.435
79.16000 27.360
79.18000 27.173
79.20000 23.709
79.22000 23.302
79.24000 25.068
79.26000 22.290
79.28000 21.040
79.30000 22.560
79.32000 20.502
79.34000 21.268
79.36000 20.716
79.38000 18.867
79.40000 16.439
79.42000 13.871
79.44000 14.866
79.46000 12.964
79.48000 16.064
79.50000 15.613
79.52000 12.609
79.54000 11.545
79.56000 8.940
79.58000 11.055
79.60000 13.511
79.62000 9.805
79.64000 10.318
79.66000 7.750
79.68000 6.891
79.70000 7.634
79.72000 7.993
79.74000 4.186
79.76000 1.842
79.78000 5.172
79.80000 4.033
79.82000 4.596
79.84000 1.217
79.86000 1.190
79.88000 -0.141
79.90000 5.889
79.92000 9.924
79.94000 3.263
79.96000 4.368
79.98000 8.338
80.00000 4.177
80.02000 5.761
80.04000 4.623
80.06000 5.160
80.08000 1.426
80.10000 -0.189
80.12000 -1.343
80.14000 5.854
80.16000 -0.810
80.18000 0.208
80.20000 1.156
80.22000 1.765
80.24000 -1.240
80.26000 1.183
80.28000 -1.567
80.30000 2.605
80.32000 0.647
80.34000 1.118
80.36000 1.586
80.38000 0.940
80.40000 2.189
80.42000 4.273
80.44000 2.757
80.46000 1.846
80.48000 5.411
80.50000 0.532
80.52000 1.439
80.54000 4.011
80.56000 4.140
80.58000 2.026
80.60000 1.641
80.62000 1.920
80.64000 3.798
80.66000 5.381
80.68000 3.669
80.70000 4.654
80.72000 4.993
80.74000 0.810
80.76000 1.609
80.78000 -0.077
80.80000 -2.321
80.82000 2.956
80.84000 6.849
80.86000 4.294
80.88000 1.761
80.90000 0.131
80.92000 -2.122
80.94000 5.094
80.96000 6.044
80.98000 4.334
81.00000 3.915
81.02000 8.424
81.04000 5.394
81.06000 2.997
81.08000 5.161
81.10000 7.628
81.12000 3.268
81.14000 1.027
81.16000 5.876
81.18000 8.225
81.20000 9.427
81.22000 7.904
81.24000 6.689
81.26000 5.859
81.28000 9.752
81.30000 5.813
81.32000 7.018
81.34000 4.303
81.36000 3.243
81.38000 5.754
81.40000 5.213
81.42000 3.752
81.44000 3.184
81.46000 3.079
81.48000 4.655
81.50000 4.648
81.52000 10.819
81.54000 10.912
81.56000 5.884
81.58000 5.681
81.60000 7.058
81.62000 9.489
81.64000 8.618
81.66000 8.788
81.68000 11.627
81.70000 13.559
81.72000 13.359
81.74000 12.759
81.76000 9.469
81.78000 9.001
81.80000 14.721
81.82000 13.404
81.84000 13.619
81.86000 13.857
81.88000 14.587
81.90000 18.775
81.92000 16.602
81.94000 18.323
81.96000 18.422
81.98000 17.955
82.00000 15.019
82.02000 15.867
82.04000 15.988
82.06000 17.233
82.08000 21.107
82.10000 23.603
82.12000 22.260
82.14000 19.625
82.16000 22.660
82.18000 21.937
82.20000 24.798
82.22000 22.699
82.24000 25.773
82.26000 29.222
82.28000 30.582
82.30000 29.125
82.32000 30.654
82.34000 33.412
82.36000 35.108
82.38000 35.079
82.40000 34.773
82.42000 33.585
82.44000 40.701
82.46000 40.786
82.48000 38.211
82.50000 40.393
82.52000 45.834
82.54000 50.991
82.56000 48.322
82.58000 45.839
82.60000 50.575
82.62000 55.173
82.64000 59.167
82.66000 65.071
82.68000 69.923
82.70000 71.457
82.72000 72.351
82.74000 79.037
82.76000 77.362
82.78000 72.338
82.80000 84.186
82.82000 84.538
82.84000 86.668
82.86000 90.412
82.88000 86.806
82.90000 81.932
82.92000 89.726
82.94000 96.053
82.96000 98.176
82.98000 98.854
83.00000 98.761
83.02000 101.995
83.04000 99.489
83.06000 95.908
83.08000 93.089
83.10000 97.613
83.12000 101.443
83.14000 99.479
83.16000 98.331
83.18000 95.699
83.20000 101.446
83.22000 95.988
83.24000 92.810
83.26000 86.660
83.28000 89.974
83.30000 88.570
83.32000 81.327
83.34000 78.281
83.36000 80.980
83.38000 80.486
83.40000 70.822
83.42000 61.249
83.44000 62.949
83.46000 63.758
83.48000 60.661
83.50000 56.116
83.52000 53.079
83.54000 52.781
83.56000 55.330
83.58000 49.420
83.60000 46.625
83.62000 39.689
83.64000 40.106
83.66000 39.395
83.68000 36.066
83.70000 31.512
83.72000 32.548
83.74000 29.022
83.76000 27.256
83.78000 24.748
83.80000 22.464
83.82000 16.839
83.84000 17.036
83.86000 21.697
83.88000 20.530
83.90000 16.776
83.92000 16.299
83.94000 17.643
83.96000 18.870
83.98000 17.857
84.00000 11.909
84.02000 9.640
84.04000 12.803
84.06000 13.971
84.08000 14.790
84.10000 10.269
84.12000 7.181
84.14000 6.445
84.16000 2.615
84.18000 5.719
84.20000 8.495
84.22000 8.418
84.24000 7.145
84.26000 5.634
84.28000 3.438
84.30000 4.650
84.32000 3.702
84.34000 3.883
84.36000 3.445
84.38000 8.052
84.40000 6.462
84.42000 6.306
84.44000 6.945
84.46000 2.969
84.48000 3.254
84.50000 4.066
84.52000 2.584
84.54000 5.863
84.56000 6.312
84.58000 3.084
84.60000 1.740
84.62000 1.524
84.64000 0.990
84.66000 -0.701
84.68000 -1.800
84.70000 2.259
84.72000 4.486
84.74000 1.049
84.76000 2.973
84.78000 5.495
84.80000 -1.584
84.82000 -2.142
84.84000 0.631
84.86000 0.508
84.88000 -0.055
84.90000 2.281
84.92000 2.604
84.94000 3.445
84.96000 2.022
84.98000 0.356
85.00000 -0.095
85.02000 -0.061
85.04000 -0.849
85.06000 4.652
85.08000 2.795
85.10000 -0.258
85.12000 -0.250
85.14000 -1.633
85.16000 -0.506
85.18000 1.959
85.20000 4.870
85.22000 3.878
85.24000 0.737
85.26000 0.225
85.28000 2.279
85.30000 3.924
85.32000 1.184
85.34000 -2.066
85.36000 1.107
85.38000 1.540
85.40000 1.493
85.42000 1.881
85.44000 3.301
85.46000 4.868
85.48000 3.379
85.50000 2.248
85.52000 0.374
85.54000 0.288
85.56000 1.176
85.58000 4.342
85.60000 3.354
85.62000 5.552
85.64000 3.257
85.66000 -1.695
85.68000 0.575
85.70000 -0.331
85.72000 2.215
85.74000 0.336
85.76000 4.426
85.78000 2.867
85.80000 1.964
85.82000 1.504
85.84000 4.249
85.86000 3.409
85.88000 1.513
85.90000 1.568
85.92000 -1.559
85.94000 -2.027
85.96000 -0.224
85.98000 -1.153
86.00000 3.484
86.02000 3.983
86.04000 2.383
86.06000 1.639
86.08000 2.802
86.10000 3.139
86.12000 0.950
86.14000 -0.466
86.16000 0.575
86.18000 1.006
86.20000 3.598
86.22000 3.185
86.24000 -0.596
86.26000 1.297
86.28000 2.660
86.30000 1.986
86.32000 1.813
86.34000 2.794
86.36000 2.104
86.38000 0.012
86.40000 -0.430
86.42000 0.014
86.44000 -0.915
86.46000 1.015
86.48000 2.480
86.50000 1.024
86.52000 0.834
86.54000 -0.360
86.56000 -0.103
86.58000 0.362
86.60000 2.466
86.62000 2.917
86.64000 1.905
86.66000 1.113
86.68000 0.266
86.70000 1.585
86.72000 1.922
86.74000 -1.291
86.76000 0.105
86.78000 3.507
86.80000 3.319
86.82000 2.014
86.84000 5.118
86.86000 2.760
86.88000 0.385
86.90000 0.252
86.92000 0.392
86.94000 1.347
86.96000 1.102
86.98000 1.370
87.00000 4.166
87.02000 3.986
87.04000 1.568
87.06000 4.807
87.08000 1.269
87.10000 -0.320
87.12000 2.709
87.14000 1.688
87.16000 -0.366
87.18000 1.463
87.20000 3.272
87.22000 2.312
87.24000 3.813
87.26000 0.375
87.28000 1.189
87.30000 -1.940
87.32000 0.873
87.34000 1.680
87.36000 0.781
87.38000 2.443
87.40000 2.591
87.42000 -0.439
87.44000 0.407
87.46000 -1.732
87.48000 2.202
87.50000 2.252
87.52000 3.043
87.54000 1.891
87.56000 1.174
87.58000 2.706
87.60000 1.436
87.62000 3.753
87.64000 2.751
87.66000 2.476
87.68000 2.540
87.70000 3.945
87.72000 1.165
87.74000 -0.401
87.76000 4.262
87.78000 4.750
87.80000 4.300
87.82000 3.436
87.84000 1.447
87.86000 -1.921
87.88000 -0.243
87.90000 3.410
87.92000 2.603
87.94000 5.167
87.96000 2.649
87.98000 -1.394
88.00000 2.517
88.02000 1.862
88.04000 1.314
88.06000 0.730
88.08000 2.038
88.10000 1.615
88.12000 3.589
88.14000 2.562
88.16000 1.870
88.18000 2.168
88.20000 2.348
88.22000 0.548
88.24000 1.085
88.26000 2.485
88.28000 -0.352
88.30000 -0.228
88.32000 2.620
88.34000 2.305
88.36000 4.132
88.38000 3.140
88.40000 1.687
88.42000 0.976
88.44000 -0.719
88.46000 0.432
88.48000 2.529
88.50000 3.554
88.52000 6.263
88.54000 5.373
88.56000 1.302
88.58000 0.627
88.60000 4.990
88.62000 2.623
88.64000 2.904
88.66000 4.681
88.68000 8.027
88.70000 5.827
88.72000 2.756
88.74000 2.804
88.76000 5.731
88.78000 1.710
88.80000 -1.148
88.82000 1.741
88.84000 3.923
88.86000 3.419
88.88000 3.596
88.90000 2.902
88.92000 0.227
88.94000 0.808
88.96000 0.264
88.98000 -1.889
89.00000 1.723
89.02000 4.141
89.04000 5.646
89.06000 4.208
89.08000 5.025
89.10000 4.155
89.12000 2.225
89.14000 5.427
89.16000 3.805
89.18000 -0.279
89.20000 3.103
89.22000 1.106
89.24000 2.457
89.26000 4.066
89.28000 3.147
89.30000 2.056
89.32000 1.734
89.34000 2.413
89.36000 3.928
89.38000 1.088
89.40000 4.508
89.42000 5.031
89.44000 4.509
89.46000 3.545
89.48000 -1.903
89.50000 -1.213
89.52000 2.154
89.54000 1.706
89.56000 0.591
89.58000 4.166
89.60000 3.762
89.62000 1.639
89.64000 4.974
89.66000 1.164
89.68000 -0.632
89.70000 2.571
89.72000 4.563
89.74000 9.948
89.76000 5.326
89.78000 2.104
89.80000 2.769
89.82000 1.305
89.84000 -1.910
89.86000 -0.986
89.88000 -1.086
89.90000 3.674
89.92000 4.140
89.94000 3.136
89.96000 3.532
89.98000 3.954
90.00000 4.266
90.02000 3.588
90.04000 2.481
90.06000 0.931
90.08000 2.411
90.10000 4.118
90.12000 0.872
90.14000 1.275
90.16000 1.257
90.18000 2.708
90.20000 0.732
90.22000 3.820
90.24000 4.444
90.26000 4.325
90.28000 3.170
90.30000 4.099
90.32000 2.774
90.34000 2.085
90.36000 1.799
90.38000 4.375
90.40000 2.233
90.42000 2.202
90.44000 2.490
90.46000 1.337
90.48000 1.412
90.50000 0.665
90.52000 -0.269
90.54000 0.330
90.56000 1.565
90.58000 3.194
90.60000 -0.319
90.62000 2.063
90.64000 4.223
90.66000 4.968
90.68000 3.294
90.70000 2.623
90.72000 2.482
90.74000 3.429
90.76000 5.561
90.78000 4.601
90.80000 3.502
90.82000 2.345
90.84000 3.616
90.86000 4.397
90.88000 1.046
90.90000 2.391
90.92000 4.615
90.94000 -1.892
90.96000 4.287
90.98000 1.516
91.00000 0.430
91.02000 3.784
91.04000 2.694
91.06000 2.688
91.08000 -1.519
91.10000 0.071
91.12000 2.020
91.14000 0.945
91.16000 5.198
91.18000 2.184
91.20000 -1.228
91.22000 -1.220
91.24000 0.337
91.26000 2.872
91.28000 3.839
91.30000 3.170
91.32000 1.594
91.34000 -0.232
91.36000 1.836
91.38000 1.480
91.40000 0.284
91.42000 4.159
91.44000 4.686
91.46000 4.199
91.48000 4.352
91.50000 1.906
91.52000 -0.992
91.54000 -0.136
91.56000 1.656
91.58000 3.573
91.60000 4.583
91.62000 3.883
91.64000 -0.080
91.66000 0.374
91.68000 0.392
91.70000 0.576
91.72000 4.424
91.74000 3.800
91.76000 3.040
91.78000 2.810
91.80000 2.536
91.82000 1.504
91.84000 1.298
91.86000 0.490
91.88000 -1.580
91.90000 1.361
91.92000 1.860
91.94000 1.009
91.96000 1.037
91.98000 0.210
92.00000 0.962
92.02000 -0.096
92.04000 0.092
92.06000 1.915
92.08000 1.864
92.10000 -1.155
92.12000 -1.249
92.14000 5.840
92.16000 2.178
92.18000 0.086
92.20000 1.512
92.22000 -0.655
92.24000 -0.188
92.26000 1.343
92.28000 1.968
92.30000 0.927
92.32000 0.454
92.34000 2.467
92.36000 0.955
92.38000 -0.003
92.40000 2.901
92.42000 0.261
92.44000 -1.092
92.46000 0.271
92.48000 1.156
92.50000 2.169
92.52000 1.496
92.54000 4.623
92.56000 3.767
92.58000 1.376
92.60000 2.257
92.62000 -1.578
92.64000 1.172
92.66000 3.924
92.68000 3.075
92.70000 2.420
92.72000 6.147
92.74000 2.407
92.76000 1.891
92.78000 1.228
92.80000 -0.160
92.82000 0.529
92.84000 2.919
92.86000 -0.721
92.88000 -1.906
92.90000 1.956
92.92000 1.905
92.94000 3.792
92.96000 2.149
92.98000 4.139
93.00000 1.850
93.02000 -0.737
93.04000 4.732
93.06000 4.325
93.08000 6.666
93.10000 3.783
93.12000 2.095
93.14000 2.078
93.16000 4.137
93.18000 3.110
93.20000 3.398
93.22000 4.133
93.24000 5.343
93.26000 4.041
93.28000 7.927
93.30000 7.102
93.32000 3.956
93.34000 0.521
93.36000 5.471
93.38000 4.736
93.40000 3.362
93.42000 1.673
93.44000 3.442
93.46000 2.129
93.48000 -1.901
93.50000 2.771
93.52000 4.159
93.54000 4.736
93.56000 3.644
93.58000 2.283
93.60000 2.678
93.62000 3.306
93.64000 3.436
93.66000 3.244
93.68000 3.453
93.70000 5.549
93.72000 3.622
93.74000 -0.938
93.76000 1.531
93.78000 6.183
93.80000 2.990
93.82000 1.177
93.84000 -1.863
93.86000 -1.710
93.88000 1.009
93.90000 2.586
93.92000 3.526
93.94000 6.092
93.96000 6.826
93.98000 10.225
94.00000 6.711
94.02000 5.973
94.04000 5.503
94.06000 3.378
94.08000 -0.008
94.10000 1.274
94.12000 0.898
94.14000 2.638
94.16000 -1.910
94.18000 -1.651
94.20000 -0.666
94.22000 2.558
94.24000 1.617
94.26000 1.599
94.28000 3.500
94.30000 3.886
94.32000 2.808
94.34000 3.986
94.36000 6.063
94.38000 3.520
94.40000 0.908
94.42000 0.438
94.44000 2.478
94.46000 1.244
94.48000 0.451
94.50000 1.727
94.52000 5.182
94.54000 5.921
94.56000 5.429
94.58000 2.988
94.60000 -1.218
94.62000 -0.134
94.64000 4.038
94.66000 -0.167
94.68000 0.592
94.70000 0.629
94.72000 4.369
94.74000 3.774
94.76000 1.316
94.78000 3.447
94.80000 5.183
94.82000 2.417
94.84000 3.372
94.86000 1.223
94.88000 1.068
94.90000 0.147
94.92000 -0.674
94.94000 -1.279
94.96000 0.371
94.98000 2.791
95.00000 1.494
95.02000 -0.511
95.04000 1.080
95.06000 -0.604
95.08000 -1.731
95.10000 6.050
95.12000 3.947
95.14000 -0.426
95.16000 -0.807
95.18000 3.737
95.20000 2.118
95.22000 4.340
95.24000 8.065
95.26000 7.353
95.28000 3.288
95.30000 -1.793
95.32000 -1.941
95.34000 -0.888
95.36000 0.184
95.38000 0.104
95.40000 -0.177
95.42000 3.704
95.44000 4.726
95.46000 4.080
95.48000 6.307
95.50000 6.538
95.52000 2.847
95.54000 -0.368
95.56000 2.789
95.58000 1.145
95.60000 3.440
95.62000 6.873
95.64000 8.270
95.66000 5.550
95.68000 5.016
95.70000 6.477
95.72000 8.295
95.74000 4.682
95.76000 2.786
95.78000 5.242
95.80000 1.512
95.82000 0.641
95.84000 3.201
95.86000 0.021
95.88000 0.267
95.90000 1.698
95.92000 2.446
95.94000 2.812
95.96000 4.157
95.98000 3.452
96.00000 1.097
96.02000 2.016
96.04000 3.275
96.06000 3.289
96.08000 4.992
96.10000 2.806
96.12000 4.372
96.14000 5.689
96.16000 1.979
96.18000 1.601
96.20000 1.128
96.22000 2.452
96.24000 6.215
96.26000 4.969
96.28000 5.693
96.30000 5.430
96.32000 -0.068
96.34000 -1.093
96.36000 -0.346
96.38000 -0.941
96.40000 -0.486
96.42000 1.626
96.44000 5.960
96.46000 5.778
96.48000 2.823
96.50000 4.554
96.52000 3.489
96.54000 0.805
96.56000 1.663
96.58000 0.895
96.60000 6.241
96.62000 8.091
96.64000 3.920
96.66000 1.750
96.68000 7.592
96.70000 5.882
96.72000 4.697
96.74000 3.956
96.76000 5.151
96.78000 -1.913
96.80000 3.270
96.82000 6.157
96.84000 7.098
96.86000 7.321
96.88000 3.510
96.90000 3.229
96.92000 2.243
96.94000 -1.009
96.96000 0.412
96.98000 2.691
97.00000 2.740
97.02000 3.981
97.04000 3.436
97.06000 7.788
97.08000 5.170
97.10000 1.878
97.12000 0.895
97.14000 2.340
97.16000 2.919
97.18000 1.757
97.20000 1.574
97.22000 -1.885
97.24000 -0.490
97.26000 3.510
97.28000 5.449
97.30000 7.622
97.32000 7.098
97.34000 2.261
97.36000 5.213
97.38000 9.527
97.40000 7.597
97.42000 5.297
97.44000 1.676
97.46000 3.728
97.48000 2.151
97.50000 2.347
97.52000 8.038
97.54000 9.650
97.56000 4.468
97.58000 5.963
97.60000 6.178
97.62000 1.815
97.64000 -1.889
97.66000 3.151
97.68000 5.734
97.70000 7.876
97.72000 5.793
97.74000 8.065
97.76000 1.019
97.78000 3.188
97.80000 6.353
97.82000 6.505
97.84000 7.034
97.86000 8.174
97.88000 3.283
97.90000 3.510
97.92000 9.393
97.94000 4.746
97.96000 0.642
97.98000 0.153
98.00000 4.115
98.02000 9.351
98.04000 7.568
98.06000 -0.745
98.08000 0.331
98.10000 -1.896
98.12000 7.377
98.14000 7.398
98.16000 4.857
98.18000 6.068
98.20000 4.502
98.22000 5.340
98.24000 2.574
98.26000 2.492
98.28000 1.886
98.30000 3.894
98.32000 8.399
98.34000 6.212
98.36000 1.000
98.38000 0.795
98.40000 2.704
98.42000 0.481
98.44000 2.923
98.46000 3.902
98.48000 3.759
98.50000 2.965
98.52000 3.124
98.54000 0.414
98.56000 -0.160
98.58000 0.232
98.60000 -1.456
98.62000 1.791
98.64000 0.852
98.66000 -1.567
98.68000 1.715
98.70000 1.170
98.72000 2.790
98.74000 9.626
98.76000 6.788
98.78000 -1.558
98.80000 1.296
98.82000 9.909
98.84000 10.594
98.86000 4.669
98.88000 6.864
98.90000 6.590
98.92000 2.704
98.94000 3.057
98.96000 4.804
98.98000 8.757
99.00000 5.962
99.02000 6.117
99.04000 7.370
99.06000 8.779
99.08000 9.808
99.10000 0.384
99.12000 -1.887
99.14000 0.953
99.16000 8.065
99.18000 3.380
99.20000 5.166
99.22000 1.160
99.24000 4.212
99.26000 10.292
99.28000 8.551
99.30000 11.194
99.32000 10.299
99.34000 3.239
99.36000 1.862
99.38000 2.603
99.40000 4.448
99.42000 6.459
99.44000 9.457
99.46000 2.377
99.48000 2.944
99.50000 6.756
99.52000 5.461
99.54000 -2.889
99.56000 4.859
99.58000 5.239
99.60000 4.762
99.62000 7.834
99.64000 6.319
99.66000 8.306
99.68000 9.996
99.70000 5.261
99.72000 0.847
99.74000 -1.858
99.76000 4.641
99.78000 14.864
99.80000 13.693
99.82000 7.336
99.84000 3.769
99.86000 -1.945
99.88000 1.899
99.90000 0.913
99.92000 1.589
99.94000 2.012
99.96000 2.814
99.98000 0.000
