'Id: "0011387" Comment: "Integrate frame 0011387_Au-Ir-Rh_Rh-rich_XRD-Mapping-287-0000.gfrmwith cursor Wedge Cursor #5" Operator: "B?rgel" Anode: "Cu" Wavelength: "1.5406" Scantype: "2Theta (TwoTheta)" TimePerStep: "1" X: "0" Y: "27" Z: "5.95" 
10.00000 0.000
10.02000 -4.386
10.04000 3.775
10.06000 -4.292
10.08000 -1.033
10.10000 19.184
10.12000 0.079
10.14000 4.368
10.16000 -4.269
10.18000 7.050
10.20000 5.062
10.22000 -1.129
10.24000 0.821
10.26000 19.497
10.28000 11.284
10.30000 18.265
10.32000 14.542
10.34000 20.303
10.36000 15.454
10.38000 7.989
10.40000 21.045
10.42000 13.623
10.44000 6.369
10.46000 7.244
10.48000 14.045
10.50000 6.361
10.52000 -2.327
10.54000 9.375
10.56000 12.718
10.58000 14.976
10.60000 5.055
10.62000 -0.438
10.64000 -4.316
10.66000 17.792
10.68000 22.598
10.70000 22.412
10.72000 20.351
10.74000 8.770
10.76000 9.395
10.78000 6.050
10.80000 5.518
10.82000 21.098
10.84000 22.361
10.86000 8.318
10.88000 9.305
10.90000 23.265
10.92000 25.335
10.94000 16.879
10.96000 11.306
10.98000 8.859
11.00000 10.154
11.02000 -1.886
11.04000 5.977
11.06000 16.152
11.08000 13.810
11.10000 8.382
11.12000 -1.168
11.14000 -1.865
11.16000 -2.168
11.18000 -1.216
11.20000 5.704
11.22000 14.051
11.24000 13.647
11.26000 17.170
11.28000 2.960
11.30000 1.882
11.32000 2.922
11.34000 9.048
11.36000 15.439
11.38000 11.034
11.40000 21.981
11.42000 17.661
11.44000 19.594
11.46000 8.894
11.48000 4.200
11.50000 9.522
11.52000 6.736
11.54000 5.696
11.56000 14.905
11.58000 11.964
11.60000 9.598
11.62000 13.617
11.64000 11.984
11.66000 14.323
11.68000 17.155
11.70000 14.182
11.72000 14.414
11.74000 19.623
11.76000 15.635
11.78000 11.281
11.80000 12.541
11.82000 9.775
11.84000 6.228
11.86000 3.829
11.88000 12.421
11.90000 -2.305
11.92000 5.632
11.94000 8.039
11.96000 7.983
11.98000 2.360
12.00000 -0.646
12.02000 -0.731
12.04000 17.422
12.06000 12.981
12.08000 1.446
12.10000 6.318
12.12000 2.392
12.14000 10.496
12.16000 15.051
12.18000 5.073
12.20000 12.909
12.22000 19.712
12.24000 21.546
12.26000 11.732
12.28000 10.503
12.30000 20.585
12.32000 16.051
12.34000 21.693
12.36000 18.121
12.38000 11.181
12.40000 4.725
12.42000 15.692
12.44000 22.134
12.46000 5.008
12.48000 3.477
12.50000 5.525
12.52000 7.413
12.54000 2.432
12.56000 -1.030
12.58000 8.357
12.60000 19.314
12.62000 14.619
12.64000 12.877
12.66000 18.418
12.68000 26.892
12.70000 18.996
12.72000 14.936
12.74000 16.035
12.76000 12.023
12.78000 3.750
12.80000 1.435
12.82000 7.624
12.84000 12.583
12.86000 16.800
12.88000 8.438
12.90000 10.854
12.92000 12.534
12.94000 11.354
12.96000 12.505
12.98000 15.837
13.00000 16.102
13.02000 4.541
13.04000 12.620
13.06000 13.566
13.08000 4.791
13.10000 1.953
13.12000 4.849
13.14000 4.683
13.16000 2.987
13.18000 1.719
13.20000 -1.223
13.22000 5.809
13.24000 6.405
13.26000 13.899
13.28000 14.732
13.30000 13.847
13.32000 12.298
13.34000 9.426
13.36000 10.748
13.38000 10.694
13.40000 9.911
13.42000 14.280
13.44000 -4.490
13.46000 -0.149
13.48000 -2.561
13.50000 1.137
13.52000 5.825
13.54000 9.372
13.56000 14.284
13.58000 18.672
13.60000 11.424
13.62000 11.282
13.64000 8.189
13.66000 6.123
13.68000 5.674
13.70000 5.930
13.72000 8.907
13.74000 12.706
13.76000 13.804
13.78000 14.107
13.80000 9.670
13.82000 5.263
13.84000 12.319
13.86000 9.076
13.88000 10.908
13.90000 1.728
13.92000 2.215
13.94000 4.193
13.96000 5.293
13.98000 5.756
14.00000 -2.029
14.02000 8.020
14.04000 8.983
14.06000 9.519
14.08000 6.655
14.10000 9.789
14.12000 17.074
14.14000 21.191
14.16000 14.657
14.18000 2.851
14.20000 3.937
14.22000 6.148
14.24000 4.388
14.26000 10.358
14.28000 15.662
14.30000 22.989
14.32000 18.796
14.34000 11.402
14.36000 13.534
14.38000 2.358
14.40000 2.040
14.42000 10.942
14.44000 5.854
14.46000 15.613
14.48000 12.242
14.50000 13.192
14.52000 11.106
14.54000 0.116
14.56000 4.892
14.58000 2.486
14.60000 1.355
14.62000 9.200
14.64000 14.000
14.66000 2.562
14.68000 13.135
14.70000 6.211
14.72000 -0.573
14.74000 -1.757
14.76000 10.104
14.78000 9.733
14.80000 15.398
14.82000 13.078
14.84000 5.941
14.86000 11.134
14.88000 5.472
14.90000 2.906
14.92000 4.874
14.94000 7.950
14.96000 12.165
14.98000 6.768
15.00000 -0.984
15.02000 11.102
15.04000 9.937
15.06000 9.987
15.08000 11.271
15.10000 6.720
15.12000 3.080
15.14000 1.874
15.16000 -0.361
15.18000 -0.419
15.20000 11.340
15.22000 13.561
15.24000 7.326
15.26000 11.036
15.28000 18.897
15.30000 7.328
15.32000 10.488
15.34000 9.365
15.36000 4.505
15.38000 16.243
15.40000 14.612
15.42000 7.465
15.44000 8.637
15.46000 5.202
15.48000 10.369
15.50000 8.986
15.52000 8.305
15.54000 7.201
15.56000 10.240
15.58000 2.157
15.60000 5.649
15.62000 9.239
15.64000 4.614
15.66000 2.114
15.68000 0.830
15.70000 0.692
15.72000 8.816
15.74000 9.076
15.76000 13.352
15.78000 17.727
15.80000 9.002
15.82000 10.932
15.84000 10.522
15.86000 7.784
15.88000 9.294
15.90000 9.103
15.92000 8.787
15.94000 10.620
15.96000 9.277
15.98000 19.829
16.00000 17.178
16.02000 15.726
16.04000 6.341
16.06000 5.739
16.08000 6.902
16.10000 4.706
16.12000 2.710
16.14000 2.047
16.16000 -3.856
16.18000 -4.416
16.20000 7.198
16.22000 9.024
16.24000 6.442
16.26000 12.359
16.28000 9.062
16.30000 11.561
16.32000 9.616
16.34000 6.483
16.36000 7.494
16.38000 8.703
16.40000 5.845
16.42000 6.642
16.44000 8.508
16.46000 6.813
16.48000 0.100
16.50000 11.738
16.52000 14.072
16.54000 13.331
16.56000 15.049
16.58000 5.517
16.60000 7.956
16.62000 11.966
16.64000 16.298
16.66000 14.794
16.68000 14.822
16.70000 6.542
16.72000 2.141
16.74000 7.587
16.76000 13.236
16.78000 14.343
16.80000 8.717
16.82000 9.090
16.84000 6.698
16.86000 8.119
16.88000 6.639
16.90000 5.286
16.92000 2.226
16.94000 4.760
16.96000 17.435
16.98000 18.302
17.00000 17.505
17.02000 9.614
17.04000 8.716
17.06000 7.009
17.08000 1.951
17.10000 0.495
17.12000 3.294
17.14000 2.277
17.16000 12.150
17.18000 6.813
17.20000 -3.896
17.22000 -0.653
17.24000 10.223
17.26000 2.504
17.28000 -3.109
17.30000 3.918
17.32000 9.334
17.34000 1.763
17.36000 9.151
17.38000 8.735
17.40000 2.242
17.42000 -0.717
17.44000 3.730
17.46000 6.917
17.48000 16.449
17.50000 8.871
17.52000 5.625
17.54000 15.394
17.56000 11.833
17.58000 7.788
17.60000 12.756
17.62000 10.259
17.64000 9.995
17.66000 2.319
17.68000 4.704
17.70000 12.828
17.72000 8.034
17.74000 -2.125
17.76000 0.000
17.78000 1.062
17.80000 4.813
17.82000 11.276
17.84000 11.322
17.86000 -1.274
17.88000 -4.380
17.90000 2.606
17.92000 -0.434
17.94000 -2.944
17.96000 0.213
17.98000 9.801
18.00000 3.904
18.02000 -3.331
18.04000 -1.163
18.06000 5.214
18.08000 4.235
18.10000 -2.684
18.12000 -0.546
18.14000 8.509
18.16000 13.305
18.18000 10.383
18.20000 -1.125
18.22000 -0.917
18.24000 0.461
18.26000 4.188
18.28000 0.010
18.30000 1.940
18.32000 0.807
18.34000 2.561
18.36000 -4.145
18.38000 -4.350
18.40000 -0.506
18.42000 6.306
18.44000 8.417
18.46000 5.015
18.48000 5.748
18.50000 3.688
18.52000 5.903
18.54000 10.330
18.56000 7.355
18.58000 4.232
18.60000 1.719
18.62000 9.299
18.64000 13.423
18.66000 10.265
18.68000 7.747
18.70000 4.873
18.72000 9.903
18.74000 3.802
18.76000 -4.325
18.78000 1.901
18.80000 4.405
18.82000 3.155
18.84000 5.683
18.86000 10.065
18.88000 4.301
18.90000 -2.223
18.92000 -3.883
18.94000 3.362
18.96000 11.702
18.98000 12.860
19.00000 2.981
19.02000 3.143
19.04000 7.185
19.06000 8.255
19.08000 8.564
19.10000 1.798
19.12000 0.671
19.14000 1.618
19.16000 5.437
19.18000 7.272
19.20000 4.808
19.22000 8.237
19.24000 2.214
19.26000 3.555
19.28000 0.301
19.30000 -0.980
19.32000 3.215
19.34000 1.484
19.36000 -3.271
19.38000 0.046
19.40000 4.818
19.42000 6.446
19.44000 1.464
19.46000 4.177
19.48000 6.738
19.50000 1.657
19.52000 -3.987
19.54000 1.193
19.56000 8.264
19.58000 9.022
19.60000 4.079
19.62000 1.527
19.64000 0.956
19.66000 -1.539
19.68000 2.523
19.70000 6.147
19.72000 -1.591
19.74000 0.573
19.76000 0.996
19.78000 0.605
19.80000 2.964
19.82000 1.562
19.84000 5.056
19.86000 2.557
19.88000 -1.333
19.90000 4.897
19.92000 2.646
19.94000 2.122
19.96000 3.208
19.98000 10.338
20.00000 9.592
20.02000 1.967
20.04000 3.673
20.06000 8.888
20.08000 5.668
20.10000 7.286
20.12000 3.993
20.14000 2.486
20.16000 2.940
20.18000 4.604
20.20000 -4.256
20.22000 -0.537
20.24000 3.581
20.26000 1.550
20.28000 -2.456
20.30000 0.357
20.32000 1.584
20.34000 6.306
20.36000 3.680
20.38000 3.950
20.40000 7.432
20.42000 5.781
20.44000 5.030
20.46000 -1.118
20.48000 -0.124
20.50000 3.851
20.52000 5.101
20.54000 0.248
20.56000 2.105
20.58000 5.781
20.60000 8.989
20.62000 6.780
20.64000 6.751
20.66000 8.596
20.68000 11.223
20.70000 2.650
20.72000 -2.215
20.74000 -1.634
20.76000 -1.715
20.78000 3.793
20.80000 5.411
20.82000 2.861
20.84000 2.258
20.86000 4.892
20.88000 6.829
20.90000 4.393
20.92000 6.668
20.94000 5.093
20.96000 -2.241
20.98000 3.472
21.00000 0.889
21.02000 -1.624
21.04000 2.855
21.06000 5.598
21.08000 5.525
21.10000 6.240
21.12000 -0.929
21.14000 -0.619
21.16000 5.061
21.18000 7.756
21.20000 1.184
21.22000 5.601
21.24000 3.171
21.26000 1.884
21.28000 -3.529
21.30000 0.890
21.32000 5.566
21.34000 7.606
21.36000 1.820
21.38000 -0.091
21.40000 4.500
21.42000 10.453
21.44000 8.117
21.46000 -4.151
21.48000 0.256
21.50000 0.702
21.52000 7.500
21.54000 4.177
21.56000 1.620
21.58000 -0.349
21.60000 6.058
21.62000 1.826
21.64000 -3.626
21.66000 2.572
21.68000 4.934
21.70000 6.822
21.72000 1.894
21.74000 4.038
21.76000 3.906
21.78000 9.905
21.80000 5.013
21.82000 0.798
21.84000 4.384
21.86000 4.173
21.88000 1.701
21.90000 -1.138
21.92000 8.515
21.94000 6.497
21.96000 7.453
21.98000 3.784
22.00000 2.831
22.02000 3.166
22.04000 4.860
22.06000 2.106
22.08000 6.379
22.10000 15.272
22.12000 4.863
22.14000 5.952
22.16000 2.799
22.18000 0.308
22.20000 7.461
22.22000 6.725
22.24000 1.269
22.26000 -0.188
22.28000 4.085
22.30000 5.713
22.32000 4.219
22.34000 2.457
22.36000 1.751
22.38000 -0.896
22.40000 -4.117
22.42000 -3.036
22.44000 5.992
22.46000 13.807
22.48000 13.343
22.50000 7.146
22.52000 2.776
22.54000 5.926
22.56000 6.751
22.58000 8.666
22.60000 10.706
22.62000 13.461
22.64000 2.269
22.66000 2.190
22.68000 4.535
22.70000 10.303
22.72000 2.639
22.74000 -0.645
22.76000 0.454
22.78000 2.280
22.80000 2.353
22.82000 -0.390
22.84000 -1.317
22.86000 2.246
22.88000 1.334
22.90000 -2.055
22.92000 -0.683
22.94000 -0.487
22.96000 5.038
22.98000 3.907
23.00000 2.647
23.02000 0.281
23.04000 2.461
23.06000 1.177
23.08000 3.985
23.10000 2.677
23.12000 3.739
23.14000 1.303
23.16000 2.808
23.18000 4.678
23.20000 3.760
23.22000 -0.286
23.24000 2.843
23.26000 5.807
23.28000 13.932
23.30000 14.334
23.32000 4.473
23.34000 3.830
23.36000 8.703
23.38000 8.292
23.40000 6.586
23.42000 1.901
23.44000 0.885
23.46000 3.513
23.48000 6.299
23.50000 6.752
23.52000 11.499
23.54000 11.529
23.56000 3.174
23.58000 8.640
23.60000 2.864
23.62000 -0.758
23.64000 6.648
23.66000 4.546
23.68000 1.274
23.70000 -4.014
23.72000 2.408
23.74000 8.181
23.76000 8.901
23.78000 4.178
23.80000 2.259
23.82000 1.796
23.84000 4.446
23.86000 7.279
23.88000 3.593
23.90000 6.054
23.92000 10.559
23.94000 9.213
23.96000 2.717
23.98000 -0.689
24.00000 -2.234
24.02000 -1.443
24.04000 1.021
24.06000 3.352
24.08000 6.641
24.10000 2.363
24.12000 7.764
24.14000 6.247
24.16000 2.407
24.18000 2.383
24.20000 2.320
24.22000 3.415
24.24000 2.558
24.26000 2.368
24.28000 3.606
24.30000 0.550
24.32000 0.890
24.34000 3.111
24.36000 6.860
24.38000 9.450
24.40000 7.816
24.42000 9.960
24.44000 -1.603
24.46000 -0.428
24.48000 5.685
24.50000 6.592
24.52000 9.848
24.54000 12.312
24.56000 4.520
24.58000 1.784
24.60000 8.063
24.62000 8.320
24.64000 7.760
24.66000 8.634
24.68000 9.848
24.70000 5.261
24.72000 1.990
24.74000 -0.280
24.76000 1.693
24.78000 4.395
24.80000 7.906
24.82000 3.698
24.84000 0.519
24.86000 1.230
24.88000 -1.970
24.90000 6.380
24.92000 7.241
24.94000 7.122
24.96000 3.301
24.98000 5.491
25.00000 3.595
25.02000 0.118
25.04000 1.924
25.06000 6.146
25.08000 6.143
25.10000 3.110
25.12000 -0.617
25.14000 4.995
25.16000 3.922
25.18000 -1.218
25.20000 -2.635
25.22000 4.137
25.24000 4.530
25.26000 2.818
25.28000 2.303
25.30000 1.449
25.32000 5.667
25.34000 6.361
25.36000 3.575
25.38000 1.304
25.40000 3.018
25.42000 0.259
25.44000 5.164
25.46000 6.787
25.48000 4.116
25.50000 -0.181
25.52000 1.112
25.54000 -1.243
25.56000 -3.948
25.58000 -1.740
25.60000 4.017
25.62000 1.153
25.64000 -1.168
25.66000 -0.928
25.68000 0.412
25.70000 9.862
25.72000 9.386
25.74000 6.277
25.76000 6.599
25.78000 2.662
25.80000 -0.035
25.82000 3.434
25.84000 5.263
25.86000 5.940
25.88000 4.572
25.90000 -0.802
25.92000 -3.507
25.94000 -3.921
25.96000 -2.711
25.98000 2.903
26.00000 3.419
26.02000 0.030
26.04000 -0.849
26.06000 1.730
26.08000 8.204
26.10000 8.897
26.12000 7.654
26.14000 3.036
26.16000 3.488
26.18000 3.976
26.20000 2.567
26.22000 3.343
26.24000 5.382
26.26000 0.879
26.28000 -0.606
26.30000 3.211
26.32000 4.001
26.34000 5.146
26.36000 5.564
26.38000 5.893
26.40000 1.726
26.42000 2.473
26.44000 6.215
26.46000 11.719
26.48000 4.585
26.50000 -3.872
26.52000 0.179
26.54000 -1.401
26.56000 3.837
26.58000 4.264
26.60000 1.681
26.62000 2.287
26.64000 8.944
26.66000 4.879
26.68000 2.919
26.70000 6.776
26.72000 2.566
26.74000 -1.532
26.76000 2.324
26.78000 4.312
26.80000 5.948
26.82000 0.433
26.84000 0.576
26.86000 4.889
26.88000 3.155
26.90000 0.154
26.92000 0.947
26.94000 6.435
26.96000 8.838
26.98000 1.788
27.00000 1.499
27.02000 2.430
27.04000 2.773
27.06000 5.706
27.08000 2.359
27.10000 -0.247
27.12000 2.436
27.14000 7.148
27.16000 4.268
27.18000 2.282
27.20000 4.208
27.22000 8.268
27.24000 5.704
27.26000 1.403
27.28000 0.353
27.30000 3.866
27.32000 9.191
27.34000 8.378
27.36000 9.895
27.38000 6.904
27.40000 3.080
27.42000 1.716
27.44000 -0.155
27.46000 1.755
27.48000 1.503
27.50000 1.682
27.52000 7.900
27.54000 7.555
27.56000 3.797
27.58000 0.116
27.60000 4.767
27.62000 -0.649
27.64000 -1.470
27.66000 -2.041
27.68000 -1.898
27.70000 3.964
27.72000 4.845
27.74000 4.930
27.76000 5.034
27.78000 -0.682
27.80000 -3.825
27.82000 -0.317
27.84000 2.951
27.86000 5.025
27.88000 8.159
27.90000 5.262
27.92000 2.337
27.94000 2.097
27.96000 1.298
27.98000 2.614
28.00000 3.148
28.02000 2.283
28.04000 -1.933
28.06000 -0.359
28.08000 1.650
28.10000 2.163
28.12000 2.341
28.14000 0.939
28.16000 4.247
28.18000 11.984
28.20000 13.049
28.22000 2.652
28.24000 4.395
28.26000 2.667
28.28000 1.617
28.30000 2.424
28.32000 -1.816
28.34000 -3.785
28.36000 -3.366
28.38000 0.077
28.40000 0.258
28.42000 6.607
28.44000 6.496
28.46000 5.997
28.48000 4.798
28.50000 5.245
28.52000 5.892
28.54000 6.104
28.56000 5.010
28.58000 0.982
28.60000 -3.690
28.62000 -2.202
28.64000 1.720
28.66000 3.078
28.68000 8.705
28.70000 6.657
28.72000 2.275
28.74000 -1.556
28.76000 -0.152
28.78000 7.458
28.80000 11.326
28.82000 7.743
28.84000 0.926
28.86000 1.608
28.88000 1.463
28.90000 0.877
28.92000 3.754
28.94000 7.363
28.96000 0.989
28.98000 0.594
29.00000 0.786
29.02000 1.973
29.04000 3.192
29.06000 4.187
29.08000 1.546
29.10000 -2.533
29.12000 2.182
29.14000 0.499
29.16000 0.379
29.18000 7.636
29.20000 1.311
29.22000 0.750
29.24000 1.566
29.26000 2.869
29.28000 0.147
29.30000 -0.913
29.32000 1.460
29.34000 1.401
29.36000 -2.826
29.38000 1.881
29.40000 1.717
29.42000 1.943
29.44000 2.416
29.46000 6.273
29.48000 1.897
29.50000 0.736
29.52000 2.569
29.54000 4.602
29.56000 6.024
29.58000 5.268
29.60000 1.840
29.62000 0.596
29.64000 8.430
29.66000 10.477
29.68000 8.107
29.70000 6.079
29.72000 1.705
29.74000 1.549
29.76000 2.327
29.78000 1.147
29.80000 -3.708
29.82000 3.264
29.84000 8.989
29.86000 4.133
29.88000 1.469
29.90000 1.220
29.92000 3.574
29.94000 1.685
29.96000 3.404
29.98000 4.253
30.00000 -0.483
30.02000 1.744
30.04000 0.728
30.06000 -2.624
30.08000 -0.558
30.10000 4.177
30.12000 3.351
30.14000 2.446
30.16000 6.237
30.18000 3.319
30.20000 2.275
30.22000 0.642
30.24000 1.875
30.26000 2.996
30.28000 3.961
30.30000 2.146
30.32000 -1.067
30.34000 3.939
30.36000 8.513
30.38000 2.442
30.40000 0.594
30.42000 1.343
30.44000 2.786
30.46000 -0.600
30.48000 0.725
30.50000 1.585
30.52000 5.958
30.54000 5.560
30.56000 -3.682
30.58000 -0.938
30.60000 2.345
30.62000 4.448
30.64000 2.259
30.66000 7.473
30.68000 -1.485
30.70000 -2.042
30.72000 -1.590
30.74000 2.258
30.76000 -2.475
30.78000 -3.674
30.80000 -0.384
30.82000 2.699
30.84000 4.314
30.86000 4.934
30.88000 2.966
30.90000 2.518
30.92000 4.689
30.94000 3.669
30.96000 2.269
30.98000 5.239
31.00000 0.831
31.02000 -0.187
31.04000 -3.594
31.06000 -0.031
31.08000 4.528
31.10000 2.861
31.12000 -2.166
31.14000 -1.163
31.16000 2.388
31.18000 6.272
31.20000 6.028
31.22000 4.056
31.24000 3.676
31.26000 -1.398
31.28000 0.431
31.30000 2.584
31.32000 -0.758
31.34000 -3.659
31.36000 -3.482
31.38000 1.355
31.40000 6.683
31.42000 4.183
31.44000 3.697
31.46000 -0.580
31.48000 1.318
31.50000 0.391
31.52000 -1.828
31.54000 -1.119
31.56000 1.843
31.58000 0.532
31.60000 0.225
31.62000 -3.638
31.64000 -2.421
31.66000 -0.375
31.68000 -0.114
31.70000 0.166
31.72000 2.249
31.74000 0.975
31.76000 0.323
31.78000 -3.642
31.80000 -2.684
31.82000 -1.385
31.84000 2.641
31.86000 4.087
31.88000 2.871
31.90000 1.049
31.92000 1.312
31.94000 7.473
31.96000 3.123
31.98000 -0.247
32.00000 -0.081
32.02000 -0.071
32.04000 -1.904
32.06000 -0.954
32.08000 -0.181
32.10000 -0.101
32.12000 -0.377
32.14000 2.126
32.16000 2.534
32.18000 4.548
32.20000 3.597
32.22000 9.728
32.24000 6.250
32.26000 3.526
32.28000 4.310
32.30000 -0.248
32.32000 0.508
32.34000 0.750
32.36000 1.481
32.38000 0.600
32.40000 0.018
32.42000 -3.338
32.44000 -3.605
32.46000 -0.203
32.48000 0.129
32.50000 -0.579
32.52000 -2.482
32.54000 -3.092
32.56000 -3.599
32.58000 2.540
32.60000 3.942
32.62000 2.595
32.64000 -0.403
32.66000 -1.521
32.68000 2.248
32.70000 3.500
32.72000 0.688
32.74000 7.961
32.76000 10.042
32.78000 8.027
32.80000 7.852
32.82000 7.121
32.84000 3.855
32.86000 0.871
32.88000 1.684
32.90000 -0.018
32.92000 3.278
32.94000 -1.743
32.96000 1.645
32.98000 4.520
33.00000 -0.221
33.02000 1.141
33.04000 5.089
33.06000 6.012
33.08000 1.578
33.10000 2.407
33.12000 4.956
33.14000 3.781
33.16000 2.937
33.18000 2.728
33.20000 3.369
33.22000 -1.697
33.24000 3.461
33.26000 4.192
33.28000 3.532
33.30000 1.715
33.32000 5.586
33.34000 6.704
33.36000 3.349
33.38000 2.352
33.40000 2.297
33.42000 0.799
33.44000 3.807
33.46000 4.578
33.48000 7.392
33.50000 5.527
33.52000 1.147
33.54000 3.524
33.56000 6.599
33.58000 6.749
33.60000 5.791
33.62000 6.046
33.64000 2.879
33.66000 4.116
33.68000 7.457
33.70000 8.758
33.72000 7.825
33.74000 1.361
33.76000 1.840
33.78000 5.167
33.80000 8.774
33.82000 6.971
33.84000 7.504
33.86000 4.946
33.88000 5.660
33.90000 3.671
33.92000 3.983
33.94000 2.933
33.96000 4.801
33.98000 3.579
34.00000 7.079
34.02000 10.695
34.04000 10.432
34.06000 9.274
34.08000 7.537
34.10000 -0.589
34.12000 -2.073
34.14000 -3.546
34.16000 0.811
34.18000 4.025
34.20000 11.695
34.22000 8.917
34.24000 2.956
34.26000 7.223
34.28000 4.074
34.30000 0.502
34.32000 2.000
34.34000 -1.221
34.36000 4.679
34.38000 5.030
34.40000 0.829
34.42000 4.831
34.44000 9.839
34.46000 8.424
34.48000 10.107
34.50000 8.180
34.52000 8.893
34.54000 6.496
34.56000 2.627
34.58000 -1.332
34.60000 0.704
34.62000 -0.395
34.64000 -0.995
34.66000 1.067
34.68000 0.933
34.70000 3.184
34.72000 2.126
34.74000 -1.141
34.76000 1.757
34.78000 4.225
34.80000 8.234
34.82000 8.062
34.84000 2.561
34.86000 4.201
34.88000 3.617
34.90000 2.835
34.92000 1.267
34.94000 1.249
34.96000 -1.804
34.98000 2.746
35.00000 -0.279
35.02000 0.925
35.04000 -0.389
35.06000 1.254
35.08000 3.845
35.10000 5.176
35.12000 6.233
35.14000 4.027
35.16000 5.503
35.18000 4.489
35.20000 4.459
35.22000 3.800
35.24000 5.450
35.26000 4.183
35.28000 6.876
35.30000 9.379
35.32000 6.928
35.34000 3.282
35.36000 6.658
35.38000 11.550
35.40000 13.202
35.42000 10.597
35.44000 6.798
35.46000 4.870
35.48000 3.223
35.50000 5.673
35.52000 5.415
35.54000 3.604
35.56000 -3.501
35.58000 3.100
35.60000 8.108
35.62000 1.528
35.64000 -3.143
35.66000 -1.743
35.68000 4.724
35.70000 2.197
35.72000 5.278
35.74000 8.943
35.76000 8.001
35.78000 4.645
35.80000 5.503
35.82000 2.572
35.84000 3.728
35.86000 6.227
35.88000 6.505
35.90000 6.431
35.92000 3.915
35.94000 0.860
35.96000 2.138
35.98000 2.003
36.00000 5.187
36.02000 1.383
36.04000 0.586
36.06000 2.166
36.08000 5.236
36.10000 3.021
36.12000 -1.225
36.14000 3.065
36.16000 0.699
36.18000 -0.871
36.20000 0.268
36.22000 -1.549
36.24000 2.330
36.26000 4.001
36.28000 3.184
36.30000 1.328
36.32000 -0.765
36.34000 1.424
36.36000 -0.144
36.38000 0.439
36.40000 2.009
36.42000 -0.788
36.44000 1.981
36.46000 2.981
36.48000 1.663
36.50000 0.233
36.52000 1.947
36.54000 0.359
36.56000 3.477
36.58000 6.926
36.60000 6.385
36.62000 6.605
36.64000 9.397
36.66000 7.757
36.68000 -1.531
36.70000 -0.538
36.72000 -0.645
36.74000 0.578
36.76000 2.246
36.78000 3.280
36.80000 -0.409
36.82000 0.227
36.84000 -1.723
36.86000 -3.601
36.88000 0.322
36.90000 -0.127
36.92000 -1.959
36.94000 1.435
36.96000 0.330
36.98000 -1.231
37.00000 0.014
37.02000 0.686
37.04000 -2.265
37.06000 -2.973
37.08000 1.544
37.10000 1.958
37.12000 0.837
37.14000 3.798
37.16000 5.423
37.18000 3.872
37.20000 -1.378
37.22000 -3.211
37.24000 0.013
37.26000 1.958
37.28000 2.747
37.30000 1.244
37.32000 0.912
37.34000 2.567
37.36000 0.091
37.38000 -0.935
37.40000 -1.842
37.42000 -2.517
37.44000 1.303
37.46000 0.825
37.48000 4.529
37.50000 -0.851
37.52000 2.374
37.54000 3.625
37.56000 6.162
37.58000 6.392
37.60000 4.527
37.62000 -0.206
37.64000 1.357
37.66000 6.106
37.68000 6.415
37.70000 5.614
37.72000 4.737
37.74000 2.910
37.76000 2.255
37.78000 9.657
37.80000 8.541
37.82000 6.343
37.84000 12.025
37.86000 11.903
37.88000 7.799
37.90000 7.159
37.92000 5.436
37.94000 6.065
37.96000 6.862
37.98000 9.265
38.00000 8.214
38.02000 8.448
38.04000 12.751
38.06000 10.332
38.08000 10.692
38.10000 11.930
38.12000 16.143
38.14000 18.063
38.16000 16.017
38.18000 14.938
38.20000 19.779
38.22000 23.876
38.24000 18.899
38.26000 18.441
38.28000 23.303
38.30000 24.121
38.32000 22.272
38.34000 21.097
38.36000 17.044
38.38000 26.196
38.40000 29.554
38.42000 30.226
38.44000 23.813
38.46000 25.276
38.48000 31.924
38.50000 29.760
38.52000 32.335
38.54000 40.075
38.56000 36.504
38.58000 34.877
38.60000 37.266
38.62000 37.416
38.64000 38.390
38.66000 42.482
38.68000 40.944
38.70000 47.299
38.72000 45.987
38.74000 44.622
38.76000 48.283
38.78000 53.524
38.80000 53.376
38.82000 53.999
38.84000 55.171
38.86000 61.446
38.88000 66.573
38.90000 66.350
38.92000 67.569
38.94000 68.662
38.96000 69.693
38.98000 77.252
39.00000 81.243
39.02000 82.467
39.04000 88.282
39.06000 97.391
39.08000 98.264
39.10000 99.464
39.12000 97.476
39.14000 108.582
39.16000 114.682
39.18000 112.065
39.20000 115.241
39.22000 129.776
39.24000 136.796
39.26000 134.866
39.28000 143.975
39.30000 145.771
39.32000 160.034
39.34000 172.380
39.36000 174.778
39.38000 179.685
39.40000 188.540
39.42000 194.446
39.44000 202.398
39.46000 221.427
39.48000 231.489
39.50000 240.467
39.52000 250.476
39.54000 264.460
39.56000 283.117
39.58000 298.829
39.60000 308.458
39.62000 319.957
39.64000 338.966
39.66000 352.707
39.68000 380.617
39.70000 393.269
39.72000 411.325
39.74000 434.802
39.76000 451.749
39.78000 467.289
39.80000 479.785
39.82000 496.564
39.84000 518.259
39.86000 543.433
39.88000 565.988
39.90000 586.996
39.92000 597.557
39.94000 614.536
39.96000 621.047
39.98000 633.196
40.00000 638.535
40.02000 650.590
40.04000 652.641
40.06000 654.137
40.08000 655.797
40.10000 668.297
40.12000 675.418
40.14000 669.347
40.16000 655.559
40.18000 647.245
40.20000 636.992
40.22000 620.872
40.24000 621.696
40.26000 607.851
40.28000 590.789
40.30000 574.540
40.32000 557.089
40.34000 537.766
40.36000 520.503
40.38000 510.832
40.40000 491.246
40.42000 469.031
40.44000 449.739
40.46000 434.808
40.48000 414.986
40.50000 386.409
40.52000 370.483
40.54000 356.075
40.56000 339.764
40.58000 324.536
40.60000 309.545
40.62000 294.125
40.64000 274.048
40.66000 261.805
40.68000 245.470
40.70000 232.425
40.72000 218.155
40.74000 209.848
40.76000 202.976
40.78000 191.413
40.80000 177.953
40.82000 174.425
40.84000 166.453
40.86000 155.401
40.88000 136.875
40.90000 131.834
40.92000 126.502
40.94000 119.907
40.96000 117.116
40.98000 110.554
41.00000 110.455
41.02000 102.474
41.04000 90.376
41.06000 84.432
41.08000 78.746
41.10000 75.370
41.12000 73.859
41.14000 72.510
41.16000 72.140
41.18000 67.695
41.20000 61.110
41.22000 51.509
41.24000 49.548
41.26000 51.519
41.28000 45.966
41.30000 46.874
41.32000 47.342
41.34000 42.631
41.36000 42.593
41.38000 37.624
41.40000 37.167
41.42000 37.136
41.44000 29.408
41.46000 27.331
41.48000 29.819
41.50000 30.575
41.52000 29.857
41.54000 23.203
41.56000 19.305
41.58000 19.280
41.60000 23.173
41.62000 23.711
41.64000 23.176
41.66000 20.993
41.68000 17.411
41.70000 12.845
41.72000 14.956
41.74000 15.841
41.76000 11.568
41.78000 13.745
41.80000 14.193
41.82000 13.518
41.84000 14.208
41.86000 9.861
41.88000 8.873
41.90000 13.418
41.92000 11.212
41.94000 7.368
41.96000 11.551
41.98000 8.173
42.00000 5.079
42.02000 3.460
42.04000 4.475
42.06000 9.018
42.08000 9.263
42.10000 8.104
42.12000 10.844
42.14000 14.469
42.16000 12.943
42.18000 9.466
42.20000 13.246
42.22000 7.222
42.24000 3.341
42.26000 6.359
42.28000 3.095
42.30000 3.392
42.32000 4.549
42.34000 4.825
42.36000 3.065
42.38000 2.786
42.40000 6.133
42.42000 8.534
42.44000 6.796
42.46000 7.878
42.48000 7.917
42.50000 6.206
42.52000 3.964
42.54000 4.033
42.56000 2.575
42.58000 2.070
42.60000 1.092
42.62000 -0.853
42.64000 -3.457
42.66000 0.785
42.68000 3.142
42.70000 6.458
42.72000 5.601
42.74000 4.794
42.76000 4.779
42.78000 3.249
42.80000 -2.310
42.82000 -0.104
42.84000 3.109
42.86000 2.466
42.88000 1.097
42.90000 4.752
42.92000 4.362
42.94000 2.249
42.96000 1.994
42.98000 2.319
43.00000 4.142
43.02000 2.022
43.04000 3.949
43.06000 2.580
43.08000 -0.009
43.10000 5.282
43.12000 3.203
43.14000 -0.302
43.16000 -2.736
43.18000 -1.887
43.20000 -3.069
43.22000 0.081
43.24000 1.557
43.26000 -2.065
43.28000 -0.898
43.30000 2.882
43.32000 4.883
43.34000 3.477
43.36000 -1.525
43.38000 -3.405
43.40000 -1.740
43.42000 -0.162
43.44000 2.073
43.46000 0.134
43.48000 1.453
43.50000 -1.187
43.52000 2.839
43.54000 3.125
43.56000 2.753
43.58000 1.925
43.60000 -0.618
43.62000 0.025
43.64000 0.924
43.66000 -0.238
43.68000 -1.273
43.70000 -2.625
43.72000 2.490
43.74000 2.080
43.76000 0.355
43.78000 4.488
43.80000 2.710
43.82000 -0.115
43.84000 1.282
43.86000 0.354
43.88000 1.358
43.90000 2.707
43.92000 1.582
43.94000 -0.674
43.96000 1.267
43.98000 1.480
44.00000 0.453
44.02000 -2.523
44.04000 1.597
44.06000 0.438
44.08000 -2.337
44.10000 -1.973
44.12000 -3.349
44.14000 0.723
44.16000 3.519
44.18000 4.098
44.20000 -0.029
44.22000 0.945
44.24000 1.812
44.26000 4.442
44.28000 1.903
44.30000 0.925
44.32000 -2.010
44.34000 -1.787
44.36000 -0.371
44.38000 -3.352
44.40000 -0.611
44.42000 0.439
44.44000 5.489
44.46000 5.594
44.48000 0.025
44.50000 1.317
44.52000 4.129
44.54000 2.266
44.56000 0.371
44.58000 0.242
44.60000 0.062
44.62000 3.257
44.64000 7.469
44.66000 0.837
44.68000 5.001
44.70000 4.170
44.72000 1.615
44.74000 -0.196
44.76000 3.274
44.78000 1.907
44.80000 3.079
44.82000 5.179
44.84000 8.216
44.86000 6.608
44.88000 7.255
44.90000 9.029
44.92000 7.523
44.94000 6.451
44.96000 7.622
44.98000 6.036
45.00000 4.785
45.02000 3.657
45.04000 1.537
45.06000 5.379
45.08000 8.610
45.10000 13.977
45.12000 11.584
45.14000 12.262
45.16000 14.092
45.18000 12.199
45.20000 5.771
45.22000 7.243
45.24000 13.106
45.26000 13.891
45.28000 13.684
45.30000 8.441
45.32000 9.949
45.34000 16.754
45.36000 17.171
45.38000 16.999
45.40000 20.697
45.42000 18.491
45.44000 12.684
45.46000 13.510
45.48000 18.703
45.50000 21.194
45.52000 24.905
45.54000 24.579
45.56000 28.533
45.58000 26.180
45.60000 25.224
45.62000 29.231
45.64000 31.326
45.66000 30.151
45.68000 33.727
45.70000 29.585
45.72000 35.390
45.74000 34.857
45.76000 36.763
45.78000 36.135
45.80000 41.695
45.82000 47.104
45.84000 44.735
45.86000 42.710
45.88000 38.829
45.90000 42.555
45.92000 49.560
45.94000 50.683
45.96000 50.397
45.98000 50.220
46.00000 53.836
46.02000 58.088
46.04000 58.944
46.06000 54.996
46.08000 56.508
46.10000 59.778
46.12000 63.377
46.14000 63.897
46.16000 65.745
46.18000 69.365
46.20000 72.705
46.22000 71.571
46.24000 70.541
46.26000 73.955
46.28000 80.740
46.30000 84.517
46.32000 86.180
46.34000 89.452
46.36000 95.892
46.38000 90.746
46.40000 90.559
46.42000 94.212
46.44000 95.411
46.46000 98.830
46.48000 107.187
46.50000 107.963
46.52000 103.791
46.54000 107.977
46.56000 107.364
46.58000 107.528
46.60000 118.053
46.62000 119.683
46.64000 119.027
46.66000 115.807
46.68000 116.604
46.70000 112.077
46.72000 112.548
46.74000 116.619
46.76000 115.781
46.78000 119.298
46.80000 123.918
46.82000 117.213
46.84000 114.005
46.86000 119.724
46.88000 115.316
46.90000 112.171
46.92000 115.665
46.94000 116.750
46.96000 111.956
46.98000 111.184
47.00000 110.238
47.02000 114.180
47.04000 106.547
47.06000 103.851
47.08000 100.961
47.10000 99.783
47.12000 91.533
47.14000 90.846
47.16000 86.788
47.18000 85.185
47.20000 87.122
47.22000 88.863
47.24000 81.948
47.26000 77.466
47.28000 72.968
47.30000 69.720
47.32000 67.133
47.34000 66.359
47.36000 65.408
47.38000 63.235
47.40000 59.988
47.42000 54.074
47.44000 55.502
47.46000 58.612
47.48000 50.422
47.50000 48.313
47.52000 42.505
47.54000 42.034
47.56000 38.671
47.58000 42.694
47.60000 37.154
47.62000 36.930
47.64000 35.067
47.66000 30.884
47.68000 29.509
47.70000 30.282
47.72000 30.992
47.74000 27.070
47.76000 23.328
47.78000 24.363
47.80000 25.498
47.82000 27.001
47.84000 24.709
47.86000 25.670
47.88000 18.368
47.90000 13.139
47.92000 14.457
47.94000 14.805
47.96000 14.649
47.98000 15.015
48.00000 15.921
48.02000 16.962
48.04000 5.677
48.06000 8.697
48.08000 9.117
48.10000 6.746
48.12000 12.208
48.14000 15.619
48.16000 13.410
48.18000 10.511
48.20000 6.522
48.22000 6.421
48.24000 5.815
48.26000 3.674
48.28000 7.141
48.30000 8.615
48.32000 4.720
48.34000 3.746
48.36000 0.390
48.38000 3.378
48.40000 4.105
48.42000 7.231
48.44000 4.105
48.46000 -1.504
48.48000 0.820
48.50000 5.317
48.52000 8.041
48.54000 3.834
48.56000 1.349
48.58000 -1.469
48.60000 -2.959
48.62000 -1.188
48.64000 4.372
48.66000 2.730
48.68000 10.187
48.70000 4.655
48.72000 3.141
48.74000 1.688
48.76000 4.571
48.78000 5.892
48.80000 6.084
48.82000 5.322
48.84000 5.659
48.86000 4.787
48.88000 4.983
48.90000 9.386
48.92000 5.223
48.94000 1.068
48.96000 -2.888
48.98000 1.133
49.00000 3.600
49.02000 1.675
49.04000 1.700
49.06000 0.543
49.08000 3.329
49.10000 2.600
49.12000 2.965
49.14000 1.991
49.16000 -0.047
49.18000 -1.452
49.20000 1.011
49.22000 2.738
49.24000 3.604
49.26000 4.450
49.28000 8.974
49.30000 0.784
49.32000 3.627
49.34000 3.794
49.36000 4.344
49.38000 4.151
49.40000 -2.834
49.42000 -0.314
49.44000 1.217
49.46000 3.152
49.48000 2.430
49.50000 2.360
49.52000 4.300
49.54000 7.354
49.56000 4.597
49.58000 1.404
49.60000 1.853
49.62000 3.786
49.64000 3.030
49.66000 3.154
49.68000 2.086
49.70000 -0.589
49.72000 -0.327
49.74000 1.715
49.76000 2.155
49.78000 4.851
49.80000 4.600
49.82000 2.722
49.84000 5.533
49.86000 7.501
49.88000 3.361
49.90000 2.539
49.92000 1.317
49.94000 1.249
49.96000 3.458
49.98000 1.771
50.00000 2.085
50.02000 2.119
50.04000 0.625
50.06000 1.200
50.08000 1.251
50.10000 0.647
50.12000 2.411
50.14000 4.096
50.16000 1.320
50.18000 3.807
50.20000 1.619
50.22000 -1.555
50.24000 1.591
50.26000 7.474
50.28000 8.273
50.30000 6.104
50.32000 5.155
50.34000 4.056
50.36000 6.247
50.38000 5.529
50.40000 7.630
50.42000 7.529
50.44000 6.392
50.46000 8.674
50.48000 4.201
50.50000 2.475
50.52000 3.164
50.54000 0.097
50.56000 1.253
50.58000 1.871
50.60000 4.450
50.62000 6.710
50.64000 2.356
50.66000 -2.719
50.68000 1.693
50.70000 5.074
50.72000 3.949
50.74000 4.476
50.76000 1.695
50.78000 1.655
50.80000 3.615
50.82000 2.973
50.84000 3.368
50.86000 3.867
50.88000 4.658
50.90000 4.965
50.92000 3.743
50.94000 -0.262
50.96000 0.053
50.98000 0.064
51.00000 0.118
51.02000 1.603
51.04000 -0.013
51.06000 -1.119
51.08000 1.329
51.10000 2.230
51.12000 0.263
51.14000 5.289
51.16000 2.878
51.18000 1.252
51.20000 -0.331
51.22000 0.953
51.24000 4.153
51.26000 5.401
51.28000 1.953
51.30000 0.290
51.32000 0.146
51.34000 4.112
51.36000 4.164
51.38000 2.060
51.40000 6.607
51.42000 0.821
51.44000 -2.388
51.46000 1.591
51.48000 4.485
51.50000 2.088
51.52000 1.388
51.54000 3.219
51.56000 2.960
51.58000 1.994
51.60000 -1.632
51.62000 -2.718
51.64000 -2.587
51.66000 -1.461
51.68000 4.817
51.70000 1.636
51.72000 -0.702
51.74000 2.338
51.76000 0.006
51.78000 1.603
51.80000 -0.854
51.82000 1.067
51.84000 2.250
51.86000 -1.360
51.88000 -1.180
51.90000 1.964
51.92000 4.999
51.94000 2.153
51.96000 1.417
51.98000 -2.207
52.00000 -0.158
52.02000 -1.471
52.04000 0.335
52.06000 -1.072
52.08000 2.470
52.10000 8.081
52.12000 2.436
52.14000 3.312
52.16000 5.413
52.18000 6.963
52.20000 3.917
52.22000 3.334
52.24000 -0.844
52.26000 -1.257
52.28000 6.104
52.30000 6.904
52.32000 1.356
52.34000 5.159
52.36000 2.398
52.38000 0.922
52.40000 3.968
52.42000 2.102
52.44000 1.180
52.46000 0.743
52.48000 -1.324
52.50000 -0.530
52.52000 1.594
52.54000 -2.690
52.56000 1.789
52.58000 0.738
52.60000 -2.691
52.62000 -2.023
52.64000 2.350
52.66000 3.860
52.68000 -1.595
52.70000 -2.692
52.72000 0.443
52.74000 -0.797
52.76000 -1.433
52.78000 -1.329
52.80000 2.364
52.82000 5.122
52.84000 4.623
52.86000 6.285
52.88000 0.761
52.90000 1.742
52.92000 -1.691
52.94000 1.762
52.96000 2.689
52.98000 2.867
53.00000 1.216
53.02000 -2.039
53.04000 0.931
53.06000 1.715
53.08000 0.920
53.10000 -1.679
53.12000 0.153
53.14000 2.025
53.16000 0.905
53.18000 1.328
53.20000 1.196
53.22000 2.974
53.24000 3.412
53.26000 -1.051
53.28000 -2.504
53.30000 0.322
53.32000 0.197
53.34000 -2.146
53.36000 1.701
53.38000 3.779
53.40000 4.588
53.42000 5.293
53.44000 4.129
53.46000 6.926
53.48000 6.124
53.50000 1.837
53.52000 1.197
53.54000 2.001
53.56000 -1.533
53.58000 2.742
53.60000 1.297
53.62000 1.993
53.64000 1.359
53.66000 4.050
53.68000 4.135
53.70000 4.858
53.72000 0.782
53.74000 -0.055
53.76000 -0.162
53.78000 0.558
53.80000 2.793
53.82000 1.445
53.84000 2.157
53.86000 1.033
53.88000 -0.495
53.90000 2.260
53.92000 2.615
53.94000 2.164
53.96000 1.669
53.98000 1.970
54.00000 0.032
54.02000 4.702
54.04000 3.481
54.06000 0.703
54.08000 -0.877
54.10000 3.625
54.12000 0.182
54.14000 -2.641
54.16000 -2.641
54.18000 3.511
54.20000 5.061
54.22000 5.432
54.24000 4.775
54.26000 -1.439
54.28000 1.632
54.30000 5.240
54.32000 4.894
54.34000 3.602
54.36000 1.200
54.38000 -2.619
54.40000 -0.050
54.42000 -2.225
54.44000 -1.264
54.46000 -2.022
54.48000 -1.175
54.50000 3.679
54.52000 4.050
54.54000 0.217
54.56000 2.060
54.58000 1.886
54.60000 1.437
54.62000 0.151
54.64000 0.579
54.66000 3.313
54.68000 2.307
54.70000 -1.664
54.72000 1.165
54.74000 2.896
54.76000 7.123
54.78000 1.331
54.80000 0.463
54.82000 -0.879
54.84000 0.168
54.86000 0.249
54.88000 3.912
54.90000 7.724
54.92000 2.829
54.94000 -0.769
54.96000 -1.223
54.98000 0.312
55.00000 1.672
55.02000 1.961
55.04000 3.345
55.06000 2.833
55.08000 -1.014
55.10000 -2.178
55.12000 0.149
55.14000 0.042
55.16000 -2.630
55.18000 -0.728
55.20000 1.610
55.22000 -0.270
55.24000 4.139
55.26000 2.148
55.28000 -2.149
55.30000 0.580
55.32000 0.834
55.34000 -0.806
55.36000 -2.503
55.38000 -2.625
55.40000 -1.055
55.42000 -0.882
55.44000 0.915
55.46000 2.227
55.48000 -2.338
55.50000 -0.463
55.52000 2.516
55.54000 1.593
55.56000 6.459
55.58000 -0.012
55.60000 4.706
55.62000 3.006
55.64000 2.406
55.66000 2.565
55.68000 -1.568
55.70000 -1.936
55.72000 -1.949
55.74000 1.515
55.76000 6.225
55.78000 0.289
55.80000 -1.050
55.82000 -0.139
55.84000 1.464
55.86000 0.875
55.88000 4.155
55.90000 5.132
55.92000 4.984
55.94000 4.781
55.96000 4.035
55.98000 3.983
56.00000 1.024
56.02000 -1.499
56.04000 -1.088
56.06000 -0.330
56.08000 -2.112
56.10000 -1.573
56.12000 -2.333
56.14000 -0.319
56.16000 1.739
56.18000 -2.603
56.20000 -2.370
56.22000 2.137
56.24000 3.380
56.26000 -0.847
56.28000 -0.032
56.30000 5.232
56.32000 5.074
56.34000 1.568
56.36000 0.948
56.38000 -1.534
56.40000 -0.655
56.42000 0.263
56.44000 -0.032
56.46000 2.248
56.48000 4.233
56.50000 -2.595
56.52000 -1.296
56.54000 -0.144
56.56000 5.016
56.58000 2.312
56.60000 1.055
56.62000 3.204
56.64000 3.272
56.66000 0.761
56.68000 2.961
56.70000 3.480
56.72000 1.040
56.74000 -0.345
56.76000 1.930
56.78000 5.881
56.80000 2.853
56.82000 0.357
56.84000 0.327
56.86000 -0.981
56.88000 3.351
56.90000 2.699
56.92000 -0.862
56.94000 0.084
56.96000 4.644
56.98000 2.454
57.00000 2.744
57.02000 2.243
57.04000 0.154
57.06000 1.878
57.08000 2.547
57.10000 2.540
57.12000 3.546
57.14000 2.594
57.16000 -2.111
57.18000 -1.325
57.20000 -2.554
57.22000 -0.887
57.24000 1.037
57.26000 0.770
57.28000 2.346
57.30000 3.525
57.32000 2.236
57.34000 0.751
57.36000 2.238
57.38000 2.566
57.40000 4.170
57.42000 5.381
57.44000 5.209
57.46000 -0.519
57.48000 -2.009
57.50000 2.086
57.52000 5.865
57.54000 4.685
57.56000 0.706
57.58000 -2.529
57.60000 0.242
57.62000 -0.186
57.64000 3.421
57.66000 5.943
57.68000 5.638
57.70000 4.422
57.72000 3.196
57.74000 5.173
57.76000 1.981
57.78000 4.526
57.80000 3.584
57.82000 1.988
57.84000 4.001
57.86000 2.892
57.88000 2.110
57.90000 -2.509
57.92000 -1.339
57.94000 0.337
57.96000 2.178
57.98000 5.606
58.00000 0.977
58.02000 -1.109
58.04000 1.507
58.06000 1.099
58.08000 -2.498
58.10000 0.557
58.12000 4.542
58.14000 2.678
58.16000 2.523
58.18000 1.019
58.20000 4.552
58.22000 1.699
58.24000 3.553
58.26000 4.941
58.28000 4.810
58.30000 4.239
58.32000 4.355
58.34000 2.028
58.36000 6.626
58.38000 5.147
58.40000 2.604
58.42000 0.141
58.44000 3.593
58.46000 -0.081
58.48000 -0.160
58.50000 2.037
58.52000 8.840
58.54000 4.099
58.56000 3.135
58.58000 4.853
58.60000 0.574
58.62000 2.849
58.64000 6.723
58.66000 3.637
58.68000 1.117
58.70000 3.524
58.72000 4.384
58.74000 1.570
58.76000 1.275
58.78000 0.964
58.80000 -0.221
58.82000 2.481
58.84000 1.267
58.86000 -0.099
58.88000 0.346
58.90000 -0.167
58.92000 0.337
58.94000 3.725
58.96000 4.653
58.98000 2.522
59.00000 3.265
59.02000 3.434
59.04000 3.566
59.06000 2.650
59.08000 3.455
59.10000 3.948
59.12000 4.444
59.14000 4.987
59.16000 7.084
59.18000 4.268
59.20000 0.591
59.22000 -1.302
59.24000 -2.477
59.26000 3.155
59.28000 2.628
59.30000 2.141
59.32000 2.259
59.34000 3.467
59.36000 -1.736
59.38000 0.395
59.40000 1.162
59.42000 0.433
59.44000 0.319
59.46000 0.791
59.48000 1.390
59.50000 -0.123
59.52000 2.630
59.54000 2.960
59.56000 0.144
59.58000 1.583
59.60000 -1.615
59.62000 -2.266
59.64000 -0.857
59.66000 0.042
59.68000 1.683
59.70000 -1.790
59.72000 0.550
59.74000 2.419
59.76000 0.695
59.78000 0.047
59.80000 4.089
59.82000 1.719
59.84000 1.383
59.86000 2.571
59.88000 -0.276
59.90000 0.990
59.92000 -0.959
59.94000 -1.438
59.96000 2.060
59.98000 2.468
60.00000 0.755
60.02000 1.832
60.04000 -0.320
60.06000 0.169
60.08000 3.107
60.10000 0.868
60.12000 1.900
60.14000 2.656
60.16000 1.744
60.18000 -0.690
60.20000 0.919
60.22000 3.700
60.24000 0.957
60.26000 2.605
60.28000 7.467
60.30000 4.714
60.32000 2.174
60.34000 0.987
60.36000 2.300
60.38000 -0.851
60.40000 3.213
60.42000 5.406
60.44000 3.286
60.46000 1.578
60.48000 -1.927
60.50000 -1.518
60.52000 1.761
60.54000 4.960
60.56000 5.034
60.58000 3.297
60.60000 -0.002
60.62000 1.272
60.64000 3.625
60.66000 6.619
60.68000 1.605
60.70000 -1.167
60.72000 -0.966
60.74000 0.071
60.76000 2.392
60.78000 5.122
60.80000 1.882
60.82000 -2.446
60.84000 2.443
60.86000 0.794
60.88000 0.549
60.90000 -2.361
60.92000 -1.464
60.94000 0.466
60.96000 5.618
60.98000 2.888
61.00000 4.039
61.02000 3.792
61.04000 5.372
61.06000 4.387
61.08000 2.390
61.10000 1.618
61.12000 1.251
61.14000 1.861
61.16000 3.236
61.18000 5.206
61.20000 0.378
61.22000 0.931
61.24000 -0.637
61.26000 -0.408
61.28000 1.428
61.30000 -0.698
61.32000 -1.538
61.34000 -2.411
61.36000 3.926
61.38000 3.850
61.40000 2.456
61.42000 3.170
61.44000 2.601
61.46000 2.257
61.48000 4.637
61.50000 3.239
61.52000 3.062
61.54000 2.195
61.56000 -2.401
61.58000 -1.757
61.60000 2.089
61.62000 2.360
61.64000 1.876
61.66000 2.397
61.68000 1.588
61.70000 0.283
61.72000 -0.923
61.74000 2.607
61.76000 3.120
61.78000 3.121
61.80000 4.320
61.82000 1.761
61.84000 0.516
61.86000 2.967
61.88000 0.442
61.90000 -0.006
61.92000 0.220
61.94000 -0.717
61.96000 2.352
61.98000 1.812
62.00000 2.263
62.02000 3.710
62.04000 2.414
62.06000 3.433
62.08000 4.536
62.10000 -1.532
62.12000 0.135
62.14000 -1.202
62.16000 -0.771
62.18000 -1.124
62.20000 -1.036
62.22000 4.190
62.24000 5.761
62.26000 4.911
62.28000 0.813
62.30000 3.022
62.32000 -0.341
62.34000 1.278
62.36000 2.354
62.38000 0.889
62.40000 1.986
62.42000 1.961
62.44000 2.123
62.46000 1.194
62.48000 -0.931
62.50000 3.249
62.52000 0.414
62.54000 0.390
62.56000 5.119
62.58000 0.729
62.60000 -0.452
62.62000 1.814
62.64000 1.625
62.66000 0.026
62.68000 -0.970
62.70000 4.041
62.72000 3.432
62.74000 1.258
62.76000 1.068
62.78000 4.128
62.80000 3.924
62.82000 1.700
62.84000 3.284
62.86000 3.765
62.88000 2.293
62.90000 0.649
62.92000 -1.099
62.94000 2.721
62.96000 2.747
62.98000 0.087
63.00000 2.365
63.02000 3.796
63.04000 -1.070
63.06000 -1.532
63.08000 1.612
63.10000 1.791
63.12000 3.390
63.14000 4.183
63.16000 3.182
63.18000 0.452
63.20000 -1.255
63.22000 0.534
63.24000 1.084
63.26000 2.249
63.28000 2.739
63.30000 2.695
63.32000 3.440
63.34000 0.645
63.36000 -2.385
63.38000 -0.247
63.40000 1.602
63.42000 0.958
63.44000 0.537
63.46000 2.368
63.48000 4.583
63.50000 3.128
63.52000 -0.228
63.54000 2.039
63.56000 3.908
63.58000 5.076
63.60000 5.179
63.62000 5.333
63.64000 4.658
63.66000 2.528
63.68000 2.620
63.70000 -0.526
63.72000 0.251
63.74000 1.554
63.76000 -1.152
63.78000 0.917
63.80000 3.714
63.82000 3.955
63.84000 0.143
63.86000 -2.386
63.88000 -0.257
63.90000 2.598
63.92000 4.034
63.94000 4.998
63.96000 5.650
63.98000 5.600
64.00000 2.300
64.02000 3.514
64.04000 1.877
64.06000 4.141
64.08000 2.982
64.10000 -0.126
64.12000 1.152
64.14000 2.917
64.16000 4.548
64.18000 2.076
64.20000 -2.409
64.22000 -1.465
64.24000 2.908
64.26000 1.584
64.28000 0.675
64.30000 -0.570
64.32000 -1.531
64.34000 -0.087
64.36000 0.673
64.38000 1.539
64.40000 4.382
64.42000 5.080
64.44000 3.006
64.46000 0.183
64.48000 2.923
64.50000 3.901
64.52000 -0.670
64.54000 -1.098
64.56000 1.820
64.58000 1.088
64.60000 3.355
64.62000 3.779
64.64000 1.412
64.66000 0.907
64.68000 3.763
64.70000 6.149
64.72000 7.867
64.74000 1.737
64.76000 2.492
64.78000 0.649
64.80000 -0.518
64.82000 -0.021
64.84000 0.772
64.86000 -1.781
64.88000 0.648
64.90000 0.736
64.92000 1.465
64.94000 3.000
64.96000 2.881
64.98000 1.367
65.00000 2.230
65.02000 3.732
65.04000 0.450
65.06000 0.730
65.08000 2.308
65.10000 -0.119
65.12000 1.162
65.14000 2.737
65.16000 0.294
65.18000 0.636
65.20000 1.917
65.22000 0.226
65.24000 2.235
65.26000 5.021
65.28000 1.977
65.30000 0.897
65.32000 1.344
65.34000 1.927
65.36000 1.880
65.38000 -0.102
65.40000 4.408
65.42000 1.801
65.44000 -2.432
65.46000 -0.029
65.48000 0.819
65.50000 0.706
65.52000 0.622
65.54000 1.038
65.56000 -1.885
65.58000 2.029
65.60000 1.732
65.62000 0.504
65.64000 0.256
65.66000 1.087
65.68000 4.649
65.70000 3.006
65.72000 -0.057
65.74000 -0.594
65.76000 1.015
65.78000 3.331
65.80000 1.075
65.82000 -0.463
65.84000 1.176
65.86000 2.381
65.88000 2.615
65.90000 0.132
65.92000 1.385
65.94000 3.951
65.96000 3.847
65.98000 0.344
66.00000 2.710
66.02000 2.303
66.04000 1.772
66.06000 0.434
66.08000 1.208
66.10000 3.326
66.12000 2.297
66.14000 3.769
66.16000 1.714
66.18000 -0.181
66.20000 4.850
66.22000 3.424
66.24000 3.640
66.26000 4.171
66.28000 0.180
66.30000 3.681
66.32000 3.704
66.34000 5.660
66.36000 1.005
66.38000 -0.691
66.40000 -0.476
66.42000 3.237
66.44000 6.414
66.46000 5.628
66.48000 2.849
66.50000 4.229
66.52000 4.474
66.54000 3.047
66.56000 1.522
66.58000 3.189
66.60000 1.053
66.62000 -2.488
66.64000 5.077
66.66000 6.505
66.68000 5.725
66.70000 2.417
66.72000 3.601
66.74000 5.567
66.76000 3.955
66.78000 1.782
66.80000 2.160
66.82000 3.124
66.84000 4.975
66.86000 7.614
66.88000 7.764
66.90000 5.571
66.92000 4.500
66.94000 1.292
66.96000 3.144
66.98000 2.509
67.00000 4.251
67.02000 4.004
67.04000 4.795
67.06000 6.374
67.08000 10.676
67.10000 10.870
67.12000 9.356
67.14000 11.655
67.16000 11.778
67.18000 7.792
67.20000 6.910
67.22000 5.552
67.24000 5.348
67.26000 10.088
67.28000 11.657
67.30000 11.495
67.32000 10.944
67.34000 10.726
67.36000 12.043
67.38000 10.829
67.40000 11.346
67.42000 12.248
67.44000 16.110
67.46000 12.863
67.48000 10.343
67.50000 9.526
67.52000 12.815
67.54000 13.281
67.56000 14.801
67.58000 13.095
67.60000 11.068
67.62000 12.635
67.64000 14.033
67.66000 18.081
67.68000 17.516
67.70000 17.554
67.72000 18.435
67.74000 17.649
67.76000 16.544
67.78000 18.806
67.80000 19.363
67.82000 21.744
67.84000 21.801
67.86000 22.752
67.88000 22.316
67.90000 23.445
67.92000 22.024
67.94000 21.902
67.96000 20.490
67.98000 23.462
68.00000 20.548
68.02000 21.519
68.04000 23.706
68.06000 25.266
68.08000 29.038
68.10000 30.987
68.12000 29.696
68.14000 23.497
68.16000 26.352
68.18000 25.343
68.20000 25.618
68.22000 24.895
68.24000 23.182
68.26000 24.467
68.28000 26.852
68.30000 24.490
68.32000 27.679
68.34000 28.728
68.36000 25.586
68.38000 21.307
68.40000 21.492
68.42000 21.094
68.44000 22.410
68.46000 22.025
68.48000 25.409
68.50000 28.552
68.52000 26.150
68.54000 26.372
68.56000 21.671
68.58000 21.274
68.60000 24.115
68.62000 19.828
68.64000 18.503
68.66000 20.630
68.68000 20.568
68.70000 22.034
68.72000 16.825
68.74000 17.347
68.76000 17.854
68.78000 17.524
68.80000 17.957
68.82000 18.094
68.84000 19.396
68.86000 15.420
68.88000 12.168
68.90000 13.026
68.92000 12.229
68.94000 12.470
68.96000 13.979
68.98000 14.859
69.00000 10.653
69.02000 10.114
69.04000 10.707
69.06000 12.679
69.08000 7.560
69.10000 7.718
69.12000 6.991
69.14000 3.947
69.16000 6.325
69.18000 5.849
69.20000 10.371
69.22000 9.375
69.24000 6.894
69.26000 6.239
69.28000 4.314
69.30000 2.686
69.32000 5.522
69.34000 3.472
69.36000 6.217
69.38000 5.574
69.40000 8.106
69.42000 5.529
69.44000 3.041
69.46000 3.420
69.48000 3.378
69.50000 3.960
69.52000 4.029
69.54000 3.949
69.56000 6.677
69.58000 5.398
69.60000 3.831
69.62000 3.912
69.64000 2.547
69.66000 0.193
69.68000 3.475
69.70000 2.708
69.72000 -2.399
69.74000 -0.134
69.76000 2.182
69.78000 2.609
69.80000 0.201
69.82000 2.066
69.84000 3.309
69.86000 -1.959
69.88000 -0.950
69.90000 1.683
69.92000 1.997
69.94000 1.999
69.96000 3.904
69.98000 6.465
70.00000 4.478
70.02000 1.017
70.04000 1.071
70.06000 -2.018
70.08000 0.350
70.10000 0.721
70.12000 2.678
70.14000 1.587
70.16000 -0.321
70.18000 -2.374
70.20000 -1.529
70.22000 0.900
70.24000 -0.322
70.26000 0.570
70.28000 1.454
70.30000 1.497
70.32000 2.212
70.34000 1.720
70.36000 0.459
70.38000 0.147
70.40000 -1.295
70.42000 2.307
70.44000 -1.285
70.46000 -2.359
70.48000 -0.470
70.50000 4.882
70.52000 0.576
70.54000 3.114
70.56000 2.177
70.58000 1.996
70.60000 0.684
70.62000 -0.394
70.64000 0.989
70.66000 -0.607
70.68000 -0.028
70.70000 2.057
70.72000 5.394
70.74000 2.452
70.76000 -0.500
70.78000 1.299
70.80000 -0.580
70.82000 -1.096
70.84000 1.874
70.86000 2.298
70.88000 -0.023
70.90000 1.012
70.92000 1.798
70.94000 0.069
70.96000 1.614
70.98000 2.908
71.00000 4.087
71.02000 -0.071
71.04000 -2.329
71.06000 -1.789
71.08000 3.973
71.10000 4.152
71.12000 3.063
71.14000 0.135
71.16000 2.544
71.18000 3.542
71.20000 3.560
71.22000 3.535
71.24000 -0.039
71.26000 2.238
71.28000 3.442
71.30000 3.298
71.32000 1.036
71.34000 1.842
71.36000 1.140
71.38000 0.559
71.40000 -2.311
71.42000 -0.161
71.44000 0.507
71.46000 2.714
71.48000 2.415
71.50000 -0.372
71.52000 0.769
71.54000 0.288
71.56000 0.254
71.58000 2.054
71.60000 0.869
71.62000 1.314
71.64000 -0.206
71.66000 -1.456
71.68000 0.619
71.70000 3.246
71.72000 6.005
71.74000 4.957
71.76000 2.340
71.78000 0.705
71.80000 0.854
71.82000 1.708
71.84000 5.087
71.86000 8.236
71.88000 4.717
71.90000 2.760
71.92000 -2.277
71.94000 -1.075
71.96000 4.265
71.98000 4.420
72.00000 2.428
72.02000 2.779
72.04000 2.488
72.06000 3.924
72.08000 4.556
72.10000 4.837
72.12000 7.692
72.14000 7.192
72.16000 1.414
72.18000 1.701
72.20000 3.001
72.22000 3.366
72.24000 1.377
72.26000 0.858
72.28000 2.670
72.30000 7.719
72.32000 5.926
72.34000 6.169
72.36000 5.427
72.38000 4.214
72.40000 0.774
72.42000 1.471
72.44000 4.732
72.46000 7.106
72.48000 6.220
72.50000 -0.770
72.52000 -1.548
72.54000 -2.222
72.56000 2.654
72.58000 1.830
72.60000 -1.148
72.62000 4.748
72.64000 5.070
72.66000 3.199
72.68000 4.123
72.70000 4.717
72.72000 3.116
72.74000 6.176
72.76000 8.431
72.78000 2.832
72.80000 -0.242
72.82000 0.760
72.84000 2.121
72.86000 1.228
72.88000 -0.185
72.90000 -2.233
72.92000 1.248
72.94000 2.764
72.96000 -0.316
72.98000 -1.359
73.00000 2.233
73.02000 1.439
73.04000 3.960
73.06000 2.419
73.08000 -0.054
73.10000 1.112
73.12000 0.429
73.14000 1.119
73.16000 4.681
73.18000 2.604
73.20000 2.187
73.22000 2.464
73.24000 4.863
73.26000 3.525
73.28000 0.412
73.30000 -2.192
73.32000 5.298
73.34000 -1.459
73.36000 -0.969
73.38000 1.260
73.40000 1.251
73.42000 -0.156
73.44000 1.986
73.46000 1.037
73.48000 -0.329
73.50000 -1.995
73.52000 2.043
73.54000 1.508
73.56000 2.771
73.58000 3.352
73.60000 5.061
73.62000 0.426
73.64000 5.029
73.66000 6.160
73.68000 6.217
73.70000 2.307
73.72000 -1.564
73.74000 3.485
73.76000 2.474
73.78000 1.969
73.80000 5.269
73.82000 0.778
73.84000 1.457
73.86000 2.560
73.88000 -1.816
73.90000 -0.810
73.92000 -0.804
73.94000 0.373
73.96000 -0.553
73.98000 0.384
74.00000 -1.198
74.02000 -2.234
74.04000 0.755
74.06000 1.162
74.08000 1.041
74.10000 -0.996
74.12000 2.666
74.14000 3.893
74.16000 5.271
74.18000 5.314
74.20000 3.856
74.22000 -1.346
74.24000 2.689
74.26000 5.358
74.28000 4.005
74.30000 2.877
74.32000 5.688
74.34000 3.895
74.36000 4.212
74.38000 1.599
74.40000 2.353
74.42000 2.901
74.44000 4.112
74.46000 4.275
74.48000 0.046
74.50000 1.573
74.52000 2.812
74.54000 -0.349
74.56000 2.467
74.58000 3.085
74.60000 -1.497
74.62000 0.076
74.64000 0.966
74.66000 0.732
74.68000 -0.087
74.70000 0.753
74.72000 5.640
74.74000 1.052
74.76000 2.352
74.78000 5.362
74.80000 1.314
74.82000 -1.268
74.84000 0.579
74.86000 2.140
74.88000 3.547
74.90000 5.743
74.92000 4.669
74.94000 1.017
74.96000 0.999
74.98000 4.370
75.00000 10.598
75.02000 9.124
75.04000 2.214
75.06000 -2.191
75.08000 -0.469
75.10000 2.758
75.12000 4.099
75.14000 5.913
75.16000 7.825
75.18000 5.554
75.20000 -0.185
75.22000 1.539
75.24000 7.154
75.26000 3.096
75.28000 2.093
75.30000 1.482
75.32000 1.613
75.34000 5.106
75.36000 3.001
75.38000 3.277
75.40000 5.674
75.42000 3.001
75.44000 -1.505
75.46000 -1.517
75.48000 0.236
75.50000 1.604
75.52000 2.054
75.54000 3.934
75.56000 3.814
75.58000 2.241
75.60000 3.121
75.62000 7.544
75.64000 4.756
75.66000 6.872
75.68000 4.280
75.70000 1.485
75.72000 -0.139
75.74000 0.000
75.76000 4.836
75.78000 3.020
75.80000 -0.389
75.82000 1.927
75.84000 3.259
75.86000 2.809
75.88000 3.436
75.90000 5.412
75.92000 -0.654
75.94000 2.138
75.96000 0.282
75.98000 0.586
76.00000 2.655
76.02000 -2.240
76.04000 0.973
76.06000 1.987
76.08000 3.295
76.10000 4.467
76.12000 2.773
76.14000 4.799
76.16000 6.501
76.18000 6.518
76.20000 1.286
76.22000 -2.243
76.24000 -1.058
76.26000 1.255
76.28000 -1.188
76.30000 -1.236
76.32000 0.805
76.34000 1.110
76.36000 1.899
76.38000 4.141
76.40000 4.610
76.42000 1.405
76.44000 1.934
76.46000 0.095
76.48000 4.743
76.50000 -0.594
76.52000 -2.246
76.54000 0.167
76.56000 0.302
76.58000 -2.246
76.60000 0.415
76.62000 0.080
76.64000 1.984
76.66000 6.313
76.68000 5.821
76.70000 2.829
76.72000 5.816
76.74000 2.295
76.76000 0.808
76.78000 -2.098
76.80000 0.816
76.82000 1.860
76.84000 -1.691
76.86000 -0.578
76.88000 -2.263
76.90000 -0.872
76.92000 0.907
76.94000 0.442
76.96000 2.949
76.98000 5.680
77.00000 2.549
77.02000 3.468
77.04000 5.715
77.06000 1.325
77.08000 2.951
77.10000 2.743
77.12000 -1.753
77.14000 0.065
77.16000 1.618
77.18000 -0.414
77.20000 -1.645
77.22000 -1.626
77.24000 1.225
77.26000 -0.737
77.28000 -0.447
77.30000 -0.325
77.32000 0.886
77.34000 1.626
77.36000 2.477
77.38000 1.444
77.40000 2.466
77.42000 2.560
77.44000 5.531
77.46000 5.802
77.48000 -0.204
77.50000 1.257
77.52000 2.859
77.54000 1.199
77.56000 1.714
77.58000 4.743
77.60000 2.471
77.62000 -0.051
77.64000 0.895
77.66000 -1.246
77.68000 0.257
77.70000 0.868
77.72000 1.563
77.74000 2.023
77.76000 2.138
77.78000 1.950
77.80000 1.248
77.82000 5.804
77.84000 4.821
77.86000 2.102
77.88000 3.954
77.90000 3.061
77.92000 -0.655
77.94000 -0.669
77.96000 -2.287
77.98000 1.397
78.00000 4.050
78.02000 0.455
78.04000 -1.810
78.06000 3.800
78.08000 4.502
78.10000 5.465
78.12000 3.752
78.14000 4.567
78.16000 2.225
78.18000 2.625
78.20000 0.805
78.22000 3.497
78.24000 6.168
78.26000 2.308
78.28000 1.151
78.30000 1.382
78.32000 2.388
78.34000 0.887
78.36000 0.153
78.38000 4.294
78.40000 1.719
78.42000 -2.285
78.44000 0.991
78.46000 -0.723
78.48000 1.209
78.50000 -2.290
78.52000 -0.469
78.54000 1.305
78.56000 3.070
78.58000 0.252
78.60000 -1.463
78.62000 0.974
78.64000 0.099
78.66000 3.022
78.68000 3.360
78.70000 -0.255
78.72000 -1.006
78.74000 0.681
78.76000 0.905
78.78000 3.543
78.80000 5.717
78.82000 1.067
78.84000 2.243
78.86000 2.184
78.88000 -0.720
78.90000 0.417
78.92000 1.606
78.94000 -2.281
78.96000 -1.141
78.98000 5.776
79.00000 4.535
79.02000 2.926
79.04000 0.277
79.06000 0.867
79.08000 0.135
79.10000 3.404
79.12000 3.605
79.14000 3.509
79.16000 2.281
79.18000 6.934
79.20000 3.802
79.22000 0.170
79.24000 1.086
79.26000 0.256
79.28000 -0.754
79.30000 1.636
79.32000 1.205
79.34000 2.080
79.36000 -1.830
79.38000 -0.296
79.40000 1.730
79.42000 -2.357
79.44000 1.977
79.46000 1.984
79.48000 3.130
79.50000 2.024
79.52000 3.140
79.54000 4.668
79.56000 5.013
79.58000 2.346
79.60000 1.602
79.62000 0.223
79.64000 3.823
79.66000 3.221
79.68000 3.681
79.70000 -1.588
79.72000 0.488
79.74000 1.867
79.76000 1.612
79.78000 5.425
79.80000 7.318
79.82000 5.890
79.84000 -0.142
79.86000 -1.774
79.88000 -2.367
79.90000 1.824
79.92000 4.375
79.94000 2.022
79.96000 1.102
79.98000 5.129
80.00000 3.998
80.02000 1.630
80.04000 2.928
80.06000 4.090
80.08000 1.213
80.10000 2.701
80.12000 3.827
80.14000 4.312
80.16000 7.595
80.18000 3.632
80.20000 2.324
80.22000 2.045
80.24000 1.966
80.26000 6.569
80.28000 3.433
80.30000 0.271
80.32000 0.017
80.34000 -0.307
80.36000 2.811
80.38000 4.984
80.40000 3.605
80.42000 2.602
80.44000 2.597
80.46000 0.634
80.48000 -1.994
80.50000 -1.273
80.52000 2.206
80.54000 4.337
80.56000 7.135
80.58000 7.998
80.60000 4.917
80.62000 7.862
80.64000 5.826
80.66000 3.368
80.68000 4.332
80.70000 2.557
80.72000 1.562
80.74000 0.405
80.76000 0.128
80.78000 0.553
80.80000 4.600
80.82000 11.930
80.84000 6.319
80.86000 6.734
80.88000 4.371
80.90000 2.673
80.92000 5.371
80.94000 7.739
80.96000 4.663
80.98000 1.814
81.00000 4.871
81.02000 7.180
81.04000 4.304
81.06000 4.704
81.08000 7.918
81.10000 8.817
81.12000 3.559
81.14000 0.350
81.16000 5.581
81.18000 7.408
81.20000 3.062
81.22000 4.250
81.24000 11.404
81.26000 12.875
81.28000 12.218
81.30000 7.529
81.32000 9.992
81.34000 12.615
81.36000 11.664
81.38000 6.676
81.40000 9.081
81.42000 11.873
81.44000 12.888
81.46000 15.365
81.48000 15.220
81.50000 17.051
81.52000 17.466
81.54000 13.780
81.56000 10.562
81.58000 13.363
81.60000 16.181
81.62000 15.191
81.64000 18.949
81.66000 18.690
81.68000 19.924
81.70000 21.234
81.72000 18.675
81.74000 20.004
81.76000 15.787
81.78000 18.495
81.80000 18.795
81.82000 18.579
81.84000 21.360
81.86000 21.922
81.88000 19.098
81.90000 21.655
81.92000 24.803
81.94000 25.305
81.96000 24.712
81.98000 27.057
82.00000 26.664
82.02000 28.847
82.04000 28.620
82.06000 26.985
82.08000 25.536
82.10000 29.904
82.12000 26.128
82.14000 26.167
82.16000 25.666
82.18000 27.519
82.20000 29.663
82.22000 27.350
82.24000 31.189
82.26000 28.117
82.28000 27.452
82.30000 28.072
82.32000 30.998
82.34000 31.855
82.36000 31.479
82.38000 29.017
82.40000 26.763
82.42000 24.948
82.44000 31.680
82.46000 32.503
82.48000 31.229
82.50000 29.023
82.52000 27.722
82.54000 26.234
82.56000 28.480
82.58000 24.266
82.60000 25.722
82.62000 28.500
82.64000 26.046
82.66000 23.633
82.68000 23.467
82.70000 24.875
82.72000 23.546
82.74000 20.875
82.76000 26.092
82.78000 28.746
82.80000 21.174
82.82000 20.178
82.84000 20.319
82.86000 19.929
82.88000 20.864
82.90000 19.343
82.92000 13.447
82.94000 14.137
82.96000 20.882
82.98000 18.177
83.00000 16.708
83.02000 16.398
83.04000 17.508
83.06000 20.603
83.08000 17.910
83.10000 16.840
83.12000 14.413
83.14000 14.465
83.16000 16.763
83.18000 14.793
83.20000 10.310
83.22000 10.108
83.24000 8.338
83.26000 10.131
83.28000 9.415
83.30000 7.189
83.32000 7.165
83.34000 10.529
83.36000 12.122
83.38000 11.176
83.40000 10.349
83.42000 6.520
83.44000 9.987
83.46000 9.311
83.48000 6.579
83.50000 3.994
83.52000 3.275
83.54000 3.870
83.56000 8.232
83.58000 10.076
83.60000 6.894
83.62000 6.588
83.64000 3.942
83.66000 2.886
83.68000 7.485
83.70000 2.693
83.72000 3.991
83.74000 0.785
83.76000 -1.009
83.78000 -2.454
83.80000 2.764
83.82000 2.746
83.84000 1.181
83.86000 -2.450
83.88000 -0.683
83.90000 4.404
83.92000 2.962
83.94000 5.245
83.96000 2.324
83.98000 0.431
84.00000 -0.733
84.02000 0.824
84.04000 2.663
84.06000 2.879
84.08000 -0.330
84.10000 1.135
84.12000 2.498
84.14000 -0.896
84.16000 -2.065
84.18000 -0.246
84.20000 -0.420
84.22000 -2.297
84.24000 -0.696
84.26000 -0.227
84.28000 0.316
84.30000 -0.167
84.32000 0.644
84.34000 1.932
84.36000 3.690
84.38000 5.985
84.40000 4.586
84.42000 4.255
84.44000 0.985
84.46000 1.799
84.48000 -1.053
84.50000 1.719
84.52000 1.259
84.54000 4.028
84.56000 0.319
84.58000 -1.143
84.60000 4.989
84.62000 3.283
84.64000 2.753
84.66000 1.185
84.68000 0.234
84.70000 -0.228
84.72000 0.372
84.74000 1.905
84.76000 4.319
84.78000 4.406
84.80000 2.364
84.82000 -0.262
84.84000 -0.860
84.86000 -0.117
84.88000 -1.325
84.90000 4.216
84.92000 6.087
84.94000 5.531
84.96000 3.267
84.98000 1.317
85.00000 -0.431
85.02000 -1.809
85.04000 -2.347
85.06000 0.008
85.08000 4.025
85.10000 3.314
85.12000 3.077
85.14000 3.427
85.16000 3.346
85.18000 5.519
85.20000 6.034
85.22000 1.458
85.24000 -0.039
85.26000 4.174
85.28000 4.666
85.30000 1.574
85.32000 2.251
85.34000 5.658
85.36000 8.916
85.38000 6.055
85.40000 7.433
85.42000 6.854
85.44000 5.823
85.46000 2.616
85.48000 2.708
85.50000 3.641
85.52000 4.054
85.54000 3.237
85.56000 3.013
85.58000 6.867
85.60000 5.707
85.62000 1.367
85.64000 5.950
85.66000 6.606
85.68000 5.999
85.70000 5.534
85.72000 5.881
85.74000 6.486
85.76000 9.766
85.78000 7.169
85.80000 7.691
85.82000 6.129
85.84000 3.555
85.86000 8.925
85.88000 10.768
85.90000 8.313
85.92000 8.119
85.94000 6.826
85.96000 9.946
85.98000 12.795
86.00000 11.884
86.02000 9.299
86.04000 6.887
86.06000 7.590
86.08000 6.118
86.10000 11.702
86.12000 16.703
86.14000 13.447
86.16000 13.849
86.18000 17.862
86.20000 17.447
86.22000 17.102
86.24000 19.187
86.26000 20.524
86.28000 21.248
86.30000 16.524
86.32000 17.726
86.34000 19.214
86.36000 19.135
86.38000 12.521
86.40000 13.308
86.42000 21.806
86.44000 20.198
86.46000 17.665
86.48000 24.456
86.50000 17.940
86.52000 15.485
86.54000 19.022
86.56000 19.717
86.58000 22.015
86.60000 23.876
86.62000 18.383
86.64000 19.347
86.66000 22.173
86.68000 20.839
86.70000 18.053
86.72000 17.455
86.74000 21.784
86.76000 23.331
86.78000 20.097
86.80000 14.306
86.82000 13.826
86.84000 15.626
86.86000 18.188
86.88000 16.175
86.90000 19.762
86.92000 16.488
86.94000 17.996
86.96000 17.797
86.98000 18.276
87.00000 16.006
87.02000 10.080
87.04000 10.871
87.06000 11.203
87.08000 12.002
87.10000 12.140
87.12000 13.548
87.14000 12.341
87.16000 11.520
87.18000 13.458
87.20000 16.191
87.22000 16.130
87.24000 7.268
87.26000 11.007
87.28000 9.176
87.30000 9.093
87.32000 9.319
87.34000 12.531
87.36000 8.646
87.38000 6.564
87.40000 3.525
87.42000 9.781
87.44000 10.851
87.46000 4.488
87.48000 7.033
87.50000 5.670
87.52000 6.893
87.54000 4.668
87.56000 5.201
87.58000 9.481
87.60000 4.880
87.62000 1.292
87.64000 2.561
87.66000 3.587
87.68000 0.160
87.70000 -0.948
87.72000 1.567
87.74000 5.109
87.76000 5.568
87.78000 1.351
87.80000 1.546
87.82000 1.077
87.84000 3.435
87.86000 0.255
87.88000 -0.804
87.90000 4.238
87.92000 3.756
87.94000 4.262
87.96000 3.702
87.98000 -1.116
88.00000 -1.279
88.02000 0.754
88.04000 0.906
88.06000 4.735
88.08000 4.950
88.10000 3.760
88.12000 2.797
88.14000 1.170
88.16000 1.206
88.18000 0.716
88.20000 -1.613
88.22000 -1.338
88.24000 0.588
88.26000 4.512
88.28000 3.554
88.30000 0.050
88.32000 -0.360
88.34000 1.124
88.36000 1.387
88.38000 -1.753
88.40000 -1.788
88.42000 1.459
88.44000 2.705
88.46000 3.206
88.48000 6.731
88.50000 7.598
88.52000 5.487
88.54000 0.772
88.56000 0.639
88.58000 5.766
88.60000 2.110
88.62000 -2.140
88.64000 -1.145
88.66000 2.895
88.68000 3.161
88.70000 -0.225
88.72000 1.667
88.74000 4.433
88.76000 4.146
88.78000 3.239
88.80000 4.546
88.82000 1.388
88.84000 4.657
88.86000 7.127
88.88000 2.071
88.90000 4.186
88.92000 6.708
88.94000 6.116
88.96000 9.399
88.98000 5.831
89.00000 2.419
89.02000 -1.556
89.04000 -1.161
89.06000 1.320
89.08000 3.615
89.10000 2.651
89.12000 2.603
89.14000 1.960
89.16000 -0.421
89.18000 -1.514
89.20000 1.765
89.22000 5.117
89.24000 5.980
89.26000 3.691
89.28000 2.162
89.30000 0.347
89.32000 3.935
89.34000 5.550
89.36000 3.767
89.38000 3.734
89.40000 4.928
89.42000 8.714
89.44000 7.871
89.46000 2.962
89.48000 5.046
89.50000 4.193
89.52000 3.216
89.54000 1.552
89.56000 6.335
89.58000 4.238
89.60000 2.714
89.62000 2.495
89.64000 4.879
89.66000 -0.273
89.68000 -1.372
89.70000 -2.089
89.72000 -1.442
89.74000 0.918
89.76000 2.102
89.78000 3.327
89.80000 7.628
89.82000 3.772
89.84000 3.291
89.86000 2.544
89.88000 8.460
89.90000 7.108
89.92000 8.464
89.94000 5.790
89.96000 3.823
89.98000 7.256
90.00000 6.847
90.02000 3.580
90.04000 2.549
90.06000 0.812
90.08000 5.549
90.10000 -0.346
90.12000 0.337
90.14000 1.998
90.16000 0.537
90.18000 5.630
90.20000 7.735
90.22000 4.790
90.24000 2.055
90.26000 4.803
90.28000 3.818
90.30000 3.933
90.32000 3.431
90.34000 2.415
90.36000 5.842
90.38000 4.982
90.40000 4.408
90.42000 0.150
90.44000 -2.106
90.46000 2.591
90.48000 8.911
90.50000 3.754
90.52000 3.396
90.54000 -0.668
90.56000 1.043
90.58000 6.773
90.60000 1.023
90.62000 -1.111
90.64000 3.825
90.66000 3.898
90.68000 7.805
90.70000 3.285
90.72000 -1.739
90.74000 0.487
90.76000 -0.866
90.78000 1.341
90.80000 6.973
90.82000 7.286
90.84000 4.106
90.86000 6.058
90.88000 5.271
90.90000 3.014
90.92000 0.709
90.94000 -0.789
90.96000 1.613
90.98000 2.472
91.00000 3.048
91.02000 4.141
91.04000 -0.500
91.06000 0.705
91.08000 2.241
91.10000 0.902
91.12000 3.281
91.14000 6.763
91.16000 4.510
91.18000 2.744
91.20000 0.763
91.22000 4.210
91.24000 1.541
91.26000 -1.035
91.28000 0.405
91.30000 4.074
91.32000 4.664
91.34000 4.011
91.36000 5.296
91.38000 4.581
91.40000 0.933
91.42000 -0.071
91.44000 -2.099
91.46000 1.055
91.48000 3.873
91.50000 3.962
91.52000 0.404
91.54000 0.562
91.56000 2.548
91.58000 1.895
91.60000 0.146
91.62000 -2.109
91.64000 0.178
91.66000 5.183
91.68000 4.648
91.70000 5.219
91.72000 0.639
91.74000 4.284
91.76000 3.245
91.78000 2.439
91.80000 1.451
91.82000 -0.211
91.84000 4.332
91.86000 4.613
91.88000 2.563
91.90000 5.395
91.92000 2.232
91.94000 3.013
91.96000 2.732
91.98000 1.296
92.00000 0.104
92.02000 5.721
92.04000 7.043
92.06000 2.602
92.08000 4.558
92.10000 1.575
92.12000 0.046
92.14000 5.336
92.16000 4.649
92.18000 4.485
92.20000 2.200
92.22000 0.990
92.24000 1.388
92.26000 3.818
92.28000 -0.890
92.30000 -0.194
92.32000 3.179
92.34000 1.644
92.36000 3.401
92.38000 6.794
92.40000 0.077
92.42000 -2.084
92.44000 1.766
92.46000 0.712
92.48000 2.795
92.50000 4.661
92.52000 6.920
92.54000 6.787
92.56000 4.876
92.58000 2.947
92.60000 0.686
92.62000 2.943
92.64000 2.736
92.66000 0.154
92.68000 -2.115
92.70000 1.875
92.72000 3.694
92.74000 3.765
92.76000 6.689
92.78000 5.550
92.80000 5.539
92.82000 3.618
92.84000 -0.103
92.86000 5.907
92.88000 6.035
92.90000 6.733
92.92000 4.766
92.94000 0.990
92.96000 3.606
92.98000 3.798
93.00000 2.734
93.02000 5.278
93.04000 6.867
93.06000 9.994
93.08000 7.503
93.10000 2.867
93.12000 5.881
93.14000 4.144
93.16000 2.196
93.18000 3.217
93.20000 2.523
93.22000 5.269
93.24000 10.762
93.26000 4.324
93.28000 3.477
93.30000 4.660
93.32000 7.797
93.34000 4.329
93.36000 2.184
93.38000 2.983
93.40000 6.146
93.42000 6.077
93.44000 6.153
93.46000 7.765
93.48000 9.626
93.50000 5.320
93.52000 5.217
93.54000 3.715
93.56000 2.420
93.58000 2.787
93.60000 6.605
93.62000 7.089
93.64000 0.442
93.66000 -1.579
93.68000 3.317
93.70000 1.547
93.72000 -2.054
93.74000 4.007
93.76000 6.458
93.78000 3.648
93.80000 2.559
93.82000 8.040
93.84000 8.748
93.86000 5.768
93.88000 3.778
93.90000 5.815
93.92000 6.766
93.94000 1.823
93.96000 3.953
93.98000 1.918
94.00000 4.025
94.02000 2.596
94.04000 0.218
94.06000 4.065
94.08000 6.469
94.10000 2.896
94.12000 6.724
94.14000 4.832
94.16000 1.569
94.18000 3.874
94.20000 4.737
94.22000 7.649
94.24000 4.299
94.26000 0.857
94.28000 1.518
94.30000 3.178
94.32000 -0.388
94.34000 -0.990
94.36000 7.679
94.38000 9.970
94.40000 7.928
94.42000 10.129
94.44000 6.362
94.46000 5.540
94.48000 7.087
94.50000 2.530
94.52000 3.707
94.54000 3.603
94.56000 3.721
94.58000 2.453
94.60000 1.989
94.62000 4.576
94.64000 2.403
94.66000 5.282
94.68000 7.664
94.70000 5.874
94.72000 -0.395
94.74000 -0.339
94.76000 -0.823
94.78000 3.575
94.80000 4.426
94.82000 -1.538
94.84000 1.383
94.86000 4.040
94.88000 3.455
94.90000 1.442
94.92000 4.808
94.94000 1.756
94.96000 2.565
94.98000 1.879
95.00000 0.160
95.02000 2.617
95.04000 6.131
95.06000 6.498
95.08000 0.304
95.10000 1.747
95.12000 -2.056
95.14000 -0.969
95.16000 2.888
95.18000 3.424
95.20000 -2.163
95.22000 -0.709
95.24000 2.944
95.26000 9.891
95.28000 6.205
95.30000 2.819
95.32000 0.133
95.34000 0.505
95.36000 0.775
95.38000 1.408
95.40000 0.622
95.42000 0.399
95.44000 -0.138
95.46000 0.125
95.48000 6.655
95.50000 3.643
95.52000 -0.723
95.54000 -0.112
95.56000 3.141
95.58000 6.026
95.60000 5.049
95.62000 4.101
95.64000 0.057
95.66000 1.042
95.68000 3.455
95.70000 2.021
95.72000 2.721
95.74000 5.124
95.76000 4.870
95.78000 3.770
95.80000 1.386
95.82000 1.326
95.84000 0.665
95.86000 2.739
95.88000 3.106
95.90000 0.412
95.92000 1.211
95.94000 0.643
95.96000 4.860
95.98000 3.601
96.00000 0.132
96.02000 1.060
96.04000 6.513
96.06000 2.554
96.08000 2.898
96.10000 4.991
96.12000 5.566
96.14000 4.770
96.16000 2.550
96.18000 0.075
96.20000 4.236
96.22000 6.809
96.24000 -0.823
96.26000 -0.485
96.28000 0.020
96.30000 0.359
96.32000 6.976
96.34000 2.574
96.36000 1.662
96.38000 3.399
96.40000 10.276
96.42000 6.100
96.44000 2.594
96.46000 1.602
96.48000 5.382
96.50000 7.684
96.52000 8.179
96.54000 3.408
96.56000 8.008
96.58000 4.918
96.60000 6.443
96.62000 -1.126
96.64000 -2.118
96.66000 4.486
96.68000 5.808
96.70000 -0.371
96.72000 0.320
96.74000 7.387
96.76000 11.151
96.78000 5.986
96.80000 0.633
96.82000 8.865
96.84000 7.911
96.86000 6.441
96.88000 6.538
96.90000 9.896
96.92000 10.469
96.94000 9.277
96.96000 2.964
96.98000 1.894
97.00000 2.260
97.02000 1.901
97.04000 4.690
97.06000 11.226
97.08000 6.884
97.10000 -1.337
97.12000 2.287
97.14000 4.635
97.16000 6.832
97.18000 7.411
97.20000 2.868
97.22000 4.865
97.24000 10.193
97.26000 6.994
97.28000 3.797
97.30000 7.961
97.32000 8.322
97.34000 8.995
97.36000 8.484
97.38000 3.865
97.40000 5.154
97.42000 7.106
97.44000 9.009
97.46000 6.564
97.48000 4.587
97.50000 4.963
97.52000 5.956
97.54000 9.519
97.56000 4.272
97.58000 7.030
97.60000 7.861
97.62000 8.077
97.64000 5.690
97.66000 5.676
97.68000 3.607
97.70000 5.629
97.72000 9.528
97.74000 7.192
97.76000 3.265
97.78000 6.671
97.80000 2.647
97.82000 -1.186
97.84000 5.985
97.86000 9.783
97.88000 4.713
97.90000 2.523
97.92000 3.115
97.94000 6.745
97.96000 1.554
97.98000 7.378
98.00000 12.148
98.02000 12.391
98.04000 10.983
98.06000 3.374
98.08000 4.458
98.10000 -2.007
98.12000 2.179
98.14000 8.236
98.16000 12.602
98.18000 6.119
98.20000 8.239
98.22000 17.287
98.24000 11.086
98.26000 1.198
98.28000 1.609
98.30000 5.142
98.32000 4.474
98.34000 4.366
98.36000 8.799
98.38000 6.890
98.40000 6.475
98.42000 9.673
98.44000 5.379
98.46000 6.533
98.48000 8.139
98.50000 6.552
98.52000 11.021
98.54000 8.030
98.56000 8.494
98.58000 3.849
98.60000 9.288
98.62000 8.789
98.64000 9.741
98.66000 1.302
98.68000 5.315
98.70000 7.505
98.72000 7.167
98.74000 10.233
98.76000 10.452
98.78000 5.379
98.80000 6.695
98.82000 9.767
98.84000 9.331
98.86000 7.868
98.88000 10.304
98.90000 14.105
98.92000 11.803
98.94000 12.527
98.96000 8.311
98.98000 11.988
99.00000 8.854
99.02000 13.937
99.04000 16.294
99.06000 2.208
99.08000 -0.848
99.10000 1.862
99.12000 6.323
99.14000 8.854
99.16000 8.524
99.18000 12.418
99.20000 2.123
99.22000 -2.017
99.24000 -1.455
99.26000 5.551
99.28000 3.168
99.30000 10.315
99.32000 11.581
99.34000 4.160
99.36000 3.911
99.38000 2.886
99.40000 8.802
99.42000 7.229
99.44000 7.921
99.46000 10.070
99.48000 4.504
99.50000 6.140
99.52000 16.778
99.54000 8.115
99.56000 13.591
99.58000 9.350
99.60000 5.761
99.62000 8.736
99.64000 16.826
99.66000 11.155
99.68000 8.420
99.70000 4.915
99.72000 7.880
99.74000 3.413
99.76000 7.761
99.78000 2.143
99.80000 -0.239
99.82000 8.361
99.84000 7.953
99.86000 -2.092
99.88000 -2.118
99.90000 3.335
99.92000 -2.210
99.94000 4.178
99.96000 6.566
99.98000 0.000
