'Id: "0011389" Comment: "Integrate frame 0011389_Au-Ir-Rh_Au-Rich_XRD_Mapping-158-0000.gfrmwith cursor Wedge Cursor #5" Operator: "B?rgel" Anode: "Cu" Wavelength: "1.5406" Scantype: "2Theta (TwoTheta)" TimePerStep: "1" X: "-40.5" Y: "0" Z: "5.95" 
10.00000 0.000
10.02000 -0.164
10.04000 -1.153
10.06000 9.428
10.08000 -10.683
10.10000 8.561
10.12000 32.399
10.14000 27.829
10.16000 20.445
10.18000 23.997
10.20000 35.635
10.22000 22.463
10.24000 8.513
10.26000 30.863
10.28000 28.528
10.30000 19.262
10.32000 27.369
10.34000 17.054
10.36000 12.040
10.38000 11.714
10.40000 14.575
10.42000 10.026
10.44000 14.805
10.46000 17.589
10.48000 18.662
10.50000 12.535
10.52000 30.964
10.54000 36.569
10.56000 18.290
10.58000 14.795
10.60000 15.400
10.62000 22.944
10.64000 18.593
10.66000 28.396
10.68000 31.097
10.70000 25.482
10.72000 16.197
10.74000 6.289
10.76000 13.616
10.78000 12.827
10.80000 5.436
10.82000 12.931
10.84000 11.291
10.86000 4.342
10.88000 7.691
10.90000 8.571
10.92000 18.534
10.94000 23.598
10.96000 6.888
10.98000 1.018
11.00000 8.931
11.02000 17.582
11.04000 10.448
11.06000 22.682
11.08000 32.144
11.10000 25.700
11.12000 15.168
11.14000 4.646
11.16000 4.872
11.18000 4.732
11.20000 6.785
11.22000 8.191
11.24000 20.206
11.26000 27.068
11.28000 13.183
11.30000 14.925
11.32000 10.537
11.34000 10.291
11.36000 1.191
11.38000 7.457
11.40000 13.085
11.42000 11.515
11.44000 13.879
11.46000 6.646
11.48000 10.668
11.50000 13.759
11.52000 12.155
11.54000 8.063
11.56000 17.093
11.58000 14.951
11.60000 -2.847
11.62000 8.218
11.64000 1.388
11.66000 7.145
11.68000 16.338
11.70000 22.379
11.72000 17.502
11.74000 9.239
11.76000 4.900
11.78000 13.493
11.80000 -3.733
11.82000 -3.101
11.84000 3.239
11.86000 11.100
11.88000 16.782
11.90000 13.811
11.92000 12.777
11.94000 18.856
11.96000 10.675
11.98000 10.981
12.00000 6.038
12.02000 14.190
12.04000 15.161
12.06000 19.144
12.08000 12.696
12.10000 7.508
12.12000 7.363
12.14000 17.047
12.16000 18.022
12.18000 12.869
12.20000 12.863
12.22000 10.154
12.24000 9.759
12.26000 13.694
12.28000 25.095
12.30000 19.276
12.32000 22.208
12.34000 19.576
12.36000 21.518
12.38000 20.825
12.40000 19.888
12.42000 9.505
12.44000 10.657
12.46000 1.824
12.48000 0.470
12.50000 9.731
12.52000 16.133
12.54000 26.289
12.56000 23.526
12.58000 16.547
12.60000 5.439
12.62000 11.905
12.64000 22.724
12.66000 24.472
12.68000 15.066
12.70000 16.834
12.72000 18.791
12.74000 18.412
12.76000 11.383
12.78000 16.889
12.80000 29.162
12.82000 18.139
12.84000 8.554
12.86000 -2.260
12.88000 -4.482
12.90000 0.892
12.92000 9.656
12.94000 10.277
12.96000 10.927
12.98000 16.730
13.00000 6.792
13.02000 10.337
13.04000 13.231
13.06000 11.053
13.08000 10.425
13.10000 13.079
13.12000 7.758
13.14000 13.681
13.16000 14.143
13.18000 10.879
13.20000 5.964
13.22000 18.748
13.24000 12.912
13.26000 2.705
13.28000 8.305
13.30000 12.342
13.32000 7.928
13.34000 5.790
13.36000 9.983
13.38000 16.513
13.40000 15.471
13.42000 4.448
13.44000 6.067
13.46000 8.876
13.48000 4.878
13.50000 9.895
13.52000 9.778
13.54000 16.788
13.56000 13.084
13.58000 9.857
13.60000 -0.077
13.62000 2.017
13.64000 4.295
13.66000 3.772
13.68000 5.776
13.70000 10.253
13.72000 9.728
13.74000 8.501
13.76000 9.810
13.78000 15.748
13.80000 10.695
13.82000 11.856
13.84000 6.056
13.86000 4.948
13.88000 8.799
13.90000 17.973
13.92000 9.827
13.94000 11.706
13.96000 3.965
13.98000 1.553
14.00000 15.023
14.02000 7.647
14.04000 -0.066
14.06000 8.020
14.08000 14.890
14.10000 21.016
14.12000 12.745
14.14000 5.656
14.16000 14.591
14.18000 5.390
14.20000 5.794
14.22000 5.212
14.24000 -1.027
14.26000 4.387
14.28000 9.824
14.30000 9.089
14.32000 12.065
14.34000 19.407
14.36000 13.095
14.38000 6.562
14.40000 5.168
14.42000 8.162
14.44000 8.512
14.46000 19.670
14.48000 18.247
14.50000 5.677
14.52000 5.856
14.54000 14.710
14.56000 11.116
14.58000 10.014
14.60000 2.644
14.62000 8.248
14.64000 11.419
14.66000 9.659
14.68000 3.487
14.70000 -0.534
14.72000 -4.368
14.74000 4.553
14.76000 11.407
14.78000 12.570
14.80000 9.641
14.82000 13.716
14.84000 11.823
14.86000 14.213
14.88000 12.858
14.90000 4.912
14.92000 4.516
14.94000 9.579
14.96000 3.870
14.98000 3.993
15.00000 7.578
15.02000 10.136
15.04000 4.175
15.06000 4.825
15.08000 7.506
15.10000 0.608
15.12000 6.869
15.14000 7.425
15.16000 12.097
15.18000 14.353
15.20000 11.966
15.22000 9.738
15.24000 9.699
15.26000 8.917
15.28000 11.492
15.30000 8.106
15.32000 13.577
15.34000 19.949
15.36000 10.399
15.38000 14.125
15.40000 5.449
15.42000 -4.427
15.44000 6.845
15.46000 10.935
15.48000 7.636
15.50000 12.219
15.52000 10.115
15.54000 14.053
15.56000 6.528
15.58000 7.490
15.60000 7.040
15.62000 9.796
15.64000 4.037
15.66000 9.734
15.68000 12.649
15.70000 11.531
15.72000 4.866
15.74000 4.048
15.76000 5.636
15.78000 15.089
15.80000 16.499
15.82000 18.483
15.84000 16.001
15.86000 14.793
15.88000 9.930
15.90000 2.039
15.92000 2.384
15.94000 -3.756
15.96000 -2.731
15.98000 0.027
16.00000 10.465
16.02000 10.115
16.04000 13.193
16.06000 8.933
16.08000 4.601
16.10000 10.501
16.12000 3.123
16.14000 5.942
16.16000 4.538
16.18000 10.575
16.20000 17.238
16.22000 9.073
16.24000 3.644
16.26000 -4.402
16.28000 0.615
16.30000 14.334
16.32000 8.149
16.34000 4.994
16.36000 7.296
16.38000 10.197
16.40000 13.233
16.42000 5.380
16.44000 2.901
16.46000 9.866
16.48000 12.753
16.50000 8.165
16.52000 2.551
16.54000 7.481
16.56000 13.541
16.58000 5.755
16.60000 13.572
16.62000 6.359
16.64000 10.082
16.66000 7.081
16.68000 9.387
16.70000 13.043
16.72000 12.926
16.74000 9.310
16.76000 5.454
16.78000 6.987
16.80000 8.773
16.82000 7.898
16.84000 2.392
16.86000 4.961
16.88000 5.989
16.90000 8.792
16.92000 10.245
16.94000 13.285
16.96000 7.785
16.98000 1.521
17.00000 1.070
17.02000 8.805
17.04000 7.354
17.06000 11.115
17.08000 1.691
17.10000 2.573
17.12000 4.023
17.14000 9.389
17.16000 10.603
17.18000 2.501
17.20000 0.515
17.22000 7.254
17.24000 6.282
17.26000 5.307
17.28000 3.006
17.30000 3.652
17.32000 7.325
17.34000 6.869
17.36000 4.011
17.38000 8.965
17.40000 7.701
17.42000 2.683
17.44000 9.792
17.46000 10.227
17.48000 6.023
17.50000 3.336
17.52000 7.217
17.54000 11.488
17.56000 8.452
17.58000 7.975
17.60000 5.381
17.62000 6.118
17.64000 11.266
17.66000 7.918
17.68000 9.397
17.70000 11.560
17.72000 5.790
17.74000 7.455
17.76000 6.056
17.78000 10.472
17.80000 10.098
17.82000 14.532
17.84000 4.110
17.86000 8.357
17.88000 7.246
17.90000 6.418
17.92000 9.159
17.94000 8.966
17.96000 7.050
17.98000 3.986
18.00000 2.381
18.02000 -0.257
18.04000 -4.317
18.06000 2.344
18.08000 3.450
18.10000 11.526
18.12000 7.039
18.14000 10.006
18.16000 14.604
18.18000 11.794
18.20000 9.163
18.22000 4.658
18.24000 7.842
18.26000 8.337
18.28000 8.914
18.30000 8.354
18.32000 7.844
18.34000 15.566
18.36000 12.180
18.38000 10.919
18.40000 13.215
18.42000 9.818
18.44000 9.838
18.46000 11.539
18.48000 6.922
18.50000 2.873
18.52000 5.081
18.54000 8.618
18.56000 10.656
18.58000 9.630
18.60000 -4.272
18.62000 5.476
18.64000 10.383
18.66000 4.550
18.68000 8.904
18.70000 10.764
18.72000 7.297
18.74000 2.044
18.76000 -0.021
18.78000 2.628
18.80000 6.695
18.82000 4.755
18.84000 4.238
18.86000 5.926
18.88000 7.147
18.90000 7.619
18.92000 6.460
18.94000 6.398
18.96000 6.137
18.98000 13.170
19.00000 11.864
19.02000 6.739
19.04000 0.276
19.06000 1.883
19.08000 3.456
19.10000 6.371
19.12000 3.633
19.14000 9.341
19.16000 16.882
19.18000 11.249
19.20000 5.698
19.22000 0.663
19.24000 -0.825
19.26000 8.235
19.28000 11.853
19.30000 3.243
19.32000 1.842
19.34000 6.913
19.36000 7.805
19.38000 3.566
19.40000 0.656
19.42000 5.017
19.44000 3.727
19.46000 6.642
19.48000 2.793
19.50000 -2.447
19.52000 2.820
19.54000 4.169
19.56000 4.563
19.58000 11.902
19.60000 5.792
19.62000 6.302
19.64000 6.372
19.66000 1.840
19.68000 5.906
19.70000 6.010
19.72000 10.535
19.74000 14.905
19.76000 6.704
19.78000 8.748
19.80000 2.601
19.82000 8.517
19.84000 13.111
19.86000 4.921
19.88000 9.920
19.90000 10.728
19.92000 11.999
19.94000 13.093
19.96000 7.624
19.98000 10.578
20.00000 10.164
20.02000 -1.121
20.04000 -4.182
20.06000 2.564
20.08000 8.223
20.10000 7.580
20.12000 3.896
20.14000 -2.937
20.16000 -0.062
20.18000 7.690
20.20000 14.825
20.22000 8.449
20.24000 6.481
20.26000 11.853
20.28000 10.069
20.30000 7.619
20.32000 7.628
20.34000 5.286
20.36000 6.357
20.38000 2.008
20.40000 4.508
20.42000 6.238
20.44000 5.173
20.46000 7.095
20.48000 13.885
20.50000 5.737
20.52000 6.915
20.54000 5.341
20.56000 4.929
20.58000 5.899
20.60000 3.758
20.62000 3.432
20.64000 2.422
20.66000 2.552
20.68000 0.435
20.70000 -1.484
20.72000 4.049
20.74000 5.631
20.76000 4.694
20.78000 9.600
20.80000 4.766
20.82000 -0.987
20.84000 5.086
20.86000 3.546
20.88000 2.618
20.90000 1.425
20.92000 7.736
20.94000 8.199
20.96000 10.020
20.98000 5.391
21.00000 5.650
21.02000 7.770
21.04000 5.605
21.06000 1.312
21.08000 2.472
21.10000 3.978
21.12000 10.305
21.14000 10.329
21.16000 10.800
21.18000 7.509
21.20000 2.486
21.22000 -1.071
21.24000 1.551
21.26000 0.555
21.28000 7.391
21.30000 9.542
21.32000 0.883
21.34000 6.846
21.36000 5.962
21.38000 5.344
21.40000 9.607
21.42000 14.002
21.44000 8.304
21.46000 8.928
21.48000 14.021
21.50000 7.741
21.52000 4.551
21.54000 7.370
21.56000 7.234
21.58000 7.462
21.60000 4.339
21.62000 6.286
21.64000 10.033
21.66000 6.813
21.68000 3.773
21.70000 3.883
21.72000 1.740
21.74000 4.468
21.76000 5.131
21.78000 5.709
21.80000 12.733
21.82000 9.307
21.84000 9.425
21.86000 9.004
21.88000 7.470
21.90000 5.178
21.92000 7.715
21.94000 3.683
21.96000 -4.090
21.98000 3.794
22.00000 3.681
22.02000 8.017
22.04000 9.472
22.06000 1.111
22.08000 -0.803
22.10000 0.990
22.12000 9.291
22.14000 9.754
22.16000 5.052
22.18000 7.501
22.20000 9.451
22.22000 5.672
22.24000 3.483
22.26000 2.435
22.28000 -0.393
22.30000 2.545
22.32000 2.188
22.34000 3.229
22.36000 6.688
22.38000 6.384
22.40000 6.386
22.42000 3.088
22.44000 5.016
22.46000 3.501
22.48000 0.126
22.50000 2.711
22.52000 6.043
22.54000 4.658
22.56000 2.509
22.58000 2.652
22.60000 10.039
22.62000 5.184
22.64000 6.305
22.66000 4.005
22.68000 11.371
22.70000 5.967
22.72000 2.973
22.74000 5.717
22.76000 5.564
22.78000 5.086
22.80000 2.521
22.82000 3.842
22.84000 1.022
22.86000 0.528
22.88000 3.292
22.90000 4.425
22.92000 0.830
22.94000 2.494
22.96000 7.662
22.98000 9.509
23.00000 9.933
23.02000 3.452
23.04000 0.704
23.06000 1.150
23.08000 2.833
23.10000 -0.756
23.12000 4.822
23.14000 4.608
23.16000 7.263
23.18000 8.199
23.20000 -0.174
23.22000 1.561
23.24000 12.025
23.26000 4.007
23.28000 0.699
23.30000 2.853
23.32000 3.119
23.34000 -4.028
23.36000 -0.344
23.38000 1.862
23.40000 4.778
23.42000 8.936
23.44000 9.160
23.46000 6.241
23.48000 5.594
23.50000 7.164
23.52000 3.894
23.54000 -1.358
23.56000 3.435
23.58000 3.103
23.60000 3.547
23.62000 1.766
23.64000 4.099
23.66000 -0.889
23.68000 4.800
23.70000 3.076
23.72000 5.770
23.74000 3.689
23.76000 0.107
23.78000 3.593
23.80000 6.007
23.82000 -3.495
23.84000 0.821
23.86000 2.268
23.88000 -1.892
23.90000 1.257
23.92000 0.354
23.94000 2.938
23.96000 4.342
23.98000 6.732
24.00000 3.829
24.02000 1.892
24.04000 0.111
24.06000 -0.853
24.08000 0.063
24.10000 0.583
24.12000 -3.482
24.14000 0.547
24.16000 0.074
24.18000 2.907
24.20000 3.466
24.22000 -0.979
24.24000 -1.438
24.26000 0.556
24.28000 -2.534
24.30000 2.968
24.32000 2.323
24.34000 -1.890
24.36000 2.201
24.38000 6.692
24.40000 1.639
24.42000 0.852
24.44000 2.541
24.46000 1.024
24.48000 1.303
24.50000 0.054
24.52000 -2.529
24.54000 3.888
24.56000 4.757
24.58000 -1.387
24.60000 -0.607
24.62000 -3.304
24.64000 -1.411
24.66000 2.411
24.68000 -0.636
24.70000 2.287
24.72000 4.914
24.74000 2.251
24.76000 2.537
24.78000 2.219
24.80000 5.460
24.82000 0.398
24.84000 3.779
24.86000 11.450
24.88000 6.403
24.90000 -3.974
24.92000 1.463
24.94000 7.908
24.96000 4.142
24.98000 -3.515
25.00000 -3.006
25.02000 -1.907
25.04000 1.833
25.06000 -0.761
25.08000 -2.746
25.10000 0.453
25.12000 -3.894
25.14000 -0.479
25.16000 0.326
25.18000 1.329
25.20000 -1.241
25.22000 2.375
25.24000 -2.685
25.26000 1.644
25.28000 6.894
25.30000 5.831
25.32000 0.012
25.34000 0.087
25.36000 -0.108
25.38000 3.610
25.40000 4.501
25.42000 4.016
25.44000 1.507
25.46000 1.894
25.48000 -1.242
25.50000 -1.727
25.52000 0.386
25.54000 8.251
25.56000 6.948
25.58000 4.659
25.60000 4.788
25.62000 0.949
25.64000 -0.518
25.66000 3.767
25.68000 8.319
25.70000 7.690
25.72000 0.212
25.74000 2.418
25.76000 5.220
25.78000 8.718
25.80000 7.899
25.82000 2.988
25.84000 1.641
25.86000 5.475
25.88000 -2.861
25.90000 -3.900
25.92000 5.072
25.94000 1.781
25.96000 -1.051
25.98000 0.983
26.00000 2.891
26.02000 2.138
26.04000 -3.892
26.06000 -3.209
26.08000 2.601
26.10000 8.227
26.12000 3.379
26.14000 -3.118
26.16000 0.592
26.18000 -0.747
26.20000 2.084
26.22000 1.296
26.24000 -0.569
26.26000 4.347
26.28000 6.507
26.30000 9.008
26.32000 5.633
26.34000 -2.852
26.36000 3.073
26.38000 0.603
26.40000 1.158
26.42000 0.258
26.44000 1.482
26.46000 0.915
26.48000 2.341
26.50000 1.648
26.52000 0.919
26.54000 0.209
26.56000 2.696
26.58000 7.907
26.60000 4.103
26.62000 0.279
26.64000 -3.150
26.66000 -1.373
26.68000 4.889
26.70000 -0.198
26.72000 0.938
26.74000 0.543
26.76000 1.905
26.78000 -1.135
26.80000 3.346
26.82000 0.680
26.84000 -2.828
26.86000 -1.148
26.88000 -1.821
26.90000 0.366
26.92000 3.235
26.94000 4.532
26.96000 2.089
26.98000 1.237
27.00000 0.652
27.02000 3.936
27.04000 6.400
27.06000 3.839
27.08000 10.350
27.10000 10.321
27.12000 5.032
27.14000 2.237
27.16000 4.259
27.18000 5.049
27.20000 5.764
27.22000 7.758
27.24000 2.807
27.26000 -3.145
27.28000 1.922
27.30000 -0.858
27.32000 -0.162
27.34000 3.759
27.36000 1.547
27.38000 3.160
27.40000 1.306
27.42000 7.929
27.44000 8.398
27.46000 5.914
27.48000 3.393
27.50000 2.258
27.52000 -1.527
27.54000 0.717
27.56000 0.438
27.58000 4.255
27.60000 3.821
27.62000 5.276
27.64000 2.550
27.66000 0.207
27.68000 1.601
27.70000 2.514
27.72000 4.950
27.74000 0.282
27.76000 1.238
27.78000 -1.185
27.80000 -2.857
27.82000 3.742
27.84000 5.067
27.86000 2.685
27.88000 4.523
27.90000 7.447
27.92000 2.970
27.94000 -1.580
27.96000 -3.789
27.98000 -1.669
28.00000 1.129
28.02000 5.881
28.04000 9.907
28.06000 4.179
28.08000 5.641
28.10000 6.462
28.12000 5.169
28.14000 4.195
28.16000 2.176
28.18000 5.507
28.20000 5.423
28.22000 2.721
28.24000 5.483
28.26000 8.967
28.28000 5.285
28.30000 2.861
28.32000 4.765
28.34000 -0.996
28.36000 -2.796
28.38000 1.094
28.40000 1.446
28.42000 1.323
28.44000 2.720
28.46000 0.189
28.48000 3.206
28.50000 3.465
28.52000 -0.982
28.54000 -1.447
28.56000 1.273
28.58000 -1.600
28.60000 1.392
28.62000 0.640
28.64000 0.767
28.66000 3.674
28.68000 2.757
28.70000 -0.958
28.72000 4.317
28.74000 5.795
28.76000 1.014
28.78000 0.752
28.80000 0.106
28.82000 3.603
28.84000 5.429
28.86000 4.804
28.88000 8.726
28.90000 2.393
28.92000 1.451
28.94000 3.841
28.96000 2.052
28.98000 2.985
29.00000 0.011
29.02000 2.842
29.04000 2.723
29.06000 8.494
29.08000 2.956
29.10000 0.893
29.12000 1.322
29.14000 0.333
29.16000 4.264
29.18000 5.929
29.20000 3.565
29.22000 5.160
29.24000 8.810
29.26000 3.957
29.28000 3.643
29.30000 6.380
29.32000 3.789
29.34000 2.263
29.36000 5.704
29.38000 -0.024
29.40000 -3.717
29.42000 -1.957
29.44000 -0.253
29.46000 -0.886
29.48000 0.939
29.50000 1.961
29.52000 3.802
29.54000 4.008
29.56000 2.984
29.58000 -1.723
29.60000 0.523
29.62000 1.549
29.64000 -0.196
29.66000 -0.161
29.68000 4.453
29.70000 5.443
29.72000 5.311
29.74000 1.306
29.76000 3.374
29.78000 5.039
29.80000 4.649
29.82000 -0.174
29.84000 4.893
29.86000 7.645
29.88000 5.145
29.90000 6.463
29.92000 7.435
29.94000 8.418
29.96000 6.155
29.98000 5.538
30.00000 5.744
30.02000 4.003
30.04000 3.611
30.06000 0.326
30.08000 6.212
30.10000 6.371
30.12000 5.019
30.14000 8.656
30.16000 6.069
30.18000 -1.376
30.20000 0.604
30.22000 4.623
30.24000 6.199
30.26000 2.136
30.28000 1.306
30.30000 1.527
30.32000 0.412
30.34000 1.354
30.36000 6.488
30.38000 8.061
30.40000 4.293
30.42000 3.424
30.44000 -1.753
30.46000 -1.552
30.48000 0.835
30.50000 -0.469
30.52000 -2.853
30.54000 -1.769
30.56000 2.366
30.58000 5.551
30.60000 3.568
30.62000 0.832
30.64000 0.463
30.66000 4.282
30.68000 3.438
30.70000 3.706
30.72000 6.536
30.74000 0.712
30.76000 -3.654
30.78000 1.036
30.80000 -0.101
30.82000 -0.394
30.84000 3.415
30.86000 3.241
30.88000 0.742
30.90000 2.010
30.92000 1.190
30.94000 6.819
30.96000 4.823
30.98000 5.329
31.00000 4.147
31.02000 5.090
31.04000 -0.683
31.06000 -3.639
31.08000 0.092
31.10000 6.226
31.12000 5.241
31.14000 4.051
31.16000 4.051
31.18000 0.235
31.20000 4.755
31.22000 6.134
31.24000 2.735
31.26000 2.325
31.28000 6.111
31.30000 4.481
31.32000 3.652
31.34000 2.311
31.36000 3.932
31.38000 4.031
31.40000 -0.106
31.42000 0.868
31.44000 6.078
31.46000 6.264
31.48000 9.011
31.50000 9.046
31.52000 6.067
31.54000 1.797
31.56000 5.251
31.58000 3.534
31.60000 1.811
31.62000 6.010
31.64000 5.698
31.66000 3.797
31.68000 -3.598
31.70000 -1.356
31.72000 7.761
31.74000 6.130
31.76000 3.605
31.78000 7.833
31.80000 4.748
31.82000 3.881
31.84000 3.480
31.86000 5.517
31.88000 7.203
31.90000 6.598
31.92000 6.365
31.94000 9.575
31.96000 9.257
31.98000 8.755
32.00000 3.270
32.02000 -0.599
32.04000 5.809
32.06000 6.716
32.08000 3.249
32.10000 1.311
32.12000 1.549
32.14000 0.545
32.16000 4.867
32.18000 7.841
32.20000 5.732
32.22000 -2.038
32.24000 -0.712
32.26000 0.454
32.28000 0.099
32.30000 3.622
32.32000 1.478
32.34000 0.042
32.36000 -1.830
32.38000 1.773
32.40000 2.874
32.42000 6.213
32.44000 3.733
32.46000 4.986
32.48000 1.501
32.50000 -2.825
32.52000 -1.515
32.54000 -2.931
32.56000 1.912
32.58000 -1.111
32.60000 -3.426
32.62000 -1.285
32.64000 -0.996
32.66000 -1.170
32.68000 2.281
32.70000 6.302
32.72000 2.351
32.74000 0.329
32.76000 1.754
32.78000 7.088
32.80000 6.628
32.82000 1.288
32.84000 0.060
32.86000 -2.283
32.88000 -0.789
32.90000 -1.126
32.92000 -1.568
32.94000 -1.384
32.96000 1.572
32.98000 3.941
33.00000 2.504
33.02000 2.685
33.04000 -3.603
33.06000 -2.869
33.08000 3.042
33.10000 2.713
33.12000 -0.793
33.14000 2.384
33.16000 1.308
33.18000 -1.501
33.20000 1.601
33.22000 2.666
33.24000 6.057
33.26000 2.213
33.28000 2.336
33.30000 0.359
33.32000 2.504
33.34000 -1.177
33.36000 1.155
33.38000 4.595
33.40000 2.008
33.42000 2.759
33.44000 2.610
33.46000 1.029
33.48000 5.703
33.50000 3.896
33.52000 4.154
33.54000 5.602
33.56000 2.556
33.58000 -0.111
33.60000 0.233
33.62000 3.115
33.64000 6.784
33.66000 6.401
33.68000 1.275
33.70000 4.706
33.72000 3.832
33.74000 4.119
33.76000 4.569
33.78000 8.270
33.80000 6.266
33.82000 1.344
33.84000 6.712
33.86000 3.796
33.88000 3.515
33.90000 4.512
33.92000 2.868
33.94000 -3.050
33.96000 3.551
33.98000 10.152
34.00000 8.230
34.02000 5.097
34.04000 0.763
34.06000 3.294
34.08000 7.250
34.10000 1.560
34.12000 0.229
34.14000 -3.571
34.16000 -1.377
34.18000 6.829
34.20000 2.210
34.22000 2.046
34.24000 5.079
34.26000 5.148
34.28000 1.911
34.30000 -2.397
34.32000 -2.327
34.34000 -1.836
34.36000 4.255
34.38000 7.359
34.40000 1.573
34.42000 4.316
34.44000 2.199
34.46000 5.805
34.48000 12.344
34.50000 8.173
34.52000 7.207
34.54000 6.984
34.56000 6.622
34.58000 2.475
34.60000 1.744
34.62000 -2.183
34.64000 -1.270
34.66000 1.694
34.68000 1.743
34.70000 1.539
34.72000 3.999
34.74000 4.192
34.76000 2.397
34.78000 -0.891
34.80000 2.207
34.82000 3.624
34.84000 5.020
34.86000 2.122
34.88000 4.881
34.90000 2.654
34.92000 4.566
34.94000 1.992
34.96000 1.698
34.98000 4.653
35.00000 1.102
35.02000 1.252
35.04000 4.634
35.06000 6.398
35.08000 8.103
35.10000 6.790
35.12000 2.998
35.14000 -0.248
35.16000 4.027
35.18000 3.255
35.20000 -0.105
35.22000 -1.748
35.24000 1.326
35.26000 -3.574
35.28000 -2.744
35.30000 0.741
35.32000 1.402
35.34000 1.084
35.36000 0.531
35.38000 3.521
35.40000 4.106
35.42000 3.225
35.44000 -1.872
35.46000 3.070
35.48000 1.930
35.50000 -0.180
35.52000 -3.219
35.54000 -1.528
35.56000 -1.254
35.58000 0.631
35.60000 5.478
35.62000 2.047
35.64000 0.207
35.66000 0.367
35.68000 0.782
35.70000 3.547
35.72000 5.528
35.74000 3.825
35.76000 7.754
35.78000 6.282
35.80000 6.261
35.82000 10.106
35.84000 5.068
35.86000 4.995
35.88000 4.228
35.90000 4.753
35.92000 4.136
35.94000 0.702
35.96000 -1.361
35.98000 1.301
36.00000 -0.384
36.02000 -3.587
36.04000 -1.875
36.06000 1.987
36.08000 4.900
36.10000 6.979
36.12000 4.263
36.14000 6.454
36.16000 6.354
36.18000 8.546
36.20000 9.079
36.22000 7.329
36.24000 5.615
36.26000 7.694
36.28000 7.109
36.30000 2.469
36.32000 1.063
36.34000 1.693
36.36000 4.398
36.38000 2.898
36.40000 -0.309
36.42000 -0.013
36.44000 2.431
36.46000 4.118
36.48000 5.339
36.50000 5.143
36.52000 2.644
36.54000 2.828
36.56000 4.040
36.58000 4.135
36.60000 1.740
36.62000 1.308
36.64000 4.514
36.66000 10.632
36.68000 4.521
36.70000 3.810
36.72000 7.069
36.74000 5.638
36.76000 3.415
36.78000 0.137
36.80000 4.570
36.82000 5.602
36.84000 7.837
36.86000 9.360
36.88000 9.710
36.90000 4.388
36.92000 2.872
36.94000 3.480
36.96000 8.013
36.98000 10.787
37.00000 9.582
37.02000 9.042
37.04000 14.170
37.06000 9.916
37.08000 15.232
37.10000 11.848
37.12000 13.623
37.14000 14.039
37.16000 13.183
37.18000 10.208
37.20000 9.299
37.22000 13.028
37.24000 12.908
37.26000 9.091
37.28000 7.652
37.30000 11.068
37.32000 9.318
37.34000 14.882
37.36000 17.598
37.38000 14.401
37.40000 15.110
37.42000 15.472
37.44000 17.229
37.46000 18.694
37.48000 18.265
37.50000 14.851
37.52000 15.576
37.54000 18.813
37.56000 18.376
37.58000 19.798
37.60000 26.009
37.62000 26.199
37.64000 19.047
37.66000 19.626
37.68000 20.518
37.70000 20.940
37.72000 26.575
37.74000 25.801
37.76000 26.442
37.78000 28.614
37.80000 30.098
37.82000 35.548
37.84000 27.898
37.86000 23.526
37.88000 28.115
37.90000 28.687
37.92000 32.720
37.94000 36.341
37.96000 39.244
37.98000 36.126
38.00000 38.613
38.02000 44.619
38.04000 40.563
38.06000 40.742
38.08000 40.504
38.10000 44.870
38.12000 48.985
38.14000 50.130
38.16000 51.871
38.18000 51.188
38.20000 56.360
38.22000 58.847
38.24000 61.075
38.26000 59.160
38.28000 61.479
38.30000 69.272
38.32000 69.414
38.34000 77.028
38.36000 80.395
38.38000 77.185
38.40000 80.551
38.42000 85.527
38.44000 92.034
38.46000 96.811
38.48000 96.845
38.50000 107.446
38.52000 120.594
38.54000 121.276
38.56000 125.541
38.58000 131.814
38.60000 143.241
38.62000 150.691
38.64000 163.800
38.66000 170.874
38.68000 177.930
38.70000 192.034
38.72000 201.860
38.74000 217.930
38.76000 230.360
38.78000 237.041
38.80000 248.767
38.82000 260.266
38.84000 282.298
38.86000 304.031
38.88000 314.805
38.90000 326.026
38.92000 345.072
38.94000 360.104
38.96000 367.959
38.98000 387.901
39.00000 405.637
39.02000 416.747
39.04000 420.407
39.06000 426.413
39.08000 431.744
39.10000 440.344
39.12000 448.617
39.14000 449.026
39.16000 455.652
39.18000 450.943
39.20000 439.027
39.22000 436.026
39.24000 427.656
39.26000 422.744
39.28000 401.178
39.30000 391.869
39.32000 383.201
39.34000 365.451
39.36000 346.701
39.38000 329.169
39.40000 317.674
39.42000 298.343
39.44000 287.060
39.46000 277.223
39.48000 259.843
39.50000 254.374
39.52000 238.249
39.54000 216.441
39.56000 206.014
39.58000 196.462
39.60000 184.038
39.62000 176.287
39.64000 160.536
39.66000 142.867
39.68000 133.107
39.70000 132.474
39.72000 126.848
39.74000 120.997
39.76000 113.086
39.78000 100.077
39.80000 92.498
39.82000 90.142
39.84000 89.186
39.86000 82.839
39.88000 73.818
39.90000 66.412
39.92000 65.346
39.94000 63.231
39.96000 58.050
39.98000 58.801
40.00000 58.940
40.02000 57.066
40.04000 51.780
40.06000 48.308
40.08000 46.209
40.10000 46.314
40.12000 42.911
40.14000 40.126
40.16000 38.511
40.18000 37.299
40.20000 36.261
40.22000 34.126
40.24000 30.924
40.26000 29.898
40.28000 28.538
40.30000 30.645
40.32000 25.229
40.34000 26.478
40.36000 23.839
40.38000 24.908
40.40000 21.709
40.42000 19.240
40.44000 24.149
40.46000 27.866
40.48000 27.423
40.50000 21.919
40.52000 23.522
40.54000 24.176
40.56000 20.731
40.58000 18.902
40.60000 20.611
40.62000 18.808
40.64000 18.964
40.66000 14.198
40.68000 16.854
40.70000 18.872
40.72000 18.376
40.74000 17.400
40.76000 14.133
40.78000 17.304
40.80000 15.397
40.82000 16.190
40.84000 17.111
40.86000 12.679
40.88000 9.322
40.90000 10.570
40.92000 6.695
40.94000 5.720
40.96000 6.826
40.98000 10.260
41.00000 13.293
41.02000 10.012
41.04000 11.851
41.06000 8.990
41.08000 8.808
41.10000 8.548
41.12000 9.280
41.14000 9.247
41.16000 8.959
41.18000 7.394
41.20000 4.698
41.22000 2.691
41.24000 5.543
41.26000 3.790
41.28000 4.765
41.30000 7.780
41.32000 5.478
41.34000 2.569
41.36000 3.766
41.38000 7.388
41.40000 4.736
41.42000 1.343
41.44000 -1.249
41.46000 2.622
41.48000 2.519
41.50000 3.671
41.52000 9.099
41.54000 6.734
41.56000 7.642
41.58000 1.549
41.60000 3.701
41.62000 1.094
41.64000 1.329
41.66000 8.705
41.68000 2.455
41.70000 -3.453
41.72000 1.566
41.74000 3.155
41.76000 2.327
41.78000 -0.527
41.80000 0.861
41.82000 3.709
41.84000 -0.306
41.86000 3.617
41.88000 5.357
41.90000 3.102
41.92000 -3.329
41.94000 -3.153
41.96000 -1.622
41.98000 1.373
42.00000 1.644
42.02000 1.769
42.04000 2.942
42.06000 2.412
42.08000 4.598
42.10000 0.009
42.12000 -0.780
42.14000 4.100
42.16000 2.573
42.18000 1.259
42.20000 1.722
42.22000 5.273
42.24000 3.567
42.26000 3.976
42.28000 -0.062
42.30000 -2.936
42.32000 -3.387
42.34000 1.137
42.36000 2.229
42.38000 0.261
42.40000 0.446
42.42000 -1.925
42.44000 -0.374
42.46000 4.027
42.48000 2.596
42.50000 4.157
42.52000 0.307
42.54000 -0.566
42.56000 3.556
42.58000 7.362
42.60000 4.007
42.62000 1.079
42.64000 -2.491
42.66000 -2.561
42.68000 -0.922
42.70000 2.709
42.72000 2.733
42.74000 0.489
42.76000 1.964
42.78000 1.435
42.80000 1.227
42.82000 2.103
42.84000 1.109
42.86000 0.972
42.88000 0.745
42.90000 -0.643
42.92000 -0.196
42.94000 1.735
42.96000 1.177
42.98000 2.880
43.00000 -1.226
43.02000 -2.381
43.04000 -3.317
43.06000 -0.894
43.08000 2.359
43.10000 5.488
43.12000 4.369
43.14000 3.755
43.16000 0.703
43.18000 0.533
43.20000 2.088
43.22000 -2.655
43.24000 -0.850
43.26000 -0.683
43.28000 -2.057
43.30000 -3.286
43.32000 -0.911
43.34000 1.643
43.36000 -0.483
43.38000 0.238
43.40000 1.061
43.42000 -1.086
43.44000 -0.389
43.46000 -0.042
43.48000 1.288
43.50000 3.054
43.52000 1.537
43.54000 -0.844
43.56000 -0.452
43.58000 -0.151
43.60000 1.252
43.62000 0.782
43.64000 0.421
43.66000 2.401
43.68000 2.338
43.70000 2.798
43.72000 4.270
43.74000 1.187
43.76000 -1.175
43.78000 0.444
43.80000 4.269
43.82000 0.372
43.84000 -0.046
43.86000 -2.214
43.88000 -1.827
43.90000 1.177
43.92000 -0.407
43.94000 -0.684
43.96000 -1.649
43.98000 1.007
44.00000 1.041
44.02000 0.055
44.04000 -2.859
44.06000 -0.509
44.08000 -0.575
44.10000 1.855
44.12000 1.724
44.14000 3.140
44.16000 3.035
44.18000 5.195
44.20000 2.868
44.22000 2.851
44.24000 3.768
44.26000 3.105
44.28000 1.687
44.30000 0.141
44.32000 3.819
44.34000 2.374
44.36000 3.788
44.38000 4.147
44.40000 3.379
44.42000 4.272
44.44000 3.024
44.46000 5.054
44.48000 6.193
44.50000 8.556
44.52000 5.932
44.54000 7.250
44.56000 3.935
44.58000 3.961
44.60000 6.129
44.62000 5.357
44.64000 7.818
44.66000 8.924
44.68000 10.639
44.70000 9.233
44.72000 9.111
44.74000 9.647
44.76000 12.115
44.78000 13.317
44.80000 8.991
44.82000 11.869
44.84000 14.465
44.86000 14.726
44.88000 16.449
44.90000 16.630
44.92000 18.210
44.94000 22.282
44.96000 22.376
44.98000 23.537
45.00000 22.108
45.02000 20.677
45.04000 24.736
45.06000 26.502
45.08000 25.287
45.10000 25.368
45.12000 31.474
45.14000 38.636
45.16000 42.888
45.18000 40.984
45.20000 37.316
45.22000 42.464
45.24000 39.455
45.26000 42.269
45.28000 40.985
45.30000 44.238
45.32000 47.901
45.34000 50.326
45.36000 50.766
45.38000 54.956
45.40000 56.499
45.42000 57.869
45.44000 58.375
45.46000 57.897
45.48000 63.652
45.50000 68.636
45.52000 63.884
45.54000 55.852
45.56000 60.655
45.58000 64.603
45.60000 66.225
45.62000 68.672
45.64000 68.983
45.66000 71.030
45.68000 70.908
45.70000 64.216
45.72000 61.972
45.74000 62.541
45.76000 63.369
45.78000 67.143
45.80000 64.945
45.82000 65.738
45.84000 63.837
45.86000 62.250
45.88000 60.234
45.90000 56.401
45.92000 52.137
45.94000 54.131
45.96000 49.539
45.98000 47.713
46.00000 48.984
46.02000 48.177
46.04000 43.401
46.06000 43.799
46.08000 43.810
46.10000 38.897
46.12000 39.938
46.14000 35.694
46.16000 34.526
46.18000 33.647
46.20000 29.870
46.22000 27.456
46.24000 25.400
46.26000 21.199
46.28000 23.768
46.30000 20.399
46.32000 19.310
46.34000 17.516
46.36000 16.496
46.38000 18.385
46.40000 15.034
46.42000 17.043
46.44000 16.255
46.46000 13.498
46.48000 6.063
46.50000 7.113
46.52000 11.082
46.54000 13.227
46.56000 10.806
46.58000 9.216
46.60000 10.323
46.62000 6.865
46.64000 3.288
46.66000 2.201
46.68000 0.961
46.70000 3.169
46.72000 6.960
46.74000 8.331
46.76000 6.108
46.78000 2.303
46.80000 -1.986
46.82000 -0.955
46.84000 0.793
46.86000 0.580
46.88000 2.794
46.90000 1.538
46.92000 0.172
46.94000 1.281
46.96000 -0.115
46.98000 -1.618
47.00000 -2.925
47.02000 -0.113
47.04000 2.238
47.06000 2.663
47.08000 3.622
47.10000 -0.307
47.12000 1.600
47.14000 0.636
47.16000 0.697
47.18000 -0.117
47.20000 -0.360
47.22000 2.382
47.24000 1.698
47.26000 -0.506
47.28000 -1.269
47.30000 3.279
47.32000 3.606
47.34000 1.493
47.36000 2.928
47.38000 5.906
47.40000 3.879
47.42000 4.209
47.44000 -2.429
47.46000 -1.287
47.48000 -1.278
47.50000 0.094
47.52000 -0.782
47.54000 2.802
47.56000 1.609
47.58000 4.197
47.60000 2.452
47.62000 3.230
47.64000 4.098
47.66000 0.886
47.68000 1.039
47.70000 0.522
47.72000 -2.846
47.74000 1.743
47.76000 0.444
47.78000 -1.054
47.80000 1.036
47.82000 0.521
47.84000 2.616
47.86000 2.445
47.88000 1.184
47.90000 0.108
47.92000 -0.244
47.94000 -2.664
47.96000 -1.598
47.98000 0.415
48.00000 -1.216
48.02000 -1.879
48.04000 1.453
48.06000 0.388
48.08000 -1.067
48.10000 3.748
48.12000 3.390
48.14000 2.525
48.16000 3.031
48.18000 1.367
48.20000 0.430
48.22000 3.072
48.24000 -0.082
48.26000 -0.668
48.28000 -0.611
48.30000 -1.222
48.32000 -1.451
48.34000 -0.768
48.36000 1.439
48.38000 -0.167
48.40000 -0.260
48.42000 -0.096
48.44000 -0.499
48.46000 -2.475
48.48000 -0.564
48.50000 -0.628
48.52000 -1.295
48.54000 0.783
48.56000 0.514
48.58000 -0.278
48.60000 -0.512
48.62000 -0.762
48.64000 -2.772
48.66000 3.812
48.68000 0.393
48.70000 -0.236
48.72000 -0.055
48.74000 4.007
48.76000 4.554
48.78000 0.275
48.80000 -0.064
48.82000 -1.877
48.84000 -2.751
48.86000 2.072
48.88000 5.751
48.90000 3.657
48.92000 0.147
48.94000 4.245
48.96000 0.324
48.98000 1.983
49.00000 0.091
49.02000 0.732
49.04000 1.728
49.06000 5.300
49.08000 0.612
49.10000 0.838
49.12000 0.353
49.14000 6.147
49.16000 1.463
49.18000 0.361
49.20000 -0.629
49.22000 -2.286
49.24000 2.292
49.26000 2.170
49.28000 2.034
49.30000 2.564
49.32000 1.627
49.34000 -0.934
49.36000 -0.010
49.38000 5.316
49.40000 0.155
49.42000 -2.613
49.44000 -1.727
49.46000 -2.210
49.48000 2.830
49.50000 1.982
49.52000 1.078
49.54000 -0.527
49.56000 -2.721
49.58000 0.701
49.60000 1.579
49.62000 0.966
49.64000 5.269
49.66000 4.561
49.68000 0.179
49.70000 -1.782
49.72000 4.287
49.74000 2.807
49.76000 0.643
49.78000 1.136
49.80000 3.122
49.82000 3.188
49.84000 -0.194
49.86000 1.333
49.88000 -0.594
49.90000 -2.696
49.92000 -2.247
49.94000 0.068
49.96000 1.806
49.98000 4.286
50.00000 4.676
50.02000 4.016
50.04000 -0.282
50.06000 -0.682
50.08000 0.431
50.10000 1.930
50.12000 1.104
50.14000 -1.713
50.16000 0.906
50.18000 5.184
50.20000 5.845
50.22000 5.143
50.24000 2.336
50.26000 3.262
50.28000 2.906
50.30000 -0.350
50.32000 0.890
50.34000 -0.072
50.36000 3.219
50.38000 3.742
50.40000 3.012
50.42000 3.211
50.44000 3.374
50.46000 1.998
50.48000 3.565
50.50000 2.671
50.52000 6.172
50.54000 3.567
50.56000 2.384
50.58000 6.923
50.60000 1.391
50.62000 2.553
50.64000 2.829
50.66000 -2.646
50.68000 -0.381
50.70000 2.125
50.72000 2.110
50.74000 1.435
50.76000 1.637
50.78000 2.405
50.80000 2.021
50.82000 1.639
50.84000 1.574
50.86000 1.295
50.88000 2.595
50.90000 0.933
50.92000 0.871
50.94000 -0.026
50.96000 -0.562
50.98000 2.385
51.00000 5.397
51.02000 4.267
51.04000 4.479
51.06000 2.743
51.08000 2.731
51.10000 4.552
51.12000 2.869
51.14000 6.187
51.16000 0.259
51.18000 0.840
51.20000 2.451
51.22000 3.559
51.24000 0.228
51.26000 0.719
51.28000 3.957
51.30000 6.373
51.32000 4.473
51.34000 2.592
51.36000 8.495
51.38000 4.407
51.40000 -2.610
51.42000 1.585
51.44000 3.784
51.46000 4.185
51.48000 3.013
51.50000 6.732
51.52000 5.166
51.54000 -1.117
51.56000 2.078
51.58000 1.495
51.60000 3.085
51.62000 1.959
51.64000 5.389
51.66000 5.742
51.68000 1.987
51.70000 6.656
51.72000 7.332
51.74000 5.163
51.76000 1.598
51.78000 3.907
51.80000 2.618
51.82000 0.874
51.84000 1.623
51.86000 0.628
51.88000 2.936
51.90000 9.125
51.92000 6.458
51.94000 4.207
51.96000 1.589
51.98000 5.064
52.00000 6.327
52.02000 1.629
52.04000 2.251
52.06000 1.985
52.08000 5.318
52.10000 3.862
52.12000 3.132
52.14000 4.368
52.16000 8.785
52.18000 5.315
52.20000 2.014
52.22000 0.333
52.24000 -1.226
52.26000 0.279
52.28000 -0.576
52.30000 -0.784
52.32000 0.627
52.34000 3.842
52.36000 8.952
52.38000 10.613
52.40000 6.313
52.42000 4.699
52.44000 6.201
52.46000 6.579
52.48000 2.096
52.50000 1.169
52.52000 7.608
52.54000 3.903
52.56000 1.482
52.58000 1.099
52.60000 -0.679
52.62000 -0.358
52.64000 1.872
52.66000 5.421
52.68000 4.438
52.70000 3.078
52.72000 3.273
52.74000 1.259
52.76000 3.154
52.78000 4.563
52.80000 3.514
52.82000 0.931
52.84000 4.059
52.86000 5.207
52.88000 1.239
52.90000 4.390
52.92000 8.235
52.94000 9.440
52.96000 6.580
52.98000 3.394
53.00000 -0.589
53.02000 2.076
53.04000 4.632
53.06000 3.462
53.08000 6.407
53.10000 4.412
53.12000 -2.550
53.14000 -0.992
53.16000 3.433
53.18000 2.077
53.20000 4.354
53.22000 5.156
53.24000 6.524
53.26000 8.036
53.28000 2.773
53.30000 2.919
53.32000 3.054
53.34000 5.738
53.36000 6.851
53.38000 7.320
53.40000 4.111
53.42000 3.145
53.44000 4.150
53.46000 8.062
53.48000 5.704
53.50000 2.412
53.52000 4.510
53.54000 7.016
53.56000 1.615
53.58000 4.055
53.60000 3.527
53.62000 2.103
53.64000 4.844
53.66000 2.345
53.68000 4.883
53.70000 3.019
53.72000 3.542
53.74000 2.808
53.76000 5.178
53.78000 7.195
53.80000 2.897
53.82000 1.333
53.84000 1.689
53.86000 3.639
53.88000 0.837
53.90000 2.136
53.92000 6.166
53.94000 2.050
53.96000 3.274
53.98000 5.998
54.00000 4.829
54.02000 4.891
54.04000 3.745
54.06000 3.839
54.08000 0.793
54.10000 0.188
54.12000 3.294
54.14000 4.674
54.16000 5.285
54.18000 -0.622
54.20000 3.532
54.22000 3.151
54.24000 0.857
54.26000 3.409
54.28000 4.508
54.30000 2.540
54.32000 4.278
54.34000 5.479
54.36000 2.975
54.38000 3.374
54.40000 2.269
54.42000 2.591
54.44000 4.203
54.46000 1.374
54.48000 -1.181
54.50000 0.149
54.52000 4.915
54.54000 2.601
54.56000 1.206
54.58000 5.440
54.60000 6.493
54.62000 1.703
54.64000 4.721
54.66000 6.322
54.68000 2.736
54.70000 3.440
54.72000 2.648
54.74000 2.138
54.76000 2.130
54.78000 1.209
54.80000 2.784
54.82000 5.462
54.84000 4.141
54.86000 0.103
54.88000 1.391
54.90000 -0.443
54.92000 0.008
54.94000 1.976
54.96000 9.261
54.98000 1.837
55.00000 -2.505
55.02000 2.338
55.04000 7.138
55.06000 3.545
55.08000 2.021
55.10000 2.324
55.12000 1.900
55.14000 -0.170
55.16000 2.658
55.18000 8.939
55.20000 7.037
55.22000 4.232
55.24000 3.140
55.26000 2.419
55.28000 0.704
55.30000 -0.714
55.32000 0.796
55.34000 3.862
55.36000 2.773
55.38000 0.936
55.40000 3.792
55.42000 10.165
55.44000 5.436
55.46000 2.355
55.48000 0.140
55.50000 2.828
55.52000 6.457
55.54000 4.929
55.56000 4.641
55.58000 1.746
55.60000 2.354
55.62000 6.082
55.64000 4.737
55.66000 3.268
55.68000 4.597
55.70000 4.933
55.72000 -1.293
55.74000 1.434
55.76000 0.320
55.78000 1.277
55.80000 2.126
55.82000 1.924
55.84000 2.558
55.86000 2.528
55.88000 4.089
55.90000 5.811
55.92000 4.856
55.94000 0.738
55.96000 2.697
55.98000 6.271
56.00000 1.057
56.02000 0.939
56.04000 2.818
56.06000 3.895
56.08000 5.076
56.10000 2.553
56.12000 -0.718
56.14000 2.392
56.16000 1.025
56.18000 1.756
56.20000 4.574
56.22000 5.944
56.24000 4.679
56.26000 6.711
56.28000 4.723
56.30000 5.858
56.32000 3.541
56.34000 -0.154
56.36000 1.425
56.38000 2.278
56.40000 -0.180
56.42000 1.048
56.44000 2.799
56.46000 5.677
56.48000 2.594
56.50000 2.602
56.52000 2.350
56.54000 2.489
56.56000 1.476
56.58000 -1.100
56.60000 -2.482
56.62000 1.117
56.64000 4.901
56.66000 3.474
56.68000 2.877
56.70000 3.227
56.72000 5.907
56.74000 3.975
56.76000 4.213
56.78000 1.003
56.80000 -0.907
56.82000 1.523
56.84000 3.072
56.86000 4.533
56.88000 4.028
56.90000 5.943
56.92000 6.451
56.94000 6.069
56.96000 5.156
56.98000 0.485
57.00000 -0.493
57.02000 -0.145
57.04000 3.774
57.06000 4.211
57.08000 7.441
57.10000 3.981
57.12000 3.691
57.14000 3.330
57.16000 3.753
57.18000 5.335
57.20000 3.117
57.22000 4.496
57.24000 1.157
57.26000 1.264
57.28000 5.284
57.30000 7.675
57.32000 7.430
57.34000 2.353
57.36000 -1.176
57.38000 -1.752
57.40000 4.345
57.42000 7.038
57.44000 2.676
57.46000 0.794
57.48000 5.542
57.50000 1.880
57.52000 -1.092
57.54000 2.527
57.56000 2.725
57.58000 4.415
57.60000 4.565
57.62000 6.600
57.64000 6.451
57.66000 2.622
57.68000 3.060
57.70000 3.230
57.72000 2.669
57.74000 5.136
57.76000 1.990
57.78000 3.739
57.80000 0.254
57.82000 -2.451
57.84000 1.488
57.86000 3.409
57.88000 4.986
57.90000 4.028
57.92000 2.221
57.94000 2.414
57.96000 1.185
57.98000 -0.722
58.00000 -1.020
58.02000 3.647
58.04000 5.472
58.06000 4.353
58.08000 3.161
58.10000 8.294
58.12000 4.278
58.14000 2.761
58.16000 4.564
58.18000 5.323
58.20000 4.061
58.22000 2.170
58.24000 4.457
58.26000 4.242
58.28000 2.570
58.30000 1.516
58.32000 -0.179
58.34000 -0.845
58.36000 1.133
58.38000 2.484
58.40000 -0.104
58.42000 3.306
58.44000 4.590
58.46000 4.476
58.48000 2.272
58.50000 5.868
58.52000 6.924
58.54000 5.615
58.56000 8.413
58.58000 5.053
58.60000 0.945
58.62000 2.384
58.64000 3.705
58.66000 4.547
58.68000 3.471
58.70000 1.915
58.72000 -0.687
58.74000 -1.563
58.76000 -0.258
58.78000 0.394
58.80000 0.571
58.82000 0.632
58.84000 -1.414
58.86000 0.997
58.88000 -0.461
58.90000 -2.432
58.92000 1.281
58.94000 3.028
58.96000 1.248
58.98000 4.296
59.00000 2.041
59.02000 1.571
59.04000 2.566
59.06000 1.747
59.08000 1.229
59.10000 2.069
59.12000 4.534
59.14000 3.013
59.16000 3.593
59.18000 5.567
59.20000 1.670
59.22000 0.088
59.24000 3.833
59.26000 3.074
59.28000 3.460
59.30000 -1.013
59.32000 -1.984
59.34000 1.552
59.36000 2.894
59.38000 -0.276
59.40000 1.288
59.42000 -0.970
59.44000 -1.568
59.46000 -1.588
59.48000 0.829
59.50000 1.124
59.52000 -1.835
59.54000 -0.401
59.56000 3.607
59.58000 1.940
59.60000 2.962
59.62000 2.845
59.64000 2.472
59.66000 2.186
59.68000 2.263
59.70000 3.563
59.72000 3.945
59.74000 7.346
59.76000 1.713
59.78000 4.410
59.80000 5.195
59.82000 4.807
59.84000 2.652
59.86000 -1.938
59.88000 -2.390
59.90000 -0.149
59.92000 1.879
59.94000 5.726
59.96000 8.150
59.98000 5.211
60.00000 4.383
60.02000 5.192
60.04000 8.836
60.06000 4.166
60.08000 0.179
60.10000 1.351
60.12000 3.308
60.14000 2.940
60.16000 0.454
60.18000 2.809
60.20000 4.604
60.22000 3.896
60.24000 2.764
60.26000 3.866
60.28000 3.501
60.30000 4.100
60.32000 0.468
60.34000 -1.987
60.36000 0.105
60.38000 0.072
60.40000 1.337
60.42000 1.033
60.44000 -1.077
60.46000 -1.904
60.48000 -1.083
60.50000 3.615
60.52000 1.984
60.54000 -1.803
60.56000 -0.163
60.58000 0.230
60.60000 2.338
60.62000 4.034
60.64000 3.576
60.66000 1.397
60.68000 -0.112
60.70000 -0.907
60.72000 -1.638
60.74000 -1.540
60.76000 -0.170
60.78000 -0.449
60.80000 0.389
60.82000 3.280
60.84000 1.232
60.86000 2.748
60.88000 2.145
60.90000 0.296
60.92000 2.668
60.94000 2.793
60.96000 -0.100
60.98000 -1.586
61.00000 0.205
61.02000 0.232
61.04000 -0.062
61.06000 1.060
61.08000 1.496
61.10000 0.916
61.12000 0.910
61.14000 0.286
61.16000 3.247
61.18000 -0.287
61.20000 0.282
61.22000 4.313
61.24000 1.850
61.26000 4.466
61.28000 4.104
61.30000 3.636
61.32000 5.260
61.34000 7.312
61.36000 4.873
61.38000 2.884
61.40000 4.667
61.42000 5.385
61.44000 9.011
61.46000 6.654
61.48000 0.275
61.50000 -0.855
61.52000 -2.312
61.54000 0.126
61.56000 0.445
61.58000 2.399
61.60000 2.249
61.62000 3.062
61.64000 2.987
61.66000 4.577
61.68000 3.379
61.70000 0.112
61.72000 -0.334
61.74000 2.315
61.76000 0.178
61.78000 1.215
61.80000 4.641
61.82000 5.148
61.84000 2.627
61.86000 3.168
61.88000 4.793
61.90000 3.267
61.92000 1.917
61.94000 1.695
61.96000 5.469
61.98000 5.613
62.00000 4.467
62.02000 5.426
62.04000 1.852
62.06000 -1.126
62.08000 1.180
62.10000 2.880
62.12000 2.234
62.14000 1.544
62.16000 1.839
62.18000 2.247
62.20000 2.204
62.22000 -0.068
62.24000 1.573
62.26000 1.860
62.28000 1.095
62.30000 -1.111
62.32000 2.456
62.34000 3.126
62.36000 2.573
62.38000 5.004
62.40000 4.158
62.42000 3.356
62.44000 5.334
62.46000 2.233
62.48000 1.779
62.50000 1.170
62.52000 -2.326
62.54000 1.058
62.56000 1.998
62.58000 2.601
62.60000 3.542
62.62000 1.205
62.64000 3.026
62.66000 2.453
62.68000 -0.782
62.70000 0.327
62.72000 -1.102
62.74000 -0.580
62.76000 -1.480
62.78000 -0.465
62.80000 1.541
62.82000 2.599
62.84000 0.392
62.86000 1.242
62.88000 0.426
62.90000 0.460
62.92000 4.148
62.94000 3.176
62.96000 0.781
62.98000 4.503
63.00000 1.976
63.02000 -1.774
63.04000 -1.260
63.06000 -0.168
63.08000 2.175
63.10000 0.186
63.12000 -0.703
63.14000 -0.686
63.16000 0.504
63.18000 0.039
63.20000 2.471
63.22000 4.548
63.24000 3.306
63.26000 3.427
63.28000 1.704
63.30000 0.801
63.32000 1.573
63.34000 1.507
63.36000 -0.556
63.38000 -1.339
63.40000 3.543
63.42000 3.513
63.44000 1.061
63.46000 0.344
63.48000 -1.385
63.50000 0.511
63.52000 3.582
63.54000 2.030
63.56000 3.509
63.58000 -0.875
63.60000 -1.278
63.62000 0.522
63.64000 0.988
63.66000 2.423
63.68000 1.932
63.70000 3.202
63.72000 2.517
63.74000 2.479
63.76000 3.736
63.78000 4.287
63.80000 2.624
63.82000 5.140
63.84000 3.186
63.86000 2.503
63.88000 1.861
63.90000 1.100
63.92000 1.893
63.94000 2.790
63.96000 -0.744
63.98000 -1.487
64.00000 1.992
64.02000 3.397
64.04000 0.973
64.06000 0.337
64.08000 -0.746
64.10000 1.179
64.12000 4.210
64.14000 3.140
64.16000 2.580
64.18000 3.270
64.20000 5.136
64.22000 0.902
64.24000 -2.264
64.26000 0.052
64.28000 2.390
64.30000 2.800
64.32000 1.538
64.34000 4.109
64.36000 2.410
64.38000 1.097
64.40000 2.907
64.42000 4.225
64.44000 4.869
64.46000 7.791
64.48000 5.496
64.50000 3.150
64.52000 3.428
64.54000 2.286
64.56000 1.775
64.58000 2.259
64.60000 3.445
64.62000 6.064
64.64000 5.451
64.66000 4.300
64.68000 6.102
64.70000 2.880
64.72000 1.516
64.74000 2.755
64.76000 1.590
64.78000 1.167
64.80000 2.012
64.82000 4.999
64.84000 4.630
64.86000 2.830
64.88000 2.728
64.90000 2.435
64.92000 2.893
64.94000 2.792
64.96000 1.925
64.98000 2.645
65.00000 5.477
65.02000 5.497
65.04000 2.400
65.06000 -2.273
65.08000 -0.068
65.10000 3.172
65.12000 4.072
65.14000 5.464
65.16000 3.972
65.18000 1.964
65.20000 2.489
65.22000 4.165
65.24000 1.542
65.26000 0.326
65.28000 2.671
65.30000 2.654
65.32000 3.793
65.34000 2.432
65.36000 3.695
65.38000 1.604
65.40000 3.866
65.42000 6.909
65.44000 2.776
65.46000 -0.716
65.48000 0.258
65.50000 1.530
65.52000 2.170
65.54000 1.037
65.56000 -0.628
65.58000 0.883
65.60000 3.481
65.62000 4.111
65.64000 1.109
65.66000 0.429
65.68000 0.898
65.70000 4.758
65.72000 4.610
65.74000 2.501
65.76000 1.710
65.78000 5.238
65.80000 3.555
65.82000 1.420
65.84000 1.307
65.86000 1.448
65.88000 1.152
65.90000 3.179
65.92000 4.873
65.94000 3.167
65.96000 4.712
65.98000 4.094
66.00000 2.611
66.02000 0.711
66.04000 0.934
66.06000 -1.400
66.08000 1.335
66.10000 6.237
66.12000 4.987
66.14000 4.122
66.16000 3.726
66.18000 2.824
66.20000 1.500
66.22000 2.143
66.24000 1.160
66.26000 4.213
66.28000 4.937
66.30000 3.645
66.32000 1.859
66.34000 3.548
66.36000 3.680
66.38000 2.587
66.40000 3.128
66.42000 3.248
66.44000 4.754
66.46000 4.930
66.48000 5.307
66.50000 4.685
66.52000 3.560
66.54000 5.965
66.56000 6.192
66.58000 3.615
66.60000 3.702
66.62000 4.584
66.64000 2.919
66.66000 4.779
66.68000 5.713
66.70000 5.357
66.72000 2.564
66.74000 -0.084
66.76000 2.744
66.78000 6.153
66.80000 4.947
66.82000 2.596
66.84000 -0.251
66.86000 1.881
66.88000 2.687
66.90000 1.782
66.92000 2.115
66.94000 3.811
66.96000 3.986
66.98000 1.091
67.00000 3.520
67.02000 0.728
67.04000 3.272
67.06000 2.697
67.08000 5.483
67.10000 2.517
67.12000 2.081
67.14000 0.605
67.16000 0.061
67.18000 -0.891
67.20000 -1.013
67.22000 2.270
67.24000 3.852
67.26000 2.880
67.28000 0.849
67.30000 1.158
67.32000 0.707
67.34000 2.766
67.36000 4.011
67.38000 1.832
67.40000 -0.089
67.42000 -0.455
67.44000 -2.230
67.46000 -0.136
67.48000 0.762
67.50000 0.544
67.52000 -0.091
67.54000 1.744
67.56000 2.378
67.58000 3.024
67.60000 3.328
67.62000 1.935
67.64000 -0.023
67.66000 0.474
67.68000 -1.059
67.70000 -1.664
67.72000 1.135
67.74000 1.694
67.76000 0.605
67.78000 3.430
67.80000 2.827
67.82000 0.551
67.84000 -1.971
67.86000 0.909
67.88000 1.873
67.90000 2.668
67.92000 2.096
67.94000 0.538
67.96000 -0.872
67.98000 0.650
68.00000 1.128
68.02000 -0.862
68.04000 -2.186
68.06000 -0.977
68.08000 3.131
68.10000 3.113
68.12000 2.376
68.14000 2.712
68.16000 2.429
68.18000 -0.032
68.20000 0.565
68.22000 3.390
68.24000 4.158
68.26000 3.430
68.28000 5.661
68.30000 5.672
68.32000 3.801
68.34000 2.610
68.36000 3.662
68.38000 2.109
68.40000 -2.174
68.42000 -0.244
68.44000 2.272
68.46000 4.520
68.48000 4.225
68.50000 1.096
68.52000 0.914
68.54000 2.919
68.56000 3.831
68.58000 3.120
68.60000 4.238
68.62000 3.260
68.64000 0.939
68.66000 2.024
68.68000 2.150
68.70000 0.365
68.72000 1.091
68.74000 2.262
68.76000 2.322
68.78000 1.259
68.80000 2.806
68.82000 1.926
68.84000 2.026
68.86000 0.389
68.88000 -1.582
68.90000 -0.877
68.92000 0.788
68.94000 1.642
68.96000 0.043
68.98000 2.579
69.00000 2.355
69.02000 2.214
69.04000 3.702
69.06000 3.972
69.08000 2.650
69.10000 0.970
69.12000 0.431
69.14000 2.881
69.16000 4.271
69.18000 1.397
69.20000 -1.071
69.22000 1.377
69.24000 4.234
69.26000 1.989
69.28000 3.430
69.30000 1.765
69.32000 0.602
69.34000 2.204
69.36000 2.008
69.38000 -1.514
69.40000 -2.115
69.42000 1.696
69.44000 0.595
69.46000 -1.727
69.48000 0.587
69.50000 1.078
69.52000 0.849
69.54000 1.034
69.56000 2.046
69.58000 0.107
69.60000 1.333
69.62000 3.179
69.64000 1.765
69.66000 -0.252
69.68000 2.425
69.70000 2.105
69.72000 1.612
69.74000 2.871
69.76000 1.700
69.78000 1.038
69.80000 0.705
69.82000 1.198
69.84000 0.084
69.86000 1.922
69.88000 0.320
69.90000 -0.420
69.92000 -0.352
69.94000 0.204
69.96000 0.432
69.98000 -0.651
70.00000 -0.330
70.02000 0.038
70.04000 -1.964
70.06000 -2.114
70.08000 -0.269
70.10000 1.047
70.12000 0.868
70.14000 1.421
70.16000 -1.170
70.18000 -1.888
70.20000 0.643
70.22000 1.306
70.24000 0.894
70.26000 0.505
70.28000 2.505
70.30000 2.463
70.32000 0.613
70.34000 1.881
70.36000 0.771
70.38000 1.645
70.40000 1.434
70.42000 1.374
70.44000 1.189
70.46000 0.835
70.48000 1.999
70.50000 1.420
70.52000 -0.058
70.54000 -0.576
70.56000 1.039
70.58000 0.744
70.60000 0.095
70.62000 1.192
70.64000 1.506
70.66000 0.768
70.68000 -2.013
70.70000 -2.093
70.72000 -1.423
70.74000 3.143
70.76000 0.579
70.78000 1.559
70.80000 2.217
70.82000 1.392
70.84000 3.124
70.86000 2.639
70.88000 2.062
70.90000 0.209
70.92000 0.655
70.94000 -0.096
70.96000 -0.969
70.98000 2.626
71.00000 1.204
71.02000 0.660
71.04000 1.063
71.06000 -0.004
71.08000 1.635
71.10000 0.539
71.12000 -1.337
71.14000 -1.250
71.16000 -0.747
71.18000 0.772
71.20000 1.347
71.22000 1.571
71.24000 2.478
71.26000 2.654
71.28000 2.609
71.30000 5.703
71.32000 4.609
71.34000 1.904
71.36000 -1.698
71.38000 -0.464
71.40000 -1.147
71.42000 -0.931
71.44000 -0.523
71.46000 -1.333
71.48000 -1.012
71.50000 -1.340
71.52000 1.251
71.54000 -0.100
71.56000 1.467
71.58000 0.077
71.60000 2.445
71.62000 1.255
71.64000 1.338
71.66000 0.896
71.68000 0.769
71.70000 -0.951
71.72000 1.436
71.74000 1.216
71.76000 -2.081
71.78000 -0.979
71.80000 -0.493
71.82000 1.841
71.84000 -0.937
71.86000 -0.113
71.88000 0.484
71.90000 3.392
71.92000 1.820
71.94000 1.906
71.96000 1.997
71.98000 -0.363
72.00000 1.004
72.02000 1.942
72.04000 1.378
72.06000 2.008
72.08000 1.484
72.10000 0.050
72.12000 0.502
72.14000 0.697
72.16000 0.738
72.18000 3.196
72.20000 4.608
72.22000 3.249
72.24000 1.662
72.26000 -1.984
72.28000 -2.048
72.30000 2.046
72.32000 1.430
72.34000 2.775
72.36000 -0.191
72.38000 2.145
72.40000 6.287
72.42000 3.511
72.44000 1.153
72.46000 1.343
72.48000 2.273
72.50000 3.123
72.52000 -0.719
72.54000 1.229
72.56000 0.882
72.58000 0.247
72.60000 -2.036
72.62000 0.732
72.64000 -1.401
72.66000 -0.874
72.68000 -1.105
72.70000 1.638
72.72000 2.375
72.74000 1.073
72.76000 2.312
72.78000 -0.511
72.80000 2.244
72.82000 2.694
72.84000 0.262
72.86000 -1.396
72.88000 -0.586
72.90000 1.195
72.92000 2.510
72.94000 3.422
72.96000 1.989
72.98000 3.477
73.00000 3.264
73.02000 2.975
73.04000 1.476
73.06000 0.671
73.08000 2.231
73.10000 4.128
73.12000 2.705
73.14000 -0.511
73.16000 -0.639
73.18000 1.429
73.20000 0.182
73.22000 1.421
73.24000 3.017
73.26000 0.349
73.28000 1.192
73.30000 0.804
73.32000 4.081
73.34000 6.073
73.36000 3.884
73.38000 1.049
73.40000 0.280
73.42000 1.353
73.44000 0.662
73.46000 0.521
73.48000 -2.018
73.50000 0.552
73.52000 -0.568
73.54000 -0.128
73.56000 0.414
73.58000 -0.902
73.60000 0.855
73.62000 1.052
73.64000 -1.961
73.66000 0.066
73.68000 0.232
73.70000 1.542
73.72000 2.302
73.74000 2.511
73.76000 2.560
73.78000 0.343
73.80000 1.802
73.82000 4.309
73.84000 3.811
73.86000 0.996
73.88000 2.256
73.90000 2.868
73.92000 0.123
73.94000 -1.840
73.96000 0.913
73.98000 1.461
74.00000 3.418
74.02000 4.116
74.04000 2.065
74.06000 2.353
74.08000 1.369
74.10000 -2.005
74.12000 -1.657
74.14000 0.142
74.16000 1.714
74.18000 2.301
74.20000 0.687
74.22000 2.616
74.24000 4.329
74.26000 4.502
74.28000 1.347
74.30000 1.419
74.32000 2.496
74.34000 2.173
74.36000 3.631
74.38000 2.610
74.40000 -2.011
74.42000 0.041
74.44000 3.578
74.46000 4.503
74.48000 4.678
74.50000 1.684
74.52000 -0.863
74.54000 1.717
74.56000 1.155
74.58000 0.529
74.60000 -0.341
74.62000 0.284
74.64000 1.104
74.66000 2.173
74.68000 2.389
74.70000 0.247
74.72000 0.795
74.74000 -0.097
74.76000 -0.799
74.78000 -1.449
74.80000 -0.238
74.82000 0.842
74.84000 2.296
74.86000 2.955
74.88000 2.573
74.90000 3.219
74.92000 5.462
74.94000 1.729
74.96000 1.497
74.98000 1.117
75.00000 0.135
75.02000 -1.272
75.04000 1.659
75.06000 3.288
75.08000 3.189
75.10000 1.034
75.12000 -0.697
75.14000 1.747
75.16000 0.541
75.18000 0.095
75.20000 -0.807
75.22000 -0.888
75.24000 -0.589
75.26000 0.359
75.28000 1.628
75.30000 -0.696
75.32000 1.309
75.34000 1.009
75.36000 4.534
75.38000 5.866
75.40000 5.516
75.42000 4.395
75.44000 4.123
75.46000 1.018
75.48000 -1.912
75.50000 -1.197
75.52000 -1.182
75.54000 -1.269
75.56000 -0.393
75.58000 -0.632
75.60000 1.216
75.62000 1.619
75.64000 -2.042
75.66000 -1.658
75.68000 -1.575
75.70000 -1.108
75.72000 -0.445
75.74000 3.072
75.76000 0.885
75.78000 2.186
75.80000 1.569
75.82000 1.938
75.84000 4.000
75.86000 3.375
75.88000 5.110
75.90000 2.362
75.92000 2.835
75.94000 3.236
75.96000 -0.046
75.98000 1.380
76.00000 3.030
76.02000 2.310
76.04000 -1.201
76.06000 1.517
76.08000 -0.001
76.10000 1.213
76.12000 6.026
76.14000 0.826
76.16000 1.529
76.18000 2.459
76.20000 4.222
76.22000 3.715
76.24000 1.321
76.26000 3.299
76.28000 5.754
76.30000 4.065
76.32000 4.043
76.34000 1.268
76.36000 0.595
76.38000 0.940
76.40000 0.328
76.42000 1.964
76.44000 4.514
76.46000 1.568
76.48000 -1.009
76.50000 -2.029
76.52000 -0.273
76.54000 1.028
76.56000 3.036
76.58000 5.846
76.60000 5.003
76.62000 2.945
76.64000 1.290
76.66000 2.049
76.68000 2.270
76.70000 1.308
76.72000 4.282
76.74000 0.423
76.76000 1.991
76.78000 1.439
76.80000 2.273
76.82000 -0.646
76.84000 -1.756
76.86000 4.026
76.88000 0.867
76.90000 0.115
76.92000 -0.290
76.94000 1.648
76.96000 0.224
76.98000 0.868
77.00000 -0.178
77.02000 1.616
77.04000 -0.440
77.06000 1.140
77.08000 -0.221
77.10000 1.977
77.12000 3.701
77.14000 1.454
77.16000 1.721
77.18000 1.765
77.20000 -0.408
77.22000 1.195
77.24000 -0.782
77.26000 -0.197
77.28000 0.469
77.30000 5.388
77.32000 2.986
77.34000 4.069
77.36000 1.850
77.38000 3.206
77.40000 1.626
77.42000 3.074
77.44000 5.521
77.46000 0.834
77.48000 1.905
77.50000 2.322
77.52000 2.707
77.54000 0.512
77.56000 5.747
77.58000 4.153
77.60000 2.009
77.62000 -0.965
77.64000 1.461
77.66000 1.885
77.68000 2.572
77.70000 6.050
77.72000 5.378
77.74000 2.864
77.76000 2.594
77.78000 -0.250
77.80000 -1.665
77.82000 -1.362
77.84000 1.798
77.86000 2.320
77.88000 1.475
77.90000 0.648
77.92000 -1.348
77.94000 -0.888
77.96000 2.781
77.98000 2.143
78.00000 0.501
78.02000 0.823
78.04000 3.572
78.06000 3.724
78.08000 2.138
78.10000 -0.758
78.12000 -2.120
78.14000 1.661
78.16000 1.805
78.18000 4.369
78.20000 5.368
78.22000 4.059
78.24000 3.068
78.26000 3.105
78.28000 4.767
78.30000 2.445
78.32000 3.457
78.34000 4.897
78.36000 3.428
78.38000 2.588
78.40000 1.868
78.42000 3.158
78.44000 3.361
78.46000 0.261
78.48000 0.398
78.50000 2.188
78.52000 0.392
78.54000 -0.473
78.56000 -2.137
78.58000 -0.485
78.60000 3.394
78.62000 6.924
78.64000 3.918
78.66000 5.278
78.68000 4.434
78.70000 4.247
78.72000 3.729
78.74000 5.070
78.76000 1.270
78.78000 0.855
78.80000 1.349
78.82000 3.161
78.84000 6.017
78.86000 3.491
78.88000 0.627
78.90000 3.246
78.92000 0.114
78.94000 0.839
78.96000 8.326
78.98000 10.952
79.00000 8.411
79.02000 5.473
79.04000 3.950
79.06000 6.195
79.08000 6.783
79.10000 6.209
79.12000 11.570
79.14000 12.652
79.16000 10.024
79.18000 9.592
79.20000 9.200
79.22000 7.776
79.24000 5.580
79.26000 7.710
79.28000 7.863
79.30000 7.691
79.32000 10.657
79.34000 9.106
79.36000 12.138
79.38000 11.048
79.40000 10.618
79.42000 7.901
79.44000 9.090
79.46000 9.976
79.48000 12.398
79.50000 15.639
79.52000 14.306
79.54000 14.060
79.56000 13.880
79.58000 13.371
79.60000 15.395
79.62000 18.229
79.64000 15.834
79.66000 17.162
79.68000 18.158
79.70000 16.531
79.72000 14.608
79.74000 15.776
79.76000 16.662
79.78000 17.413
79.80000 15.437
79.82000 16.277
79.84000 16.614
79.86000 19.470
79.88000 20.002
79.90000 16.022
79.92000 15.214
79.94000 17.456
79.96000 16.813
79.98000 16.109
80.00000 18.819
80.02000 18.283
80.04000 16.930
80.06000 15.306
80.08000 15.950
80.10000 17.556
80.12000 18.435
80.14000 14.071
80.16000 14.898
80.18000 15.167
80.20000 19.241
80.22000 18.197
80.24000 16.449
80.26000 19.002
80.28000 13.953
80.30000 11.601
80.32000 12.735
80.34000 15.412
80.36000 19.089
80.38000 15.199
80.40000 9.693
80.42000 12.585
80.44000 10.981
80.46000 9.449
80.48000 11.336
80.50000 9.187
80.52000 5.674
80.54000 9.155
80.56000 14.202
80.58000 11.247
80.60000 6.302
80.62000 8.128
80.64000 9.462
80.66000 4.671
80.68000 8.654
80.70000 10.920
80.72000 9.813
80.74000 8.019
80.76000 3.318
80.78000 3.419
80.80000 3.606
80.82000 1.421
80.84000 0.971
80.86000 1.539
80.88000 3.454
80.90000 4.794
80.92000 2.986
80.94000 2.281
80.96000 5.058
80.98000 6.246
81.00000 6.309
81.02000 4.830
81.04000 2.776
81.06000 2.477
81.08000 1.402
81.10000 5.031
81.12000 6.547
81.14000 2.823
81.16000 0.401
81.18000 2.217
81.20000 1.681
81.22000 3.179
81.24000 0.187
81.26000 -1.246
81.28000 0.619
81.30000 0.349
81.32000 0.111
81.34000 0.986
81.36000 0.767
81.38000 2.751
81.40000 3.640
81.42000 0.592
81.44000 -0.777
81.46000 1.159
81.48000 -1.408
81.50000 2.018
81.52000 2.489
81.54000 1.203
81.56000 1.780
81.58000 2.750
81.60000 0.003
81.62000 -2.265
81.64000 1.651
81.66000 1.943
81.68000 5.644
81.70000 5.738
81.72000 4.114
81.74000 6.842
81.76000 4.711
81.78000 0.234
81.80000 0.583
81.82000 1.329
81.84000 4.539
81.86000 1.230
81.88000 1.422
81.90000 4.219
81.92000 2.627
81.94000 0.003
81.96000 -1.157
81.98000 -0.239
82.00000 3.632
82.02000 8.740
82.04000 4.349
82.06000 6.315
82.08000 4.834
82.10000 2.374
82.12000 3.798
82.14000 3.692
82.16000 2.692
82.18000 6.825
82.20000 5.813
82.22000 1.492
82.24000 -0.562
82.26000 0.671
82.28000 1.363
82.30000 2.366
82.32000 2.142
82.34000 2.886
82.36000 0.347
82.38000 2.733
82.40000 5.427
82.42000 2.809
82.44000 5.272
82.46000 3.327
82.48000 4.603
82.50000 4.655
82.52000 7.504
82.54000 5.924
82.56000 7.399
82.58000 5.875
82.60000 3.135
82.62000 5.050
82.64000 6.269
82.66000 7.950
82.68000 9.482
82.70000 7.481
82.72000 6.196
82.74000 10.865
82.76000 10.530
82.78000 9.072
82.80000 6.158
82.82000 10.646
82.84000 8.503
82.86000 12.702
82.88000 9.911
82.90000 9.488
82.92000 9.625
82.94000 9.652
82.96000 15.911
82.98000 12.260
83.00000 12.677
83.02000 12.208
83.04000 14.637
83.06000 15.168
83.08000 20.231
83.10000 25.931
83.12000 21.486
83.14000 22.230
83.16000 22.452
83.18000 26.871
83.20000 22.499
83.22000 24.417
83.24000 28.621
83.26000 23.232
83.28000 25.770
83.30000 28.801
83.32000 31.555
83.34000 35.043
83.36000 33.783
83.38000 36.059
83.40000 38.676
83.42000 36.537
83.44000 36.042
83.46000 37.772
83.48000 38.279
83.50000 41.129
83.52000 42.993
83.54000 40.995
83.56000 46.379
83.58000 57.115
83.60000 54.384
83.62000 48.383
83.64000 49.826
83.66000 51.384
83.68000 57.755
83.70000 59.783
83.72000 55.884
83.74000 51.682
83.76000 58.844
83.78000 60.829
83.80000 58.962
83.82000 58.340
83.84000 59.885
83.86000 59.568
83.88000 58.599
83.90000 60.242
83.92000 63.132
83.94000 59.848
83.96000 67.503
83.98000 63.880
84.00000 61.980
84.02000 63.296
84.04000 61.632
84.06000 59.214
84.08000 56.662
84.10000 52.979
84.12000 54.494
84.14000 54.936
84.16000 54.167
84.18000 52.392
84.20000 52.310
84.22000 52.961
84.24000 49.828
84.26000 46.356
84.28000 44.352
84.30000 40.645
84.32000 40.442
84.34000 39.641
84.36000 39.062
84.38000 41.506
84.40000 39.651
84.42000 30.803
84.44000 30.645
84.46000 30.142
84.48000 28.411
84.50000 28.418
84.52000 28.234
84.54000 27.364
84.56000 24.317
84.58000 23.638
84.60000 22.346
84.62000 26.356
84.64000 25.054
84.66000 18.524
84.68000 18.098
84.70000 19.970
84.72000 13.645
84.74000 15.397
84.76000 17.447
84.78000 15.440
84.80000 13.348
84.82000 9.553
84.84000 12.339
84.86000 13.689
84.88000 13.792
84.90000 10.242
84.92000 12.668
84.94000 9.926
84.96000 10.466
84.98000 4.582
85.00000 4.886
85.02000 6.315
85.04000 5.139
85.06000 7.980
85.08000 5.569
85.10000 5.409
85.12000 7.208
85.14000 5.521
85.16000 4.752
85.18000 4.148
85.20000 2.154
85.22000 2.135
85.24000 4.563
85.26000 6.582
85.28000 2.508
85.30000 2.786
85.32000 2.045
85.34000 -0.200
85.36000 3.162
85.38000 4.440
85.40000 1.000
85.42000 2.099
85.44000 3.769
85.46000 4.085
85.48000 2.877
85.50000 1.917
85.52000 1.335
85.54000 1.443
85.56000 0.502
85.58000 4.555
85.60000 6.797
85.62000 5.117
85.64000 3.240
85.66000 1.646
85.68000 0.911
85.70000 2.116
85.72000 1.386
85.74000 3.869
85.76000 3.851
85.78000 0.728
85.80000 -0.669
85.82000 1.780
85.84000 2.178
85.86000 0.972
85.88000 -2.025
85.90000 -0.060
85.92000 5.541
85.94000 2.873
85.96000 1.833
85.98000 2.937
86.00000 0.960
86.02000 0.039
86.04000 2.439
86.06000 1.869
86.08000 3.881
86.10000 2.788
86.12000 0.844
86.14000 -0.558
86.16000 2.964
86.18000 4.291
86.20000 2.850
86.22000 4.799
86.24000 0.535
86.26000 -0.946
86.28000 -0.991
86.30000 -0.144
86.32000 0.938
86.34000 -0.860
86.36000 -1.984
86.38000 1.569
86.40000 1.742
86.42000 2.908
86.44000 2.230
86.46000 2.994
86.48000 1.499
86.50000 1.911
86.52000 2.473
86.54000 -1.969
86.56000 -0.907
86.58000 3.435
86.60000 2.309
86.62000 4.384
86.64000 0.487
86.66000 0.119
86.68000 4.122
86.70000 2.729
86.72000 -0.803
86.74000 -0.931
86.76000 1.764
86.78000 3.668
86.80000 2.013
86.82000 2.436
86.84000 3.416
86.86000 1.087
86.88000 0.724
86.90000 2.058
86.92000 2.474
86.94000 4.451
86.96000 1.296
86.98000 -1.929
87.00000 0.703
87.02000 2.639
87.04000 6.030
87.06000 2.012
87.08000 3.955
87.10000 5.071
87.12000 2.676
87.14000 0.979
87.16000 2.483
87.18000 2.071
87.20000 3.596
87.22000 5.293
87.24000 4.015
87.26000 6.297
87.28000 2.683
87.30000 -0.356
87.32000 0.871
87.34000 1.433
87.36000 0.395
87.38000 0.297
87.40000 4.910
87.42000 3.734
87.44000 1.553
87.46000 1.443
87.48000 0.830
87.50000 1.929
87.52000 -0.237
87.54000 3.592
87.56000 2.518
87.58000 3.420
87.60000 1.264
87.62000 0.150
87.64000 0.237
87.66000 5.131
87.68000 5.344
87.70000 4.790
87.72000 2.645
87.74000 0.057
87.76000 0.806
87.78000 2.808
87.80000 4.346
87.82000 3.400
87.84000 3.408
87.86000 0.840
87.88000 2.045
87.90000 1.166
87.92000 1.706
87.94000 1.964
87.96000 2.376
87.98000 4.273
88.00000 3.195
88.02000 1.774
88.04000 2.937
88.06000 0.672
88.08000 0.272
88.10000 -1.908
88.12000 1.163
88.14000 4.137
88.16000 1.890
88.18000 2.487
88.20000 7.195
88.22000 3.302
88.24000 0.529
88.26000 -0.721
88.28000 2.050
88.30000 2.380
88.32000 0.108
88.34000 3.296
88.36000 1.201
88.38000 -0.799
88.40000 0.915
88.42000 2.495
88.44000 5.266
88.46000 3.955
88.48000 4.223
88.50000 3.618
88.52000 0.357
88.54000 0.415
88.56000 3.183
88.58000 2.127
88.60000 0.970
88.62000 3.818
88.64000 0.595
88.66000 -1.892
88.68000 3.533
88.70000 3.937
88.72000 1.137
88.74000 4.661
88.76000 4.155
88.78000 3.268
88.80000 0.369
88.82000 0.896
88.84000 0.003
88.86000 -0.526
88.88000 0.275
88.90000 0.696
88.92000 4.324
88.94000 2.892
88.96000 1.775
88.98000 5.173
89.00000 6.236
89.02000 5.728
89.04000 5.679
89.06000 5.658
89.08000 2.083
89.10000 1.899
89.12000 4.942
89.14000 2.415
89.16000 -0.439
89.18000 -0.677
89.20000 -1.147
89.22000 -0.305
89.24000 -0.808
89.26000 2.069
89.28000 1.737
89.30000 0.328
89.32000 2.898
89.34000 3.194
89.36000 -1.286
89.38000 0.776
89.40000 1.920
89.42000 2.883
89.44000 2.862
89.46000 0.662
89.48000 0.351
89.50000 0.491
89.52000 4.329
89.54000 5.896
89.56000 3.728
89.58000 3.072
89.60000 1.718
89.62000 -1.902
89.64000 -1.124
89.66000 -0.848
89.68000 0.694
89.70000 5.579
89.72000 5.560
89.74000 5.387
89.76000 1.697
89.78000 2.447
89.80000 3.402
89.82000 5.690
89.84000 3.772
89.86000 1.648
89.88000 1.371
89.90000 4.275
89.92000 3.145
89.94000 2.305
89.96000 0.747
89.98000 0.403
90.00000 1.393
90.02000 2.406
90.04000 2.938
90.06000 2.173
90.08000 2.528
90.10000 0.995
90.12000 1.321
90.14000 2.547
90.16000 3.974
90.18000 1.308
90.20000 -0.579
90.22000 -0.075
90.24000 -0.843
90.26000 -0.462
90.28000 -1.091
90.30000 1.602
90.32000 0.469
90.34000 0.677
90.36000 0.765
90.38000 1.566
90.40000 3.449
90.42000 4.644
90.44000 1.258
90.46000 2.590
90.48000 2.966
90.50000 1.514
90.52000 1.126
90.54000 5.839
90.56000 3.872
90.58000 0.528
90.60000 5.492
90.62000 6.056
90.64000 3.308
90.66000 2.147
90.68000 1.314
90.70000 -0.526
90.72000 -1.330
90.74000 -1.884
90.76000 2.172
90.78000 1.460
90.80000 0.586
90.82000 0.027
90.84000 2.009
90.86000 2.756
90.88000 3.607
90.90000 3.097
90.92000 -1.882
90.94000 1.356
90.96000 5.451
90.98000 2.513
91.00000 3.293
91.02000 0.589
91.04000 3.554
91.06000 6.067
91.08000 6.872
91.10000 3.207
91.12000 4.528
91.14000 5.824
91.16000 4.281
91.18000 0.005
91.20000 2.242
91.22000 2.126
91.24000 3.140
91.26000 2.730
91.28000 1.141
91.30000 -0.517
91.32000 -0.103
91.34000 0.359
91.36000 1.010
91.38000 0.267
91.40000 0.487
91.42000 -1.207
91.44000 0.768
91.46000 -0.747
91.48000 -1.696
91.50000 0.455
91.52000 2.707
91.54000 0.013
91.56000 1.638
91.58000 2.773
91.60000 3.362
91.62000 0.144
91.64000 2.548
91.66000 3.462
91.68000 2.911
91.70000 2.946
91.72000 2.934
91.74000 2.579
91.76000 1.992
91.78000 4.845
91.80000 4.438
91.82000 2.763
91.84000 3.174
91.86000 4.428
91.88000 2.021
91.90000 3.374
91.92000 2.914
91.94000 3.487
91.96000 4.893
91.98000 3.927
92.00000 3.809
92.02000 0.061
92.04000 0.382
92.06000 2.949
92.08000 0.804
92.10000 1.556
92.12000 3.062
92.14000 3.507
92.16000 4.390
92.18000 6.151
92.20000 5.674
92.22000 4.569
92.24000 5.055
92.26000 7.961
92.28000 3.194
92.30000 2.522
92.32000 0.432
92.34000 1.023
92.36000 0.475
92.38000 3.926
92.40000 7.609
92.42000 5.312
92.44000 1.217
92.46000 0.378
92.48000 5.892
92.50000 7.083
92.52000 4.458
92.54000 1.908
92.56000 6.421
92.58000 7.162
92.60000 1.466
92.62000 1.388
92.64000 2.404
92.66000 4.532
92.68000 1.976
92.70000 -1.855
92.72000 3.058
92.74000 5.212
92.76000 1.346
92.78000 0.061
92.80000 2.377
92.82000 2.463
92.84000 4.574
92.86000 4.303
92.88000 6.824
92.90000 4.805
92.92000 1.533
92.94000 -0.327
92.96000 0.385
92.98000 0.239
93.00000 0.266
93.02000 5.796
93.04000 10.031
93.06000 9.874
93.08000 5.837
93.10000 1.076
93.12000 0.892
93.14000 2.468
93.16000 3.294
93.18000 -0.203
93.20000 0.986
93.22000 4.554
93.24000 4.653
93.26000 1.840
93.28000 1.728
93.30000 4.866
93.32000 2.338
93.34000 -0.022
93.36000 4.599
93.38000 6.700
93.40000 6.042
93.42000 5.235
93.44000 4.098
93.46000 2.877
93.48000 -1.890
93.50000 3.138
93.52000 2.826
93.54000 -1.390
93.56000 -1.399
93.58000 1.010
93.60000 5.101
93.62000 7.061
93.64000 9.398
93.66000 8.511
93.68000 3.444
93.70000 1.862
93.72000 3.662
93.74000 0.315
93.76000 1.670
93.78000 2.195
93.80000 1.162
93.82000 2.755
93.84000 0.021
93.86000 -1.222
93.88000 -1.337
93.90000 0.245
93.92000 -0.898
93.94000 -1.835
93.96000 3.577
93.98000 2.937
94.00000 2.082
94.02000 0.907
94.04000 1.746
94.06000 3.556
94.08000 1.110
94.10000 2.285
94.12000 4.344
94.14000 0.830
94.16000 0.517
94.18000 -1.185
94.20000 1.040
94.22000 0.346
94.24000 -0.048
94.26000 1.935
94.28000 1.230
94.30000 -0.295
94.32000 -0.466
94.34000 -0.428
94.36000 -0.555
94.38000 2.148
94.40000 0.552
94.42000 1.635
94.44000 -0.475
94.46000 0.417
94.48000 1.366
94.50000 4.091
94.52000 2.597
94.54000 4.752
94.56000 4.977
94.58000 2.700
94.60000 4.302
94.62000 3.144
94.64000 2.164
94.66000 0.488
94.68000 1.282
94.70000 4.015
94.72000 -0.815
94.74000 -0.726
94.76000 4.576
94.78000 6.395
94.80000 7.125
94.82000 6.867
94.84000 7.116
94.86000 6.724
94.88000 1.613
94.90000 0.812
94.92000 1.122
94.94000 0.144
94.96000 3.145
94.98000 3.598
95.00000 1.698
95.02000 5.477
95.04000 5.078
95.06000 9.105
95.08000 7.855
95.10000 2.853
95.12000 -1.888
95.14000 0.212
95.16000 6.550
95.18000 1.288
95.20000 2.799
95.22000 3.239
95.24000 -0.556
95.26000 0.291
95.28000 2.921
95.30000 -1.551
95.32000 -0.674
95.34000 2.349
95.36000 4.393
95.38000 3.769
95.40000 4.928
95.42000 4.796
95.44000 3.761
95.46000 3.211
95.48000 4.610
95.50000 5.833
95.52000 1.160
95.54000 1.912
95.56000 3.369
95.58000 1.184
95.60000 -0.452
95.62000 -0.221
95.64000 -1.785
95.66000 -0.287
95.68000 -1.064
95.70000 3.579
95.72000 1.312
95.74000 -0.172
95.76000 1.316
95.78000 0.730
95.80000 2.706
95.82000 1.683
95.84000 -0.664
95.86000 -1.250
95.88000 -1.863
95.90000 -1.120
95.92000 -1.932
95.94000 4.402
95.96000 6.124
95.98000 4.330
96.00000 -0.118
96.02000 -1.463
96.04000 1.290
96.06000 1.407
96.08000 1.786
96.10000 5.131
96.12000 3.131
96.14000 0.530
96.16000 4.386
96.18000 2.205
96.20000 -1.455
96.22000 -1.473
96.24000 -0.625
96.26000 1.890
96.28000 2.957
96.30000 -1.054
96.32000 -0.073
96.34000 -0.916
96.36000 -1.579
96.38000 1.953
96.40000 4.608
96.42000 3.110
96.44000 -0.569
96.46000 1.344
96.48000 3.102
96.50000 0.296
96.52000 0.246
96.54000 3.679
96.56000 8.846
96.58000 7.926
96.60000 1.358
96.62000 2.838
96.64000 4.517
96.66000 2.057
96.68000 1.815
96.70000 3.282
96.72000 2.400
96.74000 1.841
96.76000 0.784
96.78000 -0.227
96.80000 1.773
96.82000 3.966
96.84000 3.731
96.86000 1.598
96.88000 -0.648
96.90000 1.690
96.92000 0.313
96.94000 -0.589
96.96000 2.873
96.98000 1.681
97.00000 1.078
97.02000 3.279
97.04000 2.058
97.06000 0.411
97.08000 -0.119
97.10000 2.324
97.12000 3.253
97.14000 0.266
97.16000 2.910
97.18000 4.465
97.20000 -0.789
97.22000 0.434
97.24000 5.404
97.26000 5.459
97.28000 2.957
97.30000 0.849
97.32000 0.208
97.34000 3.526
97.36000 7.093
97.38000 5.809
97.40000 3.638
97.42000 3.844
97.44000 5.832
97.46000 1.526
97.48000 0.234
97.50000 2.358
97.52000 1.356
97.54000 1.654
97.56000 1.211
97.58000 3.262
97.60000 0.836
97.62000 1.816
97.64000 0.090
97.66000 2.144
97.68000 0.391
97.70000 -1.878
97.72000 -0.745
97.74000 2.938
97.76000 1.973
97.78000 1.603
97.80000 2.568
97.82000 2.090
97.84000 6.864
97.86000 7.210
97.88000 10.097
97.90000 6.129
97.92000 6.230
97.94000 4.603
97.96000 -0.969
97.98000 2.644
98.00000 3.510
98.02000 4.430
98.04000 3.436
98.06000 5.158
98.08000 1.809
98.10000 -1.449
98.12000 2.440
98.14000 4.404
98.16000 7.377
98.18000 7.735
98.20000 7.314
98.22000 4.724
98.24000 4.426
98.26000 5.842
98.28000 7.357
98.30000 2.503
98.32000 0.374
98.34000 -1.762
98.36000 5.366
98.38000 6.395
98.40000 2.877
98.42000 3.757
98.44000 6.672
98.46000 6.860
98.48000 5.672
98.50000 3.655
98.52000 0.918
98.54000 3.782
98.56000 2.688
98.58000 2.758
98.60000 -0.978
98.62000 0.187
98.64000 7.671
98.66000 9.418
98.68000 1.706
98.70000 3.953
98.72000 0.712
98.74000 -1.826
98.76000 0.498
98.78000 6.398
98.80000 1.000
98.82000 -1.306
98.84000 5.425
98.86000 9.686
98.88000 7.818
98.90000 4.269
98.92000 5.689
98.94000 7.501
98.96000 5.561
98.98000 8.358
99.00000 5.462
99.02000 1.809
99.04000 4.527
99.06000 1.196
99.08000 2.920
99.10000 9.338
99.12000 10.583
99.14000 8.295
99.16000 3.464
99.18000 5.125
99.20000 0.855
99.22000 4.197
99.24000 1.586
99.26000 1.439
99.28000 0.080
99.30000 6.203
99.32000 2.399
99.34000 2.683
99.36000 4.640
99.38000 6.878
99.40000 2.893
99.42000 3.507
99.44000 -1.873
99.46000 1.611
99.48000 9.402
99.50000 4.315
99.52000 0.253
99.54000 1.098
99.56000 -0.928
99.58000 4.817
99.60000 4.643
99.62000 2.290
99.64000 2.554
99.66000 2.000
99.68000 -1.018
99.70000 4.042
99.72000 1.474
99.74000 2.794
99.76000 11.416
99.78000 5.537
99.80000 -0.820
99.82000 8.299
99.84000 8.817
99.86000 5.380
99.88000 5.573
99.90000 7.758
99.92000 1.242
99.94000 3.710
99.96000 4.677
99.98000 0.000
