'Id: "0011387" Comment: "Integrate frame 0011387_Au-Ir-Rh_Rh-rich_XRD-Mapping-233-0000.gfrmwith cursor Wedge Cursor #5" Operator: "B?rgel" Anode: "Cu" Wavelength: "1.5406" Scantype: "2Theta (TwoTheta)" TimePerStep: "1" X: "13.5" Y: "13.5" Z: "5.95" 
10.00000 0.000
10.02000 12.316
10.04000 3.683
10.06000 -3.908
10.08000 12.490
10.10000 11.752
10.12000 9.043
10.14000 14.571
10.16000 14.891
10.18000 1.779
10.20000 -3.925
10.22000 -2.253
10.24000 3.052
10.26000 4.797
10.28000 5.657
10.30000 4.600
10.32000 9.879
10.34000 7.857
10.36000 -3.955
10.38000 1.233
10.40000 10.877
10.42000 20.672
10.44000 11.248
10.46000 14.535
10.48000 13.109
10.50000 6.378
10.52000 10.598
10.54000 4.437
10.56000 4.169
10.58000 9.418
10.60000 9.968
10.62000 13.741
10.64000 17.040
10.66000 16.511
10.68000 15.165
10.70000 -1.121
10.72000 -0.041
10.74000 2.171
10.76000 4.909
10.78000 8.357
10.80000 1.089
10.82000 10.216
10.84000 3.702
10.86000 6.684
10.88000 17.883
10.90000 23.740
10.92000 18.087
10.94000 20.977
10.96000 13.369
10.98000 10.479
11.00000 0.868
11.02000 4.183
11.04000 11.341
11.06000 2.727
11.08000 17.175
11.10000 25.241
11.12000 19.117
11.14000 15.726
11.16000 10.809
11.18000 10.345
11.20000 15.539
11.22000 21.776
11.24000 14.144
11.26000 19.935
11.28000 27.929
11.30000 14.957
11.32000 4.223
11.34000 2.650
11.36000 4.763
11.38000 16.817
11.40000 21.964
11.42000 22.493
11.44000 24.365
11.46000 -4.240
11.48000 -3.331
11.50000 3.505
11.52000 -1.487
11.54000 5.938
11.56000 20.510
11.58000 17.655
11.60000 9.954
11.62000 5.626
11.64000 12.512
11.66000 12.203
11.68000 15.230
11.70000 19.801
11.72000 19.672
11.74000 22.881
11.76000 30.828
11.78000 27.138
11.80000 17.068
11.82000 12.190
11.84000 6.030
11.86000 5.263
11.88000 2.641
11.90000 8.560
11.92000 16.930
11.94000 16.473
11.96000 17.749
11.98000 24.521
12.00000 24.114
12.02000 14.331
12.04000 12.334
12.06000 30.952
12.08000 24.949
12.10000 23.598
12.12000 19.327
12.14000 12.666
12.16000 13.972
12.18000 12.510
12.20000 17.871
12.22000 22.945
12.24000 10.920
12.26000 12.554
12.28000 19.425
12.30000 23.321
12.32000 17.712
12.34000 28.566
12.36000 29.708
12.38000 17.679
12.40000 9.874
12.42000 16.768
12.44000 18.250
12.46000 21.431
12.48000 13.905
12.50000 15.452
12.52000 13.455
12.54000 8.655
12.56000 20.199
12.58000 16.587
12.60000 23.229
12.62000 24.439
12.64000 18.141
12.66000 29.522
12.68000 25.677
12.70000 14.328
12.72000 12.819
12.74000 11.940
12.76000 16.682
12.78000 14.141
12.80000 11.275
12.82000 17.586
12.84000 18.115
12.86000 20.391
12.88000 13.651
12.90000 9.744
12.92000 9.835
12.94000 19.677
12.96000 25.432
12.98000 26.144
13.00000 22.755
13.02000 23.749
13.04000 26.861
13.06000 22.027
13.08000 15.626
13.10000 7.683
13.12000 10.818
13.14000 24.683
13.16000 22.500
13.18000 20.165
13.20000 17.218
13.22000 18.437
13.24000 20.568
13.26000 17.298
13.28000 10.245
13.30000 8.567
13.32000 12.017
13.34000 14.276
13.36000 17.897
13.38000 21.925
13.40000 19.014
13.42000 11.363
13.44000 10.617
13.46000 17.355
13.48000 3.044
13.50000 11.669
13.52000 11.933
13.54000 19.498
13.56000 15.646
13.58000 18.363
13.60000 20.396
13.62000 34.312
13.64000 21.130
13.66000 19.314
13.68000 32.394
13.70000 26.189
13.72000 14.305
13.74000 15.083
13.76000 15.457
13.78000 13.549
13.80000 16.220
13.82000 20.104
13.84000 19.743
13.86000 13.951
13.88000 18.173
13.90000 7.364
13.92000 -0.549
13.94000 12.415
13.96000 8.856
13.98000 17.968
14.00000 23.402
14.02000 13.843
14.04000 13.056
14.06000 17.979
14.08000 15.656
14.10000 7.066
14.12000 11.433
14.14000 21.537
14.16000 13.578
14.18000 15.925
14.20000 10.360
14.22000 1.617
14.24000 -0.525
14.26000 9.221
14.28000 10.779
14.30000 9.221
14.32000 10.255
14.34000 5.710
14.36000 5.202
14.38000 4.985
14.40000 12.781
14.42000 9.624
14.44000 21.106
14.46000 19.114
14.48000 11.814
14.50000 11.147
14.52000 11.314
14.54000 7.949
14.56000 8.859
14.58000 11.276
14.60000 7.178
14.62000 10.922
14.64000 17.633
14.66000 21.758
14.68000 15.467
14.70000 16.768
14.72000 9.317
14.74000 3.500
14.76000 9.260
14.78000 4.120
14.80000 7.998
14.82000 13.838
14.84000 12.675
14.86000 11.945
14.88000 9.108
14.90000 5.300
14.92000 8.417
14.94000 11.346
14.96000 8.180
14.98000 15.539
15.00000 12.973
15.02000 7.600
15.04000 11.950
15.06000 14.577
15.08000 8.030
15.10000 1.908
15.12000 2.466
15.14000 6.990
15.16000 11.707
15.18000 21.491
15.20000 20.886
15.22000 6.346
15.24000 7.639
15.26000 16.477
15.28000 15.347
15.30000 16.872
15.32000 19.235
15.34000 14.438
15.36000 12.347
15.38000 12.307
15.40000 9.328
15.42000 11.047
15.44000 15.066
15.46000 20.532
15.48000 22.772
15.50000 16.219
15.52000 12.094
15.54000 7.491
15.56000 16.331
15.58000 19.798
15.60000 11.693
15.62000 8.289
15.64000 9.719
15.66000 11.034
15.68000 6.133
15.70000 6.519
15.72000 7.497
15.74000 -0.630
15.76000 2.416
15.78000 13.721
15.80000 9.615
15.82000 7.895
15.84000 12.934
15.86000 17.189
15.88000 9.956
15.90000 7.303
15.92000 6.543
15.94000 7.445
15.96000 11.702
15.98000 9.235
16.00000 10.750
16.02000 8.229
16.04000 1.585
16.06000 3.974
16.08000 0.384
16.10000 7.508
16.12000 6.766
16.14000 8.959
16.16000 6.313
16.18000 4.040
16.20000 7.201
16.22000 10.322
16.24000 10.506
16.26000 7.445
16.28000 9.510
16.30000 8.263
16.32000 -3.775
16.34000 0.054
16.36000 3.108
16.38000 4.853
16.40000 5.212
16.42000 6.511
16.44000 15.672
16.46000 10.265
16.48000 3.935
16.50000 12.703
16.52000 12.486
16.54000 16.943
16.56000 11.152
16.58000 3.695
16.60000 5.631
16.62000 3.430
16.64000 2.253
16.66000 9.666
16.68000 6.705
16.70000 13.093
16.72000 -0.915
16.74000 2.246
16.76000 3.617
16.78000 7.515
16.80000 5.115
16.82000 9.411
16.84000 9.423
16.86000 11.908
16.88000 10.060
16.90000 -1.317
16.92000 -1.526
16.94000 9.968
16.96000 9.595
16.98000 4.229
17.00000 11.075
17.02000 12.701
17.04000 9.258
17.06000 12.230
17.08000 7.313
17.10000 -4.187
17.12000 -3.079
17.14000 7.934
17.16000 9.715
17.18000 13.893
17.20000 15.361
17.22000 12.457
17.24000 9.861
17.26000 19.986
17.28000 18.028
17.30000 8.377
17.32000 13.041
17.34000 16.462
17.36000 11.331
17.38000 10.272
17.40000 4.872
17.42000 7.653
17.44000 14.155
17.46000 11.692
17.48000 11.380
17.50000 13.155
17.52000 12.983
17.54000 16.697
17.56000 9.515
17.58000 2.233
17.60000 0.521
17.62000 4.622
17.64000 12.953
17.66000 7.346
17.68000 -4.299
17.70000 -0.567
17.72000 9.539
17.74000 8.925
17.76000 2.054
17.78000 12.275
17.80000 16.386
17.82000 12.161
17.84000 8.623
17.86000 14.583
17.88000 15.233
17.90000 22.837
17.92000 16.824
17.94000 18.546
17.96000 11.411
17.98000 2.476
18.00000 2.989
18.02000 10.472
18.04000 8.835
18.06000 11.767
18.08000 11.171
18.10000 12.676
18.12000 8.100
18.14000 6.005
18.16000 11.541
18.18000 7.938
18.20000 11.302
18.22000 8.390
18.24000 6.767
18.26000 2.138
18.28000 0.113
18.30000 1.906
18.32000 6.541
18.34000 13.980
18.36000 3.142
18.38000 -4.299
18.40000 1.517
18.42000 5.749
18.44000 9.612
18.46000 4.357
18.48000 0.924
18.50000 14.333
18.52000 14.663
18.54000 11.096
18.56000 6.633
18.58000 -1.279
18.60000 7.431
18.62000 6.940
18.64000 7.177
18.66000 7.114
18.68000 1.953
18.70000 8.309
18.72000 5.775
18.74000 9.444
18.76000 4.098
18.78000 -0.309
18.80000 9.607
18.82000 6.731
18.84000 1.968
18.86000 2.363
18.88000 5.993
18.90000 4.195
18.92000 -0.438
18.94000 -1.682
18.96000 0.840
18.98000 7.157
19.00000 -0.314
19.02000 3.104
19.04000 8.542
19.06000 3.914
19.08000 3.365
19.10000 7.619
19.12000 3.248
19.14000 5.586
19.16000 6.353
19.18000 6.834
19.20000 1.000
19.22000 -3.053
19.24000 3.166
19.26000 9.117
19.28000 3.435
19.30000 1.869
19.32000 6.381
19.34000 8.750
19.36000 3.952
19.38000 0.370
19.40000 -0.423
19.42000 1.806
19.44000 4.657
19.46000 -2.706
19.48000 -1.378
19.50000 -1.596
19.52000 -0.121
19.54000 -1.534
19.56000 -0.947
19.58000 0.495
19.60000 0.318
19.62000 3.821
19.64000 10.202
19.66000 -1.515
19.68000 -0.891
19.70000 0.761
19.72000 4.205
19.74000 1.028
19.76000 -2.200
19.78000 1.590
19.80000 3.542
19.82000 10.017
19.84000 5.424
19.86000 -3.222
19.88000 -0.237
19.90000 3.354
19.92000 2.574
19.94000 -1.695
19.96000 -0.397
19.98000 3.968
20.00000 4.718
20.02000 2.544
20.04000 6.885
20.06000 6.415
20.08000 1.905
20.10000 5.027
20.12000 9.975
20.14000 5.320
20.16000 5.116
20.18000 0.731
20.20000 -4.223
20.22000 1.790
20.24000 -1.050
20.26000 -3.693
20.28000 1.848
20.30000 5.071
20.32000 6.369
20.34000 4.004
20.36000 6.810
20.38000 6.065
20.40000 6.615
20.42000 9.539
20.44000 13.537
20.46000 8.385
20.48000 2.663
20.50000 4.767
20.52000 3.232
20.54000 4.937
20.56000 10.025
20.58000 7.872
20.60000 7.987
20.62000 9.588
20.64000 11.644
20.66000 4.575
20.68000 -0.637
20.70000 0.734
20.72000 8.427
20.74000 7.948
20.76000 2.701
20.78000 1.391
20.80000 1.048
20.82000 -2.908
20.84000 3.906
20.86000 2.053
20.88000 -4.173
20.90000 -0.211
20.92000 1.215
20.94000 7.727
20.96000 6.419
20.98000 6.772
21.00000 1.227
21.02000 -1.369
21.04000 2.715
21.06000 2.891
21.08000 6.569
21.10000 -0.440
21.12000 -1.507
21.14000 5.089
21.16000 10.734
21.18000 6.864
21.20000 5.345
21.22000 4.572
21.24000 6.585
21.26000 4.494
21.28000 5.064
21.30000 4.982
21.32000 3.368
21.34000 -3.701
21.36000 -4.129
21.38000 0.682
21.40000 5.791
21.42000 3.988
21.44000 2.352
21.46000 0.357
21.48000 8.373
21.50000 6.912
21.52000 6.697
21.54000 10.783
21.56000 6.484
21.58000 1.673
21.60000 2.420
21.62000 2.069
21.64000 2.174
21.66000 8.837
21.68000 10.052
21.70000 5.377
21.72000 3.624
21.74000 5.990
21.76000 12.124
21.78000 8.947
21.80000 5.816
21.82000 7.965
21.84000 10.343
21.86000 1.517
21.88000 3.368
21.90000 11.913
21.92000 9.361
21.94000 11.671
21.96000 2.226
21.98000 5.797
22.00000 8.788
22.02000 4.853
22.04000 3.615
22.06000 7.456
22.08000 6.500
22.10000 1.707
22.12000 4.918
22.14000 5.417
22.16000 1.678
22.18000 8.310
22.20000 19.621
22.22000 18.622
22.24000 12.854
22.26000 6.902
22.28000 5.827
22.30000 9.542
22.32000 11.041
22.34000 8.552
22.36000 -4.035
22.38000 9.183
22.40000 10.556
22.42000 10.863
22.44000 11.837
22.46000 3.841
22.48000 11.155
22.50000 12.964
22.52000 12.169
22.54000 13.409
22.56000 16.010
22.58000 13.978
22.60000 9.343
22.62000 11.014
22.64000 5.367
22.66000 5.896
22.68000 14.198
22.70000 15.767
22.72000 8.395
22.74000 5.970
22.76000 2.238
22.78000 7.980
22.80000 9.106
22.82000 4.013
22.84000 -0.573
22.86000 6.027
22.88000 14.320
22.90000 15.170
22.92000 9.440
22.94000 4.467
22.96000 6.501
22.98000 5.646
23.00000 13.516
23.02000 10.650
23.04000 6.836
23.06000 5.950
23.08000 4.373
23.10000 8.644
23.12000 12.394
23.14000 6.725
23.16000 4.521
23.18000 0.914
23.20000 4.906
23.22000 7.410
23.24000 5.755
23.26000 10.256
23.28000 14.685
23.30000 11.363
23.32000 3.397
23.34000 -3.907
23.36000 -0.425
23.38000 3.235
23.40000 13.076
23.42000 4.784
23.44000 -2.315
23.46000 1.764
23.48000 0.271
23.50000 -1.539
23.52000 -1.006
23.54000 3.613
23.56000 9.975
23.58000 10.416
23.60000 3.081
23.62000 7.349
23.64000 13.038
23.66000 8.394
23.68000 6.921
23.70000 7.880
23.72000 2.858
23.74000 9.172
23.76000 8.995
23.78000 4.081
23.80000 7.325
23.82000 4.426
23.84000 5.325
23.86000 1.185
23.88000 3.305
23.90000 6.228
23.92000 9.485
23.94000 9.207
23.96000 7.221
23.98000 2.490
24.00000 2.724
24.02000 -0.627
24.04000 -4.000
24.06000 -0.135
24.08000 0.461
24.10000 -3.474
24.12000 1.203
24.14000 3.962
24.16000 6.381
24.18000 9.077
24.20000 5.863
24.22000 7.763
24.24000 4.588
24.26000 4.944
24.28000 6.520
24.30000 7.603
24.32000 7.048
24.34000 5.207
24.36000 8.726
24.38000 9.825
24.40000 11.415
24.42000 6.245
24.44000 5.072
24.46000 2.459
24.48000 0.588
24.50000 -3.458
24.52000 4.324
24.54000 4.298
24.56000 8.755
24.58000 0.495
24.60000 0.576
24.62000 6.595
24.64000 0.352
24.66000 -2.364
24.68000 0.933
24.70000 12.829
24.72000 8.564
24.74000 4.315
24.76000 5.671
24.78000 6.087
24.80000 3.119
24.82000 -0.243
24.84000 -3.949
24.86000 3.672
24.88000 1.482
24.90000 0.879
24.92000 6.255
24.94000 3.885
24.96000 1.791
24.98000 0.525
25.00000 2.792
25.02000 0.849
25.04000 -1.001
25.06000 5.441
25.08000 10.557
25.10000 13.688
25.12000 9.999
25.14000 4.651
25.16000 1.777
25.18000 2.053
25.20000 4.607
25.22000 -0.627
25.24000 0.029
25.26000 5.258
25.28000 3.944
25.30000 4.087
25.32000 1.102
25.34000 -0.489
25.36000 0.052
25.38000 1.320
25.40000 -0.950
25.42000 -3.931
25.44000 2.281
25.46000 3.923
25.48000 -1.310
25.50000 -1.553
25.52000 -0.415
25.54000 5.398
25.56000 2.469
25.58000 -2.089
25.60000 -2.684
25.62000 -2.483
25.64000 -0.191
25.66000 -1.736
25.68000 2.982
25.70000 1.374
25.72000 1.458
25.74000 -0.170
25.76000 2.037
25.78000 5.060
25.80000 4.760
25.82000 2.108
25.84000 2.254
25.86000 -1.191
25.88000 -3.913
25.90000 2.829
25.92000 3.168
25.94000 5.556
25.96000 2.895
25.98000 -0.102
26.00000 2.110
26.02000 -0.762
26.04000 0.144
26.06000 2.608
26.08000 6.479
26.10000 6.614
26.12000 3.318
26.14000 0.798
26.16000 -0.895
26.18000 0.122
26.20000 2.445
26.22000 5.483
26.24000 2.385
26.26000 3.308
26.28000 5.239
26.30000 3.900
26.32000 2.547
26.34000 1.326
26.36000 4.688
26.38000 6.872
26.40000 1.846
26.42000 -2.050
26.44000 -1.709
26.46000 0.723
26.48000 5.237
26.50000 4.907
26.52000 2.679
26.54000 1.446
26.56000 4.190
26.58000 1.672
26.60000 1.433
26.62000 -0.352
26.64000 6.283
26.66000 8.717
26.68000 2.656
26.70000 3.209
26.72000 3.923
26.74000 7.703
26.76000 1.855
26.78000 9.453
26.80000 7.348
26.82000 0.176
26.84000 0.668
26.86000 -0.537
26.88000 -2.067
26.90000 -0.024
26.92000 3.559
26.94000 0.278
26.96000 -0.765
26.98000 2.565
27.00000 3.243
27.02000 2.384
27.04000 5.623
27.06000 2.334
27.08000 2.967
27.10000 -0.749
27.12000 2.997
27.14000 7.026
27.16000 8.014
27.18000 3.135
27.20000 -3.587
27.22000 1.584
27.24000 3.396
27.26000 1.850
27.28000 0.232
27.30000 -3.824
27.32000 -0.254
27.34000 9.389
27.36000 6.685
27.38000 3.011
27.40000 -2.523
27.42000 3.347
27.44000 4.847
27.46000 3.763
27.48000 1.569
27.50000 5.215
27.52000 -1.253
27.54000 -3.085
27.56000 -3.756
27.58000 0.505
27.60000 3.895
27.62000 3.322
27.64000 4.618
27.66000 6.654
27.68000 -1.630
27.70000 1.830
27.72000 5.311
27.74000 3.777
27.76000 8.838
27.78000 6.272
27.80000 4.533
27.82000 11.828
27.84000 7.098
27.86000 4.379
27.88000 2.092
27.90000 3.349
27.92000 0.322
27.94000 4.800
27.96000 0.974
27.98000 -0.962
28.00000 1.627
28.02000 7.124
28.04000 8.010
28.06000 6.121
28.08000 2.853
28.10000 2.288
28.12000 6.700
28.14000 3.743
28.16000 -2.223
28.18000 0.935
28.20000 3.514
28.22000 0.359
28.24000 3.994
28.26000 8.798
28.28000 9.853
28.30000 7.122
28.32000 3.600
28.34000 1.382
28.36000 2.304
28.38000 2.604
28.40000 5.658
28.42000 5.915
28.44000 9.594
28.46000 0.071
28.48000 4.987
28.50000 8.795
28.52000 10.241
28.54000 10.632
28.56000 4.353
28.58000 5.024
28.60000 8.101
28.62000 6.200
28.64000 6.782
28.66000 7.157
28.68000 6.172
28.70000 10.180
28.72000 13.332
28.74000 11.560
28.76000 6.690
28.78000 4.639
28.80000 8.198
28.82000 10.437
28.84000 7.950
28.86000 3.279
28.88000 9.967
28.90000 1.687
28.92000 -3.669
28.94000 0.717
28.96000 1.653
28.98000 3.581
29.00000 3.290
29.02000 7.698
29.04000 7.049
29.06000 4.968
29.08000 7.301
29.10000 5.165
29.12000 4.643
29.14000 7.993
29.16000 5.746
29.18000 3.983
29.20000 4.560
29.22000 10.367
29.24000 4.068
29.26000 0.217
29.28000 6.564
29.30000 10.300
29.32000 9.667
29.34000 7.680
29.36000 8.228
29.38000 6.361
29.40000 1.778
29.42000 4.093
29.44000 2.328
29.46000 6.551
29.48000 7.288
29.50000 6.553
29.52000 5.529
29.54000 2.737
29.56000 3.588
29.58000 8.739
29.60000 9.299
29.62000 3.229
29.64000 3.696
29.66000 2.876
29.68000 6.766
29.70000 6.307
29.72000 5.658
29.74000 4.546
29.76000 3.981
29.78000 1.304
29.80000 0.956
29.82000 0.491
29.84000 9.395
29.86000 6.345
29.88000 -2.437
29.90000 0.988
29.92000 2.423
29.94000 4.637
29.96000 9.088
29.98000 4.961
30.00000 8.101
30.02000 7.495
30.04000 1.426
30.06000 3.715
30.08000 3.594
30.10000 4.940
30.12000 3.447
30.14000 0.104
30.16000 6.215
30.18000 7.077
30.20000 6.437
30.22000 7.488
30.24000 5.373
30.26000 -1.044
30.28000 1.666
30.30000 2.527
30.32000 1.886
30.34000 5.048
30.36000 1.561
30.38000 0.302
30.40000 2.599
30.42000 1.590
30.44000 5.964
30.46000 4.528
30.48000 6.837
30.50000 8.109
30.52000 4.124
30.54000 5.055
30.56000 7.552
30.58000 8.205
30.60000 5.816
30.62000 6.713
30.64000 5.287
30.66000 6.074
30.68000 4.068
30.70000 1.033
30.72000 -0.439
30.74000 -1.058
30.76000 -1.659
30.78000 -0.357
30.80000 0.666
30.82000 2.247
30.84000 2.498
30.86000 1.043
30.88000 3.797
30.90000 3.121
30.92000 -0.922
30.94000 0.525
30.96000 4.364
30.98000 4.360
31.00000 4.943
31.02000 -0.276
31.04000 3.453
31.06000 3.823
31.08000 1.163
31.10000 -0.588
31.12000 -1.139
31.14000 2.273
31.16000 1.573
31.18000 -3.596
31.20000 -1.310
31.22000 4.241
31.24000 9.815
31.26000 5.664
31.28000 7.230
31.30000 3.034
31.32000 3.312
31.34000 5.144
31.36000 5.846
31.38000 8.470
31.40000 7.532
31.42000 5.751
31.44000 2.076
31.46000 4.251
31.48000 2.518
31.50000 2.264
31.52000 2.553
31.54000 0.551
31.56000 -1.207
31.58000 -1.726
31.60000 -0.820
31.62000 0.592
31.64000 -3.607
31.66000 -2.890
31.68000 -0.349
31.70000 5.885
31.72000 9.319
31.74000 6.524
31.76000 3.437
31.78000 2.295
31.80000 5.322
31.82000 5.016
31.84000 6.061
31.86000 10.398
31.88000 10.501
31.90000 9.664
31.92000 7.955
31.94000 7.959
31.96000 6.012
31.98000 5.850
32.00000 3.391
32.02000 5.756
32.04000 7.033
32.06000 1.034
32.08000 -3.564
32.10000 4.256
32.12000 10.146
32.14000 5.202
32.16000 3.368
32.18000 7.204
32.20000 7.942
32.22000 4.246
32.24000 7.252
32.26000 11.469
32.28000 7.836
32.30000 0.395
32.32000 0.852
32.34000 1.257
32.36000 1.349
32.38000 8.712
32.40000 9.180
32.42000 3.683
32.44000 -0.151
32.46000 4.400
32.48000 7.331
32.50000 5.901
32.52000 1.248
32.54000 -0.721
32.56000 2.533
32.58000 4.869
32.60000 4.479
32.62000 4.753
32.64000 8.103
32.66000 9.533
32.68000 9.334
32.70000 8.294
32.72000 5.627
32.74000 8.751
32.76000 7.215
32.78000 5.415
32.80000 6.286
32.82000 2.133
32.84000 0.874
32.86000 4.867
32.88000 5.369
32.90000 4.410
32.92000 3.453
32.94000 7.928
32.96000 4.715
32.98000 6.411
33.00000 9.688
33.02000 7.187
33.04000 2.324
33.06000 5.406
33.08000 6.622
33.10000 5.272
33.12000 4.050
33.14000 5.691
33.16000 1.616
33.18000 2.760
33.20000 4.554
33.22000 6.583
33.24000 7.668
33.26000 5.325
33.28000 -1.145
33.30000 -3.523
33.32000 -1.004
33.34000 3.376
33.36000 2.390
33.38000 6.834
33.40000 6.298
33.42000 3.251
33.44000 9.258
33.46000 11.088
33.48000 10.072
33.50000 7.570
33.52000 8.761
33.54000 10.173
33.56000 7.980
33.58000 3.231
33.60000 5.920
33.62000 4.943
33.64000 6.451
33.66000 1.971
33.68000 1.962
33.70000 2.987
33.72000 2.419
33.74000 5.774
33.76000 15.358
33.78000 8.695
33.80000 1.166
33.82000 2.056
33.84000 5.281
33.86000 4.835
33.88000 5.286
33.90000 5.729
33.92000 7.910
33.94000 9.843
33.96000 11.957
33.98000 2.889
34.00000 -0.012
34.02000 1.343
34.04000 4.497
34.06000 5.720
34.08000 9.164
34.10000 6.442
34.12000 10.676
34.14000 3.681
34.16000 1.894
34.18000 4.056
34.20000 2.631
34.22000 3.667
34.24000 1.911
34.26000 6.794
34.28000 8.537
34.30000 6.992
34.32000 3.851
34.34000 4.856
34.36000 10.716
34.38000 6.149
34.40000 4.783
34.42000 5.524
34.44000 4.047
34.46000 3.979
34.48000 3.605
34.50000 4.274
34.52000 8.078
34.54000 8.482
34.56000 3.217
34.58000 -2.739
34.60000 -0.408
34.62000 -1.069
34.64000 4.059
34.66000 4.158
34.68000 5.824
34.70000 4.276
34.72000 6.373
34.74000 7.265
34.76000 5.402
34.78000 7.254
34.80000 11.080
34.82000 6.583
34.84000 6.080
34.86000 1.567
34.88000 1.903
34.90000 2.549
34.92000 -1.381
34.94000 -0.461
34.96000 3.589
34.98000 3.577
35.00000 5.713
35.02000 1.534
35.04000 -3.488
35.06000 2.662
35.08000 5.652
35.10000 4.510
35.12000 4.122
35.14000 3.455
35.16000 0.712
35.18000 2.244
35.20000 8.747
35.22000 9.772
35.24000 5.180
35.26000 6.941
35.28000 1.967
35.30000 -0.112
35.32000 1.790
35.34000 9.181
35.36000 1.642
35.38000 2.061
35.40000 0.933
35.42000 0.073
35.44000 5.628
35.46000 4.255
35.48000 5.125
35.50000 6.596
35.52000 2.181
35.54000 0.938
35.56000 3.049
35.58000 -0.226
35.60000 -0.994
35.62000 2.541
35.64000 4.403
35.66000 7.121
35.68000 2.841
35.70000 5.576
35.72000 2.721
35.74000 3.210
35.76000 1.502
35.78000 3.599
35.80000 8.054
35.82000 9.354
35.84000 6.995
35.86000 5.066
35.88000 5.746
35.90000 3.780
35.92000 3.014
35.94000 1.330
35.96000 3.303
35.98000 2.613
36.00000 1.397
36.02000 2.704
36.04000 3.942
36.06000 6.164
36.08000 5.430
36.10000 7.644
36.12000 7.268
36.14000 6.660
36.16000 1.694
36.18000 -3.493
36.20000 1.855
36.22000 5.257
36.24000 3.560
36.26000 -0.136
36.28000 4.121
36.30000 1.214
36.32000 2.786
36.34000 3.283
36.36000 1.710
36.38000 4.421
36.40000 5.344
36.42000 4.535
36.44000 5.264
36.46000 4.167
36.48000 0.453
36.50000 6.439
36.52000 5.176
36.54000 1.244
36.56000 5.875
36.58000 -0.242
36.60000 -0.154
36.62000 1.215
36.64000 2.221
36.66000 -0.878
36.68000 0.220
36.70000 1.961
36.72000 1.306
36.74000 3.715
36.76000 -0.777
36.78000 1.794
36.80000 3.429
36.82000 -2.295
36.84000 -0.592
36.86000 5.660
36.88000 6.395
36.90000 5.942
36.92000 1.108
36.94000 5.167
36.96000 6.177
36.98000 2.278
37.00000 2.603
37.02000 1.082
37.04000 -1.186
37.06000 -3.527
37.08000 1.120
37.10000 0.410
37.12000 0.243
37.14000 1.176
37.16000 1.977
37.18000 3.423
37.20000 5.484
37.22000 2.649
37.24000 0.076
37.26000 4.368
37.28000 6.175
37.30000 0.457
37.32000 3.728
37.34000 7.499
37.36000 7.222
37.38000 7.807
37.40000 5.988
37.42000 0.057
37.44000 -3.571
37.46000 2.682
37.48000 8.576
37.50000 4.697
37.52000 4.015
37.54000 6.969
37.56000 5.573
37.58000 5.373
37.60000 5.584
37.62000 3.326
37.64000 5.247
37.66000 4.033
37.68000 7.432
37.70000 5.092
37.72000 3.376
37.74000 3.140
37.76000 3.548
37.78000 10.827
37.80000 6.215
37.82000 5.889
37.84000 6.670
37.86000 5.242
37.88000 7.452
37.90000 8.944
37.92000 5.174
37.94000 6.512
37.96000 7.746
37.98000 11.168
38.00000 11.223
38.02000 9.243
38.04000 8.046
38.06000 8.784
38.08000 10.696
38.10000 10.052
38.12000 12.885
38.14000 11.785
38.16000 15.414
38.18000 14.381
38.20000 14.872
38.22000 14.554
38.24000 12.808
38.26000 14.123
38.28000 15.851
38.30000 16.690
38.32000 18.893
38.34000 19.451
38.36000 14.323
38.38000 17.262
38.40000 19.597
38.42000 17.912
38.44000 16.740
38.46000 15.275
38.48000 18.929
38.50000 21.038
38.52000 23.788
38.54000 22.160
38.56000 24.495
38.58000 20.348
38.60000 23.241
38.62000 20.503
38.64000 23.502
38.66000 26.849
38.68000 22.402
38.70000 32.792
38.72000 33.550
38.74000 32.221
38.76000 26.399
38.78000 27.772
38.80000 28.836
38.82000 29.986
38.84000 34.874
38.86000 32.596
38.88000 37.295
38.90000 45.342
38.92000 42.178
38.94000 36.221
38.96000 39.551
38.98000 43.768
39.00000 48.308
39.02000 54.072
39.04000 52.173
39.06000 53.284
39.08000 53.341
39.10000 57.897
39.12000 55.497
39.14000 58.322
39.16000 60.349
39.18000 60.494
39.20000 63.783
39.22000 73.402
39.24000 78.734
39.26000 77.515
39.28000 74.727
39.30000 81.168
39.32000 86.122
39.34000 87.149
39.36000 93.161
39.38000 99.749
39.40000 100.137
39.42000 106.178
39.44000 116.052
39.46000 118.559
39.48000 126.986
39.50000 130.256
39.52000 134.760
39.54000 141.790
39.56000 155.570
39.58000 155.434
39.60000 163.900
39.62000 174.757
39.64000 188.397
39.66000 189.052
39.68000 202.569
39.70000 219.951
39.72000 228.164
39.74000 235.378
39.76000 251.456
39.78000 261.025
39.80000 274.220
39.82000 290.180
39.84000 306.202
39.86000 326.265
39.88000 344.139
39.90000 355.942
39.92000 370.094
39.94000 386.880
39.96000 397.858
39.98000 419.668
40.00000 441.810
40.02000 458.100
40.04000 476.485
40.06000 496.517
40.08000 506.396
40.10000 530.266
40.12000 543.293
40.14000 562.400
40.16000 571.101
40.18000 589.075
40.20000 602.525
40.22000 609.755
40.24000 622.931
40.26000 617.660
40.28000 620.394
40.30000 622.546
40.32000 614.170
40.34000 603.568
40.36000 598.433
40.38000 602.090
40.40000 591.915
40.42000 586.708
40.44000 571.702
40.46000 562.411
40.48000 546.763
40.50000 537.643
40.52000 524.568
40.54000 512.232
40.56000 484.795
40.58000 468.227
40.60000 451.047
40.62000 446.440
40.64000 422.152
40.66000 404.460
40.68000 393.895
40.70000 377.475
40.72000 357.295
40.74000 338.926
40.76000 325.713
40.78000 314.510
40.80000 293.416
40.82000 273.175
40.84000 266.546
40.86000 255.585
40.88000 243.996
40.90000 233.198
40.92000 215.583
40.94000 205.937
40.96000 193.731
40.98000 181.702
41.00000 175.021
41.02000 164.761
41.04000 154.715
41.06000 143.843
41.08000 137.765
41.10000 130.534
41.12000 124.195
41.14000 119.697
41.16000 113.060
41.18000 103.909
41.20000 101.647
41.22000 96.911
41.24000 92.446
41.26000 88.750
41.28000 85.341
41.30000 83.435
41.32000 80.792
41.34000 73.878
41.36000 68.848
41.38000 66.417
41.40000 64.089
41.42000 61.726
41.44000 54.155
41.46000 50.022
41.48000 52.421
41.50000 52.833
41.52000 44.496
41.54000 41.784
41.56000 41.616
41.58000 41.554
41.60000 33.188
41.62000 31.830
41.64000 35.635
41.66000 39.180
41.68000 35.528
41.70000 32.362
41.72000 31.937
41.74000 28.687
41.76000 26.512
41.78000 23.342
41.80000 24.911
41.82000 22.620
41.84000 24.940
41.86000 26.368
41.88000 22.751
41.90000 22.107
41.92000 22.828
41.94000 18.557
41.96000 17.169
41.98000 14.501
42.00000 17.911
42.02000 16.322
42.04000 13.735
42.06000 13.385
42.08000 12.547
42.10000 13.051
42.12000 9.542
42.14000 9.920
42.16000 12.946
42.18000 10.321
42.20000 9.961
42.22000 8.700
42.24000 5.900
42.26000 6.707
42.28000 10.397
42.30000 5.545
42.32000 5.266
42.34000 7.616
42.36000 6.906
42.38000 5.338
42.40000 7.310
42.42000 3.466
42.44000 6.833
42.46000 4.253
42.48000 7.017
42.50000 8.172
42.52000 7.097
42.54000 3.320
42.56000 6.315
42.58000 8.125
42.60000 6.549
42.62000 7.751
42.64000 4.175
42.66000 0.529
42.68000 0.568
42.70000 4.235
42.72000 4.535
42.74000 5.147
42.76000 6.136
42.78000 4.433
42.80000 -0.093
42.82000 1.235
42.84000 2.128
42.86000 -0.747
42.88000 -3.462
42.90000 -1.385
42.92000 3.380
42.94000 4.512
42.96000 1.493
42.98000 -0.843
43.00000 1.791
43.02000 2.768
43.04000 4.274
43.06000 4.404
43.08000 -0.321
43.10000 3.551
43.12000 3.030
43.14000 5.172
43.16000 4.365
43.18000 -0.705
43.20000 -2.481
43.22000 3.165
43.24000 3.564
43.26000 2.729
43.28000 2.017
43.30000 2.111
43.32000 0.731
43.34000 2.663
43.36000 2.555
43.38000 2.089
43.40000 -1.445
43.42000 0.418
43.44000 -0.829
43.46000 -3.401
43.48000 1.560
43.50000 1.953
43.52000 1.105
43.54000 0.617
43.56000 2.176
43.58000 0.830
43.60000 1.644
43.62000 3.533
43.64000 -0.593
43.66000 2.172
43.68000 2.260
43.70000 4.758
43.72000 3.092
43.74000 2.379
43.76000 1.848
43.78000 -0.615
43.80000 -1.704
43.82000 0.401
43.84000 1.957
43.86000 -0.035
43.88000 4.199
43.90000 5.686
43.92000 1.278
43.94000 1.100
43.96000 0.312
43.98000 2.722
44.00000 1.768
44.02000 0.571
44.04000 1.247
44.06000 -3.353
44.08000 -0.151
44.10000 4.877
44.12000 1.166
44.14000 -0.293
44.16000 3.134
44.18000 5.433
44.20000 5.755
44.22000 3.515
44.24000 -0.049
44.26000 -0.822
44.28000 -2.414
44.30000 -2.403
44.32000 -0.198
44.34000 4.072
44.36000 1.483
44.38000 0.229
44.40000 1.538
44.42000 2.221
44.44000 -1.733
44.46000 -1.747
44.48000 -0.471
44.50000 2.102
44.52000 0.337
44.54000 -0.919
44.56000 -3.175
44.58000 -2.303
44.60000 1.696
44.62000 1.819
44.64000 2.864
44.66000 0.943
44.68000 -0.981
44.70000 2.297
44.72000 4.562
44.74000 6.311
44.76000 1.864
44.78000 -1.776
44.80000 -0.021
44.82000 0.876
44.84000 0.680
44.86000 0.140
44.88000 0.376
44.90000 2.601
44.92000 4.300
44.94000 5.545
44.96000 4.255
44.98000 6.099
45.00000 8.568
45.02000 8.593
45.04000 5.210
45.06000 5.455
45.08000 1.785
45.10000 1.617
45.12000 5.730
45.14000 1.882
45.16000 1.068
45.18000 3.402
45.20000 3.443
45.22000 6.875
45.24000 6.783
45.26000 9.997
45.28000 10.334
45.30000 6.733
45.32000 11.692
45.34000 6.538
45.36000 5.359
45.38000 9.032
45.40000 16.593
45.42000 12.964
45.44000 10.501
45.46000 11.186
45.48000 9.602
45.50000 11.939
45.52000 20.111
45.54000 16.884
45.56000 12.632
45.58000 14.975
45.60000 17.736
45.62000 20.725
45.64000 19.790
45.66000 21.907
45.68000 23.349
45.70000 19.945
45.72000 16.428
45.74000 22.581
45.76000 25.268
45.78000 25.577
45.80000 27.254
45.82000 30.332
45.84000 22.389
45.86000 27.132
45.88000 27.786
45.90000 27.232
45.92000 31.554
45.94000 30.516
45.96000 30.467
45.98000 34.014
46.00000 41.213
46.02000 41.864
46.04000 41.666
46.06000 40.417
46.08000 38.893
46.10000 35.967
46.12000 44.094
46.14000 47.850
46.16000 52.011
46.18000 49.535
46.20000 53.577
46.22000 51.083
46.24000 50.047
46.26000 50.458
46.28000 55.132
46.30000 57.831
46.32000 65.507
46.34000 66.504
46.36000 73.254
46.38000 71.670
46.40000 70.347
46.42000 70.563
46.44000 78.494
46.46000 80.857
46.48000 83.161
46.50000 82.142
46.52000 79.459
46.54000 81.930
46.56000 87.730
46.58000 89.261
46.60000 92.399
46.62000 87.219
46.64000 88.431
46.66000 92.396
46.68000 94.913
46.70000 104.986
46.72000 106.433
46.74000 100.296
46.76000 101.966
46.78000 106.362
46.80000 107.425
46.82000 95.862
46.84000 103.438
46.86000 118.827
46.88000 110.855
46.90000 111.944
46.92000 118.292
46.94000 120.147
46.96000 113.650
46.98000 115.363
47.00000 120.466
47.02000 121.009
47.04000 116.428
47.06000 118.945
47.08000 110.939
47.10000 111.630
47.12000 111.616
47.14000 112.814
47.16000 106.702
47.18000 101.605
47.20000 97.247
47.22000 99.240
47.24000 92.220
47.26000 89.702
47.28000 90.100
47.30000 84.653
47.32000 80.436
47.34000 79.484
47.36000 84.924
47.38000 85.161
47.40000 81.529
47.42000 77.601
47.44000 73.714
47.46000 73.353
47.48000 69.565
47.50000 68.159
47.52000 65.034
47.54000 61.469
47.56000 64.733
47.58000 65.290
47.60000 60.282
47.62000 53.314
47.64000 46.104
47.66000 39.443
47.68000 43.750
47.70000 44.071
47.72000 41.655
47.74000 41.256
47.76000 37.783
47.78000 36.691
47.80000 41.134
47.82000 35.166
47.84000 35.248
47.86000 34.535
47.88000 31.692
47.90000 26.652
47.92000 27.776
47.94000 26.535
47.96000 22.252
47.98000 23.535
48.00000 21.223
48.02000 17.455
48.04000 14.859
48.06000 13.364
48.08000 20.529
48.10000 20.300
48.12000 17.240
48.14000 15.428
48.16000 13.308
48.18000 13.686
48.20000 14.112
48.22000 12.654
48.24000 11.905
48.26000 12.733
48.28000 14.832
48.30000 12.203
48.32000 10.135
48.34000 7.911
48.36000 11.054
48.38000 7.944
48.40000 5.564
48.42000 6.513
48.44000 5.163
48.46000 5.210
48.48000 6.061
48.50000 4.392
48.52000 5.638
48.54000 1.439
48.56000 4.750
48.58000 6.465
48.60000 7.082
48.62000 4.278
48.64000 0.708
48.66000 6.634
48.68000 6.358
48.70000 2.626
48.72000 -0.018
48.74000 -0.074
48.76000 -2.956
48.78000 2.239
48.80000 8.258
48.82000 6.881
48.84000 1.547
48.86000 4.915
48.88000 6.273
48.90000 2.770
48.92000 -0.160
48.94000 1.823
48.96000 -0.469
48.98000 3.551
49.00000 7.783
49.02000 5.832
49.04000 6.867
49.06000 5.374
49.08000 4.654
49.10000 0.925
49.12000 -2.902
49.14000 -0.425
49.16000 4.722
49.18000 -0.220
49.20000 2.183
49.22000 1.270
49.24000 1.474
49.26000 3.498
49.28000 2.457
49.30000 2.367
49.32000 0.665
49.34000 3.434
49.36000 4.181
49.38000 6.608
49.40000 2.378
49.42000 0.487
49.44000 5.003
49.46000 3.588
49.48000 2.656
49.50000 3.730
49.52000 -2.149
49.54000 0.644
49.56000 8.243
49.58000 3.988
49.60000 1.296
49.62000 0.748
49.64000 -0.061
49.66000 1.056
49.68000 2.571
49.70000 1.407
49.72000 -2.511
49.74000 2.452
49.76000 3.274
49.78000 -1.851
49.80000 -1.464
49.82000 3.559
49.84000 2.273
49.86000 3.508
49.88000 -0.199
49.90000 -2.822
49.92000 -2.777
49.94000 0.378
49.96000 3.113
49.98000 0.719
50.00000 -0.800
50.02000 -1.301
50.04000 -0.364
50.06000 2.462
50.08000 3.020
50.10000 5.528
50.12000 5.187
50.14000 7.076
50.16000 8.231
50.18000 8.600
50.20000 4.600
50.22000 1.863
50.24000 3.699
50.26000 2.985
50.28000 -0.278
50.30000 1.757
50.32000 1.060
50.34000 5.486
50.36000 4.000
50.38000 2.002
50.40000 0.754
50.42000 4.237
50.44000 5.580
50.46000 2.787
50.48000 2.329
50.50000 1.257
50.52000 7.087
50.54000 5.955
50.56000 3.607
50.58000 0.487
50.60000 3.739
50.62000 3.872
50.64000 -2.730
50.66000 0.687
50.68000 -1.805
50.70000 0.217
50.72000 2.803
50.74000 2.343
50.76000 4.083
50.78000 2.621
50.80000 4.285
50.82000 4.026
50.84000 3.440
50.86000 1.161
50.88000 -1.676
50.90000 1.623
50.92000 5.620
50.94000 8.698
50.96000 8.151
50.98000 3.870
51.00000 6.842
51.02000 7.613
51.04000 5.300
51.06000 3.009
51.08000 4.939
51.10000 1.828
51.12000 4.093
51.14000 3.563
51.16000 -0.367
51.18000 -0.590
51.20000 2.858
51.22000 5.002
51.24000 -2.074
51.26000 -2.264
51.28000 0.929
51.30000 1.087
51.32000 0.371
51.34000 3.403
51.36000 5.063
51.38000 4.144
51.40000 1.821
51.42000 1.152
51.44000 4.036
51.46000 2.931
51.48000 1.679
51.50000 3.091
51.52000 2.047
51.54000 2.909
51.56000 5.437
51.58000 3.446
51.60000 3.683
51.62000 -0.345
51.64000 2.512
51.66000 3.063
51.68000 3.949
51.70000 8.154
51.72000 1.366
51.74000 0.603
51.76000 6.161
51.78000 2.927
51.80000 2.395
51.82000 1.068
51.84000 -0.151
51.86000 0.394
51.88000 -0.072
51.90000 4.341
51.92000 2.969
51.94000 3.911
51.96000 1.899
51.98000 -0.060
52.00000 3.050
52.02000 6.131
52.04000 6.001
52.06000 -1.404
52.08000 -2.694
52.10000 -0.099
52.12000 1.784
52.14000 0.333
52.16000 1.202
52.18000 4.757
52.20000 5.054
52.22000 4.481
52.24000 6.346
52.26000 6.976
52.28000 0.690
52.30000 -1.010
52.32000 -2.309
52.34000 -0.656
52.36000 2.184
52.38000 7.000
52.40000 7.060
52.42000 7.420
52.44000 5.275
52.46000 4.079
52.48000 2.722
52.50000 6.451
52.52000 5.507
52.54000 7.573
52.56000 7.643
52.58000 6.637
52.60000 9.054
52.62000 4.942
52.64000 5.217
52.66000 4.099
52.68000 3.583
52.70000 7.561
52.72000 1.900
52.74000 -2.642
52.76000 0.915
52.78000 6.130
52.80000 0.842
52.82000 -1.634
52.84000 6.930
52.86000 5.523
52.88000 5.518
52.90000 5.921
52.92000 6.398
52.94000 3.594
52.96000 9.271
52.98000 12.038
53.00000 3.516
53.02000 5.474
53.04000 4.771
53.06000 6.091
53.08000 9.268
53.10000 5.199
53.12000 5.768
53.14000 6.850
53.16000 8.176
53.18000 9.831
53.20000 2.497
53.22000 4.318
53.24000 3.523
53.26000 3.221
53.28000 4.281
53.30000 3.412
53.32000 5.771
53.34000 4.282
53.36000 4.870
53.38000 5.339
53.40000 4.959
53.42000 1.737
53.44000 3.048
53.46000 6.107
53.48000 7.975
53.50000 6.106
53.52000 2.183
53.54000 5.334
53.56000 8.831
53.58000 5.402
53.60000 -2.612
53.62000 1.076
53.64000 3.731
53.66000 2.449
53.68000 5.924
53.70000 6.088
53.72000 6.885
53.74000 5.239
53.76000 3.735
53.78000 2.441
53.80000 2.813
53.82000 5.836
53.84000 6.336
53.86000 4.447
53.88000 6.287
53.90000 -1.571
53.92000 1.648
53.94000 3.491
53.96000 2.877
53.98000 1.812
54.00000 4.814
54.02000 3.882
54.04000 4.989
54.06000 7.662
54.08000 4.992
54.10000 8.472
54.12000 8.401
54.14000 6.923
54.16000 7.578
54.18000 4.873
54.20000 3.219
54.22000 3.183
54.24000 1.355
54.26000 -2.441
54.28000 -2.638
54.30000 0.137
54.32000 -0.211
54.34000 2.849
54.36000 2.809
54.38000 5.514
54.40000 3.496
54.42000 1.617
54.44000 0.740
54.46000 2.745
54.48000 2.019
54.50000 5.008
54.52000 -0.155
54.54000 -1.469
54.56000 4.012
54.58000 -0.216
54.60000 0.033
54.62000 2.227
54.64000 1.994
54.66000 -0.210
54.68000 -0.339
54.70000 -2.644
54.72000 -0.174
54.74000 1.201
54.76000 -0.750
54.78000 -1.361
54.80000 0.710
54.82000 1.859
54.84000 3.047
54.86000 5.052
54.88000 0.533
54.90000 2.091
54.92000 4.030
54.94000 3.222
54.96000 2.949
54.98000 -0.254
55.00000 -1.451
55.02000 0.348
55.04000 0.436
55.06000 -0.805
55.08000 -0.524
55.10000 1.501
55.12000 -0.034
55.14000 -1.749
55.16000 -0.282
55.18000 3.675
55.20000 1.509
55.22000 3.436
55.24000 5.539
55.26000 3.094
55.28000 0.595
55.30000 0.833
55.32000 2.179
55.34000 6.891
55.36000 0.756
55.38000 -1.367
55.40000 -0.229
55.42000 -2.610
55.44000 -0.006
55.46000 3.945
55.48000 1.598
55.50000 -0.530
55.52000 1.394
55.54000 0.083
55.56000 -2.032
55.58000 0.375
55.60000 -0.683
55.62000 0.163
55.64000 2.200
55.66000 4.741
55.68000 3.366
55.70000 0.272
55.72000 -0.121
55.74000 0.096
55.76000 1.204
55.78000 -0.969
55.80000 2.150
55.82000 -1.443
55.84000 -1.545
55.86000 1.169
55.88000 0.129
55.90000 -1.226
55.92000 0.221
55.94000 1.715
55.96000 -0.267
55.98000 1.027
56.00000 1.212
56.02000 -1.439
56.04000 1.180
56.06000 6.250
56.08000 10.272
56.10000 3.415
56.12000 -2.118
56.14000 -1.529
56.16000 1.829
56.18000 3.580
56.20000 -1.741
56.22000 -0.757
56.24000 -0.052
56.26000 -2.593
56.28000 1.533
56.30000 0.523
56.32000 3.428
56.34000 1.660
56.36000 -1.329
56.38000 1.764
56.40000 2.901
56.42000 0.983
56.44000 3.999
56.46000 3.993
56.48000 1.636
56.50000 0.643
56.52000 7.297
56.54000 7.709
56.56000 3.158
56.58000 2.500
56.60000 -1.134
56.62000 -1.205
56.64000 -0.573
56.66000 1.079
56.68000 -2.299
56.70000 -2.581
56.72000 -0.477
56.74000 1.192
56.76000 -0.812
56.78000 -2.185
56.80000 -1.288
56.82000 -2.475
56.84000 -1.947
56.86000 1.142
56.88000 2.744
56.90000 9.427
56.92000 7.933
56.94000 2.301
56.96000 4.907
56.98000 6.199
57.00000 0.044
57.02000 0.074
57.04000 3.393
57.06000 -1.645
57.08000 -0.393
57.10000 -2.570
57.12000 -2.277
57.14000 -1.834
57.16000 4.997
57.18000 5.843
57.20000 4.817
57.22000 3.341
57.24000 3.785
57.26000 3.281
57.28000 5.319
57.30000 2.515
57.32000 1.609
57.34000 -1.437
57.36000 -1.111
57.38000 6.432
57.40000 6.151
57.42000 1.561
57.44000 0.752
57.46000 1.121
57.48000 -0.183
57.50000 3.805
57.52000 4.202
57.54000 2.040
57.56000 0.792
57.58000 1.614
57.60000 1.785
57.62000 -0.230
57.64000 -1.139
57.66000 2.979
57.68000 4.171
57.70000 3.368
57.72000 2.152
57.74000 -0.388
57.76000 -0.250
57.78000 1.110
57.80000 3.334
57.82000 -0.872
57.84000 -1.117
57.86000 -0.874
57.88000 0.612
57.90000 -0.256
57.92000 3.027
57.94000 3.192
57.96000 1.726
57.98000 4.566
58.00000 -0.093
58.02000 -2.398
58.04000 1.312
58.06000 3.021
58.08000 3.352
58.10000 1.812
58.12000 -2.543
58.14000 1.806
58.16000 3.341
58.18000 0.242
58.20000 0.750
58.22000 1.633
58.24000 2.700
58.26000 1.857
58.28000 1.507
58.30000 1.924
58.32000 4.260
58.34000 1.744
58.36000 2.224
58.38000 2.385
58.40000 2.545
58.42000 2.245
58.44000 -1.858
58.46000 -2.453
58.48000 -2.525
58.50000 1.450
58.52000 1.728
58.54000 1.211
58.56000 1.452
58.58000 3.947
58.60000 -1.123
58.62000 -1.191
58.64000 -0.077
58.66000 2.251
58.68000 1.734
58.70000 2.814
58.72000 3.141
58.74000 4.378
58.76000 2.223
58.78000 1.834
58.80000 -0.427
58.82000 3.346
58.84000 4.037
58.86000 2.029
58.88000 -1.875
58.90000 3.186
58.92000 3.899
58.94000 6.177
58.96000 8.000
58.98000 7.529
59.00000 6.278
59.02000 7.773
59.04000 4.691
59.06000 0.829
59.08000 1.785
59.10000 4.633
59.12000 2.083
59.14000 2.791
59.16000 4.150
59.18000 6.367
59.20000 3.604
59.22000 2.425
59.24000 4.705
59.26000 6.928
59.28000 1.699
59.30000 -2.459
59.32000 0.753
59.34000 5.491
59.36000 5.420
59.38000 7.089
59.40000 7.279
59.42000 9.739
59.44000 8.208
59.46000 9.868
59.48000 8.191
59.50000 2.838
59.52000 4.565
59.54000 4.055
59.56000 1.785
59.58000 4.059
59.60000 4.646
59.62000 3.859
59.64000 4.105
59.66000 2.455
59.68000 5.389
59.70000 3.594
59.72000 3.706
59.74000 5.119
59.76000 2.768
59.78000 6.590
59.80000 4.888
59.82000 7.426
59.84000 7.478
59.86000 2.321
59.88000 -0.612
59.90000 -1.241
59.92000 -2.458
59.94000 -1.972
59.96000 1.318
59.98000 0.012
60.00000 -0.418
60.02000 0.229
60.04000 4.477
60.06000 2.399
60.08000 0.334
60.10000 -0.811
60.12000 -2.373
60.14000 -1.403
60.16000 -0.973
60.18000 0.173
60.20000 -0.381
60.22000 2.776
60.24000 2.877
60.26000 4.044
60.28000 2.003
60.30000 0.459
60.32000 1.310
60.34000 1.334
60.36000 2.936
60.38000 1.965
60.40000 1.594
60.42000 1.802
60.44000 3.327
60.46000 4.102
60.48000 1.014
60.50000 3.041
60.52000 2.897
60.54000 1.979
60.56000 5.970
60.58000 6.467
60.60000 4.955
60.62000 1.115
60.64000 2.063
60.66000 -0.348
60.68000 -2.420
60.70000 -1.384
60.72000 0.924
60.74000 0.769
60.76000 1.373
60.78000 0.981
60.80000 -0.235
60.82000 1.716
60.84000 5.418
60.86000 3.343
60.88000 3.449
60.90000 0.316
60.92000 1.065
60.94000 4.077
60.96000 5.382
60.98000 1.558
61.00000 0.273
61.02000 4.741
61.04000 -0.347
61.06000 -2.413
61.08000 2.688
61.10000 3.324
61.12000 4.106
61.14000 5.267
61.16000 5.987
61.18000 1.094
61.20000 5.586
61.22000 3.977
61.24000 3.762
61.26000 4.853
61.28000 3.329
61.30000 0.591
61.32000 2.254
61.34000 1.376
61.36000 2.299
61.38000 2.555
61.40000 1.972
61.42000 3.899
61.44000 5.191
61.46000 3.568
61.48000 0.301
61.50000 0.419
61.52000 3.195
61.54000 5.442
61.56000 3.394
61.58000 3.244
61.60000 4.581
61.62000 -0.522
61.64000 2.796
61.66000 4.236
61.68000 1.767
61.70000 5.627
61.72000 4.992
61.74000 3.183
61.76000 1.302
61.78000 -0.171
61.80000 2.026
61.82000 -0.403
61.84000 -2.404
61.86000 -2.404
61.88000 1.030
61.90000 2.237
61.92000 0.966
61.94000 -0.303
61.96000 4.780
61.98000 3.170
62.00000 3.589
62.02000 3.807
62.04000 4.206
62.06000 0.283
62.08000 2.300
62.10000 3.468
62.12000 3.230
62.14000 9.346
62.16000 7.875
62.18000 3.124
62.20000 3.171
62.22000 2.621
62.24000 0.904
62.26000 0.763
62.28000 3.408
62.30000 0.199
62.32000 0.680
62.34000 1.327
62.36000 3.598
62.38000 0.886
62.40000 -1.374
62.42000 1.622
62.44000 -0.252
62.46000 -0.825
62.48000 4.585
62.50000 3.497
62.52000 1.746
62.54000 0.942
62.56000 5.271
62.58000 4.261
62.60000 2.675
62.62000 1.847
62.64000 -2.005
62.66000 0.453
62.68000 1.933
62.70000 -2.082
62.72000 0.807
62.74000 -2.222
62.76000 -1.046
62.78000 -2.394
62.80000 0.331
62.82000 2.818
62.84000 -0.136
62.86000 -0.052
62.88000 1.280
62.90000 1.305
62.92000 1.887
62.94000 1.087
62.96000 3.533
62.98000 1.709
63.00000 -2.385
63.02000 -1.028
63.04000 1.322
63.06000 0.842
63.08000 3.099
63.10000 1.676
63.12000 4.642
63.14000 5.012
63.16000 4.521
63.18000 2.894
63.20000 2.342
63.22000 3.814
63.24000 5.549
63.26000 2.763
63.28000 0.589
63.30000 -1.461
63.32000 -0.222
63.34000 2.391
63.36000 1.683
63.38000 5.426
63.40000 6.882
63.42000 2.427
63.44000 5.440
63.46000 4.527
63.48000 3.723
63.50000 0.732
63.52000 8.577
63.54000 6.954
63.56000 2.279
63.58000 1.283
63.60000 4.995
63.62000 0.943
63.64000 -2.373
63.66000 0.567
63.68000 5.820
63.70000 5.103
63.72000 0.258
63.74000 1.405
63.76000 3.080
63.78000 7.768
63.80000 3.406
63.82000 6.323
63.84000 7.725
63.86000 4.481
63.88000 7.133
63.90000 7.356
63.92000 2.919
63.94000 1.556
63.96000 6.871
63.98000 4.969
64.00000 4.045
64.02000 3.983
64.04000 5.812
64.06000 4.394
64.08000 5.178
64.10000 1.595
64.12000 2.761
64.14000 4.925
64.16000 3.329
64.18000 4.268
64.20000 3.453
64.22000 1.197
64.24000 1.998
64.26000 3.756
64.28000 2.845
64.30000 3.503
64.32000 2.991
64.34000 3.797
64.36000 3.706
64.38000 -0.284
64.40000 0.807
64.42000 0.550
64.44000 2.225
64.46000 4.890
64.48000 6.334
64.50000 3.650
64.52000 0.949
64.54000 -1.347
64.56000 2.829
64.58000 6.017
64.60000 3.812
64.62000 -1.391
64.64000 -0.135
64.66000 3.129
64.68000 5.725
64.70000 5.508
64.72000 2.908
64.74000 1.426
64.76000 1.427
64.78000 1.585
64.80000 3.380
64.82000 2.163
64.84000 1.002
64.86000 4.295
64.88000 1.260
64.90000 4.705
64.92000 4.907
64.94000 4.145
64.96000 3.639
64.98000 5.303
65.00000 4.765
65.02000 3.136
65.04000 5.603
65.06000 5.365
65.08000 3.936
65.10000 5.792
65.12000 2.009
65.14000 0.691
65.16000 0.995
65.18000 -2.386
65.20000 0.923
65.22000 5.813
65.24000 4.939
65.26000 6.856
65.28000 6.849
65.30000 3.892
65.32000 1.966
65.34000 1.705
65.36000 4.224
65.38000 4.337
65.40000 4.390
65.42000 3.744
65.44000 1.105
65.46000 0.581
65.48000 3.664
65.50000 3.527
65.52000 4.520
65.54000 0.429
65.56000 2.257
65.58000 2.207
65.60000 1.374
65.62000 3.297
65.64000 3.758
65.66000 3.508
65.68000 8.188
65.70000 5.452
65.72000 7.155
65.74000 2.343
65.76000 0.422
65.78000 2.012
65.80000 4.655
65.82000 5.453
65.84000 3.965
65.86000 6.310
65.88000 3.875
65.90000 1.627
65.92000 2.300
65.94000 4.201
65.96000 2.618
65.98000 3.376
66.00000 4.477
66.02000 5.032
66.04000 1.958
66.06000 2.675
66.08000 1.791
66.10000 1.315
66.12000 2.322
66.14000 1.133
66.16000 -0.260
66.18000 -1.101
66.20000 1.348
66.22000 4.386
66.24000 3.091
66.26000 3.556
66.28000 1.413
66.30000 -2.429
66.32000 2.764
66.34000 3.376
66.36000 3.056
66.38000 1.601
66.40000 1.821
66.42000 3.358
66.44000 1.548
66.46000 3.676
66.48000 2.931
66.50000 1.538
66.52000 -0.678
66.54000 1.506
66.56000 2.599
66.58000 5.744
66.60000 5.479
66.62000 4.407
66.64000 1.906
66.66000 1.705
66.68000 1.333
66.70000 0.076
66.72000 1.449
66.74000 -0.975
66.76000 -0.919
66.78000 2.877
66.80000 5.690
66.82000 4.632
66.84000 1.329
66.86000 3.325
66.88000 1.886
66.90000 -0.379
66.92000 0.306
66.94000 0.313
66.96000 1.488
66.98000 7.272
67.00000 6.028
67.02000 1.837
67.04000 4.744
67.06000 3.691
67.08000 0.985
67.10000 5.248
67.12000 3.664
67.14000 3.870
67.16000 4.134
67.18000 2.675
67.20000 4.390
67.22000 5.451
67.24000 6.221
67.26000 3.259
67.28000 5.056
67.30000 7.992
67.32000 5.809
67.34000 5.125
67.36000 8.308
67.38000 6.020
67.40000 6.891
67.42000 5.222
67.44000 4.435
67.46000 6.790
67.48000 9.667
67.50000 9.266
67.52000 8.960
67.54000 8.021
67.56000 9.384
67.58000 4.533
67.60000 7.604
67.62000 7.987
67.64000 8.742
67.66000 8.069
67.68000 8.594
67.70000 10.508
67.72000 9.832
67.74000 11.417
67.76000 13.853
67.78000 11.909
67.80000 12.296
67.82000 13.139
67.84000 11.158
67.86000 12.399
67.88000 17.163
67.90000 17.459
67.92000 14.049
67.94000 16.260
67.96000 18.171
67.98000 15.729
68.00000 14.224
68.02000 13.921
68.04000 20.702
68.06000 19.950
68.08000 16.589
68.10000 18.716
68.12000 21.664
68.14000 23.677
68.16000 21.560
68.18000 20.681
68.20000 20.242
68.22000 25.915
68.24000 29.613
68.26000 24.721
68.28000 22.744
68.30000 23.307
68.32000 25.309
68.34000 27.456
68.36000 29.658
68.38000 23.540
68.40000 23.167
68.42000 24.809
68.44000 26.349
68.46000 27.835
68.48000 26.165
68.50000 26.975
68.52000 29.403
68.54000 33.667
68.56000 36.374
68.58000 30.574
68.60000 31.415
68.62000 32.065
68.64000 27.671
68.66000 26.806
68.68000 27.445
68.70000 32.003
68.72000 32.650
68.74000 31.009
68.76000 31.423
68.78000 35.597
68.80000 32.889
68.82000 25.983
68.84000 25.489
68.86000 30.910
68.88000 30.389
68.90000 25.475
68.92000 21.561
68.94000 23.085
68.96000 22.688
68.98000 22.568
69.00000 21.677
69.02000 24.005
69.04000 24.632
69.06000 22.899
69.08000 19.443
69.10000 20.163
69.12000 18.658
69.14000 13.262
69.16000 15.457
69.18000 19.957
69.20000 17.744
69.22000 19.534
69.24000 17.709
69.26000 16.598
69.28000 14.483
69.30000 10.230
69.32000 12.069
69.34000 14.281
69.36000 15.124
69.38000 10.307
69.40000 5.244
69.42000 5.443
69.44000 6.928
69.46000 8.008
69.48000 7.273
69.50000 6.277
69.52000 9.875
69.54000 9.017
69.56000 5.824
69.58000 3.783
69.60000 8.663
69.62000 8.135
69.64000 9.400
69.66000 10.256
69.68000 11.733
69.70000 6.669
69.72000 5.733
69.74000 6.561
69.76000 7.138
69.78000 5.188
69.80000 6.162
69.82000 5.092
69.84000 5.208
69.86000 6.405
69.88000 3.341
69.90000 1.258
69.92000 1.610
69.94000 4.345
69.96000 5.553
69.98000 3.749
70.00000 3.101
70.02000 3.262
70.04000 5.473
70.06000 3.685
70.08000 6.663
70.10000 7.109
70.12000 6.411
70.14000 5.443
70.16000 3.538
70.18000 2.954
70.20000 2.559
70.22000 9.099
70.24000 8.246
70.26000 5.358
70.28000 4.441
70.30000 4.573
70.32000 5.296
70.34000 7.837
70.36000 3.405
70.38000 -2.313
70.40000 -1.407
70.42000 2.049
70.44000 1.630
70.46000 1.670
70.48000 2.952
70.50000 3.021
70.52000 2.399
70.54000 2.729
70.56000 0.321
70.58000 -1.466
70.60000 3.321
70.62000 4.912
70.64000 4.981
70.66000 1.810
70.68000 2.751
70.70000 5.090
70.72000 7.181
70.74000 5.250
70.76000 5.699
70.78000 5.928
70.80000 0.611
70.82000 -0.454
70.84000 1.328
70.86000 0.571
70.88000 3.078
70.90000 3.149
70.92000 1.449
70.94000 0.803
70.96000 2.892
70.98000 4.141
71.00000 2.870
71.02000 5.738
71.04000 6.455
71.06000 -0.583
71.08000 -1.889
71.10000 -1.620
71.12000 4.231
71.14000 2.446
71.16000 3.464
71.18000 -0.575
71.20000 1.754
71.22000 2.993
71.24000 2.517
71.26000 -0.785
71.28000 0.248
71.30000 1.006
71.32000 -0.456
71.34000 0.410
71.36000 2.224
71.38000 0.719
71.40000 -2.293
71.42000 -0.175
71.44000 1.412
71.46000 -1.291
71.48000 1.178
71.50000 -1.371
71.52000 -1.108
71.54000 2.465
71.56000 -2.306
71.58000 -1.992
71.60000 5.482
71.62000 3.280
71.64000 2.390
71.66000 -0.843
71.68000 -1.145
71.70000 1.207
71.72000 2.050
71.74000 -0.150
71.76000 -1.370
71.78000 0.502
71.80000 3.627
71.82000 5.008
71.84000 5.004
71.86000 1.482
71.88000 -2.081
71.90000 -1.285
71.92000 0.263
71.94000 2.793
71.96000 2.570
71.98000 3.975
72.00000 0.131
72.02000 0.949
72.04000 2.261
72.06000 0.293
72.08000 1.447
72.10000 2.749
72.12000 7.115
72.14000 -0.647
72.16000 2.518
72.18000 5.269
72.20000 2.174
72.22000 1.028
72.24000 2.874
72.26000 3.535
72.28000 5.479
72.30000 7.575
72.32000 4.701
72.34000 3.720
72.36000 5.642
72.38000 4.429
72.40000 3.360
72.42000 1.102
72.44000 2.218
72.46000 1.240
72.48000 -2.257
72.50000 3.356
72.52000 0.300
72.54000 3.159
72.56000 3.839
72.58000 1.999
72.60000 0.386
72.62000 0.859
72.64000 0.536
72.66000 2.220
72.68000 0.260
72.70000 1.368
72.72000 3.771
72.74000 4.655
72.76000 2.766
72.78000 4.846
72.80000 8.320
72.82000 2.985
72.84000 3.123
72.86000 5.491
72.88000 5.290
72.90000 2.617
72.92000 1.634
72.94000 -1.404
72.96000 1.824
72.98000 4.397
73.00000 4.094
73.02000 2.931
73.04000 5.699
73.06000 4.721
73.08000 4.965
73.10000 6.364
73.12000 3.231
73.14000 2.156
73.16000 2.578
73.18000 -0.840
73.20000 2.482
73.22000 0.064
73.24000 0.941
73.26000 1.091
73.28000 1.965
73.30000 3.135
73.32000 0.449
73.34000 -1.193
73.36000 1.654
73.38000 3.239
73.40000 4.464
73.42000 2.372
73.44000 1.227
73.46000 1.602
73.48000 4.688
73.50000 -1.305
73.52000 -2.209
73.54000 1.874
73.56000 2.584
73.58000 6.103
73.60000 7.788
73.62000 5.752
73.64000 2.763
73.66000 0.513
73.68000 -0.279
73.70000 2.911
73.72000 5.774
73.74000 6.408
73.76000 3.069
73.78000 3.894
73.80000 4.863
73.82000 4.561
73.84000 2.949
73.86000 2.740
73.88000 5.986
73.90000 2.679
73.92000 2.811
73.94000 4.271
73.96000 2.423
73.98000 3.201
74.00000 3.558
74.02000 4.882
74.04000 0.939
74.06000 1.966
74.08000 6.115
74.10000 6.011
74.12000 2.820
74.14000 0.101
74.16000 1.368
74.18000 3.468
74.20000 0.548
74.22000 1.656
74.24000 -0.187
74.26000 -1.608
74.28000 2.745
74.30000 5.366
74.32000 5.604
74.34000 3.373
74.36000 1.750
74.38000 0.153
74.40000 2.901
74.42000 -1.736
74.44000 0.559
74.46000 4.404
74.48000 5.953
74.50000 7.687
74.52000 8.312
74.54000 4.693
74.56000 -2.186
74.58000 -2.224
74.60000 -1.704
74.62000 0.423
74.64000 3.631
74.66000 0.581
74.68000 3.194
74.70000 6.622
74.72000 2.800
74.74000 0.224
74.76000 1.346
74.78000 3.757
74.80000 -0.016
74.82000 1.028
74.84000 0.036
74.86000 3.696
74.88000 4.183
74.90000 4.557
74.92000 3.349
74.94000 1.130
74.96000 1.254
74.98000 1.580
75.00000 2.559
75.02000 5.417
75.04000 1.249
75.06000 -1.135
75.08000 -2.028
75.10000 1.740
75.12000 0.734
75.14000 1.813
75.16000 0.044
75.18000 0.723
75.20000 -0.891
75.22000 -1.799
75.24000 -1.074
75.26000 -2.160
75.28000 2.533
75.30000 0.000
75.32000 0.839
75.34000 0.845
75.36000 2.139
75.38000 5.614
75.40000 7.216
75.42000 0.502
75.44000 -1.499
75.46000 -0.695
75.48000 0.462
75.50000 0.644
75.52000 1.362
75.54000 0.796
75.56000 2.289
75.58000 3.223
75.60000 1.021
75.62000 4.808
75.64000 3.506
75.66000 2.569
75.68000 4.398
75.70000 3.250
75.72000 0.233
75.74000 -0.387
75.76000 1.557
75.78000 -0.053
75.80000 -0.310
75.82000 0.206
75.84000 0.045
75.86000 -1.201
75.88000 -1.444
75.90000 1.881
75.92000 -0.221
75.94000 4.024
75.96000 1.095
75.98000 1.811
76.00000 2.068
76.02000 2.421
76.04000 2.728
76.06000 2.131
76.08000 0.180
76.10000 0.917
76.12000 4.686
76.14000 3.820
76.16000 5.157
76.18000 0.856
76.20000 0.906
76.22000 1.719
76.24000 -2.246
76.26000 1.138
76.28000 -0.963
76.30000 0.493
76.32000 1.092
76.34000 2.170
76.36000 2.243
76.38000 0.269
76.40000 -2.245
76.42000 0.332
76.44000 2.412
76.46000 7.095
76.48000 8.239
76.50000 6.800
76.52000 1.590
76.54000 -1.310
76.56000 1.932
76.58000 1.417
76.60000 -1.233
76.62000 -0.232
76.64000 -1.027
76.66000 -0.140
76.68000 2.146
76.70000 2.220
76.72000 3.959
76.74000 2.961
76.76000 -0.155
76.78000 3.013
76.80000 2.354
76.82000 1.071
76.84000 3.071
76.86000 4.956
76.88000 0.622
76.90000 -2.232
76.92000 1.232
76.94000 4.873
76.96000 5.457
76.98000 4.099
77.00000 5.473
77.02000 3.746
77.04000 1.392
77.06000 7.967
77.08000 6.297
77.10000 7.295
77.12000 5.794
77.14000 3.826
77.16000 6.306
77.18000 7.120
77.20000 7.113
77.22000 4.150
77.24000 6.229
77.26000 6.075
77.28000 4.033
77.30000 0.380
77.32000 1.010
77.34000 0.803
77.36000 1.527
77.38000 1.286
77.40000 3.075
77.42000 4.570
77.44000 -2.241
77.46000 3.985
77.48000 6.468
77.50000 4.687
77.52000 1.768
77.54000 1.510
77.56000 4.078
77.58000 6.264
77.60000 6.663
77.62000 2.681
77.64000 1.006
77.66000 5.022
77.68000 4.194
77.70000 -2.241
77.72000 0.121
77.74000 1.791
77.76000 -2.247
77.78000 -1.804
77.80000 2.127
77.82000 4.147
77.84000 3.663
77.86000 2.687
77.88000 6.304
77.90000 5.705
77.92000 4.640
77.94000 4.320
77.96000 4.225
77.98000 5.358
78.00000 6.094
78.02000 3.216
78.04000 4.970
78.06000 2.808
78.08000 4.475
78.10000 2.137
78.12000 4.703
78.14000 2.482
78.16000 1.981
78.18000 -1.914
78.20000 2.270
78.22000 1.272
78.24000 -2.242
78.26000 -0.184
78.28000 0.622
78.30000 0.782
78.32000 1.464
78.34000 0.772
78.36000 1.656
78.38000 0.520
78.40000 1.125
78.42000 -0.086
78.44000 1.233
78.46000 2.582
78.48000 0.493
78.50000 0.955
78.52000 0.651
78.54000 1.067
78.56000 0.797
78.58000 0.989
78.60000 3.703
78.62000 4.360
78.64000 8.493
78.66000 7.831
78.68000 3.349
78.70000 1.248
78.72000 4.691
78.74000 5.644
78.76000 4.431
78.78000 2.086
78.80000 -0.478
78.82000 0.043
78.84000 -1.706
78.86000 1.033
78.88000 2.635
78.90000 3.024
78.92000 4.251
78.94000 1.499
78.96000 1.664
78.98000 2.643
79.00000 3.613
79.02000 3.857
79.04000 -2.301
79.06000 4.816
79.08000 1.426
79.10000 0.860
79.12000 4.991
79.14000 0.546
79.16000 0.579
79.18000 -2.303
79.20000 0.095
79.22000 5.414
79.24000 3.611
79.26000 1.095
79.28000 -0.474
79.30000 -1.753
79.32000 -0.635
79.34000 2.415
79.36000 5.824
79.38000 3.741
79.40000 1.733
79.42000 7.087
79.44000 4.063
79.46000 0.615
79.48000 1.769
79.50000 6.598
79.52000 3.249
79.54000 0.661
79.56000 -1.189
79.58000 1.012
79.60000 1.944
79.62000 1.419
79.64000 4.323
79.66000 3.179
79.68000 1.709
79.70000 4.283
79.72000 6.816
79.74000 3.079
79.76000 3.067
79.78000 0.586
79.80000 1.950
79.82000 0.746
79.84000 2.434
79.86000 3.066
79.88000 4.053
79.90000 1.710
79.92000 0.235
79.94000 -2.319
79.96000 0.032
79.98000 -1.217
80.00000 -0.294
80.02000 0.709
80.04000 1.792
80.06000 -1.119
80.08000 0.824
80.10000 3.022
80.12000 4.331
80.14000 8.014
80.16000 3.647
80.18000 2.183
80.20000 3.218
80.22000 -1.541
80.24000 -2.337
80.26000 5.066
80.28000 6.529
80.30000 3.875
80.32000 4.316
80.34000 1.780
80.36000 0.118
80.38000 5.342
80.40000 2.492
80.42000 2.671
80.44000 1.823
80.46000 5.074
80.48000 5.381
80.50000 8.135
80.52000 4.431
80.54000 1.833
80.56000 4.460
80.58000 7.338
80.60000 6.310
80.62000 1.261
80.64000 6.937
80.66000 6.928
80.68000 -0.197
80.70000 -1.098
80.72000 2.363
80.74000 -0.118
80.76000 0.537
80.78000 2.104
80.80000 -1.183
80.82000 3.614
80.84000 3.663
80.86000 1.701
80.88000 4.089
80.90000 -0.129
80.92000 2.017
80.94000 2.753
80.96000 0.098
80.98000 3.311
81.00000 6.995
81.02000 0.846
81.04000 5.979
81.06000 7.643
81.08000 4.712
81.10000 3.981
81.12000 4.492
81.14000 7.190
81.16000 2.283
81.18000 0.889
81.20000 3.618
81.22000 6.020
81.24000 5.406
81.26000 7.406
81.28000 2.400
81.30000 1.397
81.32000 7.031
81.34000 8.591
81.36000 7.780
81.38000 4.840
81.40000 4.004
81.42000 6.895
81.44000 10.248
81.46000 4.133
81.48000 2.200
81.50000 7.915
81.52000 12.132
81.54000 9.031
81.56000 8.578
81.58000 4.535
81.60000 4.503
81.62000 9.970
81.64000 9.971
81.66000 6.726
81.68000 9.870
81.70000 13.622
81.72000 13.025
81.74000 8.732
81.76000 11.615
81.78000 13.906
81.80000 15.409
81.82000 14.742
81.84000 18.247
81.86000 15.744
81.88000 14.212
81.90000 17.340
81.92000 19.426
81.94000 17.926
81.96000 15.747
81.98000 18.537
82.00000 14.146
82.02000 18.191
82.04000 21.130
82.06000 12.414
82.08000 17.926
82.10000 19.748
82.12000 19.999
82.14000 21.733
82.16000 20.411
82.18000 19.661
82.20000 22.136
82.22000 24.142
82.24000 25.145
82.26000 22.091
82.28000 25.278
82.30000 29.251
82.32000 26.070
82.34000 31.861
82.36000 28.655
82.38000 30.522
82.40000 32.413
82.42000 26.063
82.44000 28.030
82.46000 29.515
82.48000 25.798
82.50000 29.045
82.52000 30.233
82.54000 34.154
82.56000 37.479
82.58000 36.471
82.60000 30.079
82.62000 32.932
82.64000 30.347
82.66000 34.744
82.68000 33.223
82.70000 33.820
82.72000 40.182
82.74000 33.754
82.76000 40.062
82.78000 38.006
82.80000 34.275
82.82000 31.744
82.84000 29.555
82.86000 29.988
82.88000 32.220
82.90000 36.197
82.92000 38.472
82.94000 35.712
82.96000 32.528
82.98000 30.114
83.00000 31.318
83.02000 32.934
83.04000 32.916
83.06000 31.424
83.08000 30.865
83.10000 34.066
83.12000 31.560
83.14000 23.613
83.16000 25.977
83.18000 21.720
83.20000 28.058
83.22000 29.626
83.24000 20.880
83.26000 23.665
83.28000 25.330
83.30000 20.902
83.32000 19.686
83.34000 18.348
83.36000 21.050
83.38000 27.901
83.40000 25.523
83.42000 21.190
83.44000 17.772
83.46000 18.416
83.48000 18.087
83.50000 16.763
83.52000 17.022
83.54000 19.191
83.56000 19.162
83.58000 17.358
83.60000 13.531
83.62000 12.569
83.64000 12.710
83.66000 14.916
83.68000 12.883
83.70000 13.256
83.72000 11.838
83.74000 16.110
83.76000 14.433
83.78000 12.160
83.80000 9.351
83.82000 11.406
83.84000 16.594
83.86000 14.304
83.88000 9.417
83.90000 7.465
83.92000 5.023
83.94000 6.341
83.96000 5.725
83.98000 7.918
84.00000 3.175
84.02000 5.804
84.04000 3.095
84.06000 7.637
84.08000 5.621
84.10000 5.724
84.12000 3.380
84.14000 4.877
84.16000 2.422
84.18000 2.994
84.20000 2.285
84.22000 5.040
84.24000 6.882
84.26000 7.409
84.28000 2.849
84.30000 -1.253
84.32000 -0.341
84.34000 2.569
84.36000 2.423
84.38000 5.234
84.40000 1.986
84.42000 -0.075
84.44000 -0.659
84.46000 -0.131
84.48000 2.452
84.50000 1.586
84.52000 0.666
84.54000 0.684
84.56000 2.550
84.58000 2.899
84.60000 4.680
84.62000 1.916
84.64000 0.611
84.66000 2.770
84.68000 0.778
84.70000 5.197
84.72000 5.426
84.74000 5.134
84.76000 3.550
84.78000 0.564
84.80000 1.268
84.82000 -0.346
84.84000 1.437
84.86000 2.490
84.88000 1.213
84.90000 3.952
84.92000 5.335
84.94000 0.799
84.96000 -2.299
84.98000 -1.171
85.00000 3.537
85.02000 5.711
85.04000 4.953
85.06000 -2.297
85.08000 1.361
85.10000 1.182
85.12000 4.844
85.14000 1.278
85.16000 0.863
85.18000 -0.848
85.20000 3.269
85.22000 1.673
85.24000 3.461
85.26000 5.003
85.28000 3.300
85.30000 3.916
85.32000 1.332
85.34000 2.997
85.36000 0.290
85.38000 -2.291
85.40000 0.624
85.42000 4.597
85.44000 3.638
85.46000 3.444
85.48000 5.932
85.50000 5.135
85.52000 3.053
85.54000 1.264
85.56000 -2.305
85.58000 0.106
85.60000 2.602
85.62000 4.965
85.64000 4.204
85.66000 3.996
85.68000 1.228
85.70000 4.075
85.72000 4.584
85.74000 1.937
85.76000 1.874
85.78000 1.237
85.80000 2.086
85.82000 3.444
85.84000 2.708
85.86000 9.850
85.88000 9.459
85.90000 5.163
85.92000 1.392
85.94000 3.370
85.96000 5.110
85.98000 6.056
86.00000 7.757
86.02000 2.523
86.04000 1.008
86.06000 3.973
86.08000 5.841
86.10000 5.217
86.12000 3.872
86.14000 8.162
86.16000 7.010
86.18000 6.891
86.20000 6.305
86.22000 5.113
86.24000 6.382
86.26000 4.315
86.28000 3.148
86.30000 4.125
86.32000 10.589
86.34000 5.299
86.36000 4.741
86.38000 -0.372
86.40000 4.163
86.42000 8.993
86.44000 9.730
86.46000 7.730
86.48000 7.530
86.50000 7.606
86.52000 11.142
86.54000 10.717
86.56000 14.131
86.58000 10.959
86.60000 10.302
86.62000 7.940
86.64000 9.127
86.66000 10.584
86.68000 10.471
86.70000 15.578
86.72000 18.857
86.74000 18.033
86.76000 16.294
86.78000 16.036
86.80000 15.908
86.82000 13.730
86.84000 16.939
86.86000 21.091
86.88000 16.690
86.90000 13.760
86.92000 17.310
86.94000 16.881
86.96000 19.342
86.98000 18.866
87.00000 16.545
87.02000 19.842
87.04000 20.759
87.06000 23.083
87.08000 21.350
87.10000 15.815
87.12000 20.402
87.14000 18.745
87.16000 20.279
87.18000 21.416
87.20000 20.280
87.22000 21.618
87.24000 22.255
87.26000 16.491
87.28000 16.335
87.30000 24.542
87.32000 21.221
87.34000 17.957
87.36000 18.751
87.38000 14.241
87.40000 13.993
87.42000 16.450
87.44000 17.034
87.46000 21.259
87.48000 22.444
87.50000 19.809
87.52000 18.387
87.54000 12.969
87.56000 9.195
87.58000 10.181
87.60000 8.674
87.62000 11.963
87.64000 12.100
87.66000 12.302
87.68000 14.109
87.70000 14.134
87.72000 13.352
87.74000 9.810
87.76000 7.443
87.78000 9.146
87.80000 9.991
87.82000 10.512
87.84000 11.319
87.86000 10.165
87.88000 8.186
87.90000 8.149
87.92000 10.083
87.94000 8.647
87.96000 5.334
87.98000 4.899
88.00000 6.005
88.02000 5.621
88.04000 3.951
88.06000 5.548
88.08000 9.366
88.10000 6.636
88.12000 9.247
88.14000 6.750
88.16000 6.646
88.18000 6.855
88.20000 5.401
88.22000 3.971
88.24000 5.861
88.26000 6.207
88.28000 3.610
88.30000 3.043
88.32000 1.321
88.34000 3.046
88.36000 4.889
88.38000 6.267
88.40000 5.267
88.42000 7.250
88.44000 10.675
88.46000 6.916
88.48000 6.050
88.50000 3.457
88.52000 3.945
88.54000 0.906
88.56000 -2.187
88.58000 1.434
88.60000 5.261
88.62000 7.777
88.64000 4.914
88.66000 5.109
88.68000 6.631
88.70000 5.329
88.72000 2.676
88.74000 4.046
88.76000 1.441
88.78000 2.923
88.80000 1.108
88.82000 4.294
88.84000 3.657
88.86000 5.406
88.88000 2.326
88.90000 2.628
88.92000 -1.130
88.94000 -1.804
88.96000 1.056
88.98000 3.217
89.00000 3.251
89.02000 3.912
89.04000 1.137
89.06000 3.909
89.08000 1.571
89.10000 4.183
89.12000 4.074
89.14000 1.537
89.16000 2.791
89.18000 4.653
89.20000 -1.395
89.22000 -2.143
89.24000 5.461
89.26000 4.190
89.28000 4.719
89.30000 3.939
89.32000 0.908
89.34000 -1.463
89.36000 -1.088
89.38000 1.983
89.40000 5.099
89.42000 3.963
89.44000 3.002
89.46000 2.916
89.48000 1.609
89.50000 0.960
89.52000 0.905
89.54000 -0.191
89.56000 -1.381
89.58000 0.937
89.60000 -0.448
89.62000 1.532
89.64000 5.463
89.66000 5.850
89.68000 7.343
89.70000 5.994
89.72000 3.649
89.74000 1.329
89.76000 0.399
89.78000 3.303
89.80000 -0.124
89.82000 1.130
89.84000 -2.138
89.86000 0.650
89.88000 3.303
89.90000 1.310
89.92000 4.276
89.94000 3.069
89.96000 -0.424
89.98000 -1.509
90.00000 -1.701
90.02000 -1.303
90.04000 1.957
90.06000 4.079
90.08000 3.885
90.10000 5.481
90.12000 3.454
90.14000 1.596
90.16000 3.746
90.18000 4.201
90.20000 3.972
90.22000 2.776
90.24000 1.184
90.26000 1.123
90.28000 3.189
90.30000 3.212
90.32000 3.036
90.34000 4.239
90.36000 1.378
90.38000 -2.112
90.40000 -0.413
90.42000 2.338
90.44000 1.504
90.46000 1.894
90.48000 4.115
90.50000 4.835
90.52000 4.166
90.54000 4.956
90.56000 6.124
90.58000 5.604
90.60000 5.140
90.62000 4.039
90.64000 1.369
90.66000 3.494
90.68000 4.898
90.70000 2.710
90.72000 5.731
90.74000 3.719
90.76000 2.191
90.78000 0.807
90.80000 4.471
90.82000 5.702
90.84000 2.823
90.86000 3.735
90.88000 8.518
90.90000 3.270
90.92000 2.400
90.94000 -0.827
90.96000 0.788
90.98000 2.940
91.00000 1.736
91.02000 1.421
91.04000 1.782
91.06000 1.410
91.08000 3.087
91.10000 0.924
91.12000 1.891
91.14000 3.870
91.16000 1.712
91.18000 1.786
91.20000 1.517
91.22000 2.613
91.24000 0.252
91.26000 3.019
91.28000 4.293
91.30000 7.159
91.32000 8.372
91.34000 4.531
91.36000 1.100
91.38000 3.912
91.40000 2.671
91.42000 1.981
91.44000 1.525
91.46000 2.139
91.48000 3.540
91.50000 4.894
91.52000 6.374
91.54000 6.367
91.56000 3.314
91.58000 3.864
91.60000 1.552
91.62000 1.922
91.64000 0.310
91.66000 4.543
91.68000 8.633
91.70000 4.206
91.72000 1.526
91.74000 -0.046
91.76000 2.712
91.78000 1.227
91.80000 0.932
91.82000 8.703
91.84000 10.372
91.86000 7.298
91.88000 4.528
91.90000 -1.333
91.92000 0.891
91.94000 5.164
91.96000 6.550
91.98000 10.368
92.00000 9.134
92.02000 8.889
92.04000 10.056
92.06000 7.518
92.08000 6.893
92.10000 1.582
92.12000 8.339
92.14000 8.460
92.16000 4.765
92.18000 -2.113
92.20000 5.471
92.22000 4.842
92.24000 5.849
92.26000 5.758
92.28000 5.463
92.30000 8.228
92.32000 6.207
92.34000 4.170
92.36000 5.912
92.38000 10.729
92.40000 8.704
92.42000 7.377
92.44000 3.869
92.46000 1.220
92.48000 1.578
92.50000 9.701
92.52000 8.177
92.54000 5.374
92.56000 5.421
92.58000 9.573
92.60000 12.906
92.62000 9.895
92.64000 7.168
92.66000 6.429
92.68000 8.688
92.70000 7.626
92.72000 3.595
92.74000 6.510
92.76000 8.781
92.78000 8.018
92.80000 4.315
92.82000 2.942
92.84000 6.783
92.86000 6.693
92.88000 6.207
92.90000 6.487
92.92000 2.598
92.94000 5.095
92.96000 5.674
92.98000 6.766
93.00000 3.724
93.02000 3.309
93.04000 5.901
93.06000 7.015
93.08000 5.808
93.10000 1.788
93.12000 1.888
93.14000 1.643
93.16000 4.359
93.18000 -0.424
93.20000 -2.063
93.22000 4.276
93.24000 6.647
93.26000 6.380
93.28000 3.741
93.30000 5.920
93.32000 9.580
93.34000 9.856
93.36000 6.764
93.38000 7.536
93.40000 7.532
93.42000 4.701
93.44000 4.845
93.46000 3.737
93.48000 4.606
93.50000 5.555
93.52000 9.924
93.54000 5.512
93.56000 7.978
93.58000 6.357
93.60000 5.953
93.62000 6.501
93.64000 3.194
93.66000 3.423
93.68000 7.232
93.70000 5.390
93.72000 2.778
93.74000 3.668
93.76000 0.919
93.78000 3.532
93.80000 8.092
93.82000 8.664
93.84000 7.648
93.86000 5.804
93.88000 4.087
93.90000 4.459
93.92000 3.336
93.94000 0.234
93.96000 -2.068
93.98000 -0.392
94.00000 1.006
94.02000 9.002
94.04000 9.436
94.06000 9.530
94.08000 9.503
94.10000 8.911
94.12000 4.739
94.14000 1.934
94.16000 6.824
94.18000 10.064
94.20000 10.071
94.22000 5.067
94.24000 3.872
94.26000 6.115
94.28000 8.026
94.30000 6.286
94.32000 11.449
94.34000 5.386
94.36000 0.221
94.38000 1.346
94.40000 8.070
94.42000 6.570
94.44000 4.591
94.46000 4.202
94.48000 3.453
94.50000 5.951
94.52000 5.401
94.54000 3.926
94.56000 2.711
94.58000 5.890
94.60000 7.888
94.62000 10.140
94.64000 8.308
94.66000 0.575
94.68000 4.292
94.70000 6.258
94.72000 6.052
94.74000 5.169
94.76000 8.067
94.78000 5.731
94.80000 3.737
94.82000 3.817
94.84000 5.144
94.86000 10.500
94.88000 6.272
94.90000 3.125
94.92000 0.552
94.94000 0.824
94.96000 3.027
94.98000 3.393
95.00000 5.597
95.02000 6.370
95.04000 4.776
95.06000 3.665
95.08000 2.755
95.10000 0.776
95.12000 3.492
95.14000 2.649
95.16000 1.192
95.18000 3.132
95.20000 6.221
95.22000 8.531
95.24000 7.820
95.26000 5.608
95.28000 1.511
95.30000 4.973
95.32000 3.689
95.34000 2.504
95.36000 -0.621
95.38000 -2.137
95.40000 -1.372
95.42000 -0.881
95.44000 2.744
95.46000 4.693
95.48000 3.871
95.50000 0.675
95.52000 -1.245
95.54000 4.882
95.56000 1.037
95.58000 1.269
95.60000 -1.209
95.62000 6.073
95.64000 4.609
95.66000 3.398
95.68000 4.148
95.70000 5.970
95.72000 10.733
95.74000 7.230
95.76000 2.831
95.78000 2.352
95.80000 6.678
95.82000 5.300
95.84000 3.440
95.86000 5.235
95.88000 4.708
95.90000 3.595
95.92000 -0.617
95.94000 -1.474
95.96000 0.082
95.98000 2.045
96.00000 1.773
96.02000 2.056
96.04000 1.671
96.06000 -1.801
96.08000 0.614
96.10000 -1.553
96.12000 -0.295
96.14000 4.685
96.16000 -1.900
96.18000 1.694
96.20000 3.568
96.22000 4.764
96.24000 6.061
96.26000 6.391
96.28000 3.634
96.30000 3.164
96.32000 1.147
96.34000 3.698
96.36000 3.289
96.38000 -0.177
96.40000 -0.756
96.42000 2.939
96.44000 1.407
96.46000 -2.147
96.48000 2.330
96.50000 -0.605
96.52000 3.377
96.54000 10.146
96.56000 1.328
96.58000 1.573
96.60000 2.184
96.62000 3.940
96.64000 5.044
96.66000 3.357
96.68000 -0.324
96.70000 1.855
96.72000 2.572
96.74000 6.669
96.76000 2.240
96.78000 0.369
96.80000 3.574
96.82000 2.488
96.84000 0.108
96.86000 4.073
96.88000 3.678
96.90000 2.855
96.92000 0.028
96.94000 -2.092
96.96000 2.196
96.98000 2.480
97.00000 4.073
97.02000 8.011
97.04000 6.742
97.06000 5.524
97.08000 5.241
97.10000 3.501
97.12000 -0.766
97.14000 -2.152
97.16000 2.080
97.18000 0.211
97.20000 -1.281
97.22000 0.072
97.24000 1.600
97.26000 4.560
97.28000 0.432
97.30000 5.206
97.32000 3.711
97.34000 5.884
97.36000 3.320
97.38000 -0.124
97.40000 3.821
97.42000 4.808
97.44000 2.231
97.46000 -2.113
97.48000 -0.800
97.50000 3.374
97.52000 5.930
97.54000 1.856
97.56000 6.777
97.58000 3.889
97.60000 5.253
97.62000 3.579
97.64000 5.202
97.66000 1.797
97.68000 3.000
97.70000 4.520
97.72000 1.901
97.74000 1.593
97.76000 0.033
97.78000 -2.131
97.80000 -0.109
97.82000 0.184
97.84000 1.201
97.86000 3.404
97.88000 4.736
97.90000 9.129
97.92000 6.507
97.94000 0.668
97.96000 -0.690
97.98000 -1.365
98.00000 -1.452
98.02000 1.085
98.04000 5.231
98.06000 -0.518
98.08000 2.180
98.10000 -1.024
98.12000 1.926
98.14000 3.584
98.16000 -1.181
98.18000 6.372
98.20000 4.005
98.22000 4.064
98.24000 7.157
98.26000 15.300
98.28000 5.618
98.30000 6.539
98.32000 7.290
98.34000 8.718
98.36000 9.079
98.38000 2.100
98.40000 0.008
98.42000 5.845
98.44000 7.105
98.46000 7.062
98.48000 5.614
98.50000 3.167
98.52000 6.938
98.54000 2.398
98.56000 6.272
98.58000 1.996
98.60000 -0.103
98.62000 -2.072
98.64000 2.449
98.66000 6.514
98.68000 16.365
98.70000 9.041
98.72000 7.979
98.74000 -0.746
98.76000 12.334
98.78000 5.196
98.80000 4.591
98.82000 9.652
98.84000 5.113
98.86000 -0.659
98.88000 -2.061
98.90000 0.712
98.92000 4.461
98.94000 3.570
98.96000 2.498
98.98000 3.174
99.00000 1.874
99.02000 7.083
99.04000 9.918
99.06000 1.782
99.08000 5.738
99.10000 1.534
99.12000 6.119
99.14000 7.511
99.16000 7.579
99.18000 4.679
99.20000 11.052
99.22000 8.956
99.24000 1.856
99.26000 4.160
99.28000 3.669
99.30000 3.921
99.32000 7.002
99.34000 12.512
99.36000 5.997
99.38000 -2.146
99.40000 4.818
99.42000 8.461
99.44000 5.921
99.46000 11.113
99.48000 7.206
99.50000 9.622
99.52000 2.856
99.54000 1.845
99.56000 8.310
99.58000 -3.540
99.60000 1.565
99.62000 11.667
99.64000 8.241
99.66000 10.273
99.68000 9.188
99.70000 10.113
99.72000 12.870
99.74000 9.581
99.76000 14.477
99.78000 4.832
99.80000 8.273
99.82000 5.581
99.84000 4.999
99.86000 -2.090
99.88000 -2.154
99.90000 6.352
99.92000 5.949
99.94000 16.319
99.96000 10.135
99.98000 0.000
