'Id: "0011389" Comment: "Integrate frame 0011389_Au-Ir-Rh_Au-Rich_XRD_Mapping-080-0000.gfrmwith cursor Wedge Cursor #5" Operator: "B?rgel" Anode: "Cu" Wavelength: "1.5406" Scantype: "2Theta (TwoTheta)" TimePerStep: "1" X: "-18" Y: "-18" Z: "5.95" 
10.00000 0.000
10.02000 8.344
10.04000 37.119
10.06000 29.543
10.08000 20.099
10.10000 10.400
10.12000 31.911
10.14000 30.823
10.16000 9.611
10.18000 27.347
10.20000 16.399
10.22000 16.250
10.24000 24.975
10.26000 24.447
10.28000 17.370
10.30000 17.640
10.32000 20.098
10.34000 13.047
10.36000 21.127
10.38000 35.720
10.40000 27.433
10.42000 16.040
10.44000 24.594
10.46000 26.783
10.48000 3.018
10.50000 13.634
10.52000 27.497
10.54000 23.968
10.56000 19.749
10.58000 25.471
10.60000 21.483
10.62000 14.864
10.64000 20.060
10.66000 23.180
10.68000 23.828
10.70000 15.563
10.72000 14.351
10.74000 15.245
10.76000 16.307
10.78000 18.916
10.80000 21.632
10.82000 12.557
10.84000 17.541
10.86000 32.705
10.88000 10.854
10.90000 14.110
10.92000 20.737
10.94000 24.058
10.96000 19.365
10.98000 12.427
11.00000 18.399
11.02000 23.330
11.04000 15.797
11.06000 11.085
11.08000 13.757
11.10000 23.365
11.12000 25.467
11.14000 15.118
11.16000 13.583
11.18000 20.706
11.20000 22.301
11.22000 17.860
11.24000 18.520
11.26000 9.092
11.28000 7.500
11.30000 4.262
11.32000 15.661
11.34000 13.001
11.36000 -0.813
11.38000 0.151
11.40000 4.815
11.42000 8.370
11.44000 9.686
11.46000 7.884
11.48000 11.046
11.50000 19.373
11.52000 27.661
11.54000 31.048
11.56000 31.059
11.58000 27.126
11.60000 32.194
11.62000 22.219
11.64000 9.203
11.66000 7.395
11.68000 22.223
11.70000 14.613
11.72000 23.964
11.74000 26.761
11.76000 15.741
11.78000 14.464
11.80000 12.130
11.82000 15.118
11.84000 6.823
11.86000 6.658
11.88000 9.698
11.90000 3.029
11.92000 11.397
11.94000 11.132
11.96000 7.899
11.98000 15.232
12.00000 7.895
12.02000 9.165
12.04000 12.127
12.06000 17.919
12.08000 16.976
12.10000 6.131
12.12000 18.280
12.14000 30.233
12.16000 18.390
12.18000 13.897
12.20000 14.582
12.22000 18.953
12.24000 21.768
12.26000 10.248
12.28000 11.071
12.30000 24.723
12.32000 22.303
12.34000 8.119
12.36000 8.294
12.38000 11.754
12.40000 7.922
12.42000 4.055
12.44000 8.857
12.46000 12.219
12.48000 5.395
12.50000 13.459
12.52000 1.155
12.54000 5.339
12.56000 10.436
12.58000 6.814
12.60000 11.519
12.62000 16.447
12.64000 17.727
12.66000 21.921
12.68000 14.289
12.70000 14.116
12.72000 11.045
12.74000 15.578
12.76000 17.444
12.78000 6.184
12.80000 9.205
12.82000 16.836
12.84000 7.442
12.86000 2.276
12.88000 5.058
12.90000 8.834
12.92000 7.563
12.94000 8.887
12.96000 8.058
12.98000 10.624
13.00000 10.557
13.02000 7.097
13.04000 15.557
13.06000 7.701
13.08000 2.245
13.10000 10.447
13.12000 4.162
13.14000 11.593
13.16000 18.689
13.18000 15.237
13.20000 -0.943
13.22000 3.305
13.24000 4.509
13.26000 7.944
13.28000 18.385
13.30000 14.685
13.32000 6.562
13.34000 1.235
13.36000 3.348
13.38000 9.273
13.40000 2.765
13.42000 12.138
13.44000 9.794
13.46000 -3.314
13.48000 2.683
13.50000 8.318
13.52000 6.993
13.54000 9.992
13.56000 5.706
13.58000 4.511
13.60000 11.020
13.62000 19.439
13.64000 8.040
13.66000 0.407
13.68000 -1.023
13.70000 4.498
13.72000 13.422
13.74000 10.679
13.76000 8.470
13.78000 14.146
13.80000 6.268
13.82000 9.064
13.84000 15.907
13.86000 16.203
13.88000 14.432
13.90000 11.907
13.92000 5.365
13.94000 5.501
13.96000 9.037
13.98000 5.265
14.00000 1.159
14.02000 8.876
14.04000 13.213
14.06000 10.075
14.08000 3.988
14.10000 7.140
14.12000 2.866
14.14000 11.266
14.16000 4.881
14.18000 1.604
14.20000 3.980
14.22000 11.961
14.24000 8.318
14.26000 3.327
14.28000 1.783
14.30000 5.461
14.32000 14.258
14.34000 10.927
14.36000 -4.468
14.38000 0.065
14.40000 13.372
14.42000 12.050
14.44000 8.221
14.46000 11.108
14.48000 7.610
14.50000 6.964
14.52000 6.362
14.54000 1.777
14.56000 3.597
14.58000 11.315
14.60000 8.079
14.62000 11.586
14.64000 15.657
14.66000 10.941
14.68000 5.629
14.70000 5.380
14.72000 -4.458
14.74000 0.470
14.76000 2.996
14.78000 15.270
14.80000 19.603
14.82000 15.882
14.84000 14.042
14.86000 14.304
14.88000 6.202
14.90000 7.378
14.92000 14.514
14.94000 14.621
14.96000 3.831
14.98000 0.645
15.00000 9.421
15.02000 14.029
15.04000 10.428
15.06000 -2.611
15.08000 2.545
15.10000 7.052
15.12000 5.098
15.14000 7.628
15.16000 16.361
15.18000 8.879
15.20000 4.642
15.22000 10.397
15.24000 14.220
15.26000 3.667
15.28000 -0.945
15.30000 5.284
15.32000 6.640
15.34000 2.514
15.36000 6.821
15.38000 14.115
15.40000 5.656
15.42000 5.238
15.44000 4.224
15.46000 2.739
15.48000 10.989
15.50000 10.794
15.52000 20.534
15.54000 20.386
15.56000 7.709
15.58000 0.738
15.60000 -1.081
15.62000 0.602
15.64000 6.491
15.66000 12.882
15.68000 6.803
15.70000 1.484
15.72000 0.645
15.74000 -0.554
15.76000 6.040
15.78000 8.270
15.80000 8.908
15.82000 10.932
15.84000 2.863
15.86000 7.906
15.88000 12.603
15.90000 10.361
15.92000 0.492
15.94000 -0.931
15.96000 1.362
15.98000 5.470
16.00000 8.732
16.02000 7.443
16.04000 2.044
16.06000 4.657
16.08000 6.706
16.10000 9.390
16.12000 6.085
16.14000 10.943
16.16000 8.143
16.18000 2.306
16.20000 2.617
16.22000 13.808
16.24000 12.427
16.26000 2.401
16.28000 8.006
16.30000 4.758
16.32000 -4.008
16.34000 2.069
16.36000 5.606
16.38000 9.811
16.40000 7.363
16.42000 1.929
16.44000 8.838
16.46000 11.531
16.48000 11.094
16.50000 9.377
16.52000 9.683
16.54000 7.477
16.56000 0.472
16.58000 -2.505
16.60000 -0.491
16.62000 2.835
16.64000 3.337
16.66000 -1.163
16.68000 2.390
16.70000 9.133
16.72000 8.877
16.74000 3.113
16.76000 -0.769
16.78000 3.193
16.80000 7.658
16.82000 8.372
16.84000 7.407
16.86000 5.220
16.88000 6.736
16.90000 12.443
16.92000 14.295
16.94000 8.824
16.96000 8.324
16.98000 10.483
17.00000 7.185
17.02000 -4.345
17.04000 -2.517
17.06000 6.686
17.08000 12.171
17.10000 0.716
17.12000 3.617
17.14000 13.194
17.16000 9.074
17.18000 2.279
17.20000 10.479
17.22000 17.387
17.24000 15.098
17.26000 9.825
17.28000 7.141
17.30000 6.413
17.32000 12.123
17.34000 4.900
17.36000 3.936
17.38000 4.985
17.40000 3.199
17.42000 4.591
17.44000 8.668
17.46000 4.151
17.48000 3.803
17.50000 4.061
17.52000 4.205
17.54000 3.657
17.56000 1.695
17.58000 5.182
17.60000 9.873
17.62000 8.576
17.64000 2.856
17.66000 8.965
17.68000 10.299
17.70000 9.756
17.72000 4.151
17.74000 6.453
17.76000 8.314
17.78000 13.464
17.80000 14.453
17.82000 5.592
17.84000 -2.234
17.86000 2.411
17.88000 7.636
17.90000 -2.283
17.92000 -2.013
17.94000 7.870
17.96000 9.456
17.98000 7.780
18.00000 3.931
18.02000 2.659
18.04000 3.698
18.06000 6.620
18.08000 7.349
18.10000 8.176
18.12000 4.917
18.14000 5.517
18.16000 9.840
18.18000 10.844
18.20000 1.023
18.22000 1.322
18.24000 6.762
18.26000 8.514
18.28000 3.972
18.30000 -0.806
18.32000 6.394
18.34000 8.170
18.36000 11.108
18.38000 12.352
18.40000 5.436
18.42000 9.009
18.44000 7.746
18.46000 8.025
18.48000 13.375
18.50000 10.720
18.52000 6.554
18.54000 3.131
18.56000 3.068
18.58000 5.834
18.60000 -0.778
18.62000 0.255
18.64000 10.122
18.66000 13.004
18.68000 9.919
18.70000 11.009
18.72000 10.845
18.74000 9.976
18.76000 10.853
18.78000 12.058
18.80000 9.823
18.82000 6.273
18.84000 4.116
18.86000 6.997
18.88000 6.070
18.90000 -1.176
18.92000 -2.615
18.94000 0.366
18.96000 5.983
18.98000 -4.163
19.00000 2.931
19.02000 9.232
19.04000 10.341
19.06000 10.537
19.08000 6.922
19.10000 2.733
19.12000 2.710
19.14000 3.635
19.16000 8.489
19.18000 11.512
19.20000 13.484
19.22000 3.713
19.24000 -4.031
19.26000 -4.218
19.28000 8.791
19.30000 9.857
19.32000 11.223
19.34000 7.110
19.36000 1.004
19.38000 2.409
19.40000 5.486
19.42000 12.082
19.44000 12.234
19.46000 3.537
19.48000 3.175
19.50000 3.592
19.52000 5.325
19.54000 1.629
19.56000 4.810
19.58000 -0.081
19.60000 3.365
19.62000 0.589
19.64000 -4.200
19.66000 -2.402
19.68000 6.487
19.70000 8.954
19.72000 7.352
19.74000 4.368
19.76000 6.066
19.78000 14.715
19.80000 16.280
19.82000 11.317
19.84000 8.523
19.86000 5.157
19.88000 9.161
19.90000 8.958
19.92000 9.803
19.94000 15.114
19.96000 9.054
19.98000 3.958
20.00000 4.713
20.02000 5.467
20.04000 3.672
20.06000 11.005
20.08000 9.888
20.10000 3.901
20.12000 6.404
20.14000 5.229
20.16000 4.345
20.18000 6.702
20.20000 12.397
20.22000 12.386
20.24000 6.414
20.26000 1.606
20.28000 -1.775
20.30000 4.799
20.32000 10.204
20.34000 6.766
20.36000 6.040
20.38000 4.552
20.40000 10.556
20.42000 4.235
20.44000 10.041
20.46000 10.204
20.48000 5.957
20.50000 6.555
20.52000 4.088
20.54000 7.352
20.56000 4.585
20.58000 3.436
20.60000 -2.851
20.62000 2.531
20.64000 6.652
20.66000 5.959
20.68000 2.720
20.70000 1.325
20.72000 5.186
20.74000 5.149
20.76000 7.137
20.78000 7.926
20.80000 11.967
20.82000 10.896
20.84000 7.343
20.86000 -2.685
20.88000 -4.138
20.90000 0.802
20.92000 7.302
20.94000 11.108
20.96000 6.030
20.98000 6.185
21.00000 4.731
21.02000 5.950
21.04000 4.500
21.06000 4.757
21.08000 8.555
21.10000 9.403
21.12000 10.544
21.14000 4.105
21.16000 5.676
21.18000 8.907
21.20000 3.036
21.22000 9.497
21.24000 3.231
21.26000 -0.074
21.28000 -2.360
21.30000 1.200
21.32000 4.879
21.34000 0.414
21.36000 -0.885
21.38000 2.308
21.40000 9.279
21.42000 5.613
21.44000 1.111
21.46000 4.156
21.48000 3.075
21.50000 1.010
21.52000 2.454
21.54000 10.075
21.56000 9.249
21.58000 3.936
21.60000 3.841
21.62000 -0.836
21.64000 4.633
21.66000 3.450
21.68000 1.212
21.70000 0.852
21.72000 -4.108
21.74000 -3.674
21.76000 2.824
21.78000 0.026
21.80000 3.126
21.82000 6.997
21.84000 5.590
21.86000 6.877
21.88000 6.250
21.90000 6.877
21.92000 2.440
21.94000 4.704
21.96000 7.466
21.98000 5.546
22.00000 -1.423
22.02000 2.430
22.04000 7.103
22.06000 4.274
22.08000 0.116
22.10000 5.737
22.12000 7.389
22.14000 2.459
22.16000 4.480
22.18000 6.130
22.20000 7.655
22.22000 7.650
22.24000 4.311
22.26000 4.991
22.28000 6.679
22.30000 5.440
22.32000 5.566
22.34000 3.626
22.36000 3.943
22.38000 9.470
22.40000 9.232
22.42000 7.690
22.44000 11.187
22.46000 2.791
22.48000 1.786
22.50000 4.078
22.52000 7.378
22.54000 -0.757
22.56000 9.999
22.58000 4.037
22.60000 3.526
22.62000 5.310
22.64000 3.935
22.66000 3.793
22.68000 2.804
22.70000 4.813
22.72000 3.557
22.74000 2.752
22.76000 2.127
22.78000 -0.066
22.80000 2.055
22.82000 2.978
22.84000 -0.590
22.86000 1.151
22.88000 5.553
22.90000 8.275
22.92000 7.602
22.94000 4.204
22.96000 11.749
22.98000 9.219
23.00000 1.754
23.02000 5.700
23.04000 7.575
23.06000 4.164
23.08000 11.302
23.10000 5.040
23.12000 11.158
23.14000 7.591
23.16000 3.788
23.18000 4.020
23.20000 2.382
23.22000 1.918
23.24000 1.845
23.26000 2.628
23.28000 9.930
23.30000 11.810
23.32000 6.911
23.34000 5.867
23.36000 11.526
23.38000 6.070
23.40000 9.725
23.42000 2.209
23.44000 -3.982
23.46000 6.696
23.48000 8.653
23.50000 4.582
23.52000 5.494
23.54000 3.629
23.56000 5.652
23.58000 2.787
23.60000 1.807
23.62000 4.204
23.64000 8.798
23.66000 6.642
23.68000 3.808
23.70000 6.348
23.72000 2.368
23.74000 1.438
23.76000 4.864
23.78000 2.505
23.80000 5.692
23.82000 7.668
23.84000 1.245
23.86000 1.947
23.88000 5.901
23.90000 1.147
23.92000 2.296
23.94000 3.501
23.96000 3.171
23.98000 0.688
24.00000 -0.340
24.02000 0.967
24.04000 7.422
24.06000 9.132
24.08000 -2.059
24.10000 1.540
24.12000 9.304
24.14000 11.771
24.16000 1.176
24.18000 2.272
24.20000 4.602
24.22000 9.187
24.24000 5.220
24.26000 -0.361
24.28000 3.829
24.30000 7.777
24.32000 4.817
24.34000 4.481
24.36000 7.572
24.38000 12.117
24.40000 6.346
24.42000 8.260
24.44000 8.957
24.46000 3.906
24.48000 5.133
24.50000 4.777
24.52000 -0.154
24.54000 0.768
24.56000 5.675
24.58000 1.206
24.60000 2.988
24.62000 -0.872
24.64000 4.450
24.66000 10.242
24.68000 9.238
24.70000 5.684
24.72000 10.618
24.74000 8.318
24.76000 5.609
24.78000 6.208
24.80000 5.710
24.82000 3.625
24.84000 10.001
24.86000 8.127
24.88000 2.330
24.90000 3.836
24.92000 4.280
24.94000 4.255
24.96000 0.584
24.98000 1.168
25.00000 3.739
25.02000 7.009
25.04000 4.548
25.06000 2.289
25.08000 3.689
25.10000 4.036
25.12000 6.357
25.14000 5.489
25.16000 3.619
25.18000 4.201
25.20000 2.743
25.22000 2.297
25.24000 2.736
25.26000 3.022
25.28000 -0.109
25.30000 -3.889
25.32000 1.774
25.34000 8.026
25.36000 7.344
25.38000 8.666
25.40000 3.610
25.42000 1.824
25.44000 4.102
25.46000 6.907
25.48000 -0.047
25.50000 0.522
25.52000 4.626
25.54000 6.942
25.56000 7.783
25.58000 3.970
25.60000 5.502
25.62000 1.048
25.64000 4.801
25.66000 2.503
25.68000 4.111
25.70000 5.878
25.72000 6.181
25.74000 6.134
25.76000 9.519
25.78000 7.768
25.80000 5.557
25.82000 1.693
25.84000 0.901
25.86000 5.755
25.88000 8.808
25.90000 5.226
25.92000 6.710
25.94000 10.975
25.96000 9.052
25.98000 9.596
26.00000 11.141
26.02000 10.465
26.04000 7.922
26.06000 9.704
26.08000 6.427
26.10000 6.271
26.12000 9.197
26.14000 10.838
26.16000 8.821
26.18000 10.008
26.20000 7.889
26.22000 4.524
26.24000 5.182
26.26000 5.985
26.28000 13.413
26.30000 11.036
26.32000 10.346
26.34000 6.937
26.36000 6.976
26.38000 7.216
26.40000 4.324
26.42000 2.726
26.44000 7.452
26.46000 7.327
26.48000 2.662
26.50000 -3.792
26.52000 1.783
26.54000 9.755
26.56000 6.275
26.58000 6.205
26.60000 5.671
26.62000 6.711
26.64000 9.485
26.66000 8.535
26.68000 8.943
26.70000 7.590
26.72000 7.978
26.74000 9.393
26.76000 8.817
26.78000 11.868
26.80000 6.747
26.82000 3.334
26.84000 4.245
26.86000 7.818
26.88000 8.330
26.90000 6.121
26.92000 1.765
26.94000 8.383
26.96000 9.385
26.98000 7.568
27.00000 3.583
27.02000 1.479
27.04000 6.382
27.06000 10.748
27.08000 13.501
27.10000 6.326
27.12000 5.098
27.14000 8.892
27.16000 4.474
27.18000 7.609
27.20000 1.070
27.22000 3.389
27.24000 2.017
27.26000 0.330
27.28000 0.675
27.30000 3.361
27.32000 4.226
27.34000 4.657
27.36000 5.292
27.38000 3.185
27.40000 7.470
27.42000 3.509
27.44000 3.973
27.46000 2.738
27.48000 2.461
27.50000 3.408
27.52000 3.992
27.54000 6.154
27.56000 2.688
27.58000 0.541
27.60000 1.651
27.62000 2.235
27.64000 2.284
27.66000 1.024
27.68000 7.038
27.70000 3.522
27.72000 -0.638
27.74000 1.986
27.76000 2.030
27.78000 6.779
27.80000 8.039
27.82000 4.868
27.84000 1.665
27.86000 -0.872
27.88000 4.012
27.90000 2.405
27.92000 -2.094
27.94000 -2.974
27.96000 -3.767
27.98000 7.471
28.00000 1.788
28.02000 -1.304
28.04000 5.227
28.06000 6.389
28.08000 5.438
28.10000 10.549
28.12000 5.214
28.14000 0.596
28.16000 8.575
28.18000 6.548
28.20000 -1.016
28.22000 -1.874
28.24000 1.820
28.26000 3.491
28.28000 6.194
28.30000 1.590
28.32000 1.163
28.34000 7.485
28.36000 3.631
28.38000 4.487
28.40000 5.899
28.42000 3.495
28.44000 0.878
28.46000 1.981
28.48000 2.021
28.50000 6.402
28.52000 10.246
28.54000 9.325
28.56000 3.725
28.58000 1.381
28.60000 12.316
28.62000 7.852
28.64000 4.163
28.66000 6.123
28.68000 7.560
28.70000 6.237
28.72000 5.838
28.74000 4.232
28.76000 10.920
28.78000 5.965
28.80000 -0.487
28.82000 1.441
28.84000 1.894
28.86000 0.591
28.88000 -0.311
28.90000 0.041
28.92000 1.516
28.94000 2.942
28.96000 3.536
28.98000 0.832
29.00000 0.379
29.02000 3.444
29.04000 6.672
29.06000 5.175
29.08000 0.425
29.10000 -0.373
29.12000 2.088
29.14000 -3.234
29.16000 2.053
29.18000 5.789
29.20000 5.145
29.22000 2.941
29.24000 4.200
29.26000 3.928
29.28000 6.404
29.30000 3.904
29.32000 8.224
29.34000 8.664
29.36000 8.343
29.38000 3.788
29.40000 1.866
29.42000 4.872
29.44000 6.889
29.46000 5.126
29.48000 -3.689
29.50000 -1.210
29.52000 2.680
29.54000 7.414
29.56000 6.172
29.58000 -1.754
29.60000 -3.679
29.62000 5.048
29.64000 8.595
29.66000 3.440
29.68000 6.288
29.70000 7.902
29.72000 7.952
29.74000 8.037
29.76000 8.726
29.78000 6.703
29.80000 8.092
29.82000 4.404
29.84000 2.601
29.86000 4.874
29.88000 -0.654
29.90000 -0.592
29.92000 0.741
29.94000 2.367
29.96000 4.413
29.98000 7.781
30.00000 8.063
30.02000 2.111
30.04000 2.592
30.06000 -1.381
30.08000 -0.476
30.10000 5.413
30.12000 5.181
30.14000 5.842
30.16000 5.548
30.18000 1.763
30.20000 4.037
30.22000 7.164
30.24000 8.190
30.26000 4.250
30.28000 2.835
30.30000 6.926
30.32000 9.849
30.34000 5.830
30.36000 3.087
30.38000 2.625
30.40000 3.915
30.42000 4.717
30.44000 3.248
30.46000 2.171
30.48000 -2.303
30.50000 -3.622
30.52000 5.533
30.54000 7.278
30.56000 3.305
30.58000 3.705
30.60000 5.367
30.62000 4.890
30.64000 5.212
30.66000 1.618
30.68000 3.307
30.70000 4.724
30.72000 6.528
30.74000 4.122
30.76000 5.644
30.78000 3.680
30.80000 1.875
30.82000 4.687
30.84000 8.433
30.86000 11.885
30.88000 3.986
30.90000 3.234
30.92000 5.101
30.94000 6.083
30.96000 5.508
30.98000 2.343
31.00000 4.517
31.02000 3.589
31.04000 6.222
31.06000 10.357
31.08000 13.113
31.10000 5.276
31.12000 4.997
31.14000 5.518
31.16000 8.622
31.18000 3.036
31.20000 2.720
31.22000 4.497
31.24000 2.108
31.26000 -0.194
31.28000 -1.064
31.30000 -0.105
31.32000 0.138
31.34000 -0.361
31.36000 2.237
31.38000 -2.109
31.40000 -3.608
31.42000 2.311
31.44000 1.476
31.46000 4.239
31.48000 1.732
31.50000 4.686
31.52000 6.312
31.54000 5.386
31.56000 0.986
31.58000 -0.806
31.60000 0.999
31.62000 2.996
31.64000 2.601
31.66000 2.890
31.68000 5.516
31.70000 3.835
31.72000 0.044
31.74000 2.108
31.76000 1.812
31.78000 3.228
31.80000 1.114
31.82000 3.608
31.84000 4.180
31.86000 0.768
31.88000 3.242
31.90000 2.984
31.92000 6.693
31.94000 3.657
31.96000 0.510
31.98000 -3.068
32.00000 5.713
32.02000 1.500
32.04000 5.926
32.06000 1.319
32.08000 0.866
32.10000 2.555
32.12000 11.357
32.14000 8.505
32.16000 4.549
32.18000 4.732
32.20000 6.860
32.22000 5.180
32.24000 -1.397
32.26000 -3.535
32.28000 -1.006
32.30000 5.273
32.32000 2.805
32.34000 3.881
32.36000 7.294
32.38000 2.214
32.40000 1.221
32.42000 4.909
32.44000 0.459
32.46000 -3.575
32.48000 2.036
32.50000 3.302
32.52000 4.557
32.54000 7.671
32.56000 12.425
32.58000 4.807
32.60000 3.943
32.62000 5.349
32.64000 0.811
32.66000 0.662
32.68000 -1.040
32.70000 3.750
32.72000 3.702
32.74000 3.369
32.76000 2.639
32.78000 3.860
32.80000 2.914
32.82000 2.892
32.84000 4.102
32.86000 4.143
32.88000 3.374
32.90000 2.778
32.92000 2.401
32.94000 -0.564
32.96000 -0.167
32.98000 2.545
33.00000 5.705
33.02000 0.205
33.04000 -1.625
33.06000 -2.501
33.08000 2.615
33.10000 0.968
33.12000 -1.187
33.14000 -1.930
33.16000 1.748
33.18000 0.433
33.20000 3.248
33.22000 4.623
33.24000 3.623
33.26000 5.266
33.28000 5.324
33.30000 1.234
33.32000 -2.557
33.34000 -1.310
33.36000 5.950
33.38000 6.649
33.40000 3.161
33.42000 4.525
33.44000 1.676
33.46000 -1.795
33.48000 -2.386
33.50000 1.771
33.52000 5.450
33.54000 5.834
33.56000 0.232
33.58000 1.908
33.60000 1.597
33.62000 0.641
33.64000 3.119
33.66000 -2.030
33.68000 4.165
33.70000 6.146
33.72000 1.166
33.74000 1.447
33.76000 6.144
33.78000 6.755
33.80000 4.171
33.82000 5.081
33.84000 6.522
33.86000 6.876
33.88000 3.747
33.90000 -0.009
33.92000 -0.307
33.94000 0.666
33.96000 3.805
33.98000 2.740
34.00000 -1.646
34.02000 -0.266
34.04000 5.460
34.06000 7.549
34.08000 4.281
34.10000 2.874
34.12000 3.421
34.14000 5.503
34.16000 7.240
34.18000 5.697
34.20000 1.548
34.22000 1.460
34.24000 1.269
34.26000 0.181
34.28000 4.150
34.30000 -0.368
34.32000 1.534
34.34000 7.900
34.36000 7.443
34.38000 4.329
34.40000 4.866
34.42000 1.369
34.44000 -3.552
34.46000 1.815
34.48000 2.949
34.50000 1.486
34.52000 -0.188
34.54000 2.640
34.56000 2.681
34.58000 5.821
34.60000 2.948
34.62000 1.630
34.64000 1.109
34.66000 2.398
34.68000 -1.600
34.70000 -2.956
34.72000 2.659
34.74000 -0.238
34.76000 3.979
34.78000 3.380
34.80000 5.096
34.82000 2.912
34.84000 -0.272
34.86000 0.921
34.88000 6.393
34.90000 8.047
34.92000 3.902
34.94000 2.683
34.96000 1.870
34.98000 0.964
35.00000 2.702
35.02000 -0.081
35.04000 -2.845
35.06000 2.478
35.08000 0.841
35.10000 3.167
35.12000 9.294
35.14000 7.885
35.16000 -0.056
35.18000 -2.555
35.20000 0.928
35.22000 4.576
35.24000 0.309
35.26000 1.041
35.28000 -1.066
35.30000 0.078
35.32000 0.904
35.34000 -2.348
35.36000 -3.551
35.38000 0.458
35.40000 2.726
35.42000 5.918
35.44000 6.886
35.46000 0.660
35.48000 -3.549
35.50000 -3.324
35.52000 3.300
35.54000 7.018
35.56000 4.605
35.58000 2.450
35.60000 3.432
35.62000 2.758
35.64000 2.809
35.66000 2.969
35.68000 1.495
35.70000 -2.034
35.72000 4.514
35.74000 5.176
35.76000 7.242
35.78000 6.272
35.80000 3.522
35.82000 6.401
35.84000 4.092
35.86000 1.901
35.88000 2.364
35.90000 2.767
35.92000 1.058
35.94000 0.135
35.96000 1.208
35.98000 7.222
36.00000 4.884
36.02000 -0.259
36.04000 0.697
36.06000 2.296
36.08000 -1.846
36.10000 0.027
36.12000 0.439
36.14000 1.166
36.16000 2.915
36.18000 7.237
36.20000 2.741
36.22000 -1.087
36.24000 3.680
36.26000 2.496
36.28000 3.511
36.30000 3.084
36.32000 0.281
36.34000 2.156
36.36000 7.395
36.38000 2.218
36.40000 6.976
36.42000 10.033
36.44000 4.339
36.46000 1.126
36.48000 1.815
36.50000 3.320
36.52000 2.079
36.54000 2.012
36.56000 -2.894
36.58000 -0.719
36.60000 -1.685
36.62000 -1.730
36.64000 -3.578
36.66000 -1.588
36.68000 5.493
36.70000 2.006
36.72000 -2.846
36.74000 3.426
36.76000 4.508
36.78000 2.656
36.80000 -1.652
36.82000 4.884
36.84000 8.716
36.86000 7.738
36.88000 8.180
36.90000 7.677
36.92000 7.879
36.94000 2.697
36.96000 2.583
36.98000 3.503
37.00000 7.465
37.02000 5.978
37.04000 3.611
37.06000 3.751
37.08000 9.639
37.10000 10.810
37.12000 9.591
37.14000 6.765
37.16000 10.359
37.18000 8.845
37.20000 8.458
37.22000 6.304
37.24000 2.664
37.26000 8.614
37.28000 9.688
37.30000 6.145
37.32000 6.572
37.34000 11.166
37.36000 12.780
37.38000 7.899
37.40000 12.560
37.42000 14.579
37.44000 11.117
37.46000 11.727
37.48000 11.229
37.50000 7.020
37.52000 3.887
37.54000 9.501
37.56000 9.338
37.58000 8.909
37.60000 12.944
37.62000 13.057
37.64000 11.366
37.66000 12.875
37.68000 11.537
37.70000 14.908
37.72000 12.986
37.74000 16.450
37.76000 16.423
37.78000 20.441
37.80000 19.268
37.82000 18.053
37.84000 14.260
37.86000 11.009
37.88000 12.508
37.90000 20.245
37.92000 25.672
37.94000 24.982
37.96000 20.626
37.98000 24.963
38.00000 24.911
38.02000 22.922
38.04000 24.181
38.06000 27.988
38.08000 26.332
38.10000 28.635
38.12000 30.721
38.14000 31.900
38.16000 31.801
38.18000 27.114
38.20000 26.163
38.22000 27.680
38.24000 31.617
38.26000 35.444
38.28000 38.353
38.30000 37.395
38.32000 42.431
38.34000 41.365
38.36000 41.136
38.38000 43.339
38.40000 50.948
38.42000 50.561
38.44000 46.405
38.46000 48.765
38.48000 56.154
38.50000 58.828
38.52000 59.346
38.54000 61.337
38.56000 62.957
38.58000 73.427
38.60000 74.899
38.62000 76.036
38.64000 85.546
38.66000 84.722
38.68000 87.723
38.70000 88.032
38.72000 92.665
38.74000 96.541
38.76000 103.437
38.78000 110.320
38.80000 113.269
38.82000 112.455
38.84000 123.276
38.86000 130.772
38.88000 138.166
38.90000 145.018
38.92000 155.122
38.94000 161.639
38.96000 171.674
38.98000 180.623
39.00000 188.655
39.02000 203.627
39.04000 216.767
39.06000 235.484
39.08000 244.110
39.10000 258.091
39.12000 268.805
39.14000 283.694
39.16000 307.985
39.18000 327.175
39.20000 346.969
39.22000 368.741
39.24000 390.626
39.26000 414.197
39.28000 431.817
39.30000 453.693
39.32000 473.033
39.34000 490.008
39.36000 506.848
39.38000 531.595
39.40000 540.864
39.42000 556.333
39.44000 586.248
39.46000 593.140
39.48000 602.438
39.50000 612.448
39.52000 616.931
39.54000 621.367
39.56000 625.774
39.58000 621.790
39.60000 629.723
39.62000 626.332
39.64000 609.791
39.66000 599.285
39.68000 591.042
39.70000 584.854
39.72000 584.909
39.74000 565.504
39.76000 544.344
39.78000 514.607
39.80000 492.901
39.82000 472.748
39.84000 460.218
39.86000 441.704
39.88000 420.387
39.90000 403.708
39.92000 383.128
39.94000 355.859
39.96000 334.506
39.98000 316.749
40.00000 298.459
40.02000 285.993
40.04000 266.497
40.06000 246.517
40.08000 228.288
40.10000 211.552
40.12000 198.527
40.14000 188.543
40.16000 174.694
40.18000 165.635
40.20000 153.845
40.22000 149.990
40.24000 143.759
40.26000 139.359
40.28000 127.963
40.30000 115.790
40.32000 108.135
40.34000 101.703
40.36000 89.678
40.38000 86.001
40.40000 79.271
40.42000 78.735
40.44000 72.053
40.46000 70.955
40.48000 67.630
40.50000 58.747
40.52000 56.875
40.54000 52.983
40.56000 57.229
40.58000 53.411
40.60000 46.621
40.62000 43.885
40.64000 43.794
40.66000 40.788
40.68000 40.252
40.70000 36.134
40.72000 35.424
40.74000 32.141
40.76000 26.952
40.78000 26.198
40.80000 25.380
40.82000 25.044
40.84000 25.314
40.86000 27.189
40.88000 28.307
40.90000 25.247
40.92000 22.435
40.94000 19.798
40.96000 17.080
40.98000 19.852
41.00000 20.263
41.02000 13.496
41.04000 12.027
41.06000 11.950
41.08000 13.781
41.10000 12.627
41.12000 11.188
41.14000 10.455
41.16000 8.983
41.18000 5.447
41.20000 7.280
41.22000 10.775
41.24000 10.552
41.26000 12.097
41.28000 8.410
41.30000 6.708
41.32000 8.974
41.34000 8.772
41.36000 8.073
41.38000 6.722
41.40000 6.920
41.42000 3.839
41.44000 4.396
41.46000 8.099
41.48000 10.030
41.50000 4.093
41.52000 4.649
41.54000 5.253
41.56000 2.977
41.58000 1.993
41.60000 6.807
41.62000 4.073
41.64000 0.752
41.66000 -0.351
41.68000 2.702
41.70000 2.101
41.72000 1.985
41.74000 -2.257
41.76000 -2.138
41.78000 2.520
41.80000 3.819
41.82000 -0.238
41.84000 -0.365
41.86000 1.628
41.88000 -0.525
41.90000 -0.928
41.92000 0.683
41.94000 0.651
41.96000 -3.395
41.98000 -1.427
42.00000 1.376
42.02000 -3.403
42.04000 -2.508
42.06000 1.398
42.08000 0.271
42.10000 0.442
42.12000 -0.506
42.14000 2.340
42.16000 0.411
42.18000 2.936
42.20000 2.370
42.22000 -1.215
42.24000 -3.181
42.26000 1.021
42.28000 0.952
42.30000 0.237
42.32000 0.496
42.34000 -0.030
42.36000 -2.156
42.38000 -1.688
42.40000 0.273
42.42000 1.846
42.44000 -3.246
42.46000 -1.414
42.48000 -0.759
42.50000 2.550
42.52000 0.569
42.54000 -1.282
42.56000 -2.551
42.58000 -3.071
42.60000 -1.677
42.62000 3.216
42.64000 0.660
42.66000 -0.679
42.68000 -3.104
42.70000 -1.733
42.72000 1.271
42.74000 0.167
42.76000 1.625
42.78000 -1.478
42.80000 -0.729
42.82000 4.225
42.84000 0.563
42.86000 -3.031
42.88000 0.873
42.90000 -0.719
42.92000 1.459
42.94000 2.876
42.96000 -1.732
42.98000 -0.408
43.00000 0.202
43.02000 2.892
43.04000 4.154
43.06000 3.363
43.08000 0.685
43.10000 -0.450
43.12000 -0.061
43.14000 1.299
43.16000 2.896
43.18000 2.544
43.20000 1.623
43.22000 -3.222
43.24000 0.539
43.26000 2.545
43.28000 2.062
43.30000 1.598
43.32000 -0.681
43.34000 2.117
43.36000 -0.447
43.38000 -0.928
43.40000 5.532
43.42000 8.639
43.44000 3.630
43.46000 1.359
43.48000 -3.189
43.50000 -0.614
43.52000 1.921
43.54000 2.157
43.56000 -0.147
43.58000 0.336
43.60000 -2.161
43.62000 -0.796
43.64000 -0.072
43.66000 1.218
43.68000 4.066
43.70000 2.532
43.72000 1.173
43.74000 0.371
43.76000 -1.560
43.78000 2.580
43.80000 1.733
43.82000 -1.412
43.84000 -2.320
43.86000 -0.513
43.88000 5.131
43.90000 4.147
43.92000 0.702
43.94000 2.127
43.96000 0.366
43.98000 -3.173
44.00000 1.092
44.02000 1.434
44.04000 -3.170
44.06000 -1.128
44.08000 1.912
44.10000 -0.692
44.12000 -0.894
44.14000 3.623
44.16000 3.337
44.18000 4.455
44.20000 0.040
44.22000 3.369
44.24000 3.064
44.26000 -1.057
44.28000 -1.054
44.30000 -3.166
44.32000 -2.306
44.34000 0.347
44.36000 1.100
44.38000 4.281
44.40000 3.815
44.42000 1.574
44.44000 0.817
44.46000 -0.226
44.48000 2.091
44.50000 2.073
44.52000 0.025
44.54000 -0.458
44.56000 0.367
44.58000 1.410
44.60000 3.964
44.62000 1.485
44.64000 0.040
44.66000 2.261
44.68000 4.490
44.70000 4.701
44.72000 4.232
44.74000 5.762
44.76000 3.402
44.78000 -1.398
44.80000 2.387
44.82000 3.677
44.84000 6.441
44.86000 6.512
44.88000 5.872
44.90000 5.404
44.92000 4.747
44.94000 5.130
44.96000 10.261
44.98000 10.566
45.00000 3.730
45.02000 4.867
45.04000 5.115
45.06000 6.044
45.08000 6.524
45.10000 6.550
45.12000 10.629
45.14000 11.524
45.16000 8.899
45.18000 11.031
45.20000 9.981
45.22000 8.544
45.24000 6.934
45.26000 9.706
45.28000 14.597
45.30000 13.284
45.32000 11.686
45.34000 15.484
45.36000 17.006
45.38000 18.353
45.40000 18.579
45.42000 21.228
45.44000 22.634
45.46000 20.507
45.48000 21.066
45.50000 28.591
45.52000 29.976
45.54000 26.992
45.56000 26.701
45.58000 27.195
45.60000 26.908
45.62000 26.763
45.64000 30.420
45.66000 34.985
45.68000 36.403
45.70000 31.302
45.72000 35.960
45.74000 35.509
45.76000 36.528
45.78000 40.587
45.80000 45.612
45.82000 45.247
45.84000 43.533
45.86000 46.904
45.88000 50.383
45.90000 51.380
45.92000 53.836
45.94000 58.660
45.96000 57.277
45.98000 55.846
46.00000 56.208
46.02000 60.701
46.04000 58.997
46.06000 57.419
46.08000 61.639
46.10000 62.009
46.12000 67.200
46.14000 66.955
46.16000 65.876
46.18000 64.606
46.20000 69.239
46.22000 67.625
46.24000 65.073
46.26000 66.410
46.28000 71.008
46.30000 65.100
46.32000 66.517
46.34000 65.585
46.36000 64.640
46.38000 63.990
46.40000 60.444
46.42000 60.886
46.44000 59.263
46.46000 61.288
46.48000 56.162
46.50000 56.973
46.52000 57.449
46.54000 54.200
46.56000 56.632
46.58000 57.558
46.60000 52.468
46.62000 48.422
46.64000 46.387
46.66000 45.224
46.68000 45.511
46.70000 40.845
46.72000 42.330
46.74000 40.677
46.76000 35.482
46.78000 37.982
46.80000 34.251
46.82000 29.029
46.84000 25.791
46.86000 23.456
46.88000 28.321
46.90000 25.831
46.92000 23.277
46.94000 18.480
46.96000 14.568
46.98000 17.569
47.00000 21.018
47.02000 16.242
47.04000 15.688
47.06000 19.091
47.08000 17.299
47.10000 13.979
47.12000 10.662
47.14000 9.743
47.16000 11.802
47.18000 11.828
47.20000 6.992
47.22000 4.875
47.24000 5.681
47.26000 5.783
47.28000 1.701
47.30000 1.575
47.32000 5.401
47.34000 4.525
47.36000 4.075
47.38000 6.346
47.40000 4.072
47.42000 2.154
47.44000 3.642
47.46000 4.365
47.48000 3.533
47.50000 4.003
47.52000 5.055
47.54000 5.213
47.56000 3.335
47.58000 4.630
47.60000 5.495
47.62000 4.918
47.64000 5.076
47.66000 -2.787
47.68000 0.850
47.70000 2.673
47.72000 0.950
47.74000 1.041
47.76000 3.952
47.78000 3.891
47.80000 -1.261
47.82000 -2.753
47.84000 5.950
47.86000 5.708
47.88000 1.712
47.90000 1.496
47.92000 3.025
47.94000 5.347
47.96000 4.654
47.98000 2.885
48.00000 1.891
48.02000 4.364
48.04000 6.063
48.06000 3.253
48.08000 1.073
48.10000 2.410
48.12000 4.624
48.14000 0.266
48.16000 0.068
48.18000 6.089
48.20000 3.667
48.22000 1.604
48.24000 -0.779
48.26000 -0.381
48.28000 -0.653
48.30000 -2.040
48.32000 -0.982
48.34000 3.274
48.36000 4.727
48.38000 3.531
48.40000 3.359
48.42000 4.760
48.44000 1.346
48.46000 -2.672
48.48000 3.024
48.50000 6.975
48.52000 4.896
48.54000 3.603
48.56000 2.254
48.58000 3.764
48.60000 5.087
48.62000 4.258
48.64000 1.845
48.66000 4.016
48.68000 3.187
48.70000 1.907
48.72000 3.079
48.74000 2.901
48.76000 1.064
48.78000 -0.977
48.80000 1.234
48.82000 4.701
48.84000 5.252
48.86000 2.072
48.88000 -0.416
48.90000 1.923
48.92000 4.119
48.94000 11.728
48.96000 4.087
48.98000 -0.823
49.00000 -2.245
49.02000 -2.623
49.04000 0.271
49.06000 1.692
49.08000 2.084
49.10000 5.261
49.12000 6.181
49.14000 3.011
49.16000 5.206
49.18000 2.714
49.20000 1.407
49.22000 1.678
49.24000 1.597
49.26000 3.252
49.28000 0.835
49.30000 -0.838
49.32000 0.678
49.34000 5.787
49.36000 2.946
49.38000 1.573
49.40000 -0.116
49.42000 1.011
49.44000 0.424
49.46000 4.813
49.48000 7.127
49.50000 2.242
49.52000 0.319
49.54000 -0.713
49.56000 0.473
49.58000 2.715
49.60000 -0.615
49.62000 -1.557
49.64000 1.051
49.66000 0.014
49.68000 1.195
49.70000 2.849
49.72000 2.830
49.74000 2.370
49.76000 2.116
49.78000 0.884
49.80000 1.413
49.82000 1.312
49.84000 2.623
49.86000 6.889
49.88000 6.222
49.90000 0.071
49.92000 -0.157
49.94000 -0.209
49.96000 0.241
49.98000 4.143
50.00000 4.020
50.02000 0.801
50.04000 -1.199
50.06000 -1.318
50.08000 0.531
50.10000 1.555
50.12000 1.668
50.14000 3.925
50.16000 -0.752
50.18000 1.957
50.20000 4.406
50.22000 0.068
50.24000 -0.075
50.26000 2.176
50.28000 3.833
50.30000 1.563
50.32000 -0.172
50.34000 -1.313
50.36000 -1.334
50.38000 -2.226
50.40000 -2.569
50.42000 0.999
50.44000 -0.178
50.46000 4.577
50.48000 8.708
50.50000 2.360
50.52000 0.645
50.54000 -0.112
50.56000 0.677
50.58000 5.056
50.60000 3.593
50.62000 2.222
50.64000 4.624
50.66000 4.551
50.68000 3.394
50.70000 -0.987
50.72000 4.185
50.74000 4.163
50.76000 2.367
50.78000 -2.555
50.80000 -1.539
50.82000 2.014
50.84000 2.731
50.86000 2.918
50.88000 1.404
50.90000 6.306
50.92000 2.128
50.94000 2.017
50.96000 -0.218
50.98000 3.673
51.00000 3.869
51.02000 3.785
51.04000 1.572
51.06000 2.263
51.08000 1.081
51.10000 1.931
51.12000 4.633
51.14000 3.798
51.16000 5.660
51.18000 5.661
51.20000 1.130
51.22000 -2.537
51.24000 0.794
51.26000 4.295
51.28000 0.117
51.30000 1.450
51.32000 6.198
51.34000 5.083
51.36000 2.872
51.38000 1.505
51.40000 3.607
51.42000 1.533
51.44000 4.549
51.46000 5.391
51.48000 2.746
51.50000 2.067
51.52000 -0.859
51.54000 -1.160
51.56000 -0.752
51.58000 0.088
51.60000 -0.343
51.62000 -0.141
51.64000 -1.110
51.66000 -0.809
51.68000 -1.718
51.70000 -1.019
51.72000 3.339
51.74000 3.002
51.76000 -0.723
51.78000 0.940
51.80000 2.319
51.82000 0.413
51.84000 3.552
51.86000 1.583
51.88000 -0.473
51.90000 1.854
51.92000 2.111
51.94000 2.644
51.96000 3.702
51.98000 4.533
52.00000 3.430
52.02000 2.546
52.04000 3.666
52.06000 5.330
52.08000 1.414
52.10000 0.861
52.12000 4.498
52.14000 1.031
52.16000 3.334
52.18000 2.504
52.20000 2.791
52.22000 1.070
52.24000 0.957
52.26000 3.573
52.28000 3.618
52.30000 -0.435
52.32000 -2.497
52.34000 3.676
52.36000 3.009
52.38000 2.250
52.40000 2.040
52.42000 4.777
52.44000 8.467
52.46000 2.680
52.48000 0.668
52.50000 3.932
52.52000 0.884
52.54000 2.788
52.56000 2.390
52.58000 5.773
52.60000 3.704
52.62000 4.088
52.64000 5.190
52.66000 3.278
52.68000 3.009
52.70000 2.131
52.72000 3.801
52.74000 3.244
52.76000 0.536
52.78000 3.779
52.80000 5.118
52.82000 4.232
52.84000 2.854
52.86000 0.705
52.88000 0.540
52.90000 -0.135
52.92000 0.520
52.94000 0.678
52.96000 6.145
52.98000 2.101
53.00000 2.456
53.02000 3.662
53.04000 3.566
53.06000 2.599
53.08000 -0.906
53.10000 0.294
53.12000 1.158
53.14000 1.369
53.16000 0.296
53.18000 1.087
53.20000 4.878
53.22000 2.154
53.24000 1.951
53.26000 3.099
53.28000 5.122
53.30000 0.850
53.32000 0.032
53.34000 4.151
53.36000 1.935
53.38000 4.167
53.40000 4.790
53.42000 1.965
53.44000 -0.778
53.46000 -0.718
53.48000 2.434
53.50000 2.842
53.52000 5.347
53.54000 2.235
53.56000 2.493
53.58000 3.301
53.60000 2.218
53.62000 -0.093
53.64000 0.184
53.66000 3.031
53.68000 9.610
53.70000 5.230
53.72000 3.510
53.74000 4.710
53.76000 6.846
53.78000 5.675
53.80000 5.488
53.82000 3.592
53.84000 -0.423
53.86000 -2.441
53.88000 -0.551
53.90000 1.176
53.92000 5.438
53.94000 3.506
53.96000 4.815
53.98000 4.415
54.00000 3.460
54.02000 5.874
54.04000 4.702
54.06000 2.639
54.08000 3.314
54.10000 3.620
54.12000 5.091
54.14000 5.946
54.16000 4.719
54.18000 2.603
54.20000 3.196
54.22000 3.512
54.24000 1.069
54.26000 1.864
54.28000 1.252
54.30000 0.985
54.32000 2.656
54.34000 -0.046
54.36000 0.057
54.38000 3.764
54.40000 0.220
54.42000 2.257
54.44000 3.568
54.46000 0.966
54.48000 -1.834
54.50000 -1.727
54.52000 1.034
54.54000 3.262
54.56000 2.573
54.58000 -0.688
54.60000 0.078
54.62000 2.948
54.64000 0.571
54.66000 0.057
54.68000 1.754
54.70000 4.780
54.72000 3.622
54.74000 3.865
54.76000 5.374
54.78000 2.845
54.80000 0.078
54.82000 2.475
54.84000 1.006
54.86000 0.769
54.88000 -2.225
54.90000 1.318
54.92000 2.606
54.94000 -0.475
54.96000 -0.903
54.98000 -2.440
55.00000 -1.442
55.02000 3.244
55.04000 3.503
55.06000 2.980
55.08000 0.914
55.10000 1.475
55.12000 1.427
55.14000 -0.719
55.16000 0.680
55.18000 1.156
55.20000 1.939
55.22000 1.600
55.24000 -0.465
55.26000 0.083
55.28000 1.983
55.30000 3.394
55.32000 2.778
55.34000 1.264
55.36000 3.643
55.38000 2.096
55.40000 2.366
55.42000 4.869
55.44000 3.907
55.46000 2.319
55.48000 0.738
55.50000 0.004
55.52000 4.427
55.54000 1.937
55.56000 2.417
55.58000 2.609
55.60000 2.160
55.62000 2.239
55.64000 -1.992
55.66000 -1.960
55.68000 3.325
55.70000 2.101
55.72000 -0.104
55.74000 -1.890
55.76000 0.961
55.78000 -0.637
55.80000 2.192
55.82000 3.709
55.84000 3.431
55.86000 1.884
55.88000 -1.557
55.90000 -0.996
55.92000 1.555
55.94000 2.062
55.96000 0.509
55.98000 0.908
56.00000 0.969
56.02000 2.294
56.04000 4.029
56.06000 4.150
56.08000 1.774
56.10000 0.444
56.12000 1.138
56.14000 5.958
56.16000 2.693
56.18000 1.460
56.20000 -1.041
56.22000 3.288
56.24000 3.552
56.26000 3.197
56.28000 1.649
56.30000 3.565
56.32000 0.846
56.34000 0.407
56.36000 1.070
56.38000 3.008
56.40000 3.981
56.42000 0.672
56.44000 -0.092
56.46000 4.878
56.48000 6.327
56.50000 2.626
56.52000 4.098
56.54000 8.306
56.56000 7.110
56.58000 0.457
56.60000 1.821
56.62000 2.225
56.64000 1.210
56.66000 0.085
56.68000 0.874
56.70000 1.687
56.72000 4.066
56.74000 7.843
56.76000 8.115
56.78000 5.484
56.80000 1.556
56.82000 -2.369
56.84000 -0.583
56.86000 2.690
56.88000 4.594
56.90000 1.345
56.92000 3.083
56.94000 0.108
56.96000 3.567
56.98000 3.331
57.00000 3.088
57.02000 0.669
57.04000 3.268
57.06000 6.605
57.08000 8.277
57.10000 4.041
57.12000 -1.024
57.14000 1.570
57.16000 3.922
57.18000 3.455
57.20000 3.191
57.22000 2.514
57.24000 1.714
57.26000 3.098
57.28000 5.447
57.30000 1.492
57.32000 -2.039
57.34000 -2.373
57.36000 -1.852
57.38000 -2.045
57.40000 4.619
57.42000 2.261
57.44000 2.093
57.46000 2.929
57.48000 4.316
57.50000 -0.556
57.52000 -0.764
57.54000 -1.822
57.56000 0.202
57.58000 1.253
57.60000 2.522
57.62000 2.251
57.64000 1.645
57.66000 0.337
57.68000 1.484
57.70000 0.797
57.72000 1.830
57.74000 2.920
57.76000 6.673
57.78000 2.207
57.80000 0.909
57.82000 1.701
57.84000 1.247
57.86000 0.828
57.88000 -1.661
57.90000 -2.365
57.92000 -0.304
57.94000 0.477
57.96000 1.731
57.98000 2.258
58.00000 1.880
58.02000 -1.583
58.04000 0.614
58.06000 1.011
58.08000 -1.253
58.10000 -0.413
58.12000 1.042
58.14000 0.195
58.16000 0.294
58.18000 -0.294
58.20000 3.128
58.22000 2.605
58.24000 1.133
58.26000 2.361
58.28000 0.224
58.30000 -0.736
58.32000 0.104
58.34000 -1.809
58.36000 0.697
58.38000 2.639
58.40000 0.678
58.42000 -0.913
58.44000 1.408
58.46000 -0.157
58.48000 2.289
58.50000 -1.388
58.52000 -2.336
58.54000 4.117
58.56000 3.919
58.58000 0.729
58.60000 3.815
58.62000 4.233
58.64000 4.565
58.66000 2.193
58.68000 2.655
58.70000 3.027
58.72000 3.912
58.74000 3.158
58.76000 -0.515
58.78000 1.301
58.80000 0.843
58.82000 3.692
58.84000 -1.501
58.86000 0.444
58.88000 1.784
58.90000 0.939
58.92000 2.954
58.94000 1.523
58.96000 0.224
58.98000 0.536
59.00000 0.635
59.02000 0.210
59.04000 3.867
59.06000 2.986
59.08000 4.312
59.10000 3.086
59.12000 3.972
59.14000 1.190
59.16000 -1.241
59.18000 0.802
59.20000 -0.499
59.22000 -0.219
59.24000 1.022
59.26000 3.718
59.28000 4.083
59.30000 4.866
59.32000 -0.770
59.34000 -0.355
59.36000 1.377
59.38000 4.481
59.40000 1.341
59.42000 -1.238
59.44000 -1.165
59.46000 0.164
59.48000 3.488
59.50000 4.395
59.52000 3.192
59.54000 -0.899
59.56000 0.038
59.58000 1.924
59.60000 2.742
59.62000 -1.272
59.64000 -0.230
59.66000 2.330
59.68000 2.643
59.70000 1.026
59.72000 -0.922
59.74000 -2.332
59.76000 0.905
59.78000 0.353
59.80000 1.282
59.82000 4.637
59.84000 1.506
59.86000 1.006
59.88000 3.506
59.90000 2.391
59.92000 2.104
59.94000 3.501
59.96000 3.615
59.98000 3.951
60.00000 2.831
60.02000 -0.910
60.04000 -1.551
60.06000 1.075
60.08000 1.777
60.10000 0.862
60.12000 -0.779
60.14000 0.196
60.16000 2.531
60.18000 -1.898
60.20000 0.732
60.22000 0.603
60.24000 -1.245
60.26000 -1.139
60.28000 0.029
60.30000 1.713
60.32000 1.052
60.34000 -1.502
60.36000 0.959
60.38000 -1.873
60.40000 0.010
60.42000 1.573
60.44000 0.560
60.46000 -0.011
60.48000 0.623
60.50000 0.208
60.52000 1.167
60.54000 -2.314
60.56000 -1.059
60.58000 1.999
60.60000 4.974
60.62000 3.003
60.64000 0.874
60.66000 0.117
60.68000 -0.689
60.70000 0.463
60.72000 -0.365
60.74000 1.863
60.76000 1.200
60.78000 -1.591
60.80000 2.227
60.82000 0.473
60.84000 0.370
60.86000 0.457
60.88000 0.234
60.90000 1.431
60.92000 -0.212
60.94000 1.156
60.96000 -0.121
60.98000 0.822
61.00000 -1.420
61.02000 0.612
61.04000 3.218
61.06000 5.324
61.08000 3.682
61.10000 3.487
61.12000 4.117
61.14000 3.662
61.16000 4.830
61.18000 2.476
61.20000 0.572
61.22000 0.410
61.24000 2.097
61.26000 3.480
61.28000 1.526
61.30000 1.577
61.32000 1.876
61.34000 4.191
61.36000 4.006
61.38000 2.709
61.40000 -1.093
61.42000 -2.244
61.44000 -0.320
61.46000 0.497
61.48000 1.389
61.50000 -0.469
61.52000 -0.933
61.54000 2.247
61.56000 1.102
61.58000 0.030
61.60000 0.982
61.62000 0.774
61.64000 1.247
61.66000 2.980
61.68000 3.244
61.70000 -1.091
61.72000 -0.091
61.74000 2.831
61.76000 1.426
61.78000 0.905
61.80000 2.787
61.82000 0.804
61.84000 0.702
61.86000 4.339
61.88000 5.461
61.90000 4.609
61.92000 2.630
61.94000 -1.362
61.96000 -1.227
61.98000 -0.818
62.00000 0.472
62.02000 1.849
62.04000 -1.706
62.06000 -2.266
62.08000 2.005
62.10000 1.229
62.12000 -0.627
62.14000 -0.992
62.16000 0.422
62.18000 0.050
62.20000 -1.899
62.22000 1.711
62.24000 -1.140
62.26000 0.848
62.28000 -0.872
62.30000 -0.251
62.32000 0.579
62.34000 2.084
62.36000 2.100
62.38000 4.629
62.40000 4.057
62.42000 -1.722
62.44000 2.351
62.46000 1.037
62.48000 2.860
62.50000 -0.990
62.52000 1.177
62.54000 -0.376
62.56000 1.226
62.58000 -1.570
62.60000 0.678
62.62000 0.369
62.64000 0.226
62.66000 0.208
62.68000 0.289
62.70000 -0.036
62.72000 -0.044
62.74000 0.846
62.76000 2.923
62.78000 0.782
62.80000 0.446
62.82000 0.511
62.84000 0.479
62.86000 4.549
62.88000 1.977
62.90000 -1.205
62.92000 0.864
62.94000 1.666
62.96000 0.024
62.98000 0.347
63.00000 -2.240
63.02000 0.162
63.04000 -1.354
63.06000 0.143
63.08000 2.498
63.10000 4.221
63.12000 2.899
63.14000 1.349
63.16000 1.888
63.18000 2.073
63.20000 2.031
63.22000 0.642
63.24000 -0.403
63.26000 1.496
63.28000 -0.810
63.30000 0.919
63.32000 1.995
63.34000 0.578
63.36000 0.325
63.38000 0.337
63.40000 2.331
63.42000 2.246
63.44000 3.401
63.46000 3.186
63.48000 2.560
63.50000 0.386
63.52000 0.122
63.54000 -2.224
63.56000 -0.240
63.58000 3.590
63.60000 3.357
63.62000 4.216
63.64000 4.321
63.66000 2.658
63.68000 0.720
63.70000 3.200
63.72000 1.804
63.74000 -0.841
63.76000 3.783
63.78000 2.061
63.80000 -0.240
63.82000 -2.150
63.84000 -2.206
63.86000 2.245
63.88000 4.926
63.90000 1.304
63.92000 0.716
63.94000 1.759
63.96000 3.635
63.98000 4.204
64.00000 4.284
64.02000 4.818
64.04000 2.445
64.06000 1.097
64.08000 2.033
64.10000 -0.028
64.12000 0.689
64.14000 1.742
64.16000 3.639
64.18000 1.723
64.20000 0.049
64.22000 3.098
64.24000 2.654
64.26000 2.664
64.28000 1.289
64.30000 -1.127
64.32000 -1.576
64.34000 0.729
64.36000 2.249
64.38000 3.280
64.40000 1.414
64.42000 0.597
64.44000 1.353
64.46000 1.970
64.48000 3.196
64.50000 2.289
64.52000 0.308
64.54000 -2.184
64.56000 -1.432
64.58000 -1.554
64.60000 -1.341
64.62000 -0.364
64.64000 -0.083
64.66000 -2.227
64.68000 -2.204
64.70000 -1.413
64.72000 -1.643
64.74000 -0.607
64.76000 -1.760
64.78000 -0.204
64.80000 0.891
64.82000 1.559
64.84000 1.965
64.86000 2.190
64.88000 0.597
64.90000 -0.968
64.92000 -0.619
64.94000 0.036
64.96000 -0.140
64.98000 -0.651
65.00000 -1.384
65.02000 -0.369
65.04000 2.347
65.06000 2.102
65.08000 0.867
65.10000 -0.816
65.12000 -1.120
65.14000 1.375
65.16000 2.245
65.18000 1.640
65.20000 1.192
65.22000 1.601
65.24000 -0.029
65.26000 2.999
65.28000 2.101
65.30000 1.262
65.32000 -2.227
65.34000 -0.654
65.36000 2.079
65.38000 3.205
65.40000 1.511
65.42000 1.615
65.44000 1.946
65.46000 0.551
65.48000 1.773
65.50000 -0.860
65.52000 -0.565
65.54000 0.346
65.56000 2.136
65.58000 0.768
65.60000 1.404
65.62000 -2.234
65.64000 0.160
65.66000 1.745
65.68000 -2.059
65.70000 -1.315
65.72000 0.738
65.74000 -0.718
65.76000 -0.032
65.78000 0.970
65.80000 0.352
65.82000 1.290
65.84000 -2.035
65.86000 -0.506
65.88000 -1.936
65.90000 -1.726
65.92000 -1.141
65.94000 -0.065
65.96000 1.933
65.98000 0.392
66.00000 -2.243
66.02000 -1.617
66.04000 0.959
66.06000 0.585
66.08000 1.324
66.10000 3.492
66.12000 -0.685
66.14000 -2.246
66.16000 -1.903
66.18000 -0.676
66.20000 0.409
66.22000 -1.129
66.24000 -2.044
66.26000 -0.007
66.28000 0.595
66.30000 -0.092
66.32000 1.056
66.34000 -0.284
66.36000 0.065
66.38000 1.700
66.40000 3.894
66.42000 0.459
66.44000 1.892
66.46000 -0.720
66.48000 2.798
66.50000 1.616
66.52000 2.893
66.54000 0.882
66.56000 -0.139
66.58000 1.849
66.60000 2.934
66.62000 -0.367
66.64000 -0.030
66.66000 4.092
66.68000 0.980
66.70000 0.444
66.72000 0.749
66.74000 -1.260
66.76000 -1.978
66.78000 -0.049
66.80000 0.655
66.82000 4.635
66.84000 4.371
66.86000 3.228
66.88000 3.666
66.90000 4.960
66.92000 3.885
66.94000 3.464
66.96000 2.579
66.98000 2.728
67.00000 7.403
67.02000 8.177
67.04000 5.074
67.06000 4.684
67.08000 6.921
67.10000 10.788
67.12000 9.034
67.14000 8.211
67.16000 7.490
67.18000 5.354
67.20000 7.296
67.22000 8.907
67.24000 5.925
67.26000 6.549
67.28000 8.177
67.30000 9.100
67.32000 10.455
67.34000 10.681
67.36000 10.229
67.38000 10.706
67.40000 6.987
67.42000 5.798
67.44000 9.489
67.46000 13.084
67.48000 9.254
67.50000 7.712
67.52000 6.941
67.54000 9.981
67.56000 8.492
67.58000 6.783
67.60000 5.378
67.62000 7.475
67.64000 4.458
67.66000 3.318
67.68000 6.642
67.70000 7.393
67.72000 5.773
67.74000 5.437
67.76000 7.181
67.78000 9.466
67.80000 4.169
67.82000 2.888
67.84000 3.759
67.86000 3.843
67.88000 3.285
67.90000 0.976
67.92000 -0.187
67.94000 3.525
67.96000 5.473
67.98000 3.429
68.00000 2.316
68.02000 2.962
68.04000 5.001
68.06000 2.031
68.08000 1.495
68.10000 1.476
68.12000 1.566
68.14000 2.671
68.16000 4.203
68.18000 1.943
68.20000 1.521
68.22000 -0.523
68.24000 -0.809
68.26000 1.281
68.28000 1.838
68.30000 1.838
68.32000 5.493
68.34000 0.315
68.36000 -2.126
68.38000 1.143
68.40000 0.208
68.42000 2.129
68.44000 2.280
68.46000 2.306
68.48000 -0.671
68.50000 0.678
68.52000 1.959
68.54000 2.694
68.56000 3.722
68.58000 2.440
68.60000 1.617
68.62000 1.924
68.64000 1.480
68.66000 2.190
68.68000 2.466
68.70000 0.350
68.72000 -1.111
68.74000 1.188
68.76000 -1.451
68.78000 -1.296
68.80000 0.121
68.82000 -0.426
68.84000 -1.479
68.86000 -0.544
68.88000 -0.742
68.90000 0.985
68.92000 0.379
68.94000 -1.853
68.96000 1.098
68.98000 5.716
69.00000 3.089
69.02000 -1.928
69.04000 -0.883
69.06000 0.379
69.08000 2.125
69.10000 0.741
69.12000 0.356
69.14000 0.541
69.16000 3.066
69.18000 -0.409
69.20000 0.341
69.22000 1.765
69.24000 -0.015
69.26000 0.389
69.28000 -1.462
69.30000 -1.434
69.32000 0.292
69.34000 0.116
69.36000 -1.703
69.38000 -1.872
69.40000 1.829
69.42000 3.369
69.44000 0.262
69.46000 -0.228
69.48000 -1.219
69.50000 -2.064
69.52000 1.902
69.54000 1.065
69.56000 -1.326
69.58000 -1.838
69.60000 0.098
69.62000 1.168
69.64000 2.136
69.66000 1.348
69.68000 2.673
69.70000 0.847
69.72000 0.989
69.74000 0.864
69.76000 -0.675
69.78000 0.789
69.80000 0.519
69.82000 -0.723
69.84000 0.841
69.86000 0.551
69.88000 -0.508
69.90000 -0.093
69.92000 -1.417
69.94000 -0.588
69.96000 -0.391
69.98000 -0.451
70.00000 1.191
70.02000 0.388
70.04000 0.560
70.06000 0.725
70.08000 0.819
70.10000 0.804
70.12000 0.147
70.14000 -1.438
70.16000 2.342
70.18000 0.736
70.20000 0.528
70.22000 1.616
70.24000 -0.385
70.26000 1.025
70.28000 0.367
70.30000 0.697
70.32000 0.698
70.34000 0.570
70.36000 -0.375
70.38000 0.020
70.40000 -1.573
70.42000 -1.665
70.44000 -0.136
70.46000 0.637
70.48000 -0.285
70.50000 -2.029
70.52000 -0.401
70.54000 3.095
70.56000 2.873
70.58000 1.050
70.60000 -0.762
70.62000 1.382
70.64000 0.943
70.66000 2.646
70.68000 1.010
70.70000 -1.022
70.72000 -0.838
70.74000 0.641
70.76000 1.821
70.78000 -0.242
70.80000 0.963
70.82000 2.607
70.84000 0.476
70.86000 0.750
70.88000 1.914
70.90000 1.815
70.92000 0.144
70.94000 -1.224
70.96000 -0.254
70.98000 3.465
71.00000 0.234
71.02000 2.787
71.04000 1.830
71.06000 2.136
71.08000 1.536
71.10000 1.152
71.12000 2.363
71.14000 -0.282
71.16000 -1.994
71.18000 -1.403
71.20000 -0.902
71.22000 1.625
71.24000 0.956
71.26000 0.646
71.28000 3.244
71.30000 0.184
71.32000 0.094
71.34000 1.971
71.36000 2.731
71.38000 2.307
71.40000 1.460
71.42000 1.347
71.44000 2.052
71.46000 3.818
71.48000 3.816
71.50000 4.334
71.52000 3.953
71.54000 2.561
71.56000 2.798
71.58000 -0.185
71.60000 2.642
71.62000 1.255
71.64000 0.090
71.66000 1.886
71.68000 0.118
71.70000 0.829
71.72000 3.056
71.74000 1.960
71.76000 2.070
71.78000 1.249
71.80000 2.029
71.82000 4.626
71.84000 4.263
71.86000 2.956
71.88000 2.564
71.90000 2.421
71.92000 -0.545
71.94000 -1.923
71.96000 0.395
71.98000 0.868
72.00000 1.500
72.02000 4.557
72.04000 6.303
72.06000 5.933
72.08000 6.502
72.10000 3.570
72.12000 3.808
72.14000 5.872
72.16000 4.484
72.18000 4.601
72.20000 1.309
72.22000 0.481
72.24000 0.924
72.26000 2.632
72.28000 3.489
72.30000 5.951
72.32000 5.273
72.34000 2.227
72.36000 1.287
72.38000 2.626
72.40000 2.914
72.42000 1.661
72.44000 3.584
72.46000 5.532
72.48000 1.537
72.50000 2.416
72.52000 0.742
72.54000 1.888
72.56000 0.574
72.58000 -1.900
72.60000 3.068
72.62000 4.557
72.64000 2.367
72.66000 1.542
72.68000 1.233
72.70000 0.914
72.72000 3.095
72.74000 1.412
72.76000 2.674
72.78000 1.948
72.80000 1.329
72.82000 4.978
72.84000 0.693
72.86000 -1.764
72.88000 2.686
72.90000 2.629
72.92000 -1.405
72.94000 1.841
72.96000 1.038
72.98000 0.400
73.00000 1.513
73.02000 2.636
73.04000 2.703
73.06000 2.063
73.08000 3.032
73.10000 3.351
73.12000 3.361
73.14000 0.547
73.16000 0.222
73.18000 3.032
73.20000 6.099
73.22000 3.336
73.24000 1.876
73.26000 2.369
73.28000 -1.873
73.30000 -1.688
73.32000 3.321
73.34000 2.336
73.36000 2.397
73.38000 0.198
73.40000 0.372
73.42000 1.085
73.44000 0.569
73.46000 2.918
73.48000 1.988
73.50000 0.547
73.52000 -0.872
73.54000 0.264
73.56000 0.013
73.58000 1.009
73.60000 3.867
73.62000 5.799
73.64000 2.906
73.66000 4.159
73.68000 3.998
73.70000 1.228
73.72000 1.910
73.74000 5.560
73.76000 4.498
73.78000 3.947
73.80000 2.924
73.82000 2.878
73.84000 4.194
73.86000 4.460
73.88000 2.606
73.90000 1.990
73.92000 -0.184
73.94000 0.610
73.96000 2.027
73.98000 -0.320
74.00000 0.574
74.02000 -1.165
74.04000 -0.979
74.06000 -1.286
74.08000 -1.894
74.10000 -0.202
74.12000 1.724
74.14000 1.701
74.16000 1.087
74.18000 2.460
74.20000 2.866
74.22000 4.824
74.24000 3.186
74.26000 1.723
74.28000 5.113
74.30000 4.283
74.32000 2.264
74.34000 3.697
74.36000 3.905
74.38000 4.497
74.40000 1.925
74.42000 0.855
74.44000 1.693
74.46000 3.744
74.48000 1.053
74.50000 -1.068
74.52000 -0.669
74.54000 -0.635
74.56000 2.312
74.58000 2.382
74.60000 1.731
74.62000 1.153
74.64000 0.819
74.66000 1.892
74.68000 4.029
74.70000 1.248
74.72000 -0.291
74.74000 -1.220
74.76000 0.341
74.78000 3.295
74.80000 3.139
74.82000 4.110
74.84000 3.663
74.86000 -0.557
74.88000 -0.951
74.90000 1.609
74.92000 0.283
74.94000 0.892
74.96000 -0.824
74.98000 1.305
75.00000 3.169
75.02000 2.466
75.04000 1.908
75.06000 2.423
75.08000 1.704
75.10000 -0.683
75.12000 0.812
75.14000 3.838
75.16000 4.682
75.18000 2.952
75.20000 2.661
75.22000 2.650
75.24000 1.843
75.26000 4.062
75.28000 2.479
75.30000 2.290
75.32000 -0.010
75.34000 0.060
75.36000 -0.449
75.38000 1.906
75.40000 0.367
75.42000 0.776
75.44000 0.198
75.46000 2.361
75.48000 3.715
75.50000 3.819
75.52000 3.367
75.54000 -1.918
75.56000 0.742
75.58000 4.010
75.60000 2.344
75.62000 2.245
75.64000 2.555
75.66000 1.508
75.68000 1.195
75.70000 1.503
75.72000 3.743
75.74000 3.485
75.76000 2.799
75.78000 4.035
75.80000 2.468
75.82000 1.316
75.84000 3.001
75.86000 4.512
75.88000 3.237
75.90000 3.069
75.92000 1.445
75.94000 1.589
75.96000 2.737
75.98000 0.070
76.00000 1.400
76.02000 -0.011
76.04000 0.098
76.06000 0.365
76.08000 3.665
76.10000 4.214
76.12000 1.005
76.14000 -1.718
76.16000 -1.917
76.18000 1.180
76.20000 1.150
76.22000 -0.620
76.24000 1.147
76.26000 2.505
76.28000 1.964
76.30000 4.479
76.32000 5.897
76.34000 2.790
76.36000 4.012
76.38000 1.727
76.40000 0.397
76.42000 1.677
76.44000 3.554
76.46000 5.010
76.48000 1.842
76.50000 0.175
76.52000 2.566
76.54000 2.922
76.56000 1.723
76.58000 -1.567
76.60000 -0.933
76.62000 1.807
76.64000 2.691
76.66000 0.953
76.68000 5.789
76.70000 3.055
76.72000 1.547
76.74000 1.472
76.76000 -1.488
76.78000 4.685
76.80000 4.846
76.82000 4.821
76.84000 4.387
76.86000 1.810
76.88000 2.120
76.90000 1.640
76.92000 -0.445
76.94000 -0.434
76.96000 1.007
76.98000 2.478
77.00000 2.139
77.02000 1.019
77.04000 2.123
77.06000 -0.531
77.08000 0.458
77.10000 2.062
77.12000 2.099
77.14000 1.022
77.16000 1.513
77.18000 3.848
77.20000 1.286
77.22000 -1.927
77.24000 -0.425
77.26000 1.950
77.28000 1.237
77.30000 3.840
77.32000 3.647
77.34000 5.506
77.36000 5.242
77.38000 4.495
77.40000 0.677
77.42000 1.981
77.44000 4.397
77.46000 2.092
77.48000 -0.055
77.50000 2.241
77.52000 0.994
77.54000 1.608
77.56000 2.235
77.58000 2.756
77.60000 2.920
77.62000 1.552
77.64000 0.736
77.66000 3.331
77.68000 3.625
77.70000 3.790
77.72000 1.473
77.74000 3.813
77.76000 2.010
77.78000 1.225
77.80000 -1.352
77.82000 1.882
77.84000 3.048
77.86000 2.481
77.88000 1.490
77.90000 0.233
77.92000 -1.950
77.94000 2.526
77.96000 1.708
77.98000 1.147
78.00000 1.002
78.02000 0.035
78.04000 1.056
78.06000 4.648
78.08000 3.629
78.10000 2.117
78.12000 4.739
78.14000 4.476
78.16000 2.427
78.18000 2.492
78.20000 0.538
78.22000 2.496
78.24000 1.628
78.26000 3.476
78.28000 2.442
78.30000 1.720
78.32000 3.512
78.34000 2.873
78.36000 4.333
78.38000 2.884
78.40000 2.192
78.42000 2.098
78.44000 1.904
78.46000 1.032
78.48000 -1.990
78.50000 -0.900
78.52000 1.699
78.54000 3.354
78.56000 2.747
78.58000 1.644
78.60000 1.521
78.62000 0.248
78.64000 -0.232
78.66000 1.361
78.68000 3.991
78.70000 1.467
78.72000 1.706
78.74000 5.533
78.76000 1.682
78.78000 1.157
78.80000 3.471
78.82000 2.791
78.84000 0.533
78.86000 2.394
78.88000 2.911
78.90000 0.752
78.92000 -0.820
78.94000 0.870
78.96000 1.575
78.98000 2.350
79.00000 4.308
79.02000 3.705
79.04000 1.014
79.06000 -1.064
79.08000 0.275
79.10000 1.697
79.12000 2.728
79.14000 3.328
79.16000 2.947
79.18000 0.036
79.20000 1.281
79.22000 -0.084
79.24000 -2.056
79.26000 -0.084
79.28000 2.216
79.30000 3.558
79.32000 1.175
79.34000 0.499
79.36000 1.841
79.38000 1.159
79.40000 -0.918
79.42000 -0.789
79.44000 -0.084
79.46000 0.377
79.48000 0.032
79.50000 -0.634
79.52000 2.054
79.54000 2.850
79.56000 -0.154
79.58000 5.234
79.60000 3.383
79.62000 1.929
79.64000 3.510
79.66000 -0.190
79.68000 0.384
79.70000 1.128
79.72000 2.351
79.74000 1.561
79.76000 0.950
79.78000 3.512
79.80000 0.679
79.82000 0.627
79.84000 2.178
79.86000 1.080
79.88000 1.501
79.90000 -1.813
79.92000 2.476
79.94000 1.603
79.96000 -0.509
79.98000 0.543
80.00000 2.299
80.02000 3.269
80.04000 1.751
80.06000 2.956
80.08000 0.733
80.10000 2.028
80.12000 4.055
80.14000 4.328
80.16000 4.481
80.18000 4.696
80.20000 6.296
80.22000 6.093
80.24000 5.569
80.26000 3.625
80.28000 1.405
80.30000 4.248
80.32000 3.908
80.34000 0.795
80.36000 2.220
80.38000 4.371
80.40000 8.593
80.42000 6.244
80.44000 5.123
80.46000 9.314
80.48000 10.194
80.50000 10.688
80.52000 9.178
80.54000 8.916
80.56000 9.703
80.58000 14.121
80.60000 12.376
80.62000 13.723
80.64000 11.233
80.66000 9.864
80.68000 11.742
80.70000 13.188
80.72000 14.974
80.74000 14.303
80.76000 15.183
80.78000 18.872
80.80000 15.706
80.82000 16.957
80.84000 15.408
80.86000 17.833
80.88000 19.649
80.90000 19.757
80.92000 15.890
80.94000 19.017
80.96000 16.571
80.98000 16.988
81.00000 18.553
81.02000 19.996
81.04000 20.970
81.06000 24.458
81.08000 22.221
81.10000 17.546
81.12000 19.971
81.14000 20.010
81.16000 17.573
81.18000 17.688
81.20000 17.257
81.22000 19.164
81.24000 18.104
81.26000 15.127
81.28000 16.063
81.30000 16.639
81.32000 21.462
81.34000 20.793
81.36000 17.293
81.38000 18.790
81.40000 19.128
81.42000 20.149
81.44000 14.149
81.46000 13.301
81.48000 12.268
81.50000 12.594
81.52000 12.501
81.54000 15.608
81.56000 14.324
81.58000 14.342
81.60000 13.549
81.62000 13.242
81.64000 13.745
81.66000 13.456
81.68000 12.760
81.70000 13.085
81.72000 12.918
81.74000 13.150
81.76000 8.617
81.78000 8.729
81.80000 10.164
81.82000 9.043
81.84000 8.291
81.86000 11.038
81.88000 7.075
81.90000 4.647
81.92000 6.725
81.94000 4.601
81.96000 4.163
81.98000 5.703
82.00000 3.481
82.02000 2.349
82.04000 5.371
82.06000 4.524
82.08000 3.742
82.10000 4.088
82.12000 2.939
82.14000 -0.904
82.16000 1.853
82.18000 3.871
82.20000 3.362
82.22000 -0.499
82.24000 -0.964
82.26000 0.359
82.28000 -0.976
82.30000 -1.282
82.32000 3.676
82.34000 5.353
82.36000 5.491
82.38000 2.486
82.40000 -0.679
82.42000 -0.603
82.44000 0.740
82.46000 1.959
82.48000 1.721
82.50000 2.455
82.52000 3.004
82.54000 0.086
82.56000 1.150
82.58000 1.342
82.60000 -0.622
82.62000 -1.295
82.64000 2.310
82.66000 2.425
82.68000 0.843
82.70000 -1.404
82.72000 -0.306
82.74000 1.144
82.76000 4.616
82.78000 3.645
82.80000 -0.014
82.82000 1.633
82.84000 0.021
82.86000 -2.119
82.88000 -1.995
82.90000 1.148
82.92000 -2.045
82.94000 -1.064
82.96000 1.427
82.98000 3.123
83.00000 2.586
83.02000 -0.121
83.04000 2.381
83.06000 2.594
83.08000 0.684
83.10000 2.940
83.12000 0.161
83.14000 1.245
83.16000 2.963
83.18000 -1.868
83.20000 -1.299
83.22000 1.524
83.24000 -2.126
83.26000 -1.664
83.28000 2.334
83.30000 -1.376
83.32000 -0.963
83.34000 0.724
83.36000 1.876
83.38000 3.701
83.40000 4.590
83.42000 2.248
83.44000 -1.831
83.46000 1.805
83.48000 1.975
83.50000 1.070
83.52000 1.252
83.54000 1.042
83.56000 0.898
83.58000 0.915
83.60000 2.486
83.62000 0.716
83.64000 1.899
83.66000 1.243
83.68000 -1.216
83.70000 3.662
83.72000 2.947
83.74000 4.916
83.76000 3.237
83.78000 4.637
83.80000 6.377
83.82000 2.142
83.84000 1.656
83.86000 5.165
83.88000 3.920
83.90000 3.766
83.92000 0.949
83.94000 2.989
83.96000 4.038
83.98000 3.709
84.00000 3.164
84.02000 3.974
84.04000 5.568
84.06000 9.825
84.08000 6.925
84.10000 4.366
84.12000 7.064
84.14000 7.401
84.16000 7.005
84.18000 6.045
84.20000 5.174
84.22000 6.937
84.24000 9.709
84.26000 9.872
84.28000 8.285
84.30000 11.035
84.32000 7.882
84.34000 9.507
84.36000 12.046
84.38000 8.758
84.40000 11.710
84.42000 14.995
84.44000 13.292
84.46000 10.223
84.48000 11.838
84.50000 17.017
84.52000 17.748
84.54000 18.444
84.56000 20.659
84.58000 18.017
84.60000 21.207
84.62000 17.709
84.64000 18.178
84.66000 17.128
84.68000 20.115
84.70000 23.889
84.72000 22.763
84.74000 21.981
84.76000 19.559
84.78000 19.208
84.80000 21.145
84.82000 21.862
84.84000 22.520
84.86000 26.794
84.88000 24.992
84.90000 20.234
84.92000 23.317
84.94000 25.884
84.96000 23.018
84.98000 28.554
85.00000 27.195
85.02000 25.672
85.04000 26.066
85.06000 28.634
85.08000 25.564
85.10000 24.282
85.12000 27.281
85.14000 22.983
85.16000 24.339
85.18000 28.496
85.20000 27.121
85.22000 24.917
85.24000 24.204
85.26000 23.641
85.28000 27.494
85.30000 23.763
85.32000 22.668
85.34000 27.145
85.36000 27.834
85.38000 24.594
85.40000 19.815
85.42000 18.691
85.44000 18.213
85.46000 16.608
85.48000 17.054
85.50000 18.311
85.52000 21.679
85.54000 16.317
85.56000 14.220
85.58000 16.251
85.60000 13.214
85.62000 13.517
85.64000 14.259
85.66000 14.768
85.68000 14.777
85.70000 12.641
85.72000 11.194
85.74000 9.464
85.76000 8.283
85.78000 9.858
85.80000 8.659
85.82000 9.137
85.84000 10.646
85.86000 8.358
85.88000 7.816
85.90000 5.299
85.92000 5.948
85.94000 4.001
85.96000 2.474
85.98000 0.251
86.00000 2.325
86.02000 1.507
86.04000 2.821
86.06000 2.947
86.08000 5.108
86.10000 6.895
86.12000 5.068
86.14000 3.718
86.16000 4.189
86.18000 1.602
86.20000 3.857
86.22000 4.321
86.24000 4.116
86.26000 3.324
86.28000 4.294
86.30000 3.375
86.32000 -0.006
86.34000 -1.648
86.36000 0.951
86.38000 0.761
86.40000 2.343
86.42000 3.893
86.44000 3.138
86.46000 2.854
86.48000 2.238
86.50000 1.625
86.52000 3.803
86.54000 3.574
86.56000 4.264
86.58000 4.151
86.60000 -0.016
86.62000 0.782
86.64000 1.776
86.66000 -0.508
86.68000 -1.913
86.70000 -0.630
86.72000 -1.909
86.74000 -1.653
86.76000 1.882
86.78000 2.298
86.80000 4.037
86.82000 1.215
86.84000 1.606
86.86000 -1.066
86.88000 -1.762
86.90000 0.352
86.92000 1.255
86.94000 -0.583
86.96000 0.636
86.98000 0.635
87.00000 2.125
87.02000 1.962
87.04000 1.329
87.06000 -0.365
87.08000 -0.390
87.10000 1.446
87.12000 1.580
87.14000 -0.054
87.16000 1.580
87.18000 -0.174
87.20000 1.641
87.22000 1.601
87.24000 2.318
87.26000 -0.542
87.28000 0.040
87.30000 0.796
87.32000 1.030
87.34000 -0.206
87.36000 0.682
87.38000 0.925
87.40000 -1.893
87.42000 -1.742
87.44000 -0.241
87.46000 0.488
87.48000 1.112
87.50000 0.805
87.52000 0.149
87.54000 0.596
87.56000 1.864
87.58000 2.162
87.60000 2.156
87.62000 -1.751
87.64000 -1.742
87.66000 -1.723
87.68000 -0.629
87.70000 -1.249
87.72000 -1.192
87.74000 0.586
87.76000 1.060
87.78000 -1.423
87.80000 -0.401
87.82000 0.530
87.84000 0.702
87.86000 0.155
87.88000 -1.860
87.90000 0.693
87.92000 1.489
87.94000 0.170
87.96000 -0.217
87.98000 2.227
88.00000 3.633
88.02000 2.309
88.04000 1.665
88.06000 3.211
88.08000 4.281
88.10000 2.670
88.12000 6.187
88.14000 5.232
88.16000 5.560
88.18000 1.090
88.20000 1.404
88.22000 0.747
88.24000 -1.821
88.26000 -0.587
88.28000 3.640
88.30000 3.970
88.32000 5.461
88.34000 4.784
88.36000 2.356
88.38000 -1.331
88.40000 -0.580
88.42000 1.410
88.44000 2.325
88.46000 1.626
88.48000 -0.095
88.50000 0.600
88.52000 0.930
88.54000 1.513
88.56000 4.523
88.58000 3.556
88.60000 2.057
88.62000 -1.806
88.64000 0.368
88.66000 0.977
88.68000 2.361
88.70000 1.643
88.72000 2.859
88.74000 2.661
88.76000 1.667
88.78000 1.562
88.80000 4.069
88.82000 3.780
88.84000 3.899
88.86000 3.871
88.88000 2.553
88.90000 1.444
88.92000 5.271
88.94000 3.997
88.96000 2.128
88.98000 2.065
89.00000 -0.846
89.02000 2.745
89.04000 0.979
89.06000 2.710
89.08000 2.763
89.10000 4.767
89.12000 5.507
89.14000 4.491
89.16000 1.970
89.18000 1.745
89.20000 3.435
89.22000 3.639
89.24000 2.938
89.26000 5.413
89.28000 4.358
89.30000 2.119
89.32000 1.853
89.34000 3.318
89.36000 3.037
89.38000 1.981
89.40000 1.949
89.42000 3.219
89.44000 3.045
89.46000 2.083
89.48000 3.381
89.50000 3.790
89.52000 2.534
89.54000 -0.429
89.56000 -1.782
89.58000 2.403
89.60000 -1.784
89.62000 4.264
89.64000 1.066
89.66000 1.632
89.68000 3.126
89.70000 1.401
89.72000 2.117
89.74000 1.637
89.76000 1.988
89.78000 2.542
89.80000 -1.253
89.82000 -1.201
89.84000 0.442
89.86000 -1.798
89.88000 1.087
89.90000 2.412
89.92000 1.123
89.94000 -0.207
89.96000 0.724
89.98000 2.902
90.00000 2.320
90.02000 0.452
90.04000 0.237
90.06000 -0.214
90.08000 0.286
90.10000 -0.101
90.12000 2.255
90.14000 5.033
90.16000 -0.494
90.18000 1.457
90.20000 1.861
90.22000 1.595
90.24000 1.311
90.26000 1.920
90.28000 0.228
90.30000 0.390
90.32000 0.749
90.34000 1.972
90.36000 1.298
90.38000 0.580
90.40000 -0.954
90.42000 1.921
90.44000 0.397
90.46000 3.494
90.48000 2.391
90.50000 3.369
90.52000 3.453
90.54000 1.531
90.56000 -0.648
90.58000 -0.977
90.60000 1.498
90.62000 0.154
90.64000 0.240
90.66000 0.719
90.68000 0.480
90.70000 -1.810
90.72000 1.176
90.74000 1.149
90.76000 0.911
90.78000 -0.254
90.80000 1.279
90.82000 1.263
90.84000 2.284
90.86000 0.356
90.88000 0.380
90.90000 2.200
90.92000 1.508
90.94000 1.698
90.96000 0.042
90.98000 -0.087
91.00000 -0.866
91.02000 -0.125
91.04000 1.273
91.06000 0.264
91.08000 -0.045
91.10000 -0.976
91.12000 1.491
91.14000 3.462
91.16000 1.598
91.18000 0.641
91.20000 -0.739
91.22000 1.545
91.24000 1.014
91.26000 0.835
91.28000 1.856
91.30000 2.395
91.32000 1.099
91.34000 1.301
91.36000 4.992
91.38000 4.927
91.40000 2.473
91.42000 1.775
91.44000 0.388
91.46000 -1.435
91.48000 -1.777
91.50000 0.439
91.52000 4.172
91.54000 1.825
91.56000 -1.430
91.58000 -1.819
91.60000 1.461
91.62000 1.475
91.64000 0.580
91.66000 -0.876
91.68000 0.526
91.70000 1.610
91.72000 -1.291
91.74000 0.638
91.76000 1.557
91.78000 -0.420
91.80000 -1.071
91.82000 1.835
91.84000 5.176
91.86000 1.872
91.88000 -0.248
91.90000 2.529
91.92000 2.679
91.94000 1.579
91.96000 0.482
91.98000 -1.220
92.00000 0.678
92.02000 0.022
92.04000 1.641
92.06000 3.580
92.08000 2.623
92.10000 -1.578
92.12000 -0.232
92.14000 -1.822
92.16000 0.431
92.18000 4.070
92.20000 4.466
92.22000 6.975
92.24000 3.230
92.26000 0.738
92.28000 -1.820
92.30000 -1.675
92.32000 1.295
92.34000 1.144
92.36000 1.699
92.38000 1.031
92.40000 2.261
92.42000 3.916
92.44000 0.833
92.46000 3.102
92.48000 4.262
92.50000 0.507
92.52000 3.229
92.54000 1.525
92.56000 0.586
92.58000 4.092
92.60000 3.252
92.62000 3.926
92.64000 1.413
92.66000 1.555
92.68000 2.276
92.70000 -0.362
92.72000 1.332
92.74000 3.469
92.76000 4.223
92.78000 3.941
92.80000 2.873
92.82000 5.526
92.84000 3.180
92.86000 3.663
92.88000 4.551
92.90000 2.821
92.92000 2.621
92.94000 3.645
92.96000 3.414
92.98000 5.684
93.00000 2.694
93.02000 1.201
93.04000 2.647
93.06000 4.631
93.08000 5.978
93.10000 2.147
93.12000 0.260
93.14000 -1.801
93.16000 1.875
93.18000 3.208
93.20000 1.734
93.22000 2.891
93.24000 2.115
93.26000 2.632
93.28000 3.213
93.30000 3.530
93.32000 1.540
93.34000 1.644
93.36000 2.267
93.38000 2.832
93.40000 2.218
93.42000 2.066
93.44000 1.488
93.46000 1.378
93.48000 -0.888
93.50000 -1.060
93.52000 1.773
93.54000 -0.126
93.56000 -0.225
93.58000 -0.659
93.60000 3.462
93.62000 0.342
93.64000 -1.239
93.66000 -0.929
93.68000 3.395
93.70000 2.749
93.72000 2.256
93.74000 3.060
93.76000 3.042
93.78000 -0.206
93.80000 0.102
93.82000 1.335
93.84000 -0.848
93.86000 3.689
93.88000 2.096
93.90000 -0.174
93.92000 0.441
93.94000 1.940
93.96000 3.612
93.98000 0.922
94.00000 3.681
94.02000 6.410
94.04000 1.709
94.06000 3.972
94.08000 0.317
94.10000 -0.098
94.12000 1.918
94.14000 -1.266
94.16000 0.768
94.18000 0.559
94.20000 2.077
94.22000 2.998
94.24000 -0.649
94.26000 -1.840
94.28000 -0.469
94.30000 0.225
94.32000 3.392
94.34000 3.489
94.36000 4.591
94.38000 5.362
94.40000 4.590
94.42000 0.099
94.44000 1.938
94.46000 2.394
94.48000 -0.574
94.50000 1.151
94.52000 3.432
94.54000 0.517
94.56000 2.636
94.58000 1.968
94.60000 0.618
94.62000 -0.336
94.64000 1.089
94.66000 1.994
94.68000 2.450
94.70000 0.501
94.72000 -1.538
94.74000 2.091
94.76000 5.154
94.78000 5.348
94.80000 2.363
94.82000 0.338
94.84000 0.463
94.86000 -0.256
94.88000 0.602
94.90000 1.572
94.92000 1.991
94.94000 2.087
94.96000 3.213
94.98000 4.615
95.00000 3.013
95.02000 1.189
95.04000 3.548
95.06000 5.701
95.08000 3.551
95.10000 6.374
95.12000 4.297
95.14000 0.000
95.16000 -0.858
95.18000 0.139
95.20000 5.823
95.22000 1.203
95.24000 0.827
95.26000 2.193
95.28000 -0.618
95.30000 -1.829
95.32000 -0.438
95.34000 3.504
95.36000 5.037
95.38000 1.731
95.40000 1.461
95.42000 1.303
95.44000 0.428
95.46000 6.037
95.48000 4.705
95.50000 2.236
95.52000 2.973
95.54000 4.144
95.56000 6.382
95.58000 3.915
95.60000 1.856
95.62000 -0.436
95.64000 -1.827
95.66000 2.513
95.68000 2.832
95.70000 3.139
95.72000 3.278
95.74000 2.094
95.76000 2.741
95.78000 1.469
95.80000 0.279
95.82000 1.601
95.84000 1.111
95.86000 1.060
95.88000 0.001
95.90000 -1.027
95.92000 1.610
95.94000 1.885
95.96000 1.561
95.98000 3.056
96.00000 1.535
96.02000 3.268
96.04000 7.805
96.06000 6.740
96.08000 3.589
96.10000 3.044
96.12000 8.154
96.14000 6.568
96.16000 5.181
96.18000 6.940
96.20000 0.549
96.22000 1.993
96.24000 3.031
96.26000 8.126
96.28000 5.816
96.30000 0.966
96.32000 2.578
96.34000 -1.816
96.36000 0.139
96.38000 4.351
96.40000 1.025
96.42000 2.213
96.44000 3.444
96.46000 3.155
96.48000 4.571
96.50000 7.709
96.52000 5.205
96.54000 5.203
96.56000 3.190
96.58000 3.109
96.60000 5.632
96.62000 3.801
96.64000 2.692
96.66000 4.860
96.68000 5.654
96.70000 1.914
96.72000 -0.243
96.74000 -0.777
96.76000 5.442
96.78000 5.919
96.80000 0.686
96.82000 -0.159
96.84000 3.518
96.86000 2.083
96.88000 3.523
96.90000 2.963
96.92000 4.280
96.94000 4.791
96.96000 0.370
96.98000 -1.821
97.00000 3.240
97.02000 2.498
97.04000 3.313
97.06000 1.937
97.08000 3.242
97.10000 4.084
97.12000 3.364
97.14000 2.944
97.16000 3.705
97.18000 4.874
97.20000 4.957
97.22000 4.063
97.24000 2.079
97.26000 6.380
97.28000 1.075
97.30000 1.277
97.32000 -0.290
97.34000 -0.180
97.36000 3.778
97.38000 8.399
97.40000 8.875
97.42000 7.017
97.44000 5.879
97.46000 3.946
97.48000 1.725
97.50000 2.544
97.52000 3.004
97.54000 1.514
97.56000 2.264
97.58000 5.266
97.60000 3.977
97.62000 8.037
97.64000 4.746
97.66000 3.458
97.68000 -1.786
97.70000 0.585
97.72000 2.904
97.74000 1.086
97.76000 2.300
97.78000 3.652
97.80000 4.030
97.82000 5.305
97.84000 7.961
97.86000 6.073
97.88000 2.228
97.90000 3.055
97.92000 2.532
97.94000 4.559
97.96000 3.770
97.98000 5.055
98.00000 2.276
98.02000 7.018
98.04000 10.621
98.06000 7.389
98.08000 6.017
98.10000 7.727
98.12000 6.233
98.14000 4.130
98.16000 -1.057
98.18000 1.271
98.20000 2.413
98.22000 3.630
98.24000 7.205
98.26000 4.065
98.28000 3.622
98.30000 1.190
98.32000 -0.747
98.34000 -0.526
98.36000 6.201
98.38000 3.379
98.40000 3.498
98.42000 4.360
98.44000 2.543
98.46000 5.467
98.48000 3.701
98.50000 0.697
98.52000 -0.854
98.54000 3.613
98.56000 8.704
98.58000 9.198
98.60000 7.069
98.62000 2.990
98.64000 2.774
98.66000 4.221
98.68000 5.783
98.70000 3.963
98.72000 3.283
98.74000 5.744
98.76000 9.324
98.78000 10.830
98.80000 9.234
98.82000 6.384
98.84000 7.275
98.86000 5.457
98.88000 6.347
98.90000 0.709
98.92000 3.434
98.94000 5.758
98.96000 7.189
98.98000 11.678
99.00000 7.244
99.02000 10.925
99.04000 9.597
99.06000 9.144
99.08000 5.714
99.10000 6.946
99.12000 6.790
99.14000 3.972
99.16000 3.248
99.18000 2.102
99.20000 3.341
99.22000 1.450
99.24000 -1.675
99.26000 1.909
99.28000 2.912
99.30000 3.584
99.32000 4.974
99.34000 3.067
99.36000 9.251
99.38000 11.166
99.40000 7.590
99.42000 2.924
99.44000 3.924
99.46000 8.708
99.48000 5.792
99.50000 1.488
99.52000 3.615
99.54000 4.151
99.56000 6.165
99.58000 5.930
99.60000 11.288
99.62000 14.084
99.64000 13.459
99.66000 7.552
99.68000 4.513
99.70000 0.112
99.72000 -0.735
99.74000 3.087
99.76000 1.869
99.78000 0.572
99.80000 -0.005
99.82000 5.612
99.84000 3.883
99.86000 0.193
99.88000 -1.840
99.90000 0.184
99.92000 -1.931
99.94000 -1.830
99.96000 -2.030
99.98000 0.000
