'Id: "0011387" Comment: "Integrate frame 0011387_Au-Ir-Rh_Rh-rich_XRD-Mapping-269-0000.gfrmwith cursor Wedge Cursor #5" Operator: "B?rgel" Anode: "Cu" Wavelength: "1.5406" Scantype: "2Theta (TwoTheta)" TimePerStep: "1" X: "0" Y: "22.5" Z: "5.95" 
10.00000 0.000
10.02000 6.826
10.04000 13.166
10.06000 12.577
10.08000 1.295
10.10000 3.334
10.12000 10.232
10.14000 6.024
10.16000 21.061
10.18000 20.900
10.20000 9.140
10.22000 11.507
10.24000 0.484
10.26000 -4.196
10.28000 9.086
10.30000 10.113
10.32000 14.035
10.34000 6.680
10.36000 14.255
10.38000 19.610
10.40000 21.918
10.42000 27.085
10.44000 22.519
10.46000 12.589
10.48000 17.218
10.50000 8.512
10.52000 5.297
10.54000 11.570
10.56000 7.085
10.58000 7.420
10.60000 13.454
10.62000 19.749
10.64000 11.082
10.66000 12.079
10.68000 16.788
10.70000 4.865
10.72000 4.366
10.74000 2.825
10.76000 1.990
10.78000 7.730
10.80000 9.296
10.82000 10.727
10.84000 11.063
10.86000 19.340
10.88000 20.024
10.90000 29.927
10.92000 21.109
10.94000 28.703
10.96000 4.122
10.98000 -2.763
11.00000 3.138
11.02000 4.112
11.04000 16.821
11.06000 31.289
11.08000 24.321
11.10000 16.504
11.12000 23.340
11.14000 10.145
11.16000 4.311
11.18000 5.427
11.20000 13.800
11.22000 10.809
11.24000 4.705
11.26000 6.807
11.28000 12.174
11.30000 12.905
11.32000 14.311
11.34000 10.097
11.36000 13.651
11.38000 20.012
11.40000 7.258
11.42000 8.623
11.44000 5.539
11.46000 8.679
11.48000 1.450
11.50000 14.377
11.52000 23.304
11.54000 20.686
11.56000 17.748
11.58000 21.207
11.60000 23.647
11.62000 24.273
11.64000 15.493
11.66000 17.633
11.68000 30.001
11.70000 14.499
11.72000 8.063
11.74000 7.531
11.76000 14.039
11.78000 11.658
11.80000 9.466
11.82000 17.681
11.84000 14.781
11.86000 8.298
11.88000 16.132
11.90000 9.906
11.92000 15.196
11.94000 21.277
11.96000 26.522
11.98000 21.553
12.00000 17.466
12.02000 9.439
12.04000 9.883
12.06000 10.373
12.08000 7.872
12.10000 12.239
12.12000 21.534
12.14000 24.373
12.16000 20.777
12.18000 14.431
12.20000 10.244
12.22000 11.471
12.24000 12.456
12.26000 20.902
12.28000 15.716
12.30000 5.221
12.32000 6.145
12.34000 10.590
12.36000 6.085
12.38000 10.674
12.40000 16.728
12.42000 16.489
12.44000 15.421
12.46000 16.159
12.48000 23.666
12.50000 13.294
12.52000 25.173
12.54000 18.295
12.56000 12.016
12.58000 8.540
12.60000 12.316
12.62000 19.734
12.64000 13.308
12.66000 17.158
12.68000 23.422
12.70000 13.745
12.72000 17.055
12.74000 26.763
12.76000 22.210
12.78000 2.653
12.80000 5.575
12.82000 8.893
12.84000 16.372
12.86000 16.428
12.88000 14.875
12.90000 20.763
12.92000 18.080
12.94000 12.938
12.96000 22.941
12.98000 17.706
13.00000 18.334
13.02000 23.981
13.04000 27.486
13.06000 18.274
13.08000 13.768
13.10000 18.911
13.12000 17.273
13.14000 19.669
13.16000 10.431
13.18000 11.469
13.20000 24.389
13.22000 29.657
13.24000 21.659
13.26000 19.332
13.28000 14.509
13.30000 16.650
13.32000 27.146
13.34000 28.412
13.36000 24.341
13.38000 26.689
13.40000 24.492
13.42000 17.347
13.44000 16.103
13.46000 13.429
13.48000 13.166
13.50000 10.667
13.52000 15.643
13.54000 26.995
13.56000 14.909
13.58000 12.124
13.60000 18.599
13.62000 16.807
13.64000 14.249
13.66000 17.805
13.68000 31.214
13.70000 28.399
13.72000 26.133
13.74000 37.639
13.76000 27.386
13.78000 30.058
13.80000 24.656
13.82000 21.414
13.84000 18.748
13.86000 18.673
13.88000 20.382
13.90000 17.974
13.92000 20.337
13.94000 4.712
13.96000 -4.381
13.98000 3.647
14.00000 16.194
14.02000 10.405
14.04000 13.402
14.06000 21.135
14.08000 20.762
14.10000 25.724
14.12000 19.789
14.14000 14.145
14.16000 21.135
14.18000 16.937
14.20000 20.220
14.22000 11.121
14.24000 20.288
14.26000 18.744
14.28000 13.469
14.30000 12.625
14.32000 13.906
14.34000 10.617
14.36000 10.253
14.38000 17.919
14.40000 23.718
14.42000 27.220
14.44000 26.438
14.46000 19.201
14.48000 18.477
14.50000 27.473
14.52000 19.952
14.54000 15.090
14.56000 23.530
14.58000 17.419
14.60000 15.299
14.62000 20.096
14.64000 16.196
14.66000 12.376
14.68000 14.400
14.70000 20.534
14.72000 25.312
14.74000 12.504
14.76000 11.460
14.78000 5.636
14.80000 16.398
14.82000 17.468
14.84000 14.228
14.86000 12.471
14.88000 12.460
14.90000 20.021
14.92000 11.440
14.94000 15.364
14.96000 10.641
14.98000 6.383
15.00000 14.662
15.02000 14.322
15.04000 19.114
15.06000 20.752
15.08000 8.014
15.10000 21.293
15.12000 22.334
15.14000 10.965
15.16000 12.621
15.18000 12.303
15.20000 8.323
15.22000 9.889
15.24000 15.313
15.26000 13.207
15.28000 10.502
15.30000 17.623
15.32000 15.010
15.34000 11.240
15.36000 13.213
15.38000 8.209
15.40000 10.094
15.42000 6.483
15.44000 15.346
15.46000 8.880
15.48000 6.162
15.50000 11.367
15.52000 14.385
15.54000 6.942
15.56000 4.482
15.58000 -0.025
15.60000 -4.406
15.62000 3.794
15.64000 13.284
15.66000 9.105
15.68000 10.388
15.70000 10.811
15.72000 20.690
15.74000 22.871
15.76000 11.993
15.78000 13.567
15.80000 10.472
15.82000 15.667
15.84000 25.770
15.86000 20.113
15.88000 -0.385
15.90000 6.359
15.92000 10.447
15.94000 -0.001
15.96000 4.629
15.98000 13.502
16.00000 18.513
16.02000 12.595
16.04000 13.803
16.06000 14.786
16.08000 10.432
16.10000 11.027
16.12000 9.372
16.14000 7.058
16.16000 3.427
16.18000 4.121
16.20000 6.471
16.22000 4.473
16.24000 9.304
16.26000 0.146
16.28000 6.416
16.30000 6.894
16.32000 4.399
16.34000 4.547
16.36000 9.226
16.38000 1.976
16.40000 2.682
16.42000 9.272
16.44000 12.004
16.46000 5.203
16.48000 7.440
16.50000 13.754
16.52000 11.896
16.54000 1.648
16.56000 9.523
16.58000 10.214
16.60000 8.181
16.62000 8.363
16.64000 5.556
16.66000 13.319
16.68000 8.962
16.70000 5.847
16.72000 1.104
16.74000 -0.190
16.76000 7.283
16.78000 9.548
16.80000 10.410
16.82000 4.249
16.84000 -0.102
16.86000 8.849
16.88000 14.398
16.90000 12.069
16.92000 8.925
16.94000 5.032
16.96000 3.342
16.98000 4.783
17.00000 7.527
17.02000 6.501
17.04000 14.893
17.06000 15.511
17.08000 15.461
17.10000 14.394
17.12000 14.379
17.14000 12.664
17.16000 3.752
17.18000 4.172
17.20000 2.270
17.22000 1.174
17.24000 5.079
17.26000 3.650
17.28000 12.281
17.30000 12.143
17.32000 8.799
17.34000 7.993
17.36000 6.059
17.38000 0.252
17.40000 8.304
17.42000 13.422
17.44000 3.261
17.46000 5.558
17.48000 4.704
17.50000 7.429
17.52000 15.117
17.54000 10.088
17.56000 -1.109
17.58000 -2.631
17.60000 9.142
17.62000 17.946
17.64000 14.090
17.66000 10.183
17.68000 2.645
17.70000 2.049
17.72000 4.093
17.74000 1.103
17.76000 -0.037
17.78000 4.839
17.80000 8.382
17.82000 2.410
17.84000 5.096
17.86000 12.519
17.88000 15.597
17.90000 7.049
17.92000 -3.043
17.94000 -0.484
17.96000 6.453
17.98000 10.562
18.00000 15.866
18.02000 3.878
18.04000 -4.317
18.06000 1.113
18.08000 9.695
18.10000 10.252
18.12000 19.593
18.14000 26.060
18.16000 15.143
18.18000 0.955
18.20000 3.932
18.22000 7.480
18.24000 7.128
18.26000 12.384
18.28000 8.908
18.30000 4.971
18.32000 6.855
18.34000 13.057
18.36000 7.130
18.38000 3.786
18.40000 7.142
18.42000 8.324
18.44000 7.864
18.46000 11.120
18.48000 14.037
18.50000 10.490
18.52000 6.587
18.54000 -4.218
18.56000 2.693
18.58000 3.485
18.60000 0.238
18.62000 4.583
18.64000 12.991
18.66000 9.960
18.68000 4.205
18.70000 -2.665
18.72000 -3.118
18.74000 5.739
18.76000 5.378
18.78000 -2.387
18.80000 1.850
18.82000 5.389
18.84000 8.743
18.86000 3.710
18.88000 8.061
18.90000 15.151
18.92000 13.213
18.94000 5.275
18.96000 3.517
18.98000 1.528
19.00000 3.047
19.02000 4.591
19.04000 8.265
19.06000 13.426
19.08000 3.592
19.10000 -1.940
19.12000 1.291
19.14000 6.218
19.16000 9.235
19.18000 6.083
19.20000 3.145
19.22000 0.434
19.24000 2.283
19.26000 10.011
19.28000 7.857
19.30000 1.135
19.32000 0.021
19.34000 5.156
19.36000 6.537
19.38000 -1.274
19.40000 -1.032
19.42000 5.988
19.44000 3.921
19.46000 8.999
19.48000 11.640
19.50000 7.672
19.52000 2.859
19.54000 0.569
19.56000 8.536
19.58000 7.328
19.60000 2.621
19.62000 6.087
19.64000 3.909
19.66000 4.993
19.68000 8.957
19.70000 3.700
19.72000 5.721
19.74000 7.275
19.76000 3.822
19.78000 -4.244
19.80000 -0.286
19.82000 6.149
19.84000 8.204
19.86000 4.809
19.88000 5.480
19.90000 0.634
19.92000 -3.901
19.94000 -2.469
19.96000 0.158
19.98000 -3.794
20.00000 0.576
20.02000 -2.536
20.04000 -0.845
20.06000 5.568
20.08000 8.737
20.10000 4.739
20.12000 1.609
20.14000 1.238
20.16000 5.699
20.18000 12.228
20.20000 7.224
20.22000 0.194
20.24000 1.731
20.26000 6.188
20.28000 2.359
20.30000 2.332
20.32000 7.103
20.34000 6.139
20.36000 1.733
20.38000 3.205
20.40000 1.798
20.42000 3.460
20.44000 6.871
20.46000 4.628
20.48000 4.898
20.50000 6.493
20.52000 1.940
20.54000 -4.203
20.56000 -1.320
20.58000 1.471
20.60000 5.636
20.62000 3.251
20.64000 -0.101
20.66000 9.184
20.68000 8.145
20.70000 5.339
20.72000 3.182
20.74000 -0.548
20.76000 0.588
20.78000 -0.756
20.80000 4.913
20.82000 2.747
20.84000 2.928
20.86000 -0.817
20.88000 -4.189
20.90000 9.715
20.92000 8.053
20.94000 3.166
20.96000 1.469
20.98000 0.653
21.00000 5.411
21.02000 5.209
21.04000 6.619
21.06000 6.707
21.08000 4.653
21.10000 4.801
21.12000 4.290
21.14000 1.199
21.16000 3.792
21.18000 5.262
21.20000 6.855
21.22000 8.829
21.24000 10.665
21.26000 2.362
21.28000 1.417
21.30000 2.100
21.32000 6.294
21.34000 -0.751
21.36000 5.022
21.38000 9.015
21.40000 7.900
21.42000 3.466
21.44000 -0.267
21.46000 4.793
21.48000 5.871
21.50000 7.106
21.52000 6.891
21.54000 12.032
21.56000 12.298
21.58000 4.694
21.60000 6.357
21.62000 4.589
21.64000 -0.762
21.66000 8.229
21.68000 8.064
21.70000 5.512
21.72000 2.582
21.74000 0.577
21.76000 0.843
21.78000 6.873
21.80000 6.929
21.82000 -0.889
21.84000 0.718
21.86000 3.658
21.88000 3.072
21.90000 0.159
21.92000 -1.791
21.94000 9.028
21.96000 10.887
21.98000 12.755
22.00000 8.176
22.02000 4.898
22.04000 6.537
22.06000 7.943
22.08000 10.842
22.10000 5.528
22.12000 1.688
22.14000 -2.165
22.16000 -2.238
22.18000 0.821
22.20000 2.825
22.22000 4.276
22.24000 3.957
22.26000 8.934
22.28000 4.954
22.30000 2.977
22.32000 9.624
22.34000 7.441
22.36000 -0.082
22.38000 -4.098
22.40000 -0.522
22.42000 6.235
22.44000 -0.203
22.46000 7.050
22.48000 10.275
22.50000 1.283
22.52000 0.793
22.54000 4.113
22.56000 5.762
22.58000 3.407
22.60000 -0.353
22.62000 4.008
22.64000 6.178
22.66000 4.391
22.68000 6.121
22.70000 6.222
22.72000 3.877
22.74000 4.348
22.76000 7.023
22.78000 6.623
22.80000 7.475
22.82000 10.745
22.84000 5.913
22.86000 2.734
22.88000 2.370
22.90000 8.311
22.92000 11.507
22.94000 9.816
22.96000 6.024
22.98000 3.448
23.00000 1.177
23.02000 2.607
23.04000 5.369
23.06000 3.567
23.08000 7.148
23.10000 1.008
23.12000 1.958
23.14000 2.209
23.16000 7.848
23.18000 5.902
23.20000 2.586
23.22000 3.416
23.24000 6.077
23.26000 5.770
23.28000 0.283
23.30000 1.066
23.32000 2.343
23.34000 7.757
23.36000 9.106
23.38000 8.693
23.40000 7.278
23.42000 3.267
23.44000 5.984
23.46000 5.347
23.48000 4.675
23.50000 9.895
23.52000 6.843
23.54000 4.087
23.56000 3.995
23.58000 6.668
23.60000 4.244
23.62000 5.779
23.64000 8.508
23.66000 5.478
23.68000 10.064
23.70000 9.663
23.72000 10.080
23.74000 9.418
23.76000 7.001
23.78000 1.205
23.80000 -2.946
23.82000 -3.988
23.84000 3.001
23.86000 2.257
23.88000 4.744
23.90000 6.660
23.92000 4.161
23.94000 8.545
23.96000 12.292
23.98000 7.763
24.00000 8.780
24.02000 6.019
24.04000 1.204
24.06000 -0.025
24.08000 4.550
24.10000 9.326
24.12000 12.312
24.14000 5.260
24.16000 3.237
24.18000 4.507
24.20000 2.773
24.22000 5.093
24.24000 3.613
24.26000 2.841
24.28000 0.738
24.30000 5.955
24.32000 5.103
24.34000 2.044
24.36000 0.968
24.38000 7.668
24.40000 7.467
24.42000 3.224
24.44000 -0.312
24.46000 -2.664
24.48000 -3.717
24.50000 2.263
24.52000 1.604
24.54000 4.956
24.56000 11.160
24.58000 10.008
24.60000 3.118
24.62000 -0.188
24.64000 5.046
24.66000 9.995
24.68000 8.430
24.70000 6.540
24.72000 8.357
24.74000 8.157
24.76000 5.771
24.78000 0.778
24.80000 2.354
24.82000 -0.955
24.84000 0.614
24.86000 1.579
24.88000 3.583
24.90000 4.975
24.92000 0.520
24.94000 3.337
24.96000 5.544
24.98000 9.109
25.00000 11.458
25.02000 6.040
25.04000 2.470
25.06000 2.696
25.08000 5.383
25.10000 5.219
25.12000 7.302
25.14000 6.152
25.16000 6.085
25.18000 2.906
25.20000 3.540
25.22000 2.555
25.24000 -0.496
25.26000 7.630
25.28000 4.796
25.30000 3.353
25.32000 8.290
25.34000 5.668
25.36000 3.273
25.38000 4.088
25.40000 5.238
25.42000 7.481
25.44000 4.463
25.46000 -0.346
25.48000 7.474
25.50000 10.880
25.52000 13.219
25.54000 8.636
25.56000 4.799
25.58000 4.493
25.60000 8.859
25.62000 3.838
25.64000 2.970
25.66000 -3.885
25.68000 1.161
25.70000 7.990
25.72000 9.601
25.74000 6.922
25.76000 5.162
25.78000 10.046
25.80000 7.094
25.82000 3.800
25.84000 2.172
25.86000 0.779
25.88000 1.336
25.90000 2.892
25.92000 4.521
25.94000 6.029
25.96000 2.197
25.98000 6.687
26.00000 4.887
26.02000 8.142
26.04000 14.810
26.06000 9.645
26.08000 2.698
26.10000 1.564
26.12000 -3.452
26.14000 -1.163
26.16000 7.896
26.18000 7.926
26.20000 7.816
26.22000 7.938
26.24000 5.558
26.26000 5.054
26.28000 2.587
26.30000 -2.395
26.32000 0.468
26.34000 4.788
26.36000 2.204
26.38000 -0.457
26.40000 -1.556
26.42000 0.049
26.44000 -2.212
26.46000 3.629
26.48000 1.506
26.50000 0.621
26.52000 -0.379
26.54000 2.104
26.56000 2.897
26.58000 -1.480
26.60000 2.680
26.62000 9.694
26.64000 8.639
26.66000 2.742
26.68000 3.997
26.70000 1.726
26.72000 4.186
26.74000 2.328
26.76000 -0.671
26.78000 3.791
26.80000 8.568
26.82000 5.898
26.84000 8.315
26.86000 5.937
26.88000 5.760
26.90000 2.236
26.92000 3.153
26.94000 6.190
26.96000 8.083
26.98000 -0.650
27.00000 2.150
27.02000 4.283
27.04000 6.560
27.06000 4.252
27.08000 4.270
27.10000 4.122
27.12000 7.670
27.14000 6.161
27.16000 4.234
27.18000 1.192
27.20000 2.877
27.22000 -0.584
27.24000 2.163
27.26000 3.043
27.28000 -0.368
27.30000 -2.008
27.32000 0.427
27.34000 3.505
27.36000 -0.429
27.38000 -3.172
27.40000 1.785
27.42000 -0.305
27.44000 0.011
27.46000 -2.601
27.48000 -3.841
27.50000 1.541
27.52000 2.949
27.54000 3.790
27.56000 -1.463
27.58000 -2.319
27.60000 -2.830
27.62000 0.697
27.64000 4.651
27.66000 2.236
27.68000 4.808
27.70000 7.730
27.72000 4.244
27.74000 1.744
27.76000 -1.586
27.78000 2.517
27.80000 1.801
27.82000 4.767
27.84000 6.740
27.86000 3.890
27.88000 -0.093
27.90000 0.687
27.92000 -0.547
27.94000 0.586
27.96000 1.948
27.98000 0.533
28.00000 0.678
28.02000 3.839
28.04000 5.648
28.06000 -1.140
28.08000 1.437
28.10000 3.314
28.12000 2.132
28.14000 1.575
28.16000 0.162
28.18000 3.260
28.20000 4.973
28.22000 4.551
28.24000 4.174
28.26000 4.161
28.28000 3.127
28.30000 4.776
28.32000 3.019
28.34000 1.435
28.36000 3.452
28.38000 1.242
28.40000 1.398
28.42000 2.582
28.44000 8.561
28.46000 6.810
28.48000 6.191
28.50000 2.687
28.52000 2.518
28.54000 2.080
28.56000 -1.017
28.58000 3.679
28.60000 2.715
28.62000 5.149
28.64000 3.055
28.66000 7.182
28.68000 2.538
28.70000 -1.093
28.72000 -1.564
28.74000 2.308
28.76000 5.396
28.78000 4.063
28.80000 1.211
28.82000 1.740
28.84000 4.372
28.86000 4.067
28.88000 6.903
28.90000 10.104
28.92000 9.629
28.94000 7.035
28.96000 5.398
28.98000 0.317
29.00000 1.531
29.02000 9.143
29.04000 0.607
29.06000 1.735
29.08000 6.147
29.10000 9.337
29.12000 6.809
29.14000 1.011
29.16000 5.802
29.18000 7.205
29.20000 6.877
29.22000 2.642
29.24000 5.334
29.26000 1.822
29.28000 -3.696
29.30000 2.628
29.32000 1.936
29.34000 3.966
29.36000 4.537
29.38000 3.408
29.40000 6.062
29.42000 7.016
29.44000 -0.419
29.46000 0.898
29.48000 1.156
29.50000 0.627
29.52000 4.604
29.54000 6.279
29.56000 3.241
29.58000 2.582
29.60000 2.579
29.62000 3.600
29.64000 0.735
29.66000 0.424
29.68000 5.468
29.70000 8.687
29.72000 2.163
29.74000 4.854
29.76000 6.027
29.78000 6.238
29.80000 4.906
29.82000 8.850
29.84000 7.267
29.86000 3.456
29.88000 4.025
29.90000 12.059
29.92000 5.549
29.94000 6.248
29.96000 3.452
29.98000 5.971
30.00000 3.388
30.02000 2.601
30.04000 3.887
30.06000 3.573
30.08000 1.110
30.10000 -3.690
30.12000 -3.690
30.14000 -3.446
30.16000 3.424
30.18000 6.033
30.20000 5.978
30.22000 1.668
30.24000 -0.318
30.26000 2.098
30.28000 3.346
30.30000 2.585
30.32000 4.038
30.34000 -0.305
30.36000 -0.717
30.38000 4.770
30.40000 3.210
30.42000 3.658
30.44000 3.961
30.46000 3.781
30.48000 3.120
30.50000 8.461
30.52000 3.509
30.54000 8.703
30.56000 4.078
30.58000 0.281
30.60000 -1.964
30.62000 -0.574
30.64000 1.726
30.66000 2.241
30.68000 1.445
30.70000 2.013
30.72000 3.558
30.74000 8.072
30.76000 5.772
30.78000 4.500
30.80000 1.194
30.82000 -0.757
30.84000 4.950
30.86000 4.519
30.88000 0.400
30.90000 0.212
30.92000 -0.901
30.94000 -1.935
30.96000 -2.231
30.98000 6.549
31.00000 6.242
31.02000 0.130
31.04000 4.250
31.06000 2.990
31.08000 5.444
31.10000 2.698
31.12000 -2.313
31.14000 0.641
31.16000 2.334
31.18000 -0.852
31.20000 0.296
31.22000 -1.201
31.24000 -1.175
31.26000 1.596
31.28000 3.208
31.30000 3.478
31.32000 2.145
31.34000 1.914
31.36000 1.773
31.38000 3.289
31.40000 -1.085
31.42000 -1.925
31.44000 3.089
31.46000 2.314
31.48000 10.563
31.50000 5.501
31.52000 4.679
31.54000 6.920
31.56000 4.112
31.58000 3.095
31.60000 1.775
31.62000 1.207
31.64000 3.718
31.66000 3.132
31.68000 -0.822
31.70000 -3.621
31.72000 0.646
31.74000 1.730
31.76000 -1.154
31.78000 -0.250
31.80000 1.948
31.82000 5.090
31.84000 1.040
31.86000 0.147
31.88000 5.989
31.90000 8.195
31.92000 5.717
31.94000 3.843
31.96000 1.994
31.98000 -0.481
32.00000 3.528
32.02000 2.695
32.04000 0.952
32.06000 2.238
32.08000 3.664
32.10000 4.755
32.12000 2.767
32.14000 2.483
32.16000 1.188
32.18000 -3.115
32.20000 1.627
32.22000 2.506
32.24000 -1.824
32.26000 2.540
32.28000 1.567
32.30000 4.244
32.32000 2.969
32.34000 0.240
32.36000 -3.602
32.38000 -0.079
32.40000 2.672
32.42000 4.417
32.44000 3.691
32.46000 2.662
32.48000 2.552
32.50000 3.966
32.52000 2.385
32.54000 2.524
32.56000 3.535
32.58000 3.865
32.60000 -3.603
32.62000 -1.187
32.64000 -0.929
32.66000 -0.930
32.68000 8.272
32.70000 -0.441
32.72000 -0.744
32.74000 3.350
32.76000 3.380
32.78000 2.570
32.80000 -3.498
32.82000 0.423
32.84000 -1.575
32.86000 -0.826
32.88000 2.545
32.90000 2.946
32.92000 -2.590
32.94000 -2.157
32.96000 -1.472
32.98000 3.564
33.00000 2.999
33.02000 3.805
33.04000 5.617
33.06000 3.629
33.08000 2.712
33.10000 5.582
33.12000 9.457
33.14000 7.351
33.16000 -0.593
33.18000 1.639
33.20000 0.690
33.22000 -3.599
33.24000 2.791
33.26000 8.587
33.28000 4.592
33.30000 2.768
33.32000 2.670
33.34000 1.311
33.36000 -0.769
33.38000 -1.769
33.40000 1.215
33.42000 2.624
33.44000 4.628
33.46000 -0.550
33.48000 0.104
33.50000 -2.285
33.52000 -2.466
33.54000 0.605
33.56000 -0.850
33.58000 0.930
33.60000 0.785
33.62000 0.280
33.64000 4.010
33.66000 0.712
33.68000 2.568
33.70000 4.647
33.72000 1.335
33.74000 2.155
33.76000 3.028
33.78000 3.223
33.80000 1.577
33.82000 3.923
33.84000 5.398
33.86000 5.766
33.88000 2.787
33.90000 1.650
33.92000 -0.127
33.94000 2.144
33.96000 2.395
33.98000 0.674
34.00000 6.480
34.02000 6.637
34.04000 5.834
34.06000 5.605
34.08000 7.827
34.10000 4.145
34.12000 1.274
34.14000 3.954
34.16000 7.564
34.18000 8.128
34.20000 4.516
34.22000 0.797
34.24000 4.334
34.26000 2.200
34.28000 1.102
34.30000 0.970
34.32000 1.851
34.34000 1.439
34.36000 2.384
34.38000 2.915
34.40000 7.581
34.42000 8.459
34.44000 7.207
34.46000 11.783
34.48000 10.373
34.50000 4.102
34.52000 -1.403
34.54000 0.007
34.56000 -1.807
34.58000 -3.529
34.60000 0.179
34.62000 0.993
34.64000 -0.949
34.66000 1.735
34.68000 7.245
34.70000 4.729
34.72000 2.462
34.74000 4.310
34.76000 5.234
34.78000 3.302
34.80000 5.030
34.82000 4.526
34.84000 3.858
34.86000 3.061
34.88000 0.790
34.90000 -3.513
34.92000 2.804
34.94000 3.533
34.96000 4.053
34.98000 2.103
35.00000 0.781
35.02000 2.998
35.04000 -2.095
35.06000 0.091
35.08000 2.524
35.10000 0.953
35.12000 4.678
35.14000 4.905
35.16000 2.947
35.18000 -1.263
35.20000 -1.136
35.22000 0.416
35.24000 5.815
35.26000 6.596
35.28000 2.948
35.30000 -0.937
35.32000 2.728
35.34000 2.064
35.36000 3.444
35.38000 5.334
35.40000 1.694
35.42000 -2.072
35.44000 -1.292
35.46000 1.928
35.48000 -0.026
35.50000 -0.457
35.52000 -2.506
35.54000 0.035
35.56000 2.879
35.58000 2.431
35.60000 2.187
35.62000 3.917
35.64000 0.472
35.66000 -0.471
35.68000 0.999
35.70000 0.363
35.72000 1.195
35.74000 -3.564
35.76000 -0.371
35.78000 -3.110
35.80000 -2.234
35.82000 0.305
35.84000 -3.532
35.86000 -1.116
35.88000 0.513
35.90000 3.036
35.92000 -2.012
35.94000 -0.587
35.96000 -3.211
35.98000 -2.259
36.00000 -1.020
36.02000 -2.514
36.04000 -3.542
36.06000 -1.906
36.08000 -1.653
36.10000 -1.699
36.12000 1.841
36.14000 1.063
36.16000 0.643
36.18000 5.423
36.20000 1.317
36.22000 -1.272
36.24000 -1.169
36.26000 -1.913
36.28000 0.806
36.30000 1.480
36.32000 -2.316
36.34000 -2.514
36.36000 -2.254
36.38000 -0.688
36.40000 2.901
36.42000 -0.250
36.44000 1.246
36.46000 0.880
36.48000 3.954
36.50000 4.397
36.52000 -0.418
36.54000 -0.494
36.56000 1.390
36.58000 7.845
36.60000 -2.437
36.62000 -1.164
36.64000 -3.586
36.66000 0.682
36.68000 3.970
36.70000 -0.570
36.72000 6.429
36.74000 4.479
36.76000 0.088
36.78000 1.810
36.80000 0.122
36.82000 -1.520
36.84000 -3.082
36.86000 -1.384
36.88000 0.794
36.90000 -1.611
36.92000 -0.153
36.94000 -2.284
36.96000 -2.812
36.98000 1.371
37.00000 4.608
37.02000 2.981
37.04000 -0.117
37.06000 -1.470
37.08000 -3.331
37.10000 -1.242
37.12000 -3.197
37.14000 1.542
37.16000 -0.941
37.18000 -0.546
37.20000 2.464
37.22000 1.063
37.24000 -3.433
37.26000 -2.018
37.28000 -3.272
37.30000 -2.810
37.32000 0.876
37.34000 1.992
37.36000 -0.542
37.38000 -1.139
37.40000 -1.602
37.42000 0.826
37.44000 6.266
37.46000 3.453
37.48000 8.124
37.50000 0.050
37.52000 -3.662
37.54000 1.482
37.56000 2.163
37.58000 2.650
37.60000 2.356
37.62000 2.552
37.64000 5.125
37.66000 2.209
37.68000 2.067
37.70000 5.155
37.72000 6.973
37.74000 6.894
37.76000 3.641
37.78000 6.074
37.80000 6.915
37.82000 12.211
37.84000 8.172
37.86000 5.694
37.88000 3.671
37.90000 3.201
37.92000 5.041
37.94000 7.015
37.96000 5.168
37.98000 6.846
38.00000 11.772
38.02000 11.720
38.04000 10.985
38.06000 10.810
38.08000 8.682
38.10000 10.395
38.12000 13.965
38.14000 12.374
38.16000 15.337
38.18000 14.405
38.20000 15.865
38.22000 18.778
38.24000 18.138
38.26000 14.954
38.28000 15.434
38.30000 20.440
38.32000 23.578
38.34000 19.093
38.36000 21.289
38.38000 17.402
38.40000 14.956
38.42000 24.714
38.44000 29.190
38.46000 28.338
38.48000 23.039
38.50000 26.456
38.52000 23.884
38.54000 29.398
38.56000 26.101
38.58000 23.745
38.60000 26.978
38.62000 29.637
38.64000 29.481
38.66000 32.648
38.68000 30.628
38.70000 35.433
38.72000 37.337
38.74000 39.147
38.76000 37.873
38.78000 37.623
38.80000 42.058
38.82000 42.642
38.84000 46.875
38.86000 46.240
38.88000 50.925
38.90000 55.316
38.92000 55.466
38.94000 57.836
38.96000 63.816
38.98000 69.123
39.00000 68.094
39.02000 65.161
39.04000 66.126
39.06000 69.231
39.08000 75.830
39.10000 79.243
39.12000 83.692
39.14000 88.412
39.16000 88.911
39.18000 89.268
39.20000 98.942
39.22000 105.763
39.24000 114.767
39.26000 114.207
39.28000 118.589
39.30000 126.090
39.32000 129.496
39.34000 130.189
39.36000 147.959
39.38000 160.298
39.40000 161.165
39.42000 169.712
39.44000 183.931
39.46000 185.283
39.48000 194.967
39.50000 204.196
39.52000 212.946
39.54000 222.745
39.56000 229.805
39.58000 254.859
39.60000 270.574
39.62000 278.026
39.64000 290.981
39.66000 299.991
39.68000 317.766
39.70000 339.162
39.72000 362.348
39.74000 370.283
39.76000 384.419
39.78000 401.337
39.80000 424.484
39.82000 442.861
39.84000 460.459
39.86000 480.203
39.88000 508.721
39.90000 535.218
39.92000 545.905
39.94000 562.058
39.96000 571.349
39.98000 589.758
40.00000 599.359
40.02000 611.251
40.04000 625.890
40.06000 637.630
40.08000 654.760
40.10000 662.744
40.12000 663.349
40.14000 657.819
40.16000 653.264
40.18000 656.843
40.20000 655.995
40.22000 648.640
40.24000 643.960
40.26000 633.709
40.28000 625.818
40.30000 611.633
40.32000 598.242
40.34000 581.101
40.36000 572.120
40.38000 555.961
40.40000 536.810
40.42000 528.135
40.44000 505.403
40.46000 477.910
40.48000 463.854
40.50000 444.434
40.52000 430.668
40.54000 405.807
40.56000 384.254
40.58000 367.379
40.60000 362.669
40.62000 343.179
40.64000 325.868
40.66000 315.642
40.68000 302.079
40.70000 283.167
40.72000 268.556
40.74000 255.510
40.76000 238.100
40.78000 223.625
40.80000 214.931
40.82000 197.754
40.84000 188.174
40.86000 179.998
40.88000 168.657
40.90000 157.345
40.92000 159.693
40.94000 145.920
40.96000 132.535
40.98000 128.233
41.00000 125.446
41.02000 116.597
41.04000 107.498
41.06000 102.807
41.08000 97.525
41.10000 90.014
41.12000 85.722
41.14000 84.611
41.16000 77.895
41.18000 80.262
41.20000 73.405
41.22000 67.449
41.24000 64.698
41.26000 58.613
41.28000 53.809
41.30000 52.504
41.32000 53.259
41.34000 46.741
41.36000 45.380
41.38000 44.752
41.40000 37.068
41.42000 34.738
41.44000 34.323
41.46000 32.296
41.48000 33.278
41.50000 34.168
41.52000 27.117
41.54000 27.660
41.56000 28.928
41.58000 25.531
41.60000 24.217
41.62000 22.418
41.64000 24.685
41.66000 18.127
41.68000 15.587
41.70000 22.265
41.72000 21.178
41.74000 20.221
41.76000 20.762
41.78000 16.101
41.80000 10.412
41.82000 9.511
41.84000 6.004
41.86000 5.460
41.88000 9.902
41.90000 15.264
41.92000 13.894
41.94000 12.286
41.96000 12.115
41.98000 10.008
42.00000 6.144
42.02000 6.556
42.04000 8.529
42.06000 7.981
42.08000 5.567
42.10000 4.478
42.12000 7.455
42.14000 7.109
42.16000 7.320
42.18000 7.336
42.20000 5.799
42.22000 4.551
42.24000 1.088
42.26000 2.144
42.28000 4.225
42.30000 2.827
42.32000 0.368
42.34000 -0.334
42.36000 -1.561
42.38000 -0.747
42.40000 2.841
42.42000 5.178
42.44000 1.999
42.46000 1.570
42.48000 7.001
42.50000 9.880
42.52000 7.652
42.54000 5.440
42.56000 0.843
42.58000 -1.187
42.60000 -0.293
42.62000 2.334
42.64000 0.898
42.66000 1.088
42.68000 2.144
42.70000 2.120
42.72000 6.779
42.74000 3.279
42.76000 3.241
42.78000 2.242
42.80000 -2.516
42.82000 -3.462
42.84000 -0.360
42.86000 2.955
42.88000 2.212
42.90000 -1.012
42.92000 3.209
42.94000 2.932
42.96000 -0.478
42.98000 -1.339
43.00000 -1.612
43.02000 -2.640
43.04000 -2.651
43.06000 1.158
43.08000 2.209
43.10000 -0.272
43.12000 -3.423
43.14000 1.424
43.16000 2.682
43.18000 2.155
43.20000 2.322
43.22000 -0.440
43.24000 0.114
43.26000 0.855
43.28000 -0.648
43.30000 1.324
43.32000 3.462
43.34000 7.269
43.36000 1.998
43.38000 0.140
43.40000 -0.293
43.42000 -0.937
43.44000 -0.486
43.46000 -3.405
43.48000 -2.546
43.50000 -1.359
43.52000 -0.058
43.54000 -0.881
43.56000 1.210
43.58000 2.407
43.60000 -0.997
43.62000 2.091
43.64000 2.763
43.66000 2.824
43.68000 1.658
43.70000 2.664
43.72000 6.797
43.74000 10.077
43.76000 2.727
43.78000 -1.641
43.80000 4.394
43.82000 3.743
43.84000 -2.038
43.86000 2.198
43.88000 2.655
43.90000 -0.854
43.92000 1.376
43.94000 0.843
43.96000 -3.374
43.98000 -2.877
44.00000 1.760
44.02000 1.529
44.04000 0.186
44.06000 -0.775
44.08000 -0.589
44.10000 3.132
44.12000 0.597
44.14000 -2.361
44.16000 -0.559
44.18000 -1.008
44.20000 -3.133
44.22000 -3.354
44.24000 0.016
44.26000 0.205
44.28000 1.653
44.30000 -0.039
44.32000 1.090
44.34000 3.100
44.36000 -0.182
44.38000 2.794
44.40000 0.799
44.42000 2.936
44.44000 0.832
44.46000 -0.663
44.48000 2.701
44.50000 0.915
44.52000 -3.351
44.54000 -0.847
44.56000 4.014
44.58000 2.881
44.60000 1.707
44.62000 1.142
44.64000 1.471
44.66000 5.295
44.68000 5.058
44.70000 2.431
44.72000 4.751
44.74000 3.735
44.76000 6.475
44.78000 2.747
44.80000 0.714
44.82000 2.410
44.84000 6.170
44.86000 6.071
44.88000 4.260
44.90000 4.342
44.92000 9.851
44.94000 5.068
44.96000 7.985
44.98000 10.873
45.00000 7.285
45.02000 2.752
45.04000 5.910
45.06000 8.235
45.08000 8.863
45.10000 10.651
45.12000 10.881
45.14000 10.916
45.16000 6.981
45.18000 10.283
45.20000 11.325
45.22000 12.460
45.24000 11.927
45.26000 11.396
45.28000 7.903
45.30000 11.547
45.32000 18.050
45.34000 13.752
45.36000 10.766
45.38000 14.972
45.40000 20.104
45.42000 19.546
45.44000 19.229
45.46000 21.806
45.48000 15.806
45.50000 18.092
45.52000 24.948
45.54000 24.582
45.56000 22.937
45.58000 21.639
45.60000 19.597
45.62000 24.948
45.64000 31.057
45.66000 32.834
45.68000 28.619
45.70000 28.739
45.72000 31.364
45.74000 32.706
45.76000 30.375
45.78000 31.663
45.80000 36.838
45.82000 38.277
45.84000 41.231
45.86000 41.809
45.88000 40.400
45.90000 43.401
45.92000 48.847
45.94000 53.672
45.96000 50.294
45.98000 46.586
46.00000 50.851
46.02000 53.547
46.04000 48.728
46.06000 50.038
46.08000 55.090
46.10000 55.664
46.12000 57.765
46.14000 57.056
46.16000 60.755
46.18000 64.380
46.20000 67.157
46.22000 68.751
46.24000 68.966
46.26000 72.237
46.28000 77.023
46.30000 81.385
46.32000 79.049
46.34000 77.297
46.36000 79.122
46.38000 87.732
46.40000 90.687
46.42000 90.947
46.44000 93.752
46.46000 98.831
46.48000 101.479
46.50000 108.184
46.52000 108.288
46.54000 98.486
46.56000 103.707
46.58000 105.187
46.60000 105.927
46.62000 114.490
46.64000 116.265
46.66000 109.716
46.68000 117.984
46.70000 119.999
46.72000 124.331
46.74000 125.461
46.76000 122.309
46.78000 122.323
46.80000 121.447
46.82000 115.851
46.84000 120.978
46.86000 117.100
46.88000 120.010
46.90000 116.695
46.92000 124.984
46.94000 124.589
46.96000 118.681
46.98000 125.487
47.00000 113.174
47.02000 113.338
47.04000 106.305
47.06000 105.019
47.08000 101.216
47.10000 108.678
47.12000 113.280
47.14000 102.068
47.16000 93.598
47.18000 98.128
47.20000 92.937
47.22000 89.188
47.24000 86.994
47.26000 88.086
47.28000 83.939
47.30000 79.061
47.32000 74.043
47.34000 71.061
47.36000 75.671
47.38000 69.686
47.40000 65.889
47.42000 66.451
47.44000 65.839
47.46000 54.555
47.48000 52.874
47.50000 55.167
47.52000 55.162
47.54000 50.587
47.56000 47.257
47.58000 44.714
47.60000 36.085
47.62000 33.682
47.64000 30.947
47.66000 29.118
47.68000 30.277
47.70000 32.662
47.72000 34.639
47.74000 32.079
47.76000 30.105
47.78000 28.543
47.80000 26.287
47.82000 29.116
47.84000 22.876
47.86000 26.502
47.88000 19.202
47.90000 16.304
47.92000 15.952
47.94000 15.656
47.96000 14.178
47.98000 17.493
48.00000 14.412
48.02000 9.325
48.04000 3.563
48.06000 5.708
48.08000 5.621
48.10000 7.381
48.12000 10.685
48.14000 14.702
48.16000 9.464
48.18000 9.323
48.20000 6.178
48.22000 7.460
48.24000 3.645
48.26000 6.312
48.28000 7.352
48.30000 4.162
48.32000 -0.288
48.34000 3.302
48.36000 6.017
48.38000 4.586
48.40000 0.070
48.42000 0.183
48.44000 0.689
48.46000 6.065
48.48000 2.644
48.50000 0.702
48.52000 3.830
48.54000 5.953
48.56000 1.284
48.58000 -2.996
48.60000 1.314
48.62000 3.846
48.64000 0.480
48.66000 -0.803
48.68000 3.988
48.70000 3.305
48.72000 0.730
48.74000 -0.945
48.76000 -0.771
48.78000 -0.720
48.80000 4.201
48.82000 2.856
48.84000 -2.953
48.86000 -0.891
48.88000 4.345
48.90000 -0.319
48.92000 -1.495
48.94000 -1.651
48.96000 -1.848
48.98000 0.524
49.00000 2.856
49.02000 -0.839
49.04000 1.035
49.06000 -1.503
49.08000 -2.498
49.10000 -0.125
49.12000 1.014
49.14000 -0.419
49.16000 -1.613
49.18000 -1.825
49.20000 0.025
49.22000 -2.686
49.24000 1.493
49.26000 2.358
49.28000 -1.252
49.30000 -2.811
49.32000 -2.889
49.34000 0.672
49.36000 2.654
49.38000 1.846
49.40000 2.463
49.42000 0.505
49.44000 -2.006
49.46000 2.468
49.48000 0.851
49.50000 3.163
49.52000 2.870
49.54000 3.959
49.56000 2.987
49.58000 0.258
49.60000 4.155
49.62000 0.561
49.64000 -1.165
49.66000 2.919
49.68000 1.137
49.70000 -2.844
49.72000 -2.012
49.74000 -1.644
49.76000 0.226
49.78000 -0.085
49.80000 1.793
49.82000 -0.186
49.84000 -2.332
49.86000 -0.940
49.88000 1.810
49.90000 2.128
49.92000 -1.549
49.94000 2.583
49.96000 6.967
49.98000 9.088
50.00000 3.639
50.02000 -0.486
50.04000 -1.380
50.06000 -0.305
50.08000 4.960
50.10000 3.280
50.12000 3.751
50.14000 3.594
50.16000 0.702
50.18000 1.143
50.20000 0.160
50.22000 -2.787
50.24000 -0.327
50.26000 6.101
50.28000 6.899
50.30000 3.294
50.32000 2.303
50.34000 2.554
50.36000 3.674
50.38000 3.134
50.40000 -0.636
50.42000 -0.107
50.44000 2.376
50.46000 5.305
50.48000 3.655
50.50000 -1.111
50.52000 4.537
50.54000 4.318
50.56000 2.100
50.58000 0.868
50.60000 0.483
50.62000 3.100
50.64000 3.331
50.66000 -2.110
50.68000 -2.687
50.70000 -2.757
50.72000 -2.293
50.74000 1.465
50.76000 0.581
50.78000 1.759
50.80000 1.131
50.82000 2.002
50.84000 1.382
50.86000 3.621
50.88000 1.654
50.90000 2.031
50.92000 2.909
50.94000 1.284
50.96000 -0.982
50.98000 4.973
51.00000 4.732
51.02000 1.942
51.04000 0.050
51.06000 2.207
51.08000 0.067
51.10000 -0.470
51.12000 -2.324
51.14000 -1.365
51.16000 0.059
51.18000 2.646
51.20000 3.398
51.22000 6.730
51.24000 1.284
51.26000 4.163
51.28000 4.990
51.30000 1.596
51.32000 4.061
51.34000 4.674
51.36000 2.379
51.38000 0.984
51.40000 3.015
51.42000 1.425
51.44000 1.776
51.46000 -2.013
51.48000 2.709
51.50000 9.739
51.52000 4.209
51.54000 5.890
51.56000 0.824
51.58000 3.354
51.60000 2.411
51.62000 -1.726
51.64000 1.112
51.66000 0.551
51.68000 1.701
51.70000 -2.701
51.72000 3.261
51.74000 2.657
51.76000 -1.617
51.78000 5.543
51.80000 7.981
51.82000 4.831
51.84000 4.221
51.86000 0.079
51.88000 -0.130
51.90000 3.700
51.92000 1.174
51.94000 -0.041
51.96000 4.147
51.98000 4.653
52.00000 0.315
52.02000 -2.126
52.04000 0.715
52.06000 -0.134
52.08000 0.647
52.10000 2.004
52.12000 2.317
52.14000 2.023
52.16000 0.619
52.18000 -0.699
52.20000 0.451
52.22000 2.520
52.24000 5.248
52.26000 5.009
52.28000 2.923
52.30000 1.446
52.32000 5.215
52.34000 6.571
52.36000 0.208
52.38000 3.986
52.40000 1.692
52.42000 4.285
52.44000 2.431
52.46000 0.100
52.48000 -1.562
52.50000 -2.676
52.52000 1.243
52.54000 3.055
52.56000 2.205
52.58000 6.685
52.60000 7.638
52.62000 3.772
52.64000 -1.476
52.66000 -2.670
52.68000 1.953
52.70000 6.132
52.72000 3.263
52.74000 6.737
52.76000 3.375
52.78000 1.143
52.80000 0.994
52.82000 3.950
52.84000 0.647
52.86000 0.175
52.88000 2.092
52.90000 1.471
52.92000 4.615
52.94000 4.127
52.96000 -0.845
52.98000 3.288
53.00000 5.095
53.02000 1.905
53.04000 -0.108
53.06000 -0.455
53.08000 0.215
53.10000 2.076
53.12000 1.102
53.14000 -0.811
53.16000 -0.746
53.18000 2.821
53.20000 -0.280
53.22000 -2.664
53.24000 -0.925
53.26000 -0.602
53.28000 2.742
53.30000 -0.004
53.32000 0.256
53.34000 1.364
53.36000 0.460
53.38000 3.382
53.40000 3.931
53.42000 4.882
53.44000 4.991
53.46000 4.587
53.48000 3.997
53.50000 2.588
53.52000 -2.434
53.54000 -0.422
53.56000 -0.575
53.58000 2.201
53.60000 6.042
53.62000 2.692
53.64000 4.075
53.66000 6.871
53.68000 4.479
53.70000 2.335
53.72000 2.495
53.74000 -0.521
53.76000 -0.512
53.78000 1.090
53.80000 -0.551
53.82000 0.009
53.84000 1.624
53.86000 4.321
53.88000 3.778
53.90000 2.082
53.92000 1.671
53.94000 2.623
53.96000 3.260
53.98000 1.025
54.00000 0.511
54.02000 4.889
54.04000 6.395
54.06000 2.717
54.08000 0.859
54.10000 -0.018
54.12000 3.475
54.14000 5.139
54.16000 2.697
54.18000 3.705
54.20000 5.003
54.22000 5.697
54.24000 0.066
54.26000 0.629
54.28000 1.222
54.30000 0.683
54.32000 2.985
54.34000 5.483
54.36000 0.860
54.38000 -2.608
54.40000 -1.929
54.42000 -0.604
54.44000 1.514
54.46000 -0.082
54.48000 -2.155
54.50000 -1.689
54.52000 0.560
54.54000 1.695
54.56000 -1.372
54.58000 0.443
54.60000 1.546
54.62000 2.056
54.64000 4.712
54.66000 3.000
54.68000 -0.143
54.70000 -0.588
54.72000 1.625
54.74000 1.780
54.76000 1.051
54.78000 1.548
54.80000 2.875
54.82000 4.172
54.84000 1.515
54.86000 3.495
54.88000 3.196
54.90000 2.245
54.92000 0.261
54.94000 -0.070
54.96000 -2.603
54.98000 3.312
55.00000 -0.391
55.02000 -0.722
55.04000 1.922
55.06000 2.840
55.08000 -0.056
55.10000 1.266
55.12000 0.169
55.14000 1.943
55.16000 0.736
55.18000 -0.616
55.20000 -0.435
55.22000 3.273
55.24000 -0.282
55.26000 3.834
55.28000 6.364
55.30000 4.159
55.32000 2.322
55.34000 0.735
55.36000 1.895
55.38000 2.509
55.40000 2.052
55.42000 -1.144
55.44000 -2.453
55.46000 -1.878
55.48000 1.247
55.50000 3.789
55.52000 2.503
55.54000 5.312
55.56000 6.701
55.58000 7.048
55.60000 0.691
55.62000 3.163
55.64000 6.600
55.66000 4.625
55.68000 5.855
55.70000 4.104
55.72000 1.504
55.74000 1.997
55.76000 2.910
55.78000 4.217
55.80000 4.902
55.82000 3.438
55.84000 4.160
55.86000 5.673
55.88000 5.731
55.90000 6.575
55.92000 5.256
55.94000 1.122
55.96000 5.045
55.98000 7.553
56.00000 6.650
56.02000 2.742
56.04000 0.195
56.06000 1.300
56.08000 -0.288
56.10000 -2.537
56.12000 1.059
56.14000 2.774
56.16000 5.752
56.18000 4.061
56.20000 3.396
56.22000 8.150
56.24000 7.529
56.26000 7.012
56.28000 5.372
56.30000 3.321
56.32000 3.060
56.34000 -0.583
56.36000 1.828
56.38000 4.348
56.40000 3.758
56.42000 2.377
56.44000 5.040
56.46000 4.950
56.48000 -1.061
56.50000 -0.168
56.52000 4.712
56.54000 6.701
56.56000 3.047
56.58000 -0.045
56.60000 3.329
56.62000 4.624
56.64000 -0.679
56.66000 4.353
56.68000 3.978
56.70000 3.188
56.72000 8.870
56.74000 6.562
56.76000 2.167
56.78000 1.452
56.80000 6.172
56.82000 6.857
56.84000 4.840
56.86000 1.692
56.88000 1.076
56.90000 4.409
56.92000 3.009
56.94000 4.182
56.96000 5.059
56.98000 6.419
57.00000 2.889
57.02000 -2.534
57.04000 0.593
57.06000 0.454
57.08000 -2.239
57.10000 0.112
57.12000 3.327
57.14000 0.027
57.16000 -1.363
57.18000 3.206
57.20000 5.311
57.22000 2.639
57.24000 -0.004
57.26000 -2.526
57.28000 2.581
57.30000 3.139
57.32000 -2.164
57.34000 0.412
57.36000 2.283
57.38000 4.074
57.40000 1.518
57.42000 4.488
57.44000 4.642
57.46000 3.860
57.48000 1.833
57.50000 2.761
57.52000 0.503
57.54000 0.786
57.56000 3.122
57.58000 -0.165
57.60000 2.402
57.62000 2.540
57.64000 0.005
57.66000 2.179
57.68000 4.501
57.70000 3.074
57.72000 0.167
57.74000 -0.392
57.76000 -0.677
57.78000 -0.428
57.80000 3.412
57.82000 -0.514
57.84000 2.524
57.86000 2.766
57.88000 -0.310
57.90000 -0.319
57.92000 1.473
57.94000 4.277
57.96000 3.144
57.98000 0.844
58.00000 0.607
58.02000 5.643
58.04000 3.272
58.06000 0.774
58.08000 1.639
58.10000 1.090
58.12000 -1.551
58.14000 3.284
58.16000 2.426
58.18000 3.573
58.20000 4.317
58.22000 3.750
58.24000 0.127
58.26000 1.944
58.28000 1.319
58.30000 2.868
58.32000 4.933
58.34000 -0.197
58.36000 0.558
58.38000 1.411
58.40000 0.836
58.42000 -1.282
58.44000 -1.732
58.46000 0.913
58.48000 2.061
58.50000 5.696
58.52000 3.430
58.54000 1.507
58.56000 4.934
58.58000 6.351
58.60000 7.560
58.62000 5.670
58.64000 1.130
58.66000 1.051
58.68000 1.615
58.70000 2.737
58.72000 2.717
58.74000 5.970
58.76000 8.360
58.78000 5.075
58.80000 1.775
58.82000 0.101
58.84000 -0.608
58.86000 -2.469
58.88000 0.732
58.90000 4.581
58.92000 3.959
58.94000 1.666
58.96000 6.836
58.98000 3.075
59.00000 0.575
59.02000 6.552
59.04000 5.726
59.06000 6.352
59.08000 5.117
59.10000 6.563
59.12000 4.508
59.14000 2.481
59.16000 1.839
59.18000 2.222
59.20000 1.946
59.22000 2.164
59.24000 1.507
59.26000 2.457
59.28000 4.103
59.30000 0.776
59.32000 -2.295
59.34000 2.963
59.36000 5.581
59.38000 0.987
59.40000 -1.260
59.42000 2.632
59.44000 4.517
59.46000 -0.929
59.48000 1.734
59.50000 6.137
59.52000 7.599
59.54000 4.791
59.56000 3.913
59.58000 7.134
59.60000 5.959
59.62000 4.000
59.64000 2.315
59.66000 5.662
59.68000 7.541
59.70000 10.477
59.72000 5.062
59.74000 2.423
59.76000 6.080
59.78000 2.046
59.80000 -2.445
59.82000 1.296
59.84000 1.497
59.86000 5.043
59.88000 3.594
59.90000 0.533
59.92000 -0.063
59.94000 1.844
59.96000 1.339
59.98000 0.898
60.00000 4.118
60.02000 3.504
60.04000 3.685
60.06000 2.627
60.08000 -0.344
60.10000 1.280
60.12000 7.167
60.14000 5.091
60.16000 1.731
60.18000 -1.021
60.20000 1.273
60.22000 4.997
60.24000 1.827
60.26000 1.573
60.28000 4.608
60.30000 6.121
60.32000 1.467
60.34000 2.929
60.36000 2.661
60.38000 1.212
60.40000 -0.499
60.42000 0.606
60.44000 0.967
60.46000 1.445
60.48000 2.868
60.50000 2.715
60.52000 3.262
60.54000 1.921
60.56000 1.208
60.58000 -2.428
60.60000 0.107
60.62000 2.099
60.64000 6.717
60.66000 5.602
60.68000 1.149
60.70000 0.734
60.72000 -1.084
60.74000 2.281
60.76000 0.426
60.78000 -0.027
60.80000 1.962
60.82000 3.353
60.84000 1.115
60.86000 6.521
60.88000 6.036
60.90000 1.643
60.92000 3.078
60.94000 1.295
60.96000 -2.108
60.98000 2.035
61.00000 -0.016
61.02000 0.731
61.04000 0.678
61.06000 2.121
61.08000 0.160
61.10000 1.404
61.12000 5.845
61.14000 6.756
61.16000 3.404
61.18000 1.309
61.20000 1.360
61.22000 1.797
61.24000 0.363
61.26000 -0.478
61.28000 1.485
61.30000 3.266
61.32000 3.267
61.34000 4.243
61.36000 0.907
61.38000 -1.260
61.40000 2.192
61.42000 5.976
61.44000 6.596
61.46000 3.208
61.48000 6.046
61.50000 0.675
61.52000 -2.408
61.54000 -0.169
61.56000 2.417
61.58000 0.650
61.60000 -0.097
61.62000 -1.739
61.64000 0.649
61.66000 0.200
61.68000 2.909
61.70000 6.268
61.72000 4.958
61.74000 3.844
61.76000 7.218
61.78000 6.067
61.80000 1.603
61.82000 1.149
61.84000 5.212
61.86000 2.731
61.88000 3.473
61.90000 4.608
61.92000 4.543
61.94000 7.957
61.96000 5.318
61.98000 2.752
62.00000 1.161
62.02000 2.163
62.04000 0.923
62.06000 0.133
62.08000 3.867
62.10000 5.412
62.12000 2.649
62.14000 1.315
62.16000 4.837
62.18000 5.701
62.20000 7.603
62.22000 2.858
62.24000 1.180
62.26000 4.085
62.28000 7.282
62.30000 5.069
62.32000 3.152
62.34000 -2.355
62.36000 0.184
62.38000 0.802
62.40000 1.543
62.42000 3.817
62.44000 4.922
62.46000 4.564
62.48000 3.761
62.50000 5.130
62.52000 5.869
62.54000 9.406
62.56000 7.614
62.58000 3.369
62.60000 2.100
62.62000 1.947
62.64000 1.480
62.66000 2.395
62.68000 1.874
62.70000 5.682
62.72000 3.466
62.74000 -1.024
62.76000 0.577
62.78000 4.011
62.80000 2.711
62.82000 2.182
62.84000 3.318
62.86000 4.921
62.88000 6.715
62.90000 1.436
62.92000 1.663
62.94000 5.471
62.96000 2.193
62.98000 3.703
63.00000 3.830
63.02000 4.658
63.04000 5.348
63.06000 -2.032
63.08000 0.565
63.10000 1.802
63.12000 3.091
63.14000 2.852
63.16000 2.281
63.18000 3.439
63.20000 4.378
63.22000 3.612
63.24000 2.262
63.26000 2.898
63.28000 2.650
63.30000 -0.194
63.32000 0.228
63.34000 -0.005
63.36000 1.677
63.38000 1.873
63.40000 3.067
63.42000 -2.023
63.44000 -2.388
63.46000 -1.239
63.48000 2.043
63.50000 -0.535
63.52000 -0.138
63.54000 1.325
63.56000 1.872
63.58000 2.156
63.60000 1.429
63.62000 -0.858
63.64000 2.935
63.66000 2.532
63.68000 0.456
63.70000 0.433
63.72000 1.082
63.74000 1.312
63.76000 -0.202
63.78000 1.424
63.80000 1.847
63.82000 -0.739
63.84000 0.907
63.86000 1.741
63.88000 0.087
63.90000 2.091
63.92000 1.181
63.94000 1.277
63.96000 4.186
63.98000 3.487
64.00000 4.057
64.02000 4.742
64.04000 2.504
64.06000 -0.554
64.08000 1.236
64.10000 1.789
64.12000 0.665
64.14000 -1.960
64.16000 -0.320
64.18000 0.544
64.20000 -1.406
64.22000 0.221
64.24000 0.208
64.26000 0.478
64.28000 -1.295
64.30000 0.289
64.32000 -2.420
64.34000 -2.298
64.36000 -0.399
64.38000 0.974
64.40000 3.273
64.42000 1.327
64.44000 -0.745
64.46000 -0.810
64.48000 -1.491
64.50000 -0.617
64.52000 2.075
64.54000 3.090
64.56000 1.403
64.58000 0.379
64.60000 -0.964
64.62000 -1.833
64.64000 -1.630
64.66000 -2.426
64.68000 -0.640
64.70000 3.915
64.72000 0.051
64.74000 -0.563
64.76000 0.508
64.78000 3.337
64.80000 3.519
64.82000 2.175
64.84000 1.087
64.86000 5.518
64.88000 4.884
64.90000 1.053
64.92000 -0.306
64.94000 -0.652
64.96000 -0.406
64.98000 -1.876
65.00000 0.480
65.02000 2.525
65.04000 1.230
65.06000 0.855
65.08000 -0.226
65.10000 -0.008
65.12000 0.685
65.14000 -1.270
65.16000 0.058
65.18000 -0.072
65.20000 -1.407
65.22000 -0.221
65.24000 -1.068
65.26000 -0.387
65.28000 -1.235
65.30000 1.465
65.32000 2.516
65.34000 0.463
65.36000 -0.185
65.38000 -1.715
65.40000 0.778
65.42000 -0.715
65.44000 0.733
65.46000 -1.003
65.48000 -0.192
65.50000 -0.354
65.52000 -2.452
65.54000 0.252
65.56000 1.271
65.58000 -0.849
65.60000 0.923
65.62000 0.222
65.64000 -1.363
65.66000 -1.194
65.68000 -0.030
65.70000 -0.407
65.72000 3.176
65.74000 2.201
65.76000 2.597
65.78000 -1.449
65.80000 0.503
65.82000 0.257
65.84000 -2.019
65.86000 0.270
65.88000 2.435
65.90000 0.277
65.92000 1.714
65.94000 -0.033
65.96000 3.181
65.98000 3.251
66.00000 0.733
66.02000 0.745
66.04000 0.692
66.06000 -2.482
66.08000 -1.616
66.10000 -2.484
66.12000 -1.838
66.14000 0.229
66.16000 0.927
66.18000 -1.011
66.20000 1.214
66.22000 1.860
66.24000 3.214
66.26000 3.464
66.28000 3.863
66.30000 0.143
66.32000 -0.042
66.34000 0.848
66.36000 -0.103
66.38000 -0.246
66.40000 0.590
66.42000 -2.501
66.44000 -1.593
66.46000 0.348
66.48000 0.351
66.50000 0.902
66.52000 0.427
66.54000 2.919
66.56000 2.973
66.58000 3.290
66.60000 1.996
66.62000 2.300
66.64000 1.802
66.66000 -0.697
66.68000 2.731
66.70000 2.980
66.72000 1.332
66.74000 -0.685
66.76000 -2.522
66.78000 -1.356
66.80000 -1.701
66.82000 1.832
66.84000 0.753
66.86000 0.310
66.88000 3.196
66.90000 3.288
66.92000 2.640
66.94000 2.549
66.96000 2.972
66.98000 3.305
67.00000 1.754
67.02000 2.480
67.04000 2.955
67.06000 5.852
67.08000 4.170
67.10000 3.637
67.12000 0.999
67.14000 5.016
67.16000 6.843
67.18000 5.490
67.20000 4.104
67.22000 5.044
67.24000 3.560
67.26000 4.251
67.28000 6.712
67.30000 10.069
67.32000 7.742
67.34000 8.913
67.36000 9.277
67.38000 7.324
67.40000 6.647
67.42000 7.724
67.44000 11.906
67.46000 14.220
67.48000 12.511
67.50000 9.721
67.52000 5.880
67.54000 8.036
67.56000 9.797
67.58000 8.696
67.60000 8.475
67.62000 9.414
67.64000 14.225
67.66000 17.562
67.68000 15.337
67.70000 11.684
67.72000 13.242
67.74000 14.156
67.76000 18.800
67.78000 20.399
67.80000 16.764
67.82000 18.215
67.84000 20.987
67.86000 19.261
67.88000 19.335
67.90000 19.822
67.92000 23.739
67.94000 21.391
67.96000 21.713
67.98000 21.849
68.00000 19.297
68.02000 20.229
68.04000 26.383
68.06000 24.241
68.08000 22.141
68.10000 23.287
68.12000 23.799
68.14000 24.566
68.16000 24.585
68.18000 22.692
68.20000 21.527
68.22000 24.285
68.24000 27.615
68.26000 27.158
68.28000 23.382
68.30000 22.639
68.32000 25.655
68.34000 23.603
68.36000 25.458
68.38000 25.774
68.40000 26.031
68.42000 26.481
68.44000 24.039
68.46000 26.078
68.48000 26.959
68.50000 26.247
68.52000 28.889
68.54000 30.368
68.56000 28.596
68.58000 24.873
68.60000 22.299
68.62000 18.382
68.64000 19.111
68.66000 23.931
68.68000 23.731
68.70000 23.357
68.72000 19.420
68.74000 16.101
68.76000 16.982
68.78000 18.739
68.80000 17.768
68.82000 19.395
68.84000 16.851
68.86000 16.263
68.88000 16.929
68.90000 16.919
68.92000 14.537
68.94000 12.748
68.96000 13.037
68.98000 10.759
69.00000 11.169
69.02000 13.314
69.04000 12.352
69.06000 13.641
69.08000 10.946
69.10000 9.800
69.12000 10.772
69.14000 11.028
69.16000 10.565
69.18000 8.603
69.20000 6.144
69.22000 2.692
69.24000 6.331
69.26000 7.740
69.28000 4.479
69.30000 3.715
69.32000 6.646
69.34000 3.051
69.36000 4.225
69.38000 2.262
69.40000 4.441
69.42000 2.379
69.44000 0.381
69.46000 0.337
69.48000 0.138
69.50000 0.347
69.52000 1.507
69.54000 0.549
69.56000 -1.180
69.58000 -1.417
69.60000 -1.304
69.62000 0.018
69.64000 2.017
69.66000 0.828
69.68000 0.582
69.70000 -0.227
69.72000 1.015
69.74000 3.093
69.76000 5.799
69.78000 5.240
69.80000 5.141
69.82000 2.252
69.84000 -2.424
69.86000 1.079
69.88000 1.152
69.90000 0.260
69.92000 2.413
69.94000 0.765
69.96000 0.211
69.98000 0.980
70.00000 0.211
70.02000 2.056
70.04000 -2.399
70.06000 0.166
70.08000 2.318
70.10000 1.007
70.12000 1.212
70.14000 3.288
70.16000 1.469
70.18000 -0.047
70.20000 -1.062
70.22000 0.550
70.24000 2.246
70.26000 1.174
70.28000 -1.895
70.30000 -0.435
70.32000 -0.372
70.34000 0.700
70.36000 -2.317
70.38000 -1.429
70.40000 1.762
70.42000 4.608
70.44000 2.734
70.46000 0.463
70.48000 0.584
70.50000 1.145
70.52000 -2.348
70.54000 -0.465
70.56000 -0.005
70.58000 3.143
70.60000 2.484
70.62000 1.685
70.64000 1.740
70.66000 0.648
70.68000 -0.406
70.70000 2.153
70.72000 5.046
70.74000 6.926
70.76000 2.952
70.78000 3.291
70.80000 3.171
70.82000 1.292
70.84000 0.835
70.86000 1.507
70.88000 2.394
70.90000 0.227
70.92000 -2.316
70.94000 2.996
70.96000 0.330
70.98000 1.818
71.00000 1.769
71.02000 1.684
71.04000 1.166
71.06000 1.765
71.08000 4.396
71.10000 3.071
71.12000 1.946
71.14000 5.159
71.16000 4.304
71.18000 3.796
71.20000 3.282
71.22000 3.433
71.24000 0.424
71.26000 1.460
71.28000 -0.590
71.30000 0.345
71.32000 2.275
71.34000 2.144
71.36000 -1.438
71.38000 0.945
71.40000 3.940
71.42000 -1.096
71.44000 0.239
71.46000 3.122
71.48000 3.995
71.50000 -2.279
71.52000 -1.192
71.54000 0.401
71.56000 0.028
71.58000 -0.672
71.60000 0.471
71.62000 2.162
71.64000 3.028
71.66000 2.277
71.68000 -0.900
71.70000 0.609
71.72000 4.136
71.74000 1.734
71.76000 3.508
71.78000 6.938
71.80000 3.236
71.82000 3.720
71.84000 5.328
71.86000 5.484
71.88000 6.542
71.90000 6.924
71.92000 3.433
71.94000 0.931
71.96000 -0.742
71.98000 1.755
72.00000 5.856
72.02000 4.372
72.04000 -2.249
72.06000 -1.351
72.08000 1.321
72.10000 2.814
72.12000 1.239
72.14000 2.003
72.16000 4.778
72.18000 0.728
72.20000 0.552
72.22000 -0.987
72.24000 1.190
72.26000 2.367
72.28000 4.463
72.30000 3.688
72.32000 4.055
72.34000 3.372
72.36000 3.755
72.38000 4.082
72.40000 -1.100
72.42000 -2.040
72.44000 -2.262
72.46000 0.936
72.48000 4.659
72.50000 3.004
72.52000 -0.001
72.54000 2.233
72.56000 0.841
72.58000 -2.100
72.60000 -1.856
72.62000 -0.569
72.64000 -0.875
72.66000 -1.776
72.68000 2.426
72.70000 2.842
72.72000 1.861
72.74000 3.200
72.76000 2.416
72.78000 4.071
72.80000 1.555
72.82000 4.471
72.84000 -1.259
72.86000 -1.026
72.88000 -1.629
72.90000 -1.157
72.92000 1.360
72.94000 0.257
72.96000 0.845
72.98000 5.053
73.00000 2.184
73.02000 3.924
73.04000 1.191
73.06000 0.138
73.08000 1.334
73.10000 3.360
73.12000 3.026
73.14000 1.922
73.16000 2.931
73.18000 3.208
73.20000 3.524
73.22000 3.503
73.24000 2.930
73.26000 5.215
73.28000 2.965
73.30000 5.050
73.32000 2.397
73.34000 -2.113
73.36000 -1.208
73.38000 0.466
73.40000 0.295
73.42000 -1.094
73.44000 2.242
73.46000 0.552
73.48000 2.110
73.50000 -0.282
73.52000 3.611
73.54000 3.148
73.56000 -1.314
73.58000 -1.936
73.60000 -0.480
73.62000 0.970
73.64000 6.239
73.66000 7.115
73.68000 5.629
73.70000 3.307
73.72000 0.348
73.74000 2.007
73.76000 -0.461
73.78000 -2.231
73.80000 0.538
73.82000 0.832
73.84000 2.047
73.86000 1.702
73.88000 5.295
73.90000 4.222
73.92000 3.229
73.94000 2.133
73.96000 4.450
73.98000 2.151
74.00000 1.446
74.02000 4.859
74.04000 4.359
74.06000 2.083
74.08000 4.980
74.10000 1.177
74.12000 -1.547
74.14000 -2.213
74.16000 -0.055
74.18000 3.865
74.20000 5.071
74.22000 4.737
74.24000 1.948
74.26000 -0.761
74.28000 2.907
74.30000 2.332
74.32000 2.908
74.34000 1.733
74.36000 -0.770
74.38000 3.135
74.40000 1.205
74.42000 1.659
74.44000 1.509
74.46000 1.619
74.48000 2.537
74.50000 0.844
74.52000 4.499
74.54000 2.041
74.56000 1.682
74.58000 0.354
74.60000 1.360
74.62000 4.269
74.64000 4.398
74.66000 4.806
74.68000 3.036
74.70000 0.616
74.72000 0.019
74.74000 0.620
74.76000 2.888
74.78000 1.598
74.80000 0.697
74.82000 -0.306
74.84000 -1.523
74.86000 -1.804
74.88000 1.050
74.90000 3.829
74.92000 7.950
74.94000 7.889
74.96000 3.377
74.98000 3.332
75.00000 5.693
75.02000 5.544
75.04000 0.206
75.06000 -1.458
75.08000 2.452
75.10000 3.515
75.12000 0.418
75.14000 4.776
75.16000 4.333
75.18000 2.672
75.20000 2.517
75.22000 2.290
75.24000 4.687
75.26000 4.428
75.28000 4.264
75.30000 6.853
75.32000 2.464
75.34000 -2.193
75.36000 -0.497
75.38000 -0.086
75.40000 4.947
75.42000 6.046
75.44000 7.772
75.46000 5.096
75.48000 2.847
75.50000 4.433
75.52000 2.204
75.54000 0.106
75.56000 0.248
75.58000 -0.261
75.60000 2.906
75.62000 4.014
75.64000 -0.302
75.66000 0.361
75.68000 2.798
75.70000 6.605
75.72000 6.095
75.74000 4.248
75.76000 0.035
75.78000 -0.462
75.80000 1.115
75.82000 2.355
75.84000 8.123
75.86000 11.202
75.88000 7.600
75.90000 3.964
75.92000 1.824
75.94000 2.617
75.96000 3.660
75.98000 3.175
76.00000 4.169
76.02000 1.855
76.04000 -0.061
76.06000 2.089
76.08000 2.396
76.10000 0.256
76.12000 5.967
76.14000 6.912
76.16000 5.572
76.18000 9.532
76.20000 5.419
76.22000 3.008
76.24000 4.621
76.26000 6.207
76.28000 2.191
76.30000 1.109
76.32000 2.187
76.34000 3.916
76.36000 3.378
76.38000 4.080
76.40000 4.845
76.42000 2.892
76.44000 2.057
76.46000 1.429
76.48000 3.525
76.50000 4.356
76.52000 6.109
76.54000 7.408
76.56000 2.510
76.58000 0.423
76.60000 4.622
76.62000 7.329
76.64000 4.492
76.66000 0.663
76.68000 3.107
76.70000 2.311
76.72000 3.717
76.74000 4.111
76.76000 7.295
76.78000 5.862
76.80000 6.263
76.82000 5.853
76.84000 10.726
76.86000 7.139
76.88000 -1.240
76.90000 -2.187
76.92000 3.681
76.94000 7.657
76.96000 3.434
76.98000 2.596
77.00000 1.002
77.02000 3.059
77.04000 5.028
77.06000 5.073
77.08000 5.768
77.10000 6.094
77.12000 3.987
77.14000 2.724
77.16000 3.838
77.18000 9.504
77.20000 6.314
77.22000 6.080
77.24000 5.558
77.26000 5.408
77.28000 6.832
77.30000 7.269
77.32000 2.723
77.34000 4.696
77.36000 4.254
77.38000 3.953
77.40000 6.429
77.42000 3.051
77.44000 4.802
77.46000 5.113
77.48000 3.971
77.50000 2.991
77.52000 5.207
77.54000 5.952
77.56000 5.664
77.58000 6.783
77.60000 7.006
77.62000 7.445
77.64000 2.611
77.66000 2.411
77.68000 4.210
77.70000 6.865
77.72000 4.446
77.74000 -2.204
77.76000 1.137
77.78000 2.661
77.80000 3.307
77.82000 7.481
77.84000 10.202
77.86000 7.807
77.88000 7.902
77.90000 3.211
77.92000 -0.083
77.94000 -0.193
77.96000 2.457
77.98000 4.406
78.00000 5.149
78.02000 3.157
78.04000 6.566
78.06000 7.847
78.08000 3.029
78.10000 3.544
78.12000 1.681
78.14000 2.784
78.16000 1.228
78.18000 1.756
78.20000 -1.085
78.22000 -2.231
78.24000 2.165
78.26000 1.894
78.28000 0.820
78.30000 1.807
78.32000 3.712
78.34000 3.869
78.36000 2.735
78.38000 1.944
78.40000 3.835
78.42000 4.281
78.44000 1.708
78.46000 -0.858
78.48000 -0.683
78.50000 1.457
78.52000 -1.107
78.54000 -1.690
78.56000 0.596
78.58000 3.429
78.60000 2.418
78.62000 1.689
78.64000 2.507
78.66000 0.573
78.68000 2.122
78.70000 0.435
78.72000 4.582
78.74000 6.244
78.76000 5.649
78.78000 4.026
78.80000 0.506
78.82000 -1.185
78.84000 1.692
78.86000 5.445
78.88000 5.596
78.90000 3.401
78.92000 3.862
78.94000 2.383
78.96000 2.600
78.98000 -1.251
79.00000 0.747
79.02000 1.124
79.04000 0.135
79.06000 3.351
79.08000 2.437
79.10000 4.905
79.12000 -2.291
79.14000 0.441
79.16000 0.685
79.18000 2.480
79.20000 2.701
79.22000 0.770
79.24000 0.176
79.26000 1.435
79.28000 2.239
79.30000 3.698
79.32000 2.599
79.34000 -1.206
79.36000 0.946
79.38000 7.092
79.40000 3.945
79.42000 1.204
79.44000 -1.169
79.46000 3.441
79.48000 8.466
79.50000 6.922
79.52000 6.060
79.54000 2.565
79.56000 3.464
79.58000 3.326
79.60000 3.463
79.62000 2.741
79.64000 1.802
79.66000 -2.318
79.68000 1.455
79.70000 3.500
79.72000 2.914
79.74000 3.151
79.76000 2.379
79.78000 2.553
79.80000 5.281
79.82000 4.835
79.84000 7.962
79.86000 2.436
79.88000 0.501
79.90000 1.821
79.92000 0.003
79.94000 1.171
79.96000 2.335
79.98000 6.412
80.00000 5.927
80.02000 5.343
80.04000 3.014
80.06000 0.815
80.08000 -0.972
80.10000 1.974
80.12000 0.992
80.14000 0.321
80.16000 0.816
80.18000 1.219
80.20000 -2.394
80.22000 0.327
80.24000 4.469
80.26000 5.722
80.28000 7.928
80.30000 0.709
80.32000 3.804
80.34000 8.096
80.36000 5.397
80.38000 4.838
80.40000 3.637
80.42000 -0.065
80.44000 0.525
80.46000 1.746
80.48000 0.478
80.50000 0.468
80.52000 -0.891
80.54000 -1.506
80.56000 -0.440
80.58000 0.042
80.60000 1.874
80.62000 1.343
80.64000 3.935
80.66000 6.553
80.68000 5.124
80.70000 2.879
80.72000 1.743
80.74000 2.513
80.76000 1.205
80.78000 1.677
80.80000 4.074
80.82000 3.849
80.84000 1.746
80.86000 3.676
80.88000 3.153
80.90000 4.096
80.92000 5.519
80.94000 9.728
80.96000 4.116
80.98000 1.758
81.00000 3.102
81.02000 4.866
81.04000 8.195
81.06000 4.581
81.08000 4.066
81.10000 5.304
81.12000 10.280
81.14000 5.751
81.16000 7.598
81.18000 10.862
81.20000 8.739
81.22000 7.327
81.24000 6.483
81.26000 10.612
81.28000 12.361
81.30000 7.448
81.32000 8.324
81.34000 15.974
81.36000 13.645
81.38000 12.853
81.40000 7.990
81.42000 7.662
81.44000 8.571
81.46000 8.927
81.48000 12.195
81.50000 13.775
81.52000 11.027
81.54000 13.297
81.56000 15.153
81.58000 12.122
81.60000 11.133
81.62000 13.258
81.64000 16.262
81.66000 18.980
81.68000 19.892
81.70000 16.196
81.72000 14.946
81.74000 12.100
81.76000 16.185
81.78000 20.438
81.80000 19.935
81.82000 18.112
81.84000 18.093
81.86000 17.753
81.88000 15.814
81.90000 16.841
81.92000 20.897
81.94000 22.719
81.96000 20.267
81.98000 17.939
82.00000 18.740
82.02000 22.959
82.04000 24.912
82.06000 24.524
82.08000 30.669
82.10000 28.667
82.12000 26.744
82.14000 30.149
82.16000 33.343
82.18000 30.862
82.20000 26.469
82.22000 26.702
82.24000 29.908
82.26000 31.803
82.28000 29.136
82.30000 28.610
82.32000 28.182
82.34000 32.524
82.36000 29.779
82.38000 31.232
82.40000 31.704
82.42000 29.086
82.44000 32.698
82.46000 32.666
82.48000 32.792
82.50000 32.560
82.52000 32.847
82.54000 31.222
82.56000 32.568
82.58000 31.495
82.60000 33.078
82.62000 33.186
82.64000 31.496
82.66000 30.503
82.68000 30.864
82.70000 30.511
82.72000 29.279
82.74000 26.749
82.76000 30.377
82.78000 25.836
82.80000 23.208
82.82000 28.031
82.84000 29.727
82.86000 28.479
82.88000 29.709
82.90000 25.517
82.92000 18.153
82.94000 17.774
82.96000 23.309
82.98000 24.403
83.00000 22.874
83.02000 21.601
83.04000 21.968
83.06000 20.576
83.08000 17.488
83.10000 16.744
83.12000 14.943
83.14000 15.608
83.16000 20.729
83.18000 23.353
83.20000 24.411
83.22000 22.640
83.24000 18.651
83.26000 18.850
83.28000 19.894
83.30000 15.442
83.32000 9.587
83.34000 12.543
83.36000 17.517
83.38000 15.460
83.40000 11.165
83.42000 12.266
83.44000 14.520
83.46000 11.924
83.48000 9.222
83.50000 9.150
83.52000 11.184
83.54000 9.819
83.56000 7.995
83.58000 9.303
83.60000 7.732
83.62000 7.950
83.64000 13.599
83.66000 8.767
83.68000 8.870
83.70000 7.084
83.72000 4.795
83.74000 6.831
83.76000 3.363
83.78000 2.563
83.80000 4.032
83.82000 5.801
83.84000 6.417
83.86000 6.906
83.88000 4.390
83.90000 7.085
83.92000 5.182
83.94000 2.235
83.96000 0.108
83.98000 -2.410
84.00000 0.678
84.02000 2.663
84.04000 5.933
84.06000 6.841
84.08000 6.724
84.10000 -2.203
84.12000 -0.862
84.14000 1.385
84.16000 2.321
84.18000 3.708
84.20000 2.840
84.22000 2.490
84.24000 6.473
84.26000 4.192
84.28000 -2.369
84.30000 -1.842
84.32000 4.310
84.34000 1.343
84.36000 0.727
84.38000 5.430
84.40000 6.922
84.42000 8.088
84.44000 6.703
84.46000 2.930
84.48000 1.699
84.50000 2.303
84.52000 2.301
84.54000 1.857
84.56000 1.645
84.58000 5.432
84.60000 6.574
84.62000 3.151
84.64000 2.436
84.66000 1.808
84.68000 1.477
84.70000 3.236
84.72000 2.986
84.74000 -1.321
84.76000 -2.298
84.78000 1.168
84.80000 -0.309
84.82000 4.545
84.84000 5.621
84.86000 7.886
84.88000 8.727
84.90000 6.536
84.92000 7.842
84.94000 7.356
84.96000 5.178
84.98000 4.293
85.00000 6.709
85.02000 5.329
85.04000 2.511
85.06000 -2.317
85.08000 3.106
85.10000 4.729
85.12000 0.481
85.14000 -1.122
85.16000 -0.077
85.18000 -1.683
85.20000 1.978
85.22000 1.041
85.24000 3.225
85.26000 3.321
85.28000 2.688
85.30000 1.649
85.32000 1.823
85.34000 4.356
85.36000 -0.624
85.38000 -1.667
85.40000 3.942
85.42000 5.405
85.44000 3.818
85.46000 2.443
85.48000 -0.152
85.50000 2.770
85.52000 3.071
85.54000 1.050
85.56000 4.319
85.58000 0.734
85.60000 2.778
85.62000 8.857
85.64000 8.198
85.66000 7.739
85.68000 5.648
85.70000 1.490
85.72000 5.890
85.74000 3.882
85.76000 2.313
85.78000 2.867
85.80000 3.972
85.82000 5.070
85.84000 7.088
85.86000 9.107
85.88000 11.259
85.90000 7.430
85.92000 5.950
85.94000 9.161
85.96000 8.725
85.98000 7.612
86.00000 8.161
86.02000 11.561
86.04000 11.609
86.06000 12.112
86.08000 14.434
86.10000 12.348
86.12000 10.013
86.14000 12.220
86.16000 12.208
86.18000 8.930
86.20000 6.501
86.22000 9.255
86.24000 11.321
86.26000 14.393
86.28000 11.938
86.30000 14.160
86.32000 19.049
86.34000 17.160
86.36000 15.271
86.38000 14.733
86.40000 17.748
86.42000 21.954
86.44000 20.056
86.46000 24.551
86.48000 24.481
86.50000 18.502
86.52000 20.845
86.54000 17.585
86.56000 16.625
86.58000 18.100
86.60000 18.325
86.62000 14.527
86.64000 14.814
86.66000 17.492
86.68000 19.295
86.70000 20.057
86.72000 20.413
86.74000 24.023
86.76000 24.575
86.78000 24.296
86.80000 24.144
86.82000 20.913
86.84000 17.907
86.86000 17.812
86.88000 22.694
86.90000 22.370
86.92000 20.577
86.94000 17.659
86.96000 16.098
86.98000 20.309
87.00000 16.647
87.02000 16.786
87.04000 13.739
87.06000 17.374
87.08000 16.016
87.10000 15.041
87.12000 16.257
87.14000 12.758
87.16000 10.313
87.18000 13.845
87.20000 12.273
87.22000 11.822
87.24000 7.107
87.26000 6.759
87.28000 12.368
87.30000 7.854
87.32000 8.571
87.34000 11.451
87.36000 19.586
87.38000 15.689
87.40000 11.039
87.42000 9.297
87.44000 9.943
87.46000 12.301
87.48000 7.906
87.50000 14.815
87.52000 13.525
87.54000 9.129
87.56000 8.651
87.58000 9.461
87.60000 5.703
87.62000 3.162
87.64000 10.151
87.66000 12.255
87.68000 8.272
87.70000 7.268
87.72000 7.252
87.74000 4.994
87.76000 5.102
87.78000 3.313
87.80000 3.411
87.82000 5.420
87.84000 9.212
87.86000 8.318
87.88000 8.035
87.90000 5.970
87.92000 6.218
87.94000 6.460
87.96000 4.382
87.98000 4.583
88.00000 3.463
88.02000 3.939
88.04000 1.239
88.06000 -2.206
88.08000 -2.048
88.10000 2.534
88.12000 5.255
88.14000 4.634
88.16000 3.348
88.18000 0.387
88.20000 1.169
88.22000 2.433
88.24000 4.605
88.26000 3.888
88.28000 2.254
88.30000 2.504
88.32000 0.910
88.34000 -1.149
88.36000 -0.380
88.38000 -2.174
88.40000 -0.512
88.42000 -0.030
88.44000 2.660
88.46000 2.118
88.48000 0.710
88.50000 2.935
88.52000 1.547
88.54000 3.400
88.56000 3.384
88.58000 3.380
88.60000 3.581
88.62000 5.321
88.64000 7.486
88.66000 6.555
88.68000 4.783
88.70000 0.224
88.72000 2.820
88.74000 2.446
88.76000 3.838
88.78000 -0.523
88.80000 -1.130
88.82000 2.209
88.84000 4.078
88.86000 2.442
88.88000 2.100
88.90000 1.178
88.92000 0.590
88.94000 3.212
88.96000 2.676
88.98000 1.285
89.00000 0.751
89.02000 -0.902
89.04000 -1.700
89.06000 4.624
89.08000 4.719
89.10000 3.124
89.12000 0.130
89.14000 -0.037
89.16000 -0.975
89.18000 -1.067
89.20000 -0.434
89.22000 -0.560
89.24000 0.699
89.26000 2.054
89.28000 2.181
89.30000 0.585
89.32000 0.109
89.34000 5.964
89.36000 4.832
89.38000 1.687
89.40000 -0.214
89.42000 1.345
89.44000 0.292
89.46000 2.786
89.48000 4.687
89.50000 4.414
89.52000 0.834
89.54000 3.243
89.56000 0.933
89.58000 3.308
89.60000 2.913
89.62000 3.869
89.64000 2.206
89.66000 1.296
89.68000 2.974
89.70000 8.662
89.72000 9.692
89.74000 8.451
89.76000 8.456
89.78000 5.271
89.80000 6.249
89.82000 3.687
89.84000 8.436
89.86000 9.965
89.88000 5.026
89.90000 -2.063
89.92000 1.047
89.94000 3.317
89.96000 2.858
89.98000 2.656
90.00000 3.318
90.02000 3.704
90.04000 3.200
90.06000 4.764
90.08000 8.279
90.10000 7.015
90.12000 8.434
90.14000 6.756
90.16000 2.048
90.18000 1.538
90.20000 3.141
90.22000 5.784
90.24000 4.124
90.26000 1.764
90.28000 4.838
90.30000 5.798
90.32000 2.235
90.34000 3.915
90.36000 -0.744
90.38000 2.806
90.40000 4.167
90.42000 4.192
90.44000 3.635
90.46000 4.552
90.48000 5.989
90.50000 5.076
90.52000 2.953
90.54000 -0.233
90.56000 0.449
90.58000 4.798
90.60000 5.788
90.62000 2.187
90.64000 4.490
90.66000 1.262
90.68000 2.197
90.70000 3.246
90.72000 5.082
90.74000 4.862
90.76000 2.890
90.78000 4.112
90.80000 3.406
90.82000 4.955
90.84000 7.301
90.86000 7.750
90.88000 7.055
90.90000 3.877
90.92000 3.478
90.94000 2.693
90.96000 0.846
90.98000 3.209
91.00000 2.559
91.02000 6.823
91.04000 4.288
91.06000 3.454
91.08000 6.150
91.10000 4.229
91.12000 1.687
91.14000 6.430
91.16000 6.097
91.18000 0.349
91.20000 1.577
91.22000 1.250
91.24000 3.830
91.26000 6.515
91.28000 7.280
91.30000 7.415
91.32000 4.598
91.34000 3.252
91.36000 -1.199
91.38000 -1.981
91.40000 -0.391
91.42000 -0.445
91.44000 1.329
91.46000 1.736
91.48000 4.442
91.50000 3.092
91.52000 -2.074
91.54000 1.421
91.56000 4.452
91.58000 4.452
91.60000 4.224
91.62000 1.392
91.64000 4.181
91.66000 6.206
91.68000 7.212
91.70000 4.837
91.72000 5.029
91.74000 1.167
91.76000 -0.637
91.78000 0.898
91.80000 7.287
91.82000 8.593
91.84000 1.264
91.86000 -2.084
91.88000 1.876
91.90000 4.976
91.92000 4.441
91.94000 0.610
91.96000 1.051
91.98000 2.811
92.00000 5.792
92.02000 5.315
92.04000 1.424
92.06000 3.371
92.08000 0.280
92.10000 2.430
92.12000 4.651
92.14000 2.294
92.16000 2.876
92.18000 4.421
92.20000 3.895
92.22000 4.329
92.24000 2.044
92.26000 0.859
92.28000 -0.008
92.30000 1.771
92.32000 5.032
92.34000 5.477
92.36000 5.993
92.38000 5.301
92.40000 0.763
92.42000 2.334
92.44000 3.611
92.46000 -0.392
92.48000 -2.121
92.50000 0.235
92.52000 3.041
92.54000 3.612
92.56000 1.892
92.58000 -1.540
92.60000 0.340
92.62000 2.591
92.64000 2.530
92.66000 2.784
92.68000 2.177
92.70000 0.423
92.72000 -0.085
92.74000 -0.146
92.76000 -1.205
92.78000 2.793
92.80000 4.593
92.82000 2.364
92.84000 1.983
92.86000 6.619
92.88000 4.765
92.90000 -0.028
92.92000 -1.684
92.94000 -1.770
92.96000 4.425
92.98000 4.790
93.00000 -0.274
93.02000 0.346
93.04000 0.859
93.06000 0.100
93.08000 0.235
93.10000 0.111
93.12000 -2.114
93.14000 1.102
93.16000 2.952
93.18000 5.552
93.20000 -0.295
93.22000 3.386
93.24000 4.895
93.26000 4.256
93.28000 2.376
93.30000 -0.150
93.32000 3.344
93.34000 6.539
93.36000 3.789
93.38000 3.829
93.40000 3.011
93.42000 5.349
93.44000 3.414
93.46000 1.324
93.48000 1.147
93.50000 1.530
93.52000 1.906
93.54000 1.030
93.56000 0.712
93.58000 -0.627
93.60000 2.201
93.62000 5.026
93.64000 -1.106
93.66000 -0.738
93.68000 1.786
93.70000 1.779
93.72000 0.212
93.74000 2.226
93.76000 2.330
93.78000 1.656
93.80000 2.623
93.82000 2.908
93.84000 3.583
93.86000 1.743
93.88000 0.304
93.90000 3.168
93.92000 3.129
93.94000 2.984
93.96000 2.905
93.98000 -1.570
94.00000 1.424
94.02000 1.552
94.04000 -0.734
94.06000 0.073
94.08000 0.169
94.10000 0.207
94.12000 0.971
94.14000 2.653
94.16000 2.655
94.18000 2.756
94.20000 4.041
94.22000 6.696
94.24000 4.660
94.26000 -1.735
94.28000 -0.798
94.30000 -1.790
94.32000 -2.124
94.34000 -0.003
94.36000 4.097
94.38000 0.765
94.40000 1.848
94.42000 1.797
94.44000 6.588
94.46000 7.499
94.48000 6.279
94.50000 6.363
94.52000 2.491
94.54000 0.546
94.56000 2.742
94.58000 -0.241
94.60000 0.483
94.62000 3.323
94.64000 11.084
94.66000 3.287
94.68000 1.538
94.70000 1.508
94.72000 1.297
94.74000 4.671
94.76000 3.193
94.78000 -1.197
94.80000 6.874
94.82000 6.326
94.84000 1.808
94.86000 0.500
94.88000 3.552
94.90000 1.269
94.92000 -0.020
94.94000 4.391
94.96000 4.946
94.98000 5.068
95.00000 2.491
95.02000 -2.131
95.04000 -1.856
95.06000 2.509
95.08000 6.512
95.10000 1.530
95.12000 0.584
95.14000 1.691
95.16000 6.692
95.18000 2.207
95.20000 1.192
95.22000 4.747
95.24000 1.699
95.26000 2.356
95.28000 0.705
95.30000 -0.716
95.32000 -0.741
95.34000 1.733
95.36000 7.315
95.38000 5.240
95.40000 5.915
95.42000 7.997
95.44000 7.316
95.46000 4.205
95.48000 6.776
95.50000 5.621
95.52000 4.358
95.54000 3.589
95.56000 0.928
95.58000 -0.464
95.60000 5.151
95.62000 5.932
95.64000 0.621
95.66000 2.557
95.68000 5.261
95.70000 8.772
95.72000 8.239
95.74000 3.194
95.76000 6.476
95.78000 6.150
95.80000 2.963
95.82000 9.178
95.84000 8.712
95.86000 3.908
95.88000 1.911
95.90000 -0.676
95.92000 1.016
95.94000 2.770
95.96000 2.487
95.98000 -2.124
96.00000 2.164
96.02000 1.440
96.04000 0.286
96.06000 1.939
96.08000 -1.521
96.10000 -0.255
96.12000 7.151
96.14000 10.457
96.16000 6.771
96.18000 7.178
96.20000 7.494
96.22000 5.012
96.24000 4.294
96.26000 1.184
96.28000 0.263
96.30000 3.762
96.32000 2.266
96.34000 5.776
96.36000 3.648
96.38000 4.436
96.40000 7.417
96.42000 4.227
96.44000 3.469
96.46000 -0.080
96.48000 3.736
96.50000 2.729
96.52000 2.066
96.54000 3.694
96.56000 5.337
96.58000 5.378
96.60000 4.981
96.62000 5.715
96.64000 7.451
96.66000 5.765
96.68000 5.341
96.70000 2.956
96.72000 3.837
96.74000 5.041
96.76000 5.044
96.78000 1.812
96.80000 6.114
96.82000 5.950
96.84000 5.323
96.86000 2.201
96.88000 5.545
96.90000 10.005
96.92000 6.911
96.94000 1.244
96.96000 0.490
96.98000 4.956
97.00000 7.278
97.02000 4.046
97.04000 5.943
97.06000 10.934
97.08000 12.167
97.10000 7.188
97.12000 5.884
97.14000 -0.077
97.16000 0.635
97.18000 5.043
97.20000 10.528
97.22000 10.299
97.24000 7.888
97.26000 9.045
97.28000 3.568
97.30000 10.133
97.32000 4.638
97.34000 4.842
97.36000 4.973
97.38000 6.454
97.40000 7.795
97.42000 13.301
97.44000 12.336
97.46000 5.749
97.48000 8.750
97.50000 5.001
97.52000 9.667
97.54000 10.208
97.56000 5.886
97.58000 -2.250
97.60000 4.570
97.62000 8.347
97.64000 5.431
97.66000 1.233
97.68000 8.152
97.70000 13.234
97.72000 8.836
97.74000 4.381
97.76000 6.362
97.78000 4.791
97.80000 4.893
97.82000 6.619
97.84000 7.359
97.86000 8.471
97.88000 3.274
97.90000 1.805
97.92000 5.503
97.94000 4.785
97.96000 6.144
97.98000 7.076
98.00000 6.261
98.02000 5.719
98.04000 2.874
98.06000 6.303
98.08000 7.955
98.10000 11.679
98.12000 0.118
98.14000 1.772
98.16000 10.981
98.18000 9.611
98.20000 5.607
98.22000 7.622
98.24000 9.607
98.26000 8.880
98.28000 7.275
98.30000 5.203
98.32000 8.390
98.34000 6.212
98.36000 7.213
98.38000 2.899
98.40000 9.169
98.42000 8.029
98.44000 3.636
98.46000 3.600
98.48000 1.488
98.50000 9.725
98.52000 6.978
98.54000 3.921
98.56000 1.017
98.58000 0.290
98.60000 5.126
98.62000 9.706
98.64000 5.914
98.66000 1.417
98.68000 3.878
98.70000 10.480
98.72000 7.970
98.74000 -0.551
98.76000 3.463
98.78000 6.615
98.80000 12.218
98.82000 5.636
98.84000 5.707
98.86000 8.032
98.88000 15.376
98.90000 10.867
98.92000 8.855
98.94000 9.736
98.96000 5.919
98.98000 0.748
99.00000 -2.010
99.02000 3.607
99.04000 10.130
99.06000 3.966
99.08000 6.811
99.10000 7.471
99.12000 -0.277
99.14000 0.537
99.16000 -1.883
99.18000 4.200
99.20000 10.223
99.22000 10.852
99.24000 12.211
99.26000 11.507
99.28000 9.395
99.30000 8.683
99.32000 4.979
99.34000 1.859
99.36000 6.151
99.38000 5.887
99.40000 -3.938
99.42000 5.191
99.44000 2.355
99.46000 7.988
99.48000 16.781
99.50000 12.767
99.52000 4.751
99.54000 4.983
99.56000 10.823
99.58000 7.805
99.60000 8.233
99.62000 8.166
99.64000 2.905
99.66000 5.318
99.68000 2.399
99.70000 0.857
99.72000 6.611
99.74000 8.608
99.76000 9.734
99.78000 7.141
99.80000 11.906
99.82000 8.474
99.84000 8.896
99.86000 5.431
99.88000 -2.049
99.90000 0.502
99.92000 7.720
99.94000 13.692
99.96000 11.759
99.98000 0.000
