'Id: "0011387" Comment: "Integrate frame 0011387_Au-Ir-Rh_Rh-rich_XRD-Mapping-064-0000.gfrmwith cursor Wedge Cursor #5" Operator: "B?rgel" Anode: "Cu" Wavelength: "1.5406" Scantype: "2Theta (TwoTheta)" TimePerStep: "1" X: "-4.5" Y: "-22.5" Z: "5.95" 
10.00000 0.000
10.02000 0.361
10.04000 0.884
10.06000 19.494
10.08000 23.661
10.10000 24.417
10.12000 16.365
10.14000 7.463
10.16000 9.822
10.18000 16.695
10.20000 20.360
10.22000 -4.219
10.24000 -1.278
10.26000 16.620
10.28000 17.722
10.30000 22.273
10.32000 22.394
10.34000 6.915
10.36000 3.557
10.38000 14.866
10.40000 7.867
10.42000 7.414
10.44000 13.566
10.46000 11.666
10.48000 15.105
10.50000 8.854
10.52000 8.541
10.54000 9.579
10.56000 11.046
10.58000 30.675
10.60000 26.808
10.62000 26.197
10.64000 21.656
10.66000 11.031
10.68000 6.439
10.70000 12.348
10.72000 19.507
10.74000 23.760
10.76000 7.232
10.78000 -1.271
10.80000 19.881
10.82000 16.758
10.84000 1.511
10.86000 2.617
10.88000 7.742
10.90000 8.716
10.92000 8.755
10.94000 6.993
10.96000 24.314
10.98000 20.491
11.00000 18.293
11.02000 21.527
11.04000 18.209
11.06000 15.667
11.08000 15.205
11.10000 11.425
11.12000 6.019
11.14000 10.326
11.16000 11.895
11.18000 10.467
11.20000 18.123
11.22000 15.509
11.24000 23.693
11.26000 16.472
11.28000 18.999
11.30000 5.177
11.32000 10.656
11.34000 10.239
11.36000 17.032
11.38000 12.220
11.40000 9.937
11.42000 5.625
11.44000 1.876
11.46000 7.236
11.48000 -2.561
11.50000 -4.348
11.52000 -2.062
11.54000 0.688
11.56000 8.822
11.58000 13.198
11.60000 13.516
11.62000 15.865
11.64000 16.573
11.66000 13.218
11.68000 10.695
11.70000 6.195
11.72000 16.434
11.74000 12.387
11.76000 -1.378
11.78000 0.472
11.80000 -2.174
11.82000 6.770
11.84000 2.034
11.86000 1.127
11.88000 0.901
11.90000 5.402
11.92000 8.614
11.94000 11.907
11.96000 9.969
11.98000 21.509
12.00000 8.046
12.02000 10.055
12.04000 17.228
12.06000 18.703
12.08000 15.653
12.10000 22.625
12.12000 25.665
12.14000 16.944
12.16000 8.046
12.18000 11.276
12.20000 15.173
12.22000 13.466
12.24000 6.488
12.26000 -1.562
12.28000 7.134
12.30000 5.019
12.32000 14.259
12.34000 14.299
12.36000 13.533
12.38000 16.774
12.40000 13.543
12.42000 6.754
12.44000 8.861
12.46000 8.522
12.48000 20.134
12.50000 11.193
12.52000 14.811
12.54000 18.411
12.56000 17.049
12.58000 10.914
12.60000 13.970
12.62000 12.021
12.64000 12.545
12.66000 15.933
12.68000 9.283
12.70000 13.810
12.72000 13.249
12.74000 12.867
12.76000 7.875
12.78000 8.603
12.80000 3.677
12.82000 17.355
12.84000 18.573
12.86000 7.468
12.88000 5.544
12.90000 8.583
12.92000 14.187
12.94000 14.379
12.96000 6.695
12.98000 21.088
13.00000 16.155
13.02000 11.861
13.04000 9.045
13.06000 4.051
13.08000 4.250
13.10000 11.003
13.12000 10.405
13.14000 15.294
13.16000 13.789
13.18000 14.071
13.20000 13.500
13.22000 20.832
13.24000 26.062
13.26000 18.792
13.28000 13.017
13.30000 11.801
13.32000 10.677
13.34000 16.094
13.36000 8.871
13.38000 11.617
13.40000 10.907
13.42000 8.750
13.44000 1.214
13.46000 -1.038
13.48000 5.375
13.50000 13.650
13.52000 16.862
13.54000 12.290
13.56000 4.573
13.58000 3.424
13.60000 9.545
13.62000 16.688
13.64000 17.241
13.66000 13.880
13.68000 16.715
13.70000 9.325
13.72000 11.370
13.74000 13.408
13.76000 14.681
13.78000 13.968
13.80000 -3.494
13.82000 9.563
13.84000 13.672
13.86000 5.214
13.88000 13.002
13.90000 19.015
13.92000 12.630
13.94000 13.355
13.96000 13.376
13.98000 5.315
14.00000 -4.431
14.02000 9.316
14.04000 15.465
14.06000 18.234
14.08000 8.356
14.10000 8.679
14.12000 10.579
14.14000 12.493
14.16000 11.125
14.18000 15.072
14.20000 19.672
14.22000 7.314
14.24000 6.525
14.26000 1.900
14.28000 3.483
14.30000 13.360
14.32000 9.479
14.34000 5.630
14.36000 7.840
14.38000 7.296
14.40000 13.455
14.42000 6.693
14.44000 -3.869
14.46000 -4.424
14.48000 1.449
14.50000 6.998
14.52000 12.808
14.54000 7.859
14.56000 11.729
14.58000 12.499
14.60000 10.186
14.62000 7.432
14.64000 8.063
14.66000 14.815
14.68000 15.861
14.70000 8.024
14.72000 7.238
14.74000 7.521
14.76000 4.364
14.78000 8.594
14.80000 8.950
14.82000 6.214
14.84000 6.456
14.86000 7.779
14.88000 7.866
14.90000 10.040
14.92000 10.893
14.94000 7.683
14.96000 3.886
14.98000 5.584
15.00000 3.864
15.02000 1.381
15.04000 7.919
15.06000 9.362
15.08000 14.166
15.10000 5.113
15.12000 5.285
15.14000 5.287
15.16000 0.232
15.18000 -2.378
15.20000 7.092
15.22000 2.727
15.24000 0.967
15.26000 2.336
15.28000 13.606
15.30000 7.287
15.32000 0.460
15.34000 3.899
15.36000 4.546
15.38000 18.338
15.40000 17.170
15.42000 9.960
15.44000 7.042
15.46000 8.264
15.48000 13.476
15.50000 11.047
15.52000 7.033
15.54000 1.213
15.56000 -0.568
15.58000 -2.196
15.60000 0.412
15.62000 2.695
15.64000 11.453
15.66000 10.394
15.68000 16.451
15.70000 10.211
15.72000 7.231
15.74000 5.000
15.76000 6.242
15.78000 6.685
15.80000 8.211
15.82000 9.240
15.84000 5.592
15.86000 0.708
15.88000 7.527
15.90000 7.534
15.92000 8.036
15.94000 -0.078
15.96000 -3.387
15.98000 5.418
16.00000 11.289
16.02000 10.892
16.04000 7.044
16.06000 6.310
16.08000 9.130
16.10000 6.688
16.12000 7.462
16.14000 14.207
16.16000 14.429
16.18000 8.702
16.20000 3.051
16.22000 2.683
16.24000 1.163
16.26000 6.712
16.28000 4.756
16.30000 -4.400
16.32000 -1.195
16.34000 1.127
16.36000 5.890
16.38000 9.520
16.40000 7.198
16.42000 3.202
16.44000 1.062
16.46000 11.937
16.48000 7.271
16.50000 3.182
16.52000 1.687
16.54000 0.086
16.56000 -1.338
16.58000 -0.171
16.60000 -2.019
16.62000 6.307
16.64000 4.322
16.66000 0.947
16.68000 3.687
16.70000 -0.211
16.72000 1.392
16.74000 0.387
16.76000 2.779
16.78000 7.927
16.80000 6.789
16.82000 6.189
16.84000 9.360
16.86000 12.308
16.88000 1.729
16.90000 -1.299
16.92000 5.472
16.94000 12.601
16.96000 8.240
16.98000 -1.136
17.00000 2.820
17.02000 15.941
17.04000 21.731
17.06000 17.907
17.08000 4.222
17.10000 3.534
17.12000 6.884
17.14000 5.688
17.16000 3.926
17.18000 6.725
17.20000 9.322
17.22000 14.087
17.24000 12.491
17.26000 16.041
17.28000 6.023
17.30000 1.817
17.32000 1.045
17.34000 11.239
17.36000 16.448
17.38000 10.630
17.40000 11.635
17.42000 17.987
17.44000 12.277
17.46000 8.795
17.48000 9.251
17.50000 12.355
17.52000 7.632
17.54000 9.112
17.56000 6.506
17.58000 7.662
17.60000 7.543
17.62000 2.005
17.64000 -4.289
17.66000 4.310
17.68000 11.982
17.70000 12.096
17.72000 12.721
17.74000 8.269
17.76000 8.451
17.78000 5.911
17.80000 7.146
17.82000 7.373
17.84000 4.702
17.86000 6.618
17.88000 3.920
17.90000 10.856
17.92000 10.233
17.94000 5.819
17.96000 5.115
17.98000 4.495
18.00000 5.617
18.02000 0.432
18.04000 -2.584
18.06000 -4.283
18.08000 8.462
18.10000 8.312
18.12000 5.258
18.14000 12.468
18.16000 15.926
18.18000 8.375
18.20000 8.426
18.22000 2.817
18.24000 -0.321
18.26000 7.598
18.28000 -0.313
18.30000 0.597
18.32000 6.719
18.34000 4.800
18.36000 3.067
18.38000 0.326
18.40000 1.788
18.42000 12.862
18.44000 7.934
18.46000 4.157
18.48000 -2.312
18.50000 2.141
18.52000 10.498
18.54000 8.572
18.56000 8.469
18.58000 9.153
18.60000 10.711
18.62000 6.675
18.64000 -1.475
18.66000 -0.495
18.68000 1.082
18.70000 6.592
18.72000 8.513
18.74000 6.701
18.76000 10.445
18.78000 6.764
18.80000 3.534
18.82000 6.205
18.84000 2.286
18.86000 -1.744
18.88000 -0.527
18.90000 -1.293
18.92000 -4.256
18.94000 2.859
18.96000 1.917
18.98000 0.803
19.00000 -2.464
19.02000 -1.675
19.04000 8.858
19.06000 10.129
19.08000 5.703
19.10000 3.478
19.12000 3.295
19.14000 4.496
19.16000 3.231
19.18000 -0.579
19.20000 0.985
19.22000 6.388
19.24000 1.687
19.26000 1.996
19.28000 2.306
19.30000 5.587
19.32000 4.064
19.34000 6.542
19.36000 6.712
19.38000 4.738
19.40000 -2.987
19.42000 -1.202
19.44000 7.881
19.46000 8.420
19.48000 -0.007
19.50000 3.306
19.52000 6.694
19.54000 3.213
19.56000 -4.215
19.58000 0.038
19.60000 0.601
19.62000 -2.490
19.64000 2.439
19.66000 7.315
19.68000 0.162
19.70000 4.104
19.72000 9.543
19.74000 5.035
19.76000 5.029
19.78000 5.622
19.80000 -4.204
19.82000 -1.795
19.84000 5.460
19.86000 5.554
19.88000 2.629
19.90000 -0.122
19.92000 3.389
19.94000 6.871
19.96000 3.625
19.98000 -0.405
20.00000 0.836
20.02000 6.863
20.04000 -0.036
20.06000 -1.895
20.08000 -0.790
20.10000 5.208
20.12000 3.760
20.14000 0.485
20.16000 3.741
20.18000 8.897
20.20000 8.611
20.22000 3.207
20.24000 7.587
20.26000 4.154
20.28000 2.593
20.30000 -3.644
20.32000 -2.854
20.34000 4.614
20.36000 2.915
20.38000 -2.242
20.40000 0.239
20.42000 2.736
20.44000 -3.488
20.46000 1.201
20.48000 -0.649
20.50000 1.210
20.52000 10.144
20.54000 13.465
20.56000 3.809
20.58000 4.952
20.60000 -1.922
20.62000 -2.610
20.64000 4.484
20.66000 4.052
20.68000 5.790
20.70000 5.415
20.72000 2.975
20.74000 4.675
20.76000 -4.159
20.78000 -1.454
20.80000 5.755
20.82000 1.990
20.84000 -1.174
20.86000 2.087
20.88000 3.680
20.90000 3.702
20.92000 1.516
20.94000 0.792
20.96000 6.998
20.98000 5.517
21.00000 4.590
21.02000 3.033
21.04000 4.553
21.06000 2.204
21.08000 -0.511
21.10000 -1.868
21.12000 3.375
21.14000 5.716
21.16000 3.065
21.18000 5.819
21.20000 5.962
21.22000 2.063
21.24000 8.402
21.26000 9.761
21.28000 9.705
21.30000 9.627
21.32000 5.039
21.34000 2.341
21.36000 6.211
21.38000 8.026
21.40000 4.524
21.42000 2.655
21.44000 4.299
21.46000 8.630
21.48000 7.038
21.50000 8.736
21.52000 5.390
21.54000 9.695
21.56000 8.107
21.58000 4.854
21.60000 -4.082
21.62000 -0.530
21.64000 2.660
21.66000 3.487
21.68000 3.629
21.70000 4.167
21.72000 8.273
21.74000 10.097
21.76000 5.497
21.78000 9.079
21.80000 14.707
21.82000 13.118
21.84000 8.426
21.86000 9.016
21.88000 4.720
21.90000 0.766
21.92000 -1.680
21.94000 -0.343
21.96000 5.350
21.98000 4.928
22.00000 5.654
22.02000 5.005
22.04000 7.932
22.06000 2.415
22.08000 -1.832
22.10000 3.166
22.12000 3.659
22.14000 7.749
22.16000 11.166
22.18000 7.486
22.20000 5.111
22.22000 -0.159
22.24000 2.561
22.26000 10.189
22.28000 7.997
22.30000 6.633
22.32000 8.412
22.34000 4.425
22.36000 4.226
22.38000 3.970
22.40000 5.633
22.42000 7.292
22.44000 1.900
22.46000 1.248
22.48000 3.413
22.50000 4.470
22.52000 3.433
22.54000 2.041
22.56000 4.820
22.58000 7.755
22.60000 2.379
22.62000 1.668
22.64000 6.453
22.66000 5.963
22.68000 10.080
22.70000 8.019
22.72000 3.897
22.74000 -1.795
22.76000 1.900
22.78000 4.742
22.80000 5.710
22.82000 4.263
22.84000 -1.583
22.86000 -4.022
22.88000 4.412
22.90000 8.264
22.92000 13.064
22.94000 5.220
22.96000 3.456
22.98000 4.883
23.00000 10.152
23.02000 6.633
23.04000 2.439
23.06000 2.943
23.08000 5.907
23.10000 8.516
23.12000 2.039
23.14000 2.468
23.16000 0.127
23.18000 -2.348
23.20000 1.767
23.22000 9.642
23.24000 4.639
23.26000 4.840
23.28000 6.030
23.30000 -1.191
23.32000 0.929
23.34000 4.511
23.36000 5.952
23.38000 8.571
23.40000 5.144
23.42000 -1.795
23.44000 0.485
23.46000 2.078
23.48000 11.783
23.50000 9.790
23.52000 6.561
23.54000 7.109
23.56000 7.342
23.58000 4.730
23.60000 6.774
23.62000 5.173
23.64000 8.425
23.66000 5.402
23.68000 2.094
23.70000 2.934
23.72000 2.638
23.74000 8.049
23.76000 -2.215
23.78000 -3.973
23.80000 0.844
23.82000 1.129
23.84000 1.621
23.86000 9.078
23.88000 2.352
23.90000 3.994
23.92000 9.151
23.94000 9.207
23.96000 10.924
23.98000 6.970
24.00000 4.479
24.02000 9.030
24.04000 5.488
24.06000 4.333
24.08000 6.434
24.10000 4.709
24.12000 3.498
24.14000 1.454
24.16000 1.129
24.18000 3.219
24.20000 4.071
24.22000 7.329
24.24000 7.916
24.26000 1.446
24.28000 2.639
24.30000 9.052
24.32000 5.385
24.34000 8.470
24.36000 9.829
24.38000 7.557
24.40000 6.869
24.42000 6.637
24.44000 3.539
24.46000 3.549
24.48000 5.759
24.50000 13.074
24.52000 6.103
24.54000 4.722
24.56000 3.865
24.58000 4.869
24.60000 -0.558
24.62000 -3.235
24.64000 4.502
24.66000 4.735
24.68000 7.253
24.70000 4.813
24.72000 4.763
24.74000 10.786
24.76000 10.536
24.78000 10.578
24.80000 9.455
24.82000 5.882
24.84000 -3.340
24.86000 -3.899
24.88000 2.836
24.90000 6.421
24.92000 9.476
24.94000 12.976
24.96000 7.413
24.98000 2.439
25.00000 5.461
25.02000 -0.462
25.04000 -3.887
25.06000 1.478
25.08000 7.281
25.10000 5.361
25.12000 9.840
25.14000 7.778
25.16000 5.519
25.18000 10.118
25.20000 5.067
25.22000 7.075
25.24000 8.574
25.26000 5.514
25.28000 1.972
25.30000 2.215
25.32000 2.518
25.34000 4.511
25.36000 4.336
25.38000 7.386
25.40000 7.831
25.42000 6.547
25.44000 6.410
25.46000 1.502
25.48000 4.001
25.50000 11.521
25.52000 8.310
25.54000 6.913
25.56000 1.636
25.58000 3.052
25.60000 8.971
25.62000 11.945
25.64000 11.029
25.66000 7.768
25.68000 5.298
25.70000 1.002
25.72000 2.441
25.74000 8.918
25.76000 4.210
25.78000 5.829
25.80000 6.845
25.82000 3.241
25.84000 5.703
25.86000 1.123
25.88000 1.707
25.90000 8.329
25.92000 5.108
25.94000 2.390
25.96000 6.797
25.98000 9.313
26.00000 8.400
26.02000 8.898
26.04000 9.889
26.06000 8.675
26.08000 7.190
26.10000 8.005
26.12000 6.342
26.14000 7.227
26.16000 0.596
26.18000 -3.774
26.20000 3.214
26.22000 10.584
26.24000 16.010
26.26000 16.032
26.28000 15.587
26.30000 9.255
26.32000 7.296
26.34000 9.716
26.36000 9.464
26.38000 8.225
26.40000 4.321
26.42000 5.867
26.44000 6.485
26.46000 7.491
26.48000 4.229
26.50000 5.863
26.52000 7.758
26.54000 8.565
26.56000 7.745
26.58000 9.455
26.60000 11.441
26.62000 8.755
26.64000 10.843
26.66000 9.980
26.68000 4.313
26.70000 7.121
26.72000 6.410
26.74000 5.027
26.76000 3.856
26.78000 0.244
26.80000 -0.074
26.82000 1.365
26.84000 4.444
26.86000 3.466
26.88000 5.238
26.90000 5.403
26.92000 7.432
26.94000 1.131
26.96000 3.738
26.98000 7.355
27.00000 5.653
27.02000 2.864
27.04000 1.628
27.06000 -1.809
27.08000 5.581
27.10000 2.336
27.12000 3.397
27.14000 5.741
27.16000 7.435
27.18000 5.792
27.20000 1.381
27.22000 5.431
27.24000 10.504
27.26000 7.816
27.28000 7.034
27.30000 2.724
27.32000 1.715
27.34000 0.964
27.36000 5.090
27.38000 4.059
27.40000 5.794
27.42000 6.413
27.44000 0.310
27.46000 -0.095
27.48000 4.356
27.50000 2.386
27.52000 3.410
27.54000 10.467
27.56000 8.768
27.58000 6.027
27.60000 -0.162
27.62000 -0.226
27.64000 3.975
27.66000 4.376
27.68000 0.773
27.70000 5.174
27.72000 4.567
27.74000 2.740
27.76000 0.379
27.78000 -0.543
27.80000 3.685
27.82000 5.324
27.84000 0.813
27.86000 6.410
27.88000 3.475
27.90000 -0.147
27.92000 -0.673
27.94000 -3.754
27.96000 4.186
27.98000 8.681
28.00000 4.394
28.02000 3.338
28.04000 2.022
28.06000 1.842
28.08000 1.478
28.10000 6.285
28.12000 8.390
28.14000 1.050
28.16000 1.286
28.18000 -0.804
28.20000 -1.673
28.22000 2.720
28.24000 5.811
28.26000 7.422
28.28000 0.829
28.30000 2.021
28.32000 4.844
28.34000 4.122
28.36000 4.912
28.38000 2.667
28.40000 1.083
28.42000 -0.875
28.44000 5.560
28.46000 6.385
28.48000 10.456
28.50000 13.036
28.52000 5.260
28.54000 2.422
28.56000 3.015
28.58000 3.843
28.60000 5.031
28.62000 5.600
28.64000 3.804
28.66000 3.462
28.68000 0.807
28.70000 -1.528
28.72000 3.145
28.74000 1.174
28.76000 1.425
28.78000 3.576
28.80000 3.245
28.82000 -0.178
28.84000 1.708
28.86000 0.808
28.88000 -2.364
28.90000 -1.472
28.92000 2.872
28.94000 4.129
28.96000 3.752
28.98000 7.926
29.00000 2.349
29.02000 0.132
29.04000 -2.641
29.06000 2.603
29.08000 5.512
29.10000 -0.661
29.12000 1.273
29.14000 2.840
29.16000 4.596
29.18000 8.710
29.20000 2.539
29.22000 0.186
29.24000 -3.414
29.26000 -0.081
29.28000 2.434
29.30000 3.095
29.32000 6.731
29.34000 5.448
29.36000 0.377
29.38000 -1.305
29.40000 -1.019
29.42000 -1.216
29.44000 -3.687
29.46000 0.172
29.48000 1.585
29.50000 7.347
29.52000 2.272
29.54000 -3.376
29.56000 2.300
29.58000 5.494
29.60000 -0.713
29.62000 -0.672
29.64000 1.311
29.66000 3.557
29.68000 5.703
29.70000 3.319
29.72000 0.994
29.74000 1.502
29.76000 2.897
29.78000 2.170
29.80000 5.841
29.82000 6.677
29.84000 1.740
29.86000 -0.506
29.88000 4.064
29.90000 2.916
29.92000 0.723
29.94000 0.275
29.96000 2.015
29.98000 0.339
30.00000 2.465
30.02000 5.894
30.04000 0.751
30.06000 2.033
30.08000 2.860
30.10000 -2.487
30.12000 -3.663
30.14000 -3.228
30.16000 -0.240
30.18000 0.551
30.20000 0.195
30.22000 -0.449
30.24000 3.050
30.26000 1.804
30.28000 0.065
30.30000 0.696
30.32000 -1.386
30.34000 1.591
30.36000 4.159
30.38000 6.158
30.40000 5.812
30.42000 0.572
30.44000 2.244
30.46000 6.072
30.48000 4.624
30.50000 4.052
30.52000 -0.538
30.54000 -2.803
30.56000 -0.477
30.58000 3.131
30.60000 0.768
30.62000 -0.499
30.64000 1.596
30.66000 4.881
30.68000 5.447
30.70000 2.856
30.72000 1.233
30.74000 0.651
30.76000 -1.447
30.78000 -1.110
30.80000 -2.461
30.82000 -0.317
30.84000 8.499
30.86000 12.136
30.88000 8.500
30.90000 6.886
30.92000 2.006
30.94000 0.703
30.96000 -0.982
30.98000 0.041
31.00000 -2.335
31.02000 1.402
31.04000 2.782
31.06000 5.336
31.08000 5.835
31.10000 2.956
31.12000 2.651
31.14000 6.590
31.16000 5.506
31.18000 6.670
31.20000 7.519
31.22000 2.480
31.24000 5.535
31.26000 4.448
31.28000 4.782
31.30000 8.575
31.32000 6.389
31.34000 4.401
31.36000 1.570
31.38000 -2.092
31.40000 -3.550
31.42000 -1.927
31.44000 4.417
31.46000 5.165
31.48000 4.454
31.50000 1.821
31.52000 3.808
31.54000 0.911
31.56000 1.635
31.58000 7.310
31.60000 4.283
31.62000 2.199
31.64000 1.902
31.66000 3.399
31.68000 4.044
31.70000 2.684
31.72000 5.163
31.74000 7.204
31.76000 5.473
31.78000 -0.223
31.80000 0.970
31.82000 -0.554
31.84000 1.946
31.86000 10.273
31.88000 7.899
31.90000 7.356
31.92000 3.626
31.94000 4.822
31.96000 0.903
31.98000 -1.023
32.00000 0.881
32.02000 8.658
32.04000 7.272
32.06000 -0.490
32.08000 -1.249
32.10000 0.690
32.12000 -1.486
32.14000 2.874
32.16000 0.324
32.18000 4.429
32.20000 1.912
32.22000 1.059
32.24000 2.398
32.26000 3.986
32.28000 1.536
32.30000 0.171
32.32000 3.690
32.34000 4.516
32.36000 0.445
32.38000 3.286
32.40000 3.161
32.42000 2.716
32.44000 -0.517
32.46000 5.026
32.48000 0.603
32.50000 0.463
32.52000 8.601
32.54000 3.452
32.56000 3.838
32.58000 2.234
32.60000 1.168
32.62000 4.249
32.64000 3.169
32.66000 -1.949
32.68000 0.399
32.70000 -3.528
32.72000 -1.462
32.74000 0.395
32.76000 6.027
32.78000 2.968
32.80000 0.589
32.82000 -2.518
32.84000 -3.140
32.86000 -2.359
32.88000 2.589
32.90000 -1.517
32.92000 -2.713
32.94000 3.013
32.96000 5.011
32.98000 0.528
33.00000 -1.028
33.02000 2.421
33.04000 3.758
33.06000 1.228
33.08000 2.636
33.10000 0.635
33.12000 0.124
33.14000 0.220
33.16000 -2.957
33.18000 -0.179
33.20000 3.759
33.22000 4.544
33.24000 5.362
33.26000 3.988
33.28000 2.548
33.30000 5.145
33.32000 3.646
33.34000 1.630
33.36000 -3.112
33.38000 2.567
33.40000 3.904
33.42000 3.584
33.44000 6.983
33.46000 7.772
33.48000 2.533
33.50000 0.391
33.52000 -0.548
33.54000 -3.337
33.56000 1.770
33.58000 -2.063
33.60000 0.283
33.62000 -0.022
33.64000 4.496
33.66000 4.165
33.68000 1.802
33.70000 -1.748
33.72000 -0.843
33.74000 -2.986
33.76000 1.007
33.78000 2.987
33.80000 5.722
33.82000 0.199
33.84000 -0.795
33.86000 3.741
33.88000 3.589
33.90000 -0.657
33.92000 3.445
33.94000 6.585
33.96000 6.784
33.98000 3.732
34.00000 0.312
34.02000 2.080
34.04000 5.774
34.06000 4.587
34.08000 1.720
34.10000 -2.283
34.12000 -3.503
34.14000 -0.159
34.16000 2.737
34.18000 1.773
34.20000 1.448
34.22000 0.467
34.24000 3.872
34.26000 2.773
34.28000 4.179
34.30000 3.441
34.32000 2.112
34.34000 7.177
34.36000 10.295
34.38000 7.298
34.40000 3.111
34.42000 1.553
34.44000 2.337
34.46000 2.491
34.48000 3.886
34.50000 -0.046
34.52000 0.364
34.54000 1.205
34.56000 -1.971
34.58000 0.376
34.60000 3.369
34.62000 0.724
34.64000 -0.081
34.66000 0.924
34.68000 4.309
34.70000 2.692
34.72000 -0.210
34.74000 2.214
34.76000 0.886
34.78000 -1.569
34.80000 -2.738
34.82000 -2.830
34.84000 4.136
34.86000 1.487
34.88000 -0.739
34.90000 4.867
34.92000 5.354
34.94000 0.498
34.96000 0.876
34.98000 1.750
35.00000 6.607
35.02000 5.030
35.04000 1.961
35.06000 4.879
35.08000 2.656
35.10000 -3.498
35.12000 -1.225
35.14000 2.270
35.16000 -0.673
35.18000 -0.115
35.20000 0.773
35.22000 -0.245
35.24000 -2.322
35.26000 -1.883
35.28000 -0.817
35.30000 5.468
35.32000 4.421
35.34000 -0.116
35.36000 -0.913
35.38000 -3.489
35.40000 2.875
35.42000 7.353
35.44000 1.716
35.46000 0.002
35.48000 -0.352
35.50000 -1.624
35.52000 3.183
35.54000 6.903
35.56000 2.607
35.58000 -0.816
35.60000 2.030
35.62000 1.488
35.64000 -1.724
35.66000 0.374
35.68000 1.069
35.70000 -0.909
35.72000 2.416
35.74000 5.458
35.76000 3.302
35.78000 -0.087
35.80000 0.551
35.82000 -2.986
35.84000 -2.764
35.86000 -3.463
35.88000 -0.792
35.90000 4.952
35.92000 4.305
35.94000 4.710
35.96000 0.525
35.98000 0.796
36.00000 2.367
36.02000 -2.387
36.04000 -3.402
36.06000 -3.203
36.08000 0.436
36.10000 2.747
36.12000 4.360
36.14000 2.985
36.16000 0.705
36.18000 4.333
36.20000 1.683
36.22000 2.496
36.24000 6.831
36.26000 3.251
36.28000 0.422
36.30000 0.683
36.32000 3.837
36.34000 2.237
36.36000 -1.465
36.38000 -1.063
36.40000 4.559
36.42000 4.501
36.44000 -3.334
36.46000 -2.994
36.48000 -0.727
36.50000 -2.413
36.52000 0.432
36.54000 0.804
36.56000 4.435
36.58000 5.178
36.60000 1.538
36.62000 0.359
36.64000 2.345
36.66000 5.964
36.68000 -0.444
36.70000 3.206
36.72000 1.525
36.74000 -1.347
36.76000 2.247
36.78000 -1.532
36.80000 -0.056
36.82000 5.019
36.84000 0.168
36.86000 0.616
36.88000 -3.083
36.90000 -3.481
36.92000 -2.261
36.94000 -1.569
36.96000 2.321
36.98000 2.546
37.00000 2.009
37.02000 3.469
37.04000 2.010
37.06000 0.983
37.08000 -2.184
37.10000 -1.121
37.12000 0.313
37.14000 -1.960
37.16000 1.523
37.18000 3.234
37.20000 -1.865
37.22000 -3.214
37.24000 -2.178
37.26000 1.334
37.28000 2.588
37.30000 1.592
37.32000 -0.116
37.34000 -0.799
37.36000 -1.231
37.38000 1.385
37.40000 -1.374
37.42000 -1.076
37.44000 0.517
37.46000 -2.378
37.48000 -3.523
37.50000 -0.786
37.52000 0.697
37.54000 -1.144
37.56000 -1.486
37.58000 0.125
37.60000 0.983
37.62000 -0.262
37.64000 -1.962
37.66000 -0.025
37.68000 1.840
37.70000 1.833
37.72000 2.827
37.74000 2.704
37.76000 2.443
37.78000 -0.084
37.80000 3.170
37.82000 -2.744
37.84000 -2.668
37.86000 1.606
37.88000 4.094
37.90000 0.691
37.92000 0.686
37.94000 0.874
37.96000 0.909
37.98000 4.968
38.00000 6.856
38.02000 3.133
38.04000 7.283
38.06000 6.894
38.08000 4.394
38.10000 6.185
38.12000 5.782
38.14000 5.424
38.16000 13.857
38.18000 16.739
38.20000 13.887
38.22000 15.597
38.24000 11.976
38.26000 9.903
38.28000 13.488
38.30000 14.877
38.32000 8.494
38.34000 10.967
38.36000 7.124
38.38000 7.611
38.40000 12.509
38.42000 14.146
38.44000 15.803
38.46000 13.221
38.48000 12.199
38.50000 14.339
38.52000 19.377
38.54000 11.940
38.56000 10.800
38.58000 14.830
38.60000 14.257
38.62000 11.624
38.64000 16.094
38.66000 19.537
38.68000 15.444
38.70000 13.513
38.72000 19.633
38.74000 22.696
38.76000 17.431
38.78000 13.855
38.80000 15.468
38.82000 13.461
38.84000 16.900
38.86000 26.224
38.88000 26.808
38.90000 28.280
38.92000 25.351
38.94000 22.382
38.96000 26.251
38.98000 26.091
39.00000 22.328
39.02000 25.158
39.04000 29.780
39.06000 29.553
39.08000 27.704
39.10000 27.949
39.12000 29.424
39.14000 36.401
39.16000 42.447
39.18000 39.672
39.20000 38.208
39.22000 43.652
39.24000 44.196
39.26000 46.377
39.28000 49.032
39.30000 50.186
39.32000 52.286
39.34000 50.283
39.36000 56.749
39.38000 57.988
39.40000 60.223
39.42000 64.683
39.44000 69.096
39.46000 74.491
39.48000 74.041
39.50000 78.712
39.52000 78.647
39.54000 87.396
39.56000 92.348
39.58000 99.098
39.60000 101.228
39.62000 97.519
39.64000 105.809
39.66000 112.347
39.68000 120.538
39.70000 130.942
39.72000 141.627
39.74000 156.190
39.76000 159.337
39.78000 167.318
39.80000 180.158
39.82000 190.971
39.84000 200.230
39.86000 210.948
39.88000 231.311
39.90000 259.760
39.92000 268.683
39.94000 282.410
39.96000 301.285
39.98000 328.263
40.00000 349.614
40.02000 371.724
40.04000 396.302
40.06000 414.196
40.08000 451.127
40.10000 490.776
40.12000 516.274
40.14000 552.120
40.16000 584.137
40.18000 617.841
40.20000 666.852
40.22000 707.663
40.24000 744.694
40.26000 779.939
40.28000 825.767
40.30000 864.367
40.32000 885.279
40.34000 921.227
40.36000 954.547
40.38000 974.729
40.40000 1010.181
40.42000 1023.718
40.44000 1045.823
40.46000 1064.313
40.48000 1066.510
40.50000 1056.705
40.52000 1065.754
40.54000 1064.957
40.56000 1052.217
40.58000 1032.261
40.60000 1018.044
40.62000 999.699
40.64000 981.040
40.66000 953.588
40.68000 916.648
40.70000 886.797
40.72000 862.331
40.74000 843.304
40.76000 812.368
40.78000 780.123
40.80000 755.430
40.82000 707.121
40.84000 677.819
40.86000 645.364
40.88000 609.238
40.90000 578.876
40.92000 545.931
40.94000 519.953
40.96000 498.388
40.98000 475.858
41.00000 447.213
41.02000 423.513
41.04000 397.750
41.06000 382.565
41.08000 358.111
41.10000 341.144
41.12000 314.577
41.14000 294.817
41.16000 284.502
41.18000 271.002
41.20000 258.835
41.22000 247.471
41.24000 229.179
41.26000 215.624
41.28000 199.724
41.30000 190.742
41.32000 174.047
41.34000 168.145
41.36000 161.191
41.38000 149.748
41.40000 136.107
41.42000 134.670
41.44000 135.461
41.46000 128.964
41.48000 123.404
41.50000 113.550
41.52000 105.059
41.54000 95.327
41.56000 91.897
41.58000 86.961
41.60000 87.059
41.62000 79.999
41.64000 78.998
41.66000 77.139
41.68000 72.073
41.70000 68.629
41.72000 63.066
41.74000 57.660
41.76000 57.236
41.78000 53.922
41.80000 52.040
41.82000 49.091
41.84000 45.518
41.86000 41.682
41.88000 43.489
41.90000 44.737
41.92000 41.353
41.94000 39.739
41.96000 37.179
41.98000 34.605
42.00000 33.258
42.02000 32.050
42.04000 29.019
42.06000 27.730
42.08000 27.086
42.10000 25.486
42.12000 21.771
42.14000 24.039
42.16000 20.518
42.18000 19.208
42.20000 20.421
42.22000 20.867
42.24000 20.133
42.26000 20.879
42.28000 18.821
42.30000 21.080
42.32000 19.272
42.34000 10.286
42.36000 8.992
42.38000 14.625
42.40000 17.451
42.42000 16.940
42.44000 14.781
42.46000 16.033
42.48000 11.718
42.50000 8.825
42.52000 8.220
42.54000 9.292
42.56000 8.889
42.58000 10.981
42.60000 10.567
42.62000 7.983
42.64000 8.497
42.66000 8.348
42.68000 6.634
42.70000 2.956
42.72000 2.915
42.74000 0.199
42.76000 1.063
42.78000 4.790
42.80000 7.937
42.82000 5.620
42.84000 4.824
42.86000 6.350
42.88000 5.470
42.90000 3.363
42.92000 1.496
42.94000 1.464
42.96000 2.433
42.98000 3.348
43.00000 2.174
43.02000 1.299
43.04000 1.322
43.06000 0.467
43.08000 -1.129
43.10000 4.234
43.12000 3.122
43.14000 0.411
43.16000 1.647
43.18000 2.601
43.20000 2.231
43.22000 -0.133
43.24000 2.219
43.26000 -0.331
43.28000 -3.453
43.30000 -3.180
43.32000 -3.411
43.34000 -1.921
43.36000 -1.614
43.38000 -3.055
43.40000 -0.760
43.42000 -0.717
43.44000 -1.861
43.46000 -1.025
43.48000 1.578
43.50000 -1.682
43.52000 -0.241
43.54000 -0.341
43.56000 -0.929
43.58000 -0.916
43.60000 -0.273
43.62000 -0.714
43.64000 1.489
43.66000 0.967
43.68000 -1.287
43.70000 -2.022
43.72000 -3.366
43.74000 -2.511
43.76000 -2.338
43.78000 0.416
43.80000 3.526
43.82000 2.624
43.84000 0.363
43.86000 2.423
43.88000 0.750
43.90000 2.760
43.92000 1.027
43.94000 1.750
43.96000 0.313
43.98000 -1.397
44.00000 -2.210
44.02000 -0.087
44.04000 1.177
44.06000 3.955
44.08000 2.623
44.10000 2.107
44.12000 1.420
44.14000 5.441
44.16000 6.700
44.18000 0.824
44.20000 -0.371
44.22000 -0.522
44.24000 -2.235
44.26000 -3.273
44.28000 -0.990
44.30000 -0.685
44.32000 -0.294
44.34000 0.738
44.36000 1.463
44.38000 0.846
44.40000 2.572
44.42000 3.109
44.44000 2.944
44.46000 6.024
44.48000 6.210
44.50000 1.439
44.52000 -3.233
44.54000 -1.765
44.56000 3.907
44.58000 -0.553
44.60000 1.151
44.62000 4.103
44.64000 2.492
44.66000 -3.223
44.68000 2.151
44.70000 3.359
44.72000 -1.939
44.74000 -2.552
44.76000 -0.722
44.78000 3.937
44.80000 6.254
44.82000 6.098
44.84000 4.186
44.86000 -0.792
44.88000 -2.478
44.90000 -2.646
44.92000 -0.829
44.94000 -2.423
44.96000 -1.715
44.98000 -0.522
45.00000 1.887
45.02000 2.173
45.04000 2.930
45.06000 0.262
45.08000 -0.861
45.10000 1.492
45.12000 1.915
45.14000 -1.077
45.16000 2.550
45.18000 5.539
45.20000 1.090
45.22000 0.632
45.24000 2.748
45.26000 1.191
45.28000 0.448
45.30000 3.976
45.32000 3.267
45.34000 0.769
45.36000 1.534
45.38000 2.874
45.40000 6.563
45.42000 2.530
45.44000 2.065
45.46000 0.730
45.48000 -0.271
45.50000 -0.693
45.52000 -1.766
45.54000 -0.912
45.56000 3.458
45.58000 5.300
45.60000 0.931
45.62000 3.584
45.64000 1.737
45.66000 1.925
45.68000 4.677
45.70000 4.404
45.72000 1.274
45.74000 7.350
45.76000 6.960
45.78000 9.806
45.80000 11.145
45.82000 11.147
45.84000 12.653
45.86000 12.883
45.88000 11.227
45.90000 10.950
45.92000 7.264
45.94000 9.932
45.96000 15.831
45.98000 18.259
46.00000 21.756
46.02000 22.456
46.04000 17.173
46.06000 15.049
46.08000 18.943
46.10000 22.241
46.12000 25.477
46.14000 22.575
46.16000 25.927
46.18000 28.049
46.20000 25.091
46.22000 32.301
46.24000 31.266
46.26000 28.104
46.28000 32.051
46.30000 28.087
46.32000 27.555
46.34000 30.316
46.36000 34.790
46.38000 37.525
46.40000 40.388
46.42000 40.657
46.44000 43.259
46.46000 45.598
46.48000 49.109
46.50000 54.274
46.52000 52.468
46.54000 57.689
46.56000 63.440
46.58000 63.284
46.60000 64.595
46.62000 69.700
46.64000 69.498
46.66000 74.255
46.68000 76.254
46.70000 84.264
46.72000 90.569
46.74000 88.411
46.76000 95.161
46.78000 96.551
46.80000 101.079
46.82000 110.915
46.84000 111.865
46.86000 116.185
46.88000 121.868
46.90000 128.661
46.92000 132.022
46.94000 130.138
46.96000 131.568
46.98000 132.866
47.00000 140.308
47.02000 144.376
47.04000 141.892
47.06000 147.934
47.08000 153.366
47.10000 148.049
47.12000 144.260
47.14000 149.313
47.16000 155.751
47.18000 155.069
47.20000 146.228
47.22000 140.796
47.24000 141.365
47.26000 136.310
47.28000 139.483
47.30000 135.443
47.32000 128.213
47.34000 126.695
47.36000 123.503
47.38000 124.761
47.40000 120.865
47.42000 110.275
47.44000 101.428
47.46000 100.070
47.48000 102.166
47.50000 97.373
47.52000 90.807
47.54000 88.000
47.56000 86.432
47.58000 82.646
47.60000 77.580
47.62000 76.982
47.64000 73.564
47.66000 68.196
47.68000 65.991
47.70000 61.014
47.72000 58.521
47.74000 50.350
47.76000 47.006
47.78000 49.127
47.80000 46.131
47.82000 48.928
47.84000 48.817
47.86000 40.771
47.88000 38.266
47.90000 36.383
47.92000 35.704
47.94000 34.138
47.96000 30.550
47.98000 26.645
48.00000 26.016
48.02000 25.312
48.04000 20.880
48.06000 20.161
48.08000 23.373
48.10000 21.389
48.12000 17.636
48.14000 17.147
48.16000 16.958
48.18000 14.284
48.20000 13.937
48.22000 13.928
48.24000 16.315
48.26000 13.365
48.28000 12.284
48.30000 13.487
48.32000 6.693
48.34000 3.030
48.36000 3.650
48.38000 5.757
48.40000 9.341
48.42000 9.799
48.44000 8.992
48.46000 9.412
48.48000 6.532
48.50000 4.374
48.52000 8.010
48.54000 10.292
48.56000 8.841
48.58000 0.121
48.60000 -2.851
48.62000 2.951
48.64000 7.099
48.66000 5.196
48.68000 2.623
48.70000 3.186
48.72000 0.353
48.74000 -2.818
48.76000 -1.323
48.78000 0.278
48.80000 1.472
48.82000 3.045
48.84000 3.519
48.86000 1.422
48.88000 5.636
48.90000 5.218
48.92000 2.123
48.94000 0.582
48.96000 4.441
48.98000 5.314
49.00000 2.174
49.02000 -0.048
49.04000 0.874
49.06000 2.778
49.08000 0.756
49.10000 0.533
49.12000 -0.419
49.14000 0.286
49.16000 2.250
49.18000 4.113
49.20000 0.751
49.22000 -1.416
49.24000 -2.720
49.26000 -1.457
49.28000 2.916
49.30000 -0.323
49.32000 -1.077
49.34000 0.888
49.36000 2.567
49.38000 -1.388
49.40000 -2.686
49.42000 -0.600
49.44000 1.342
49.46000 1.245
49.48000 3.069
49.50000 0.690
49.52000 -2.674
49.54000 -1.531
49.56000 0.321
49.58000 0.273
49.60000 -2.666
49.62000 -0.467
49.64000 2.456
49.66000 0.929
49.68000 2.369
49.70000 1.229
49.72000 4.301
49.74000 1.554
49.76000 0.362
49.78000 2.963
49.80000 1.304
49.82000 0.458
49.84000 1.684
49.86000 0.397
49.88000 1.617
49.90000 3.972
49.92000 1.566
49.94000 -2.168
49.96000 0.127
49.98000 2.018
50.00000 0.212
50.02000 -2.625
50.04000 0.121
50.06000 4.176
50.08000 0.852
50.10000 -0.404
50.12000 1.205
50.14000 0.107
50.16000 2.018
50.18000 5.053
50.20000 2.933
50.22000 2.538
50.24000 -2.606
50.26000 -0.587
50.28000 2.957
50.30000 4.645
50.32000 -1.409
50.34000 0.696
50.36000 1.604
50.38000 -0.740
50.40000 0.366
50.42000 1.679
50.44000 0.953
50.46000 -0.470
50.48000 0.792
50.50000 1.821
50.52000 0.528
50.54000 1.768
50.56000 2.457
50.58000 -0.909
50.60000 -1.222
50.62000 1.137
50.64000 0.438
50.66000 0.956
50.68000 0.796
50.70000 1.049
50.72000 0.653
50.74000 1.229
50.76000 0.061
50.78000 -2.585
50.80000 -0.332
50.82000 -2.397
50.84000 -0.054
50.86000 -0.031
50.88000 -2.286
50.90000 -0.275
50.92000 2.981
50.94000 2.755
50.96000 0.842
50.98000 -2.524
51.00000 0.084
51.02000 -0.431
51.04000 -1.405
51.06000 -1.421
51.08000 -1.280
51.10000 -2.409
51.12000 -1.407
51.14000 -0.346
51.16000 -0.684
51.18000 -2.320
51.20000 4.255
51.22000 2.550
51.24000 -1.187
51.26000 -1.136
51.28000 -0.512
51.30000 1.315
51.32000 2.670
51.34000 1.438
51.36000 1.705
51.38000 -0.972
51.40000 -2.167
51.42000 -2.193
51.44000 -2.271
51.46000 -2.542
51.48000 -2.540
51.50000 -0.732
51.52000 1.052
51.54000 2.997
51.56000 5.436
51.58000 3.904
51.60000 -0.149
51.62000 -2.544
51.64000 2.949
51.66000 4.915
51.68000 1.867
51.70000 -0.168
51.72000 -1.780
51.74000 3.122
51.76000 -0.182
51.78000 -1.785
51.80000 -1.593
51.82000 0.290
51.84000 -0.769
51.86000 -0.324
51.88000 -1.324
51.90000 -2.138
51.92000 -2.031
51.94000 -2.090
51.96000 2.219
51.98000 0.368
52.00000 0.050
52.02000 -0.954
52.04000 4.240
52.06000 3.997
52.08000 5.035
52.10000 2.312
52.12000 0.718
52.14000 1.202
52.16000 -1.160
52.18000 1.595
52.20000 0.183
52.22000 -0.859
52.24000 -1.660
52.26000 -2.449
52.28000 -0.571
52.30000 -2.389
52.32000 -2.524
52.34000 -0.127
52.36000 1.278
52.38000 -1.739
52.40000 -1.467
52.42000 -1.183
52.44000 0.593
52.46000 0.281
52.48000 -0.217
52.50000 -0.935
52.52000 -0.962
52.54000 -1.728
52.56000 0.252
52.58000 2.125
52.60000 -1.656
52.62000 -0.326
52.64000 1.493
52.66000 -2.501
52.68000 -0.314
52.70000 1.280
52.72000 -0.699
52.74000 0.713
52.76000 -0.604
52.78000 -1.213
52.80000 -2.332
52.82000 -1.196
52.84000 -2.328
52.86000 -0.099
52.88000 1.091
52.90000 2.988
52.92000 1.375
52.94000 0.740
52.96000 0.678
52.98000 3.139
53.00000 4.272
53.02000 3.085
53.04000 -0.406
53.06000 -0.163
53.08000 -0.657
53.10000 -1.372
53.12000 1.511
53.14000 0.445
53.16000 3.072
53.18000 0.769
53.20000 0.218
53.22000 0.976
53.24000 3.714
53.26000 -0.140
53.28000 -2.460
53.30000 -0.488
53.32000 0.300
53.34000 0.908
53.36000 2.739
53.38000 0.679
53.40000 -0.676
53.42000 -0.811
53.44000 2.098
53.46000 3.882
53.48000 1.483
53.50000 1.359
53.52000 1.477
53.54000 1.608
53.56000 -0.310
53.58000 0.469
53.60000 3.288
53.62000 3.200
53.64000 2.227
53.66000 2.186
53.68000 0.181
53.70000 1.794
53.72000 0.812
53.74000 1.190
53.76000 5.727
53.78000 2.877
53.80000 2.348
53.82000 4.587
53.84000 8.601
53.86000 3.996
53.88000 5.387
53.90000 4.118
53.92000 1.949
53.94000 0.388
53.96000 1.704
53.98000 1.542
54.00000 2.946
54.02000 4.751
54.04000 6.285
54.06000 3.219
54.08000 -0.398
54.10000 1.730
54.12000 2.486
54.14000 4.728
54.16000 1.181
54.18000 3.721
54.20000 3.982
54.22000 5.324
54.24000 4.072
54.26000 6.151
54.28000 6.814
54.30000 2.563
54.32000 -2.385
54.34000 0.421
54.36000 -1.792
54.38000 0.714
54.40000 5.172
54.42000 4.859
54.44000 4.210
54.46000 7.041
54.48000 5.303
54.50000 3.200
54.52000 2.921
54.54000 1.100
54.56000 3.454
54.58000 2.741
54.60000 1.926
54.62000 3.242
54.64000 3.694
54.66000 2.684
54.68000 3.034
54.70000 4.093
54.72000 3.435
54.74000 2.706
54.76000 7.367
54.78000 6.422
54.80000 2.751
54.82000 -0.986
54.84000 5.196
54.86000 8.777
54.88000 7.792
54.90000 5.813
54.92000 1.723
54.94000 1.052
54.96000 3.460
54.98000 3.471
55.00000 2.933
55.02000 6.663
55.04000 3.615
55.06000 2.645
55.08000 0.275
55.10000 3.483
55.12000 3.753
55.14000 6.122
55.16000 5.846
55.18000 2.329
55.20000 6.440
55.22000 6.342
55.24000 7.774
55.26000 5.076
55.28000 3.407
55.30000 4.020
55.32000 6.440
55.34000 0.229
55.36000 4.829
55.38000 4.752
55.40000 -2.356
55.42000 -0.150
55.44000 0.357
55.46000 3.762
55.48000 3.823
55.50000 2.971
55.52000 1.363
55.54000 3.706
55.56000 3.859
55.58000 3.411
55.60000 5.459
55.62000 1.864
55.64000 -2.340
55.66000 1.740
55.68000 -0.198
55.70000 2.585
55.72000 3.239
55.74000 4.549
55.76000 5.590
55.78000 2.819
55.80000 4.114
55.82000 2.142
55.84000 2.102
55.86000 3.018
55.88000 4.939
55.90000 4.252
55.92000 2.534
55.94000 5.151
55.96000 5.098
55.98000 6.727
56.00000 5.283
56.02000 3.109
56.04000 2.514
56.06000 0.221
56.08000 -0.162
56.10000 0.313
56.12000 -0.251
56.14000 2.265
56.16000 1.156
56.18000 0.221
56.20000 0.407
56.22000 1.988
56.24000 -0.578
56.26000 -0.302
56.28000 2.109
56.30000 0.394
56.32000 -1.054
56.34000 -0.761
56.36000 -0.353
56.38000 6.219
56.40000 6.779
56.42000 6.242
56.44000 4.507
56.46000 5.650
56.48000 4.691
56.50000 1.584
56.52000 1.748
56.54000 1.628
56.56000 2.422
56.58000 -0.165
56.60000 -2.370
56.62000 0.006
56.64000 2.552
56.66000 1.015
56.68000 4.213
56.70000 5.539
56.72000 5.416
56.74000 3.573
56.76000 2.034
56.78000 0.522
56.80000 0.597
56.82000 2.769
56.84000 2.139
56.86000 6.782
56.88000 5.720
56.90000 3.323
56.92000 6.132
56.94000 3.561
56.96000 3.426
56.98000 2.318
57.00000 2.851
57.02000 2.140
57.04000 3.705
57.06000 3.309
57.08000 3.233
57.10000 0.685
57.12000 2.863
57.14000 1.901
57.16000 -0.717
57.18000 -2.347
57.20000 0.862
57.22000 3.321
57.24000 1.346
57.26000 1.397
57.28000 4.808
57.30000 3.471
57.32000 2.502
57.34000 0.600
57.36000 1.151
57.38000 1.566
57.40000 3.221
57.42000 3.209
57.44000 -1.366
57.46000 2.792
57.48000 3.678
57.50000 5.102
57.52000 3.159
57.54000 1.312
57.56000 1.844
57.58000 2.231
57.60000 2.370
57.62000 5.709
57.64000 4.001
57.66000 3.026
57.68000 3.267
57.70000 5.941
57.72000 2.987
57.74000 2.492
57.76000 0.615
57.78000 -0.003
57.80000 1.075
57.82000 -2.297
57.84000 -1.111
57.86000 4.784
57.88000 3.370
57.90000 -0.644
57.92000 -1.358
57.94000 0.427
57.96000 2.730
57.98000 2.435
58.00000 1.498
58.02000 1.766
58.04000 3.692
58.06000 2.733
58.08000 1.406
58.10000 1.577
58.12000 2.858
58.14000 3.074
58.16000 3.448
58.18000 1.854
58.20000 2.871
58.22000 4.418
58.24000 2.477
58.26000 1.059
58.28000 0.612
58.30000 4.217
58.32000 1.670
58.34000 -0.176
58.36000 2.687
58.38000 2.748
58.40000 2.871
58.42000 1.796
58.44000 2.929
58.46000 3.506
58.48000 0.831
58.50000 3.690
58.52000 3.247
58.54000 3.596
58.56000 3.087
58.58000 5.288
58.60000 5.007
58.62000 1.148
58.64000 1.106
58.66000 0.468
58.68000 3.365
58.70000 2.954
58.72000 0.333
58.74000 0.797
58.76000 0.758
58.78000 -0.231
58.80000 0.423
58.82000 -1.822
58.84000 -2.286
58.86000 -0.384
58.88000 2.521
58.90000 3.581
58.92000 2.435
58.94000 3.620
58.96000 -1.123
58.98000 -0.376
59.00000 1.068
59.02000 1.299
59.04000 1.936
59.06000 0.095
59.08000 -0.488
59.10000 -1.089
59.12000 2.278
59.14000 4.409
59.16000 1.310
59.18000 0.573
59.20000 0.486
59.22000 -1.894
59.24000 1.085
59.26000 1.674
59.28000 -1.048
59.30000 -0.130
59.32000 0.607
59.34000 -0.729
59.36000 -0.216
59.38000 1.381
59.40000 -2.255
59.42000 1.909
59.44000 2.109
59.46000 0.528
59.48000 2.034
59.50000 2.494
59.52000 1.538
59.54000 4.087
59.56000 2.456
59.58000 1.282
59.60000 4.036
59.62000 4.454
59.64000 2.586
59.66000 1.253
59.68000 2.523
59.70000 3.483
59.72000 3.605
59.74000 2.747
59.76000 1.038
59.78000 0.010
59.80000 2.204
59.82000 2.365
59.84000 4.264
59.86000 3.865
59.88000 4.533
59.90000 3.482
59.92000 2.612
59.94000 0.022
59.96000 -1.530
59.98000 1.181
60.00000 -1.136
60.02000 0.426
60.04000 0.938
60.06000 4.266
60.08000 0.747
60.10000 -0.793
60.12000 1.273
60.14000 2.302
60.16000 1.854
60.18000 0.269
60.20000 0.346
60.22000 -0.195
60.24000 -0.484
60.26000 -2.234
60.28000 0.798
60.30000 2.488
60.32000 -0.637
60.34000 1.685
60.36000 0.707
60.38000 2.220
60.40000 2.447
60.42000 2.056
60.44000 2.340
60.46000 1.079
60.48000 -2.236
60.50000 0.735
60.52000 -0.692
60.54000 1.753
60.56000 0.238
60.58000 3.421
60.60000 1.278
60.62000 1.844
60.64000 0.883
60.66000 0.920
60.68000 0.767
60.70000 -0.132
60.72000 1.118
60.74000 -0.573
60.76000 3.284
60.78000 2.186
60.80000 2.544
60.82000 1.060
60.84000 1.572
60.86000 0.633
60.88000 0.293
60.90000 2.622
60.92000 3.149
60.94000 1.471
60.96000 5.546
60.98000 5.907
61.00000 5.126
61.02000 1.870
61.04000 2.359
61.06000 2.861
61.08000 -0.978
61.10000 3.321
61.12000 0.337
61.14000 1.017
61.16000 3.856
61.18000 2.782
61.20000 -0.668
61.22000 0.495
61.24000 3.700
61.26000 2.545
61.28000 -0.366
61.30000 6.547
61.32000 4.512
61.34000 2.078
61.36000 4.157
61.38000 2.900
61.40000 2.747
61.42000 0.609
61.44000 1.449
61.46000 1.119
61.48000 0.639
61.50000 -0.215
61.52000 -2.213
61.54000 0.551
61.56000 3.287
61.58000 2.972
61.60000 2.787
61.62000 -0.669
61.64000 -0.650
61.66000 -1.063
61.68000 -1.606
61.70000 0.116
61.72000 1.590
61.74000 1.188
61.76000 1.356
61.78000 4.734
61.80000 2.708
61.82000 2.867
61.84000 -1.706
61.86000 -1.802
61.88000 2.431
61.90000 2.962
61.92000 4.427
61.94000 1.100
61.96000 2.966
61.98000 0.192
62.00000 -0.998
62.02000 2.018
62.04000 3.527
62.06000 6.773
62.08000 5.252
62.10000 3.133
62.12000 3.158
62.14000 2.375
62.16000 1.054
62.18000 0.615
62.20000 -0.225
62.22000 3.045
62.24000 1.384
62.26000 -2.006
62.28000 -2.191
62.30000 1.266
62.32000 2.292
62.34000 3.896
62.36000 1.236
62.38000 -0.510
62.40000 0.147
62.42000 4.180
62.44000 3.359
62.46000 1.150
62.48000 3.270
62.50000 3.183
62.52000 3.645
62.54000 0.085
62.56000 -0.321
62.58000 1.384
62.60000 1.968
62.62000 1.029
62.64000 0.083
62.66000 2.242
62.68000 1.383
62.70000 -0.037
62.72000 -1.649
62.74000 -1.280
62.76000 -0.846
62.78000 0.847
62.80000 -0.326
62.82000 -1.538
62.84000 0.159
62.86000 4.194
62.88000 4.398
62.90000 3.295
62.92000 -0.219
62.94000 -0.550
62.96000 -2.182
62.98000 1.389
63.00000 1.095
63.02000 0.953
63.04000 -0.749
63.06000 0.757
63.08000 0.842
63.10000 -1.401
63.12000 1.968
63.14000 1.697
63.16000 0.879
63.18000 2.227
63.20000 1.897
63.22000 0.723
63.24000 3.648
63.26000 1.625
63.28000 3.154
63.30000 0.929
63.32000 -0.705
63.34000 -0.629
63.36000 -2.184
63.38000 0.686
63.40000 2.796
63.42000 1.983
63.44000 2.654
63.46000 2.881
63.48000 -1.090
63.50000 -1.235
63.52000 -0.645
63.54000 0.658
63.56000 -1.677
63.58000 -2.072
63.60000 1.151
63.62000 0.999
63.64000 -1.989
63.66000 -0.235
63.68000 -0.742
63.70000 -0.019
63.72000 1.668
63.74000 0.114
63.76000 -0.158
63.78000 1.295
63.80000 1.794
63.82000 3.872
63.84000 4.364
63.86000 2.724
63.88000 1.009
63.90000 2.913
63.92000 3.740
63.94000 1.610
63.96000 0.343
63.98000 0.324
64.00000 0.317
64.02000 1.842
64.04000 2.530
64.06000 1.346
64.08000 0.062
64.10000 0.344
64.12000 0.038
64.14000 -0.974
64.16000 0.786
64.18000 2.981
64.20000 1.880
64.22000 1.951
64.24000 3.144
64.26000 0.538
64.28000 -1.260
64.30000 -2.168
64.32000 -0.699
64.34000 2.371
64.36000 1.846
64.38000 1.569
64.40000 2.988
64.42000 2.491
64.44000 0.424
64.46000 -0.027
64.48000 -0.253
64.50000 -2.170
64.52000 -0.841
64.54000 -1.021
64.56000 1.464
64.58000 2.861
64.60000 3.524
64.62000 1.852
64.64000 1.123
64.66000 1.156
64.68000 -1.350
64.70000 2.267
64.72000 1.755
64.74000 -0.598
64.76000 0.293
64.78000 0.881
64.80000 1.249
64.82000 3.283
64.84000 2.321
64.86000 2.054
64.88000 0.451
64.90000 1.242
64.92000 0.347
64.94000 -0.906
64.96000 -0.447
64.98000 0.498
65.00000 1.144
65.02000 2.205
65.04000 1.096
65.06000 0.297
65.08000 1.261
65.10000 1.611
65.12000 1.770
65.14000 3.891
65.16000 2.071
65.18000 -0.555
65.20000 0.899
65.22000 3.852
65.24000 1.784
65.26000 4.205
65.28000 4.186
65.30000 2.976
65.32000 1.610
65.34000 -0.664
65.36000 -1.867
65.38000 1.687
65.40000 2.456
65.42000 2.380
65.44000 2.718
65.46000 2.191
65.48000 -0.762
65.50000 0.755
65.52000 -0.319
65.54000 -2.132
65.56000 -1.040
65.58000 2.052
65.60000 1.059
65.62000 1.554
65.64000 0.406
65.66000 1.597
65.68000 4.478
65.70000 4.683
65.72000 4.047
65.74000 3.069
65.76000 2.286
65.78000 1.164
65.80000 3.491
65.82000 2.341
65.84000 2.960
65.86000 2.293
65.88000 -0.299
65.90000 -0.598
65.92000 0.445
65.94000 0.767
65.96000 2.865
65.98000 -0.208
66.00000 -2.084
66.02000 -0.158
66.04000 3.687
66.06000 4.111
66.08000 3.516
66.10000 3.621
66.12000 2.304
66.14000 4.296
66.16000 4.212
66.18000 2.947
66.20000 1.062
66.22000 1.155
66.24000 1.449
66.26000 3.394
66.28000 3.562
66.30000 5.652
66.32000 2.973
66.34000 1.124
66.36000 -1.050
66.38000 2.278
66.40000 2.968
66.42000 2.539
66.44000 3.229
66.46000 0.945
66.48000 2.802
66.50000 4.070
66.52000 2.107
66.54000 0.178
66.56000 -1.005
66.58000 0.669
66.60000 1.050
66.62000 1.455
66.64000 0.763
66.66000 1.989
66.68000 -0.629
66.70000 0.253
66.72000 0.947
66.74000 1.956
66.76000 -1.132
66.78000 -2.066
66.80000 -1.109
66.82000 -0.831
66.84000 -0.165
66.86000 1.958
66.88000 2.636
66.90000 2.322
66.92000 2.206
66.94000 -1.185
66.96000 -1.115
66.98000 -1.619
67.00000 -2.161
67.02000 -0.181
67.04000 0.778
67.06000 -0.033
67.08000 -0.779
67.10000 -0.374
67.12000 -0.199
67.14000 0.368
67.16000 -0.124
67.18000 0.095
67.20000 0.039
67.22000 2.709
67.24000 0.983
67.26000 1.569
67.28000 0.483
67.30000 -0.414
67.32000 -1.646
67.34000 -0.211
67.36000 -1.205
67.38000 -2.172
67.40000 -1.062
67.42000 -0.813
67.44000 -1.371
67.46000 -0.730
67.48000 -0.329
67.50000 -1.241
67.52000 -0.166
67.54000 0.244
67.56000 0.306
67.58000 0.860
67.60000 0.901
67.62000 1.109
67.64000 2.083
67.66000 1.732
67.68000 -0.346
67.70000 -2.185
67.72000 0.760
67.74000 -0.108
67.76000 0.056
67.78000 0.955
67.80000 -2.191
67.82000 -1.351
67.84000 0.898
67.86000 1.819
67.88000 1.896
67.90000 3.794
67.92000 3.547
67.94000 2.621
67.96000 0.446
67.98000 1.784
68.00000 2.730
68.02000 1.774
68.04000 1.676
68.06000 3.125
68.08000 1.776
68.10000 0.035
68.12000 1.548
68.14000 7.090
68.16000 6.204
68.18000 5.586
68.20000 4.913
68.22000 4.156
68.24000 4.611
68.26000 6.272
68.28000 8.352
68.30000 9.464
68.32000 11.771
68.34000 8.028
68.36000 7.890
68.38000 13.035
68.40000 13.354
68.42000 10.403
68.44000 10.929
68.46000 13.384
68.48000 15.271
68.50000 16.291
68.52000 16.724
68.54000 18.295
68.56000 19.360
68.58000 19.117
68.60000 17.506
68.62000 15.794
68.64000 18.609
68.66000 20.140
68.68000 22.990
68.70000 22.985
68.72000 21.080
68.74000 21.709
68.76000 22.375
68.78000 26.818
68.80000 25.626
68.82000 25.458
68.84000 26.890
68.86000 28.897
68.88000 31.101
68.90000 25.731
68.92000 27.514
68.94000 29.207
68.96000 27.003
68.98000 27.990
69.00000 29.742
69.02000 29.020
69.04000 25.291
69.06000 23.833
69.08000 26.735
69.10000 26.923
69.12000 25.111
69.14000 25.434
69.16000 19.786
69.18000 22.652
69.20000 22.106
69.22000 22.822
69.24000 19.174
69.26000 17.359
69.28000 16.882
69.30000 13.327
69.32000 13.922
69.34000 17.954
69.36000 18.014
69.38000 19.266
69.40000 16.978
69.42000 14.816
69.44000 12.354
69.46000 9.404
69.48000 8.590
69.50000 12.350
69.52000 12.020
69.54000 5.880
69.56000 6.664
69.58000 10.200
69.60000 11.853
69.62000 9.127
69.64000 8.696
69.66000 7.216
69.68000 6.731
69.70000 5.317
69.72000 4.389
69.74000 3.209
69.76000 3.142
69.78000 4.996
69.80000 5.499
69.82000 3.020
69.84000 2.449
69.86000 5.764
69.88000 5.227
69.90000 0.945
69.92000 -0.552
69.94000 -0.596
69.96000 4.530
69.98000 3.930
70.00000 2.631
70.02000 1.518
70.04000 -0.357
70.06000 0.834
70.08000 2.325
70.10000 1.372
70.12000 0.540
70.14000 -0.201
70.16000 -0.237
70.18000 0.945
70.20000 0.152
70.22000 1.140
70.24000 -0.239
70.26000 0.872
70.28000 4.222
70.30000 1.683
70.32000 1.444
70.34000 0.675
70.36000 2.018
70.38000 4.414
70.40000 3.546
70.42000 1.948
70.44000 1.013
70.46000 4.719
70.48000 7.229
70.50000 4.310
70.52000 3.711
70.54000 2.227
70.56000 0.916
70.58000 1.608
70.60000 2.183
70.62000 2.537
70.64000 4.314
70.66000 3.181
70.68000 1.464
70.70000 -1.968
70.72000 0.353
70.74000 1.741
70.76000 2.767
70.78000 1.898
70.80000 2.448
70.82000 4.186
70.84000 3.621
70.86000 5.231
70.88000 5.352
70.90000 2.074
70.92000 -1.086
70.94000 0.623
70.96000 1.625
70.98000 0.685
71.00000 1.663
71.02000 4.070
71.04000 3.564
71.06000 2.227
71.08000 0.838
71.10000 1.342
71.12000 2.534
71.14000 1.491
71.16000 2.224
71.18000 1.686
71.20000 1.462
71.22000 2.749
71.24000 0.946
71.26000 2.724
71.28000 1.550
71.30000 1.271
71.32000 2.638
71.34000 4.090
71.36000 2.717
71.38000 1.954
71.40000 -1.224
71.42000 -0.633
71.44000 3.821
71.46000 4.231
71.48000 0.499
71.50000 0.426
71.52000 1.416
71.54000 3.342
71.56000 2.324
71.58000 3.472
71.60000 0.516
71.62000 0.464
71.64000 2.278
71.66000 -0.601
71.68000 -1.941
71.70000 -0.001
71.72000 3.260
71.74000 1.250
71.76000 0.161
71.78000 0.713
71.80000 0.031
71.82000 0.873
71.84000 2.139
71.86000 2.684
71.88000 2.693
71.90000 1.110
71.92000 1.617
71.94000 1.880
71.96000 4.482
71.98000 2.090
72.00000 4.358
72.02000 2.696
72.04000 1.640
72.06000 1.248
72.08000 1.295
72.10000 -0.476
72.12000 2.015
72.14000 0.622
72.16000 -0.029
72.18000 -0.245
72.20000 3.688
72.22000 0.955
72.24000 -1.461
72.26000 -0.236
72.28000 0.263
72.30000 0.382
72.32000 1.291
72.34000 1.357
72.36000 0.646
72.38000 2.504
72.40000 4.606
72.42000 4.404
72.44000 -1.791
72.46000 -1.897
72.48000 -0.342
72.50000 1.195
72.52000 2.024
72.54000 2.188
72.56000 3.304
72.58000 2.479
72.60000 3.406
72.62000 3.158
72.64000 1.480
72.66000 -1.579
72.68000 0.186
72.70000 3.602
72.72000 3.237
72.74000 1.263
72.76000 2.427
72.78000 2.197
72.80000 0.916
72.82000 3.406
72.84000 3.249
72.86000 1.669
72.88000 0.691
72.90000 0.169
72.92000 0.120
72.94000 0.223
72.96000 3.505
72.98000 2.759
73.00000 1.616
73.02000 -0.098
73.04000 -0.912
73.06000 1.253
73.08000 0.932
73.10000 0.630
73.12000 1.887
73.14000 1.474
73.16000 3.110
73.18000 1.828
73.20000 2.173
73.22000 1.425
73.24000 -1.888
73.26000 -1.247
73.28000 -0.640
73.30000 -0.667
73.32000 -1.279
73.34000 1.649
73.36000 4.236
73.38000 1.611
73.40000 1.443
73.42000 1.031
73.44000 2.481
73.46000 2.764
73.48000 1.431
73.50000 0.137
73.52000 1.502
73.54000 1.315
73.56000 -0.504
73.58000 -0.260
73.60000 2.062
73.62000 -0.500
73.64000 -0.799
73.66000 3.083
73.68000 3.653
73.70000 1.018
73.72000 1.123
73.74000 4.020
73.76000 1.467
73.78000 -0.680
73.80000 -1.878
73.82000 -1.673
73.84000 2.984
73.86000 2.650
73.88000 -1.273
73.90000 -0.112
73.92000 1.944
73.94000 0.343
73.96000 0.707
73.98000 0.477
74.00000 1.896
74.02000 -1.864
74.04000 -0.383
74.06000 0.966
74.08000 -1.354
74.10000 1.625
74.12000 1.338
74.14000 3.475
74.16000 2.882
74.18000 3.304
74.20000 1.423
74.22000 0.951
74.24000 -0.194
74.26000 -1.856
74.28000 -0.478
74.30000 2.270
74.32000 3.435
74.34000 1.950
74.36000 1.847
74.38000 1.012
74.40000 1.105
74.42000 2.565
74.44000 1.387
74.46000 1.904
74.48000 0.938
74.50000 0.031
74.52000 1.740
74.54000 4.301
74.56000 3.539
74.58000 4.757
74.60000 2.296
74.62000 2.520
74.64000 1.513
74.66000 -1.857
74.68000 -1.556
74.70000 0.653
74.72000 3.230
74.74000 4.787
74.76000 2.313
74.78000 3.501
74.80000 0.619
74.82000 0.582
74.84000 2.227
74.86000 0.692
74.88000 -1.166
74.90000 1.641
74.92000 1.080
74.94000 0.997
74.96000 0.442
74.98000 3.478
75.00000 2.449
75.02000 1.094
75.04000 -0.033
75.06000 0.966
75.08000 3.987
75.10000 1.776
75.12000 1.016
75.14000 -0.402
75.16000 -0.112
75.18000 0.595
75.20000 -0.903
75.22000 0.692
75.24000 -0.331
75.26000 1.254
75.28000 2.536
75.30000 1.996
75.32000 4.335
75.34000 3.332
75.36000 1.537
75.38000 -1.637
75.40000 -0.010
75.42000 -1.544
75.44000 -1.809
75.46000 0.098
75.48000 1.132
75.50000 1.158
75.52000 -1.325
75.54000 -0.377
75.56000 1.367
75.58000 0.729
75.60000 2.364
75.62000 3.057
75.64000 3.897
75.66000 3.596
75.68000 3.440
75.70000 1.839
75.72000 -0.656
75.74000 -0.387
75.76000 0.187
75.78000 0.521
75.80000 1.323
75.82000 1.507
75.84000 0.471
75.86000 2.291
75.88000 2.871
75.90000 -0.907
75.92000 1.292
75.94000 6.092
75.96000 4.399
75.98000 4.250
76.00000 1.608
76.02000 0.035
76.04000 -0.685
76.06000 2.525
76.08000 6.965
76.10000 6.031
76.12000 3.654
76.14000 2.643
76.16000 1.906
76.18000 0.784
76.20000 2.454
76.22000 4.799
76.24000 3.457
76.26000 4.593
76.28000 1.124
76.30000 -1.063
76.32000 1.606
76.34000 -0.598
76.36000 -1.812
76.38000 0.202
76.40000 1.926
76.42000 2.640
76.44000 5.381
76.46000 4.763
76.48000 2.500
76.50000 1.788
76.52000 2.398
76.54000 3.032
76.56000 2.198
76.58000 1.745
76.60000 2.302
76.62000 4.116
76.64000 3.617
76.66000 3.420
76.68000 6.208
76.70000 5.307
76.72000 5.592
76.74000 3.234
76.76000 0.052
76.78000 1.761
76.80000 2.003
76.82000 0.187
76.84000 1.409
76.86000 2.281
76.88000 3.913
76.90000 3.806
76.92000 0.995
76.94000 1.104
76.96000 2.231
76.98000 2.510
77.00000 2.205
77.02000 5.486
77.04000 5.189
77.06000 0.552
77.08000 1.795
77.10000 4.906
77.12000 2.465
77.14000 2.062
77.16000 3.977
77.18000 3.533
77.20000 1.743
77.22000 2.388
77.24000 3.286
77.26000 4.288
77.28000 3.333
77.30000 2.323
77.32000 3.759
77.34000 5.747
77.36000 3.208
77.38000 1.956
77.40000 2.651
77.42000 4.976
77.44000 5.161
77.46000 7.056
77.48000 4.215
77.50000 5.386
77.52000 3.634
77.54000 2.527
77.56000 0.657
77.58000 -1.846
77.60000 0.949
77.62000 2.642
77.64000 1.198
77.66000 1.905
77.68000 -1.852
77.70000 0.249
77.72000 3.817
77.74000 4.156
77.76000 1.853
77.78000 1.453
77.80000 1.998
77.82000 5.568
77.84000 3.846
77.86000 4.138
77.88000 2.779
77.90000 3.087
77.92000 0.785
77.94000 -1.546
77.96000 0.057
77.98000 -0.358
78.00000 -0.279
78.02000 -1.529
78.04000 -0.269
78.06000 0.233
78.08000 3.401
78.10000 1.842
78.12000 1.590
78.14000 1.642
78.16000 -0.242
78.18000 -1.869
78.20000 0.425
78.22000 -0.590
78.24000 2.426
78.26000 1.741
78.28000 1.335
78.30000 0.268
78.32000 -1.129
78.34000 0.847
78.36000 0.340
78.38000 0.149
78.40000 0.836
78.42000 1.939
78.44000 0.352
78.46000 -1.609
78.48000 0.648
78.50000 -0.339
78.52000 1.788
78.54000 0.058
78.56000 0.552
78.58000 2.203
78.60000 -1.529
78.62000 -0.734
78.64000 -1.921
78.66000 -1.240
78.68000 -0.471
78.70000 0.458
78.72000 3.533
78.74000 3.371
78.76000 2.474
78.78000 0.723
78.80000 0.332
78.82000 0.035
78.84000 -0.895
78.86000 3.383
78.88000 -0.022
78.90000 -1.118
78.92000 -1.368
78.94000 0.667
78.96000 1.107
78.98000 -1.931
79.00000 -0.322
79.02000 0.971
79.04000 -1.684
79.06000 -1.198
79.08000 -0.204
79.10000 0.516
79.12000 0.202
79.14000 1.851
79.16000 1.230
79.18000 -0.251
79.20000 -1.006
79.22000 -0.529
79.24000 0.945
79.26000 1.982
79.28000 -1.904
79.30000 -1.778
79.32000 1.188
79.34000 -1.114
79.36000 2.039
79.38000 0.546
79.40000 1.679
79.42000 1.152
79.44000 3.284
79.46000 1.413
79.48000 1.599
79.50000 1.586
79.52000 -1.016
79.54000 0.495
79.56000 2.099
79.58000 1.022
79.60000 0.219
79.62000 0.421
79.64000 0.635
79.66000 0.468
79.68000 4.367
79.70000 3.621
79.72000 -0.885
79.74000 0.141
79.76000 3.389
79.78000 3.973
79.80000 0.712
79.82000 -1.906
79.84000 1.849
79.86000 5.252
79.88000 4.330
79.90000 5.241
79.92000 4.104
79.94000 2.286
79.96000 -1.897
79.98000 -0.390
80.00000 1.347
80.02000 1.357
80.04000 0.171
80.06000 1.799
80.08000 1.442
80.10000 0.905
80.12000 1.265
80.14000 3.659
80.16000 1.825
80.18000 1.020
80.20000 4.048
80.22000 4.972
80.24000 1.802
80.26000 1.676
80.28000 3.219
80.30000 2.785
80.32000 1.717
80.34000 -1.942
80.36000 1.061
80.38000 0.509
80.40000 -0.386
80.42000 0.622
80.44000 2.640
80.46000 1.421
80.48000 -0.178
80.50000 1.596
80.52000 1.631
80.54000 0.147
80.56000 0.789
80.58000 2.253
80.60000 0.674
80.62000 -0.060
80.64000 1.463
80.66000 1.578
80.68000 2.665
80.70000 2.431
80.72000 1.239
80.74000 2.214
80.76000 3.396
80.78000 2.342
80.80000 -0.279
80.82000 -1.976
80.84000 -1.474
80.86000 0.429
80.88000 2.490
80.90000 3.877
80.92000 4.067
80.94000 1.995
80.96000 2.781
80.98000 3.348
81.00000 -0.136
81.02000 -1.091
81.04000 3.693
81.06000 0.064
81.08000 -0.135
81.10000 -1.987
81.12000 -0.276
81.14000 3.599
81.16000 3.741
81.18000 2.935
81.20000 4.184
81.22000 2.517
81.24000 1.548
81.26000 1.390
81.28000 1.098
81.30000 2.336
81.32000 0.897
81.34000 1.981
81.36000 1.207
81.38000 0.652
81.40000 0.629
81.42000 -1.528
81.44000 1.535
81.46000 1.756
81.48000 0.857
81.50000 0.390
81.52000 1.621
81.54000 4.057
81.56000 1.438
81.58000 3.261
81.60000 1.475
81.62000 1.682
81.64000 -0.098
81.66000 -2.005
81.68000 -1.093
81.70000 0.999
81.72000 1.809
81.74000 6.119
81.76000 5.306
81.78000 4.259
81.80000 1.449
81.82000 0.055
81.84000 4.012
81.86000 4.218
81.88000 4.138
81.90000 2.233
81.92000 5.635
81.94000 6.470
81.96000 6.343
81.98000 4.729
82.00000 6.855
82.02000 5.588
82.04000 6.397
82.06000 7.525
82.08000 7.700
82.10000 9.785
82.12000 9.935
82.14000 11.510
82.16000 9.511
82.18000 8.545
82.20000 8.589
82.22000 8.379
82.24000 7.723
82.26000 10.587
82.28000 11.531
82.30000 12.090
82.32000 11.701
82.34000 11.669
82.36000 13.146
82.38000 12.827
82.40000 14.653
82.42000 13.999
82.44000 12.113
82.46000 15.154
82.48000 17.124
82.50000 19.985
82.52000 20.464
82.54000 19.294
82.56000 17.569
82.58000 17.959
82.60000 20.256
82.62000 24.947
82.64000 25.822
82.66000 22.307
82.68000 23.416
82.70000 24.806
82.72000 27.740
82.74000 28.336
82.76000 32.546
82.78000 33.215
82.80000 37.205
82.82000 33.259
82.84000 35.120
82.86000 41.012
82.88000 41.960
82.90000 37.908
82.92000 37.642
82.94000 40.534
82.96000 43.886
82.98000 45.338
83.00000 42.632
83.02000 42.443
83.04000 45.215
83.06000 45.536
83.08000 52.603
83.10000 51.342
83.12000 48.339
83.14000 53.782
83.16000 56.777
83.18000 49.282
83.20000 49.650
83.22000 47.802
83.24000 47.727
83.26000 49.455
83.28000 48.518
83.30000 43.919
83.32000 43.520
83.34000 42.416
83.36000 46.052
83.38000 44.325
83.40000 40.097
83.42000 36.310
83.44000 36.412
83.46000 35.941
83.48000 37.200
83.50000 39.002
83.52000 39.172
83.54000 34.157
83.56000 33.187
83.58000 35.330
83.60000 28.514
83.62000 25.866
83.64000 25.998
83.66000 26.866
83.68000 23.867
83.70000 22.530
83.72000 28.373
83.74000 30.860
83.76000 24.363
83.78000 18.967
83.80000 20.511
83.82000 18.659
83.84000 16.256
83.86000 15.409
83.88000 14.624
83.90000 14.115
83.92000 16.093
83.94000 14.141
83.96000 11.941
83.98000 10.877
84.00000 10.156
84.02000 10.922
84.04000 11.114
84.06000 10.583
84.08000 8.885
84.10000 6.561
84.12000 6.941
84.14000 9.889
84.16000 10.967
84.18000 10.288
84.20000 8.515
84.22000 7.973
84.24000 12.702
84.26000 6.857
84.28000 4.879
84.30000 4.774
84.32000 4.882
84.34000 4.574
84.36000 1.878
84.38000 1.828
84.40000 0.168
84.42000 3.695
84.44000 3.896
84.46000 0.946
84.48000 0.680
84.50000 4.170
84.52000 1.852
84.54000 2.384
84.56000 -0.647
84.58000 1.893
84.60000 1.495
84.62000 -0.047
84.64000 3.402
84.66000 4.286
84.68000 3.416
84.70000 2.041
84.72000 0.433
84.74000 3.107
84.76000 3.530
84.78000 1.815
84.80000 0.337
84.82000 0.511
84.84000 -0.794
84.86000 0.886
84.88000 0.350
84.90000 -0.347
84.92000 0.531
84.94000 3.575
84.96000 4.209
84.98000 0.653
85.00000 -1.336
85.02000 -1.442
85.04000 0.364
85.06000 1.668
85.08000 1.244
85.10000 -1.283
85.12000 0.346
85.14000 1.201
85.16000 1.024
85.18000 -1.855
85.20000 2.220
85.22000 1.422
85.24000 0.256
85.26000 -1.387
85.28000 1.102
85.30000 -1.966
85.32000 1.279
85.34000 2.871
85.36000 -1.316
85.38000 2.042
85.40000 3.137
85.42000 3.203
85.44000 1.746
85.46000 1.027
85.48000 -0.718
85.50000 0.578
85.52000 -0.645
85.54000 0.402
85.56000 2.901
85.58000 2.455
85.60000 1.969
85.62000 0.918
85.64000 0.209
85.66000 1.599
85.68000 0.529
85.70000 -0.875
85.72000 1.129
85.74000 3.495
85.76000 1.437
85.78000 2.134
85.80000 2.173
85.82000 2.823
85.84000 4.758
85.86000 3.687
85.88000 3.992
85.90000 0.193
85.92000 -1.921
85.94000 1.366
85.96000 5.072
85.98000 4.795
86.00000 1.538
86.02000 1.167
86.04000 2.971
86.06000 5.853
86.08000 2.525
86.10000 2.865
86.12000 4.726
86.14000 4.356
86.16000 1.830
86.18000 6.185
86.20000 5.620
86.22000 4.130
86.24000 2.828
86.26000 3.184
86.28000 2.666
86.30000 1.851
86.32000 0.599
86.34000 0.606
86.36000 2.172
86.38000 3.883
86.40000 2.781
86.42000 3.586
86.44000 2.150
86.46000 0.676
86.48000 -0.021
86.50000 0.022
86.52000 0.421
86.54000 1.997
86.56000 1.749
86.58000 2.301
86.60000 0.028
86.62000 1.865
86.64000 3.317
86.66000 3.143
86.68000 2.464
86.70000 5.185
86.72000 8.197
86.74000 7.830
86.76000 8.077
86.78000 8.249
86.80000 6.490
86.82000 3.274
86.84000 5.871
86.86000 8.260
86.88000 5.757
86.90000 4.878
86.92000 6.629
86.94000 6.827
86.96000 7.517
86.98000 10.550
87.00000 10.897
87.02000 8.594
87.04000 10.209
87.06000 9.575
87.08000 11.305
87.10000 13.263
87.12000 16.382
87.14000 16.905
87.16000 15.836
87.18000 14.720
87.20000 11.420
87.22000 15.158
87.24000 16.521
87.26000 18.798
87.28000 18.169
87.30000 18.655
87.32000 20.605
87.34000 22.696
87.36000 24.716
87.38000 28.044
87.40000 29.539
87.42000 27.485
87.44000 21.198
87.46000 19.800
87.48000 27.461
87.50000 30.068
87.52000 27.619
87.54000 28.581
87.56000 30.048
87.58000 28.715
87.60000 27.767
87.62000 28.255
87.64000 26.042
87.66000 26.545
87.68000 26.867
87.70000 27.856
87.72000 27.560
87.74000 22.978
87.76000 25.422
87.78000 26.496
87.80000 27.666
87.82000 22.194
87.84000 22.881
87.86000 24.745
87.88000 24.697
87.90000 20.376
87.92000 21.859
87.94000 24.644
87.96000 20.627
87.98000 18.630
88.00000 19.172
88.02000 16.281
88.04000 14.198
88.06000 13.865
88.08000 9.941
88.10000 10.955
88.12000 14.974
88.14000 16.234
88.16000 14.087
88.18000 15.210
88.20000 13.360
88.22000 10.908
88.24000 12.572
88.26000 9.863
88.28000 12.850
88.30000 10.824
88.32000 11.538
88.34000 11.446
88.36000 9.618
88.38000 7.803
88.40000 7.047
88.42000 9.630
88.44000 6.121
88.46000 5.657
88.48000 5.374
88.50000 8.897
88.52000 11.482
88.54000 6.953
88.56000 4.416
88.58000 4.396
88.60000 4.120
88.62000 5.064
88.64000 4.161
88.66000 3.783
88.68000 4.517
88.70000 3.656
88.72000 5.097
88.74000 5.149
88.76000 5.399
88.78000 3.544
88.80000 3.372
88.82000 3.762
88.84000 1.807
88.86000 4.230
88.88000 0.555
88.90000 0.235
88.92000 0.724
88.94000 2.146
88.96000 2.036
88.98000 1.946
89.00000 3.482
89.02000 2.067
89.04000 -0.302
89.06000 1.102
89.08000 2.545
89.10000 0.028
89.12000 -0.318
89.14000 3.037
89.16000 1.324
89.18000 0.895
89.20000 1.045
89.22000 0.993
89.24000 2.837
89.26000 2.478
89.28000 1.939
89.30000 0.947
89.32000 -0.048
89.34000 -1.850
89.36000 1.255
89.38000 3.234
89.40000 3.773
89.42000 2.187
89.44000 1.828
89.46000 1.910
89.48000 -0.127
89.50000 0.854
89.52000 2.747
89.54000 2.430
89.56000 0.549
89.58000 0.763
89.60000 6.549
89.62000 7.453
89.64000 3.973
89.66000 1.975
89.68000 2.261
89.70000 1.214
89.72000 -1.792
89.74000 1.943
89.76000 2.589
89.78000 0.628
89.80000 -1.150
89.82000 3.339
89.84000 6.590
89.86000 4.769
89.88000 3.120
89.90000 0.653
89.92000 2.865
89.94000 2.867
89.96000 2.306
89.98000 2.789
90.00000 3.585
90.02000 2.880
90.04000 1.888
90.06000 3.672
90.08000 6.072
90.10000 5.509
90.12000 3.030
90.14000 3.825
90.16000 3.595
90.18000 5.644
90.20000 2.066
90.22000 -0.362
90.24000 3.109
90.26000 5.337
90.28000 1.495
90.30000 1.912
90.32000 1.636
90.34000 4.846
90.36000 2.908
90.38000 3.854
90.40000 2.839
90.42000 3.959
90.44000 1.604
90.46000 2.206
90.48000 3.078
90.50000 3.929
90.52000 5.818
90.54000 6.632
90.56000 4.480
90.58000 2.055
90.60000 6.064
90.62000 4.905
90.64000 4.190
90.66000 0.702
90.68000 -1.721
90.70000 0.261
90.72000 1.074
90.74000 -0.034
90.76000 2.586
90.78000 5.126
90.80000 5.049
90.82000 5.180
90.84000 4.650
90.86000 3.065
90.88000 0.815
90.90000 5.734
90.92000 5.101
90.94000 2.433
90.96000 3.145
90.98000 1.854
91.00000 -0.038
91.02000 -0.112
91.04000 -0.171
91.06000 0.890
91.08000 2.605
91.10000 1.869
91.12000 0.562
91.14000 -1.133
91.16000 0.253
91.18000 4.223
91.20000 4.004
91.22000 1.656
91.24000 1.185
91.26000 5.689
91.28000 4.118
91.30000 1.075
91.32000 4.042
91.34000 6.270
91.36000 3.608
91.38000 4.778
91.40000 4.411
91.42000 3.168
91.44000 1.396
91.46000 0.758
91.48000 1.793
91.50000 1.575
91.52000 5.134
91.54000 3.901
91.56000 2.618
91.58000 0.935
91.60000 1.621
91.62000 2.634
91.64000 5.317
91.66000 5.578
91.68000 2.733
91.70000 5.512
91.72000 3.353
91.74000 3.442
91.76000 4.531
91.78000 3.803
91.80000 2.353
91.82000 4.666
91.84000 6.988
91.86000 3.532
91.88000 5.654
91.90000 2.858
91.92000 1.283
91.94000 -1.750
91.96000 1.018
91.98000 4.554
92.00000 2.238
92.02000 2.963
92.04000 1.792
92.06000 1.136
92.08000 0.911
92.10000 0.789
92.12000 -1.293
92.14000 3.459
92.16000 3.391
92.18000 2.066
92.20000 3.981
92.22000 4.816
92.24000 4.122
92.26000 2.234
92.28000 0.589
92.30000 1.145
92.32000 1.541
92.34000 0.617
92.36000 2.420
92.38000 3.997
92.40000 2.544
92.42000 3.426
92.44000 4.344
92.46000 4.287
92.48000 2.282
92.50000 4.468
92.52000 1.686
92.54000 3.200
92.56000 5.089
92.58000 1.798
92.60000 -0.181
92.62000 0.125
92.64000 3.969
92.66000 2.915
92.68000 4.733
92.70000 -0.701
92.72000 0.945
92.74000 -0.292
92.76000 -1.257
92.78000 -1.152
92.80000 -0.487
92.82000 0.519
92.84000 -1.597
92.86000 -1.294
92.88000 0.747
92.90000 5.472
92.92000 3.543
92.94000 0.777
92.96000 2.195
92.98000 1.513
93.00000 -0.467
93.02000 -1.742
93.04000 -0.231
93.06000 1.863
93.08000 1.318
93.10000 3.040
93.12000 -1.787
93.14000 -1.662
93.16000 -0.673
93.18000 2.686
93.20000 3.717
93.22000 3.931
93.24000 2.906
93.26000 3.766
93.28000 3.278
93.30000 0.710
93.32000 0.303
93.34000 1.608
93.36000 1.315
93.38000 3.331
93.40000 3.684
93.42000 2.778
93.44000 1.127
93.46000 -0.367
93.48000 -0.105
93.50000 -1.763
93.52000 -0.694
93.54000 4.693
93.56000 2.632
93.58000 2.608
93.60000 5.146
93.62000 4.776
93.64000 2.692
93.66000 1.783
93.68000 -0.517
93.70000 4.134
93.72000 3.802
93.74000 0.961
93.76000 0.886
93.78000 0.732
93.80000 3.101
93.82000 5.537
93.84000 5.941
93.86000 2.783
93.88000 4.295
93.90000 6.830
93.92000 0.795
93.94000 -1.743
93.96000 5.474
93.98000 6.179
94.00000 5.241
94.02000 5.781
94.04000 4.110
94.06000 1.300
94.08000 3.287
94.10000 3.732
94.12000 6.678
94.14000 6.841
94.16000 3.070
94.18000 3.142
94.20000 4.291
94.22000 0.628
94.24000 2.776
94.26000 2.222
94.28000 3.133
94.30000 3.424
94.32000 3.977
94.34000 3.289
94.36000 3.579
94.38000 1.579
94.40000 2.816
94.42000 1.078
94.44000 1.439
94.46000 0.980
94.48000 2.614
94.50000 5.902
94.52000 4.036
94.54000 0.694
94.56000 -0.301
94.58000 1.989
94.60000 2.063
94.62000 2.833
94.64000 3.919
94.66000 4.687
94.68000 2.222
94.70000 1.315
94.72000 -1.787
94.74000 -0.024
94.76000 -0.527
94.78000 0.573
94.80000 3.919
94.82000 2.778
94.84000 4.768
94.86000 1.686
94.88000 2.743
94.90000 2.866
94.92000 0.661
94.94000 1.742
94.96000 2.971
94.98000 3.640
95.00000 4.603
95.02000 1.247
95.04000 1.996
95.06000 4.342
95.08000 3.984
95.10000 5.249
95.12000 4.034
95.14000 5.735
95.16000 6.290
95.18000 4.520
95.20000 0.922
95.22000 -0.670
95.24000 3.563
95.26000 1.022
95.28000 -0.053
95.30000 2.274
95.32000 3.953
95.34000 5.390
95.36000 7.189
95.38000 6.793
95.40000 5.933
95.42000 2.736
95.44000 4.804
95.46000 4.262
95.48000 2.222
95.50000 3.677
95.52000 5.781
95.54000 7.987
95.56000 6.425
95.58000 2.808
95.60000 3.057
95.62000 4.229
95.64000 5.754
95.66000 4.872
95.68000 1.718
95.70000 -1.743
95.72000 0.903
95.74000 2.781
95.76000 2.729
95.78000 3.176
95.80000 7.028
95.82000 6.457
95.84000 4.135
95.86000 2.450
95.88000 1.602
95.90000 2.351
95.92000 1.910
95.94000 2.574
95.96000 3.456
95.98000 5.164
96.00000 5.179
96.02000 4.669
96.04000 5.894
96.06000 4.104
96.08000 1.979
96.10000 1.159
96.12000 3.751
96.14000 4.677
96.16000 2.167
96.18000 2.262
96.20000 3.965
96.22000 2.742
96.24000 1.929
96.26000 2.870
96.28000 1.713
96.30000 3.736
96.32000 5.386
96.34000 4.441
96.36000 1.765
96.38000 3.395
96.40000 7.537
96.42000 6.717
96.44000 7.136
96.46000 8.266
96.48000 1.293
96.50000 2.202
96.52000 1.314
96.54000 2.833
96.56000 0.021
96.58000 -1.003
96.60000 -1.795
96.62000 2.492
96.64000 -0.157
96.66000 -0.319
96.68000 -1.694
96.70000 2.158
96.72000 2.965
96.74000 3.433
96.76000 1.663
96.78000 4.393
96.80000 5.538
96.82000 3.577
96.84000 -0.370
96.86000 -1.535
96.88000 -1.698
96.90000 1.302
96.92000 3.343
96.94000 3.630
96.96000 -0.201
96.98000 -1.797
97.00000 2.054
97.02000 2.093
97.04000 1.148
97.06000 3.634
97.08000 2.901
97.10000 1.823
97.12000 1.115
97.14000 2.500
97.16000 5.885
97.18000 4.004
97.20000 0.366
97.22000 -0.151
97.24000 2.170
97.26000 3.570
97.28000 2.668
97.30000 0.708
97.32000 2.615
97.34000 1.826
97.36000 -0.662
97.38000 2.513
97.40000 3.676
97.42000 -0.221
97.44000 -0.856
97.46000 -1.785
97.48000 -0.800
97.50000 3.987
97.52000 2.201
97.54000 2.532
97.56000 1.965
97.58000 4.569
97.60000 1.537
97.62000 2.949
97.64000 -0.306
97.66000 -0.697
97.68000 3.142
97.70000 4.135
97.72000 0.740
97.74000 1.832
97.76000 4.770
97.78000 -0.673
97.80000 -1.148
97.82000 0.483
97.84000 6.300
97.86000 6.863
97.88000 3.108
97.90000 0.146
97.92000 5.049
97.94000 1.262
97.96000 -1.772
97.98000 0.327
98.00000 4.395
98.02000 3.122
98.04000 0.604
98.06000 0.120
98.08000 4.475
98.10000 3.467
98.12000 -0.330
98.14000 3.465
98.16000 1.185
98.18000 2.625
98.20000 2.122
98.22000 -0.737
98.24000 0.973
98.26000 0.528
98.28000 2.352
98.30000 3.853
98.32000 1.278
98.34000 2.575
98.36000 3.304
98.38000 3.311
98.40000 4.186
98.42000 2.468
98.44000 0.240
98.46000 -0.359
98.48000 4.566
98.50000 3.513
98.52000 1.547
98.54000 1.749
98.56000 1.756
98.58000 -0.464
98.60000 1.921
98.62000 5.026
98.64000 5.016
98.66000 7.062
98.68000 4.837
98.70000 -1.738
98.72000 -1.203
98.74000 2.570
98.76000 3.317
98.78000 5.530
98.80000 3.247
98.82000 3.136
98.84000 1.266
98.86000 2.468
98.88000 1.761
98.90000 4.311
98.92000 5.690
98.94000 3.461
98.96000 2.972
98.98000 2.383
99.00000 -0.083
99.02000 1.478
99.04000 1.674
99.06000 1.964
99.08000 0.349
99.10000 1.013
99.12000 0.527
99.14000 5.570
99.16000 1.868
99.18000 4.725
99.20000 1.838
99.22000 4.001
99.24000 5.215
99.26000 1.425
99.28000 0.263
99.30000 1.161
99.32000 1.598
99.34000 -0.136
99.36000 6.546
99.38000 5.511
99.40000 7.190
99.42000 6.652
99.44000 3.049
99.46000 6.974
99.48000 10.181
99.50000 7.911
99.52000 -1.709
99.54000 -1.361
99.56000 1.012
99.58000 7.394
99.60000 6.992
99.62000 9.858
99.64000 7.688
99.66000 3.701
99.68000 0.213
99.70000 0.775
99.72000 2.261
99.74000 3.979
99.76000 0.009
99.78000 0.424
99.80000 2.071
99.82000 4.762
99.84000 0.775
99.86000 3.638
99.88000 0.323
99.90000 3.571
99.92000 6.587
99.94000 3.757
99.96000 -1.872
99.98000 0.000
