'Id: "0011389" Comment: "Integrate frame 0011389_Au-Ir-Rh_Au-Rich_XRD_Mapping-198-0000.gfrmwith cursor Wedge Cursor #5" Operator: "B?rgel" Anode: "Cu" Wavelength: "1.5406" Scantype: "2Theta (TwoTheta)" TimePerStep: "1" X: "45" Y: "4.5" Z: "5.95" 
10.00000 0.000
10.02000 -2.589
10.04000 7.143
10.06000 17.578
10.08000 9.660
10.10000 11.321
10.12000 16.377
10.14000 10.059
10.16000 10.457
10.18000 10.742
10.20000 4.045
10.22000 9.565
10.24000 20.889
10.26000 10.695
10.28000 7.858
10.30000 10.540
10.32000 13.954
10.34000 20.952
10.36000 21.449
10.38000 17.106
10.40000 22.958
10.42000 23.836
10.44000 15.509
10.46000 13.067
10.48000 25.078
10.50000 30.009
10.52000 30.032
10.54000 21.035
10.56000 15.603
10.58000 15.406
10.60000 27.290
10.62000 36.905
10.64000 37.794
10.66000 33.462
10.68000 26.946
10.70000 18.980
10.72000 23.685
10.74000 27.570
10.76000 31.617
10.78000 27.958
10.80000 33.378
10.82000 32.228
10.84000 29.167
10.86000 34.291
10.88000 24.187
10.90000 31.549
10.92000 37.262
10.94000 47.245
10.96000 42.488
10.98000 28.414
11.00000 36.289
11.02000 23.513
11.04000 23.243
11.06000 35.523
11.08000 43.402
11.10000 50.719
11.12000 49.349
11.14000 42.787
11.16000 35.032
11.18000 33.516
11.20000 43.898
11.22000 43.523
11.24000 35.091
11.26000 58.581
11.28000 48.823
11.30000 52.201
11.32000 55.929
11.34000 45.704
11.36000 38.783
11.38000 45.191
11.40000 47.974
11.42000 49.891
11.44000 52.804
11.46000 52.509
11.48000 46.780
11.50000 41.420
11.52000 33.694
11.54000 35.679
11.56000 41.880
11.58000 45.628
11.60000 41.352
11.62000 42.096
11.64000 50.865
11.66000 62.701
11.68000 52.609
11.70000 56.708
11.72000 46.398
11.74000 44.955
11.76000 46.457
11.78000 48.429
11.80000 62.093
11.82000 59.928
11.84000 56.897
11.86000 58.326
11.88000 65.120
11.90000 57.203
11.92000 52.720
11.94000 51.513
11.96000 46.323
11.98000 49.083
12.00000 57.398
12.02000 61.384
12.04000 65.035
12.06000 64.269
12.08000 55.528
12.10000 67.612
12.12000 65.905
12.14000 60.783
12.16000 57.053
12.18000 53.876
12.20000 56.639
12.22000 60.719
12.24000 63.476
12.26000 61.931
12.28000 66.304
12.30000 66.217
12.32000 58.875
12.34000 50.992
12.36000 57.841
12.38000 64.118
12.40000 71.117
12.42000 69.133
12.44000 73.288
12.46000 59.880
12.48000 60.012
12.50000 56.423
12.52000 61.473
12.54000 65.440
12.56000 67.540
12.58000 61.470
12.60000 67.006
12.62000 70.250
12.64000 73.336
12.66000 75.088
12.68000 74.934
12.70000 65.371
12.72000 66.918
12.74000 71.307
12.76000 63.154
12.78000 58.605
12.80000 62.941
12.82000 57.569
12.84000 49.044
12.86000 65.027
12.88000 67.509
12.90000 66.931
12.92000 65.045
12.94000 65.338
12.96000 59.181
12.98000 62.991
13.00000 59.952
13.02000 58.784
13.04000 68.743
13.06000 71.096
13.08000 62.455
13.10000 62.180
13.12000 67.959
13.14000 66.442
13.16000 68.568
13.18000 57.589
13.20000 58.816
13.22000 60.951
13.24000 62.921
13.26000 60.225
13.28000 61.238
13.30000 63.891
13.32000 69.800
13.34000 63.554
13.36000 57.766
13.38000 65.287
13.40000 64.567
13.42000 58.827
13.44000 61.455
13.46000 63.672
13.48000 50.171
13.50000 55.069
13.52000 56.305
13.54000 59.168
13.56000 60.262
13.58000 57.918
13.60000 52.666
13.62000 54.879
13.64000 60.834
13.66000 66.568
13.68000 61.164
13.70000 56.916
13.72000 59.445
13.74000 60.366
13.76000 57.907
13.78000 66.320
13.80000 60.253
13.82000 50.736
13.84000 59.001
13.86000 59.048
13.88000 59.787
13.90000 65.460
13.92000 63.561
13.94000 56.130
13.96000 59.758
13.98000 55.618
14.00000 58.732
14.02000 57.037
14.04000 60.027
14.06000 57.500
14.08000 49.931
14.10000 50.312
14.12000 50.467
14.14000 55.554
14.16000 53.787
14.18000 44.174
14.20000 47.814
14.22000 46.318
14.24000 56.953
14.26000 56.846
14.28000 59.059
14.30000 54.581
14.32000 52.799
14.34000 48.122
14.36000 43.845
14.38000 43.832
14.40000 47.412
14.42000 51.651
14.44000 53.983
14.46000 53.231
14.48000 50.300
14.50000 47.913
14.52000 51.652
14.54000 54.932
14.56000 54.107
14.58000 53.092
14.60000 42.519
14.62000 40.206
14.64000 35.202
14.66000 45.175
14.68000 54.088
14.70000 48.091
14.72000 38.562
14.74000 39.312
14.76000 47.973
14.78000 49.452
14.80000 52.771
14.82000 44.201
14.84000 39.302
14.86000 40.553
14.88000 42.210
14.90000 47.242
14.92000 47.672
14.94000 44.985
14.96000 42.459
14.98000 49.945
15.00000 42.771
15.02000 39.487
15.04000 40.130
15.06000 43.950
15.08000 38.181
15.10000 47.856
15.12000 45.146
15.14000 41.819
15.16000 40.520
15.18000 41.764
15.20000 43.593
15.22000 48.457
15.24000 47.805
15.26000 44.774
15.28000 37.848
15.30000 38.178
15.32000 39.131
15.34000 42.535
15.36000 39.337
15.38000 32.849
15.40000 32.766
15.42000 38.666
15.44000 40.642
15.46000 27.950
15.48000 30.732
15.50000 44.427
15.52000 46.394
15.54000 40.694
15.56000 38.993
15.58000 35.656
15.60000 32.447
15.62000 31.351
15.64000 30.564
15.66000 32.985
15.68000 29.300
15.70000 32.071
15.72000 34.084
15.74000 25.544
15.76000 23.677
15.78000 24.210
15.80000 27.705
15.82000 30.815
15.84000 33.320
15.86000 36.348
15.88000 30.732
15.90000 24.350
15.92000 20.008
15.94000 29.427
15.96000 37.519
15.98000 31.346
16.00000 31.616
16.02000 37.832
16.04000 31.872
16.06000 28.448
16.08000 24.259
16.10000 27.185
16.12000 33.332
16.14000 36.589
16.16000 30.867
16.18000 24.318
16.20000 17.743
16.22000 23.794
16.24000 27.683
16.26000 26.424
16.28000 23.238
16.30000 26.780
16.32000 30.967
16.34000 23.130
16.36000 34.308
16.38000 30.755
16.40000 26.266
16.42000 28.185
16.44000 28.874
16.46000 30.447
16.48000 29.569
16.50000 26.086
16.52000 22.401
16.54000 26.567
16.56000 23.520
16.58000 25.920
16.60000 21.232
16.62000 17.943
16.64000 19.142
16.66000 19.455
16.68000 23.744
16.70000 24.643
16.72000 15.970
16.74000 21.388
16.76000 21.932
16.78000 25.617
16.80000 24.690
16.82000 22.304
16.84000 20.136
16.86000 17.807
16.88000 18.986
16.90000 16.462
16.92000 21.978
16.94000 15.781
16.96000 17.639
16.98000 18.193
17.00000 18.508
17.02000 26.458
17.04000 28.118
17.06000 21.775
17.08000 12.361
17.10000 17.595
17.12000 17.669
17.14000 23.565
17.16000 27.424
17.18000 25.163
17.20000 22.543
17.22000 17.017
17.24000 19.582
17.26000 21.405
17.28000 16.129
17.30000 18.242
17.32000 17.739
17.34000 6.904
17.36000 8.533
17.38000 10.460
17.40000 16.983
17.42000 20.091
17.44000 24.589
17.46000 17.827
17.48000 17.941
17.50000 22.605
17.52000 21.168
17.54000 10.346
17.56000 4.929
17.58000 8.822
17.60000 13.160
17.62000 12.344
17.64000 8.168
17.66000 8.881
17.68000 8.810
17.70000 11.320
17.72000 17.700
17.74000 21.441
17.76000 18.630
17.78000 18.668
17.80000 11.797
17.82000 9.943
17.84000 14.135
17.86000 15.877
17.88000 11.739
17.90000 11.000
17.92000 10.124
17.94000 14.474
17.96000 14.637
17.98000 17.057
18.00000 14.693
18.02000 10.230
18.04000 13.050
18.06000 6.571
18.08000 8.141
18.10000 10.494
18.12000 10.380
18.14000 7.247
18.16000 16.530
18.18000 14.290
18.20000 5.949
18.22000 7.502
18.24000 9.380
18.26000 5.050
18.28000 8.213
18.30000 8.037
18.32000 8.722
18.34000 6.845
18.36000 5.409
18.38000 7.796
18.40000 10.505
18.42000 7.814
18.44000 9.669
18.46000 9.247
18.48000 11.139
18.50000 12.673
18.52000 13.504
18.54000 3.686
18.56000 3.443
18.58000 6.395
18.60000 4.988
18.62000 17.224
18.64000 17.315
18.66000 19.603
18.68000 18.007
18.70000 11.501
18.72000 2.250
18.74000 3.851
18.76000 8.951
18.78000 7.270
18.80000 8.324
18.82000 9.334
18.84000 7.484
18.86000 6.307
18.88000 4.449
18.90000 4.344
18.92000 5.218
18.94000 7.803
18.96000 7.246
18.98000 5.439
19.00000 7.078
19.02000 9.375
19.04000 13.402
19.06000 17.009
19.08000 12.116
19.10000 8.736
19.12000 9.390
19.14000 13.556
19.16000 10.637
19.18000 8.086
19.20000 11.248
19.22000 9.587
19.24000 8.698
19.26000 13.923
19.28000 15.757
19.30000 12.036
19.32000 7.492
19.34000 6.228
19.36000 9.015
19.38000 4.431
19.40000 -3.317
19.42000 -4.268
19.44000 5.572
19.46000 7.685
19.48000 7.944
19.50000 0.132
19.52000 -0.774
19.54000 9.292
19.56000 8.179
19.58000 4.171
19.60000 8.363
19.62000 8.343
19.64000 6.042
19.66000 -3.615
19.68000 -2.427
19.70000 0.072
19.72000 2.250
19.74000 4.789
19.76000 4.234
19.78000 3.630
19.80000 5.148
19.82000 6.876
19.84000 3.034
19.86000 2.004
19.88000 8.594
19.90000 2.956
19.92000 6.798
19.94000 -1.412
19.96000 -2.600
19.98000 2.111
20.00000 2.988
20.02000 2.280
20.04000 0.389
20.06000 8.978
20.08000 5.031
20.10000 3.147
20.12000 3.611
20.14000 8.817
20.16000 4.265
20.18000 -0.290
20.20000 5.743
20.22000 6.655
20.24000 3.879
20.26000 4.338
20.28000 -1.933
20.30000 -1.988
20.32000 6.367
20.34000 10.953
20.36000 9.385
20.38000 2.867
20.40000 8.081
20.42000 7.212
20.44000 6.066
20.46000 2.951
20.48000 9.893
20.50000 11.298
20.52000 4.755
20.54000 9.341
20.56000 6.810
20.58000 0.019
20.60000 3.030
20.62000 5.091
20.64000 0.655
20.66000 3.359
20.68000 10.894
20.70000 9.696
20.72000 9.433
20.74000 9.846
20.76000 5.857
20.78000 2.309
20.80000 9.268
20.82000 10.994
20.84000 9.035
20.86000 6.663
20.88000 0.213
20.90000 4.793
20.92000 6.873
20.94000 2.023
20.96000 10.607
20.98000 9.507
21.00000 6.937
21.02000 9.640
21.04000 8.938
21.06000 3.777
21.08000 3.965
21.10000 6.975
21.12000 11.309
21.14000 9.934
21.16000 5.585
21.18000 11.759
21.20000 12.292
21.22000 7.192
21.24000 9.102
21.26000 3.050
21.28000 4.382
21.30000 7.415
21.32000 5.244
21.34000 6.312
21.36000 6.633
21.38000 -0.203
21.40000 0.947
21.42000 -4.113
21.44000 -4.140
21.46000 -0.825
21.48000 5.148
21.50000 9.498
21.52000 7.298
21.54000 11.555
21.56000 7.428
21.58000 5.775
21.60000 5.717
21.62000 5.118
21.64000 4.597
21.66000 7.671
21.68000 7.661
21.70000 7.651
21.72000 8.384
21.74000 18.762
21.76000 7.782
21.78000 2.429
21.80000 -0.622
21.82000 7.475
21.84000 5.183
21.86000 4.350
21.88000 2.939
21.90000 6.100
21.92000 10.285
21.94000 7.048
21.96000 5.710
21.98000 10.373
22.00000 7.945
22.02000 3.192
22.04000 1.536
22.06000 0.562
22.08000 3.858
22.10000 7.106
22.12000 3.241
22.14000 -4.126
22.16000 2.027
22.18000 5.864
22.20000 5.130
22.22000 3.554
22.24000 8.856
22.26000 3.648
22.28000 -1.175
22.30000 0.549
22.32000 6.023
22.34000 3.659
22.36000 5.865
22.38000 6.419
22.40000 5.817
22.42000 8.119
22.44000 4.804
22.46000 -2.396
22.48000 0.875
22.50000 1.374
22.52000 1.170
22.54000 -2.711
22.56000 -1.417
22.58000 -0.350
22.60000 6.628
22.62000 11.297
22.64000 6.035
22.66000 3.569
22.68000 8.314
22.70000 4.946
22.72000 2.614
22.74000 1.094
22.76000 -1.345
22.78000 7.435
22.80000 7.396
22.82000 8.357
22.84000 8.227
22.86000 4.510
22.88000 1.344
22.90000 4.242
22.92000 5.606
22.94000 2.157
22.96000 2.630
22.98000 4.672
23.00000 -1.375
23.02000 3.598
23.04000 10.076
23.06000 8.215
23.08000 10.305
23.10000 7.971
23.12000 5.399
23.14000 7.082
23.16000 7.862
23.18000 6.585
23.20000 7.027
23.22000 4.584
23.24000 9.374
23.26000 10.065
23.28000 7.988
23.30000 13.140
23.32000 9.787
23.34000 -2.476
23.36000 2.793
23.38000 9.937
23.40000 9.377
23.42000 11.134
23.44000 1.942
23.46000 2.481
23.48000 4.778
23.50000 5.821
23.52000 4.649
23.54000 0.428
23.56000 0.337
23.58000 2.755
23.60000 4.149
23.62000 8.434
23.64000 12.194
23.66000 6.241
23.68000 9.050
23.70000 3.242
23.72000 -0.363
23.74000 5.566
23.76000 5.922
23.78000 9.121
23.80000 10.367
23.82000 9.157
23.84000 6.579
23.86000 -4.027
23.88000 2.424
23.90000 1.775
23.92000 -0.954
23.94000 3.056
23.96000 3.881
23.98000 6.639
24.00000 8.833
24.02000 8.458
24.04000 4.203
24.06000 -1.560
24.08000 6.238
24.10000 10.913
24.12000 6.500
24.14000 5.517
24.16000 4.168
24.18000 2.888
24.20000 0.980
24.22000 0.200
24.24000 3.858
24.26000 9.752
24.28000 7.492
24.30000 -0.092
24.32000 -2.814
24.34000 -4.009
24.36000 3.034
24.38000 4.837
24.40000 1.561
24.42000 1.100
24.44000 5.452
24.46000 3.653
24.48000 -1.397
24.50000 1.322
24.52000 6.141
24.54000 -0.552
24.56000 -2.054
24.58000 -1.962
24.60000 -2.648
24.62000 0.029
24.64000 -1.765
24.66000 3.673
24.68000 3.447
24.70000 2.208
24.72000 3.380
24.74000 7.557
24.76000 7.006
24.78000 4.390
24.80000 7.382
24.82000 2.743
24.84000 2.822
24.86000 6.250
24.88000 8.254
24.90000 10.118
24.92000 4.957
24.94000 7.564
24.96000 5.309
24.98000 4.563
25.00000 0.391
25.02000 1.510
25.04000 -3.979
25.06000 1.280
25.08000 8.208
25.10000 4.175
25.12000 6.076
25.14000 8.731
25.16000 7.365
25.18000 6.328
25.20000 5.685
25.22000 2.447
25.24000 3.799
25.26000 2.185
25.28000 0.212
25.30000 -2.626
25.32000 -1.282
25.34000 2.031
25.36000 3.823
25.38000 4.196
25.40000 2.165
25.42000 1.454
25.44000 0.482
25.46000 4.675
25.48000 1.866
25.50000 -2.095
25.52000 1.516
25.54000 2.197
25.56000 0.911
25.58000 5.673
25.60000 4.396
25.62000 2.947
25.64000 3.025
25.66000 5.808
25.68000 2.686
25.70000 -2.997
25.72000 -0.003
25.74000 2.166
25.76000 4.176
25.78000 0.145
25.80000 -1.142
25.82000 3.336
25.84000 2.725
25.86000 1.449
25.88000 -1.534
25.90000 -1.113
25.92000 -1.157
25.94000 -2.898
25.96000 -0.342
25.98000 1.956
26.00000 3.542
26.02000 -0.474
26.04000 2.581
26.06000 3.496
26.08000 -3.927
26.10000 -1.497
26.12000 -1.704
26.14000 -2.098
26.16000 5.267
26.18000 1.520
26.20000 2.662
26.22000 2.516
26.24000 4.460
26.26000 1.846
26.28000 3.918
26.30000 6.011
26.32000 7.033
26.34000 2.255
26.36000 -2.482
26.38000 3.593
26.40000 2.842
26.42000 0.453
26.44000 0.791
26.46000 3.391
26.48000 1.404
26.50000 -2.257
26.52000 -2.883
26.54000 2.450
26.56000 0.943
26.58000 8.027
26.60000 6.709
26.62000 4.318
26.64000 3.709
26.66000 2.093
26.68000 3.387
26.70000 3.942
26.72000 0.148
26.74000 1.097
26.76000 -0.070
26.78000 3.234
26.80000 2.525
26.82000 7.429
26.84000 3.945
26.86000 1.919
26.88000 -3.340
26.90000 -3.891
26.92000 -2.145
26.94000 3.311
26.96000 3.358
26.98000 5.503
27.00000 2.098
27.02000 3.498
27.04000 5.376
27.06000 -1.042
27.08000 2.913
27.10000 2.133
27.12000 2.785
27.14000 4.361
27.16000 6.724
27.18000 8.559
27.20000 9.282
27.22000 2.546
27.24000 2.662
27.26000 4.308
27.28000 0.763
27.30000 -1.654
27.32000 0.913
27.34000 0.785
27.36000 3.577
27.38000 2.558
27.40000 2.653
27.42000 7.127
27.44000 3.904
27.46000 -0.449
27.48000 -0.451
27.50000 2.259
27.52000 5.699
27.54000 3.707
27.56000 0.923
27.58000 6.242
27.60000 8.768
27.62000 5.131
27.64000 9.110
27.66000 4.591
27.68000 5.579
27.70000 8.866
27.72000 3.284
27.74000 -3.853
27.76000 -0.912
27.78000 -2.589
27.80000 -3.685
27.82000 0.543
27.84000 6.897
27.86000 5.322
27.88000 2.887
27.90000 -0.254
27.92000 1.576
27.94000 1.993
27.96000 3.056
27.98000 7.635
28.00000 10.298
28.02000 5.820
28.04000 0.453
28.06000 0.002
28.08000 3.430
28.10000 1.991
28.12000 -1.032
28.14000 -2.498
28.16000 -1.536
28.18000 1.901
28.20000 -1.139
28.22000 -3.168
28.24000 0.678
28.26000 1.509
28.28000 0.555
28.30000 1.054
28.32000 5.506
28.34000 1.103
28.36000 -3.807
28.38000 2.692
28.40000 7.430
28.42000 3.598
28.44000 -0.748
28.46000 -1.938
28.48000 -0.576
28.50000 4.132
28.52000 2.874
28.54000 -0.944
28.56000 1.647
28.58000 3.079
28.60000 0.727
28.62000 -1.135
28.64000 -0.522
28.66000 2.348
28.68000 3.224
28.70000 4.595
28.72000 4.205
28.74000 4.371
28.76000 2.745
28.78000 -1.049
28.80000 -1.439
28.82000 4.501
28.84000 0.387
28.86000 0.390
28.88000 0.569
28.90000 6.010
28.92000 6.422
28.94000 7.699
28.96000 3.231
28.98000 0.477
29.00000 0.883
29.02000 -1.814
29.04000 -3.246
29.06000 2.799
29.08000 2.109
29.10000 5.270
29.12000 4.791
29.14000 2.538
29.16000 3.230
29.18000 5.037
29.20000 3.766
29.22000 0.891
29.24000 2.504
29.26000 1.339
29.28000 -0.931
29.30000 -3.415
29.32000 -3.759
29.34000 1.078
29.36000 1.659
29.38000 1.093
29.40000 3.159
29.42000 1.515
29.44000 1.111
29.46000 0.971
29.48000 6.326
29.50000 10.341
29.52000 9.619
29.54000 5.412
29.56000 6.331
29.58000 8.491
29.60000 5.472
29.62000 3.697
29.64000 -1.463
29.66000 -1.866
29.68000 -3.734
29.70000 3.151
29.72000 1.182
29.74000 1.545
29.76000 2.805
29.78000 6.376
29.80000 0.804
29.82000 2.644
29.84000 5.267
29.86000 9.590
29.88000 7.469
29.90000 5.488
29.92000 3.323
29.94000 1.558
29.96000 4.062
29.98000 10.203
30.00000 4.943
30.02000 -3.178
30.04000 3.710
30.06000 9.284
30.08000 8.364
30.10000 4.813
30.12000 5.484
30.14000 7.133
30.16000 5.595
30.18000 7.033
30.20000 0.037
30.22000 -0.102
30.24000 5.576
30.26000 5.915
30.28000 6.648
30.30000 2.091
30.32000 6.313
30.34000 8.239
30.36000 7.896
30.38000 7.357
30.40000 6.397
30.42000 3.674
30.44000 7.863
30.46000 7.679
30.48000 -0.648
30.50000 0.018
30.52000 1.075
30.54000 4.590
30.56000 4.509
30.58000 2.617
30.60000 3.697
30.62000 7.235
30.64000 3.829
30.66000 2.527
30.68000 -1.090
30.70000 1.247
30.72000 3.622
30.74000 1.811
30.76000 7.996
30.78000 4.309
30.80000 4.903
30.82000 3.747
30.84000 0.423
30.86000 2.119
30.88000 4.337
30.90000 6.187
30.92000 -2.572
30.94000 -0.524
30.96000 -2.145
30.98000 -3.142
31.00000 1.415
31.02000 0.888
31.04000 7.591
31.06000 10.539
31.08000 7.018
31.10000 7.797
31.12000 -0.158
31.14000 1.307
31.16000 -1.911
31.18000 -3.652
31.20000 -1.765
31.22000 3.096
31.24000 6.920
31.26000 9.077
31.28000 10.335
31.30000 10.970
31.32000 9.255
31.34000 11.811
31.36000 7.770
31.38000 2.332
31.40000 6.517
31.42000 2.697
31.44000 0.309
31.46000 1.621
31.48000 3.128
31.50000 7.010
31.52000 6.117
31.54000 5.412
31.56000 4.434
31.58000 1.530
31.60000 2.965
31.62000 4.444
31.64000 4.715
31.66000 3.925
31.68000 5.657
31.70000 4.118
31.72000 7.097
31.74000 6.608
31.76000 4.316
31.78000 0.721
31.80000 2.635
31.82000 4.636
31.84000 1.527
31.86000 0.075
31.88000 -0.420
31.90000 -1.718
31.92000 1.373
31.94000 1.677
31.96000 0.086
31.98000 -0.390
32.00000 -2.086
32.02000 -0.703
32.04000 -1.645
32.06000 -3.186
32.08000 2.860
32.10000 7.125
32.12000 4.910
32.14000 3.256
32.16000 5.482
32.18000 2.578
32.20000 2.832
32.22000 2.137
32.24000 3.865
32.26000 2.345
32.28000 3.985
32.30000 1.964
32.32000 1.657
32.34000 0.281
32.36000 2.621
32.38000 2.820
32.40000 -0.740
32.42000 -1.996
32.44000 2.179
32.46000 3.837
32.48000 4.571
32.50000 4.531
32.52000 -1.871
32.54000 -0.672
32.56000 4.454
32.58000 3.356
32.60000 6.420
32.62000 6.335
32.64000 1.863
32.66000 4.016
32.68000 1.978
32.70000 -0.854
32.72000 2.162
32.74000 5.075
32.76000 4.573
32.78000 3.906
32.80000 2.581
32.82000 0.279
32.84000 1.499
32.86000 -0.849
32.88000 1.404
32.90000 1.633
32.92000 1.453
32.94000 0.417
32.96000 0.680
32.98000 -3.634
33.00000 -0.566
33.02000 -2.550
33.04000 -3.210
33.06000 -0.192
33.08000 0.871
33.10000 3.381
33.12000 1.643
33.14000 0.860
33.16000 2.992
33.18000 1.979
33.20000 2.947
33.22000 -0.406
33.24000 0.382
33.26000 2.847
33.28000 4.203
33.30000 1.060
33.32000 1.965
33.34000 3.639
33.36000 4.163
33.38000 3.908
33.40000 4.805
33.42000 0.504
33.44000 1.941
33.46000 6.241
33.48000 3.210
33.50000 -1.034
33.52000 -1.795
33.54000 4.401
33.56000 2.410
33.58000 -2.322
33.60000 -1.834
33.62000 -1.166
33.64000 1.754
33.66000 -1.554
33.68000 1.386
33.70000 3.400
33.72000 4.312
33.74000 2.640
33.76000 -0.741
33.78000 5.118
33.80000 5.421
33.82000 2.650
33.84000 -1.195
33.86000 -1.233
33.88000 1.910
33.90000 1.611
33.92000 2.560
33.94000 0.497
33.96000 -3.443
33.98000 1.662
34.00000 2.377
34.02000 2.609
34.04000 2.608
34.06000 6.136
34.08000 1.642
34.10000 -0.172
34.12000 1.349
34.14000 -0.274
34.16000 0.221
34.18000 -0.525
34.20000 5.060
34.22000 0.995
34.24000 -1.556
34.26000 4.058
34.28000 1.064
34.30000 -2.885
34.32000 -0.703
34.34000 2.612
34.36000 1.130
34.38000 4.232
34.40000 2.335
34.42000 0.683
34.44000 -1.360
34.46000 -2.993
34.48000 -1.136
34.50000 1.433
34.52000 3.342
34.54000 3.608
34.56000 4.371
34.58000 4.805
34.60000 2.620
34.62000 2.223
34.64000 5.819
34.66000 -0.101
34.68000 -2.232
34.70000 1.112
34.72000 1.636
34.74000 -1.715
34.76000 0.484
34.78000 3.075
34.80000 4.770
34.82000 6.458
34.84000 5.259
34.86000 3.780
34.88000 3.166
34.90000 4.757
34.92000 5.378
34.94000 4.837
34.96000 -2.776
34.98000 0.041
35.00000 5.350
35.02000 1.835
35.04000 3.693
35.06000 2.347
35.08000 -1.491
35.10000 -3.610
35.12000 -1.537
35.14000 -0.435
35.16000 0.660
35.18000 1.559
35.20000 2.933
35.22000 -0.289
35.24000 3.271
35.26000 5.851
35.28000 5.337
35.30000 3.400
35.32000 -0.448
35.34000 -1.569
35.36000 1.287
35.38000 0.697
35.40000 1.487
35.42000 3.113
35.44000 1.921
35.46000 -3.611
35.48000 0.031
35.50000 4.447
35.52000 2.507
35.54000 -2.068
35.56000 -1.618
35.58000 1.751
35.60000 0.351
35.62000 5.345
35.64000 4.614
35.66000 7.888
35.68000 7.302
35.70000 2.875
35.72000 3.732
35.74000 2.357
35.76000 0.090
35.78000 3.042
35.80000 9.731
35.82000 7.548
35.84000 0.688
35.86000 -0.875
35.88000 -1.567
35.90000 1.021
35.92000 1.336
35.94000 1.541
35.96000 -0.482
35.98000 -1.233
36.00000 -3.265
36.02000 -2.921
36.04000 -2.543
36.06000 -0.750
36.08000 5.724
36.10000 6.278
36.12000 4.198
36.14000 4.517
36.16000 1.253
36.18000 3.027
36.20000 2.647
36.22000 5.062
36.24000 1.009
36.26000 2.059
36.28000 4.104
36.30000 0.387
36.32000 -3.277
36.34000 -2.568
36.36000 2.170
36.38000 1.895
36.40000 -3.646
36.42000 -0.648
36.44000 1.266
36.46000 -0.872
36.48000 -2.505
36.50000 0.364
36.52000 -0.664
36.54000 -0.668
36.56000 2.234
36.58000 2.443
36.60000 -1.696
36.62000 0.474
36.64000 1.496
36.66000 0.526
36.68000 -0.606
36.70000 3.652
36.72000 2.703
36.74000 0.131
36.76000 -2.193
36.78000 -0.123
36.80000 0.938
36.82000 4.991
36.84000 4.263
36.86000 -3.537
36.88000 -3.677
36.90000 2.967
36.92000 4.781
36.94000 2.650
36.96000 7.016
36.98000 1.111
37.00000 0.033
37.02000 0.256
37.04000 -0.120
37.06000 -0.941
37.08000 -1.331
37.10000 -0.334
37.12000 -0.292
37.14000 -2.724
37.16000 3.974
37.18000 7.983
37.20000 6.702
37.22000 2.462
37.24000 3.596
37.26000 5.626
37.28000 7.433
37.30000 3.158
37.32000 4.015
37.34000 10.517
37.36000 5.205
37.38000 5.720
37.40000 6.893
37.42000 6.783
37.44000 6.267
37.46000 5.539
37.48000 6.425
37.50000 10.407
37.52000 11.343
37.54000 6.135
37.56000 6.627
37.58000 5.636
37.60000 7.419
37.62000 8.184
37.64000 9.144
37.66000 8.830
37.68000 9.040
37.70000 12.139
37.72000 12.202
37.74000 10.645
37.76000 10.141
37.78000 9.732
37.80000 12.880
37.82000 16.022
37.84000 14.939
37.86000 14.309
37.88000 12.036
37.90000 15.108
37.92000 20.875
37.94000 17.064
37.96000 18.516
37.98000 15.323
38.00000 14.285
38.02000 19.090
38.04000 24.429
38.06000 20.304
38.08000 21.499
38.10000 23.755
38.12000 25.911
38.14000 22.494
38.16000 20.659
38.18000 29.180
38.20000 32.402
38.22000 28.295
38.24000 27.039
38.26000 26.610
38.28000 32.716
38.30000 35.348
38.32000 28.910
38.34000 31.477
38.36000 38.691
38.38000 41.550
38.40000 40.454
38.42000 40.902
38.44000 40.996
38.46000 39.859
38.48000 43.631
38.50000 51.304
38.52000 55.945
38.54000 56.984
38.56000 56.516
38.58000 51.806
38.60000 50.286
38.62000 57.362
38.64000 61.817
38.66000 65.532
38.68000 68.418
38.70000 71.460
38.72000 73.743
38.74000 74.151
38.76000 79.270
38.78000 81.147
38.80000 87.213
38.82000 89.813
38.84000 94.897
38.86000 95.902
38.88000 98.739
38.90000 108.833
38.92000 112.684
38.94000 114.099
38.96000 117.724
38.98000 122.134
39.00000 132.311
39.02000 142.213
39.04000 150.582
39.06000 159.174
39.08000 163.269
39.10000 179.322
39.12000 187.989
39.14000 194.896
39.16000 205.665
39.18000 218.417
39.20000 237.823
39.22000 249.892
39.24000 262.512
39.26000 272.571
39.28000 283.200
39.30000 292.852
39.32000 314.754
39.34000 326.355
39.36000 355.412
39.38000 378.285
39.40000 395.955
39.42000 407.812
39.44000 427.452
39.46000 448.089
39.48000 466.901
39.50000 493.890
39.52000 519.849
39.54000 535.554
39.56000 553.348
39.58000 577.566
39.60000 595.243
39.62000 608.244
39.64000 622.924
39.66000 641.309
39.68000 655.035
39.70000 672.106
39.72000 692.432
39.74000 704.996
39.76000 710.304
39.78000 709.234
39.80000 707.304
39.82000 714.104
39.84000 711.142
39.86000 704.453
39.88000 707.434
39.90000 706.211
39.92000 693.736
39.94000 678.633
39.96000 649.485
39.98000 629.002
40.00000 623.536
40.02000 604.081
40.04000 587.044
40.06000 572.941
40.08000 548.238
40.10000 517.414
40.12000 495.235
40.14000 472.481
40.16000 449.408
40.18000 430.002
40.20000 403.677
40.22000 381.391
40.24000 357.038
40.26000 341.154
40.28000 326.583
40.30000 307.598
40.32000 291.308
40.34000 272.310
40.36000 258.552
40.38000 239.520
40.40000 231.107
40.42000 211.094
40.44000 199.097
40.46000 186.470
40.48000 172.399
40.50000 156.835
40.52000 155.091
40.54000 147.690
40.56000 135.459
40.58000 134.426
40.60000 125.160
40.62000 116.027
40.64000 106.623
40.66000 103.842
40.68000 91.482
40.70000 84.656
40.72000 83.860
40.74000 82.191
40.76000 71.394
40.78000 72.409
40.80000 66.307
40.82000 61.635
40.84000 60.899
40.86000 53.645
40.88000 54.823
40.90000 50.211
40.92000 43.832
40.94000 42.685
40.96000 41.860
40.98000 41.285
41.00000 33.026
41.02000 31.140
41.04000 31.522
41.06000 33.384
41.08000 31.741
41.10000 29.941
41.12000 29.918
41.14000 29.156
41.16000 27.157
41.18000 25.176
41.20000 23.723
41.22000 21.700
41.24000 18.049
41.26000 15.327
41.28000 16.871
41.30000 18.559
41.32000 13.427
41.34000 12.769
41.36000 18.992
41.38000 16.042
41.40000 7.931
41.42000 11.276
41.44000 9.466
41.46000 7.558
41.48000 10.392
41.50000 10.209
41.52000 9.617
41.54000 5.869
41.56000 5.697
41.58000 6.946
41.60000 7.467
41.62000 6.571
41.64000 4.584
41.66000 4.322
41.68000 6.888
41.70000 7.682
41.72000 5.409
41.74000 5.157
41.76000 5.446
41.78000 4.282
41.80000 3.735
41.82000 3.578
41.84000 4.368
41.86000 -1.081
41.88000 3.471
41.90000 3.751
41.92000 2.329
41.94000 3.088
41.96000 2.422
41.98000 7.594
42.00000 4.079
42.02000 1.511
42.04000 1.842
42.06000 1.256
42.08000 2.429
42.10000 3.313
42.12000 1.753
42.14000 1.491
42.16000 2.182
42.18000 0.652
42.20000 -3.453
42.22000 -0.193
42.24000 -1.796
42.26000 -1.514
42.28000 1.622
42.30000 2.236
42.32000 4.490
42.34000 1.130
42.36000 2.185
42.38000 1.554
42.40000 0.683
42.42000 0.894
42.44000 -0.071
42.46000 -3.410
42.48000 -0.963
42.50000 3.378
42.52000 2.620
42.54000 -0.978
42.56000 -0.850
42.58000 2.711
42.60000 0.594
42.62000 -2.153
42.64000 -0.972
42.66000 1.245
42.68000 0.470
42.70000 0.822
42.72000 3.044
42.74000 2.166
42.76000 3.179
42.78000 2.774
42.80000 2.386
42.82000 0.487
42.84000 -1.773
42.86000 -3.052
42.88000 -2.695
42.90000 -1.421
42.92000 0.774
42.94000 1.995
42.96000 4.399
42.98000 5.383
43.00000 5.123
43.02000 3.781
43.04000 5.512
43.06000 6.703
43.08000 6.073
43.10000 3.735
43.12000 1.447
43.14000 5.705
43.16000 4.919
43.18000 -1.173
43.20000 -1.854
43.22000 -1.534
43.24000 -0.975
43.26000 -3.279
43.28000 3.676
43.30000 5.977
43.32000 3.534
43.34000 1.508
43.36000 -1.748
43.38000 -0.605
43.40000 0.637
43.42000 0.810
43.44000 1.459
43.46000 5.045
43.48000 3.888
43.50000 0.277
43.52000 -1.797
43.54000 2.634
43.56000 0.711
43.58000 1.396
43.60000 1.472
43.62000 1.111
43.64000 1.476
43.66000 -0.204
43.68000 -0.164
43.70000 -0.722
43.72000 0.114
43.74000 3.141
43.76000 5.070
43.78000 4.572
43.80000 1.925
43.82000 3.106
43.84000 0.951
43.86000 -1.397
43.88000 -0.030
43.90000 0.945
43.92000 -0.782
43.94000 0.217
43.96000 0.315
43.98000 1.961
44.00000 5.314
44.02000 -0.764
44.04000 -0.533
44.06000 0.333
44.08000 1.739
44.10000 3.285
44.12000 1.615
44.14000 0.039
44.16000 2.327
44.18000 4.047
44.20000 4.763
44.22000 2.616
44.24000 1.321
44.26000 -3.250
44.28000 -0.263
44.30000 5.807
44.32000 4.477
44.34000 -0.103
44.36000 -0.021
44.38000 0.870
44.40000 0.557
44.42000 -1.334
44.44000 0.717
44.46000 2.841
44.48000 3.225
44.50000 2.371
44.52000 -0.590
44.54000 -2.972
44.56000 2.078
44.58000 3.231
44.60000 2.627
44.62000 -0.068
44.64000 -1.396
44.66000 -1.667
44.68000 -0.469
44.70000 -1.081
44.72000 2.814
44.74000 3.627
44.76000 5.193
44.78000 3.424
44.80000 4.025
44.82000 0.821
44.84000 -1.024
44.86000 -1.298
44.88000 2.780
44.90000 5.500
44.92000 4.449
44.94000 4.538
44.96000 4.652
44.98000 3.224
45.00000 4.432
45.02000 5.609
45.04000 6.102
45.06000 6.081
45.08000 3.596
45.10000 4.085
45.12000 7.114
45.14000 5.802
45.16000 7.467
45.18000 7.168
45.20000 5.999
45.22000 7.520
45.24000 10.897
45.26000 6.123
45.28000 8.337
45.30000 8.635
45.32000 12.278
45.34000 12.481
45.36000 16.247
45.38000 13.714
45.40000 11.368
45.42000 9.157
45.44000 14.384
45.46000 18.607
45.48000 20.992
45.50000 23.967
45.52000 24.282
45.54000 21.216
45.56000 19.291
45.58000 21.322
45.60000 23.825
45.62000 23.288
45.64000 28.317
45.66000 30.272
45.68000 31.751
45.70000 25.965
45.72000 31.197
45.74000 27.701
45.76000 26.387
45.78000 27.492
45.80000 27.446
45.82000 31.480
45.84000 35.758
45.86000 36.944
45.88000 40.511
45.90000 41.355
45.92000 39.925
45.94000 39.273
45.96000 38.767
45.98000 43.612
46.00000 43.037
46.02000 44.690
46.04000 51.054
46.06000 51.432
46.08000 55.499
46.10000 52.963
46.12000 51.701
46.14000 53.494
46.16000 54.727
46.18000 60.743
46.20000 64.203
46.22000 66.598
46.24000 67.513
46.26000 68.851
46.28000 74.556
46.30000 67.738
46.32000 66.433
46.34000 67.411
46.36000 67.138
46.38000 72.776
46.40000 76.927
46.42000 71.902
46.44000 67.643
46.46000 69.352
46.48000 71.007
46.50000 70.440
46.52000 68.238
46.54000 67.507
46.56000 70.994
46.58000 73.350
46.60000 68.970
46.62000 76.804
46.64000 72.813
46.66000 70.621
46.68000 68.085
46.70000 65.248
46.72000 62.129
46.74000 62.928
46.76000 57.509
46.78000 59.746
46.80000 60.875
46.82000 56.396
46.84000 52.934
46.86000 48.364
46.88000 53.986
46.90000 54.723
46.92000 48.743
46.94000 41.999
46.96000 42.276
46.98000 41.600
47.00000 40.250
47.02000 39.156
47.04000 35.059
47.06000 34.880
47.08000 34.884
47.10000 32.719
47.12000 32.651
47.14000 32.794
47.16000 28.315
47.18000 29.868
47.20000 26.956
47.22000 26.453
47.24000 22.007
47.26000 20.451
47.28000 17.454
47.30000 19.128
47.32000 15.669
47.34000 11.658
47.36000 12.274
47.38000 15.613
47.40000 15.173
47.42000 16.313
47.44000 11.556
47.46000 8.939
47.48000 6.496
47.50000 5.941
47.52000 7.556
47.54000 11.926
47.56000 7.963
47.58000 6.004
47.60000 6.627
47.62000 7.094
47.64000 8.898
47.66000 10.231
47.68000 6.505
47.70000 3.794
47.72000 4.368
47.74000 5.381
47.76000 5.981
47.78000 8.431
47.80000 6.988
47.82000 8.089
47.84000 8.675
47.86000 0.929
47.88000 -0.704
47.90000 0.416
47.92000 4.207
47.94000 -2.044
47.96000 -0.662
47.98000 0.156
48.00000 -0.778
48.02000 0.066
48.04000 2.926
48.06000 -0.778
48.08000 -2.112
48.10000 1.847
48.12000 6.007
48.14000 7.079
48.16000 4.606
48.18000 2.780
48.20000 4.829
48.22000 5.250
48.24000 2.759
48.26000 0.275
48.28000 -1.127
48.30000 0.786
48.32000 1.424
48.34000 2.523
48.36000 0.270
48.38000 5.598
48.40000 4.811
48.42000 4.481
48.44000 2.349
48.46000 4.463
48.48000 4.982
48.50000 5.132
48.52000 3.683
48.54000 1.895
48.56000 4.470
48.58000 5.329
48.60000 4.758
48.62000 4.756
48.64000 4.539
48.66000 4.764
48.68000 3.731
48.70000 -2.787
48.72000 -0.024
48.74000 6.871
48.76000 3.766
48.78000 5.341
48.80000 7.529
48.82000 2.953
48.84000 4.281
48.86000 2.864
48.88000 0.493
48.90000 -0.543
48.92000 6.633
48.94000 2.676
48.96000 4.928
48.98000 8.973
49.00000 9.579
49.02000 5.039
49.04000 6.562
49.06000 6.396
49.08000 8.448
49.10000 7.579
49.12000 6.117
49.14000 1.854
49.16000 -1.270
49.18000 3.429
49.20000 3.881
49.22000 1.233
49.24000 1.293
49.26000 2.363
49.28000 0.387
49.30000 2.327
49.32000 5.812
49.34000 7.063
49.36000 8.517
49.38000 3.665
49.40000 0.047
49.42000 6.111
49.44000 5.776
49.46000 4.837
49.48000 0.845
49.50000 1.790
49.52000 -2.781
49.54000 -1.945
49.56000 1.133
49.58000 0.438
49.60000 5.576
49.62000 2.304
49.64000 2.349
49.66000 3.557
49.68000 -1.487
49.70000 1.789
49.72000 0.635
49.74000 5.617
49.76000 5.705
49.78000 1.634
49.80000 -1.301
49.82000 0.733
49.84000 4.586
49.86000 0.754
49.88000 -2.770
49.90000 -2.081
49.92000 -0.118
49.94000 1.572
49.96000 2.513
49.98000 3.040
50.00000 3.862
50.02000 2.263
50.04000 -0.117
50.06000 3.506
50.08000 -0.942
50.10000 -0.796
50.12000 -0.046
50.14000 4.397
50.16000 5.160
50.18000 0.235
50.20000 0.932
50.22000 5.010
50.24000 5.724
50.26000 3.418
50.28000 4.336
50.30000 4.524
50.32000 6.088
50.34000 2.399
50.36000 0.272
50.38000 3.935
50.40000 5.136
50.42000 0.685
50.44000 2.403
50.46000 3.024
50.48000 5.085
50.50000 7.302
50.52000 4.113
50.54000 3.106
50.56000 5.000
50.58000 4.768
50.60000 3.311
50.62000 -0.178
50.64000 -1.295
50.66000 3.751
50.68000 1.557
50.70000 -2.737
50.72000 2.515
50.74000 2.229
50.76000 2.688
50.78000 0.910
50.80000 3.904
50.82000 2.170
50.84000 1.165
50.86000 0.372
50.88000 -0.613
50.90000 -0.452
50.92000 1.852
50.94000 -0.730
50.96000 1.676
50.98000 1.986
51.00000 -0.812
51.02000 -2.726
51.04000 -2.448
51.06000 4.554
51.08000 3.187
51.10000 2.168
51.12000 2.521
51.14000 -0.863
51.16000 0.450
51.18000 0.867
51.20000 0.536
51.22000 1.796
51.24000 -1.336
51.26000 1.701
51.28000 7.035
51.30000 6.581
51.32000 1.660
51.34000 -0.074
51.36000 -2.494
51.38000 -1.369
51.40000 -1.319
51.42000 -1.537
51.44000 2.476
51.46000 5.817
51.48000 0.976
51.50000 0.121
51.52000 2.350
51.54000 3.401
51.56000 1.782
51.58000 -1.567
51.60000 -0.505
51.62000 -0.732
51.64000 1.686
51.66000 0.404
51.68000 1.675
51.70000 5.048
51.72000 1.647
51.74000 2.746
51.76000 2.405
51.78000 3.567
51.80000 0.956
51.82000 -1.294
51.84000 -2.570
51.86000 1.451
51.88000 1.890
51.90000 0.651
51.92000 3.949
51.94000 4.657
51.96000 3.638
51.98000 0.314
52.00000 0.356
52.02000 -0.356
52.04000 -1.048
52.06000 1.203
52.08000 2.987
52.10000 4.343
52.12000 1.566
52.14000 -0.024
52.16000 4.378
52.18000 1.815
52.20000 2.091
52.22000 0.772
52.24000 0.582
52.26000 1.152
52.28000 -1.509
52.30000 1.182
52.32000 4.093
52.34000 6.146
52.36000 5.951
52.38000 7.684
52.40000 7.223
52.42000 1.230
52.44000 -0.869
52.46000 -1.338
52.48000 1.649
52.50000 3.702
52.52000 2.278
52.54000 2.582
52.56000 4.217
52.58000 -1.004
52.60000 -1.806
52.62000 0.937
52.64000 7.258
52.66000 5.698
52.68000 4.448
52.70000 1.314
52.72000 -0.573
52.74000 -0.008
52.76000 0.723
52.78000 -0.313
52.80000 2.504
52.82000 2.181
52.84000 3.436
52.86000 4.860
52.88000 5.119
52.90000 1.683
52.92000 3.480
52.94000 4.272
52.96000 2.070
52.98000 2.320
53.00000 2.731
53.02000 -2.617
53.04000 1.729
53.06000 3.223
53.08000 5.498
53.10000 4.491
53.12000 1.145
53.14000 1.797
53.16000 -0.091
53.18000 -0.560
53.20000 1.349
53.22000 3.195
53.24000 5.030
53.26000 3.413
53.28000 3.608
53.30000 5.472
53.32000 2.230
53.34000 2.193
53.36000 4.994
53.38000 2.232
53.40000 1.617
53.42000 3.150
53.44000 0.848
53.46000 3.494
53.48000 3.260
53.50000 3.331
53.52000 3.230
53.54000 -0.453
53.56000 -1.318
53.58000 -2.368
53.60000 -1.391
53.62000 4.781
53.64000 5.955
53.66000 2.389
53.68000 4.135
53.70000 1.259
53.72000 -1.446
53.74000 -2.269
53.76000 -0.769
53.78000 1.031
53.80000 5.334
53.82000 6.367
53.84000 6.640
53.86000 4.316
53.88000 1.176
53.90000 -2.641
53.92000 -2.391
53.94000 -1.107
53.96000 4.854
53.98000 6.462
54.00000 2.319
54.02000 0.576
54.04000 6.256
54.06000 1.780
54.08000 0.926
54.10000 -0.229
54.12000 -1.748
54.14000 1.805
54.16000 -0.157
54.18000 -0.218
54.20000 -0.226
54.22000 2.640
54.24000 -1.063
54.26000 -1.199
54.28000 -1.025
54.30000 2.845
54.32000 1.732
54.34000 3.015
54.36000 1.687
54.38000 2.030
54.40000 3.598
54.42000 -0.501
54.44000 1.978
54.46000 1.557
54.48000 0.494
54.50000 1.071
54.52000 -0.756
54.54000 5.058
54.56000 -0.133
54.58000 -1.714
54.60000 1.895
54.62000 5.083
54.64000 1.877
54.66000 -1.074
54.68000 -1.863
54.70000 -0.772
54.72000 3.986
54.74000 4.720
54.76000 2.780
54.78000 -0.189
54.80000 -1.027
54.82000 3.078
54.84000 4.265
54.86000 0.632
54.88000 0.814
54.90000 6.158
54.92000 0.277
54.94000 2.653
54.96000 3.249
54.98000 1.065
55.00000 0.205
55.02000 0.960
55.04000 0.012
55.06000 3.796
55.08000 0.765
55.10000 2.077
55.12000 1.637
55.14000 0.328
55.16000 2.310
55.18000 1.926
55.20000 -2.600
55.22000 -1.647
55.24000 -1.247
55.26000 -0.806
55.28000 0.469
55.30000 0.371
55.32000 2.525
55.34000 0.577
55.36000 -0.831
55.38000 -1.108
55.40000 3.429
55.42000 5.238
55.44000 4.552
55.46000 0.135
55.48000 1.745
55.50000 1.220
55.52000 2.494
55.54000 2.542
55.56000 5.204
55.58000 8.077
55.60000 3.499
55.62000 3.136
55.64000 5.235
55.66000 3.300
55.68000 0.227
55.70000 2.709
55.72000 1.405
55.74000 0.394
55.76000 4.179
55.78000 4.995
55.80000 5.713
55.82000 6.093
55.84000 6.765
55.86000 6.567
55.88000 5.406
55.90000 3.799
55.92000 0.469
55.94000 0.090
55.96000 -0.477
55.98000 5.434
56.00000 7.413
56.02000 6.678
56.04000 5.549
56.06000 4.057
56.08000 2.983
56.10000 4.633
56.12000 5.094
56.14000 3.154
56.16000 7.376
56.18000 4.849
56.20000 -2.289
56.22000 -0.095
56.24000 3.005
56.26000 4.275
56.28000 5.877
56.30000 6.599
56.32000 6.800
56.34000 6.724
56.36000 3.389
56.38000 5.847
56.40000 2.024
56.42000 3.393
56.44000 5.771
56.46000 0.300
56.48000 -1.621
56.50000 -0.016
56.52000 -2.518
56.54000 3.109
56.56000 8.033
56.58000 3.974
56.60000 1.961
56.62000 5.306
56.64000 5.607
56.66000 6.285
56.68000 5.236
56.70000 4.207
56.72000 2.174
56.74000 4.286
56.76000 2.084
56.78000 -0.636
56.80000 0.252
56.82000 0.154
56.84000 -1.768
56.86000 -2.515
56.88000 4.988
56.90000 8.538
56.92000 5.191
56.94000 7.016
56.96000 3.835
56.98000 0.978
57.00000 -0.218
57.02000 -2.095
57.04000 5.092
57.06000 4.335
57.08000 3.642
57.10000 5.999
57.12000 4.795
57.14000 5.161
57.16000 3.306
57.18000 5.377
57.20000 3.383
57.22000 3.096
57.24000 9.057
57.26000 11.415
57.28000 5.419
57.30000 1.206
57.32000 1.202
57.34000 -1.963
57.36000 1.346
57.38000 2.461
57.40000 0.608
57.42000 3.495
57.44000 3.787
57.46000 2.367
57.48000 4.123
57.50000 1.851
57.52000 -2.253
57.54000 0.316
57.56000 2.843
57.58000 1.589
57.60000 1.792
57.62000 -0.578
57.64000 0.373
57.66000 1.158
57.68000 2.161
57.70000 2.018
57.72000 -0.210
57.74000 3.726
57.76000 4.834
57.78000 3.993
57.80000 4.769
57.82000 3.473
57.84000 1.934
57.86000 1.994
57.88000 0.076
57.90000 3.631
57.92000 4.441
57.94000 4.634
57.96000 3.441
57.98000 3.313
58.00000 3.251
58.02000 1.418
58.04000 3.716
58.06000 8.731
58.08000 6.554
58.10000 4.526
58.12000 2.938
58.14000 0.699
58.16000 4.749
58.18000 0.670
58.20000 2.962
58.22000 5.022
58.24000 7.055
58.26000 5.573
58.28000 0.571
58.30000 -2.492
58.32000 -0.484
58.34000 0.019
58.36000 2.437
58.38000 4.454
58.40000 4.928
58.42000 8.057
58.44000 8.548
58.46000 6.708
58.48000 3.610
58.50000 3.112
58.52000 5.881
58.54000 9.103
58.56000 4.050
58.58000 2.866
58.60000 2.897
58.62000 2.454
58.64000 0.330
58.66000 1.356
58.68000 -1.003
58.70000 3.960
58.72000 4.283
58.74000 7.181
58.76000 8.031
58.78000 2.836
58.80000 3.415
58.82000 5.475
58.84000 5.320
58.86000 3.337
58.88000 2.013
58.90000 3.604
58.92000 4.163
58.94000 0.018
58.96000 -2.481
58.98000 -0.010
59.00000 2.308
59.02000 1.577
59.04000 2.949
59.06000 -1.256
59.08000 -1.069
59.10000 0.513
59.12000 2.573
59.14000 3.720
59.16000 3.424
59.18000 3.188
59.20000 3.749
59.22000 0.193
59.24000 -0.238
59.26000 -1.920
59.28000 -2.466
59.30000 -1.015
59.32000 2.855
59.34000 4.390
59.36000 3.493
59.38000 2.277
59.40000 4.684
59.42000 5.392
59.44000 5.088
59.46000 4.400
59.48000 5.989
59.50000 4.078
59.52000 5.910
59.54000 3.142
59.56000 3.633
59.58000 4.313
59.60000 5.712
59.62000 3.385
59.64000 3.235
59.66000 5.092
59.68000 6.682
59.70000 6.413
59.72000 4.423
59.74000 6.175
59.76000 3.621
59.78000 2.228
59.80000 6.299
59.82000 4.272
59.84000 3.388
59.86000 4.984
59.88000 3.843
59.90000 2.688
59.92000 2.843
59.94000 5.969
59.96000 1.590
59.98000 2.680
60.00000 3.000
60.02000 4.689
60.04000 2.988
60.06000 -2.451
60.08000 -1.251
60.10000 1.585
60.12000 1.900
60.14000 1.734
60.16000 1.853
60.18000 0.715
60.20000 1.771
60.22000 3.377
60.24000 6.888
60.26000 5.097
60.28000 6.703
60.30000 6.839
60.32000 6.343
60.34000 6.597
60.36000 1.770
60.38000 -2.437
60.40000 0.704
60.42000 2.614
60.44000 3.561
60.46000 2.830
60.48000 3.902
60.50000 3.343
60.52000 0.995
60.54000 5.406
60.56000 7.949
60.58000 4.188
60.60000 0.972
60.62000 -0.627
60.64000 2.690
60.66000 4.878
60.68000 2.314
60.70000 1.643
60.72000 3.528
60.74000 3.173
60.76000 2.433
60.78000 3.673
60.80000 1.550
60.82000 1.502
60.84000 0.648
60.86000 0.468
60.88000 -2.050
60.90000 1.539
60.92000 5.630
60.94000 3.528
60.96000 2.021
60.98000 4.752
61.00000 0.104
61.02000 2.494
61.04000 5.789
61.06000 4.110
61.08000 0.156
61.10000 0.341
61.12000 -1.106
61.14000 -2.430
61.16000 -1.542
61.18000 3.996
61.20000 6.589
61.22000 4.037
61.24000 4.696
61.26000 7.486
61.28000 5.117
61.30000 -1.113
61.32000 0.149
61.34000 1.788
61.36000 -0.119
61.38000 1.217
61.40000 0.341
61.42000 1.806
61.44000 3.961
61.46000 4.709
61.48000 2.433
61.50000 3.419
61.52000 2.516
61.54000 3.432
61.56000 3.852
61.58000 3.474
61.60000 6.025
61.62000 5.110
61.64000 1.724
61.66000 -2.420
61.68000 -0.345
61.70000 0.939
61.72000 0.378
61.74000 4.593
61.76000 3.188
61.78000 -1.877
61.80000 0.778
61.82000 2.427
61.84000 3.982
61.86000 5.304
61.88000 5.592
61.90000 4.521
61.92000 -1.660
61.94000 0.191
61.96000 0.697
61.98000 1.085
62.00000 0.703
62.02000 -1.879
62.04000 1.332
62.06000 1.105
62.08000 0.617
62.10000 0.784
62.12000 4.455
62.14000 3.434
62.16000 2.081
62.18000 0.755
62.20000 -0.867
62.22000 -1.772
62.24000 5.325
62.26000 5.569
62.28000 2.240
62.30000 2.230
62.32000 2.294
62.34000 1.200
62.36000 0.954
62.38000 -0.850
62.40000 -0.660
62.42000 0.918
62.44000 0.308
62.46000 -0.304
62.48000 0.323
62.50000 3.370
62.52000 1.800
62.54000 -2.407
62.56000 0.174
62.58000 1.406
62.60000 -1.340
62.62000 -1.617
62.64000 3.436
62.66000 5.139
62.68000 3.730
62.70000 4.986
62.72000 3.993
62.74000 1.310
62.76000 1.959
62.78000 2.039
62.80000 0.955
62.82000 2.010
62.84000 1.082
62.86000 -2.405
62.88000 -0.193
62.90000 3.533
62.92000 1.734
62.94000 5.518
62.96000 2.173
62.98000 1.073
63.00000 2.757
63.02000 0.842
63.04000 0.014
63.06000 -0.220
63.08000 0.597
63.10000 -1.412
63.12000 0.403
63.14000 1.040
63.16000 0.180
63.18000 1.434
63.20000 3.685
63.22000 2.012
63.24000 4.643
63.26000 2.925
63.28000 -0.159
63.30000 -2.262
63.32000 3.024
63.34000 0.782
63.36000 -2.325
63.38000 -1.345
63.40000 4.019
63.42000 1.028
63.44000 0.138
63.46000 -1.525
63.48000 0.508
63.50000 3.989
63.52000 2.486
63.54000 -0.314
63.56000 -1.481
63.58000 1.828
63.60000 1.646
63.62000 -1.019
63.64000 1.132
63.66000 2.973
63.68000 -0.063
63.70000 -1.132
63.72000 -2.425
63.74000 -2.397
63.76000 -2.137
63.78000 1.783
63.80000 5.392
63.82000 5.286
63.84000 1.918
63.86000 1.732
63.88000 3.838
63.90000 1.468
63.92000 -0.890
63.94000 -2.185
63.96000 -2.434
63.98000 -1.151
64.00000 1.569
64.02000 4.290
64.04000 0.456
64.06000 0.432
64.08000 2.287
64.10000 1.163
64.12000 0.536
64.14000 -1.837
64.16000 0.392
64.18000 0.284
64.20000 -0.295
64.22000 1.498
64.24000 2.236
64.26000 -0.759
64.28000 1.481
64.30000 4.544
64.32000 1.286
64.34000 -0.177
64.36000 -1.712
64.38000 -1.558
64.40000 -2.440
64.42000 0.470
64.44000 -1.326
64.46000 3.127
64.48000 3.990
64.50000 2.686
64.52000 2.116
64.54000 1.450
64.56000 1.349
64.58000 -0.717
64.60000 -0.293
64.62000 -1.770
64.64000 0.782
64.66000 0.881
64.68000 2.209
64.70000 1.895
64.72000 4.239
64.74000 1.978
64.76000 -0.003
64.78000 -1.778
64.80000 0.249
64.82000 3.224
64.84000 2.233
64.86000 0.007
64.88000 2.430
64.90000 1.302
64.92000 0.061
64.94000 -0.409
64.96000 -0.984
64.98000 1.447
65.00000 0.368
65.02000 -0.383
65.04000 1.789
65.06000 3.299
65.08000 2.704
65.10000 -0.573
65.12000 -0.738
65.14000 0.372
65.16000 0.809
65.18000 0.662
65.20000 -2.436
65.22000 -1.809
65.24000 1.678
65.26000 1.839
65.28000 2.513
65.30000 4.014
65.32000 1.569
65.34000 -0.053
65.36000 1.292
65.38000 1.922
65.40000 5.619
65.42000 4.427
65.44000 2.934
65.46000 2.893
65.48000 1.995
65.50000 1.669
65.52000 0.362
65.54000 2.087
65.56000 4.511
65.58000 3.231
65.60000 0.825
65.62000 -0.913
65.64000 3.215
65.66000 5.229
65.68000 2.680
65.70000 2.132
65.72000 2.467
65.74000 0.480
65.76000 0.827
65.78000 -0.157
65.80000 1.933
65.82000 -1.688
65.84000 2.850
65.86000 -0.559
65.88000 0.169
65.90000 -2.437
65.92000 1.124
65.94000 4.064
65.96000 5.746
65.98000 3.767
66.00000 1.464
66.02000 0.035
66.04000 -0.017
66.06000 2.116
66.08000 3.839
66.10000 2.070
66.12000 0.871
66.14000 -0.255
66.16000 0.699
66.18000 -1.317
66.20000 0.930
66.22000 3.810
66.24000 3.950
66.26000 5.093
66.28000 4.316
66.30000 4.279
66.32000 6.029
66.34000 3.298
66.36000 3.178
66.38000 3.679
66.40000 4.825
66.42000 4.443
66.44000 1.688
66.46000 3.685
66.48000 5.063
66.50000 3.249
66.52000 3.929
66.54000 3.743
66.56000 5.402
66.58000 5.891
66.60000 3.121
66.62000 1.514
66.64000 2.643
66.66000 2.836
66.68000 4.769
66.70000 4.318
66.72000 5.184
66.74000 5.349
66.76000 4.654
66.78000 0.096
66.80000 5.255
66.82000 6.421
66.84000 10.516
66.86000 6.866
66.88000 6.789
66.90000 7.430
66.92000 7.176
66.94000 7.172
66.96000 6.735
66.98000 9.822
67.00000 7.853
67.02000 10.549
67.04000 14.944
67.06000 15.549
67.08000 13.781
67.10000 14.217
67.12000 11.948
67.14000 9.829
67.16000 10.463
67.18000 8.887
67.20000 9.113
67.22000 11.735
67.24000 13.038
67.26000 12.513
67.28000 11.984
67.30000 11.685
67.32000 15.028
67.34000 18.167
67.36000 17.038
67.38000 14.865
67.40000 13.590
67.42000 12.769
67.44000 19.971
67.46000 19.421
67.48000 13.957
67.50000 17.404
67.52000 15.844
67.54000 17.600
67.56000 19.173
67.58000 23.491
67.60000 21.850
67.62000 20.725
67.64000 19.292
67.66000 20.662
67.68000 18.936
67.70000 19.895
67.72000 19.260
67.74000 22.473
67.76000 18.275
67.78000 15.354
67.80000 14.598
67.82000 16.654
67.84000 14.176
67.86000 17.550
67.88000 18.939
67.90000 20.255
67.92000 19.151
67.94000 17.077
67.96000 14.147
67.98000 11.931
68.00000 15.016
68.02000 17.634
68.04000 13.201
68.06000 12.711
68.08000 12.577
68.10000 15.281
68.12000 16.863
68.14000 16.269
68.16000 14.766
68.18000 14.841
68.20000 14.651
68.22000 13.012
68.24000 10.126
68.26000 6.820
68.28000 5.884
68.30000 5.993
68.32000 6.837
68.34000 8.630
68.36000 5.607
68.38000 5.728
68.40000 5.081
68.42000 3.394
68.44000 8.162
68.46000 6.939
68.48000 7.057
68.50000 5.339
68.52000 3.301
68.54000 5.602
68.56000 5.193
68.58000 5.632
68.60000 4.082
68.62000 1.855
68.64000 4.497
68.66000 5.328
68.68000 6.814
68.70000 6.863
68.72000 5.088
68.74000 5.262
68.76000 5.077
68.78000 4.049
68.80000 2.543
68.82000 2.081
68.84000 1.379
68.86000 1.974
68.88000 3.698
68.90000 1.555
68.92000 2.487
68.94000 0.517
68.96000 0.979
68.98000 1.011
69.00000 1.688
69.02000 1.833
69.04000 3.535
69.06000 -0.535
69.08000 -0.004
69.10000 -2.409
69.12000 -1.898
69.14000 0.151
69.16000 0.888
69.18000 -0.556
69.20000 1.248
69.22000 0.361
69.24000 2.620
69.26000 2.975
69.28000 2.811
69.30000 2.755
69.32000 1.189
69.34000 2.872
69.36000 2.811
69.38000 0.769
69.40000 3.746
69.42000 2.662
69.44000 1.828
69.46000 -0.773
69.48000 -0.083
69.50000 3.460
69.52000 3.159
69.54000 0.133
69.56000 3.155
69.58000 -0.651
69.60000 -2.335
69.62000 0.028
69.64000 0.208
69.66000 0.312
69.68000 1.094
69.70000 -1.562
69.72000 -0.237
69.74000 0.207
69.76000 2.020
69.78000 2.737
69.80000 2.508
69.82000 2.728
69.84000 -0.178
69.86000 1.267
69.88000 2.097
69.90000 1.945
69.92000 1.118
69.94000 2.073
69.96000 0.931
69.98000 1.139
70.00000 -0.878
70.02000 -0.694
70.04000 -0.657
70.06000 1.480
70.08000 -0.218
70.10000 1.645
70.12000 2.807
70.14000 1.144
70.16000 -1.234
70.18000 0.453
70.20000 0.129
70.22000 -0.328
70.24000 0.641
70.26000 4.326
70.28000 4.770
70.30000 4.313
70.32000 1.524
70.34000 1.135
70.36000 1.201
70.38000 2.359
70.40000 1.430
70.42000 2.824
70.44000 1.838
70.46000 -0.393
70.48000 -0.308
70.50000 0.063
70.52000 0.253
70.54000 -1.096
70.56000 2.050
70.58000 0.698
70.60000 -2.330
70.62000 0.032
70.64000 0.138
70.66000 3.297
70.68000 3.196
70.70000 2.309
70.72000 2.231
70.74000 -0.599
70.76000 -2.091
70.78000 -2.192
70.80000 -0.408
70.82000 -2.008
70.84000 0.270
70.86000 6.009
70.88000 3.080
70.90000 1.857
70.92000 0.636
70.94000 1.548
70.96000 0.302
70.98000 1.259
71.00000 0.769
71.02000 2.823
71.04000 0.254
71.06000 0.369
71.08000 0.440
71.10000 -0.247
71.12000 3.071
71.14000 2.722
71.16000 0.023
71.18000 -2.021
71.20000 2.547
71.22000 2.666
71.24000 4.109
71.26000 1.080
71.28000 0.242
71.30000 -2.300
71.32000 -0.573
71.34000 4.823
71.36000 5.359
71.38000 2.313
71.40000 -1.462
71.42000 -1.204
71.44000 0.807
71.46000 -0.005
71.48000 1.886
71.50000 3.633
71.52000 3.952
71.54000 -0.085
71.56000 0.394
71.58000 2.521
71.60000 1.144
71.62000 -1.890
71.64000 0.726
71.66000 0.950
71.68000 -2.293
71.70000 0.392
71.72000 3.590
71.74000 6.953
71.76000 6.005
71.78000 2.042
71.80000 -1.620
71.82000 -0.562
71.84000 -0.492
71.86000 -1.184
71.88000 1.068
71.90000 -0.137
71.92000 -0.201
71.94000 0.774
71.96000 1.737
71.98000 3.553
72.00000 0.893
72.02000 0.426
72.04000 2.047
72.06000 0.524
72.08000 0.436
72.10000 1.476
72.12000 4.201
72.14000 1.951
72.16000 -1.461
72.18000 0.073
72.20000 1.435
72.22000 -1.874
72.24000 3.533
72.26000 3.587
72.28000 0.789
72.30000 -2.209
72.32000 -0.951
72.34000 2.194
72.36000 6.075
72.38000 2.986
72.40000 4.498
72.42000 1.195
72.44000 2.411
72.46000 -0.006
72.48000 2.272
72.50000 3.299
72.52000 0.992
72.54000 4.736
72.56000 2.653
72.58000 -0.760
72.60000 0.572
72.62000 0.389
72.64000 1.292
72.66000 -2.243
72.68000 -0.981
72.70000 2.498
72.72000 2.643
72.74000 2.452
72.76000 0.771
72.78000 2.001
72.80000 1.092
72.82000 -1.357
72.84000 -0.175
72.86000 0.440
72.88000 -0.143
72.90000 3.062
72.92000 2.890
72.94000 0.497
72.96000 -1.315
72.98000 3.400
73.00000 2.630
73.02000 5.302
73.04000 6.505
73.06000 4.614
73.08000 1.979
73.10000 0.534
73.12000 -0.499
73.14000 1.958
73.16000 3.782
73.18000 4.197
73.20000 2.177
73.22000 1.634
73.24000 1.509
73.26000 3.952
73.28000 -1.257
73.30000 -1.062
73.32000 -2.072
73.34000 1.483
73.36000 6.665
73.38000 6.413
73.40000 1.799
73.42000 1.325
73.44000 2.712
73.46000 3.024
73.48000 5.540
73.50000 4.967
73.52000 -2.074
73.54000 -1.724
73.56000 1.368
73.58000 2.476
73.60000 3.415
73.62000 4.284
73.64000 2.075
73.66000 3.305
73.68000 1.357
73.70000 -2.225
73.72000 -2.109
73.74000 2.761
73.76000 2.676
73.78000 2.721
73.80000 3.934
73.82000 3.153
73.84000 -0.893
73.86000 0.246
73.88000 4.403
73.90000 7.907
73.92000 7.081
73.94000 5.734
73.96000 2.935
73.98000 1.851
74.00000 4.151
74.02000 2.867
74.04000 4.539
74.06000 2.793
74.08000 1.848
74.10000 -0.074
74.12000 0.710
74.14000 0.784
74.16000 4.594
74.18000 3.405
74.20000 0.356
74.22000 2.047
74.24000 2.020
74.26000 1.428
74.28000 2.701
74.30000 1.355
74.32000 0.258
74.34000 2.511
74.36000 3.531
74.38000 2.070
74.40000 -1.003
74.42000 -1.830
74.44000 -2.227
74.46000 -2.180
74.48000 2.316
74.50000 1.018
74.52000 0.603
74.54000 2.658
74.56000 4.549
74.58000 5.566
74.60000 2.261
74.62000 -0.414
74.64000 3.304
74.66000 4.775
74.68000 1.975
74.70000 2.522
74.72000 1.810
74.74000 4.079
74.76000 5.176
74.78000 -0.160
74.80000 -0.274
74.82000 0.492
74.84000 2.898
74.86000 3.106
74.88000 1.196
74.90000 -0.357
74.92000 1.047
74.94000 5.285
74.96000 2.383
74.98000 -2.026
75.00000 -0.274
75.02000 0.171
75.04000 -1.730
75.06000 0.028
75.08000 -2.237
75.10000 -2.236
75.12000 4.912
75.14000 2.065
75.16000 2.778
75.18000 1.596
75.20000 0.747
75.22000 -0.909
75.24000 3.044
75.26000 3.360
75.28000 5.868
75.30000 0.649
75.32000 -0.097
75.34000 5.208
75.36000 6.338
75.38000 6.598
75.40000 3.060
75.42000 3.721
75.44000 3.237
75.46000 2.120
75.48000 -2.239
75.50000 -1.889
75.52000 2.177
75.54000 4.107
75.56000 1.622
75.58000 2.193
75.60000 2.679
75.62000 0.940
75.64000 -0.686
75.66000 1.716
75.68000 0.915
75.70000 2.365
75.72000 4.099
75.74000 2.287
75.76000 2.387
75.78000 2.790
75.80000 1.406
75.82000 -0.307
75.84000 0.920
75.86000 4.101
75.88000 2.490
75.90000 0.550
75.92000 3.809
75.94000 6.533
75.96000 4.784
75.98000 -1.122
76.00000 0.884
76.02000 3.701
76.04000 1.174
76.06000 1.582
76.08000 0.507
76.10000 -2.239
76.12000 2.100
76.14000 5.027
76.16000 0.458
76.18000 0.121
76.20000 1.593
76.22000 2.867
76.24000 2.598
76.26000 -1.383
76.28000 -1.094
76.30000 2.339
76.32000 4.890
76.34000 1.550
76.36000 4.353
76.38000 5.022
76.40000 0.174
76.42000 -0.288
76.44000 5.136
76.46000 9.883
76.48000 11.117
76.50000 8.950
76.52000 0.720
76.54000 -0.788
76.56000 -0.038
76.58000 3.166
76.60000 0.433
76.62000 5.477
76.64000 9.899
76.66000 6.612
76.68000 6.608
76.70000 2.075
76.72000 4.517
76.74000 4.946
76.76000 0.489
76.78000 1.624
76.80000 0.832
76.82000 3.860
76.84000 2.480
76.86000 2.865
76.88000 2.537
76.90000 5.101
76.92000 5.889
76.94000 2.067
76.96000 2.893
76.98000 4.558
77.00000 6.546
77.02000 -0.355
77.04000 -1.721
77.06000 3.836
77.08000 5.708
77.10000 2.945
77.12000 3.656
77.14000 0.820
77.16000 2.429
77.18000 4.363
77.20000 2.849
77.22000 1.383
77.24000 -0.447
77.26000 -2.250
77.28000 -0.781
77.30000 5.575
77.32000 3.873
77.34000 1.614
77.36000 4.367
77.38000 4.690
77.40000 1.024
77.42000 1.538
77.44000 5.553
77.46000 6.356
77.48000 5.564
77.50000 3.606
77.52000 3.565
77.54000 6.313
77.56000 2.939
77.58000 0.080
77.60000 -0.117
77.62000 -2.267
77.64000 -0.123
77.66000 -1.312
77.68000 -0.819
77.70000 2.100
77.72000 3.214
77.74000 5.944
77.76000 6.281
77.78000 2.024
77.80000 2.536
77.82000 -0.588
77.84000 4.994
77.86000 4.286
77.88000 3.981
77.90000 -0.082
77.92000 -1.736
77.94000 1.257
77.96000 1.888
77.98000 1.557
78.00000 3.278
78.02000 5.807
78.04000 5.078
78.06000 1.386
78.08000 0.298
78.10000 0.511
78.12000 0.432
78.14000 0.294
78.16000 3.577
78.18000 6.289
78.20000 9.074
78.22000 7.058
78.24000 4.242
78.26000 3.845
78.28000 3.989
78.30000 2.108
78.32000 4.254
78.34000 2.406
78.36000 1.983
78.38000 0.490
78.40000 2.927
78.42000 3.599
78.44000 3.138
78.46000 6.060
78.48000 6.443
78.50000 2.520
78.52000 1.899
78.54000 -2.298
78.56000 0.800
78.58000 2.464
78.60000 5.656
78.62000 2.978
78.64000 4.571
78.66000 0.952
78.68000 3.325
78.70000 -1.498
78.72000 -0.195
78.74000 4.569
78.76000 3.042
78.78000 2.141
78.80000 4.009
78.82000 4.112
78.84000 2.647
78.86000 1.329
78.88000 0.938
78.90000 3.387
78.92000 1.622
78.94000 -0.715
78.96000 1.283
78.98000 4.371
79.00000 -1.498
79.02000 3.228
79.04000 7.738
79.06000 -0.468
79.08000 -1.198
79.10000 2.171
79.12000 2.883
79.14000 -1.777
79.16000 1.117
79.18000 0.466
79.20000 -0.595
79.22000 0.185
79.24000 1.166
79.26000 2.457
79.28000 -0.307
79.30000 2.105
79.32000 0.280
79.34000 0.767
79.36000 4.718
79.38000 -1.658
79.40000 -0.490
79.42000 -1.146
79.44000 -0.821
79.46000 0.716
79.48000 2.911
79.50000 -0.754
79.52000 4.531
79.54000 4.073
79.56000 6.168
79.58000 0.906
79.60000 1.438
79.62000 3.531
79.64000 6.052
79.66000 5.182
79.68000 2.245
79.70000 2.258
79.72000 4.842
79.74000 -2.311
79.76000 5.582
79.78000 3.818
79.80000 2.530
79.82000 3.611
79.84000 3.566
79.86000 -2.370
79.88000 1.852
79.90000 4.955
79.92000 7.666
79.94000 7.962
79.96000 4.284
79.98000 5.648
80.00000 7.002
80.02000 5.166
80.04000 4.886
80.06000 7.710
80.08000 1.323
80.10000 -0.901
80.12000 1.296
80.14000 -1.815
80.16000 2.048
80.18000 -0.377
80.20000 2.406
80.22000 5.874
80.24000 5.076
80.26000 2.310
80.28000 -0.837
80.30000 3.441
80.32000 6.561
80.34000 3.426
80.36000 1.276
80.38000 0.729
80.40000 3.831
80.42000 3.117
80.44000 8.249
80.46000 4.015
80.48000 7.476
80.50000 8.678
80.52000 11.221
80.54000 7.812
80.56000 11.225
80.58000 8.718
80.60000 8.002
80.62000 6.992
80.64000 5.684
80.66000 7.980
80.68000 6.532
80.70000 8.455
80.72000 6.842
80.74000 7.669
80.76000 8.702
80.78000 10.075
80.80000 8.905
80.82000 8.168
80.84000 6.674
80.86000 10.215
80.88000 15.654
80.90000 15.614
80.92000 14.305
80.94000 11.499
80.96000 8.924
80.98000 12.072
81.00000 8.161
81.02000 14.066
81.04000 18.845
81.06000 18.554
81.08000 17.639
81.10000 19.372
81.12000 15.701
81.14000 17.822
81.16000 18.420
81.18000 14.453
81.20000 13.428
81.22000 11.584
81.24000 17.538
81.26000 18.316
81.28000 14.595
81.30000 21.015
81.32000 21.992
81.34000 19.281
81.36000 13.772
81.38000 21.254
81.40000 25.176
81.42000 21.044
81.44000 24.470
81.46000 22.856
81.48000 20.956
81.50000 24.429
81.52000 24.625
81.54000 25.432
81.56000 25.909
81.58000 29.720
81.60000 25.621
81.62000 22.951
81.64000 25.163
81.66000 28.550
81.68000 28.260
81.70000 22.873
81.72000 25.324
81.74000 30.411
81.76000 30.480
81.78000 30.045
81.80000 29.068
81.82000 28.388
81.84000 23.680
81.86000 20.880
81.88000 25.209
81.90000 22.207
81.92000 20.101
81.94000 20.102
81.96000 18.952
81.98000 23.335
82.00000 27.271
82.02000 26.320
82.04000 24.098
82.06000 21.718
82.08000 24.430
82.10000 27.249
82.12000 25.169
82.14000 22.983
82.16000 22.101
82.18000 15.526
82.20000 15.036
82.22000 14.742
82.24000 14.685
82.26000 14.697
82.28000 17.537
82.30000 20.435
82.32000 13.649
82.34000 18.148
82.36000 13.690
82.38000 12.608
82.40000 8.680
82.42000 9.879
82.44000 12.403
82.46000 13.762
82.48000 12.560
82.50000 16.577
82.52000 14.032
82.54000 13.694
82.56000 14.600
82.58000 15.545
82.60000 9.246
82.62000 5.487
82.64000 9.204
82.66000 12.169
82.68000 8.377
82.70000 2.140
82.72000 6.190
82.74000 9.511
82.76000 12.787
82.78000 12.998
82.80000 8.577
82.82000 10.392
82.84000 9.562
82.86000 6.310
82.88000 6.861
82.90000 8.022
82.92000 6.781
82.94000 7.679
82.96000 6.079
82.98000 8.321
83.00000 8.002
83.02000 4.241
83.04000 4.056
83.06000 0.990
83.08000 -2.423
83.10000 -0.286
83.12000 1.065
83.14000 6.741
83.16000 5.601
83.18000 9.013
83.20000 5.466
83.22000 0.581
83.24000 3.762
83.26000 4.863
83.28000 4.131
83.30000 8.070
83.32000 7.053
83.34000 3.714
83.36000 7.812
83.38000 2.351
83.40000 0.132
83.42000 0.883
83.44000 2.523
83.46000 6.609
83.48000 6.117
83.50000 1.445
83.52000 -1.033
83.54000 -1.170
83.56000 0.472
83.58000 3.386
83.60000 0.347
83.62000 5.394
83.64000 4.534
83.66000 5.830
83.68000 4.297
83.70000 6.140
83.72000 2.906
83.74000 1.127
83.76000 0.728
83.78000 -0.121
83.80000 -0.002
83.82000 0.909
83.84000 2.184
83.86000 4.558
83.88000 3.749
83.90000 3.317
83.92000 5.479
83.94000 4.568
83.96000 6.140
83.98000 6.130
84.00000 5.779
84.02000 -2.358
84.04000 1.668
84.06000 3.496
84.08000 3.651
84.10000 6.110
84.12000 3.660
84.14000 7.756
84.16000 3.485
84.18000 1.339
84.20000 2.581
84.22000 3.132
84.24000 4.378
84.26000 6.790
84.28000 5.737
84.30000 2.870
84.32000 4.484
84.34000 2.472
84.36000 1.529
84.38000 -0.791
84.40000 0.841
84.42000 3.818
84.44000 2.467
84.46000 2.745
84.48000 -0.647
84.50000 1.414
84.52000 5.895
84.54000 1.877
84.56000 2.733
84.58000 7.835
84.60000 9.125
84.62000 9.874
84.64000 5.860
84.66000 6.467
84.68000 10.127
84.70000 8.067
84.72000 8.614
84.74000 9.912
84.76000 9.101
84.78000 9.992
84.80000 7.153
84.82000 6.256
84.84000 5.718
84.86000 9.011
84.88000 10.277
84.90000 7.245
84.92000 3.480
84.94000 7.004
84.96000 5.622
84.98000 6.906
85.00000 8.308
85.02000 7.176
85.04000 9.738
85.06000 14.626
85.08000 10.850
85.10000 7.978
85.12000 11.081
85.14000 13.730
85.16000 15.642
85.18000 12.433
85.20000 15.204
85.22000 13.461
85.24000 14.001
85.26000 16.033
85.28000 18.015
85.30000 15.120
85.32000 18.422
85.34000 14.403
85.36000 15.376
85.38000 17.182
85.40000 16.957
85.42000 19.465
85.44000 20.569
85.46000 19.258
85.48000 23.101
85.50000 21.039
85.52000 16.762
85.54000 22.354
85.56000 25.763
85.58000 23.584
85.60000 21.483
85.62000 26.320
85.64000 28.360
85.66000 27.121
85.68000 21.176
85.70000 23.357
85.72000 26.079
85.74000 27.196
85.76000 25.963
85.78000 25.372
85.80000 22.305
85.82000 21.673
85.84000 22.627
85.86000 22.643
85.88000 22.445
85.90000 26.753
85.92000 26.259
85.94000 23.287
85.96000 25.810
85.98000 24.909
86.00000 23.272
86.02000 20.903
86.04000 21.651
86.06000 20.981
86.08000 17.540
86.10000 21.843
86.12000 23.102
86.14000 25.389
86.16000 29.149
86.18000 30.648
86.20000 23.005
86.22000 21.611
86.24000 19.705
86.26000 19.936
86.28000 20.269
86.30000 15.999
86.32000 14.946
86.34000 14.367
86.36000 12.656
86.38000 14.439
86.40000 14.199
86.42000 10.928
86.44000 13.797
86.46000 16.804
86.48000 14.131
86.50000 5.821
86.52000 7.297
86.54000 9.918
86.56000 11.955
86.58000 11.261
86.60000 13.868
86.62000 11.532
86.64000 9.494
86.66000 11.761
86.68000 10.453
86.70000 6.027
86.72000 6.378
86.74000 6.872
86.76000 6.184
86.78000 5.553
86.80000 9.401
86.82000 14.808
86.84000 7.605
86.86000 4.727
86.88000 6.966
86.90000 7.210
86.92000 4.197
86.94000 3.812
86.96000 0.215
86.98000 0.837
87.00000 6.371
87.02000 9.695
87.04000 4.563
87.06000 4.116
87.08000 2.435
87.10000 1.245
87.12000 0.685
87.14000 -1.725
87.16000 2.250
87.18000 7.567
87.20000 1.665
87.22000 3.771
87.24000 5.363
87.26000 3.315
87.28000 0.997
87.30000 3.515
87.32000 0.561
87.34000 4.343
87.36000 6.659
87.38000 4.818
87.40000 1.894
87.42000 0.519
87.44000 1.695
87.46000 -1.411
87.48000 -2.205
87.50000 0.414
87.52000 5.619
87.54000 6.348
87.56000 4.394
87.58000 2.638
87.60000 1.418
87.62000 -1.196
87.64000 3.385
87.66000 4.556
87.68000 3.566
87.70000 0.498
87.72000 -0.311
87.74000 1.066
87.76000 1.837
87.78000 1.165
87.80000 1.942
87.82000 3.360
87.84000 5.175
87.86000 8.065
87.88000 3.844
87.90000 -1.347
87.92000 -2.152
87.94000 0.121
87.96000 1.947
87.98000 0.252
88.00000 1.855
88.02000 3.541
88.04000 1.085
88.06000 -0.531
88.08000 -0.309
88.10000 2.943
88.12000 -1.571
88.14000 -2.083
88.16000 1.261
88.18000 3.769
88.20000 3.408
88.22000 8.259
88.24000 5.101
88.26000 8.379
88.28000 4.638
88.30000 -1.484
88.32000 -1.877
88.34000 -1.448
88.36000 1.447
88.38000 5.471
88.40000 6.102
88.42000 3.163
88.44000 3.829
88.46000 1.767
88.48000 5.470
88.50000 5.770
88.52000 3.378
88.54000 1.767
88.56000 1.373
88.58000 -0.209
88.60000 6.763
88.62000 9.958
88.64000 7.031
88.66000 5.917
88.68000 5.236
88.70000 2.201
88.72000 0.821
88.74000 6.280
88.76000 4.872
88.78000 5.121
88.80000 4.569
88.82000 -2.070
88.84000 1.839
88.86000 6.108
88.88000 3.267
88.90000 -0.314
88.92000 5.511
88.94000 2.348
88.96000 0.844
88.98000 0.745
89.00000 0.284
89.02000 0.948
89.04000 -1.505
89.06000 1.125
89.08000 1.544
89.10000 2.565
89.12000 -1.629
89.14000 2.593
89.16000 3.468
89.18000 4.746
89.20000 0.821
89.22000 2.342
89.24000 3.797
89.26000 5.809
89.28000 3.769
89.30000 -2.089
89.32000 2.648
89.34000 1.649
89.36000 4.336
89.38000 1.958
89.40000 0.003
89.42000 -0.158
89.44000 1.064
89.46000 3.635
89.48000 5.130
89.50000 4.272
89.52000 6.006
89.54000 1.464
89.56000 2.577
89.58000 3.863
89.60000 1.063
89.62000 0.959
89.64000 -0.244
89.66000 2.194
89.68000 0.960
89.70000 3.709
89.72000 3.460
89.74000 3.253
89.76000 1.705
89.78000 -0.021
89.80000 -0.062
89.82000 3.360
89.84000 5.458
89.86000 3.492
89.88000 0.157
89.90000 2.338
89.92000 2.535
89.94000 -0.569
89.96000 -1.480
89.98000 2.610
90.00000 6.032
90.02000 5.230
90.04000 1.974
90.06000 1.361
90.08000 3.865
90.10000 5.139
90.12000 1.496
90.14000 0.337
90.16000 3.104
90.18000 1.152
90.20000 0.564
90.22000 3.565
90.24000 0.005
90.26000 2.450
90.28000 3.996
90.30000 2.722
90.32000 2.478
90.34000 2.199
90.36000 1.535
90.38000 2.095
90.40000 -0.278
90.42000 5.605
90.44000 6.183
90.46000 3.989
90.48000 1.904
90.50000 2.111
90.52000 7.878
90.54000 6.045
90.56000 3.096
90.58000 4.905
90.60000 3.848
90.62000 1.476
90.64000 4.469
90.66000 4.979
90.68000 4.979
90.70000 7.247
90.72000 2.288
90.74000 3.094
90.76000 6.452
90.78000 10.042
90.80000 5.830
90.82000 5.850
90.84000 8.788
90.86000 5.186
90.88000 -2.049
90.90000 -0.745
90.92000 4.551
90.94000 3.697
90.96000 3.704
90.98000 0.875
91.00000 2.096
91.02000 4.921
91.04000 6.506
91.06000 4.305
91.08000 6.733
91.10000 6.326
91.12000 9.323
91.14000 8.522
91.16000 3.863
91.18000 4.558
91.20000 2.712
91.22000 4.749
91.24000 4.153
91.26000 5.651
91.28000 3.769
91.30000 3.939
91.32000 3.797
91.34000 4.930
91.36000 5.387
91.38000 7.787
91.40000 4.180
91.42000 4.746
91.44000 7.330
91.46000 2.993
91.48000 3.037
91.50000 1.205
91.52000 6.031
91.54000 6.520
91.56000 4.190
91.58000 4.549
91.60000 8.525
91.62000 9.645
91.64000 9.141
91.66000 8.587
91.68000 5.425
91.70000 8.185
91.72000 4.668
91.74000 0.651
91.76000 0.599
91.78000 0.090
91.80000 -0.959
91.82000 -2.044
91.84000 -0.459
91.86000 4.981
91.88000 7.492
91.90000 5.295
91.92000 8.608
91.94000 7.667
91.96000 6.502
91.98000 3.667
92.00000 0.921
92.02000 7.348
92.04000 6.293
92.06000 5.849
92.08000 3.244
92.10000 4.108
92.12000 6.383
92.14000 8.294
92.16000 2.992
92.18000 -0.401
92.20000 -0.480
92.22000 2.119
92.24000 8.874
92.26000 8.500
92.28000 2.560
92.30000 1.167
92.32000 6.080
92.34000 4.992
92.36000 1.556
92.38000 2.426
92.40000 5.220
92.42000 0.866
92.44000 1.935
92.46000 -0.726
92.48000 -0.809
92.50000 4.852
92.52000 4.669
92.54000 9.805
92.56000 8.160
92.58000 7.809
92.60000 7.636
92.62000 3.001
92.64000 4.523
92.66000 7.124
92.68000 6.588
92.70000 7.353
92.72000 7.668
92.74000 9.224
92.76000 2.567
92.78000 2.368
92.80000 4.969
92.82000 3.817
92.84000 7.037
92.86000 8.349
92.88000 7.652
92.90000 9.305
92.92000 9.676
92.94000 0.334
92.96000 1.881
92.98000 0.977
93.00000 1.571
93.02000 -0.981
93.04000 3.953
93.06000 6.342
93.08000 4.913
93.10000 6.986
93.12000 7.193
93.14000 2.708
93.16000 5.229
93.18000 8.663
93.20000 5.629
93.22000 -2.083
93.24000 2.221
93.26000 2.590
93.28000 2.939
93.30000 6.298
93.32000 4.720
93.34000 3.394
93.36000 1.387
93.38000 5.092
93.40000 4.719
93.42000 0.824
93.44000 0.761
93.46000 3.295
93.48000 5.996
93.50000 3.551
93.52000 4.274
93.54000 5.671
93.56000 5.447
93.58000 3.661
93.60000 -0.064
93.62000 2.704
93.64000 7.316
93.66000 3.514
93.68000 2.311
93.70000 3.672
93.72000 4.050
93.74000 2.950
93.76000 0.424
93.78000 -1.481
93.80000 -1.266
93.82000 5.514
93.84000 3.850
93.86000 2.272
93.88000 3.300
93.90000 2.224
93.92000 3.206
93.94000 0.506
93.96000 0.413
93.98000 1.339
94.00000 2.812
94.02000 1.625
94.04000 -0.183
94.06000 -0.831
94.08000 -0.822
94.10000 2.754
94.12000 -0.493
94.14000 -1.960
94.16000 3.675
94.18000 3.132
94.20000 0.181
94.22000 -1.452
94.24000 3.126
94.26000 1.713
94.28000 1.108
94.30000 -1.468
94.32000 0.025
94.34000 -0.818
94.36000 3.595
94.38000 9.297
94.40000 5.446
94.42000 1.398
94.44000 2.738
94.46000 5.295
94.48000 2.452
94.50000 0.320
94.52000 6.579
94.54000 6.151
94.56000 1.577
94.58000 5.184
94.60000 1.734
94.62000 0.111
94.64000 0.233
94.66000 -0.549
94.68000 -2.158
94.70000 -0.056
94.72000 3.489
94.74000 1.066
94.76000 -2.005
94.78000 -1.868
94.80000 4.254
94.82000 5.848
94.84000 2.987
94.86000 1.448
94.88000 1.355
94.90000 0.389
94.92000 -2.162
94.94000 0.066
94.96000 4.410
94.98000 3.907
95.00000 -0.143
95.02000 0.380
95.04000 4.617
95.06000 4.662
95.08000 3.347
95.10000 0.372
95.12000 1.739
95.14000 3.946
95.16000 4.532
95.18000 1.990
95.20000 3.468
95.22000 4.488
95.24000 2.963
95.26000 4.173
95.28000 0.571
95.30000 7.006
95.32000 5.085
95.34000 1.787
95.36000 -1.134
95.38000 -1.544
95.40000 -0.565
95.42000 0.062
95.44000 3.959
95.46000 1.698
95.48000 4.691
95.50000 2.917
95.52000 2.400
95.54000 -2.152
95.56000 3.457
95.58000 3.556
95.60000 5.452
95.62000 2.894
95.64000 2.843
95.66000 2.172
95.68000 1.458
95.70000 -0.810
95.72000 4.547
95.74000 10.064
95.76000 2.381
95.78000 -0.449
95.80000 5.524
95.82000 4.586
95.84000 5.103
95.86000 9.637
95.88000 9.089
95.90000 3.078
95.92000 4.776
95.94000 7.170
95.96000 0.231
95.98000 6.282
96.00000 3.326
96.02000 5.833
96.04000 7.551
96.06000 5.183
96.08000 -1.934
96.10000 -1.828
96.12000 5.968
96.14000 2.182
96.16000 -1.507
96.18000 1.438
96.20000 -0.198
96.22000 0.962
96.24000 4.610
96.26000 5.358
96.28000 3.529
96.30000 2.247
96.32000 -1.153
96.34000 -1.667
96.36000 -2.139
96.38000 2.773
96.40000 0.504
96.42000 -0.468
96.44000 4.214
96.46000 1.602
96.48000 1.763
96.50000 2.485
96.52000 6.577
96.54000 6.141
96.56000 3.562
96.58000 3.569
96.60000 6.078
96.62000 6.950
96.64000 3.919
96.66000 1.112
96.68000 1.852
96.70000 -1.666
96.72000 -2.021
96.74000 -0.097
96.76000 5.485
96.78000 6.294
96.80000 8.792
96.82000 4.080
96.84000 6.423
96.86000 8.966
96.88000 10.682
96.90000 4.970
96.92000 5.731
96.94000 4.076
96.96000 3.788
96.98000 7.758
97.00000 6.251
97.02000 9.458
97.04000 3.962
97.06000 1.816
97.08000 2.315
97.10000 4.151
97.12000 2.831
97.14000 0.332
97.16000 -2.092
97.18000 3.319
97.20000 6.598
97.22000 9.307
97.24000 12.660
97.26000 12.731
97.28000 8.892
97.30000 3.318
97.32000 -1.574
97.34000 4.301
97.36000 8.262
97.38000 9.071
97.40000 3.951
97.42000 -0.906
97.44000 -1.643
97.46000 2.687
97.48000 1.097
97.50000 5.830
97.52000 8.865
97.54000 8.461
97.56000 11.410
97.58000 8.757
97.60000 9.314
97.62000 12.399
97.64000 9.182
97.66000 2.699
97.68000 3.597
97.70000 9.837
97.72000 2.498
97.74000 0.157
97.76000 8.404
97.78000 11.194
97.80000 6.264
97.82000 4.081
97.84000 8.267
97.86000 4.348
97.88000 6.707
97.90000 3.082
97.92000 4.616
97.94000 5.203
97.96000 4.358
97.98000 -0.126
98.00000 -0.288
98.02000 0.316
98.04000 0.431
98.06000 4.655
98.08000 -0.614
98.10000 2.895
98.12000 7.863
98.14000 2.880
98.16000 3.957
98.18000 7.065
98.20000 2.761
98.22000 2.149
98.24000 2.975
98.26000 -0.640
98.28000 5.021
98.30000 3.664
98.32000 4.095
98.34000 2.953
98.36000 2.461
98.38000 7.334
98.40000 7.060
98.42000 1.227
98.44000 3.612
98.46000 3.908
98.48000 5.388
98.50000 8.713
98.52000 8.578
98.54000 8.348
98.56000 -1.316
98.58000 3.359
98.60000 3.610
98.62000 8.713
98.64000 3.273
98.66000 4.015
98.68000 3.275
98.70000 7.108
98.72000 10.497
98.74000 2.746
98.76000 0.384
98.78000 -0.105
98.80000 -1.825
98.82000 9.159
98.84000 6.075
98.86000 6.687
98.88000 3.097
98.90000 3.280
98.92000 6.805
98.94000 15.416
98.96000 11.579
98.98000 0.034
99.00000 3.165
99.02000 -0.504
99.04000 -2.026
99.06000 5.849
99.08000 14.031
99.10000 6.129
99.12000 7.821
99.14000 5.294
99.16000 4.159
99.18000 2.453
99.20000 1.036
99.22000 2.545
99.24000 7.478
99.26000 5.407
99.28000 3.312
99.30000 13.310
99.32000 8.022
99.34000 5.687
99.36000 5.837
99.38000 7.017
99.40000 -1.039
99.42000 -1.095
99.44000 -2.071
99.46000 9.514
99.48000 6.044
99.50000 3.869
99.52000 1.918
99.54000 3.613
99.56000 0.008
99.58000 7.854
99.60000 8.816
99.62000 6.898
99.64000 6.575
99.66000 8.237
99.68000 -4.619
99.70000 2.462
99.72000 2.742
99.74000 4.011
99.76000 4.210
99.78000 6.575
99.80000 2.616
99.82000 3.059
99.84000 3.284
99.86000 -1.029
99.88000 -0.813
99.90000 3.364
99.92000 -2.273
99.94000 3.048
99.96000 10.856
99.98000 0.000
