'Id: "0011388" Comment: "Integrate frame 0011388_Au-Ir-Rh_Rh-rich_XRD-Mapping-101-0000.gfrmwith cursor Wedge Cursor #5" Operator: "B?rgel" Anode: "Cu" Wavelength: "1.5406" Scantype: "2Theta (TwoTheta)" TimePerStep: "1" X: "-13.5" Y: "-13.5" Z: "5.95" 
10.00000 0.000
10.02000 7.144
10.04000 -4.318
10.06000 -4.278
10.08000 10.559
10.10000 16.997
10.12000 2.433
10.14000 -3.505
10.16000 6.038
10.18000 -1.763
10.20000 4.580
10.22000 -2.541
10.24000 -0.626
10.26000 15.822
10.28000 36.335
10.30000 25.553
10.32000 8.871
10.34000 8.503
10.36000 1.667
10.38000 11.320
10.40000 3.257
10.42000 5.590
10.44000 15.842
10.46000 23.602
10.48000 15.726
10.50000 18.965
10.52000 15.041
10.54000 4.968
10.56000 4.452
10.58000 2.321
10.60000 9.075
10.62000 27.157
10.64000 30.227
10.66000 16.207
10.68000 4.162
10.70000 7.167
10.72000 11.641
10.74000 6.764
10.76000 5.293
10.78000 17.317
10.80000 14.031
10.82000 12.694
10.84000 11.062
10.86000 13.260
10.88000 38.262
10.90000 13.129
10.92000 11.841
10.94000 13.158
10.96000 6.969
10.98000 6.703
11.00000 5.270
11.02000 11.990
11.04000 10.629
11.06000 -0.146
11.08000 -4.318
11.10000 -0.201
11.12000 4.336
11.14000 -2.415
11.16000 8.527
11.18000 7.056
11.20000 6.175
11.22000 8.056
11.24000 6.024
11.26000 4.291
11.28000 12.369
11.30000 17.275
11.32000 14.420
11.34000 3.998
11.36000 9.595
11.38000 19.410
11.40000 18.214
11.42000 14.184
11.44000 6.954
11.46000 6.461
11.48000 20.751
11.50000 15.858
11.52000 18.697
11.54000 9.088
11.56000 5.650
11.58000 14.117
11.60000 6.700
11.62000 5.058
11.64000 11.211
11.66000 7.494
11.68000 4.592
11.70000 7.978
11.72000 12.140
11.74000 15.974
11.76000 7.058
11.78000 3.443
11.80000 -1.002
11.82000 -3.517
11.84000 6.022
11.86000 9.073
11.88000 13.561
11.90000 9.716
11.92000 4.261
11.94000 8.479
11.96000 12.980
11.98000 25.046
12.00000 16.223
12.02000 5.198
12.04000 16.823
12.06000 16.725
12.08000 8.153
12.10000 14.337
12.12000 8.634
12.14000 6.682
12.16000 11.448
12.18000 15.359
12.20000 23.770
12.22000 17.244
12.24000 9.150
12.26000 9.944
12.28000 5.935
12.30000 5.140
12.32000 6.708
12.34000 14.769
12.36000 11.893
12.38000 -0.876
12.40000 10.378
12.42000 -1.908
12.44000 2.592
12.46000 2.442
12.48000 9.574
12.50000 11.185
12.52000 6.822
12.54000 -4.068
12.56000 16.470
12.58000 25.883
12.60000 26.647
12.62000 10.604
12.64000 9.575
12.66000 16.830
12.68000 13.774
12.70000 3.940
12.72000 5.468
12.74000 18.331
12.76000 12.472
12.78000 9.620
12.80000 15.810
12.82000 11.392
12.84000 7.769
12.86000 14.365
12.88000 20.724
12.90000 15.517
12.92000 9.114
12.94000 -4.421
12.96000 2.631
12.98000 12.467
13.00000 4.275
13.02000 5.652
13.04000 20.190
13.06000 24.420
13.08000 14.999
13.10000 8.547
13.12000 6.875
13.14000 10.534
13.16000 12.691
13.18000 17.138
13.20000 22.390
13.22000 11.106
13.24000 4.069
13.26000 5.317
13.28000 9.966
13.30000 4.120
13.32000 1.770
13.34000 8.127
13.36000 11.505
13.38000 7.058
13.40000 8.307
13.42000 6.341
13.44000 13.138
13.46000 14.127
13.48000 10.311
13.50000 17.223
13.52000 18.850
13.54000 14.616
13.56000 7.652
13.58000 10.040
13.60000 8.150
13.62000 15.447
13.64000 13.148
13.66000 11.118
13.68000 17.035
13.70000 14.664
13.72000 12.642
13.74000 6.527
13.76000 12.483
13.78000 13.834
13.80000 4.040
13.82000 -1.554
13.84000 -4.446
13.86000 7.590
13.88000 17.822
13.90000 9.613
13.92000 9.815
13.94000 16.284
13.96000 8.514
13.98000 4.891
14.00000 1.269
14.02000 13.891
14.04000 12.470
14.06000 12.188
14.08000 13.449
14.10000 12.732
14.12000 11.235
14.14000 9.703
14.16000 -1.649
14.18000 8.716
14.20000 14.757
14.22000 14.345
14.24000 18.781
14.26000 14.317
14.28000 3.823
14.30000 15.373
14.32000 8.011
14.34000 6.970
14.36000 17.050
14.38000 17.308
14.40000 8.308
14.42000 5.451
14.44000 6.458
14.46000 1.861
14.48000 4.587
14.50000 12.926
14.52000 11.327
14.54000 5.838
14.56000 6.307
14.58000 10.224
14.60000 19.202
14.62000 12.899
14.64000 10.959
14.66000 11.814
14.68000 11.087
14.70000 6.573
14.72000 6.248
14.74000 1.697
14.76000 6.413
14.78000 0.697
14.80000 7.133
14.82000 9.974
14.84000 7.920
14.86000 1.898
14.88000 2.898
14.90000 13.028
14.92000 16.355
14.94000 5.910
14.96000 1.821
14.98000 13.928
15.00000 20.428
15.02000 16.096
15.04000 5.694
15.06000 6.181
15.08000 11.975
15.10000 12.578
15.12000 4.420
15.14000 2.527
15.16000 2.918
15.18000 5.975
15.20000 7.636
15.22000 10.519
15.24000 14.713
15.26000 13.041
15.28000 9.733
15.30000 5.073
15.32000 8.822
15.34000 9.245
15.36000 14.797
15.38000 11.951
15.40000 7.156
15.42000 6.711
15.44000 -4.438
15.46000 -2.582
15.48000 11.606
15.50000 12.663
15.52000 14.531
15.54000 1.653
15.56000 0.472
15.58000 5.847
15.60000 8.780
15.62000 2.680
15.64000 11.949
15.66000 14.090
15.68000 13.223
15.70000 13.390
15.72000 11.089
15.74000 6.234
15.76000 3.394
15.78000 9.773
15.80000 13.153
15.82000 5.603
15.84000 4.941
15.86000 4.151
15.88000 2.175
15.90000 6.487
15.92000 10.398
15.94000 13.638
15.96000 5.444
15.98000 10.276
16.00000 12.494
16.02000 12.163
16.04000 7.573
16.06000 6.029
16.08000 1.182
16.10000 -3.158
16.12000 -1.609
16.14000 5.205
16.16000 15.337
16.18000 5.636
16.20000 -3.661
16.22000 2.058
16.24000 7.949
16.26000 6.161
16.28000 8.877
16.30000 10.325
16.32000 7.726
16.34000 -1.178
16.36000 3.851
16.38000 0.493
16.40000 6.823
16.42000 9.861
16.44000 13.939
16.46000 11.849
16.48000 6.407
16.50000 -1.286
16.52000 0.031
16.54000 6.943
16.56000 8.756
16.58000 9.952
16.60000 4.891
16.62000 -0.925
16.64000 5.375
16.66000 14.097
16.68000 14.313
16.70000 11.347
16.72000 6.099
16.74000 1.965
16.76000 -1.898
16.78000 0.119
16.80000 4.270
16.82000 -0.601
16.84000 -4.368
16.86000 13.743
16.88000 10.044
16.90000 4.347
16.92000 8.382
16.94000 7.583
16.96000 12.497
16.98000 16.533
17.00000 7.897
17.02000 1.714
17.04000 -1.221
17.06000 -2.196
17.08000 0.341
17.10000 -1.550
17.12000 9.774
17.14000 12.595
17.16000 14.692
17.18000 10.801
17.20000 9.426
17.22000 9.462
17.24000 8.049
17.26000 6.071
17.28000 4.049
17.30000 7.606
17.32000 8.226
17.34000 6.563
17.36000 6.551
17.38000 2.989
17.40000 5.404
17.42000 1.706
17.44000 7.048
17.46000 12.513
17.48000 12.092
17.50000 6.109
17.52000 6.368
17.54000 12.045
17.56000 12.165
17.58000 6.963
17.60000 5.776
17.62000 5.905
17.64000 3.703
17.66000 3.514
17.68000 8.950
17.70000 11.938
17.72000 3.591
17.74000 6.157
17.76000 2.080
17.78000 1.756
17.80000 6.191
17.82000 7.984
17.84000 5.194
17.86000 0.081
17.88000 4.738
17.90000 4.547
17.92000 0.903
17.94000 2.760
17.96000 3.167
17.98000 2.112
18.00000 -0.273
18.02000 3.624
18.04000 10.545
18.06000 4.324
18.08000 -0.183
18.10000 7.327
18.12000 11.723
18.14000 17.114
18.16000 16.648
18.18000 6.837
18.20000 3.925
18.22000 5.684
18.24000 7.095
18.26000 7.250
18.28000 2.948
18.30000 0.671
18.32000 0.143
18.34000 -4.278
18.36000 3.690
18.38000 10.574
18.40000 0.735
18.42000 2.339
18.44000 9.779
18.46000 10.356
18.48000 5.647
18.50000 -1.731
18.52000 3.100
18.54000 8.295
18.56000 6.768
18.58000 0.969
18.60000 2.790
18.62000 10.640
18.64000 11.149
18.66000 6.625
18.68000 3.734
18.70000 7.223
18.72000 10.170
18.74000 6.246
18.76000 15.128
18.78000 12.010
18.80000 14.376
18.82000 14.326
18.84000 5.417
18.86000 0.580
18.88000 -4.240
18.90000 1.799
18.92000 4.287
18.94000 3.546
18.96000 8.019
18.98000 4.400
19.00000 4.356
19.02000 9.621
19.04000 14.607
19.06000 4.370
19.08000 -4.229
19.10000 0.875
19.12000 3.048
19.14000 11.988
19.16000 9.674
19.18000 5.235
19.20000 6.881
19.22000 11.926
19.24000 10.393
19.26000 11.092
19.28000 7.624
19.30000 4.724
19.32000 1.427
19.34000 -2.380
19.36000 0.375
19.38000 5.162
19.40000 2.720
19.42000 3.502
19.44000 3.441
19.46000 6.505
19.48000 4.746
19.50000 7.854
19.52000 11.297
19.54000 8.586
19.56000 1.923
19.58000 0.472
19.60000 1.013
19.62000 0.323
19.64000 3.431
19.66000 5.449
19.68000 2.912
19.70000 10.983
19.72000 1.645
19.74000 3.436
19.76000 4.455
19.78000 3.473
19.80000 9.196
19.82000 5.836
19.84000 6.254
19.86000 2.965
19.88000 0.406
19.90000 1.462
19.92000 -0.151
19.94000 3.656
19.96000 4.210
19.98000 7.872
20.00000 3.637
20.02000 0.180
20.04000 3.717
20.06000 4.972
20.08000 -0.451
20.10000 -0.063
20.12000 3.641
20.14000 3.374
20.16000 0.384
20.18000 7.856
20.20000 9.885
20.22000 5.081
20.24000 5.067
20.26000 1.044
20.28000 3.135
20.30000 7.307
20.32000 0.348
20.34000 4.601
20.36000 4.528
20.38000 4.679
20.40000 3.736
20.42000 4.398
20.44000 7.102
20.46000 0.042
20.48000 0.697
20.50000 -3.126
20.52000 0.783
20.54000 1.387
20.56000 2.242
20.58000 5.468
20.60000 6.364
20.62000 6.536
20.64000 6.837
20.66000 8.974
20.68000 7.877
20.70000 1.498
20.72000 11.854
20.74000 5.533
20.76000 -1.443
20.78000 -2.588
20.80000 4.652
20.82000 4.456
20.84000 6.159
20.86000 9.596
20.88000 13.593
20.90000 6.722
20.92000 3.644
20.94000 2.090
20.96000 4.145
20.98000 -0.937
21.00000 0.662
21.02000 6.827
21.04000 -0.164
21.06000 0.850
21.08000 -0.344
21.10000 0.220
21.12000 0.938
21.14000 8.324
21.16000 9.923
21.18000 8.790
21.20000 -3.017
21.22000 -0.467
21.24000 -0.916
21.26000 -1.411
21.28000 0.407
21.30000 2.428
21.32000 2.309
21.34000 -4.125
21.36000 -0.428
21.38000 -2.319
21.40000 -0.530
21.42000 5.747
21.44000 6.294
21.46000 5.229
21.48000 5.268
21.50000 5.814
21.52000 2.235
21.54000 2.396
21.56000 -1.510
21.58000 -3.969
21.60000 2.778
21.62000 7.367
21.64000 6.323
21.66000 5.636
21.68000 4.200
21.70000 6.948
21.72000 5.185
21.74000 5.262
21.76000 8.155
21.78000 3.874
21.80000 6.074
21.82000 7.410
21.84000 2.740
21.86000 6.840
21.88000 4.822
21.90000 3.158
21.92000 6.938
21.94000 7.235
21.96000 9.692
21.98000 9.421
22.00000 5.802
22.02000 -2.625
22.04000 3.296
22.06000 7.742
22.08000 0.044
22.10000 -1.224
22.12000 8.770
22.14000 16.981
22.16000 6.543
22.18000 -2.318
22.20000 2.791
22.22000 1.913
22.24000 2.252
22.26000 10.101
22.28000 1.275
22.30000 6.993
22.32000 3.424
22.34000 1.562
22.36000 9.053
22.38000 9.079
22.40000 2.447
22.42000 -1.207
22.44000 2.852
22.46000 3.269
22.48000 -0.238
22.50000 -2.021
22.52000 5.043
22.54000 4.342
22.56000 0.031
22.58000 12.424
22.60000 12.382
22.62000 12.203
22.64000 1.513
22.66000 3.972
22.68000 7.814
22.70000 4.074
22.72000 5.362
22.74000 6.176
22.76000 10.861
22.78000 8.374
22.80000 4.143
22.82000 2.479
22.84000 6.978
22.86000 5.484
22.88000 3.803
22.90000 0.253
22.92000 7.684
22.94000 -0.399
22.96000 -0.231
22.98000 3.744
23.00000 4.552
23.02000 2.697
23.04000 8.847
23.06000 7.078
23.08000 0.607
23.10000 -4.023
23.12000 -1.124
23.14000 3.399
23.16000 11.040
23.18000 12.802
23.20000 2.289
23.22000 3.578
23.24000 8.462
23.26000 4.597
23.28000 0.396
23.30000 4.270
23.32000 2.711
23.34000 3.370
23.36000 6.754
23.38000 8.450
23.40000 5.798
23.42000 -0.493
23.44000 -2.677
23.46000 9.619
23.48000 11.134
23.50000 5.072
23.52000 5.306
23.54000 3.370
23.56000 4.282
23.58000 9.466
23.60000 3.509
23.62000 1.575
23.64000 7.482
23.66000 8.032
23.68000 10.734
23.70000 12.524
23.72000 9.003
23.74000 8.038
23.76000 6.564
23.78000 2.960
23.80000 -1.563
23.82000 2.726
23.84000 5.479
23.86000 3.996
23.88000 4.781
23.90000 4.999
23.92000 5.431
23.94000 10.555
23.96000 12.700
23.98000 10.306
24.00000 10.219
24.02000 6.701
24.04000 3.055
24.06000 3.274
24.08000 0.590
24.10000 5.290
24.12000 7.828
24.14000 2.887
24.16000 2.893
24.18000 0.242
24.20000 0.475
24.22000 2.781
24.24000 -0.551
24.26000 4.251
24.28000 5.548
24.30000 10.158
24.32000 8.378
24.34000 3.006
24.36000 3.347
24.38000 0.868
24.40000 5.573
24.42000 12.408
24.44000 9.669
24.46000 10.576
24.48000 11.979
24.50000 3.016
24.52000 11.700
24.54000 13.032
24.56000 16.238
24.58000 8.876
24.60000 4.576
24.62000 10.144
24.64000 10.493
24.66000 10.863
24.68000 9.872
24.70000 16.296
24.72000 14.163
24.74000 10.864
24.76000 9.357
24.78000 -1.387
24.80000 -3.916
24.82000 3.982
24.84000 3.819
24.86000 4.501
24.88000 0.806
24.90000 5.817
24.92000 10.706
24.94000 8.472
24.96000 6.564
24.98000 11.644
25.00000 10.758
25.02000 6.643
25.04000 8.599
25.06000 4.283
25.08000 1.826
25.10000 -0.744
25.12000 4.125
25.14000 7.362
25.16000 3.678
25.18000 2.219
25.20000 5.126
25.22000 9.412
25.24000 2.943
25.26000 0.662
25.28000 -2.265
25.30000 -1.147
25.32000 -1.333
25.34000 -3.481
25.36000 0.125
25.38000 -0.394
25.40000 -0.153
25.42000 0.695
25.44000 3.600
25.46000 4.131
25.48000 5.905
25.50000 4.471
25.52000 3.881
25.54000 3.676
25.56000 5.833
25.58000 5.976
25.60000 4.846
25.62000 5.073
25.64000 -2.971
25.66000 -3.285
25.68000 -1.016
25.70000 2.347
25.72000 1.160
25.74000 -0.060
25.76000 -0.288
25.78000 3.586
25.80000 3.381
25.82000 3.094
25.84000 3.724
25.86000 5.456
25.88000 5.272
25.90000 6.928
25.92000 4.598
25.94000 3.661
25.96000 3.493
25.98000 -0.553
26.00000 -0.995
26.02000 2.106
26.04000 0.528
26.06000 -0.227
26.08000 0.164
26.10000 -0.171
26.12000 -1.216
26.14000 1.323
26.16000 8.241
26.18000 8.263
26.20000 1.917
26.22000 7.582
26.24000 11.697
26.26000 7.234
26.28000 0.182
26.30000 1.962
26.32000 1.700
26.34000 5.339
26.36000 -0.681
26.38000 1.124
26.40000 5.294
26.42000 8.326
26.44000 3.262
26.46000 2.106
26.48000 -1.095
26.50000 -2.202
26.52000 2.064
26.54000 -1.378
26.56000 -3.677
26.58000 -0.167
26.60000 1.341
26.62000 3.439
26.64000 0.339
26.66000 1.491
26.68000 0.471
26.70000 0.303
26.72000 -0.051
26.74000 0.960
26.76000 -1.703
26.78000 -0.141
26.80000 4.023
26.82000 3.717
26.84000 4.560
26.86000 0.862
26.88000 -3.855
26.90000 -3.767
26.92000 1.313
26.94000 -2.934
26.96000 0.755
26.98000 -0.587
27.00000 1.686
27.02000 6.503
27.04000 3.135
27.06000 2.293
27.08000 -1.122
27.10000 -1.362
27.12000 1.728
27.14000 3.817
27.16000 2.806
27.18000 1.710
27.20000 4.441
27.22000 5.891
27.24000 5.587
27.26000 3.495
27.28000 3.172
27.30000 6.107
27.32000 2.186
27.34000 -0.307
27.36000 5.207
27.38000 7.583
27.40000 1.741
27.42000 3.402
27.44000 2.965
27.46000 1.523
27.48000 3.469
27.50000 5.394
27.52000 3.416
27.54000 -3.809
27.56000 -3.466
27.58000 -2.576
27.60000 2.750
27.62000 4.416
27.64000 3.143
27.66000 3.946
27.68000 5.100
27.70000 2.785
27.72000 -1.472
27.74000 3.136
27.76000 4.400
27.78000 5.473
27.80000 5.711
27.82000 6.867
27.84000 7.404
27.86000 8.167
27.88000 1.527
27.90000 2.319
27.92000 2.223
27.94000 7.952
27.96000 4.650
27.98000 3.764
28.00000 5.983
28.02000 5.590
28.04000 1.139
28.06000 0.259
28.08000 3.449
28.10000 0.881
28.12000 6.721
28.14000 8.608
28.16000 6.399
28.18000 3.069
28.20000 1.453
28.22000 2.563
28.24000 3.217
28.26000 0.623
28.28000 4.444
28.30000 3.009
28.32000 -0.316
28.34000 1.865
28.36000 1.506
28.38000 5.887
28.40000 3.690
28.42000 2.186
28.44000 3.893
28.46000 8.485
28.48000 3.779
28.50000 3.323
28.52000 5.319
28.54000 3.804
28.56000 4.337
28.58000 7.497
28.60000 6.942
28.62000 2.131
28.64000 0.745
28.66000 -2.124
28.68000 -3.731
28.70000 2.737
28.72000 5.211
28.74000 5.017
28.76000 6.292
28.78000 2.387
28.80000 2.872
28.82000 2.841
28.84000 2.198
28.86000 0.628
28.88000 6.142
28.90000 4.928
28.92000 3.272
28.94000 3.913
28.96000 8.053
28.98000 8.507
29.00000 9.174
29.02000 5.112
29.04000 5.177
29.06000 2.397
29.08000 2.417
29.10000 5.069
29.12000 2.765
29.14000 2.288
29.16000 4.030
29.18000 4.684
29.20000 -1.589
29.22000 -3.720
29.24000 -0.282
29.26000 -0.700
29.28000 -2.876
29.30000 3.575
29.32000 7.122
29.34000 4.995
29.36000 3.048
29.38000 0.614
29.40000 6.067
29.42000 5.385
29.44000 10.480
29.46000 2.566
29.48000 0.013
29.50000 0.899
29.52000 3.744
29.54000 3.461
29.56000 3.010
29.58000 2.708
29.60000 5.532
29.62000 8.818
29.64000 8.605
29.66000 7.121
29.68000 0.539
29.70000 0.687
29.72000 3.722
29.74000 5.685
29.76000 3.093
29.78000 3.892
29.80000 5.904
29.82000 -3.694
29.84000 1.465
29.86000 5.893
29.88000 8.485
29.90000 6.413
29.92000 4.144
29.94000 -0.052
29.96000 -0.366
29.98000 1.769
30.00000 2.981
30.02000 0.442
30.04000 2.521
30.06000 2.087
30.08000 4.050
30.10000 6.000
30.12000 9.105
30.14000 7.187
30.16000 -1.519
30.18000 0.169
30.20000 3.965
30.22000 4.844
30.24000 4.371
30.26000 2.550
30.28000 6.097
30.30000 6.777
30.32000 2.186
30.34000 0.840
30.36000 8.373
30.38000 10.624
30.40000 1.837
30.42000 -3.373
30.44000 4.405
30.46000 4.066
30.48000 1.908
30.50000 -0.281
30.52000 -2.396
30.54000 -0.764
30.56000 -2.191
30.58000 1.907
30.60000 1.648
30.62000 2.575
30.64000 2.864
30.66000 2.641
30.68000 -0.961
30.70000 0.370
30.72000 6.526
30.74000 4.127
30.76000 -1.338
30.78000 -3.636
30.80000 -0.296
30.82000 1.367
30.84000 4.036
30.86000 4.186
30.88000 1.902
30.90000 6.928
30.92000 10.885
30.94000 7.465
30.96000 6.119
30.98000 2.498
31.00000 1.907
31.02000 2.081
31.04000 5.797
31.06000 1.330
31.08000 -2.719
31.10000 2.454
31.12000 -0.247
31.14000 1.132
31.16000 1.089
31.18000 1.429
31.20000 3.637
31.22000 2.162
31.24000 -0.350
31.26000 -3.626
31.28000 4.919
31.30000 2.851
31.32000 1.710
31.34000 3.869
31.36000 5.947
31.38000 1.068
31.40000 3.558
31.42000 1.207
31.44000 3.439
31.46000 5.261
31.48000 -0.097
31.50000 2.118
31.52000 3.630
31.54000 3.276
31.56000 2.326
31.58000 5.112
31.60000 3.133
31.62000 4.668
31.64000 1.945
31.66000 -0.899
31.68000 2.436
31.70000 1.289
31.72000 -0.299
31.74000 1.199
31.76000 2.431
31.78000 4.317
31.80000 0.904
31.82000 -0.154
31.84000 0.313
31.86000 4.687
31.88000 9.527
31.90000 3.434
31.92000 2.642
31.94000 6.452
31.96000 5.885
31.98000 2.711
32.00000 4.976
32.02000 3.332
32.04000 -3.320
32.06000 1.764
32.08000 7.916
32.10000 10.899
32.12000 5.294
32.14000 2.389
32.16000 -0.813
32.18000 -1.550
32.20000 4.825
32.22000 0.937
32.24000 1.333
32.26000 2.786
32.28000 3.050
32.30000 -3.132
32.32000 -1.396
32.34000 3.457
32.36000 5.635
32.38000 0.292
32.40000 2.720
32.42000 -2.792
32.44000 -3.561
32.46000 1.202
32.48000 3.027
32.50000 3.939
32.52000 2.989
32.54000 3.244
32.56000 -1.756
32.58000 -2.262
32.60000 1.464
32.62000 3.010
32.64000 2.458
32.66000 2.596
32.68000 2.965
32.70000 3.509
32.72000 4.255
32.74000 -0.217
32.76000 1.614
32.78000 -0.135
32.80000 3.241
32.82000 3.915
32.84000 3.845
32.86000 8.649
32.88000 6.557
32.90000 6.813
32.92000 3.556
32.94000 1.185
32.96000 2.702
32.98000 -0.928
33.00000 7.317
33.02000 0.187
33.04000 -2.791
33.06000 3.611
33.08000 3.013
33.10000 4.058
33.12000 1.562
33.14000 2.129
33.16000 2.480
33.18000 5.812
33.20000 3.166
33.22000 6.495
33.24000 4.202
33.26000 5.165
33.28000 6.825
33.30000 3.925
33.32000 -1.370
33.34000 2.218
33.36000 4.208
33.38000 4.069
33.40000 0.009
33.42000 2.937
33.44000 5.400
33.46000 9.467
33.48000 3.382
33.50000 -2.037
33.52000 3.545
33.54000 3.376
33.56000 -0.327
33.58000 1.174
33.60000 8.354
33.62000 10.087
33.64000 6.975
33.66000 5.272
33.68000 6.084
33.70000 6.144
33.72000 2.315
33.74000 -2.578
33.76000 -3.537
33.78000 1.685
33.80000 4.211
33.82000 3.261
33.84000 4.945
33.86000 6.467
33.88000 1.704
33.90000 2.089
33.92000 6.210
33.94000 3.369
33.96000 2.834
33.98000 1.316
34.00000 1.680
34.02000 5.443
34.04000 7.054
34.06000 0.343
34.08000 -1.041
34.10000 1.562
34.12000 4.285
34.14000 9.788
34.16000 5.199
34.18000 3.256
34.20000 5.116
34.22000 3.727
34.24000 2.336
34.26000 5.871
34.28000 3.116
34.30000 2.595
34.32000 5.444
34.34000 6.842
34.36000 2.171
34.38000 -0.436
34.40000 -2.700
34.42000 1.792
34.44000 6.846
34.46000 -0.030
34.48000 -1.422
34.50000 1.602
34.52000 3.375
34.54000 3.765
34.56000 5.827
34.58000 4.958
34.60000 -0.566
34.62000 -2.770
34.64000 -1.141
34.66000 2.839
34.68000 2.184
34.70000 -3.149
34.72000 -3.307
34.74000 2.171
34.76000 1.109
34.78000 -2.864
34.80000 0.089
34.82000 0.119
34.84000 -0.241
34.86000 -1.689
34.88000 -0.242
34.90000 -2.166
34.92000 -0.634
34.94000 2.455
34.96000 4.161
34.98000 4.040
35.00000 0.829
35.02000 -0.873
35.04000 1.415
35.06000 2.641
35.08000 3.361
35.10000 -3.518
35.12000 -1.711
35.14000 -0.688
35.16000 4.002
35.18000 5.109
35.20000 1.063
35.22000 6.370
35.24000 5.600
35.26000 2.138
35.28000 0.070
35.30000 1.412
35.32000 2.886
35.34000 1.706
35.36000 2.659
35.38000 1.259
35.40000 -1.880
35.42000 -0.475
35.44000 0.357
35.46000 0.187
35.48000 1.894
35.50000 1.323
35.52000 4.279
35.54000 3.405
35.56000 4.004
35.58000 -0.450
35.60000 0.419
35.62000 1.948
35.64000 1.016
35.66000 0.508
35.68000 -0.015
35.70000 0.727
35.72000 1.121
35.74000 0.091
35.76000 2.995
35.78000 4.005
35.80000 5.203
35.82000 4.988
35.84000 3.672
35.86000 -0.537
35.88000 4.347
35.90000 2.108
35.92000 -0.486
35.94000 0.899
35.96000 1.552
35.98000 0.369
36.00000 6.059
36.02000 3.634
36.04000 -1.563
36.06000 -3.470
36.08000 2.995
36.10000 3.133
36.12000 3.919
36.14000 -1.054
36.16000 -0.042
36.18000 3.034
36.20000 -2.570
36.22000 1.148
36.24000 1.442
36.26000 6.342
36.28000 6.764
36.30000 6.560
36.32000 5.656
36.34000 -0.786
36.36000 -2.017
36.38000 -0.133
36.40000 5.081
36.42000 5.206
36.44000 6.529
36.46000 2.046
36.48000 1.642
36.50000 6.800
36.52000 9.425
36.54000 2.345
36.56000 -2.545
36.58000 1.028
36.60000 6.063
36.62000 1.162
36.64000 6.460
36.66000 4.174
36.68000 -0.981
36.70000 0.620
36.72000 1.959
36.74000 0.838
36.76000 2.711
36.78000 -0.921
36.80000 1.900
36.82000 -1.774
36.84000 1.675
36.86000 2.219
36.88000 4.668
36.90000 1.390
36.92000 5.098
36.94000 2.020
36.96000 3.597
36.98000 1.363
37.00000 -0.892
37.02000 -0.095
37.04000 5.368
37.06000 7.873
37.08000 1.037
37.10000 0.776
37.12000 2.389
37.14000 3.684
37.16000 1.651
37.18000 -3.343
37.20000 -3.501
37.22000 -1.641
37.24000 2.340
37.26000 1.741
37.28000 0.156
37.30000 6.102
37.32000 6.905
37.34000 4.949
37.36000 0.599
37.38000 -3.561
37.40000 -1.259
37.42000 0.800
37.44000 4.510
37.46000 0.540
37.48000 -2.247
37.50000 3.291
37.52000 6.807
37.54000 2.142
37.56000 2.441
37.58000 0.733
37.60000 0.869
37.62000 8.723
37.64000 4.926
37.66000 4.039
37.68000 6.466
37.70000 4.190
37.72000 3.253
37.74000 0.671
37.76000 -2.982
37.78000 -0.520
37.80000 -1.376
37.82000 3.577
37.84000 3.543
37.86000 1.260
37.88000 -3.377
37.90000 -2.242
37.92000 1.492
37.94000 3.320
37.96000 7.252
37.98000 7.610
38.00000 3.700
38.02000 0.743
38.04000 5.991
38.06000 5.549
38.08000 5.465
38.10000 8.472
38.12000 7.807
38.14000 11.578
38.16000 8.747
38.18000 9.724
38.20000 10.409
38.22000 6.266
38.24000 5.309
38.26000 6.978
38.28000 9.377
38.30000 8.781
38.32000 13.453
38.34000 13.384
38.36000 11.955
38.38000 10.907
38.40000 12.219
38.42000 14.724
38.44000 13.897
38.46000 13.341
38.48000 13.286
38.50000 13.159
38.52000 16.160
38.54000 17.500
38.56000 17.872
38.58000 12.849
38.60000 12.947
38.62000 21.269
38.64000 16.098
38.66000 12.013
38.68000 16.936
38.70000 18.712
38.72000 17.078
38.74000 20.835
38.76000 18.090
38.78000 19.376
38.80000 20.396
38.82000 23.718
38.84000 23.113
38.86000 25.507
38.88000 23.771
38.90000 19.897
38.92000 24.298
38.94000 24.395
38.96000 24.363
38.98000 24.295
39.00000 28.094
39.02000 33.014
39.04000 35.767
39.06000 30.972
39.08000 32.742
39.10000 37.402
39.12000 40.752
39.14000 39.064
39.16000 32.962
39.18000 33.768
39.20000 41.992
39.22000 42.493
39.24000 48.280
39.26000 49.482
39.28000 53.006
39.30000 53.745
39.32000 53.745
39.34000 56.999
39.36000 59.533
39.38000 62.365
39.40000 60.415
39.42000 67.650
39.44000 70.068
39.46000 75.175
39.48000 76.149
39.50000 81.434
39.52000 83.248
39.54000 88.568
39.56000 88.055
39.58000 92.259
39.60000 101.836
39.62000 109.520
39.64000 109.586
39.66000 114.194
39.68000 120.898
39.70000 130.259
39.72000 133.287
39.74000 137.134
39.76000 137.350
39.78000 151.467
39.80000 155.613
39.82000 166.731
39.84000 171.701
39.86000 185.066
39.88000 198.062
39.90000 205.838
39.92000 217.882
39.94000 231.693
39.96000 241.424
39.98000 249.541
40.00000 265.689
40.02000 274.255
40.04000 288.619
40.06000 299.037
40.08000 318.412
40.10000 328.521
40.12000 345.424
40.14000 372.157
40.16000 376.096
40.18000 387.128
40.20000 397.252
40.22000 407.013
40.24000 428.116
40.26000 448.021
40.28000 459.035
40.30000 471.270
40.32000 480.472
40.34000 487.152
40.36000 494.646
40.38000 510.499
40.40000 520.577
40.42000 532.083
40.44000 542.318
40.46000 547.192
40.48000 551.772
40.50000 542.030
40.52000 543.355
40.54000 545.507
40.56000 531.129
40.58000 527.517
40.60000 518.341
40.62000 519.854
40.64000 514.598
40.66000 512.071
40.68000 507.335
40.70000 493.387
40.72000 466.031
40.74000 461.331
40.76000 457.787
40.78000 444.255
40.80000 421.607
40.82000 397.241
40.84000 386.378
40.86000 376.153
40.88000 368.686
40.90000 354.631
40.92000 330.889
40.94000 312.425
40.96000 302.426
40.98000 282.389
41.00000 276.918
41.02000 270.319
41.04000 253.408
41.06000 236.654
41.08000 224.016
41.10000 216.666
41.12000 209.431
41.14000 194.727
41.16000 181.828
41.18000 172.078
41.20000 167.177
41.22000 161.751
41.24000 159.348
41.26000 146.987
41.28000 135.577
41.30000 131.839
41.32000 122.338
41.34000 116.175
41.36000 111.713
41.38000 100.334
41.40000 96.862
41.42000 91.304
41.44000 88.232
41.46000 87.400
41.48000 87.254
41.50000 78.041
41.52000 68.332
41.54000 61.518
41.56000 65.209
41.58000 63.646
41.60000 60.659
41.62000 59.266
41.64000 52.083
41.66000 51.181
41.68000 48.797
41.70000 41.644
41.72000 39.384
41.74000 41.108
41.76000 42.538
41.78000 39.768
41.80000 33.996
41.82000 35.041
41.84000 32.352
41.86000 27.849
41.88000 30.444
41.90000 30.230
41.92000 23.738
41.94000 24.540
41.96000 21.304
41.98000 19.368
42.00000 19.113
42.02000 14.615
42.04000 23.021
42.06000 16.711
42.08000 14.121
42.10000 15.503
42.12000 18.817
42.14000 16.494
42.16000 13.354
42.18000 11.965
42.20000 14.489
42.22000 15.562
42.24000 10.540
42.26000 12.894
42.28000 13.394
42.30000 10.182
42.32000 10.033
42.34000 12.050
42.36000 11.109
42.38000 13.598
42.40000 8.386
42.42000 5.402
42.44000 6.986
42.46000 2.859
42.48000 4.282
42.50000 4.380
42.52000 11.446
42.54000 10.318
42.56000 9.416
42.58000 7.398
42.60000 10.119
42.62000 11.431
42.64000 8.668
42.66000 6.434
42.68000 1.841
42.70000 4.556
42.72000 6.062
42.74000 3.218
42.76000 5.068
42.78000 10.138
42.80000 9.777
42.82000 1.511
42.84000 3.692
42.86000 3.683
42.88000 4.586
42.90000 5.900
42.92000 5.597
42.94000 4.870
42.96000 1.926
42.98000 -0.140
43.00000 0.961
43.02000 0.710
43.04000 1.710
43.06000 3.890
43.08000 3.072
43.10000 1.033
43.12000 2.453
43.14000 6.018
43.16000 7.592
43.18000 4.469
43.20000 1.155
43.22000 0.229
43.24000 6.552
43.26000 6.204
43.28000 3.788
43.30000 -0.092
43.32000 0.909
43.34000 1.070
43.36000 3.236
43.38000 1.554
43.40000 -1.009
43.42000 -0.114
43.44000 -1.043
43.46000 1.583
43.48000 -3.437
43.50000 2.595
43.52000 2.265
43.54000 3.236
43.56000 3.125
43.58000 2.092
43.60000 0.112
43.62000 0.684
43.64000 1.901
43.66000 1.073
43.68000 1.605
43.70000 4.113
43.72000 9.253
43.74000 7.042
43.76000 3.767
43.78000 3.167
43.80000 4.251
43.82000 -1.798
43.84000 0.045
43.86000 1.392
43.88000 3.892
43.90000 4.371
43.92000 -0.120
43.94000 2.857
43.96000 6.620
43.98000 1.653
44.00000 1.243
44.02000 0.714
44.04000 4.965
44.06000 4.318
44.08000 3.294
44.10000 2.149
44.12000 -0.006
44.14000 2.741
44.16000 1.492
44.18000 3.145
44.20000 3.333
44.22000 -3.408
44.24000 -2.373
44.26000 -1.353
44.28000 2.053
44.30000 2.124
44.32000 7.831
44.34000 2.875
44.36000 0.845
44.38000 1.682
44.40000 1.151
44.42000 7.753
44.44000 0.242
44.46000 0.012
44.48000 1.519
44.50000 3.795
44.52000 4.993
44.54000 7.083
44.56000 8.409
44.58000 4.348
44.60000 0.258
44.62000 2.878
44.64000 4.836
44.66000 3.589
44.68000 2.127
44.70000 -0.637
44.72000 2.154
44.74000 2.268
44.76000 8.220
44.78000 2.856
44.80000 0.765
44.82000 4.254
44.84000 7.538
44.86000 6.403
44.88000 7.785
44.90000 5.839
44.92000 1.807
44.94000 2.246
44.96000 1.266
44.98000 3.481
45.00000 4.569
45.02000 2.947
45.04000 4.753
45.06000 3.340
45.08000 3.001
45.10000 5.732
45.12000 8.668
45.14000 4.833
45.16000 -1.474
45.18000 -0.964
45.20000 7.721
45.22000 8.000
45.24000 4.514
45.26000 8.033
45.28000 11.414
45.30000 7.682
45.32000 9.811
45.34000 7.600
45.36000 7.304
45.38000 8.731
45.40000 6.857
45.42000 4.019
45.44000 10.887
45.46000 8.419
45.48000 9.931
45.50000 9.400
45.52000 10.476
45.54000 12.426
45.56000 8.489
45.58000 13.043
45.60000 8.599
45.62000 10.637
45.64000 15.004
45.66000 16.903
45.68000 14.472
45.70000 17.888
45.72000 18.790
45.74000 21.803
45.76000 19.700
45.78000 15.774
45.80000 13.924
45.82000 22.000
45.84000 25.582
45.86000 24.973
45.88000 24.877
45.90000 27.669
45.92000 25.885
45.94000 27.812
45.96000 26.680
45.98000 22.933
46.00000 19.383
46.02000 20.223
46.04000 25.848
46.06000 24.733
46.08000 31.294
46.10000 33.247
46.12000 29.479
46.14000 34.191
46.16000 37.225
46.18000 36.951
46.20000 40.753
46.22000 41.999
46.24000 43.938
46.26000 39.944
46.28000 37.741
46.30000 43.561
46.32000 46.259
46.34000 43.794
46.36000 42.424
46.38000 49.198
46.40000 55.529
46.42000 58.578
46.44000 58.807
46.46000 55.990
46.48000 55.003
46.50000 53.254
46.52000 55.203
46.54000 54.849
46.56000 69.118
46.58000 63.181
46.60000 64.641
46.62000 71.106
46.64000 68.103
46.66000 68.971
46.68000 67.846
46.70000 67.412
46.72000 71.229
46.74000 75.314
46.76000 76.342
46.78000 81.337
46.80000 77.957
46.82000 73.227
46.84000 73.903
46.86000 84.422
46.88000 83.466
46.90000 80.667
46.92000 88.016
46.94000 84.488
46.96000 80.774
46.98000 82.648
47.00000 74.414
47.02000 81.023
47.04000 84.566
47.06000 80.417
47.08000 83.473
47.10000 86.248
47.12000 85.780
47.14000 84.452
47.16000 82.802
47.18000 86.616
47.20000 84.924
47.22000 79.993
47.24000 77.763
47.26000 81.952
47.28000 79.960
47.30000 77.650
47.32000 81.847
47.34000 75.952
47.36000 73.671
47.38000 78.270
47.40000 70.917
47.42000 67.712
47.44000 70.278
47.46000 70.656
47.48000 67.995
47.50000 62.307
47.52000 70.324
47.54000 73.722
47.56000 67.667
47.58000 61.160
47.60000 66.282
47.62000 66.369
47.64000 58.750
47.66000 57.227
47.68000 59.267
47.70000 56.962
47.72000 53.773
47.74000 54.549
47.76000 50.966
47.78000 43.239
47.80000 44.413
47.82000 48.902
47.84000 43.544
47.86000 42.389
47.88000 38.248
47.90000 38.055
47.92000 39.445
47.94000 40.072
47.96000 34.377
47.98000 30.907
48.00000 31.707
48.02000 30.329
48.04000 28.550
48.06000 27.201
48.08000 23.183
48.10000 25.699
48.12000 24.605
48.14000 22.855
48.16000 21.138
48.18000 21.210
48.20000 24.629
48.22000 21.378
48.24000 20.082
48.26000 17.156
48.28000 13.976
48.30000 17.704
48.32000 18.412
48.34000 16.617
48.36000 14.949
48.38000 11.596
48.40000 12.113
48.42000 10.667
48.44000 13.110
48.46000 14.637
48.48000 9.569
48.50000 1.720
48.52000 4.502
48.54000 7.514
48.56000 7.128
48.58000 8.983
48.60000 9.152
48.62000 9.613
48.64000 9.620
48.66000 8.902
48.68000 13.187
48.70000 8.344
48.72000 4.278
48.74000 6.960
48.76000 5.977
48.78000 10.423
48.80000 9.687
48.82000 8.670
48.84000 11.270
48.86000 13.887
48.88000 8.723
48.90000 7.156
48.92000 9.832
48.94000 7.337
48.96000 2.447
48.98000 7.256
49.00000 7.218
49.02000 10.028
49.04000 12.620
49.06000 13.796
49.08000 11.991
49.10000 -3.025
49.12000 2.237
49.14000 6.202
49.16000 7.138
49.18000 4.854
49.20000 1.985
49.22000 0.234
49.24000 2.126
49.26000 3.473
49.28000 4.215
49.30000 3.557
49.32000 7.061
49.34000 7.627
49.36000 8.275
49.38000 7.576
49.40000 3.934
49.42000 3.509
49.44000 4.063
49.46000 -0.903
49.48000 -0.982
49.50000 2.057
49.52000 0.514
49.54000 7.244
49.56000 8.268
49.58000 3.084
49.60000 0.346
49.62000 3.169
49.64000 8.743
49.66000 2.864
49.68000 5.879
49.70000 3.769
49.72000 7.342
49.74000 2.303
49.76000 3.030
49.78000 -0.155
49.80000 2.425
49.82000 3.467
49.84000 0.550
49.86000 -2.958
49.88000 0.108
49.90000 0.107
49.92000 -0.929
49.94000 -1.511
49.96000 4.346
49.98000 8.504
50.00000 3.438
50.02000 -2.957
50.04000 -1.996
50.06000 -0.265
50.08000 3.052
50.10000 2.854
50.12000 -2.040
50.14000 -0.418
50.16000 0.630
50.18000 2.950
50.20000 3.347
50.22000 2.913
50.24000 1.619
50.26000 -0.825
50.28000 1.757
50.30000 4.852
50.32000 0.055
50.34000 -1.740
50.36000 0.159
50.38000 5.483
50.40000 1.513
50.42000 5.453
50.44000 7.860
50.46000 0.384
50.48000 2.289
50.50000 4.807
50.52000 6.732
50.54000 4.989
50.56000 -0.091
50.58000 -2.378
50.60000 -0.187
50.62000 -1.561
50.64000 -1.537
50.66000 -0.734
50.68000 0.117
50.70000 2.046
50.72000 1.293
50.74000 1.428
50.76000 -1.161
50.78000 1.354
50.80000 3.478
50.82000 0.592
50.84000 1.448
50.86000 0.865
50.88000 3.395
50.90000 -0.862
50.92000 0.108
50.94000 5.098
50.96000 0.960
50.98000 -1.141
51.00000 3.708
51.02000 1.396
51.04000 -2.500
51.06000 1.195
51.08000 2.087
51.10000 3.405
51.12000 -0.603
51.14000 2.546
51.16000 1.486
51.18000 1.542
51.20000 1.868
51.22000 -0.177
51.24000 -2.907
51.26000 -1.982
51.28000 1.900
51.30000 2.023
51.32000 -0.276
51.34000 2.700
51.36000 3.067
51.38000 3.147
51.40000 3.325
51.42000 4.271
51.44000 4.421
51.46000 5.546
51.48000 0.508
51.50000 -0.145
51.52000 0.103
51.54000 0.925
51.56000 2.368
51.58000 -0.610
51.60000 -1.812
51.62000 -2.823
51.64000 1.357
51.66000 -0.711
51.68000 -2.892
51.70000 0.998
51.72000 -0.785
51.74000 1.545
51.76000 4.690
51.78000 3.744
51.80000 -1.824
51.82000 1.964
51.84000 5.346
51.86000 1.071
51.88000 0.916
51.90000 1.270
51.92000 4.031
51.94000 8.601
51.96000 7.486
51.98000 9.598
52.00000 10.498
52.02000 8.587
52.04000 6.565
52.06000 6.624
52.08000 2.571
52.10000 3.189
52.12000 5.236
52.14000 4.006
52.16000 5.542
52.18000 3.082
52.20000 3.054
52.22000 3.605
52.24000 1.978
52.26000 1.351
52.28000 1.527
52.30000 -2.867
52.32000 0.082
52.34000 1.659
52.36000 0.962
52.38000 -0.094
52.40000 1.503
52.42000 2.917
52.44000 1.697
52.46000 2.057
52.48000 1.829
52.50000 3.974
52.52000 8.543
52.54000 -0.746
52.56000 0.257
52.58000 4.129
52.60000 0.458
52.62000 4.267
52.64000 -2.378
52.66000 -2.387
52.68000 -2.610
52.70000 1.525
52.72000 4.172
52.74000 1.173
52.76000 1.448
52.78000 6.782
52.80000 3.006
52.82000 1.469
52.84000 1.048
52.86000 2.456
52.88000 0.610
52.90000 -0.818
52.92000 3.952
52.94000 0.419
52.96000 -1.205
52.98000 4.183
53.00000 2.132
53.02000 2.812
53.04000 7.833
53.06000 8.809
53.08000 15.349
53.10000 9.889
53.12000 1.664
53.14000 7.448
53.16000 1.288
53.18000 3.479
53.20000 5.851
53.22000 6.392
53.24000 -2.794
53.26000 1.604
53.28000 8.177
53.30000 5.462
53.32000 3.272
53.34000 6.980
53.36000 5.104
53.38000 3.123
53.40000 3.425
53.42000 2.610
53.44000 2.393
53.46000 3.931
53.48000 8.227
53.50000 5.196
53.52000 1.083
53.54000 0.555
53.56000 4.510
53.58000 4.774
53.60000 6.158
53.62000 1.763
53.64000 4.252
53.66000 6.092
53.68000 3.589
53.70000 3.128
53.72000 2.911
53.74000 3.139
53.76000 3.216
53.78000 3.798
53.80000 8.100
53.82000 9.336
53.84000 1.831
53.86000 0.382
53.88000 2.414
53.90000 0.938
53.92000 2.218
53.94000 6.217
53.96000 3.854
53.98000 4.225
54.00000 4.608
54.02000 4.332
54.04000 4.307
54.06000 3.982
54.08000 2.679
54.10000 -0.543
54.12000 1.664
54.14000 -0.770
54.16000 0.806
54.18000 -2.753
54.20000 -0.322
54.22000 0.735
54.24000 2.402
54.26000 4.046
54.28000 2.676
54.30000 6.830
54.32000 1.989
54.34000 6.538
54.36000 4.276
54.38000 0.408
54.40000 6.590
54.42000 10.259
54.44000 7.959
54.46000 2.978
54.48000 5.425
54.50000 3.507
54.52000 4.235
54.54000 1.199
54.56000 5.674
54.58000 3.164
54.60000 1.624
54.62000 12.263
54.64000 5.556
54.66000 9.299
54.68000 3.773
54.70000 -1.020
54.72000 3.334
54.74000 10.217
54.76000 8.174
54.78000 8.295
54.80000 7.837
54.82000 0.005
54.84000 3.148
54.86000 9.785
54.88000 6.620
54.90000 4.345
54.92000 7.175
54.94000 5.426
54.96000 5.381
54.98000 1.933
55.00000 4.232
55.02000 4.385
55.04000 4.544
55.06000 8.666
55.08000 2.192
55.10000 -0.624
55.12000 4.518
55.14000 4.598
55.16000 -1.672
55.18000 1.904
55.20000 2.160
55.22000 3.904
55.24000 1.808
55.26000 5.853
55.28000 9.741
55.30000 6.391
55.32000 -2.729
55.34000 -1.137
55.36000 0.199
55.38000 0.024
55.40000 2.804
55.42000 8.959
55.44000 8.382
55.46000 8.529
55.48000 9.231
55.50000 10.870
55.52000 7.490
55.54000 7.081
55.56000 4.684
55.58000 4.549
55.60000 4.808
55.62000 6.307
55.64000 3.379
55.66000 4.174
55.68000 6.890
55.70000 5.108
55.72000 5.948
55.74000 5.400
55.76000 2.085
55.78000 5.266
55.80000 7.551
55.82000 4.007
55.84000 5.977
55.86000 4.411
55.88000 2.480
55.90000 0.393
55.92000 -0.763
55.94000 3.863
55.96000 6.662
55.98000 6.501
56.00000 4.988
56.02000 1.150
56.04000 1.854
56.06000 -0.690
56.08000 3.281
56.10000 5.751
56.12000 8.612
56.14000 7.216
56.16000 7.045
56.18000 6.800
56.20000 5.498
56.22000 0.521
56.24000 -2.242
56.26000 1.250
56.28000 5.595
56.30000 8.139
56.32000 6.239
56.34000 5.281
56.36000 4.097
56.38000 2.050
56.40000 1.134
56.42000 2.257
56.44000 -2.709
56.46000 2.440
56.48000 7.145
56.50000 2.903
56.52000 2.851
56.54000 6.815
56.56000 6.338
56.58000 3.873
56.60000 1.171
56.62000 2.443
56.64000 4.954
56.66000 3.051
56.68000 1.727
56.70000 -2.510
56.72000 5.638
56.74000 5.529
56.76000 2.362
56.78000 -0.431
56.80000 -2.018
56.82000 2.148
56.84000 4.788
56.86000 2.790
56.88000 6.352
56.90000 5.377
56.92000 5.892
56.94000 2.529
56.96000 4.241
56.98000 4.828
57.00000 1.980
57.02000 3.433
57.04000 3.555
57.06000 3.258
57.08000 3.350
57.10000 6.719
57.12000 3.258
57.14000 4.788
57.16000 6.195
57.18000 3.687
57.20000 2.212
57.22000 1.276
57.24000 1.766
57.26000 3.731
57.28000 4.606
57.30000 6.659
57.32000 3.377
57.34000 -0.487
57.36000 3.268
57.38000 -2.689
57.40000 5.689
57.42000 10.005
57.44000 7.726
57.46000 4.677
57.48000 2.445
57.50000 1.145
57.52000 4.231
57.54000 5.137
57.56000 5.009
57.58000 3.336
57.60000 1.097
57.62000 1.761
57.64000 6.486
57.66000 5.894
57.68000 1.425
57.70000 0.589
57.72000 0.889
57.74000 1.947
57.76000 6.602
57.78000 7.282
57.80000 1.597
57.82000 0.485
57.84000 0.616
57.86000 -0.044
57.88000 5.703
57.90000 9.910
57.92000 7.966
57.94000 4.560
57.96000 1.944
57.98000 -0.413
58.00000 1.407
58.02000 2.398
58.04000 0.443
58.06000 -2.667
58.08000 0.500
58.10000 3.925
58.12000 5.205
58.14000 3.558
58.16000 2.059
58.18000 1.560
58.20000 1.489
58.22000 3.031
58.24000 0.898
58.26000 4.790
58.28000 1.537
58.30000 -1.076
58.32000 2.770
58.34000 4.985
58.36000 3.024
58.38000 6.529
58.40000 6.909
58.42000 6.283
58.44000 5.256
58.46000 4.976
58.48000 5.695
58.50000 0.690
58.52000 -0.548
58.54000 3.697
58.56000 5.191
58.58000 -0.932
58.60000 0.930
58.62000 2.127
58.64000 2.967
58.66000 6.025
58.68000 -0.935
58.70000 -0.965
58.72000 1.956
58.74000 2.889
58.76000 5.236
58.78000 -0.289
58.80000 1.051
58.82000 -2.580
58.84000 -2.096
58.86000 -0.415
58.88000 1.315
58.90000 -1.842
58.92000 -0.109
58.94000 5.533
58.96000 5.166
58.98000 4.623
59.00000 2.165
59.02000 3.259
59.04000 0.287
59.06000 -0.440
59.08000 2.439
59.10000 3.287
59.12000 5.052
59.14000 1.633
59.16000 -2.623
59.18000 0.696
59.20000 2.476
59.22000 2.466
59.24000 1.078
59.26000 2.857
59.28000 3.854
59.30000 4.934
59.32000 4.579
59.34000 1.439
59.36000 4.668
59.38000 6.479
59.40000 6.090
59.42000 5.045
59.44000 9.666
59.46000 6.514
59.48000 -1.301
59.50000 -2.620
59.52000 0.144
59.54000 3.638
59.56000 0.369
59.58000 0.142
59.60000 5.653
59.62000 3.656
59.64000 4.513
59.66000 4.837
59.68000 0.031
59.70000 0.296
59.72000 0.433
59.74000 -1.754
59.76000 0.528
59.78000 1.775
59.80000 4.917
59.82000 4.735
59.84000 4.413
59.86000 4.458
59.88000 2.205
59.90000 2.843
59.92000 3.063
59.94000 5.451
59.96000 9.139
59.98000 4.055
60.00000 2.324
60.02000 0.356
60.04000 1.245
60.06000 4.801
60.08000 4.143
60.10000 1.713
60.12000 2.863
60.14000 -2.352
60.16000 -1.995
60.18000 0.118
60.20000 -0.143
60.22000 3.720
60.24000 6.286
60.26000 3.472
60.28000 3.256
60.30000 0.720
60.32000 1.898
60.34000 4.614
60.36000 6.221
60.38000 5.309
60.40000 2.888
60.42000 4.336
60.44000 5.733
60.46000 -0.698
60.48000 1.971
60.50000 1.277
60.52000 -1.047
60.54000 1.253
60.56000 -0.031
60.58000 -2.574
60.60000 0.396
60.62000 3.555
60.64000 5.890
60.66000 6.673
60.68000 6.292
60.70000 5.865
60.72000 5.260
60.74000 5.478
60.76000 2.536
60.78000 -1.358
60.80000 2.150
60.82000 3.627
60.84000 1.604
60.86000 2.425
60.88000 1.644
60.90000 5.919
60.92000 6.826
60.94000 7.990
60.96000 2.404
60.98000 4.779
61.00000 6.460
61.02000 3.922
61.04000 4.286
61.06000 6.765
61.08000 5.941
61.10000 3.442
61.12000 3.911
61.14000 4.847
61.16000 2.741
61.18000 -2.516
61.20000 0.309
61.22000 4.166
61.24000 3.327
61.26000 4.484
61.28000 5.130
61.30000 8.331
61.32000 11.023
61.34000 7.806
61.36000 2.382
61.38000 4.234
61.40000 6.233
61.42000 2.499
61.44000 1.610
61.46000 3.826
61.48000 3.306
61.50000 2.672
61.52000 -2.517
61.54000 -0.905
61.56000 0.419
61.58000 0.637
61.60000 3.827
61.62000 5.481
61.64000 2.556
61.66000 -2.525
61.68000 1.239
61.70000 1.460
61.72000 4.550
61.74000 4.786
61.76000 5.639
61.78000 10.862
61.80000 7.893
61.82000 4.595
61.84000 0.585
61.86000 0.191
61.88000 8.640
61.90000 8.314
61.92000 6.051
61.94000 2.602
61.96000 1.292
61.98000 1.849
62.00000 1.337
62.02000 2.562
62.04000 0.393
62.06000 3.965
62.08000 5.559
62.10000 5.151
62.12000 3.292
62.14000 5.153
62.16000 4.401
62.18000 1.379
62.20000 0.211
62.22000 4.756
62.24000 3.131
62.26000 2.827
62.28000 6.841
62.30000 2.944
62.32000 1.564
62.34000 0.674
62.36000 2.607
62.38000 4.127
62.40000 1.201
62.42000 4.851
62.44000 5.297
62.46000 2.249
62.48000 0.106
62.50000 3.910
62.52000 5.959
62.54000 1.813
62.56000 5.002
62.58000 3.572
62.60000 1.700
62.62000 0.116
62.64000 2.633
62.66000 9.323
62.68000 9.852
62.70000 5.190
62.72000 2.494
62.74000 3.184
62.76000 3.445
62.78000 0.918
62.80000 -1.236
62.82000 2.484
62.84000 4.284
62.86000 2.298
62.88000 -1.432
62.90000 0.793
62.92000 2.561
62.94000 -0.504
62.96000 -0.982
62.98000 -2.536
63.00000 -0.328
63.02000 2.487
63.04000 2.425
63.06000 -0.677
63.08000 2.864
63.10000 0.368
63.12000 4.388
63.14000 4.358
63.16000 5.181
63.18000 4.419
63.20000 1.625
63.22000 0.681
63.24000 -0.369
63.26000 4.053
63.28000 4.040
63.30000 6.429
63.32000 2.224
63.34000 -1.340
63.36000 -0.380
63.38000 -1.039
63.40000 -1.912
63.42000 -1.100
63.44000 3.122
63.46000 4.361
63.48000 2.542
63.50000 2.699
63.52000 -1.177
63.54000 1.510
63.56000 -0.064
63.58000 4.156
63.60000 2.534
63.62000 2.256
63.64000 0.174
63.66000 0.425
63.68000 5.538
63.70000 3.542
63.72000 0.881
63.74000 1.704
63.76000 1.865
63.78000 -0.177
63.80000 1.777
63.82000 2.664
63.84000 2.062
63.86000 1.700
63.88000 3.369
63.90000 5.101
63.92000 7.680
63.94000 6.043
63.96000 4.053
63.98000 5.227
64.00000 2.176
64.02000 1.610
64.04000 4.377
64.06000 3.580
64.08000 6.037
64.10000 2.342
64.12000 2.014
64.14000 0.387
64.16000 5.699
64.18000 4.432
64.20000 2.531
64.22000 4.639
64.24000 5.374
64.26000 4.004
64.28000 2.191
64.30000 -1.588
64.32000 -2.517
64.34000 2.235
64.36000 5.801
64.38000 5.652
64.40000 4.687
64.42000 2.647
64.44000 2.346
64.46000 1.501
64.48000 -0.238
64.50000 0.947
64.52000 2.752
64.54000 1.291
64.56000 4.023
64.58000 4.790
64.60000 7.501
64.62000 5.183
64.64000 1.210
64.66000 1.905
64.68000 2.509
64.70000 4.758
64.72000 6.539
64.74000 5.379
64.76000 4.996
64.78000 5.139
64.80000 1.643
64.82000 0.560
64.84000 2.649
64.86000 1.723
64.88000 2.595
64.90000 -1.024
64.92000 -0.740
64.94000 0.199
64.96000 -0.886
64.98000 1.188
65.00000 2.148
65.02000 6.875
65.04000 5.941
65.06000 2.957
65.08000 1.554
65.10000 -0.116
65.12000 0.081
65.14000 4.534
65.16000 1.985
65.18000 -2.535
65.20000 0.114
65.22000 6.505
65.24000 -0.155
65.26000 -0.204
65.28000 3.484
65.30000 5.015
65.32000 1.665
65.34000 1.950
65.36000 -1.060
65.38000 -1.067
65.40000 0.913
65.42000 3.576
65.44000 2.818
65.46000 2.940
65.48000 1.470
65.50000 1.588
65.52000 1.798
65.54000 -0.697
65.56000 -0.359
65.58000 -1.788
65.60000 0.011
65.62000 2.929
65.64000 4.594
65.66000 -0.050
65.68000 0.710
65.70000 3.316
65.72000 2.887
65.74000 1.559
65.76000 -0.449
65.78000 -0.285
65.80000 -0.808
65.82000 0.611
65.84000 3.525
65.86000 -0.422
65.88000 0.320
65.90000 1.510
65.92000 3.013
65.94000 0.121
65.96000 -1.438
65.98000 3.930
66.00000 4.515
66.02000 0.831
66.04000 -0.032
66.06000 -1.311
66.08000 3.348
66.10000 5.867
66.12000 3.196
66.14000 0.764
66.16000 1.493
66.18000 1.983
66.20000 2.451
66.22000 -0.728
66.24000 -0.155
66.26000 0.307
66.28000 0.156
66.30000 3.727
66.32000 3.484
66.34000 -0.406
66.36000 -2.587
66.38000 -0.622
66.40000 2.792
66.42000 2.599
66.44000 3.204
66.46000 3.769
66.48000 0.138
66.50000 -0.549
66.52000 1.579
66.54000 -1.481
66.56000 -0.203
66.58000 0.295
66.60000 0.411
66.62000 2.061
66.64000 -1.390
66.66000 -0.108
66.68000 2.743
66.70000 0.202
66.72000 0.066
66.74000 -1.097
66.76000 0.672
66.78000 2.680
66.80000 -2.594
66.82000 -1.795
66.84000 0.795
66.86000 2.247
66.88000 4.414
66.90000 3.440
66.92000 4.043
66.94000 3.766
66.96000 3.586
66.98000 -1.159
67.00000 -1.712
67.02000 -1.580
67.04000 1.352
67.06000 3.515
67.08000 0.967
67.10000 0.002
67.12000 -0.408
67.14000 -1.081
67.16000 -2.174
67.18000 -1.346
67.20000 2.505
67.22000 2.089
67.24000 6.006
67.26000 6.329
67.28000 2.140
67.30000 0.673
67.32000 0.062
67.34000 1.159
67.36000 -0.923
67.38000 -0.271
67.40000 1.354
67.42000 -0.089
67.44000 2.310
67.46000 1.593
67.48000 0.269
67.50000 1.092
67.52000 3.727
67.54000 2.689
67.56000 5.810
67.58000 5.084
67.60000 4.407
67.62000 3.130
67.64000 3.548
67.66000 3.177
67.68000 3.845
67.70000 3.832
67.72000 5.504
67.74000 4.478
67.76000 4.817
67.78000 5.047
67.80000 3.389
67.82000 5.052
67.84000 5.792
67.86000 7.509
67.88000 8.541
67.90000 4.580
67.92000 10.686
67.94000 11.123
67.96000 12.780
67.98000 9.266
68.00000 10.795
68.02000 8.529
68.04000 8.708
68.06000 11.558
68.08000 9.617
68.10000 9.808
68.12000 8.421
68.14000 14.570
68.16000 14.716
68.18000 11.589
68.20000 16.773
68.22000 18.758
68.24000 13.366
68.26000 16.832
68.28000 20.222
68.30000 20.257
68.32000 16.689
68.34000 16.984
68.36000 18.152
68.38000 13.311
68.40000 16.534
68.42000 13.306
68.44000 15.695
68.46000 16.632
68.48000 15.627
68.50000 19.501
68.52000 20.578
68.54000 14.743
68.56000 17.997
68.58000 19.210
68.60000 20.291
68.62000 20.920
68.64000 23.065
68.66000 19.884
68.68000 17.748
68.70000 18.713
68.72000 22.382
68.74000 24.480
68.76000 24.700
68.78000 25.411
68.80000 20.620
68.82000 19.613
68.84000 19.977
68.86000 18.275
68.88000 15.595
68.90000 20.254
68.92000 21.974
68.94000 19.769
68.96000 21.624
68.98000 24.448
69.00000 22.618
69.02000 21.055
69.04000 17.563
69.06000 19.148
69.08000 18.426
69.10000 15.481
69.12000 15.541
69.14000 17.091
69.16000 18.405
69.18000 19.376
69.20000 19.718
69.22000 13.171
69.24000 14.722
69.26000 16.231
69.28000 13.024
69.30000 12.198
69.32000 12.908
69.34000 12.611
69.36000 8.772
69.38000 10.574
69.40000 13.337
69.42000 12.733
69.44000 12.924
69.46000 12.244
69.48000 8.958
69.50000 8.900
69.52000 8.639
69.54000 7.882
69.56000 10.248
69.58000 9.103
69.60000 9.382
69.62000 10.778
69.64000 5.160
69.66000 4.664
69.68000 7.549
69.70000 5.352
69.72000 5.032
69.74000 4.782
69.76000 0.056
69.78000 -1.230
69.80000 1.631
69.82000 4.213
69.84000 7.707
69.86000 7.186
69.88000 1.931
69.90000 4.736
69.92000 4.234
69.94000 -0.349
69.96000 0.239
69.98000 2.050
70.00000 -0.210
70.02000 2.003
70.04000 4.901
70.06000 5.464
70.08000 6.199
70.10000 6.595
70.12000 2.708
70.14000 0.962
70.16000 3.010
70.18000 5.563
70.20000 5.413
70.22000 5.030
70.24000 5.781
70.26000 3.203
70.28000 3.247
70.30000 0.236
70.32000 1.467
70.34000 1.899
70.36000 -2.560
70.38000 -0.024
70.40000 0.540
70.42000 -1.526
70.44000 1.992
70.46000 3.658
70.48000 6.436
70.50000 0.976
70.52000 1.961
70.54000 0.272
70.56000 1.476
70.58000 1.542
70.60000 0.402
70.62000 -0.252
70.64000 -1.465
70.66000 -1.092
70.68000 1.560
70.70000 1.423
70.72000 1.097
70.74000 1.947
70.76000 0.716
70.78000 1.017
70.80000 1.149
70.82000 1.566
70.84000 5.295
70.86000 3.327
70.88000 1.908
70.90000 0.391
70.92000 0.464
70.94000 1.133
70.96000 3.079
70.98000 2.469
71.00000 -0.202
71.02000 3.964
71.04000 3.156
71.06000 1.738
71.08000 0.461
71.10000 2.662
71.12000 2.194
71.14000 1.369
71.16000 0.253
71.18000 -2.472
71.20000 1.217
71.22000 1.229
71.24000 2.957
71.26000 2.581
71.28000 0.383
71.30000 -0.431
71.32000 0.844
71.34000 -1.456
71.36000 -0.745
71.38000 0.907
71.40000 1.694
71.42000 -1.056
71.44000 0.005
71.46000 3.632
71.48000 -0.761
71.50000 2.301
71.52000 4.213
71.54000 4.056
71.56000 5.527
71.58000 3.316
71.60000 1.763
71.62000 -1.922
71.64000 0.769
71.66000 2.465
71.68000 3.693
71.70000 5.292
71.72000 -1.652
71.74000 0.822
71.76000 1.529
71.78000 3.107
71.80000 2.706
71.82000 2.860
71.84000 2.109
71.86000 5.771
71.88000 6.985
71.90000 3.957
71.92000 -0.655
71.94000 -2.416
71.96000 1.205
71.98000 0.429
72.00000 0.913
72.02000 1.390
72.04000 -0.889
72.06000 -2.339
72.08000 1.037
72.10000 -0.583
72.12000 1.235
72.14000 -1.077
72.16000 -1.603
72.18000 2.238
72.20000 1.889
72.22000 1.479
72.24000 3.132
72.26000 0.884
72.28000 2.986
72.30000 4.001
72.32000 2.338
72.34000 3.275
72.36000 5.328
72.38000 0.641
72.40000 1.731
72.42000 1.840
72.44000 1.473
72.46000 0.798
72.48000 1.905
72.50000 4.713
72.52000 2.748
72.54000 4.201
72.56000 6.332
72.58000 0.649
72.60000 1.473
72.62000 0.710
72.64000 -2.390
72.66000 -0.954
72.68000 4.276
72.70000 9.369
72.72000 6.324
72.74000 -0.496
72.76000 -2.384
72.78000 2.126
72.80000 2.942
72.82000 -0.083
72.84000 3.569
72.86000 1.779
72.88000 0.004
72.90000 4.779
72.92000 1.775
72.94000 -0.399
72.96000 0.634
72.98000 -0.397
73.00000 5.713
73.02000 6.127
73.04000 2.817
73.06000 5.003
73.08000 3.180
73.10000 2.417
73.12000 2.600
73.14000 6.825
73.16000 6.469
73.18000 2.758
73.20000 2.646
73.22000 1.702
73.24000 3.334
73.26000 4.908
73.28000 -1.204
73.30000 0.119
73.32000 4.287
73.34000 3.327
73.36000 7.079
73.38000 5.971
73.40000 2.879
73.42000 1.564
73.44000 0.305
73.46000 -2.353
73.48000 -0.108
73.50000 -0.468
73.52000 0.795
73.54000 3.967
73.56000 4.961
73.58000 6.706
73.60000 3.564
73.62000 4.814
73.64000 4.563
73.66000 6.348
73.68000 5.890
73.70000 1.174
73.72000 -2.350
73.74000 1.463
73.76000 5.725
73.78000 2.691
73.80000 2.037
73.82000 3.681
73.84000 6.016
73.86000 6.989
73.88000 3.115
73.90000 8.099
73.92000 4.694
73.94000 5.818
73.96000 7.422
73.98000 5.991
74.00000 2.038
74.02000 -2.328
74.04000 3.315
74.06000 4.745
74.08000 5.354
74.10000 5.714
74.12000 2.266
74.14000 -0.569
74.16000 3.722
74.18000 7.174
74.20000 7.100
74.22000 6.889
74.24000 5.334
74.26000 2.197
74.28000 6.384
74.30000 3.898
74.32000 8.682
74.34000 3.784
74.36000 4.772
74.38000 6.081
74.40000 2.636
74.42000 2.927
74.44000 4.061
74.46000 -2.187
74.48000 0.548
74.50000 4.604
74.52000 5.040
74.54000 5.701
74.56000 5.382
74.58000 3.700
74.60000 1.414
74.62000 0.727
74.64000 2.408
74.66000 8.858
74.68000 8.626
74.70000 3.676
74.72000 3.638
74.74000 -1.536
74.76000 -2.287
74.78000 -0.786
74.80000 1.749
74.82000 5.093
74.84000 6.014
74.86000 7.278
74.88000 4.638
74.90000 7.216
74.92000 7.122
74.94000 1.706
74.96000 1.851
74.98000 2.752
75.00000 2.377
75.02000 3.236
75.04000 7.401
75.06000 8.583
75.08000 7.245
75.10000 3.232
75.12000 5.870
75.14000 2.892
75.16000 2.912
75.18000 2.898
75.20000 3.698
75.22000 4.028
75.24000 6.362
75.26000 7.670
75.28000 3.858
75.30000 2.406
75.32000 6.901
75.34000 7.236
75.36000 2.833
75.38000 4.168
75.40000 1.865
75.42000 2.521
75.44000 3.146
75.46000 3.208
75.48000 1.818
75.50000 4.343
75.52000 9.826
75.54000 12.126
75.56000 8.638
75.58000 8.036
75.60000 4.227
75.62000 6.217
75.64000 5.109
75.66000 0.968
75.68000 2.620
75.70000 3.146
75.72000 8.542
75.74000 4.696
75.76000 3.377
75.78000 5.460
75.80000 0.916
75.82000 1.731
75.84000 7.268
75.86000 6.934
75.88000 2.513
75.90000 3.677
75.92000 5.510
75.94000 2.990
75.96000 5.939
75.98000 5.551
76.00000 2.132
76.02000 -2.362
76.04000 2.586
76.06000 4.377
76.08000 2.625
76.10000 -1.030
76.12000 -1.207
76.14000 1.742
76.16000 0.823
76.18000 2.889
76.20000 2.040
76.22000 3.128
76.24000 1.469
76.26000 4.506
76.28000 5.272
76.30000 3.817
76.32000 3.999
76.34000 2.564
76.36000 -1.254
76.38000 -0.127
76.40000 3.276
76.42000 4.244
76.44000 1.574
76.46000 -2.368
76.48000 0.114
76.50000 -0.675
76.52000 -1.285
76.54000 -2.059
76.56000 -0.262
76.58000 1.140
76.60000 2.561
76.62000 -0.278
76.64000 0.812
76.66000 3.393
76.68000 1.495
76.70000 -0.699
76.72000 2.012
76.74000 3.393
76.76000 0.669
76.78000 4.265
76.80000 5.461
76.82000 2.669
76.84000 4.136
76.86000 3.976
76.88000 6.780
76.90000 6.094
76.92000 4.941
76.94000 4.842
76.96000 6.863
76.98000 5.062
77.00000 2.478
77.02000 -0.227
77.04000 2.311
77.06000 3.063
77.08000 0.190
77.10000 0.181
77.12000 2.411
77.14000 5.131
77.16000 5.627
77.18000 1.533
77.20000 5.108
77.22000 1.854
77.24000 -0.150
77.26000 -1.848
77.28000 2.398
77.30000 1.553
77.32000 4.755
77.34000 3.431
77.36000 1.562
77.38000 5.627
77.40000 1.408
77.42000 -1.306
77.44000 0.410
77.46000 3.985
77.48000 3.475
77.50000 2.385
77.52000 3.182
77.54000 2.719
77.56000 4.114
77.58000 5.178
77.60000 6.990
77.62000 9.026
77.64000 10.232
77.66000 4.766
77.68000 0.193
77.70000 -2.379
77.72000 3.810
77.74000 3.732
77.76000 3.670
77.78000 3.933
77.80000 5.797
77.82000 4.161
77.84000 -1.915
77.86000 0.617
77.88000 2.635
77.90000 7.880
77.92000 2.860
77.94000 0.180
77.96000 2.157
77.98000 7.269
78.00000 8.654
78.02000 4.321
78.04000 3.705
78.06000 3.272
78.08000 4.499
78.10000 1.505
78.12000 2.853
78.14000 4.109
78.16000 2.778
78.18000 4.522
78.20000 3.305
78.22000 -1.783
78.24000 4.278
78.26000 4.654
78.28000 4.016
78.30000 4.493
78.32000 0.979
78.34000 0.777
78.36000 -0.279
78.38000 2.937
78.40000 4.067
78.42000 0.986
78.44000 1.063
78.46000 2.339
78.48000 1.687
78.50000 -1.410
78.52000 1.401
78.54000 5.034
78.56000 3.145
78.58000 2.675
78.60000 2.457
78.62000 1.858
78.64000 4.446
78.66000 -0.790
78.68000 -0.269
78.70000 -1.853
78.72000 -2.422
78.74000 0.991
78.76000 0.498
78.78000 0.042
78.80000 4.193
78.82000 3.631
78.84000 2.506
78.86000 1.263
78.88000 4.207
78.90000 5.263
78.92000 6.633
78.94000 3.007
78.96000 2.906
78.98000 3.396
79.00000 1.550
79.02000 1.645
79.04000 7.081
79.06000 6.222
79.08000 5.217
79.10000 5.161
79.12000 1.446
79.14000 0.789
79.16000 -1.522
79.18000 -2.422
79.20000 2.436
79.22000 6.241
79.24000 3.964
79.26000 4.613
79.28000 0.731
79.30000 2.029
79.32000 0.167
79.34000 5.640
79.36000 5.958
79.38000 3.307
79.40000 -0.195
79.42000 2.239
79.44000 3.158
79.46000 4.153
79.48000 -1.876
79.50000 -1.416
79.52000 3.004
79.54000 6.875
79.56000 2.321
79.58000 0.350
79.60000 -0.590
79.62000 0.641
79.64000 5.191
79.66000 4.462
79.68000 0.513
79.70000 0.177
79.72000 2.233
79.74000 4.096
79.76000 3.328
79.78000 3.011
79.80000 -0.064
79.82000 0.178
79.84000 7.848
79.86000 6.553
79.88000 5.754
79.90000 4.917
79.92000 1.534
79.94000 2.286
79.96000 2.618
79.98000 5.522
80.00000 -0.299
80.02000 1.128
80.04000 8.050
80.06000 2.821
80.08000 1.333
80.10000 3.968
80.12000 2.746
80.14000 3.368
80.16000 2.648
80.18000 3.637
80.20000 6.058
80.22000 3.984
80.24000 4.746
80.26000 3.527
80.28000 -2.427
80.30000 0.771
80.32000 0.168
80.34000 -0.475
80.36000 1.099
80.38000 3.509
80.40000 4.261
80.42000 2.472
80.44000 5.465
80.46000 0.587
80.48000 -0.483
80.50000 -1.540
80.52000 -1.241
80.54000 1.717
80.56000 1.066
80.58000 0.610
80.60000 0.517
80.62000 0.872
80.64000 2.892
80.66000 8.150
80.68000 8.218
80.70000 4.820
80.72000 5.576
80.74000 0.942
80.76000 3.971
80.78000 2.786
80.80000 0.268
80.82000 1.493
80.84000 2.934
80.86000 1.911
80.88000 4.816
80.90000 3.752
80.92000 5.123
80.94000 2.967
80.96000 0.544
80.98000 -1.742
81.00000 1.362
81.02000 -1.110
81.04000 1.784
81.06000 -0.740
81.08000 2.737
81.10000 1.159
81.12000 1.336
81.14000 1.820
81.16000 -2.005
81.18000 2.897
81.20000 6.722
81.22000 11.632
81.24000 1.047
81.26000 3.098
81.28000 2.536
81.30000 4.801
81.32000 3.357
81.34000 0.548
81.36000 -1.308
81.38000 0.986
81.40000 5.832
81.42000 4.891
81.44000 4.914
81.46000 1.029
81.48000 0.600
81.50000 6.987
81.52000 5.456
81.54000 8.688
81.56000 7.539
81.58000 4.856
81.60000 6.977
81.62000 4.052
81.64000 6.590
81.66000 3.612
81.68000 5.644
81.70000 10.509
81.72000 6.898
81.74000 6.710
81.76000 5.516
81.78000 2.045
81.80000 7.523
81.82000 7.209
81.84000 4.169
81.86000 1.578
81.88000 1.704
81.90000 6.286
81.92000 7.959
81.94000 5.664
81.96000 11.952
81.98000 16.440
82.00000 15.860
82.02000 14.303
82.04000 13.800
82.06000 12.474
82.08000 11.356
82.10000 7.945
82.12000 1.750
82.14000 9.182
82.16000 13.429
82.18000 9.457
82.20000 14.085
82.22000 18.543
82.24000 14.014
82.26000 8.330
82.28000 12.331
82.30000 13.827
82.32000 13.706
82.34000 17.972
82.36000 14.304
82.38000 16.901
82.40000 16.426
82.42000 19.252
82.44000 23.804
82.46000 23.395
82.48000 19.472
82.50000 19.779
82.52000 24.052
82.54000 24.688
82.56000 25.086
82.58000 19.902
82.60000 23.250
82.62000 19.661
82.64000 22.465
82.66000 26.700
82.68000 27.226
82.70000 24.200
82.72000 20.129
82.74000 20.976
82.76000 26.278
82.78000 23.538
82.80000 20.336
82.82000 20.735
82.84000 19.640
82.86000 17.920
82.88000 23.248
82.90000 25.002
82.92000 30.468
82.94000 24.563
82.96000 25.395
82.98000 29.039
83.00000 21.192
83.02000 22.953
83.04000 23.037
83.06000 24.866
83.08000 24.552
83.10000 28.023
83.12000 24.578
83.14000 29.055
83.16000 33.405
83.18000 29.050
83.20000 24.998
83.22000 25.492
83.24000 30.269
83.26000 30.615
83.28000 24.364
83.30000 24.322
83.32000 27.118
83.34000 26.625
83.36000 26.625
83.38000 25.225
83.40000 22.714
83.42000 28.640
83.44000 21.154
83.46000 20.166
83.48000 20.388
83.50000 18.566
83.52000 21.867
83.54000 18.610
83.56000 20.291
83.58000 21.869
83.60000 20.295
83.62000 19.792
83.64000 18.303
83.66000 18.447
83.68000 20.749
83.70000 22.155
83.72000 15.516
83.74000 11.029
83.76000 15.406
83.78000 16.798
83.80000 16.376
83.82000 16.865
83.84000 15.196
83.86000 15.432
83.88000 16.534
83.90000 19.865
83.92000 19.362
83.94000 13.368
83.96000 18.255
83.98000 16.859
84.00000 15.191
84.02000 15.715
84.04000 12.873
84.06000 15.356
84.08000 17.226
84.10000 11.116
84.12000 6.678
84.14000 6.959
84.16000 5.868
84.18000 3.629
84.20000 4.313
84.22000 9.655
84.24000 5.862
84.26000 5.425
84.28000 5.785
84.30000 9.389
84.32000 8.436
84.34000 6.340
84.36000 5.663
84.38000 3.769
84.40000 4.333
84.42000 2.178
84.44000 6.639
84.46000 3.596
84.48000 1.301
84.50000 4.857
84.52000 6.254
84.54000 7.145
84.56000 7.627
84.58000 6.904
84.60000 2.599
84.62000 2.042
84.64000 5.353
84.66000 6.292
84.68000 0.162
84.70000 2.132
84.72000 5.653
84.74000 6.046
84.76000 -1.133
84.78000 2.637
84.80000 4.432
84.82000 3.351
84.84000 2.656
84.86000 -2.468
84.88000 2.081
84.90000 5.375
84.92000 1.015
84.94000 8.500
84.96000 8.236
84.98000 5.816
85.00000 -0.833
85.02000 -0.479
85.04000 0.442
85.06000 3.153
85.08000 5.511
85.10000 6.719
85.12000 3.029
85.14000 -1.972
85.16000 0.382
85.18000 3.709
85.20000 7.199
85.22000 3.203
85.24000 4.225
85.26000 3.935
85.28000 4.756
85.30000 6.219
85.32000 3.100
85.34000 2.931
85.36000 2.576
85.38000 -0.508
85.40000 1.930
85.42000 2.948
85.44000 3.915
85.46000 4.055
85.48000 5.202
85.50000 1.189
85.52000 5.135
85.54000 6.926
85.56000 3.250
85.58000 2.375
85.60000 -1.263
85.62000 1.398
85.64000 6.389
85.66000 5.245
85.68000 2.557
85.70000 3.724
85.72000 5.684
85.74000 6.762
85.76000 -0.311
85.78000 -1.928
85.80000 -2.399
85.82000 0.422
85.84000 1.198
85.86000 3.313
85.88000 4.244
85.90000 5.974
85.92000 7.417
85.94000 1.734
85.96000 2.300
85.98000 0.726
86.00000 6.226
86.02000 8.122
86.04000 4.965
86.06000 1.567
86.08000 4.904
86.10000 6.329
86.12000 8.605
86.14000 6.292
86.16000 5.161
86.18000 4.131
86.20000 3.450
86.22000 1.963
86.24000 -1.872
86.26000 -0.652
86.28000 2.122
86.30000 3.404
86.32000 1.434
86.34000 1.978
86.36000 5.523
86.38000 7.720
86.40000 6.696
86.42000 3.938
86.44000 8.112
86.46000 5.902
86.48000 9.817
86.50000 7.740
86.52000 4.874
86.54000 3.421
86.56000 7.481
86.58000 8.107
86.60000 12.450
86.62000 8.190
86.64000 13.735
86.66000 12.420
86.68000 12.207
86.70000 11.196
86.72000 12.938
86.74000 14.553
86.76000 11.588
86.78000 13.458
86.80000 10.554
86.82000 5.859
86.84000 11.376
86.86000 13.763
86.88000 7.252
86.90000 8.327
86.92000 13.317
86.94000 12.818
86.96000 13.105
86.98000 15.501
87.00000 16.878
87.02000 14.650
87.04000 17.673
87.06000 18.417
87.08000 18.228
87.10000 23.560
87.12000 24.541
87.14000 20.690
87.16000 19.996
87.18000 14.664
87.20000 20.732
87.22000 21.976
87.24000 19.190
87.26000 20.232
87.28000 22.315
87.30000 20.020
87.32000 18.425
87.34000 18.297
87.36000 21.206
87.38000 22.810
87.40000 20.547
87.42000 19.679
87.44000 20.826
87.46000 20.450
87.48000 17.185
87.50000 18.632
87.52000 17.849
87.54000 14.336
87.56000 21.630
87.58000 28.671
87.60000 25.759
87.62000 24.440
87.64000 24.086
87.66000 19.706
87.68000 18.265
87.70000 17.454
87.72000 18.110
87.74000 20.337
87.76000 23.152
87.78000 21.217
87.80000 20.209
87.82000 15.928
87.84000 14.094
87.86000 16.770
87.88000 16.832
87.90000 19.904
87.92000 13.024
87.94000 17.011
87.96000 16.432
87.98000 15.696
88.00000 14.618
88.02000 19.147
88.04000 20.087
88.06000 16.552
88.08000 11.154
88.10000 12.942
88.12000 15.269
88.14000 11.528
88.16000 11.248
88.18000 7.711
88.20000 7.926
88.22000 12.290
88.24000 13.899
88.26000 14.898
88.28000 18.118
88.30000 17.025
88.32000 15.424
88.34000 12.070
88.36000 9.598
88.38000 7.158
88.40000 6.601
88.42000 7.727
88.44000 5.935
88.46000 6.873
88.48000 7.459
88.50000 7.297
88.52000 11.540
88.54000 11.090
88.56000 7.946
88.58000 6.030
88.60000 2.322
88.62000 2.795
88.64000 -2.371
88.66000 1.897
88.68000 -0.605
88.70000 0.973
88.72000 4.539
88.74000 6.472
88.76000 5.191
88.78000 4.234
88.80000 2.536
88.82000 6.642
88.84000 6.922
88.86000 6.846
88.88000 7.476
88.90000 3.806
88.92000 1.546
88.94000 1.706
88.96000 3.234
88.98000 2.610
89.00000 2.352
89.02000 3.290
89.04000 3.755
89.06000 6.133
89.08000 5.332
89.10000 0.134
89.12000 3.060
89.14000 4.325
89.16000 5.483
89.18000 1.398
89.20000 -0.821
89.22000 3.565
89.24000 2.005
89.26000 2.533
89.28000 9.434
89.30000 7.194
89.32000 8.820
89.34000 3.192
89.36000 -0.549
89.38000 3.912
89.40000 6.279
89.42000 3.603
89.44000 2.161
89.46000 2.341
89.48000 2.793
89.50000 1.684
89.52000 2.264
89.54000 6.239
89.56000 8.509
89.58000 5.327
89.60000 2.340
89.62000 2.574
89.64000 2.000
89.66000 2.151
89.68000 1.379
89.70000 1.325
89.72000 0.455
89.74000 3.413
89.76000 6.620
89.78000 7.370
89.80000 2.431
89.82000 4.045
89.84000 0.072
89.86000 -2.259
89.88000 -0.285
89.90000 1.931
89.92000 2.391
89.94000 5.929
89.96000 4.417
89.98000 5.193
90.00000 7.497
90.02000 5.420
90.04000 3.402
90.06000 2.891
90.08000 3.089
90.10000 3.490
90.12000 -2.256
90.14000 1.653
90.16000 4.414
90.18000 2.328
90.20000 3.794
90.22000 5.741
90.24000 3.817
90.26000 3.080
90.28000 5.398
90.30000 3.607
90.32000 0.921
90.34000 2.093
90.36000 5.043
90.38000 9.450
90.40000 4.001
90.42000 3.595
90.44000 3.341
90.46000 -1.593
90.48000 -2.246
90.50000 3.097
90.52000 6.549
90.54000 4.771
90.56000 4.927
90.58000 1.521
90.60000 1.018
90.62000 1.488
90.64000 3.472
90.66000 7.199
90.68000 2.901
90.70000 3.415
90.72000 2.101
90.74000 -0.149
90.76000 0.493
90.78000 4.039
90.80000 2.093
90.82000 -0.225
90.84000 -0.480
90.86000 1.066
90.88000 1.923
90.90000 0.551
90.92000 4.645
90.94000 6.874
90.96000 8.167
90.98000 4.495
91.00000 5.258
91.02000 3.535
91.04000 -0.884
91.06000 -1.083
91.08000 2.405
91.10000 1.741
91.12000 1.101
91.14000 -1.780
91.16000 1.821
91.18000 8.400
91.20000 7.585
91.22000 9.569
91.24000 1.204
91.26000 3.891
91.28000 5.454
91.30000 2.462
91.32000 3.619
91.34000 0.943
91.36000 1.616
91.38000 5.016
91.40000 6.001
91.42000 5.000
91.44000 3.932
91.46000 2.228
91.48000 1.437
91.50000 4.460
91.52000 5.026
91.54000 -2.064
91.56000 0.886
91.58000 5.468
91.60000 1.505
91.62000 0.689
91.64000 -0.357
91.66000 0.722
91.68000 1.220
91.70000 3.573
91.72000 4.045
91.74000 3.941
91.76000 1.820
91.78000 1.721
91.80000 0.572
91.82000 1.093
91.84000 3.380
91.86000 4.582
91.88000 3.176
91.90000 5.258
91.92000 4.805
91.94000 1.552
91.96000 7.952
91.98000 6.088
92.00000 3.818
92.02000 5.569
92.04000 4.587
92.06000 5.567
92.08000 -2.185
92.10000 2.918
92.12000 8.515
92.14000 4.155
92.16000 5.050
92.18000 3.793
92.20000 4.504
92.22000 6.929
92.24000 6.540
92.26000 4.154
92.28000 1.230
92.30000 0.368
92.32000 -0.269
92.34000 2.921
92.36000 3.195
92.38000 7.828
92.40000 3.692
92.42000 0.849
92.44000 5.482
92.46000 2.653
92.48000 6.488
92.50000 3.322
92.52000 2.711
92.54000 5.444
92.56000 5.691
92.58000 10.159
92.60000 10.069
92.62000 5.114
92.64000 2.854
92.66000 5.743
92.68000 3.581
92.70000 3.935
92.72000 7.133
92.74000 6.722
92.76000 4.346
92.78000 4.036
92.80000 3.159
92.82000 5.583
92.84000 2.312
92.86000 0.014
92.88000 0.266
92.90000 4.390
92.92000 0.975
92.94000 1.211
92.96000 8.592
92.98000 6.462
93.00000 3.442
93.02000 1.613
93.04000 1.075
93.06000 1.414
93.08000 3.173
93.10000 2.457
93.12000 -0.007
93.14000 2.167
93.16000 4.376
93.18000 0.153
93.20000 -2.247
93.22000 0.654
93.24000 3.295
93.26000 5.927
93.28000 5.696
93.30000 4.636
93.32000 6.901
93.34000 5.272
93.36000 6.654
93.38000 4.124
93.40000 2.425
93.42000 4.517
93.44000 2.638
93.46000 4.782
93.48000 2.969
93.50000 2.298
93.52000 -0.122
93.54000 0.493
93.56000 4.520
93.58000 6.219
93.60000 10.695
93.62000 4.696
93.64000 -0.183
93.66000 4.534
93.68000 3.875
93.70000 2.831
93.72000 4.066
93.74000 7.567
93.76000 6.386
93.78000 5.158
93.80000 1.211
93.82000 -0.320
93.84000 2.592
93.86000 0.957
93.88000 6.853
93.90000 4.302
93.92000 1.316
93.94000 0.897
93.96000 -0.926
93.98000 2.807
94.00000 6.781
94.02000 3.219
94.04000 3.949
94.06000 5.410
94.08000 2.537
94.10000 4.577
94.12000 6.705
94.14000 3.134
94.16000 4.267
94.18000 2.856
94.20000 1.841
94.22000 -0.223
94.24000 5.228
94.26000 1.589
94.28000 0.192
94.30000 0.233
94.32000 -2.133
94.34000 -2.088
94.36000 -1.295
94.38000 1.740
94.40000 -0.082
94.42000 3.005
94.44000 0.191
94.46000 0.539
94.48000 7.383
94.50000 8.441
94.52000 6.836
94.54000 3.467
94.56000 2.757
94.58000 3.231
94.60000 -0.462
94.62000 3.075
94.64000 6.132
94.66000 5.444
94.68000 7.549
94.70000 9.297
94.72000 5.071
94.74000 4.712
94.76000 0.756
94.78000 -2.248
94.80000 -0.025
94.82000 2.471
94.84000 3.582
94.86000 7.212
94.88000 10.919
94.90000 4.892
94.92000 6.507
94.94000 5.859
94.96000 6.173
94.98000 8.488
95.00000 10.589
95.02000 7.387
95.04000 2.943
95.06000 2.242
95.08000 5.739
95.10000 8.771
95.12000 2.647
95.14000 6.749
95.16000 9.268
95.18000 2.384
95.20000 1.822
95.22000 3.705
95.24000 6.149
95.26000 11.664
95.28000 12.559
95.30000 8.509
95.32000 8.897
95.34000 7.533
95.36000 7.605
95.38000 2.255
95.40000 3.260
95.42000 8.777
95.44000 7.001
95.46000 3.024
95.48000 5.008
95.50000 7.821
95.52000 8.197
95.54000 3.906
95.56000 2.617
95.58000 5.405
95.60000 6.289
95.62000 3.502
95.64000 0.552
95.66000 2.241
95.68000 4.710
95.70000 6.154
95.72000 7.911
95.74000 2.924
95.76000 3.982
95.78000 6.231
95.80000 1.886
95.82000 2.697
95.84000 4.429
95.86000 6.531
95.88000 5.267
95.90000 3.814
95.92000 1.112
95.94000 3.935
95.96000 0.080
95.98000 3.724
96.00000 7.054
96.02000 8.017
96.04000 5.013
96.06000 -1.262
96.08000 5.379
96.10000 2.669
96.12000 3.644
96.14000 6.268
96.16000 5.753
96.18000 5.066
96.20000 2.677
96.22000 4.814
96.24000 8.071
96.26000 5.258
96.28000 6.016
96.30000 10.668
96.32000 11.347
96.34000 0.169
96.36000 6.800
96.38000 13.059
96.40000 9.624
96.42000 3.444
96.44000 5.081
96.46000 12.438
96.48000 9.348
96.50000 14.366
96.52000 9.173
96.54000 5.688
96.56000 7.735
96.58000 3.565
96.60000 6.903
96.62000 6.150
96.64000 8.487
96.66000 7.606
96.68000 10.877
96.70000 7.767
96.72000 5.825
96.74000 2.528
96.76000 1.513
96.78000 -2.161
96.80000 -0.413
96.82000 0.344
96.84000 7.848
96.86000 9.915
96.88000 11.072
96.90000 5.427
96.92000 6.710
96.94000 6.155
96.96000 8.665
96.98000 7.954
97.00000 12.502
97.02000 7.033
97.04000 9.558
97.06000 9.370
97.08000 8.746
97.10000 5.494
97.12000 3.103
97.14000 4.023
97.16000 4.158
97.18000 9.806
97.20000 3.633
97.22000 5.772
97.24000 3.175
97.26000 3.322
97.28000 5.286
97.30000 2.634
97.32000 -0.010
97.34000 -0.210
97.36000 9.967
97.38000 10.170
97.40000 9.391
97.42000 7.288
97.44000 9.954
97.46000 7.357
97.48000 4.219
97.50000 8.845
97.52000 12.171
97.54000 9.710
97.56000 7.424
97.58000 3.933
97.60000 5.856
97.62000 5.414
97.64000 3.431
97.66000 4.484
97.68000 7.835
97.70000 9.509
97.72000 10.574
97.74000 10.535
97.76000 4.757
97.78000 5.616
97.80000 3.348
97.82000 4.869
97.84000 2.603
97.86000 8.554
97.88000 9.805
97.90000 6.671
97.92000 -1.615
97.94000 2.382
97.96000 5.267
97.98000 1.832
98.00000 0.971
98.02000 8.015
98.04000 10.178
98.06000 6.898
98.08000 2.179
98.10000 -0.445
98.12000 3.003
98.14000 8.511
98.16000 12.296
98.18000 18.898
98.20000 12.773
98.22000 9.880
98.24000 4.594
98.26000 5.240
98.28000 4.334
98.30000 15.014
98.32000 9.531
98.34000 5.106
98.36000 17.546
98.38000 5.973
98.40000 7.886
98.42000 15.458
98.44000 10.255
98.46000 1.980
98.48000 -0.257
98.50000 2.897
98.52000 10.399
98.54000 4.215
98.56000 7.806
98.58000 3.071
98.60000 4.267
98.62000 0.599
98.64000 4.241
98.66000 0.847
98.68000 7.704
98.70000 3.630
98.72000 8.389
98.74000 6.616
98.76000 0.636
98.78000 8.947
98.80000 11.414
98.82000 8.686
98.84000 1.194
98.86000 1.544
98.88000 2.898
98.90000 1.490
98.92000 2.457
98.94000 6.998
98.96000 12.009
98.98000 4.875
99.00000 -2.139
99.02000 4.278
99.04000 14.293
99.06000 7.395
99.08000 7.434
99.10000 9.708
99.12000 11.064
99.14000 13.812
99.16000 8.157
99.18000 5.089
99.20000 17.294
99.22000 21.370
99.24000 15.534
99.26000 6.790
99.28000 9.546
99.30000 16.768
99.32000 14.532
99.34000 15.354
99.36000 8.873
99.38000 13.777
99.40000 11.142
99.42000 6.419
99.44000 16.647
99.46000 12.101
99.48000 17.484
99.50000 17.708
99.52000 8.166
99.54000 4.480
99.56000 4.820
99.58000 5.389
99.60000 -3.193
99.62000 4.902
99.64000 10.228
99.66000 15.153
99.68000 7.679
99.70000 11.869
99.72000 13.532
99.74000 9.893
99.76000 10.091
99.78000 6.796
99.80000 19.336
99.82000 22.894
99.84000 16.759
99.86000 9.839
99.88000 4.664
99.90000 -2.155
99.92000 0.927
99.94000 1.207
99.96000 -0.325
99.98000 0.000
