'Id: "0011388" Comment: "Integrate frame 0011388_Au-Ir-Rh_Rh-rich_XRD-Mapping-216-0000.gfrmwith cursor Wedge Cursor #5" Operator: "B?rgel" Anode: "Cu" Wavelength: "1.5406" Scantype: "2Theta (TwoTheta)" TimePerStep: "1" X: "31.5" Y: "9" Z: "5.95" 
10.00000 0.000
10.02000 -3.411
10.04000 -3.402
10.06000 11.562
10.08000 9.789
10.10000 -3.380
10.12000 -0.192
10.14000 6.043
10.16000 5.736
10.18000 8.386
10.20000 5.766
10.22000 11.276
10.24000 9.044
10.26000 4.903
10.28000 11.433
10.30000 9.152
10.32000 11.241
10.34000 12.305
10.36000 24.116
10.38000 7.240
10.40000 1.325
10.42000 1.602
10.44000 2.196
10.46000 5.212
10.48000 8.654
10.50000 12.238
10.52000 24.804
10.54000 21.768
10.56000 14.945
10.58000 26.376
10.60000 24.962
10.62000 12.123
10.64000 13.131
10.66000 21.747
10.68000 20.181
10.70000 5.092
10.72000 8.201
10.74000 12.077
10.76000 21.265
10.78000 24.118
10.80000 18.406
10.82000 17.742
10.84000 22.590
10.86000 9.767
10.88000 12.711
10.90000 22.152
10.92000 27.414
10.94000 26.949
10.96000 33.456
10.98000 21.284
11.00000 20.533
11.02000 15.727
11.04000 12.514
11.06000 21.102
11.08000 20.257
11.10000 17.161
11.12000 9.935
11.14000 18.630
11.16000 11.478
11.18000 18.977
11.20000 25.533
11.22000 26.003
11.24000 24.451
11.26000 23.747
11.28000 17.153
11.30000 24.256
11.32000 30.791
11.34000 30.826
11.36000 27.653
11.38000 31.017
11.40000 33.303
11.42000 28.411
11.44000 24.862
11.46000 27.653
11.48000 22.410
11.50000 15.867
11.52000 18.550
11.54000 20.070
11.56000 22.368
11.58000 22.251
11.60000 32.977
11.62000 32.832
11.64000 28.188
11.66000 28.044
11.68000 21.125
11.70000 34.210
11.72000 35.359
11.74000 35.773
11.76000 26.711
11.78000 22.309
11.80000 16.257
11.82000 27.204
11.84000 26.528
11.86000 25.109
11.88000 27.695
11.90000 31.376
11.92000 30.040
11.94000 42.585
11.96000 45.189
11.98000 40.348
12.00000 32.747
12.02000 27.609
12.04000 30.773
12.06000 34.618
12.08000 31.121
12.10000 35.070
12.12000 34.662
12.14000 37.822
12.16000 32.900
12.18000 32.395
12.20000 34.761
12.22000 33.200
12.24000 37.573
12.26000 34.063
12.28000 31.803
12.30000 27.545
12.32000 30.136
12.34000 34.899
12.36000 38.956
12.38000 37.233
12.40000 41.655
12.42000 39.124
12.44000 32.905
12.46000 36.859
12.48000 31.287
12.50000 27.748
12.52000 37.094
12.54000 36.502
12.56000 40.896
12.58000 40.141
12.60000 38.870
12.62000 26.919
12.64000 35.854
12.66000 39.479
12.68000 38.417
12.70000 28.087
12.72000 27.169
12.74000 34.487
12.76000 39.318
12.78000 38.663
12.80000 34.485
12.82000 33.448
12.84000 34.222
12.86000 33.265
12.88000 29.788
12.90000 32.412
12.92000 26.917
12.94000 31.023
12.96000 27.757
12.98000 31.971
13.00000 36.317
13.02000 43.702
13.04000 32.978
13.06000 34.007
13.08000 37.314
13.10000 37.231
13.12000 31.758
13.14000 37.363
13.16000 34.921
13.18000 34.545
13.20000 34.523
13.22000 34.406
13.24000 27.609
13.26000 31.564
13.28000 33.036
13.30000 41.260
13.32000 46.078
13.34000 39.672
13.36000 33.039
13.38000 30.175
13.40000 29.090
13.42000 27.943
13.44000 26.030
13.46000 14.902
13.48000 17.031
13.50000 23.858
13.52000 35.095
13.54000 25.845
13.56000 32.550
13.58000 36.721
13.60000 24.192
13.62000 14.574
13.64000 22.225
13.66000 24.652
13.68000 31.598
13.70000 32.033
13.72000 37.860
13.74000 25.405
13.76000 20.527
13.78000 16.643
13.80000 27.119
13.82000 22.805
13.84000 24.037
13.86000 34.616
13.88000 35.031
13.90000 26.883
13.92000 27.881
13.94000 23.115
13.96000 17.144
13.98000 13.861
14.00000 13.372
14.02000 29.261
14.04000 34.402
14.06000 32.861
14.08000 24.406
14.10000 16.783
14.12000 17.841
14.14000 24.099
14.16000 13.738
14.18000 12.048
14.20000 21.929
14.22000 26.430
14.24000 22.884
14.26000 17.489
14.28000 29.232
14.30000 23.858
14.32000 23.231
14.34000 14.518
14.36000 23.187
14.38000 20.481
14.40000 22.480
14.42000 27.315
14.44000 20.576
14.46000 23.381
14.48000 30.362
14.50000 32.820
14.52000 28.504
14.54000 20.179
14.56000 25.940
14.58000 25.061
14.60000 12.543
14.62000 18.897
14.64000 28.082
14.66000 20.123
14.68000 23.653
14.70000 15.530
14.72000 9.328
14.74000 9.967
14.76000 16.997
14.78000 18.152
14.80000 10.293
14.82000 21.157
14.84000 25.641
14.86000 21.376
14.88000 25.440
14.90000 26.246
14.92000 25.712
14.94000 16.627
14.96000 12.289
14.98000 18.547
15.00000 26.316
15.02000 23.500
15.04000 20.394
15.06000 22.484
15.08000 20.873
15.10000 19.875
15.12000 24.902
15.14000 23.441
15.16000 25.991
15.18000 19.963
15.20000 15.322
15.22000 10.109
15.24000 18.473
15.26000 18.261
15.28000 16.035
15.30000 14.278
15.32000 16.276
15.34000 11.125
15.36000 16.494
15.38000 25.303
15.40000 20.274
15.42000 9.938
15.44000 12.550
15.46000 16.675
15.48000 24.903
15.50000 23.309
15.52000 16.514
15.54000 19.868
15.56000 17.290
15.58000 15.462
15.60000 12.261
15.62000 20.649
15.64000 24.085
15.66000 23.367
15.68000 6.195
15.70000 5.026
15.72000 13.584
15.74000 13.373
15.76000 7.235
15.78000 9.757
15.80000 16.139
15.82000 16.155
15.84000 11.108
15.86000 18.172
15.88000 22.450
15.90000 8.907
15.92000 9.651
15.94000 12.874
15.96000 10.274
15.98000 6.413
16.00000 10.236
16.02000 15.056
16.04000 22.340
16.06000 17.059
16.08000 16.620
16.10000 10.266
16.12000 7.699
16.14000 10.935
16.16000 16.278
16.18000 9.077
16.20000 6.173
16.22000 16.293
16.24000 11.367
16.26000 9.112
16.28000 -3.188
16.30000 3.771
16.32000 6.664
16.34000 5.557
16.36000 6.656
16.38000 16.342
16.40000 13.653
16.42000 13.222
16.44000 13.761
16.46000 7.278
16.48000 9.306
16.50000 16.971
16.52000 14.856
16.54000 13.133
16.56000 11.935
16.58000 4.142
16.60000 2.705
16.62000 4.657
16.64000 14.610
16.66000 12.026
16.68000 8.794
16.70000 7.632
16.72000 2.402
16.74000 5.089
16.76000 6.797
16.78000 5.937
16.80000 6.367
16.82000 12.424
16.84000 13.964
16.86000 8.495
16.88000 2.551
16.90000 0.619
16.92000 2.137
16.94000 5.859
16.96000 7.159
16.98000 6.297
17.00000 5.357
17.02000 7.263
17.04000 12.842
17.06000 6.579
17.08000 3.595
17.10000 12.854
17.12000 8.575
17.14000 12.054
17.16000 9.012
17.18000 6.217
17.20000 10.140
17.22000 16.276
17.24000 14.706
17.26000 12.310
17.28000 7.279
17.30000 2.642
17.32000 1.358
17.34000 1.727
17.36000 11.878
17.38000 16.594
17.40000 11.995
17.42000 8.492
17.44000 5.271
17.46000 -2.077
17.48000 1.007
17.50000 5.905
17.52000 6.238
17.54000 12.576
17.56000 10.763
17.58000 4.500
17.60000 0.419
17.62000 5.034
17.64000 11.183
17.66000 12.675
17.68000 9.996
17.70000 11.131
17.72000 17.411
17.74000 14.996
17.76000 4.589
17.78000 1.940
17.80000 -0.761
17.82000 0.175
17.84000 8.564
17.86000 6.274
17.88000 9.716
17.90000 7.102
17.92000 4.917
17.94000 12.730
17.96000 8.562
17.98000 4.378
18.00000 3.895
18.02000 2.425
18.04000 1.562
18.06000 6.473
18.08000 7.518
18.10000 2.622
18.12000 2.739
18.14000 5.878
18.16000 -0.489
18.18000 -1.484
18.20000 2.836
18.22000 0.348
18.24000 -0.319
18.26000 12.419
18.28000 12.345
18.30000 9.450
18.32000 9.027
18.34000 13.805
18.36000 9.495
18.38000 8.530
18.40000 10.630
18.42000 11.074
18.44000 10.389
18.46000 8.780
18.48000 14.557
18.50000 12.496
18.52000 -1.085
18.54000 -2.682
18.56000 -3.649
18.58000 -4.322
18.60000 3.067
18.62000 8.830
18.64000 -4.068
18.66000 1.183
18.68000 -2.258
18.70000 6.637
18.72000 4.252
18.74000 1.931
18.76000 2.433
18.78000 5.887
18.80000 3.304
18.82000 -0.142
18.84000 4.538
18.86000 7.621
18.88000 10.080
18.90000 13.703
18.92000 -0.080
18.94000 1.269
18.96000 5.334
18.98000 4.760
19.00000 7.572
19.02000 6.004
19.04000 4.834
19.06000 1.601
19.08000 -0.589
19.10000 4.379
19.12000 1.106
19.14000 -2.037
19.16000 1.411
19.18000 6.512
19.20000 7.992
19.22000 4.361
19.24000 1.047
19.26000 -4.283
19.28000 -0.820
19.30000 1.727
19.32000 -1.605
19.34000 0.077
19.36000 5.773
19.38000 8.734
19.40000 7.586
19.42000 6.061
19.44000 7.703
19.46000 2.298
19.48000 0.082
19.50000 4.795
19.52000 6.681
19.54000 6.060
19.56000 13.135
19.58000 12.774
19.60000 9.071
19.62000 10.147
19.64000 9.821
19.66000 8.513
19.68000 8.383
19.70000 5.608
19.72000 5.745
19.74000 10.242
19.76000 10.803
19.78000 5.426
19.80000 0.393
19.82000 4.247
19.84000 5.573
19.86000 6.947
19.88000 8.112
19.90000 5.112
19.92000 5.518
19.94000 1.982
19.96000 4.440
19.98000 5.531
20.00000 -1.034
20.02000 -1.825
20.04000 3.776
20.06000 4.488
20.08000 0.509
20.10000 -4.220
20.12000 -2.244
20.14000 3.185
20.16000 11.715
20.18000 9.959
20.20000 9.632
20.22000 8.838
20.24000 2.844
20.26000 6.652
20.28000 -0.538
20.30000 -2.408
20.32000 6.279
20.34000 10.786
20.36000 11.755
20.38000 3.810
20.40000 4.094
20.42000 9.362
20.44000 14.876
20.46000 10.313
20.48000 5.540
20.50000 5.157
20.52000 7.287
20.54000 -0.009
20.56000 1.334
20.58000 2.921
20.60000 -1.494
20.62000 2.965
20.64000 4.801
20.66000 2.958
20.68000 2.755
20.70000 1.373
20.72000 6.977
20.74000 7.161
20.76000 7.681
20.78000 12.509
20.80000 13.201
20.82000 4.986
20.84000 0.151
20.86000 1.830
20.88000 8.655
20.90000 7.505
20.92000 4.856
20.94000 6.127
20.96000 10.515
20.98000 9.813
21.00000 8.477
21.02000 6.148
21.04000 4.111
21.06000 -0.306
21.08000 3.162
21.10000 2.166
21.12000 4.073
21.14000 2.984
21.16000 3.548
21.18000 2.033
21.20000 -1.179
21.22000 0.941
21.24000 3.976
21.26000 4.753
21.28000 5.871
21.30000 5.460
21.32000 -0.964
21.34000 2.976
21.36000 0.820
21.38000 -0.735
21.40000 9.106
21.42000 9.044
21.44000 1.785
21.46000 4.478
21.48000 -1.933
21.50000 -3.349
21.52000 -3.903
21.54000 -4.174
21.56000 4.504
21.58000 7.991
21.60000 6.501
21.62000 6.390
21.64000 3.131
21.66000 8.573
21.68000 0.967
21.70000 -2.313
21.72000 -2.941
21.74000 4.171
21.76000 6.440
21.78000 10.857
21.80000 12.400
21.82000 4.713
21.84000 -2.686
21.86000 -1.218
21.88000 -3.281
21.90000 -1.566
21.92000 -3.993
21.94000 3.352
21.96000 1.680
21.98000 2.903
22.00000 1.853
22.02000 -1.801
22.04000 4.203
22.06000 2.613
22.08000 2.246
22.10000 0.511
22.12000 4.471
22.14000 2.761
22.16000 3.330
22.18000 -2.195
22.20000 -0.924
22.22000 0.164
22.24000 -2.178
22.26000 -0.121
22.28000 1.369
22.30000 -3.161
22.32000 -3.683
22.34000 -1.487
22.36000 2.227
22.38000 10.576
22.40000 8.773
22.42000 -0.431
22.44000 0.864
22.46000 1.700
22.48000 -0.596
22.50000 0.091
22.52000 7.846
22.54000 7.265
22.56000 3.187
22.58000 4.403
22.60000 1.304
22.62000 2.105
22.64000 5.207
22.66000 6.816
22.68000 -1.837
22.70000 -0.489
22.72000 5.159
22.74000 2.840
22.76000 8.236
22.78000 1.682
22.80000 -4.086
22.82000 -0.816
22.84000 0.021
22.86000 8.530
22.88000 16.492
22.90000 12.588
22.92000 10.887
22.94000 7.333
22.96000 11.931
22.98000 2.136
23.00000 4.427
23.02000 3.488
23.04000 7.229
23.06000 13.840
23.08000 10.495
23.10000 8.077
23.12000 7.192
23.14000 -0.201
23.16000 4.815
23.18000 6.433
23.20000 1.818
23.22000 2.361
23.24000 5.496
23.26000 -2.419
23.28000 -4.034
23.30000 6.096
23.32000 13.283
23.34000 13.565
23.36000 6.365
23.38000 3.468
23.40000 3.720
23.42000 7.395
23.44000 12.108
23.46000 11.191
23.48000 11.134
23.50000 6.487
23.52000 4.512
23.54000 8.192
23.56000 10.015
23.58000 5.046
23.60000 7.505
23.62000 12.662
23.64000 11.237
23.66000 11.598
23.68000 4.975
23.70000 0.081
23.72000 4.844
23.74000 5.538
23.76000 4.857
23.78000 9.908
23.80000 14.259
23.82000 11.720
23.84000 5.394
23.86000 3.282
23.88000 7.019
23.90000 9.882
23.92000 6.957
23.94000 2.662
23.96000 4.326
23.98000 5.615
24.00000 7.558
24.02000 6.597
24.04000 11.380
24.06000 9.067
24.08000 4.851
24.10000 3.247
24.12000 4.486
24.14000 1.937
24.16000 4.536
24.18000 3.893
24.20000 -3.973
24.22000 2.386
24.24000 10.874
24.26000 8.347
24.28000 4.511
24.30000 7.954
24.32000 11.171
24.34000 12.914
24.36000 10.072
24.38000 7.890
24.40000 9.067
24.42000 8.561
24.44000 4.671
24.46000 3.841
24.48000 7.719
24.50000 8.402
24.52000 5.996
24.54000 9.024
24.56000 6.316
24.58000 7.720
24.60000 3.319
24.62000 3.107
24.64000 10.972
24.66000 7.090
24.68000 1.668
24.70000 3.255
24.72000 10.687
24.74000 8.502
24.76000 6.408
24.78000 3.817
24.80000 2.839
24.82000 7.047
24.84000 12.048
24.86000 12.454
24.88000 10.726
24.90000 3.009
24.92000 -3.653
24.94000 -0.994
24.96000 5.317
24.98000 2.830
25.00000 1.266
25.02000 5.307
25.04000 4.886
25.06000 2.268
25.08000 -0.206
25.10000 4.713
25.12000 9.617
25.14000 5.535
25.16000 2.045
25.18000 0.815
25.20000 -1.124
25.22000 2.257
25.24000 5.592
25.26000 2.402
25.28000 3.487
25.30000 7.947
25.32000 4.721
25.34000 6.663
25.36000 5.079
25.38000 3.817
25.40000 2.349
25.42000 4.256
25.44000 4.168
25.46000 0.577
25.48000 -2.845
25.50000 1.478
25.52000 -0.606
25.54000 -3.926
25.56000 -1.960
25.58000 4.205
25.60000 5.163
25.62000 5.643
25.64000 5.774
25.66000 6.258
25.68000 3.245
25.70000 4.900
25.72000 5.662
25.74000 4.591
25.76000 3.706
25.78000 1.605
25.80000 -0.538
25.82000 -1.162
25.84000 -1.615
25.86000 6.415
25.88000 3.763
25.90000 1.465
25.92000 3.331
25.94000 5.362
25.96000 6.164
25.98000 3.297
26.00000 1.492
26.02000 0.347
26.04000 -2.679
26.06000 3.415
26.08000 -1.181
26.10000 2.301
26.12000 3.146
26.14000 2.865
26.16000 0.390
26.18000 -0.785
26.20000 0.627
26.22000 0.857
26.24000 -0.130
26.26000 -2.057
26.28000 -3.573
26.30000 -2.531
26.32000 -0.621
26.34000 3.399
26.36000 10.612
26.38000 2.583
26.40000 -0.677
26.42000 0.481
26.44000 1.932
26.46000 -3.905
26.48000 2.099
26.50000 1.139
26.52000 0.134
26.54000 -0.654
26.56000 1.018
26.58000 1.568
26.60000 2.800
26.62000 0.951
26.64000 2.650
26.66000 2.104
26.68000 1.759
26.70000 2.212
26.72000 3.506
26.74000 1.577
26.76000 3.175
26.78000 6.353
26.80000 2.443
26.82000 0.459
26.84000 0.330
26.86000 0.304
26.88000 0.488
26.90000 2.083
26.92000 -1.599
26.94000 -3.262
26.96000 2.742
26.98000 4.235
27.00000 2.190
27.02000 1.056
27.04000 0.169
27.06000 3.522
27.08000 -3.870
27.10000 -1.572
27.12000 4.434
27.14000 4.441
27.16000 1.981
27.18000 0.021
27.20000 2.783
27.22000 3.809
27.24000 0.729
27.26000 0.135
27.28000 2.823
27.30000 0.667
27.32000 2.704
27.34000 5.345
27.36000 5.165
27.38000 8.837
27.40000 3.343
27.42000 1.953
27.44000 8.541
27.46000 7.607
27.48000 1.926
27.50000 -3.026
27.52000 5.101
27.54000 6.750
27.56000 4.377
27.58000 -3.835
27.60000 1.424
27.62000 4.572
27.64000 5.108
27.66000 5.571
27.68000 6.912
27.70000 1.007
27.72000 -2.364
27.74000 -0.802
27.76000 0.686
27.78000 2.462
27.80000 5.803
27.82000 6.764
27.84000 0.440
27.86000 2.256
27.88000 4.651
27.90000 2.673
27.92000 2.019
27.94000 0.788
27.96000 0.348
27.98000 1.270
28.00000 -0.142
28.02000 -0.895
28.04000 2.637
28.06000 2.705
28.08000 1.213
28.10000 3.355
28.12000 0.518
28.14000 -0.430
28.16000 2.620
28.18000 4.983
28.20000 5.483
28.22000 0.965
28.24000 0.810
28.26000 -1.505
28.28000 1.759
28.30000 3.774
28.32000 4.477
28.34000 2.361
28.36000 0.835
28.38000 -1.087
28.40000 2.569
28.42000 0.867
28.44000 2.297
28.46000 -0.457
28.48000 2.614
28.50000 3.008
28.52000 3.159
28.54000 2.104
28.56000 5.209
28.58000 -1.727
28.60000 3.202
28.62000 7.430
28.64000 9.343
28.66000 3.351
28.68000 5.536
28.70000 4.137
28.72000 -0.095
28.74000 1.283
28.76000 2.622
28.78000 2.778
28.80000 -2.576
28.82000 -2.905
28.84000 -2.189
28.86000 1.335
28.88000 -1.238
28.90000 -3.770
28.92000 3.264
28.94000 -1.457
28.96000 -2.186
28.98000 -1.230
29.00000 0.434
29.02000 2.532
29.04000 3.943
29.06000 6.631
29.08000 2.768
29.10000 -1.056
29.12000 -2.530
29.14000 -3.757
29.16000 2.901
29.18000 3.077
29.20000 4.239
29.22000 4.744
29.24000 5.366
29.26000 3.607
29.28000 0.555
29.30000 1.674
29.32000 3.998
29.34000 2.879
29.36000 2.719
29.38000 -0.925
29.40000 1.290
29.42000 3.075
29.44000 7.122
29.46000 3.512
29.48000 2.153
29.50000 8.807
29.52000 5.937
29.54000 1.247
29.56000 1.966
29.58000 3.525
29.60000 7.012
29.62000 2.821
29.64000 5.541
29.66000 4.089
29.68000 1.731
29.70000 4.077
29.72000 2.293
29.74000 2.250
29.76000 2.149
29.78000 3.478
29.80000 3.945
29.82000 8.984
29.84000 4.788
29.86000 2.743
29.88000 7.273
29.90000 3.280
29.92000 5.402
29.94000 1.740
29.96000 0.652
29.98000 5.056
30.00000 6.560
30.02000 3.186
30.04000 3.537
30.06000 7.350
30.08000 8.565
30.10000 6.292
30.12000 3.232
30.14000 2.769
30.16000 5.238
30.18000 3.549
30.20000 -3.667
30.22000 -2.408
30.24000 -3.368
30.26000 -1.956
30.28000 1.619
30.30000 4.118
30.32000 0.662
30.34000 2.078
30.36000 11.284
30.38000 10.053
30.40000 3.644
30.42000 9.160
30.44000 7.178
30.46000 8.868
30.48000 7.314
30.50000 7.664
30.52000 11.089
30.54000 9.593
30.56000 7.900
30.58000 1.448
30.60000 0.170
30.62000 4.582
30.64000 4.579
30.66000 2.668
30.68000 4.052
30.70000 5.152
30.72000 2.877
30.74000 3.266
30.76000 5.576
30.78000 3.903
30.80000 10.171
30.82000 5.955
30.84000 5.535
30.86000 5.229
30.88000 5.200
30.90000 7.813
30.92000 8.102
30.94000 1.727
30.96000 4.285
30.98000 7.671
31.00000 4.271
31.02000 2.319
31.04000 4.018
31.06000 4.169
31.08000 6.015
31.10000 9.500
31.12000 6.643
31.14000 2.470
31.16000 1.558
31.18000 -0.488
31.20000 -2.959
31.22000 4.110
31.24000 -1.420
31.26000 2.157
31.28000 4.140
31.30000 -3.652
31.32000 -0.393
31.34000 5.045
31.36000 5.704
31.38000 0.939
31.40000 -0.225
31.42000 2.672
31.44000 2.717
31.46000 3.047
31.48000 2.655
31.50000 2.886
31.52000 3.910
31.54000 0.813
31.56000 6.574
31.58000 3.634
31.60000 3.219
31.62000 2.728
31.64000 7.382
31.66000 8.041
31.68000 7.346
31.70000 4.969
31.72000 2.362
31.74000 1.846
31.76000 2.167
31.78000 -1.791
31.80000 4.039
31.82000 9.309
31.84000 4.649
31.86000 -2.834
31.88000 3.919
31.90000 6.419
31.92000 6.853
31.94000 5.821
31.96000 4.625
31.98000 3.822
32.00000 -0.953
32.02000 0.640
32.04000 3.870
32.06000 6.335
32.08000 3.171
32.10000 0.671
32.12000 3.627
32.14000 5.094
32.16000 3.084
32.18000 1.672
32.20000 -0.304
32.22000 0.099
32.24000 0.663
32.26000 -1.408
32.28000 1.064
32.30000 4.348
32.32000 8.524
32.34000 6.904
32.36000 2.548
32.38000 -1.192
32.40000 -3.582
32.42000 3.216
32.44000 4.512
32.46000 2.784
32.48000 -0.358
32.50000 -0.788
32.52000 2.611
32.54000 5.154
32.56000 8.030
32.58000 3.277
32.60000 5.066
32.62000 4.895
32.64000 1.630
32.66000 -3.587
32.68000 -0.420
32.70000 6.490
32.72000 9.277
32.74000 8.483
32.76000 6.316
32.78000 5.004
32.80000 4.558
32.82000 4.171
32.84000 4.086
32.86000 1.394
32.88000 4.817
32.90000 2.898
32.92000 2.664
32.94000 1.107
32.96000 2.730
32.98000 1.432
33.00000 3.009
33.02000 -0.337
33.04000 -3.433
33.06000 -1.729
33.08000 3.681
33.10000 4.071
33.12000 1.495
33.14000 -2.801
33.16000 -0.655
33.18000 7.956
33.20000 7.223
33.22000 2.849
33.24000 2.078
33.26000 2.550
33.28000 4.945
33.30000 5.257
33.32000 9.758
33.34000 1.471
33.36000 0.463
33.38000 2.873
33.40000 1.841
33.42000 4.528
33.44000 3.751
33.46000 4.430
33.48000 2.583
33.50000 6.341
33.52000 6.054
33.54000 3.897
33.56000 0.503
33.58000 2.704
33.60000 6.845
33.62000 -1.004
33.64000 0.500
33.66000 3.815
33.68000 2.206
33.70000 2.880
33.72000 4.011
33.74000 3.689
33.76000 5.219
33.78000 4.796
33.80000 0.333
33.82000 -3.593
33.84000 0.829
33.86000 3.677
33.88000 6.586
33.90000 4.101
33.92000 6.549
33.94000 6.375
33.96000 7.276
33.98000 2.067
34.00000 1.939
34.02000 4.813
34.04000 5.975
34.06000 5.602
34.08000 2.237
34.10000 4.188
34.12000 7.116
34.14000 6.411
34.16000 0.310
34.18000 2.270
34.20000 2.910
34.22000 0.799
34.24000 1.515
34.26000 0.778
34.28000 2.226
34.30000 6.563
34.32000 2.519
34.34000 1.686
34.36000 -0.249
34.38000 0.047
34.40000 1.110
34.42000 3.626
34.44000 -1.306
34.46000 0.667
34.48000 5.534
34.50000 6.157
34.52000 3.456
34.54000 3.532
34.56000 -3.569
34.58000 1.126
34.60000 6.058
34.62000 3.790
34.64000 -2.333
34.66000 1.749
34.68000 -0.228
34.70000 0.531
34.72000 5.512
34.74000 1.123
34.76000 -0.653
34.78000 -1.117
34.80000 0.763
34.82000 2.892
34.84000 2.634
34.86000 2.073
34.88000 -1.325
34.90000 0.517
34.92000 -1.338
34.94000 -1.150
34.96000 -1.028
34.98000 -0.005
35.00000 1.877
35.02000 1.932
35.04000 3.378
35.06000 2.764
35.08000 4.512
35.10000 6.976
35.12000 3.941
35.14000 1.733
35.16000 -0.933
35.18000 0.468
35.20000 1.509
35.22000 3.093
35.24000 6.896
35.26000 8.751
35.28000 3.142
35.30000 3.714
35.32000 3.156
35.34000 3.177
35.36000 4.866
35.38000 4.445
35.40000 4.882
35.42000 7.030
35.44000 2.816
35.46000 2.775
35.48000 -3.164
35.50000 -0.581
35.52000 2.200
35.54000 0.489
35.56000 -3.497
35.58000 3.151
35.60000 5.030
35.62000 3.762
35.64000 7.149
35.66000 10.181
35.68000 4.858
35.70000 3.847
35.72000 5.212
35.74000 3.335
35.76000 0.603
35.78000 4.645
35.80000 7.817
35.82000 4.109
35.84000 2.931
35.86000 6.043
35.88000 5.992
35.90000 4.959
35.92000 5.736
35.94000 5.296
35.96000 2.044
35.98000 2.350
36.00000 2.937
36.02000 5.787
36.04000 7.627
36.06000 2.562
36.08000 3.506
36.10000 4.398
36.12000 4.098
36.14000 -0.520
36.16000 -2.285
36.18000 2.862
36.20000 4.776
36.22000 5.857
36.24000 1.145
36.26000 -0.516
36.28000 -1.858
36.30000 0.248
36.32000 -2.006
36.34000 -1.135
36.36000 4.180
36.38000 0.715
36.40000 -3.250
36.42000 -1.053
36.44000 -0.262
36.46000 -1.663
36.48000 -1.360
36.50000 1.317
36.52000 1.781
36.54000 2.465
36.56000 5.880
36.58000 2.732
36.60000 -0.988
36.62000 -2.953
36.64000 -1.169
36.66000 0.957
36.68000 -2.664
36.70000 -1.196
36.72000 0.821
36.74000 2.248
36.76000 -0.567
36.78000 -2.599
36.80000 -1.079
36.82000 -2.520
36.84000 -3.568
36.86000 -1.023
36.88000 3.073
36.90000 2.557
36.92000 -0.037
36.94000 2.738
36.96000 4.215
36.98000 2.402
37.00000 0.497
37.02000 -0.210
37.04000 0.622
37.06000 2.384
37.08000 -1.367
37.10000 -2.552
37.12000 2.898
37.14000 -0.286
37.16000 -0.495
37.18000 -1.856
37.20000 2.826
37.22000 -0.667
37.24000 -1.701
37.26000 3.677
37.28000 1.864
37.30000 2.088
37.32000 -0.607
37.34000 3.327
37.36000 -1.301
37.38000 0.691
37.40000 4.757
37.42000 4.237
37.44000 4.135
37.46000 5.009
37.48000 2.174
37.50000 -3.590
37.52000 -3.512
37.54000 0.743
37.56000 -1.542
37.58000 1.434
37.60000 2.135
37.62000 2.646
37.64000 4.167
37.66000 4.912
37.68000 4.176
37.70000 10.082
37.72000 8.772
37.74000 4.834
37.76000 2.091
37.78000 -0.517
37.80000 0.401
37.82000 -1.489
37.84000 -0.451
37.86000 2.213
37.88000 3.498
37.90000 7.285
37.92000 6.556
37.94000 6.883
37.96000 4.440
37.98000 3.561
38.00000 5.930
38.02000 7.585
38.04000 8.506
38.06000 7.210
38.08000 5.273
38.10000 12.163
38.12000 8.108
38.14000 6.325
38.16000 4.974
38.18000 6.354
38.20000 9.314
38.22000 12.301
38.24000 10.729
38.26000 10.076
38.28000 10.399
38.30000 4.093
38.32000 8.174
38.34000 15.597
38.36000 14.552
38.38000 17.512
38.40000 16.451
38.42000 18.150
38.44000 16.473
38.46000 16.287
38.48000 16.773
38.50000 15.639
38.52000 17.514
38.54000 19.789
38.56000 18.246
38.58000 20.229
38.60000 22.859
38.62000 18.265
38.64000 18.584
38.66000 22.665
38.68000 22.481
38.70000 20.729
38.72000 22.741
38.74000 24.819
38.76000 18.708
38.78000 18.951
38.80000 30.081
38.82000 31.139
38.84000 26.949
38.86000 27.156
38.88000 29.049
38.90000 25.383
38.92000 25.778
38.94000 29.391
38.96000 32.166
38.98000 34.606
39.00000 31.608
39.02000 29.665
39.04000 29.504
39.06000 35.960
39.08000 33.646
39.10000 34.757
39.12000 36.521
39.14000 35.209
39.16000 42.811
39.18000 42.641
39.20000 39.144
39.22000 43.589
39.24000 44.383
39.26000 46.236
39.28000 48.355
39.30000 51.466
39.32000 54.646
39.34000 51.967
39.36000 54.046
39.38000 58.619
39.40000 59.049
39.42000 63.365
39.44000 64.300
39.46000 70.564
39.48000 73.024
39.50000 66.636
39.52000 71.205
39.54000 79.630
39.56000 84.578
39.58000 84.651
39.60000 89.138
39.62000 88.537
39.64000 90.484
39.66000 102.662
39.68000 108.892
39.70000 110.103
39.72000 115.044
39.74000 119.945
39.76000 126.352
39.78000 139.615
39.80000 140.187
39.82000 142.092
39.84000 147.775
39.86000 162.400
39.88000 167.345
39.90000 175.060
39.92000 184.581
39.94000 189.931
39.96000 205.284
39.98000 219.107
40.00000 221.849
40.02000 235.676
40.04000 246.171
40.06000 257.458
40.08000 272.602
40.10000 285.376
40.12000 298.207
40.14000 306.645
40.16000 314.488
40.18000 325.107
40.20000 349.823
40.22000 366.418
40.24000 382.431
40.26000 397.550
40.28000 409.032
40.30000 431.952
40.32000 451.549
40.34000 471.976
40.36000 486.604
40.38000 498.779
40.40000 513.582
40.42000 530.251
40.44000 554.611
40.46000 564.867
40.48000 581.920
40.50000 598.383
40.52000 616.437
40.54000 622.979
40.56000 621.317
40.58000 629.615
40.60000 656.265
40.62000 661.239
40.64000 668.558
40.66000 660.262
40.68000 660.279
40.70000 666.901
40.72000 665.004
40.74000 658.841
40.76000 645.573
40.78000 644.114
40.80000 639.325
40.82000 630.884
40.84000 606.502
40.86000 595.269
40.88000 588.286
40.90000 578.756
40.92000 560.494
40.94000 538.545
40.96000 508.480
40.98000 503.321
41.00000 506.224
41.02000 479.703
41.04000 455.294
41.06000 435.738
41.08000 422.767
41.10000 398.919
41.12000 382.195
41.14000 367.856
41.16000 353.752
41.18000 335.893
41.20000 327.400
41.22000 316.657
41.24000 299.575
41.26000 276.609
41.28000 256.312
41.30000 249.149
41.32000 232.920
41.34000 220.866
41.36000 209.230
41.38000 198.886
41.40000 197.368
41.42000 183.353
41.44000 174.409
41.46000 162.167
41.48000 152.675
41.50000 148.927
41.52000 140.832
41.54000 130.847
41.56000 124.333
41.58000 120.099
41.60000 110.625
41.62000 109.083
41.64000 95.178
41.66000 88.558
41.68000 89.198
41.70000 86.817
41.72000 91.648
41.74000 86.785
41.76000 75.153
41.78000 68.161
41.80000 67.836
41.82000 61.297
41.84000 58.612
41.86000 56.880
41.88000 56.508
41.90000 50.895
41.92000 47.799
41.94000 42.781
41.96000 40.565
41.98000 44.488
42.00000 44.525
42.02000 39.194
42.04000 47.025
42.06000 40.782
42.08000 38.871
42.10000 33.888
42.12000 29.939
42.14000 29.964
42.16000 26.124
42.18000 23.304
42.20000 20.116
42.22000 21.506
42.24000 19.242
42.26000 19.781
42.28000 25.006
42.30000 24.693
42.32000 25.245
42.34000 17.242
42.36000 16.743
42.38000 17.564
42.40000 13.212
42.42000 11.796
42.44000 12.310
42.46000 14.030
42.48000 15.366
42.50000 14.844
42.52000 16.802
42.54000 16.391
42.56000 10.267
42.58000 11.220
42.60000 8.713
42.62000 8.019
42.64000 8.682
42.66000 9.914
42.68000 11.958
42.70000 9.228
42.72000 6.333
42.74000 9.526
42.76000 9.419
42.78000 6.653
42.80000 4.880
42.82000 6.449
42.84000 7.646
42.86000 5.843
42.88000 5.619
42.90000 6.241
42.92000 8.768
42.94000 9.492
42.96000 9.768
42.98000 3.353
43.00000 2.889
43.02000 2.761
43.04000 7.078
43.06000 9.802
43.08000 7.258
43.10000 8.461
43.12000 4.096
43.14000 1.865
43.16000 0.236
43.18000 -0.015
43.20000 -1.392
43.22000 -3.599
43.24000 3.734
43.26000 2.542
43.28000 3.933
43.30000 5.657
43.32000 8.278
43.34000 1.774
43.36000 1.947
43.38000 -1.547
43.40000 -1.143
43.42000 2.135
43.44000 5.821
43.46000 1.679
43.48000 3.885
43.50000 3.875
43.52000 1.324
43.54000 1.435
43.56000 1.540
43.58000 4.103
43.60000 2.859
43.62000 -1.210
43.64000 -0.368
43.66000 -0.195
43.68000 2.715
43.70000 4.963
43.72000 -0.004
43.74000 1.311
43.76000 3.754
43.78000 1.710
43.80000 3.725
43.82000 1.880
43.84000 -0.294
43.86000 1.404
43.88000 1.827
43.90000 0.194
43.92000 -3.538
43.94000 -1.960
43.96000 1.779
43.98000 2.236
44.00000 6.083
44.02000 5.428
44.04000 0.686
44.06000 1.463
44.08000 1.257
44.10000 2.593
44.12000 -2.660
44.14000 -2.167
44.16000 2.144
44.18000 5.116
44.20000 -3.296
44.22000 -2.224
44.24000 4.532
44.26000 5.719
44.28000 5.575
44.30000 4.322
44.32000 2.726
44.34000 -1.517
44.36000 -1.118
44.38000 6.608
44.40000 2.890
44.42000 2.419
44.44000 -0.318
44.46000 -3.528
44.48000 1.067
44.50000 1.877
44.52000 3.443
44.54000 -0.505
44.56000 -1.777
44.58000 -0.513
44.60000 1.082
44.62000 2.228
44.64000 -0.184
44.66000 -1.674
44.68000 3.486
44.70000 4.574
44.72000 7.415
44.74000 8.227
44.76000 2.774
44.78000 2.202
44.80000 3.495
44.82000 6.356
44.84000 3.092
44.86000 5.810
44.88000 5.729
44.90000 5.563
44.92000 8.450
44.94000 3.971
44.96000 1.469
44.98000 5.061
45.00000 1.981
45.02000 1.555
45.04000 4.997
45.06000 2.822
45.08000 -3.527
45.10000 5.282
45.12000 3.980
45.14000 3.885
45.16000 0.407
45.18000 1.061
45.20000 6.769
45.22000 5.812
45.24000 7.047
45.26000 6.190
45.28000 10.061
45.30000 8.802
45.32000 3.714
45.34000 1.774
45.36000 5.749
45.38000 5.335
45.40000 1.429
45.42000 1.853
45.44000 10.522
45.46000 12.423
45.48000 8.250
45.50000 9.303
45.52000 5.868
45.54000 11.953
45.56000 10.079
45.58000 7.547
45.60000 7.331
45.62000 14.254
45.64000 11.520
45.66000 7.818
45.68000 9.446
45.70000 14.120
45.72000 12.473
45.74000 13.547
45.76000 7.478
45.78000 7.632
45.80000 8.961
45.82000 14.588
45.84000 14.917
45.86000 11.745
45.88000 10.867
45.90000 13.341
45.92000 14.737
45.94000 19.009
45.96000 18.402
45.98000 21.065
46.00000 18.491
46.02000 19.321
46.04000 19.031
46.06000 18.621
46.08000 10.151
46.10000 15.317
46.12000 17.586
46.14000 25.145
46.16000 30.453
46.18000 26.074
46.20000 26.067
46.22000 27.038
46.24000 28.038
46.26000 29.304
46.28000 37.561
46.30000 33.062
46.32000 38.015
46.34000 34.030
46.36000 32.291
46.38000 35.251
46.40000 37.974
46.42000 43.267
46.44000 38.132
46.46000 36.970
46.48000 37.737
46.50000 42.259
46.52000 40.826
46.54000 49.128
46.56000 47.621
46.58000 48.068
46.60000 52.541
46.62000 54.603
46.64000 52.626
46.66000 54.037
46.68000 59.429
46.70000 58.049
46.72000 50.494
46.74000 51.866
46.76000 59.012
46.78000 65.429
46.80000 58.652
46.82000 55.274
46.84000 58.714
46.86000 63.840
46.88000 60.962
46.90000 69.176
46.92000 74.098
46.94000 72.184
46.96000 72.693
46.98000 70.416
47.00000 69.004
47.02000 67.833
47.04000 76.817
47.06000 79.020
47.08000 76.078
47.10000 77.116
47.12000 75.950
47.14000 79.443
47.16000 77.401
47.18000 76.826
47.20000 75.025
47.22000 74.313
47.24000 72.111
47.26000 70.978
47.28000 72.484
47.30000 71.149
47.32000 79.825
47.34000 81.355
47.36000 87.448
47.38000 91.726
47.40000 83.087
47.42000 75.962
47.44000 70.766
47.46000 70.384
47.48000 72.212
47.50000 72.767
47.52000 75.476
47.54000 69.200
47.56000 60.918
47.58000 69.810
47.60000 69.327
47.62000 63.156
47.64000 58.104
47.66000 54.483
47.68000 57.604
47.70000 57.140
47.72000 53.253
47.74000 58.239
47.76000 51.475
47.78000 55.515
47.80000 60.103
47.82000 55.262
47.84000 48.186
47.86000 44.171
47.88000 50.828
47.90000 57.871
47.92000 53.714
47.94000 37.707
47.96000 35.521
47.98000 36.216
48.00000 38.253
48.02000 35.882
48.04000 32.375
48.06000 29.502
48.08000 29.504
48.10000 36.938
48.12000 32.269
48.14000 26.203
48.16000 26.788
48.18000 23.605
48.20000 24.659
48.22000 27.197
48.24000 25.040
48.26000 21.828
48.28000 22.191
48.30000 15.054
48.32000 12.337
48.34000 18.124
48.36000 20.459
48.38000 19.582
48.40000 21.152
48.42000 17.821
48.44000 16.767
48.46000 15.611
48.48000 14.452
48.50000 13.231
48.52000 11.990
48.54000 7.421
48.56000 7.127
48.58000 13.257
48.60000 14.704
48.62000 16.086
48.64000 9.590
48.66000 7.121
48.68000 6.549
48.70000 5.796
48.72000 10.380
48.74000 5.257
48.76000 4.106
48.78000 2.812
48.80000 2.056
48.82000 -0.570
48.84000 0.599
48.86000 2.657
48.88000 7.461
48.90000 4.107
48.92000 2.445
48.94000 1.818
48.96000 -0.705
48.98000 -0.533
49.00000 0.061
49.02000 -0.062
49.04000 1.849
49.06000 0.944
49.08000 -3.210
49.10000 0.069
49.12000 2.533
49.14000 4.700
49.16000 0.196
49.18000 0.297
49.20000 5.195
49.22000 3.345
49.24000 0.882
49.26000 2.089
49.28000 -0.433
49.30000 0.721
49.32000 4.181
49.34000 0.835
49.36000 1.230
49.38000 2.052
49.40000 6.151
49.42000 1.268
49.44000 -1.817
49.46000 0.229
49.48000 0.441
49.50000 -2.788
49.52000 -0.536
49.54000 1.270
49.56000 -2.437
49.58000 -1.629
49.60000 0.452
49.62000 1.510
49.64000 -0.387
49.66000 1.293
49.68000 2.363
49.70000 1.509
49.72000 -1.190
49.74000 -2.428
49.76000 1.061
49.78000 0.227
49.80000 1.448
49.82000 -1.296
49.84000 -1.654
49.86000 -1.645
49.88000 -0.742
49.90000 -1.845
49.92000 -0.459
49.94000 1.065
49.96000 0.687
49.98000 -2.502
50.00000 1.190
50.02000 2.125
50.04000 0.363
50.06000 3.926
50.08000 5.852
50.10000 7.107
50.12000 -0.603
50.14000 -3.102
50.16000 3.976
50.18000 5.783
50.20000 1.844
50.22000 -2.542
50.24000 0.592
50.26000 5.773
50.28000 8.883
50.30000 2.700
50.32000 0.443
50.34000 3.934
50.36000 3.322
50.38000 -2.551
50.40000 0.757
50.42000 -0.126
50.44000 0.206
50.46000 -1.763
50.48000 1.555
50.50000 2.418
50.52000 4.600
50.54000 0.071
50.56000 -3.075
50.58000 2.329
50.60000 7.054
50.62000 4.716
50.64000 6.896
50.66000 1.966
50.68000 1.820
50.70000 6.210
50.72000 2.896
50.74000 2.611
50.76000 -1.062
50.78000 -2.303
50.80000 2.966
50.82000 4.496
50.84000 4.473
50.86000 3.215
50.88000 2.588
50.90000 -2.316
50.92000 -0.976
50.94000 0.588
50.96000 4.676
50.98000 5.280
51.00000 2.428
51.02000 4.224
51.04000 6.372
51.06000 0.159
51.08000 -0.968
51.10000 1.753
51.12000 2.909
51.14000 4.359
51.16000 4.073
51.18000 4.379
51.20000 4.761
51.22000 3.323
51.24000 4.835
51.26000 7.478
51.28000 2.035
51.30000 -3.021
51.32000 -0.147
51.34000 -1.532
51.36000 1.548
51.38000 4.967
51.40000 4.570
51.42000 4.665
51.44000 6.028
51.46000 7.402
51.48000 3.673
51.50000 0.629
51.52000 5.740
51.54000 4.246
51.56000 2.043
51.58000 2.507
51.60000 7.126
51.62000 5.510
51.64000 6.542
51.66000 6.514
51.68000 3.798
51.70000 4.524
51.72000 -0.386
51.74000 2.546
51.76000 4.851
51.78000 6.272
51.80000 3.992
51.82000 8.104
51.84000 10.015
51.86000 6.942
51.88000 3.152
51.90000 6.812
51.92000 7.385
51.94000 0.199
51.96000 -1.314
51.98000 -0.183
52.00000 1.993
52.02000 4.038
52.04000 5.532
52.06000 3.585
52.08000 2.041
52.10000 -2.986
52.12000 -0.270
52.14000 0.158
52.16000 0.925
52.18000 7.864
52.20000 3.398
52.22000 0.768
52.24000 3.780
52.26000 1.247
52.28000 6.090
52.30000 2.943
52.32000 4.924
52.34000 6.812
52.36000 1.227
52.38000 4.629
52.40000 0.868
52.42000 -1.654
52.44000 -0.110
52.46000 1.329
52.48000 2.339
52.50000 5.222
52.52000 3.734
52.54000 2.399
52.56000 -0.118
52.58000 -2.887
52.60000 0.660
52.62000 3.386
52.64000 2.543
52.66000 1.209
52.68000 -1.119
52.70000 3.261
52.72000 3.906
52.74000 4.843
52.76000 1.245
52.78000 3.550
52.80000 3.891
52.82000 2.619
52.84000 6.320
52.86000 7.152
52.88000 1.336
52.90000 2.399
52.92000 -1.584
52.94000 0.870
52.96000 3.082
52.98000 -0.644
53.00000 1.193
53.02000 6.473
53.04000 1.493
53.06000 -0.673
53.08000 1.182
53.10000 2.639
53.12000 4.408
53.14000 5.164
53.16000 5.257
53.18000 4.810
53.20000 6.972
53.22000 2.978
53.24000 2.390
53.26000 -1.447
53.28000 3.218
53.30000 3.880
53.32000 1.684
53.34000 3.220
53.36000 5.708
53.38000 5.729
53.40000 4.281
53.42000 4.584
53.44000 3.404
53.46000 4.586
53.48000 3.581
53.50000 2.667
53.52000 4.049
53.54000 2.588
53.56000 -2.086
53.58000 -0.188
53.60000 -0.242
53.62000 8.516
53.64000 7.704
53.66000 4.059
53.68000 4.521
53.70000 2.710
53.72000 2.773
53.74000 5.758
53.76000 1.377
53.78000 5.018
53.80000 5.250
53.82000 -1.075
53.84000 3.283
53.86000 2.595
53.88000 5.729
53.90000 3.805
53.92000 -2.891
53.94000 -1.322
53.96000 -1.579
53.98000 0.870
54.00000 8.279
54.02000 7.729
54.04000 3.697
54.06000 5.779
54.08000 5.897
54.10000 6.697
54.12000 2.515
54.14000 1.650
54.16000 3.212
54.18000 9.101
54.20000 7.102
54.22000 6.717
54.24000 3.303
54.26000 0.600
54.28000 3.636
54.30000 3.055
54.32000 2.102
54.34000 2.702
54.36000 3.737
54.38000 3.234
54.40000 1.536
54.42000 7.639
54.44000 7.455
54.46000 7.301
54.48000 4.672
54.50000 7.143
54.52000 5.529
54.54000 -2.857
54.56000 -1.974
54.58000 1.864
54.60000 6.978
54.62000 4.371
54.64000 4.695
54.66000 4.638
54.68000 6.693
54.70000 5.556
54.72000 -0.791
54.74000 0.415
54.76000 7.210
54.78000 5.311
54.80000 2.481
54.82000 1.945
54.84000 3.767
54.86000 0.368
54.88000 1.668
54.90000 6.814
54.92000 3.491
54.94000 4.527
54.96000 7.638
54.98000 5.008
55.00000 5.442
55.02000 3.507
55.04000 0.699
55.06000 -0.085
55.08000 6.278
55.10000 6.031
55.12000 2.529
55.14000 7.700
55.16000 0.934
55.18000 2.584
55.20000 9.631
55.22000 8.129
55.24000 2.375
55.26000 5.531
55.28000 5.148
55.30000 3.378
55.32000 0.945
55.34000 1.765
55.36000 1.262
55.38000 1.945
55.40000 3.480
55.42000 4.912
55.44000 8.177
55.46000 6.415
55.48000 6.130
55.50000 1.076
55.52000 8.845
55.54000 1.854
55.56000 -1.775
55.58000 4.134
55.60000 4.321
55.62000 2.876
55.64000 6.486
55.66000 2.874
55.68000 2.919
55.70000 7.727
55.72000 6.140
55.74000 1.409
55.76000 3.437
55.78000 6.262
55.80000 10.736
55.82000 10.695
55.84000 7.300
55.86000 3.308
55.88000 2.060
55.90000 8.381
55.92000 0.227
55.94000 4.574
55.96000 3.502
55.98000 -0.913
56.00000 4.565
56.02000 6.961
56.04000 8.238
56.06000 4.990
56.08000 0.933
56.10000 3.393
56.12000 4.233
56.14000 2.808
56.16000 -0.976
56.18000 0.761
56.20000 -0.827
56.22000 5.134
56.24000 3.769
56.26000 2.471
56.28000 -2.837
56.30000 -1.034
56.32000 -1.782
56.34000 3.399
56.36000 7.055
56.38000 7.622
56.40000 7.516
56.42000 5.417
56.44000 4.522
56.46000 3.222
56.48000 8.730
56.50000 6.643
56.52000 1.132
56.54000 3.028
56.56000 5.874
56.58000 3.014
56.60000 -2.825
56.62000 2.474
56.64000 5.800
56.66000 3.982
56.68000 5.262
56.70000 -1.096
56.72000 1.160
56.74000 4.880
56.76000 2.933
56.78000 0.663
56.80000 5.897
56.82000 -0.316
56.84000 3.275
56.86000 5.199
56.88000 10.031
56.90000 4.436
56.92000 2.059
56.94000 0.374
56.96000 0.252
56.98000 3.882
57.00000 5.434
57.02000 12.539
57.04000 4.530
57.06000 2.002
57.08000 4.178
57.10000 2.512
57.12000 2.157
57.14000 6.202
57.16000 6.621
57.18000 5.056
57.20000 1.440
57.22000 -0.900
57.24000 -0.093
57.26000 5.647
57.28000 5.953
57.30000 3.586
57.32000 3.492
57.34000 8.590
57.36000 5.453
57.38000 1.437
57.40000 2.534
57.42000 5.086
57.44000 2.142
57.46000 0.968
57.48000 5.549
57.50000 4.899
57.52000 5.686
57.54000 1.755
57.56000 4.982
57.58000 9.618
57.60000 8.293
57.62000 5.731
57.64000 3.497
57.66000 1.283
57.68000 4.334
57.70000 4.372
57.72000 5.497
57.74000 7.214
57.76000 5.592
57.78000 3.276
57.80000 1.290
57.82000 0.919
57.84000 -0.881
57.86000 -1.465
57.88000 0.044
57.90000 0.087
57.92000 -2.741
57.94000 2.564
57.96000 2.304
57.98000 5.742
58.00000 1.701
58.02000 3.160
58.04000 6.732
58.06000 6.300
58.08000 4.412
58.10000 1.150
58.12000 1.080
58.14000 0.855
58.16000 -0.425
58.18000 -0.919
58.20000 6.639
58.22000 0.796
58.24000 -0.569
58.26000 2.476
58.28000 2.796
58.30000 7.034
58.32000 6.707
58.34000 3.841
58.36000 5.035
58.38000 4.218
58.40000 4.817
58.42000 1.907
58.44000 3.158
58.46000 -1.486
58.48000 0.640
58.50000 4.548
58.52000 1.992
58.54000 4.634
58.56000 8.269
58.58000 5.652
58.60000 5.023
58.62000 1.698
58.64000 6.771
58.66000 4.197
58.68000 0.450
58.70000 -2.502
58.72000 3.321
58.74000 9.270
58.76000 11.984
58.78000 7.174
58.80000 7.108
58.82000 8.354
58.84000 2.966
58.86000 -0.488
58.88000 2.542
58.90000 3.648
58.92000 2.148
58.94000 3.073
58.96000 2.664
58.98000 0.894
59.00000 5.796
59.02000 4.103
59.04000 2.485
59.06000 4.115
59.08000 5.055
59.10000 2.827
59.12000 1.452
59.14000 2.341
59.16000 1.840
59.18000 3.179
59.20000 5.333
59.22000 1.545
59.24000 2.257
59.26000 5.207
59.28000 7.347
59.30000 4.520
59.32000 5.599
59.34000 9.404
59.36000 8.227
59.38000 3.737
59.40000 4.847
59.42000 2.302
59.44000 0.078
59.46000 3.053
59.48000 4.522
59.50000 6.808
59.52000 6.242
59.54000 4.701
59.56000 5.584
59.58000 2.674
59.60000 4.109
59.62000 7.338
59.64000 2.742
59.66000 -2.712
59.68000 2.560
59.70000 2.418
59.72000 2.541
59.74000 5.603
59.76000 6.612
59.78000 6.948
59.80000 7.628
59.82000 5.172
59.84000 3.704
59.86000 4.475
59.88000 4.697
59.90000 3.372
59.92000 2.916
59.94000 3.596
59.96000 4.803
59.98000 6.124
60.00000 5.681
60.02000 -2.681
60.04000 0.587
60.06000 2.502
60.08000 4.497
60.10000 11.151
60.12000 6.281
60.14000 6.664
60.16000 7.381
60.18000 1.453
60.20000 4.244
60.22000 2.855
60.24000 4.515
60.26000 1.713
60.28000 6.649
60.30000 12.777
60.32000 7.533
60.34000 0.874
60.36000 1.836
60.38000 1.419
60.40000 2.842
60.42000 1.719
60.44000 1.606
60.46000 0.383
60.48000 3.761
60.50000 3.560
60.52000 8.589
60.54000 9.172
60.56000 6.932
60.58000 10.067
60.60000 7.218
60.62000 4.374
60.64000 -0.026
60.66000 1.537
60.68000 2.147
60.70000 1.798
60.72000 2.422
60.74000 1.232
60.76000 4.708
60.78000 4.426
60.80000 3.126
60.82000 -2.665
60.84000 -0.304
60.86000 4.227
60.88000 8.355
60.90000 5.031
60.92000 3.057
60.94000 6.851
60.96000 8.919
60.98000 6.670
61.00000 2.840
61.02000 2.541
61.04000 2.282
61.06000 8.848
61.08000 5.032
61.10000 1.304
61.12000 4.121
61.14000 2.629
61.16000 4.927
61.18000 7.141
61.20000 3.840
61.22000 4.348
61.24000 0.799
61.26000 5.660
61.28000 8.327
61.30000 11.909
61.32000 8.620
61.34000 4.567
61.36000 7.180
61.38000 2.360
61.40000 5.289
61.42000 -2.649
61.44000 -1.390
61.46000 -1.976
61.48000 0.929
61.50000 4.994
61.52000 4.760
61.54000 2.322
61.56000 2.126
61.58000 1.886
61.60000 5.108
61.62000 2.726
61.64000 3.996
61.66000 7.371
61.68000 3.989
61.70000 2.905
61.72000 4.322
61.74000 1.384
61.76000 -1.736
61.78000 -2.221
61.80000 2.745
61.82000 7.589
61.84000 3.710
61.86000 1.252
61.88000 3.478
61.90000 5.054
61.92000 1.328
61.94000 2.222
61.96000 4.184
61.98000 0.887
62.00000 -1.862
62.02000 -0.261
62.04000 3.876
62.06000 5.744
62.08000 0.964
62.10000 3.931
62.12000 3.307
62.14000 4.133
62.16000 1.628
62.18000 0.016
62.20000 2.476
62.22000 5.214
62.24000 6.475
62.26000 6.700
62.28000 3.668
62.30000 0.919
62.32000 1.851
62.34000 4.693
62.36000 5.211
62.38000 7.746
62.40000 5.209
62.42000 9.686
62.44000 4.137
62.46000 6.271
62.48000 3.576
62.50000 6.768
62.52000 6.163
62.54000 8.066
62.56000 8.335
62.58000 1.752
62.60000 -2.635
62.62000 0.678
62.64000 0.524
62.66000 0.737
62.68000 0.766
62.70000 1.447
62.72000 3.853
62.74000 6.236
62.76000 9.277
62.78000 5.579
62.80000 3.253
62.82000 7.576
62.84000 9.124
62.86000 3.779
62.88000 0.471
62.90000 2.662
62.92000 5.845
62.94000 2.828
62.96000 2.751
62.98000 4.964
63.00000 -0.692
63.02000 1.264
63.04000 3.175
63.06000 6.499
63.08000 3.019
63.10000 1.833
63.12000 2.694
63.14000 2.296
63.16000 0.905
63.18000 3.141
63.20000 -1.430
63.22000 -2.638
63.24000 3.683
63.26000 6.365
63.28000 0.977
63.30000 7.456
63.32000 8.125
63.34000 1.869
63.36000 -1.722
63.38000 -2.202
63.40000 -2.441
63.42000 0.188
63.44000 2.161
63.46000 -0.378
63.48000 -0.986
63.50000 2.583
63.52000 2.250
63.54000 2.577
63.56000 0.852
63.58000 -0.837
63.60000 3.010
63.62000 -0.102
63.64000 2.999
63.66000 2.573
63.68000 5.341
63.70000 2.061
63.72000 3.571
63.74000 -0.147
63.76000 1.608
63.78000 1.037
63.80000 1.092
63.82000 4.980
63.84000 2.591
63.86000 3.419
63.88000 4.827
63.90000 2.517
63.92000 3.453
63.94000 0.630
63.96000 1.694
63.98000 0.240
64.00000 -2.644
64.02000 4.105
64.04000 5.602
64.06000 5.008
64.08000 3.890
64.10000 2.058
64.12000 1.970
64.14000 2.755
64.16000 4.411
64.18000 3.472
64.20000 1.068
64.22000 -0.316
64.24000 1.744
64.26000 5.955
64.28000 1.669
64.30000 0.851
64.32000 3.001
64.34000 4.171
64.36000 3.938
64.38000 4.587
64.40000 0.354
64.42000 2.686
64.44000 3.095
64.46000 2.872
64.48000 1.301
64.50000 -0.556
64.52000 1.487
64.54000 0.025
64.56000 4.022
64.58000 5.955
64.60000 3.140
64.62000 2.131
64.64000 -0.932
64.66000 3.396
64.68000 1.558
64.70000 3.661
64.72000 3.649
64.74000 -0.795
64.76000 0.417
64.78000 2.085
64.80000 6.459
64.82000 4.134
64.84000 3.875
64.86000 4.205
64.88000 0.568
64.90000 2.383
64.92000 2.587
64.94000 5.400
64.96000 5.088
64.98000 2.081
65.00000 0.326
65.02000 0.146
65.04000 -1.402
65.06000 -2.124
65.08000 -2.685
65.10000 0.615
65.12000 1.060
65.14000 4.947
65.16000 2.578
65.18000 -1.774
65.20000 -0.422
65.22000 2.489
65.24000 2.299
65.26000 3.227
65.28000 6.416
65.30000 1.644
65.32000 -0.276
65.34000 -0.153
65.36000 0.545
65.38000 -0.444
65.40000 0.243
65.42000 0.382
65.44000 1.163
65.46000 2.693
65.48000 0.500
65.50000 1.445
65.52000 1.545
65.54000 1.358
65.56000 0.123
65.58000 1.182
65.60000 2.116
65.62000 -0.876
65.64000 -0.402
65.66000 0.704
65.68000 -0.928
65.70000 -1.881
65.72000 -1.579
65.74000 3.923
65.76000 3.512
65.78000 0.592
65.80000 2.059
65.82000 3.421
65.84000 3.144
65.86000 1.773
65.88000 -2.672
65.90000 -0.627
65.92000 2.867
65.94000 2.615
65.96000 0.426
65.98000 0.400
66.00000 -1.684
66.02000 0.775
66.04000 2.022
66.06000 -0.356
66.08000 0.100
66.10000 2.197
66.12000 3.264
66.14000 4.137
66.16000 0.243
66.18000 -0.321
66.20000 -0.907
66.22000 -1.011
66.24000 -0.104
66.26000 -0.178
66.28000 -2.682
66.30000 0.317
66.32000 1.913
66.34000 0.865
66.36000 -1.002
66.38000 -0.693
66.40000 1.689
66.42000 1.047
66.44000 5.347
66.46000 4.505
66.48000 0.829
66.50000 1.939
66.52000 1.096
66.54000 0.171
66.56000 -1.108
66.58000 -0.390
66.60000 -1.589
66.62000 1.645
66.64000 -2.062
66.66000 0.018
66.68000 -0.445
66.70000 1.160
66.72000 4.518
66.74000 1.667
66.76000 0.057
66.78000 -0.756
66.80000 -0.627
66.82000 0.119
66.84000 1.052
66.86000 0.404
66.88000 -1.575
66.90000 -0.417
66.92000 2.062
66.94000 0.508
66.96000 -1.197
66.98000 3.368
67.00000 4.558
67.02000 3.209
67.04000 0.585
67.06000 -0.032
67.08000 -0.743
67.10000 -1.655
67.12000 0.424
67.14000 -2.737
67.16000 -1.350
67.18000 1.909
67.20000 3.994
67.22000 1.650
67.24000 -1.219
67.26000 2.409
67.28000 3.018
67.30000 1.416
67.32000 1.193
67.34000 -2.504
67.36000 -0.414
67.38000 4.454
67.40000 1.885
67.42000 2.007
67.44000 7.051
67.46000 3.470
67.48000 -1.133
67.50000 -2.512
67.52000 -1.574
67.54000 -2.759
67.56000 2.247
67.58000 3.172
67.60000 0.250
67.62000 -1.380
67.64000 -1.745
67.66000 4.085
67.68000 5.666
67.70000 1.505
67.72000 1.770
67.74000 1.996
67.76000 -0.039
67.78000 -2.768
67.80000 1.867
67.82000 2.389
67.84000 -2.113
67.86000 -1.799
67.88000 6.050
67.90000 5.142
67.92000 4.960
67.94000 3.505
67.96000 3.240
67.98000 4.543
68.00000 7.051
68.02000 9.698
68.04000 9.554
68.06000 8.659
68.08000 6.810
68.10000 9.474
68.12000 9.703
68.14000 6.506
68.16000 4.008
68.18000 8.542
68.20000 9.992
68.22000 11.169
68.24000 14.368
68.26000 11.080
68.28000 7.627
68.30000 10.569
68.32000 9.046
68.34000 13.404
68.36000 14.592
68.38000 15.223
68.40000 17.901
68.42000 18.448
68.44000 19.067
68.46000 15.840
68.48000 17.402
68.50000 20.647
68.52000 22.725
68.54000 18.832
68.56000 17.049
68.58000 19.304
68.60000 16.951
68.62000 21.690
68.64000 22.593
68.66000 19.931
68.68000 18.314
68.70000 23.114
68.72000 22.369
68.74000 22.127
68.76000 23.029
68.78000 25.986
68.80000 28.049
68.82000 29.986
68.84000 29.070
68.86000 30.093
68.88000 31.730
68.90000 37.701
68.92000 34.693
68.94000 32.122
68.96000 26.315
68.98000 25.236
69.00000 28.474
69.02000 32.339
69.04000 34.334
69.06000 35.461
69.08000 33.966
69.10000 35.844
69.12000 35.754
69.14000 27.822
69.16000 30.088
69.18000 31.575
69.20000 31.618
69.22000 30.615
69.24000 29.868
69.26000 30.451
69.28000 29.548
69.30000 30.796
69.32000 28.009
69.34000 29.362
69.36000 28.569
69.38000 31.638
69.40000 29.965
69.42000 27.572
69.44000 28.203
69.46000 33.031
69.48000 32.405
69.50000 27.502
69.52000 26.410
69.54000 20.744
69.56000 18.700
69.58000 21.021
69.60000 17.697
69.62000 22.303
69.64000 21.740
69.66000 21.572
69.68000 22.137
69.70000 18.711
69.72000 19.538
69.74000 19.445
69.76000 20.121
69.78000 19.580
69.80000 17.186
69.82000 19.607
69.84000 18.630
69.86000 10.833
69.88000 13.035
69.90000 10.615
69.92000 12.368
69.94000 10.930
69.96000 13.355
69.98000 10.138
70.00000 13.176
70.02000 10.833
70.04000 9.370
70.06000 11.696
70.08000 12.196
70.10000 6.354
70.12000 9.355
70.14000 10.186
70.16000 11.400
70.18000 14.390
70.20000 6.307
70.22000 6.014
70.24000 6.446
70.26000 6.574
70.28000 3.984
70.30000 2.693
70.32000 4.010
70.34000 7.758
70.36000 4.530
70.38000 -0.117
70.40000 1.581
70.42000 -0.139
70.44000 2.088
70.46000 5.442
70.48000 5.764
70.50000 5.487
70.52000 3.857
70.54000 4.612
70.56000 7.512
70.58000 4.004
70.60000 5.153
70.62000 7.905
70.64000 10.049
70.66000 4.569
70.68000 -2.063
70.70000 0.026
70.72000 4.131
70.74000 2.396
70.76000 1.831
70.78000 3.414
70.80000 5.869
70.82000 9.801
70.84000 8.411
70.86000 6.792
70.88000 6.193
70.90000 3.652
70.92000 2.152
70.94000 7.888
70.96000 8.941
70.98000 10.910
71.00000 5.826
71.02000 6.819
71.04000 8.322
71.06000 4.966
71.08000 2.362
71.10000 2.951
71.12000 7.483
71.14000 2.921
71.16000 -1.480
71.18000 -2.519
71.20000 4.231
71.22000 7.528
71.24000 3.316
71.26000 1.968
71.28000 5.095
71.30000 7.031
71.32000 8.114
71.34000 7.645
71.36000 7.098
71.38000 8.515
71.40000 6.564
71.42000 3.951
71.44000 2.994
71.46000 5.857
71.48000 2.658
71.50000 5.148
71.52000 4.555
71.54000 2.333
71.56000 1.159
71.58000 5.817
71.60000 5.915
71.62000 6.676
71.64000 9.697
71.66000 2.983
71.68000 2.600
71.70000 5.987
71.72000 6.276
71.74000 2.924
71.76000 8.213
71.78000 4.465
71.80000 5.927
71.82000 8.913
71.84000 4.163
71.86000 2.769
71.88000 3.222
71.90000 8.250
71.92000 4.983
71.94000 6.913
71.96000 4.346
71.98000 2.239
72.00000 1.311
72.02000 0.699
72.04000 0.510
72.06000 3.227
72.08000 7.379
72.10000 3.900
72.12000 5.206
72.14000 2.569
72.16000 2.447
72.18000 0.317
72.20000 0.900
72.22000 1.019
72.24000 5.737
72.26000 2.745
72.28000 -2.456
72.30000 3.308
72.32000 6.320
72.34000 8.735
72.36000 9.718
72.38000 5.096
72.40000 2.974
72.42000 3.327
72.44000 0.882
72.46000 2.935
72.48000 2.036
72.50000 0.059
72.52000 2.860
72.54000 8.046
72.56000 5.541
72.58000 4.572
72.60000 6.011
72.62000 4.049
72.64000 0.572
72.66000 0.971
72.68000 4.008
72.70000 7.887
72.72000 10.706
72.74000 8.966
72.76000 6.949
72.78000 4.639
72.80000 2.012
72.82000 -0.688
72.84000 2.565
72.86000 1.377
72.88000 0.966
72.90000 3.895
72.92000 4.125
72.94000 5.365
72.96000 3.214
72.98000 6.385
73.00000 4.009
73.02000 1.434
73.04000 1.287
73.06000 1.593
73.08000 8.114
73.10000 8.137
73.12000 9.309
73.14000 7.454
73.16000 4.900
73.18000 1.386
73.20000 -2.448
73.22000 1.169
73.24000 8.759
73.26000 5.745
73.28000 3.203
73.30000 4.855
73.32000 3.966
73.34000 2.476
73.36000 2.585
73.38000 -1.243
73.40000 -2.446
73.42000 2.973
73.44000 7.747
73.46000 4.880
73.48000 10.162
73.50000 6.328
73.52000 1.441
73.54000 2.134
73.56000 3.208
73.58000 2.460
73.60000 1.238
73.62000 -1.046
73.64000 3.936
73.66000 2.875
73.68000 2.107
73.70000 1.067
73.72000 -1.098
73.74000 -2.448
73.76000 0.609
73.78000 1.096
73.80000 5.558
73.82000 0.176
73.84000 4.413
73.86000 7.392
73.88000 5.063
73.90000 9.762
73.92000 3.796
73.94000 6.204
73.96000 5.680
73.98000 6.615
74.00000 3.632
74.02000 4.978
74.04000 8.718
74.06000 9.693
74.08000 5.002
74.10000 0.603
74.12000 1.347
74.14000 1.740
74.16000 3.042
74.18000 0.517
74.20000 2.517
74.22000 3.153
74.24000 4.672
74.26000 -1.769
74.28000 -1.017
74.30000 1.902
74.32000 0.388
74.34000 -0.606
74.36000 0.379
74.38000 2.395
74.40000 5.587
74.42000 4.900
74.44000 1.048
74.46000 2.254
74.48000 7.612
74.50000 2.613
74.52000 5.040
74.54000 5.218
74.56000 -0.300
74.58000 -1.128
74.60000 3.496
74.62000 3.666
74.64000 1.624
74.66000 -1.151
74.68000 -0.572
74.70000 -0.808
74.72000 3.574
74.74000 3.693
74.76000 2.672
74.78000 0.575
74.80000 5.699
74.82000 4.694
74.84000 0.654
74.86000 -2.424
74.88000 1.879
74.90000 -0.191
74.92000 1.107
74.94000 5.884
74.96000 5.205
74.98000 7.382
75.00000 6.130
75.02000 5.770
75.04000 3.687
75.06000 -0.734
75.08000 -1.473
75.10000 6.066
75.12000 3.993
75.14000 4.291
75.16000 4.786
75.18000 5.731
75.20000 6.085
75.22000 3.838
75.24000 5.264
75.26000 7.549
75.28000 6.837
75.30000 3.064
75.32000 6.129
75.34000 8.370
75.36000 10.599
75.38000 8.416
75.40000 4.063
75.42000 -2.436
75.44000 2.441
75.46000 5.866
75.48000 5.367
75.50000 -0.796
75.52000 -0.842
75.54000 2.109
75.56000 4.244
75.58000 1.078
75.60000 1.949
75.62000 3.593
75.64000 1.149
75.66000 7.292
75.68000 5.621
75.70000 2.188
75.72000 6.045
75.74000 2.377
75.76000 3.219
75.78000 1.854
75.80000 2.204
75.82000 5.357
75.84000 6.832
75.86000 5.677
75.88000 6.537
75.90000 4.857
75.92000 0.291
75.94000 -1.273
75.96000 2.577
75.98000 4.121
76.00000 1.265
76.02000 2.677
76.04000 2.952
76.06000 0.855
76.08000 0.633
76.10000 0.726
76.12000 -0.809
76.14000 -0.339
76.16000 2.651
76.18000 5.449
76.20000 6.499
76.22000 9.129
76.24000 1.047
76.26000 3.795
76.28000 3.303
76.30000 -2.468
76.32000 0.874
76.34000 4.743
76.36000 0.676
76.38000 2.809
76.40000 2.139
76.42000 4.434
76.44000 6.001
76.46000 3.720
76.48000 -0.700
76.50000 3.393
76.52000 4.478
76.54000 3.192
76.56000 0.641
76.58000 0.891
76.60000 2.219
76.62000 3.272
76.64000 5.974
76.66000 9.376
76.68000 -1.282
76.70000 -1.563
76.72000 2.393
76.74000 5.376
76.76000 5.072
76.78000 2.826
76.80000 5.528
76.82000 1.582
76.84000 4.620
76.86000 0.292
76.88000 -0.205
76.90000 -2.199
76.92000 -1.388
76.94000 0.824
76.96000 8.664
76.98000 6.400
77.00000 4.346
77.02000 1.697
77.04000 -0.230
77.06000 0.693
77.08000 1.118
77.10000 4.024
77.12000 1.740
77.14000 6.290
77.16000 6.513
77.18000 0.977
77.20000 -0.147
77.22000 2.317
77.24000 2.799
77.26000 4.408
77.28000 2.913
77.30000 3.792
77.32000 4.276
77.34000 5.825
77.36000 -0.388
77.38000 -2.469
77.40000 3.286
77.42000 2.924
77.44000 -2.470
77.46000 5.788
77.48000 8.416
77.50000 4.154
77.52000 4.924
77.54000 9.261
77.56000 7.719
77.58000 0.682
77.60000 3.559
77.62000 6.364
77.64000 4.990
77.66000 4.833
77.68000 4.804
77.70000 3.897
77.72000 4.590
77.74000 4.249
77.76000 0.702
77.78000 4.335
77.80000 4.032
77.82000 5.731
77.84000 3.198
77.86000 0.816
77.88000 1.550
77.90000 3.090
77.92000 3.705
77.94000 4.405
77.96000 1.908
77.98000 6.377
78.00000 1.539
78.02000 -0.361
78.04000 -1.246
78.06000 0.812
78.08000 5.140
78.10000 9.022
78.12000 4.114
78.14000 4.515
78.16000 7.331
78.18000 4.471
78.20000 1.445
78.22000 10.906
78.24000 8.602
78.26000 3.668
78.28000 -1.611
78.30000 -0.033
78.32000 2.339
78.34000 -0.493
78.36000 0.056
78.38000 1.997
78.40000 0.308
78.42000 3.637
78.44000 7.119
78.46000 0.583
78.48000 -1.087
78.50000 0.591
78.52000 2.667
78.54000 2.936
78.56000 5.997
78.58000 9.903
78.60000 6.241
78.62000 0.993
78.64000 1.922
78.66000 3.204
78.68000 6.631
78.70000 7.455
78.72000 6.997
78.74000 7.076
78.76000 3.491
78.78000 6.897
78.80000 5.514
78.82000 2.174
78.84000 -0.322
78.86000 2.848
78.88000 3.741
78.90000 7.580
78.92000 6.678
78.94000 5.058
78.96000 9.604
78.98000 5.908
79.00000 2.633
79.02000 1.700
79.04000 7.039
79.06000 3.829
79.08000 3.677
79.10000 5.865
79.12000 5.082
79.14000 4.321
79.16000 -2.660
79.18000 7.955
79.20000 9.862
79.22000 6.347
79.24000 0.902
79.26000 2.177
79.28000 4.980
79.30000 3.639
79.32000 3.673
79.34000 9.643
79.36000 8.276
79.38000 3.170
79.40000 4.755
79.42000 0.652
79.44000 3.757
79.46000 6.216
79.48000 5.358
79.50000 4.670
79.52000 5.222
79.54000 5.283
79.56000 4.491
79.58000 1.412
79.60000 5.448
79.62000 5.527
79.64000 4.278
79.66000 3.489
79.68000 3.973
79.70000 -0.701
79.72000 2.921
79.74000 5.251
79.76000 4.473
79.78000 0.262
79.80000 -1.375
79.82000 4.091
79.84000 2.473
79.86000 3.039
79.88000 2.631
79.90000 5.074
79.92000 4.784
79.94000 4.283
79.96000 3.116
79.98000 2.063
80.00000 4.118
80.02000 5.883
80.04000 3.720
80.06000 2.230
80.08000 -0.180
80.10000 0.258
80.12000 -2.523
80.14000 -2.071
80.16000 3.422
80.18000 0.060
80.20000 5.251
80.22000 6.057
80.24000 5.860
80.26000 4.329
80.28000 3.461
80.30000 3.095
80.32000 7.776
80.34000 9.876
80.36000 8.649
80.38000 4.461
80.40000 5.514
80.42000 6.766
80.44000 2.947
80.46000 2.569
80.48000 1.320
80.50000 -0.029
80.52000 -0.468
80.54000 -1.673
80.56000 -0.106
80.58000 2.832
80.60000 0.295
80.62000 0.452
80.64000 0.617
80.66000 -0.318
80.68000 -2.571
80.70000 0.734
80.72000 3.819
80.74000 4.931
80.76000 -2.062
80.78000 -2.565
80.80000 0.949
80.82000 3.439
80.84000 4.741
80.86000 4.729
80.88000 -0.298
80.90000 1.551
80.92000 0.442
80.94000 -0.500
80.96000 2.308
80.98000 2.859
81.00000 -2.378
81.02000 -1.036
81.04000 -0.902
81.06000 4.864
81.08000 3.713
81.10000 3.110
81.12000 0.017
81.14000 3.142
81.16000 4.246
81.18000 4.551
81.20000 3.989
81.22000 6.897
81.24000 8.389
81.26000 2.531
81.28000 -2.070
81.30000 4.942
81.32000 6.100
81.34000 6.005
81.36000 7.947
81.38000 5.088
81.40000 5.546
81.42000 4.000
81.44000 0.555
81.46000 -2.616
81.48000 -1.364
81.50000 1.163
81.52000 2.035
81.54000 -0.445
81.56000 1.535
81.58000 -1.548
81.60000 -0.066
81.62000 4.678
81.64000 3.893
81.66000 5.332
81.68000 7.705
81.70000 5.257
81.72000 6.980
81.74000 2.833
81.76000 1.970
81.78000 3.341
81.80000 0.815
81.82000 1.213
81.84000 3.497
81.86000 2.445
81.88000 5.219
81.90000 7.120
81.92000 4.034
81.94000 5.856
81.96000 5.370
81.98000 0.799
82.00000 7.241
82.02000 5.461
82.04000 7.474
82.06000 10.224
82.08000 11.014
82.10000 10.408
82.12000 10.905
82.14000 10.018
82.16000 7.476
82.18000 8.759
82.20000 4.341
82.22000 5.245
82.24000 10.562
82.26000 7.665
82.28000 9.110
82.30000 8.384
82.32000 2.601
82.34000 3.081
82.36000 9.661
82.38000 10.081
82.40000 9.128
82.42000 11.387
82.44000 10.436
82.46000 15.216
82.48000 8.223
82.50000 8.609
82.52000 12.652
82.54000 12.537
82.56000 9.016
82.58000 8.880
82.60000 10.980
82.62000 14.521
82.64000 12.727
82.66000 14.532
82.68000 17.004
82.70000 15.740
82.72000 17.313
82.74000 19.026
82.76000 15.649
82.78000 18.538
82.80000 18.351
82.82000 16.169
82.84000 17.032
82.86000 20.005
82.88000 19.384
82.90000 18.183
82.92000 15.847
82.94000 22.463
82.96000 20.755
82.98000 18.012
83.00000 22.913
83.02000 21.956
83.04000 24.592
83.06000 24.321
83.08000 23.865
83.10000 17.118
83.12000 21.102
83.14000 28.285
83.16000 26.178
83.18000 31.560
83.20000 28.218
83.22000 24.160
83.24000 21.746
83.26000 20.916
83.28000 19.047
83.30000 19.496
83.32000 19.456
83.34000 24.024
83.36000 30.523
83.38000 29.236
83.40000 27.677
83.42000 28.462
83.44000 31.526
83.46000 35.342
83.48000 38.696
83.50000 34.281
83.52000 32.424
83.54000 31.390
83.56000 34.924
83.58000 32.886
83.60000 32.932
83.62000 31.662
83.64000 31.719
83.66000 38.305
83.68000 36.445
83.70000 27.107
83.72000 24.697
83.74000 26.770
83.76000 33.742
83.78000 35.995
83.80000 26.602
83.82000 22.466
83.84000 28.402
83.86000 25.873
83.88000 27.866
83.90000 24.935
83.92000 20.519
83.94000 19.432
83.96000 18.506
83.98000 23.160
84.00000 27.248
84.02000 29.447
84.04000 26.925
84.06000 19.641
84.08000 20.892
84.10000 28.790
84.12000 24.297
84.14000 20.873
84.16000 18.604
84.18000 18.140
84.20000 14.363
84.22000 21.065
84.24000 20.481
84.26000 18.108
84.28000 14.066
84.30000 14.488
84.32000 15.013
84.34000 13.881
84.36000 18.026
84.38000 11.320
84.40000 17.297
84.42000 19.914
84.44000 16.222
84.46000 12.932
84.48000 10.700
84.50000 12.532
84.52000 13.065
84.54000 10.486
84.56000 16.045
84.58000 15.848
84.60000 15.335
84.62000 11.387
84.64000 9.714
84.66000 10.526
84.68000 13.238
84.70000 11.289
84.72000 5.181
84.74000 11.494
84.76000 12.203
84.78000 8.553
84.80000 9.736
84.82000 9.405
84.84000 5.870
84.86000 2.318
84.88000 0.781
84.90000 8.178
84.92000 8.556
84.94000 8.958
84.96000 9.065
84.98000 10.355
85.00000 17.046
85.02000 7.927
85.04000 2.886
85.06000 5.876
85.08000 8.709
85.10000 7.192
85.12000 8.127
85.14000 6.230
85.16000 7.651
85.18000 5.677
85.20000 6.795
85.22000 8.950
85.24000 9.769
85.26000 9.926
85.28000 5.460
85.30000 2.482
85.32000 -0.177
85.34000 0.805
85.36000 3.361
85.38000 5.025
85.40000 3.886
85.42000 -2.548
85.44000 3.244
85.46000 4.781
85.48000 8.432
85.50000 4.743
85.52000 3.160
85.54000 8.304
85.56000 7.244
85.58000 3.165
85.60000 4.914
85.62000 11.555
85.64000 9.837
85.66000 7.875
85.68000 2.593
85.70000 1.349
85.72000 -0.574
85.74000 4.955
85.76000 4.766
85.78000 3.157
85.80000 -0.926
85.82000 -2.517
85.84000 2.237
85.86000 3.052
85.88000 3.130
85.90000 6.003
85.92000 6.633
85.94000 7.912
85.96000 7.901
85.98000 7.656
86.00000 1.353
86.02000 4.164
86.04000 2.353
86.06000 1.821
86.08000 4.673
86.10000 4.338
86.12000 6.522
86.14000 9.771
86.16000 10.332
86.18000 7.471
86.20000 3.560
86.22000 2.543
86.24000 2.807
86.26000 2.766
86.28000 1.957
86.30000 6.886
86.32000 8.290
86.34000 7.702
86.36000 7.438
86.38000 2.275
86.40000 0.547
86.42000 3.233
86.44000 1.593
86.46000 -0.939
86.48000 5.546
86.50000 9.117
86.52000 6.454
86.54000 5.144
86.56000 8.240
86.58000 6.314
86.60000 8.580
86.62000 -2.520
86.64000 -1.531
86.66000 3.268
86.68000 5.196
86.70000 8.514
86.72000 8.700
86.74000 6.875
86.76000 6.131
86.78000 6.154
86.80000 3.095
86.82000 4.107
86.84000 9.730
86.86000 11.305
86.88000 4.932
86.90000 5.714
86.92000 6.503
86.94000 14.605
86.96000 10.603
86.98000 5.608
87.00000 3.671
87.02000 9.425
87.04000 15.874
87.06000 13.062
87.08000 12.179
87.10000 12.975
87.12000 13.383
87.14000 11.014
87.16000 15.117
87.18000 16.956
87.20000 14.574
87.22000 9.280
87.24000 8.014
87.26000 7.519
87.28000 11.860
87.30000 17.319
87.32000 20.515
87.34000 18.426
87.36000 18.704
87.38000 17.130
87.40000 20.832
87.42000 19.371
87.44000 18.948
87.46000 19.925
87.48000 21.581
87.50000 20.378
87.52000 21.732
87.54000 22.013
87.56000 17.575
87.58000 18.359
87.60000 19.224
87.62000 21.157
87.64000 21.514
87.66000 22.330
87.68000 20.716
87.70000 18.184
87.72000 22.771
87.74000 26.830
87.76000 27.799
87.78000 25.206
87.80000 30.207
87.82000 29.332
87.84000 25.367
87.86000 30.098
87.88000 28.088
87.90000 27.979
87.92000 32.269
87.94000 26.592
87.96000 23.767
87.98000 19.033
88.00000 25.159
88.02000 30.203
88.04000 32.526
88.06000 28.648
88.08000 24.457
88.10000 27.996
88.12000 31.373
88.14000 21.150
88.16000 22.001
88.18000 30.909
88.20000 31.980
88.22000 30.123
88.24000 33.163
88.26000 29.027
88.28000 27.188
88.30000 23.715
88.32000 25.055
88.34000 32.262
88.36000 31.443
88.38000 26.683
88.40000 27.773
88.42000 25.361
88.44000 24.546
88.46000 27.923
88.48000 28.230
88.50000 26.846
88.52000 21.682
88.54000 21.989
88.56000 26.041
88.58000 28.834
88.60000 25.396
88.62000 23.099
88.64000 23.339
88.66000 18.799
88.68000 23.771
88.70000 23.050
88.72000 17.793
88.74000 21.390
88.76000 16.462
88.78000 13.253
88.80000 12.999
88.82000 12.442
88.84000 9.983
88.86000 15.238
88.88000 15.548
88.90000 14.916
88.92000 16.276
88.94000 19.875
88.96000 13.471
88.98000 8.873
89.00000 10.187
89.02000 10.279
89.04000 7.288
89.06000 10.002
89.08000 11.417
89.10000 12.260
89.12000 17.107
89.14000 12.493
89.16000 9.625
89.18000 10.305
89.20000 11.172
89.22000 6.507
89.24000 4.817
89.26000 3.043
89.28000 7.054
89.30000 6.841
89.32000 5.223
89.34000 3.399
89.36000 6.422
89.38000 8.911
89.40000 6.643
89.42000 9.980
89.44000 6.220
89.46000 8.037
89.48000 4.993
89.50000 5.745
89.52000 7.298
89.54000 10.674
89.56000 13.853
89.58000 7.102
89.60000 0.878
89.62000 1.379
89.64000 -1.178
89.66000 3.627
89.68000 2.979
89.70000 4.985
89.72000 4.629
89.74000 4.237
89.76000 2.982
89.78000 2.906
89.80000 -0.315
89.82000 2.292
89.84000 2.322
89.86000 3.680
89.88000 7.145
89.90000 1.661
89.92000 0.114
89.94000 -2.392
89.96000 -1.342
89.98000 3.345
90.00000 8.225
90.02000 7.459
90.04000 1.570
90.06000 2.367
90.08000 5.787
90.10000 2.687
90.12000 2.563
90.14000 -0.551
90.16000 5.180
90.18000 7.487
90.20000 4.316
90.22000 1.983
90.24000 3.500
90.26000 2.871
90.28000 5.258
90.30000 0.019
90.32000 3.899
90.34000 2.945
90.36000 -1.933
90.38000 4.676
90.40000 9.279
90.42000 8.999
90.44000 10.814
90.46000 5.727
90.48000 5.758
90.50000 3.310
90.52000 0.540
90.54000 3.541
90.56000 3.350
90.58000 2.709
90.60000 3.128
90.62000 4.838
90.64000 5.516
90.66000 -0.897
90.68000 -2.321
90.70000 3.969
90.72000 8.015
90.74000 5.932
90.76000 8.705
90.78000 6.552
90.80000 7.954
90.82000 4.345
90.84000 3.782
90.86000 3.851
90.88000 5.326
90.90000 2.741
90.92000 -1.859
90.94000 0.301
90.96000 0.707
90.98000 8.611
91.00000 8.892
91.02000 9.012
91.04000 7.964
91.06000 0.690
91.08000 0.602
91.10000 3.216
91.12000 3.371
91.14000 6.674
91.16000 4.845
91.18000 7.491
91.20000 8.221
91.22000 7.303
91.24000 3.934
91.26000 1.710
91.28000 3.016
91.30000 6.971
91.32000 2.304
91.34000 7.021
91.36000 8.222
91.38000 9.038
91.40000 6.245
91.42000 4.337
91.44000 4.465
91.46000 7.453
91.48000 5.896
91.50000 9.732
91.52000 9.239
91.54000 3.667
91.56000 3.969
91.58000 -2.300
91.60000 6.393
91.62000 5.311
91.64000 -0.051
91.66000 2.736
91.68000 6.276
91.70000 6.951
91.72000 5.095
91.74000 2.472
91.76000 -2.301
91.78000 2.894
91.80000 8.867
91.82000 5.867
91.84000 10.072
91.86000 11.433
91.88000 6.870
91.90000 0.831
91.92000 1.807
91.94000 2.526
91.96000 6.881
91.98000 7.801
92.00000 6.625
92.02000 4.321
92.04000 0.566
92.06000 2.179
92.08000 2.813
92.10000 0.184
92.12000 6.051
92.14000 9.120
92.16000 0.312
92.18000 1.597
92.20000 3.434
92.22000 7.866
92.24000 3.535
92.26000 3.160
92.28000 0.101
92.30000 1.967
92.32000 2.965
92.34000 9.591
92.36000 6.915
92.38000 7.699
92.40000 6.048
92.42000 6.000
92.44000 5.621
92.46000 5.018
92.48000 1.233
92.50000 0.538
92.52000 0.922
92.54000 5.346
92.56000 5.359
92.58000 3.956
92.60000 7.238
92.62000 5.049
92.64000 -2.314
92.66000 -1.793
92.68000 6.611
92.70000 6.194
92.72000 2.291
92.74000 -0.557
92.76000 0.407
92.78000 4.665
92.80000 7.392
92.82000 7.936
92.84000 6.240
92.86000 5.423
92.88000 10.325
92.90000 7.534
92.92000 2.786
92.94000 1.713
92.96000 3.747
92.98000 5.802
93.00000 4.566
93.02000 2.663
93.04000 1.813
93.06000 -0.780
93.08000 2.108
93.10000 4.019
93.12000 2.988
93.14000 0.793
93.16000 2.949
93.18000 4.715
93.20000 7.816
93.22000 2.346
93.24000 2.556
93.26000 7.938
93.28000 8.768
93.30000 9.945
93.32000 11.093
93.34000 6.555
93.36000 7.988
93.38000 4.172
93.40000 2.988
93.42000 8.037
93.44000 7.943
93.46000 10.287
93.48000 8.115
93.50000 1.514
93.52000 -2.327
93.54000 1.264
93.56000 6.719
93.58000 7.530
93.60000 10.775
93.62000 6.673
93.64000 11.640
93.66000 12.264
93.68000 7.097
93.70000 5.058
93.72000 0.714
93.74000 2.506
93.76000 8.763
93.78000 9.525
93.80000 3.141
93.82000 2.040
93.84000 1.124
93.86000 1.304
93.88000 11.823
93.90000 7.273
93.92000 1.925
93.94000 1.188
93.96000 1.922
93.98000 -0.645
94.00000 3.899
94.02000 5.535
94.04000 1.717
94.06000 -0.107
94.08000 6.276
94.10000 6.536
94.12000 4.236
94.14000 3.548
94.16000 6.086
94.18000 7.984
94.20000 4.456
94.22000 2.896
94.24000 7.811
94.26000 5.062
94.28000 2.647
94.30000 6.528
94.32000 9.745
94.34000 3.389
94.36000 -2.361
94.38000 4.588
94.40000 8.695
94.42000 13.475
94.44000 6.173
94.46000 -0.048
94.48000 6.752
94.50000 1.175
94.52000 2.107
94.54000 4.714
94.56000 4.039
94.58000 2.729
94.60000 4.928
94.62000 5.583
94.64000 5.199
94.66000 5.216
94.68000 7.420
94.70000 7.974
94.72000 6.543
94.74000 -0.598
94.76000 -2.184
94.78000 1.417
94.80000 8.225
94.82000 7.552
94.84000 5.471
94.86000 -0.413
94.88000 1.905
94.90000 5.672
94.92000 4.478
94.94000 2.955
94.96000 10.113
94.98000 8.117
95.00000 -0.140
95.02000 4.735
95.04000 12.442
95.06000 9.975
95.08000 7.816
95.10000 1.369
95.12000 5.030
95.14000 4.502
95.16000 8.380
95.18000 5.407
95.20000 -2.341
95.22000 -1.325
95.24000 -0.204
95.26000 -0.609
95.28000 4.863
95.30000 4.839
95.32000 9.626
95.34000 5.936
95.36000 4.026
95.38000 4.377
95.40000 5.220
95.42000 1.806
95.44000 0.931
95.46000 5.964
95.48000 5.666
95.50000 7.585
95.52000 7.590
95.54000 3.865
95.56000 6.557
95.58000 5.980
95.60000 7.173
95.62000 3.684
95.64000 10.477
95.66000 7.245
95.68000 11.233
95.70000 11.209
95.72000 6.167
95.74000 5.743
95.76000 7.497
95.78000 1.841
95.80000 5.488
95.82000 4.087
95.84000 9.124
95.86000 6.621
95.88000 4.669
95.90000 1.244
95.92000 -0.641
95.94000 2.005
95.96000 2.418
95.98000 6.749
96.00000 3.288
96.02000 3.039
96.04000 1.515
96.06000 3.112
96.08000 10.346
96.10000 0.351
96.12000 2.510
96.14000 0.226
96.16000 4.756
96.18000 7.530
96.20000 3.567
96.22000 8.891
96.24000 5.068
96.26000 5.623
96.28000 7.336
96.30000 2.388
96.32000 6.279
96.34000 7.521
96.36000 5.271
96.38000 8.979
96.40000 8.741
96.42000 1.970
96.44000 0.555
96.46000 0.349
96.48000 6.982
96.50000 10.685
96.52000 12.925
96.54000 10.987
96.56000 9.287
96.58000 7.065
96.60000 7.512
96.62000 2.443
96.64000 3.893
96.66000 11.290
96.68000 7.931
96.70000 11.977
96.72000 5.412
96.74000 1.781
96.76000 7.805
96.78000 3.751
96.80000 -1.789
96.82000 1.580
96.84000 9.698
96.86000 14.773
96.88000 16.658
96.90000 10.860
96.92000 6.189
96.94000 7.051
96.96000 7.461
96.98000 8.418
97.00000 5.955
97.02000 11.019
97.04000 10.890
97.06000 10.274
97.08000 10.128
97.10000 15.321
97.12000 17.951
97.14000 14.980
97.16000 9.669
97.18000 10.476
97.20000 11.740
97.22000 15.504
97.24000 12.243
97.26000 12.219
97.28000 11.801
97.30000 3.150
97.32000 4.048
97.34000 0.497
97.36000 -2.189
97.38000 7.799
97.40000 12.275
97.42000 6.796
97.44000 7.358
97.46000 12.735
97.48000 12.298
97.50000 8.660
97.52000 5.643
97.54000 14.008
97.56000 12.503
97.58000 3.590
97.60000 8.601
97.62000 10.993
97.64000 12.754
97.66000 13.338
97.68000 12.609
97.70000 17.508
97.72000 16.206
97.74000 13.185
97.76000 9.266
97.78000 4.593
97.80000 12.996
97.82000 15.833
97.84000 12.893
97.86000 12.828
97.88000 16.795
97.90000 17.981
97.92000 12.932
97.94000 12.367
97.96000 9.703
97.98000 6.975
98.00000 15.657
98.02000 17.581
98.04000 16.258
98.06000 21.403
98.08000 8.669
98.10000 14.165
98.12000 14.125
98.14000 14.297
98.16000 13.030
98.18000 5.286
98.20000 6.508
98.22000 15.596
98.24000 13.873
98.26000 15.088
98.28000 18.914
98.30000 14.251
98.32000 13.575
98.34000 18.677
98.36000 16.773
98.38000 8.319
98.40000 0.857
98.42000 -3.808
98.44000 9.991
98.46000 7.998
98.48000 9.362
98.50000 16.727
98.52000 18.703
98.54000 11.016
98.56000 12.381
98.58000 9.631
98.60000 9.521
98.62000 13.294
98.64000 14.470
98.66000 19.655
98.68000 16.584
98.70000 13.593
98.72000 10.887
98.74000 8.925
98.76000 14.396
98.78000 12.604
98.80000 10.099
98.82000 5.521
98.84000 4.855
98.86000 17.704
98.88000 12.999
98.90000 9.038
98.92000 -2.205
98.94000 2.044
98.96000 8.347
98.98000 13.645
99.00000 12.383
99.02000 2.679
99.04000 9.121
99.06000 10.302
99.08000 5.433
99.10000 14.522
99.12000 17.412
99.14000 15.620
99.16000 9.076
99.18000 -0.041
99.20000 2.369
99.22000 8.991
99.24000 17.776
99.26000 12.594
99.28000 10.137
99.30000 11.595
99.32000 14.587
99.34000 7.082
99.36000 5.399
99.38000 -2.374
99.40000 6.700
99.42000 5.466
99.44000 7.711
99.46000 13.723
99.48000 1.745
99.50000 -0.906
99.52000 0.192
99.54000 3.881
99.56000 10.090
99.58000 13.768
99.60000 19.815
99.62000 18.432
99.64000 8.947
99.66000 11.180
99.68000 7.333
99.70000 -2.270
99.72000 2.520
99.74000 16.259
99.76000 21.809
99.78000 11.854
99.80000 22.847
99.82000 22.334
99.84000 14.579
99.86000 4.543
99.88000 1.040
99.90000 -2.295
99.92000 2.379
99.94000 0.742
99.96000 -2.574
99.98000 0.000
