'Id: "0011387" Comment: "Integrate frame 0011387_Au-Ir-Rh_Rh-rich_XRD-Mapping-188-0000.gfrmwith cursor Wedge Cursor #5" Operator: "B?rgel" Anode: "Cu" Wavelength: "1.5406" Scantype: "2Theta (TwoTheta)" TimePerStep: "1" X: "0" Y: "4.5" Z: "5.95" 
10.00000 0.000
10.02000 4.099
10.04000 1.303
10.06000 6.934
10.08000 18.415
10.10000 15.344
10.12000 8.150
10.14000 27.530
10.16000 20.382
10.18000 -6.269
10.20000 -1.089
10.22000 15.352
10.24000 18.249
10.26000 30.849
10.28000 23.016
10.30000 16.190
10.32000 20.126
10.34000 9.481
10.36000 7.489
10.38000 6.309
10.40000 4.206
10.42000 -2.035
10.44000 14.764
10.46000 21.752
10.48000 22.708
10.50000 23.343
10.52000 4.187
10.54000 0.253
10.56000 10.612
10.58000 6.958
10.60000 22.880
10.62000 24.960
10.64000 5.769
10.66000 2.581
10.68000 17.591
10.70000 11.833
10.72000 2.786
10.74000 1.676
10.76000 1.907
10.78000 1.311
10.80000 1.683
10.82000 -3.366
10.84000 11.755
10.86000 8.484
10.88000 8.008
10.90000 8.241
10.92000 6.120
10.94000 4.386
10.96000 1.085
10.98000 8.198
11.00000 7.686
11.02000 12.618
11.04000 7.911
11.06000 11.002
11.08000 -2.876
11.10000 3.879
11.12000 1.891
11.14000 -4.057
11.16000 -0.613
11.18000 1.784
11.20000 7.200
11.22000 16.380
11.24000 4.149
11.26000 -2.525
11.28000 1.330
11.30000 6.512
11.32000 9.134
11.34000 11.495
11.36000 0.933
11.38000 2.065
11.40000 4.274
11.42000 8.879
11.44000 9.253
11.46000 1.837
11.48000 2.429
11.50000 6.645
11.52000 5.626
11.54000 11.110
11.56000 8.903
11.58000 8.271
11.60000 7.256
11.62000 7.727
11.64000 20.977
11.66000 19.516
11.68000 13.715
11.70000 14.893
11.72000 6.243
11.74000 6.838
11.76000 8.200
11.78000 4.274
11.80000 4.312
11.82000 12.221
11.84000 6.156
11.86000 2.586
11.88000 18.826
11.90000 10.390
11.92000 11.687
11.94000 11.603
11.96000 5.042
11.98000 10.298
12.00000 14.568
12.02000 11.268
12.04000 7.586
12.06000 14.371
12.08000 20.988
12.10000 15.905
12.12000 11.796
12.14000 16.327
12.16000 8.221
12.18000 12.896
12.20000 18.246
12.22000 10.658
12.24000 13.330
12.26000 9.544
12.28000 15.013
12.30000 18.820
12.32000 20.040
12.34000 20.197
12.36000 5.058
12.38000 -0.456
12.40000 4.938
12.42000 15.736
12.44000 19.606
12.46000 12.494
12.48000 19.097
12.50000 20.665
12.52000 11.999
12.54000 8.391
12.56000 3.263
12.58000 10.963
12.60000 19.182
12.62000 14.593
12.64000 18.354
12.66000 12.638
12.68000 11.201
12.70000 15.243
12.72000 6.672
12.74000 -0.326
12.76000 13.012
12.78000 13.957
12.80000 11.614
12.82000 11.896
12.84000 8.465
12.86000 10.203
12.88000 22.271
12.90000 22.640
12.92000 20.261
12.94000 15.519
12.96000 14.120
12.98000 15.484
13.00000 10.981
13.02000 9.593
13.04000 7.898
13.06000 15.233
13.08000 13.275
13.10000 10.274
13.12000 14.379
13.14000 11.191
13.16000 12.673
13.18000 8.675
13.20000 9.778
13.22000 9.601
13.24000 5.800
13.26000 7.197
13.28000 7.553
13.30000 15.850
13.32000 12.645
13.34000 8.871
13.36000 12.590
13.38000 19.032
13.40000 17.542
13.42000 21.014
13.44000 12.384
13.46000 2.038
13.48000 3.527
13.50000 15.224
13.52000 7.238
13.54000 5.559
13.56000 9.070
13.58000 9.739
13.60000 15.289
13.62000 16.130
13.64000 15.890
13.66000 12.882
13.68000 7.267
13.70000 -2.100
13.72000 1.418
13.74000 10.207
13.76000 10.532
13.78000 10.025
13.80000 10.355
13.82000 11.836
13.84000 13.008
13.86000 8.317
13.88000 7.313
13.90000 8.112
13.92000 13.477
13.94000 11.627
13.96000 9.998
13.98000 2.234
14.00000 0.205
14.02000 10.601
14.04000 14.078
14.06000 9.282
14.08000 3.146
14.10000 2.528
14.12000 -0.539
14.14000 4.723
14.16000 8.883
14.18000 3.414
14.20000 11.940
14.22000 16.568
14.24000 9.149
14.26000 9.653
14.28000 3.254
14.30000 4.657
14.32000 17.104
14.34000 15.580
14.36000 13.599
14.38000 11.286
14.40000 13.161
14.42000 0.971
14.44000 5.069
14.46000 8.310
14.48000 5.308
14.50000 10.646
14.52000 11.110
14.54000 6.604
14.56000 6.775
14.58000 11.450
14.60000 18.381
14.62000 13.448
14.64000 10.230
14.66000 12.526
14.68000 14.813
14.70000 13.936
14.72000 8.963
14.74000 6.284
14.76000 0.290
14.78000 -4.448
14.80000 1.698
14.82000 4.401
14.84000 2.801
14.86000 4.115
14.88000 5.781
14.90000 17.671
14.92000 17.838
14.94000 16.160
14.96000 18.942
14.98000 8.383
15.00000 3.107
15.02000 9.032
15.04000 18.032
15.06000 9.817
15.08000 -3.114
15.10000 -0.998
15.12000 -4.039
15.14000 1.220
15.16000 2.262
15.18000 2.152
15.20000 -3.060
15.22000 -1.194
15.24000 1.277
15.26000 8.557
15.28000 9.296
15.30000 8.199
15.32000 10.715
15.34000 5.336
15.36000 4.545
15.38000 10.474
15.40000 0.999
15.42000 -4.439
15.44000 1.621
15.46000 8.037
15.48000 6.417
15.50000 7.624
15.52000 7.689
15.54000 10.006
15.56000 9.846
15.58000 8.981
15.60000 9.256
15.62000 2.966
15.64000 6.647
15.66000 8.074
15.68000 11.978
15.70000 9.973
15.72000 14.576
15.74000 11.459
15.76000 10.801
15.78000 1.041
15.80000 -3.863
15.82000 -0.047
15.84000 10.134
15.86000 13.886
15.88000 3.702
15.90000 6.430
15.92000 2.481
15.94000 4.864
15.96000 9.845
15.98000 7.181
16.00000 10.090
16.02000 10.151
16.04000 9.024
16.06000 -0.952
16.08000 4.108
16.10000 8.874
16.12000 -3.444
16.14000 -4.420
16.16000 2.837
16.18000 -0.272
16.20000 4.536
16.22000 6.916
16.24000 9.512
16.26000 5.789
16.28000 -0.388
16.30000 7.262
16.32000 9.882
16.34000 10.408
16.36000 7.382
16.38000 6.047
16.40000 3.817
16.42000 0.823
16.44000 -2.139
16.46000 4.708
16.48000 -0.832
16.50000 10.304
16.52000 8.350
16.54000 2.257
16.56000 2.864
16.58000 0.786
16.60000 -4.401
16.62000 0.874
16.64000 9.653
16.66000 10.506
16.68000 9.620
16.70000 -2.714
16.72000 4.459
16.74000 2.851
16.76000 2.763
16.78000 3.060
16.80000 0.330
16.82000 -0.648
16.84000 3.389
16.86000 3.857
16.88000 13.783
16.90000 9.493
16.92000 8.385
16.94000 8.257
16.96000 2.843
16.98000 2.259
17.00000 13.379
17.02000 19.592
17.04000 12.066
17.06000 9.957
17.08000 8.780
17.10000 6.625
17.12000 8.975
17.14000 9.203
17.16000 7.542
17.18000 3.049
17.20000 3.054
17.22000 6.823
17.24000 10.556
17.26000 5.798
17.28000 -1.861
17.30000 0.354
17.32000 8.193
17.34000 6.440
17.36000 8.157
17.38000 2.137
17.40000 2.884
17.42000 -0.176
17.44000 5.076
17.46000 0.122
17.48000 -0.357
17.50000 0.534
17.52000 3.320
17.54000 2.367
17.56000 2.736
17.58000 1.818
17.60000 2.642
17.62000 3.803
17.64000 6.255
17.66000 5.604
17.68000 1.421
17.70000 3.669
17.72000 0.486
17.74000 0.367
17.76000 -0.170
17.78000 -0.117
17.80000 3.745
17.82000 6.880
17.84000 6.245
17.86000 7.027
17.88000 5.911
17.90000 4.610
17.92000 6.085
17.94000 0.613
17.96000 -0.988
17.98000 -1.661
18.00000 0.222
18.02000 -0.631
18.04000 4.305
18.06000 1.296
18.08000 3.675
18.10000 4.902
18.12000 8.937
18.14000 9.172
18.16000 5.888
18.18000 4.713
18.20000 6.921
18.22000 2.708
18.24000 8.653
18.26000 8.701
18.28000 5.030
18.30000 2.321
18.32000 3.266
18.34000 8.612
18.36000 0.688
18.38000 -2.118
18.40000 5.349
18.42000 10.656
18.44000 2.166
18.46000 -2.163
18.48000 0.165
18.50000 4.806
18.52000 3.886
18.54000 2.956
18.56000 4.096
18.58000 3.444
18.60000 3.322
18.62000 11.026
18.64000 8.540
18.66000 4.137
18.68000 1.000
18.70000 -4.308
18.72000 3.699
18.74000 2.674
18.76000 -0.815
18.78000 0.409
18.80000 2.549
18.82000 4.246
18.84000 4.324
18.86000 2.529
18.88000 2.752
18.90000 6.286
18.92000 -0.602
18.94000 -0.106
18.96000 1.424
18.98000 -2.451
19.00000 -1.156
19.02000 2.118
19.04000 6.684
19.06000 8.175
19.08000 5.686
19.10000 -0.156
19.12000 -0.061
19.14000 -1.472
19.16000 1.745
19.18000 6.520
19.20000 6.353
19.22000 5.238
19.24000 6.205
19.26000 7.121
19.28000 4.031
19.30000 5.703
19.32000 5.576
19.34000 9.563
19.36000 3.668
19.38000 0.796
19.40000 3.531
19.42000 6.556
19.44000 4.276
19.46000 2.581
19.48000 5.405
19.50000 5.165
19.52000 2.342
19.54000 -0.325
19.56000 -4.238
19.58000 3.999
19.60000 11.028
19.62000 6.788
19.64000 -0.111
19.66000 -0.811
19.68000 1.938
19.70000 3.590
19.72000 1.072
19.74000 6.731
19.76000 12.473
19.78000 5.069
19.80000 5.984
19.82000 2.974
19.84000 6.101
19.86000 11.581
19.88000 10.960
19.90000 6.685
19.92000 4.260
19.94000 4.313
19.96000 5.304
19.98000 1.724
20.00000 4.135
20.02000 9.887
20.04000 7.587
20.06000 7.420
20.08000 5.787
20.10000 12.799
20.12000 12.572
20.14000 8.950
20.16000 3.147
20.18000 4.783
20.20000 7.838
20.22000 -4.166
20.24000 -3.800
20.26000 2.536
20.28000 4.674
20.30000 5.706
20.32000 10.782
20.34000 16.062
20.36000 9.724
20.38000 13.930
20.40000 14.119
20.42000 11.778
20.44000 5.728
20.46000 1.871
20.48000 3.051
20.50000 1.408
20.52000 0.177
20.54000 6.780
20.56000 13.671
20.58000 10.790
20.60000 15.269
20.62000 10.766
20.64000 6.445
20.66000 2.836
20.68000 3.981
20.70000 4.054
20.72000 9.804
20.74000 6.828
20.76000 10.023
20.78000 11.429
20.80000 10.540
20.82000 7.371
20.84000 1.716
20.86000 2.958
20.88000 6.898
20.90000 10.702
20.92000 10.249
20.94000 4.858
20.96000 1.591
20.98000 -1.292
21.00000 -2.985
21.02000 -0.616
21.04000 2.713
21.06000 3.504
21.08000 6.706
21.10000 3.492
21.12000 0.375
21.14000 4.018
21.16000 11.522
21.18000 5.900
21.20000 2.892
21.22000 4.180
21.24000 9.204
21.26000 6.927
21.28000 5.380
21.30000 7.635
21.32000 3.253
21.34000 4.698
21.36000 1.570
21.38000 4.811
21.40000 6.859
21.42000 3.964
21.44000 7.989
21.46000 8.108
21.48000 6.109
21.50000 5.262
21.52000 3.245
21.54000 -3.843
21.56000 -2.584
21.58000 -0.223
21.60000 8.015
21.62000 12.933
21.64000 11.024
21.66000 8.837
21.68000 6.295
21.70000 3.125
21.72000 2.877
21.74000 0.168
21.76000 -0.649
21.78000 3.987
21.80000 4.522
21.82000 2.544
21.84000 -0.565
21.86000 -1.949
21.88000 -4.129
21.90000 2.114
21.92000 5.930
21.94000 -0.572
21.96000 -1.187
21.98000 5.450
22.00000 5.371
22.02000 2.907
22.04000 0.256
22.06000 8.865
22.08000 7.132
22.10000 5.063
22.12000 3.232
22.14000 5.815
22.16000 6.495
22.18000 5.607
22.20000 7.916
22.22000 7.254
22.24000 6.018
22.26000 3.616
22.28000 -1.203
22.30000 2.124
22.32000 0.326
22.34000 2.011
22.36000 7.065
22.38000 6.710
22.40000 4.531
22.42000 4.780
22.44000 6.641
22.46000 6.743
22.48000 5.811
22.50000 4.977
22.52000 0.267
22.54000 -1.914
22.56000 1.363
22.58000 8.692
22.60000 11.683
22.62000 6.608
22.64000 0.666
22.66000 1.100
22.68000 5.305
22.70000 10.666
22.72000 7.276
22.74000 6.868
22.76000 6.037
22.78000 1.838
22.80000 -1.213
22.82000 3.627
22.84000 3.512
22.86000 0.848
22.88000 1.186
22.90000 3.292
22.92000 3.187
22.94000 -0.167
22.96000 6.515
22.98000 10.145
23.00000 3.798
23.02000 -2.760
23.04000 -3.842
23.06000 0.251
23.08000 -0.103
23.10000 -3.790
23.12000 -2.826
23.14000 3.780
23.16000 3.177
23.18000 2.354
23.20000 4.376
23.22000 4.933
23.24000 4.344
23.26000 3.028
23.28000 2.021
23.30000 1.491
23.32000 1.922
23.34000 2.750
23.36000 7.755
23.38000 4.523
23.40000 -1.021
23.42000 5.563
23.44000 12.602
23.46000 13.524
23.48000 5.634
23.50000 1.025
23.52000 4.871
23.54000 -0.880
23.56000 0.939
23.58000 -3.538
23.60000 -0.252
23.62000 0.200
23.64000 -2.392
23.66000 -0.057
23.68000 6.976
23.70000 9.177
23.72000 8.283
23.74000 7.326
23.76000 6.544
23.78000 3.563
23.80000 6.694
23.82000 11.480
23.84000 8.276
23.86000 3.287
23.88000 5.361
23.90000 0.716
23.92000 1.059
23.94000 4.100
23.96000 7.664
23.98000 5.426
24.00000 4.313
24.02000 0.929
24.04000 -3.979
24.06000 -3.237
24.08000 -2.036
24.10000 1.469
24.12000 4.330
24.14000 2.550
24.16000 3.178
24.18000 3.915
24.20000 3.503
24.22000 -0.102
24.24000 1.072
24.26000 0.328
24.28000 9.614
24.30000 7.985
24.32000 2.866
24.34000 1.829
24.36000 1.409
24.38000 1.436
24.40000 7.383
24.42000 4.453
24.44000 0.383
24.46000 2.787
24.48000 1.966
24.50000 5.088
24.52000 2.256
24.54000 0.724
24.56000 2.938
24.58000 -2.522
24.60000 -1.096
24.62000 1.133
24.64000 2.361
24.66000 2.660
24.68000 1.477
24.70000 3.984
24.72000 1.773
24.74000 1.981
24.76000 2.192
24.78000 -1.976
24.80000 1.051
24.82000 6.642
24.84000 -0.793
24.86000 3.844
24.88000 8.277
24.90000 10.232
24.92000 7.546
24.94000 2.972
24.96000 -3.959
24.98000 0.691
25.00000 1.905
25.02000 3.890
25.04000 2.352
25.06000 3.922
25.08000 5.785
25.10000 2.073
25.12000 0.529
25.14000 -0.303
25.16000 5.013
25.18000 0.608
25.20000 0.330
25.22000 -0.333
25.24000 2.035
25.26000 3.058
25.28000 0.297
25.30000 3.465
25.32000 -3.082
25.34000 -1.433
25.36000 6.850
25.38000 2.981
25.40000 4.232
25.42000 1.515
25.44000 0.943
25.46000 2.103
25.48000 1.228
25.50000 -2.004
25.52000 3.675
25.54000 8.568
25.56000 5.313
25.58000 4.482
25.60000 1.985
25.62000 -2.469
25.64000 -1.247
25.66000 -2.630
25.68000 -0.317
25.70000 4.598
25.72000 6.538
25.74000 10.066
25.76000 6.720
25.78000 3.690
25.80000 -3.183
25.82000 -3.083
25.84000 1.581
25.86000 -2.302
25.88000 0.751
25.90000 0.854
25.92000 1.933
25.94000 1.493
25.96000 -0.167
25.98000 1.200
26.00000 4.573
26.02000 -2.887
26.04000 -3.003
26.06000 -0.064
26.08000 -0.240
26.10000 -0.443
26.12000 -1.658
26.14000 2.087
26.16000 4.716
26.18000 1.853
26.20000 -2.243
26.22000 -3.694
26.24000 -0.510
26.26000 1.325
26.28000 4.768
26.30000 4.092
26.32000 5.903
26.34000 3.874
26.36000 -0.101
26.38000 1.567
26.40000 2.506
26.42000 4.425
26.44000 2.940
26.46000 -1.066
26.48000 -1.286
26.50000 2.684
26.52000 -0.499
26.54000 0.783
26.56000 2.514
26.58000 -3.853
26.60000 -3.577
26.62000 2.314
26.64000 7.458
26.66000 5.642
26.68000 5.311
26.70000 3.233
26.72000 5.052
26.74000 2.942
26.76000 3.597
26.78000 4.784
26.80000 5.211
26.82000 5.403
26.84000 2.140
26.86000 4.131
26.88000 3.546
26.90000 -0.729
26.92000 3.605
26.94000 1.763
26.96000 -2.238
26.98000 2.832
27.00000 6.520
27.02000 2.430
27.04000 4.343
27.06000 9.269
27.08000 11.333
27.10000 7.554
27.12000 3.889
27.14000 2.450
27.16000 1.467
27.18000 4.480
27.20000 3.048
27.22000 3.760
27.24000 5.309
27.26000 8.324
27.28000 6.535
27.30000 3.970
27.32000 0.910
27.34000 6.002
27.36000 6.172
27.38000 5.319
27.40000 4.279
27.42000 -2.054
27.44000 -0.991
27.46000 4.377
27.48000 5.765
27.50000 7.934
27.52000 1.227
27.54000 4.283
27.56000 10.781
27.58000 6.306
27.60000 -2.183
27.62000 1.312
27.64000 -1.669
27.66000 -3.791
27.68000 -2.313
27.70000 2.375
27.72000 4.259
27.74000 3.053
27.76000 8.127
27.78000 3.634
27.80000 2.078
27.82000 7.053
27.84000 7.377
27.86000 4.562
27.88000 1.020
27.90000 4.858
27.92000 5.734
27.94000 0.832
27.96000 0.111
27.98000 1.081
28.00000 3.682
28.02000 1.484
28.04000 6.250
28.06000 7.744
28.08000 4.706
28.10000 -2.821
28.12000 -0.545
28.14000 3.135
28.16000 6.136
28.18000 6.969
28.20000 4.897
28.22000 1.604
28.24000 4.051
28.26000 6.805
28.28000 2.972
28.30000 3.839
28.32000 6.380
28.34000 3.053
28.36000 1.609
28.38000 3.115
28.40000 8.012
28.42000 9.170
28.44000 8.674
28.46000 5.203
28.48000 5.709
28.50000 3.276
28.52000 1.121
28.54000 3.067
28.56000 3.525
28.58000 4.246
28.60000 1.471
28.62000 4.258
28.64000 8.692
28.66000 5.745
28.68000 0.798
28.70000 -2.354
28.72000 1.912
28.74000 5.002
28.76000 -0.030
28.78000 0.706
28.80000 7.055
28.82000 2.946
28.84000 4.760
28.86000 2.357
28.88000 6.044
28.90000 4.786
28.92000 6.287
28.94000 7.539
28.96000 7.896
28.98000 0.587
29.00000 -0.324
29.02000 3.748
29.04000 5.522
29.06000 4.436
29.08000 0.453
29.10000 -3.552
29.12000 -3.699
29.14000 -1.581
29.16000 4.232
29.18000 5.154
29.20000 5.907
29.22000 3.577
29.24000 3.679
29.26000 3.424
29.28000 9.060
29.30000 3.462
29.32000 -1.553
29.34000 2.517
29.36000 0.782
29.38000 3.569
29.40000 7.128
29.42000 5.227
29.44000 2.492
29.46000 6.285
29.48000 5.903
29.50000 9.504
29.52000 7.249
29.54000 4.690
29.56000 7.274
29.58000 8.591
29.60000 6.972
29.62000 5.357
29.64000 7.632
29.66000 7.090
29.68000 1.841
29.70000 7.317
29.72000 12.574
29.74000 6.907
29.76000 2.668
29.78000 5.130
29.80000 5.623
29.82000 5.589
29.84000 -0.910
29.86000 1.614
29.88000 7.596
29.90000 3.791
29.92000 3.367
29.94000 8.398
29.96000 3.471
29.98000 6.239
30.00000 8.032
30.02000 4.128
30.04000 5.607
30.06000 7.492
30.08000 6.607
30.10000 4.209
30.12000 3.546
30.14000 3.040
30.16000 5.434
30.18000 0.437
30.20000 2.907
30.22000 5.425
30.24000 2.196
30.26000 4.599
30.28000 1.467
30.30000 -1.339
30.32000 0.801
30.34000 -0.532
30.36000 8.363
30.38000 7.118
30.40000 4.011
30.42000 3.724
30.44000 3.834
30.46000 5.841
30.48000 4.016
30.50000 -0.107
30.52000 -3.621
30.54000 -2.746
30.56000 1.863
30.58000 7.025
30.60000 7.061
30.62000 2.070
30.64000 0.912
30.66000 5.907
30.68000 1.806
30.70000 1.638
30.72000 -3.320
30.74000 -3.632
30.76000 0.724
30.78000 1.466
30.80000 1.872
30.82000 -1.653
30.84000 -3.335
30.86000 -3.632
30.88000 2.138
30.90000 4.298
30.92000 3.353
30.94000 4.808
30.96000 4.544
30.98000 5.118
31.00000 3.408
31.02000 0.566
31.04000 3.744
31.06000 7.497
31.08000 2.840
31.10000 0.841
31.12000 4.288
31.14000 9.511
31.16000 6.156
31.18000 1.916
31.20000 0.880
31.22000 -2.011
31.24000 -3.388
31.26000 1.931
31.28000 2.021
31.30000 3.288
31.32000 2.294
31.34000 3.620
31.36000 3.403
31.38000 2.129
31.40000 -1.281
31.42000 1.063
31.44000 3.290
31.46000 4.846
31.48000 3.390
31.50000 -0.107
31.52000 3.466
31.54000 4.253
31.56000 1.315
31.58000 3.391
31.60000 1.654
31.62000 3.077
31.64000 7.344
31.66000 6.257
31.68000 5.077
31.70000 1.391
31.72000 2.939
31.74000 3.703
31.76000 4.648
31.78000 6.323
31.80000 1.772
31.82000 1.614
31.84000 0.648
31.86000 1.413
31.88000 0.282
31.90000 0.085
31.92000 1.090
31.94000 2.374
31.96000 0.649
31.98000 -0.716
32.00000 4.096
32.02000 5.759
32.04000 0.899
32.06000 -3.598
32.08000 -1.298
32.10000 1.639
32.12000 8.152
32.14000 0.801
32.16000 1.565
32.18000 4.603
32.20000 -2.752
32.22000 -0.606
32.24000 0.037
32.26000 2.758
32.28000 2.639
32.30000 4.764
32.32000 2.314
32.34000 0.617
32.36000 4.340
32.38000 1.159
32.40000 0.418
32.42000 0.545
32.44000 -0.091
32.46000 0.555
32.48000 1.126
32.50000 0.629
32.52000 0.591
32.54000 -1.664
32.56000 2.272
32.58000 4.735
32.60000 0.548
32.62000 0.638
32.64000 2.978
32.66000 0.095
32.68000 -0.801
32.70000 -2.281
32.72000 -3.581
32.74000 1.689
32.76000 0.654
32.78000 2.189
32.80000 5.883
32.82000 1.333
32.84000 2.642
32.86000 0.113
32.88000 -2.762
32.90000 -2.517
32.92000 4.600
32.94000 3.022
32.96000 -1.216
32.98000 -0.055
33.00000 2.968
33.02000 0.670
33.04000 -0.631
33.06000 0.475
33.08000 3.555
33.10000 3.874
33.12000 3.097
33.14000 3.206
33.16000 2.466
33.18000 0.032
33.20000 1.585
33.22000 8.743
33.24000 6.026
33.26000 7.635
33.28000 7.127
33.30000 4.795
33.32000 3.393
33.34000 3.693
33.36000 0.727
33.38000 2.032
33.40000 1.221
33.42000 0.721
33.44000 0.098
33.46000 0.164
33.48000 -0.698
33.50000 4.865
33.52000 1.519
33.54000 0.663
33.56000 8.063
33.58000 10.508
33.60000 5.084
33.62000 5.827
33.64000 1.324
33.66000 -3.524
33.68000 -0.733
33.70000 5.139
33.72000 2.766
33.74000 0.183
33.76000 6.431
33.78000 5.705
33.80000 1.965
33.82000 3.089
33.84000 4.360
33.86000 1.832
33.88000 3.373
33.90000 8.920
33.92000 5.534
33.94000 1.774
33.96000 6.209
33.98000 8.994
34.00000 9.740
34.02000 4.731
34.04000 -0.405
34.06000 2.695
34.08000 4.489
34.10000 0.895
34.12000 2.162
34.14000 2.387
34.16000 2.315
34.18000 3.058
34.20000 3.531
34.22000 5.927
34.24000 6.611
34.26000 4.792
34.28000 6.372
34.30000 7.704
34.32000 8.707
34.34000 6.596
34.36000 9.261
34.38000 8.784
34.40000 5.372
34.42000 7.832
34.44000 6.404
34.46000 5.686
34.48000 6.089
34.50000 6.810
34.52000 3.768
34.54000 1.626
34.56000 -3.525
34.58000 -2.497
34.60000 5.200
34.62000 6.845
34.64000 3.174
34.66000 2.423
34.68000 6.085
34.70000 -0.360
34.72000 -0.991
34.74000 1.731
34.76000 2.265
34.78000 1.015
34.80000 3.555
34.82000 4.969
34.84000 7.323
34.86000 8.581
34.88000 6.958
34.90000 0.389
34.92000 4.946
34.94000 1.114
34.96000 -2.414
34.98000 -2.448
35.00000 3.621
35.02000 6.429
35.04000 1.908
35.06000 -1.891
35.08000 2.048
35.10000 3.043
35.12000 1.879
35.14000 -1.440
35.16000 -1.438
35.18000 4.967
35.20000 2.290
35.22000 0.156
35.24000 4.416
35.26000 3.285
35.28000 0.908
35.30000 -2.705
35.32000 -2.098
35.34000 2.890
35.36000 3.989
35.38000 5.987
35.40000 1.456
35.42000 1.895
35.44000 1.195
35.46000 4.579
35.48000 2.121
35.50000 1.121
35.52000 1.121
35.54000 5.856
35.56000 3.932
35.58000 1.779
35.60000 -3.506
35.62000 3.150
35.64000 3.417
35.66000 0.641
35.68000 2.140
35.70000 1.531
35.72000 8.245
35.74000 2.532
35.76000 -0.683
35.78000 2.769
35.80000 4.472
35.82000 0.529
35.84000 2.379
35.86000 -1.413
35.88000 -1.002
35.90000 2.674
35.92000 4.712
35.94000 -0.785
35.96000 -1.096
35.98000 2.027
36.00000 4.412
36.02000 4.821
36.04000 3.953
36.06000 1.557
36.08000 3.089
36.10000 9.011
36.12000 4.333
36.14000 -2.843
36.16000 -1.704
36.18000 -1.340
36.20000 -0.733
36.22000 4.147
36.24000 5.880
36.26000 2.597
36.28000 1.043
36.30000 0.642
36.32000 -2.221
36.34000 1.657
36.36000 0.520
36.38000 1.292
36.40000 0.382
36.42000 3.160
36.44000 5.286
36.46000 4.398
36.48000 1.538
36.50000 4.399
36.52000 7.668
36.54000 1.408
36.56000 -2.412
36.58000 -2.175
36.60000 -3.527
36.62000 -1.068
36.64000 -0.964
36.66000 1.260
36.68000 1.197
36.70000 1.549
36.72000 1.246
36.74000 1.083
36.76000 0.289
36.78000 5.041
36.80000 5.414
36.82000 1.484
36.84000 2.242
36.86000 -0.036
36.88000 -0.140
36.90000 2.853
36.92000 2.844
36.94000 2.859
36.96000 4.248
36.98000 1.880
37.00000 -1.358
37.02000 3.267
37.04000 1.998
37.06000 -0.236
37.08000 1.244
37.10000 -3.551
37.12000 2.016
37.14000 5.124
37.16000 1.417
37.18000 -0.871
37.20000 5.133
37.22000 9.566
37.24000 8.344
37.26000 4.106
37.28000 -2.045
37.30000 2.514
37.32000 3.242
37.34000 1.586
37.36000 -1.573
37.38000 3.810
37.40000 6.746
37.42000 3.042
37.44000 1.636
37.46000 -1.004
37.48000 -1.876
37.50000 -1.606
37.52000 0.033
37.54000 2.934
37.56000 1.620
37.58000 0.246
37.60000 0.462
37.62000 2.215
37.64000 6.396
37.66000 3.511
37.68000 -0.775
37.70000 4.944
37.72000 2.669
37.74000 1.000
37.76000 0.748
37.78000 2.506
37.80000 6.000
37.82000 2.555
37.84000 -1.477
37.86000 1.008
37.88000 2.503
37.90000 3.143
37.92000 3.194
37.94000 1.781
37.96000 7.590
37.98000 7.517
38.00000 10.371
38.02000 10.430
38.04000 8.095
38.06000 5.440
38.08000 4.543
38.10000 8.894
38.12000 9.050
38.14000 11.164
38.16000 13.592
38.18000 9.597
38.20000 9.528
38.22000 11.145
38.24000 13.205
38.26000 14.829
38.28000 12.905
38.30000 11.616
38.32000 10.241
38.34000 11.514
38.36000 16.543
38.38000 16.129
38.40000 9.233
38.42000 11.451
38.44000 16.278
38.46000 9.671
38.48000 12.521
38.50000 14.878
38.52000 18.433
38.54000 19.582
38.56000 22.616
38.58000 22.324
38.60000 19.652
38.62000 25.913
38.64000 22.902
38.66000 16.028
38.68000 22.783
38.70000 27.621
38.72000 23.509
38.74000 27.130
38.76000 27.104
38.78000 27.364
38.80000 26.814
38.82000 28.504
38.84000 31.956
38.86000 34.171
38.88000 38.706
38.90000 35.335
38.92000 38.320
38.94000 38.132
38.96000 39.015
38.98000 42.557
39.00000 40.970
39.02000 44.988
39.04000 43.192
39.06000 46.112
39.08000 48.708
39.10000 52.579
39.12000 49.124
39.14000 46.962
39.16000 53.554
39.18000 58.592
39.20000 59.274
39.22000 60.030
39.24000 58.906
39.26000 65.516
39.28000 72.060
39.30000 70.546
39.32000 75.033
39.34000 78.924
39.36000 82.093
39.38000 87.050
39.40000 91.916
39.42000 97.731
39.44000 101.218
39.46000 99.772
39.48000 107.054
39.50000 113.440
39.52000 124.010
39.54000 127.005
39.56000 135.851
39.58000 148.887
39.60000 152.119
39.62000 156.183
39.64000 166.502
39.66000 175.564
39.68000 181.935
39.70000 194.204
39.72000 209.654
39.74000 228.144
39.76000 236.581
39.78000 242.350
39.80000 253.010
39.82000 275.632
39.84000 295.983
39.86000 307.102
39.88000 329.129
39.90000 342.675
39.92000 359.901
39.94000 380.861
39.96000 398.207
39.98000 420.043
40.00000 444.890
40.02000 477.539
40.04000 495.730
40.06000 511.921
40.08000 540.295
40.10000 565.176
40.12000 586.939
40.14000 619.094
40.16000 628.862
40.18000 645.079
40.20000 672.340
40.22000 692.574
40.24000 710.414
40.26000 722.725
40.28000 732.138
40.30000 733.942
40.32000 728.933
40.34000 728.352
40.36000 742.188
40.38000 745.422
40.40000 732.233
40.42000 726.667
40.44000 717.629
40.46000 705.530
40.48000 689.590
40.50000 688.295
40.52000 667.044
40.54000 655.674
40.56000 637.711
40.58000 609.537
40.60000 587.252
40.62000 583.447
40.64000 564.936
40.66000 532.198
40.68000 507.217
40.70000 479.466
40.72000 457.435
40.74000 441.492
40.76000 418.688
40.78000 399.060
40.80000 386.650
40.82000 365.025
40.84000 348.559
40.86000 332.533
40.88000 320.119
40.90000 304.253
40.92000 287.469
40.94000 274.992
40.96000 255.026
40.98000 242.383
41.00000 234.124
41.02000 212.359
41.04000 198.307
41.06000 193.886
41.08000 182.058
41.10000 173.467
41.12000 159.543
41.14000 153.969
41.16000 144.890
41.18000 144.673
41.20000 127.823
41.22000 122.723
41.24000 120.688
41.26000 112.465
41.28000 105.049
41.30000 97.765
41.32000 90.101
41.34000 92.428
41.36000 86.879
41.38000 77.206
41.40000 74.161
41.42000 68.514
41.44000 64.747
41.46000 66.221
41.48000 66.443
41.50000 59.546
41.52000 57.108
41.54000 58.109
41.56000 53.546
41.58000 44.893
41.60000 41.162
41.62000 44.850
41.64000 48.402
41.66000 40.863
41.68000 36.393
41.70000 30.672
41.72000 26.837
41.74000 24.467
41.76000 34.245
41.78000 29.622
41.80000 30.044
41.82000 27.636
41.84000 30.175
41.86000 27.605
41.88000 23.696
41.90000 22.352
41.92000 21.179
41.94000 21.263
41.96000 19.262
41.98000 15.729
42.00000 22.108
42.02000 19.035
42.04000 18.055
42.06000 12.313
42.08000 15.841
42.10000 19.034
42.12000 17.666
42.14000 11.659
42.16000 10.680
42.18000 7.143
42.20000 10.793
42.22000 12.526
42.24000 14.648
42.26000 8.152
42.28000 7.719
42.30000 10.683
42.32000 6.177
42.34000 6.692
42.36000 9.238
42.38000 6.541
42.40000 3.580
42.42000 5.836
42.44000 2.065
42.46000 5.992
42.48000 4.918
42.50000 3.196
42.52000 6.686
42.54000 4.633
42.56000 0.759
42.58000 2.138
42.60000 7.992
42.62000 8.649
42.64000 4.141
42.66000 6.037
42.68000 2.961
42.70000 2.455
42.72000 6.355
42.74000 3.745
42.76000 2.525
42.78000 4.442
42.80000 3.522
42.82000 2.011
42.84000 4.631
42.86000 1.566
42.88000 -0.821
42.90000 -1.183
42.92000 0.480
42.94000 1.723
42.96000 0.124
42.98000 2.547
43.00000 4.756
43.02000 4.483
43.04000 3.496
43.06000 2.634
43.08000 -0.764
43.10000 2.581
43.12000 2.375
43.14000 3.135
43.16000 1.458
43.18000 -1.651
43.20000 -2.731
43.22000 -0.753
43.24000 1.176
43.26000 -0.698
43.28000 2.844
43.30000 4.676
43.32000 4.399
43.34000 3.308
43.36000 3.658
43.38000 -0.892
43.40000 -2.784
43.42000 -0.261
43.44000 0.361
43.46000 0.326
43.48000 -3.398
43.50000 -0.228
43.52000 3.601
43.54000 1.824
43.56000 1.949
43.58000 5.282
43.60000 3.794
43.62000 5.942
43.64000 4.167
43.66000 4.983
43.68000 3.548
43.70000 2.912
43.72000 3.940
43.74000 -1.050
43.76000 -3.357
43.78000 0.159
43.80000 0.998
43.82000 -0.283
43.84000 6.035
43.86000 3.581
43.88000 4.218
43.90000 1.968
43.92000 3.793
43.94000 3.264
43.96000 -1.140
43.98000 -1.030
44.00000 0.304
44.02000 -1.166
44.04000 2.095
44.06000 2.435
44.08000 3.082
44.10000 -0.964
44.12000 -1.129
44.14000 2.953
44.16000 2.335
44.18000 1.932
44.20000 -1.293
44.22000 0.982
44.24000 -0.649
44.26000 1.476
44.28000 3.697
44.30000 2.429
44.32000 2.129
44.34000 1.659
44.36000 -0.494
44.38000 -1.925
44.40000 -1.548
44.42000 -3.350
44.44000 1.617
44.46000 4.493
44.48000 6.489
44.50000 4.916
44.52000 0.853
44.54000 1.284
44.56000 0.889
44.58000 -2.100
44.60000 -1.446
44.62000 -1.554
44.64000 -2.462
44.66000 -0.144
44.68000 -0.486
44.70000 2.471
44.72000 0.156
44.74000 0.722
44.76000 -1.473
44.78000 0.242
44.80000 0.651
44.82000 0.371
44.84000 2.094
44.86000 8.227
44.88000 2.740
44.90000 -2.399
44.92000 1.754
44.94000 2.036
44.96000 1.892
44.98000 3.273
45.00000 0.915
45.02000 1.163
45.04000 -0.719
45.06000 3.334
45.08000 -0.638
45.10000 -1.141
45.12000 -1.889
45.14000 -0.487
45.16000 3.987
45.18000 1.957
45.20000 1.769
45.22000 6.259
45.24000 2.329
45.26000 5.648
45.28000 2.376
45.30000 7.358
45.32000 9.530
45.34000 7.437
45.36000 5.062
45.38000 4.247
45.40000 5.453
45.42000 7.038
45.44000 8.910
45.46000 7.013
45.48000 4.865
45.50000 6.175
45.52000 10.872
45.54000 10.116
45.56000 6.586
45.58000 9.600
45.60000 15.969
45.62000 15.251
45.64000 16.861
45.66000 21.835
45.68000 20.408
45.70000 15.963
45.72000 15.787
45.74000 19.450
45.76000 19.672
45.78000 16.327
45.80000 19.201
45.82000 21.847
45.84000 23.029
45.86000 25.315
45.88000 30.736
45.90000 31.940
45.92000 24.461
45.94000 25.184
45.96000 26.112
45.98000 30.206
46.00000 34.125
46.02000 37.285
46.04000 36.619
46.06000 34.300
46.08000 31.288
46.10000 39.025
46.12000 46.243
46.14000 48.079
46.16000 44.849
46.18000 42.720
46.20000 43.916
46.22000 51.414
46.24000 54.126
46.26000 51.735
46.28000 58.003
46.30000 54.574
46.32000 57.114
46.34000 64.989
46.36000 69.166
46.38000 74.532
46.40000 73.316
46.42000 73.751
46.44000 82.157
46.46000 86.655
46.48000 92.342
46.50000 87.002
46.52000 90.972
46.54000 92.827
46.56000 91.053
46.58000 97.292
46.60000 102.415
46.62000 98.195
46.64000 101.228
46.66000 111.392
46.68000 114.216
46.70000 116.495
46.72000 119.404
46.74000 122.817
46.76000 116.685
46.78000 120.544
46.80000 125.838
46.82000 133.907
46.84000 136.606
46.86000 130.367
46.88000 136.274
46.90000 135.534
46.92000 138.125
46.94000 135.408
46.96000 134.943
46.98000 139.533
47.00000 138.098
47.02000 139.682
47.04000 141.494
47.06000 143.242
47.08000 139.568
47.10000 136.565
47.12000 135.166
47.14000 129.965
47.16000 127.312
47.18000 126.846
47.20000 123.940
47.22000 118.035
47.24000 118.088
47.26000 111.296
47.28000 111.265
47.30000 106.429
47.32000 103.738
47.34000 99.522
47.36000 105.734
47.38000 103.519
47.40000 103.409
47.42000 96.389
47.44000 87.013
47.46000 85.610
47.48000 77.786
47.50000 71.449
47.52000 74.787
47.54000 74.304
47.56000 66.775
47.58000 64.405
47.60000 63.682
47.62000 57.283
47.64000 56.451
47.66000 52.577
47.68000 47.454
47.70000 48.478
47.72000 50.410
47.74000 49.160
47.76000 44.436
47.78000 36.078
47.80000 37.577
47.82000 36.552
47.84000 31.141
47.86000 32.433
47.88000 32.094
47.90000 35.572
47.92000 32.421
47.94000 25.522
47.96000 19.984
47.98000 22.486
48.00000 24.625
48.02000 19.850
48.04000 17.120
48.06000 18.950
48.08000 19.141
48.10000 16.162
48.12000 12.217
48.14000 12.899
48.16000 15.815
48.18000 12.317
48.20000 9.960
48.22000 6.974
48.24000 11.224
48.26000 5.690
48.28000 8.677
48.30000 6.957
48.32000 12.292
48.34000 11.229
48.36000 9.123
48.38000 4.455
48.40000 2.395
48.42000 -0.483
48.44000 -1.264
48.46000 1.471
48.48000 3.659
48.50000 2.142
48.52000 5.769
48.54000 4.748
48.56000 2.560
48.58000 3.451
48.60000 3.566
48.62000 6.266
48.64000 4.543
48.66000 4.576
48.68000 5.071
48.70000 0.077
48.72000 -1.555
48.74000 -1.993
48.76000 0.130
48.78000 5.220
48.80000 0.934
48.82000 -2.960
48.84000 3.027
48.86000 3.737
48.88000 1.287
48.90000 1.689
48.92000 0.147
48.94000 0.704
48.96000 0.699
48.98000 3.328
49.00000 3.109
49.02000 3.787
49.04000 1.672
49.06000 1.616
49.08000 2.013
49.10000 -0.014
49.12000 0.702
49.14000 2.583
49.16000 -2.303
49.18000 0.958
49.20000 1.347
49.22000 -0.667
49.24000 -0.522
49.26000 -0.847
49.28000 -1.789
49.30000 0.669
49.32000 4.693
49.34000 6.550
49.36000 2.870
49.38000 -1.728
49.40000 1.816
49.42000 2.649
49.44000 -2.449
49.46000 -2.188
49.48000 -2.851
49.50000 -2.494
49.52000 2.496
49.54000 -0.463
49.56000 2.278
49.58000 1.232
49.60000 0.944
49.62000 2.845
49.64000 0.132
49.66000 0.510
49.68000 3.625
49.70000 4.147
49.72000 6.897
49.74000 3.266
49.76000 4.461
49.78000 5.266
49.80000 2.351
49.82000 0.475
49.84000 1.283
49.86000 4.454
49.88000 7.514
49.90000 4.774
49.92000 3.307
49.94000 9.223
49.96000 8.401
49.98000 0.073
50.00000 1.713
50.02000 0.126
50.04000 -2.741
50.06000 0.179
50.08000 4.599
50.10000 5.940
50.12000 4.899
50.14000 3.724
50.16000 5.265
50.18000 7.478
50.20000 6.158
50.22000 4.062
50.24000 1.049
50.26000 -0.287
50.28000 5.609
50.30000 4.798
50.32000 2.435
50.34000 5.778
50.36000 3.769
50.38000 0.756
50.40000 0.639
50.42000 -1.018
50.44000 2.200
50.46000 2.855
50.48000 3.350
50.50000 1.293
50.52000 1.938
50.54000 -2.730
50.56000 2.614
50.58000 5.914
50.60000 4.943
50.62000 2.202
50.64000 1.959
50.66000 -0.652
50.68000 -2.281
50.70000 -0.084
50.72000 1.731
50.74000 1.718
50.76000 3.266
50.78000 1.954
50.80000 5.425
50.82000 5.064
50.84000 1.907
50.86000 3.100
50.88000 5.269
50.90000 -2.241
50.92000 0.056
50.94000 0.748
50.96000 0.468
50.98000 0.376
51.00000 4.426
51.02000 4.446
51.04000 3.142
51.06000 -0.577
51.08000 3.678
51.10000 3.592
51.12000 -0.479
51.14000 -2.698
51.16000 3.511
51.18000 5.275
51.20000 4.645
51.22000 1.189
51.24000 -2.181
51.26000 5.496
51.28000 4.486
51.30000 -2.689
51.32000 3.201
51.34000 1.364
51.36000 -0.267
51.38000 1.083
51.40000 1.081
51.42000 4.243
51.44000 5.499
51.46000 6.666
51.48000 -0.164
51.50000 5.569
51.52000 3.802
51.54000 0.836
51.56000 2.004
51.58000 -2.662
51.60000 -0.829
51.62000 0.629
51.64000 5.147
51.66000 -0.583
51.68000 3.007
51.70000 4.898
51.72000 4.547
51.74000 -0.106
51.76000 1.114
51.78000 1.533
51.80000 3.190
51.82000 1.322
51.84000 -1.464
51.86000 -1.119
51.88000 0.782
51.90000 3.195
51.92000 1.837
51.94000 3.300
51.96000 -0.070
51.98000 -0.039
52.00000 3.152
52.02000 4.147
52.04000 -0.923
52.06000 2.284
52.08000 2.588
52.10000 4.378
52.12000 4.187
52.14000 5.099
52.16000 3.417
52.18000 3.173
52.20000 -0.217
52.22000 -2.334
52.24000 0.856
52.26000 0.166
52.28000 1.904
52.30000 0.793
52.32000 3.631
52.34000 4.077
52.36000 5.317
52.38000 3.824
52.40000 -0.397
52.42000 -1.064
52.44000 1.103
52.46000 -0.785
52.48000 -1.919
52.50000 4.129
52.52000 0.656
52.54000 -0.530
52.56000 -0.111
52.58000 1.883
52.60000 0.601
52.62000 3.961
52.64000 1.894
52.66000 4.929
52.68000 6.034
52.70000 2.657
52.72000 0.786
52.74000 0.915
52.76000 5.957
52.78000 2.712
52.80000 5.095
52.82000 1.579
52.84000 4.400
52.86000 7.170
52.88000 2.506
52.90000 -1.446
52.92000 1.832
52.94000 5.129
52.96000 6.867
52.98000 7.068
53.00000 3.062
53.02000 3.972
53.04000 2.446
53.06000 3.430
53.08000 -0.931
53.10000 0.997
53.12000 4.377
53.14000 3.627
53.16000 3.368
53.18000 3.702
53.20000 0.461
53.22000 -2.589
53.24000 1.354
53.26000 6.986
53.28000 8.563
53.30000 5.437
53.32000 8.011
53.34000 6.328
53.36000 6.741
53.38000 5.896
53.40000 7.410
53.42000 3.796
53.44000 -0.708
53.46000 3.072
53.48000 5.203
53.50000 2.250
53.52000 0.181
53.54000 1.819
53.56000 6.336
53.58000 4.334
53.60000 1.478
53.62000 2.755
53.64000 1.716
53.66000 3.713
53.68000 1.532
53.70000 5.168
53.72000 2.829
53.74000 3.797
53.76000 4.260
53.78000 7.980
53.80000 4.542
53.82000 5.861
53.84000 7.465
53.86000 5.149
53.88000 3.858
53.90000 -0.332
53.92000 -0.198
53.94000 1.916
53.96000 0.992
53.98000 0.229
54.00000 0.589
54.02000 2.960
54.04000 0.779
54.06000 4.068
54.08000 4.812
54.10000 1.992
54.12000 2.341
54.14000 2.791
54.16000 1.421
54.18000 2.084
54.20000 0.700
54.22000 2.250
54.24000 2.839
54.26000 1.063
54.28000 4.037
54.30000 0.750
54.32000 3.514
54.34000 0.323
54.36000 0.093
54.38000 6.903
54.40000 4.747
54.42000 3.642
54.44000 4.572
54.46000 -0.237
54.48000 0.524
54.50000 -1.054
54.52000 2.668
54.54000 6.314
54.56000 1.907
54.58000 3.221
54.60000 1.337
54.62000 0.578
54.64000 2.691
54.66000 3.199
54.68000 1.857
54.70000 2.897
54.72000 7.453
54.74000 5.677
54.76000 3.688
54.78000 2.882
54.80000 4.970
54.82000 3.221
54.84000 3.730
54.86000 3.448
54.88000 1.021
54.90000 2.721
54.92000 -0.814
54.94000 2.417
54.96000 -2.560
54.98000 -0.377
55.00000 3.270
55.02000 2.895
55.04000 1.313
55.06000 2.412
55.08000 2.408
55.10000 2.573
55.12000 2.853
55.14000 2.514
55.16000 2.494
55.18000 4.451
55.20000 3.681
55.22000 3.147
55.24000 1.953
55.26000 2.671
55.28000 4.623
55.30000 0.211
55.32000 -0.786
55.34000 -2.147
55.36000 2.697
55.38000 5.147
55.40000 5.395
55.42000 2.208
55.44000 4.855
55.46000 7.339
55.48000 2.683
55.50000 -0.317
55.52000 1.818
55.54000 -1.083
55.56000 0.767
55.58000 3.293
55.60000 0.626
55.62000 4.431
55.64000 0.490
55.66000 5.586
55.68000 7.020
55.70000 0.444
55.72000 -2.531
55.74000 0.358
55.76000 4.882
55.78000 4.742
55.80000 8.232
55.82000 2.706
55.84000 4.864
55.86000 4.378
55.88000 5.351
55.90000 7.428
55.92000 2.872
55.94000 1.362
55.96000 3.328
55.98000 1.149
56.00000 0.912
56.02000 4.043
56.04000 2.980
56.06000 -0.114
56.08000 -0.758
56.10000 -1.885
56.12000 -1.205
56.14000 -1.340
56.16000 -0.269
56.18000 1.702
56.20000 7.058
56.22000 8.494
56.24000 1.428
56.26000 -0.142
56.28000 1.430
56.30000 4.198
56.32000 1.812
56.34000 0.156
56.36000 0.680
56.38000 4.346
56.40000 0.910
56.42000 3.378
56.44000 1.420
56.46000 0.588
56.48000 0.693
56.50000 4.107
56.52000 4.087
56.54000 4.996
56.56000 3.496
56.58000 4.505
56.60000 3.537
56.62000 -0.902
56.64000 1.939
56.66000 0.806
56.68000 0.985
56.70000 1.968
56.72000 0.766
56.74000 3.160
56.76000 1.769
56.78000 -1.138
56.80000 -0.452
56.82000 -2.280
56.84000 2.270
56.86000 3.450
56.88000 4.212
56.90000 2.906
56.92000 3.578
56.94000 5.771
56.96000 2.516
56.98000 2.118
57.00000 1.152
57.02000 0.167
57.04000 -1.668
57.06000 -0.950
57.08000 1.379
57.10000 5.657
57.12000 5.672
57.14000 6.144
57.16000 2.803
57.18000 2.251
57.20000 -0.413
57.22000 1.320
57.24000 4.724
57.26000 7.155
57.28000 4.321
57.30000 2.923
57.32000 -1.548
57.34000 -2.487
57.36000 -0.708
57.38000 0.175
57.40000 0.628
57.42000 0.945
57.44000 -0.849
57.46000 3.114
57.48000 7.026
57.50000 5.606
57.52000 2.004
57.54000 0.284
57.56000 -1.258
57.58000 -0.191
57.60000 5.310
57.62000 -0.986
57.64000 -1.142
57.66000 -0.606
57.68000 1.097
57.70000 -2.474
57.72000 -0.402
57.74000 4.638
57.76000 3.195
57.78000 0.407
57.80000 -0.690
57.82000 4.587
57.84000 4.351
57.86000 2.655
57.88000 0.684
57.90000 -0.395
57.92000 4.593
57.94000 0.397
57.96000 -2.494
57.98000 0.511
58.00000 0.561
58.02000 1.976
58.04000 0.704
58.06000 0.324
58.08000 -0.187
58.10000 0.636
58.12000 0.418
58.14000 1.857
58.16000 2.316
58.18000 -0.976
58.20000 -1.906
58.22000 0.761
58.24000 2.728
58.26000 0.583
58.28000 2.962
58.30000 3.080
58.32000 5.800
58.34000 2.273
58.36000 5.176
58.38000 -0.252
58.40000 -1.330
58.42000 -1.829
58.44000 3.222
58.46000 1.372
58.48000 0.773
58.50000 -1.065
58.52000 0.335
58.54000 2.437
58.56000 3.310
58.58000 1.951
58.60000 1.924
58.62000 1.800
58.64000 -1.309
58.66000 0.524
58.68000 3.525
58.70000 2.160
58.72000 0.902
58.74000 4.372
58.76000 1.868
58.78000 -2.047
58.80000 -1.857
58.82000 1.655
58.84000 -2.383
58.86000 -2.469
58.88000 0.637
58.90000 -0.309
58.92000 3.184
58.94000 0.671
58.96000 1.651
58.98000 2.874
59.00000 1.543
59.02000 2.933
59.04000 1.285
59.06000 2.774
59.08000 3.164
59.10000 2.609
59.12000 4.250
59.14000 3.208
59.16000 0.550
59.18000 3.196
59.20000 -0.043
59.22000 -2.148
59.24000 -1.477
59.26000 3.786
59.28000 3.187
59.30000 3.171
59.32000 5.825
59.34000 3.464
59.36000 -0.913
59.38000 2.139
59.40000 3.450
59.42000 5.774
59.44000 3.209
59.46000 4.464
59.48000 2.265
59.50000 2.475
59.52000 2.599
59.54000 2.668
59.56000 -0.653
59.58000 1.176
59.60000 1.934
59.62000 0.079
59.64000 2.133
59.66000 -0.966
59.68000 -0.685
59.70000 5.407
59.72000 5.661
59.74000 4.774
59.76000 3.702
59.78000 6.849
59.80000 1.989
59.82000 2.279
59.84000 0.438
59.86000 -1.112
59.88000 3.568
59.90000 2.745
59.92000 2.289
59.94000 0.063
59.96000 -1.009
59.98000 -1.268
60.00000 2.507
60.02000 4.698
60.04000 1.717
60.06000 3.395
60.08000 5.600
60.10000 1.648
60.12000 3.714
60.14000 2.091
60.16000 -0.220
60.18000 2.107
60.20000 3.799
60.22000 6.457
60.24000 5.343
60.26000 3.897
60.28000 2.337
60.30000 0.185
60.32000 1.104
60.34000 5.651
60.36000 4.415
60.38000 -0.034
60.40000 -2.386
60.42000 -0.156
60.44000 3.794
60.46000 2.525
60.48000 4.455
60.50000 3.132
60.52000 4.812
60.54000 6.173
60.56000 3.186
60.58000 0.509
60.60000 -1.096
60.62000 0.301
60.64000 3.199
60.66000 3.249
60.68000 3.561
60.70000 2.873
60.72000 2.191
60.74000 3.649
60.76000 3.594
60.78000 3.942
60.80000 -2.318
60.82000 -1.422
60.84000 -2.000
60.86000 1.517
60.88000 2.686
60.90000 -1.349
60.92000 4.581
60.94000 4.877
60.96000 2.892
60.98000 1.844
61.00000 1.515
61.02000 0.765
61.04000 2.826
61.06000 1.423
61.08000 3.055
61.10000 3.245
61.12000 2.123
61.14000 0.297
61.16000 -0.510
61.18000 2.771
61.20000 5.657
61.22000 6.139
61.24000 0.453
61.26000 0.491
61.28000 3.101
61.30000 2.280
61.32000 2.369
61.34000 0.497
61.36000 -0.642
61.38000 -0.476
61.40000 0.983
61.42000 2.374
61.44000 4.723
61.46000 0.587
61.48000 4.603
61.50000 4.793
61.52000 1.823
61.54000 0.382
61.56000 -0.133
61.58000 2.756
61.60000 -1.548
61.62000 -2.372
61.64000 0.028
61.66000 4.058
61.68000 3.020
61.70000 4.234
61.72000 4.985
61.74000 7.815
61.76000 4.841
61.78000 3.473
61.80000 2.091
61.82000 0.757
61.84000 1.035
61.86000 -0.089
61.88000 2.300
61.90000 4.213
61.92000 2.835
61.94000 0.643
61.96000 3.236
61.98000 3.082
62.00000 1.438
62.02000 -1.067
62.04000 1.437
62.06000 0.793
62.08000 1.790
62.10000 3.483
62.12000 2.541
62.14000 0.501
62.16000 0.854
62.18000 3.004
62.20000 3.818
62.22000 1.558
62.24000 0.143
62.26000 1.587
62.28000 -2.020
62.30000 -1.612
62.32000 1.823
62.34000 -0.214
62.36000 -0.200
62.38000 1.534
62.40000 -1.659
62.42000 -1.324
62.44000 -0.162
62.46000 0.213
62.48000 4.091
62.50000 4.566
62.52000 0.588
62.54000 0.860
62.56000 -0.093
62.58000 0.040
62.60000 1.152
62.62000 2.785
62.64000 2.282
62.66000 5.074
62.68000 3.053
62.70000 5.448
62.72000 4.081
62.74000 3.713
62.76000 3.615
62.78000 3.408
62.80000 -0.331
62.82000 -2.355
62.84000 -1.310
62.86000 -0.262
62.88000 0.571
62.90000 4.301
62.92000 2.591
62.94000 3.958
62.96000 3.207
62.98000 0.434
63.00000 -0.576
63.02000 -0.046
63.04000 1.344
63.06000 1.717
63.08000 2.927
63.10000 -0.294
63.12000 2.050
63.14000 4.980
63.16000 -0.486
63.18000 -2.177
63.20000 0.522
63.22000 2.918
63.24000 4.868
63.26000 1.829
63.28000 0.193
63.30000 2.301
63.32000 3.119
63.34000 3.989
63.36000 3.623
63.38000 1.526
63.40000 2.343
63.42000 4.928
63.44000 0.782
63.46000 -0.993
63.48000 -1.223
63.50000 -0.816
63.52000 0.540
63.54000 2.115
63.56000 1.830
63.58000 0.389
63.60000 -0.249
63.62000 4.735
63.64000 4.162
63.66000 0.156
63.68000 3.310
63.70000 3.233
63.72000 0.711
63.74000 0.424
63.76000 1.098
63.78000 -2.355
63.80000 0.516
63.82000 2.176
63.84000 4.022
63.86000 3.039
63.88000 1.603
63.90000 2.278
63.92000 0.889
63.94000 -0.826
63.96000 -1.218
63.98000 -0.113
64.00000 2.160
64.02000 1.301
64.04000 0.996
64.06000 2.846
64.08000 4.407
64.10000 0.004
64.12000 -1.121
64.14000 -0.198
64.16000 2.343
64.18000 1.262
64.20000 1.808
64.22000 1.043
64.24000 0.661
64.26000 2.717
64.28000 3.459
64.30000 1.119
64.32000 0.424
64.34000 -0.513
64.36000 2.211
64.38000 1.899
64.40000 -1.842
64.42000 -2.361
64.44000 -1.064
64.46000 1.162
64.48000 2.148
64.50000 4.574
64.52000 -0.363
64.54000 -2.015
64.56000 -0.391
64.58000 1.624
64.60000 4.495
64.62000 3.615
64.64000 1.595
64.66000 1.180
64.68000 0.397
64.70000 0.757
64.72000 1.293
64.74000 2.127
64.76000 3.849
64.78000 4.956
64.80000 0.104
64.82000 2.153
64.84000 2.729
64.86000 -0.183
64.88000 -0.686
64.90000 3.491
64.92000 1.141
64.94000 2.608
64.96000 0.826
64.98000 0.011
65.00000 -1.092
65.02000 -2.034
65.04000 -0.913
65.06000 0.744
65.08000 -1.389
65.10000 -1.890
65.12000 -1.154
65.14000 -0.457
65.16000 -2.021
65.18000 -2.390
65.20000 -0.957
65.22000 2.955
65.24000 -0.639
65.26000 1.932
65.28000 3.468
65.30000 2.630
65.32000 -0.288
65.34000 4.419
65.36000 0.768
65.38000 -0.691
65.40000 1.556
65.42000 2.735
65.44000 0.616
65.46000 2.126
65.48000 1.498
65.50000 1.716
65.52000 -0.120
65.54000 -0.619
65.56000 -0.824
65.58000 1.619
65.60000 1.915
65.62000 -1.230
65.64000 -0.081
65.66000 1.765
65.68000 0.640
65.70000 -1.073
65.72000 -2.392
65.74000 2.847
65.76000 1.963
65.78000 -0.323
65.80000 1.579
65.82000 0.279
65.84000 0.576
65.86000 -1.879
65.88000 -0.386
65.90000 1.305
65.92000 2.349
65.94000 0.675
65.96000 0.175
65.98000 1.057
66.00000 2.804
66.02000 2.256
66.04000 1.058
66.06000 -0.133
66.08000 -0.610
66.10000 -1.995
66.12000 1.158
66.14000 0.021
66.16000 -0.694
66.18000 -1.234
66.20000 0.716
66.22000 1.549
66.24000 1.420
66.26000 0.726
66.28000 1.832
66.30000 -0.405
66.32000 0.229
66.34000 0.201
66.36000 0.712
66.38000 3.487
66.40000 2.412
66.42000 -0.921
66.44000 3.056
66.46000 3.469
66.48000 1.864
66.50000 1.812
66.52000 1.974
66.54000 3.066
66.56000 2.806
66.58000 1.271
66.60000 -2.390
66.62000 2.519
66.64000 1.429
66.66000 0.569
66.68000 2.174
66.70000 2.864
66.72000 2.765
66.74000 1.874
66.76000 2.988
66.78000 0.634
66.80000 -0.616
66.82000 0.428
66.84000 -0.554
66.86000 5.717
66.88000 6.543
66.90000 3.366
66.92000 1.883
66.94000 -0.475
66.96000 2.060
66.98000 4.231
67.00000 3.715
67.02000 3.511
67.04000 1.743
67.06000 2.180
67.08000 -0.307
67.10000 2.191
67.12000 3.037
67.14000 4.580
67.16000 3.223
67.18000 6.980
67.20000 3.461
67.22000 4.761
67.24000 6.995
67.26000 5.694
67.28000 3.272
67.30000 1.315
67.32000 3.591
67.34000 5.487
67.36000 2.786
67.38000 2.897
67.40000 2.825
67.42000 3.129
67.44000 2.589
67.46000 0.339
67.48000 4.360
67.50000 5.171
67.52000 6.612
67.54000 4.165
67.56000 3.112
67.58000 2.244
67.60000 2.108
67.62000 5.153
67.64000 8.698
67.66000 8.829
67.68000 8.101
67.70000 9.998
67.72000 8.014
67.74000 7.648
67.76000 12.933
67.78000 12.712
67.80000 12.014
67.82000 12.237
67.84000 11.657
67.86000 12.464
67.88000 14.601
67.90000 10.414
67.92000 12.004
67.94000 12.845
67.96000 14.291
67.98000 14.919
68.00000 16.393
68.02000 15.283
68.04000 12.995
68.06000 16.582
68.08000 16.145
68.10000 18.804
68.12000 20.493
68.14000 22.800
68.16000 21.796
68.18000 21.231
68.20000 19.883
68.22000 21.036
68.24000 24.976
68.26000 25.471
68.28000 25.308
68.30000 26.211
68.32000 27.815
68.34000 26.187
68.36000 26.002
68.38000 21.306
68.40000 24.521
68.42000 28.262
68.44000 30.967
68.46000 34.324
68.48000 33.214
68.50000 31.155
68.52000 32.495
68.54000 32.635
68.56000 32.766
68.58000 36.786
68.60000 34.628
68.62000 37.193
68.64000 35.817
68.66000 31.439
68.68000 31.839
68.70000 36.941
68.72000 34.546
68.74000 35.580
68.76000 35.123
68.78000 30.146
68.80000 30.218
68.82000 31.812
68.84000 31.124
68.86000 31.522
68.88000 31.087
68.90000 30.898
68.92000 30.454
68.94000 31.121
68.96000 30.067
68.98000 29.374
69.00000 27.151
69.02000 28.887
69.04000 29.815
69.06000 24.793
69.08000 22.251
69.10000 20.342
69.12000 17.905
69.14000 19.513
69.16000 19.484
69.18000 20.208
69.20000 17.351
69.22000 17.760
69.24000 17.194
69.26000 16.054
69.28000 12.790
69.30000 12.533
69.32000 13.725
69.34000 12.021
69.36000 9.741
69.38000 11.329
69.40000 11.051
69.42000 12.395
69.44000 12.132
69.46000 10.303
69.48000 12.820
69.50000 10.741
69.52000 6.790
69.54000 6.425
69.56000 5.072
69.58000 2.322
69.60000 3.832
69.62000 4.167
69.64000 6.559
69.66000 3.507
69.68000 3.359
69.70000 6.470
69.72000 5.496
69.74000 5.308
69.76000 5.095
69.78000 2.488
69.80000 2.984
69.82000 6.068
69.84000 4.808
69.86000 3.332
69.88000 1.681
69.90000 2.027
69.92000 2.921
69.94000 5.622
69.96000 2.456
69.98000 2.071
70.00000 2.529
70.02000 -0.462
70.04000 1.169
70.06000 2.437
70.08000 2.071
70.10000 -0.497
70.12000 0.972
70.14000 0.424
70.16000 -0.339
70.18000 0.794
70.20000 -0.868
70.22000 1.141
70.24000 -0.918
70.26000 2.485
70.28000 3.101
70.30000 3.853
70.32000 1.007
70.34000 -2.348
70.36000 -0.096
70.38000 2.245
70.40000 2.215
70.42000 0.279
70.44000 -2.335
70.46000 -1.030
70.48000 3.615
70.50000 2.241
70.52000 1.922
70.54000 2.435
70.56000 3.430
70.58000 1.087
70.60000 2.486
70.62000 0.292
70.64000 -1.020
70.66000 1.487
70.68000 6.260
70.70000 2.899
70.72000 2.190
70.74000 3.012
70.76000 1.732
70.78000 1.659
70.80000 2.055
70.82000 3.396
70.84000 3.216
70.86000 4.253
70.88000 4.507
70.90000 2.083
70.92000 2.860
70.94000 2.799
70.96000 1.779
70.98000 2.823
71.00000 0.481
71.02000 0.534
71.04000 1.871
71.06000 1.787
71.08000 4.778
71.10000 0.517
71.12000 3.965
71.14000 2.334
71.16000 0.554
71.18000 3.074
71.20000 4.722
71.22000 0.597
71.24000 -2.253
71.26000 0.463
71.28000 2.324
71.30000 1.692
71.32000 3.711
71.34000 2.505
71.36000 3.372
71.38000 1.507
71.40000 1.336
71.42000 4.691
71.44000 4.446
71.46000 2.076
71.48000 1.435
71.50000 7.449
71.52000 6.549
71.54000 1.981
71.56000 2.462
71.58000 -0.459
71.60000 1.214
71.62000 2.098
71.64000 3.374
71.66000 4.373
71.68000 3.006
71.70000 1.816
71.72000 2.477
71.74000 2.562
71.76000 0.514
71.78000 -0.867
71.80000 -1.480
71.82000 1.217
71.84000 0.324
71.86000 0.390
71.88000 -2.188
71.90000 0.565
71.92000 -1.353
71.94000 2.246
71.96000 2.093
71.98000 1.967
72.00000 2.237
72.02000 0.647
72.04000 1.469
72.06000 4.264
72.08000 3.785
72.10000 4.833
72.12000 2.600
72.14000 0.158
72.16000 -0.685
72.18000 4.396
72.20000 1.544
72.22000 2.041
72.24000 2.258
72.26000 -0.047
72.28000 -2.241
72.30000 -0.857
72.32000 1.571
72.34000 4.936
72.36000 2.643
72.38000 1.947
72.40000 4.020
72.42000 1.727
72.44000 0.768
72.46000 -0.278
72.48000 1.179
72.50000 -0.238
72.52000 -1.568
72.54000 0.959
72.56000 4.809
72.58000 2.198
72.60000 -1.078
72.62000 1.522
72.64000 1.309
72.66000 0.581
72.68000 2.921
72.70000 2.099
72.72000 5.332
72.74000 -0.657
72.76000 1.211
72.78000 1.732
72.80000 -0.357
72.82000 2.672
72.84000 2.050
72.86000 2.324
72.88000 5.527
72.90000 4.621
72.92000 3.979
72.94000 2.150
72.96000 3.552
72.98000 2.954
73.00000 -0.420
73.02000 1.926
73.04000 2.703
73.06000 3.061
73.08000 3.723
73.10000 4.935
73.12000 3.114
73.14000 2.159
73.16000 4.686
73.18000 3.630
73.20000 4.473
73.22000 2.280
73.24000 -0.714
73.26000 4.766
73.28000 2.183
73.30000 2.973
73.32000 0.877
73.34000 5.675
73.36000 8.980
73.38000 2.836
73.40000 -2.148
73.42000 3.078
73.44000 5.274
73.46000 3.151
73.48000 3.371
73.50000 0.518
73.52000 3.939
73.54000 9.063
73.56000 6.890
73.58000 7.010
73.60000 5.316
73.62000 4.364
73.64000 2.574
73.66000 0.725
73.68000 2.852
73.70000 4.205
73.72000 1.073
73.74000 4.901
73.76000 8.684
73.78000 9.143
73.80000 4.461
73.82000 6.262
73.84000 5.590
73.86000 3.595
73.88000 4.972
73.90000 2.842
73.92000 1.746
73.94000 2.494
73.96000 4.524
73.98000 5.306
74.00000 4.292
74.02000 2.891
74.04000 4.942
74.06000 4.631
74.08000 4.492
74.10000 3.869
74.12000 4.923
74.14000 4.347
74.16000 3.689
74.18000 2.405
74.20000 1.647
74.22000 0.319
74.24000 -2.155
74.26000 3.119
74.28000 2.703
74.30000 2.871
74.32000 1.454
74.34000 1.826
74.36000 0.219
74.38000 1.477
74.40000 -0.930
74.42000 -0.041
74.44000 -2.163
74.46000 0.853
74.48000 2.617
74.50000 0.814
74.52000 4.120
74.54000 5.519
74.56000 3.589
74.58000 1.717
74.60000 3.537
74.62000 3.425
74.64000 2.350
74.66000 1.222
74.68000 1.065
74.70000 2.819
74.72000 5.229
74.74000 4.601
74.76000 4.588
74.78000 2.550
74.80000 2.317
74.82000 3.312
74.84000 2.742
74.86000 2.976
74.88000 -0.638
74.90000 -0.950
74.92000 2.221
74.94000 3.215
74.96000 1.060
74.98000 2.858
75.00000 0.191
75.02000 0.504
75.04000 0.667
75.06000 -0.174
75.08000 1.758
75.10000 0.554
75.12000 -1.414
75.14000 0.062
75.16000 1.019
75.18000 -0.460
75.20000 0.803
75.22000 -0.800
75.24000 0.165
75.26000 0.323
75.28000 -2.201
75.30000 0.469
75.32000 1.977
75.34000 4.033
75.36000 1.909
75.38000 1.844
75.40000 1.992
75.42000 3.103
75.44000 4.275
75.46000 -1.442
75.48000 0.817
75.50000 3.070
75.52000 -1.843
75.54000 -1.929
75.56000 1.770
75.58000 2.264
75.60000 2.916
75.62000 5.291
75.64000 7.119
75.66000 0.163
75.68000 -0.937
75.70000 2.709
75.72000 3.260
75.74000 -1.055
75.76000 0.457
75.78000 0.095
75.80000 -0.719
75.82000 1.269
75.84000 1.174
75.86000 -1.149
75.88000 1.565
75.90000 4.509
75.92000 3.838
75.94000 3.116
75.96000 -2.196
75.98000 1.054
76.00000 4.547
76.02000 2.963
76.04000 3.378
76.06000 1.979
76.08000 3.014
76.10000 2.214
76.12000 6.529
76.14000 6.862
76.16000 2.176
76.18000 5.286
76.20000 2.095
76.22000 5.340
76.24000 6.120
76.26000 3.378
76.28000 2.292
76.30000 4.727
76.32000 2.237
76.34000 2.475
76.36000 4.675
76.38000 3.487
76.40000 2.000
76.42000 2.291
76.44000 1.997
76.46000 0.254
76.48000 -1.834
76.50000 -0.343
76.52000 1.141
76.54000 0.329
76.56000 0.892
76.58000 1.892
76.60000 3.631
76.62000 3.647
76.64000 2.399
76.66000 1.321
76.68000 -0.317
76.70000 1.176
76.72000 2.921
76.74000 1.861
76.76000 -2.181
76.78000 -0.264
76.80000 3.695
76.82000 7.664
76.84000 3.728
76.86000 3.469
76.88000 2.712
76.90000 1.556
76.92000 3.755
76.94000 2.471
76.96000 3.962
76.98000 6.125
77.00000 2.533
77.02000 1.517
77.04000 -0.307
77.06000 -0.320
77.08000 3.436
77.10000 -0.093
77.12000 0.609
77.14000 4.554
77.16000 6.887
77.18000 5.924
77.20000 3.008
77.22000 2.148
77.24000 2.381
77.26000 3.221
77.28000 1.468
77.30000 -0.410
77.32000 1.058
77.34000 1.693
77.36000 3.304
77.38000 4.435
77.40000 5.789
77.42000 5.684
77.44000 5.182
77.46000 6.868
77.48000 0.407
77.50000 1.141
77.52000 4.725
77.54000 5.462
77.56000 0.950
77.58000 -1.552
77.60000 0.764
77.62000 2.777
77.64000 0.912
77.66000 -0.153
77.68000 3.589
77.70000 1.214
77.72000 4.287
77.74000 4.672
77.76000 4.617
77.78000 4.994
77.80000 6.809
77.82000 2.636
77.84000 -0.838
77.86000 1.604
77.88000 0.117
77.90000 0.592
77.92000 4.158
77.94000 3.402
77.96000 4.053
77.98000 6.345
78.00000 1.371
78.02000 5.644
78.04000 1.791
78.06000 1.681
78.08000 3.099
78.10000 4.135
78.12000 -0.046
78.14000 0.283
78.16000 3.214
78.18000 0.211
78.20000 -2.216
78.22000 2.470
78.24000 4.293
78.26000 3.716
78.28000 0.612
78.30000 1.400
78.32000 -0.466
78.34000 0.513
78.36000 -1.698
78.38000 -0.173
78.40000 3.596
78.42000 2.968
78.44000 3.391
78.46000 3.331
78.48000 0.708
78.50000 1.364
78.52000 1.984
78.54000 0.626
78.56000 1.366
78.58000 8.629
78.60000 6.264
78.62000 2.906
78.64000 3.835
78.66000 2.800
78.68000 2.409
78.70000 0.818
78.72000 -1.457
78.74000 -1.198
78.76000 2.933
78.78000 3.005
78.80000 3.253
78.82000 -0.092
78.84000 2.236
78.86000 5.256
78.88000 3.407
78.90000 0.137
78.92000 -0.279
78.94000 -2.245
78.96000 1.344
78.98000 2.970
79.00000 1.893
79.02000 3.886
79.04000 1.940
79.06000 1.315
79.08000 0.009
79.10000 -0.633
79.12000 3.304
79.14000 3.306
79.16000 2.851
79.18000 0.380
79.20000 1.085
79.22000 4.076
79.24000 10.792
79.26000 4.214
79.28000 -0.555
79.30000 -1.279
79.32000 0.610
79.34000 0.745
79.36000 1.189
79.38000 2.472
79.40000 2.025
79.42000 5.841
79.44000 5.715
79.46000 5.989
79.48000 2.624
79.50000 2.989
79.52000 3.685
79.54000 6.972
79.56000 2.501
79.58000 -2.246
79.60000 -0.088
79.62000 5.090
79.64000 5.036
79.66000 4.597
79.68000 0.152
79.70000 1.563
79.72000 6.177
79.74000 4.993
79.76000 4.317
79.78000 4.585
79.80000 2.392
79.82000 3.094
79.84000 2.637
79.86000 3.535
79.88000 0.071
79.90000 -2.287
79.92000 6.171
79.94000 6.919
79.96000 3.867
79.98000 -1.323
80.00000 0.620
80.02000 1.653
80.04000 2.028
80.06000 -0.520
80.08000 2.326
80.10000 2.350
80.12000 1.224
80.14000 2.033
80.16000 4.175
80.18000 2.932
80.20000 0.406
80.22000 -1.723
80.24000 1.673
80.26000 2.069
80.28000 -0.777
80.30000 3.390
80.32000 0.980
80.34000 -1.178
80.36000 1.648
80.38000 1.713
80.40000 1.470
80.42000 2.395
80.44000 -0.227
80.46000 -1.081
80.48000 3.174
80.50000 1.785
80.52000 -0.650
80.54000 -0.240
80.56000 -2.345
80.58000 2.231
80.60000 7.055
80.62000 4.714
80.64000 2.163
80.66000 -1.139
80.68000 0.099
80.70000 -0.471
80.72000 1.628
80.74000 -0.004
80.76000 -0.003
80.78000 -1.613
80.80000 -1.956
80.82000 1.735
80.84000 4.005
80.86000 5.432
80.88000 7.036
80.90000 5.169
80.92000 -1.181
80.94000 -1.737
80.96000 -0.550
80.98000 -2.363
81.00000 0.487
81.02000 4.023
81.04000 6.582
81.06000 8.382
81.08000 4.850
81.10000 3.411
81.12000 4.233
81.14000 2.449
81.16000 4.890
81.18000 5.810
81.20000 2.307
81.22000 2.791
81.24000 5.053
81.26000 3.471
81.28000 4.143
81.30000 4.524
81.32000 3.024
81.34000 6.985
81.36000 2.847
81.38000 1.544
81.40000 3.479
81.42000 1.349
81.44000 3.619
81.46000 0.637
81.48000 2.392
81.50000 3.259
81.52000 6.393
81.54000 8.611
81.56000 5.788
81.58000 8.820
81.60000 8.804
81.62000 8.190
81.64000 8.988
81.66000 9.780
81.68000 9.013
81.70000 10.068
81.72000 7.593
81.74000 10.026
81.76000 13.596
81.78000 10.107
81.80000 10.292
81.82000 9.892
81.84000 13.268
81.86000 16.025
81.88000 13.828
81.90000 14.071
81.92000 12.609
81.94000 17.466
81.96000 19.152
81.98000 15.946
82.00000 18.489
82.02000 15.964
82.04000 12.461
82.06000 17.072
82.08000 15.955
82.10000 21.065
82.12000 24.359
82.14000 19.537
82.16000 20.761
82.18000 17.094
82.20000 20.756
82.22000 26.821
82.24000 30.444
82.26000 25.894
82.28000 25.884
82.30000 30.251
82.32000 29.355
82.34000 27.682
82.36000 29.427
82.38000 30.658
82.40000 28.136
82.42000 35.885
82.44000 31.526
82.46000 34.009
82.48000 30.329
82.50000 30.211
82.52000 36.227
82.54000 37.545
82.56000 36.433
82.58000 35.612
82.60000 37.571
82.62000 35.737
82.64000 38.799
82.66000 42.593
82.68000 43.291
82.70000 41.605
82.72000 44.694
82.74000 41.063
82.76000 40.703
82.78000 39.914
82.80000 42.683
82.82000 43.451
82.84000 40.588
82.86000 42.853
82.88000 42.588
82.90000 45.924
82.92000 47.431
82.94000 42.783
82.96000 43.428
82.98000 38.082
83.00000 39.629
83.02000 37.985
83.04000 38.683
83.06000 44.863
83.08000 37.527
83.10000 34.591
83.12000 37.223
83.14000 37.317
83.16000 37.166
83.18000 35.836
83.20000 37.639
83.22000 38.660
83.24000 32.963
83.26000 34.652
83.28000 30.225
83.30000 26.239
83.32000 33.049
83.34000 32.107
83.36000 32.193
83.38000 28.797
83.40000 29.638
83.42000 26.665
83.44000 22.367
83.46000 21.485
83.48000 20.029
83.50000 20.247
83.52000 19.185
83.54000 18.862
83.56000 24.819
83.58000 19.559
83.60000 19.027
83.62000 19.365
83.64000 15.953
83.66000 14.894
83.68000 11.171
83.70000 14.063
83.72000 17.368
83.74000 16.855
83.76000 15.991
83.78000 9.627
83.80000 6.669
83.82000 9.239
83.84000 10.503
83.86000 12.089
83.88000 14.887
83.90000 10.283
83.92000 8.466
83.94000 6.572
83.96000 3.702
83.98000 2.369
84.00000 3.156
84.02000 4.016
84.04000 6.671
84.06000 6.075
84.08000 4.527
84.10000 5.886
84.12000 6.771
84.14000 0.727
84.16000 1.942
84.18000 4.269
84.20000 3.308
84.22000 1.525
84.24000 7.966
84.26000 6.386
84.28000 6.622
84.30000 6.006
84.32000 3.424
84.34000 -0.217
84.36000 0.927
84.38000 2.922
84.40000 3.020
84.42000 4.307
84.44000 4.278
84.46000 2.656
84.48000 4.921
84.50000 0.918
84.52000 2.918
84.54000 7.088
84.56000 5.196
84.58000 3.476
84.60000 4.763
84.62000 7.385
84.64000 3.979
84.66000 1.443
84.68000 -2.330
84.70000 0.473
84.72000 2.717
84.74000 2.599
84.76000 2.170
84.78000 1.058
84.80000 1.578
84.82000 1.590
84.84000 3.273
84.86000 4.029
84.88000 3.453
84.90000 2.726
84.92000 1.779
84.94000 0.045
84.96000 1.562
84.98000 5.620
85.00000 0.267
85.02000 -2.279
85.04000 -0.007
85.06000 3.119
85.08000 2.098
85.10000 1.120
85.12000 -0.079
85.14000 3.873
85.16000 5.637
85.18000 6.131
85.20000 -0.448
85.22000 0.571
85.24000 -2.262
85.26000 -0.536
85.28000 2.785
85.30000 4.285
85.32000 0.796
85.34000 7.473
85.36000 4.841
85.38000 2.764
85.40000 3.601
85.42000 3.530
85.44000 3.918
85.46000 3.464
85.48000 0.737
85.50000 1.466
85.52000 2.806
85.54000 2.801
85.56000 4.020
85.58000 4.735
85.60000 4.832
85.62000 3.203
85.64000 5.784
85.66000 2.820
85.68000 1.940
85.70000 4.959
85.72000 8.680
85.74000 3.867
85.76000 3.244
85.78000 3.278
85.80000 -0.313
85.82000 0.417
85.84000 4.809
85.86000 2.506
85.88000 2.161
85.90000 4.602
85.92000 2.119
85.94000 2.988
85.96000 6.984
85.98000 4.088
86.00000 0.768
86.02000 -0.356
86.04000 -0.083
86.06000 0.632
86.08000 3.046
86.10000 -1.423
86.12000 -2.295
86.14000 -0.677
86.16000 2.754
86.18000 4.374
86.20000 6.109
86.22000 9.122
86.24000 5.863
86.26000 5.569
86.28000 8.468
86.30000 6.363
86.32000 6.431
86.34000 7.011
86.36000 7.466
86.38000 5.888
86.40000 11.085
86.42000 10.915
86.44000 8.454
86.46000 9.001
86.48000 8.625
86.50000 12.158
86.52000 12.397
86.54000 13.775
86.56000 12.156
86.58000 6.587
86.60000 9.886
86.62000 15.877
86.64000 16.477
86.66000 17.184
86.68000 11.353
86.70000 11.944
86.72000 14.166
86.74000 10.807
86.76000 13.944
86.78000 15.123
86.80000 13.062
86.82000 13.868
86.84000 14.659
86.86000 14.002
86.88000 14.987
86.90000 19.222
86.92000 18.720
86.94000 20.152
86.96000 19.688
86.98000 23.553
87.00000 28.292
87.02000 25.793
87.04000 23.456
87.06000 23.621
87.08000 22.497
87.10000 21.722
87.12000 25.446
87.14000 24.474
87.16000 23.618
87.18000 19.920
87.20000 26.177
87.22000 25.925
87.24000 23.038
87.26000 19.441
87.28000 22.387
87.30000 22.654
87.32000 19.200
87.34000 24.654
87.36000 26.685
87.38000 25.396
87.40000 22.955
87.42000 27.079
87.44000 21.165
87.46000 21.294
87.48000 22.083
87.50000 20.071
87.52000 19.731
87.54000 19.547
87.56000 17.001
87.58000 19.962
87.60000 15.936
87.62000 18.422
87.64000 24.281
87.66000 17.201
87.68000 14.933
87.70000 13.349
87.72000 13.201
87.74000 17.410
87.76000 13.216
87.78000 16.094
87.80000 16.591
87.82000 13.743
87.84000 14.806
87.86000 15.539
87.88000 14.802
87.90000 15.732
87.92000 12.435
87.94000 11.770
87.96000 11.219
87.98000 11.200
88.00000 11.884
88.02000 10.210
88.04000 9.743
88.06000 9.365
88.08000 8.172
88.10000 4.053
88.12000 8.254
88.14000 6.325
88.16000 7.891
88.18000 7.024
88.20000 7.997
88.22000 7.014
88.24000 7.226
88.26000 6.161
88.28000 3.805
88.30000 2.908
88.32000 4.630
88.34000 7.307
88.36000 8.103
88.38000 5.196
88.40000 5.117
88.42000 5.059
88.44000 2.337
88.46000 3.656
88.48000 0.504
88.50000 5.945
88.52000 5.981
88.54000 2.026
88.56000 3.303
88.58000 7.534
88.60000 3.479
88.62000 -0.995
88.64000 4.025
88.66000 5.521
88.68000 3.592
88.70000 4.513
88.72000 7.391
88.74000 3.387
88.76000 3.253
88.78000 3.914
88.80000 4.298
88.82000 -2.150
88.84000 1.913
88.86000 -1.463
88.88000 2.372
88.90000 0.910
88.92000 -0.102
88.94000 1.990
88.96000 5.551
88.98000 3.618
89.00000 7.368
89.02000 6.034
89.04000 4.533
89.06000 4.618
89.08000 3.564
89.10000 3.750
89.12000 2.717
89.14000 2.001
89.16000 2.969
89.18000 6.103
89.20000 7.190
89.22000 4.039
89.24000 5.272
89.26000 1.218
89.28000 1.400
89.30000 4.474
89.32000 0.741
89.34000 2.499
89.36000 6.309
89.38000 8.774
89.40000 3.233
89.42000 1.428
89.44000 1.807
89.46000 3.859
89.48000 -0.437
89.50000 0.606
89.52000 2.274
89.54000 2.229
89.56000 4.499
89.58000 2.566
89.60000 4.117
89.62000 -2.077
89.64000 2.485
89.66000 1.609
89.68000 1.943
89.70000 3.689
89.72000 6.248
89.74000 0.850
89.76000 1.727
89.78000 6.554
89.80000 8.562
89.82000 1.684
89.84000 2.113
89.86000 -2.065
89.88000 4.809
89.90000 5.902
89.92000 5.619
89.94000 2.533
89.96000 0.109
89.98000 2.452
90.00000 3.556
90.02000 3.000
90.04000 5.318
90.06000 6.434
90.08000 4.241
90.10000 3.616
90.12000 4.801
90.14000 6.387
90.16000 3.309
90.18000 1.826
90.20000 4.742
90.22000 5.261
90.24000 0.197
90.26000 3.345
90.28000 7.048
90.30000 5.964
90.32000 0.379
90.34000 -0.184
90.36000 -0.328
90.38000 3.827
90.40000 4.029
90.42000 5.080
90.44000 3.715
90.46000 4.058
90.48000 1.952
90.50000 -0.595
90.52000 3.363
90.54000 0.619
90.56000 3.361
90.58000 2.582
90.60000 2.250
90.62000 2.305
90.64000 2.412
90.66000 0.730
90.68000 0.434
90.70000 1.943
90.72000 3.265
90.74000 -0.417
90.76000 1.861
90.78000 3.654
90.80000 3.678
90.82000 3.646
90.84000 0.392
90.86000 3.807
90.88000 5.757
90.90000 4.833
90.92000 6.478
90.94000 3.281
90.96000 5.769
90.98000 4.297
91.00000 6.274
91.02000 5.342
91.04000 0.835
91.06000 -2.042
91.08000 -1.011
91.10000 2.409
91.12000 0.602
91.14000 6.858
91.16000 6.088
91.18000 2.647
91.20000 3.922
91.22000 2.841
91.24000 5.126
91.26000 1.855
91.28000 0.356
91.30000 -0.954
91.32000 1.372
91.34000 4.356
91.36000 4.128
91.38000 -0.222
91.40000 -0.234
91.42000 1.227
91.44000 6.137
91.46000 2.278
91.48000 0.874
91.50000 2.670
91.52000 4.310
91.54000 4.014
91.56000 1.777
91.58000 3.457
91.60000 2.379
91.62000 4.246
91.64000 2.619
91.66000 6.232
91.68000 6.752
91.70000 6.166
91.72000 0.804
91.74000 2.307
91.76000 2.734
91.78000 2.550
91.80000 4.857
91.82000 4.033
91.84000 4.671
91.86000 8.650
91.88000 8.086
91.90000 0.711
91.92000 -1.821
91.94000 2.321
91.96000 2.426
91.98000 4.893
92.00000 3.811
92.02000 5.859
92.04000 5.213
92.06000 8.711
92.08000 3.539
92.10000 -2.074
92.12000 -0.315
92.14000 2.875
92.16000 7.893
92.18000 5.298
92.20000 2.622
92.22000 0.321
92.24000 3.079
92.26000 4.407
92.28000 3.393
92.30000 3.956
92.32000 6.954
92.34000 5.710
92.36000 2.045
92.38000 2.940
92.40000 1.537
92.42000 1.550
92.44000 0.282
92.46000 -0.733
92.48000 3.832
92.50000 1.233
92.52000 5.270
92.54000 5.100
92.56000 2.417
92.58000 3.399
92.60000 3.808
92.62000 1.276
92.64000 2.356
92.66000 2.504
92.68000 7.178
92.70000 9.621
92.72000 5.519
92.74000 2.032
92.76000 1.990
92.78000 2.414
92.80000 1.293
92.82000 2.619
92.84000 3.509
92.86000 -0.100
92.88000 1.325
92.90000 2.711
92.92000 4.336
92.94000 1.008
92.96000 -0.680
92.98000 1.771
93.00000 0.643
93.02000 -0.871
93.04000 3.637
93.06000 3.671
93.08000 1.531
93.10000 5.659
93.12000 0.678
93.14000 -0.689
93.16000 0.375
93.18000 4.729
93.20000 4.717
93.22000 5.841
93.24000 2.936
93.26000 3.089
93.28000 6.891
93.30000 7.632
93.32000 6.701
93.34000 6.541
93.36000 5.766
93.38000 7.011
93.40000 2.854
93.42000 0.145
93.44000 0.579
93.46000 5.400
93.48000 6.013
93.50000 1.854
93.52000 -1.590
93.54000 -2.090
93.56000 3.166
93.58000 5.724
93.60000 3.898
93.62000 3.190
93.64000 1.087
93.66000 1.682
93.68000 -0.012
93.70000 2.183
93.72000 4.687
93.74000 3.123
93.76000 2.863
93.78000 -2.081
93.80000 -1.258
93.82000 1.127
93.84000 4.959
93.86000 3.281
93.88000 8.228
93.90000 7.511
93.92000 0.798
93.94000 0.410
93.96000 0.752
93.98000 -0.477
94.00000 4.201
94.02000 4.068
94.04000 3.492
94.06000 3.342
94.08000 2.583
94.10000 -0.876
94.12000 -0.846
94.14000 3.381
94.16000 4.240
94.18000 4.100
94.20000 2.584
94.22000 3.669
94.24000 2.947
94.26000 3.980
94.28000 3.914
94.30000 0.905
94.32000 -1.390
94.34000 4.441
94.36000 1.937
94.38000 0.795
94.40000 2.100
94.42000 1.964
94.44000 -0.199
94.46000 3.213
94.48000 2.024
94.50000 7.749
94.52000 5.641
94.54000 1.331
94.56000 -0.039
94.58000 1.326
94.60000 2.995
94.62000 -2.089
94.64000 0.317
94.66000 5.399
94.68000 2.387
94.70000 1.389
94.72000 0.496
94.74000 2.042
94.76000 2.520
94.78000 0.883
94.80000 1.672
94.82000 1.810
94.84000 4.349
94.86000 7.328
94.88000 8.108
94.90000 8.034
94.92000 4.973
94.94000 3.858
94.96000 4.456
94.98000 5.454
95.00000 6.234
95.02000 4.625
95.04000 1.809
95.06000 3.112
95.08000 6.945
95.10000 2.980
95.12000 2.996
95.14000 1.579
95.16000 1.246
95.18000 6.341
95.20000 4.527
95.22000 6.055
95.24000 8.143
95.26000 4.749
95.28000 3.291
95.30000 1.783
95.32000 -1.798
95.34000 -2.074
95.36000 -0.641
95.38000 6.786
95.40000 7.597
95.42000 3.441
95.44000 4.804
95.46000 5.346
95.48000 2.704
95.50000 3.107
95.52000 6.183
95.54000 5.046
95.56000 3.014
95.58000 3.098
95.60000 2.011
95.62000 3.666
95.64000 5.985
95.66000 4.384
95.68000 4.960
95.70000 6.089
95.72000 7.061
95.74000 4.107
95.76000 2.672
95.78000 2.442
95.80000 3.248
95.82000 4.164
95.84000 7.442
95.86000 5.810
95.88000 4.748
95.90000 6.988
95.92000 1.804
95.94000 1.905
95.96000 2.240
95.98000 2.436
96.00000 4.154
96.02000 4.018
96.04000 6.492
96.06000 6.598
96.08000 5.303
96.10000 4.880
96.12000 1.031
96.14000 2.851
96.16000 7.809
96.18000 10.609
96.20000 7.341
96.22000 4.248
96.24000 0.154
96.26000 5.675
96.28000 1.163
96.30000 -2.043
96.32000 -2.013
96.34000 1.845
96.36000 1.921
96.38000 0.741
96.40000 5.926
96.42000 4.386
96.44000 5.975
96.46000 6.002
96.48000 5.639
96.50000 0.849
96.52000 3.334
96.54000 3.891
96.56000 2.195
96.58000 6.078
96.60000 3.816
96.62000 3.726
96.64000 7.132
96.66000 7.438
96.68000 5.328
96.70000 4.707
96.72000 7.306
96.74000 6.879
96.76000 10.317
96.78000 10.139
96.80000 6.522
96.82000 3.106
96.84000 0.659
96.86000 -1.864
96.88000 4.659
96.90000 3.393
96.92000 6.312
96.94000 6.488
96.96000 6.258
96.98000 11.370
97.00000 9.405
97.02000 10.594
97.04000 4.688
97.06000 4.336
97.08000 2.810
97.10000 4.259
97.12000 2.611
97.14000 4.744
97.16000 6.027
97.18000 8.397
97.20000 8.281
97.22000 4.434
97.24000 6.621
97.26000 11.000
97.28000 8.160
97.30000 3.134
97.32000 7.505
97.34000 4.432
97.36000 3.462
97.38000 4.011
97.40000 7.863
97.42000 8.811
97.44000 2.876
97.46000 5.411
97.48000 8.654
97.50000 3.396
97.52000 1.786
97.54000 6.731
97.56000 6.054
97.58000 2.813
97.60000 -2.023
97.62000 1.879
97.64000 -0.146
97.66000 6.522
97.68000 2.825
97.70000 6.990
97.72000 11.511
97.74000 10.455
97.76000 1.102
97.78000 0.825
97.80000 6.976
97.82000 7.063
97.84000 4.715
97.86000 9.799
97.88000 12.003
97.90000 10.188
97.92000 12.561
97.94000 4.765
97.96000 4.920
97.98000 6.904
98.00000 7.827
98.02000 2.185
98.04000 5.454
98.06000 4.403
98.08000 7.114
98.10000 7.574
98.12000 6.748
98.14000 3.732
98.16000 2.749
98.18000 4.141
98.20000 3.671
98.22000 8.277
98.24000 3.463
98.26000 1.735
98.28000 6.228
98.30000 4.226
98.32000 1.608
98.34000 4.528
98.36000 11.340
98.38000 12.968
98.40000 5.299
98.42000 2.391
98.44000 1.027
98.46000 6.393
98.48000 6.730
98.50000 10.485
98.52000 10.368
98.54000 9.549
98.56000 -0.070
98.58000 -1.967
98.60000 4.427
98.62000 9.051
98.64000 5.494
98.66000 6.533
98.68000 8.321
98.70000 5.582
98.72000 1.719
98.74000 3.305
98.76000 9.096
98.78000 9.862
98.80000 7.483
98.82000 8.614
98.84000 9.350
98.86000 5.462
98.88000 9.249
98.90000 8.856
98.92000 6.002
98.94000 8.836
98.96000 3.110
98.98000 6.722
99.00000 10.172
99.02000 3.567
99.04000 9.757
99.06000 7.446
99.08000 4.858
99.10000 8.304
99.12000 18.998
99.14000 16.536
99.16000 14.636
99.18000 9.490
99.20000 6.098
99.22000 7.751
99.24000 10.995
99.26000 9.877
99.28000 14.555
99.30000 6.147
99.32000 13.072
99.34000 8.177
99.36000 12.083
99.38000 17.264
99.40000 17.328
99.42000 15.534
99.44000 10.427
99.46000 13.382
99.48000 6.973
99.50000 3.384
99.52000 -1.893
99.54000 3.191
99.56000 5.077
99.58000 8.380
99.60000 8.170
99.62000 16.848
99.64000 12.167
99.66000 16.724
99.68000 9.416
99.70000 4.538
99.72000 7.161
99.74000 1.374
99.76000 0.779
99.78000 3.468
99.80000 -2.073
99.82000 0.357
99.84000 1.398
99.86000 3.086
99.88000 4.020
99.90000 -2.228
99.92000 5.485
99.94000 -2.317
99.96000 -0.166
99.98000 0.000
