'Id: "0011389" Comment: "Integrate frame 0011389_Au-Ir-Rh_Au-Rich_XRD_Mapping-257-0000.gfrmwith cursor Wedge Cursor #5" Operator: "B?rgel" Anode: "Cu" Wavelength: "1.5406" Scantype: "2Theta (TwoTheta)" TimePerStep: "1" X: "31.5" Y: "18" Z: "5.95" 
10.00000 0.000
10.02000 -3.662
10.04000 3.379
10.06000 -3.547
10.08000 1.909
10.10000 12.148
10.12000 13.129
10.14000 15.437
10.16000 7.956
10.18000 6.852
10.20000 4.885
10.22000 5.167
10.24000 1.293
10.26000 2.208
10.28000 -1.127
10.30000 2.780
10.32000 7.906
10.34000 9.780
10.36000 7.488
10.38000 1.409
10.40000 4.642
10.42000 7.372
10.44000 0.367
10.46000 8.688
10.48000 11.813
10.50000 7.981
10.52000 5.180
10.54000 2.944
10.56000 9.425
10.58000 10.804
10.60000 23.120
10.62000 24.884
10.64000 15.017
10.66000 4.008
10.68000 8.595
10.70000 17.671
10.72000 16.946
10.74000 9.086
10.76000 2.304
10.78000 10.346
10.80000 16.912
10.82000 12.644
10.84000 10.484
10.86000 21.747
10.88000 22.364
10.90000 8.112
10.92000 6.036
10.94000 22.019
10.96000 21.884
10.98000 9.854
11.00000 24.750
11.02000 17.732
11.04000 11.082
11.06000 22.839
11.08000 14.149
11.10000 13.880
11.12000 20.951
11.14000 22.910
11.16000 23.888
11.18000 17.949
11.20000 11.433
11.22000 11.877
11.24000 23.671
11.26000 31.218
11.28000 16.242
11.30000 12.324
11.32000 16.344
11.34000 16.569
11.36000 21.846
11.38000 22.457
11.40000 25.394
11.42000 27.255
11.44000 26.672
11.46000 22.156
11.48000 25.322
11.50000 25.459
11.52000 28.435
11.54000 29.237
11.56000 25.901
11.58000 17.558
11.60000 14.241
11.62000 22.705
11.64000 31.438
11.66000 23.593
11.68000 32.912
11.70000 34.537
11.72000 25.459
11.74000 27.741
11.76000 27.885
11.78000 18.150
11.80000 25.447
11.82000 24.750
11.84000 22.479
11.86000 23.773
11.88000 31.619
11.90000 32.856
11.92000 29.974
11.94000 31.419
11.96000 32.532
11.98000 32.818
12.00000 30.176
12.02000 32.981
12.04000 36.412
12.06000 31.565
12.08000 26.893
12.10000 21.475
12.12000 25.241
12.14000 42.260
12.16000 40.078
12.18000 40.182
12.20000 37.375
12.22000 36.553
12.24000 31.846
12.26000 26.963
12.28000 29.797
12.30000 20.753
12.32000 15.109
12.34000 16.804
12.36000 28.072
12.38000 31.272
12.40000 44.704
12.42000 42.776
12.44000 34.254
12.46000 29.245
12.48000 40.528
12.50000 42.445
12.52000 37.546
12.54000 31.177
12.56000 25.038
12.58000 32.272
12.60000 39.169
12.62000 37.075
12.64000 40.954
12.66000 29.215
12.68000 25.329
12.70000 30.331
12.72000 30.451
12.74000 34.064
12.76000 39.347
12.78000 44.895
12.80000 35.723
12.82000 31.386
12.84000 25.189
12.86000 33.594
12.88000 38.752
12.90000 32.261
12.92000 28.109
12.94000 30.018
12.96000 30.391
12.98000 26.933
13.00000 37.304
13.02000 35.991
13.04000 35.225
13.06000 44.618
13.08000 33.996
13.10000 38.559
13.12000 36.939
13.14000 38.378
13.16000 27.848
13.18000 28.667
13.20000 38.695
13.22000 36.742
13.24000 31.079
13.26000 26.402
13.28000 29.617
13.30000 35.473
13.32000 23.377
13.34000 31.378
13.36000 37.925
13.38000 30.033
13.40000 28.082
13.42000 24.534
13.44000 20.050
13.46000 23.410
13.48000 31.868
13.50000 33.166
13.52000 34.603
13.54000 29.101
13.56000 29.715
13.58000 21.686
13.60000 27.088
13.62000 30.299
13.64000 27.038
13.66000 32.016
13.68000 28.882
13.70000 25.407
13.72000 21.519
13.74000 24.741
13.76000 28.953
13.78000 27.676
13.80000 29.579
13.82000 25.747
13.84000 21.665
13.86000 15.363
13.88000 23.579
13.90000 33.003
13.92000 31.042
13.94000 29.964
13.96000 39.728
13.98000 43.867
14.00000 36.941
14.02000 30.767
14.04000 26.117
14.06000 27.020
14.08000 24.038
14.10000 31.447
14.12000 36.027
14.14000 29.618
14.16000 23.350
14.18000 23.502
14.20000 24.371
14.22000 28.395
14.24000 23.567
14.26000 25.555
14.28000 17.416
14.30000 18.531
14.32000 26.517
14.34000 30.909
14.36000 29.572
14.38000 23.831
14.40000 19.232
14.42000 15.917
14.44000 19.186
14.46000 26.633
14.48000 25.173
14.50000 26.737
14.52000 27.989
14.54000 16.276
14.56000 19.011
14.58000 19.226
14.60000 13.891
14.62000 19.747
14.64000 23.864
14.66000 22.574
14.68000 14.319
14.70000 15.034
14.72000 15.844
14.74000 20.805
14.76000 17.968
14.78000 17.389
14.80000 14.087
14.82000 20.548
14.84000 24.984
14.86000 15.151
14.88000 24.343
14.90000 22.593
14.92000 23.433
14.94000 15.777
14.96000 17.579
14.98000 16.066
15.00000 15.158
15.02000 16.375
15.04000 21.804
15.06000 16.756
15.08000 5.848
15.10000 7.056
15.12000 14.048
15.14000 33.113
15.16000 29.689
15.18000 22.571
15.20000 21.153
15.22000 16.029
15.24000 20.188
15.26000 17.116
15.28000 20.798
15.30000 21.918
15.32000 19.194
15.34000 13.097
15.36000 12.394
15.38000 13.323
15.40000 12.652
15.42000 7.651
15.44000 10.600
15.46000 8.179
15.48000 6.369
15.50000 5.728
15.52000 12.902
15.54000 9.019
15.56000 8.950
15.58000 9.255
15.60000 11.844
15.62000 13.170
15.64000 14.808
15.66000 24.553
15.68000 20.523
15.70000 7.436
15.72000 10.684
15.74000 13.687
15.76000 20.389
15.78000 22.511
15.80000 16.092
15.82000 16.830
15.84000 17.233
15.86000 21.767
15.88000 18.356
15.90000 16.638
15.92000 18.359
15.94000 11.651
15.96000 10.443
15.98000 8.416
16.00000 4.801
16.02000 13.490
16.04000 16.551
16.06000 9.440
16.08000 1.149
16.10000 5.701
16.12000 8.037
16.14000 20.158
16.16000 16.058
16.18000 9.879
16.20000 11.548
16.22000 17.711
16.24000 18.562
16.26000 18.207
16.28000 14.172
16.30000 14.037
16.32000 14.007
16.34000 14.106
16.36000 15.515
16.38000 14.469
16.40000 8.778
16.42000 11.514
16.44000 19.801
16.46000 22.232
16.48000 18.091
16.50000 11.059
16.52000 5.053
16.54000 7.737
16.56000 2.982
16.58000 8.375
16.60000 10.630
16.62000 9.226
16.64000 9.671
16.66000 11.687
16.68000 15.363
16.70000 12.073
16.72000 7.224
16.74000 10.059
16.76000 4.869
16.78000 9.596
16.80000 5.667
16.82000 8.062
16.84000 11.485
16.86000 14.227
16.88000 11.699
16.90000 11.423
16.92000 9.567
16.94000 16.413
16.96000 16.352
16.98000 15.752
17.00000 5.932
17.02000 7.675
17.04000 8.471
17.06000 6.451
17.08000 7.119
17.10000 4.822
17.12000 5.425
17.14000 9.833
17.16000 10.112
17.18000 13.961
17.20000 14.124
17.22000 8.763
17.24000 8.557
17.26000 10.334
17.28000 2.830
17.30000 7.216
17.32000 4.433
17.34000 0.039
17.36000 8.082
17.38000 8.136
17.40000 7.124
17.42000 18.338
17.44000 11.113
17.46000 6.665
17.48000 9.573
17.50000 7.999
17.52000 -2.499
17.54000 1.431
17.56000 8.168
17.58000 3.885
17.60000 1.379
17.62000 12.314
17.64000 8.055
17.66000 4.920
17.68000 -1.214
17.70000 3.730
17.72000 13.374
17.74000 10.279
17.76000 3.330
17.78000 0.787
17.80000 4.420
17.82000 -4.378
17.84000 -0.268
17.86000 -3.556
17.88000 -3.265
17.90000 13.192
17.92000 5.780
17.94000 1.212
17.96000 6.395
17.98000 1.147
18.00000 -2.524
18.02000 1.829
18.04000 4.337
18.06000 1.514
18.08000 4.196
18.10000 1.070
18.12000 2.978
18.14000 5.257
18.16000 11.454
18.18000 16.795
18.20000 10.593
18.22000 1.079
18.24000 1.875
18.26000 7.477
18.28000 5.935
18.30000 4.664
18.32000 6.171
18.34000 6.681
18.36000 3.058
18.38000 5.946
18.40000 0.324
18.42000 7.997
18.44000 11.185
18.46000 2.128
18.48000 3.771
18.50000 8.467
18.52000 1.792
18.54000 3.594
18.56000 5.739
18.58000 4.932
18.60000 5.833
18.62000 2.564
18.64000 2.886
18.66000 3.408
18.68000 5.097
18.70000 11.116
18.72000 13.493
18.74000 4.504
18.76000 8.677
18.78000 9.024
18.80000 10.932
18.82000 -1.052
18.84000 -4.309
18.86000 0.012
18.88000 13.435
18.90000 7.492
18.92000 -3.937
18.94000 -4.015
18.96000 4.413
18.98000 6.236
19.00000 8.147
19.02000 7.580
19.04000 6.660
19.06000 8.891
19.08000 5.635
19.10000 10.471
19.12000 13.257
19.14000 11.528
19.16000 16.835
19.18000 16.559
19.20000 15.022
19.22000 6.330
19.24000 14.498
19.26000 10.470
19.28000 10.873
19.30000 6.584
19.32000 5.419
19.34000 2.681
19.36000 3.912
19.38000 8.907
19.40000 11.582
19.42000 7.808
19.44000 -0.097
19.46000 5.367
19.48000 12.393
19.50000 9.265
19.52000 6.619
19.54000 7.869
19.56000 10.380
19.58000 5.373
19.60000 1.917
19.62000 1.519
19.64000 0.965
19.66000 4.315
19.68000 1.569
19.70000 7.461
19.72000 5.025
19.74000 0.470
19.76000 2.079
19.78000 5.973
19.80000 7.028
19.82000 6.489
19.84000 8.139
19.86000 4.202
19.88000 7.665
19.90000 3.654
19.92000 -0.458
19.94000 9.842
19.96000 10.317
19.98000 8.702
20.00000 2.719
20.02000 6.721
20.04000 1.640
20.06000 -1.182
20.08000 -1.576
20.10000 1.659
20.12000 1.540
20.14000 -4.239
20.16000 -0.091
20.18000 10.793
20.20000 8.995
20.22000 8.378
20.24000 6.455
20.26000 4.126
20.28000 4.904
20.30000 9.245
20.32000 6.230
20.34000 1.708
20.36000 3.869
20.38000 2.471
20.40000 1.503
20.42000 -2.353
20.44000 5.597
20.46000 7.010
20.48000 3.231
20.50000 0.966
20.52000 1.970
20.54000 3.887
20.56000 2.815
20.58000 4.505
20.60000 3.912
20.62000 0.203
20.64000 4.824
20.66000 1.308
20.68000 4.539
20.70000 8.452
20.72000 7.750
20.74000 5.223
20.76000 4.300
20.78000 10.845
20.80000 15.909
20.82000 12.711
20.84000 12.163
20.86000 2.487
20.88000 -4.172
20.90000 0.543
20.92000 5.865
20.94000 5.100
20.96000 13.570
20.98000 10.959
21.00000 11.193
21.02000 11.752
21.04000 9.151
21.06000 5.756
21.08000 6.487
21.10000 8.587
21.12000 8.456
21.14000 9.153
21.16000 0.574
21.18000 1.921
21.20000 -4.164
21.22000 -0.648
21.24000 9.555
21.26000 6.627
21.28000 5.864
21.30000 6.784
21.32000 4.958
21.34000 0.074
21.36000 0.348
21.38000 6.066
21.40000 11.249
21.42000 11.805
21.44000 6.171
21.46000 11.070
21.48000 13.742
21.50000 1.882
21.52000 4.080
21.54000 4.864
21.56000 11.780
21.58000 12.106
21.60000 7.927
21.62000 3.047
21.64000 11.181
21.66000 10.711
21.68000 6.882
21.70000 8.040
21.72000 9.339
21.74000 9.631
21.76000 6.588
21.78000 5.420
21.80000 2.414
21.82000 3.883
21.84000 8.873
21.86000 6.791
21.88000 8.041
21.90000 9.946
21.92000 7.276
21.94000 14.320
21.96000 10.183
21.98000 7.172
22.00000 12.784
22.02000 11.743
22.04000 0.145
22.06000 3.139
22.08000 10.451
22.10000 13.618
22.12000 11.241
22.14000 12.714
22.16000 19.611
22.18000 18.091
22.20000 8.126
22.22000 4.295
22.24000 7.092
22.26000 12.601
22.28000 5.441
22.30000 -2.396
22.32000 0.628
22.34000 4.802
22.36000 5.073
22.38000 6.080
22.40000 6.996
22.42000 8.398
22.44000 -0.754
22.46000 -4.095
22.48000 7.295
22.50000 11.102
22.52000 4.903
22.54000 0.014
22.56000 9.279
22.58000 4.332
22.60000 7.042
22.62000 6.466
22.64000 8.370
22.66000 6.436
22.68000 0.487
22.70000 5.899
22.72000 7.475
22.74000 2.209
22.76000 1.831
22.78000 6.001
22.80000 6.142
22.82000 6.847
22.84000 7.933
22.86000 6.633
22.88000 10.059
22.90000 11.073
22.92000 9.632
22.94000 4.465
22.96000 12.819
22.98000 11.378
23.00000 3.690
23.02000 0.277
23.04000 9.589
23.06000 12.619
23.08000 11.124
23.10000 7.142
23.12000 6.077
23.14000 8.812
23.16000 10.425
23.18000 0.925
23.20000 0.460
23.22000 5.831
23.24000 15.124
23.26000 11.212
23.28000 8.729
23.30000 11.758
23.32000 8.480
23.34000 6.127
23.36000 4.568
23.38000 6.609
23.40000 11.667
23.42000 13.698
23.44000 9.591
23.46000 12.598
23.48000 10.523
23.50000 7.795
23.52000 1.097
23.54000 -0.069
23.56000 -4.037
23.58000 5.236
23.60000 10.687
23.62000 5.390
23.64000 1.075
23.66000 6.490
23.68000 5.932
23.70000 6.362
23.72000 3.782
23.74000 6.644
23.76000 8.199
23.78000 1.946
23.80000 6.791
23.82000 9.712
23.84000 5.051
23.86000 4.319
23.88000 2.645
23.90000 4.291
23.92000 7.094
23.94000 8.401
23.96000 7.400
23.98000 3.086
24.00000 2.922
24.02000 4.225
24.04000 6.450
24.06000 4.737
24.08000 9.625
24.10000 7.284
24.12000 3.947
24.14000 2.366
24.16000 6.282
24.18000 4.200
24.20000 2.927
24.22000 8.370
24.24000 4.758
24.26000 -0.239
24.28000 7.317
24.30000 5.073
24.32000 3.036
24.34000 2.910
24.36000 9.244
24.38000 6.361
24.40000 4.628
24.42000 2.887
24.44000 9.050
24.46000 5.514
24.48000 3.868
24.50000 4.745
24.52000 2.300
24.54000 1.265
24.56000 2.655
24.58000 6.279
24.60000 0.746
24.62000 1.843
24.64000 7.132
24.66000 2.902
24.68000 1.219
24.70000 5.952
24.72000 7.663
24.74000 2.716
24.76000 4.259
24.78000 4.351
24.80000 7.783
24.82000 8.464
24.84000 4.447
24.86000 2.806
24.88000 3.032
24.90000 2.368
24.92000 2.536
24.94000 0.989
24.96000 0.929
24.98000 4.345
25.00000 9.744
25.02000 6.933
25.04000 5.800
25.06000 8.049
25.08000 11.894
25.10000 7.938
25.12000 5.575
25.14000 2.564
25.16000 3.764
25.18000 8.302
25.20000 3.622
25.22000 -0.781
25.24000 -0.056
25.26000 5.453
25.28000 3.039
25.30000 -3.115
25.32000 -3.972
25.34000 -2.871
25.36000 2.799
25.38000 3.600
25.40000 4.992
25.42000 8.183
25.44000 4.326
25.46000 -3.812
25.48000 -0.146
25.50000 5.046
25.52000 4.669
25.54000 0.358
25.56000 3.029
25.58000 8.800
25.60000 7.422
25.62000 5.838
25.64000 3.371
25.66000 1.157
25.68000 2.325
25.70000 6.036
25.72000 5.358
25.74000 7.108
25.76000 1.194
25.78000 1.518
25.80000 0.911
25.82000 3.289
25.84000 6.157
25.86000 3.628
25.88000 -0.824
25.90000 3.895
25.92000 0.759
25.94000 3.197
25.96000 1.921
25.98000 2.541
26.00000 4.520
26.02000 4.998
26.04000 4.066
26.06000 1.289
26.08000 2.862
26.10000 5.575
26.12000 7.884
26.14000 6.094
26.16000 4.430
26.18000 2.490
26.20000 5.951
26.22000 3.258
26.24000 3.986
26.26000 -0.826
26.28000 -0.432
26.30000 3.385
26.32000 7.773
26.34000 3.556
26.36000 -0.601
26.38000 6.301
26.40000 8.045
26.42000 7.951
26.44000 6.489
26.46000 7.620
26.48000 6.521
26.50000 7.720
26.52000 7.197
26.54000 8.406
26.56000 8.408
26.58000 2.292
26.60000 -1.130
26.62000 1.006
26.64000 2.947
26.66000 0.901
26.68000 3.668
26.70000 4.090
26.72000 2.971
26.74000 -1.024
26.76000 -0.303
26.78000 5.613
26.80000 0.829
26.82000 1.712
26.84000 7.745
26.86000 4.146
26.88000 -2.891
26.90000 -1.203
26.92000 6.079
26.94000 7.685
26.96000 -1.728
26.98000 -2.306
27.00000 -0.102
27.02000 4.933
27.04000 10.116
27.06000 8.610
27.08000 5.265
27.10000 -0.011
27.12000 -3.867
27.14000 -0.226
27.16000 4.521
27.18000 4.414
27.20000 6.528
27.22000 3.325
27.24000 0.364
27.26000 1.701
27.28000 2.062
27.30000 2.938
27.32000 7.380
27.34000 6.560
27.36000 6.139
27.38000 3.443
27.40000 8.110
27.42000 5.837
27.44000 3.527
27.46000 0.058
27.48000 6.809
27.50000 2.303
27.52000 2.903
27.54000 2.202
27.56000 3.431
27.58000 1.637
27.60000 3.903
27.62000 1.845
27.64000 0.004
27.66000 2.104
27.68000 5.392
27.70000 7.356
27.72000 10.912
27.74000 5.135
27.76000 0.168
27.78000 -1.381
27.80000 1.521
27.82000 1.707
27.84000 2.839
27.86000 -0.825
27.88000 -0.819
27.90000 1.830
27.92000 0.146
27.94000 -3.558
27.96000 0.900
27.98000 7.306
28.00000 7.409
28.02000 8.349
28.04000 -1.960
28.06000 2.656
28.08000 7.308
28.10000 0.289
28.12000 -1.097
28.14000 1.370
28.16000 2.901
28.18000 -3.004
28.20000 1.372
28.22000 0.194
28.24000 4.327
28.26000 1.303
28.28000 -3.831
28.30000 0.569
28.32000 -1.269
28.34000 -3.477
28.36000 2.599
28.38000 3.450
28.40000 5.305
28.42000 2.447
28.44000 2.222
28.46000 4.029
28.48000 5.808
28.50000 5.799
28.52000 4.210
28.54000 3.063
28.56000 5.592
28.58000 7.468
28.60000 -1.205
28.62000 2.419
28.64000 4.185
28.66000 1.751
28.68000 0.314
28.70000 -3.298
28.72000 1.122
28.74000 2.594
28.76000 3.658
28.78000 6.189
28.80000 -0.910
28.82000 -2.644
28.84000 0.885
28.86000 2.864
28.88000 -0.165
28.90000 5.303
28.92000 1.469
28.94000 -2.642
28.96000 -3.157
28.98000 3.950
29.00000 2.874
29.02000 2.500
29.04000 5.380
29.06000 6.466
29.08000 4.711
29.10000 9.082
29.12000 10.212
29.14000 4.732
29.16000 3.572
29.18000 3.210
29.20000 1.728
29.22000 1.697
29.24000 -0.616
29.26000 -1.750
29.28000 2.292
29.30000 5.269
29.32000 5.368
29.34000 5.188
29.36000 1.666
29.38000 2.082
29.40000 -3.421
29.42000 -1.076
29.44000 -2.317
29.46000 -0.212
29.48000 1.548
29.50000 3.567
29.52000 3.397
29.54000 2.141
29.56000 3.734
29.58000 0.050
29.60000 -1.648
29.62000 1.410
29.64000 2.235
29.66000 2.415
29.68000 3.338
29.70000 0.754
29.72000 -1.663
29.74000 -3.763
29.76000 -0.926
29.78000 0.195
29.80000 4.187
29.82000 1.519
29.84000 1.176
29.86000 1.665
29.88000 3.486
29.90000 8.080
29.92000 3.490
29.94000 0.480
29.96000 4.399
29.98000 2.597
30.00000 -0.901
30.02000 4.538
30.04000 5.555
30.06000 3.640
30.08000 5.171
30.10000 3.279
30.12000 2.535
30.14000 0.932
30.16000 -0.237
30.18000 -0.966
30.20000 3.144
30.22000 9.129
30.24000 3.365
30.26000 1.751
30.28000 2.265
30.30000 -1.376
30.32000 2.634
30.34000 4.170
30.36000 3.321
30.38000 6.384
30.40000 8.739
30.42000 7.312
30.44000 5.734
30.46000 3.742
30.48000 3.644
30.50000 -0.661
30.52000 1.871
30.54000 4.748
30.56000 4.266
30.58000 3.917
30.60000 4.735
30.62000 5.543
30.64000 3.706
30.66000 3.281
30.68000 5.526
30.70000 11.263
30.72000 9.545
30.74000 5.915
30.76000 2.476
30.78000 1.205
30.80000 3.098
30.82000 3.338
30.84000 3.655
30.86000 3.701
30.88000 6.271
30.90000 8.226
30.92000 4.943
30.94000 1.826
30.96000 -3.688
30.98000 0.613
31.00000 -1.954
31.02000 0.732
31.04000 8.507
31.06000 6.270
31.08000 4.605
31.10000 6.546
31.12000 3.543
31.14000 4.631
31.16000 4.571
31.18000 5.853
31.20000 6.850
31.22000 4.302
31.24000 4.707
31.26000 7.186
31.28000 4.214
31.30000 2.243
31.32000 1.049
31.34000 4.470
31.36000 5.571
31.38000 1.724
31.40000 2.019
31.42000 1.787
31.44000 -2.912
31.46000 0.285
31.48000 1.859
31.50000 1.434
31.52000 3.243
31.54000 0.076
31.56000 0.167
31.58000 3.761
31.60000 1.809
31.62000 2.996
31.64000 1.917
31.66000 3.539
31.68000 3.922
31.70000 4.060
31.72000 3.289
31.74000 2.801
31.76000 3.443
31.78000 5.919
31.80000 -0.396
31.82000 -2.918
31.84000 -1.893
31.86000 3.532
31.88000 4.038
31.90000 4.632
31.92000 6.441
31.94000 6.347
31.96000 1.030
31.98000 2.333
32.00000 3.386
32.02000 7.330
32.04000 4.624
32.06000 1.322
32.08000 -1.362
32.10000 3.878
32.12000 0.698
32.14000 -0.981
32.16000 -1.578
32.18000 -1.715
32.20000 0.980
32.22000 -3.290
32.24000 -0.757
32.26000 3.352
32.28000 0.871
32.30000 -2.186
32.32000 -0.293
32.34000 -0.783
32.36000 1.332
32.38000 2.588
32.40000 7.241
32.42000 6.147
32.44000 6.178
32.46000 3.132
32.48000 -1.109
32.50000 -2.721
32.52000 3.623
32.54000 1.353
32.56000 1.289
32.58000 3.869
32.60000 -0.635
32.62000 -3.654
32.64000 -3.457
32.66000 3.736
32.68000 7.531
32.70000 7.875
32.72000 4.989
32.74000 1.358
32.76000 -1.046
32.78000 2.961
32.80000 7.483
32.82000 8.231
32.84000 6.239
32.86000 1.914
32.88000 1.729
32.90000 1.166
32.92000 -1.007
32.94000 -2.380
32.96000 0.094
32.98000 -0.864
33.00000 -1.365
33.02000 1.006
33.04000 1.307
33.06000 3.501
33.08000 4.731
33.10000 2.957
33.12000 7.739
33.14000 7.182
33.16000 4.377
33.18000 2.214
33.20000 6.085
33.22000 5.900
33.24000 9.907
33.26000 5.693
33.28000 6.194
33.30000 1.673
33.32000 0.286
33.34000 4.356
33.36000 9.019
33.38000 3.777
33.40000 6.350
33.42000 11.441
33.44000 7.658
33.46000 -0.206
33.48000 5.719
33.50000 7.304
33.52000 5.616
33.54000 6.026
33.56000 6.078
33.58000 8.346
33.60000 5.654
33.62000 7.646
33.64000 7.141
33.66000 0.802
33.68000 1.408
33.70000 4.574
33.72000 7.307
33.74000 8.951
33.76000 3.687
33.78000 4.824
33.80000 8.773
33.82000 4.541
33.84000 -0.460
33.86000 1.043
33.88000 5.133
33.90000 5.587
33.92000 14.121
33.94000 18.562
33.96000 12.003
33.98000 10.941
34.00000 8.202
34.02000 4.693
34.04000 2.862
34.06000 0.155
34.08000 1.059
34.10000 7.125
34.12000 6.974
34.14000 8.738
34.16000 5.890
34.18000 11.781
34.20000 13.249
34.22000 5.096
34.24000 -0.643
34.26000 1.297
34.28000 8.039
34.30000 6.331
34.32000 3.953
34.34000 -3.592
34.36000 1.324
34.38000 8.054
34.40000 8.660
34.42000 8.994
34.44000 6.348
34.46000 6.021
34.48000 4.517
34.50000 8.853
34.52000 10.726
34.54000 7.504
34.56000 9.143
34.58000 6.929
34.60000 3.249
34.62000 6.670
34.64000 4.250
34.66000 6.983
34.68000 8.274
34.70000 1.458
34.72000 0.393
34.74000 6.977
34.76000 5.135
34.78000 5.596
34.80000 1.482
34.82000 5.028
34.84000 6.165
34.86000 2.668
34.88000 3.603
34.90000 4.138
34.92000 3.608
34.94000 2.774
34.96000 3.886
34.98000 0.875
35.00000 -0.151
35.02000 0.629
35.04000 1.067
35.06000 0.543
35.08000 2.136
35.10000 4.144
35.12000 -0.916
35.14000 -1.789
35.16000 3.220
35.18000 0.927
35.20000 2.278
35.22000 2.596
35.24000 2.721
35.26000 3.321
35.28000 1.665
35.30000 2.539
35.32000 1.656
35.34000 1.367
35.36000 1.338
35.38000 -0.491
35.40000 -0.369
35.42000 5.510
35.44000 7.409
35.46000 8.041
35.48000 -0.796
35.50000 1.048
35.52000 -1.180
35.54000 -3.614
35.56000 -2.007
35.58000 0.244
35.60000 3.343
35.62000 5.549
35.64000 3.836
35.66000 5.728
35.68000 0.625
35.70000 3.557
35.72000 8.514
35.74000 5.650
35.76000 4.824
35.78000 2.672
35.80000 -1.115
35.82000 -0.072
35.84000 -2.789
35.86000 0.177
35.88000 4.783
35.90000 5.402
35.92000 4.607
35.94000 0.427
35.96000 3.481
35.98000 0.694
36.00000 -0.819
36.02000 0.121
36.04000 -0.795
36.06000 0.552
36.08000 1.259
36.10000 3.429
36.12000 7.195
36.14000 8.685
36.16000 2.203
36.18000 3.628
36.20000 4.237
36.22000 3.741
36.24000 0.857
36.26000 1.224
36.28000 0.233
36.30000 -0.241
36.32000 -1.770
36.34000 -2.218
36.36000 3.969
36.38000 6.474
36.40000 1.022
36.42000 3.353
36.44000 4.111
36.46000 2.252
36.48000 -3.672
36.50000 -1.714
36.52000 3.369
36.54000 4.372
36.56000 6.238
36.58000 5.354
36.60000 9.064
36.62000 2.835
36.64000 1.776
36.66000 0.751
36.68000 2.935
36.70000 7.725
36.72000 6.604
36.74000 5.650
36.76000 5.777
36.78000 1.272
36.80000 3.150
36.82000 2.046
36.84000 8.844
36.86000 7.726
36.88000 7.378
36.90000 4.029
36.92000 0.457
36.94000 1.481
36.96000 -2.428
36.98000 -1.331
37.00000 1.362
37.02000 7.739
37.04000 11.623
37.06000 12.687
37.08000 7.571
37.10000 6.103
37.12000 1.239
37.14000 2.285
37.16000 0.052
37.18000 0.292
37.20000 -0.946
37.22000 3.721
37.24000 3.120
37.26000 2.497
37.28000 5.659
37.30000 9.073
37.32000 8.952
37.34000 7.866
37.36000 6.605
37.38000 9.510
37.40000 11.798
37.42000 11.374
37.44000 9.208
37.46000 10.318
37.48000 8.678
37.50000 15.135
37.52000 17.438
37.54000 15.966
37.56000 13.076
37.58000 13.990
37.60000 14.958
37.62000 13.703
37.64000 14.673
37.66000 15.407
37.68000 10.180
37.70000 12.055
37.72000 15.968
37.74000 23.136
37.76000 20.368
37.78000 16.068
37.80000 15.024
37.82000 21.856
37.84000 23.556
37.86000 18.920
37.88000 14.977
37.90000 19.701
37.92000 21.583
37.94000 18.239
37.96000 20.659
37.98000 24.017
38.00000 26.772
38.02000 27.881
38.04000 29.766
38.06000 24.985
38.08000 25.708
38.10000 33.974
38.12000 31.212
38.14000 32.222
38.16000 34.948
38.18000 34.899
38.20000 38.714
38.22000 40.197
38.24000 37.760
38.26000 38.200
38.28000 36.560
38.30000 34.683
38.32000 36.293
38.34000 40.198
38.36000 44.530
38.38000 45.990
38.40000 49.199
38.42000 52.816
38.44000 57.248
38.46000 56.717
38.48000 57.567
38.50000 61.431
38.52000 59.092
38.54000 60.888
38.56000 66.091
38.58000 70.151
38.60000 79.250
38.62000 79.537
38.64000 84.019
38.66000 90.695
38.68000 91.387
38.70000 95.434
38.72000 99.916
38.74000 102.942
38.76000 111.925
38.78000 114.601
38.80000 119.728
38.82000 129.630
38.84000 137.696
38.86000 141.374
38.88000 144.605
38.90000 153.126
38.92000 167.821
38.94000 180.857
38.96000 191.563
38.98000 200.213
39.00000 207.025
39.02000 221.096
39.04000 235.949
39.06000 246.924
39.08000 261.255
39.10000 281.292
39.12000 285.744
39.14000 308.795
39.16000 324.433
39.18000 341.358
39.20000 360.490
39.22000 380.396
39.24000 399.340
39.26000 417.738
39.28000 439.756
39.30000 456.540
39.32000 473.258
39.34000 495.315
39.36000 511.527
39.38000 526.580
39.40000 537.655
39.42000 547.469
39.44000 555.480
39.46000 563.567
39.48000 575.275
39.50000 586.268
39.52000 584.063
39.54000 581.479
39.56000 584.516
39.58000 568.278
39.60000 568.813
39.62000 559.052
39.64000 539.988
39.66000 529.633
39.68000 513.069
39.70000 495.169
39.72000 488.614
39.74000 466.054
39.76000 440.715
39.78000 425.793
39.80000 409.087
39.82000 381.188
39.84000 352.261
39.86000 338.422
39.88000 324.822
39.90000 302.799
39.92000 289.279
39.94000 278.783
39.96000 262.538
39.98000 238.502
40.00000 221.900
40.02000 204.742
40.04000 193.924
40.06000 185.657
40.08000 174.006
40.10000 163.039
40.12000 150.114
40.14000 138.794
40.16000 129.367
40.18000 115.873
40.20000 114.684
40.22000 99.613
40.24000 98.064
40.26000 102.456
40.28000 97.552
40.30000 81.948
40.32000 78.988
40.34000 75.993
40.36000 70.060
40.38000 69.878
40.40000 62.078
40.42000 54.674
40.44000 52.069
40.46000 52.279
40.48000 51.460
40.50000 47.356
40.52000 47.368
40.54000 47.871
40.56000 42.058
40.58000 41.824
40.60000 38.735
40.62000 34.696
40.64000 34.321
40.66000 26.917
40.68000 26.858
40.70000 26.715
40.72000 32.718
40.74000 30.038
40.76000 22.241
40.78000 21.306
40.80000 19.487
40.82000 21.673
40.84000 18.828
40.86000 14.037
40.88000 15.745
40.90000 16.406
40.92000 17.406
40.94000 16.685
40.96000 17.343
40.98000 15.086
41.00000 15.675
41.02000 13.092
41.04000 9.492
41.06000 10.667
41.08000 8.147
41.10000 8.640
41.12000 8.247
41.14000 7.157
41.16000 8.284
41.18000 9.785
41.20000 10.635
41.22000 11.002
41.24000 8.571
41.26000 7.060
41.28000 5.685
41.30000 8.190
41.32000 7.884
41.34000 6.270
41.36000 5.025
41.38000 6.368
41.40000 2.368
41.42000 2.856
41.44000 8.245
41.46000 6.965
41.48000 3.702
41.50000 5.071
41.52000 4.598
41.54000 3.190
41.56000 1.202
41.58000 -2.543
41.60000 1.743
41.62000 4.417
41.64000 7.886
41.66000 7.175
41.68000 2.767
41.70000 3.768
41.72000 -0.095
41.74000 1.040
41.76000 1.680
41.78000 -1.250
41.80000 2.555
41.82000 -3.381
41.84000 -0.655
41.86000 1.334
41.88000 2.777
41.90000 1.445
41.92000 2.267
41.94000 2.474
41.96000 1.267
41.98000 1.879
42.00000 1.074
42.02000 3.361
42.04000 4.780
42.06000 2.249
42.08000 2.132
42.10000 0.983
42.12000 -1.003
42.14000 0.514
42.16000 -1.840
42.18000 0.935
42.20000 -0.306
42.22000 -1.952
42.24000 -2.421
42.26000 -3.315
42.28000 -2.771
42.30000 1.155
42.32000 3.432
42.34000 1.448
42.36000 0.255
42.38000 2.684
42.40000 1.347
42.42000 2.046
42.44000 4.154
42.46000 5.543
42.48000 5.996
42.50000 0.198
42.52000 -1.086
42.54000 2.527
42.56000 1.761
42.58000 0.044
42.60000 -1.226
42.62000 -0.537
42.64000 1.400
42.66000 -2.808
42.68000 -0.597
42.70000 1.218
42.72000 1.846
42.74000 0.522
42.76000 3.969
42.78000 3.644
42.80000 2.550
42.82000 -0.925
42.84000 -2.996
42.86000 -1.351
42.88000 -0.875
42.90000 0.005
42.92000 1.983
42.94000 1.290
42.96000 0.643
42.98000 -0.999
43.00000 -1.618
43.02000 -1.191
43.04000 0.046
43.06000 4.698
43.08000 6.738
43.10000 3.937
43.12000 1.619
43.14000 0.546
43.16000 -1.142
43.18000 -2.209
43.20000 -3.163
43.22000 0.288
43.24000 4.952
43.26000 4.679
43.28000 3.982
43.30000 4.240
43.32000 3.364
43.34000 1.140
43.36000 1.619
43.38000 0.871
43.40000 2.333
43.42000 2.540
43.44000 1.447
43.46000 0.537
43.48000 4.567
43.50000 4.352
43.52000 2.983
43.54000 2.639
43.56000 -0.010
43.58000 2.128
43.60000 0.120
43.62000 0.170
43.64000 -0.527
43.66000 -1.128
43.68000 -0.351
43.70000 -1.905
43.72000 -1.217
43.74000 3.371
43.76000 4.345
43.78000 0.975
43.80000 -1.971
43.82000 -0.583
43.84000 -1.533
43.86000 -1.358
43.88000 -1.750
43.90000 1.381
43.92000 -1.392
43.94000 1.061
43.96000 0.973
43.98000 0.214
44.00000 -1.973
44.02000 -1.848
44.04000 0.929
44.06000 4.185
44.08000 0.998
44.10000 2.284
44.12000 1.579
44.14000 1.648
44.16000 0.815
44.18000 -1.851
44.20000 -1.305
44.22000 -1.499
44.24000 -1.433
44.26000 -1.732
44.28000 1.188
44.30000 4.460
44.32000 2.895
44.34000 -0.659
44.36000 1.127
44.38000 -1.084
44.40000 -1.417
44.42000 0.474
44.44000 -1.485
44.46000 2.489
44.48000 -0.013
44.50000 -0.779
44.52000 1.419
44.54000 -2.464
44.56000 -0.462
44.58000 1.167
44.60000 2.928
44.62000 1.584
44.64000 0.306
44.66000 1.333
44.68000 -3.112
44.70000 0.394
44.72000 3.707
44.74000 1.772
44.76000 3.532
44.78000 6.797
44.80000 3.739
44.82000 1.534
44.84000 0.520
44.86000 2.831
44.88000 1.010
44.90000 5.949
44.92000 7.372
44.94000 7.623
44.96000 6.833
44.98000 3.453
45.00000 7.326
45.02000 8.832
45.04000 8.074
45.06000 7.549
45.08000 5.813
45.10000 7.386
45.12000 8.409
45.14000 12.182
45.16000 11.793
45.18000 14.139
45.20000 14.200
45.22000 12.396
45.24000 14.911
45.26000 16.938
45.28000 12.944
45.30000 13.110
45.32000 13.052
45.34000 15.501
45.36000 18.172
45.38000 18.967
45.40000 21.373
45.42000 21.820
45.44000 23.537
45.46000 24.095
45.48000 22.822
45.50000 24.560
45.52000 23.916
45.54000 21.691
45.56000 21.345
45.58000 26.638
45.60000 22.591
45.62000 23.796
45.64000 33.693
45.66000 31.244
45.68000 32.417
45.70000 35.462
45.72000 36.739
45.74000 38.845
45.76000 40.633
45.78000 45.126
45.80000 44.959
45.82000 45.826
45.84000 45.827
45.86000 46.887
45.88000 47.281
45.90000 51.886
45.92000 51.697
45.94000 51.288
45.96000 52.607
45.98000 53.529
46.00000 56.179
46.02000 54.939
46.04000 57.417
46.06000 54.606
46.08000 56.274
46.10000 59.012
46.12000 56.750
46.14000 62.169
46.16000 66.263
46.18000 66.054
46.20000 64.617
46.22000 61.600
46.24000 62.149
46.26000 64.010
46.28000 63.349
46.30000 61.048
46.32000 62.265
46.34000 62.180
46.36000 61.939
46.38000 62.778
46.40000 64.362
46.42000 65.529
46.44000 62.471
46.46000 54.957
46.48000 55.462
46.50000 54.597
46.52000 48.140
46.54000 53.212
46.56000 51.543
46.58000 51.084
46.60000 46.672
46.62000 45.157
46.64000 42.618
46.66000 43.006
46.68000 41.897
46.70000 37.498
46.72000 32.061
46.74000 32.307
46.76000 32.800
46.78000 34.366
46.80000 30.278
46.82000 28.982
46.84000 24.764
46.86000 23.019
46.88000 25.785
46.90000 27.666
46.92000 23.171
46.94000 22.716
46.96000 19.462
46.98000 17.025
47.00000 16.462
47.02000 13.605
47.04000 11.150
47.06000 11.518
47.08000 13.215
47.10000 11.401
47.12000 11.787
47.14000 12.625
47.16000 12.689
47.18000 9.920
47.20000 7.201
47.22000 5.998
47.24000 7.820
47.26000 8.188
47.28000 2.832
47.30000 2.347
47.32000 3.449
47.34000 3.301
47.36000 0.460
47.38000 3.308
47.40000 2.100
47.42000 1.708
47.44000 3.694
47.46000 2.557
47.48000 3.259
47.50000 1.914
47.52000 3.875
47.54000 2.423
47.56000 -1.917
47.58000 0.559
47.60000 1.864
47.62000 3.589
47.64000 1.213
47.66000 1.331
47.68000 2.877
47.70000 1.370
47.72000 -2.074
47.74000 0.115
47.76000 0.261
47.78000 4.194
47.80000 -1.972
47.82000 -1.962
47.84000 0.021
47.86000 -2.700
47.88000 -0.185
47.90000 -0.066
47.92000 -0.854
47.94000 1.862
47.96000 4.713
47.98000 2.981
48.00000 2.518
48.02000 0.356
48.04000 -1.125
48.06000 4.177
48.08000 4.540
48.10000 6.422
48.12000 3.199
48.14000 3.686
48.16000 4.532
48.18000 2.518
48.20000 0.205
48.22000 0.778
48.24000 -2.178
48.26000 -2.635
48.28000 -1.439
48.30000 0.209
48.32000 -1.268
48.34000 0.321
48.36000 1.132
48.38000 1.941
48.40000 2.807
48.42000 0.312
48.44000 1.485
48.46000 3.937
48.48000 3.727
48.50000 5.702
48.52000 2.829
48.54000 -0.268
48.56000 -1.369
48.58000 -0.613
48.60000 1.644
48.62000 2.314
48.64000 1.118
48.66000 -2.576
48.68000 2.313
48.70000 -0.477
48.72000 0.319
48.74000 -0.051
48.76000 1.171
48.78000 3.539
48.80000 5.467
48.82000 4.999
48.84000 5.256
48.86000 5.426
48.88000 4.163
48.90000 2.113
48.92000 -0.056
48.94000 4.052
48.96000 3.468
48.98000 3.460
49.00000 1.562
49.02000 2.557
49.04000 3.698
49.06000 2.439
49.08000 0.459
49.10000 5.325
49.12000 7.854
49.14000 5.085
49.16000 -0.726
49.18000 1.485
49.20000 3.839
49.22000 2.684
49.24000 0.630
49.26000 3.416
49.28000 4.577
49.30000 2.499
49.32000 -2.526
49.34000 -0.856
49.36000 2.325
49.38000 1.886
49.40000 0.164
49.42000 4.589
49.44000 4.730
49.46000 1.887
49.48000 5.839
49.50000 6.289
49.52000 3.519
49.54000 6.456
49.56000 3.875
49.58000 1.503
49.60000 2.159
49.62000 4.450
49.64000 4.634
49.66000 3.017
49.68000 4.344
49.70000 4.283
49.72000 3.907
49.74000 2.516
49.76000 -0.548
49.78000 -0.200
49.80000 -1.004
49.82000 -0.407
49.84000 -0.378
49.86000 -1.879
49.88000 -1.529
49.90000 0.499
49.92000 0.811
49.94000 1.905
49.96000 2.912
49.98000 1.537
50.00000 0.564
50.02000 2.044
50.04000 2.677
50.06000 1.913
50.08000 3.920
50.10000 3.324
50.12000 0.652
50.14000 -0.103
50.16000 0.217
50.18000 2.765
50.20000 0.009
50.22000 1.164
50.24000 -0.611
50.26000 3.204
50.28000 4.974
50.30000 5.602
50.32000 3.323
50.34000 1.561
50.36000 0.603
50.38000 2.111
50.40000 2.647
50.42000 3.340
50.44000 0.704
50.46000 1.371
50.48000 2.702
50.50000 4.266
50.52000 4.111
50.54000 0.897
50.56000 -0.853
50.58000 0.518
50.60000 2.745
50.62000 1.861
50.64000 2.694
50.66000 1.661
50.68000 2.514
50.70000 2.887
50.72000 3.183
50.74000 2.735
50.76000 -0.407
50.78000 -1.189
50.80000 1.283
50.82000 -0.078
50.84000 -2.496
50.86000 -0.435
50.88000 1.945
50.90000 1.573
50.92000 3.401
50.94000 4.866
50.96000 3.294
50.98000 3.160
51.00000 2.396
51.02000 3.305
51.04000 1.533
51.06000 4.486
51.08000 4.875
51.10000 1.114
51.12000 0.629
51.14000 0.981
51.16000 -1.924
51.18000 0.224
51.20000 -0.331
51.22000 3.334
51.24000 3.168
51.26000 2.363
51.28000 0.218
51.30000 2.243
51.32000 1.553
51.34000 -2.166
51.36000 -0.560
51.38000 0.899
51.40000 -1.124
51.42000 0.576
51.44000 -0.936
51.46000 -1.677
51.48000 -2.476
51.50000 3.893
51.52000 0.804
51.54000 0.074
51.56000 1.276
51.58000 0.691
51.60000 1.716
51.62000 2.546
51.64000 3.047
51.66000 5.024
51.68000 3.924
51.70000 4.409
51.72000 2.295
51.74000 -0.536
51.76000 -2.080
51.78000 1.979
51.80000 4.431
51.82000 3.149
51.84000 3.439
51.86000 4.646
51.88000 1.750
51.90000 2.017
51.92000 2.612
51.94000 3.882
51.96000 3.887
51.98000 3.197
52.00000 1.325
52.02000 0.614
52.04000 -2.096
52.06000 -2.295
52.08000 0.393
52.10000 3.290
52.12000 -1.330
52.14000 -1.032
52.16000 -2.410
52.18000 -2.432
52.20000 3.239
52.22000 4.986
52.24000 7.703
52.26000 5.086
52.28000 1.592
52.30000 -0.010
52.32000 2.762
52.34000 3.373
52.36000 0.257
52.38000 0.268
52.40000 2.580
52.42000 2.795
52.44000 2.728
52.46000 2.582
52.48000 1.795
52.50000 6.123
52.52000 5.422
52.54000 1.179
52.56000 5.273
52.58000 3.087
52.60000 0.101
52.62000 4.090
52.64000 4.471
52.66000 2.144
52.68000 -1.676
52.70000 0.701
52.72000 1.721
52.74000 1.111
52.76000 2.793
52.78000 1.169
52.80000 2.015
52.82000 2.193
52.84000 -0.201
52.86000 -1.418
52.88000 2.763
52.90000 3.914
52.92000 1.049
52.94000 0.601
52.96000 -0.351
52.98000 2.962
53.00000 2.097
53.02000 -0.049
53.04000 -0.402
53.06000 -2.437
53.08000 1.547
53.10000 0.156
53.12000 -0.258
53.14000 0.017
53.16000 2.918
53.18000 4.377
53.20000 2.251
53.22000 -2.287
53.24000 -0.393
53.26000 4.751
53.28000 3.724
53.30000 3.346
53.32000 2.095
53.34000 3.439
53.36000 1.490
53.38000 -0.957
53.40000 2.411
53.42000 2.611
53.44000 2.196
53.46000 -0.506
53.48000 -0.714
53.50000 1.510
53.52000 6.111
53.54000 3.735
53.56000 1.839
53.58000 -1.584
53.60000 -1.027
53.62000 -1.717
53.64000 3.240
53.66000 0.889
53.68000 1.177
53.70000 1.390
53.72000 -2.430
53.74000 0.098
53.76000 0.875
53.78000 3.162
53.80000 1.218
53.82000 2.037
53.84000 5.123
53.86000 3.396
53.88000 2.493
53.90000 1.365
53.92000 1.201
53.94000 2.530
53.96000 7.556
53.98000 3.507
54.00000 3.053
54.02000 2.769
54.04000 -0.178
54.06000 -0.494
54.08000 -0.349
54.10000 4.570
54.12000 2.981
54.14000 2.808
54.16000 2.171
54.18000 2.196
54.20000 2.031
54.22000 0.043
54.24000 3.298
54.26000 0.415
54.28000 0.143
54.30000 1.710
54.32000 5.627
54.34000 0.939
54.36000 2.365
54.38000 3.251
54.40000 0.116
54.42000 -2.278
54.44000 -0.020
54.46000 1.991
54.48000 0.157
54.50000 -2.397
54.52000 -0.425
54.54000 -1.277
54.56000 3.308
54.58000 5.855
54.60000 3.469
54.62000 4.506
54.64000 3.932
54.66000 1.109
54.68000 -0.024
54.70000 0.226
54.72000 3.261
54.74000 3.853
54.76000 3.759
54.78000 5.345
54.80000 4.410
54.82000 0.934
54.84000 2.584
54.86000 2.495
54.88000 4.785
54.90000 2.102
54.92000 4.308
54.94000 1.058
54.96000 -2.358
54.98000 1.643
55.00000 6.432
55.02000 6.299
55.04000 6.034
55.06000 3.642
55.08000 4.340
55.10000 1.325
55.12000 -0.018
55.14000 0.086
55.16000 5.123
55.18000 3.739
55.20000 4.954
55.22000 4.758
55.24000 2.572
55.26000 3.189
55.28000 2.003
55.30000 5.577
55.32000 1.819
55.34000 -0.087
55.36000 -0.048
55.38000 -0.618
55.40000 1.420
55.42000 -0.482
55.44000 -1.067
55.46000 -0.122
55.48000 -0.542
55.50000 0.791
55.52000 3.038
55.54000 4.082
55.56000 0.195
55.58000 0.745
55.60000 -2.381
55.62000 -0.149
55.64000 0.776
55.66000 0.915
55.68000 0.118
55.70000 -0.583
55.72000 0.271
55.74000 0.832
55.76000 -0.624
55.78000 -0.462
55.80000 -0.767
55.82000 -1.549
55.84000 2.079
55.86000 1.697
55.88000 -2.384
55.90000 -2.183
55.92000 1.282
55.94000 -0.974
55.96000 0.241
55.98000 -1.536
56.00000 -0.440
56.02000 2.229
56.04000 2.417
56.06000 0.847
56.08000 -1.529
56.10000 -1.009
56.12000 -1.569
56.14000 -1.898
56.16000 -2.308
56.18000 0.188
56.20000 0.332
56.22000 -1.511
56.24000 -1.161
56.26000 -0.325
56.28000 1.418
56.30000 0.808
56.32000 1.594
56.34000 -2.093
56.36000 -0.389
56.38000 -0.437
56.40000 -0.551
56.42000 1.253
56.44000 -0.076
56.46000 1.608
56.48000 5.349
56.50000 0.631
56.52000 1.268
56.54000 2.888
56.56000 -0.230
56.58000 -1.377
56.60000 -1.001
56.62000 -1.404
56.64000 1.153
56.66000 3.360
56.68000 3.168
56.70000 3.076
56.72000 2.418
56.74000 1.789
56.76000 2.824
56.78000 5.013
56.80000 3.103
56.82000 2.811
56.84000 3.160
56.86000 1.105
56.88000 -0.990
56.90000 1.799
56.92000 5.182
56.94000 3.731
56.96000 -0.205
56.98000 1.896
57.00000 3.815
57.02000 3.393
57.04000 3.522
57.06000 2.732
57.08000 3.266
57.10000 4.190
57.12000 -1.045
57.14000 -1.991
57.16000 5.254
57.18000 3.075
57.20000 -2.322
57.22000 0.191
57.24000 2.515
57.26000 -0.243
57.28000 1.195
57.30000 3.382
57.32000 2.393
57.34000 1.963
57.36000 2.377
57.38000 3.255
57.40000 -0.862
57.42000 2.212
57.44000 5.845
57.46000 4.730
57.48000 3.576
57.50000 4.733
57.52000 1.605
57.54000 -1.404
57.56000 1.524
57.58000 0.825
57.60000 0.660
57.62000 1.273
57.64000 0.478
57.66000 -0.756
57.68000 0.230
57.70000 1.845
57.72000 3.246
57.74000 1.683
57.76000 2.798
57.78000 4.812
57.80000 1.858
57.82000 -1.490
57.84000 1.617
57.86000 1.303
57.88000 -2.298
57.90000 -1.926
57.92000 0.119
57.94000 1.603
57.96000 1.545
57.98000 3.765
58.00000 3.833
58.02000 3.648
58.04000 1.885
58.06000 -0.653
58.08000 1.109
58.10000 3.268
58.12000 1.967
58.14000 0.982
58.16000 0.868
58.18000 0.837
58.20000 0.970
58.22000 0.080
58.24000 -0.274
58.26000 4.010
58.28000 2.809
58.30000 0.420
58.32000 -1.143
58.34000 0.690
58.36000 -1.532
58.38000 0.384
58.40000 1.538
58.42000 2.702
58.44000 1.232
58.46000 0.724
58.48000 2.617
58.50000 2.425
58.52000 1.883
58.54000 3.537
58.56000 -0.146
58.58000 1.757
58.60000 3.774
58.62000 -0.925
58.64000 -0.892
58.66000 0.569
58.68000 0.933
58.70000 0.888
58.72000 1.291
58.74000 -0.347
58.76000 -2.316
58.78000 -0.055
58.80000 -0.921
58.82000 2.556
58.84000 0.735
58.86000 1.219
58.88000 -0.360
58.90000 0.080
58.92000 1.795
58.94000 0.117
58.96000 0.789
58.98000 2.358
59.00000 0.718
59.02000 1.374
59.04000 2.524
59.06000 -1.104
59.08000 -2.123
59.10000 0.936
59.12000 1.005
59.14000 -0.420
59.16000 -1.012
59.18000 -1.438
59.20000 -0.848
59.22000 -1.266
59.24000 -1.164
59.26000 -0.933
59.28000 -2.030
59.30000 -1.513
59.32000 1.894
59.34000 3.625
59.36000 1.741
59.38000 -0.933
59.40000 0.219
59.42000 1.965
59.44000 1.732
59.46000 1.535
59.48000 -0.432
59.50000 1.554
59.52000 1.680
59.54000 2.555
59.56000 5.170
59.58000 4.443
59.60000 -0.116
59.62000 -1.972
59.64000 -1.615
59.66000 -0.225
59.68000 0.037
59.70000 -0.383
59.72000 1.879
59.74000 0.596
59.76000 2.083
59.78000 3.180
59.80000 4.128
59.82000 0.028
59.84000 0.033
59.86000 -0.557
59.88000 1.867
59.90000 1.133
59.92000 -1.283
59.94000 -0.865
59.96000 0.050
59.98000 -2.273
60.00000 0.206
60.02000 4.133
60.04000 1.887
60.06000 2.806
60.08000 4.212
60.10000 -0.984
60.12000 0.618
60.14000 1.566
60.16000 0.467
60.18000 0.548
60.20000 1.521
60.22000 3.324
60.24000 2.696
60.26000 1.382
60.28000 1.955
60.30000 4.180
60.32000 3.954
60.34000 -0.229
60.36000 -0.031
60.38000 0.443
60.40000 1.697
60.42000 1.772
60.44000 2.669
60.46000 2.868
60.48000 3.369
60.50000 4.003
60.52000 4.081
60.54000 0.029
60.56000 -2.236
60.58000 0.633
60.60000 1.984
60.62000 1.313
60.64000 0.153
60.66000 0.741
60.68000 -2.081
60.70000 -0.120
60.72000 0.944
60.74000 -0.534
60.76000 3.457
60.78000 3.925
60.80000 2.064
60.82000 2.184
60.84000 0.133
60.86000 1.910
60.88000 0.924
60.90000 -0.379
60.92000 -0.548
60.94000 1.793
60.96000 1.725
60.98000 2.411
61.00000 2.199
61.02000 1.424
61.04000 0.140
61.06000 -0.994
61.08000 -2.203
61.10000 1.841
61.12000 2.693
61.14000 6.039
61.16000 4.520
61.18000 3.232
61.20000 0.080
61.22000 -0.965
61.24000 3.164
61.26000 2.921
61.28000 2.158
61.30000 1.639
61.32000 0.753
61.34000 1.532
61.36000 0.355
61.38000 0.223
61.40000 3.769
61.42000 -0.005
61.44000 -1.223
61.46000 1.560
61.48000 -0.551
61.50000 -0.354
61.52000 0.576
61.54000 3.807
61.56000 5.572
61.58000 3.118
61.60000 -2.208
61.62000 -1.344
61.64000 -0.063
61.66000 0.348
61.68000 0.390
61.70000 -0.148
61.72000 3.082
61.74000 2.820
61.76000 0.058
61.78000 1.846
61.80000 0.976
61.82000 -0.342
61.84000 0.500
61.86000 0.811
61.88000 0.873
61.90000 2.215
61.92000 -0.435
61.94000 1.178
61.96000 2.716
61.98000 1.843
62.00000 1.825
62.02000 3.482
62.04000 1.730
62.06000 0.763
62.08000 1.938
62.10000 4.014
62.12000 1.223
62.14000 -1.422
62.16000 0.779
62.18000 4.079
62.20000 0.779
62.22000 -1.979
62.24000 0.795
62.26000 2.296
62.28000 2.093
62.30000 2.030
62.32000 -0.129
62.34000 -2.200
62.36000 -1.625
62.38000 -0.517
62.40000 4.453
62.42000 3.949
62.44000 3.373
62.46000 3.587
62.48000 0.756
62.50000 -1.499
62.52000 -1.445
62.54000 0.030
62.56000 1.680
62.58000 -0.530
62.60000 0.277
62.62000 0.098
62.64000 -0.522
62.66000 -0.615
62.68000 0.792
62.70000 3.089
62.72000 1.334
62.74000 -0.286
62.76000 -2.196
62.78000 -0.947
62.80000 2.104
62.82000 1.860
62.84000 0.860
62.86000 0.210
62.88000 1.376
62.90000 2.483
62.92000 2.462
62.94000 1.605
62.96000 0.327
62.98000 0.773
63.00000 0.005
63.02000 -1.744
63.04000 3.192
63.06000 1.160
63.08000 1.290
63.10000 2.075
63.12000 -1.381
63.14000 -1.339
63.16000 -2.105
63.18000 0.453
63.20000 2.612
63.22000 3.687
63.24000 2.111
63.26000 2.076
63.28000 2.928
63.30000 2.392
63.32000 1.601
63.34000 1.751
63.36000 2.075
63.38000 0.082
63.40000 -1.197
63.42000 0.868
63.44000 1.672
63.46000 2.813
63.48000 1.359
63.50000 -0.022
63.52000 0.331
63.54000 -2.179
63.56000 1.642
63.58000 1.902
63.60000 0.836
63.62000 3.827
63.64000 3.662
63.66000 1.793
63.68000 0.625
63.70000 0.653
63.72000 2.602
63.74000 1.314
63.76000 1.327
63.78000 2.556
63.80000 -0.178
63.82000 -1.720
63.84000 -1.718
63.86000 1.282
63.88000 2.604
63.90000 1.752
63.92000 1.334
63.94000 0.850
63.96000 1.040
63.98000 -2.156
64.00000 -1.133
64.02000 -0.240
64.04000 0.858
64.06000 0.362
64.08000 -0.170
64.10000 -0.692
64.12000 1.339
64.14000 2.610
64.16000 1.942
64.18000 4.202
64.20000 3.202
64.22000 1.192
64.24000 -0.284
64.26000 0.658
64.28000 3.154
64.30000 2.595
64.32000 0.722
64.34000 1.717
64.36000 3.434
64.38000 3.809
64.40000 0.546
64.42000 0.145
64.44000 0.028
64.46000 2.591
64.48000 -1.127
64.50000 -0.393
64.52000 -1.743
64.54000 -0.022
64.56000 2.405
64.58000 4.918
64.60000 1.883
64.62000 2.775
64.64000 -0.902
64.66000 1.762
64.68000 3.612
64.70000 3.656
64.72000 0.653
64.74000 -0.736
64.76000 -0.833
64.78000 -1.273
64.80000 -0.786
64.82000 2.253
64.84000 3.517
64.86000 1.920
64.88000 1.866
64.90000 0.541
64.92000 2.328
64.94000 1.647
64.96000 1.685
64.98000 2.024
65.00000 1.426
65.02000 1.799
65.04000 3.758
65.06000 3.979
65.08000 0.711
65.10000 -1.875
65.12000 -1.219
65.14000 -1.738
65.16000 -1.758
65.18000 0.520
65.20000 0.188
65.22000 1.118
65.24000 0.465
65.26000 -1.158
65.28000 0.706
65.30000 0.091
65.32000 -0.244
65.34000 0.227
65.36000 -0.781
65.38000 0.055
65.40000 0.625
65.42000 4.396
65.44000 4.603
65.46000 2.128
65.48000 2.964
65.50000 1.596
65.52000 -0.372
65.54000 1.198
65.56000 -0.273
65.58000 -0.059
65.60000 -2.152
65.62000 -1.156
65.64000 -0.195
65.66000 -1.605
65.68000 1.206
65.70000 0.795
65.72000 2.999
65.74000 2.182
65.76000 0.524
65.78000 1.267
65.80000 1.120
65.82000 2.901
65.84000 1.369
65.86000 2.620
65.88000 4.011
65.90000 -0.127
65.92000 -0.046
65.94000 3.527
65.96000 3.004
65.98000 2.107
66.00000 0.812
66.02000 -0.225
66.04000 -0.035
66.06000 1.202
66.08000 1.618
66.10000 0.124
66.12000 1.652
66.14000 3.026
66.16000 3.488
66.18000 2.274
66.20000 2.349
66.22000 1.620
66.24000 1.497
66.26000 4.309
66.28000 3.603
66.30000 3.465
66.32000 5.804
66.34000 5.966
66.36000 4.701
66.38000 1.202
66.40000 2.629
66.42000 4.330
66.44000 3.507
66.46000 3.234
66.48000 4.238
66.50000 5.664
66.52000 6.493
66.54000 5.318
66.56000 5.474
66.58000 3.353
66.60000 1.813
66.62000 5.256
66.64000 6.613
66.66000 9.027
66.68000 6.721
66.70000 5.673
66.72000 5.042
66.74000 10.325
66.76000 9.123
66.78000 8.691
66.80000 8.575
66.82000 6.221
66.84000 7.982
66.86000 6.321
66.88000 7.226
66.90000 8.371
66.92000 6.251
66.94000 7.250
66.96000 8.509
66.98000 8.442
67.00000 9.032
67.02000 8.876
67.04000 12.853
67.06000 9.798
67.08000 9.397
67.10000 13.234
67.12000 13.399
67.14000 12.909
67.16000 13.468
67.18000 10.500
67.20000 11.279
67.22000 10.689
67.24000 13.766
67.26000 12.942
67.28000 11.520
67.30000 11.816
67.32000 11.282
67.34000 11.845
67.36000 13.856
67.38000 12.795
67.40000 10.894
67.42000 10.225
67.44000 11.940
67.46000 11.172
67.48000 10.797
67.50000 12.197
67.52000 12.004
67.54000 9.932
67.56000 9.333
67.58000 9.161
67.60000 9.228
67.62000 10.408
67.64000 9.576
67.66000 11.119
67.68000 9.068
67.70000 6.601
67.72000 6.784
67.74000 6.778
67.76000 9.209
67.78000 7.869
67.80000 5.914
67.82000 6.325
67.84000 6.985
67.86000 6.308
67.88000 5.125
67.90000 2.776
67.92000 4.351
67.94000 4.186
67.96000 3.089
67.98000 4.559
68.00000 3.890
68.02000 1.758
68.04000 2.912
68.06000 2.755
68.08000 5.059
68.10000 3.454
68.12000 1.718
68.14000 3.563
68.16000 4.443
68.18000 2.189
68.20000 4.315
68.22000 -0.385
68.24000 -1.631
68.26000 1.120
68.28000 2.392
68.30000 2.928
68.32000 0.176
68.34000 1.203
68.36000 2.600
68.38000 4.167
68.40000 3.314
68.42000 1.167
68.44000 0.503
68.46000 -2.046
68.48000 1.244
68.50000 2.335
68.52000 1.361
68.54000 -0.145
68.56000 1.352
68.58000 1.488
68.60000 2.035
68.62000 0.384
68.64000 1.474
68.66000 1.267
68.68000 3.611
68.70000 3.410
68.72000 2.405
68.74000 1.021
68.76000 2.221
68.78000 1.964
68.80000 1.296
68.82000 2.139
68.84000 2.259
68.86000 1.506
68.88000 1.928
68.90000 0.366
68.92000 -0.627
68.94000 2.320
68.96000 1.537
68.98000 1.194
69.00000 0.550
69.02000 0.978
69.04000 0.928
69.06000 1.908
69.08000 -0.837
69.10000 -0.910
69.12000 -2.025
69.14000 -0.556
69.16000 0.146
69.18000 -0.185
69.20000 -0.688
69.22000 1.315
69.24000 1.544
69.26000 1.290
69.28000 0.691
69.30000 0.086
69.32000 -0.722
69.34000 0.322
69.36000 0.748
69.38000 2.596
69.40000 0.392
69.42000 -0.996
69.44000 -0.589
69.46000 0.036
69.48000 -1.088
69.50000 0.978
69.52000 2.010
69.54000 2.673
69.56000 -1.299
69.58000 -1.201
69.60000 0.417
69.62000 -1.066
69.64000 -0.670
69.66000 -0.017
69.68000 1.595
69.70000 0.150
69.72000 -1.241
69.74000 -0.037
69.76000 0.372
69.78000 0.055
69.80000 0.832
69.82000 -1.881
69.84000 0.391
69.86000 2.363
69.88000 2.657
69.90000 2.056
69.92000 0.632
69.94000 0.435
69.96000 -1.131
69.98000 0.299
70.00000 -1.340
70.02000 -0.809
70.04000 0.949
70.06000 3.142
70.08000 2.376
70.10000 -0.010
70.12000 1.351
70.14000 2.675
70.16000 1.044
70.18000 1.516
70.20000 -0.114
70.22000 -0.838
70.24000 -1.989
70.26000 -0.638
70.28000 2.358
70.30000 0.831
70.32000 0.937
70.34000 1.348
70.36000 1.648
70.38000 0.430
70.40000 -1.185
70.42000 0.593
70.44000 1.259
70.46000 0.613
70.48000 1.770
70.50000 0.971
70.52000 1.645
70.54000 0.538
70.56000 1.919
70.58000 -0.990
70.60000 0.479
70.62000 1.213
70.64000 -1.725
70.66000 -1.059
70.68000 -1.395
70.70000 0.170
70.72000 0.123
70.74000 2.499
70.76000 2.636
70.78000 3.273
70.80000 1.274
70.82000 0.943
70.84000 1.269
70.86000 2.458
70.88000 2.173
70.90000 1.373
70.92000 2.079
70.94000 0.259
70.96000 -0.687
70.98000 -1.955
71.00000 -1.786
71.02000 2.217
71.04000 1.849
71.06000 1.080
71.08000 -1.682
71.10000 -0.302
71.12000 4.745
71.14000 1.105
71.16000 0.394
71.18000 0.488
71.20000 1.683
71.22000 1.388
71.24000 1.428
71.26000 0.763
71.28000 2.743
71.30000 1.833
71.32000 3.183
71.34000 0.737
71.36000 -1.168
71.38000 0.290
71.40000 0.425
71.42000 -1.664
71.44000 -1.476
71.46000 -1.156
71.48000 1.998
71.50000 2.590
71.52000 -0.761
71.54000 -1.926
71.56000 -0.641
71.58000 -1.444
71.60000 -0.967
71.62000 0.688
71.64000 1.517
71.66000 -0.483
71.68000 -0.486
71.70000 0.796
71.72000 2.494
71.74000 -0.487
71.76000 0.712
71.78000 3.241
71.80000 2.404
71.82000 0.403
71.84000 1.386
71.86000 -1.213
71.88000 -0.023
71.90000 0.577
71.92000 0.209
71.94000 2.318
71.96000 2.470
71.98000 2.024
72.00000 -0.779
72.02000 -0.869
72.04000 1.346
72.06000 0.198
72.08000 0.749
72.10000 3.789
72.12000 2.945
72.14000 2.468
72.16000 2.105
72.18000 2.411
72.20000 2.148
72.22000 4.643
72.24000 2.543
72.26000 2.503
72.28000 3.127
72.30000 2.747
72.32000 -0.641
72.34000 -1.884
72.36000 1.135
72.38000 1.585
72.40000 3.966
72.42000 6.259
72.44000 6.757
72.46000 1.620
72.48000 1.163
72.50000 3.392
72.52000 2.565
72.54000 3.015
72.56000 3.754
72.58000 3.317
72.60000 1.856
72.62000 0.541
72.64000 1.419
72.66000 -1.818
72.68000 -1.108
72.70000 0.773
72.72000 0.890
72.74000 0.636
72.76000 -0.962
72.78000 1.501
72.80000 1.537
72.82000 1.530
72.84000 1.616
72.86000 2.489
72.88000 0.950
72.90000 1.745
72.92000 -0.340
72.94000 0.319
72.96000 3.727
72.98000 3.862
73.00000 1.649
73.02000 0.808
73.04000 1.704
73.06000 0.479
73.08000 2.399
73.10000 0.989
73.12000 1.188
73.14000 -0.664
73.16000 -0.192
73.18000 0.599
73.20000 1.624
73.22000 -0.945
73.24000 -1.673
73.26000 0.137
73.28000 2.105
73.30000 1.795
73.32000 1.926
73.34000 1.886
73.36000 0.376
73.38000 1.867
73.40000 0.935
73.42000 0.759
73.44000 0.510
73.46000 1.903
73.48000 1.973
73.50000 2.553
73.52000 1.111
73.54000 1.572
73.56000 1.628
73.58000 0.331
73.60000 -0.109
73.62000 0.138
73.64000 -0.507
73.66000 1.049
73.68000 1.529
73.70000 1.218
73.72000 1.475
73.74000 1.079
73.76000 -1.384
73.78000 -1.874
73.80000 0.438
73.82000 2.233
73.84000 1.973
73.86000 0.971
73.88000 0.020
73.90000 0.320
73.92000 1.857
73.94000 1.412
73.96000 2.098
73.98000 4.499
74.00000 0.968
74.02000 0.895
74.04000 2.748
74.06000 0.147
74.08000 -1.356
74.10000 -0.238
74.12000 -1.283
74.14000 0.519
74.16000 1.904
74.18000 1.197
74.20000 0.150
74.22000 -0.381
74.24000 1.174
74.26000 0.819
74.28000 0.986
74.30000 0.267
74.32000 3.037
74.34000 1.418
74.36000 1.728
74.38000 1.866
74.40000 0.642
74.42000 1.317
74.44000 0.445
74.46000 -0.178
74.48000 0.912
74.50000 1.505
74.52000 1.162
74.54000 3.438
74.56000 1.792
74.58000 1.702
74.60000 -1.015
74.62000 -1.859
74.64000 -0.578
74.66000 3.894
74.68000 2.735
74.70000 1.136
74.72000 0.809
74.74000 -0.722
74.76000 -1.411
74.78000 1.383
74.80000 2.147
74.82000 2.011
74.84000 1.905
74.86000 2.697
74.88000 4.250
74.90000 2.901
74.92000 0.135
74.94000 0.376
74.96000 2.068
74.98000 3.371
75.00000 4.863
75.02000 5.733
75.04000 4.543
75.06000 2.338
75.08000 3.954
75.10000 3.208
75.12000 -0.894
75.14000 0.958
75.16000 3.358
75.18000 4.169
75.20000 3.217
75.22000 0.049
75.24000 -1.112
75.26000 2.140
75.28000 3.279
75.30000 1.621
75.32000 2.593
75.34000 3.022
75.36000 2.348
75.38000 2.863
75.40000 2.433
75.42000 1.143
75.44000 0.902
75.46000 -1.510
75.48000 0.044
75.50000 2.135
75.52000 5.737
75.54000 5.514
75.56000 1.965
75.58000 3.804
75.60000 4.571
75.62000 4.708
75.64000 1.890
75.66000 0.780
75.68000 1.948
75.70000 2.372
75.72000 0.107
75.74000 -1.857
75.76000 2.573
75.78000 3.794
75.80000 3.446
75.82000 3.991
75.84000 4.429
75.86000 4.113
75.88000 2.191
75.90000 1.739
75.92000 1.662
75.94000 2.203
75.96000 2.265
75.98000 2.060
76.00000 4.069
76.02000 3.695
76.04000 3.236
76.06000 3.294
76.08000 2.343
76.10000 -1.148
76.12000 -0.956
76.14000 -0.783
76.16000 1.451
76.18000 2.675
76.20000 1.449
76.22000 1.340
76.24000 1.746
76.26000 1.624
76.28000 4.894
76.30000 2.371
76.32000 0.766
76.34000 1.798
76.36000 0.900
76.38000 0.825
76.40000 -1.118
76.42000 0.757
76.44000 2.850
76.46000 3.020
76.48000 3.169
76.50000 1.930
76.52000 1.511
76.54000 0.364
76.56000 -1.909
76.58000 -1.538
76.60000 -1.360
76.62000 0.932
76.64000 3.645
76.66000 3.784
76.68000 1.973
76.70000 -0.517
76.72000 -0.952
76.74000 -0.560
76.76000 2.345
76.78000 0.384
76.80000 0.348
76.82000 0.499
76.84000 0.884
76.86000 1.136
76.88000 0.338
76.90000 1.906
76.92000 -0.428
76.94000 -1.753
76.96000 -0.750
76.98000 1.984
77.00000 2.436
77.02000 2.206
77.04000 1.498
77.06000 0.953
77.08000 0.163
77.10000 3.640
77.12000 1.987
77.14000 -0.462
77.16000 -1.596
77.18000 -1.938
77.20000 -0.858
77.22000 -1.036
77.24000 -1.241
77.26000 -0.018
77.28000 -0.446
77.30000 0.103
77.32000 -1.564
77.34000 3.181
77.36000 0.626
77.38000 0.108
77.40000 1.493
77.42000 1.475
77.44000 -1.933
77.46000 -1.494
77.48000 0.432
77.50000 1.527
77.52000 -1.545
77.54000 0.340
77.56000 -0.401
77.58000 1.707
77.60000 1.685
77.62000 0.486
77.64000 1.474
77.66000 1.268
77.68000 1.403
77.70000 0.380
77.72000 1.577
77.74000 1.403
77.76000 0.628
77.78000 1.529
77.80000 -0.418
77.82000 0.905
77.84000 1.604
77.86000 0.245
77.88000 1.760
77.90000 -0.373
77.92000 1.225
77.94000 -0.301
77.96000 0.308
77.98000 0.415
78.00000 0.722
78.02000 1.444
78.04000 1.291
78.06000 2.219
78.08000 2.309
78.10000 1.755
78.12000 2.612
78.14000 3.443
78.16000 2.163
78.18000 3.196
78.20000 -0.743
78.22000 0.893
78.24000 2.161
78.26000 2.842
78.28000 2.880
78.30000 -1.931
78.32000 -0.373
78.34000 1.997
78.36000 2.211
78.38000 3.222
78.40000 2.662
78.42000 2.869
78.44000 2.930
78.46000 1.446
78.48000 2.138
78.50000 5.495
78.52000 3.527
78.54000 4.104
78.56000 5.587
78.58000 1.660
78.60000 -1.207
78.62000 -0.104
78.64000 -0.227
78.66000 -0.780
78.68000 1.344
78.70000 2.728
78.72000 1.624
78.74000 4.115
78.76000 2.083
78.78000 -1.955
78.80000 -1.726
78.82000 -1.515
78.84000 -0.708
78.86000 -1.576
78.88000 -1.162
78.90000 3.476
78.92000 2.872
78.94000 -0.481
78.96000 3.963
78.98000 4.062
79.00000 3.583
79.02000 2.761
79.04000 1.605
79.06000 3.497
79.08000 3.992
79.10000 0.638
79.12000 -1.017
79.14000 1.211
79.16000 1.477
79.18000 2.845
79.20000 3.052
79.22000 0.041
79.24000 2.619
79.26000 2.269
79.28000 1.562
79.30000 1.376
79.32000 1.504
79.34000 2.791
79.36000 1.007
79.38000 0.490
79.40000 2.817
79.42000 2.222
79.44000 -0.458
79.46000 1.153
79.48000 0.174
79.50000 2.478
79.52000 3.591
79.54000 3.675
79.56000 -2.023
79.58000 -1.504
79.60000 -0.373
79.62000 -0.100
79.64000 0.374
79.66000 -0.144
79.68000 1.037
79.70000 0.878
79.72000 0.435
79.74000 1.328
79.76000 2.758
79.78000 2.829
79.80000 2.522
79.82000 4.246
79.84000 3.853
79.86000 1.795
79.88000 3.562
79.90000 3.194
79.92000 2.447
79.94000 4.952
79.96000 2.492
79.98000 1.041
80.00000 1.722
80.02000 4.813
80.04000 4.987
80.06000 2.289
80.08000 5.112
80.10000 5.584
80.12000 3.079
80.14000 3.051
80.16000 5.895
80.18000 8.067
80.20000 8.616
80.22000 6.827
80.24000 6.875
80.26000 5.660
80.28000 6.657
80.30000 8.825
80.32000 8.902
80.34000 7.504
80.36000 6.910
80.38000 9.657
80.40000 10.037
80.42000 9.411
80.44000 10.975
80.46000 12.361
80.48000 9.103
80.50000 10.859
80.52000 11.195
80.54000 11.465
80.56000 10.064
80.58000 12.190
80.60000 12.510
80.62000 12.099
80.64000 11.107
80.66000 14.054
80.68000 15.024
80.70000 10.691
80.72000 11.029
80.74000 12.267
80.76000 12.706
80.78000 13.734
80.80000 11.088
80.82000 11.954
80.84000 14.576
80.86000 14.732
80.88000 16.929
80.90000 16.639
80.92000 16.281
80.94000 16.178
80.96000 17.452
80.98000 17.680
81.00000 21.079
81.02000 23.703
81.04000 17.141
81.06000 18.501
81.08000 17.710
81.10000 19.064
81.12000 19.096
81.14000 20.797
81.16000 22.235
81.18000 20.753
81.20000 20.904
81.22000 18.461
81.24000 19.593
81.26000 15.707
81.28000 15.219
81.30000 16.140
81.32000 17.264
81.34000 17.063
81.36000 12.543
81.38000 16.156
81.40000 15.291
81.42000 10.998
81.44000 13.891
81.46000 12.974
81.48000 14.211
81.50000 15.394
81.52000 17.219
81.54000 14.612
81.56000 15.506
81.58000 15.017
81.60000 12.500
81.62000 13.910
81.64000 13.497
81.66000 18.189
81.68000 17.603
81.70000 11.489
81.72000 8.634
81.74000 11.856
81.76000 9.811
81.78000 11.802
81.80000 10.645
81.82000 9.059
81.84000 7.003
81.86000 7.612
81.88000 6.322
81.90000 7.007
81.92000 6.307
81.94000 5.456
81.96000 4.052
81.98000 6.224
82.00000 3.757
82.02000 3.515
82.04000 8.313
82.06000 8.018
82.08000 5.548
82.10000 4.069
82.12000 4.994
82.14000 7.512
82.16000 5.019
82.18000 2.599
82.20000 3.294
82.22000 -0.201
82.24000 -0.136
82.26000 1.817
82.28000 3.601
82.30000 0.426
82.32000 0.103
82.34000 0.508
82.36000 3.016
82.38000 0.314
82.40000 0.174
82.42000 2.178
82.44000 0.011
82.46000 -0.696
82.48000 1.231
82.50000 2.517
82.52000 1.450
82.54000 0.261
82.56000 -0.687
82.58000 -1.886
82.60000 1.024
82.62000 0.253
82.64000 -1.649
82.66000 -1.270
82.68000 0.342
82.70000 -1.490
82.72000 0.085
82.74000 -2.097
82.76000 -1.924
82.78000 0.776
82.80000 -0.126
82.82000 2.609
82.84000 0.411
82.86000 0.288
82.88000 1.866
82.90000 1.678
82.92000 -0.527
82.94000 -1.118
82.96000 0.385
82.98000 -0.997
83.00000 0.259
83.02000 1.002
83.04000 -0.901
83.06000 -0.871
83.08000 -2.062
83.10000 0.477
83.12000 1.491
83.14000 1.237
83.16000 4.045
83.18000 2.748
83.20000 0.121
83.22000 0.685
83.24000 1.540
83.26000 0.706
83.28000 -0.997
83.30000 -2.051
83.32000 -0.196
83.34000 -1.409
83.36000 -1.105
83.38000 2.368
83.40000 4.862
83.42000 1.561
83.44000 -0.006
83.46000 1.428
83.48000 0.633
83.50000 1.480
83.52000 0.200
83.54000 2.563
83.56000 1.585
83.58000 0.834
83.60000 1.765
83.62000 1.145
83.64000 3.120
83.66000 2.259
83.68000 4.407
83.70000 2.584
83.72000 3.329
83.74000 -0.327
83.76000 -1.443
83.78000 -0.457
83.80000 2.315
83.82000 1.497
83.84000 -1.467
83.86000 1.452
83.88000 2.951
83.90000 3.164
83.92000 0.889
83.94000 2.095
83.96000 3.691
83.98000 2.059
84.00000 -2.085
84.02000 -0.380
84.04000 5.522
84.06000 6.216
84.08000 0.961
84.10000 1.714
84.12000 3.659
84.14000 4.238
84.16000 3.335
84.18000 4.662
84.20000 4.992
84.22000 4.030
84.24000 4.973
84.26000 5.982
84.28000 6.979
84.30000 6.017
84.32000 4.514
84.34000 7.021
84.36000 4.916
84.38000 2.580
84.40000 5.719
84.42000 9.507
84.44000 10.211
84.46000 10.900
84.48000 6.848
84.50000 4.598
84.52000 7.641
84.54000 8.935
84.56000 8.014
84.58000 10.968
84.60000 14.744
84.62000 14.118
84.64000 11.334
84.66000 10.960
84.68000 14.149
84.70000 17.379
84.72000 16.103
84.74000 14.880
84.76000 14.402
84.78000 15.805
84.80000 14.789
84.82000 12.291
84.84000 13.296
84.86000 15.199
84.88000 16.889
84.90000 15.416
84.92000 14.342
84.94000 16.796
84.96000 13.664
84.98000 17.036
85.00000 20.355
85.02000 18.199
85.04000 21.074
85.06000 17.208
85.08000 15.165
85.10000 16.035
85.12000 16.914
85.14000 17.635
85.16000 20.592
85.18000 20.195
85.20000 18.594
85.22000 17.894
85.24000 17.975
85.26000 17.748
85.28000 16.194
85.30000 16.802
85.32000 14.173
85.34000 12.572
85.36000 16.402
85.38000 13.582
85.40000 11.558
85.42000 13.034
85.44000 14.155
85.46000 11.744
85.48000 10.885
85.50000 12.486
85.52000 9.765
85.54000 8.576
85.56000 11.232
85.58000 9.340
85.60000 10.836
85.62000 9.622
85.64000 11.741
85.66000 10.799
85.68000 10.082
85.70000 10.113
85.72000 7.581
85.74000 8.719
85.76000 9.849
85.78000 7.203
85.80000 5.771
85.82000 4.505
85.84000 7.650
85.86000 6.515
85.88000 3.917
85.90000 3.248
85.92000 3.706
85.94000 3.382
85.96000 2.668
85.98000 6.138
86.00000 7.612
86.02000 6.704
86.04000 3.959
86.06000 5.306
86.08000 2.217
86.10000 1.059
86.12000 5.063
86.14000 5.144
86.16000 1.688
86.18000 0.159
86.20000 3.401
86.22000 -0.002
86.24000 -1.920
86.26000 0.550
86.28000 0.420
86.30000 -0.516
86.32000 -0.641
86.34000 1.149
86.36000 1.472
86.38000 0.446
86.40000 -1.813
86.42000 -0.566
86.44000 -0.344
86.46000 0.638
86.48000 0.900
86.50000 1.750
86.52000 1.785
86.54000 2.544
86.56000 -1.521
86.58000 0.958
86.60000 -0.300
86.62000 1.655
86.64000 0.106
86.66000 0.280
86.68000 3.169
86.70000 2.163
86.72000 1.069
86.74000 0.567
86.76000 1.815
86.78000 2.266
86.80000 1.518
86.82000 -0.195
86.84000 2.820
86.86000 2.786
86.88000 2.022
86.90000 4.114
86.92000 3.597
86.94000 4.765
86.96000 2.083
86.98000 0.360
87.00000 -1.789
87.02000 -1.640
87.04000 0.420
87.06000 0.251
87.08000 1.775
87.10000 1.934
87.12000 2.490
87.14000 0.889
87.16000 1.673
87.18000 1.643
87.20000 1.974
87.22000 2.719
87.24000 1.362
87.26000 0.139
87.28000 1.151
87.30000 1.526
87.32000 3.102
87.34000 4.233
87.36000 3.117
87.38000 2.145
87.40000 0.631
87.42000 -1.187
87.44000 0.952
87.46000 4.766
87.48000 4.876
87.50000 3.109
87.52000 3.211
87.54000 2.315
87.56000 0.940
87.58000 0.499
87.60000 0.187
87.62000 1.147
87.64000 0.866
87.66000 1.286
87.68000 0.936
87.70000 -0.424
87.72000 2.851
87.74000 3.834
87.76000 3.065
87.78000 0.575
87.80000 0.167
87.82000 0.629
87.84000 0.461
87.86000 -1.785
87.88000 -0.321
87.90000 1.503
87.92000 0.665
87.94000 2.174
87.96000 2.982
87.98000 0.409
88.00000 0.940
88.02000 0.719
88.04000 -0.333
88.06000 0.519
88.08000 0.816
88.10000 -0.149
88.12000 -0.020
88.14000 0.575
88.16000 -1.768
88.18000 1.502
88.20000 2.188
88.22000 3.579
88.24000 1.474
88.26000 0.828
88.28000 0.212
88.30000 2.100
88.32000 4.122
88.34000 1.281
88.36000 0.005
88.38000 -1.457
88.40000 -0.156
88.42000 1.673
88.44000 1.354
88.46000 0.078
88.48000 1.898
88.50000 0.069
88.52000 -0.534
88.54000 1.924
88.56000 -1.623
88.58000 -1.778
88.60000 0.284
88.62000 1.193
88.64000 0.465
88.66000 -1.532
88.68000 1.474
88.70000 2.989
88.72000 3.016
88.74000 1.424
88.76000 0.482
88.78000 1.113
88.80000 0.381
88.82000 0.888
88.84000 3.064
88.86000 3.214
88.88000 0.539
88.90000 -0.363
88.92000 1.821
88.94000 0.973
88.96000 -0.769
88.98000 -0.697
89.00000 0.818
89.02000 1.376
89.04000 1.947
89.06000 -0.423
89.08000 -0.851
89.10000 2.344
89.12000 1.999
89.14000 2.087
89.16000 0.831
89.18000 2.313
89.20000 1.777
89.22000 1.472
89.24000 3.250
89.26000 -0.406
89.28000 -0.123
89.30000 1.729
89.32000 1.219
89.34000 0.507
89.36000 1.417
89.38000 0.636
89.40000 0.180
89.42000 -0.392
89.44000 1.020
89.46000 0.993
89.48000 -1.752
89.50000 -0.851
89.52000 0.322
89.54000 0.177
89.56000 1.057
89.58000 -1.748
89.60000 -0.249
89.62000 2.466
89.64000 2.320
89.66000 1.888
89.68000 0.264
89.70000 1.100
89.72000 1.700
89.74000 4.568
89.76000 1.404
89.78000 0.294
89.80000 -1.756
89.82000 -1.343
89.84000 0.893
89.86000 1.136
89.88000 2.065
89.90000 1.506
89.92000 -0.482
89.94000 -0.219
89.96000 0.919
89.98000 0.874
90.00000 0.549
90.02000 0.853
90.04000 2.099
90.06000 2.280
90.08000 0.120
90.10000 -1.409
90.12000 -1.107
90.14000 4.653
90.16000 3.039
90.18000 1.050
90.20000 2.152
90.22000 3.367
90.24000 2.016
90.26000 1.491
90.28000 2.350
90.30000 2.056
90.32000 5.037
90.34000 1.492
90.36000 0.005
90.38000 -1.760
90.40000 0.689
90.42000 0.740
90.44000 0.675
90.46000 0.376
90.48000 1.600
90.50000 -1.047
90.52000 -1.714
90.54000 -0.473
90.56000 -0.028
90.58000 0.842
90.60000 1.086
90.62000 0.006
90.64000 1.202
90.66000 2.491
90.68000 2.612
90.70000 1.686
90.72000 -0.355
90.74000 0.399
90.76000 -1.760
90.78000 -0.289
90.80000 -0.747
90.82000 0.697
90.84000 4.640
90.86000 4.892
90.88000 4.200
90.90000 1.500
90.92000 0.556
90.94000 -1.760
90.96000 1.161
90.98000 2.556
91.00000 1.809
91.02000 0.262
91.04000 1.533
91.06000 1.215
91.08000 -0.698
91.10000 0.370
91.12000 -1.765
91.14000 -0.909
91.16000 4.305
91.18000 4.451
91.20000 -0.592
91.22000 -1.551
91.24000 0.974
91.26000 1.226
91.28000 3.354
91.30000 1.218
91.32000 1.360
91.34000 0.995
91.36000 2.112
91.38000 0.953
91.40000 0.770
91.42000 2.105
91.44000 0.647
91.46000 2.431
91.48000 4.203
91.50000 2.266
91.52000 2.145
91.54000 -0.149
91.56000 0.043
91.58000 1.848
91.60000 0.979
91.62000 2.038
91.64000 2.145
91.66000 2.988
91.68000 2.637
91.70000 1.685
91.72000 -0.160
91.74000 -1.276
91.76000 -1.412
91.78000 0.803
91.80000 0.497
91.82000 1.683
91.84000 1.863
91.86000 0.207
91.88000 0.167
91.90000 -0.300
91.92000 -1.753
91.94000 2.296
91.96000 5.331
91.98000 3.069
92.00000 0.632
92.02000 2.161
92.04000 1.148
92.06000 1.286
92.08000 0.218
92.10000 2.876
92.12000 0.909
92.14000 -0.925
92.16000 1.142
92.18000 4.612
92.20000 1.572
92.22000 0.660
92.24000 -0.370
92.26000 0.867
92.28000 2.780
92.30000 0.952
92.32000 -1.713
92.34000 0.444
92.36000 -0.863
92.38000 0.120
92.40000 1.827
92.42000 -0.365
92.44000 -0.244
92.46000 2.453
92.48000 3.040
92.50000 2.852
92.52000 1.827
92.54000 -0.585
92.56000 0.446
92.58000 1.111
92.60000 0.270
92.62000 -0.096
92.64000 1.014
92.66000 3.519
92.68000 1.669
92.70000 2.317
92.72000 0.410
92.74000 -1.770
92.76000 1.080
92.78000 0.758
92.80000 5.684
92.82000 6.979
92.84000 4.973
92.86000 4.159
92.88000 3.750
92.90000 2.895
92.92000 0.717
92.94000 0.384
92.96000 1.544
92.98000 0.742
93.00000 -0.264
93.02000 2.191
93.04000 3.683
93.06000 1.857
93.08000 0.212
93.10000 -0.124
93.12000 0.369
93.14000 -1.773
93.16000 -0.569
93.18000 -0.188
93.20000 -0.190
93.22000 0.392
93.24000 -1.583
93.26000 -1.458
93.28000 1.209
93.30000 0.121
93.32000 1.145
93.34000 2.897
93.36000 2.779
93.38000 1.947
93.40000 1.533
93.42000 -0.107
93.44000 2.076
93.46000 -0.557
93.48000 0.345
93.50000 -1.732
93.52000 -1.711
93.54000 -0.731
93.56000 0.544
93.58000 2.247
93.60000 3.741
93.62000 4.677
93.64000 1.918
93.66000 1.518
93.68000 6.129
93.70000 5.008
93.72000 0.043
93.74000 2.290
93.76000 1.466
93.78000 0.855
93.80000 2.855
93.82000 2.171
93.84000 -0.768
93.86000 1.184
93.88000 -0.250
93.90000 -1.091
93.92000 0.610
93.94000 2.426
93.96000 -0.624
93.98000 0.835
94.00000 1.229
94.02000 1.338
94.04000 -0.098
94.06000 -1.097
94.08000 -0.332
94.10000 0.350
94.12000 1.600
94.14000 1.441
94.16000 3.112
94.18000 3.318
94.20000 1.713
94.22000 1.699
94.24000 2.647
94.26000 1.230
94.28000 1.891
94.30000 2.836
94.32000 1.900
94.34000 -0.520
94.36000 4.010
94.38000 5.223
94.40000 2.404
94.42000 2.412
94.44000 2.371
94.46000 0.844
94.48000 -1.026
94.50000 -1.764
94.52000 1.358
94.54000 0.179
94.56000 3.283
94.58000 4.943
94.60000 4.212
94.62000 0.436
94.64000 -0.262
94.66000 0.007
94.68000 1.745
94.70000 1.918
94.72000 2.000
94.74000 5.758
94.76000 2.900
94.78000 4.327
94.80000 3.235
94.82000 5.179
94.84000 4.138
94.86000 3.720
94.88000 4.013
94.90000 0.836
94.92000 1.182
94.94000 0.750
94.96000 -1.147
94.98000 3.213
95.00000 3.835
95.02000 3.998
95.04000 3.656
95.06000 3.061
95.08000 3.761
95.10000 2.469
95.12000 3.135
95.14000 -1.757
95.16000 0.647
95.18000 4.690
95.20000 3.656
95.22000 6.704
95.24000 4.475
95.26000 5.638
95.28000 5.544
95.30000 3.054
95.32000 1.342
95.34000 2.317
95.36000 4.016
95.38000 1.997
95.40000 1.371
95.42000 2.629
95.44000 0.177
95.46000 3.891
95.48000 4.170
95.50000 1.991
95.52000 -0.589
95.54000 -0.972
95.56000 0.450
95.58000 2.884
95.60000 5.387
95.62000 5.403
95.64000 2.434
95.66000 1.062
95.68000 0.379
95.70000 2.598
95.72000 4.097
95.74000 2.440
95.76000 0.124
95.78000 1.822
95.80000 0.979
95.82000 0.519
95.84000 3.896
95.86000 1.155
95.88000 2.559
95.90000 1.722
95.92000 2.478
95.94000 2.273
95.96000 4.753
95.98000 -0.841
96.00000 2.772
96.02000 4.567
96.04000 6.651
96.06000 1.453
96.08000 4.439
96.10000 6.208
96.12000 5.278
96.14000 4.955
96.16000 3.219
96.18000 0.720
96.20000 5.557
96.22000 8.147
96.24000 5.203
96.26000 3.822
96.28000 6.516
96.30000 2.006
96.32000 -0.265
96.34000 -1.759
96.36000 1.033
96.38000 3.443
96.40000 5.706
96.42000 2.534
96.44000 2.389
96.46000 3.207
96.48000 1.996
96.50000 3.529
96.52000 5.892
96.54000 5.704
96.56000 2.121
96.58000 3.377
96.60000 4.444
96.62000 0.507
96.64000 0.049
96.66000 1.080
96.68000 0.320
96.70000 1.632
96.72000 2.068
96.74000 4.785
96.76000 6.427
96.78000 4.335
96.80000 0.903
96.82000 2.208
96.84000 0.944
96.86000 1.522
96.88000 3.162
96.90000 4.691
96.92000 4.515
96.94000 2.040
96.96000 4.217
96.98000 4.388
97.00000 5.134
97.02000 2.374
97.04000 4.126
97.06000 2.548
97.08000 3.830
97.10000 5.139
97.12000 0.289
97.14000 1.911
97.16000 4.959
97.18000 0.792
97.20000 2.826
97.22000 6.375
97.24000 2.315
97.26000 1.031
97.28000 5.899
97.30000 6.031
97.32000 3.158
97.34000 5.241
97.36000 2.080
97.38000 0.461
97.40000 1.693
97.42000 4.865
97.44000 -0.015
97.46000 -1.732
97.48000 -1.507
97.50000 -1.751
97.52000 3.438
97.54000 4.674
97.56000 6.014
97.58000 6.058
97.60000 3.410
97.62000 1.101
97.64000 3.408
97.66000 2.464
97.68000 3.886
97.70000 6.898
97.72000 5.745
97.74000 7.119
97.76000 6.936
97.78000 2.782
97.80000 2.151
97.82000 4.907
97.84000 4.791
97.86000 1.487
97.88000 -1.754
97.90000 1.785
97.92000 5.165
97.94000 -0.467
97.96000 2.769
97.98000 1.749
98.00000 0.846
98.02000 6.196
98.04000 5.431
98.06000 0.848
98.08000 -0.362
98.10000 1.664
98.12000 0.822
98.14000 7.166
98.16000 3.926
98.18000 2.191
98.20000 -1.755
98.22000 4.607
98.24000 3.052
98.26000 4.514
98.28000 4.398
98.30000 3.051
98.32000 -1.433
98.34000 3.683
98.36000 7.948
98.38000 1.950
98.40000 0.518
98.42000 3.991
98.44000 4.266
98.46000 -0.950
98.48000 5.724
98.50000 3.617
98.52000 6.453
98.54000 1.606
98.56000 6.035
98.58000 3.377
98.60000 0.555
98.62000 1.904
98.64000 1.541
98.66000 5.581
98.68000 6.441
98.70000 6.006
98.72000 4.432
98.74000 0.016
98.76000 -0.561
98.78000 -0.623
98.80000 3.020
98.82000 3.990
98.84000 -1.742
98.86000 0.999
98.88000 5.277
98.90000 3.659
98.92000 5.085
98.94000 3.784
98.96000 6.262
98.98000 2.025
99.00000 -1.453
99.02000 1.363
99.04000 -0.087
99.06000 1.918
99.08000 2.826
99.10000 1.519
99.12000 3.228
99.14000 -1.731
99.16000 -0.931
99.18000 3.992
99.20000 5.670
99.22000 9.877
99.24000 1.928
99.26000 0.236
99.28000 2.473
99.30000 1.172
99.32000 4.337
99.34000 2.830
99.36000 2.530
99.38000 3.308
99.40000 6.419
99.42000 -1.721
99.44000 2.029
99.46000 2.457
99.48000 4.949
99.50000 1.778
99.52000 0.540
99.54000 1.217
99.56000 -1.511
99.58000 1.931
99.60000 6.155
99.62000 8.631
99.64000 7.546
99.66000 5.948
99.68000 5.241
99.70000 8.550
99.72000 0.222
99.74000 -0.261
99.76000 -1.754
99.78000 -0.257
99.80000 2.727
99.82000 9.150
99.84000 3.263
99.86000 2.652
99.88000 2.268
99.90000 3.100
99.92000 8.230
99.94000 11.623
99.96000 1.575
99.98000 0.000
