'Id: "0011389" Comment: "Integrate frame 0011389_Au-Ir-Rh_Au-Rich_XRD_Mapping-239-0000.gfrmwith cursor Wedge Cursor #5" Operator: "B?rgel" Anode: "Cu" Wavelength: "1.5406" Scantype: "2Theta (TwoTheta)" TimePerStep: "1" X: "40.5" Y: "13.5" Z: "5.95" 
10.00000 0.000
10.02000 2.607
10.04000 4.352
10.06000 8.439
10.08000 9.407
10.10000 19.488
10.12000 22.389
10.14000 6.658
10.16000 -2.875
10.18000 4.374
10.20000 14.648
10.22000 20.543
10.24000 28.780
10.26000 34.350
10.28000 34.268
10.30000 21.277
10.32000 19.344
10.34000 23.620
10.36000 25.218
10.38000 21.209
10.40000 32.338
10.42000 35.328
10.44000 34.171
10.46000 39.261
10.48000 31.154
10.50000 30.963
10.52000 31.142
10.54000 21.932
10.56000 24.535
10.58000 34.456
10.60000 34.998
10.62000 39.776
10.64000 43.784
10.66000 38.680
10.68000 31.029
10.70000 34.054
10.72000 31.917
10.74000 27.234
10.76000 32.154
10.78000 36.163
10.80000 30.040
10.82000 37.194
10.84000 43.934
10.86000 40.383
10.88000 44.119
10.90000 44.785
10.92000 34.347
10.94000 33.913
10.96000 31.896
10.98000 43.956
11.00000 33.572
11.02000 44.534
11.04000 48.984
11.06000 48.674
11.08000 47.753
11.10000 46.492
11.12000 40.602
11.14000 34.931
11.16000 41.749
11.18000 41.370
11.20000 38.060
11.22000 39.000
11.24000 40.250
11.26000 40.572
11.28000 49.681
11.30000 37.833
11.32000 38.198
11.34000 39.678
11.36000 39.876
11.38000 41.064
11.40000 46.158
11.42000 52.257
11.44000 48.703
11.46000 45.116
11.48000 45.673
11.50000 52.456
11.52000 57.556
11.54000 62.878
11.56000 61.994
11.58000 41.294
11.60000 43.585
11.62000 45.042
11.64000 45.881
11.66000 43.087
11.68000 48.231
11.70000 54.888
11.72000 55.581
11.74000 49.781
11.76000 50.924
11.78000 57.351
11.80000 50.093
11.82000 41.132
11.84000 51.144
11.86000 47.515
11.88000 53.769
11.90000 60.617
11.92000 60.085
11.94000 59.415
11.96000 50.492
11.98000 53.583
12.00000 53.356
12.02000 55.026
12.04000 56.535
12.06000 52.323
12.08000 54.202
12.10000 62.645
12.12000 57.916
12.14000 42.622
12.16000 48.486
12.18000 58.266
12.20000 52.589
12.22000 52.833
12.24000 62.224
12.26000 68.111
12.28000 63.104
12.30000 66.056
12.32000 62.872
12.34000 57.200
12.36000 49.369
12.38000 52.946
12.40000 54.194
12.42000 56.248
12.44000 58.273
12.46000 56.691
12.48000 58.707
12.50000 58.355
12.52000 54.627
12.54000 51.471
12.56000 57.953
12.58000 67.795
12.60000 59.845
12.62000 61.926
12.64000 60.180
12.66000 66.299
12.68000 67.284
12.70000 59.962
12.72000 56.441
12.74000 60.928
12.76000 58.629
12.78000 51.876
12.80000 59.769
12.82000 49.565
12.84000 55.876
12.86000 59.205
12.88000 59.806
12.90000 53.654
12.92000 58.474
12.94000 55.231
12.96000 57.631
12.98000 57.114
13.00000 54.177
13.02000 60.619
13.04000 61.458
13.06000 57.970
13.08000 61.258
13.10000 64.668
13.12000 54.464
13.14000 48.756
13.16000 53.200
13.18000 53.818
13.20000 58.818
13.22000 56.043
13.24000 55.679
13.26000 55.370
13.28000 49.540
13.30000 51.913
13.32000 54.257
13.34000 48.865
13.36000 61.386
13.38000 65.488
13.40000 53.755
13.42000 53.745
13.44000 59.508
13.46000 56.277
13.48000 54.830
13.50000 53.055
13.52000 58.135
13.54000 64.490
13.56000 56.738
13.58000 58.153
13.60000 57.446
13.62000 63.274
13.64000 59.085
13.66000 61.261
13.68000 49.762
13.70000 58.893
13.72000 53.930
13.74000 52.290
13.76000 49.060
13.78000 53.433
13.80000 57.735
13.82000 46.301
13.84000 54.303
13.86000 51.344
13.88000 51.645
13.90000 55.671
13.92000 46.271
13.94000 40.580
13.96000 47.934
13.98000 49.838
14.00000 58.372
14.02000 55.588
14.04000 48.592
14.06000 45.120
14.08000 44.085
14.10000 48.993
14.12000 45.521
14.14000 42.291
14.16000 41.893
14.18000 37.868
14.20000 39.350
14.22000 42.713
14.24000 45.761
14.26000 43.289
14.28000 48.560
14.30000 48.400
14.32000 47.625
14.34000 46.537
14.36000 43.120
14.38000 42.420
14.40000 42.992
14.42000 39.821
14.44000 47.482
14.46000 51.299
14.48000 51.261
14.50000 51.289
14.52000 42.235
14.54000 37.264
14.56000 38.174
14.58000 43.669
14.60000 50.801
14.62000 48.250
14.64000 39.783
14.66000 37.140
14.68000 39.674
14.70000 46.865
14.72000 43.784
14.74000 34.666
14.76000 37.220
14.78000 31.266
14.80000 35.565
14.82000 38.719
14.84000 34.605
14.86000 35.381
14.88000 38.119
14.90000 38.507
14.92000 37.428
14.94000 37.409
14.96000 36.193
14.98000 36.682
15.00000 38.323
15.02000 41.215
15.04000 42.535
15.06000 42.378
15.08000 39.830
15.10000 32.916
15.12000 33.591
15.14000 36.845
15.16000 39.570
15.18000 45.237
15.20000 36.612
15.22000 30.279
15.24000 32.887
15.26000 37.651
15.28000 38.442
15.30000 29.806
15.32000 33.890
15.34000 30.830
15.36000 31.348
15.38000 33.070
15.40000 34.422
15.42000 28.297
15.44000 29.921
15.46000 33.402
15.48000 29.920
15.50000 28.930
15.52000 32.777
15.54000 33.643
15.56000 25.676
15.58000 23.717
15.60000 30.223
15.62000 25.136
15.64000 25.610
15.66000 30.173
15.68000 26.900
15.70000 25.896
15.72000 26.401
15.74000 23.765
15.76000 31.129
15.78000 37.133
15.80000 36.219
15.82000 29.095
15.84000 28.535
15.86000 28.260
15.88000 25.604
15.90000 17.079
15.92000 26.647
15.94000 22.998
15.96000 20.429
15.98000 21.194
16.00000 21.575
16.02000 24.749
16.04000 22.100
16.06000 24.200
16.08000 26.047
16.10000 31.102
16.12000 29.053
16.14000 22.257
16.16000 23.425
16.18000 30.743
16.20000 27.846
16.22000 26.104
16.24000 18.115
16.26000 16.890
16.28000 27.873
16.30000 17.324
16.32000 16.477
16.34000 17.881
16.36000 15.214
16.38000 18.777
16.40000 23.786
16.42000 27.156
16.44000 31.045
16.46000 19.567
16.48000 18.585
16.50000 26.259
16.52000 22.119
16.54000 16.447
16.56000 9.784
16.58000 15.741
16.60000 15.185
16.62000 13.851
16.64000 16.876
16.66000 15.125
16.68000 13.622
16.70000 21.524
16.72000 21.330
16.74000 16.758
16.76000 9.891
16.78000 16.350
16.80000 15.160
16.82000 15.565
16.84000 15.473
16.86000 22.094
16.88000 20.974
16.90000 24.288
16.92000 19.175
16.94000 17.154
16.96000 13.623
16.98000 14.244
17.00000 21.101
17.02000 18.892
17.04000 17.530
17.06000 11.859
17.08000 5.401
17.10000 13.582
17.12000 16.810
17.14000 14.939
17.16000 11.287
17.18000 12.618
17.20000 13.947
17.22000 14.499
17.24000 16.532
17.26000 16.279
17.28000 22.064
17.30000 19.129
17.32000 17.586
17.34000 15.397
17.36000 19.118
17.38000 14.243
17.40000 8.756
17.42000 7.905
17.44000 12.793
17.46000 13.297
17.48000 10.213
17.50000 11.919
17.52000 18.393
17.54000 15.457
17.56000 17.987
17.58000 14.976
17.60000 18.880
17.62000 12.235
17.64000 6.839
17.66000 13.783
17.68000 6.957
17.70000 7.521
17.72000 7.730
17.74000 12.176
17.76000 8.242
17.78000 7.241
17.80000 8.664
17.82000 10.894
17.84000 11.152
17.86000 5.386
17.88000 8.513
17.90000 12.968
17.92000 10.923
17.94000 17.427
17.96000 11.689
17.98000 3.333
18.00000 5.350
18.02000 4.862
18.04000 5.305
18.06000 6.054
18.08000 3.228
18.10000 5.558
18.12000 9.112
18.14000 14.687
18.16000 16.042
18.18000 12.869
18.20000 10.474
18.22000 8.644
18.24000 3.156
18.26000 6.034
18.28000 10.061
18.30000 11.999
18.32000 12.257
18.34000 15.460
18.36000 11.418
18.38000 11.255
18.40000 5.132
18.42000 6.092
18.44000 9.516
18.46000 -0.531
18.48000 0.348
18.50000 7.702
18.52000 9.130
18.54000 7.110
18.56000 3.882
18.58000 3.680
18.60000 9.310
18.62000 7.792
18.64000 2.628
18.66000 5.311
18.68000 10.755
18.70000 10.722
18.72000 7.745
18.74000 -0.218
18.76000 -1.313
18.78000 0.859
18.80000 7.457
18.82000 9.345
18.84000 3.049
18.86000 -1.555
18.88000 5.801
18.90000 8.640
18.92000 11.361
18.94000 11.987
18.96000 6.026
18.98000 3.400
19.00000 2.942
19.02000 5.294
19.04000 10.134
19.06000 7.832
19.08000 -2.815
19.10000 -4.032
19.12000 -4.319
19.14000 4.867
19.16000 6.060
19.18000 5.680
19.20000 6.940
19.22000 7.924
19.24000 3.897
19.26000 0.695
19.28000 2.483
19.30000 0.053
19.32000 0.998
19.34000 6.750
19.36000 5.734
19.38000 8.376
19.40000 0.644
19.42000 -0.286
19.44000 4.828
19.46000 6.411
19.48000 4.110
19.50000 2.719
19.52000 3.111
19.54000 2.885
19.56000 6.595
19.58000 6.693
19.60000 1.099
19.62000 2.828
19.64000 6.034
19.66000 6.827
19.68000 4.895
19.70000 6.373
19.72000 -0.496
19.74000 3.540
19.76000 5.476
19.78000 0.472
19.80000 -0.421
19.82000 0.153
19.84000 1.162
19.86000 1.914
19.88000 5.731
19.90000 -4.278
19.92000 -1.935
19.94000 5.376
19.96000 1.585
19.98000 4.731
20.00000 4.702
20.02000 -0.620
20.04000 1.876
20.06000 5.726
20.08000 5.686
20.10000 4.305
20.12000 5.278
20.14000 9.342
20.16000 15.174
20.18000 12.949
20.20000 8.368
20.22000 6.467
20.24000 7.490
20.26000 8.146
20.28000 0.823
20.30000 4.593
20.32000 4.802
20.34000 -0.621
20.36000 4.588
20.38000 2.678
20.40000 1.775
20.42000 3.436
20.44000 10.153
20.46000 -0.665
20.48000 -2.057
20.50000 -1.279
20.52000 3.447
20.54000 10.280
20.56000 8.702
20.58000 5.184
20.60000 -1.437
20.62000 1.378
20.64000 0.963
20.66000 -2.930
20.68000 -0.834
20.70000 9.284
20.72000 11.009
20.74000 5.799
20.76000 3.898
20.78000 0.273
20.80000 -1.377
20.82000 0.947
20.84000 -3.565
20.86000 -3.738
20.88000 -0.106
20.90000 8.897
20.92000 6.465
20.94000 -4.210
20.96000 1.273
20.98000 8.431
21.00000 4.162
21.02000 4.882
21.04000 2.860
21.06000 -0.390
21.08000 3.117
21.10000 3.155
21.12000 0.983
21.14000 -1.882
21.16000 0.568
21.18000 3.151
21.20000 2.474
21.22000 -1.088
21.24000 0.510
21.26000 2.919
21.28000 2.425
21.30000 4.683
21.32000 5.464
21.34000 6.190
21.36000 9.761
21.38000 5.458
21.40000 3.510
21.42000 5.937
21.44000 2.019
21.46000 6.818
21.48000 4.841
21.50000 3.354
21.52000 4.143
21.54000 8.460
21.56000 4.372
21.58000 1.005
21.60000 0.974
21.62000 0.456
21.64000 2.724
21.66000 8.295
21.68000 5.697
21.70000 5.920
21.72000 6.669
21.74000 6.549
21.76000 1.975
21.78000 2.812
21.80000 4.124
21.82000 2.103
21.84000 5.004
21.86000 4.585
21.88000 1.345
21.90000 3.332
21.92000 5.588
21.94000 4.493
21.96000 4.473
21.98000 1.170
22.00000 1.674
22.02000 1.560
22.04000 -0.249
22.06000 3.225
22.08000 6.758
22.10000 0.853
22.12000 0.194
22.14000 -1.679
22.16000 4.973
22.18000 7.308
22.20000 4.315
22.22000 1.336
22.24000 4.611
22.26000 8.874
22.28000 3.105
22.30000 2.004
22.32000 0.743
22.34000 -4.157
22.36000 -0.101
22.38000 -0.122
22.40000 0.862
22.42000 3.579
22.44000 2.035
22.46000 -0.315
22.48000 -0.171
22.50000 7.561
22.52000 5.301
22.54000 3.955
22.56000 1.282
22.58000 0.944
22.60000 6.247
22.62000 9.490
22.64000 2.994
22.66000 -0.655
22.68000 1.648
22.70000 3.297
22.72000 0.098
22.74000 0.249
22.76000 3.384
22.78000 -0.740
22.80000 -3.483
22.82000 3.656
22.84000 -0.693
22.86000 -1.825
22.88000 -0.483
22.90000 1.724
22.92000 4.003
22.94000 2.687
22.96000 1.697
22.98000 5.156
23.00000 -0.034
23.02000 -1.052
23.04000 4.893
23.06000 1.935
23.08000 -0.492
23.10000 2.279
23.12000 2.940
23.14000 11.886
23.16000 14.482
23.18000 15.061
23.20000 6.726
23.22000 1.519
23.24000 -0.789
23.26000 -4.080
23.28000 2.282
23.30000 3.681
23.32000 1.819
23.34000 1.100
23.36000 1.591
23.38000 0.819
23.40000 2.065
23.42000 2.854
23.44000 3.708
23.46000 4.867
23.48000 1.801
23.50000 7.933
23.52000 5.758
23.54000 -0.842
23.56000 5.485
23.58000 11.159
23.60000 13.281
23.62000 10.478
23.64000 7.629
23.66000 3.862
23.68000 4.871
23.70000 4.303
23.72000 -0.251
23.74000 0.588
23.76000 1.967
23.78000 1.383
23.80000 1.265
23.82000 5.739
23.84000 8.899
23.86000 2.884
23.88000 -2.400
23.90000 2.071
23.92000 9.102
23.94000 11.143
23.96000 9.756
23.98000 4.147
24.00000 5.111
24.02000 6.713
24.04000 10.950
24.06000 9.613
24.08000 2.373
24.10000 -3.994
24.12000 -3.891
24.14000 0.960
24.16000 7.486
24.18000 9.977
24.20000 13.375
24.22000 11.906
24.24000 6.288
24.26000 7.142
24.28000 7.567
24.30000 6.148
24.32000 5.990
24.34000 7.890
24.36000 13.051
24.38000 10.083
24.40000 11.902
24.42000 8.337
24.44000 4.502
24.46000 10.952
24.48000 9.973
24.50000 6.666
24.52000 5.874
24.54000 5.630
24.56000 2.522
24.58000 1.002
24.60000 11.022
24.62000 13.204
24.64000 7.287
24.66000 6.364
24.68000 3.311
24.70000 4.048
24.72000 6.479
24.74000 6.270
24.76000 2.216
24.78000 1.899
24.80000 -0.039
24.82000 3.023
24.84000 0.874
24.86000 2.066
24.88000 3.025
24.90000 5.510
24.92000 0.911
24.94000 3.850
24.96000 4.047
24.98000 3.413
25.00000 3.333
25.02000 2.375
25.04000 4.892
25.06000 2.545
25.08000 5.923
25.10000 5.303
25.12000 4.826
25.14000 7.681
25.16000 5.405
25.18000 8.280
25.20000 7.981
25.22000 7.074
25.24000 7.562
25.26000 3.689
25.28000 5.707
25.30000 6.326
25.32000 9.145
25.34000 3.941
25.36000 5.778
25.38000 6.688
25.40000 7.296
25.42000 6.812
25.44000 -0.396
25.46000 2.620
25.48000 8.402
25.50000 1.397
25.52000 0.115
25.54000 6.332
25.56000 7.421
25.58000 1.326
25.60000 -0.133
25.62000 6.665
25.64000 6.001
25.66000 1.978
25.68000 -2.787
25.70000 -3.941
25.72000 -2.280
25.74000 -2.069
25.76000 4.609
25.78000 6.476
25.80000 2.110
25.82000 -0.157
25.84000 -0.073
25.86000 -1.522
25.88000 2.277
25.90000 2.656
25.92000 -0.563
25.94000 0.971
25.96000 4.472
25.98000 1.091
26.00000 2.474
26.02000 5.137
26.04000 11.752
26.06000 10.323
26.08000 5.927
26.10000 6.369
26.12000 2.320
26.14000 1.330
26.16000 3.897
26.18000 1.803
26.20000 5.199
26.22000 -1.756
26.24000 -0.537
26.26000 7.210
26.28000 6.795
26.30000 5.160
26.32000 -2.079
26.34000 1.669
26.36000 6.045
26.38000 4.756
26.40000 3.519
26.42000 4.212
26.44000 5.318
26.46000 2.869
26.48000 -0.077
26.50000 2.006
26.52000 -0.123
26.54000 1.156
26.56000 0.125
26.58000 -3.465
26.60000 -2.514
26.62000 0.053
26.64000 -0.647
26.66000 6.416
26.68000 2.601
26.70000 1.431
26.72000 5.992
26.74000 7.300
26.76000 1.433
26.78000 -0.435
26.80000 -1.761
26.82000 -2.918
26.84000 0.846
26.86000 4.619
26.88000 4.387
26.90000 2.398
26.92000 1.228
26.94000 2.423
26.96000 4.217
26.98000 4.862
27.00000 2.803
27.02000 5.013
27.04000 6.813
27.06000 9.518
27.08000 4.788
27.10000 -1.830
27.12000 -1.900
27.14000 3.071
27.16000 2.194
27.18000 5.146
27.20000 -3.207
27.22000 -1.416
27.24000 2.292
27.26000 -0.950
27.28000 1.573
27.30000 0.647
27.32000 -2.803
27.34000 -3.882
27.36000 4.343
27.38000 4.442
27.40000 -1.738
27.42000 0.446
27.44000 9.029
27.46000 5.247
27.48000 2.484
27.50000 2.624
27.52000 0.604
27.54000 3.068
27.56000 5.854
27.58000 1.183
27.60000 -1.533
27.62000 -0.265
27.64000 4.540
27.66000 4.946
27.68000 7.523
27.70000 5.124
27.72000 3.887
27.74000 3.662
27.76000 4.952
27.78000 3.098
27.80000 5.412
27.82000 13.840
27.84000 7.236
27.86000 5.163
27.88000 0.846
27.90000 1.804
27.92000 2.785
27.94000 -1.809
27.96000 -0.687
27.98000 4.491
28.00000 7.502
28.02000 5.244
28.04000 3.605
28.06000 3.809
28.08000 11.377
28.10000 6.058
28.12000 -1.374
28.14000 -2.044
28.16000 6.808
28.18000 7.622
28.20000 -0.069
28.22000 -3.827
28.24000 -1.784
28.26000 8.149
28.28000 9.054
28.30000 2.978
28.32000 0.786
28.34000 5.055
28.36000 -0.062
28.38000 3.774
28.40000 -0.813
28.42000 2.887
28.44000 4.662
28.46000 3.304
28.48000 3.375
28.50000 1.523
28.52000 2.079
28.54000 0.167
28.56000 1.122
28.58000 2.095
28.60000 2.907
28.62000 2.848
28.64000 3.715
28.66000 1.341
28.68000 1.846
28.70000 5.106
28.72000 4.776
28.74000 3.412
28.76000 0.743
28.78000 -0.994
28.80000 1.703
28.82000 2.815
28.84000 7.602
28.86000 5.628
28.88000 1.756
28.90000 1.243
28.92000 4.194
28.94000 1.765
28.96000 1.434
28.98000 3.278
29.00000 3.050
29.02000 1.844
29.04000 4.026
29.06000 6.605
29.08000 1.366
29.10000 2.606
29.12000 1.866
29.14000 4.204
29.16000 0.856
29.18000 -0.936
29.20000 0.492
29.22000 1.486
29.24000 -0.300
29.26000 0.903
29.28000 -0.237
29.30000 0.695
29.32000 4.696
29.34000 8.439
29.36000 5.189
29.38000 4.383
29.40000 5.281
29.42000 2.182
29.44000 1.251
29.46000 0.846
29.48000 4.260
29.50000 2.818
29.52000 0.109
29.54000 3.075
29.56000 -0.438
29.58000 -1.829
29.60000 -0.080
29.62000 -0.328
29.64000 2.650
29.66000 2.532
29.68000 -0.505
29.70000 3.559
29.72000 -0.096
29.74000 -1.686
29.76000 -0.614
29.78000 -2.089
29.80000 -1.441
29.82000 2.399
29.84000 2.629
29.86000 0.874
29.88000 4.144
29.90000 8.316
29.92000 2.716
29.94000 1.721
29.96000 -1.746
29.98000 -2.117
30.00000 1.585
30.02000 4.022
30.04000 3.724
30.06000 5.619
30.08000 6.951
30.10000 10.448
30.12000 14.434
30.14000 7.194
30.16000 1.142
30.18000 2.609
30.20000 2.353
30.22000 0.854
30.24000 0.829
30.26000 -3.316
30.28000 -3.715
30.30000 2.656
30.32000 9.753
30.34000 5.673
30.36000 11.880
30.38000 8.109
30.40000 5.718
30.42000 3.393
30.44000 3.299
30.46000 1.379
30.48000 3.858
30.50000 5.086
30.52000 9.126
30.54000 7.704
30.56000 7.726
30.58000 7.443
30.60000 5.320
30.62000 7.166
30.64000 3.403
30.66000 -3.227
30.68000 -3.674
30.70000 4.808
30.72000 9.084
30.74000 10.256
30.76000 6.875
30.78000 1.836
30.80000 1.931
30.82000 4.439
30.84000 7.734
30.86000 11.060
30.88000 4.455
30.90000 9.561
30.92000 6.414
30.94000 9.001
30.96000 4.592
30.98000 6.933
31.00000 10.334
31.02000 11.278
31.04000 5.671
31.06000 4.120
31.08000 4.432
31.10000 3.999
31.12000 -0.008
31.14000 -0.672
31.16000 6.482
31.18000 3.703
31.20000 0.509
31.22000 2.080
31.24000 5.766
31.26000 6.251
31.28000 6.589
31.30000 5.961
31.32000 6.012
31.34000 6.344
31.36000 -0.921
31.38000 -0.090
31.40000 1.621
31.42000 1.192
31.44000 3.252
31.46000 1.111
31.48000 -1.621
31.50000 5.537
31.52000 5.024
31.54000 4.374
31.56000 0.861
31.58000 2.609
31.60000 1.603
31.62000 0.026
31.64000 0.999
31.66000 2.815
31.68000 3.096
31.70000 0.635
31.72000 5.202
31.74000 5.342
31.76000 10.092
31.78000 11.058
31.80000 8.632
31.82000 4.766
31.84000 -1.388
31.86000 -1.618
31.88000 4.261
31.90000 7.500
31.92000 3.304
31.94000 -0.331
31.96000 3.051
31.98000 3.332
32.00000 4.010
32.02000 5.477
32.04000 1.593
32.06000 -3.655
32.08000 -1.299
32.10000 1.447
32.12000 7.706
32.14000 4.185
32.16000 -0.883
32.18000 2.803
32.20000 5.872
32.22000 6.415
32.24000 3.865
32.26000 2.376
32.28000 3.036
32.30000 8.229
32.32000 7.373
32.34000 3.042
32.36000 5.132
32.38000 4.946
32.40000 6.156
32.42000 5.118
32.44000 2.886
32.46000 2.387
32.48000 -1.449
32.50000 -1.456
32.52000 0.811
32.54000 3.152
32.56000 -3.298
32.58000 -0.760
32.60000 1.955
32.62000 2.333
32.64000 -1.201
32.66000 1.299
32.68000 2.693
32.70000 2.370
32.72000 8.579
32.74000 9.358
32.76000 2.891
32.78000 -1.155
32.80000 -3.643
32.82000 0.924
32.84000 3.958
32.86000 2.430
32.88000 2.569
32.90000 4.796
32.92000 6.407
32.94000 5.419
32.96000 1.555
32.98000 3.249
33.00000 2.024
33.02000 -3.184
33.04000 -2.367
33.06000 3.647
33.08000 5.219
33.10000 -3.277
33.12000 -0.365
33.14000 1.220
33.16000 1.912
33.18000 1.813
33.20000 3.262
33.22000 2.805
33.24000 4.647
33.26000 5.236
33.28000 -0.084
33.30000 -2.611
33.32000 3.128
33.34000 0.996
33.36000 1.058
33.38000 3.442
33.40000 5.118
33.42000 0.347
33.44000 0.767
33.46000 5.713
33.48000 12.796
33.50000 11.518
33.52000 9.218
33.54000 4.184
33.56000 2.802
33.58000 5.621
33.60000 10.295
33.62000 7.938
33.64000 1.660
33.66000 -3.645
33.68000 1.548
33.70000 7.221
33.72000 9.683
33.74000 2.615
33.76000 4.781
33.78000 2.626
33.80000 1.015
33.82000 3.678
33.84000 3.670
33.86000 3.193
33.88000 4.569
33.90000 7.898
33.92000 9.855
33.94000 3.294
33.96000 -2.630
33.98000 -0.316
34.00000 -0.201
34.02000 2.868
34.04000 2.060
34.06000 4.606
34.08000 4.075
34.10000 0.904
34.12000 2.371
34.14000 6.913
34.16000 7.014
34.18000 8.556
34.20000 10.281
34.22000 6.754
34.24000 1.823
34.26000 3.799
34.28000 2.213
34.30000 -0.290
34.32000 -0.199
34.34000 1.800
34.36000 4.337
34.38000 9.688
34.40000 4.010
34.42000 0.829
34.44000 5.923
34.46000 9.235
34.48000 2.585
34.50000 1.477
34.52000 3.849
34.54000 2.168
34.56000 -0.135
34.58000 4.961
34.60000 2.005
34.62000 0.941
34.64000 4.635
34.66000 6.470
34.68000 4.184
34.70000 4.777
34.72000 0.191
34.74000 1.723
34.76000 0.146
34.78000 -1.214
34.80000 1.039
34.82000 3.983
34.84000 1.348
34.86000 3.638
34.88000 3.580
34.90000 5.648
34.92000 0.863
34.94000 -0.781
34.96000 -1.222
34.98000 -2.131
35.00000 0.781
35.02000 -0.221
35.04000 -3.618
35.06000 2.661
35.08000 2.568
35.10000 6.609
35.12000 7.915
35.14000 2.539
35.16000 4.316
35.18000 4.125
35.20000 2.883
35.22000 2.922
35.24000 6.757
35.26000 4.315
35.28000 -0.672
35.30000 0.336
35.32000 -0.353
35.34000 0.472
35.36000 -1.873
35.38000 1.419
35.40000 7.708
35.42000 5.876
35.44000 2.667
35.46000 3.313
35.48000 2.008
35.50000 -3.341
35.52000 -3.626
35.54000 -1.133
35.56000 5.461
35.58000 5.916
35.60000 7.691
35.62000 4.197
35.64000 3.919
35.66000 0.255
35.68000 0.912
35.70000 4.273
35.72000 8.510
35.74000 3.895
35.76000 3.035
35.78000 1.062
35.80000 3.105
35.82000 2.646
35.84000 -0.563
35.86000 3.825
35.88000 3.870
35.90000 0.478
35.92000 1.498
35.94000 4.169
35.96000 -0.869
35.98000 -1.259
36.00000 2.026
36.02000 0.075
36.04000 3.761
36.06000 -0.016
36.08000 1.098
36.10000 4.129
36.12000 4.384
36.14000 2.892
36.16000 5.031
36.18000 5.726
36.20000 4.353
36.22000 5.707
36.24000 0.418
36.26000 -2.353
36.28000 -0.511
36.30000 -0.004
36.32000 2.714
36.34000 -3.649
36.36000 -0.360
36.38000 2.586
36.40000 1.637
36.42000 1.418
36.44000 3.869
36.46000 0.924
36.48000 6.347
36.50000 4.787
36.52000 3.879
36.54000 2.415
36.56000 -0.497
36.58000 -2.902
36.60000 0.149
36.62000 1.023
36.64000 5.264
36.66000 4.520
36.68000 2.412
36.70000 -3.398
36.72000 2.901
36.74000 0.836
36.76000 -1.941
36.78000 1.360
36.80000 0.364
36.82000 -1.244
36.84000 -0.301
36.86000 6.542
36.88000 3.897
36.90000 6.620
36.92000 1.817
36.94000 -3.690
36.96000 0.188
36.98000 7.131
37.00000 8.606
37.02000 3.485
37.04000 0.219
37.06000 3.998
37.08000 5.729
37.10000 2.729
37.12000 2.110
37.14000 4.617
37.16000 5.515
37.18000 4.196
37.20000 7.330
37.22000 9.044
37.24000 9.630
37.26000 6.238
37.28000 6.641
37.30000 11.139
37.32000 4.869
37.34000 5.475
37.36000 6.023
37.38000 9.766
37.40000 4.490
37.42000 9.683
37.44000 11.221
37.46000 2.302
37.48000 6.852
37.50000 9.944
37.52000 7.506
37.54000 8.229
37.56000 13.054
37.58000 9.407
37.60000 10.164
37.62000 11.477
37.64000 14.014
37.66000 13.408
37.68000 9.098
37.70000 8.494
37.72000 12.678
37.74000 14.456
37.76000 11.594
37.78000 14.752
37.80000 16.519
37.82000 19.201
37.84000 15.205
37.86000 14.228
37.88000 17.711
37.90000 22.783
37.92000 21.903
37.94000 23.064
37.96000 27.676
37.98000 23.014
38.00000 20.066
38.02000 24.122
38.04000 25.208
38.06000 26.656
38.08000 29.659
38.10000 32.529
38.12000 29.229
38.14000 30.231
38.16000 30.917
38.18000 26.832
38.20000 29.442
38.22000 31.629
38.24000 28.996
38.26000 32.679
38.28000 37.959
38.30000 40.275
38.32000 40.978
38.34000 46.275
38.36000 47.043
38.38000 45.337
38.40000 41.549
38.42000 45.207
38.44000 51.128
38.46000 49.176
38.48000 49.538
38.50000 52.956
38.52000 58.683
38.54000 61.934
38.56000 63.345
38.58000 65.450
38.60000 70.615
38.62000 65.125
38.64000 67.063
38.66000 80.137
38.68000 83.039
38.70000 79.702
38.72000 82.273
38.74000 85.209
38.76000 96.286
38.78000 102.896
38.80000 105.296
38.82000 106.282
38.84000 112.042
38.86000 121.340
38.88000 129.606
38.90000 135.452
38.92000 141.066
38.94000 148.642
38.96000 155.465
38.98000 166.014
39.00000 172.454
39.02000 180.375
39.04000 190.135
39.06000 199.685
39.08000 208.981
39.10000 224.978
39.12000 243.903
39.14000 253.557
39.16000 266.915
39.18000 276.503
39.20000 295.541
39.22000 317.459
39.24000 332.958
39.26000 349.858
39.28000 377.974
39.30000 386.119
39.32000 408.435
39.34000 430.924
39.36000 450.115
39.38000 478.111
39.40000 501.610
39.42000 521.362
39.44000 533.231
39.46000 555.573
39.48000 575.295
39.50000 597.578
39.52000 618.361
39.54000 640.135
39.56000 654.922
39.58000 656.605
39.60000 684.942
39.62000 696.610
39.64000 696.224
39.66000 693.365
39.68000 689.340
39.70000 694.173
39.72000 692.839
39.74000 691.109
39.76000 675.769
39.78000 666.346
39.80000 651.994
39.82000 644.682
39.84000 630.119
39.86000 611.744
39.88000 595.145
39.90000 574.637
39.92000 555.143
39.94000 534.570
39.96000 506.155
39.98000 487.054
40.00000 472.100
40.02000 440.561
40.04000 412.897
40.06000 393.610
40.08000 382.246
40.10000 361.686
40.12000 344.185
40.14000 316.731
40.16000 296.047
40.18000 275.119
40.20000 261.512
40.22000 246.086
40.24000 232.908
40.26000 219.403
40.28000 194.838
40.30000 184.411
40.32000 178.609
40.34000 171.553
40.36000 155.468
40.38000 140.668
40.40000 138.334
40.42000 129.328
40.44000 120.281
40.46000 110.349
40.48000 105.000
40.50000 103.870
40.52000 92.250
40.54000 84.663
40.56000 82.562
40.58000 78.899
40.60000 73.174
40.62000 73.373
40.64000 66.789
40.66000 65.434
40.68000 51.624
40.70000 51.079
40.72000 48.596
40.74000 50.869
40.76000 51.581
40.78000 45.584
40.80000 42.385
40.82000 41.316
40.84000 35.072
40.86000 35.426
40.88000 36.035
40.90000 33.140
40.92000 31.562
40.94000 28.387
40.96000 25.735
40.98000 28.712
41.00000 29.151
41.02000 23.200
41.04000 19.689
41.06000 21.322
41.08000 23.253
41.10000 19.232
41.12000 15.977
41.14000 16.215
41.16000 18.020
41.18000 18.740
41.20000 19.623
41.22000 13.537
41.24000 12.313
41.26000 13.227
41.28000 14.997
41.30000 13.406
41.32000 14.223
41.34000 12.911
41.36000 10.114
41.38000 8.220
41.40000 6.621
41.42000 6.557
41.44000 3.339
41.46000 6.778
41.48000 9.235
41.50000 6.942
41.52000 4.552
41.54000 3.340
41.56000 5.008
41.58000 6.811
41.60000 7.742
41.62000 5.017
41.64000 4.513
41.66000 5.459
41.68000 6.372
41.70000 5.193
41.72000 6.111
41.74000 2.856
41.76000 4.501
41.78000 2.319
41.80000 -0.252
41.82000 -1.429
41.84000 0.938
41.86000 2.011
41.88000 2.392
41.90000 1.747
41.92000 4.674
41.94000 2.612
41.96000 4.876
41.98000 0.809
42.00000 4.234
42.02000 6.588
42.04000 6.386
42.06000 8.201
42.08000 6.805
42.10000 6.571
42.12000 5.004
42.14000 5.387
42.16000 3.638
42.18000 5.551
42.20000 1.295
42.22000 -1.737
42.24000 -3.364
42.26000 -0.128
42.28000 3.832
42.30000 5.567
42.32000 3.647
42.34000 0.876
42.36000 3.664
42.38000 1.199
42.40000 -1.917
42.42000 1.522
42.44000 1.770
42.46000 1.711
42.48000 1.704
42.50000 4.942
42.52000 5.978
42.54000 1.217
42.56000 -0.489
42.58000 0.108
42.60000 -2.108
42.62000 -0.606
42.64000 0.791
42.66000 -0.655
42.68000 0.226
42.70000 -1.941
42.72000 -3.280
42.74000 -2.739
42.76000 -2.738
42.78000 -1.970
42.80000 0.975
42.82000 0.116
42.84000 3.181
42.86000 6.879
42.88000 5.345
42.90000 -0.608
42.92000 2.057
42.94000 2.427
42.96000 1.115
42.98000 -3.193
43.00000 0.226
43.02000 -2.000
43.04000 -3.289
43.06000 2.444
43.08000 4.177
43.10000 2.186
43.12000 1.673
43.14000 -2.613
43.16000 -1.846
43.18000 -1.212
43.20000 -1.211
43.22000 -3.228
43.24000 -1.144
43.26000 -0.824
43.28000 -1.232
43.30000 0.278
43.32000 2.570
43.34000 1.645
43.36000 1.356
43.38000 2.237
43.40000 2.063
43.42000 -1.461
43.44000 -0.036
43.46000 1.074
43.48000 1.413
43.50000 2.477
43.52000 0.960
43.54000 -1.330
43.56000 -0.892
43.58000 -0.606
43.60000 -0.814
43.62000 0.074
43.64000 -1.812
43.66000 -1.873
43.68000 -1.107
43.70000 4.674
43.72000 3.974
43.74000 2.591
43.76000 0.952
43.78000 0.018
43.80000 1.549
43.82000 5.592
43.84000 4.571
43.86000 3.261
43.88000 0.306
43.90000 -2.425
43.92000 -3.180
43.94000 -2.055
43.96000 2.095
43.98000 2.837
44.00000 1.740
44.02000 2.445
44.04000 4.476
44.06000 3.099
44.08000 2.479
44.10000 4.398
44.12000 2.466
44.14000 0.333
44.16000 0.461
44.18000 2.372
44.20000 1.928
44.22000 1.346
44.24000 2.668
44.26000 0.276
44.28000 -0.651
44.30000 1.974
44.32000 1.084
44.34000 1.214
44.36000 1.131
44.38000 4.075
44.40000 1.445
44.42000 -0.610
44.44000 0.746
44.46000 0.734
44.48000 -2.807
44.50000 2.079
44.52000 0.414
44.54000 -1.734
44.56000 0.820
44.58000 -0.030
44.60000 -0.519
44.62000 -0.424
44.64000 3.470
44.66000 -0.037
44.68000 0.607
44.70000 1.899
44.72000 0.709
44.74000 4.182
44.76000 4.752
44.78000 0.767
44.80000 4.685
44.82000 3.718
44.84000 2.189
44.86000 0.005
44.88000 3.380
44.90000 1.155
44.92000 -1.151
44.94000 1.874
44.96000 6.020
44.98000 4.983
45.00000 6.201
45.02000 6.401
45.04000 8.072
45.06000 6.368
45.08000 3.088
45.10000 7.943
45.12000 10.572
45.14000 7.594
45.16000 5.627
45.18000 7.787
45.20000 10.543
45.22000 11.369
45.24000 7.396
45.26000 8.119
45.28000 6.369
45.30000 4.794
45.32000 10.925
45.34000 12.104
45.36000 13.883
45.38000 11.437
45.40000 13.565
45.42000 18.908
45.44000 18.635
45.46000 19.720
45.48000 16.542
45.50000 12.976
45.52000 14.077
45.54000 21.912
45.56000 20.313
45.58000 21.106
45.60000 21.771
45.62000 23.215
45.64000 26.070
45.66000 26.935
45.68000 28.299
45.70000 25.336
45.72000 31.385
45.74000 30.478
45.76000 29.988
45.78000 33.941
45.80000 36.775
45.82000 38.551
45.84000 38.686
45.86000 43.557
45.88000 45.837
45.90000 44.964
45.92000 44.167
45.94000 48.357
45.96000 50.284
45.98000 49.749
46.00000 52.314
46.02000 57.697
46.04000 50.374
46.06000 46.776
46.08000 51.462
46.10000 57.497
46.12000 60.268
46.14000 56.721
46.16000 62.037
46.18000 60.325
46.20000 58.319
46.22000 62.600
46.24000 67.793
46.26000 67.176
46.28000 64.956
46.30000 65.729
46.32000 68.433
46.34000 67.672
46.36000 65.185
46.38000 67.192
46.40000 67.143
46.42000 62.811
46.44000 64.186
46.46000 62.796
46.48000 62.839
46.50000 62.935
46.52000 63.414
46.54000 64.047
46.56000 61.771
46.58000 61.452
46.60000 61.388
46.62000 61.611
46.64000 58.213
46.66000 55.325
46.68000 52.389
46.70000 55.037
46.72000 58.600
46.74000 57.394
46.76000 50.643
46.78000 48.013
46.80000 44.325
46.82000 47.588
46.84000 45.631
46.86000 39.106
46.88000 37.262
46.90000 37.832
46.92000 36.044
46.94000 32.652
46.96000 30.311
46.98000 32.371
47.00000 28.464
47.02000 25.784
47.04000 29.209
47.06000 26.729
47.08000 27.263
47.10000 21.343
47.12000 17.679
47.14000 18.502
47.16000 14.903
47.18000 9.026
47.20000 14.279
47.22000 16.980
47.24000 18.494
47.26000 11.900
47.28000 9.005
47.30000 8.153
47.32000 8.824
47.34000 7.103
47.36000 5.961
47.38000 5.895
47.40000 9.864
47.42000 7.025
47.44000 2.392
47.46000 1.476
47.48000 4.266
47.50000 5.359
47.52000 3.248
47.54000 2.854
47.56000 4.174
47.58000 3.202
47.60000 2.446
47.62000 2.577
47.64000 -0.373
47.66000 -0.783
47.68000 -0.791
47.70000 1.791
47.72000 1.850
47.74000 -2.885
47.76000 2.727
47.78000 4.452
47.80000 -0.316
47.82000 0.658
47.84000 0.724
47.86000 0.868
47.88000 3.821
47.90000 3.536
47.92000 3.701
47.94000 2.989
47.96000 0.774
47.98000 1.375
48.00000 -1.586
48.02000 0.072
48.04000 -1.280
48.06000 -0.129
48.08000 2.335
48.10000 3.028
48.12000 -1.537
48.14000 -2.030
48.16000 -1.237
48.18000 -0.431
48.20000 1.570
48.22000 1.701
48.24000 3.390
48.26000 8.220
48.28000 3.326
48.30000 -0.057
48.32000 -2.776
48.34000 -0.825
48.36000 -0.387
48.38000 1.801
48.40000 1.449
48.42000 1.735
48.44000 -1.951
48.46000 -1.234
48.48000 1.320
48.50000 3.942
48.52000 3.513
48.54000 1.667
48.56000 -0.894
48.58000 -2.660
48.60000 0.364
48.62000 -0.791
48.64000 -0.481
48.66000 1.594
48.68000 1.740
48.70000 3.211
48.72000 3.850
48.74000 3.642
48.76000 0.338
48.78000 -0.238
48.80000 -0.621
48.82000 -2.463
48.84000 -1.031
48.86000 3.352
48.88000 8.499
48.90000 4.634
48.92000 4.424
48.94000 3.224
48.96000 0.141
48.98000 0.045
49.00000 3.457
49.02000 4.021
49.04000 0.158
49.06000 -0.931
49.08000 0.639
49.10000 0.401
49.12000 3.972
49.14000 5.538
49.16000 4.455
49.18000 3.073
49.20000 2.902
49.22000 1.822
49.24000 0.352
49.26000 -0.601
49.28000 -2.668
49.30000 0.962
49.32000 1.890
49.34000 2.704
49.36000 5.204
49.38000 2.033
49.40000 3.516
49.42000 1.056
49.44000 -0.791
49.46000 -2.617
49.48000 2.053
49.50000 4.585
49.52000 5.728
49.54000 7.413
49.56000 2.802
49.58000 4.388
49.60000 0.056
49.62000 -2.588
49.64000 0.230
49.66000 2.039
49.68000 3.520
49.70000 3.811
49.72000 3.796
49.74000 0.129
49.76000 3.361
49.78000 4.740
49.80000 2.926
49.82000 1.227
49.84000 0.126
49.86000 0.478
49.88000 5.599
49.90000 3.687
49.92000 1.523
49.94000 0.710
49.96000 0.771
49.98000 2.898
50.00000 3.111
50.02000 0.728
50.04000 1.717
50.06000 -0.133
50.08000 -2.614
50.10000 1.585
50.12000 3.251
50.14000 5.076
50.16000 5.310
50.18000 3.507
50.20000 3.331
50.22000 0.522
50.24000 0.614
50.26000 0.665
50.28000 0.521
50.30000 1.682
50.32000 -1.986
50.34000 0.124
50.36000 -0.613
50.38000 2.212
50.40000 -1.579
50.42000 4.145
50.44000 2.864
50.46000 0.256
50.48000 0.842
50.50000 2.765
50.52000 5.385
50.54000 3.166
50.56000 5.203
50.58000 2.054
50.60000 -0.984
50.62000 -2.147
50.64000 2.008
50.66000 6.160
50.68000 2.578
50.70000 3.531
50.72000 4.818
50.74000 6.140
50.76000 2.358
50.78000 3.993
50.80000 3.830
50.82000 1.819
50.84000 3.911
50.86000 5.003
50.88000 4.894
50.90000 3.590
50.92000 2.620
50.94000 7.640
50.96000 6.964
50.98000 3.897
51.00000 6.155
51.02000 7.271
51.04000 0.095
51.06000 1.806
51.08000 2.531
51.10000 1.288
51.12000 0.283
51.14000 -2.563
51.16000 -0.395
51.18000 0.536
51.20000 1.514
51.22000 1.066
51.24000 0.977
51.26000 1.802
51.28000 2.596
51.30000 2.997
51.32000 5.329
51.34000 3.843
51.36000 -1.217
51.38000 -1.381
51.40000 1.107
51.42000 3.852
51.44000 2.452
51.46000 3.604
51.48000 3.958
51.50000 7.711
51.52000 8.167
51.54000 10.204
51.56000 5.764
51.58000 3.812
51.60000 3.778
51.62000 1.492
51.64000 1.557
51.66000 2.738
51.68000 3.858
51.70000 3.228
51.72000 0.585
51.74000 4.929
51.76000 6.120
51.78000 2.965
51.80000 0.067
51.82000 1.129
51.84000 -1.231
51.86000 0.477
51.88000 2.552
51.90000 1.297
51.92000 1.424
51.94000 0.557
51.96000 0.918
51.98000 2.271
52.00000 2.184
52.02000 3.623
52.04000 4.056
52.06000 1.959
52.08000 -0.872
52.10000 0.968
52.12000 4.645
52.14000 0.712
52.16000 -2.563
52.18000 -0.378
52.20000 1.137
52.22000 1.099
52.24000 1.387
52.26000 2.693
52.28000 4.452
52.30000 1.770
52.32000 1.965
52.34000 -0.505
52.36000 0.337
52.38000 -0.271
52.40000 -2.396
52.42000 -1.023
52.44000 1.064
52.46000 0.719
52.48000 3.064
52.50000 0.611
52.52000 2.610
52.54000 1.466
52.56000 2.746
52.58000 1.171
52.60000 0.834
52.62000 1.410
52.64000 1.320
52.66000 1.449
52.68000 0.845
52.70000 -1.245
52.72000 1.256
52.74000 2.931
52.76000 3.264
52.78000 1.759
52.80000 3.235
52.82000 4.660
52.84000 3.875
52.86000 1.856
52.88000 3.836
52.90000 6.153
52.92000 1.513
52.94000 1.439
52.96000 4.706
52.98000 1.590
53.00000 -1.155
53.02000 -2.134
53.04000 -0.923
53.06000 2.754
53.08000 5.710
53.10000 5.943
53.12000 5.528
53.14000 6.117
53.16000 6.508
53.18000 6.461
53.20000 5.276
53.22000 0.351
53.24000 2.605
53.26000 4.231
53.28000 3.304
53.30000 1.401
53.32000 -0.377
53.34000 -2.518
53.36000 -1.568
53.38000 2.059
53.40000 3.116
53.42000 1.970
53.44000 0.835
53.46000 1.065
53.48000 1.370
53.50000 2.078
53.52000 4.516
53.54000 3.543
53.56000 1.035
53.58000 2.381
53.60000 -0.448
53.62000 2.969
53.64000 0.061
53.66000 -0.114
53.68000 1.661
53.70000 4.907
53.72000 6.569
53.74000 3.564
53.76000 5.310
53.78000 4.700
53.80000 1.392
53.82000 0.111
53.84000 4.017
53.86000 3.291
53.88000 5.045
53.90000 2.706
53.92000 0.896
53.94000 2.254
53.96000 2.378
53.98000 0.449
54.00000 0.375
54.02000 2.290
54.04000 0.143
54.06000 0.381
54.08000 0.057
54.10000 -1.751
54.12000 2.369
54.14000 1.967
54.16000 -0.942
54.18000 0.112
54.20000 -0.039
54.22000 2.949
54.24000 3.399
54.26000 3.216
54.28000 5.344
54.30000 4.708
54.32000 4.153
54.34000 3.457
54.36000 2.571
54.38000 3.715
54.40000 1.089
54.42000 1.698
54.44000 6.358
54.46000 4.228
54.48000 0.812
54.50000 2.834
54.52000 5.190
54.54000 4.034
54.56000 3.512
54.58000 1.720
54.60000 4.536
54.62000 5.696
54.64000 7.174
54.66000 3.185
54.68000 1.485
54.70000 -0.665
54.72000 -1.391
54.74000 3.283
54.76000 2.581
54.78000 -0.918
54.80000 2.521
54.82000 6.194
54.84000 3.026
54.86000 1.250
54.88000 0.745
54.90000 2.837
54.92000 5.704
54.94000 4.280
54.96000 1.440
54.98000 -2.468
55.00000 4.524
55.02000 2.249
55.04000 2.432
55.06000 1.747
55.08000 1.055
55.10000 2.592
55.12000 1.607
55.14000 2.580
55.16000 0.855
55.18000 -0.755
55.20000 2.955
55.22000 0.818
55.24000 2.667
55.26000 2.497
55.28000 0.186
55.30000 -1.106
55.32000 3.564
55.34000 -0.519
55.36000 3.145
55.38000 3.494
55.40000 8.093
55.42000 7.097
55.44000 5.556
55.46000 2.724
55.48000 2.669
55.50000 3.704
55.52000 0.802
55.54000 2.106
55.56000 1.226
55.58000 3.971
55.60000 2.565
55.62000 -2.456
55.64000 -0.627
55.66000 3.637
55.68000 1.734
55.70000 -0.122
55.72000 1.954
55.74000 3.440
55.76000 3.920
55.78000 5.332
55.80000 3.957
55.82000 3.707
55.84000 1.601
55.86000 3.100
55.88000 0.658
55.90000 5.693
55.92000 8.805
55.94000 8.197
55.96000 6.053
55.98000 3.823
56.00000 1.447
56.02000 -0.574
56.04000 3.371
56.06000 4.150
56.08000 6.551
56.10000 6.159
56.12000 5.222
56.14000 2.170
56.16000 1.453
56.18000 1.117
56.20000 1.676
56.22000 5.173
56.24000 1.350
56.26000 0.398
56.28000 5.516
56.30000 5.836
56.32000 4.489
56.34000 -0.873
56.36000 2.225
56.38000 2.085
56.40000 -0.546
56.42000 1.313
56.44000 1.922
56.46000 4.709
56.48000 1.821
56.50000 1.047
56.52000 3.197
56.54000 2.725
56.56000 3.724
56.58000 4.372
56.60000 1.782
56.62000 3.989
56.64000 4.674
56.66000 1.798
56.68000 0.935
56.70000 2.950
56.72000 6.356
56.74000 8.881
56.76000 5.284
56.78000 -2.434
56.80000 0.140
56.82000 1.731
56.84000 0.391
56.86000 2.891
56.88000 1.479
56.90000 3.911
56.92000 9.134
56.94000 4.827
56.96000 -0.030
56.98000 0.196
57.00000 -0.995
57.02000 -1.423
57.04000 3.388
57.06000 2.081
57.08000 3.276
57.10000 4.834
57.12000 3.594
57.14000 2.750
57.16000 2.302
57.18000 3.125
57.20000 4.622
57.22000 3.017
57.24000 4.492
57.26000 4.067
57.28000 2.803
57.30000 1.555
57.32000 1.551
57.34000 3.155
57.36000 3.319
57.38000 4.593
57.40000 2.262
57.42000 2.043
57.44000 3.473
57.46000 1.661
57.48000 1.171
57.50000 -0.332
57.52000 1.178
57.54000 2.495
57.56000 1.587
57.58000 2.198
57.60000 3.890
57.62000 6.178
57.64000 2.666
57.66000 -0.730
57.68000 0.996
57.70000 0.664
57.72000 -1.567
57.74000 -2.412
57.76000 2.581
57.78000 2.762
57.80000 2.414
57.82000 3.844
57.84000 4.844
57.86000 2.671
57.88000 -0.068
57.90000 -0.291
57.92000 1.572
57.94000 -0.214
57.96000 0.166
57.98000 4.195
58.00000 6.476
58.02000 2.693
58.04000 2.925
58.06000 1.099
58.08000 1.990
58.10000 -0.269
58.12000 -0.649
58.14000 -0.085
58.16000 -0.936
58.18000 -0.213
58.20000 -1.595
58.22000 1.165
58.24000 1.152
58.26000 0.916
58.28000 -1.185
58.30000 -0.899
58.32000 -2.414
58.34000 2.105
58.36000 2.165
58.38000 -0.603
58.40000 0.430
58.42000 5.021
58.44000 2.517
58.46000 0.165
58.48000 -0.220
58.50000 1.265
58.52000 -0.594
58.54000 0.077
58.56000 3.451
58.58000 0.772
58.60000 0.851
58.62000 -0.992
58.64000 1.194
58.66000 5.319
58.68000 4.223
58.70000 0.961
58.72000 -0.120
58.74000 -0.962
58.76000 1.244
58.78000 2.901
58.80000 2.833
58.82000 2.199
58.84000 4.683
58.86000 6.094
58.88000 2.855
58.90000 0.993
58.92000 -1.177
58.94000 -0.226
58.96000 0.565
58.98000 1.362
59.00000 0.945
59.02000 -1.470
59.04000 -1.120
59.06000 -0.553
59.08000 2.742
59.10000 2.667
59.12000 -0.353
59.14000 0.574
59.16000 3.458
59.18000 3.453
59.20000 4.065
59.22000 4.543
59.24000 0.709
59.26000 2.528
59.28000 5.159
59.30000 3.384
59.32000 0.414
59.34000 2.891
59.36000 1.980
59.38000 0.724
59.40000 2.015
59.42000 2.558
59.44000 1.835
59.46000 -1.531
59.48000 -1.523
59.50000 0.538
59.52000 1.932
59.54000 2.249
59.56000 0.833
59.58000 0.251
59.60000 0.825
59.62000 -2.358
59.64000 -1.660
59.66000 -0.114
59.68000 1.980
59.70000 1.008
59.72000 1.114
59.74000 0.941
59.76000 0.577
59.78000 3.793
59.80000 1.899
59.82000 2.671
59.84000 3.147
59.86000 0.295
59.88000 1.816
59.90000 2.489
59.92000 2.455
59.94000 3.132
59.96000 3.417
59.98000 0.421
60.00000 -0.810
60.02000 1.156
60.04000 4.956
60.06000 3.779
60.08000 2.249
60.10000 -0.462
60.12000 -1.088
60.14000 1.289
60.16000 2.313
60.18000 0.379
60.20000 2.439
60.22000 4.164
60.24000 5.797
60.26000 1.878
60.28000 0.837
60.30000 2.586
60.32000 0.792
60.34000 3.985
60.36000 6.305
60.38000 -0.072
60.40000 -2.026
60.42000 0.504
60.44000 1.962
60.46000 4.050
60.48000 2.273
60.50000 4.693
60.52000 5.013
60.54000 2.669
60.56000 -0.167
60.58000 1.523
60.60000 -2.338
60.62000 -1.650
60.64000 0.412
60.66000 -2.337
60.68000 4.817
60.70000 6.053
60.72000 2.924
60.74000 2.351
60.76000 -1.621
60.78000 3.603
60.80000 4.467
60.82000 3.127
60.84000 1.388
60.86000 -0.454
60.88000 2.980
60.90000 3.172
60.92000 0.226
60.94000 0.845
60.96000 2.067
60.98000 3.943
61.00000 2.114
61.02000 2.905
61.04000 3.219
61.06000 3.345
61.08000 4.696
61.10000 0.922
61.12000 0.190
61.14000 3.295
61.16000 3.131
61.18000 3.945
61.20000 2.444
61.22000 2.646
61.24000 3.641
61.26000 2.259
61.28000 1.410
61.30000 1.313
61.32000 1.492
61.34000 -2.308
61.36000 -1.884
61.38000 0.858
61.40000 2.449
61.42000 2.984
61.44000 1.876
61.46000 1.514
61.48000 2.213
61.50000 1.098
61.52000 3.121
61.54000 3.490
61.56000 7.084
61.58000 2.825
61.60000 0.014
61.62000 1.888
61.64000 6.012
61.66000 3.647
61.68000 0.663
61.70000 1.976
61.72000 2.256
61.74000 1.826
61.76000 1.359
61.78000 4.732
61.80000 2.774
61.82000 -0.487
61.84000 -1.750
61.86000 2.652
61.88000 1.117
61.90000 1.239
61.92000 -0.675
61.94000 -2.295
61.96000 -1.820
61.98000 -0.385
62.00000 0.938
62.02000 -1.547
62.04000 -1.555
62.06000 -1.282
62.08000 0.066
62.10000 0.599
62.12000 2.350
62.14000 3.647
62.16000 1.314
62.18000 0.094
62.20000 1.940
62.22000 2.654
62.24000 4.119
62.26000 1.862
62.28000 0.041
62.30000 -0.480
62.32000 -2.299
62.34000 -0.901
62.36000 1.030
62.38000 4.290
62.40000 -0.782
62.42000 0.392
62.44000 2.075
62.46000 3.246
62.48000 -0.304
62.50000 -1.819
62.52000 0.514
62.54000 1.013
62.56000 2.263
62.58000 -0.431
62.60000 -1.955
62.62000 2.080
62.64000 5.376
62.66000 3.320
62.68000 5.277
62.70000 3.213
62.72000 -1.196
62.74000 -0.374
62.76000 2.321
62.78000 0.134
62.80000 0.021
62.82000 1.080
62.84000 5.682
62.86000 6.422
62.88000 3.048
62.90000 1.327
62.92000 2.552
62.94000 0.191
62.96000 -0.764
62.98000 -2.260
63.00000 -2.306
63.02000 -0.196
63.04000 4.030
63.06000 3.699
63.08000 -0.550
63.10000 1.186
63.12000 2.126
63.14000 1.410
63.16000 1.454
63.18000 -1.783
63.20000 0.624
63.22000 2.248
63.24000 -1.790
63.26000 -2.313
63.28000 1.375
63.30000 4.156
63.32000 0.383
63.34000 -0.685
63.36000 -0.560
63.38000 0.935
63.40000 1.845
63.42000 1.081
63.44000 1.937
63.46000 5.109
63.48000 3.705
63.50000 1.711
63.52000 0.236
63.54000 0.831
63.56000 -0.331
63.58000 -0.652
63.60000 0.139
63.62000 2.401
63.64000 1.605
63.66000 4.015
63.68000 0.762
63.70000 -1.545
63.72000 2.371
63.74000 2.201
63.76000 1.232
63.78000 0.591
63.80000 0.951
63.82000 1.579
63.84000 -0.870
63.86000 -0.928
63.88000 -0.036
63.90000 2.200
63.92000 -1.347
63.94000 -2.314
63.96000 0.153
63.98000 3.235
64.00000 0.277
64.02000 3.755
64.04000 3.359
64.06000 1.577
64.08000 1.159
64.10000 -0.544
64.12000 1.742
64.14000 0.538
64.16000 1.926
64.18000 -2.003
64.20000 1.239
64.22000 2.452
64.24000 -0.926
64.26000 -0.337
64.28000 1.546
64.30000 4.622
64.32000 3.139
64.34000 0.722
64.36000 -0.787
64.38000 -1.587
64.40000 0.095
64.42000 2.669
64.44000 -0.490
64.46000 -1.839
64.48000 2.639
64.50000 2.474
64.52000 2.391
64.54000 1.108
64.56000 1.664
64.58000 2.982
64.60000 0.826
64.62000 -0.333
64.64000 -0.239
64.66000 0.935
64.68000 -1.641
64.70000 1.164
64.72000 -1.096
64.74000 1.215
64.76000 1.003
64.78000 3.451
64.80000 6.050
64.82000 -0.788
64.84000 -0.788
64.86000 1.492
64.88000 1.849
64.90000 3.198
64.92000 2.174
64.94000 1.724
64.96000 0.402
64.98000 -2.297
65.00000 -0.704
65.02000 1.528
65.04000 3.412
65.06000 2.498
65.08000 2.276
65.10000 3.521
65.12000 2.876
65.14000 1.739
65.16000 2.248
65.18000 2.104
65.20000 0.886
65.22000 2.866
65.24000 3.249
65.26000 3.424
65.28000 -1.043
65.30000 -1.965
65.32000 0.953
65.34000 2.625
65.36000 1.303
65.38000 3.615
65.40000 4.632
65.42000 3.034
65.44000 1.758
65.46000 1.397
65.48000 -1.441
65.50000 1.750
65.52000 7.487
65.54000 2.209
65.56000 1.598
65.58000 0.121
65.60000 -0.746
65.62000 3.172
65.64000 0.606
65.66000 0.154
65.68000 -0.399
65.70000 2.344
65.72000 3.028
65.74000 1.015
65.76000 -2.330
65.78000 -0.930
65.80000 2.207
65.82000 2.844
65.84000 2.314
65.86000 1.863
65.88000 3.354
65.90000 5.692
65.92000 2.652
65.94000 1.884
65.96000 2.355
65.98000 6.575
66.00000 3.156
66.02000 1.840
66.04000 1.973
66.06000 1.442
66.08000 3.339
66.10000 3.574
66.12000 5.712
66.14000 3.708
66.16000 -1.179
66.18000 0.893
66.20000 1.744
66.22000 4.912
66.24000 3.283
66.26000 5.750
66.28000 5.722
66.30000 5.302
66.32000 2.150
66.34000 0.612
66.36000 5.610
66.38000 2.160
66.40000 -0.173
66.42000 3.405
66.44000 1.703
66.46000 0.272
66.48000 1.241
66.50000 3.544
66.52000 3.878
66.54000 4.059
66.56000 3.080
66.58000 0.292
66.60000 4.983
66.62000 4.379
66.64000 3.376
66.66000 3.917
66.68000 5.741
66.70000 4.483
66.72000 4.826
66.74000 5.616
66.76000 8.220
66.78000 7.915
66.80000 10.385
66.82000 11.802
66.84000 9.533
66.86000 7.588
66.88000 9.291
66.90000 10.592
66.92000 14.199
66.94000 12.028
66.96000 10.109
66.98000 9.570
67.00000 11.423
67.02000 11.603
67.04000 14.066
67.06000 15.816
67.08000 13.445
67.10000 13.729
67.12000 8.890
67.14000 11.174
67.16000 14.278
67.18000 15.705
67.20000 13.163
67.22000 11.325
67.24000 15.969
67.26000 14.323
67.28000 15.981
67.30000 18.086
67.32000 18.269
67.34000 16.646
67.36000 18.912
67.38000 19.082
67.40000 18.778
67.42000 16.245
67.44000 17.855
67.46000 19.017
67.48000 15.629
67.50000 15.195
67.52000 16.845
67.54000 17.012
67.56000 17.887
67.58000 17.138
67.60000 19.287
67.62000 19.921
67.64000 18.374
67.66000 16.785
67.68000 13.982
67.70000 10.458
67.72000 12.902
67.74000 15.535
67.76000 15.494
67.78000 15.958
67.80000 17.575
67.82000 15.643
67.84000 14.301
67.86000 15.139
67.88000 12.786
67.90000 13.059
67.92000 10.893
67.94000 9.804
67.96000 11.213
67.98000 10.601
68.00000 10.752
68.02000 11.232
68.04000 9.595
68.06000 7.630
68.08000 8.534
68.10000 10.481
68.12000 10.516
68.14000 12.003
68.16000 7.818
68.18000 8.330
68.20000 7.440
68.22000 7.008
68.24000 8.068
68.26000 6.419
68.28000 7.445
68.30000 6.476
68.32000 5.388
68.34000 7.138
68.36000 6.891
68.38000 7.119
68.40000 5.404
68.42000 3.493
68.44000 3.787
68.46000 5.954
68.48000 3.982
68.50000 1.651
68.52000 5.723
68.54000 4.788
68.56000 1.865
68.58000 3.917
68.60000 4.219
68.62000 5.424
68.64000 4.855
68.66000 2.808
68.68000 1.741
68.70000 0.194
68.72000 -2.275
68.74000 0.484
68.76000 -0.407
68.78000 0.696
68.80000 -0.264
68.82000 -0.094
68.84000 2.835
68.86000 4.744
68.88000 7.634
68.90000 2.264
68.92000 3.429
68.94000 3.123
68.96000 1.252
68.98000 3.431
69.00000 3.071
69.02000 2.303
69.04000 4.659
69.06000 4.238
69.08000 3.082
69.10000 4.193
69.12000 4.378
69.14000 2.485
69.16000 -2.235
69.18000 -0.403
69.20000 3.448
69.22000 4.181
69.24000 4.070
69.26000 -0.086
69.28000 1.481
69.30000 3.186
69.32000 3.532
69.34000 1.646
69.36000 1.416
69.38000 2.714
69.40000 4.911
69.42000 2.902
69.44000 0.969
69.46000 1.620
69.48000 -1.019
69.50000 1.058
69.52000 0.516
69.54000 0.322
69.56000 0.213
69.58000 3.087
69.60000 3.553
69.62000 0.372
69.64000 3.100
69.66000 1.838
69.68000 1.326
69.70000 1.936
69.72000 -1.439
69.74000 0.095
69.76000 2.537
69.78000 3.050
69.80000 4.615
69.82000 4.375
69.84000 0.534
69.86000 -0.192
69.88000 1.029
69.90000 2.567
69.92000 0.822
69.94000 -0.032
69.96000 1.006
69.98000 0.317
70.00000 4.993
70.02000 4.278
70.04000 1.229
70.06000 0.562
70.08000 1.769
70.10000 0.953
70.12000 3.585
70.14000 3.388
70.16000 4.976
70.18000 0.070
70.20000 -0.590
70.22000 2.215
70.24000 1.418
70.26000 0.254
70.28000 -1.208
70.30000 -0.082
70.32000 2.836
70.34000 2.677
70.36000 1.860
70.38000 2.835
70.40000 2.833
70.42000 0.034
70.44000 -1.197
70.46000 2.843
70.48000 3.442
70.50000 1.280
70.52000 -2.219
70.54000 0.042
70.56000 0.687
70.58000 -1.114
70.60000 -0.414
70.62000 -0.027
70.64000 0.976
70.66000 1.416
70.68000 0.907
70.70000 2.865
70.72000 1.693
70.74000 -2.214
70.76000 1.031
70.78000 -0.287
70.80000 0.970
70.82000 -0.768
70.84000 -0.338
70.86000 2.587
70.88000 1.569
70.90000 0.830
70.92000 0.305
70.94000 2.830
70.96000 5.689
70.98000 4.725
71.00000 1.996
71.02000 -0.422
71.04000 -0.099
71.06000 -0.990
71.08000 -0.588
71.10000 -0.099
71.12000 -0.131
71.14000 -1.129
71.16000 1.573
71.18000 0.136
71.20000 -0.520
71.22000 -0.497
71.24000 -0.677
71.26000 -0.634
71.28000 1.831
71.30000 3.024
71.32000 3.486
71.34000 3.832
71.36000 3.017
71.38000 3.599
71.40000 2.264
71.42000 -1.972
71.44000 1.505
71.46000 6.520
71.48000 1.496
71.50000 -0.122
71.52000 1.161
71.54000 -0.828
71.56000 1.387
71.58000 6.843
71.60000 1.617
71.62000 3.068
71.64000 3.293
71.66000 2.326
71.68000 1.353
71.70000 4.086
71.72000 3.537
71.74000 1.062
71.76000 3.110
71.78000 3.347
71.80000 1.194
71.82000 4.073
71.84000 5.638
71.86000 6.032
71.88000 2.551
71.90000 -0.453
71.92000 -1.867
71.94000 -0.853
71.96000 -1.382
71.98000 -0.101
72.00000 4.323
72.02000 3.593
72.04000 -2.144
72.06000 -0.322
72.08000 4.034
72.10000 3.365
72.12000 0.020
72.14000 0.844
72.16000 5.336
72.18000 0.973
72.20000 2.828
72.22000 1.572
72.24000 1.702
72.26000 0.757
72.28000 -2.147
72.30000 0.448
72.32000 2.851
72.34000 1.552
72.36000 1.117
72.38000 2.182
72.40000 1.976
72.42000 2.194
72.44000 1.635
72.46000 1.315
72.48000 2.044
72.50000 3.276
72.52000 -0.220
72.54000 1.184
72.56000 4.631
72.58000 4.843
72.60000 4.431
72.62000 0.889
72.64000 -0.886
72.66000 -1.211
72.68000 1.069
72.70000 0.915
72.72000 2.347
72.74000 3.959
72.76000 1.497
72.78000 2.571
72.80000 2.183
72.82000 2.883
72.84000 1.152
72.86000 2.377
72.88000 2.630
72.90000 3.060
72.92000 3.316
72.94000 5.436
72.96000 1.799
72.98000 -0.182
73.00000 3.399
73.02000 3.319
73.04000 2.273
73.06000 5.827
73.08000 6.092
73.10000 3.147
73.12000 -0.528
73.14000 1.710
73.16000 9.227
73.18000 7.021
73.20000 0.194
73.22000 3.439
73.24000 5.853
73.26000 4.319
73.28000 3.985
73.30000 2.162
73.32000 2.623
73.34000 4.769
73.36000 1.923
73.38000 5.911
73.40000 5.348
73.42000 3.622
73.44000 -2.098
73.46000 3.104
73.48000 4.989
73.50000 3.569
73.52000 5.684
73.54000 6.282
73.56000 3.902
73.58000 6.782
73.60000 5.369
73.62000 3.218
73.64000 4.110
73.66000 5.374
73.68000 4.731
73.70000 2.009
73.72000 -0.084
73.74000 2.687
73.76000 3.009
73.78000 -0.573
73.80000 1.521
73.82000 3.434
73.84000 1.660
73.86000 1.096
73.88000 3.602
73.90000 5.409
73.92000 6.483
73.94000 4.316
73.96000 0.825
73.98000 1.900
74.00000 0.388
74.02000 0.144
74.04000 1.537
74.06000 4.499
74.08000 2.804
74.10000 1.907
74.12000 0.808
74.14000 2.991
74.16000 5.592
74.18000 4.369
74.20000 0.059
74.22000 -2.114
74.24000 -1.675
74.26000 4.844
74.28000 4.148
74.30000 4.229
74.32000 3.001
74.34000 5.671
74.36000 3.016
74.38000 2.380
74.40000 0.567
74.42000 1.989
74.44000 2.161
74.46000 -0.100
74.48000 1.592
74.50000 3.695
74.52000 -1.524
74.54000 1.307
74.56000 3.073
74.58000 4.108
74.60000 3.201
74.62000 3.009
74.64000 0.706
74.66000 3.318
74.68000 2.416
74.70000 2.383
74.72000 1.690
74.74000 -0.774
74.76000 -1.131
74.78000 0.289
74.80000 0.647
74.82000 3.219
74.84000 7.548
74.86000 7.448
74.88000 1.927
74.90000 2.046
74.92000 4.643
74.94000 3.721
74.96000 2.156
74.98000 1.472
75.00000 2.472
75.02000 1.788
75.04000 -0.773
75.06000 1.616
75.08000 0.301
75.10000 -0.362
75.12000 2.549
75.14000 2.002
75.16000 3.655
75.18000 0.120
75.20000 -2.154
75.22000 -2.120
75.24000 -1.560
75.26000 -1.828
75.28000 -2.124
75.30000 -0.930
75.32000 2.658
75.34000 4.561
75.36000 1.005
75.38000 2.001
75.40000 2.403
75.42000 6.072
75.44000 5.838
75.46000 6.343
75.48000 6.120
75.50000 3.807
75.52000 0.254
75.54000 -1.292
75.56000 0.330
75.58000 1.609
75.60000 3.248
75.62000 1.636
75.64000 -1.313
75.66000 1.840
75.68000 4.593
75.70000 4.094
75.72000 2.555
75.74000 2.805
75.76000 0.266
75.78000 1.847
75.80000 5.889
75.82000 1.451
75.84000 -2.151
75.86000 0.472
75.88000 4.822
75.90000 3.688
75.92000 1.436
75.94000 4.292
75.96000 5.318
75.98000 -0.414
76.00000 2.699
76.02000 5.350
76.04000 5.551
76.06000 0.850
76.08000 -0.131
76.10000 0.401
76.12000 2.461
76.14000 3.984
76.16000 4.258
76.18000 1.251
76.20000 -1.105
76.22000 -1.595
76.24000 -1.290
76.26000 4.891
76.28000 5.011
76.30000 1.438
76.32000 -0.316
76.34000 -1.471
76.36000 1.175
76.38000 2.975
76.40000 5.182
76.42000 -0.821
76.44000 -2.062
76.46000 2.269
76.48000 4.159
76.50000 3.027
76.52000 3.524
76.54000 3.276
76.56000 2.837
76.58000 1.227
76.60000 5.210
76.62000 5.129
76.64000 2.182
76.66000 1.895
76.68000 2.428
76.70000 0.596
76.72000 -0.634
76.74000 -1.132
76.76000 0.400
76.78000 1.432
76.80000 2.026
76.82000 3.361
76.84000 2.989
76.86000 0.836
76.88000 1.761
76.90000 -0.451
76.92000 -0.826
76.94000 1.335
76.96000 0.633
76.98000 2.081
77.00000 2.582
77.02000 -2.181
77.04000 -1.568
77.06000 -0.680
77.08000 0.201
77.10000 -1.089
77.12000 -0.779
77.14000 0.781
77.16000 0.580
77.18000 4.550
77.20000 1.753
77.22000 2.209
77.24000 3.611
77.26000 1.737
77.28000 0.828
77.30000 0.493
77.32000 -0.434
77.34000 -0.618
77.36000 -1.440
77.38000 1.224
77.40000 1.609
77.42000 2.540
77.44000 -0.574
77.46000 1.533
77.48000 4.264
77.50000 5.334
77.52000 2.945
77.54000 -1.301
77.56000 1.795
77.58000 2.519
77.60000 1.309
77.62000 -0.797
77.64000 -1.716
77.66000 1.546
77.68000 2.130
77.70000 3.709
77.72000 5.286
77.74000 3.327
77.76000 1.754
77.78000 3.399
77.80000 1.573
77.82000 2.502
77.84000 4.967
77.86000 0.508
77.88000 0.381
77.90000 3.585
77.92000 3.339
77.94000 1.191
77.96000 -2.185
77.98000 -0.944
78.00000 -0.332
78.02000 1.432
78.04000 1.973
78.06000 3.670
78.08000 1.707
78.10000 1.691
78.12000 2.143
78.14000 0.398
78.16000 -0.104
78.18000 -0.520
78.20000 2.492
78.22000 4.644
78.24000 0.299
78.26000 0.283
78.28000 3.883
78.30000 4.688
78.32000 3.739
78.34000 4.733
78.36000 1.988
78.38000 3.877
78.40000 1.178
78.42000 4.814
78.44000 5.322
78.46000 1.796
78.48000 -0.051
78.50000 -2.225
78.52000 -0.491
78.54000 1.284
78.56000 1.281
78.58000 0.319
78.60000 1.872
78.62000 0.937
78.64000 -2.105
78.66000 0.499
78.68000 -1.918
78.70000 -0.593
78.72000 -0.730
78.74000 0.628
78.76000 0.180
78.78000 -1.100
78.80000 -0.122
78.82000 -1.034
78.84000 -1.586
78.86000 -2.243
78.88000 -1.692
78.90000 2.066
78.92000 0.825
78.94000 -0.239
78.96000 0.033
78.98000 -1.101
79.00000 0.817
79.02000 1.877
79.04000 2.546
79.06000 0.996
79.08000 -1.131
79.10000 2.318
79.12000 1.667
79.14000 0.729
79.16000 -0.125
79.18000 1.383
79.20000 3.440
79.22000 1.936
79.24000 2.006
79.26000 1.132
79.28000 0.492
79.30000 0.099
79.32000 1.783
79.34000 0.428
79.36000 -1.599
79.38000 -2.080
79.40000 0.349
79.42000 2.405
79.44000 -1.721
79.46000 0.136
79.48000 -1.411
79.50000 -0.148
79.52000 -2.308
79.54000 -1.705
79.56000 -1.752
79.58000 1.762
79.60000 1.322
79.62000 2.864
79.64000 2.183
79.66000 2.149
79.68000 -0.897
79.70000 0.026
79.72000 1.650
79.74000 -2.322
79.76000 0.912
79.78000 0.239
79.80000 -2.328
79.82000 -0.510
79.84000 0.636
79.86000 0.397
79.88000 2.141
79.90000 3.294
79.92000 4.770
79.94000 3.940
79.96000 -0.141
79.98000 4.294
80.00000 5.326
80.02000 1.411
80.04000 -0.242
80.06000 -0.231
80.08000 0.665
80.10000 -0.507
80.12000 -1.720
80.14000 1.853
80.16000 7.924
80.18000 5.435
80.20000 2.673
80.22000 4.002
80.24000 7.494
80.26000 7.753
80.28000 8.469
80.30000 6.312
80.32000 3.603
80.34000 1.925
80.36000 4.930
80.38000 9.297
80.40000 7.565
80.42000 6.105
80.44000 7.155
80.46000 4.221
80.48000 6.402
80.50000 9.069
80.52000 4.805
80.54000 6.448
80.56000 10.555
80.58000 11.876
80.60000 13.156
80.62000 8.351
80.64000 5.338
80.66000 7.772
80.68000 12.699
80.70000 11.367
80.72000 9.935
80.74000 11.731
80.76000 13.022
80.78000 14.061
80.80000 11.025
80.82000 10.635
80.84000 15.162
80.86000 18.117
80.88000 8.490
80.90000 11.278
80.92000 13.086
80.94000 14.072
80.96000 12.561
80.98000 16.560
81.00000 17.888
81.02000 21.162
81.04000 21.862
81.06000 20.566
81.08000 18.837
81.10000 16.921
81.12000 17.234
81.14000 20.345
81.16000 24.009
81.18000 21.117
81.20000 20.740
81.22000 23.016
81.24000 20.349
81.26000 17.798
81.28000 21.099
81.30000 23.685
81.32000 21.292
81.34000 19.983
81.36000 26.640
81.38000 21.395
81.40000 24.137
81.42000 26.133
81.44000 23.804
81.46000 23.419
81.48000 24.896
81.50000 22.703
81.52000 21.971
81.54000 24.779
81.56000 25.372
81.58000 26.772
81.60000 22.793
81.62000 19.660
81.64000 20.543
81.66000 18.768
81.68000 19.473
81.70000 20.654
81.72000 18.695
81.74000 22.703
81.76000 22.200
81.78000 21.657
81.80000 22.771
81.82000 21.272
81.84000 19.918
81.86000 21.522
81.88000 19.490
81.90000 18.764
81.92000 22.565
81.94000 19.603
81.96000 20.866
81.98000 21.087
82.00000 19.446
82.02000 17.025
82.04000 15.474
82.06000 13.867
82.08000 12.690
82.10000 15.058
82.12000 14.282
82.14000 10.455
82.16000 8.240
82.18000 9.300
82.20000 9.131
82.22000 8.845
82.24000 9.146
82.26000 7.854
82.28000 8.869
82.30000 8.672
82.32000 9.086
82.34000 12.951
82.36000 10.808
82.38000 8.984
82.40000 9.335
82.42000 8.141
82.44000 7.280
82.46000 9.456
82.48000 6.713
82.50000 8.190
82.52000 6.252
82.54000 7.281
82.56000 7.187
82.58000 6.653
82.60000 4.104
82.62000 4.831
82.64000 3.856
82.66000 4.533
82.68000 3.124
82.70000 6.565
82.72000 3.380
82.74000 6.786
82.76000 7.192
82.78000 2.493
82.80000 4.257
82.82000 3.412
82.84000 2.340
82.86000 4.656
82.88000 2.517
82.90000 3.124
82.92000 2.777
82.94000 2.304
82.96000 2.831
82.98000 6.211
83.00000 4.284
83.02000 3.492
83.04000 4.754
83.06000 2.630
83.08000 3.732
83.10000 0.529
83.12000 2.367
83.14000 1.172
83.16000 -0.750
83.18000 0.216
83.20000 -0.489
83.22000 0.710
83.24000 5.081
83.26000 5.177
83.28000 0.129
83.30000 2.611
83.32000 5.599
83.34000 5.312
83.36000 7.304
83.38000 5.717
83.40000 -2.284
83.42000 -0.499
83.44000 2.525
83.46000 1.276
83.48000 3.902
83.50000 3.330
83.52000 3.701
83.54000 3.039
83.56000 1.461
83.58000 7.325
83.60000 9.043
83.62000 11.055
83.64000 11.301
83.66000 8.835
83.68000 6.810
83.70000 3.533
83.72000 1.040
83.74000 -2.271
83.76000 0.551
83.78000 2.180
83.80000 4.172
83.82000 3.176
83.84000 4.980
83.86000 3.526
83.88000 3.219
83.90000 2.360
83.92000 5.249
83.94000 4.111
83.96000 3.649
83.98000 3.600
84.00000 3.027
84.02000 5.659
84.04000 5.363
84.06000 3.644
84.08000 6.095
84.10000 7.936
84.12000 6.774
84.14000 4.699
84.16000 1.144
84.18000 1.678
84.20000 2.222
84.22000 6.803
84.24000 4.499
84.26000 6.039
84.28000 3.739
84.30000 6.288
84.32000 4.051
84.34000 1.616
84.36000 5.518
84.38000 8.426
84.40000 9.193
84.42000 5.075
84.44000 4.471
84.46000 6.692
84.48000 6.655
84.50000 8.183
84.52000 7.700
84.54000 6.576
84.56000 9.105
84.58000 6.441
84.60000 6.212
84.62000 6.695
84.64000 10.738
84.66000 11.910
84.68000 11.036
84.70000 10.825
84.72000 10.833
84.74000 9.282
84.76000 11.668
84.78000 13.892
84.80000 11.944
84.82000 12.302
84.84000 12.456
84.86000 9.984
84.88000 13.134
84.90000 14.934
84.92000 13.111
84.94000 14.916
84.96000 15.881
84.98000 20.169
85.00000 18.199
85.02000 13.536
85.04000 14.738
85.06000 14.939
85.08000 21.605
85.10000 22.382
85.12000 14.643
85.14000 21.300
85.16000 22.616
85.18000 22.125
85.20000 23.975
85.22000 23.477
85.24000 21.536
85.26000 20.980
85.28000 20.344
85.30000 23.441
85.32000 22.554
85.34000 21.949
85.36000 19.819
85.38000 20.191
85.40000 24.105
85.42000 25.348
85.44000 23.606
85.46000 22.870
85.48000 24.365
85.50000 22.486
85.52000 21.127
85.54000 22.355
85.56000 21.654
85.58000 28.644
85.60000 30.582
85.62000 29.579
85.64000 21.341
85.66000 17.612
85.68000 19.875
85.70000 24.940
85.72000 25.069
85.74000 23.653
85.76000 18.763
85.78000 17.138
85.80000 19.117
85.82000 25.443
85.84000 26.454
85.86000 18.850
85.88000 17.590
85.90000 22.584
85.92000 23.366
85.94000 19.509
85.96000 16.595
85.98000 17.774
86.00000 13.689
86.02000 16.443
86.04000 19.158
86.06000 17.789
86.08000 18.126
86.10000 11.065
86.12000 10.994
86.14000 13.841
86.16000 12.887
86.18000 13.078
86.20000 13.645
86.22000 14.262
86.24000 14.659
86.26000 8.324
86.28000 8.023
86.30000 5.783
86.32000 7.555
86.34000 5.737
86.36000 7.764
86.38000 5.391
86.40000 6.669
86.42000 7.480
86.44000 9.763
86.46000 10.103
86.48000 5.569
86.50000 5.373
86.52000 3.493
86.54000 3.355
86.56000 5.113
86.58000 4.075
86.60000 1.446
86.62000 -0.120
86.64000 0.142
86.66000 1.310
86.68000 0.052
86.70000 1.080
86.72000 2.768
86.74000 0.061
86.76000 0.484
86.78000 2.984
86.80000 3.138
86.82000 2.286
86.84000 2.391
86.86000 3.012
86.88000 3.250
86.90000 1.387
86.92000 -1.045
86.94000 0.017
86.96000 0.108
86.98000 -0.027
87.00000 -0.990
87.02000 2.146
87.04000 1.291
87.06000 -1.710
87.08000 0.254
87.10000 -1.013
87.12000 -1.953
87.14000 -2.136
87.16000 -2.133
87.18000 -1.791
87.20000 3.191
87.22000 6.071
87.24000 4.654
87.26000 1.428
87.28000 0.333
87.30000 0.979
87.32000 -1.575
87.34000 -2.107
87.36000 -2.104
87.38000 2.082
87.40000 0.506
87.42000 0.710
87.44000 2.711
87.46000 5.224
87.48000 2.351
87.50000 2.087
87.52000 3.086
87.54000 -0.635
87.56000 -2.081
87.58000 4.412
87.60000 4.890
87.62000 3.332
87.64000 1.465
87.66000 2.589
87.68000 4.586
87.70000 4.629
87.72000 1.702
87.74000 1.960
87.76000 1.189
87.78000 0.442
87.80000 -2.017
87.82000 -0.449
87.84000 1.494
87.86000 2.650
87.88000 4.355
87.90000 2.864
87.92000 2.647
87.94000 3.625
87.96000 -2.036
87.98000 2.480
88.00000 3.803
88.02000 1.928
88.04000 1.738
88.06000 5.668
88.08000 3.596
88.10000 6.596
88.12000 5.709
88.14000 7.706
88.16000 4.989
88.18000 1.501
88.20000 -1.141
88.22000 -0.715
88.24000 -0.359
88.26000 4.017
88.28000 4.861
88.30000 5.917
88.32000 2.814
88.34000 3.193
88.36000 2.521
88.38000 2.228
88.40000 -2.019
88.42000 3.829
88.44000 6.010
88.46000 2.780
88.48000 3.154
88.50000 0.205
88.52000 -1.707
88.54000 -0.356
88.56000 -2.014
88.58000 2.986
88.60000 0.770
88.62000 -0.820
88.64000 0.668
88.66000 4.255
88.68000 5.810
88.70000 4.823
88.72000 1.855
88.74000 3.653
88.76000 0.314
88.78000 -0.559
88.80000 -0.946
88.82000 4.012
88.84000 5.110
88.86000 1.507
88.88000 1.378
88.90000 1.119
88.92000 -0.431
88.94000 1.986
88.96000 -0.978
88.98000 2.352
89.00000 -0.375
89.02000 -1.914
89.04000 0.151
89.06000 4.644
89.08000 2.488
89.10000 4.312
89.12000 3.636
89.14000 2.266
89.16000 1.474
89.18000 1.199
89.20000 -1.251
89.22000 -0.533
89.24000 1.791
89.26000 0.973
89.28000 4.441
89.30000 1.554
89.32000 -1.561
89.34000 0.023
89.36000 2.623
89.38000 0.121
89.40000 2.016
89.42000 3.409
89.44000 0.701
89.46000 1.784
89.48000 2.098
89.50000 0.736
89.52000 1.559
89.54000 -0.131
89.56000 1.583
89.58000 8.287
89.60000 5.613
89.62000 1.250
89.64000 -1.001
89.66000 -0.105
89.68000 0.859
89.70000 2.513
89.72000 3.139
89.74000 1.943
89.76000 -0.391
89.78000 1.555
89.80000 4.439
89.82000 5.396
89.84000 2.640
89.86000 2.674
89.88000 1.777
89.90000 5.122
89.92000 5.066
89.94000 1.567
89.96000 1.652
89.98000 2.891
90.00000 5.478
90.02000 6.337
90.04000 1.223
90.06000 -1.993
90.08000 0.907
90.10000 4.297
90.12000 3.202
90.14000 4.084
90.16000 6.688
90.18000 3.006
90.20000 1.181
90.22000 7.009
90.24000 6.762
90.26000 4.006
90.28000 3.292
90.30000 2.654
90.32000 7.173
90.34000 4.319
90.36000 1.111
90.38000 1.159
90.40000 -1.377
90.42000 -0.714
90.44000 -1.609
90.46000 1.343
90.48000 1.263
90.50000 2.291
90.52000 -1.100
90.54000 0.931
90.56000 -0.604
90.58000 -2.013
90.60000 1.880
90.62000 4.255
90.64000 2.744
90.66000 3.330
90.68000 1.956
90.70000 -1.605
90.72000 0.374
90.74000 3.071
90.76000 4.277
90.78000 3.183
90.80000 0.488
90.82000 -0.233
90.84000 1.051
90.86000 0.942
90.88000 -0.515
90.90000 2.848
90.92000 3.381
90.94000 1.781
90.96000 4.675
90.98000 7.246
91.00000 4.548
91.02000 5.338
91.04000 7.309
91.06000 5.816
91.08000 2.801
91.10000 2.826
91.12000 3.375
91.14000 4.263
91.16000 -0.084
91.18000 0.383
91.20000 3.746
91.22000 2.006
91.24000 1.249
91.26000 3.048
91.28000 2.758
91.30000 3.255
91.32000 0.552
91.34000 2.633
91.36000 4.170
91.38000 1.939
91.40000 1.590
91.42000 -2.004
91.44000 1.914
91.46000 2.404
91.48000 1.728
91.50000 3.642
91.52000 1.280
91.54000 1.468
91.56000 1.771
91.58000 1.179
91.60000 3.256
91.62000 5.293
91.64000 3.896
91.66000 3.074
91.68000 2.316
91.70000 3.178
91.72000 4.399
91.74000 5.097
91.76000 6.116
91.78000 3.306
91.80000 2.227
91.82000 -1.995
91.84000 -1.330
91.86000 0.210
91.88000 5.022
91.90000 5.629
91.92000 3.579
91.94000 5.223
91.96000 0.174
91.98000 0.125
92.00000 3.964
92.02000 3.655
92.04000 2.541
92.06000 3.231
92.08000 4.550
92.10000 1.748
92.12000 4.111
92.14000 3.142
92.16000 0.833
92.18000 3.508
92.20000 2.909
92.22000 4.715
92.24000 3.337
92.26000 2.783
92.28000 2.033
92.30000 3.090
92.32000 4.846
92.34000 1.895
92.36000 3.053
92.38000 1.673
92.40000 2.509
92.42000 6.138
92.44000 3.116
92.46000 1.984
92.48000 4.507
92.50000 4.708
92.52000 -0.337
92.54000 -1.349
92.56000 -1.999
92.58000 -0.205
92.60000 4.409
92.62000 3.933
92.64000 2.511
92.66000 3.182
92.68000 0.333
92.70000 -0.951
92.72000 1.939
92.74000 4.208
92.76000 5.512
92.78000 3.156
92.80000 5.474
92.82000 4.356
92.84000 2.840
92.86000 3.995
92.88000 1.533
92.90000 2.460
92.92000 1.723
92.94000 1.349
92.96000 1.189
92.98000 2.949
93.00000 1.416
93.02000 5.291
93.04000 3.293
93.06000 2.856
93.08000 1.337
93.10000 0.180
93.12000 -2.020
93.14000 -0.247
93.16000 4.568
93.18000 4.443
93.20000 3.367
93.22000 3.142
93.24000 1.930
93.26000 -0.882
93.28000 0.932
93.30000 4.345
93.32000 2.088
93.34000 3.386
93.36000 2.815
93.38000 3.173
93.40000 2.626
93.42000 3.136
93.44000 1.691
93.46000 2.659
93.48000 -1.511
93.50000 -1.373
93.52000 1.309
93.54000 3.129
93.56000 6.872
93.58000 2.740
93.60000 1.553
93.62000 0.371
93.64000 4.305
93.66000 4.802
93.68000 2.749
93.70000 2.841
93.72000 0.745
93.74000 4.004
93.76000 5.228
93.78000 6.509
93.80000 3.656
93.82000 0.142
93.84000 -2.026
93.86000 1.426
93.88000 2.193
93.90000 0.067
93.92000 0.954
93.94000 0.443
93.96000 3.956
93.98000 4.216
94.00000 5.756
94.02000 2.747
94.04000 2.519
94.06000 3.526
94.08000 4.298
94.10000 3.876
94.12000 0.542
94.14000 2.028
94.16000 -0.302
94.18000 4.505
94.20000 1.848
94.22000 2.359
94.24000 4.502
94.26000 0.595
94.28000 -0.383
94.30000 2.652
94.32000 1.962
94.34000 1.226
94.36000 3.265
94.38000 -1.088
94.40000 -0.887
94.42000 1.603
94.44000 6.008
94.46000 4.067
94.48000 4.921
94.50000 6.547
94.52000 2.963
94.54000 -0.461
94.56000 -2.010
94.58000 5.404
94.60000 7.963
94.62000 4.270
94.64000 2.601
94.66000 5.849
94.68000 4.673
94.70000 3.393
94.72000 8.852
94.74000 6.615
94.76000 -1.536
94.78000 1.246
94.80000 5.018
94.82000 5.361
94.84000 6.431
94.86000 4.477
94.88000 3.989
94.90000 2.792
94.92000 0.293
94.94000 1.905
94.96000 3.803
94.98000 4.624
95.00000 2.941
95.02000 1.979
95.04000 1.836
95.06000 2.486
95.08000 4.783
95.10000 2.581
95.12000 4.840
95.14000 7.052
95.16000 3.893
95.18000 3.556
95.20000 6.148
95.22000 7.232
95.24000 2.840
95.26000 6.079
95.28000 5.866
95.30000 2.154
95.32000 3.991
95.34000 4.691
95.36000 -0.621
95.38000 -2.004
95.40000 2.310
95.42000 5.063
95.44000 2.369
95.46000 5.614
95.48000 6.307
95.50000 5.030
95.52000 1.521
95.54000 1.190
95.56000 0.842
95.58000 3.234
95.60000 4.514
95.62000 0.465
95.64000 -1.805
95.66000 0.167
95.68000 4.421
95.70000 6.109
95.72000 9.794
95.74000 7.403
95.76000 2.401
95.78000 -0.810
95.80000 1.256
95.82000 2.468
95.84000 0.082
95.86000 1.244
95.88000 4.417
95.90000 5.213
95.92000 3.448
95.94000 2.912
95.96000 4.850
95.98000 -0.731
96.00000 -2.005
96.02000 -0.514
96.04000 5.924
96.06000 3.373
96.08000 4.147
96.10000 7.777
96.12000 10.006
96.14000 2.041
96.16000 1.054
96.18000 4.926
96.20000 0.727
96.22000 1.362
96.24000 3.446
96.26000 -0.400
96.28000 -0.389
96.30000 -1.028
96.32000 1.497
96.34000 5.709
96.36000 4.598
96.38000 1.121
96.40000 -0.003
96.42000 0.643
96.44000 0.975
96.46000 -0.034
96.48000 -0.074
96.50000 -2.039
96.52000 -1.671
96.54000 2.184
96.56000 6.043
96.58000 -0.758
96.60000 -1.878
96.62000 1.420
96.64000 3.994
96.66000 1.966
96.68000 -1.250
96.70000 1.182
96.72000 2.990
96.74000 4.880
96.76000 5.092
96.78000 2.586
96.80000 -1.257
96.82000 1.510
96.84000 7.799
96.86000 7.231
96.88000 8.452
96.90000 2.347
96.92000 5.120
96.94000 6.985
96.96000 2.666
96.98000 2.076
97.00000 0.755
97.02000 3.210
97.04000 0.567
97.06000 2.749
97.08000 6.510
97.10000 0.761
97.12000 2.040
97.14000 4.549
97.16000 1.867
97.18000 -0.317
97.20000 -0.969
97.22000 5.948
97.24000 5.750
97.26000 1.286
97.28000 3.183
97.30000 -0.134
97.32000 0.190
97.34000 1.206
97.36000 2.163
97.38000 5.369
97.40000 5.346
97.42000 2.450
97.44000 1.602
97.46000 1.874
97.48000 2.311
97.50000 4.727
97.52000 3.060
97.54000 4.076
97.56000 2.499
97.58000 0.950
97.60000 1.316
97.62000 -2.018
97.64000 -0.641
97.66000 2.288
97.68000 5.539
97.70000 4.123
97.72000 5.090
97.74000 4.713
97.76000 6.995
97.78000 2.771
97.80000 -0.249
97.82000 0.749
97.84000 2.538
97.86000 6.009
97.88000 6.625
97.90000 5.270
97.92000 0.171
97.94000 -1.812
97.96000 0.467
97.98000 4.882
98.00000 8.640
98.02000 7.836
98.04000 6.371
98.06000 8.597
98.08000 7.145
98.10000 8.052
98.12000 4.574
98.14000 5.993
98.16000 5.980
98.18000 4.201
98.20000 6.589
98.22000 6.601
98.24000 8.071
98.26000 7.751
98.28000 4.024
98.30000 4.401
98.32000 5.137
98.34000 5.566
98.36000 6.353
98.38000 4.128
98.40000 0.621
98.42000 0.067
98.44000 3.387
98.46000 1.278
98.48000 6.376
98.50000 8.610
98.52000 13.403
98.54000 6.223
98.56000 5.931
98.58000 9.123
98.60000 1.903
98.62000 3.346
98.64000 10.608
98.66000 8.843
98.68000 9.793
98.70000 8.858
98.72000 12.413
98.74000 16.236
98.76000 6.524
98.78000 6.048
98.80000 4.281
98.82000 9.382
98.84000 5.998
98.86000 3.111
98.88000 -3.020
98.90000 6.741
98.92000 10.216
98.94000 6.014
98.96000 8.622
98.98000 11.712
99.00000 5.712
99.02000 2.382
99.04000 3.901
99.06000 8.259
99.08000 5.398
99.10000 0.696
99.12000 7.507
99.14000 10.420
99.16000 14.568
99.18000 11.216
99.20000 6.742
99.22000 13.225
99.24000 11.973
99.26000 9.316
99.28000 5.549
99.30000 6.341
99.32000 6.488
99.34000 3.739
99.36000 6.136
99.38000 -0.628
99.40000 10.950
99.42000 8.338
99.44000 0.368
99.46000 8.780
99.48000 6.252
99.50000 4.201
99.52000 3.898
99.54000 8.791
99.56000 6.280
99.58000 0.622
99.60000 -0.503
99.62000 2.818
99.64000 6.237
99.66000 7.489
99.68000 -1.896
99.70000 -0.049
99.72000 8.628
99.74000 10.348
99.76000 8.561
99.78000 10.622
99.80000 4.241
99.82000 -0.012
99.84000 0.514
99.86000 4.001
99.88000 5.978
99.90000 6.190
99.92000 8.954
99.94000 8.831
99.96000 3.450
99.98000 0.000
