'Id: "0011387" Comment: "Integrate frame 0011387_Au-Ir-Rh_Rh-rich_XRD-Mapping-320-0000.gfrmwith cursor Wedge Cursor #5" Operator: "B?rgel" Anode: "Cu" Wavelength: "1.5406" Scantype: "2Theta (TwoTheta)" TimePerStep: "1" X: "13.5" Y: "36" Z: "5.95" 
10.00000 0.000
10.02000 2.054
10.04000 9.914
10.06000 -4.170
10.08000 1.822
10.10000 9.778
10.12000 20.165
10.14000 9.253
10.16000 -1.021
10.18000 -4.118
10.20000 -0.962
10.22000 4.667
10.24000 12.512
10.26000 14.540
10.28000 7.734
10.30000 19.294
10.32000 20.135
10.34000 29.711
10.36000 17.171
10.38000 6.340
10.40000 5.261
10.42000 17.326
10.44000 21.932
10.46000 30.715
10.48000 19.209
10.50000 7.700
10.52000 20.945
10.54000 17.316
10.56000 9.982
10.58000 21.982
10.60000 23.668
10.62000 13.155
10.64000 16.910
10.66000 14.220
10.68000 15.327
10.70000 15.321
10.72000 22.924
10.74000 26.268
10.76000 26.489
10.78000 27.173
10.80000 27.571
10.82000 33.265
10.84000 13.664
10.86000 9.700
10.88000 24.619
10.90000 24.975
10.92000 21.161
10.94000 16.545
10.96000 14.209
10.98000 25.277
11.00000 9.459
11.02000 9.172
11.04000 1.938
11.06000 7.877
11.08000 18.968
11.10000 17.621
11.12000 4.107
11.14000 -1.666
11.16000 12.509
11.18000 6.111
11.20000 15.147
11.22000 3.274
11.24000 -0.685
11.26000 11.913
11.28000 20.404
11.30000 15.791
11.32000 4.080
11.34000 8.165
11.36000 19.714
11.38000 12.261
11.40000 17.842
11.42000 18.021
11.44000 7.374
11.46000 7.564
11.48000 9.290
11.50000 9.375
11.52000 9.853
11.54000 18.729
11.56000 23.409
11.58000 18.846
11.60000 16.683
11.62000 13.915
11.64000 19.311
11.66000 10.716
11.68000 11.058
11.70000 10.615
11.72000 13.538
11.74000 23.723
11.76000 17.731
11.78000 22.272
11.80000 24.768
11.82000 16.826
11.84000 9.470
11.86000 4.402
11.88000 -4.319
11.90000 0.487
11.92000 5.644
11.94000 13.987
11.96000 16.552
11.98000 11.422
12.00000 13.693
12.02000 12.423
12.04000 26.588
12.06000 25.502
12.08000 25.814
12.10000 9.148
12.12000 10.212
12.14000 21.795
12.16000 17.180
12.18000 3.551
12.20000 9.268
12.22000 9.516
12.24000 27.239
12.26000 28.663
12.28000 24.539
12.30000 23.189
12.32000 18.168
12.34000 15.123
12.36000 12.762
12.38000 12.961
12.40000 13.198
12.42000 14.058
12.44000 25.375
12.46000 25.431
12.48000 17.535
12.50000 17.935
12.52000 19.359
12.54000 19.509
12.56000 19.770
12.58000 15.686
12.60000 13.581
12.62000 20.013
12.64000 19.625
12.66000 18.517
12.68000 18.311
12.70000 13.456
12.72000 17.870
12.74000 14.440
12.76000 22.790
12.78000 21.159
12.80000 14.882
12.82000 11.199
12.84000 15.162
12.86000 23.408
12.88000 20.896
12.90000 10.583
12.92000 13.284
12.94000 14.004
12.96000 9.838
12.98000 10.194
13.00000 7.158
13.02000 13.174
13.04000 25.331
13.06000 25.052
13.08000 24.726
13.10000 26.613
13.12000 19.307
13.14000 12.080
13.16000 10.931
13.18000 12.326
13.20000 11.124
13.22000 2.777
13.24000 -3.424
13.26000 1.634
13.28000 21.722
13.30000 20.928
13.32000 26.007
13.34000 27.637
13.36000 24.350
13.38000 18.560
13.40000 13.487
13.42000 10.352
13.44000 15.500
13.46000 11.362
13.48000 6.620
13.50000 11.854
13.52000 18.983
13.54000 21.119
13.56000 14.434
13.58000 13.461
13.60000 11.703
13.62000 13.886
13.64000 14.859
13.66000 18.264
13.68000 12.222
13.70000 25.456
13.72000 26.100
13.74000 19.766
13.76000 16.684
13.78000 18.819
13.80000 11.981
13.82000 6.165
13.84000 10.600
13.86000 9.498
13.88000 6.015
13.90000 13.936
13.92000 16.125
13.94000 14.418
13.96000 8.658
13.98000 9.351
14.00000 11.777
14.02000 12.716
14.04000 3.639
14.06000 6.561
14.08000 9.349
14.10000 20.879
14.12000 17.847
14.14000 13.020
14.16000 5.316
14.18000 2.594
14.20000 6.557
14.22000 6.269
14.24000 4.306
14.26000 11.366
14.28000 13.668
14.30000 9.192
14.32000 9.174
14.34000 16.328
14.36000 11.897
14.38000 3.377
14.40000 2.955
14.42000 2.245
14.44000 12.984
14.46000 21.803
14.48000 9.391
14.50000 1.700
14.52000 -1.144
14.54000 14.619
14.56000 14.120
14.58000 10.111
14.60000 10.574
14.62000 6.981
14.64000 0.459
14.66000 0.788
14.68000 6.045
14.70000 12.422
14.72000 16.087
14.74000 7.792
14.76000 13.801
14.78000 16.455
14.80000 20.486
14.82000 11.947
14.84000 16.104
14.86000 12.737
14.88000 8.771
14.90000 4.916
14.92000 7.065
14.94000 9.270
14.96000 18.025
14.98000 15.690
15.00000 19.886
15.02000 16.427
15.04000 7.368
15.06000 3.915
15.08000 5.736
15.10000 8.519
15.12000 14.686
15.14000 12.361
15.16000 3.125
15.18000 10.961
15.20000 20.204
15.22000 7.975
15.24000 11.291
15.26000 8.223
15.28000 2.587
15.30000 10.277
15.32000 15.638
15.34000 14.954
15.36000 11.680
15.38000 8.035
15.40000 7.586
15.42000 5.313
15.44000 4.365
15.46000 17.997
15.48000 15.774
15.50000 8.251
15.52000 9.238
15.54000 7.727
15.56000 7.094
15.58000 9.319
15.60000 14.125
15.62000 15.073
15.64000 1.752
15.66000 -2.590
15.68000 14.088
15.70000 16.839
15.72000 8.325
15.74000 5.040
15.76000 11.609
15.78000 14.483
15.80000 13.088
15.82000 6.649
15.84000 5.701
15.86000 10.255
15.88000 9.027
15.90000 14.632
15.92000 12.723
15.94000 10.948
15.96000 16.052
15.98000 12.118
16.00000 10.901
16.02000 13.888
16.04000 3.700
16.06000 11.306
16.08000 15.893
16.10000 12.468
16.12000 8.808
16.14000 21.147
16.16000 18.109
16.18000 14.187
16.20000 11.240
16.22000 8.496
16.24000 5.738
16.26000 0.769
16.28000 1.649
16.30000 -3.632
16.32000 -4.409
16.34000 3.841
16.36000 9.123
16.38000 8.842
16.40000 4.556
16.42000 7.531
16.44000 18.006
16.46000 18.947
16.48000 12.440
16.50000 8.550
16.52000 7.542
16.54000 6.802
16.56000 8.394
16.58000 13.129
16.60000 14.104
16.62000 15.043
16.64000 13.238
16.66000 5.589
16.68000 4.120
16.70000 6.966
16.72000 9.002
16.74000 13.198
16.76000 10.905
16.78000 10.676
16.80000 -0.148
16.82000 0.374
16.84000 6.909
16.86000 7.707
16.88000 5.600
16.90000 5.018
16.92000 11.945
16.94000 19.570
16.96000 9.917
16.98000 7.887
17.00000 10.587
17.02000 10.904
17.04000 9.013
17.06000 13.822
17.08000 11.613
17.10000 5.753
17.12000 14.505
17.14000 18.807
17.16000 9.655
17.18000 12.200
17.20000 8.997
17.22000 8.788
17.24000 9.239
17.26000 4.453
17.28000 4.675
17.30000 3.726
17.32000 10.514
17.34000 16.808
17.36000 9.631
17.38000 10.770
17.40000 11.838
17.42000 2.047
17.44000 7.547
17.46000 12.278
17.48000 10.238
17.50000 6.425
17.52000 6.540
17.54000 4.057
17.56000 8.715
17.58000 6.346
17.60000 10.649
17.62000 8.922
17.64000 4.069
17.66000 4.522
17.68000 7.054
17.70000 4.757
17.72000 1.258
17.74000 0.635
17.76000 11.485
17.78000 13.665
17.80000 15.056
17.82000 11.793
17.84000 2.574
17.86000 3.617
17.88000 5.165
17.90000 3.390
17.92000 -4.348
17.94000 1.207
17.96000 4.518
17.98000 5.580
18.00000 4.692
18.02000 2.487
18.04000 10.423
18.06000 6.220
18.08000 -1.401
18.10000 4.455
18.12000 6.249
18.14000 17.406
18.16000 17.321
18.18000 9.004
18.20000 4.021
18.22000 10.891
18.24000 18.755
18.26000 7.877
18.28000 8.065
18.30000 18.015
18.32000 15.248
18.34000 8.264
18.36000 8.100
18.38000 11.044
18.40000 4.244
18.42000 12.017
18.44000 11.304
18.46000 12.815
18.48000 13.618
18.50000 1.768
18.52000 0.540
18.54000 4.883
18.56000 0.766
18.58000 4.579
18.60000 9.455
18.62000 9.109
18.64000 4.784
18.66000 -0.026
18.68000 0.878
18.70000 1.940
18.72000 3.936
18.74000 13.023
18.76000 14.404
18.78000 11.757
18.80000 11.215
18.82000 8.025
18.84000 10.279
18.86000 4.890
18.88000 2.718
18.90000 7.223
18.92000 9.794
18.94000 16.594
18.96000 18.757
18.98000 12.245
19.00000 12.158
19.02000 12.654
19.04000 11.674
19.06000 10.331
19.08000 2.241
19.10000 -4.265
19.12000 1.784
19.14000 5.804
19.16000 11.430
19.18000 8.477
19.20000 12.010
19.22000 13.685
19.24000 9.424
19.26000 10.721
19.28000 9.879
19.30000 9.152
19.32000 17.257
19.34000 14.414
19.36000 18.499
19.38000 12.873
19.40000 7.377
19.42000 11.041
19.44000 8.396
19.46000 6.938
19.48000 3.116
19.50000 4.454
19.52000 7.160
19.54000 1.350
19.56000 -4.224
19.58000 6.710
19.60000 5.665
19.62000 1.820
19.64000 4.039
19.66000 1.385
19.68000 5.262
19.70000 8.590
19.72000 12.368
19.74000 5.626
19.76000 5.267
19.78000 5.434
19.80000 -1.704
19.82000 4.693
19.84000 4.229
19.86000 5.495
19.88000 8.657
19.90000 21.027
19.92000 10.452
19.94000 10.736
19.96000 8.108
19.98000 3.991
20.00000 6.662
20.02000 4.544
20.04000 4.276
20.06000 3.003
20.08000 -0.942
20.10000 10.023
20.12000 4.408
20.14000 3.467
20.16000 5.668
20.18000 5.767
20.20000 5.159
20.22000 4.754
20.24000 12.165
20.26000 12.236
20.28000 9.434
20.30000 10.906
20.32000 7.874
20.34000 8.729
20.36000 2.977
20.38000 5.107
20.40000 6.285
20.42000 -3.567
20.44000 -4.190
20.46000 2.280
20.48000 4.830
20.50000 8.043
20.52000 7.502
20.54000 9.698
20.56000 2.607
20.58000 7.290
20.60000 12.015
20.62000 10.160
20.64000 9.116
20.66000 5.802
20.68000 6.728
20.70000 10.263
20.72000 7.929
20.74000 7.631
20.76000 10.921
20.78000 8.814
20.80000 10.045
20.82000 5.423
20.84000 2.195
20.86000 7.154
20.88000 12.445
20.90000 14.019
20.92000 12.716
20.94000 5.520
20.96000 1.086
20.98000 0.067
21.00000 -0.353
21.02000 2.035
21.04000 3.529
21.06000 1.713
21.08000 2.217
21.10000 5.176
21.12000 8.560
21.14000 11.305
21.16000 5.976
21.18000 3.538
21.20000 -0.786
21.22000 1.008
21.24000 3.542
21.26000 5.229
21.28000 0.394
21.30000 2.091
21.32000 2.306
21.34000 0.159
21.36000 3.655
21.38000 1.068
21.40000 4.431
21.42000 3.102
21.44000 7.278
21.46000 7.446
21.48000 7.102
21.50000 7.661
21.52000 -0.376
21.54000 -4.188
21.56000 1.907
21.58000 6.633
21.60000 6.678
21.62000 0.112
21.64000 -3.466
21.66000 -3.014
21.68000 1.096
21.70000 6.124
21.72000 5.938
21.74000 6.481
21.76000 5.353
21.78000 2.088
21.80000 7.661
21.82000 2.881
21.84000 1.252
21.86000 -1.172
21.88000 3.561
21.90000 5.358
21.92000 4.759
21.94000 4.941
21.96000 2.116
21.98000 -1.842
22.00000 1.193
22.02000 4.831
22.04000 8.858
22.06000 10.578
22.08000 7.799
22.10000 3.591
22.12000 4.550
22.14000 4.826
22.16000 3.093
22.18000 3.616
22.20000 1.822
22.22000 0.941
22.24000 -0.038
22.26000 3.406
22.28000 2.834
22.30000 8.643
22.32000 5.489
22.34000 6.146
22.36000 11.629
22.38000 10.988
22.40000 5.852
22.42000 -4.129
22.44000 -2.008
22.46000 3.262
22.48000 6.207
22.50000 10.261
22.52000 5.720
22.54000 6.282
22.56000 1.480
22.58000 -0.125
22.60000 8.125
22.62000 7.328
22.64000 1.728
22.66000 4.921
22.68000 4.105
22.70000 1.651
22.72000 4.637
22.74000 8.830
22.76000 4.313
22.78000 -0.872
22.80000 6.575
22.82000 1.334
22.84000 0.197
22.86000 1.285
22.88000 1.218
22.90000 3.446
22.92000 -2.307
22.94000 -0.604
22.96000 9.749
22.98000 9.563
23.00000 3.853
23.02000 -1.389
23.04000 -3.533
23.06000 -0.186
23.08000 3.995
23.10000 0.761
23.12000 -3.929
23.14000 0.103
23.16000 1.801
23.18000 -0.226
23.20000 5.584
23.22000 3.963
23.24000 3.388
23.26000 5.721
23.28000 6.912
23.30000 7.380
23.32000 9.816
23.34000 5.492
23.36000 -0.927
23.38000 0.060
23.40000 -0.908
23.42000 3.992
23.44000 8.905
23.46000 4.333
23.48000 -1.570
23.50000 4.714
23.52000 0.523
23.54000 -4.090
23.56000 -2.322
23.58000 3.685
23.60000 4.292
23.62000 2.764
23.64000 1.805
23.66000 1.632
23.68000 6.474
23.70000 10.057
23.72000 0.762
23.74000 -0.318
23.76000 3.840
23.78000 3.017
23.80000 4.367
23.82000 3.403
23.84000 2.409
23.86000 -1.340
23.88000 -1.687
23.90000 6.418
23.92000 10.173
23.94000 1.206
23.96000 -2.762
23.98000 0.989
24.00000 4.861
24.02000 7.564
24.04000 2.268
24.06000 2.178
24.08000 2.741
24.10000 1.402
24.12000 1.295
24.14000 4.799
24.16000 5.422
24.18000 6.127
24.20000 7.144
24.22000 2.189
24.24000 -4.043
24.26000 -0.462
24.28000 -0.074
24.30000 5.421
24.32000 4.096
24.34000 4.925
24.36000 9.958
24.38000 5.339
24.40000 -0.724
24.42000 0.360
24.44000 -3.741
24.46000 1.122
24.48000 7.164
24.50000 4.763
24.52000 -0.199
24.54000 -1.703
24.56000 -1.312
24.58000 5.449
24.60000 3.322
24.62000 0.107
24.64000 0.242
24.66000 2.311
24.68000 4.424
24.70000 0.934
24.72000 3.712
24.74000 4.961
24.76000 4.272
24.78000 -0.951
24.80000 -2.312
24.82000 0.440
24.84000 0.652
24.86000 2.908
24.88000 -1.014
24.90000 2.868
24.92000 3.121
24.94000 -1.284
24.96000 -4.008
24.98000 0.498
25.00000 3.775
25.02000 1.740
25.04000 2.107
25.06000 -0.056
25.08000 5.474
25.10000 4.108
25.12000 2.688
25.14000 5.426
25.16000 11.910
25.18000 6.410
25.20000 0.077
25.22000 -0.261
25.24000 -0.347
25.26000 -0.214
25.28000 3.447
25.30000 6.754
25.32000 3.852
25.34000 -1.175
25.36000 3.491
25.38000 9.871
25.40000 1.904
25.42000 -1.492
25.44000 3.755
25.46000 7.927
25.48000 7.747
25.50000 7.701
25.52000 2.397
25.54000 0.006
25.56000 0.577
25.58000 0.706
25.60000 -0.265
25.62000 -0.551
25.64000 4.237
25.66000 -0.963
25.68000 -0.445
25.70000 7.290
25.72000 3.021
25.74000 5.921
25.76000 7.041
25.78000 7.964
25.80000 6.532
25.82000 7.361
25.84000 -1.383
25.86000 1.131
25.88000 5.554
25.90000 3.641
25.92000 -1.942
25.94000 4.573
25.96000 6.712
25.98000 5.504
26.00000 1.275
26.02000 -2.688
26.04000 -0.117
26.06000 2.081
26.08000 0.917
26.10000 -3.907
26.12000 -1.890
26.14000 -0.195
26.16000 4.016
26.18000 1.847
26.20000 2.491
26.22000 4.173
26.24000 4.860
26.26000 5.702
26.28000 2.851
26.30000 -0.379
26.32000 1.046
26.34000 5.243
26.36000 4.240
26.38000 8.774
26.40000 11.062
26.42000 6.430
26.44000 -0.169
26.46000 4.324
26.48000 2.584
26.50000 7.830
26.52000 10.743
26.54000 11.768
26.56000 11.818
26.58000 10.302
26.60000 8.130
26.62000 6.829
26.64000 5.626
26.66000 7.503
26.68000 9.429
26.70000 9.870
26.72000 6.543
26.74000 4.751
26.76000 8.026
26.78000 3.157
26.80000 4.617
26.82000 0.606
26.84000 2.198
26.86000 3.646
26.88000 5.475
26.90000 1.364
26.92000 -0.155
26.94000 1.299
26.96000 5.100
26.98000 3.188
27.00000 3.434
27.02000 7.905
27.04000 10.685
27.06000 12.948
27.08000 11.788
27.10000 7.197
27.12000 3.462
27.14000 5.173
27.16000 5.147
27.18000 8.373
27.20000 8.111
27.22000 6.206
27.24000 13.164
27.26000 11.100
27.28000 7.366
27.30000 2.808
27.32000 0.426
27.34000 4.475
27.36000 6.930
27.38000 7.786
27.40000 7.867
27.42000 1.724
27.44000 0.043
27.46000 -1.031
27.48000 -3.824
27.50000 0.001
27.52000 9.383
27.54000 8.364
27.56000 10.847
27.58000 14.299
27.60000 8.892
27.62000 3.188
27.64000 4.035
27.66000 -1.413
27.68000 -3.053
27.70000 -2.863
27.72000 3.000
27.74000 7.531
27.76000 4.766
27.78000 0.956
27.80000 -2.128
27.82000 2.143
27.84000 0.701
27.86000 4.643
27.88000 1.668
27.90000 1.974
27.92000 -0.176
27.94000 3.973
27.96000 7.173
27.98000 10.685
28.00000 5.316
28.02000 4.160
28.04000 6.513
28.06000 1.622
28.08000 2.703
28.10000 7.160
28.12000 5.049
28.14000 0.770
28.16000 0.750
28.18000 3.590
28.20000 4.867
28.22000 4.310
28.24000 1.596
28.26000 4.016
28.28000 1.865
28.30000 0.913
28.32000 4.491
28.34000 6.183
28.36000 4.961
28.38000 1.010
28.40000 -1.462
28.42000 -1.008
28.44000 3.838
28.46000 2.269
28.48000 4.798
28.50000 3.050
28.52000 1.242
28.54000 1.298
28.56000 2.709
28.58000 -2.256
28.60000 -1.125
28.62000 1.522
28.64000 2.835
28.66000 3.579
28.68000 -3.368
28.70000 -0.626
28.72000 5.208
28.74000 2.085
28.76000 4.652
28.78000 4.210
28.80000 -1.229
28.82000 3.352
28.84000 -1.174
28.86000 0.047
28.88000 -3.777
28.90000 -1.739
28.92000 3.606
28.94000 0.628
28.96000 1.268
28.98000 6.592
29.00000 -0.290
29.02000 0.043
29.04000 1.569
29.06000 2.155
29.08000 0.938
29.10000 0.165
29.12000 2.433
29.14000 1.699
29.16000 -0.198
29.18000 1.332
29.20000 3.436
29.22000 5.414
29.24000 7.273
29.26000 1.870
29.28000 2.734
29.30000 1.567
29.32000 -2.140
29.34000 -1.879
29.36000 4.104
29.38000 5.843
29.40000 4.176
29.42000 2.148
29.44000 4.078
29.46000 4.449
29.48000 3.727
29.50000 1.420
29.52000 3.568
29.54000 1.040
29.56000 4.293
29.58000 7.078
29.60000 1.379
29.62000 4.077
29.64000 2.728
29.66000 6.789
29.68000 6.655
29.70000 -0.938
29.72000 -2.361
29.74000 -0.680
29.76000 4.774
29.78000 2.972
29.80000 6.979
29.82000 8.303
29.84000 5.884
29.86000 3.485
29.88000 3.980
29.90000 -2.639
29.92000 -1.712
29.94000 -3.725
29.96000 0.701
29.98000 1.632
30.00000 4.500
30.02000 4.100
30.04000 2.803
30.06000 5.122
30.08000 8.474
30.10000 2.450
30.12000 0.834
30.14000 1.755
30.16000 2.004
30.18000 1.751
30.20000 -1.644
30.22000 0.893
30.24000 -0.488
30.26000 -3.703
30.28000 1.875
30.30000 6.408
30.32000 7.010
30.34000 5.912
30.36000 1.853
30.38000 5.888
30.40000 6.059
30.42000 5.128
30.44000 8.740
30.46000 3.367
30.48000 1.617
30.50000 2.556
30.52000 1.312
30.54000 5.819
30.56000 0.143
30.58000 2.871
30.60000 4.448
30.62000 1.316
30.64000 1.827
30.66000 5.443
30.68000 4.931
30.70000 5.975
30.72000 1.722
30.74000 5.547
30.76000 9.180
30.78000 6.999
30.80000 4.885
30.82000 3.947
30.84000 8.529
30.86000 3.462
30.88000 -3.673
30.90000 -0.999
30.92000 3.003
30.94000 5.322
30.96000 10.255
30.98000 6.599
31.00000 -0.186
31.02000 6.269
31.04000 5.709
31.06000 1.036
31.08000 4.917
31.10000 2.960
31.12000 4.336
31.14000 3.595
31.16000 -0.542
31.18000 3.073
31.20000 2.377
31.22000 0.436
31.24000 0.918
31.26000 1.528
31.28000 3.144
31.30000 2.077
31.32000 2.127
31.34000 0.983
31.36000 -1.578
31.38000 -3.657
31.40000 1.915
31.42000 4.289
31.44000 3.971
31.46000 5.852
31.48000 4.382
31.50000 -1.864
31.52000 -2.554
31.54000 3.039
31.56000 1.495
31.58000 3.651
31.60000 3.242
31.62000 6.407
31.64000 1.878
31.66000 -2.703
31.68000 1.300
31.70000 4.838
31.72000 7.071
31.74000 3.272
31.76000 -1.185
31.78000 -2.811
31.80000 0.288
31.82000 0.598
31.84000 4.526
31.86000 4.920
31.88000 6.002
31.90000 5.010
31.92000 2.044
31.94000 0.494
31.96000 1.977
31.98000 0.108
32.00000 1.232
32.02000 2.546
32.04000 4.729
32.06000 -1.680
32.08000 -3.094
32.10000 2.795
32.12000 -1.861
32.14000 -2.751
32.16000 -1.171
32.18000 -2.130
32.20000 -1.742
32.22000 1.559
32.24000 -0.264
32.26000 -0.765
32.28000 2.225
32.30000 4.497
32.32000 0.506
32.34000 -0.612
32.36000 0.513
32.38000 3.498
32.40000 0.786
32.42000 1.937
32.44000 6.614
32.46000 4.674
32.48000 -0.278
32.50000 3.101
32.52000 4.015
32.54000 6.879
32.56000 5.648
32.58000 0.910
32.60000 3.494
32.62000 7.513
32.64000 1.861
32.66000 4.008
32.68000 2.336
32.70000 6.380
32.72000 10.904
32.74000 11.954
32.76000 6.080
32.78000 2.790
32.80000 1.752
32.82000 1.998
32.84000 0.079
32.86000 2.336
32.88000 3.326
32.90000 -0.300
32.92000 4.977
32.94000 12.690
32.96000 8.406
32.98000 8.975
33.00000 9.003
33.02000 7.001
33.04000 11.173
33.06000 6.673
33.08000 4.693
33.10000 8.315
33.12000 8.172
33.14000 6.988
33.16000 14.422
33.18000 13.936
33.20000 10.528
33.22000 3.503
33.24000 -2.353
33.26000 3.466
33.28000 8.253
33.30000 4.017
33.32000 8.620
33.34000 7.193
33.36000 5.479
33.38000 6.063
33.40000 6.657
33.42000 1.970
33.44000 -3.547
33.46000 -2.300
33.48000 4.234
33.50000 7.897
33.52000 8.351
33.54000 8.737
33.56000 9.190
33.58000 9.682
33.60000 9.257
33.62000 5.117
33.64000 3.603
33.66000 3.551
33.68000 3.693
33.70000 1.886
33.72000 2.209
33.74000 2.619
33.76000 3.284
33.78000 4.576
33.80000 10.279
33.82000 5.815
33.84000 5.193
33.86000 8.529
33.88000 7.331
33.90000 6.789
33.92000 8.747
33.94000 6.102
33.96000 6.704
33.98000 0.459
34.00000 3.303
34.02000 -1.171
34.04000 -0.778
34.06000 4.952
34.08000 5.537
34.10000 1.785
34.12000 3.494
34.14000 7.415
34.16000 3.939
34.18000 5.606
34.20000 4.642
34.22000 7.842
34.24000 3.153
34.26000 1.922
34.28000 3.834
34.30000 5.556
34.32000 11.037
34.34000 10.071
34.36000 9.285
34.38000 9.817
34.40000 8.339
34.42000 4.748
34.44000 1.904
34.46000 6.749
34.48000 5.737
34.50000 7.599
34.52000 3.983
34.54000 -0.759
34.56000 -1.260
34.58000 2.823
34.60000 4.123
34.62000 1.936
34.64000 2.518
34.66000 3.458
34.68000 1.147
34.70000 0.217
34.72000 1.221
34.74000 3.797
34.76000 6.356
34.78000 11.879
34.80000 4.234
34.82000 6.338
34.84000 3.868
34.86000 1.237
34.88000 3.695
34.90000 7.279
34.92000 2.653
34.94000 2.550
34.96000 2.891
34.98000 1.764
35.00000 -2.632
35.02000 -1.820
35.04000 -3.045
35.06000 0.133
35.08000 0.606
35.10000 4.851
35.12000 4.973
35.14000 1.006
35.16000 1.918
35.18000 5.182
35.20000 5.744
35.22000 1.306
35.24000 1.342
35.26000 1.977
35.28000 3.718
35.30000 -1.241
35.32000 4.004
35.34000 2.786
35.36000 -1.210
35.38000 -0.425
35.40000 3.137
35.42000 6.334
35.44000 -0.708
35.46000 0.396
35.48000 6.494
35.50000 5.647
35.52000 4.105
35.54000 2.239
35.56000 2.004
35.58000 3.216
35.60000 2.598
35.62000 1.131
35.64000 -2.816
35.66000 -3.560
35.68000 2.002
35.70000 5.315
35.72000 0.404
35.74000 7.186
35.76000 10.020
35.78000 4.049
35.80000 3.366
35.82000 4.445
35.84000 0.512
35.86000 -1.191
35.88000 1.106
35.90000 2.977
35.92000 2.517
35.94000 0.897
35.96000 0.737
35.98000 0.911
36.00000 4.138
36.02000 4.487
36.04000 5.027
36.06000 6.016
36.08000 -0.522
36.10000 -0.611
36.12000 0.140
36.14000 -1.765
36.16000 -0.180
36.18000 -2.114
36.20000 -0.427
36.22000 3.803
36.24000 1.135
36.26000 -3.600
36.28000 -1.749
36.30000 2.988
36.32000 4.898
36.34000 2.543
36.36000 -1.912
36.38000 -0.610
36.40000 1.246
36.42000 -1.631
36.44000 -1.865
36.46000 0.709
36.48000 1.649
36.50000 1.209
36.52000 -1.329
36.54000 4.957
36.56000 -0.327
36.58000 2.600
36.60000 0.627
36.62000 1.666
36.64000 0.272
36.66000 -0.612
36.68000 -2.292
36.70000 6.186
36.72000 3.797
36.74000 3.737
36.76000 1.054
36.78000 -3.340
36.80000 -3.056
36.82000 -3.247
36.84000 -3.255
36.86000 -2.830
36.88000 -2.703
36.90000 1.239
36.92000 6.597
36.94000 7.325
36.96000 5.245
36.98000 2.065
37.00000 -1.794
37.02000 2.176
37.04000 2.911
37.06000 0.557
37.08000 0.606
37.10000 1.509
37.12000 2.093
37.14000 2.315
37.16000 1.571
37.18000 1.523
37.20000 2.984
37.22000 -1.454
37.24000 0.051
37.26000 -3.654
37.28000 2.336
37.30000 1.384
37.32000 4.300
37.34000 2.346
37.36000 6.520
37.38000 5.422
37.40000 4.985
37.42000 8.803
37.44000 10.371
37.46000 7.263
37.48000 -0.506
37.50000 -0.898
37.52000 2.166
37.54000 7.146
37.56000 9.898
37.58000 6.822
37.60000 3.465
37.62000 4.042
37.64000 3.980
37.66000 6.730
37.68000 11.398
37.70000 8.704
37.72000 6.877
37.74000 9.887
37.76000 7.333
37.78000 9.098
37.80000 10.493
37.82000 11.325
37.84000 7.523
37.86000 8.663
37.88000 10.357
37.90000 9.756
37.92000 11.694
37.94000 9.840
37.96000 7.630
37.98000 11.614
38.00000 7.979
38.02000 8.468
38.04000 15.453
38.06000 16.586
38.08000 16.746
38.10000 17.928
38.12000 18.303
38.14000 16.186
38.16000 16.461
38.18000 15.748
38.20000 12.773
38.22000 17.477
38.24000 22.850
38.26000 20.584
38.28000 16.858
38.30000 19.485
38.32000 20.078
38.34000 19.991
38.36000 24.312
38.38000 29.972
38.40000 30.619
38.42000 29.067
38.44000 29.571
38.46000 30.779
38.48000 37.336
38.50000 37.794
38.52000 39.368
38.54000 33.659
38.56000 29.923
38.58000 36.027
38.60000 38.179
38.62000 35.955
38.64000 38.627
38.66000 48.609
38.68000 48.530
38.70000 41.139
38.72000 46.340
38.74000 47.945
38.76000 54.258
38.78000 55.511
38.80000 60.018
38.82000 60.669
38.84000 62.272
38.86000 62.384
38.88000 62.960
38.90000 62.364
38.92000 66.185
38.94000 68.606
38.96000 73.428
38.98000 83.731
39.00000 88.621
39.02000 93.888
39.04000 96.411
39.06000 96.780
39.08000 98.820
39.10000 102.550
39.12000 108.467
39.14000 117.345
39.16000 119.124
39.18000 124.860
39.20000 128.712
39.22000 134.826
39.24000 142.686
39.26000 148.776
39.28000 154.218
39.30000 157.951
39.32000 166.397
39.34000 183.032
39.36000 192.387
39.38000 200.202
39.40000 206.329
39.42000 210.346
39.44000 224.401
39.46000 233.496
39.48000 243.481
39.50000 259.378
39.52000 276.351
39.54000 294.605
39.56000 310.927
39.58000 321.650
39.60000 326.319
39.62000 337.809
39.64000 358.617
39.66000 384.793
39.68000 405.744
39.70000 426.686
39.72000 446.952
39.74000 459.810
39.76000 474.132
39.78000 487.535
39.80000 504.444
39.82000 518.819
39.84000 531.641
39.86000 549.115
39.88000 567.784
39.90000 583.909
39.92000 593.799
39.94000 596.614
39.96000 609.932
39.98000 616.902
40.00000 617.873
40.02000 629.982
40.04000 634.110
40.06000 631.473
40.08000 636.052
40.10000 620.935
40.12000 610.083
40.14000 607.165
40.16000 597.007
40.18000 586.709
40.20000 569.666
40.22000 558.888
40.24000 558.018
40.26000 547.373
40.28000 525.882
40.30000 510.181
40.32000 483.228
40.34000 470.954
40.36000 450.417
40.38000 429.388
40.40000 411.362
40.42000 398.697
40.44000 385.754
40.46000 370.258
40.48000 353.805
40.50000 332.929
40.52000 319.818
40.54000 296.702
40.56000 283.564
40.58000 263.714
40.60000 255.759
40.62000 239.965
40.64000 226.374
40.66000 212.408
40.68000 201.393
40.70000 191.638
40.72000 176.368
40.74000 168.652
40.76000 159.676
40.78000 149.405
40.80000 142.154
40.82000 138.067
40.84000 130.376
40.86000 124.223
40.88000 115.360
40.90000 107.821
40.92000 105.122
40.94000 99.473
40.96000 95.444
40.98000 93.240
41.00000 86.846
41.02000 75.344
41.04000 76.966
41.06000 74.408
41.08000 66.685
41.10000 65.158
41.12000 60.563
41.14000 54.437
41.16000 52.181
41.18000 47.994
41.20000 51.595
41.22000 47.091
41.24000 40.934
41.26000 37.014
41.28000 37.927
41.30000 35.573
41.32000 33.740
41.34000 32.255
41.36000 29.408
41.38000 29.589
41.40000 27.184
41.42000 26.676
41.44000 26.485
41.46000 22.765
41.48000 22.655
41.50000 23.187
41.52000 22.119
41.54000 17.319
41.56000 17.188
41.58000 16.543
41.60000 17.569
41.62000 13.601
41.64000 15.318
41.66000 15.682
41.68000 16.130
41.70000 13.732
41.72000 15.110
41.74000 14.040
41.76000 8.627
41.78000 4.818
41.80000 6.319
41.82000 3.061
41.84000 5.219
41.86000 7.423
41.88000 5.935
41.90000 1.156
41.92000 -0.237
41.94000 -0.987
41.96000 1.297
41.98000 4.874
42.00000 3.272
42.02000 5.507
42.04000 6.990
42.06000 -0.024
42.08000 -0.123
42.10000 2.939
42.12000 4.064
42.14000 -0.702
42.16000 2.934
42.18000 1.774
42.20000 0.273
42.22000 2.787
42.24000 6.894
42.26000 4.024
42.28000 0.050
42.30000 -1.623
42.32000 -1.177
42.34000 1.734
42.36000 3.826
42.38000 4.073
42.40000 3.524
42.42000 2.921
42.44000 -3.526
42.46000 -2.007
42.48000 0.384
42.50000 -2.295
42.52000 -1.490
42.54000 -0.823
42.56000 -0.537
42.58000 -0.157
42.60000 1.367
42.62000 1.792
42.64000 0.990
42.66000 1.807
42.68000 2.028
42.70000 1.626
42.72000 3.115
42.74000 2.066
42.76000 3.134
42.78000 6.609
42.80000 3.795
42.82000 -0.693
42.84000 -1.264
42.86000 1.218
42.88000 1.164
42.90000 4.221
42.92000 4.660
42.94000 1.067
42.96000 -2.165
42.98000 -0.827
43.00000 -3.436
43.02000 -1.324
43.04000 -2.704
43.06000 1.772
43.08000 2.661
43.10000 4.775
43.12000 2.935
43.14000 -1.111
43.16000 0.146
43.18000 3.769
43.20000 2.342
43.22000 -0.610
43.24000 -1.889
43.26000 1.535
43.28000 4.233
43.30000 2.823
43.32000 -0.765
43.34000 -2.755
43.36000 -1.974
43.38000 2.323
43.40000 2.795
43.42000 -0.168
43.44000 1.577
43.46000 5.437
43.48000 2.212
43.50000 -0.836
43.52000 -1.240
43.54000 2.426
43.56000 4.906
43.58000 3.313
43.60000 -2.425
43.62000 -3.214
43.64000 -3.385
43.66000 3.831
43.68000 0.875
43.70000 1.376
43.72000 2.135
43.74000 -0.187
43.76000 0.476
43.78000 0.089
43.80000 2.091
43.82000 5.843
43.84000 6.413
43.86000 2.477
43.88000 2.806
43.90000 -3.381
43.92000 1.743
43.94000 2.870
43.96000 4.721
43.98000 6.827
44.00000 1.728
44.02000 -0.291
44.04000 -3.316
44.06000 -2.318
44.08000 0.860
44.10000 0.989
44.12000 1.358
44.14000 1.808
44.16000 3.759
44.18000 4.710
44.20000 0.140
44.22000 -1.484
44.24000 2.019
44.26000 2.507
44.28000 -2.176
44.30000 -2.257
44.32000 -1.310
44.34000 3.687
44.36000 5.112
44.38000 0.646
44.40000 0.672
44.42000 2.151
44.44000 -1.740
44.46000 -0.099
44.48000 1.023
44.50000 -1.342
44.52000 3.596
44.54000 1.731
44.56000 0.709
44.58000 -0.043
44.60000 1.236
44.62000 3.642
44.64000 3.192
44.66000 6.729
44.68000 7.346
44.70000 2.182
44.72000 4.612
44.74000 4.107
44.76000 3.781
44.78000 0.761
44.80000 1.553
44.82000 5.483
44.84000 3.037
44.86000 5.253
44.88000 5.444
44.90000 4.100
44.92000 5.652
44.94000 5.572
44.96000 6.190
44.98000 8.447
45.00000 10.211
45.02000 7.690
45.04000 10.370
45.06000 6.827
45.08000 7.743
45.10000 10.015
45.12000 8.584
45.14000 9.709
45.16000 12.963
45.18000 12.918
45.20000 10.385
45.22000 13.391
45.24000 17.897
45.26000 13.162
45.28000 15.823
45.30000 17.635
45.32000 14.128
45.34000 16.157
45.36000 18.508
45.38000 14.754
45.40000 13.502
45.42000 15.134
45.44000 13.211
45.46000 15.615
45.48000 18.609
45.50000 20.541
45.52000 20.848
45.54000 20.318
45.56000 27.835
45.58000 30.390
45.60000 29.929
45.62000 28.029
45.64000 31.404
45.66000 28.818
45.68000 29.586
45.70000 28.203
45.72000 24.463
45.74000 29.897
45.76000 29.918
45.78000 34.455
45.80000 39.739
45.82000 39.961
45.84000 38.916
45.86000 35.806
45.88000 39.172
45.90000 44.660
45.92000 48.795
45.94000 49.760
45.96000 49.416
45.98000 50.013
46.00000 46.404
46.02000 53.018
46.04000 57.179
46.06000 49.957
46.08000 46.812
46.10000 56.186
46.12000 61.916
46.14000 65.507
46.16000 63.589
46.18000 70.342
46.20000 73.708
46.22000 74.379
46.24000 67.201
46.26000 78.712
46.28000 88.329
46.30000 82.523
46.32000 80.757
46.34000 83.287
46.36000 84.057
46.38000 86.949
46.40000 86.779
46.42000 90.761
46.44000 91.111
46.46000 89.445
46.48000 88.497
46.50000 94.252
46.52000 95.748
46.54000 98.055
46.56000 101.395
46.58000 100.459
46.60000 105.905
46.62000 102.884
46.64000 103.725
46.66000 99.973
46.68000 101.411
46.70000 100.830
46.72000 99.561
46.74000 104.651
46.76000 105.531
46.78000 101.536
46.80000 100.974
46.82000 97.505
46.84000 101.586
46.86000 99.244
46.88000 93.026
46.90000 97.833
46.92000 95.484
46.94000 94.683
46.96000 88.804
46.98000 90.298
47.00000 88.020
47.02000 83.684
47.04000 84.739
47.06000 85.195
47.08000 82.358
47.10000 79.543
47.12000 73.936
47.14000 71.135
47.16000 72.007
47.18000 70.252
47.20000 66.353
47.22000 67.519
47.24000 74.492
47.26000 67.403
47.28000 61.142
47.30000 57.270
47.32000 55.921
47.34000 54.926
47.36000 54.873
47.38000 52.485
47.40000 48.555
47.42000 49.370
47.44000 45.807
47.46000 45.648
47.48000 44.869
47.50000 38.477
47.52000 35.860
47.54000 35.333
47.56000 36.719
47.58000 34.285
47.60000 32.609
47.62000 31.429
47.64000 30.263
47.66000 27.779
47.68000 25.126
47.70000 26.685
47.72000 29.402
47.74000 29.111
47.76000 24.527
47.78000 21.574
47.80000 22.760
47.82000 25.631
47.84000 22.635
47.86000 19.237
47.88000 23.884
47.90000 18.974
47.92000 11.697
47.94000 12.799
47.96000 12.851
47.98000 14.106
48.00000 16.953
48.02000 13.673
48.04000 12.871
48.06000 13.681
48.08000 7.941
48.10000 13.271
48.12000 17.568
48.14000 16.880
48.16000 13.188
48.18000 9.325
48.20000 7.861
48.22000 8.746
48.24000 8.111
48.26000 9.037
48.28000 8.437
48.30000 7.859
48.32000 4.983
48.34000 7.350
48.36000 5.311
48.38000 8.320
48.40000 10.420
48.42000 9.894
48.44000 9.316
48.46000 7.865
48.48000 7.748
48.50000 7.629
48.52000 4.177
48.54000 3.957
48.56000 8.552
48.58000 9.988
48.60000 10.664
48.62000 8.161
48.64000 6.961
48.66000 9.356
48.68000 8.649
48.70000 4.800
48.72000 3.174
48.74000 3.253
48.76000 -0.799
48.78000 -2.887
48.80000 3.630
48.82000 1.397
48.84000 2.245
48.86000 9.926
48.88000 8.831
48.90000 4.065
48.92000 5.660
48.94000 5.347
48.96000 7.513
48.98000 8.615
49.00000 7.783
49.02000 8.203
49.04000 2.942
49.06000 0.721
49.08000 5.752
49.10000 3.002
49.12000 7.099
49.14000 4.544
49.16000 6.107
49.18000 6.605
49.20000 8.466
49.22000 4.046
49.24000 -0.557
49.26000 -0.794
49.28000 2.052
49.30000 5.769
49.32000 3.118
49.34000 -0.001
49.36000 4.764
49.38000 7.585
49.40000 3.690
49.42000 2.768
49.44000 7.141
49.46000 8.320
49.48000 0.802
49.50000 -2.847
49.52000 2.527
49.54000 3.833
49.56000 2.644
49.58000 1.445
49.60000 3.637
49.62000 1.593
49.64000 2.290
49.66000 3.844
49.68000 8.043
49.70000 5.784
49.72000 2.958
49.74000 1.368
49.76000 1.815
49.78000 1.176
49.80000 6.736
49.82000 1.159
49.84000 4.098
49.86000 -0.337
49.88000 -2.832
49.90000 0.386
49.92000 2.266
49.94000 2.780
49.96000 1.686
49.98000 1.777
50.00000 2.902
50.02000 0.891
50.04000 1.643
50.06000 0.956
50.08000 3.648
50.10000 6.468
50.12000 0.822
50.14000 -0.308
50.16000 4.204
50.18000 3.004
50.20000 3.759
50.22000 4.251
50.24000 -2.262
50.26000 -0.518
50.28000 1.154
50.30000 5.135
50.32000 3.331
50.34000 6.154
50.36000 6.017
50.38000 -0.269
50.40000 1.319
50.42000 4.260
50.44000 5.532
50.46000 0.965
50.48000 2.084
50.50000 1.183
50.52000 2.796
50.54000 4.481
50.56000 3.828
50.58000 3.696
50.60000 5.420
50.62000 2.657
50.64000 3.271
50.66000 5.827
50.68000 3.708
50.70000 3.895
50.72000 6.176
50.74000 7.110
50.76000 4.001
50.78000 2.043
50.80000 3.290
50.82000 5.782
50.84000 3.525
50.86000 7.191
50.88000 1.749
50.90000 3.383
50.92000 6.461
50.94000 6.390
50.96000 5.160
50.98000 2.721
51.00000 2.956
51.02000 -2.742
51.04000 -0.385
51.06000 0.777
51.08000 1.612
51.10000 3.195
51.12000 7.679
51.14000 5.061
51.16000 5.330
51.18000 6.354
51.20000 3.807
51.22000 6.296
51.24000 6.558
51.26000 3.903
51.28000 5.218
51.30000 4.046
51.32000 6.643
51.34000 5.752
51.36000 5.138
51.38000 3.001
51.40000 4.639
51.42000 3.501
51.44000 3.893
51.46000 5.916
51.48000 -0.529
51.50000 -0.316
51.52000 2.050
51.54000 0.320
51.56000 3.380
51.58000 0.516
51.60000 -1.808
51.62000 2.499
51.64000 2.680
51.66000 3.482
51.68000 3.249
51.70000 1.415
51.72000 1.481
51.74000 1.303
51.76000 0.547
51.78000 1.795
51.80000 0.760
51.82000 2.312
51.84000 4.113
51.86000 2.645
51.88000 2.875
51.90000 2.978
51.92000 6.093
51.94000 5.476
51.96000 4.657
51.98000 5.147
52.00000 3.789
52.02000 0.917
52.04000 3.405
52.06000 2.633
52.08000 1.011
52.10000 1.803
52.12000 4.392
52.14000 2.139
52.16000 1.600
52.18000 0.553
52.20000 -1.513
52.22000 1.574
52.24000 3.346
52.26000 1.360
52.28000 1.877
52.30000 5.219
52.32000 5.093
52.34000 2.618
52.36000 4.270
52.38000 1.481
52.40000 -2.111
52.42000 -0.656
52.44000 1.557
52.46000 1.740
52.48000 4.777
52.50000 6.865
52.52000 5.059
52.54000 6.228
52.56000 7.541
52.58000 4.026
52.60000 2.403
52.62000 1.969
52.64000 7.668
52.66000 4.603
52.68000 3.416
52.70000 2.887
52.72000 4.473
52.74000 2.485
52.76000 2.335
52.78000 2.622
52.80000 3.496
52.82000 4.054
52.84000 -1.006
52.86000 -2.069
52.88000 2.374
52.90000 7.637
52.92000 6.240
52.94000 2.524
52.96000 4.096
52.98000 3.510
53.00000 -0.159
53.02000 1.680
53.04000 6.004
53.06000 6.518
53.08000 5.350
53.10000 2.955
53.12000 3.137
53.14000 3.488
53.16000 4.448
53.18000 11.522
53.20000 6.675
53.22000 4.284
53.24000 6.939
53.26000 7.332
53.28000 4.771
53.30000 6.645
53.32000 3.775
53.34000 4.004
53.36000 6.069
53.38000 1.408
53.40000 4.484
53.42000 2.999
53.44000 -2.625
53.46000 0.622
53.48000 2.131
53.50000 5.220
53.52000 5.329
53.54000 2.790
53.56000 5.673
53.58000 8.607
53.60000 4.396
53.62000 3.058
53.64000 4.984
53.66000 1.723
53.68000 3.027
53.70000 5.689
53.72000 5.758
53.74000 4.665
53.76000 2.635
53.78000 2.654
53.80000 7.458
53.82000 6.825
53.84000 6.094
53.86000 8.511
53.88000 6.283
53.90000 10.873
53.92000 9.570
53.94000 6.371
53.96000 1.186
53.98000 2.390
54.00000 1.902
54.02000 3.694
54.04000 5.474
54.06000 0.964
54.08000 3.164
54.10000 3.918
54.12000 5.967
54.14000 4.367
54.16000 2.473
54.18000 -1.183
54.20000 4.449
54.22000 5.520
54.24000 3.069
54.26000 1.246
54.28000 -1.919
54.30000 0.551
54.32000 4.138
54.34000 7.048
54.36000 6.560
54.38000 1.771
54.40000 -2.640
54.42000 3.062
54.44000 8.631
54.46000 5.010
54.48000 3.113
54.50000 0.406
54.52000 0.519
54.54000 -0.065
54.56000 2.723
54.58000 1.801
54.60000 4.289
54.62000 3.845
54.64000 4.472
54.66000 1.455
54.68000 0.932
54.70000 -2.097
54.72000 -2.535
54.74000 2.901
54.76000 4.934
54.78000 3.294
54.80000 8.815
54.82000 5.905
54.84000 -0.373
54.86000 1.766
54.88000 4.122
54.90000 3.427
54.92000 1.475
54.94000 0.369
54.96000 -0.240
54.98000 3.493
55.00000 0.550
55.02000 3.007
55.04000 2.295
55.06000 0.839
55.08000 1.328
55.10000 -1.239
55.12000 1.857
55.14000 4.839
55.16000 2.947
55.18000 1.025
55.20000 -0.029
55.22000 2.812
55.24000 8.225
55.26000 6.348
55.28000 4.138
55.30000 1.867
55.32000 -1.932
55.34000 0.109
55.36000 3.623
55.38000 0.463
55.40000 -2.626
55.42000 -0.736
55.44000 3.730
55.46000 3.219
55.48000 -0.290
55.50000 2.592
55.52000 4.749
55.54000 3.002
55.56000 -0.259
55.58000 -0.119
55.60000 2.427
55.62000 0.661
55.64000 -1.421
55.66000 1.075
55.68000 1.792
55.70000 4.283
55.72000 2.737
55.74000 6.567
55.76000 7.037
55.78000 -0.562
55.80000 -1.897
55.82000 -1.782
55.84000 -1.659
55.86000 2.231
55.88000 0.610
55.90000 1.712
55.92000 -0.477
55.94000 3.566
55.96000 5.578
55.98000 4.646
56.00000 5.753
56.02000 5.187
56.04000 2.249
56.06000 1.799
56.08000 4.698
56.10000 7.144
56.12000 3.023
56.14000 0.134
56.16000 0.190
56.18000 5.432
56.20000 7.796
56.22000 1.897
56.24000 0.051
56.26000 3.422
56.28000 -0.489
56.30000 -0.959
56.32000 0.070
56.34000 2.682
56.36000 -0.300
56.38000 3.229
56.40000 5.843
56.42000 5.686
56.44000 4.678
56.46000 2.095
56.48000 2.549
56.50000 1.776
56.52000 1.271
56.54000 2.913
56.56000 1.751
56.58000 2.033
56.60000 -2.610
56.62000 -0.830
56.64000 1.769
56.66000 2.943
56.68000 2.691
56.70000 3.388
56.72000 2.554
56.74000 -1.337
56.76000 -2.426
56.78000 -0.751
56.80000 1.995
56.82000 -0.879
56.84000 2.890
56.86000 4.514
56.88000 3.575
56.90000 1.822
56.92000 -0.333
56.94000 1.280
56.96000 2.281
56.98000 1.296
57.00000 2.332
57.02000 4.121
57.04000 1.214
57.06000 -0.857
57.08000 5.484
57.10000 6.250
57.12000 3.399
57.14000 3.006
57.16000 1.624
57.18000 4.932
57.20000 7.350
57.22000 1.835
57.24000 0.804
57.26000 1.228
57.28000 -2.280
57.30000 1.382
57.32000 3.879
57.34000 2.751
57.36000 4.573
57.38000 0.361
57.40000 -2.554
57.42000 -1.067
57.44000 -0.284
57.46000 0.566
57.48000 0.785
57.50000 -0.428
57.52000 1.340
57.54000 4.182
57.56000 1.229
57.58000 -0.565
57.60000 0.723
57.62000 6.724
57.64000 3.960
57.66000 0.071
57.68000 -0.339
57.70000 0.244
57.72000 2.534
57.74000 4.476
57.76000 7.144
57.78000 4.655
57.80000 2.183
57.82000 6.029
57.84000 2.337
57.86000 0.792
57.88000 0.311
57.90000 -1.344
57.92000 4.139
57.94000 7.207
57.96000 4.098
57.98000 3.646
58.00000 -0.120
58.02000 1.298
58.04000 5.180
58.06000 6.330
58.08000 -1.233
58.10000 -0.058
58.12000 5.061
58.14000 1.340
58.16000 -2.559
58.18000 -2.156
58.20000 2.934
58.22000 0.330
58.24000 0.942
58.26000 1.218
58.28000 3.185
58.30000 3.315
58.32000 3.660
58.34000 0.940
58.36000 -0.897
58.38000 2.525
58.40000 3.009
58.42000 2.778
58.44000 1.542
58.46000 1.767
58.48000 4.145
58.50000 3.063
58.52000 1.499
58.54000 0.059
58.56000 4.517
58.58000 2.227
58.60000 2.137
58.62000 0.242
58.64000 1.670
58.66000 2.128
58.68000 2.586
58.70000 1.460
58.72000 2.189
58.74000 3.057
58.76000 0.654
58.78000 2.841
58.80000 -1.636
58.82000 2.140
58.84000 4.379
58.86000 1.995
58.88000 1.464
58.90000 3.417
58.92000 -2.533
58.94000 -1.959
58.96000 2.212
58.98000 5.437
59.00000 2.423
59.02000 5.986
59.04000 3.071
59.06000 2.333
59.08000 4.131
59.10000 6.444
59.12000 3.069
59.14000 2.201
59.16000 5.372
59.18000 4.247
59.20000 2.405
59.22000 5.123
59.24000 4.272
59.26000 3.629
59.28000 3.739
59.30000 0.563
59.32000 0.440
59.34000 5.245
59.36000 1.633
59.38000 0.280
59.40000 1.807
59.42000 2.073
59.44000 1.634
59.46000 4.814
59.48000 3.093
59.50000 -0.237
59.52000 3.141
59.54000 1.747
59.56000 -2.537
59.58000 0.537
59.60000 4.862
59.62000 6.834
59.64000 2.687
59.66000 0.593
59.68000 -1.987
59.70000 -0.248
59.72000 -1.779
59.74000 -2.383
59.76000 0.129
59.78000 0.614
59.80000 1.464
59.82000 0.339
59.84000 1.184
59.86000 2.383
59.88000 3.091
59.90000 1.288
59.92000 -1.250
59.94000 -1.470
59.96000 -0.135
59.98000 5.715
60.00000 5.114
60.02000 -0.221
60.04000 0.171
60.06000 0.914
60.08000 -0.566
60.10000 2.086
60.12000 -0.667
60.14000 0.235
60.16000 0.398
60.18000 2.080
60.20000 0.916
60.22000 3.250
60.24000 1.308
60.26000 0.438
60.28000 2.779
60.30000 2.354
60.32000 2.208
60.34000 4.570
60.36000 1.238
60.38000 -0.310
60.40000 -0.833
60.42000 5.949
60.44000 2.470
60.46000 2.286
60.48000 3.271
60.50000 -1.077
60.52000 -0.778
60.54000 0.942
60.56000 3.033
60.58000 5.243
60.60000 5.015
60.62000 2.710
60.64000 0.514
60.66000 0.223
60.68000 -2.498
60.70000 3.410
60.72000 4.735
60.74000 0.642
60.76000 2.628
60.78000 4.870
60.80000 2.353
60.82000 0.488
60.84000 1.125
60.86000 2.574
60.88000 3.365
60.90000 1.741
60.92000 -1.010
60.94000 -0.594
60.96000 -1.699
60.98000 1.266
61.00000 2.801
61.02000 3.306
61.04000 -1.735
61.06000 -0.334
61.08000 -1.638
61.10000 4.011
61.12000 2.935
61.14000 2.417
61.16000 6.035
61.18000 2.559
61.20000 1.124
61.22000 2.827
61.24000 3.382
61.26000 1.503
61.28000 0.893
61.30000 4.815
61.32000 2.915
61.34000 5.070
61.36000 4.915
61.38000 0.727
61.40000 -0.638
61.42000 3.967
61.44000 -0.213
61.46000 -2.443
61.48000 5.819
61.50000 5.452
61.52000 3.546
61.54000 2.218
61.56000 -0.995
61.58000 0.900
61.60000 4.770
61.62000 3.026
61.64000 2.061
61.66000 2.887
61.68000 -1.417
61.70000 -0.755
61.72000 2.226
61.74000 3.777
61.76000 4.379
61.78000 1.486
61.80000 2.896
61.82000 4.422
61.84000 4.102
61.86000 2.514
61.88000 0.566
61.90000 2.696
61.92000 6.218
61.94000 2.472
61.96000 2.710
61.98000 3.766
62.00000 3.547
62.02000 4.401
62.04000 4.647
62.06000 -0.629
62.08000 -0.258
62.10000 2.000
62.12000 1.997
62.14000 0.708
62.16000 -0.356
62.18000 2.846
62.20000 4.122
62.22000 4.633
62.24000 2.610
62.26000 2.349
62.28000 2.819
62.30000 -2.200
62.32000 0.476
62.34000 -0.559
62.36000 0.631
62.38000 5.632
62.40000 3.853
62.42000 0.097
62.44000 0.506
62.46000 1.042
62.48000 0.257
62.50000 1.065
62.52000 2.778
62.54000 2.220
62.56000 0.972
62.58000 1.564
62.60000 4.805
62.62000 4.731
62.64000 5.681
62.66000 1.457
62.68000 1.459
62.70000 2.177
62.72000 1.175
62.74000 1.741
62.76000 3.554
62.78000 3.952
62.80000 2.608
62.82000 0.571
62.84000 2.130
62.86000 5.099
62.88000 2.427
62.90000 4.943
62.92000 8.282
62.94000 2.599
62.96000 4.286
62.98000 4.950
63.00000 2.470
63.02000 4.848
63.04000 0.617
63.06000 -0.139
63.08000 3.153
63.10000 2.409
63.12000 2.698
63.14000 4.309
63.16000 6.836
63.18000 8.658
63.20000 5.646
63.22000 6.550
63.24000 3.598
63.26000 1.286
63.28000 -2.272
63.30000 -2.411
63.32000 2.753
63.34000 1.445
63.36000 3.442
63.38000 5.320
63.40000 3.388
63.42000 6.100
63.44000 3.608
63.46000 0.880
63.48000 2.922
63.50000 5.536
63.52000 4.418
63.54000 4.827
63.56000 3.354
63.58000 3.422
63.60000 4.234
63.62000 5.066
63.64000 2.476
63.66000 5.736
63.68000 5.112
63.70000 2.953
63.72000 4.044
63.74000 4.045
63.76000 6.798
63.78000 3.321
63.80000 2.250
63.82000 1.704
63.84000 0.625
63.86000 2.151
63.88000 2.818
63.90000 -1.033
63.92000 -2.425
63.94000 -0.067
63.96000 4.667
63.98000 5.519
64.00000 6.367
64.02000 3.436
64.04000 7.427
64.06000 3.897
64.08000 2.183
64.10000 1.785
64.12000 1.123
64.14000 5.348
64.16000 7.288
64.18000 2.216
64.20000 1.041
64.22000 2.293
64.24000 -1.646
64.26000 -2.439
64.28000 5.328
64.30000 0.444
64.32000 -0.857
64.34000 4.610
64.36000 3.488
64.38000 -0.567
64.40000 -0.854
64.42000 1.349
64.44000 0.104
64.46000 2.316
64.48000 1.649
64.50000 5.845
64.52000 3.289
64.54000 1.415
64.56000 1.942
64.58000 2.185
64.60000 0.692
64.62000 0.472
64.64000 0.062
64.66000 1.134
64.68000 4.013
64.70000 1.193
64.72000 5.688
64.74000 3.206
64.76000 2.751
64.78000 3.975
64.80000 0.652
64.82000 3.410
64.84000 0.087
64.86000 2.276
64.88000 0.117
64.90000 2.895
64.92000 3.820
64.94000 3.504
64.96000 0.341
64.98000 1.466
65.00000 4.760
65.02000 1.692
65.04000 -2.460
65.06000 1.652
65.08000 3.425
65.10000 -0.717
65.12000 -0.740
65.14000 -0.903
65.16000 0.752
65.18000 2.057
65.20000 2.562
65.22000 1.305
65.24000 0.576
65.26000 1.338
65.28000 1.500
65.30000 -0.266
65.32000 0.855
65.34000 2.641
65.36000 2.541
65.38000 0.957
65.40000 -2.467
65.42000 1.031
65.44000 5.677
65.46000 2.565
65.48000 2.505
65.50000 0.115
65.52000 1.563
65.54000 2.778
65.56000 3.105
65.58000 0.017
65.60000 3.193
65.62000 1.681
65.64000 1.861
65.66000 1.201
65.68000 2.470
65.70000 4.315
65.72000 3.795
65.74000 0.836
65.76000 2.155
65.78000 3.190
65.80000 1.589
65.82000 1.247
65.84000 0.583
65.86000 2.691
65.88000 2.509
65.90000 -0.406
65.92000 -0.920
65.94000 -0.042
65.96000 1.774
65.98000 -0.294
66.00000 3.045
66.02000 0.502
66.04000 0.263
66.06000 -0.159
66.08000 0.787
66.10000 1.858
66.12000 1.409
66.14000 -1.596
66.16000 -2.521
66.18000 2.453
66.20000 4.066
66.22000 5.091
66.24000 1.482
66.26000 0.006
66.28000 1.702
66.30000 0.085
66.32000 1.106
66.34000 0.783
66.36000 2.804
66.38000 1.190
66.40000 -0.701
66.42000 -0.130
66.44000 3.701
66.46000 4.742
66.48000 2.284
66.50000 0.840
66.52000 2.534
66.54000 0.382
66.56000 0.725
66.58000 2.863
66.60000 1.593
66.62000 2.909
66.64000 4.057
66.66000 0.222
66.68000 -0.047
66.70000 2.628
66.72000 3.266
66.74000 1.839
66.76000 3.629
66.78000 1.131
66.80000 4.925
66.82000 -0.781
66.84000 0.676
66.86000 1.343
66.88000 3.529
66.90000 1.864
66.92000 1.620
66.94000 2.606
66.96000 4.961
66.98000 6.340
67.00000 3.671
67.02000 5.976
67.04000 7.836
67.06000 8.845
67.08000 5.067
67.10000 5.878
67.12000 8.248
67.14000 3.024
67.16000 6.002
67.18000 6.053
67.20000 9.045
67.22000 11.016
67.24000 7.621
67.26000 9.201
67.28000 10.641
67.30000 9.441
67.32000 8.250
67.34000 7.824
67.36000 6.979
67.38000 9.514
67.40000 10.593
67.42000 13.917
67.44000 12.021
67.46000 12.076
67.48000 10.619
67.50000 12.930
67.52000 10.443
67.54000 11.399
67.56000 13.862
67.58000 11.102
67.60000 13.601
67.62000 15.946
67.64000 14.783
67.66000 13.454
67.68000 16.097
67.70000 15.084
67.72000 19.366
67.74000 20.369
67.76000 20.450
67.78000 19.563
67.80000 14.839
67.82000 15.541
67.84000 20.089
67.86000 19.524
67.88000 21.709
67.90000 23.102
67.92000 19.432
67.94000 19.782
67.96000 16.483
67.98000 19.854
68.00000 20.675
68.02000 17.204
68.04000 14.697
68.06000 15.566
68.08000 22.179
68.10000 27.182
68.12000 22.786
68.14000 22.446
68.16000 24.408
68.18000 21.974
68.20000 22.516
68.22000 21.379
68.24000 18.107
68.26000 21.306
68.28000 22.184
68.30000 24.251
68.32000 22.118
68.34000 23.876
68.36000 18.290
68.38000 15.991
68.40000 16.759
68.42000 17.921
68.44000 21.179
68.46000 19.855
68.48000 21.685
68.50000 22.172
68.52000 18.211
68.54000 15.150
68.56000 14.998
68.58000 11.361
68.60000 10.094
68.62000 7.868
68.64000 12.668
68.66000 15.826
68.68000 12.784
68.70000 10.767
68.72000 12.622
68.74000 12.156
68.76000 12.577
68.78000 11.841
68.80000 8.344
68.82000 7.024
68.84000 7.463
68.86000 6.714
68.88000 6.197
68.90000 8.306
68.92000 11.728
68.94000 7.861
68.96000 10.238
68.98000 9.681
69.00000 5.755
69.02000 5.228
69.04000 6.521
69.06000 5.561
69.08000 4.234
69.10000 4.555
69.12000 2.749
69.14000 3.699
69.16000 4.321
69.18000 2.275
69.20000 4.365
69.22000 2.408
69.24000 3.250
69.26000 -0.469
69.28000 -2.131
69.30000 0.330
69.32000 2.613
69.34000 1.720
69.36000 0.242
69.38000 1.455
69.40000 1.574
69.42000 0.477
69.44000 3.874
69.46000 6.237
69.48000 1.133
69.50000 2.533
69.52000 3.783
69.54000 3.232
69.56000 1.995
69.58000 0.994
69.60000 1.568
69.62000 2.215
69.64000 -0.529
69.66000 -2.271
69.68000 -0.952
69.70000 -0.338
69.72000 4.968
69.74000 2.047
69.76000 2.121
69.78000 0.494
69.80000 -0.384
69.82000 -1.300
69.84000 -2.449
69.86000 -1.882
69.88000 1.257
69.90000 1.964
69.92000 1.400
69.94000 3.522
69.96000 3.708
69.98000 3.895
70.00000 0.839
70.02000 0.455
70.04000 1.082
70.06000 -1.128
70.08000 2.252
70.10000 5.598
70.12000 5.494
70.14000 4.472
70.16000 2.681
70.18000 3.549
70.20000 -1.448
70.22000 -0.923
70.24000 -0.454
70.26000 0.234
70.28000 -0.387
70.30000 3.217
70.32000 3.717
70.34000 5.311
70.36000 4.581
70.38000 0.141
70.40000 -1.875
70.42000 1.493
70.44000 4.393
70.46000 4.095
70.48000 1.328
70.50000 -1.496
70.52000 -2.375
70.54000 0.909
70.56000 -0.727
70.58000 2.072
70.60000 4.649
70.62000 2.428
70.64000 -0.013
70.66000 5.176
70.68000 3.854
70.70000 1.490
70.72000 1.257
70.74000 4.684
70.76000 3.768
70.78000 -0.849
70.80000 -0.711
70.82000 3.454
70.84000 6.075
70.86000 3.007
70.88000 3.072
70.90000 1.107
70.92000 0.118
70.94000 2.346
70.96000 3.115
70.98000 3.561
71.00000 2.492
71.02000 -0.373
71.04000 -0.370
71.06000 -0.358
71.08000 3.956
71.10000 2.016
71.12000 3.984
71.14000 3.673
71.16000 2.394
71.18000 3.153
71.20000 7.285
71.22000 6.773
71.24000 4.313
71.26000 1.683
71.28000 -0.898
71.30000 -1.021
71.32000 -0.276
71.34000 -0.196
71.36000 -0.768
71.38000 0.020
71.40000 0.199
71.42000 1.989
71.44000 3.517
71.46000 4.086
71.48000 0.885
71.50000 0.510
71.52000 1.847
71.54000 5.568
71.56000 3.573
71.58000 3.600
71.60000 3.614
71.62000 3.476
71.64000 3.560
71.66000 5.207
71.68000 -0.408
71.70000 0.308
71.72000 -0.045
71.74000 -2.340
71.76000 -0.485
71.78000 -1.648
71.80000 3.072
71.82000 3.311
71.84000 2.991
71.86000 4.203
71.88000 5.595
71.90000 2.467
71.92000 -2.303
71.94000 -1.916
71.96000 0.960
71.98000 4.147
72.00000 6.657
72.02000 2.487
72.04000 -1.519
72.06000 0.342
72.08000 -0.976
72.10000 0.844
72.12000 3.264
72.14000 4.492
72.16000 -0.147
72.18000 0.676
72.20000 0.325
72.22000 -2.326
72.24000 2.283
72.26000 1.673
72.28000 1.386
72.30000 5.823
72.32000 5.756
72.34000 -0.730
72.36000 -1.691
72.38000 0.813
72.40000 2.983
72.42000 4.469
72.44000 2.081
72.46000 4.575
72.48000 4.876
72.50000 2.664
72.52000 4.614
72.54000 2.227
72.56000 1.115
72.58000 -2.311
72.60000 -2.042
72.62000 -1.467
72.64000 0.554
72.66000 4.504
72.68000 2.827
72.70000 6.568
72.72000 7.576
72.74000 3.250
72.76000 2.823
72.78000 3.689
72.80000 2.386
72.82000 3.858
72.84000 5.902
72.86000 6.496
72.88000 1.007
72.90000 3.306
72.92000 4.706
72.94000 2.558
72.96000 4.704
72.98000 4.211
73.00000 2.953
73.02000 3.328
73.04000 3.548
73.06000 3.709
73.08000 2.943
73.10000 3.212
73.12000 2.799
73.14000 1.873
73.16000 5.043
73.18000 1.727
73.20000 2.555
73.22000 -1.197
73.24000 -0.902
73.26000 2.234
73.28000 -1.736
73.30000 0.339
73.32000 0.710
73.34000 1.330
73.36000 4.586
73.38000 7.791
73.40000 6.464
73.42000 5.857
73.44000 6.885
73.46000 0.465
73.48000 0.522
73.50000 1.549
73.52000 2.616
73.54000 2.646
73.56000 -0.900
73.58000 1.395
73.60000 2.015
73.62000 2.443
73.64000 3.897
73.66000 5.550
73.68000 4.900
73.70000 1.731
73.72000 -2.259
73.74000 4.616
73.76000 5.349
73.78000 6.787
73.80000 5.716
73.82000 4.870
73.84000 5.040
73.86000 4.043
73.88000 2.592
73.90000 1.508
73.92000 0.083
73.94000 -0.307
73.96000 1.176
73.98000 -2.132
74.00000 2.001
74.02000 -0.532
74.04000 1.744
74.06000 3.209
74.08000 2.689
74.10000 -0.974
74.12000 -1.871
74.14000 -0.408
74.16000 3.142
74.18000 4.696
74.20000 8.224
74.22000 6.077
74.24000 5.146
74.26000 3.410
74.28000 0.510
74.30000 0.923
74.32000 0.849
74.34000 -2.251
74.36000 1.838
74.38000 0.131
74.40000 0.304
74.42000 0.811
74.44000 -1.148
74.46000 1.323
74.48000 5.046
74.50000 1.979
74.52000 3.805
74.54000 4.992
74.56000 2.986
74.58000 7.317
74.60000 4.327
74.62000 5.970
74.64000 7.667
74.66000 4.481
74.68000 1.001
74.70000 0.442
74.72000 -1.920
74.74000 1.325
74.76000 -0.739
74.78000 3.170
74.80000 2.883
74.82000 -0.161
74.84000 5.531
74.86000 3.397
74.88000 5.189
74.90000 4.778
74.92000 5.247
74.94000 3.175
74.96000 0.952
74.98000 -1.524
75.00000 0.974
75.02000 4.858
75.04000 6.940
75.06000 2.193
75.08000 2.787
75.10000 3.374
75.12000 4.874
75.14000 4.067
75.16000 3.617
75.18000 4.124
75.20000 4.995
75.22000 5.154
75.24000 5.037
75.26000 6.970
75.28000 4.783
75.30000 4.783
75.32000 6.337
75.34000 4.273
75.36000 -2.271
75.38000 -1.782
75.40000 2.693
75.42000 3.743
75.44000 -0.078
75.46000 -1.642
75.48000 1.347
75.50000 4.518
75.52000 0.500
75.54000 -2.278
75.56000 -0.309
75.58000 -0.716
75.60000 0.131
75.62000 2.206
75.64000 1.177
75.66000 -0.621
75.68000 0.634
75.70000 3.253
75.72000 2.396
75.74000 3.070
75.76000 2.416
75.78000 6.011
75.80000 5.434
75.82000 2.735
75.84000 -2.287
75.86000 -1.230
75.88000 2.067
75.90000 4.165
75.92000 2.281
75.94000 4.083
75.96000 -0.937
75.98000 1.346
76.00000 3.536
76.02000 0.855
76.04000 -1.935
76.06000 -0.664
76.08000 2.534
76.10000 4.514
76.12000 2.592
76.14000 -2.220
76.16000 -0.722
76.18000 1.779
76.20000 1.800
76.22000 0.672
76.24000 -0.068
76.26000 4.401
76.28000 1.182
76.30000 1.329
76.32000 3.103
76.34000 -1.236
76.36000 -0.540
76.38000 3.139
76.40000 0.796
76.42000 1.216
76.44000 2.100
76.46000 1.978
76.48000 3.442
76.50000 0.389
76.52000 0.496
76.54000 4.180
76.56000 -0.348
76.58000 1.008
76.60000 5.976
76.62000 5.152
76.64000 0.277
76.66000 -0.324
76.68000 2.706
76.70000 2.469
76.72000 2.938
76.74000 2.979
76.76000 0.887
76.78000 0.926
76.80000 4.328
76.82000 4.473
76.84000 5.065
76.86000 4.652
76.88000 5.423
76.90000 1.619
76.92000 1.580
76.94000 0.646
76.96000 1.342
76.98000 1.305
77.00000 -2.300
77.02000 2.423
77.04000 2.720
77.06000 1.525
77.08000 -0.226
77.10000 2.228
77.12000 2.789
77.14000 3.798
77.16000 5.172
77.18000 1.983
77.20000 1.530
77.22000 4.715
77.24000 2.201
77.26000 0.543
77.28000 5.004
77.30000 6.254
77.32000 6.867
77.34000 5.282
77.36000 3.147
77.38000 3.633
77.40000 7.098
77.42000 4.474
77.44000 3.550
77.46000 3.068
77.48000 3.332
77.50000 5.941
77.52000 2.914
77.54000 6.332
77.56000 6.031
77.58000 1.357
77.60000 4.511
77.62000 4.815
77.64000 9.038
77.66000 5.579
77.68000 3.826
77.70000 7.326
77.72000 6.172
77.74000 5.058
77.76000 6.084
77.78000 5.539
77.80000 3.278
77.82000 3.937
77.84000 3.512
77.86000 2.389
77.88000 4.337
77.90000 2.692
77.92000 -2.274
77.94000 0.582
77.96000 2.476
77.98000 2.354
78.00000 2.451
78.02000 6.550
78.04000 2.690
78.06000 2.390
78.08000 3.008
78.10000 4.508
78.12000 7.138
78.14000 4.887
78.16000 2.786
78.18000 2.451
78.20000 4.084
78.22000 7.290
78.24000 3.852
78.26000 3.374
78.28000 1.900
78.30000 1.277
78.32000 2.273
78.34000 4.946
78.36000 2.993
78.38000 3.117
78.40000 3.389
78.42000 5.932
78.44000 6.111
78.46000 4.306
78.48000 6.838
78.50000 12.866
78.52000 9.293
78.54000 2.953
78.56000 1.804
78.58000 -2.325
78.60000 1.770
78.62000 4.067
78.64000 5.782
78.66000 3.893
78.68000 5.312
78.70000 5.307
78.72000 1.501
78.74000 -0.500
78.76000 2.271
78.78000 3.604
78.80000 2.784
78.82000 4.971
78.84000 4.353
78.86000 -0.297
78.88000 3.449
78.90000 1.580
78.92000 -1.042
78.94000 2.987
78.96000 4.612
78.98000 3.475
79.00000 2.007
79.02000 0.274
79.04000 2.343
79.06000 2.296
79.08000 3.646
79.10000 -1.622
79.12000 0.996
79.14000 2.272
79.16000 6.040
79.18000 9.766
79.20000 5.628
79.22000 1.240
79.24000 2.283
79.26000 3.478
79.28000 3.173
79.30000 0.003
79.32000 -0.738
79.34000 -0.513
79.36000 3.192
79.38000 4.258
79.40000 6.577
79.42000 4.200
79.44000 0.553
79.46000 4.231
79.48000 3.382
79.50000 0.002
79.52000 -0.684
79.54000 1.603
79.56000 6.314
79.58000 10.289
79.60000 6.268
79.62000 5.000
79.64000 2.629
79.66000 3.607
79.68000 7.565
79.70000 6.015
79.72000 2.941
79.74000 0.978
79.76000 2.845
79.78000 3.537
79.80000 4.882
79.82000 7.844
79.84000 7.708
79.86000 5.461
79.88000 -2.364
79.90000 4.657
79.92000 7.079
79.94000 4.660
79.96000 8.936
79.98000 5.921
80.00000 3.957
80.02000 4.451
80.04000 4.094
80.06000 6.258
80.08000 6.595
80.10000 7.188
80.12000 6.085
80.14000 2.597
80.16000 3.359
80.18000 5.662
80.20000 2.570
80.22000 1.690
80.24000 9.575
80.26000 6.036
80.28000 3.306
80.30000 3.278
80.32000 3.428
80.34000 1.617
80.36000 2.272
80.38000 5.510
80.40000 6.974
80.42000 1.918
80.44000 -0.287
80.46000 4.112
80.48000 7.987
80.50000 7.950
80.52000 5.458
80.54000 2.956
80.56000 4.501
80.58000 5.906
80.60000 5.682
80.62000 7.720
80.64000 7.726
80.66000 5.467
80.68000 4.509
80.70000 1.861
80.72000 4.315
80.74000 9.155
80.76000 4.779
80.78000 3.988
80.80000 6.261
80.82000 6.480
80.84000 8.051
80.86000 9.337
80.88000 14.352
80.90000 9.555
80.92000 7.144
80.94000 7.750
80.96000 10.564
80.98000 9.515
81.00000 11.239
81.02000 10.664
81.04000 14.903
81.06000 14.867
81.08000 12.008
81.10000 9.398
81.12000 8.579
81.14000 9.048
81.16000 7.907
81.18000 11.089
81.20000 10.259
81.22000 12.210
81.24000 12.575
81.26000 12.070
81.28000 11.397
81.30000 13.714
81.32000 7.782
81.34000 7.799
81.36000 13.533
81.38000 10.746
81.40000 9.694
81.42000 14.563
81.44000 15.782
81.46000 17.871
81.48000 16.947
81.50000 17.916
81.52000 14.708
81.54000 10.940
81.56000 17.527
81.58000 19.166
81.60000 21.333
81.62000 23.979
81.64000 21.580
81.66000 16.314
81.68000 17.351
81.70000 18.435
81.72000 18.843
81.74000 20.116
81.76000 24.136
81.78000 20.114
81.80000 22.586
81.82000 24.199
81.84000 26.691
81.86000 32.308
81.88000 26.409
81.90000 23.355
81.92000 23.374
81.94000 30.751
81.96000 28.644
81.98000 25.071
82.00000 25.940
82.02000 25.060
82.04000 23.041
82.06000 25.317
82.08000 22.961
82.10000 24.411
82.12000 18.771
82.14000 22.485
82.16000 27.947
82.18000 27.033
82.20000 31.012
82.22000 29.746
82.24000 32.402
82.26000 28.339
82.28000 27.380
82.30000 23.543
82.32000 25.236
82.34000 29.258
82.36000 25.065
82.38000 21.928
82.40000 26.098
82.42000 26.208
82.44000 25.544
82.46000 21.645
82.48000 20.622
82.50000 18.503
82.52000 21.889
82.54000 24.861
82.56000 26.618
82.58000 22.641
82.60000 20.599
82.62000 24.900
82.64000 24.500
82.66000 24.940
82.68000 26.934
82.70000 24.849
82.72000 20.518
82.74000 25.562
82.76000 19.365
82.78000 19.925
82.80000 23.479
82.82000 22.032
82.84000 23.171
82.86000 18.322
82.88000 17.702
82.90000 17.900
82.92000 13.375
82.94000 14.061
82.96000 10.331
82.98000 11.061
83.00000 12.902
83.02000 14.111
83.04000 13.174
83.06000 11.770
83.08000 11.088
83.10000 15.728
83.12000 14.330
83.14000 11.130
83.16000 10.471
83.18000 12.996
83.20000 7.958
83.22000 6.291
83.24000 7.586
83.26000 8.440
83.28000 4.218
83.30000 8.286
83.32000 11.999
83.34000 13.327
83.36000 8.765
83.38000 2.400
83.40000 6.964
83.42000 5.244
83.44000 5.481
83.46000 0.317
83.48000 3.227
83.50000 6.555
83.52000 6.119
83.54000 5.753
83.56000 5.524
83.58000 6.738
83.60000 4.886
83.62000 5.278
83.64000 1.390
83.66000 3.065
83.68000 1.408
83.70000 0.619
83.72000 2.568
83.74000 0.558
83.76000 -0.132
83.78000 1.581
83.80000 5.369
83.82000 5.581
83.84000 6.436
83.86000 3.903
83.88000 6.332
83.90000 8.808
83.92000 6.453
83.94000 2.191
83.96000 3.220
83.98000 0.599
84.00000 -0.316
84.02000 0.184
84.04000 2.131
84.06000 2.801
84.08000 1.310
84.10000 1.661
84.12000 2.248
84.14000 6.239
84.16000 3.098
84.18000 -0.985
84.20000 3.999
84.22000 4.382
84.24000 0.624
84.26000 0.801
84.28000 2.510
84.30000 1.145
84.32000 6.412
84.34000 5.795
84.36000 6.200
84.38000 5.633
84.40000 0.319
84.42000 -2.408
84.44000 1.814
84.46000 2.579
84.48000 2.698
84.50000 4.536
84.52000 5.770
84.54000 7.837
84.56000 4.246
84.58000 3.296
84.60000 3.403
84.62000 2.666
84.64000 2.391
84.66000 0.180
84.68000 3.172
84.70000 3.167
84.72000 2.520
84.74000 3.648
84.76000 -0.097
84.78000 1.543
84.80000 4.435
84.82000 4.144
84.84000 1.172
84.86000 -2.402
84.88000 1.022
84.90000 9.729
84.92000 7.515
84.94000 -0.483
84.96000 1.786
84.98000 3.917
85.00000 -0.131
85.02000 0.465
85.04000 -2.399
85.06000 0.774
85.08000 4.016
85.10000 3.441
85.12000 -0.053
85.14000 1.893
85.16000 2.662
85.18000 1.213
85.20000 1.166
85.22000 -1.002
85.24000 -1.653
85.26000 3.838
85.28000 6.604
85.30000 8.759
85.32000 9.011
85.34000 4.447
85.36000 5.108
85.38000 8.981
85.40000 7.072
85.42000 1.515
85.44000 1.976
85.46000 5.623
85.48000 7.137
85.50000 5.604
85.52000 9.236
85.54000 4.885
85.56000 3.300
85.58000 5.093
85.60000 8.712
85.62000 8.720
85.64000 8.692
85.66000 11.177
85.68000 8.694
85.70000 11.568
85.72000 8.139
85.74000 7.686
85.76000 6.280
85.78000 9.972
85.80000 8.161
85.82000 9.756
85.84000 10.856
85.86000 8.208
85.88000 11.353
85.90000 14.969
85.92000 13.059
85.94000 8.434
85.96000 11.484
85.98000 13.029
86.00000 11.788
86.02000 15.553
86.04000 13.139
86.06000 12.893
86.08000 18.163
86.10000 17.141
86.12000 16.634
86.14000 22.839
86.16000 16.604
86.18000 15.407
86.20000 21.322
86.22000 20.747
86.24000 19.598
86.26000 18.962
86.28000 23.703
86.30000 24.748
86.32000 21.486
86.34000 21.153
86.36000 17.587
86.38000 17.494
86.40000 18.878
86.42000 22.452
86.44000 18.993
86.46000 21.509
86.48000 22.400
86.50000 23.181
86.52000 21.047
86.54000 25.792
86.56000 22.708
86.58000 20.348
86.60000 15.351
86.62000 16.190
86.64000 17.751
86.66000 22.385
86.68000 21.445
86.70000 23.498
86.72000 22.283
86.74000 17.959
86.76000 17.961
86.78000 12.274
86.80000 15.773
86.82000 17.446
86.84000 22.563
86.86000 22.622
86.88000 22.353
86.90000 15.642
86.92000 9.431
86.94000 10.999
86.96000 10.095
86.98000 12.889
87.00000 15.979
87.02000 20.218
87.04000 12.646
87.06000 13.212
87.08000 12.286
87.10000 10.418
87.12000 12.289
87.14000 12.695
87.16000 10.920
87.18000 7.651
87.20000 12.631
87.22000 8.018
87.24000 14.112
87.26000 16.879
87.28000 13.981
87.30000 4.900
87.32000 3.245
87.34000 3.391
87.36000 6.628
87.38000 4.278
87.40000 4.105
87.42000 8.184
87.44000 6.420
87.46000 7.086
87.48000 7.959
87.50000 5.094
87.52000 3.869
87.54000 6.292
87.56000 8.981
87.58000 4.369
87.60000 4.195
87.62000 4.505
87.64000 2.742
87.66000 6.082
87.68000 3.419
87.70000 3.607
87.72000 2.194
87.74000 7.606
87.76000 3.031
87.78000 -0.523
87.80000 0.678
87.82000 1.644
87.84000 4.573
87.86000 1.976
87.88000 -0.658
87.90000 5.299
87.92000 4.961
87.94000 2.883
87.96000 1.273
87.98000 0.797
88.00000 1.789
88.02000 3.781
88.04000 4.470
88.06000 4.205
88.08000 3.509
88.10000 0.767
88.12000 3.595
88.14000 1.646
88.16000 -2.241
88.18000 -0.558
88.20000 2.700
88.22000 3.699
88.24000 0.036
88.26000 0.861
88.28000 2.977
88.30000 3.856
88.32000 -0.292
88.34000 -1.117
88.36000 -0.075
88.38000 1.049
88.40000 1.707
88.42000 3.328
88.44000 0.720
88.46000 1.759
88.48000 3.146
88.50000 2.826
88.52000 -1.044
88.54000 -1.058
88.56000 -0.093
88.58000 4.362
88.60000 0.472
88.62000 0.417
88.64000 1.614
88.66000 -0.362
88.68000 0.282
88.70000 -1.000
88.72000 0.054
88.74000 1.003
88.76000 4.280
88.78000 1.738
88.80000 -0.888
88.82000 0.777
88.84000 -0.610
88.86000 -1.566
88.88000 -0.949
88.90000 0.369
88.92000 0.543
88.94000 0.871
88.96000 0.424
88.98000 -2.084
89.00000 2.581
89.02000 5.523
89.04000 2.019
89.06000 2.082
89.08000 3.794
89.10000 2.811
89.12000 1.775
89.14000 -1.137
89.16000 0.090
89.18000 2.347
89.20000 0.313
89.22000 -0.014
89.24000 -2.201
89.26000 -2.044
89.28000 2.485
89.30000 4.717
89.32000 6.927
89.34000 2.551
89.36000 3.095
89.38000 -0.723
89.40000 -0.429
89.42000 5.410
89.44000 5.275
89.46000 4.954
89.48000 4.851
89.50000 3.756
89.52000 3.470
89.54000 3.728
89.56000 0.464
89.58000 -0.422
89.60000 -0.661
89.62000 3.818
89.64000 -1.397
89.66000 1.284
89.68000 4.586
89.70000 0.581
89.72000 1.092
89.74000 2.037
89.76000 1.873
89.78000 4.400
89.80000 3.428
89.82000 6.629
89.84000 3.938
89.86000 -2.136
89.88000 4.135
89.90000 2.261
89.92000 0.117
89.94000 5.680
89.96000 6.288
89.98000 4.874
90.00000 4.537
90.02000 3.518
90.04000 1.685
90.06000 0.567
90.08000 3.815
90.10000 6.267
90.12000 8.673
90.14000 5.501
90.16000 -2.111
90.18000 1.168
90.20000 3.664
90.22000 6.708
90.24000 3.076
90.26000 4.090
90.28000 2.633
90.30000 6.637
90.32000 7.334
90.34000 4.613
90.36000 5.822
90.38000 5.582
90.40000 4.510
90.42000 -1.260
90.44000 0.120
90.46000 1.473
90.48000 3.082
90.50000 7.076
90.52000 8.345
90.54000 5.568
90.56000 5.717
90.58000 3.582
90.60000 4.298
90.62000 5.631
90.64000 0.293
90.66000 -1.537
90.68000 2.350
90.70000 7.083
90.72000 2.178
90.74000 0.982
90.76000 4.026
90.78000 3.029
90.80000 -0.046
90.82000 -1.431
90.84000 -0.940
90.86000 1.835
90.88000 4.331
90.90000 4.132
90.92000 2.831
90.94000 4.787
90.96000 6.039
90.98000 5.374
91.00000 1.896
91.02000 -1.946
91.04000 0.595
91.06000 -0.107
91.08000 0.438
91.10000 3.698
91.12000 1.769
91.14000 0.869
91.16000 -1.381
91.18000 -0.181
91.20000 2.130
91.22000 0.601
91.24000 1.013
91.26000 -0.210
91.28000 -0.889
91.30000 0.492
91.32000 2.914
91.34000 3.168
91.36000 4.690
91.38000 0.635
91.40000 0.091
91.42000 2.929
91.44000 -0.939
91.46000 -2.091
91.48000 5.031
91.50000 2.404
91.52000 -0.857
91.54000 1.004
91.56000 -1.439
91.58000 1.028
91.60000 5.390
91.62000 0.837
91.64000 0.582
91.66000 2.191
91.68000 2.619
91.70000 1.264
91.72000 2.403
91.74000 1.275
91.76000 -1.521
91.78000 2.081
91.80000 1.334
91.82000 2.643
91.84000 3.225
91.86000 1.571
91.88000 1.387
91.90000 -0.923
91.92000 1.889
91.94000 5.467
91.96000 3.793
91.98000 2.231
92.00000 2.794
92.02000 3.475
92.04000 2.717
92.06000 -1.639
92.08000 -1.634
92.10000 0.443
92.12000 0.358
92.14000 -2.155
92.16000 1.937
92.18000 2.179
92.20000 2.114
92.22000 2.143
92.24000 -0.147
92.26000 3.762
92.28000 4.105
92.30000 4.259
92.32000 5.664
92.34000 3.602
92.36000 0.352
92.38000 0.982
92.40000 3.675
92.42000 6.325
92.44000 6.440
92.46000 3.163
92.48000 -0.864
92.50000 -2.157
92.52000 0.767
92.54000 4.325
92.56000 2.883
92.58000 3.661
92.60000 1.513
92.62000 1.181
92.64000 3.956
92.66000 3.979
92.68000 6.501
92.70000 3.080
92.72000 -0.143
92.74000 0.214
92.76000 3.260
92.78000 6.271
92.80000 4.331
92.82000 7.434
92.84000 4.303
92.86000 4.185
92.88000 2.442
92.90000 2.909
92.92000 -0.378
92.94000 0.050
92.96000 3.924
92.98000 2.467
93.00000 4.785
93.02000 4.323
93.04000 0.387
93.06000 3.897
93.08000 5.369
93.10000 4.143
93.12000 2.846
93.14000 -2.170
93.16000 -0.439
93.18000 4.213
93.20000 0.276
93.22000 2.741
93.24000 2.688
93.26000 1.991
93.28000 1.292
93.30000 2.640
93.32000 2.053
93.34000 4.077
93.36000 1.862
93.38000 2.196
93.40000 7.741
93.42000 4.915
93.44000 0.200
93.46000 1.951
93.48000 3.557
93.50000 1.128
93.52000 2.757
93.54000 5.026
93.56000 2.362
93.58000 0.657
93.60000 2.077
93.62000 2.647
93.64000 3.732
93.66000 4.103
93.68000 1.824
93.70000 1.466
93.72000 1.700
93.74000 4.867
93.76000 3.757
93.78000 3.821
93.80000 0.614
93.82000 2.590
93.84000 2.651
93.86000 2.652
93.88000 2.998
93.90000 0.275
93.92000 1.311
93.94000 6.042
93.96000 1.222
93.98000 8.057
94.00000 5.351
94.02000 3.130
94.04000 7.541
94.06000 6.156
94.08000 5.745
94.10000 1.986
94.12000 3.491
94.14000 7.284
94.16000 3.595
94.18000 1.420
94.20000 3.598
94.22000 3.518
94.24000 6.462
94.26000 8.163
94.28000 4.509
94.30000 3.424
94.32000 1.203
94.34000 -2.129
94.36000 0.817
94.38000 -0.357
94.40000 3.002
94.42000 3.908
94.44000 6.874
94.46000 6.148
94.48000 3.308
94.50000 1.198
94.52000 3.390
94.54000 3.599
94.56000 3.047
94.58000 2.612
94.60000 2.391
94.62000 5.268
94.64000 5.102
94.66000 0.536
94.68000 5.739
94.70000 5.820
94.72000 6.792
94.74000 6.055
94.76000 6.138
94.78000 2.114
94.80000 1.917
94.82000 1.754
94.84000 3.572
94.86000 5.979
94.88000 6.711
94.90000 8.061
94.92000 6.973
94.94000 -1.713
94.96000 1.942
94.98000 3.026
95.00000 3.391
95.02000 9.497
95.04000 7.011
95.06000 4.199
95.08000 5.226
95.10000 3.654
95.12000 -0.990
95.14000 2.559
95.16000 4.728
95.18000 4.937
95.20000 2.911
95.22000 2.266
95.24000 -0.416
95.26000 -2.150
95.28000 2.036
95.30000 5.168
95.32000 3.485
95.34000 2.371
95.36000 6.963
95.38000 7.956
95.40000 7.392
95.42000 4.455
95.44000 1.437
95.46000 2.043
95.48000 5.222
95.50000 2.105
95.52000 0.783
95.54000 4.369
95.56000 8.120
95.58000 1.441
95.60000 -1.521
95.62000 -2.161
95.64000 4.202
95.66000 3.667
95.68000 6.672
95.70000 4.968
95.72000 5.883
95.74000 6.593
95.76000 9.590
95.78000 6.185
95.80000 -0.683
95.82000 0.909
95.84000 3.528
95.86000 2.996
95.88000 2.755
95.90000 5.214
95.92000 -0.270
95.94000 3.397
95.96000 5.305
95.98000 2.292
96.00000 2.878
96.02000 4.304
96.04000 4.977
96.06000 1.640
96.08000 -1.198
96.10000 2.729
96.12000 3.675
96.14000 0.212
96.16000 6.431
96.18000 4.300
96.20000 3.494
96.22000 -2.172
96.24000 -1.238
96.26000 4.083
96.28000 4.308
96.30000 3.358
96.32000 0.408
96.34000 1.716
96.36000 1.796
96.38000 1.762
96.40000 -1.579
96.42000 4.117
96.44000 4.808
96.46000 6.536
96.48000 8.393
96.50000 5.735
96.52000 3.577
96.54000 2.750
96.56000 3.177
96.58000 -0.909
96.60000 -2.182
96.62000 1.257
96.64000 2.395
96.66000 3.973
96.68000 3.091
96.70000 3.464
96.72000 2.427
96.74000 -1.007
96.76000 7.002
96.78000 6.738
96.80000 6.094
96.82000 4.146
96.84000 1.238
96.86000 1.441
96.88000 4.782
96.90000 4.865
96.92000 -0.635
96.94000 -0.891
96.96000 7.289
96.98000 3.947
97.00000 1.985
97.02000 -2.183
97.04000 -0.101
97.06000 4.070
97.08000 2.507
97.10000 1.215
97.12000 3.273
97.14000 3.701
97.16000 1.789
97.18000 3.522
97.20000 -0.917
97.22000 6.603
97.24000 8.130
97.26000 4.052
97.28000 4.388
97.30000 4.261
97.32000 0.826
97.34000 2.692
97.36000 2.038
97.38000 3.023
97.40000 2.705
97.42000 3.942
97.44000 1.859
97.46000 0.830
97.48000 1.214
97.50000 1.232
97.52000 4.329
97.54000 7.750
97.56000 9.481
97.58000 5.882
97.60000 4.829
97.62000 4.144
97.64000 1.057
97.66000 -1.760
97.68000 1.691
97.70000 5.959
97.72000 7.936
97.74000 1.359
97.76000 3.117
97.78000 4.222
97.80000 7.136
97.82000 3.475
97.84000 6.703
97.86000 3.529
97.88000 -0.688
97.90000 1.598
97.92000 7.051
97.94000 5.166
97.96000 6.424
97.98000 5.047
98.00000 6.941
98.02000 5.229
98.04000 0.951
98.06000 1.767
98.08000 4.137
98.10000 3.682
98.12000 -0.669
98.14000 4.658
98.16000 3.083
98.18000 1.664
98.20000 0.978
98.22000 6.505
98.24000 6.051
98.26000 7.599
98.28000 5.665
98.30000 -0.376
98.32000 4.569
98.34000 4.199
98.36000 4.936
98.38000 4.599
98.40000 -0.725
98.42000 4.970
98.44000 7.991
98.46000 2.337
98.48000 -1.106
98.50000 1.821
98.52000 9.138
98.54000 5.018
98.56000 3.637
98.58000 8.766
98.60000 9.492
98.62000 0.878
98.64000 7.956
98.66000 9.943
98.68000 7.947
98.70000 10.394
98.72000 7.443
98.74000 6.088
98.76000 4.579
98.78000 10.500
98.80000 3.469
98.82000 -2.052
98.84000 -1.448
98.86000 9.589
98.88000 10.833
98.90000 5.767
98.92000 8.636
98.94000 16.192
98.96000 16.731
98.98000 9.150
99.00000 8.871
99.02000 2.794
99.04000 4.929
99.06000 9.800
99.08000 9.867
99.10000 10.289
99.12000 12.693
99.14000 5.668
99.16000 1.672
99.18000 6.487
99.20000 -0.057
99.22000 6.463
99.24000 7.455
99.26000 9.004
99.28000 6.962
99.30000 5.482
99.32000 -2.116
99.34000 -0.175
99.36000 7.305
99.38000 7.455
99.40000 3.239
99.42000 -0.264
99.44000 -1.777
99.46000 8.618
99.48000 8.256
99.50000 9.526
99.52000 4.656
99.54000 3.808
99.56000 4.579
99.58000 7.415
99.60000 4.862
99.62000 11.506
99.64000 6.957
99.66000 1.295
99.68000 1.897
99.70000 1.713
99.72000 -1.712
99.74000 5.478
99.76000 6.172
99.78000 8.119
99.80000 12.207
99.82000 6.153
99.84000 4.974
99.86000 -3.454
99.88000 8.014
99.90000 3.338
99.92000 -2.229
99.94000 -2.283
99.96000 4.171
99.98000 0.000
