'Id: "0011389" Comment: "Integrate frame 0011389_Au-Ir-Rh_Au-Rich_XRD_Mapping-100-0000.gfrmwith cursor Wedge Cursor #5" Operator: "B?rgel" Anode: "Cu" Wavelength: "1.5406" Scantype: "2Theta (TwoTheta)" TimePerStep: "1" X: "-18" Y: "-13.5" Z: "5.95" 
10.00000 0.000
10.02000 10.385
10.04000 7.823
10.06000 -4.352
10.08000 -3.294
10.10000 7.223
10.12000 19.611
10.14000 28.836
10.16000 15.557
10.18000 24.997
10.20000 17.092
10.22000 6.505
10.24000 -1.263
10.26000 -4.346
10.28000 6.418
10.30000 2.857
10.32000 -3.257
10.34000 -1.119
10.36000 10.914
10.38000 10.460
10.40000 18.120
10.42000 28.673
10.44000 35.735
10.46000 21.999
10.48000 15.668
10.50000 2.477
10.52000 11.504
10.54000 2.465
10.56000 5.691
10.58000 14.688
10.60000 33.824
10.62000 22.286
10.64000 13.935
10.66000 10.599
10.68000 9.607
10.70000 21.347
10.72000 16.891
10.74000 3.001
10.76000 2.702
10.78000 18.551
10.80000 15.935
10.82000 6.919
10.84000 3.675
10.86000 12.853
10.88000 20.581
10.90000 28.483
10.92000 17.223
10.94000 17.092
10.96000 24.550
10.98000 30.780
11.00000 27.492
11.02000 19.021
11.04000 3.707
11.06000 -4.347
11.08000 8.797
11.10000 12.678
11.12000 12.510
11.14000 11.799
11.16000 20.622
11.18000 21.171
11.20000 17.105
11.22000 10.074
11.24000 15.382
11.26000 16.610
11.28000 10.656
11.30000 12.929
11.32000 18.079
11.34000 19.628
11.36000 -1.031
11.38000 7.851
11.40000 13.936
11.42000 11.696
11.44000 16.910
11.46000 17.069
11.48000 8.902
11.50000 2.005
11.52000 7.117
11.54000 12.141
11.56000 7.907
11.58000 15.825
11.60000 11.899
11.62000 16.365
11.64000 14.554
11.66000 6.683
11.68000 14.499
11.70000 22.024
11.72000 13.421
11.74000 10.491
11.76000 6.305
11.78000 9.814
11.80000 10.419
11.82000 11.803
11.84000 10.383
11.86000 7.847
11.88000 3.049
11.90000 13.054
11.92000 11.985
11.94000 16.942
11.96000 15.113
11.98000 10.356
12.00000 18.373
12.02000 18.048
12.04000 5.597
12.06000 11.900
12.08000 15.188
12.10000 24.423
12.12000 23.014
12.14000 27.845
12.16000 31.501
12.18000 26.402
12.20000 15.454
12.22000 2.480
12.24000 19.108
12.26000 19.394
12.28000 21.419
12.30000 21.850
12.32000 17.356
12.34000 24.711
12.36000 27.321
12.38000 14.833
12.40000 15.132
12.42000 16.599
12.44000 24.711
12.46000 15.876
12.48000 13.522
12.50000 12.899
12.52000 7.387
12.54000 12.204
12.56000 12.743
12.58000 7.583
12.60000 16.916
12.62000 12.603
12.64000 17.509
12.66000 27.329
12.68000 28.430
12.70000 27.630
12.72000 28.341
12.74000 27.963
12.76000 17.613
12.78000 20.744
12.80000 15.420
12.82000 13.062
12.84000 10.305
12.86000 18.802
12.88000 15.956
12.90000 14.808
12.92000 13.737
12.94000 24.526
12.96000 19.568
12.98000 10.508
13.00000 10.624
13.02000 13.341
13.04000 17.274
13.06000 20.089
13.08000 19.947
13.10000 13.365
13.12000 10.238
13.14000 19.698
13.16000 22.097
13.18000 10.115
13.20000 17.346
13.22000 28.971
13.24000 30.966
13.26000 28.957
13.28000 26.740
13.30000 24.107
13.32000 11.533
13.34000 10.048
13.36000 13.833
13.38000 8.681
13.40000 12.637
13.42000 27.362
13.44000 20.823
13.46000 17.675
13.48000 13.464
13.50000 0.733
13.52000 -4.395
13.54000 15.431
13.56000 16.305
13.58000 18.991
13.60000 24.918
13.62000 18.912
13.64000 13.044
13.66000 17.674
13.68000 18.347
13.70000 6.595
13.72000 2.665
13.74000 13.828
13.76000 30.877
13.78000 19.924
13.80000 7.905
13.82000 8.597
13.84000 2.070
13.86000 7.665
13.88000 20.238
13.90000 18.391
13.92000 8.361
13.94000 -0.988
13.96000 9.946
13.98000 14.644
14.00000 14.993
14.02000 16.304
14.04000 8.709
14.06000 3.712
14.08000 -3.444
14.10000 -4.418
14.12000 4.100
14.14000 15.456
14.16000 15.160
14.18000 12.058
14.20000 21.683
14.22000 13.020
14.24000 14.213
14.26000 7.990
14.28000 12.777
14.30000 17.858
14.32000 14.289
14.34000 16.184
14.36000 18.708
14.38000 20.113
14.40000 9.779
14.42000 5.976
14.44000 7.917
14.46000 17.458
14.48000 16.507
14.50000 11.912
14.52000 16.265
14.54000 26.184
14.56000 18.726
14.58000 11.135
14.60000 10.304
14.62000 5.028
14.64000 6.881
14.66000 10.801
14.68000 15.622
14.70000 18.169
14.72000 18.938
14.74000 22.244
14.76000 12.725
14.78000 3.187
14.80000 4.970
14.82000 7.034
14.84000 5.592
14.86000 5.121
14.88000 7.753
14.90000 5.538
14.92000 8.875
14.94000 9.561
14.96000 19.576
14.98000 21.762
15.00000 18.054
15.02000 15.195
15.04000 11.658
15.06000 6.608
15.08000 -0.381
15.10000 -2.085
15.12000 -4.427
15.14000 0.996
15.16000 12.425
15.18000 12.935
15.20000 8.511
15.22000 -0.136
15.24000 12.259
15.26000 14.816
15.28000 15.544
15.30000 23.265
15.32000 9.312
15.34000 8.124
15.36000 9.383
15.38000 5.992
15.40000 5.669
15.42000 12.882
15.44000 12.530
15.46000 14.092
15.48000 17.739
15.50000 22.531
15.52000 19.907
15.54000 10.080
15.56000 16.759
15.58000 5.727
15.60000 1.223
15.62000 2.611
15.64000 7.335
15.66000 2.455
15.68000 -1.655
15.70000 0.132
15.72000 7.828
15.74000 8.531
15.76000 18.003
15.78000 14.799
15.80000 4.452
15.82000 6.986
15.84000 6.329
15.86000 6.990
15.88000 11.018
15.90000 7.628
15.92000 5.775
15.94000 4.418
15.96000 -3.429
15.98000 4.028
16.00000 9.423
16.02000 6.954
16.04000 -4.160
16.06000 0.492
16.08000 7.399
16.10000 10.518
16.12000 3.460
16.14000 4.072
16.16000 8.145
16.18000 9.120
16.20000 6.548
16.22000 6.624
16.24000 9.485
16.26000 13.938
16.28000 9.314
16.30000 10.819
16.32000 5.367
16.34000 1.216
16.36000 1.742
16.38000 -4.400
16.40000 1.215
16.42000 6.350
16.44000 11.537
16.46000 12.259
16.48000 7.224
16.50000 6.832
16.52000 10.419
16.54000 5.708
16.56000 -2.060
16.58000 1.630
16.60000 4.085
16.62000 8.048
16.64000 9.163
16.66000 4.495
16.68000 5.207
16.70000 12.024
16.72000 15.372
16.74000 10.981
16.76000 11.136
16.78000 8.416
16.80000 1.823
16.82000 3.428
16.84000 8.143
16.86000 7.181
16.88000 2.421
16.90000 2.074
16.92000 3.946
16.94000 2.016
16.96000 1.545
16.98000 10.376
17.00000 9.259
17.02000 7.321
17.04000 4.797
17.06000 2.583
17.08000 2.382
17.10000 -0.161
17.12000 -0.380
17.14000 0.170
17.16000 -3.611
17.18000 6.208
17.20000 -2.594
17.22000 -1.032
17.24000 4.769
17.26000 4.021
17.28000 2.166
17.30000 1.139
17.32000 4.558
17.34000 5.956
17.36000 5.954
17.38000 15.351
17.40000 8.292
17.42000 8.950
17.44000 4.784
17.46000 0.713
17.48000 1.808
17.50000 -0.122
17.52000 4.829
17.54000 10.204
17.56000 9.546
17.58000 4.867
17.60000 -0.777
17.62000 3.127
17.64000 5.220
17.66000 4.806
17.68000 -0.136
17.70000 0.575
17.72000 3.420
17.74000 16.397
17.76000 15.670
17.78000 7.864
17.80000 8.018
17.82000 10.469
17.84000 5.442
17.86000 -1.299
17.88000 1.160
17.90000 -4.329
17.92000 -0.797
17.94000 5.523
17.96000 5.879
17.98000 8.699
18.00000 6.090
18.02000 5.219
18.04000 6.385
18.06000 0.372
18.08000 7.603
18.10000 9.794
18.12000 7.836
18.14000 4.373
18.16000 0.203
18.18000 -4.314
18.20000 -1.628
18.22000 2.861
18.24000 4.483
18.26000 4.357
18.28000 5.442
18.30000 7.777
18.32000 12.024
18.34000 5.500
18.36000 2.058
18.38000 8.981
18.40000 2.346
18.42000 -1.982
18.44000 1.876
18.46000 7.590
18.48000 5.336
18.50000 4.526
18.52000 6.605
18.54000 1.461
18.56000 1.783
18.58000 8.541
18.60000 8.812
18.62000 2.325
18.64000 0.010
18.66000 17.415
18.68000 21.216
18.70000 4.881
18.72000 -0.999
18.74000 2.321
18.76000 4.785
18.78000 3.329
18.80000 3.859
18.82000 5.457
18.84000 3.237
18.86000 3.713
18.88000 -1.568
18.90000 0.721
18.92000 4.595
18.94000 3.778
18.96000 8.980
18.98000 5.504
19.00000 3.598
19.02000 8.238
19.04000 8.671
19.06000 11.306
19.08000 8.513
19.10000 7.707
19.12000 3.639
19.14000 -1.067
19.16000 5.769
19.18000 11.711
19.20000 7.705
19.22000 3.936
19.24000 2.228
19.26000 9.551
19.28000 10.207
19.30000 1.451
19.32000 1.722
19.34000 4.465
19.36000 7.649
19.38000 8.327
19.40000 0.619
19.42000 1.804
19.44000 1.848
19.46000 4.058
19.48000 4.991
19.50000 8.959
19.52000 1.963
19.54000 1.507
19.56000 5.977
19.58000 6.760
19.60000 3.812
19.62000 3.633
19.64000 3.482
19.66000 -4.205
19.68000 -2.377
19.70000 3.816
19.72000 10.394
19.74000 10.594
19.76000 4.975
19.78000 5.310
19.80000 6.578
19.82000 6.648
19.84000 11.421
19.86000 7.936
19.88000 5.843
19.90000 4.023
19.92000 -0.618
19.94000 1.153
19.96000 9.683
19.98000 6.349
20.00000 5.777
20.02000 4.247
20.04000 0.665
20.06000 -1.375
20.08000 2.645
20.10000 4.963
20.12000 0.238
20.14000 -2.940
20.16000 -3.822
20.18000 1.250
20.20000 2.733
20.22000 6.860
20.24000 6.741
20.26000 5.732
20.28000 8.495
20.30000 9.680
20.32000 4.821
20.34000 8.389
20.36000 11.089
20.38000 5.640
20.40000 2.312
20.42000 0.511
20.44000 6.713
20.46000 2.289
20.48000 1.031
20.50000 5.291
20.52000 1.782
20.54000 1.478
20.56000 3.280
20.58000 5.242
20.60000 5.905
20.62000 4.195
20.64000 6.460
20.66000 2.846
20.68000 6.080
20.70000 5.086
20.72000 7.510
20.74000 11.718
20.76000 10.700
20.78000 7.994
20.80000 -0.865
20.82000 3.256
20.84000 4.445
20.86000 8.056
20.88000 4.322
20.90000 9.216
20.92000 5.193
20.94000 1.590
20.96000 6.952
20.98000 5.454
21.00000 2.716
21.02000 3.954
21.04000 6.846
21.06000 5.839
21.08000 5.553
21.10000 5.443
21.12000 8.780
21.14000 10.015
21.16000 2.691
21.18000 4.265
21.20000 5.833
21.22000 5.232
21.24000 12.916
21.26000 13.468
21.28000 13.709
21.30000 8.263
21.32000 9.800
21.34000 8.852
21.36000 11.300
21.38000 9.612
21.40000 2.204
21.42000 -0.620
21.44000 3.696
21.46000 6.270
21.48000 8.197
21.50000 8.620
21.52000 4.156
21.54000 0.608
21.56000 -1.086
21.58000 -2.402
21.60000 9.096
21.62000 6.134
21.64000 5.936
21.66000 9.063
21.68000 7.757
21.70000 0.941
21.72000 6.811
21.74000 4.167
21.76000 -1.967
21.78000 -2.290
21.80000 6.442
21.82000 9.216
21.84000 0.368
21.86000 1.904
21.88000 6.032
21.90000 7.376
21.92000 8.147
21.94000 12.881
21.96000 8.321
21.98000 8.473
22.00000 12.721
22.02000 10.162
22.04000 2.625
22.06000 0.970
22.08000 8.344
22.10000 8.950
22.12000 5.946
22.14000 0.548
22.16000 0.370
22.18000 1.255
22.20000 -4.053
22.22000 5.285
22.24000 8.671
22.26000 5.606
22.28000 6.110
22.30000 9.448
22.32000 13.141
22.34000 11.651
22.36000 7.478
22.38000 7.993
22.40000 6.657
22.42000 1.855
22.44000 4.207
22.46000 6.816
22.48000 12.514
22.50000 4.066
22.52000 -2.248
22.54000 0.954
22.56000 6.055
22.58000 6.400
22.60000 8.219
22.62000 11.496
22.64000 5.581
22.66000 4.339
22.68000 7.737
22.70000 10.627
22.72000 7.658
22.74000 7.303
22.76000 8.011
22.78000 9.940
22.80000 11.155
22.82000 13.545
22.84000 11.807
22.86000 9.324
22.88000 13.296
22.90000 14.911
22.92000 7.738
22.94000 9.347
22.96000 7.696
22.98000 3.629
23.00000 6.448
23.02000 7.359
23.04000 7.330
23.06000 2.083
23.08000 -3.982
23.10000 4.432
23.12000 9.355
23.14000 14.590
23.16000 13.762
23.18000 13.394
23.20000 11.353
23.22000 4.935
23.24000 5.028
23.26000 9.633
23.28000 10.593
23.30000 9.591
23.32000 6.898
23.34000 2.987
23.36000 0.982
23.38000 -0.180
23.40000 -1.755
23.42000 4.154
23.44000 4.517
23.46000 3.419
23.48000 7.655
23.50000 5.522
23.52000 8.531
23.54000 9.974
23.56000 11.310
23.58000 14.440
23.60000 6.788
23.62000 2.855
23.64000 0.406
23.66000 6.562
23.68000 12.368
23.70000 10.579
23.72000 7.421
23.74000 5.676
23.76000 6.864
23.78000 9.437
23.80000 6.423
23.82000 1.062
23.84000 -0.693
23.86000 1.651
23.88000 6.576
23.90000 6.547
23.92000 5.337
23.94000 5.844
23.96000 4.372
23.98000 0.538
24.00000 3.491
24.02000 0.521
24.04000 4.817
24.06000 4.764
24.08000 -2.683
24.10000 -0.658
24.12000 5.347
24.14000 5.817
24.16000 4.560
24.18000 8.829
24.20000 10.787
24.22000 5.390
24.24000 3.355
24.26000 6.427
24.28000 5.672
24.30000 0.650
24.32000 -0.756
24.34000 2.624
24.36000 5.626
24.38000 3.730
24.40000 1.146
24.42000 -3.261
24.44000 -2.254
24.46000 6.010
24.48000 2.661
24.50000 -3.129
24.52000 -1.814
24.54000 -1.655
24.56000 -2.399
24.58000 -3.051
24.60000 1.026
24.62000 2.481
24.64000 0.976
24.66000 0.503
24.68000 3.615
24.70000 11.797
24.72000 4.742
24.74000 1.525
24.76000 5.026
24.78000 4.591
24.80000 0.130
24.82000 2.885
24.84000 4.986
24.86000 6.573
24.88000 6.263
24.90000 7.480
24.92000 -0.503
24.94000 0.317
24.96000 4.429
24.98000 6.024
25.00000 -1.081
25.02000 -1.284
25.04000 0.887
25.06000 8.490
25.08000 10.717
25.10000 2.706
25.12000 1.936
25.14000 4.152
25.16000 5.483
25.18000 5.725
25.20000 -1.345
25.22000 1.168
25.24000 -3.918
25.26000 -0.753
25.28000 0.504
25.30000 2.409
25.32000 1.625
25.34000 2.583
25.36000 4.485
25.38000 6.229
25.40000 5.137
25.42000 -2.105
25.44000 6.773
25.46000 6.777
25.48000 4.396
25.50000 8.346
25.52000 8.022
25.54000 8.329
25.56000 2.192
25.58000 0.745
25.60000 6.828
25.62000 3.684
25.64000 3.208
25.66000 4.214
25.68000 4.223
25.70000 7.159
25.72000 6.783
25.74000 1.421
25.76000 -3.369
25.78000 3.708
25.80000 1.543
25.82000 -1.224
25.84000 1.504
25.86000 -0.620
25.88000 -3.232
25.90000 3.415
25.92000 2.892
25.94000 2.274
25.96000 4.952
25.98000 -0.810
26.00000 -1.426
26.02000 -0.195
26.04000 -0.724
26.06000 -1.718
26.08000 -0.841
26.10000 3.397
26.12000 4.952
26.14000 0.621
26.16000 -0.638
26.18000 3.436
26.20000 10.416
26.22000 7.617
26.24000 5.071
26.26000 1.057
26.28000 6.265
26.30000 3.085
26.32000 -0.327
26.34000 7.366
26.36000 6.779
26.38000 4.465
26.40000 5.139
26.42000 1.993
26.44000 1.471
26.46000 2.822
26.48000 0.532
26.50000 -2.523
26.52000 2.390
26.54000 10.028
26.56000 8.106
26.58000 4.010
26.60000 1.515
26.62000 1.204
26.64000 3.432
26.66000 -3.854
26.68000 -2.863
26.70000 4.669
26.72000 3.947
26.74000 -1.993
26.76000 -0.464
26.78000 1.371
26.80000 -3.314
26.82000 -2.270
26.84000 3.290
26.86000 -0.766
26.88000 -1.622
26.90000 3.619
26.92000 1.554
26.94000 0.530
26.96000 3.918
26.98000 1.123
27.00000 0.227
27.02000 8.173
27.04000 2.896
27.06000 -0.208
27.08000 3.057
27.10000 -1.743
27.12000 3.924
27.14000 4.505
27.16000 -0.848
27.18000 -2.182
27.20000 -3.774
27.22000 1.432
27.24000 1.006
27.26000 2.606
27.28000 2.905
27.30000 5.390
27.32000 4.949
27.34000 3.612
27.36000 4.249
27.38000 6.716
27.40000 2.825
27.42000 3.294
27.44000 6.766
27.46000 0.608
27.48000 -3.712
27.50000 -3.235
27.52000 0.409
27.54000 -0.421
27.56000 -0.114
27.58000 1.308
27.60000 2.860
27.62000 2.505
27.64000 9.973
27.66000 7.288
27.68000 -0.248
27.70000 -0.294
27.72000 0.025
27.74000 2.112
27.76000 1.475
27.78000 3.342
27.80000 1.005
27.82000 1.203
27.84000 6.108
27.86000 4.187
27.88000 0.352
27.90000 4.082
27.92000 7.741
27.94000 8.536
27.96000 5.709
27.98000 9.434
28.00000 7.621
28.02000 8.960
28.04000 4.517
28.06000 4.303
28.08000 7.270
28.10000 7.013
28.12000 3.664
28.14000 -3.779
28.16000 3.933
28.18000 3.522
28.20000 -0.027
28.22000 -3.440
28.24000 -1.819
28.26000 -2.184
28.28000 0.740
28.30000 2.725
28.32000 6.185
28.34000 2.104
28.36000 -0.772
28.38000 4.562
28.40000 2.420
28.42000 3.237
28.44000 3.598
28.46000 1.660
28.48000 -2.227
28.50000 -0.876
28.52000 0.908
28.54000 -1.309
28.56000 -3.763
28.58000 -2.065
28.60000 -2.399
28.62000 -2.380
28.64000 -2.386
28.66000 -2.129
28.68000 -3.345
28.70000 -2.633
28.72000 4.510
28.74000 4.623
28.76000 8.987
28.78000 2.484
28.80000 0.099
28.82000 4.447
28.84000 3.463
28.86000 0.815
28.88000 5.515
28.90000 6.527
28.92000 1.936
28.94000 -0.049
28.96000 0.785
28.98000 4.179
29.00000 3.901
29.02000 -0.035
29.04000 -3.743
29.06000 2.864
29.08000 1.418
29.10000 1.561
29.12000 1.286
29.14000 1.432
29.16000 5.227
29.18000 1.929
29.20000 7.012
29.22000 3.943
29.24000 2.039
29.26000 2.889
29.28000 3.260
29.30000 1.543
29.32000 0.125
29.34000 4.387
29.36000 0.216
29.38000 1.642
29.40000 6.810
29.42000 3.216
29.44000 2.681
29.46000 4.322
29.48000 1.828
29.50000 1.762
29.52000 4.103
29.54000 8.437
29.56000 5.466
29.58000 3.383
29.60000 -0.672
29.62000 0.248
29.64000 0.631
29.66000 3.985
29.68000 4.351
29.70000 -2.162
29.72000 0.691
29.74000 4.171
29.76000 0.637
29.78000 -3.693
29.80000 0.861
29.82000 0.950
29.84000 -3.492
29.86000 -1.651
29.88000 -2.408
29.90000 -3.368
29.92000 -3.657
29.94000 -0.110
29.96000 0.280
29.98000 4.241
30.00000 6.637
30.02000 1.186
30.04000 -2.034
30.06000 4.084
30.08000 6.756
30.10000 5.582
30.12000 0.748
30.14000 4.460
30.16000 -1.266
30.18000 2.574
30.20000 5.473
30.22000 1.861
30.24000 2.951
30.26000 -1.446
30.28000 -2.571
30.30000 -0.884
30.32000 0.682
30.34000 1.014
30.36000 2.561
30.38000 4.570
30.40000 -0.842
30.42000 -0.394
30.44000 -0.481
30.46000 0.689
30.48000 2.288
30.50000 3.233
30.52000 1.367
30.54000 -0.149
30.56000 2.826
30.58000 6.368
30.60000 2.478
30.62000 -0.151
30.64000 0.965
30.66000 -2.482
30.68000 3.536
30.70000 -0.443
30.72000 2.169
30.74000 -0.335
30.76000 -0.756
30.78000 -1.324
30.80000 1.734
30.82000 1.653
30.84000 3.981
30.86000 -3.558
30.88000 0.520
30.90000 6.033
30.92000 5.422
30.94000 -3.272
30.96000 -1.914
30.98000 0.224
31.00000 -0.812
31.02000 -2.062
31.04000 -3.661
31.06000 2.023
31.08000 3.441
31.10000 5.788
31.12000 3.089
31.14000 3.318
31.16000 4.826
31.18000 3.876
31.20000 7.445
31.22000 7.319
31.24000 2.619
31.26000 -1.232
31.28000 5.357
31.30000 4.549
31.32000 1.680
31.34000 -2.495
31.36000 -1.319
31.38000 -2.090
31.40000 -0.317
31.42000 3.274
31.44000 2.237
31.46000 -0.118
31.48000 0.559
31.50000 0.313
31.52000 -0.042
31.54000 5.138
31.56000 4.178
31.58000 1.874
31.60000 1.656
31.62000 3.434
31.64000 8.535
31.66000 0.922
31.68000 4.359
31.70000 4.963
31.72000 6.023
31.74000 6.395
31.76000 -0.026
31.78000 3.271
31.80000 4.471
31.82000 1.518
31.84000 -0.361
31.86000 -2.310
31.88000 1.961
31.90000 6.285
31.92000 6.208
31.94000 3.871
31.96000 3.553
31.98000 -0.910
32.00000 -0.925
32.02000 2.449
32.04000 0.824
32.06000 0.973
32.08000 -3.592
32.10000 2.802
32.12000 3.700
32.14000 2.235
32.16000 1.673
32.18000 5.175
32.20000 -1.182
32.22000 -3.584
32.24000 3.040
32.26000 4.241
32.28000 -0.717
32.30000 2.016
32.32000 3.866
32.34000 7.779
32.36000 9.869
32.38000 4.910
32.40000 3.440
32.42000 2.535
32.44000 0.348
32.46000 -1.097
32.48000 2.826
32.50000 10.668
32.52000 3.431
32.54000 9.317
32.56000 2.886
32.58000 -3.564
32.60000 1.786
32.62000 6.195
32.64000 4.387
32.66000 7.842
32.68000 4.366
32.70000 4.749
32.72000 5.931
32.74000 2.359
32.76000 0.909
32.78000 8.396
32.80000 9.606
32.82000 2.514
32.84000 4.592
32.86000 4.512
32.88000 4.300
32.90000 -2.803
32.92000 -0.087
32.94000 -0.461
32.96000 -2.065
32.98000 0.323
33.00000 1.966
33.02000 5.071
33.04000 2.612
33.06000 -2.067
33.08000 2.530
33.10000 2.692
33.12000 2.195
33.14000 2.340
33.16000 3.837
33.18000 -0.754
33.20000 0.031
33.22000 -2.983
33.24000 -0.444
33.26000 2.190
33.28000 0.546
33.30000 7.482
33.32000 6.635
33.34000 7.722
33.36000 3.637
33.38000 5.380
33.40000 8.512
33.42000 2.859
33.44000 0.605
33.46000 -1.150
33.48000 -1.339
33.50000 -1.521
33.52000 -0.543
33.54000 3.207
33.56000 3.224
33.58000 -2.364
33.60000 -0.203
33.62000 -1.734
33.64000 2.363
33.66000 -1.584
33.68000 0.004
33.70000 2.442
33.72000 -0.258
33.74000 1.255
33.76000 2.257
33.78000 5.376
33.80000 3.515
33.82000 1.072
33.84000 6.114
33.86000 6.325
33.88000 4.625
33.90000 -0.989
33.92000 -2.825
33.94000 1.108
33.96000 5.350
33.98000 4.250
34.00000 -0.747
34.02000 6.559
34.04000 9.709
34.06000 5.394
34.08000 3.487
34.10000 4.645
34.12000 4.502
34.14000 3.526
34.16000 6.099
34.18000 4.090
34.20000 2.842
34.22000 2.870
34.24000 1.510
34.26000 1.118
34.28000 4.210
34.30000 -0.651
34.32000 -1.365
34.34000 1.770
34.36000 -0.095
34.38000 0.986
34.40000 3.554
34.42000 7.604
34.44000 9.508
34.46000 10.129
34.48000 3.482
34.50000 0.347
34.52000 1.639
34.54000 2.708
34.56000 1.293
34.58000 -1.560
34.60000 -1.309
34.62000 0.720
34.64000 1.277
34.66000 4.306
34.68000 -0.915
34.70000 1.614
34.72000 3.171
34.74000 0.526
34.76000 3.877
34.78000 5.835
34.80000 -1.402
34.82000 1.571
34.84000 7.003
34.86000 4.299
34.88000 -2.164
34.90000 0.485
34.92000 5.271
34.94000 5.720
34.96000 2.013
34.98000 -3.548
35.00000 -0.996
35.02000 1.997
35.04000 2.058
35.06000 2.739
35.08000 1.036
35.10000 3.990
35.12000 6.942
35.14000 5.810
35.16000 1.801
35.18000 -2.269
35.20000 3.322
35.22000 2.295
35.24000 0.835
35.26000 0.612
35.28000 5.944
35.30000 2.239
35.32000 2.490
35.34000 3.878
35.36000 4.455
35.38000 0.675
35.40000 -0.591
35.42000 2.652
35.44000 5.588
35.46000 2.822
35.48000 6.631
35.50000 5.311
35.52000 4.026
35.54000 0.822
35.56000 1.566
35.58000 5.824
35.60000 3.845
35.62000 4.482
35.64000 4.514
35.66000 8.316
35.68000 7.084
35.70000 5.259
35.72000 0.022
35.74000 1.196
35.76000 -2.782
35.78000 4.809
35.80000 -0.353
35.82000 1.898
35.84000 2.333
35.86000 0.024
35.88000 3.864
35.90000 3.003
35.92000 0.688
35.94000 -2.378
35.96000 -2.336
35.98000 1.314
36.00000 -0.317
36.02000 -3.588
36.04000 0.906
36.06000 0.834
36.08000 0.906
36.10000 -2.051
36.12000 -0.715
36.14000 1.096
36.16000 3.153
36.18000 4.297
36.20000 -1.135
36.22000 0.368
36.24000 3.985
36.26000 4.153
36.28000 0.391
36.30000 -3.607
36.32000 0.415
36.34000 2.217
36.36000 2.264
36.38000 -0.022
36.40000 0.987
36.42000 1.180
36.44000 -1.315
36.46000 -1.564
36.48000 -3.540
36.50000 0.120
36.52000 3.775
36.54000 4.854
36.56000 0.340
36.58000 -1.016
36.60000 0.588
36.62000 6.969
36.64000 1.965
36.66000 0.606
36.68000 3.269
36.70000 0.679
36.72000 4.817
36.74000 -2.232
36.76000 -3.468
36.78000 -0.215
36.80000 -1.657
36.82000 1.596
36.84000 2.143
36.86000 -0.840
36.88000 -1.559
36.90000 4.531
36.92000 2.147
36.94000 -0.416
36.96000 -1.519
36.98000 -0.460
37.00000 1.388
37.02000 -2.473
37.04000 6.809
37.06000 8.503
37.08000 3.005
37.10000 -0.020
37.12000 -0.586
37.14000 2.085
37.16000 3.692
37.18000 1.002
37.20000 0.983
37.22000 2.578
37.24000 1.912
37.26000 6.211
37.28000 8.325
37.30000 7.321
37.32000 4.535
37.34000 3.688
37.36000 2.065
37.38000 7.368
37.40000 7.432
37.42000 5.626
37.44000 5.959
37.46000 5.157
37.48000 4.317
37.50000 4.490
37.52000 1.293
37.54000 4.242
37.56000 4.317
37.58000 8.190
37.60000 11.112
37.62000 15.093
37.64000 14.132
37.66000 14.803
37.68000 13.851
37.70000 14.356
37.72000 12.588
37.74000 12.176
37.76000 12.597
37.78000 12.828
37.80000 15.161
37.82000 16.928
37.84000 19.230
37.86000 20.242
37.88000 23.004
37.90000 22.897
37.92000 23.328
37.94000 29.295
37.96000 28.029
37.98000 32.290
38.00000 24.886
38.02000 16.783
38.04000 14.226
38.06000 21.119
38.08000 28.069
38.10000 36.716
38.12000 30.867
38.14000 25.860
38.16000 32.007
38.18000 34.147
38.20000 36.944
38.22000 38.753
38.24000 44.054
38.26000 40.068
38.28000 35.666
38.30000 40.488
38.32000 41.416
38.34000 45.755
38.36000 47.386
38.38000 44.232
38.40000 43.665
38.42000 52.702
38.44000 56.691
38.46000 58.994
38.48000 57.492
38.50000 57.179
38.52000 61.303
38.54000 68.156
38.56000 68.369
38.58000 68.097
38.60000 71.865
38.62000 89.022
38.64000 90.049
38.66000 88.344
38.68000 90.076
38.70000 94.829
38.72000 108.063
38.74000 112.652
38.76000 110.096
38.78000 116.703
38.80000 127.222
38.82000 128.374
38.84000 135.502
38.86000 146.303
38.88000 152.604
38.90000 165.369
38.92000 172.440
38.94000 180.181
38.96000 192.241
38.98000 202.487
39.00000 216.217
39.02000 236.524
39.04000 249.338
39.06000 270.660
39.08000 281.154
39.10000 301.998
39.12000 312.502
39.14000 324.899
39.16000 350.888
39.18000 372.059
39.20000 395.247
39.22000 413.840
39.24000 432.492
39.26000 441.420
39.28000 460.099
39.30000 477.207
39.32000 499.724
39.34000 518.375
39.36000 527.090
39.38000 535.135
39.40000 541.109
39.42000 553.207
39.44000 561.145
39.46000 568.886
39.48000 574.069
39.50000 575.374
39.52000 564.323
39.54000 561.634
39.56000 555.933
39.58000 549.623
39.60000 547.630
39.62000 532.460
39.64000 507.985
39.66000 483.612
39.68000 488.619
39.70000 479.135
39.72000 458.009
39.74000 433.238
39.76000 408.892
39.78000 383.822
39.80000 365.796
39.82000 345.788
39.84000 328.827
39.86000 325.479
39.88000 304.619
39.90000 291.470
39.92000 273.543
39.94000 252.731
39.96000 235.437
39.98000 222.307
40.00000 202.086
40.02000 186.036
40.04000 178.813
40.06000 168.185
40.08000 156.750
40.10000 146.957
40.12000 137.597
40.14000 131.784
40.16000 122.266
40.18000 106.744
40.20000 99.788
40.22000 100.796
40.24000 92.835
40.26000 83.288
40.28000 78.895
40.30000 74.707
40.32000 72.335
40.34000 67.854
40.36000 63.183
40.38000 59.635
40.40000 59.405
40.42000 56.632
40.44000 54.256
40.46000 50.427
40.48000 44.432
40.50000 42.092
40.52000 39.755
40.54000 39.319
40.56000 41.304
40.58000 38.209
40.60000 36.888
40.62000 37.780
40.64000 35.269
40.66000 35.624
40.68000 29.405
40.70000 27.600
40.72000 24.145
40.74000 24.346
40.76000 23.475
40.78000 24.344
40.80000 27.820
40.82000 24.801
40.84000 22.858
40.86000 21.910
40.88000 21.614
40.90000 16.511
40.92000 19.725
40.94000 21.039
40.96000 20.456
40.98000 15.890
41.00000 19.542
41.02000 15.518
41.04000 14.024
41.06000 13.525
41.08000 14.561
41.10000 15.017
41.12000 9.481
41.14000 9.255
41.16000 7.858
41.18000 10.509
41.20000 8.618
41.22000 5.129
41.24000 5.505
41.26000 7.445
41.28000 11.261
41.30000 8.167
41.32000 8.613
41.34000 9.020
41.36000 6.254
41.38000 8.449
41.40000 7.250
41.42000 4.471
41.44000 2.878
41.46000 3.314
41.48000 2.749
41.50000 5.961
41.52000 3.854
41.54000 2.750
41.56000 0.648
41.58000 0.929
41.60000 1.816
41.62000 1.160
41.64000 1.741
41.66000 3.429
41.68000 1.284
41.70000 0.576
41.72000 4.873
41.74000 4.707
41.76000 5.653
41.78000 1.729
41.80000 0.762
41.82000 3.345
41.84000 6.385
41.86000 5.502
41.88000 3.342
41.90000 6.506
41.92000 3.586
41.94000 -2.160
41.96000 2.259
41.98000 4.219
42.00000 4.678
42.02000 1.427
42.04000 0.107
42.06000 2.515
42.08000 7.113
42.10000 5.003
42.12000 3.818
42.14000 2.352
42.16000 1.270
42.18000 -2.064
42.20000 2.344
42.22000 4.460
42.24000 2.847
42.26000 2.281
42.28000 0.223
42.30000 2.423
42.32000 -0.677
42.34000 -0.492
42.36000 -3.315
42.38000 0.222
42.40000 1.500
42.42000 0.039
42.44000 0.084
42.46000 -2.043
42.48000 2.630
42.50000 2.180
42.52000 1.827
42.54000 -3.131
42.56000 -0.087
42.58000 -1.198
42.60000 -0.538
42.62000 5.657
42.64000 3.042
42.66000 2.177
42.68000 0.750
42.70000 5.379
42.72000 2.602
42.74000 -1.243
42.76000 -1.050
42.78000 0.278
42.80000 0.611
42.82000 -0.211
42.84000 -2.336
42.86000 -1.098
42.88000 3.212
42.90000 2.218
42.92000 0.943
42.94000 -1.235
42.96000 -3.144
42.98000 -0.028
43.00000 -0.044
43.02000 -3.177
43.04000 -1.048
43.06000 0.634
43.08000 4.056
43.10000 0.565
43.12000 -0.809
43.14000 -2.591
43.16000 -3.234
43.18000 -2.122
43.20000 2.385
43.22000 3.376
43.24000 0.458
43.26000 -1.071
43.28000 -1.014
43.30000 2.150
43.32000 0.233
43.34000 1.152
43.36000 2.588
43.38000 0.701
43.40000 -0.740
43.42000 0.055
43.44000 -1.386
43.46000 -0.948
43.48000 -1.365
43.50000 0.623
43.52000 -1.436
43.54000 -1.638
43.56000 -1.870
43.58000 -1.093
43.60000 -1.155
43.62000 -2.071
43.64000 -1.761
43.66000 -0.668
43.68000 0.342
43.70000 1.173
43.72000 2.937
43.74000 -0.562
43.76000 -2.300
43.78000 -1.325
43.80000 2.072
43.82000 -1.486
43.84000 -0.753
43.86000 2.138
43.88000 4.429
43.90000 -0.052
43.92000 -2.013
43.94000 2.388
43.96000 3.364
43.98000 1.987
44.00000 -0.392
44.02000 1.186
44.04000 1.309
44.06000 1.255
44.08000 1.375
44.10000 -1.331
44.12000 -3.177
44.14000 2.630
44.16000 6.790
44.18000 5.447
44.20000 -2.766
44.22000 -2.727
44.24000 -0.943
44.26000 -0.899
44.28000 -0.865
44.30000 1.973
44.32000 0.925
44.34000 0.581
44.36000 -0.312
44.38000 -0.998
44.40000 1.358
44.42000 -1.896
44.44000 0.051
44.46000 -2.958
44.48000 1.852
44.50000 1.548
44.52000 1.729
44.54000 0.103
44.56000 -0.670
44.58000 -0.580
44.60000 0.902
44.62000 -0.372
44.64000 -0.119
44.66000 3.484
44.68000 4.614
44.70000 2.425
44.72000 2.995
44.74000 2.071
44.76000 6.351
44.78000 4.968
44.80000 5.862
44.82000 5.136
44.84000 5.281
44.86000 2.753
44.88000 6.105
44.90000 10.221
44.92000 8.887
44.94000 7.350
44.96000 8.552
44.98000 6.586
45.00000 3.106
45.02000 7.676
45.04000 9.744
45.06000 9.491
45.08000 7.211
45.10000 7.583
45.12000 6.932
45.14000 13.846
45.16000 11.933
45.18000 11.045
45.20000 11.901
45.22000 14.291
45.24000 14.938
45.26000 16.238
45.28000 22.577
45.30000 15.809
45.32000 14.630
45.34000 12.152
45.36000 13.811
45.38000 16.328
45.40000 21.535
45.42000 26.305
45.44000 27.408
45.46000 24.462
45.48000 24.118
45.50000 25.188
45.52000 28.182
45.54000 27.818
45.56000 26.183
45.58000 35.748
45.60000 35.112
45.62000 32.797
45.64000 35.722
45.66000 38.249
45.68000 39.052
45.70000 41.797
45.72000 39.580
45.74000 42.667
45.76000 42.838
45.78000 47.921
45.80000 45.437
45.82000 48.027
45.84000 54.417
45.86000 54.700
45.88000 52.762
45.90000 54.408
45.92000 62.078
45.94000 59.114
45.96000 58.570
45.98000 62.322
46.00000 64.406
46.02000 64.502
46.04000 64.332
46.06000 71.352
46.08000 67.149
46.10000 63.564
46.12000 65.212
46.14000 64.322
46.16000 66.723
46.18000 68.198
46.20000 65.857
46.22000 64.072
46.24000 64.850
46.26000 64.431
46.28000 64.011
46.30000 61.500
46.32000 58.919
46.34000 54.342
46.36000 57.433
46.38000 59.160
46.40000 59.212
46.42000 55.860
46.44000 52.344
46.46000 52.673
46.48000 50.685
46.50000 52.067
46.52000 53.014
46.54000 51.101
46.56000 46.800
46.58000 42.912
46.60000 42.302
46.62000 41.774
46.64000 34.703
46.66000 27.260
46.68000 30.676
46.70000 30.200
46.72000 30.148
46.74000 28.233
46.76000 25.610
46.78000 23.466
46.80000 23.236
46.82000 17.523
46.84000 15.789
46.86000 18.815
46.88000 15.676
46.90000 16.698
46.92000 17.011
46.94000 16.859
46.96000 12.825
46.98000 11.752
47.00000 11.840
47.02000 9.983
47.04000 10.751
47.06000 12.254
47.08000 8.177
47.10000 10.601
47.12000 9.325
47.14000 11.898
47.16000 9.574
47.18000 8.807
47.20000 5.887
47.22000 3.612
47.24000 0.641
47.26000 3.537
47.28000 4.175
47.30000 2.643
47.32000 4.151
47.34000 3.361
47.36000 2.773
47.38000 5.364
47.40000 5.535
47.42000 -0.247
47.44000 -0.045
47.46000 2.724
47.48000 0.250
47.50000 1.866
47.52000 2.391
47.54000 3.231
47.56000 6.208
47.58000 6.752
47.60000 7.144
47.62000 4.510
47.64000 0.526
47.66000 0.913
47.68000 -1.777
47.70000 -2.757
47.72000 0.669
47.74000 1.545
47.76000 -1.088
47.78000 -2.565
47.80000 1.167
47.82000 0.510
47.84000 3.170
47.86000 4.067
47.88000 -0.699
47.90000 2.138
47.92000 -1.996
47.94000 -2.577
47.96000 1.961
47.98000 0.238
48.00000 0.925
48.02000 -0.789
48.04000 -1.348
48.06000 0.855
48.08000 -0.232
48.10000 4.816
48.12000 5.727
48.14000 0.079
48.16000 1.603
48.18000 0.615
48.20000 1.293
48.22000 1.652
48.24000 -0.046
48.26000 2.492
48.28000 0.336
48.30000 1.906
48.32000 2.234
48.34000 0.050
48.36000 -1.563
48.38000 -1.389
48.40000 1.841
48.42000 0.308
48.44000 -0.404
48.46000 0.010
48.48000 -1.115
48.50000 0.283
48.52000 -0.211
48.54000 2.063
48.56000 -1.033
48.58000 -0.699
48.60000 -0.032
48.62000 3.005
48.64000 0.941
48.66000 0.764
48.68000 1.568
48.70000 2.276
48.72000 2.389
48.74000 -0.242
48.76000 -2.682
48.78000 -1.359
48.80000 2.085
48.82000 4.445
48.84000 1.620
48.86000 1.223
48.88000 1.024
48.90000 2.856
48.92000 3.661
48.94000 0.853
48.96000 2.572
48.98000 2.680
49.00000 1.542
49.02000 0.498
49.04000 1.515
49.06000 2.026
49.08000 4.690
49.10000 3.383
49.12000 2.371
49.14000 -0.952
49.16000 -0.537
49.18000 2.858
49.20000 6.818
49.22000 4.710
49.24000 3.945
49.26000 3.835
49.28000 -1.632
49.30000 -1.455
49.32000 1.599
49.34000 5.634
49.36000 5.673
49.38000 1.218
49.40000 1.089
49.42000 -1.623
49.44000 3.054
49.46000 1.553
49.48000 3.929
49.50000 4.008
49.52000 5.597
49.54000 4.897
49.56000 1.758
49.58000 3.875
49.60000 7.667
49.62000 8.037
49.64000 5.407
49.66000 2.708
49.68000 4.318
49.70000 6.967
49.72000 5.365
49.74000 9.925
49.76000 9.685
49.78000 8.827
49.80000 6.632
49.82000 4.221
49.84000 -0.805
49.86000 -2.535
49.88000 5.719
49.90000 5.600
49.92000 2.227
49.94000 3.707
49.96000 1.910
49.98000 4.673
50.00000 5.315
50.02000 0.339
50.04000 1.452
50.06000 2.500
50.08000 1.933
50.10000 4.881
50.12000 4.708
50.14000 8.196
50.16000 2.980
50.18000 4.159
50.20000 6.302
50.22000 3.854
50.24000 0.018
50.26000 0.814
50.28000 2.522
50.30000 4.237
50.32000 3.774
50.34000 1.314
50.36000 5.481
50.38000 6.756
50.40000 6.902
50.42000 4.392
50.44000 2.559
50.46000 4.991
50.48000 4.781
50.50000 2.943
50.52000 2.808
50.54000 5.794
50.56000 6.151
50.58000 6.161
50.60000 3.172
50.62000 -1.074
50.64000 -1.227
50.66000 -1.306
50.68000 2.287
50.70000 1.853
50.72000 0.089
50.74000 0.369
50.76000 2.516
50.78000 3.495
50.80000 3.248
50.82000 0.864
50.84000 -0.619
50.86000 0.766
50.88000 1.503
50.90000 -1.490
50.92000 1.047
50.94000 4.697
50.96000 4.073
50.98000 5.718
51.00000 2.403
51.02000 4.564
51.04000 4.982
51.06000 4.682
51.08000 3.559
51.10000 1.148
51.12000 3.452
51.14000 -0.756
51.16000 4.006
51.18000 2.238
51.20000 0.532
51.22000 0.463
51.24000 3.790
51.26000 5.918
51.28000 2.993
51.30000 -1.055
51.32000 0.125
51.34000 3.378
51.36000 2.020
51.38000 -1.136
51.40000 -1.108
51.42000 1.767
51.44000 2.010
51.46000 -1.631
51.48000 -1.230
51.50000 1.444
51.52000 1.118
51.54000 -2.528
51.56000 -2.137
51.58000 -0.679
51.60000 0.688
51.62000 3.699
51.64000 5.458
51.66000 7.628
51.68000 6.947
51.70000 4.937
51.72000 4.173
51.74000 3.219
51.76000 2.351
51.78000 4.175
51.80000 4.319
51.82000 3.646
51.84000 2.014
51.86000 2.879
51.88000 8.236
51.90000 2.855
51.92000 4.175
51.94000 2.989
51.96000 1.474
51.98000 2.150
52.00000 1.582
52.02000 1.626
52.04000 1.164
52.06000 5.444
52.08000 3.787
52.10000 3.984
52.12000 4.771
52.14000 6.710
52.16000 1.057
52.18000 2.536
52.20000 1.062
52.22000 -1.172
52.24000 -2.486
52.26000 1.658
52.28000 4.435
52.30000 -0.030
52.32000 -0.095
52.34000 2.033
52.36000 2.716
52.38000 5.652
52.40000 4.784
52.42000 1.097
52.44000 4.834
52.46000 5.910
52.48000 4.633
52.50000 2.335
52.52000 1.813
52.54000 2.155
52.56000 1.397
52.58000 2.537
52.60000 2.303
52.62000 4.213
52.64000 5.653
52.66000 4.260
52.68000 2.170
52.70000 0.326
52.72000 2.697
52.74000 -0.134
52.76000 0.628
52.78000 0.003
52.80000 3.119
52.82000 3.596
52.84000 3.357
52.86000 5.747
52.88000 4.314
52.90000 1.041
52.92000 1.978
52.94000 2.056
52.96000 4.648
52.98000 1.354
53.00000 0.597
53.02000 5.112
53.04000 5.635
53.06000 3.234
53.08000 3.350
53.10000 -0.081
53.12000 2.991
53.14000 7.986
53.16000 4.122
53.18000 0.858
53.20000 3.721
53.22000 7.118
53.24000 3.023
53.26000 3.150
53.28000 4.516
53.30000 3.187
53.32000 0.494
53.34000 1.923
53.36000 4.959
53.38000 4.176
53.40000 2.670
53.42000 2.615
53.44000 5.021
53.46000 3.694
53.48000 0.669
53.50000 0.774
53.52000 0.584
53.54000 3.858
53.56000 4.358
53.58000 4.881
53.60000 5.194
53.62000 3.809
53.64000 -2.455
53.66000 0.011
53.68000 4.079
53.70000 1.510
53.72000 3.346
53.74000 4.939
53.76000 2.260
53.78000 4.630
53.80000 6.720
53.82000 3.436
53.84000 -0.104
53.86000 -2.334
53.88000 4.938
53.90000 7.281
53.92000 2.495
53.94000 0.992
53.96000 5.715
53.98000 2.596
54.00000 -1.138
54.02000 0.460
54.04000 4.157
54.06000 4.517
54.08000 1.297
54.10000 1.350
54.12000 3.854
54.14000 5.911
54.16000 5.027
54.18000 3.314
54.20000 -1.917
54.22000 -2.088
54.24000 3.776
54.26000 3.767
54.28000 -0.913
54.30000 1.100
54.32000 -1.299
54.34000 -0.975
54.36000 -1.346
54.38000 2.502
54.40000 3.601
54.42000 2.767
54.44000 2.404
54.46000 3.502
54.48000 6.872
54.50000 4.081
54.52000 4.146
54.54000 2.103
54.56000 4.717
54.58000 3.029
54.60000 2.425
54.62000 5.038
54.64000 5.301
54.66000 2.543
54.68000 0.439
54.70000 -1.537
54.72000 -0.782
54.74000 -1.040
54.76000 -1.378
54.78000 -1.720
54.80000 -0.875
54.82000 1.101
54.84000 4.229
54.86000 4.985
54.88000 3.260
54.90000 4.148
54.92000 1.506
54.94000 3.772
54.96000 3.150
54.98000 2.048
55.00000 0.615
55.02000 0.941
55.04000 1.796
55.06000 4.453
55.08000 2.034
55.10000 0.316
55.12000 2.148
55.14000 0.499
55.16000 1.896
55.18000 2.935
55.20000 5.556
55.22000 3.536
55.24000 5.433
55.26000 5.524
55.28000 6.615
55.30000 5.030
55.32000 1.568
55.34000 5.300
55.36000 2.704
55.38000 4.449
55.40000 2.660
55.42000 1.176
55.44000 1.135
55.46000 5.023
55.48000 3.885
55.50000 -0.232
55.52000 1.224
55.54000 2.480
55.56000 4.397
55.58000 6.384
55.60000 4.900
55.62000 5.033
55.64000 2.706
55.66000 4.109
55.68000 1.725
55.70000 -0.037
55.72000 2.454
55.74000 3.950
55.76000 3.373
55.78000 -0.271
55.80000 -0.712
55.82000 -2.389
55.84000 1.305
55.86000 6.425
55.88000 3.248
55.90000 1.759
55.92000 4.153
55.94000 5.906
55.96000 7.796
55.98000 6.150
56.00000 0.785
56.02000 0.489
56.04000 0.451
56.06000 3.470
56.08000 0.752
56.10000 1.925
56.12000 7.181
56.14000 2.657
56.16000 -0.186
56.18000 1.838
56.20000 1.598
56.22000 -1.047
56.24000 0.294
56.26000 -0.691
56.28000 0.588
56.30000 1.652
56.32000 4.391
56.34000 5.134
56.36000 -0.299
56.38000 -0.478
56.40000 4.161
56.42000 1.438
56.44000 0.924
56.46000 2.329
56.48000 3.005
56.50000 -1.622
56.52000 -2.032
56.54000 2.449
56.56000 0.447
56.58000 0.837
56.60000 -0.774
56.62000 0.354
56.64000 -0.104
56.66000 -1.283
56.68000 0.119
56.70000 0.086
56.72000 2.085
56.74000 2.041
56.76000 2.406
56.78000 0.939
56.80000 -2.417
56.82000 -2.194
56.84000 1.411
56.86000 0.244
56.88000 0.922
56.90000 -1.178
56.92000 1.157
56.94000 2.029
56.96000 3.349
56.98000 0.871
57.00000 -1.554
57.02000 -0.272
57.04000 1.060
57.06000 -0.768
57.08000 0.725
57.10000 0.431
57.12000 2.144
57.14000 0.295
57.16000 0.606
57.18000 -2.015
57.20000 -1.616
57.22000 -0.565
57.24000 -1.523
57.26000 0.108
57.28000 2.015
57.30000 0.898
57.32000 -1.010
57.34000 -1.346
57.36000 -2.328
57.38000 2.318
57.40000 1.444
57.42000 1.076
57.44000 -2.057
57.46000 2.016
57.48000 1.767
57.50000 0.845
57.52000 3.198
57.54000 2.894
57.56000 -0.163
57.58000 -0.312
57.60000 0.738
57.62000 2.775
57.64000 2.007
57.66000 4.569
57.68000 5.189
57.70000 3.656
57.72000 3.060
57.74000 1.621
57.76000 -0.136
57.78000 -2.389
57.80000 -0.598
57.82000 1.591
57.84000 -0.006
57.86000 -2.114
57.88000 3.156
57.90000 4.077
57.92000 1.339
57.94000 3.035
57.96000 1.414
57.98000 0.514
58.00000 -0.661
58.02000 0.384
58.04000 -0.286
58.06000 2.013
58.08000 2.341
58.10000 -0.640
58.12000 0.338
58.14000 0.838
58.16000 2.622
58.18000 3.741
58.20000 3.228
58.22000 1.115
58.24000 4.019
58.26000 -0.014
58.28000 0.162
58.30000 0.698
58.32000 -2.353
58.34000 -1.593
58.36000 1.539
58.38000 5.473
58.40000 7.128
58.42000 3.705
58.44000 3.427
58.46000 6.049
58.48000 5.199
58.50000 6.695
58.52000 3.408
58.54000 -1.017
58.56000 2.197
58.58000 2.083
58.60000 1.289
58.62000 0.181
58.64000 1.130
58.66000 2.574
58.68000 3.905
58.70000 2.554
58.72000 5.808
58.74000 1.806
58.76000 3.049
58.78000 5.071
58.80000 3.136
58.82000 2.091
58.84000 1.467
58.86000 5.205
58.88000 3.604
58.90000 5.281
58.92000 6.271
58.94000 7.409
58.96000 3.955
58.98000 0.441
59.00000 -0.312
59.02000 2.269
59.04000 2.158
59.06000 4.143
59.08000 4.038
59.10000 1.610
59.12000 2.180
59.14000 6.185
59.16000 3.685
59.18000 3.246
59.20000 -2.322
59.22000 -1.263
59.24000 0.685
59.26000 0.302
59.28000 1.217
59.30000 3.468
59.32000 2.515
59.34000 2.914
59.36000 4.333
59.38000 0.783
59.40000 -2.313
59.42000 -1.240
59.44000 1.991
59.46000 -0.428
59.48000 3.987
59.50000 4.521
59.52000 2.603
59.54000 3.323
59.56000 2.528
59.58000 -0.986
59.60000 -1.188
59.62000 0.416
59.64000 0.776
59.66000 -0.904
59.68000 -1.585
59.70000 0.191
59.72000 0.631
59.74000 3.130
59.76000 3.828
59.78000 2.237
59.80000 3.699
59.82000 2.266
59.84000 0.520
59.86000 1.160
59.88000 4.198
59.90000 4.600
59.92000 5.106
59.94000 5.586
59.96000 3.056
59.98000 0.444
60.00000 2.683
60.02000 -0.560
60.04000 -1.891
60.06000 1.365
60.08000 3.001
60.10000 3.238
60.12000 3.281
60.14000 4.159
60.16000 3.242
60.18000 -0.367
60.20000 -0.056
60.22000 3.669
60.24000 4.322
60.26000 3.415
60.28000 6.016
60.30000 4.405
60.32000 0.888
60.34000 3.224
60.36000 1.821
60.38000 -2.268
60.40000 -0.172
60.42000 3.844
60.44000 3.421
60.46000 2.860
60.48000 2.117
60.50000 1.154
60.52000 0.711
60.54000 1.806
60.56000 0.692
60.58000 0.593
60.60000 0.838
60.62000 0.557
60.64000 1.306
60.66000 1.882
60.68000 2.584
60.70000 3.903
60.72000 8.320
60.74000 4.125
60.76000 4.094
60.78000 2.759
60.80000 5.040
60.82000 3.411
60.84000 1.077
60.86000 -0.642
60.88000 0.098
60.90000 0.006
60.92000 -0.359
60.94000 -0.359
60.96000 0.877
60.98000 2.135
61.00000 3.184
61.02000 0.386
61.04000 3.529
61.06000 2.134
61.08000 2.323
61.10000 -1.561
61.12000 1.799
61.14000 3.106
61.16000 1.047
61.18000 1.610
61.20000 0.394
61.22000 2.939
61.24000 3.336
61.26000 4.787
61.28000 3.266
61.30000 2.484
61.32000 2.622
61.34000 2.265
61.36000 1.489
61.38000 1.256
61.40000 6.201
61.42000 6.039
61.44000 0.855
61.46000 1.735
61.48000 0.734
61.50000 5.639
61.52000 7.932
61.54000 3.624
61.56000 2.453
61.58000 1.709
61.60000 2.489
61.62000 4.259
61.64000 7.598
61.66000 8.455
61.68000 1.029
61.70000 0.120
61.72000 0.222
61.74000 1.269
61.76000 4.626
61.78000 3.753
61.80000 -0.871
61.82000 1.139
61.84000 0.773
61.86000 4.045
61.88000 2.323
61.90000 3.296
61.92000 8.090
61.94000 7.336
61.96000 4.434
61.98000 6.318
62.00000 6.021
62.02000 4.051
62.04000 6.134
62.06000 5.477
62.08000 3.912
62.10000 4.346
62.12000 5.036
62.14000 4.075
62.16000 3.089
62.18000 -0.304
62.20000 0.216
62.22000 2.450
62.24000 4.186
62.26000 5.394
62.28000 8.767
62.30000 3.208
62.32000 1.750
62.34000 2.949
62.36000 0.920
62.38000 -2.189
62.40000 6.679
62.42000 11.346
62.44000 6.812
62.46000 3.225
62.48000 2.879
62.50000 8.247
62.52000 6.697
62.54000 5.248
62.56000 4.505
62.58000 1.583
62.60000 2.187
62.62000 5.684
62.64000 6.012
62.66000 4.203
62.68000 4.771
62.70000 3.376
62.72000 1.659
62.74000 2.392
62.76000 1.370
62.78000 1.019
62.80000 3.804
62.82000 0.815
62.84000 3.731
62.86000 -0.270
62.88000 -1.707
62.90000 1.417
62.92000 4.572
62.94000 4.896
62.96000 4.551
62.98000 2.110
63.00000 0.618
63.02000 2.776
63.04000 2.573
63.06000 1.198
63.08000 1.326
63.10000 2.777
63.12000 1.891
63.14000 5.752
63.16000 4.281
63.18000 0.949
63.20000 -0.387
63.22000 1.035
63.24000 0.408
63.26000 2.354
63.28000 3.793
63.30000 4.113
63.32000 1.371
63.34000 -0.757
63.36000 2.229
63.38000 0.830
63.40000 2.253
63.42000 0.387
63.44000 -0.607
63.46000 0.501
63.48000 -1.509
63.50000 0.198
63.52000 1.878
63.54000 2.563
63.56000 1.535
63.58000 1.443
63.60000 1.845
63.62000 2.675
63.64000 2.482
63.66000 -2.222
63.68000 0.660
63.70000 2.670
63.72000 2.097
63.74000 3.260
63.76000 -1.282
63.78000 1.992
63.80000 4.467
63.82000 2.988
63.84000 2.579
63.86000 2.659
63.88000 2.016
63.90000 -0.611
63.92000 3.182
63.94000 2.297
63.96000 0.679
63.98000 3.464
64.00000 0.773
64.02000 0.669
64.04000 1.030
64.06000 0.929
64.08000 -0.147
64.10000 1.167
64.12000 0.033
64.14000 -2.214
64.16000 3.685
64.18000 5.468
64.20000 4.065
64.22000 1.771
64.24000 -0.327
64.26000 -0.114
64.28000 1.982
64.30000 2.321
64.32000 1.212
64.34000 2.674
64.36000 2.260
64.38000 0.190
64.40000 0.258
64.42000 -0.419
64.44000 0.746
64.46000 1.369
64.48000 0.862
64.50000 1.196
64.52000 3.458
64.54000 2.427
64.56000 2.330
64.58000 2.684
64.60000 6.162
64.62000 4.170
64.64000 3.428
64.66000 0.806
64.68000 0.692
64.70000 4.312
64.72000 4.232
64.74000 3.785
64.76000 3.195
64.78000 1.153
64.80000 2.336
64.82000 1.480
64.84000 0.707
64.86000 1.520
64.88000 4.881
64.90000 3.075
64.92000 -0.567
64.94000 2.548
64.96000 3.357
64.98000 2.818
65.00000 1.054
65.02000 0.147
65.04000 1.315
65.06000 -0.388
65.08000 0.377
65.10000 0.939
65.12000 1.209
65.14000 0.009
65.16000 -1.224
65.18000 0.381
65.20000 -0.491
65.22000 -0.497
65.24000 -1.604
65.26000 -0.995
65.28000 0.313
65.30000 3.202
65.32000 2.057
65.34000 0.478
65.36000 -1.870
65.38000 1.583
65.40000 1.984
65.42000 1.116
65.44000 2.157
65.46000 0.418
65.48000 2.116
65.50000 -0.955
65.52000 0.406
65.54000 2.076
65.56000 2.353
65.58000 4.956
65.60000 3.239
65.62000 0.916
65.64000 -0.749
65.66000 0.273
65.68000 1.270
65.70000 1.107
65.72000 -1.213
65.74000 -2.193
65.76000 3.629
65.78000 2.213
65.80000 1.612
65.82000 3.145
65.84000 2.685
65.86000 3.744
65.88000 2.066
65.90000 1.458
65.92000 1.557
65.94000 2.096
65.96000 3.891
65.98000 3.265
66.00000 3.555
66.02000 1.589
66.04000 -1.695
66.06000 2.502
66.08000 2.299
66.10000 0.613
66.12000 3.427
66.14000 2.627
66.16000 3.244
66.18000 5.915
66.20000 3.506
66.22000 0.418
66.24000 3.165
66.26000 2.929
66.28000 2.378
66.30000 3.496
66.32000 3.185
66.34000 3.291
66.36000 0.883
66.38000 -1.027
66.40000 0.619
66.42000 2.588
66.44000 4.270
66.46000 3.597
66.48000 2.545
66.50000 3.203
66.52000 5.783
66.54000 4.640
66.56000 2.444
66.58000 4.224
66.60000 5.215
66.62000 5.249
66.64000 5.942
66.66000 5.216
66.68000 2.348
66.70000 1.329
66.72000 2.642
66.74000 4.157
66.76000 5.331
66.78000 7.068
66.80000 5.390
66.82000 7.195
66.84000 4.098
66.86000 4.994
66.88000 5.535
66.90000 8.755
66.92000 10.120
66.94000 7.636
66.96000 11.260
66.98000 9.244
67.00000 9.438
67.02000 7.016
67.04000 9.467
67.06000 8.980
67.08000 8.475
67.10000 9.465
67.12000 7.320
67.14000 8.585
67.16000 7.257
67.18000 9.774
67.20000 9.472
67.22000 6.994
67.24000 6.056
67.26000 9.832
67.28000 8.625
67.30000 11.067
67.32000 9.509
67.34000 8.763
67.36000 7.035
67.38000 5.143
67.40000 7.399
67.42000 7.271
67.44000 7.913
67.46000 5.223
67.48000 9.880
67.50000 11.119
67.52000 7.247
67.54000 6.438
67.56000 5.777
67.58000 6.333
67.60000 2.645
67.62000 4.465
67.64000 4.984
67.66000 2.437
67.68000 2.270
67.70000 4.318
67.72000 3.958
67.74000 2.506
67.76000 0.747
67.78000 5.161
67.80000 6.177
67.82000 3.134
67.84000 2.363
67.86000 2.640
67.88000 2.475
67.90000 4.191
67.92000 3.951
67.94000 1.229
67.96000 1.559
67.98000 1.709
68.00000 1.629
68.02000 4.270
68.04000 3.711
68.06000 0.856
68.08000 -2.141
68.10000 -2.065
68.12000 -0.074
68.14000 0.768
68.16000 -0.691
68.18000 -0.038
68.20000 2.117
68.22000 1.634
68.24000 3.831
68.26000 2.469
68.28000 1.438
68.30000 0.884
68.32000 0.493
68.34000 -0.382
68.36000 2.462
68.38000 -0.336
68.40000 -2.106
68.42000 -0.166
68.44000 1.507
68.46000 -0.218
68.48000 2.246
68.50000 1.738
68.52000 0.106
68.54000 2.471
68.56000 4.747
68.58000 3.008
68.60000 3.438
68.62000 3.162
68.64000 1.631
68.66000 -2.104
68.68000 -1.792
68.70000 -0.415
68.72000 3.487
68.74000 2.822
68.76000 -0.314
68.78000 0.592
68.80000 4.250
68.82000 2.522
68.84000 1.918
68.86000 0.408
68.88000 -0.076
68.90000 -1.301
68.92000 0.881
68.94000 2.288
68.96000 1.101
68.98000 2.608
69.00000 1.210
69.02000 1.547
69.04000 1.946
69.06000 1.983
69.08000 0.185
69.10000 -0.161
69.12000 -0.202
69.14000 2.538
69.16000 1.355
69.18000 2.350
69.20000 3.430
69.22000 1.606
69.24000 -0.812
69.26000 0.727
69.28000 -0.406
69.30000 0.988
69.32000 0.719
69.34000 1.027
69.36000 -0.263
69.38000 -1.689
69.40000 0.418
69.42000 -0.915
69.44000 0.076
69.46000 1.580
69.48000 -0.904
69.50000 -0.476
69.52000 2.490
69.54000 3.465
69.56000 3.086
69.58000 0.923
69.60000 0.596
69.62000 2.392
69.64000 2.564
69.66000 -0.854
69.68000 -2.055
69.70000 -0.018
69.72000 1.253
69.74000 -1.037
69.76000 2.240
69.78000 2.556
69.80000 3.096
69.82000 3.371
69.84000 0.510
69.86000 0.237
69.88000 -0.814
69.90000 -0.068
69.92000 1.900
69.94000 -0.941
69.96000 -0.577
69.98000 1.182
70.00000 3.152
70.02000 2.687
70.04000 3.615
70.06000 1.724
70.08000 2.113
70.10000 3.595
70.12000 1.602
70.14000 0.236
70.16000 0.908
70.18000 1.427
70.20000 1.721
70.22000 4.895
70.24000 1.085
70.26000 -2.017
70.28000 1.083
70.30000 2.727
70.32000 0.855
70.34000 2.149
70.36000 1.936
70.38000 3.338
70.40000 4.555
70.42000 2.002
70.44000 4.710
70.46000 4.158
70.48000 1.852
70.50000 1.013
70.52000 2.028
70.54000 2.103
70.56000 1.575
70.58000 0.154
70.60000 -1.328
70.62000 0.328
70.64000 3.978
70.66000 1.171
70.68000 -0.084
70.70000 2.432
70.72000 2.946
70.74000 1.871
70.76000 -0.028
70.78000 0.884
70.80000 0.473
70.82000 3.015
70.84000 1.595
70.86000 0.381
70.88000 -0.381
70.90000 -2.013
70.92000 -1.287
70.94000 0.869
70.96000 2.094
70.98000 -0.301
71.00000 2.760
71.02000 4.774
71.04000 0.367
71.06000 -1.845
71.08000 0.442
71.10000 2.419
71.12000 3.438
71.14000 1.397
71.16000 0.398
71.18000 0.680
71.20000 1.403
71.22000 -0.207
71.24000 1.831
71.26000 3.146
71.28000 1.830
71.30000 0.970
71.32000 0.597
71.34000 0.251
71.36000 1.318
71.38000 3.216
71.40000 1.187
71.42000 0.379
71.44000 2.637
71.46000 -0.063
71.48000 -1.644
71.50000 1.255
71.52000 1.487
71.54000 -0.243
71.56000 -2.001
71.58000 0.448
71.60000 0.628
71.62000 -0.793
71.64000 0.371
71.66000 0.215
71.68000 -0.341
71.70000 -0.352
71.72000 -0.455
71.74000 0.006
71.76000 -0.426
71.78000 2.775
71.80000 2.562
71.82000 -0.336
71.84000 -1.794
71.86000 1.087
71.88000 4.661
71.90000 2.279
71.92000 1.418
71.94000 1.053
71.96000 0.030
71.98000 1.085
72.00000 1.489
72.02000 2.054
72.04000 0.418
72.06000 -0.228
72.08000 3.339
72.10000 2.459
72.12000 1.849
72.14000 1.831
72.16000 -1.174
72.18000 -1.961
72.20000 -1.182
72.22000 -1.415
72.24000 0.454
72.26000 0.097
72.28000 -1.085
72.30000 -1.095
72.32000 3.234
72.34000 4.383
72.36000 4.075
72.38000 4.058
72.40000 2.864
72.42000 2.496
72.44000 1.511
72.46000 1.469
72.48000 0.025
72.50000 -0.685
72.52000 0.645
72.54000 2.125
72.56000 2.455
72.58000 -1.255
72.60000 -1.088
72.62000 -0.189
72.64000 0.597
72.66000 0.932
72.68000 -0.874
72.70000 1.235
72.72000 2.602
72.74000 3.407
72.76000 1.146
72.78000 2.550
72.80000 4.222
72.82000 2.369
72.84000 1.118
72.86000 -1.939
72.88000 0.566
72.90000 6.245
72.92000 4.646
72.94000 0.474
72.96000 -1.175
72.98000 0.331
73.00000 -0.001
73.02000 -1.890
73.04000 -0.182
73.06000 2.056
73.08000 0.713
73.10000 -1.935
73.12000 -0.125
73.14000 2.349
73.16000 2.968
73.18000 1.171
73.20000 0.284
73.22000 1.549
73.24000 1.838
73.26000 0.347
73.28000 1.059
73.30000 -0.071
73.32000 -0.709
73.34000 -1.405
73.36000 4.352
73.38000 3.238
73.40000 2.890
73.42000 2.683
73.44000 2.606
73.46000 0.410
73.48000 0.895
73.50000 1.498
73.52000 -0.632
73.54000 0.480
73.56000 0.157
73.58000 0.375
73.60000 2.424
73.62000 0.852
73.64000 -0.144
73.66000 2.086
73.68000 1.558
73.70000 1.297
73.72000 1.167
73.74000 0.473
73.76000 2.436
73.78000 0.176
73.80000 2.450
73.82000 -0.289
73.84000 2.096
73.86000 3.102
73.88000 -0.736
73.90000 -1.082
73.92000 -1.920
73.94000 0.009
73.96000 1.541
73.98000 2.459
74.00000 1.642
74.02000 2.211
74.04000 2.110
74.06000 1.723
74.08000 1.863
74.10000 -0.268
74.12000 -0.141
74.14000 -0.549
74.16000 -1.023
74.18000 -0.955
74.20000 -1.396
74.22000 -1.123
74.24000 2.454
74.26000 1.614
74.28000 1.887
74.30000 0.073
74.32000 2.864
74.34000 2.910
74.36000 2.147
74.38000 4.251
74.40000 1.425
74.42000 3.312
74.44000 2.203
74.46000 3.498
74.48000 4.376
74.50000 2.041
74.52000 -0.155
74.54000 2.576
74.56000 1.214
74.58000 2.251
74.60000 0.906
74.62000 -1.585
74.64000 1.382
74.66000 -0.199
74.68000 3.327
74.70000 2.400
74.72000 -1.738
74.74000 0.738
74.76000 1.628
74.78000 0.763
74.80000 1.399
74.82000 2.812
74.84000 1.088
74.86000 -1.945
74.88000 1.228
74.90000 1.804
74.92000 1.634
74.94000 2.971
74.96000 0.153
74.98000 -1.796
75.00000 1.524
75.02000 1.681
75.04000 2.019
75.06000 2.243
75.08000 1.890
75.10000 2.291
75.12000 2.411
75.14000 2.782
75.16000 0.947
75.18000 0.066
75.20000 -1.183
75.22000 -0.477
75.24000 0.466
75.26000 0.601
75.28000 2.206
75.30000 0.131
75.32000 1.567
75.34000 -0.267
75.36000 1.622
75.38000 1.743
75.40000 0.375
75.42000 0.169
75.44000 0.522
75.46000 0.096
75.48000 0.761
75.50000 1.074
75.52000 1.240
75.54000 0.891
75.56000 0.557
75.58000 1.873
75.60000 0.901
75.62000 -1.929
75.64000 -1.757
75.66000 1.420
75.68000 0.298
75.70000 1.252
75.72000 3.879
75.74000 3.733
75.76000 2.266
75.78000 3.492
75.80000 5.205
75.82000 4.042
75.84000 2.007
75.86000 -0.106
75.88000 -1.225
75.90000 3.218
75.92000 3.442
75.94000 0.636
75.96000 -0.960
75.98000 -1.386
76.00000 -0.727
76.02000 1.959
76.04000 5.579
76.06000 4.383
76.08000 -0.012
76.10000 -0.349
76.12000 2.555
76.14000 3.823
76.16000 3.129
76.18000 3.589
76.20000 3.981
76.22000 2.288
76.24000 1.815
76.26000 4.097
76.28000 3.597
76.30000 2.957
76.32000 1.507
76.34000 2.208
76.36000 1.658
76.38000 1.534
76.40000 -0.856
76.42000 3.419
76.44000 0.527
76.46000 -0.072
76.48000 4.649
76.50000 3.497
76.52000 3.022
76.54000 1.196
76.56000 4.289
76.58000 3.604
76.60000 1.719
76.62000 1.820
76.64000 6.634
76.66000 3.057
76.68000 2.213
76.70000 4.125
76.72000 2.715
76.74000 2.072
76.76000 2.244
76.78000 3.954
76.80000 4.129
76.82000 2.955
76.84000 6.347
76.86000 2.670
76.88000 5.308
76.90000 4.149
76.92000 -0.099
76.94000 1.752
76.96000 3.782
76.98000 1.918
77.00000 4.005
77.02000 5.605
77.04000 4.265
77.06000 3.423
77.08000 3.371
77.10000 1.619
77.12000 -1.917
77.14000 1.230
77.16000 2.944
77.18000 2.644
77.20000 1.881
77.22000 2.850
77.24000 0.892
77.26000 5.122
77.28000 2.949
77.30000 2.857
77.32000 3.569
77.34000 1.246
77.36000 2.130
77.38000 5.820
77.40000 4.893
77.42000 1.462
77.44000 3.045
77.46000 6.988
77.48000 1.937
77.50000 -0.204
77.52000 0.958
77.54000 0.041
77.56000 2.346
77.58000 2.778
77.60000 0.244
77.62000 1.390
77.64000 5.026
77.66000 2.113
77.68000 -0.858
77.70000 0.241
77.72000 0.946
77.74000 -0.197
77.76000 -1.253
77.78000 0.738
77.80000 1.730
77.82000 0.408
77.84000 2.105
77.86000 2.876
77.88000 2.932
77.90000 1.729
77.92000 2.482
77.94000 4.068
77.96000 -0.387
77.98000 2.251
78.00000 2.126
78.02000 2.145
78.04000 5.304
78.06000 3.841
78.08000 -1.156
78.10000 -0.450
78.12000 -1.987
78.14000 1.147
78.16000 2.434
78.18000 1.505
78.20000 1.660
78.22000 2.203
78.24000 2.290
78.26000 2.891
78.28000 1.762
78.30000 -1.890
78.32000 -1.779
78.34000 0.689
78.36000 3.473
78.38000 0.930
78.40000 2.482
78.42000 -0.273
78.44000 -1.396
78.46000 -2.011
78.48000 1.317
78.50000 2.064
78.52000 1.837
78.54000 4.055
78.56000 3.185
78.58000 1.507
78.60000 1.506
78.62000 1.834
78.64000 1.540
78.66000 0.407
78.68000 3.441
78.70000 2.576
78.72000 1.706
78.74000 -1.080
78.76000 1.010
78.78000 3.200
78.80000 0.014
78.82000 0.274
78.84000 -0.346
78.86000 -0.048
78.88000 1.539
78.90000 2.847
78.92000 0.070
78.94000 0.994
78.96000 -1.177
78.98000 1.043
79.00000 0.702
79.02000 -0.149
79.04000 1.039
79.06000 -1.821
79.08000 -2.039
79.10000 1.170
79.12000 3.462
79.14000 1.618
79.16000 1.385
79.18000 2.630
79.20000 1.522
79.22000 -0.296
79.24000 1.771
79.26000 4.437
79.28000 6.305
79.30000 3.608
79.32000 1.061
79.34000 -0.810
79.36000 -1.585
79.38000 0.146
79.40000 1.996
79.42000 1.302
79.44000 2.558
79.46000 5.111
79.48000 1.507
79.50000 -1.219
79.52000 0.884
79.54000 1.974
79.56000 0.998
79.58000 3.655
79.60000 2.409
79.62000 2.531
79.64000 3.611
79.66000 2.651
79.68000 0.775
79.70000 2.501
79.72000 4.375
79.74000 3.916
79.76000 4.851
79.78000 4.489
79.80000 4.259
79.82000 2.619
79.84000 3.518
79.86000 2.768
79.88000 2.685
79.90000 4.633
79.92000 3.878
79.94000 5.478
79.96000 8.739
79.98000 3.924
80.00000 1.058
80.02000 2.424
80.04000 4.874
80.06000 5.508
80.08000 9.978
80.10000 9.709
80.12000 9.163
80.14000 7.319
80.16000 2.351
80.18000 4.805
80.20000 6.897
80.22000 7.735
80.24000 5.541
80.26000 5.008
80.28000 3.619
80.30000 7.305
80.32000 9.521
80.34000 13.321
80.36000 11.089
80.38000 11.445
80.40000 11.283
80.42000 11.641
80.44000 11.221
80.46000 13.444
80.48000 15.574
80.50000 16.502
80.52000 11.634
80.54000 11.239
80.56000 12.817
80.58000 12.928
80.60000 13.526
80.62000 12.079
80.64000 11.161
80.66000 14.570
80.68000 16.120
80.70000 18.509
80.72000 18.789
80.74000 19.176
80.76000 18.278
80.78000 17.526
80.80000 19.434
80.82000 16.615
80.84000 17.278
80.86000 18.891
80.88000 15.964
80.90000 16.392
80.92000 20.261
80.94000 18.973
80.96000 22.030
80.98000 19.353
81.00000 16.597
81.02000 16.797
81.04000 15.203
81.06000 16.159
81.08000 18.275
81.10000 20.151
81.12000 21.361
81.14000 15.592
81.16000 20.607
81.18000 20.716
81.20000 18.119
81.22000 17.095
81.24000 17.127
81.26000 17.640
81.28000 18.963
81.30000 17.893
81.32000 14.587
81.34000 15.077
81.36000 18.937
81.38000 15.624
81.40000 14.759
81.42000 16.261
81.44000 15.990
81.46000 12.385
81.48000 10.092
81.50000 11.785
81.52000 14.191
81.54000 12.960
81.56000 9.766
81.58000 10.518
81.60000 9.571
81.62000 6.854
81.64000 7.028
81.66000 8.117
81.68000 6.264
81.70000 4.245
81.72000 8.777
81.74000 6.807
81.76000 3.731
81.78000 2.445
81.80000 6.633
81.82000 6.287
81.84000 4.239
81.86000 2.795
81.88000 4.916
81.90000 6.580
81.92000 4.261
81.94000 4.140
81.96000 4.530
81.98000 4.845
82.00000 3.555
82.02000 5.026
82.04000 6.039
82.06000 8.053
82.08000 4.681
82.10000 1.834
82.12000 -0.761
82.14000 1.869
82.16000 0.076
82.18000 -1.020
82.20000 1.896
82.22000 5.112
82.24000 6.307
82.26000 2.532
82.28000 -0.714
82.30000 -2.158
82.32000 -0.830
82.34000 4.057
82.36000 4.799
82.38000 3.543
82.40000 4.797
82.42000 4.705
82.44000 1.732
82.46000 1.927
82.48000 3.340
82.50000 1.402
82.52000 -0.491
82.54000 -1.759
82.56000 1.332
82.58000 -0.008
82.60000 -0.022
82.62000 0.089
82.64000 -0.453
82.66000 -0.571
82.68000 1.052
82.70000 1.188
82.72000 3.027
82.74000 3.322
82.76000 1.390
82.78000 2.003
82.80000 1.985
82.82000 0.506
82.84000 0.817
82.86000 3.604
82.88000 6.224
82.90000 0.311
82.92000 -2.086
82.94000 3.757
82.96000 4.527
82.98000 3.131
83.00000 1.471
83.02000 3.077
83.04000 4.315
83.06000 4.524
83.08000 3.597
83.10000 1.458
83.12000 0.783
83.14000 3.530
83.16000 3.787
83.18000 0.447
83.20000 2.363
83.22000 4.898
83.24000 2.679
83.26000 3.373
83.28000 3.260
83.30000 3.817
83.32000 3.827
83.34000 1.865
83.36000 3.613
83.38000 9.164
83.40000 5.512
83.42000 4.323
83.44000 4.491
83.46000 2.863
83.48000 4.102
83.50000 4.264
83.52000 4.466
83.54000 2.791
83.56000 3.287
83.58000 0.464
83.60000 3.227
83.62000 5.021
83.64000 4.337
83.66000 4.641
83.68000 4.774
83.70000 2.073
83.72000 1.708
83.74000 4.149
83.76000 7.063
83.78000 5.487
83.80000 5.642
83.82000 6.936
83.84000 7.897
83.86000 10.221
83.88000 9.680
83.90000 6.394
83.92000 4.366
83.94000 6.880
83.96000 6.864
83.98000 12.864
84.00000 10.871
84.02000 7.026
84.04000 7.674
84.06000 9.474
84.08000 11.312
84.10000 13.771
84.12000 11.619
84.14000 14.031
84.16000 14.251
84.18000 14.570
84.20000 13.866
84.22000 17.347
84.24000 16.095
84.26000 15.243
84.28000 16.939
84.30000 19.132
84.32000 17.053
84.34000 15.668
84.36000 18.841
84.38000 19.871
84.40000 17.146
84.42000 19.618
84.44000 20.427
84.46000 22.669
84.48000 21.033
84.50000 20.342
84.52000 24.803
84.54000 25.650
84.56000 27.750
84.58000 22.188
84.60000 26.974
84.62000 27.262
84.64000 23.817
84.66000 22.353
84.68000 25.330
84.70000 29.118
84.72000 26.537
84.74000 27.561
84.76000 27.803
84.78000 29.871
84.80000 25.355
84.82000 27.461
84.84000 29.666
84.86000 30.454
84.88000 31.624
84.90000 31.904
84.92000 27.258
84.94000 24.835
84.96000 26.589
84.98000 29.541
85.00000 25.564
85.02000 22.706
85.04000 22.397
85.06000 25.123
85.08000 24.559
85.10000 22.214
85.12000 20.933
85.14000 24.036
85.16000 25.049
85.18000 23.279
85.20000 24.104
85.22000 20.708
85.24000 20.211
85.26000 16.881
85.28000 22.028
85.30000 19.777
85.32000 18.115
85.34000 18.358
85.36000 17.851
85.38000 16.903
85.40000 16.395
85.42000 18.297
85.44000 15.617
85.46000 9.353
85.48000 12.590
85.50000 13.316
85.52000 10.203
85.54000 8.387
85.56000 6.667
85.58000 8.579
85.60000 11.048
85.62000 10.503
85.64000 11.000
85.66000 11.364
85.68000 3.971
85.70000 6.293
85.72000 9.847
85.74000 8.372
85.76000 7.270
85.78000 7.014
85.80000 5.036
85.82000 2.830
85.84000 4.046
85.86000 5.208
85.88000 2.317
85.90000 2.665
85.92000 3.327
85.94000 2.040
85.96000 3.782
85.98000 4.220
86.00000 1.050
86.02000 -0.080
86.04000 -1.447
86.06000 2.296
86.08000 3.140
86.10000 -2.030
86.12000 1.597
86.14000 1.303
86.16000 -1.119
86.18000 0.638
86.20000 -0.608
86.22000 -1.859
86.24000 0.586
86.26000 0.242
86.28000 0.404
86.30000 1.484
86.32000 1.647
86.34000 -0.547
86.36000 -1.622
86.38000 0.303
86.40000 2.157
86.42000 0.176
86.44000 1.447
86.46000 2.736
86.48000 -0.277
86.50000 -1.965
86.52000 -0.134
86.54000 -0.330
86.56000 0.457
86.58000 -1.359
86.60000 -0.582
86.62000 -0.801
86.64000 3.756
86.66000 3.833
86.68000 2.496
86.70000 2.329
86.72000 0.098
86.74000 -1.571
86.76000 0.969
86.78000 0.519
86.80000 -1.008
86.82000 1.882
86.84000 0.162
86.86000 -1.900
86.88000 -1.089
86.90000 1.193
86.92000 2.576
86.94000 4.249
86.96000 3.509
86.98000 0.716
87.00000 1.670
87.02000 3.806
87.04000 1.810
87.06000 -1.879
87.08000 1.214
87.10000 1.824
87.12000 1.317
87.14000 0.535
87.16000 1.740
87.18000 -1.773
87.20000 -1.863
87.22000 0.777
87.24000 2.403
87.26000 3.175
87.28000 1.445
87.30000 1.170
87.32000 2.729
87.34000 3.469
87.36000 2.093
87.38000 3.411
87.40000 1.130
87.42000 -0.193
87.44000 2.308
87.46000 1.812
87.48000 1.923
87.50000 0.201
87.52000 0.318
87.54000 -1.382
87.56000 -1.305
87.58000 -1.245
87.60000 3.010
87.62000 2.343
87.64000 2.486
87.66000 1.527
87.68000 3.499
87.70000 4.378
87.72000 1.726
87.74000 -0.746
87.76000 0.996
87.78000 -0.672
87.80000 -1.845
87.82000 -1.294
87.84000 0.578
87.86000 -1.367
87.88000 -1.853
87.90000 4.050
87.92000 3.108
87.94000 3.249
87.96000 1.749
87.98000 2.626
88.00000 2.706
88.02000 1.809
88.04000 0.372
88.06000 0.972
88.08000 -1.205
88.10000 -1.508
88.12000 1.054
88.14000 0.274
88.16000 -0.090
88.18000 1.636
88.20000 4.150
88.22000 3.700
88.24000 3.977
88.26000 4.983
88.28000 0.545
88.30000 -0.494
88.32000 0.186
88.34000 2.868
88.36000 4.263
88.38000 4.498
88.40000 3.251
88.42000 3.041
88.44000 0.055
88.46000 0.553
88.48000 2.571
88.50000 3.350
88.52000 0.329
88.54000 2.647
88.56000 5.855
88.58000 3.703
88.60000 0.176
88.62000 1.491
88.64000 0.087
88.66000 1.564
88.68000 3.315
88.70000 6.637
88.72000 5.180
88.74000 2.477
88.76000 -1.816
88.78000 -0.261
88.80000 0.026
88.82000 0.615
88.84000 4.918
88.86000 4.328
88.88000 2.838
88.90000 1.242
88.92000 1.781
88.94000 0.577
88.96000 2.023
88.98000 2.779
89.00000 2.161
89.02000 1.052
89.04000 1.232
89.06000 1.394
89.08000 1.469
89.10000 -1.129
89.12000 -1.545
89.14000 -0.093
89.16000 2.603
89.18000 5.323
89.20000 4.320
89.22000 0.984
89.24000 -1.429
89.26000 -0.659
89.28000 1.104
89.30000 2.429
89.32000 1.151
89.34000 0.613
89.36000 0.005
89.38000 3.477
89.40000 1.488
89.42000 0.757
89.44000 0.793
89.46000 1.663
89.48000 -0.292
89.50000 0.376
89.52000 2.420
89.54000 2.482
89.56000 1.331
89.58000 0.049
89.60000 2.481
89.62000 3.068
89.64000 4.720
89.66000 3.605
89.68000 5.223
89.70000 3.832
89.72000 3.576
89.74000 3.933
89.76000 1.655
89.78000 -1.307
89.80000 0.173
89.82000 0.275
89.84000 -1.807
89.86000 -0.369
89.88000 0.863
89.90000 2.747
89.92000 3.792
89.94000 2.545
89.96000 1.628
89.98000 1.619
90.00000 1.840
90.02000 1.842
90.04000 2.712
90.06000 4.498
90.08000 5.001
90.10000 2.714
90.12000 2.762
90.14000 1.050
90.16000 -0.305
90.18000 2.585
90.20000 3.146
90.22000 1.236
90.24000 1.114
90.26000 2.218
90.28000 0.400
90.30000 1.348
90.32000 2.655
90.34000 3.211
90.36000 1.185
90.38000 5.614
90.40000 5.733
90.42000 3.163
90.44000 1.259
90.46000 3.368
90.48000 4.692
90.50000 1.271
90.52000 -1.780
90.54000 -1.074
90.56000 0.142
90.58000 -0.247
90.60000 2.685
90.62000 1.851
90.64000 0.762
90.66000 3.858
90.68000 5.399
90.70000 1.551
90.72000 1.664
90.74000 0.716
90.76000 0.613
90.78000 1.773
90.80000 2.274
90.82000 3.375
90.84000 3.141
90.86000 3.681
90.88000 1.387
90.90000 1.687
90.92000 2.320
90.94000 0.691
90.96000 0.569
90.98000 5.441
91.00000 3.663
91.02000 1.978
91.04000 0.199
91.06000 2.520
91.08000 3.423
91.10000 2.172
91.12000 0.899
91.14000 -0.868
91.16000 0.892
91.18000 2.703
91.20000 5.562
91.22000 5.181
91.24000 2.939
91.26000 4.105
91.28000 7.378
91.30000 5.648
91.32000 3.999
91.34000 3.145
91.36000 2.877
91.38000 3.829
91.40000 3.783
91.42000 0.997
91.44000 1.808
91.46000 -0.987
91.48000 1.299
91.50000 0.486
91.52000 2.352
91.54000 4.714
91.56000 3.486
91.58000 3.996
91.60000 4.538
91.62000 5.768
91.64000 4.310
91.66000 -1.140
91.68000 1.058
91.70000 1.776
91.72000 4.373
91.74000 2.595
91.76000 5.882
91.78000 9.163
91.80000 8.867
91.82000 4.597
91.84000 0.005
91.86000 0.323
91.88000 0.843
91.90000 1.103
91.92000 -0.493
91.94000 0.229
91.96000 6.241
91.98000 6.109
92.00000 6.896
92.02000 3.959
92.04000 4.582
92.06000 4.026
92.08000 1.913
92.10000 -1.770
92.12000 0.326
92.14000 3.576
92.16000 5.952
92.18000 5.607
92.20000 5.230
92.22000 5.300
92.24000 5.306
92.26000 3.151
92.28000 4.137
92.30000 2.944
92.32000 2.576
92.34000 5.384
92.36000 6.200
92.38000 5.767
92.40000 4.264
92.42000 4.662
92.44000 3.365
92.46000 4.387
92.48000 4.100
92.50000 1.580
92.52000 5.681
92.54000 3.994
92.56000 0.327
92.58000 1.832
92.60000 2.895
92.62000 1.544
92.64000 1.442
92.66000 1.742
92.68000 2.696
92.70000 5.358
92.72000 1.667
92.74000 -1.235
92.76000 -1.336
92.78000 1.154
92.80000 3.059
92.82000 1.257
92.84000 0.828
92.86000 3.543
92.88000 2.040
92.90000 4.086
92.92000 2.720
92.94000 -0.268
92.96000 1.288
92.98000 2.338
93.00000 2.196
93.02000 0.864
93.04000 2.166
93.06000 1.858
93.08000 1.320
93.10000 2.960
93.12000 4.043
93.14000 3.318
93.16000 4.296
93.18000 3.306
93.20000 -0.152
93.22000 2.149
93.24000 5.296
93.26000 3.047
93.28000 2.082
93.30000 2.625
93.32000 2.164
93.34000 -0.682
93.36000 3.074
93.38000 2.175
93.40000 -0.398
93.42000 0.642
93.44000 4.341
93.46000 3.869
93.48000 0.864
93.50000 -0.132
93.52000 -1.366
93.54000 -0.513
93.56000 -1.204
93.58000 -0.739
93.60000 -0.210
93.62000 1.218
93.64000 3.842
93.66000 4.794
93.68000 0.322
93.70000 -0.450
93.72000 2.939
93.74000 0.038
93.76000 0.433
93.78000 0.543
93.80000 0.250
93.82000 -1.823
93.84000 0.314
93.86000 4.872
93.88000 2.015
93.90000 1.710
93.92000 4.298
93.94000 1.887
93.96000 0.917
93.98000 3.798
94.00000 2.852
94.02000 3.093
94.04000 4.183
94.06000 3.890
94.08000 3.672
94.10000 5.723
94.12000 4.378
94.14000 1.085
94.16000 0.073
94.18000 1.923
94.20000 2.887
94.22000 1.189
94.24000 4.985
94.26000 3.263
94.28000 1.965
94.30000 3.131
94.32000 2.005
94.34000 2.849
94.36000 0.966
94.38000 0.277
94.40000 1.704
94.42000 1.491
94.44000 1.730
94.46000 1.705
94.48000 1.068
94.50000 1.474
94.52000 4.050
94.54000 3.507
94.56000 -1.754
94.58000 -1.413
94.60000 -1.833
94.62000 -0.094
94.64000 1.170
94.66000 2.405
94.68000 3.234
94.70000 3.922
94.72000 3.344
94.74000 3.802
94.76000 2.992
94.78000 2.565
94.80000 3.503
94.82000 -0.783
94.84000 0.505
94.86000 4.519
94.88000 3.045
94.90000 -1.623
94.92000 0.459
94.94000 3.780
94.96000 6.494
94.98000 4.772
95.00000 1.394
95.02000 2.603
95.04000 3.447
95.06000 3.562
95.08000 1.961
95.10000 1.675
95.12000 1.813
95.14000 -1.835
95.16000 1.260
95.18000 3.445
95.20000 4.206
95.22000 6.330
95.24000 4.399
95.26000 5.286
95.28000 5.366
95.30000 2.719
95.32000 5.232
95.34000 3.198
95.36000 1.293
95.38000 2.928
95.40000 1.725
95.42000 3.738
95.44000 5.048
95.46000 1.314
95.48000 -0.520
95.50000 0.311
95.52000 1.030
95.54000 2.467
95.56000 1.706
95.58000 3.870
95.60000 5.825
95.62000 5.062
95.64000 2.117
95.66000 0.404
95.68000 2.833
95.70000 3.375
95.72000 -0.177
95.74000 -1.819
95.76000 2.045
95.78000 4.750
95.80000 2.264
95.82000 2.215
95.84000 1.346
95.86000 0.804
95.88000 1.750
95.90000 2.878
95.92000 0.804
95.94000 1.440
95.96000 1.897
95.98000 -1.299
96.00000 -0.200
96.02000 1.583
96.04000 2.498
96.06000 0.205
96.08000 -0.294
96.10000 4.131
96.12000 2.366
96.14000 5.483
96.16000 3.775
96.18000 4.369
96.20000 2.802
96.22000 3.669
96.24000 2.640
96.26000 3.349
96.28000 3.803
96.30000 2.120
96.32000 3.873
96.34000 6.029
96.36000 1.231
96.38000 0.347
96.40000 3.962
96.42000 3.347
96.44000 7.691
96.46000 5.009
96.48000 4.705
96.50000 2.889
96.52000 5.846
96.54000 2.315
96.56000 2.761
96.58000 0.497
96.60000 0.938
96.62000 4.116
96.64000 0.621
96.66000 -1.810
96.68000 0.772
96.70000 8.891
96.72000 5.304
96.74000 4.505
96.76000 2.578
96.78000 6.900
96.80000 5.920
96.82000 3.245
96.84000 5.371
96.86000 5.801
96.88000 6.127
96.90000 2.951
96.92000 6.171
96.94000 6.647
96.96000 10.486
96.98000 3.778
97.00000 -0.812
97.02000 1.079
97.04000 5.601
97.06000 4.516
97.08000 3.600
97.10000 3.949
97.12000 2.567
97.14000 1.073
97.16000 4.083
97.18000 5.127
97.20000 6.008
97.22000 7.347
97.24000 7.282
97.26000 6.625
97.28000 3.681
97.30000 1.313
97.32000 1.744
97.34000 5.198
97.36000 3.751
97.38000 5.198
97.40000 10.441
97.42000 8.511
97.44000 4.717
97.46000 0.368
97.48000 4.442
97.50000 4.615
97.52000 2.906
97.54000 4.652
97.56000 1.966
97.58000 3.410
97.60000 3.959
97.62000 4.894
97.64000 1.109
97.66000 2.198
97.68000 4.037
97.70000 4.866
97.72000 5.864
97.74000 2.063
97.76000 1.070
97.78000 -1.749
97.80000 3.176
97.82000 5.670
97.84000 7.457
97.86000 10.565
97.88000 7.525
97.90000 7.366
97.92000 7.366
97.94000 3.530
97.96000 1.322
97.98000 3.329
98.00000 9.644
98.02000 10.266
98.04000 8.902
98.06000 8.223
98.08000 5.379
98.10000 -1.736
98.12000 2.303
98.14000 2.578
98.16000 3.143
98.18000 4.327
98.20000 7.752
98.22000 7.241
98.24000 3.390
98.26000 1.031
98.28000 7.190
98.30000 10.094
98.32000 8.542
98.34000 6.413
98.36000 5.727
98.38000 3.655
98.40000 5.269
98.42000 3.482
98.44000 6.195
98.46000 5.561
98.48000 5.773
98.50000 5.813
98.52000 6.965
98.54000 7.341
98.56000 5.728
98.58000 5.648
98.60000 4.453
98.62000 8.701
98.64000 3.132
98.66000 6.575
98.68000 9.487
98.70000 8.022
98.72000 5.043
98.74000 5.333
98.76000 -0.004
98.78000 3.161
98.80000 7.273
98.82000 8.385
98.84000 8.159
98.86000 2.961
98.88000 0.266
98.90000 4.986
98.92000 6.575
98.94000 6.900
98.96000 12.985
98.98000 9.562
99.00000 8.705
99.02000 5.903
99.04000 1.671
99.06000 0.730
99.08000 0.267
99.10000 11.466
99.12000 6.483
99.14000 5.557
99.16000 3.395
99.18000 -1.745
99.20000 2.245
99.22000 0.677
99.24000 0.794
99.26000 2.689
99.28000 5.474
99.30000 5.489
99.32000 6.994
99.34000 9.864
99.36000 7.215
99.38000 1.859
99.40000 -1.394
99.42000 6.719
99.44000 8.370
99.46000 12.377
99.48000 10.424
99.50000 4.757
99.52000 4.039
99.54000 3.555
99.56000 7.251
99.58000 0.989
99.60000 0.231
99.62000 4.927
99.64000 6.650
99.66000 7.529
99.68000 6.867
99.70000 5.762
99.72000 4.685
99.74000 4.866
99.76000 1.274
99.78000 5.118
99.80000 7.180
99.82000 6.377
99.84000 2.165
99.86000 -1.781
99.88000 2.595
99.90000 3.272
99.92000 3.901
99.94000 -0.753
99.96000 -2.036
99.98000 0.000
