'Id: "0011389" Comment: "Integrate frame 0011389_Au-Ir-Rh_Au-Rich_XRD_Mapping-101-0000.gfrmwith cursor Wedge Cursor #5" Operator: "B?rgel" Anode: "Cu" Wavelength: "1.5406" Scantype: "2Theta (TwoTheta)" TimePerStep: "1" X: "-13.5" Y: "-13.5" Z: "5.95" 
10.00000 0.000
10.02000 -4.536
10.04000 -3.538
10.06000 1.342
10.08000 -5.083
10.10000 10.831
10.12000 18.238
10.14000 7.833
10.16000 17.553
10.18000 20.752
10.20000 7.889
10.22000 5.816
10.24000 14.298
10.26000 14.417
10.28000 25.229
10.30000 30.602
10.32000 24.449
10.34000 9.654
10.36000 3.952
10.38000 -4.294
10.40000 5.404
10.42000 14.005
10.44000 27.291
10.46000 21.902
10.48000 15.998
10.50000 17.441
10.52000 17.459
10.54000 4.608
10.56000 7.535
10.58000 18.226
10.60000 8.120
10.62000 5.529
10.64000 13.410
10.66000 7.982
10.68000 -4.311
10.70000 12.046
10.72000 24.016
10.74000 33.822
10.76000 24.008
10.78000 4.124
10.80000 4.454
10.82000 5.898
10.84000 9.968
10.86000 9.233
10.88000 2.371
10.90000 -1.222
10.92000 -1.603
10.94000 2.329
10.96000 6.727
10.98000 9.726
11.00000 17.386
11.02000 20.342
11.04000 21.009
11.06000 19.864
11.08000 23.006
11.10000 9.358
11.12000 12.057
11.14000 21.952
11.16000 14.290
11.18000 19.265
11.20000 19.297
11.22000 22.434
11.24000 27.491
11.26000 30.863
11.28000 27.156
11.30000 12.075
11.32000 12.206
11.34000 7.736
11.36000 4.146
11.38000 10.115
11.40000 13.893
11.42000 29.420
11.44000 23.536
11.46000 16.220
11.48000 5.986
11.50000 0.022
11.52000 8.185
11.54000 12.917
11.56000 13.129
11.58000 7.360
11.60000 7.061
11.62000 16.458
11.64000 7.512
11.66000 9.661
11.68000 11.530
11.70000 22.673
11.72000 21.539
11.74000 18.404
11.76000 22.679
11.78000 7.973
11.80000 7.140
11.82000 2.537
11.84000 9.797
11.86000 8.586
11.88000 -3.076
11.90000 2.515
11.92000 5.699
11.94000 9.102
11.96000 12.349
11.98000 12.188
12.00000 15.083
12.02000 7.866
12.04000 10.714
12.06000 9.925
12.08000 1.814
12.10000 7.390
12.12000 5.898
12.14000 5.369
12.16000 8.911
12.18000 7.136
12.20000 7.923
12.22000 0.330
12.24000 7.782
12.26000 10.146
12.28000 16.298
12.30000 23.764
12.32000 19.498
12.34000 16.585
12.36000 18.342
12.38000 14.017
12.40000 20.135
12.42000 24.686
12.44000 14.530
12.46000 5.777
12.48000 11.890
12.50000 15.007
12.52000 21.348
12.54000 18.007
12.56000 14.057
12.58000 12.493
12.60000 7.941
12.62000 15.332
12.64000 16.391
12.66000 14.355
12.68000 5.221
12.70000 3.420
12.72000 6.925
12.74000 12.050
12.76000 11.091
12.78000 12.013
12.80000 10.221
12.82000 13.787
12.84000 17.171
12.86000 17.543
12.88000 20.512
12.90000 23.969
12.92000 15.056
12.94000 3.878
12.96000 -1.585
12.98000 8.387
13.00000 13.689
13.02000 9.159
13.04000 10.049
13.06000 12.942
13.08000 16.714
13.10000 18.170
13.12000 8.468
13.14000 8.458
13.16000 16.028
13.18000 14.074
13.20000 -1.260
13.22000 10.681
13.24000 8.286
13.26000 10.936
13.28000 12.967
13.30000 10.914
13.32000 12.956
13.34000 12.155
13.36000 -1.803
13.38000 4.609
13.40000 13.662
13.42000 10.403
13.44000 5.358
13.46000 2.975
13.48000 2.336
13.50000 6.878
13.52000 7.664
13.54000 8.536
13.56000 11.898
13.58000 14.513
13.60000 12.001
13.62000 0.354
13.64000 3.298
13.66000 4.091
13.68000 -3.546
13.70000 -1.531
13.72000 0.260
13.74000 4.770
13.76000 9.070
13.78000 6.543
13.80000 15.568
13.82000 5.248
13.84000 -0.904
13.86000 1.597
13.88000 4.688
13.90000 6.030
13.92000 9.536
13.94000 19.907
13.96000 14.571
13.98000 7.750
14.00000 2.196
14.02000 5.309
14.04000 5.806
14.06000 0.200
14.08000 5.807
14.10000 8.718
14.12000 16.029
14.14000 11.097
14.16000 6.926
14.18000 5.780
14.20000 14.366
14.22000 16.729
14.24000 5.004
14.26000 7.022
14.28000 11.155
14.30000 5.308
14.32000 0.318
14.34000 2.838
14.36000 2.671
14.38000 8.365
14.40000 8.967
14.42000 9.617
14.44000 14.222
14.46000 0.185
14.48000 3.515
14.50000 9.354
14.52000 2.409
14.54000 -2.195
14.56000 7.593
14.58000 16.799
14.60000 14.834
14.62000 9.520
14.64000 11.868
14.66000 8.911
14.68000 10.729
14.70000 9.297
14.72000 3.228
14.74000 -0.038
14.76000 2.479
14.78000 6.181
14.80000 6.458
14.82000 18.556
14.84000 21.919
14.86000 13.216
14.88000 13.203
14.90000 6.408
14.92000 6.400
14.94000 12.180
14.96000 3.985
14.98000 9.777
15.00000 15.465
15.02000 10.197
15.04000 9.074
15.06000 4.229
15.08000 3.121
15.10000 11.138
15.12000 0.993
15.14000 11.266
15.16000 10.050
15.18000 8.289
15.20000 11.268
15.22000 8.187
15.24000 -0.281
15.26000 1.476
15.28000 1.333
15.30000 11.324
15.32000 12.461
15.34000 11.947
15.36000 17.154
15.38000 8.892
15.40000 12.625
15.42000 12.681
15.44000 17.652
15.46000 11.264
15.48000 12.133
15.50000 14.616
15.52000 11.431
15.54000 11.763
15.56000 11.286
15.58000 7.158
15.60000 -4.411
15.62000 -3.344
15.64000 2.837
15.66000 5.814
15.68000 8.022
15.70000 10.207
15.72000 11.556
15.74000 8.364
15.76000 8.633
15.78000 9.064
15.80000 10.050
15.82000 9.189
15.84000 5.347
15.86000 -1.813
15.88000 6.803
15.90000 15.940
15.92000 7.645
15.94000 3.552
15.96000 0.485
15.98000 6.242
16.00000 9.697
16.02000 8.667
16.04000 12.739
16.06000 17.118
16.08000 5.856
16.10000 6.225
16.12000 4.817
16.14000 -4.300
16.16000 -2.808
16.18000 2.768
16.20000 8.451
16.22000 8.246
16.24000 3.568
16.26000 4.338
16.28000 7.450
16.30000 12.023
16.32000 3.496
16.34000 6.466
16.36000 9.515
16.38000 9.504
16.40000 10.830
16.42000 12.612
16.44000 10.580
16.46000 8.352
16.48000 -2.649
16.50000 0.132
16.52000 7.285
16.54000 7.286
16.56000 8.583
16.58000 10.203
16.60000 7.411
16.62000 1.461
16.64000 6.362
16.66000 3.503
16.68000 0.163
16.70000 1.177
16.72000 5.338
16.74000 5.413
16.76000 4.767
16.78000 11.121
16.80000 10.088
16.82000 -0.535
16.84000 0.209
16.86000 4.232
16.88000 2.193
16.90000 -0.457
16.92000 1.212
16.94000 3.897
16.96000 3.075
16.98000 7.145
17.00000 14.198
17.02000 11.045
17.04000 12.896
17.06000 10.608
17.08000 7.100
17.10000 3.454
17.12000 6.584
17.14000 4.566
17.16000 3.218
17.18000 2.161
17.20000 4.698
17.22000 7.832
17.24000 8.280
17.26000 6.471
17.28000 8.101
17.30000 5.114
17.32000 8.472
17.34000 8.821
17.36000 8.966
17.38000 2.858
17.40000 -4.099
17.42000 0.111
17.44000 4.644
17.46000 -1.197
17.48000 3.794
17.50000 3.505
17.52000 2.366
17.54000 4.229
17.56000 7.782
17.58000 2.183
17.60000 0.680
17.62000 2.360
17.64000 2.257
17.66000 4.076
17.68000 7.644
17.70000 3.633
17.72000 8.994
17.74000 10.976
17.76000 13.147
17.78000 7.606
17.80000 10.993
17.82000 13.204
17.84000 12.287
17.86000 10.535
17.88000 7.033
17.90000 6.056
17.92000 0.109
17.94000 3.673
17.96000 6.720
17.98000 14.933
18.00000 8.232
18.02000 7.505
18.04000 8.997
18.06000 2.803
18.08000 4.532
18.10000 3.430
18.12000 2.542
18.14000 1.660
18.16000 0.049
18.18000 0.861
18.20000 5.525
18.22000 5.903
18.24000 8.267
18.26000 13.191
18.28000 9.779
18.30000 5.858
18.32000 9.063
18.34000 9.599
18.36000 2.087
18.38000 4.197
18.40000 5.682
18.42000 7.417
18.44000 2.524
18.46000 5.490
18.48000 12.614
18.50000 10.681
18.52000 13.459
18.54000 14.053
18.56000 6.782
18.58000 10.404
18.60000 4.135
18.62000 2.607
18.64000 10.857
18.66000 8.215
18.68000 2.652
18.70000 1.657
18.72000 -4.261
18.74000 1.460
18.76000 11.117
18.78000 10.596
18.80000 6.993
18.82000 8.682
18.84000 9.494
18.86000 2.717
18.88000 -1.829
18.90000 1.532
18.92000 5.693
18.94000 9.150
18.96000 5.820
18.98000 6.380
19.00000 5.757
19.02000 -0.966
19.04000 4.552
19.06000 1.177
19.08000 -3.596
19.10000 -0.013
19.12000 5.716
19.14000 5.739
19.16000 6.899
19.18000 5.728
19.20000 7.802
19.22000 9.359
19.24000 7.742
19.26000 8.592
19.28000 5.430
19.30000 8.630
19.32000 6.841
19.34000 2.705
19.36000 1.793
19.38000 5.058
19.40000 10.628
19.42000 8.493
19.44000 7.901
19.46000 2.413
19.48000 2.791
19.50000 10.157
19.52000 4.147
19.54000 5.425
19.56000 5.032
19.58000 1.702
19.60000 7.193
19.62000 4.357
19.64000 4.889
19.66000 0.341
19.68000 -1.150
19.70000 -3.163
19.72000 0.810
19.74000 6.864
19.76000 8.005
19.78000 5.693
19.80000 6.473
19.82000 0.972
19.84000 3.366
19.86000 2.746
19.88000 1.276
19.90000 2.909
19.92000 2.263
19.94000 5.985
19.96000 6.806
19.98000 10.418
20.00000 9.831
20.02000 1.259
20.04000 5.681
20.06000 7.441
20.08000 10.593
20.10000 5.847
20.12000 10.511
20.14000 1.389
20.16000 5.657
20.18000 4.864
20.20000 3.681
20.22000 1.240
20.24000 4.907
20.26000 -4.087
20.28000 -2.089
20.30000 0.110
20.32000 -0.508
20.34000 0.705
20.36000 0.159
20.38000 8.734
20.40000 10.167
20.42000 11.207
20.44000 2.388
20.46000 7.069
20.48000 2.621
20.50000 4.779
20.52000 7.505
20.54000 7.841
20.56000 3.586
20.58000 4.741
20.60000 7.890
20.62000 2.194
20.64000 4.387
20.66000 6.164
20.68000 6.389
20.70000 0.928
20.72000 3.525
20.74000 8.633
20.76000 0.515
20.78000 1.090
20.80000 3.230
20.82000 2.948
20.84000 -4.131
20.86000 -1.888
20.88000 2.393
20.90000 10.111
20.92000 11.323
20.94000 9.881
20.96000 7.806
20.98000 5.870
21.00000 6.812
21.02000 5.857
21.04000 5.664
21.06000 -0.052
21.08000 2.255
21.10000 -2.764
21.12000 -1.905
21.14000 -2.026
21.16000 1.636
21.18000 2.813
21.20000 4.793
21.22000 5.964
21.24000 12.091
21.26000 12.932
21.28000 5.787
21.30000 -1.847
21.32000 -1.565
21.34000 4.192
21.36000 3.750
21.38000 4.825
21.40000 2.788
21.42000 9.450
21.44000 5.212
21.46000 1.673
21.48000 1.471
21.50000 -0.079
21.52000 1.213
21.54000 -4.111
21.56000 2.412
21.58000 8.869
21.60000 6.219
21.62000 2.074
21.64000 7.109
21.66000 3.445
21.68000 0.520
21.70000 0.684
21.72000 2.352
21.74000 8.805
21.76000 4.197
21.78000 -3.060
21.80000 -1.357
21.82000 3.523
21.84000 6.597
21.86000 8.812
21.88000 9.265
21.90000 12.598
21.92000 6.117
21.94000 6.205
21.96000 0.713
21.98000 3.577
22.00000 1.682
22.02000 2.109
22.04000 6.701
22.06000 6.452
22.08000 2.981
22.10000 6.553
22.12000 7.589
22.14000 5.067
22.16000 6.911
22.18000 4.321
22.20000 0.219
22.22000 1.666
22.24000 2.649
22.26000 0.043
22.28000 4.143
22.30000 3.073
22.32000 4.497
22.34000 5.723
22.36000 0.121
22.38000 -4.065
22.40000 -3.055
22.42000 -0.015
22.44000 -0.367
22.46000 1.352
22.48000 2.832
22.50000 2.061
22.52000 2.126
22.54000 5.261
22.56000 2.580
22.58000 3.670
22.60000 5.496
22.62000 8.970
22.64000 7.221
22.66000 5.410
22.68000 -3.178
22.70000 1.780
22.72000 4.099
22.74000 6.044
22.76000 5.513
22.78000 12.082
22.80000 4.785
22.82000 6.568
22.84000 4.675
22.86000 4.109
22.88000 4.496
22.90000 2.172
22.92000 -0.697
22.94000 -0.911
22.96000 4.009
22.98000 3.554
23.00000 0.070
23.02000 -2.534
23.04000 -2.669
23.06000 -1.208
23.08000 -2.760
23.10000 2.911
23.12000 0.924
23.14000 3.416
23.16000 1.794
23.18000 1.857
23.20000 0.343
23.22000 0.715
23.24000 -2.257
23.26000 3.539
23.28000 5.861
23.30000 3.254
23.32000 6.381
23.34000 1.603
23.36000 4.445
23.38000 6.105
23.40000 0.644
23.42000 6.298
23.44000 9.921
23.46000 14.623
23.48000 4.049
23.50000 1.545
23.52000 1.637
23.54000 4.641
23.56000 6.385
23.58000 6.908
23.60000 -0.048
23.62000 5.878
23.64000 7.478
23.66000 4.688
23.68000 2.639
23.70000 3.850
23.72000 7.545
23.74000 7.591
23.76000 9.134
23.78000 5.629
23.80000 6.386
23.82000 6.776
23.84000 7.139
23.86000 11.816
23.88000 17.275
23.90000 14.945
23.92000 6.024
23.94000 4.306
23.96000 7.395
23.98000 2.695
24.00000 5.165
24.02000 13.549
24.04000 6.662
24.06000 1.822
24.08000 -1.898
24.10000 -3.700
24.12000 4.035
24.14000 1.881
24.16000 -1.137
24.18000 5.849
24.20000 14.854
24.22000 10.739
24.24000 5.561
24.26000 6.888
24.28000 4.534
24.30000 6.064
24.32000 9.888
24.34000 6.399
24.36000 5.510
24.38000 1.207
24.40000 -0.510
24.42000 1.156
24.44000 -3.937
24.46000 2.444
24.48000 4.491
24.50000 0.407
24.52000 8.004
24.54000 10.818
24.56000 6.482
24.58000 6.869
24.60000 10.763
24.62000 7.501
24.64000 6.167
24.66000 4.742
24.68000 -1.776
24.70000 3.476
24.72000 7.187
24.74000 7.632
24.76000 11.401
24.78000 7.655
24.80000 3.442
24.82000 4.327
24.84000 1.802
24.86000 4.063
24.88000 4.580
24.90000 -0.988
24.92000 0.844
24.94000 -0.705
24.96000 0.982
24.98000 5.124
25.00000 3.192
25.02000 5.089
25.04000 2.183
25.06000 -1.100
25.08000 2.234
25.10000 1.820
25.12000 4.254
25.14000 8.607
25.16000 6.124
25.18000 -2.837
25.20000 2.932
25.22000 3.834
25.24000 7.278
25.26000 6.721
25.28000 3.202
25.30000 2.115
25.32000 1.363
25.34000 5.616
25.36000 6.876
25.38000 5.351
25.40000 5.043
25.42000 3.181
25.44000 2.254
25.46000 4.141
25.48000 8.594
25.50000 5.387
25.52000 2.685
25.54000 1.325
25.56000 -0.752
25.58000 0.816
25.60000 2.306
25.62000 2.167
25.64000 2.796
25.66000 1.666
25.68000 0.103
25.70000 2.350
25.72000 5.026
25.74000 2.882
25.76000 1.491
25.78000 6.374
25.80000 5.944
25.82000 0.130
25.84000 3.416
25.86000 6.243
25.88000 0.069
25.90000 -0.426
25.92000 2.749
25.94000 6.484
25.96000 9.887
25.98000 3.471
26.00000 1.125
26.02000 1.966
26.04000 0.500
26.06000 1.013
26.08000 -0.987
26.10000 5.501
26.12000 3.813
26.14000 5.434
26.16000 0.229
26.18000 -2.924
26.20000 2.945
26.22000 5.221
26.24000 -0.635
26.26000 -1.424
26.28000 5.242
26.30000 5.573
26.32000 -0.973
26.34000 3.000
26.36000 4.725
26.38000 5.093
26.40000 6.902
26.42000 2.402
26.44000 3.035
26.46000 5.202
26.48000 0.140
26.50000 1.014
26.52000 6.816
26.54000 1.191
26.56000 -3.685
26.58000 -3.853
26.60000 1.383
26.62000 6.133
26.64000 4.674
26.66000 1.512
26.68000 8.211
26.70000 6.357
26.72000 3.553
26.74000 0.289
26.76000 0.529
26.78000 4.566
26.80000 10.666
26.82000 9.646
26.84000 4.411
26.86000 11.077
26.88000 8.377
26.90000 2.007
26.92000 0.087
26.94000 0.988
26.96000 -0.448
26.98000 3.645
27.00000 5.561
27.02000 1.810
27.04000 2.593
27.06000 2.218
27.08000 6.159
27.10000 2.892
27.12000 -3.491
27.14000 -2.446
27.16000 -0.606
27.18000 2.941
27.20000 3.852
27.22000 2.327
27.24000 -2.362
27.26000 -1.156
27.28000 3.318
27.30000 0.472
27.32000 4.673
27.34000 6.585
27.36000 5.816
27.38000 3.222
27.40000 2.989
27.42000 5.046
27.44000 4.126
27.46000 -1.681
27.48000 -3.573
27.50000 0.679
27.52000 -0.584
27.54000 4.306
27.56000 5.064
27.58000 3.531
27.60000 0.492
27.62000 0.068
27.64000 1.550
27.66000 6.960
27.68000 8.194
27.70000 7.005
27.72000 3.129
27.74000 6.661
27.76000 3.982
27.78000 5.204
27.80000 4.892
27.82000 0.154
27.84000 -3.797
27.86000 0.441
27.88000 -1.201
27.90000 0.797
27.92000 2.247
27.94000 1.606
27.96000 -1.672
27.98000 4.169
28.00000 5.705
28.02000 1.157
28.04000 8.393
28.06000 3.812
28.08000 1.167
28.10000 5.380
28.12000 3.291
28.14000 5.703
28.16000 7.248
28.18000 4.446
28.20000 2.160
28.22000 6.580
28.24000 6.555
28.26000 -0.608
28.28000 -3.425
28.30000 -2.321
28.32000 3.922
28.34000 4.036
28.36000 6.071
28.38000 2.308
28.40000 2.273
28.42000 -1.697
28.44000 -2.583
28.46000 -0.347
28.48000 0.554
28.50000 5.404
28.52000 3.874
28.54000 1.127
28.56000 3.953
28.58000 6.732
28.60000 3.121
28.62000 -2.159
28.64000 2.118
28.66000 8.585
28.68000 7.488
28.70000 7.578
28.72000 1.201
28.74000 0.645
28.76000 4.315
28.78000 6.904
28.80000 6.499
28.82000 6.006
28.84000 4.742
28.86000 2.316
28.88000 3.034
28.90000 8.327
28.92000 7.906
28.94000 5.625
28.96000 0.935
28.98000 4.050
29.00000 3.812
29.02000 6.665
29.04000 9.301
29.06000 10.611
29.08000 10.841
29.10000 9.011
29.12000 4.901
29.14000 -0.896
29.16000 -3.681
29.18000 1.608
29.20000 4.321
29.22000 1.924
29.24000 4.754
29.26000 9.026
29.28000 5.090
29.30000 5.436
29.32000 10.025
29.34000 11.700
29.36000 9.590
29.38000 7.044
29.40000 4.027
29.42000 2.008
29.44000 6.758
29.46000 6.284
29.48000 3.331
29.50000 9.389
29.52000 9.065
29.54000 3.018
29.56000 3.600
29.58000 4.209
29.60000 1.848
29.62000 2.076
29.64000 6.120
29.66000 2.320
29.68000 1.696
29.70000 9.124
29.72000 5.688
29.74000 5.423
29.76000 7.562
29.78000 0.983
29.80000 3.242
29.82000 4.544
29.84000 6.033
29.86000 3.352
29.88000 -0.328
29.90000 4.259
29.92000 8.030
29.94000 4.503
29.96000 5.912
29.98000 4.125
30.00000 5.224
30.02000 7.254
30.04000 4.293
30.06000 2.451
30.08000 5.195
30.10000 1.148
30.12000 2.326
30.14000 4.385
30.16000 7.275
30.18000 10.604
30.20000 3.704
30.22000 5.387
30.24000 0.656
30.26000 3.034
30.28000 1.285
30.30000 0.611
30.32000 -0.167
30.34000 6.275
30.36000 6.920
30.38000 5.892
30.40000 0.834
30.42000 -0.241
30.44000 1.455
30.46000 1.345
30.48000 -0.223
30.50000 -1.245
30.52000 7.108
30.54000 8.232
30.56000 4.142
30.58000 7.589
30.60000 5.847
30.62000 3.810
30.64000 4.936
30.66000 4.822
30.68000 5.004
30.70000 6.539
30.72000 3.520
30.74000 3.575
30.76000 4.902
30.78000 9.934
30.80000 7.485
30.82000 3.079
30.84000 0.641
30.86000 2.933
30.88000 -0.437
30.90000 -0.302
30.92000 -0.129
30.94000 1.160
30.96000 1.528
30.98000 1.642
31.00000 3.212
31.02000 1.187
31.04000 4.324
31.06000 4.773
31.08000 5.136
31.10000 4.582
31.12000 3.965
31.14000 -1.717
31.16000 -3.628
31.18000 -0.272
31.20000 1.013
31.22000 4.643
31.24000 5.736
31.26000 3.221
31.28000 1.046
31.30000 2.354
31.32000 2.083
31.34000 1.490
31.36000 5.000
31.38000 2.207
31.40000 1.443
31.42000 1.676
31.44000 3.491
31.46000 1.760
31.48000 0.910
31.50000 2.506
31.52000 1.446
31.54000 2.723
31.56000 2.465
31.58000 1.372
31.60000 6.698
31.62000 7.458
31.64000 9.211
31.66000 3.587
31.68000 -1.213
31.70000 -1.191
31.72000 -3.595
31.74000 -0.898
31.76000 2.536
31.78000 1.111
31.80000 0.779
31.82000 0.511
31.84000 9.391
31.86000 9.909
31.88000 3.612
31.90000 2.852
31.92000 -3.580
31.94000 1.451
31.96000 1.085
31.98000 -2.819
32.00000 1.303
32.02000 6.542
32.04000 8.772
32.06000 7.208
32.08000 7.002
32.10000 10.348
32.12000 11.916
32.14000 5.182
32.16000 1.825
32.18000 5.170
32.20000 4.370
32.22000 2.202
32.24000 1.423
32.26000 3.152
32.28000 -1.842
32.30000 -0.551
32.32000 0.414
32.34000 3.423
32.36000 3.471
32.38000 0.787
32.40000 1.111
32.42000 2.003
32.44000 5.435
32.46000 1.159
32.48000 2.425
32.50000 3.095
32.52000 7.375
32.54000 2.644
32.56000 2.124
32.58000 2.484
32.60000 4.475
32.62000 2.641
32.64000 0.105
32.66000 1.558
32.68000 0.538
32.70000 3.530
32.72000 5.758
32.74000 2.049
32.76000 2.675
32.78000 2.950
32.80000 2.853
32.82000 3.701
32.84000 3.464
32.86000 4.655
32.88000 3.729
32.90000 2.389
32.92000 2.449
32.94000 5.069
32.96000 4.343
32.98000 6.277
33.00000 8.711
33.02000 12.163
33.04000 1.736
33.06000 -3.580
33.08000 -2.258
33.10000 0.091
33.12000 2.086
33.14000 2.688
33.16000 4.444
33.18000 4.946
33.20000 -0.631
33.22000 2.204
33.24000 6.065
33.26000 5.783
33.28000 2.300
33.30000 5.279
33.32000 5.463
33.34000 1.700
33.36000 1.675
33.38000 0.988
33.40000 1.878
33.42000 3.184
33.44000 1.385
33.46000 5.804
33.48000 8.611
33.50000 0.456
33.52000 0.306
33.54000 -0.640
33.56000 6.806
33.58000 9.935
33.60000 4.252
33.62000 4.427
33.64000 7.548
33.66000 2.441
33.68000 2.768
33.70000 3.643
33.72000 0.912
33.74000 4.250
33.76000 5.288
33.78000 4.710
33.80000 2.985
33.82000 3.927
33.84000 1.771
33.86000 3.293
33.88000 4.193
33.90000 1.679
33.92000 6.424
33.94000 2.544
33.96000 4.695
33.98000 5.959
34.00000 4.586
34.02000 7.110
34.04000 2.662
34.06000 -0.008
34.08000 7.130
34.10000 4.970
34.12000 4.753
34.14000 3.136
34.16000 2.769
34.18000 1.906
34.20000 2.807
34.22000 -0.781
34.24000 3.783
34.26000 6.851
34.28000 5.792
34.30000 1.252
34.32000 5.022
34.34000 5.618
34.36000 3.778
34.38000 2.236
34.40000 6.690
34.42000 6.022
34.44000 2.023
34.46000 1.493
34.48000 3.718
34.50000 -2.846
34.52000 0.034
34.54000 1.980
34.56000 3.858
34.58000 -1.259
34.60000 -2.624
34.62000 1.923
34.64000 1.626
34.66000 -1.438
34.68000 -1.621
34.70000 -0.491
34.72000 1.931
34.74000 -0.658
34.76000 1.729
34.78000 4.122
34.80000 4.509
34.82000 1.969
34.84000 -0.198
34.86000 5.766
34.88000 2.713
34.90000 0.458
34.92000 0.720
34.94000 -0.561
34.96000 -0.973
34.98000 3.226
35.00000 6.564
35.02000 4.744
35.04000 2.110
35.06000 0.201
35.08000 1.014
35.10000 6.409
35.12000 7.967
35.14000 5.816
35.16000 0.895
35.18000 1.254
35.20000 4.758
35.22000 9.096
35.24000 7.577
35.26000 6.481
35.28000 6.655
35.30000 6.219
35.32000 7.567
35.34000 15.685
35.36000 8.806
35.38000 -3.347
35.40000 -3.521
35.42000 -1.663
35.44000 0.098
35.46000 3.877
35.48000 5.320
35.50000 9.382
35.52000 10.411
35.54000 6.461
35.56000 7.182
35.58000 5.290
35.60000 1.013
35.62000 -1.884
35.64000 1.958
35.66000 7.153
35.68000 3.695
35.70000 1.234
35.72000 6.446
35.74000 2.117
35.76000 5.791
35.78000 5.706
35.80000 3.202
35.82000 -0.121
35.84000 -1.296
35.86000 3.276
35.88000 6.021
35.90000 4.731
35.92000 5.061
35.94000 1.052
35.96000 3.689
35.98000 5.465
36.00000 2.828
36.02000 -1.119
36.04000 1.629
36.06000 -0.280
36.08000 0.877
36.10000 1.554
36.12000 3.618
36.14000 0.718
36.16000 1.390
36.18000 3.526
36.20000 1.138
36.22000 2.328
36.24000 -1.267
36.26000 -3.606
36.28000 -1.761
36.30000 4.338
36.32000 9.527
36.34000 4.566
36.36000 -0.703
36.38000 -3.542
36.40000 -0.261
36.42000 3.139
36.44000 3.991
36.46000 5.595
36.48000 3.119
36.50000 -0.663
36.52000 -0.668
36.54000 2.399
36.56000 -2.400
36.58000 0.537
36.60000 2.813
36.62000 1.609
36.64000 0.073
36.66000 1.794
36.68000 1.837
36.70000 2.606
36.72000 0.314
36.74000 0.743
36.76000 0.910
36.78000 -1.183
36.80000 0.984
36.82000 2.774
36.84000 5.369
36.86000 5.903
36.88000 1.224
36.90000 -1.474
36.92000 2.600
36.94000 1.438
36.96000 -3.653
36.98000 0.173
37.00000 -0.243
37.02000 -2.877
37.04000 -0.518
37.06000 2.803
37.08000 3.418
37.10000 -0.898
37.12000 1.612
37.14000 4.933
37.16000 8.737
37.18000 3.176
37.20000 5.782
37.22000 7.714
37.24000 5.830
37.26000 4.648
37.28000 3.790
37.30000 0.479
37.32000 -1.297
37.34000 3.565
37.36000 4.047
37.38000 2.681
37.40000 3.698
37.42000 4.936
37.44000 8.458
37.46000 11.356
37.48000 5.804
37.50000 2.936
37.52000 9.272
37.54000 12.331
37.56000 10.756
37.58000 11.660
37.60000 17.687
37.62000 14.151
37.64000 13.030
37.66000 11.143
37.68000 10.536
37.70000 11.428
37.72000 11.577
37.74000 12.893
37.76000 18.331
37.78000 18.650
37.80000 13.389
37.82000 7.368
37.84000 13.217
37.86000 23.310
37.88000 18.949
37.90000 19.071
37.92000 20.207
37.94000 22.930
37.96000 22.078
37.98000 20.825
38.00000 23.645
38.02000 20.884
38.04000 25.650
38.06000 29.285
38.08000 33.005
38.10000 33.205
38.12000 28.930
38.14000 30.228
38.16000 28.693
38.18000 28.914
38.20000 33.314
38.22000 37.265
38.24000 39.330
38.26000 41.887
38.28000 42.594
38.30000 40.843
38.32000 46.916
38.34000 44.804
38.36000 41.367
38.38000 43.876
38.40000 49.661
38.42000 52.396
38.44000 52.165
38.46000 59.576
38.48000 54.439
38.50000 60.163
38.52000 61.855
38.54000 64.159
38.56000 67.916
38.58000 71.183
38.60000 72.913
38.62000 71.956
38.64000 81.446
38.66000 82.028
38.68000 90.394
38.70000 93.011
38.72000 97.163
38.74000 102.806
38.76000 107.595
38.78000 111.455
38.80000 121.619
38.82000 131.403
38.84000 136.987
38.86000 142.453
38.88000 150.578
38.90000 162.583
38.92000 173.800
38.94000 183.902
38.96000 189.356
38.98000 202.708
39.00000 211.581
39.02000 228.953
39.04000 247.212
39.06000 269.393
39.08000 276.603
39.10000 291.254
39.12000 311.225
39.14000 324.587
39.16000 339.180
39.18000 356.976
39.20000 382.648
39.22000 401.107
39.24000 423.966
39.26000 440.515
39.28000 460.273
39.30000 484.276
39.32000 499.546
39.34000 520.456
39.36000 537.900
39.38000 550.631
39.40000 560.863
39.42000 569.500
39.44000 581.993
39.46000 589.060
39.48000 595.785
39.50000 591.989
39.52000 599.499
39.54000 599.625
39.56000 602.528
39.58000 597.332
39.60000 584.497
39.62000 566.794
39.64000 551.201
39.66000 534.510
39.68000 521.876
39.70000 508.457
39.72000 494.192
39.74000 474.649
39.76000 451.730
39.78000 435.106
39.80000 408.112
39.82000 390.321
39.84000 380.955
39.86000 349.056
39.88000 332.139
39.90000 316.804
39.92000 301.035
39.94000 286.253
39.96000 263.557
39.98000 241.961
40.00000 232.312
40.02000 214.139
40.04000 203.733
40.06000 195.553
40.08000 187.249
40.10000 173.461
40.12000 156.727
40.14000 132.821
40.16000 125.039
40.18000 126.935
40.20000 120.202
40.22000 108.956
40.24000 105.336
40.26000 96.897
40.28000 87.785
40.30000 82.314
40.32000 81.102
40.34000 75.102
40.36000 67.456
40.38000 62.772
40.40000 62.880
40.42000 61.888
40.44000 61.056
40.46000 55.052
40.48000 48.866
40.50000 45.191
40.52000 43.588
40.54000 41.752
40.56000 37.704
40.58000 37.144
40.60000 36.874
40.62000 36.436
40.64000 32.661
40.66000 31.401
40.68000 30.485
40.70000 27.175
40.72000 25.236
40.74000 28.437
40.76000 29.868
40.78000 28.274
40.80000 23.442
40.82000 22.011
40.84000 20.145
40.86000 26.882
40.88000 26.328
40.90000 19.311
40.92000 15.141
40.94000 15.896
40.96000 15.358
40.98000 15.633
41.00000 14.857
41.02000 14.481
41.04000 11.123
41.06000 12.494
41.08000 11.666
41.10000 9.232
41.12000 10.275
41.14000 12.746
41.16000 11.497
41.18000 11.537
41.20000 13.041
41.22000 11.801
41.24000 6.490
41.26000 6.207
41.28000 7.460
41.30000 4.811
41.32000 5.390
41.34000 6.251
41.36000 2.754
41.38000 3.562
41.40000 0.261
41.42000 -1.714
41.44000 6.438
41.46000 6.665
41.48000 6.556
41.50000 4.840
41.52000 4.049
41.54000 1.892
41.56000 0.078
41.58000 0.014
41.60000 1.391
41.62000 0.577
41.64000 2.569
41.66000 3.514
41.68000 6.657
41.70000 4.445
41.72000 6.416
41.74000 7.109
41.76000 2.907
41.78000 3.593
41.80000 2.066
41.82000 -0.986
41.84000 0.733
41.86000 1.265
41.88000 3.358
41.90000 5.095
41.92000 8.106
41.94000 4.871
41.96000 0.700
41.98000 1.849
42.00000 6.639
42.02000 4.646
42.04000 3.776
42.06000 0.110
42.08000 0.107
42.10000 1.202
42.12000 2.624
42.14000 6.490
42.16000 4.284
42.18000 0.633
42.20000 -1.842
42.22000 -1.553
42.24000 -3.329
42.26000 0.015
42.28000 1.353
42.30000 -0.263
42.32000 3.565
42.34000 2.488
42.36000 2.533
42.38000 2.363
42.40000 1.076
42.42000 2.701
42.44000 4.490
42.46000 3.040
42.48000 0.959
42.50000 5.051
42.52000 3.091
42.54000 6.603
42.56000 3.880
42.58000 5.611
42.60000 5.486
42.62000 2.740
42.64000 0.673
42.66000 -1.072
42.68000 0.647
42.70000 0.821
42.72000 2.461
42.74000 2.726
42.76000 0.424
42.78000 0.078
42.80000 -0.839
42.82000 1.931
42.84000 2.762
42.86000 -0.074
42.88000 3.776
42.90000 3.522
42.92000 1.415
42.94000 -0.210
42.96000 4.688
42.98000 3.614
43.00000 4.285
43.02000 -1.166
43.04000 -0.931
43.06000 -0.335
43.08000 -3.217
43.10000 1.042
43.12000 3.637
43.14000 3.885
43.16000 2.845
43.18000 2.438
43.20000 3.599
43.22000 -1.714
43.24000 -0.875
43.26000 3.752
43.28000 5.526
43.30000 2.538
43.32000 -0.589
43.34000 1.148
43.36000 1.339
43.38000 2.118
43.40000 1.829
43.42000 2.370
43.44000 3.734
43.46000 0.457
43.48000 -1.370
43.50000 -1.237
43.52000 1.646
43.54000 2.705
43.56000 4.503
43.58000 3.969
43.60000 2.729
43.62000 1.927
43.64000 1.828
43.66000 0.033
43.68000 2.829
43.70000 0.929
43.72000 -0.227
43.74000 0.618
43.76000 -0.805
43.78000 -3.164
43.80000 1.259
43.82000 0.736
43.84000 0.245
43.86000 0.427
43.88000 0.671
43.90000 0.445
43.92000 2.570
43.94000 1.059
43.96000 -2.499
43.98000 -2.770
44.00000 2.041
44.02000 4.642
44.04000 3.578
44.06000 0.834
44.08000 -0.600
44.10000 -1.083
44.12000 2.272
44.14000 2.512
44.16000 -1.696
44.18000 0.313
44.20000 0.660
44.22000 1.401
44.24000 0.769
44.26000 -1.362
44.28000 2.159
44.30000 -0.219
44.32000 0.873
44.34000 3.727
44.36000 4.289
44.38000 3.425
44.40000 0.418
44.42000 3.290
44.44000 -0.001
44.46000 4.559
44.48000 6.459
44.50000 3.980
44.52000 -1.354
44.54000 -0.356
44.56000 0.569
44.58000 1.550
44.60000 5.178
44.62000 5.079
44.64000 3.564
44.66000 -1.448
44.68000 0.219
44.70000 4.201
44.72000 1.799
44.74000 1.753
44.76000 4.229
44.78000 4.583
44.80000 2.257
44.82000 -0.610
44.84000 2.631
44.86000 2.706
44.88000 1.043
44.90000 1.218
44.92000 2.008
44.94000 4.710
44.96000 6.068
44.98000 6.052
45.00000 4.870
45.02000 5.939
45.04000 7.138
45.06000 5.875
45.08000 5.814
45.10000 10.357
45.12000 11.015
45.14000 8.010
45.16000 7.901
45.18000 8.246
45.20000 9.651
45.22000 11.877
45.24000 11.475
45.26000 13.739
45.28000 13.471
45.30000 15.172
45.32000 15.435
45.34000 15.603
45.36000 15.913
45.38000 22.217
45.40000 27.850
45.42000 22.797
45.44000 18.029
45.46000 19.992
45.48000 25.077
45.50000 27.588
45.52000 28.678
45.54000 28.750
45.56000 28.375
45.58000 30.983
45.60000 31.276
45.62000 34.800
45.64000 40.318
45.66000 33.990
45.68000 33.002
45.70000 32.622
45.72000 34.500
45.74000 37.972
45.76000 43.092
45.78000 46.517
45.80000 47.024
45.82000 52.511
45.84000 49.708
45.86000 50.160
45.88000 50.508
45.90000 52.938
45.92000 52.679
45.94000 52.778
45.96000 54.888
45.98000 57.176
46.00000 56.025
46.02000 60.975
46.04000 66.622
46.06000 64.982
46.08000 66.420
46.10000 66.296
46.12000 68.355
46.14000 68.425
46.16000 64.857
46.18000 64.209
46.20000 68.639
46.22000 67.606
46.24000 69.762
46.26000 64.267
46.28000 62.504
46.30000 62.665
46.32000 63.958
46.34000 63.675
46.36000 63.290
46.38000 61.074
46.40000 57.182
46.42000 59.711
46.44000 52.520
46.46000 52.101
46.48000 54.745
46.50000 52.257
46.52000 46.755
46.54000 41.034
46.56000 41.734
46.58000 41.395
46.60000 40.452
46.62000 38.249
46.64000 38.599
46.66000 35.528
46.68000 29.300
46.70000 31.556
46.72000 27.359
46.74000 28.674
46.76000 25.881
46.78000 24.892
46.80000 22.922
46.82000 18.212
46.84000 22.235
46.86000 26.360
46.88000 23.281
46.90000 16.399
46.92000 19.101
46.94000 21.011
46.96000 17.502
46.98000 11.649
47.00000 10.756
47.02000 5.385
47.04000 5.203
47.06000 10.386
47.08000 13.666
47.10000 8.905
47.12000 2.130
47.14000 1.227
47.16000 7.134
47.18000 12.273
47.20000 9.208
47.22000 7.564
47.24000 6.067
47.26000 2.945
47.28000 3.744
47.30000 4.239
47.32000 2.319
47.34000 2.924
47.36000 3.094
47.38000 4.441
47.40000 2.430
47.42000 2.515
47.44000 0.354
47.46000 2.395
47.48000 2.076
47.50000 -0.304
47.52000 2.198
47.54000 1.882
47.56000 3.814
47.58000 -0.468
47.60000 0.642
47.62000 -1.518
47.64000 -1.790
47.66000 -1.009
47.68000 -1.451
47.70000 0.109
47.72000 -0.342
47.74000 -0.068
47.76000 3.047
47.78000 1.025
47.80000 2.524
47.82000 1.916
47.84000 0.658
47.86000 1.738
47.88000 1.152
47.90000 2.771
47.92000 0.734
47.94000 1.639
47.96000 0.476
47.98000 1.753
48.00000 2.792
48.02000 0.369
48.04000 1.000
48.06000 -2.702
48.08000 2.557
48.10000 4.375
48.12000 0.083
48.14000 -2.682
48.16000 1.790
48.18000 3.115
48.20000 5.452
48.22000 8.419
48.24000 9.307
48.26000 8.593
48.28000 5.921
48.30000 3.255
48.32000 -0.552
48.34000 -1.362
48.36000 1.649
48.38000 1.855
48.40000 0.732
48.42000 3.422
48.44000 2.909
48.46000 4.165
48.48000 4.928
48.50000 6.082
48.52000 3.383
48.54000 5.297
48.56000 3.134
48.58000 3.792
48.60000 1.917
48.62000 2.239
48.64000 2.412
48.66000 4.952
48.68000 4.812
48.70000 3.956
48.72000 -0.152
48.74000 -2.609
48.76000 0.514
48.78000 1.961
48.80000 1.942
48.82000 1.337
48.84000 0.683
48.86000 3.554
48.88000 1.821
48.90000 -0.266
48.92000 0.966
48.94000 4.392
48.96000 4.518
48.98000 1.682
49.00000 -0.609
49.02000 2.350
49.04000 1.263
49.06000 -0.564
49.08000 3.294
49.10000 5.723
49.12000 5.106
49.14000 4.277
49.16000 0.820
49.18000 0.796
49.20000 -0.364
49.22000 -0.584
49.24000 2.405
49.26000 3.027
49.28000 4.451
49.30000 5.006
49.32000 2.301
49.34000 2.097
49.36000 3.235
49.38000 -1.785
49.40000 5.315
49.42000 3.644
49.44000 1.192
49.46000 3.922
49.48000 5.303
49.50000 3.294
49.52000 2.575
49.54000 -0.840
49.56000 3.779
49.58000 4.744
49.60000 4.195
49.62000 1.382
49.64000 -1.501
49.66000 -0.338
49.68000 1.176
49.70000 6.249
49.72000 4.448
49.74000 2.072
49.76000 3.941
49.78000 3.046
49.80000 3.407
49.82000 4.282
49.84000 3.050
49.86000 2.013
49.88000 0.805
49.90000 2.158
49.92000 7.144
49.94000 3.919
49.96000 0.374
49.98000 7.975
50.00000 8.655
50.02000 3.669
50.04000 -1.345
50.06000 3.063
50.08000 3.196
50.10000 -0.148
50.12000 -2.553
50.14000 -1.900
50.16000 -0.747
50.18000 0.217
50.20000 1.712
50.22000 -0.282
50.24000 3.833
50.26000 5.737
50.28000 6.066
50.30000 0.451
50.32000 0.508
50.34000 -1.096
50.36000 3.802
50.38000 1.261
50.40000 1.320
50.42000 2.603
50.44000 3.921
50.46000 2.005
50.48000 2.219
50.50000 2.889
50.52000 7.916
50.54000 4.300
50.56000 1.846
50.58000 1.097
50.60000 0.780
50.62000 5.091
50.64000 5.519
50.66000 5.204
50.68000 2.282
50.70000 -2.525
50.72000 -0.487
50.74000 1.368
50.76000 2.670
50.78000 6.103
50.80000 4.149
50.82000 2.931
50.84000 3.109
50.86000 2.655
50.88000 6.694
50.90000 4.318
50.92000 3.772
50.94000 1.958
50.96000 4.295
50.98000 2.753
51.00000 2.182
51.02000 1.665
51.04000 1.441
51.06000 3.584
51.08000 4.104
51.10000 -0.726
51.12000 2.305
51.14000 3.893
51.16000 2.888
51.18000 5.010
51.20000 2.790
51.22000 1.335
51.24000 1.525
51.26000 0.287
51.28000 3.424
51.30000 4.146
51.32000 4.206
51.34000 0.596
51.36000 3.822
51.38000 4.713
51.40000 1.609
51.42000 2.460
51.44000 2.674
51.46000 1.259
51.48000 3.805
51.50000 4.236
51.52000 2.203
51.54000 2.047
51.56000 3.010
51.58000 3.005
51.60000 3.012
51.62000 2.927
51.64000 2.463
51.66000 3.017
51.68000 4.842
51.70000 5.469
51.72000 2.780
51.74000 -0.204
51.76000 -1.955
51.78000 0.428
51.80000 4.311
51.82000 2.911
51.84000 2.475
51.86000 2.401
51.88000 0.901
51.90000 2.360
51.92000 2.353
51.94000 4.827
51.96000 4.256
51.98000 3.519
52.00000 5.875
52.02000 1.841
52.04000 4.992
52.06000 -0.775
52.08000 -0.377
52.10000 1.602
52.12000 2.156
52.14000 1.876
52.16000 4.137
52.18000 7.010
52.20000 7.706
52.22000 4.309
52.24000 1.606
52.26000 2.638
52.28000 3.536
52.30000 5.748
52.32000 3.917
52.34000 3.235
52.36000 4.391
52.38000 2.836
52.40000 -2.470
52.42000 2.969
52.44000 3.362
52.46000 2.145
52.48000 1.448
52.50000 0.556
52.52000 2.826
52.54000 1.995
52.56000 -1.762
52.58000 -0.649
52.60000 -2.471
52.62000 -0.709
52.64000 4.712
52.66000 -0.608
52.68000 -0.557
52.70000 2.844
52.72000 1.764
52.74000 1.993
52.76000 4.448
52.78000 4.967
52.80000 2.803
52.82000 2.113
52.84000 1.984
52.86000 -0.413
52.88000 -0.641
52.90000 2.345
52.92000 2.765
52.94000 0.775
52.96000 1.946
52.98000 1.829
53.00000 1.006
53.02000 2.222
53.04000 3.688
53.06000 2.736
53.08000 1.857
53.10000 1.179
53.12000 2.912
53.14000 3.675
53.16000 2.038
53.18000 -1.784
53.20000 -0.176
53.22000 4.178
53.24000 7.148
53.26000 4.993
53.28000 7.603
53.30000 4.380
53.32000 3.165
53.34000 3.982
53.36000 2.003
53.38000 0.763
53.40000 3.116
53.42000 -0.775
53.44000 1.231
53.46000 3.873
53.48000 2.142
53.50000 -2.457
53.52000 1.915
53.54000 -0.657
53.56000 0.689
53.58000 6.952
53.60000 4.214
53.62000 3.220
53.64000 1.668
53.66000 1.307
53.68000 1.788
53.70000 1.869
53.72000 2.688
53.74000 2.890
53.76000 2.078
53.78000 1.894
53.80000 2.769
53.82000 2.726
53.84000 3.036
53.86000 2.600
53.88000 1.250
53.90000 0.557
53.92000 1.767
53.94000 2.608
53.96000 -0.021
53.98000 0.477
54.00000 2.796
54.02000 3.309
54.04000 2.766
54.06000 2.725
54.08000 1.373
54.10000 4.692
54.12000 4.997
54.14000 3.605
54.16000 0.803
54.18000 3.258
54.20000 1.971
54.22000 0.212
54.24000 0.073
54.26000 1.743
54.28000 0.128
54.30000 -1.564
54.32000 0.534
54.34000 0.778
54.36000 1.487
54.38000 1.819
54.40000 1.262
54.42000 1.304
54.44000 3.811
54.46000 2.993
54.48000 0.378
54.50000 -2.257
54.52000 0.140
54.54000 1.767
54.56000 -0.261
54.58000 -1.134
54.60000 1.387
54.62000 0.396
54.64000 -2.445
54.66000 3.366
54.68000 3.517
54.70000 3.381
54.72000 3.330
54.74000 3.185
54.76000 1.360
54.78000 -0.786
54.80000 -1.013
54.82000 0.481
54.84000 4.575
54.86000 0.824
54.88000 4.480
54.90000 4.092
54.92000 -0.401
54.94000 1.205
54.96000 1.444
54.98000 1.628
55.00000 0.372
55.02000 -0.442
55.04000 -1.543
55.06000 2.314
55.08000 2.465
55.10000 -0.265
55.12000 1.279
55.14000 3.975
55.16000 0.749
55.18000 -0.619
55.20000 0.990
55.22000 1.262
55.24000 4.904
55.26000 6.956
55.28000 2.772
55.30000 5.223
55.32000 7.084
55.34000 5.627
55.36000 3.403
55.38000 2.494
55.40000 0.748
55.42000 2.691
55.44000 2.350
55.46000 0.713
55.48000 3.195
55.50000 5.027
55.52000 2.465
55.54000 2.009
55.56000 3.401
55.58000 3.542
55.60000 4.730
55.62000 2.986
55.64000 0.681
55.66000 0.900
55.68000 1.913
55.70000 5.115
55.72000 3.866
55.74000 2.010
55.76000 -2.397
55.78000 -0.510
55.80000 3.074
55.82000 -0.475
55.84000 1.113
55.86000 0.988
55.88000 3.237
55.90000 2.644
55.92000 -1.684
55.94000 -0.991
55.96000 1.815
55.98000 3.773
56.00000 6.100
56.02000 3.384
56.04000 4.206
56.06000 2.809
56.08000 6.067
56.10000 5.567
56.12000 2.956
56.14000 0.113
56.16000 0.351
56.18000 4.626
56.20000 0.982
56.22000 0.551
56.24000 1.128
56.26000 1.658
56.28000 4.232
56.30000 4.932
56.32000 3.324
56.34000 2.513
56.36000 1.869
56.38000 0.954
56.40000 2.271
56.42000 3.425
56.44000 5.980
56.46000 5.432
56.48000 0.125
56.50000 -0.518
56.52000 1.768
56.54000 -0.114
56.56000 -2.401
56.58000 -0.442
56.60000 3.459
56.62000 3.792
56.64000 2.082
56.66000 3.390
56.68000 -1.755
56.70000 -0.905
56.72000 0.695
56.74000 -1.294
56.76000 -1.221
56.78000 0.518
56.80000 -0.534
56.82000 2.281
56.84000 4.561
56.86000 3.329
56.88000 1.494
56.90000 4.113
56.92000 0.749
56.94000 1.936
56.96000 1.875
56.98000 0.827
57.00000 -2.377
57.02000 -2.166
57.04000 -0.026
57.06000 0.309
57.08000 1.593
57.10000 2.141
57.12000 2.540
57.14000 0.954
57.16000 3.601
57.18000 3.791
57.20000 2.310
57.22000 4.165
57.24000 4.627
57.26000 0.109
57.28000 -2.370
57.30000 0.931
57.32000 2.732
57.34000 -1.505
57.36000 -0.982
57.38000 2.971
57.40000 2.882
57.42000 0.661
57.44000 -0.831
57.46000 5.996
57.48000 4.839
57.50000 4.194
57.52000 4.111
57.54000 3.145
57.56000 3.362
57.58000 0.770
57.60000 0.325
57.62000 5.183
57.64000 6.353
57.66000 3.035
57.68000 0.231
57.70000 3.780
57.72000 2.802
57.74000 4.031
57.76000 2.890
57.78000 2.605
57.80000 1.133
57.82000 -2.056
57.84000 -1.908
57.86000 1.030
57.88000 2.874
57.90000 4.730
57.92000 5.779
57.94000 5.201
57.96000 4.595
57.98000 3.034
58.00000 4.189
58.02000 2.909
58.04000 3.889
58.06000 3.970
58.08000 0.483
58.10000 -0.334
58.12000 0.907
58.14000 3.262
58.16000 1.948
58.18000 2.107
58.20000 5.744
58.22000 5.259
58.24000 3.858
58.26000 2.216
58.28000 1.449
58.30000 3.938
58.32000 0.631
58.34000 2.751
58.36000 3.132
58.38000 3.799
58.40000 2.577
58.42000 4.917
58.44000 1.455
58.46000 0.062
58.48000 2.912
58.50000 5.245
58.52000 0.164
58.54000 3.830
58.56000 3.396
58.58000 -2.315
58.60000 4.165
58.62000 6.031
58.64000 2.430
58.66000 0.865
58.68000 0.551
58.70000 2.294
58.72000 -0.780
58.74000 1.023
58.76000 2.935
58.78000 3.227
58.80000 0.187
58.82000 -0.607
58.84000 1.003
58.86000 2.533
58.88000 1.385
58.90000 1.673
58.92000 1.136
58.94000 1.127
58.96000 4.678
58.98000 4.324
59.00000 1.387
59.02000 -1.234
59.04000 2.933
59.06000 4.348
59.08000 3.748
59.10000 1.996
59.12000 1.049
59.14000 0.171
59.16000 2.457
59.18000 -0.185
59.20000 1.041
59.22000 -0.123
59.24000 -1.776
59.26000 1.677
59.28000 3.401
59.30000 1.705
59.32000 1.006
59.34000 0.356
59.36000 1.687
59.38000 1.495
59.40000 0.018
59.42000 1.811
59.44000 0.562
59.46000 -1.124
59.48000 1.684
59.50000 -0.067
59.52000 1.671
59.54000 3.916
59.56000 0.715
59.58000 3.435
59.60000 3.799
59.62000 5.705
59.64000 1.276
59.66000 1.478
59.68000 0.720
59.70000 -0.295
59.72000 1.871
59.74000 4.940
59.76000 4.943
59.78000 -0.427
59.80000 -2.155
59.82000 -1.971
59.84000 -0.467
59.86000 1.922
59.88000 -0.046
59.90000 -0.273
59.92000 -0.368
59.94000 -0.151
59.96000 -0.301
59.98000 -0.098
60.00000 1.129
60.02000 1.956
60.04000 2.917
60.06000 2.089
60.08000 -2.301
60.10000 -0.222
60.12000 1.574
60.14000 0.007
60.16000 1.084
60.18000 2.454
60.20000 1.803
60.22000 3.793
60.24000 2.075
60.26000 1.073
60.28000 1.048
60.30000 -1.000
60.32000 -0.728
60.34000 0.972
60.36000 5.093
60.38000 4.690
60.40000 1.977
60.42000 1.360
60.44000 0.811
60.46000 3.067
60.48000 4.418
60.50000 2.490
60.52000 -2.291
60.54000 -0.195
60.56000 2.226
60.58000 1.159
60.60000 0.788
60.62000 3.841
60.64000 5.359
60.66000 1.857
60.68000 0.122
60.70000 1.723
60.72000 0.478
60.74000 3.415
60.76000 2.813
60.78000 0.152
60.80000 -1.797
60.82000 -0.227
60.84000 1.976
60.86000 0.588
60.88000 1.124
60.90000 -0.136
60.92000 2.105
60.94000 0.503
60.96000 4.847
60.98000 4.835
61.00000 3.361
61.02000 1.897
61.04000 1.759
61.06000 2.354
61.08000 1.911
61.10000 0.362
61.12000 -1.993
61.14000 0.156
61.16000 -0.987
61.18000 -1.913
61.20000 -0.365
61.22000 1.449
61.24000 2.080
61.26000 2.592
61.28000 0.917
61.30000 1.341
61.32000 1.725
61.34000 2.602
61.36000 2.607
61.38000 3.006
61.40000 1.387
61.42000 4.612
61.44000 2.476
61.46000 0.726
61.48000 -2.244
61.50000 -0.019
61.52000 1.172
61.54000 5.900
61.56000 4.539
61.58000 3.260
61.60000 1.260
61.62000 -1.147
61.64000 2.297
61.66000 1.733
61.68000 -0.277
61.70000 2.398
61.72000 1.567
61.74000 0.991
61.76000 1.468
61.78000 1.656
61.80000 3.473
61.82000 -2.231
61.84000 -1.101
61.86000 1.495
61.88000 6.058
61.90000 6.119
61.92000 2.257
61.94000 0.998
61.96000 4.485
61.98000 4.249
62.00000 3.245
62.02000 7.434
62.04000 3.033
62.06000 4.101
62.08000 3.454
62.10000 3.117
62.12000 0.465
62.14000 1.652
62.16000 4.140
62.18000 0.774
62.20000 0.984
62.22000 3.357
62.24000 4.385
62.26000 3.388
62.28000 2.312
62.30000 3.825
62.32000 5.015
62.34000 -0.845
62.36000 -0.163
62.38000 3.552
62.40000 4.343
62.42000 -1.294
62.44000 2.230
62.46000 3.934
62.48000 2.374
62.50000 -1.570
62.52000 -2.228
62.54000 1.268
62.56000 0.195
62.58000 0.355
62.60000 2.528
62.62000 -0.222
62.64000 -0.100
62.66000 0.984
62.68000 3.807
62.70000 1.719
62.72000 0.551
62.74000 1.176
62.76000 0.156
62.78000 0.052
62.80000 2.455
62.82000 5.142
62.84000 1.575
62.86000 3.059
62.88000 3.292
62.90000 3.101
62.92000 1.408
62.94000 0.962
62.96000 -0.189
62.98000 -0.787
63.00000 -0.632
63.02000 -0.062
63.04000 0.742
63.06000 1.445
63.08000 1.809
63.10000 4.953
63.12000 5.230
63.14000 2.525
63.16000 0.676
63.18000 0.661
63.20000 2.577
63.22000 3.095
63.24000 5.145
63.26000 4.239
63.28000 2.132
63.30000 0.409
63.32000 0.518
63.34000 4.880
63.36000 4.108
63.38000 5.282
63.40000 2.538
63.42000 1.539
63.44000 -2.187
63.46000 -0.977
63.48000 1.014
63.50000 5.312
63.52000 4.217
63.54000 3.766
63.56000 5.818
63.58000 3.029
63.60000 2.327
63.62000 2.673
63.64000 1.952
63.66000 3.261
63.68000 2.843
63.70000 1.337
63.72000 2.341
63.74000 2.333
63.76000 0.003
63.78000 2.728
63.80000 3.076
63.82000 2.753
63.84000 2.180
63.86000 0.212
63.88000 0.450
63.90000 -1.668
63.92000 -0.791
63.94000 -0.708
63.96000 -1.904
63.98000 -0.979
64.00000 -0.095
64.02000 1.225
64.04000 -0.456
64.06000 0.385
64.08000 4.757
64.10000 1.176
64.12000 1.236
64.14000 2.132
64.16000 1.879
64.18000 3.722
64.20000 3.221
64.22000 2.712
64.24000 0.892
64.26000 0.862
64.28000 -1.620
64.30000 -0.724
64.32000 -1.409
64.34000 -1.392
64.36000 1.553
64.38000 2.775
64.40000 -0.546
64.42000 0.510
64.44000 1.209
64.46000 3.736
64.48000 1.800
64.50000 0.081
64.52000 0.137
64.54000 0.453
64.56000 0.468
64.58000 1.336
64.60000 3.074
64.62000 2.575
64.64000 4.023
64.66000 2.716
64.68000 -0.392
64.70000 -1.015
64.72000 -0.724
64.74000 -1.041
64.76000 3.216
64.78000 -1.895
64.80000 2.237
64.82000 0.613
64.84000 0.367
64.86000 5.332
64.88000 3.132
64.90000 -2.214
64.92000 -0.273
64.94000 0.918
64.96000 2.535
64.98000 1.179
65.00000 -1.183
65.02000 0.570
65.04000 3.305
65.06000 1.894
65.08000 0.987
65.10000 -0.955
65.12000 -2.212
65.14000 -0.474
65.16000 -0.434
65.18000 0.024
65.20000 0.381
65.22000 2.368
65.24000 -0.208
65.26000 -1.231
65.28000 0.260
65.30000 0.067
65.32000 -1.058
65.34000 -0.780
65.36000 0.021
65.38000 1.887
65.40000 2.479
65.42000 0.082
65.44000 0.489
65.46000 2.833
65.48000 1.195
65.50000 -0.528
65.52000 -0.752
65.54000 -2.025
65.56000 0.057
65.58000 2.059
65.60000 2.014
65.62000 0.836
65.64000 1.279
65.66000 2.842
65.68000 2.460
65.70000 0.847
65.72000 -1.991
65.74000 -0.078
65.76000 -2.200
65.78000 0.253
65.80000 2.215
65.82000 4.009
65.84000 0.949
65.86000 2.362
65.88000 0.270
65.90000 1.031
65.92000 0.778
65.94000 -0.840
65.96000 -0.928
65.98000 -0.429
66.00000 -0.655
66.02000 1.673
66.04000 0.836
66.06000 0.976
66.08000 1.338
66.10000 1.240
66.12000 -1.526
66.14000 -1.065
66.16000 0.218
66.18000 0.396
66.20000 3.901
66.22000 4.729
66.24000 4.997
66.26000 1.744
66.28000 1.665
66.30000 -0.754
66.32000 -0.348
66.34000 -0.356
66.36000 1.732
66.38000 -1.027
66.40000 0.121
66.42000 0.192
66.44000 1.030
66.46000 1.586
66.48000 3.564
66.50000 3.479
66.52000 1.747
66.54000 1.728
66.56000 2.346
66.58000 5.084
66.60000 3.742
66.62000 1.474
66.64000 3.784
66.66000 4.442
66.68000 4.210
66.70000 2.278
66.72000 4.067
66.74000 3.455
66.76000 3.947
66.78000 4.443
66.80000 3.451
66.82000 2.376
66.84000 3.387
66.86000 4.414
66.88000 5.664
66.90000 4.814
66.92000 1.685
66.94000 2.158
66.96000 3.371
66.98000 4.669
67.00000 4.597
67.02000 6.250
67.04000 6.701
67.06000 6.995
67.08000 5.299
67.10000 6.398
67.12000 5.098
67.14000 8.562
67.16000 8.239
67.18000 6.580
67.20000 6.508
67.22000 7.508
67.24000 5.732
67.26000 3.974
67.28000 5.902
67.30000 8.332
67.32000 6.278
67.34000 5.085
67.36000 5.201
67.38000 7.136
67.40000 5.755
67.42000 4.023
67.44000 5.763
67.46000 7.530
67.48000 5.634
67.50000 4.639
67.52000 3.685
67.54000 4.492
67.56000 4.762
67.58000 4.102
67.60000 2.073
67.62000 4.511
67.64000 4.121
67.66000 3.118
67.68000 5.711
67.70000 4.176
67.72000 3.119
67.74000 0.237
67.76000 4.100
67.78000 3.889
67.80000 1.704
67.82000 3.534
67.84000 1.933
67.86000 1.482
67.88000 1.425
67.90000 1.666
67.92000 2.394
67.94000 1.015
67.96000 -0.021
67.98000 -0.755
68.00000 0.597
68.02000 -0.320
68.04000 0.307
68.06000 -2.030
68.08000 -2.040
68.10000 -0.180
68.12000 1.164
68.14000 0.951
68.16000 -0.523
68.18000 -1.358
68.20000 -0.729
68.22000 0.405
68.24000 1.087
68.26000 1.369
68.28000 0.324
68.30000 0.865
68.32000 -0.081
68.34000 -1.200
68.36000 1.508
68.38000 1.067
68.40000 0.424
68.42000 0.327
68.44000 -0.751
68.46000 -1.856
68.48000 -0.982
68.50000 -0.656
68.52000 -1.749
68.54000 0.670
68.56000 -1.046
68.58000 -0.139
68.60000 -0.571
68.62000 -0.821
68.64000 1.380
68.66000 2.034
68.68000 1.547
68.70000 2.688
68.72000 3.216
68.74000 0.869
68.76000 -2.101
68.78000 -0.718
68.80000 1.875
68.82000 3.127
68.84000 2.354
68.86000 -1.012
68.88000 -0.891
68.90000 1.023
68.92000 1.437
68.94000 0.137
68.96000 -0.875
68.98000 1.039
69.00000 2.017
69.02000 1.390
69.04000 1.381
69.06000 0.794
69.08000 -1.241
69.10000 -2.081
69.12000 -1.401
69.14000 2.001
69.16000 1.030
69.18000 3.347
69.20000 4.462
69.22000 2.747
69.24000 0.088
69.26000 0.686
69.28000 0.420
69.30000 0.205
69.32000 -2.030
69.34000 -0.403
69.36000 -1.971
69.38000 -1.590
69.40000 -0.604
69.42000 -1.384
69.44000 1.045
69.46000 2.933
69.48000 2.370
69.50000 1.263
69.52000 0.371
69.54000 -1.132
69.56000 -1.649
69.58000 0.859
69.60000 1.834
69.62000 3.309
69.64000 2.872
69.66000 1.179
69.68000 1.094
69.70000 0.393
69.72000 0.176
69.74000 2.266
69.76000 1.427
69.78000 -2.055
69.80000 -2.054
69.82000 -0.737
69.84000 1.331
69.86000 3.278
69.88000 1.027
69.90000 0.025
69.92000 -1.487
69.94000 -0.553
69.96000 0.980
69.98000 1.456
70.00000 4.303
70.02000 3.709
70.04000 0.557
70.06000 -1.443
70.08000 -0.737
70.10000 -1.519
70.12000 -0.120
70.14000 -1.014
70.16000 -0.732
70.18000 0.095
70.20000 -0.141
70.22000 -1.000
70.24000 0.418
70.26000 0.152
70.28000 -1.347
70.30000 1.785
70.32000 1.196
70.34000 4.283
70.36000 3.689
70.38000 2.996
70.40000 1.347
70.42000 -0.548
70.44000 2.216
70.46000 4.571
70.48000 4.623
70.50000 2.858
70.52000 1.666
70.54000 2.255
70.56000 1.499
70.58000 -1.993
70.60000 0.419
70.62000 2.680
70.64000 2.374
70.66000 0.834
70.68000 1.742
70.70000 0.601
70.72000 0.277
70.74000 2.365
70.76000 4.305
70.78000 0.834
70.80000 1.465
70.82000 1.843
70.84000 2.433
70.86000 1.640
70.88000 1.584
70.90000 2.799
70.92000 -0.881
70.94000 -1.970
70.96000 -0.559
70.98000 -0.574
71.00000 -0.147
71.02000 3.071
71.04000 2.951
71.06000 1.885
71.08000 0.174
71.10000 1.511
71.12000 1.366
71.14000 0.294
71.16000 1.540
71.18000 2.386
71.20000 -0.607
71.22000 -0.900
71.24000 -0.608
71.26000 2.155
71.28000 1.766
71.30000 2.086
71.32000 2.507
71.34000 1.598
71.36000 3.306
71.38000 1.123
71.40000 0.856
71.42000 0.318
71.44000 -0.598
71.46000 1.974
71.48000 2.605
71.50000 2.486
71.52000 -0.331
71.54000 -0.101
71.56000 1.410
71.58000 -1.278
71.60000 1.424
71.62000 3.240
71.64000 1.911
71.66000 4.758
71.68000 3.525
71.70000 0.749
71.72000 0.147
71.74000 -0.069
71.76000 0.962
71.78000 0.786
71.80000 0.450
71.82000 1.525
71.84000 0.639
71.86000 3.622
71.88000 1.811
71.90000 -0.311
71.92000 0.716
71.94000 2.102
71.96000 1.829
71.98000 0.381
72.00000 -1.423
72.02000 2.415
72.04000 2.927
72.06000 1.273
72.08000 -1.592
72.10000 -0.075
72.12000 1.951
72.14000 0.700
72.16000 -1.097
72.18000 0.440
72.20000 0.387
72.22000 -0.007
72.24000 0.613
72.26000 1.956
72.28000 1.018
72.30000 -0.004
72.32000 0.959
72.34000 1.449
72.36000 1.614
72.38000 0.114
72.40000 1.056
72.42000 1.046
72.44000 3.070
72.46000 3.073
72.48000 2.538
72.50000 1.917
72.52000 -0.415
72.54000 -1.945
72.56000 0.861
72.58000 0.036
72.60000 0.582
72.62000 2.560
72.64000 4.332
72.66000 2.712
72.68000 2.123
72.70000 0.644
72.72000 0.159
72.74000 1.069
72.76000 -0.065
72.78000 2.124
72.80000 0.020
72.82000 -1.160
72.84000 0.943
72.86000 1.452
72.88000 1.933
72.90000 0.906
72.92000 3.687
72.94000 2.617
72.96000 0.832
72.98000 -0.805
73.00000 -1.920
73.02000 0.103
73.04000 -0.576
73.06000 -1.295
73.08000 0.389
73.10000 -1.652
73.12000 -0.832
73.14000 1.797
73.16000 1.865
73.18000 3.100
73.20000 0.981
73.22000 1.617
73.24000 -0.410
73.26000 1.913
73.28000 2.969
73.30000 2.174
73.32000 1.206
73.34000 0.981
73.36000 0.087
73.38000 1.709
73.40000 1.217
73.42000 1.184
73.44000 1.458
73.46000 2.382
73.48000 1.466
73.50000 -0.231
73.52000 0.840
73.54000 0.038
73.56000 3.144
73.58000 2.764
73.60000 -1.012
73.62000 -0.271
73.64000 2.823
73.66000 2.920
73.68000 3.439
73.70000 2.822
73.72000 1.790
73.74000 0.273
73.76000 -0.708
73.78000 1.940
73.80000 2.735
73.82000 1.830
73.84000 1.204
73.86000 -1.888
73.88000 -1.888
73.90000 0.726
73.92000 2.915
73.94000 3.110
73.96000 3.154
73.98000 3.225
74.00000 1.903
74.02000 -1.033
74.04000 -1.897
74.06000 1.471
74.08000 6.105
74.10000 2.498
74.12000 2.452
74.14000 0.702
74.16000 0.565
74.18000 1.038
74.20000 1.262
74.22000 2.015
74.24000 2.269
74.26000 2.788
74.28000 2.633
74.30000 2.600
74.32000 1.706
74.34000 0.734
74.36000 1.954
74.38000 0.402
74.40000 0.493
74.42000 3.618
74.44000 4.334
74.46000 1.773
74.48000 1.355
74.50000 -0.648
74.52000 0.969
74.54000 0.904
74.56000 -0.949
74.58000 -1.722
74.60000 1.008
74.62000 4.780
74.64000 0.897
74.66000 2.392
74.68000 6.954
74.70000 2.668
74.72000 1.278
74.74000 -0.254
74.76000 0.628
74.78000 2.839
74.80000 0.351
74.82000 2.050
74.84000 2.394
74.86000 2.575
74.88000 3.102
74.90000 2.513
74.92000 0.817
74.94000 0.492
74.96000 -0.907
74.98000 -1.218
75.00000 -0.919
75.02000 1.468
75.04000 3.884
75.06000 1.532
75.08000 0.241
75.10000 1.881
75.12000 1.759
75.14000 -1.919
75.16000 -0.279
75.18000 2.035
75.20000 -0.336
75.22000 -1.049
75.24000 1.388
75.26000 1.036
75.28000 -0.547
75.30000 -1.738
75.32000 -1.292
75.34000 1.433
75.36000 2.979
75.38000 4.999
75.40000 3.000
75.42000 1.545
75.44000 1.201
75.46000 1.533
75.48000 0.624
75.50000 3.330
75.52000 4.311
75.54000 0.246
75.56000 2.419
75.58000 4.697
75.60000 2.342
75.62000 0.045
75.64000 -1.197
75.66000 -0.328
75.68000 0.008
75.70000 -1.266
75.72000 -1.912
75.74000 0.113
75.76000 -0.523
75.78000 1.721
75.80000 2.612
75.82000 0.185
75.84000 0.065
75.86000 -0.914
75.88000 1.156
75.90000 0.675
75.92000 0.951
75.94000 1.312
75.96000 1.520
75.98000 2.199
76.00000 6.000
76.02000 3.429
76.04000 3.439
76.06000 2.961
76.08000 5.459
76.10000 3.865
76.12000 2.911
76.14000 4.551
76.16000 2.806
76.18000 1.613
76.20000 -1.028
76.22000 0.497
76.24000 1.619
76.26000 -0.670
76.28000 1.545
76.30000 1.061
76.32000 1.609
76.34000 -0.073
76.36000 3.292
76.38000 1.079
76.40000 -1.903
76.42000 2.166
76.44000 2.988
76.46000 4.353
76.48000 3.425
76.50000 4.044
76.52000 3.050
76.54000 1.849
76.56000 2.615
76.58000 1.842
76.60000 3.341
76.62000 3.949
76.64000 1.334
76.66000 2.246
76.68000 1.964
76.70000 1.179
76.72000 0.361
76.74000 1.980
76.76000 1.049
76.78000 4.052
76.80000 5.019
76.82000 3.377
76.84000 2.923
76.86000 2.365
76.88000 3.356
76.90000 1.057
76.92000 2.491
76.94000 0.738
76.96000 -1.923
76.98000 1.570
77.00000 2.729
77.02000 4.094
77.04000 1.524
77.06000 -1.101
77.08000 1.946
77.10000 3.197
77.12000 3.814
77.14000 6.023
77.16000 3.651
77.18000 1.045
77.20000 2.372
77.22000 3.502
77.24000 0.776
77.26000 -0.468
77.28000 -0.707
77.30000 4.111
77.32000 3.371
77.34000 4.106
77.36000 5.743
77.38000 4.859
77.40000 6.678
77.42000 3.545
77.44000 0.273
77.46000 2.373
77.48000 0.964
77.50000 4.039
77.52000 4.668
77.54000 2.699
77.56000 -1.084
77.58000 -1.148
77.60000 0.528
77.62000 1.968
77.64000 1.337
77.66000 -0.682
77.68000 -0.894
77.70000 3.802
77.72000 2.182
77.74000 3.083
77.76000 2.469
77.78000 0.352
77.80000 -1.963
77.82000 1.013
77.84000 4.106
77.86000 4.597
77.88000 3.236
77.90000 1.317
77.92000 3.281
77.94000 3.125
77.96000 2.180
77.98000 1.184
78.00000 -0.770
78.02000 -1.967
78.04000 -1.819
78.06000 -1.680
78.08000 0.290
78.10000 2.156
78.12000 1.198
78.14000 3.527
78.16000 4.461
78.18000 2.995
78.20000 2.825
78.22000 5.853
78.24000 2.774
78.26000 2.412
78.28000 1.048
78.30000 2.194
78.32000 3.897
78.34000 3.873
78.36000 4.119
78.38000 0.130
78.40000 2.933
78.42000 2.408
78.44000 1.270
78.46000 3.378
78.48000 5.293
78.50000 3.168
78.52000 2.307
78.54000 2.381
78.56000 0.662
78.58000 2.549
78.60000 0.198
78.62000 1.842
78.64000 3.766
78.66000 0.904
78.68000 -1.976
78.70000 3.069
78.72000 6.160
78.74000 5.255
78.76000 6.115
78.78000 5.917
78.80000 1.137
78.82000 1.099
78.84000 3.208
78.86000 5.576
78.88000 1.279
78.90000 1.693
78.92000 1.948
78.94000 0.291
78.96000 1.549
78.98000 2.766
79.00000 2.820
79.02000 3.584
79.04000 1.128
79.06000 -2.014
79.08000 -1.300
79.10000 0.679
79.12000 3.102
79.14000 3.389
79.16000 1.144
79.18000 2.891
79.20000 1.439
79.22000 0.098
79.24000 -0.718
79.26000 0.605
79.28000 2.890
79.30000 1.823
79.32000 -1.150
79.34000 1.082
79.36000 3.381
79.38000 0.980
79.40000 0.438
79.42000 3.704
79.44000 3.937
79.46000 4.557
79.48000 1.638
79.50000 1.545
79.52000 1.756
79.54000 -0.121
79.56000 0.919
79.58000 1.437
79.60000 5.172
79.62000 4.656
79.64000 1.943
79.66000 3.060
79.68000 2.753
79.70000 2.316
79.72000 6.061
79.74000 3.053
79.76000 -0.905
79.78000 -0.183
79.80000 2.345
79.82000 0.137
79.84000 1.648
79.86000 3.956
79.88000 4.610
79.90000 6.182
79.92000 0.768
79.94000 1.294
79.96000 2.959
79.98000 2.955
80.00000 2.691
80.02000 6.797
80.04000 5.420
80.06000 3.136
80.08000 4.312
80.10000 2.994
80.12000 4.842
80.14000 2.898
80.16000 5.663
80.18000 7.986
80.20000 7.543
80.22000 6.038
80.24000 5.646
80.26000 5.652
80.28000 6.539
80.30000 11.165
80.32000 9.834
80.34000 8.840
80.36000 9.781
80.38000 8.711
80.40000 13.312
80.42000 13.516
80.44000 15.429
80.46000 16.447
80.48000 13.595
80.50000 16.319
80.52000 13.312
80.54000 11.041
80.56000 14.540
80.58000 15.823
80.60000 12.653
80.62000 11.249
80.64000 14.310
80.66000 16.339
80.68000 19.252
80.70000 16.732
80.72000 16.817
80.74000 15.187
80.76000 17.172
80.78000 22.434
80.80000 21.271
80.82000 19.946
80.84000 20.581
80.86000 22.302
80.88000 23.149
80.90000 20.756
80.92000 22.994
80.94000 21.452
80.96000 16.552
80.98000 19.567
81.00000 23.184
81.02000 21.331
81.04000 19.283
81.06000 20.032
81.08000 20.456
81.10000 20.073
81.12000 18.588
81.14000 19.234
81.16000 18.312
81.18000 16.390
81.20000 15.545
81.22000 17.763
81.24000 20.834
81.26000 20.550
81.28000 20.230
81.30000 18.938
81.32000 16.851
81.34000 17.461
81.36000 18.543
81.38000 20.509
81.40000 13.496
81.42000 13.889
81.44000 12.320
81.46000 13.145
81.48000 11.892
81.50000 14.608
81.52000 17.359
81.54000 15.816
81.56000 15.016
81.58000 13.227
81.60000 11.269
81.62000 12.895
81.64000 11.165
81.66000 7.592
81.68000 5.361
81.70000 3.774
81.72000 9.018
81.74000 7.407
81.76000 8.036
81.78000 11.307
81.80000 5.165
81.82000 5.758
81.84000 7.256
81.86000 8.720
81.88000 8.849
81.90000 8.203
81.92000 7.618
81.94000 5.616
81.96000 5.892
81.98000 7.106
82.00000 3.632
82.02000 3.309
82.04000 7.737
82.06000 4.689
82.08000 2.205
82.10000 1.762
82.12000 1.669
82.14000 6.005
82.16000 6.088
82.18000 6.389
82.20000 4.245
82.22000 2.985
82.24000 4.910
82.26000 0.616
82.28000 3.614
82.30000 6.524
82.32000 6.568
82.34000 3.549
82.36000 4.474
82.38000 5.929
82.40000 1.495
82.42000 0.325
82.44000 5.314
82.46000 5.232
82.48000 2.631
82.50000 3.388
82.52000 2.403
82.54000 -2.083
82.56000 -0.083
82.58000 5.308
82.60000 4.098
82.62000 4.700
82.64000 3.301
82.66000 1.906
82.68000 1.777
82.70000 2.163
82.72000 2.158
82.74000 2.951
82.76000 4.274
82.78000 5.001
82.80000 2.319
82.82000 4.047
82.84000 4.725
82.86000 3.649
82.88000 0.501
82.90000 2.502
82.92000 5.771
82.94000 2.501
82.96000 5.094
82.98000 6.954
83.00000 5.268
83.02000 1.217
83.04000 1.388
83.06000 3.001
83.08000 2.084
83.10000 0.795
83.12000 0.330
83.14000 1.330
83.16000 3.238
83.18000 -0.068
83.20000 -1.123
83.22000 -2.103
83.24000 0.928
83.26000 4.236
83.28000 3.883
83.30000 1.734
83.32000 2.307
83.34000 2.767
83.36000 1.853
83.38000 6.234
83.40000 5.982
83.42000 1.260
83.44000 -0.476
83.46000 -0.009
83.48000 1.191
83.50000 3.325
83.52000 2.496
83.54000 4.905
83.56000 1.297
83.58000 0.710
83.60000 -0.214
83.62000 1.985
83.64000 2.122
83.66000 4.552
83.68000 4.975
83.70000 2.656
83.72000 4.993
83.74000 4.948
83.76000 7.473
83.78000 4.486
83.80000 3.870
83.82000 4.005
83.84000 3.331
83.86000 5.096
83.88000 8.273
83.90000 6.561
83.92000 5.388
83.94000 7.779
83.96000 7.941
83.98000 6.185
84.00000 7.532
84.02000 6.287
84.04000 8.690
84.06000 7.500
84.08000 5.527
84.10000 7.189
84.12000 8.197
84.14000 8.596
84.16000 8.160
84.18000 10.577
84.20000 14.074
84.22000 15.675
84.24000 14.687
84.26000 12.992
84.28000 11.449
84.30000 11.761
84.32000 14.024
84.34000 14.016
84.36000 15.999
84.38000 18.672
84.40000 16.956
84.42000 17.931
84.44000 18.828
84.46000 16.305
84.48000 15.242
84.50000 18.474
84.52000 22.270
84.54000 20.254
84.56000 22.481
84.58000 24.309
84.60000 25.894
84.62000 24.550
84.64000 24.229
84.66000 23.853
84.68000 25.444
84.70000 25.407
84.72000 25.699
84.74000 23.798
84.76000 27.740
84.78000 28.178
84.80000 26.065
84.82000 28.870
84.84000 25.748
84.86000 26.128
84.88000 28.229
84.90000 28.064
84.92000 26.125
84.94000 24.811
84.96000 23.530
84.98000 22.679
85.00000 23.102
85.02000 27.363
85.04000 26.722
85.06000 28.432
85.08000 26.576
85.10000 26.417
85.12000 22.750
85.14000 24.646
85.16000 26.444
85.18000 26.436
85.20000 22.960
85.22000 23.480
85.24000 21.507
85.26000 22.278
85.28000 22.847
85.30000 21.150
85.32000 20.171
85.34000 19.816
85.36000 19.773
85.38000 18.983
85.40000 18.801
85.42000 18.800
85.44000 17.578
85.46000 17.034
85.48000 15.383
85.50000 13.134
85.52000 12.486
85.54000 13.244
85.56000 13.065
85.58000 13.903
85.60000 11.810
85.62000 11.058
85.64000 14.412
85.66000 10.606
85.68000 13.058
85.70000 13.614
85.72000 11.205
85.74000 12.058
85.76000 11.639
85.78000 10.600
85.80000 10.150
85.82000 8.227
85.84000 7.145
85.86000 8.180
85.88000 5.230
85.90000 6.491
85.92000 6.934
85.94000 10.858
85.96000 7.669
85.98000 5.792
86.00000 5.790
86.02000 4.516
86.04000 3.719
86.06000 3.851
86.08000 4.317
86.10000 4.762
86.12000 7.036
86.14000 7.838
86.16000 5.732
86.18000 3.635
86.20000 5.680
86.22000 3.776
86.24000 3.390
86.26000 0.205
86.28000 -0.106
86.30000 2.776
86.32000 1.534
86.34000 1.014
86.36000 -1.910
86.38000 -1.796
86.40000 3.149
86.42000 5.405
86.44000 5.552
86.46000 3.886
86.48000 1.528
86.50000 2.347
86.52000 0.195
86.54000 0.287
86.56000 0.618
86.58000 2.339
86.60000 1.452
86.62000 2.501
86.64000 3.182
86.66000 2.272
86.68000 -0.155
86.70000 1.191
86.72000 4.560
86.74000 4.934
86.76000 2.550
86.78000 1.662
86.80000 0.935
86.82000 1.781
86.84000 0.655
86.86000 0.739
86.88000 -1.311
86.90000 0.114
86.92000 0.219
86.94000 -0.092
86.96000 2.127
86.98000 -0.314
87.00000 -1.888
87.02000 1.261
87.04000 1.676
87.06000 3.139
87.08000 0.064
87.10000 -1.873
87.12000 -0.486
87.14000 -0.327
87.16000 -0.579
87.18000 -0.844
87.20000 -0.829
87.22000 -0.981
87.24000 1.558
87.26000 3.302
87.28000 1.976
87.30000 -1.612
87.32000 -1.566
87.34000 1.609
87.36000 -0.003
87.38000 0.337
87.40000 3.989
87.42000 4.361
87.44000 0.039
87.46000 1.477
87.48000 -1.463
87.50000 3.338
87.52000 4.569
87.54000 1.698
87.56000 -1.273
87.58000 -1.843
87.60000 1.907
87.62000 1.066
87.64000 0.166
87.66000 0.371
87.68000 2.399
87.70000 3.526
87.72000 2.977
87.74000 0.692
87.76000 3.157
87.78000 0.792
87.80000 3.827
87.82000 2.734
87.84000 1.919
87.86000 2.560
87.88000 1.872
87.90000 3.184
87.92000 0.142
87.94000 -0.845
87.96000 -1.364
87.98000 -0.993
88.00000 1.692
88.02000 2.568
88.04000 -0.895
88.06000 -1.798
88.08000 1.404
88.10000 2.454
88.12000 -0.221
88.14000 -0.989
88.16000 -1.534
88.18000 0.206
88.20000 3.600
88.22000 3.336
88.24000 0.993
88.26000 2.016
88.28000 2.205
88.30000 1.459
88.32000 3.460
88.34000 1.532
88.36000 0.591
88.38000 0.475
88.40000 0.570
88.42000 3.204
88.44000 0.941
88.46000 -1.795
88.48000 -1.468
88.50000 2.894
88.52000 4.743
88.54000 0.933
88.56000 -1.796
88.58000 1.532
88.60000 2.214
88.62000 3.907
88.64000 1.240
88.66000 1.993
88.68000 2.807
88.70000 1.544
88.72000 1.281
88.74000 -0.805
88.76000 2.112
88.78000 1.671
88.80000 2.367
88.82000 4.164
88.84000 1.662
88.86000 -0.068
88.88000 -0.487
88.90000 -0.815
88.92000 3.974
88.94000 3.678
88.96000 -0.092
88.98000 0.516
89.00000 0.047
89.02000 1.136
89.04000 -0.184
89.06000 0.223
89.08000 2.070
89.10000 0.607
89.12000 -1.304
89.14000 2.968
89.16000 0.609
89.18000 -0.557
89.20000 1.964
89.22000 2.925
89.24000 3.788
89.26000 3.562
89.28000 0.350
89.30000 0.820
89.32000 0.218
89.34000 1.444
89.36000 3.640
89.38000 2.970
89.40000 -0.866
89.42000 1.700
89.44000 1.023
89.46000 -1.823
89.48000 0.332
89.50000 2.728
89.52000 2.588
89.54000 -1.519
89.56000 -0.121
89.58000 2.166
89.60000 -1.339
89.62000 -1.780
89.64000 1.200
89.66000 0.454
89.68000 1.405
89.70000 0.006
89.72000 0.427
89.74000 1.882
89.76000 1.780
89.78000 0.238
89.80000 1.427
89.82000 0.447
89.84000 0.552
89.86000 3.540
89.88000 -0.328
89.90000 -1.464
89.92000 -1.596
89.94000 -1.656
89.96000 -1.242
89.98000 0.158
90.00000 1.623
90.02000 0.994
90.04000 -0.209
90.06000 1.088
90.08000 -0.720
90.10000 -0.020
90.12000 1.694
90.14000 1.642
90.16000 2.250
90.18000 -0.160
90.20000 3.691
90.22000 2.179
90.24000 -0.337
90.26000 0.495
90.28000 1.921
90.30000 4.046
90.32000 2.384
90.34000 1.562
90.36000 -1.773
90.38000 1.061
90.40000 3.926
90.42000 -0.412
90.44000 0.457
90.46000 0.853
90.48000 -1.800
90.50000 -0.269
90.52000 1.115
90.54000 1.126
90.56000 0.782
90.58000 1.337
90.60000 1.340
90.62000 0.025
90.64000 0.366
90.66000 0.971
90.68000 1.599
90.70000 1.589
90.72000 0.600
90.74000 0.482
90.76000 1.264
90.78000 -0.368
90.80000 2.462
90.82000 3.558
90.84000 5.051
90.86000 2.649
90.88000 2.995
90.90000 3.061
90.92000 4.658
90.94000 3.761
90.96000 1.639
90.98000 2.733
91.00000 3.297
91.02000 3.652
91.04000 3.319
91.06000 1.805
91.08000 -0.507
91.10000 -1.158
91.12000 -1.769
91.14000 0.785
91.16000 3.445
91.18000 2.887
91.20000 3.199
91.22000 4.142
91.24000 3.770
91.26000 2.958
91.28000 6.008
91.30000 7.462
91.32000 4.896
91.34000 1.633
91.36000 1.641
91.38000 0.567
91.40000 -0.650
91.42000 -0.753
91.44000 2.034
91.46000 0.613
91.48000 1.161
91.50000 2.363
91.52000 -0.883
91.54000 2.464
91.56000 2.210
91.58000 1.944
91.60000 1.037
91.62000 2.278
91.64000 2.783
91.66000 2.264
91.68000 2.769
91.70000 2.524
91.72000 -1.804
91.74000 -1.351
91.76000 0.863
91.78000 0.490
91.80000 2.607
91.82000 0.534
91.84000 -1.710
91.86000 0.388
91.88000 0.991
91.90000 1.902
91.92000 1.880
91.94000 0.605
91.96000 2.501
91.98000 2.274
92.00000 1.800
92.02000 0.503
92.04000 1.327
92.06000 2.725
92.08000 1.892
92.10000 0.230
92.12000 1.020
92.14000 -0.175
92.16000 1.371
92.18000 0.872
92.20000 0.012
92.22000 -0.291
92.24000 3.028
92.26000 1.461
92.28000 1.361
92.30000 -1.008
92.32000 1.927
92.34000 3.394
92.36000 2.261
92.38000 0.670
92.40000 -1.832
92.42000 0.933
92.44000 -1.022
92.46000 -0.117
92.48000 0.773
92.50000 0.469
92.52000 1.026
92.54000 4.665
92.56000 -0.712
92.58000 -1.708
92.60000 1.016
92.62000 -0.574
92.64000 -1.145
92.66000 -0.903
92.68000 -1.802
92.70000 0.734
92.72000 2.698
92.74000 1.243
92.76000 1.646
92.78000 2.057
92.80000 2.612
92.82000 1.326
92.84000 1.202
92.86000 -0.096
92.88000 -0.210
92.90000 -0.396
92.92000 -0.483
92.94000 0.638
92.96000 -0.143
92.98000 0.810
93.00000 0.344
93.02000 1.267
93.04000 1.210
93.06000 -0.090
93.08000 2.245
93.10000 2.374
93.12000 2.846
93.14000 -1.846
93.16000 -0.499
93.18000 2.166
93.20000 3.931
93.22000 0.382
93.24000 1.148
93.26000 4.601
93.28000 4.463
93.30000 0.563
93.32000 0.044
93.34000 0.930
93.36000 0.067
93.38000 -1.084
93.40000 -1.826
93.42000 1.582
93.44000 0.552
93.46000 -0.124
93.48000 0.929
93.50000 -1.508
93.52000 0.444
93.54000 3.005
93.56000 3.251
93.58000 -1.540
93.60000 -1.168
93.62000 0.612
93.64000 2.503
93.66000 2.815
93.68000 2.976
93.70000 0.918
93.72000 1.619
93.74000 3.415
93.76000 2.430
93.78000 -0.506
93.80000 -0.379
93.82000 1.409
93.84000 -0.118
93.86000 1.393
93.88000 2.239
93.90000 0.113
93.92000 -1.829
93.94000 0.673
93.96000 5.540
93.98000 1.738
94.00000 2.458
94.02000 1.090
94.04000 1.771
94.06000 0.021
94.08000 2.380
94.10000 3.022
94.12000 3.716
94.14000 2.469
94.16000 5.285
94.18000 7.178
94.20000 5.669
94.22000 4.801
94.24000 6.388
94.26000 4.896
94.28000 2.485
94.30000 4.715
94.32000 2.264
94.34000 1.869
94.36000 2.313
94.38000 1.937
94.40000 -1.597
94.42000 -0.969
94.44000 0.516
94.46000 2.044
94.48000 1.601
94.50000 -1.790
94.52000 0.773
94.54000 3.135
94.56000 5.011
94.58000 3.180
94.60000 3.531
94.62000 4.249
94.64000 6.809
94.66000 2.025
94.68000 3.073
94.70000 1.250
94.72000 1.667
94.74000 -0.546
94.76000 4.684
94.78000 5.168
94.80000 2.174
94.82000 5.530
94.84000 3.880
94.86000 5.195
94.88000 3.450
94.90000 3.204
94.92000 4.544
94.94000 2.521
94.96000 3.454
94.98000 -0.080
95.00000 1.572
95.02000 1.127
95.04000 3.537
95.06000 4.450
95.08000 3.151
95.10000 1.116
95.12000 0.694
95.14000 3.714
95.16000 4.911
95.18000 4.624
95.20000 2.583
95.22000 4.634
95.24000 2.470
95.26000 0.467
95.28000 2.947
95.30000 4.618
95.32000 3.458
95.34000 1.122
95.36000 0.916
95.38000 1.789
95.40000 0.845
95.42000 -1.810
95.44000 -0.735
95.46000 3.958
95.48000 6.112
95.50000 7.327
95.52000 4.469
95.54000 3.765
95.56000 0.487
95.58000 0.921
95.60000 0.542
95.62000 0.664
95.64000 1.169
95.66000 0.897
95.68000 4.892
95.70000 5.209
95.72000 1.936
95.74000 3.217
95.76000 3.488
95.78000 4.049
95.80000 2.902
95.82000 4.744
95.84000 4.938
95.86000 3.015
95.88000 3.475
95.90000 1.321
95.92000 3.224
95.94000 4.955
95.96000 6.911
95.98000 2.355
96.00000 1.223
96.02000 -1.455
96.04000 0.747
96.06000 0.004
96.08000 1.984
96.10000 1.644
96.12000 0.452
96.14000 -1.382
96.16000 -0.469
96.18000 0.286
96.20000 0.701
96.22000 -0.456
96.24000 -1.815
96.26000 0.535
96.28000 0.222
96.30000 0.719
96.32000 0.405
96.34000 0.274
96.36000 4.069
96.38000 3.340
96.40000 3.284
96.42000 -0.586
96.44000 0.500
96.46000 1.803
96.48000 5.150
96.50000 3.075
96.52000 -0.001
96.54000 1.291
96.56000 0.925
96.58000 2.043
96.60000 3.451
96.62000 4.003
96.64000 3.374
96.66000 2.519
96.68000 2.236
96.70000 2.743
96.72000 5.190
96.74000 2.992
96.76000 2.954
96.78000 3.924
96.80000 4.718
96.82000 0.309
96.84000 2.080
96.86000 3.619
96.88000 1.692
96.90000 1.426
96.92000 2.861
96.94000 6.994
96.96000 3.096
96.98000 2.961
97.00000 3.118
97.02000 5.435
97.04000 4.372
97.06000 1.242
97.08000 1.817
97.10000 -0.120
97.12000 -0.163
97.14000 0.770
97.16000 4.157
97.18000 3.811
97.20000 4.145
97.22000 5.187
97.24000 4.893
97.26000 -0.347
97.28000 -1.794
97.30000 1.573
97.32000 3.945
97.34000 4.326
97.36000 4.454
97.38000 3.631
97.40000 5.355
97.42000 3.024
97.44000 -1.193
97.46000 -0.033
97.48000 -0.362
97.50000 1.901
97.52000 3.671
97.54000 1.534
97.56000 -1.431
97.58000 1.923
97.60000 5.473
97.62000 4.974
97.64000 5.249
97.66000 3.778
97.68000 -0.384
97.70000 3.302
97.72000 -0.290
97.74000 -0.657
97.76000 1.452
97.78000 1.374
97.80000 -1.789
97.82000 -0.159
97.84000 1.837
97.86000 4.629
97.88000 7.313
97.90000 3.546
97.92000 1.327
97.94000 1.884
97.96000 2.708
97.98000 2.682
98.00000 3.168
98.02000 5.381
98.04000 6.137
98.06000 2.211
98.08000 0.493
98.10000 0.370
98.12000 5.300
98.14000 3.862
98.16000 1.066
98.18000 -1.783
98.20000 1.000
98.22000 2.009
98.24000 4.330
98.26000 5.463
98.28000 4.435
98.30000 1.694
98.32000 0.910
98.34000 5.772
98.36000 5.632
98.38000 2.601
98.40000 5.241
98.42000 -0.315
98.44000 2.145
98.46000 1.842
98.48000 3.248
98.50000 5.153
98.52000 7.490
98.54000 6.838
98.56000 5.068
98.58000 5.104
98.60000 0.298
98.62000 3.636
98.64000 3.148
98.66000 3.449
98.68000 3.068
98.70000 3.790
98.72000 1.037
98.74000 4.114
98.76000 2.626
98.78000 -0.214
98.80000 -1.776
98.82000 4.348
98.84000 4.051
98.86000 3.454
98.88000 6.883
98.90000 3.944
98.92000 8.470
98.94000 4.221
98.96000 3.332
98.98000 5.046
99.00000 2.180
99.02000 -1.251
99.04000 1.561
99.06000 2.000
99.08000 10.671
99.10000 9.430
99.12000 7.102
99.14000 -1.409
99.16000 -0.032
99.18000 2.236
99.20000 4.291
99.22000 5.930
99.24000 3.117
99.26000 2.875
99.28000 5.308
99.30000 3.905
99.32000 0.625
99.34000 3.695
99.36000 4.737
99.38000 6.971
99.40000 9.857
99.42000 9.845
99.44000 9.863
99.46000 5.219
99.48000 8.537
99.50000 8.867
99.52000 5.002
99.54000 4.319
99.56000 3.523
99.58000 5.002
99.60000 8.850
99.62000 0.058
99.64000 -1.718
99.66000 3.462
99.68000 16.090
99.70000 13.932
99.72000 15.157
99.74000 9.718
99.76000 7.149
99.78000 5.510
99.80000 3.988
99.82000 7.855
99.84000 3.366
99.86000 -1.845
99.88000 -1.865
99.90000 1.742
99.92000 -0.114
99.94000 -1.951
99.96000 0.626
99.98000 0.000
