'Id: "0011388" Comment: "Integrate frame 0011388_Au-Ir-Rh_Rh-rich_XRD-Mapping-035-0000.gfrmwith cursor Wedge Cursor #5" Operator: "B?rgel" Anode: "Cu" Wavelength: "1.5406" Scantype: "2Theta (TwoTheta)" TimePerStep: "1" X: "18" Y: "-31.5" Z: "5.95" 
10.00000 0.000
10.02000 -3.967
10.04000 -3.959
10.06000 -2.841
10.08000 14.313
10.10000 14.324
10.12000 10.701
10.14000 19.817
10.16000 17.487
10.18000 8.913
10.20000 -3.904
10.22000 5.634
10.24000 27.508
10.26000 27.268
10.28000 23.762
10.30000 34.559
10.32000 25.229
10.34000 15.386
10.36000 12.303
10.38000 9.888
10.40000 8.905
10.42000 18.862
10.44000 27.961
10.46000 8.358
10.48000 3.732
10.50000 11.691
10.52000 14.346
10.54000 10.127
10.56000 14.544
10.58000 11.884
10.60000 7.289
10.62000 10.937
10.64000 13.887
10.66000 20.453
10.68000 14.558
10.70000 9.976
10.72000 9.323
10.74000 15.281
10.76000 32.948
10.78000 34.525
10.80000 33.382
10.82000 28.248
10.84000 27.550
10.86000 20.404
10.88000 14.337
10.90000 15.367
10.92000 18.418
10.94000 20.581
10.96000 18.953
10.98000 31.818
11.00000 25.219
11.02000 17.597
11.04000 22.081
11.06000 27.219
11.08000 16.142
11.10000 14.893
11.12000 8.410
11.14000 2.733
11.16000 20.053
11.18000 22.839
11.20000 25.878
11.22000 14.110
11.24000 11.730
11.26000 21.568
11.28000 24.090
11.30000 27.543
11.32000 27.734
11.34000 19.304
11.36000 17.874
11.38000 23.235
11.40000 31.420
11.42000 28.411
11.44000 22.263
11.46000 9.350
11.48000 12.292
11.50000 12.900
11.52000 22.205
11.54000 26.564
11.56000 18.113
11.58000 12.825
11.60000 13.042
11.62000 12.303
11.64000 13.858
11.66000 23.070
11.68000 17.554
11.70000 20.436
11.72000 21.695
11.74000 23.499
11.76000 30.254
11.78000 26.873
11.80000 17.335
11.82000 12.217
11.84000 10.847
11.86000 6.846
11.88000 7.980
11.90000 11.777
11.92000 8.659
11.94000 13.877
11.96000 20.918
11.98000 21.829
12.00000 32.151
12.02000 31.759
12.04000 31.120
12.06000 34.598
12.08000 25.339
12.10000 22.644
12.12000 29.548
12.14000 26.215
12.16000 20.002
12.18000 27.160
12.20000 26.362
12.22000 25.635
12.24000 21.114
12.26000 21.425
12.28000 28.848
12.30000 30.403
12.32000 18.197
12.34000 17.583
12.36000 29.611
12.38000 27.853
12.40000 20.312
12.42000 23.805
12.44000 28.213
12.46000 21.956
12.48000 26.808
12.50000 26.599
12.52000 26.389
12.54000 18.678
12.56000 23.075
12.58000 24.301
12.60000 22.817
12.62000 24.697
12.64000 24.173
12.66000 22.521
12.68000 30.568
12.70000 26.391
12.72000 18.481
12.74000 24.380
12.76000 36.370
12.78000 20.236
12.80000 14.664
12.82000 16.089
12.84000 18.749
12.86000 23.328
12.88000 17.480
12.90000 19.629
12.92000 10.387
12.94000 17.794
12.96000 16.593
12.98000 15.808
13.00000 20.199
13.02000 20.440
13.04000 14.301
13.06000 14.066
13.08000 21.622
13.10000 30.689
13.12000 24.209
13.14000 27.713
13.16000 27.896
13.18000 20.386
13.20000 11.023
13.22000 8.224
13.24000 24.106
13.26000 28.092
13.28000 23.176
13.30000 10.529
13.32000 11.939
13.34000 11.653
13.36000 11.910
13.38000 16.411
13.40000 20.307
13.42000 14.059
13.44000 13.449
13.46000 21.333
13.48000 17.914
13.50000 24.266
13.52000 20.216
13.54000 11.516
13.56000 7.940
13.58000 14.784
13.60000 16.279
13.62000 17.634
13.64000 16.316
13.66000 15.910
13.68000 10.865
13.70000 19.901
13.72000 12.368
13.74000 15.822
13.76000 24.107
13.78000 23.100
13.80000 24.796
13.82000 16.585
13.84000 21.423
13.86000 23.372
13.88000 13.662
13.90000 7.612
13.92000 19.874
13.94000 15.228
13.96000 17.293
13.98000 23.225
14.00000 15.590
14.02000 7.638
14.04000 9.457
14.06000 20.891
14.08000 14.323
14.10000 11.692
14.12000 21.606
14.14000 21.511
14.16000 14.613
14.18000 11.547
14.20000 14.298
14.22000 13.441
14.24000 17.389
14.26000 18.969
14.28000 12.101
14.30000 12.783
14.32000 10.269
14.34000 6.541
14.36000 10.211
14.38000 11.377
14.40000 5.253
14.42000 17.508
14.44000 25.104
14.46000 17.180
14.48000 12.193
14.50000 7.821
14.52000 9.931
14.54000 13.867
14.56000 14.314
14.58000 9.906
14.60000 5.399
14.62000 14.039
14.64000 17.427
14.66000 9.808
14.68000 4.834
14.70000 16.541
14.72000 17.067
14.74000 10.716
14.76000 24.034
14.78000 14.359
14.80000 13.683
14.82000 19.831
14.84000 16.530
14.86000 11.738
14.88000 6.603
14.90000 3.826
14.92000 12.749
14.94000 5.601
14.96000 11.182
14.98000 8.927
15.00000 8.118
15.02000 9.272
15.04000 8.901
15.06000 7.160
15.08000 5.161
15.10000 10.520
15.12000 7.901
15.14000 3.555
15.16000 6.578
15.18000 11.633
15.20000 14.758
15.22000 5.065
15.24000 6.578
15.26000 8.311
15.28000 12.486
15.30000 14.382
15.32000 6.968
15.34000 6.968
15.36000 13.443
15.38000 12.730
15.40000 11.271
15.42000 7.200
15.44000 10.927
15.46000 12.651
15.48000 12.853
15.50000 13.436
15.52000 9.838
15.54000 8.699
15.56000 12.092
15.58000 4.850
15.60000 4.556
15.62000 5.152
15.64000 5.825
15.66000 4.229
15.68000 9.289
15.70000 12.413
15.72000 8.749
15.74000 9.960
15.76000 8.425
15.78000 10.272
15.80000 17.767
15.82000 13.824
15.84000 9.867
15.86000 7.030
15.88000 11.647
15.90000 16.727
15.92000 8.798
15.94000 1.922
15.96000 0.116
15.98000 12.011
16.00000 8.080
16.02000 1.808
16.04000 2.681
16.06000 5.047
16.08000 5.414
16.10000 16.482
16.12000 15.055
16.14000 15.623
16.16000 4.523
16.18000 8.140
16.20000 10.692
16.22000 4.827
16.24000 9.354
16.26000 10.633
16.28000 5.128
16.30000 -2.160
16.32000 -0.403
16.34000 0.985
16.36000 -1.624
16.38000 -2.955
16.40000 -0.358
16.42000 12.918
16.44000 15.426
16.46000 12.333
16.48000 12.832
16.50000 8.062
16.52000 2.692
16.54000 6.888
16.56000 8.499
16.58000 7.510
16.60000 3.478
16.62000 5.789
16.64000 5.326
16.66000 5.369
16.68000 5.482
16.70000 7.118
16.72000 7.136
16.74000 5.459
16.76000 8.754
16.78000 12.525
16.80000 11.319
16.82000 8.883
16.84000 11.444
16.86000 8.735
16.88000 5.629
16.90000 9.227
16.92000 4.619
16.94000 11.384
16.96000 15.571
16.98000 8.685
17.00000 -1.681
17.02000 -4.345
17.04000 2.958
17.06000 10.635
17.08000 17.767
17.10000 7.646
17.12000 9.941
17.14000 5.726
17.16000 3.637
17.18000 4.903
17.20000 7.604
17.22000 1.029
17.24000 10.285
17.26000 13.316
17.28000 9.206
17.30000 9.981
17.32000 15.785
17.34000 18.097
17.36000 13.279
17.38000 6.412
17.40000 12.164
17.42000 11.750
17.44000 10.271
17.46000 7.775
17.48000 17.121
17.50000 11.238
17.52000 5.871
17.54000 3.973
17.56000 6.741
17.58000 3.516
17.60000 6.627
17.62000 2.385
17.64000 7.200
17.66000 11.563
17.68000 10.559
17.70000 8.353
17.72000 9.360
17.74000 8.847
17.76000 6.374
17.78000 -0.774
17.80000 4.891
17.82000 2.965
17.84000 7.165
17.86000 15.773
17.88000 14.484
17.90000 3.589
17.92000 3.880
17.94000 5.386
17.96000 3.651
17.98000 6.864
18.00000 12.184
18.02000 17.965
18.04000 5.608
18.06000 -4.328
18.08000 8.434
18.10000 9.666
18.12000 14.982
18.14000 4.131
18.16000 3.104
18.18000 9.935
18.20000 10.371
18.22000 6.422
18.24000 8.312
18.26000 9.648
18.28000 12.030
18.30000 5.583
18.32000 4.294
18.34000 5.295
18.36000 2.623
18.38000 4.849
18.40000 6.811
18.42000 -0.242
18.44000 0.505
18.46000 0.975
18.48000 1.204
18.50000 4.691
18.52000 4.846
18.54000 6.951
18.56000 1.538
18.58000 -0.548
18.60000 4.288
18.62000 1.501
18.64000 -1.307
18.66000 4.887
18.68000 8.673
18.70000 3.375
18.72000 7.167
18.74000 4.968
18.76000 -3.069
18.78000 -1.415
18.80000 -2.319
18.82000 8.495
18.84000 10.439
18.86000 6.245
18.88000 5.094
18.90000 7.684
18.92000 0.843
18.94000 -0.574
18.96000 0.503
18.98000 0.686
19.00000 7.287
19.02000 3.994
19.04000 11.119
19.06000 9.623
19.08000 1.826
19.10000 3.403
19.12000 1.705
19.14000 0.813
19.16000 -4.276
19.18000 2.063
19.20000 4.544
19.22000 0.081
19.24000 7.025
19.26000 5.543
19.28000 0.725
19.30000 -1.998
19.32000 -3.716
19.34000 -3.043
19.36000 -2.837
19.38000 -3.103
19.40000 -0.880
19.42000 7.267
19.44000 5.710
19.46000 -0.650
19.48000 -3.648
19.50000 0.258
19.52000 -1.172
19.54000 0.654
19.56000 2.206
19.58000 -0.905
19.60000 1.571
19.62000 9.575
19.64000 14.141
19.66000 9.986
19.68000 5.556
19.70000 8.051
19.72000 9.479
19.74000 4.031
19.76000 -0.660
19.78000 1.972
19.80000 0.520
19.82000 -2.856
19.84000 -1.160
19.86000 0.924
19.88000 2.205
19.90000 2.697
19.92000 -3.037
19.94000 -3.271
19.96000 -1.758
19.98000 1.547
20.00000 3.649
20.02000 4.674
20.04000 7.006
20.06000 9.545
20.08000 9.753
20.10000 6.501
20.12000 3.723
20.14000 -0.563
20.16000 2.182
20.18000 7.206
20.20000 4.573
20.22000 3.505
20.24000 5.011
20.26000 4.823
20.28000 4.089
20.30000 -4.197
20.32000 -0.810
20.34000 6.177
20.36000 9.513
20.38000 9.678
20.40000 10.359
20.42000 10.620
20.44000 3.426
20.46000 1.527
20.48000 0.647
20.50000 6.695
20.52000 5.689
20.54000 3.149
20.56000 3.394
20.58000 6.266
20.60000 5.303
20.62000 3.459
20.64000 -2.357
20.66000 -0.060
20.68000 0.140
20.70000 3.414
20.72000 7.201
20.74000 6.610
20.76000 3.826
20.78000 -0.725
20.80000 0.979
20.82000 2.527
20.84000 4.816
20.86000 15.941
20.88000 12.558
20.90000 7.290
20.92000 3.496
20.94000 1.016
20.96000 7.708
20.98000 5.431
21.00000 4.710
21.02000 7.477
21.04000 5.669
21.06000 0.757
21.08000 -0.868
21.10000 0.736
21.12000 1.824
21.14000 7.512
21.16000 10.029
21.18000 9.751
21.20000 2.521
21.22000 -2.249
21.24000 -1.629
21.26000 -0.816
21.28000 5.557
21.30000 7.276
21.32000 3.004
21.34000 -3.959
21.36000 -4.128
21.38000 1.951
21.40000 5.546
21.42000 9.353
21.44000 2.835
21.46000 5.195
21.48000 7.555
21.50000 2.684
21.52000 6.370
21.54000 10.924
21.56000 5.513
21.58000 8.633
21.60000 2.581
21.62000 2.480
21.64000 3.369
21.66000 8.954
21.68000 2.670
21.70000 5.880
21.72000 6.717
21.74000 -0.141
21.76000 0.863
21.78000 1.726
21.80000 2.525
21.82000 3.964
21.84000 3.294
21.86000 2.282
21.88000 6.653
21.90000 1.332
21.92000 10.649
21.94000 7.832
21.96000 8.294
21.98000 0.414
22.00000 5.680
22.02000 6.249
22.04000 -0.186
22.06000 3.300
22.08000 1.169
22.10000 3.489
22.12000 5.189
22.14000 0.981
22.16000 2.691
22.18000 10.243
22.20000 13.111
22.22000 9.022
22.24000 -0.678
22.26000 -0.081
22.28000 2.240
22.30000 0.637
22.32000 0.005
22.34000 7.689
22.36000 8.079
22.38000 8.933
22.40000 7.425
22.42000 4.021
22.44000 5.916
22.46000 7.203
22.48000 5.613
22.50000 1.457
22.52000 2.107
22.54000 7.720
22.56000 4.826
22.58000 7.232
22.60000 14.215
22.62000 8.609
22.64000 7.871
22.66000 15.113
22.68000 17.208
22.70000 5.198
22.72000 8.266
22.74000 14.825
22.76000 12.229
22.78000 14.368
22.80000 9.369
22.82000 5.715
22.84000 9.842
22.86000 15.677
22.88000 9.197
22.90000 6.283
22.92000 -2.993
22.94000 -4.002
22.96000 3.995
22.98000 6.479
23.00000 5.474
23.02000 6.610
23.04000 6.196
23.06000 9.604
23.08000 10.922
23.10000 12.787
23.12000 10.605
23.14000 7.138
23.16000 8.141
23.18000 9.025
23.20000 3.774
23.22000 2.081
23.24000 11.137
23.26000 8.959
23.28000 -0.646
23.30000 -1.950
23.32000 2.973
23.34000 5.665
23.36000 4.887
23.38000 6.938
23.40000 7.996
23.42000 5.120
23.44000 13.299
23.46000 13.373
23.48000 2.674
23.50000 -1.332
23.52000 -3.982
23.54000 -2.847
23.56000 3.301
23.58000 6.256
23.60000 9.744
23.62000 11.931
23.64000 5.542
23.66000 4.665
23.68000 5.082
23.70000 4.733
23.72000 5.644
23.74000 7.625
23.76000 9.696
23.78000 11.021
23.80000 4.976
23.82000 4.601
23.84000 7.982
23.86000 12.045
23.88000 9.109
23.90000 7.818
23.92000 6.870
23.94000 8.302
23.96000 7.083
23.98000 2.463
24.00000 0.227
24.02000 3.858
24.04000 4.587
24.06000 5.947
24.08000 2.728
24.10000 -2.128
24.12000 2.029
24.14000 -0.914
24.16000 5.153
24.18000 8.087
24.20000 7.610
24.22000 7.063
24.24000 2.990
24.26000 3.419
24.28000 1.267
24.30000 -0.158
24.32000 3.284
24.34000 3.799
24.36000 3.604
24.38000 4.201
24.40000 6.254
24.42000 6.730
24.44000 3.892
24.46000 1.569
24.48000 -0.972
24.50000 1.241
24.52000 -1.020
24.54000 -3.323
24.56000 3.594
24.58000 -0.525
24.60000 -1.673
24.62000 7.180
24.64000 3.004
24.66000 1.513
24.68000 -0.152
24.70000 -3.770
24.72000 1.556
24.74000 6.619
24.76000 7.697
24.78000 5.228
24.80000 -2.337
24.82000 -3.427
24.84000 2.900
24.86000 2.234
24.88000 3.073
24.90000 0.997
24.92000 4.658
24.94000 5.067
24.96000 5.769
24.98000 3.259
25.00000 1.163
25.02000 5.446
25.04000 6.910
25.06000 9.469
25.08000 4.382
25.10000 0.627
25.12000 -1.342
25.14000 0.980
25.16000 7.988
25.18000 7.933
25.20000 4.807
25.22000 0.928
25.24000 3.115
25.26000 1.836
25.28000 -1.935
25.30000 2.208
25.32000 6.070
25.34000 0.555
25.36000 5.073
25.38000 6.491
25.40000 1.105
25.42000 2.423
25.44000 2.021
25.46000 0.334
25.48000 2.478
25.50000 8.287
25.52000 3.512
25.54000 2.188
25.56000 7.134
25.58000 4.669
25.60000 3.078
25.62000 2.405
25.64000 1.444
25.66000 2.331
25.68000 5.847
25.70000 10.001
25.72000 4.343
25.74000 3.292
25.76000 5.363
25.78000 0.029
25.80000 2.054
25.82000 2.279
25.84000 0.780
25.86000 1.176
25.88000 2.347
25.90000 2.170
25.92000 1.261
25.94000 1.796
25.96000 3.836
25.98000 -3.869
26.00000 -1.426
26.02000 3.082
26.04000 0.261
26.06000 -1.210
26.08000 1.457
26.10000 4.654
26.12000 3.010
26.14000 7.463
26.16000 10.093
26.18000 6.468
26.20000 -2.060
26.22000 2.573
26.24000 7.502
26.26000 3.209
26.28000 6.877
26.30000 6.477
26.32000 -3.775
26.34000 -2.334
26.36000 1.348
26.38000 1.020
26.40000 2.036
26.42000 -1.261
26.44000 0.044
26.46000 0.696
26.48000 -2.451
26.50000 4.757
26.52000 14.051
26.54000 10.204
26.56000 7.030
26.58000 8.380
26.60000 4.647
26.62000 1.496
26.64000 0.801
26.66000 3.962
26.68000 6.251
26.70000 2.349
26.72000 -2.566
26.74000 -1.217
26.76000 4.589
26.78000 8.382
26.80000 4.674
26.82000 1.005
26.84000 -0.715
26.86000 3.501
26.88000 1.332
26.90000 6.968
26.92000 7.584
26.94000 7.114
26.96000 5.331
26.98000 2.837
27.00000 4.415
27.02000 3.471
27.04000 5.434
27.06000 5.539
27.08000 8.669
27.10000 2.628
27.12000 0.957
27.14000 5.854
27.16000 6.171
27.18000 4.346
27.20000 6.851
27.22000 8.077
27.24000 8.838
27.26000 4.384
27.28000 7.639
27.30000 8.401
27.32000 7.963
27.34000 11.571
27.36000 9.666
27.38000 2.056
27.40000 1.858
27.42000 0.289
27.44000 -0.858
27.46000 1.596
27.48000 2.557
27.50000 2.531
27.52000 -3.797
27.54000 -0.664
27.56000 2.787
27.58000 1.828
27.60000 3.996
27.62000 6.281
27.64000 7.818
27.66000 6.410
27.68000 3.940
27.70000 0.195
27.72000 1.420
27.74000 6.626
27.76000 3.964
27.78000 2.329
27.80000 -0.999
27.82000 2.491
27.84000 1.194
27.86000 0.309
27.88000 1.490
27.90000 1.480
27.92000 -1.508
27.94000 -1.388
27.96000 4.177
27.98000 3.975
28.00000 0.955
28.02000 -2.057
28.04000 1.414
28.06000 4.225
28.08000 3.545
28.10000 2.116
28.12000 1.996
28.14000 2.619
28.16000 2.954
28.18000 2.280
28.20000 0.911
28.22000 1.446
28.24000 3.855
28.26000 0.000
28.28000 -1.199
28.30000 -1.520
28.32000 -1.986
28.34000 5.118
28.36000 11.273
28.38000 3.758
28.40000 0.344
28.42000 3.861
28.44000 3.531
28.46000 1.954
28.48000 1.672
28.50000 -0.128
28.52000 -0.448
28.54000 1.384
28.56000 2.964
28.58000 -0.836
28.60000 0.852
28.62000 4.913
28.64000 2.182
28.66000 -0.539
28.68000 2.966
28.70000 1.133
28.72000 -1.473
28.74000 -1.305
28.76000 -1.892
28.78000 -0.844
28.80000 1.408
28.82000 5.638
28.84000 2.265
28.86000 -1.966
28.88000 1.499
28.90000 2.257
28.92000 1.874
28.94000 -3.720
28.96000 1.062
28.98000 5.876
29.00000 1.837
29.02000 2.642
29.04000 -0.142
29.06000 0.922
29.08000 1.227
29.10000 1.430
29.12000 2.289
29.14000 2.537
29.16000 2.855
29.18000 1.966
29.20000 4.434
29.22000 5.408
29.24000 4.851
29.26000 5.246
29.28000 5.787
29.30000 8.201
29.32000 3.708
29.34000 3.596
29.36000 3.689
29.38000 0.745
29.40000 5.276
29.42000 3.912
29.44000 0.212
29.46000 -2.121
29.48000 1.844
29.50000 2.126
29.52000 6.030
29.54000 8.680
29.56000 6.099
29.58000 4.260
29.60000 4.792
29.62000 9.271
29.64000 5.971
29.66000 7.347
29.68000 5.749
29.70000 4.103
29.72000 2.718
29.74000 -2.831
29.76000 1.712
29.78000 8.501
29.80000 2.671
29.82000 -3.675
29.84000 -2.310
29.86000 0.738
29.88000 3.412
29.90000 0.104
29.92000 2.475
29.94000 6.811
29.96000 3.392
29.98000 2.964
30.00000 2.071
30.02000 1.359
30.04000 4.418
30.06000 6.679
30.08000 2.878
30.10000 4.939
30.12000 5.267
30.14000 4.046
30.16000 2.236
30.18000 -0.847
30.20000 1.174
30.22000 1.374
30.24000 3.341
30.26000 6.581
30.28000 2.911
30.30000 3.216
30.32000 2.469
30.34000 3.119
30.36000 11.948
30.38000 10.137
30.40000 7.448
30.42000 6.089
30.44000 0.039
30.46000 3.244
30.48000 5.394
30.50000 2.253
30.52000 -1.306
30.54000 5.785
30.56000 6.513
30.58000 6.270
30.60000 6.889
30.62000 4.313
30.64000 -0.915
30.66000 -3.638
30.68000 0.584
30.70000 5.539
30.72000 3.015
30.74000 4.211
30.76000 5.130
30.78000 3.375
30.80000 3.594
30.82000 0.392
30.84000 5.533
30.86000 2.006
30.88000 0.383
30.90000 -1.357
30.92000 5.722
30.94000 3.173
30.96000 0.530
30.98000 6.268
31.00000 7.021
31.02000 4.771
31.04000 2.241
31.06000 -0.213
31.08000 -0.906
31.10000 3.803
31.12000 5.726
31.14000 2.737
31.16000 5.755
31.18000 4.992
31.20000 4.791
31.22000 -0.261
31.24000 3.046
31.26000 1.427
31.28000 1.066
31.30000 -3.617
31.32000 4.604
31.34000 3.579
31.36000 1.544
31.38000 4.509
31.40000 6.875
31.42000 -0.510
31.44000 -0.807
31.46000 1.338
31.48000 -2.262
31.50000 0.523
31.52000 4.679
31.54000 3.433
31.56000 -0.692
31.58000 1.132
31.60000 5.323
31.62000 2.168
31.64000 4.186
31.66000 0.155
31.68000 3.961
31.70000 4.930
31.72000 3.387
31.74000 5.281
31.76000 2.604
31.78000 1.766
31.80000 4.900
31.82000 8.483
31.84000 6.643
31.86000 3.227
31.88000 1.285
31.90000 -3.599
31.92000 0.912
31.94000 2.513
31.96000 1.202
31.98000 6.997
32.00000 4.353
32.02000 -2.639
32.04000 0.623
32.06000 -0.760
32.08000 -1.498
32.10000 3.436
32.12000 3.027
32.14000 3.678
32.16000 4.818
32.18000 0.985
32.20000 -0.513
32.22000 2.695
32.24000 5.762
32.26000 1.399
32.28000 -2.371
32.30000 -2.684
32.32000 -1.817
32.34000 -0.143
32.36000 0.605
32.38000 2.065
32.40000 1.379
32.42000 2.223
32.44000 3.449
32.46000 3.477
32.48000 4.962
32.50000 8.518
32.52000 8.611
32.54000 2.947
32.56000 -2.709
32.58000 3.023
32.60000 -0.210
32.62000 -3.559
32.64000 -3.357
32.66000 0.838
32.68000 2.853
32.70000 2.897
32.72000 8.780
32.74000 4.844
32.76000 -0.817
32.78000 -2.356
32.80000 2.343
32.82000 3.487
32.84000 2.740
32.86000 -1.468
32.88000 3.041
32.90000 3.687
32.92000 3.266
32.94000 2.907
32.96000 1.780
32.98000 -0.617
33.00000 -1.203
33.02000 4.623
33.04000 3.295
33.06000 5.341
33.08000 2.616
33.10000 4.341
33.12000 3.178
33.14000 3.746
33.16000 7.423
33.18000 2.919
33.20000 -2.115
33.22000 -3.556
33.24000 3.730
33.26000 7.239
33.28000 6.258
33.30000 4.645
33.32000 2.015
33.34000 -2.532
33.36000 -2.192
33.38000 1.652
33.40000 2.993
33.42000 -0.618
33.44000 1.815
33.46000 3.445
33.48000 1.440
33.50000 -2.316
33.52000 -0.335
33.54000 0.299
33.56000 0.244
33.58000 -2.877
33.60000 -3.093
33.62000 -1.817
33.64000 1.357
33.66000 1.550
33.68000 5.099
33.70000 5.673
33.72000 4.801
33.74000 3.478
33.76000 -3.041
33.78000 1.558
33.80000 -1.388
33.82000 -3.167
33.84000 -0.029
33.86000 4.378
33.88000 1.862
33.90000 0.891
33.92000 -1.910
33.94000 -2.768
33.96000 1.320
33.98000 5.998
34.00000 6.848
34.02000 4.847
34.04000 3.734
34.06000 -2.521
34.08000 0.121
34.10000 1.706
34.12000 2.865
34.14000 2.784
34.16000 -1.011
34.18000 3.462
34.20000 3.378
34.22000 1.312
34.24000 -0.310
34.26000 1.160
34.28000 6.395
34.30000 8.166
34.32000 4.302
34.34000 4.496
34.36000 5.885
34.38000 5.445
34.40000 1.856
34.42000 3.768
34.44000 7.377
34.46000 5.776
34.48000 5.546
34.50000 4.306
34.52000 0.181
34.54000 4.991
34.56000 4.077
34.58000 3.299
34.60000 3.272
34.62000 3.589
34.64000 1.213
34.66000 3.233
34.68000 8.779
34.70000 7.887
34.72000 1.261
34.74000 -0.887
34.76000 -0.289
34.78000 1.252
34.80000 -1.483
34.82000 1.229
34.84000 4.348
34.86000 4.696
34.88000 -0.243
34.90000 -0.690
34.92000 -0.246
34.94000 1.180
34.96000 9.227
34.98000 8.905
35.00000 3.659
35.02000 1.234
35.04000 2.769
35.06000 -0.288
35.08000 -0.311
35.10000 0.858
35.12000 5.506
35.14000 7.056
35.16000 3.894
35.18000 1.785
35.20000 3.225
35.22000 2.456
35.24000 2.048
35.26000 1.873
35.28000 7.005
35.30000 9.112
35.32000 7.073
35.34000 2.766
35.36000 2.478
35.38000 1.723
35.40000 -3.451
35.42000 4.169
35.44000 3.573
35.46000 5.575
35.48000 3.396
35.50000 0.497
35.52000 4.250
35.54000 3.572
35.56000 2.088
35.58000 0.047
35.60000 6.185
35.62000 6.330
35.64000 4.501
35.66000 7.340
35.68000 6.782
35.70000 1.476
35.72000 0.093
35.74000 0.448
35.76000 0.284
35.78000 4.376
35.80000 1.210
35.82000 1.749
35.84000 6.228
35.86000 2.352
35.88000 5.818
35.90000 6.035
35.92000 3.692
35.94000 5.735
35.96000 2.802
35.98000 2.381
36.00000 1.948
36.02000 3.993
36.04000 6.548
36.06000 6.847
36.08000 1.165
36.10000 -3.384
36.12000 -1.097
36.14000 3.880
36.16000 0.340
36.18000 2.109
36.20000 4.506
36.22000 5.106
36.24000 6.695
36.26000 1.795
36.28000 0.106
36.30000 -0.969
36.32000 -2.149
36.34000 2.022
36.36000 2.317
36.38000 3.022
36.40000 3.937
36.42000 2.969
36.44000 1.228
36.46000 -3.495
36.48000 -0.744
36.50000 1.677
36.52000 0.955
36.54000 1.074
36.56000 -3.329
36.58000 -3.497
36.60000 -0.223
36.62000 2.083
36.64000 3.959
36.66000 3.904
36.68000 1.671
36.70000 3.793
36.72000 8.598
36.74000 5.390
36.76000 2.966
36.78000 -0.424
36.80000 2.293
36.82000 5.259
36.84000 0.855
36.86000 3.128
36.88000 9.399
36.90000 2.576
36.92000 -0.420
36.94000 1.059
36.96000 0.317
36.98000 3.402
37.00000 -0.507
37.02000 -1.757
37.04000 -3.517
37.06000 -1.406
37.08000 2.324
37.10000 1.578
37.12000 -2.749
37.14000 -2.752
37.16000 1.894
37.18000 5.096
37.20000 2.538
37.22000 -1.786
37.24000 1.981
37.26000 3.363
37.28000 -1.221
37.30000 -3.524
37.32000 2.206
37.34000 6.033
37.36000 3.855
37.38000 -0.719
37.40000 -2.606
37.42000 -1.539
37.44000 -3.294
37.46000 -2.437
37.48000 -2.059
37.50000 -3.537
37.52000 1.795
37.54000 1.372
37.56000 -0.143
37.58000 1.614
37.60000 0.097
37.62000 3.694
37.64000 2.943
37.66000 2.406
37.68000 -0.224
37.70000 1.021
37.72000 -3.441
37.74000 -3.232
37.76000 3.154
37.78000 8.082
37.80000 1.656
37.82000 -0.211
37.84000 2.056
37.86000 3.559
37.88000 5.911
37.90000 6.356
37.92000 5.008
37.94000 4.054
37.96000 4.226
37.98000 2.272
38.00000 1.838
38.02000 4.648
38.04000 7.913
38.06000 3.999
38.08000 9.279
38.10000 11.665
38.12000 8.549
38.14000 10.355
38.16000 12.502
38.18000 11.638
38.20000 4.691
38.22000 13.126
38.24000 8.027
38.26000 9.705
38.28000 12.449
38.30000 4.953
38.32000 5.832
38.34000 14.025
38.36000 15.447
38.38000 10.983
38.40000 7.561
38.42000 11.038
38.44000 16.215
38.46000 16.092
38.48000 12.985
38.50000 7.551
38.52000 7.782
38.54000 6.605
38.56000 10.924
38.58000 13.531
38.60000 11.724
38.62000 13.157
38.64000 14.470
38.66000 14.262
38.68000 10.298
38.70000 10.580
38.72000 8.773
38.74000 7.848
38.76000 12.056
38.78000 13.235
38.80000 15.642
38.82000 17.987
38.84000 16.778
38.86000 15.364
38.88000 17.710
38.90000 25.584
38.92000 25.938
38.94000 25.834
38.96000 20.967
38.98000 12.550
39.00000 16.392
39.02000 24.629
39.04000 25.521
39.06000 23.224
39.08000 25.776
39.10000 27.351
39.12000 28.946
39.14000 33.417
39.16000 33.379
39.18000 30.418
39.20000 31.336
39.22000 34.696
39.24000 35.861
39.26000 33.096
39.28000 30.728
39.30000 33.316
39.32000 35.652
39.34000 40.363
39.36000 46.590
39.38000 44.123
39.40000 43.358
39.42000 50.284
39.44000 49.127
39.46000 47.371
39.48000 53.523
39.50000 61.709
39.52000 58.468
39.54000 54.371
39.56000 58.614
39.58000 62.957
39.60000 70.559
39.62000 68.172
39.64000 68.944
39.66000 70.361
39.68000 74.812
39.70000 77.756
39.72000 83.115
39.74000 92.814
39.76000 92.758
39.78000 94.401
39.80000 103.708
39.82000 105.231
39.84000 110.437
39.86000 114.032
39.88000 117.869
39.90000 129.183
39.92000 132.749
39.94000 142.190
39.96000 148.881
39.98000 149.807
40.00000 164.934
40.02000 173.870
40.04000 174.300
40.06000 184.911
40.08000 194.508
40.10000 200.898
40.12000 205.966
40.14000 221.271
40.16000 232.462
40.18000 243.374
40.20000 257.444
40.22000 269.039
40.24000 288.899
40.26000 297.722
40.28000 304.320
40.30000 316.321
40.32000 322.104
40.34000 336.356
40.36000 359.475
40.38000 372.390
40.40000 392.961
40.42000 407.760
40.44000 417.414
40.46000 426.086
40.48000 436.135
40.50000 454.795
40.52000 475.355
40.54000 483.966
40.56000 489.945
40.58000 501.422
40.60000 521.413
40.62000 525.113
40.64000 533.009
40.66000 540.205
40.68000 542.668
40.70000 537.978
40.72000 538.095
40.74000 544.855
40.76000 542.144
40.78000 544.399
40.80000 548.029
40.82000 542.499
40.84000 529.394
40.86000 526.612
40.88000 519.195
40.90000 510.647
40.92000 495.442
40.94000 484.106
40.96000 477.294
40.98000 471.843
41.00000 454.834
41.02000 435.918
41.04000 410.589
41.06000 403.233
41.08000 392.728
41.10000 375.322
41.12000 361.190
41.14000 348.886
41.16000 341.235
41.18000 327.686
41.20000 308.145
41.22000 295.334
41.24000 275.311
41.26000 258.634
41.28000 247.383
41.30000 232.968
41.32000 224.823
41.34000 216.984
41.36000 203.355
41.38000 194.112
41.40000 187.551
41.42000 180.086
41.44000 176.906
41.46000 166.162
41.48000 154.080
41.50000 142.675
41.52000 133.792
41.54000 131.945
41.56000 128.723
41.58000 112.548
41.60000 109.657
41.62000 103.476
41.64000 101.614
41.66000 93.009
41.68000 93.770
41.70000 85.613
41.72000 85.502
41.74000 75.967
41.76000 77.249
41.78000 77.081
41.80000 71.073
41.82000 63.142
41.84000 58.807
41.86000 63.883
41.88000 57.997
41.90000 48.808
41.92000 49.612
41.94000 49.942
41.96000 43.660
41.98000 40.979
42.00000 40.675
42.02000 34.490
42.04000 36.269
42.06000 33.913
42.08000 36.112
42.10000 34.669
42.12000 28.679
42.14000 30.508
42.16000 28.754
42.18000 28.537
42.20000 28.182
42.22000 24.253
42.24000 23.878
42.26000 21.098
42.28000 17.366
42.30000 20.490
42.32000 19.812
42.34000 20.184
42.36000 19.510
42.38000 21.749
42.40000 19.609
42.42000 18.474
42.44000 16.690
42.46000 13.905
42.48000 9.574
42.50000 11.788
42.52000 12.923
42.54000 10.415
42.56000 11.689
42.58000 16.061
42.60000 9.771
42.62000 9.397
42.64000 9.357
42.66000 5.865
42.68000 8.491
42.70000 7.566
42.72000 5.570
42.74000 5.568
42.76000 5.597
42.78000 5.527
42.80000 9.158
42.82000 7.027
42.84000 4.744
42.86000 4.983
42.88000 4.809
42.90000 5.422
42.92000 8.738
42.94000 6.626
42.96000 5.419
42.98000 3.218
43.00000 4.529
43.02000 5.461
43.04000 7.468
43.06000 8.753
43.08000 4.136
43.10000 4.066
43.12000 0.624
43.14000 -0.045
43.16000 0.277
43.18000 4.166
43.20000 3.010
43.22000 -1.935
43.24000 -2.385
43.26000 -2.328
43.28000 1.777
43.30000 3.290
43.32000 6.766
43.34000 7.378
43.36000 1.294
43.38000 2.419
43.40000 2.458
43.42000 3.022
43.44000 1.267
43.46000 0.411
43.48000 1.088
43.50000 -0.010
43.52000 -3.501
43.54000 -1.768
43.56000 3.413
43.58000 0.179
43.60000 -1.255
43.62000 0.202
43.64000 0.160
43.66000 0.445
43.68000 2.781
43.70000 2.207
43.72000 1.565
43.74000 5.393
43.76000 3.513
43.78000 2.145
43.80000 2.100
43.82000 1.356
43.84000 2.828
43.86000 -2.214
43.88000 -3.449
43.90000 0.720
43.92000 5.036
43.94000 0.877
43.96000 -1.153
43.98000 5.065
44.00000 2.501
44.02000 3.199
44.04000 1.646
44.06000 1.376
44.08000 3.077
44.10000 1.660
44.12000 1.664
44.14000 -0.065
44.16000 -0.149
44.18000 5.204
44.20000 9.530
44.22000 8.786
44.24000 1.138
44.26000 2.422
44.28000 2.574
44.30000 2.155
44.32000 2.047
44.34000 2.490
44.36000 0.505
44.38000 -3.430
44.40000 -2.561
44.42000 3.325
44.44000 6.750
44.46000 4.691
44.48000 1.412
44.50000 -2.004
44.52000 0.149
44.54000 4.506
44.56000 4.334
44.58000 -0.207
44.60000 3.688
44.62000 4.778
44.64000 0.574
44.66000 0.781
44.68000 3.184
44.70000 3.935
44.72000 -3.427
44.74000 -1.155
44.76000 2.034
44.78000 0.891
44.80000 -0.887
44.82000 -1.835
44.84000 -1.400
44.86000 -2.366
44.88000 2.271
44.90000 -1.352
44.92000 -1.106
44.94000 3.837
44.96000 6.240
44.98000 3.783
45.00000 -0.418
45.02000 6.440
45.04000 8.593
45.06000 7.086
45.08000 3.340
45.10000 0.385
45.12000 -1.774
45.14000 -1.138
45.16000 -1.248
45.18000 -1.571
45.20000 0.561
45.22000 2.348
45.24000 1.359
45.26000 5.192
45.28000 -0.318
45.30000 6.394
45.32000 5.300
45.34000 14.304
45.36000 6.393
45.38000 2.722
45.40000 2.707
45.42000 4.361
45.44000 0.467
45.46000 1.052
45.48000 1.945
45.50000 4.552
45.52000 5.844
45.54000 6.403
45.56000 4.701
45.58000 5.950
45.60000 2.521
45.62000 4.564
45.64000 6.816
45.66000 10.502
45.68000 12.289
45.70000 11.225
45.72000 9.355
45.74000 4.562
45.76000 8.447
45.78000 3.055
45.80000 5.225
45.82000 8.926
45.84000 7.022
45.86000 6.792
45.88000 1.878
45.90000 6.783
45.92000 9.248
45.94000 11.132
45.96000 10.896
45.98000 9.159
46.00000 11.109
46.02000 7.142
46.04000 11.907
46.06000 9.248
46.08000 2.060
46.10000 10.163
46.12000 17.187
46.14000 16.193
46.16000 18.011
46.18000 20.303
46.20000 21.626
46.22000 22.655
46.24000 21.079
46.26000 23.125
46.28000 20.968
46.30000 18.727
46.32000 19.871
46.34000 30.610
46.36000 25.045
46.38000 21.970
46.40000 28.029
46.42000 29.192
46.44000 21.286
46.46000 22.443
46.48000 30.207
46.50000 30.522
46.52000 34.404
46.54000 34.795
46.56000 35.524
46.58000 39.330
46.60000 32.103
46.62000 38.325
46.64000 30.383
46.66000 33.254
46.68000 40.704
46.70000 42.187
46.72000 40.706
46.74000 40.820
46.76000 42.731
46.78000 49.351
46.80000 45.792
46.82000 41.292
46.84000 45.605
46.86000 54.304
46.88000 53.749
46.90000 47.669
46.92000 50.575
46.94000 49.481
46.96000 46.399
46.98000 48.243
47.00000 53.237
47.02000 55.010
47.04000 57.150
47.06000 57.055
47.08000 55.493
47.10000 56.458
47.12000 58.070
47.14000 60.116
47.16000 62.098
47.18000 56.219
47.20000 56.001
47.22000 60.256
47.24000 59.766
47.26000 58.595
47.28000 61.249
47.30000 60.467
47.32000 60.897
47.34000 61.076
47.36000 66.335
47.38000 68.674
47.40000 63.460
47.42000 57.204
47.44000 53.166
47.46000 53.298
47.48000 56.698
47.50000 51.612
47.52000 52.105
47.54000 52.492
47.56000 51.363
47.58000 50.254
47.60000 52.052
47.62000 59.497
47.64000 55.519
47.66000 44.789
47.68000 42.966
47.70000 43.725
47.72000 42.733
47.74000 45.357
47.76000 47.440
47.78000 47.439
47.80000 43.671
47.82000 41.686
47.84000 38.423
47.86000 40.306
47.88000 36.102
47.90000 37.837
47.92000 34.475
47.94000 31.009
47.96000 32.277
47.98000 26.112
48.00000 29.533
48.02000 25.465
48.04000 20.587
48.06000 23.884
48.08000 25.578
48.10000 20.216
48.12000 20.337
48.14000 22.288
48.16000 23.809
48.18000 22.354
48.20000 21.703
48.22000 22.968
48.24000 22.344
48.26000 16.761
48.28000 15.412
48.30000 15.481
48.32000 13.945
48.34000 12.912
48.36000 5.274
48.38000 11.084
48.40000 13.355
48.42000 9.730
48.44000 4.850
48.46000 10.447
48.48000 5.634
48.50000 4.484
48.52000 5.423
48.54000 5.402
48.56000 9.301
48.58000 9.100
48.60000 10.146
48.62000 2.061
48.64000 3.190
48.66000 -0.231
48.68000 -1.504
48.70000 9.288
48.72000 2.060
48.74000 2.856
48.76000 0.709
48.78000 3.276
48.80000 2.764
48.82000 1.887
48.84000 2.284
48.86000 2.140
48.88000 2.095
48.90000 0.729
48.92000 -0.209
48.94000 4.749
48.96000 1.421
48.98000 4.765
49.00000 4.853
49.02000 0.997
49.04000 0.129
49.06000 3.502
49.08000 1.551
49.10000 -2.283
49.12000 -2.174
49.14000 1.549
49.16000 2.634
49.18000 1.213
49.20000 1.615
49.22000 -0.431
49.24000 0.163
49.26000 3.443
49.28000 2.112
49.30000 0.249
49.32000 -3.093
49.34000 -0.170
49.36000 1.244
49.38000 6.373
49.40000 3.711
49.42000 0.932
49.44000 -2.631
49.46000 0.994
49.48000 3.405
49.50000 2.668
49.52000 1.256
49.54000 2.412
49.56000 0.995
49.58000 2.667
49.60000 1.863
49.62000 1.393
49.64000 -2.477
49.66000 -2.240
49.68000 2.810
49.70000 3.836
49.72000 1.315
49.74000 3.602
49.76000 1.757
49.78000 3.169
49.80000 0.105
49.82000 0.124
49.84000 -0.378
49.86000 3.904
49.88000 5.912
49.90000 1.844
49.92000 3.873
49.94000 7.589
49.96000 3.694
49.98000 -1.870
50.00000 3.750
50.02000 0.698
50.04000 -2.984
50.06000 5.261
50.08000 4.002
50.10000 11.609
50.12000 6.364
50.14000 5.619
50.16000 2.474
50.18000 4.187
50.20000 1.031
50.22000 -0.955
50.24000 -2.065
50.26000 2.436
50.28000 2.730
50.30000 0.695
50.32000 1.866
50.34000 7.331
50.36000 8.889
50.38000 4.094
50.40000 0.075
50.42000 -0.472
50.44000 2.913
50.46000 7.215
50.48000 1.342
50.50000 2.130
50.52000 1.834
50.54000 3.520
50.56000 -2.885
50.58000 2.422
50.60000 3.963
50.62000 1.257
50.64000 6.661
50.66000 8.128
50.68000 2.137
50.70000 3.615
50.72000 2.656
50.74000 3.280
50.76000 5.986
50.78000 7.412
50.80000 3.880
50.82000 8.942
50.84000 14.898
50.86000 7.613
50.88000 6.230
50.90000 9.174
50.92000 6.655
50.94000 7.208
50.96000 6.886
50.98000 7.682
51.00000 9.232
51.02000 5.448
51.04000 -1.486
51.06000 -2.871
51.08000 1.003
51.10000 4.493
51.12000 3.185
51.14000 2.676
51.16000 7.995
51.18000 7.930
51.20000 4.168
51.22000 0.390
51.24000 -0.838
51.26000 0.525
51.28000 2.435
51.30000 2.546
51.32000 3.885
51.34000 1.430
51.36000 1.148
51.38000 2.956
51.40000 5.404
51.42000 3.563
51.44000 1.950
51.46000 0.018
51.48000 2.172
51.50000 3.207
51.52000 3.458
51.54000 3.044
51.56000 3.670
51.58000 6.426
51.60000 4.836
51.62000 2.356
51.64000 4.439
51.66000 2.814
51.68000 -0.493
51.70000 3.447
51.72000 3.889
51.74000 3.198
51.76000 0.540
51.78000 2.220
51.80000 5.702
51.82000 6.244
51.84000 7.339
51.86000 3.162
51.88000 1.404
51.90000 1.869
51.92000 3.950
51.94000 5.002
51.96000 4.549
51.98000 2.342
52.00000 2.924
52.02000 1.942
52.04000 2.817
52.06000 0.565
52.08000 0.814
52.10000 -2.115
52.12000 0.501
52.14000 1.677
52.16000 -1.174
52.18000 0.145
52.20000 0.594
52.22000 4.243
52.24000 3.991
52.26000 -0.666
52.28000 -0.338
52.30000 1.035
52.32000 -1.581
52.34000 -2.889
52.36000 3.571
52.38000 7.131
52.40000 7.348
52.42000 2.002
52.44000 -0.484
52.46000 6.227
52.48000 5.119
52.50000 -0.883
52.52000 2.767
52.54000 4.365
52.56000 0.106
52.58000 -0.726
52.60000 1.511
52.62000 -0.507
52.64000 -0.979
52.66000 2.272
52.68000 3.303
52.70000 -1.801
52.72000 -1.674
52.74000 -2.521
52.76000 -1.285
52.78000 0.895
52.80000 0.848
52.82000 1.644
52.84000 6.709
52.86000 2.971
52.88000 -0.926
52.90000 3.044
52.92000 5.006
52.94000 1.083
52.96000 -0.262
52.98000 -0.842
53.00000 -1.097
53.02000 1.130
53.04000 -0.055
53.06000 2.162
53.08000 -2.604
53.10000 2.150
53.12000 3.234
53.14000 -1.621
53.16000 1.476
53.18000 5.064
53.20000 0.052
53.22000 1.715
53.24000 6.343
53.26000 5.787
53.28000 5.162
53.30000 6.374
53.32000 0.365
53.34000 1.639
53.36000 2.425
53.38000 5.240
53.40000 4.060
53.42000 0.584
53.44000 4.742
53.46000 5.038
53.48000 1.406
53.50000 -1.777
53.52000 2.312
53.54000 4.114
53.56000 6.339
53.58000 4.717
53.60000 6.510
53.62000 3.256
53.64000 -0.529
53.66000 -1.282
53.68000 -2.818
53.70000 -0.837
53.72000 0.569
53.74000 1.296
53.76000 5.026
53.78000 4.832
53.80000 5.323
53.82000 0.595
53.84000 -1.558
53.86000 -2.632
53.88000 -1.116
53.90000 4.441
53.92000 2.808
53.94000 -2.815
53.96000 1.297
53.98000 5.101
54.00000 2.779
54.02000 2.656
54.04000 2.876
54.06000 5.416
54.08000 2.689
54.10000 1.183
54.12000 -0.665
54.14000 1.390
54.16000 -0.810
54.18000 5.919
54.20000 5.836
54.22000 0.080
54.24000 -1.858
54.26000 2.115
54.28000 2.704
54.30000 0.475
54.32000 2.194
54.34000 2.637
54.36000 8.447
54.38000 6.229
54.40000 4.812
54.42000 5.727
54.44000 6.638
54.46000 2.972
54.48000 6.389
54.50000 8.920
54.52000 8.190
54.54000 5.795
54.56000 8.279
54.58000 7.987
54.60000 -0.429
54.62000 1.915
54.64000 4.149
54.66000 0.146
54.68000 0.657
54.70000 0.159
54.72000 0.547
54.74000 3.636
54.76000 7.937
54.78000 5.820
54.80000 -0.551
54.82000 -1.215
54.84000 -0.668
54.86000 4.643
54.88000 4.213
54.90000 5.759
54.92000 1.662
54.94000 -2.770
54.96000 3.124
54.98000 3.146
55.00000 1.274
55.02000 0.952
55.04000 2.063
55.06000 7.151
55.08000 3.903
55.10000 -2.769
55.12000 0.526
55.14000 1.947
55.16000 7.207
55.18000 8.715
55.20000 10.938
55.22000 11.280
55.24000 4.982
55.26000 0.826
55.28000 0.570
55.30000 3.947
55.32000 3.067
55.34000 0.123
55.36000 3.976
55.38000 10.598
55.40000 8.779
55.42000 6.070
55.44000 1.927
55.46000 1.471
55.48000 -1.485
55.50000 -0.946
55.52000 -1.100
55.54000 4.750
55.56000 1.379
55.58000 2.625
55.60000 4.414
55.62000 4.070
55.64000 0.033
55.66000 0.770
55.68000 -0.279
55.70000 0.618
55.72000 0.946
55.74000 -2.161
55.76000 -0.173
55.78000 1.082
55.80000 5.923
55.82000 0.154
55.84000 3.617
55.86000 3.543
55.88000 3.769
55.90000 2.213
55.92000 0.030
55.94000 0.599
55.96000 -1.914
55.98000 -1.219
56.00000 -0.608
56.02000 0.371
56.04000 0.603
56.06000 4.176
56.08000 1.828
56.10000 2.705
56.12000 1.673
56.14000 3.305
56.16000 4.783
56.18000 0.723
56.20000 0.956
56.22000 4.038
56.24000 3.465
56.26000 0.998
56.28000 2.084
56.30000 2.949
56.32000 3.158
56.34000 -1.068
56.36000 1.511
56.38000 1.854
56.40000 1.104
56.42000 -0.400
56.44000 -1.078
56.46000 2.345
56.48000 3.724
56.50000 5.926
56.52000 4.048
56.54000 -2.125
56.56000 -2.324
56.58000 1.279
56.60000 2.910
56.62000 0.627
56.64000 2.292
56.66000 -0.463
56.68000 0.619
56.70000 4.525
56.72000 5.717
56.74000 1.036
56.76000 -0.644
56.78000 2.892
56.80000 0.755
56.82000 0.491
56.84000 2.582
56.86000 -2.306
56.88000 1.428
56.90000 -0.412
56.92000 -2.450
56.94000 -1.956
56.96000 -0.896
56.98000 2.710
57.00000 1.832
57.02000 -2.733
57.04000 1.558
57.06000 0.485
57.08000 0.533
57.10000 1.975
57.12000 4.015
57.14000 5.794
57.16000 6.354
57.18000 3.625
57.20000 3.821
57.22000 2.405
57.24000 1.884
57.26000 1.447
57.28000 3.589
57.30000 5.896
57.32000 2.811
57.34000 5.286
57.36000 8.566
57.38000 4.474
57.40000 4.611
57.42000 4.272
57.44000 5.345
57.46000 1.975
57.48000 3.209
57.50000 1.763
57.52000 1.613
57.54000 -2.135
57.56000 5.625
57.58000 0.262
57.60000 -2.231
57.62000 3.220
57.64000 0.692
57.66000 0.368
57.68000 1.787
57.70000 -2.676
57.72000 -0.876
57.74000 0.879
57.76000 4.716
57.78000 9.812
57.80000 8.040
57.82000 5.029
57.84000 5.553
57.86000 2.172
57.88000 0.524
57.90000 5.912
57.92000 4.038
57.94000 0.804
57.96000 3.397
57.98000 3.483
58.00000 6.198
58.02000 1.714
58.04000 -2.670
58.06000 3.214
58.08000 4.850
58.10000 6.521
58.12000 9.357
58.14000 6.078
58.16000 4.985
58.18000 0.248
58.20000 2.860
58.22000 7.951
58.24000 4.932
58.26000 2.054
58.28000 2.218
58.30000 4.770
58.32000 6.247
58.34000 1.290
58.36000 2.499
58.38000 0.422
58.40000 -0.774
58.42000 -2.419
58.44000 3.486
58.46000 4.989
58.48000 5.746
58.50000 2.586
58.52000 -0.071
58.54000 3.738
58.56000 11.063
58.58000 1.906
58.60000 -0.117
58.62000 1.575
58.64000 3.222
58.66000 5.034
58.68000 5.101
58.70000 2.934
58.72000 2.710
58.74000 1.168
58.76000 1.672
58.78000 0.235
58.80000 0.056
58.82000 -0.330
58.84000 3.886
58.86000 1.685
58.88000 1.357
58.90000 2.791
58.92000 6.920
58.94000 1.322
58.96000 4.113
58.98000 6.089
59.00000 7.320
59.02000 2.439
59.04000 1.715
59.06000 -2.400
59.08000 2.842
59.10000 2.877
59.12000 1.376
59.14000 1.049
59.16000 0.840
59.18000 -0.249
59.20000 5.345
59.22000 8.530
59.24000 2.668
59.26000 4.301
59.28000 1.824
59.30000 -2.636
59.32000 1.733
59.34000 7.465
59.36000 3.501
59.38000 5.553
59.40000 8.756
59.42000 6.187
59.44000 4.686
59.46000 2.124
59.48000 2.864
59.50000 0.740
59.52000 -0.453
59.54000 0.786
59.56000 2.423
59.58000 3.479
59.60000 1.531
59.62000 5.619
59.64000 6.597
59.66000 2.927
59.68000 -2.010
59.70000 1.854
59.72000 2.652
59.74000 6.580
59.76000 -0.991
59.78000 0.037
59.80000 1.376
59.82000 4.541
59.84000 2.541
59.86000 3.585
59.88000 4.817
59.90000 6.825
59.92000 6.879
59.94000 7.791
59.96000 2.368
59.98000 0.407
60.00000 4.287
60.02000 7.275
60.04000 5.290
60.06000 5.620
60.08000 8.117
60.10000 1.118
60.12000 -2.573
60.14000 3.158
60.16000 -0.063
60.18000 2.115
60.20000 4.369
60.22000 6.498
60.24000 6.136
60.26000 0.147
60.28000 -2.579
60.30000 2.417
60.32000 0.351
60.34000 3.158
60.36000 3.486
60.38000 3.754
60.40000 1.228
60.42000 5.896
60.44000 2.504
60.46000 4.701
60.48000 7.217
60.50000 6.064
60.52000 5.254
60.54000 3.170
60.56000 -0.672
60.58000 -2.589
60.60000 0.498
60.62000 -0.834
60.64000 0.348
60.66000 1.977
60.68000 3.838
60.70000 0.714
60.72000 4.925
60.74000 2.515
60.76000 -1.111
60.78000 -1.614
60.80000 1.033
60.82000 2.866
60.84000 6.094
60.86000 5.321
60.88000 -0.108
60.90000 1.423
60.92000 1.671
60.94000 2.557
60.96000 6.134
60.98000 -0.650
61.00000 -1.786
61.02000 0.885
61.04000 3.198
61.06000 2.411
61.08000 5.180
61.10000 5.359
61.12000 -1.105
61.14000 3.078
61.16000 2.590
61.18000 -0.600
61.20000 2.083
61.22000 1.810
61.24000 4.194
61.26000 0.854
61.28000 -1.630
61.30000 -0.033
61.32000 -2.445
61.34000 3.208
61.36000 -1.299
61.38000 -0.534
61.40000 0.259
61.42000 -1.235
61.44000 2.247
61.46000 4.291
61.48000 0.090
61.50000 2.629
61.52000 6.490
61.54000 5.770
61.56000 10.095
61.58000 1.852
61.60000 2.601
61.62000 0.911
61.64000 -0.581
61.66000 -1.044
61.68000 5.051
61.70000 7.419
61.72000 4.749
61.74000 3.376
61.76000 4.542
61.78000 -0.874
61.80000 4.192
61.82000 5.573
61.84000 3.732
61.86000 -0.727
61.88000 3.317
61.90000 1.514
61.92000 3.256
61.94000 3.452
61.96000 -0.623
61.98000 1.927
62.00000 2.607
62.02000 3.369
62.04000 -1.044
62.06000 -1.048
62.08000 0.716
62.10000 -1.253
62.12000 2.844
62.14000 2.262
62.16000 0.975
62.18000 0.870
62.20000 1.317
62.22000 3.352
62.24000 -2.544
62.26000 -0.669
62.28000 -0.507
62.30000 1.307
62.32000 1.966
62.34000 0.825
62.36000 -0.411
62.38000 -0.427
62.40000 3.789
62.42000 2.703
62.44000 2.937
62.46000 3.377
62.48000 3.611
62.50000 0.301
62.52000 -0.180
62.54000 1.478
62.56000 3.481
62.58000 2.420
62.60000 -0.143
62.62000 0.332
62.64000 1.026
62.66000 -1.851
62.68000 -1.684
62.70000 1.830
62.72000 -1.255
62.74000 -1.981
62.76000 2.611
62.78000 -1.484
62.80000 -2.011
62.82000 -0.364
62.84000 4.121
62.86000 0.896
62.88000 1.746
62.90000 3.026
62.92000 4.503
62.94000 0.796
62.96000 -1.436
62.98000 1.478
63.00000 1.408
63.02000 5.044
63.04000 1.442
63.06000 3.602
63.08000 2.378
63.10000 2.398
63.12000 0.887
63.14000 0.808
63.16000 2.224
63.18000 1.027
63.20000 2.828
63.22000 5.638
63.24000 4.327
63.26000 2.675
63.28000 0.346
63.30000 2.802
63.32000 6.270
63.34000 4.112
63.36000 3.752
63.38000 1.442
63.40000 2.058
63.42000 3.279
63.44000 6.156
63.46000 2.826
63.48000 6.009
63.50000 5.061
63.52000 2.707
63.54000 1.357
63.56000 -2.509
63.58000 1.550
63.60000 3.344
63.62000 2.512
63.64000 5.353
63.66000 1.404
63.68000 5.607
63.70000 8.637
63.72000 5.081
63.74000 4.106
63.76000 2.612
63.78000 1.878
63.80000 3.818
63.82000 3.826
63.84000 7.096
63.86000 6.155
63.88000 3.928
63.90000 -1.613
63.92000 0.262
63.94000 1.798
63.96000 5.137
63.98000 3.063
64.00000 1.843
64.02000 -2.533
64.04000 -0.487
64.06000 1.813
64.08000 5.254
64.10000 2.339
64.12000 2.044
64.14000 4.399
64.16000 1.074
64.18000 0.060
64.20000 1.014
64.22000 1.168
64.24000 -0.657
64.26000 1.987
64.28000 0.637
64.30000 3.573
64.32000 3.394
64.34000 1.259
64.36000 0.081
64.38000 0.726
64.40000 5.455
64.42000 5.746
64.44000 -0.199
64.46000 -0.744
64.48000 -0.529
64.50000 -0.068
64.52000 -0.176
64.54000 1.436
64.56000 2.945
64.58000 0.486
64.60000 -1.983
64.62000 1.093
64.64000 3.275
64.66000 4.195
64.68000 3.102
64.70000 3.427
64.72000 1.893
64.74000 4.268
64.76000 2.462
64.78000 0.007
64.80000 1.657
64.82000 0.197
64.84000 3.659
64.86000 2.647
64.88000 1.980
64.90000 2.308
64.92000 2.700
64.94000 0.821
64.96000 -0.978
64.98000 0.867
65.00000 -0.623
65.02000 -1.757
65.04000 -2.278
65.06000 0.443
65.08000 3.580
65.10000 2.100
65.12000 2.053
65.14000 0.498
65.16000 0.367
65.18000 1.658
65.20000 1.668
65.22000 1.143
65.24000 2.103
65.26000 3.334
65.28000 1.386
65.30000 3.982
65.32000 3.775
65.34000 2.555
65.36000 2.625
65.38000 3.483
65.40000 3.351
65.42000 0.187
65.44000 3.323
65.46000 0.948
65.48000 3.275
65.50000 4.734
65.52000 -2.551
65.54000 1.201
65.56000 -0.354
65.58000 2.273
65.60000 2.077
65.62000 2.819
65.64000 2.707
65.66000 5.708
65.68000 2.872
65.70000 4.026
65.72000 6.440
65.74000 3.046
65.76000 0.465
65.78000 1.056
65.80000 0.973
65.82000 -0.132
65.84000 -2.051
65.86000 -2.543
65.88000 2.108
65.90000 4.450
65.92000 5.037
65.94000 3.310
65.96000 3.582
65.98000 3.751
66.00000 -0.192
66.02000 -1.952
66.04000 2.834
66.06000 4.405
66.08000 6.259
66.10000 7.724
66.12000 6.183
66.14000 3.862
66.16000 5.747
66.18000 8.061
66.20000 3.880
66.22000 1.876
66.24000 0.309
66.26000 2.626
66.28000 2.126
66.30000 0.990
66.32000 1.279
66.34000 3.462
66.36000 0.755
66.38000 2.409
66.40000 3.421
66.42000 7.062
66.44000 1.741
66.46000 3.036
66.48000 5.638
66.50000 4.188
66.52000 3.366
66.54000 2.652
66.56000 2.301
66.58000 -2.535
66.60000 4.475
66.62000 8.814
66.64000 5.196
66.66000 5.185
66.68000 3.945
66.70000 2.844
66.72000 -1.548
66.74000 -0.589
66.76000 2.178
66.78000 2.155
66.80000 3.731
66.82000 2.857
66.84000 1.089
66.86000 3.162
66.88000 1.917
66.90000 0.040
66.92000 6.065
66.94000 1.408
66.96000 1.149
66.98000 1.013
67.00000 2.412
67.02000 1.199
67.04000 0.103
67.06000 4.471
67.08000 3.439
67.10000 4.803
67.12000 1.764
67.14000 3.156
67.16000 0.937
67.18000 2.052
67.20000 1.207
67.22000 1.751
67.24000 -0.983
67.26000 0.142
67.28000 0.351
67.30000 -1.932
67.32000 -2.203
67.34000 -0.839
67.36000 0.598
67.38000 -0.637
67.40000 2.833
67.42000 -0.855
67.44000 -2.169
67.46000 -1.447
67.48000 -0.339
67.50000 -2.619
67.52000 -1.016
67.54000 0.703
67.56000 3.130
67.58000 2.376
67.60000 6.068
67.62000 2.833
67.64000 2.403
67.66000 1.806
67.68000 0.524
67.70000 1.095
67.72000 3.548
67.74000 4.345
67.76000 5.328
67.78000 1.989
67.80000 3.502
67.82000 2.700
67.84000 3.478
67.86000 4.788
67.88000 0.994
67.90000 6.000
67.92000 -0.174
67.94000 1.549
67.96000 4.241
67.98000 0.900
68.00000 0.612
68.02000 1.902
68.04000 1.671
68.06000 4.246
68.08000 4.141
68.10000 2.355
68.12000 3.517
68.14000 3.495
68.16000 1.303
68.18000 0.749
68.20000 -1.175
68.22000 -0.731
68.24000 4.604
68.26000 1.210
68.28000 8.463
68.30000 10.087
68.32000 11.623
68.34000 12.250
68.36000 12.882
68.38000 7.840
68.40000 2.424
68.42000 5.363
68.44000 4.401
68.46000 8.212
68.48000 10.860
68.50000 14.105
68.52000 13.993
68.54000 12.771
68.56000 13.500
68.58000 10.324
68.60000 8.641
68.62000 13.495
68.64000 15.781
68.66000 17.139
68.68000 18.226
68.70000 13.737
68.72000 16.566
68.74000 19.873
68.76000 13.834
68.78000 16.605
68.80000 18.690
68.82000 15.143
68.84000 16.278
68.86000 18.254
68.88000 21.420
68.90000 24.075
68.92000 19.069
68.94000 18.657
68.96000 16.095
68.98000 19.553
69.00000 23.004
69.02000 22.660
69.04000 17.044
69.06000 16.828
69.08000 21.363
69.10000 21.248
69.12000 22.176
69.14000 19.291
69.16000 19.800
69.18000 23.445
69.20000 20.406
69.22000 20.789
69.24000 23.618
69.26000 20.851
69.28000 24.055
69.30000 22.207
69.32000 20.113
69.34000 21.154
69.36000 19.704
69.38000 15.912
69.40000 17.080
69.42000 16.531
69.44000 19.787
69.46000 18.733
69.48000 16.582
69.50000 17.070
69.52000 17.132
69.54000 17.291
69.56000 14.021
69.58000 14.949
69.60000 17.140
69.62000 14.564
69.64000 14.759
69.66000 16.751
69.68000 12.223
69.70000 10.668
69.72000 11.812
69.74000 13.957
69.76000 12.945
69.78000 12.130
69.80000 11.808
69.82000 9.227
69.84000 6.688
69.86000 8.270
69.88000 8.549
69.90000 9.455
69.92000 6.678
69.94000 4.672
69.96000 8.162
69.98000 7.796
70.00000 0.927
70.02000 1.808
70.04000 2.313
70.06000 1.009
70.08000 2.492
70.10000 5.809
70.12000 6.938
70.14000 5.868
70.16000 3.818
70.18000 3.898
70.20000 6.502
70.22000 4.216
70.24000 4.736
70.26000 4.343
70.28000 7.053
70.30000 7.165
70.32000 3.560
70.34000 4.092
70.36000 4.313
70.38000 4.322
70.40000 6.068
70.42000 2.828
70.44000 2.728
70.46000 0.419
70.48000 1.751
70.50000 3.510
70.52000 4.287
70.54000 4.210
70.56000 3.084
70.58000 2.907
70.60000 0.555
70.62000 -2.524
70.64000 -2.116
70.66000 -0.694
70.68000 -1.975
70.70000 -1.166
70.72000 1.523
70.74000 4.593
70.76000 2.075
70.78000 -0.862
70.80000 2.840
70.82000 3.138
70.84000 1.573
70.86000 -0.662
70.88000 2.222
70.90000 0.881
70.92000 -0.496
70.94000 -0.655
70.96000 5.998
70.98000 3.432
71.00000 2.358
71.02000 3.064
71.04000 0.972
71.06000 0.787
71.08000 6.493
71.10000 5.044
71.12000 6.889
71.14000 1.594
71.16000 5.693
71.18000 4.300
71.20000 6.264
71.22000 2.726
71.24000 -0.170
71.26000 1.336
71.28000 1.858
71.30000 1.789
71.32000 0.121
71.34000 1.856
71.36000 -2.406
71.38000 2.338
71.40000 7.860
71.42000 3.793
71.44000 6.837
71.46000 6.108
71.48000 5.757
71.50000 3.551
71.52000 5.539
71.54000 3.215
71.56000 5.024
71.58000 5.056
71.60000 6.296
71.62000 8.164
71.64000 6.174
71.66000 3.350
71.68000 2.161
71.70000 1.570
71.72000 3.842
71.74000 7.257
71.76000 4.623
71.78000 4.397
71.80000 10.177
71.82000 5.597
71.84000 -0.710
71.86000 0.954
71.88000 1.730
71.90000 1.771
71.92000 0.122
71.94000 -0.375
71.96000 3.946
71.98000 7.705
72.00000 1.031
72.02000 -2.148
72.04000 -0.352
72.06000 2.534
72.08000 -2.132
72.10000 1.367
72.12000 0.841
72.14000 -0.602
72.16000 3.277
72.18000 3.874
72.20000 3.236
72.22000 1.444
72.24000 6.919
72.26000 6.127
72.28000 3.516
72.30000 0.889
72.32000 3.391
72.34000 4.806
72.36000 4.248
72.38000 5.972
72.40000 4.169
72.42000 3.854
72.44000 1.964
72.46000 0.083
72.48000 1.273
72.50000 -1.292
72.52000 -2.380
72.54000 0.001
72.56000 -1.090
72.58000 0.413
72.60000 1.211
72.62000 2.933
72.64000 3.961
72.66000 7.956
72.68000 4.429
72.70000 5.335
72.72000 5.237
72.74000 3.860
72.76000 -0.748
72.78000 0.698
72.80000 0.487
72.82000 -1.153
72.84000 -0.708
72.86000 -0.367
72.88000 2.964
72.90000 -2.243
72.92000 -2.359
72.94000 0.406
72.96000 4.751
72.98000 2.243
73.00000 -0.647
73.02000 0.541
73.04000 0.683
73.06000 0.094
73.08000 0.343
73.10000 0.762
73.12000 6.118
73.14000 7.389
73.16000 4.513
73.18000 4.958
73.20000 2.422
73.22000 -1.093
73.24000 1.471
73.26000 3.320
73.28000 3.515
73.30000 3.370
73.32000 -0.250
73.34000 1.790
73.36000 4.745
73.38000 5.923
73.40000 2.907
73.42000 -2.360
73.44000 -1.450
73.46000 5.175
73.48000 3.329
73.50000 2.734
73.52000 1.770
73.54000 0.398
73.56000 0.755
73.58000 4.199
73.60000 6.466
73.62000 1.070
73.64000 -2.357
73.66000 -1.929
73.68000 1.519
73.70000 2.023
73.72000 3.612
73.74000 5.570
73.76000 2.040
73.78000 -0.631
73.80000 -0.404
73.82000 -0.925
73.84000 7.198
73.86000 4.257
73.88000 -1.896
73.90000 -0.895
73.92000 -0.761
73.94000 -0.717
73.96000 -1.545
73.98000 -2.362
74.00000 -0.169
74.02000 1.705
74.04000 1.789
74.06000 3.120
74.08000 3.253
74.10000 2.263
74.12000 -2.027
74.14000 -2.278
74.16000 0.104
74.18000 -2.365
74.20000 3.362
74.22000 0.469
74.24000 0.650
74.26000 1.574
74.28000 3.791
74.30000 3.575
74.32000 -0.797
74.34000 1.716
74.36000 1.651
74.38000 3.557
74.40000 3.106
74.42000 -1.234
74.44000 0.457
74.46000 -0.013
74.48000 2.531
74.50000 2.502
74.52000 -1.672
74.54000 2.517
74.56000 1.988
74.58000 -0.898
74.60000 0.401
74.62000 1.930
74.64000 6.582
74.66000 3.527
74.68000 -2.362
74.70000 1.372
74.72000 1.172
74.74000 2.135
74.76000 4.083
74.78000 -0.104
74.80000 -1.445
74.82000 -2.021
74.84000 -1.425
74.86000 2.965
74.88000 0.456
74.90000 1.472
74.92000 2.693
74.94000 1.381
74.96000 1.890
74.98000 2.582
75.00000 3.187
75.02000 3.526
75.04000 2.773
75.06000 2.618
75.08000 6.098
75.10000 1.898
75.12000 3.943
75.14000 3.649
75.16000 2.441
75.18000 3.037
75.20000 3.858
75.22000 4.488
75.24000 2.927
75.26000 5.231
75.28000 5.407
75.30000 7.145
75.32000 2.664
75.34000 3.938
75.36000 -1.735
75.38000 -0.561
75.40000 4.976
75.42000 2.689
75.44000 -2.343
75.46000 -0.414
75.48000 2.311
75.50000 1.685
75.52000 1.956
75.54000 0.903
75.56000 3.906
75.58000 -0.789
75.60000 1.522
75.62000 5.209
75.64000 5.636
75.66000 5.111
75.68000 7.543
75.70000 2.663
75.72000 1.085
75.74000 3.584
75.76000 3.865
75.78000 4.974
75.80000 5.879
75.82000 5.386
75.84000 6.941
75.86000 4.660
75.88000 -0.570
75.90000 3.432
75.92000 4.759
75.94000 5.738
75.96000 6.871
75.98000 6.569
76.00000 2.565
76.02000 3.535
76.04000 10.802
76.06000 11.178
76.08000 12.535
76.10000 5.643
76.12000 4.062
76.14000 5.700
76.16000 9.433
76.18000 9.065
76.20000 5.542
76.22000 6.869
76.24000 4.684
76.26000 2.517
76.28000 5.562
76.30000 5.841
76.32000 4.773
76.34000 -2.288
76.36000 2.918
76.38000 5.921
76.40000 9.291
76.42000 10.408
76.44000 6.991
76.46000 6.425
76.48000 7.553
76.50000 3.879
76.52000 2.769
76.54000 2.841
76.56000 3.630
76.58000 4.932
76.60000 2.108
76.62000 6.055
76.64000 5.455
76.66000 3.109
76.68000 3.300
76.70000 5.274
76.72000 0.437
76.74000 0.421
76.76000 2.029
76.78000 1.678
76.80000 4.896
76.82000 3.525
76.84000 -0.498
76.86000 0.237
76.88000 2.892
76.90000 4.011
76.92000 0.521
76.94000 3.960
76.96000 7.170
76.98000 1.942
77.00000 2.023
77.02000 -1.469
77.04000 -2.344
77.06000 0.230
77.08000 -0.377
77.10000 2.397
77.12000 2.196
77.14000 3.005
77.16000 3.927
77.18000 3.045
77.20000 3.080
77.22000 2.084
77.24000 -0.958
77.26000 0.165
77.28000 3.405
77.30000 1.382
77.32000 2.489
77.34000 4.161
77.36000 2.966
77.38000 6.042
77.40000 5.585
77.42000 -1.199
77.44000 -0.045
77.46000 4.896
77.48000 9.250
77.50000 7.678
77.52000 4.304
77.54000 3.288
77.56000 6.019
77.58000 3.522
77.60000 6.533
77.62000 7.726
77.64000 4.673
77.66000 3.104
77.68000 -1.909
77.70000 -0.905
77.72000 3.561
77.74000 3.421
77.76000 2.620
77.78000 3.969
77.80000 5.320
77.82000 -0.632
77.84000 -0.452
77.86000 3.429
77.88000 5.161
77.90000 7.379
77.92000 5.208
77.94000 0.983
77.96000 3.527
77.98000 1.409
78.00000 2.022
78.02000 4.508
78.04000 0.835
78.06000 1.482
78.08000 3.777
78.10000 2.056
78.12000 -2.368
78.14000 0.129
78.16000 1.765
78.18000 2.141
78.20000 0.671
78.22000 4.975
78.24000 7.017
78.26000 10.837
78.28000 10.623
78.30000 9.524
78.32000 3.843
78.34000 -2.204
78.36000 -0.058
78.38000 5.371
78.40000 2.649
78.42000 1.821
78.44000 2.825
78.46000 0.111
78.48000 0.261
78.50000 3.883
78.52000 -0.456
78.54000 -0.887
78.56000 2.242
78.58000 3.048
78.60000 -0.061
78.62000 -1.195
78.64000 1.105
78.66000 2.963
78.68000 8.314
78.70000 9.183
78.72000 5.686
78.74000 6.831
78.76000 2.523
78.78000 1.275
78.80000 1.901
78.82000 -0.812
78.84000 2.907
78.86000 4.759
78.88000 7.690
78.90000 8.122
78.92000 3.796
78.94000 -2.358
78.96000 3.370
78.98000 2.488
79.00000 2.148
79.02000 3.324
79.04000 1.883
79.06000 2.006
79.08000 1.884
79.10000 2.339
79.12000 3.991
79.14000 4.641
79.16000 5.842
79.18000 1.889
79.20000 2.379
79.22000 1.654
79.24000 3.474
79.26000 6.309
79.28000 6.068
79.30000 3.926
79.32000 1.833
79.34000 3.336
79.36000 2.322
79.38000 3.471
79.40000 2.605
79.42000 2.886
79.44000 1.640
79.46000 2.882
79.48000 5.198
79.50000 5.682
79.52000 1.412
79.54000 1.310
79.56000 1.921
79.58000 4.023
79.60000 5.593
79.62000 7.188
79.64000 6.922
79.66000 1.358
79.68000 -1.667
79.70000 0.772
79.72000 0.372
79.74000 1.201
79.76000 0.931
79.78000 1.846
79.80000 2.040
79.82000 4.531
79.84000 4.132
79.86000 5.244
79.88000 8.471
79.90000 9.010
79.92000 8.054
79.94000 8.050
79.96000 1.208
79.98000 0.869
80.00000 4.153
80.02000 4.076
80.04000 3.534
80.06000 4.858
80.08000 6.875
80.10000 6.851
80.12000 4.275
80.14000 0.776
80.16000 1.346
80.18000 6.696
80.20000 4.151
80.22000 0.948
80.24000 0.563
80.26000 -2.408
80.28000 -1.327
80.30000 5.045
80.32000 3.274
80.34000 3.433
80.36000 -0.500
80.38000 -1.057
80.40000 0.882
80.42000 3.812
80.44000 3.610
80.46000 3.473
80.48000 2.591
80.50000 0.388
80.52000 3.648
80.54000 -0.001
80.56000 3.005
80.58000 5.929
80.60000 2.032
80.62000 -0.113
80.64000 5.385
80.66000 3.211
80.68000 -0.012
80.70000 3.195
80.72000 3.209
80.74000 -0.268
80.76000 1.387
80.78000 1.093
80.80000 3.579
80.82000 1.103
80.84000 0.593
80.86000 -2.445
80.88000 -1.553
80.90000 0.287
80.92000 1.552
80.94000 1.386
80.96000 3.396
80.98000 5.351
81.00000 3.561
81.02000 2.431
81.04000 1.259
81.06000 4.945
81.08000 0.640
81.10000 2.326
81.12000 3.679
81.14000 -1.201
81.16000 0.402
81.18000 2.310
81.20000 3.332
81.22000 5.680
81.24000 3.787
81.26000 4.944
81.28000 2.813
81.30000 5.177
81.32000 6.066
81.34000 4.668
81.36000 6.456
81.38000 7.409
81.40000 3.381
81.42000 -1.891
81.44000 0.811
81.46000 4.815
81.48000 8.091
81.50000 11.899
81.52000 9.090
81.54000 7.656
81.56000 5.652
81.58000 2.866
81.60000 3.669
81.62000 2.332
81.64000 0.209
81.66000 1.630
81.68000 -2.460
81.70000 3.643
81.72000 2.610
81.74000 2.794
81.76000 5.623
81.78000 7.596
81.80000 8.520
81.82000 6.690
81.84000 3.842
81.86000 7.814
81.88000 6.336
81.90000 4.804
81.92000 -0.380
81.94000 3.233
81.96000 7.526
81.98000 8.753
82.00000 7.293
82.02000 6.840
82.04000 5.329
82.06000 1.464
82.08000 11.053
82.10000 10.071
82.12000 6.512
82.14000 9.074
82.16000 8.906
82.18000 11.007
82.20000 9.680
82.22000 14.113
82.24000 14.363
82.26000 11.665
82.28000 6.201
82.30000 4.841
82.32000 7.783
82.34000 6.481
82.36000 5.849
82.38000 8.051
82.40000 9.367
82.42000 8.330
82.44000 7.352
82.46000 6.926
82.48000 4.763
82.50000 5.262
82.52000 8.916
82.54000 9.486
82.56000 13.352
82.58000 13.674
82.60000 12.459
82.62000 11.323
82.64000 13.905
82.66000 11.163
82.68000 10.828
82.70000 14.926
82.72000 12.415
82.74000 14.652
82.76000 18.243
82.78000 15.351
82.80000 15.694
82.82000 14.432
82.84000 17.518
82.86000 16.794
82.88000 20.083
82.90000 17.951
82.92000 20.482
82.94000 26.548
82.96000 25.384
82.98000 19.057
83.00000 10.362
83.02000 12.120
83.04000 16.515
83.06000 21.397
83.08000 22.050
83.10000 20.366
83.12000 20.499
83.14000 16.921
83.16000 17.245
83.18000 18.985
83.20000 14.954
83.22000 18.374
83.24000 19.382
83.26000 18.070
83.28000 21.774
83.30000 25.509
83.32000 21.435
83.34000 20.454
83.36000 21.238
83.38000 22.335
83.40000 24.316
83.42000 26.258
83.44000 22.293
83.46000 28.373
83.48000 28.844
83.50000 31.952
83.52000 28.233
83.54000 27.548
83.56000 25.389
83.58000 24.219
83.60000 28.943
83.62000 27.357
83.64000 19.195
83.66000 18.397
83.68000 28.805
83.70000 26.515
83.72000 22.103
83.74000 19.458
83.76000 25.568
83.78000 25.007
83.80000 19.351
83.82000 19.242
83.84000 19.255
83.86000 15.253
83.88000 18.815
83.90000 20.220
83.92000 21.091
83.94000 21.765
83.96000 20.586
83.98000 20.541
84.00000 21.654
84.02000 19.180
84.04000 14.729
84.06000 16.005
84.08000 18.609
84.10000 20.277
84.12000 21.265
84.14000 20.844
84.16000 13.664
84.18000 15.299
84.20000 11.767
84.22000 15.148
84.24000 11.578
84.26000 15.401
84.28000 13.477
84.30000 13.359
84.32000 13.218
84.34000 17.586
84.36000 11.707
84.38000 11.825
84.40000 12.927
84.42000 15.823
84.44000 10.632
84.46000 5.699
84.48000 7.163
84.50000 9.806
84.52000 13.819
84.54000 12.708
84.56000 9.589
84.58000 3.022
84.60000 9.476
84.62000 8.756
84.64000 5.039
84.66000 6.462
84.68000 9.983
84.70000 8.609
84.72000 9.206
84.74000 5.159
84.76000 5.005
84.78000 5.966
84.80000 2.411
84.82000 2.834
84.84000 7.075
84.86000 10.405
84.88000 5.793
84.90000 4.515
84.92000 7.858
84.94000 10.284
84.96000 11.716
84.98000 5.574
85.00000 7.309
85.02000 7.646
85.04000 4.430
85.06000 4.807
85.08000 5.084
85.10000 6.453
85.12000 6.778
85.14000 2.939
85.16000 3.895
85.18000 5.119
85.20000 2.990
85.22000 -1.003
85.24000 1.753
85.26000 2.632
85.28000 0.550
85.30000 3.611
85.32000 3.658
85.34000 1.249
85.36000 1.257
85.38000 -0.577
85.40000 1.456
85.42000 0.531
85.44000 5.882
85.46000 6.351
85.48000 6.303
85.50000 2.447
85.52000 -2.423
85.54000 -1.480
85.56000 3.208
85.58000 4.154
85.60000 2.923
85.62000 5.726
85.64000 1.018
85.66000 2.949
85.68000 0.446
85.70000 2.281
85.72000 0.906
85.74000 -1.727
85.76000 3.011
85.78000 2.147
85.80000 1.655
85.82000 3.401
85.84000 5.385
85.86000 1.459
85.88000 0.355
85.90000 -0.378
85.92000 2.636
85.94000 5.197
85.96000 1.456
85.98000 3.215
86.00000 4.796
86.02000 3.361
86.04000 1.485
86.06000 -0.598
86.08000 1.426
86.10000 -0.282
86.12000 2.913
86.14000 -1.592
86.16000 0.799
86.18000 -1.377
86.20000 1.467
86.22000 -0.924
86.24000 -0.246
86.26000 0.946
86.28000 0.628
86.30000 4.904
86.32000 6.239
86.34000 1.766
86.36000 1.056
86.38000 6.096
86.40000 4.978
86.42000 3.620
86.44000 1.974
86.46000 4.108
86.48000 3.139
86.50000 3.653
86.52000 1.477
86.54000 3.923
86.56000 -2.413
86.58000 -1.727
86.60000 3.364
86.62000 0.323
86.64000 2.238
86.66000 4.891
86.68000 4.026
86.70000 9.342
86.72000 7.851
86.74000 2.003
86.76000 -1.813
86.78000 -1.384
86.80000 2.356
86.82000 1.676
86.84000 2.262
86.86000 2.704
86.88000 2.906
86.90000 2.110
86.92000 4.019
86.94000 10.028
86.96000 5.150
86.98000 5.326
87.00000 8.211
87.02000 6.319
87.04000 2.354
87.06000 2.936
87.08000 6.249
87.10000 6.801
87.12000 7.675
87.14000 8.560
87.16000 7.887
87.18000 7.329
87.20000 9.022
87.22000 4.856
87.24000 6.757
87.26000 9.345
87.28000 4.213
87.30000 6.843
87.32000 14.738
87.34000 12.926
87.36000 13.007
87.38000 8.999
87.40000 6.869
87.42000 7.891
87.44000 9.169
87.46000 12.454
87.48000 14.951
87.50000 12.808
87.52000 14.303
87.54000 12.294
87.56000 12.459
87.58000 11.611
87.60000 14.497
87.62000 20.348
87.64000 16.472
87.66000 19.809
87.68000 16.123
87.70000 14.023
87.72000 13.635
87.74000 13.089
87.76000 14.432
87.78000 13.997
87.80000 17.412
87.82000 18.903
87.84000 21.224
87.86000 19.861
87.88000 19.709
87.90000 15.320
87.92000 17.807
87.94000 19.631
87.96000 19.232
87.98000 14.178
88.00000 20.273
88.02000 21.546
88.04000 22.002
88.06000 25.404
88.08000 27.221
88.10000 24.167
88.12000 22.493
88.14000 20.679
88.16000 21.587
88.18000 20.316
88.20000 17.797
88.22000 28.251
88.24000 23.896
88.26000 18.683
88.28000 17.723
88.30000 19.428
88.32000 23.610
88.34000 21.936
88.36000 20.856
88.38000 21.736
88.40000 21.957
88.42000 16.362
88.44000 19.424
88.46000 21.599
88.48000 23.553
88.50000 24.955
88.52000 20.509
88.54000 19.080
88.56000 17.359
88.58000 15.296
88.60000 16.788
88.62000 14.239
88.64000 14.840
88.66000 15.663
88.68000 14.093
88.70000 14.526
88.72000 11.974
88.74000 12.579
88.76000 9.980
88.78000 14.594
88.80000 12.365
88.82000 10.082
88.84000 10.345
88.86000 14.840
88.88000 15.296
88.90000 11.829
88.92000 14.903
88.94000 13.998
88.96000 11.172
88.98000 7.836
89.00000 11.085
89.02000 14.163
89.04000 11.484
89.06000 11.218
89.08000 6.263
89.10000 11.550
89.12000 9.668
89.14000 6.220
89.16000 4.228
89.18000 2.495
89.20000 5.758
89.22000 7.604
89.24000 6.479
89.26000 1.991
89.28000 8.559
89.30000 8.229
89.32000 6.118
89.34000 4.419
89.36000 7.865
89.38000 5.091
89.40000 2.481
89.42000 3.153
89.44000 5.080
89.46000 -0.652
89.48000 -0.185
89.50000 2.544
89.52000 3.346
89.54000 6.835
89.56000 5.394
89.58000 4.484
89.60000 3.170
89.62000 2.678
89.64000 -1.210
89.66000 -2.348
89.68000 -0.506
89.70000 1.365
89.72000 6.105
89.74000 8.437
89.76000 6.869
89.78000 2.383
89.80000 2.292
89.82000 2.426
89.84000 1.733
89.86000 4.370
89.88000 5.843
89.90000 3.233
89.92000 0.954
89.94000 1.391
89.96000 1.051
89.98000 2.707
90.00000 3.263
90.02000 3.059
90.04000 5.669
90.06000 8.297
90.08000 8.094
90.10000 3.850
90.12000 3.043
90.14000 3.522
90.16000 0.139
90.18000 1.178
90.20000 5.129
90.22000 6.312
90.24000 2.384
90.26000 1.286
90.28000 1.312
90.30000 2.257
90.32000 4.254
90.34000 9.064
90.36000 10.007
90.38000 8.626
90.40000 2.949
90.42000 10.973
90.44000 8.637
90.46000 2.691
90.48000 -2.247
90.50000 5.638
90.52000 7.179
90.54000 6.975
90.56000 6.191
90.58000 6.382
90.60000 5.921
90.62000 6.537
90.64000 4.979
90.66000 4.887
90.68000 1.334
90.70000 -1.095
90.72000 3.101
90.74000 0.156
90.76000 4.562
90.78000 5.288
90.80000 5.565
90.82000 6.726
90.84000 -0.596
90.86000 2.566
90.88000 4.782
90.90000 3.570
90.92000 5.573
90.94000 5.908
90.96000 3.400
90.98000 0.743
91.00000 -1.005
91.02000 -0.315
91.04000 0.479
91.06000 1.768
91.08000 -0.180
91.10000 0.814
91.12000 -1.034
91.14000 2.227
91.16000 6.564
91.18000 3.513
91.20000 1.424
91.22000 0.285
91.24000 5.371
91.26000 3.944
91.28000 2.319
91.30000 4.978
91.32000 7.282
91.34000 6.907
91.36000 5.938
91.38000 8.691
91.40000 1.312
91.42000 2.872
91.44000 4.393
91.46000 0.567
91.48000 -2.201
91.50000 1.834
91.52000 1.867
91.54000 2.853
91.56000 2.315
91.58000 3.016
91.60000 2.683
91.62000 4.960
91.64000 4.265
91.66000 3.081
91.68000 3.411
91.70000 5.622
91.72000 5.601
91.74000 6.255
91.76000 6.616
91.78000 3.993
91.80000 5.359
91.82000 6.563
91.84000 6.548
91.86000 5.944
91.88000 3.515
91.90000 6.982
91.92000 5.102
91.94000 1.500
91.96000 1.997
91.98000 5.387
92.00000 4.482
92.02000 5.878
92.04000 3.474
92.06000 4.654
92.08000 3.862
92.10000 5.107
92.12000 7.296
92.14000 7.119
92.16000 6.747
92.18000 4.972
92.20000 7.708
92.22000 3.646
92.24000 3.945
92.26000 0.892
92.28000 2.191
92.30000 -2.189
92.32000 0.457
92.34000 8.080
92.36000 8.812
92.38000 15.120
92.40000 10.369
92.42000 7.769
92.44000 9.557
92.46000 6.655
92.48000 5.980
92.50000 7.385
92.52000 4.789
92.54000 3.127
92.56000 -0.097
92.58000 2.703
92.60000 0.246
92.62000 0.387
92.64000 7.060
92.66000 6.263
92.68000 8.813
92.70000 7.141
92.72000 6.506
92.74000 7.356
92.76000 6.461
92.78000 7.098
92.80000 4.287
92.82000 3.980
92.84000 6.366
92.86000 2.108
92.88000 -0.133
92.90000 -2.225
92.92000 0.966
92.94000 1.277
92.96000 2.474
92.98000 3.403
93.00000 1.148
93.02000 0.899
93.04000 2.534
93.06000 3.999
93.08000 4.352
93.10000 3.782
93.12000 1.051
93.14000 1.430
93.16000 2.151
93.18000 4.560
93.20000 4.128
93.22000 4.916
93.24000 1.966
93.26000 1.008
93.28000 1.900
93.30000 5.088
93.32000 6.870
93.34000 1.798
93.36000 0.238
93.38000 3.780
93.40000 2.371
93.42000 0.518
93.44000 1.917
93.46000 4.496
93.48000 8.845
93.50000 3.729
93.52000 4.481
93.54000 2.200
93.56000 0.072
93.58000 2.201
93.60000 4.310
93.62000 6.815
93.64000 3.615
93.66000 9.487
93.68000 17.347
93.70000 14.640
93.72000 7.258
93.74000 -2.239
93.76000 0.193
93.78000 -1.400
93.80000 0.310
93.82000 7.020
93.84000 3.053
93.86000 7.088
93.88000 6.222
93.90000 4.638
93.92000 6.224
93.94000 7.093
93.96000 3.626
93.98000 7.003
94.00000 7.980
94.02000 4.568
94.04000 7.595
94.06000 4.715
94.08000 5.004
94.10000 4.103
94.12000 8.320
94.14000 4.520
94.16000 3.045
94.18000 0.913
94.20000 2.712
94.22000 -2.248
94.24000 1.448
94.26000 5.059
94.28000 5.372
94.30000 6.249
94.32000 0.570
94.34000 2.510
94.36000 4.309
94.38000 11.575
94.40000 9.628
94.42000 5.666
94.44000 6.302
94.46000 0.684
94.48000 1.272
94.50000 4.129
94.52000 4.675
94.54000 4.348
94.56000 4.222
94.58000 4.699
94.60000 3.826
94.62000 6.396
94.64000 9.340
94.66000 3.692
94.68000 8.489
94.70000 3.652
94.72000 4.779
94.74000 5.496
94.76000 11.474
94.78000 7.821
94.80000 4.243
94.82000 2.406
94.84000 -0.813
94.86000 4.942
94.88000 8.399
94.90000 11.531
94.92000 7.149
94.94000 -2.242
94.96000 0.677
94.98000 4.109
95.00000 9.392
95.02000 4.319
95.04000 2.109
95.06000 3.504
95.08000 6.112
95.10000 -1.109
95.12000 -2.240
95.14000 2.105
95.16000 5.485
95.18000 2.834
95.20000 2.472
95.22000 -0.679
95.24000 1.738
95.26000 2.916
95.28000 1.692
95.30000 1.885
95.32000 5.841
95.34000 5.120
95.36000 2.000
95.38000 0.056
95.40000 0.356
95.42000 2.272
95.44000 5.192
95.46000 5.914
95.48000 2.530
95.50000 5.448
95.52000 7.386
95.54000 4.014
95.56000 3.974
95.58000 4.582
95.60000 10.932
95.62000 4.953
95.64000 2.285
95.66000 4.435
95.68000 2.533
95.70000 1.128
95.72000 2.874
95.74000 1.465
95.76000 3.442
95.78000 4.166
95.80000 4.418
95.82000 -1.577
95.84000 1.724
95.86000 2.595
95.88000 4.534
95.90000 3.595
95.92000 3.775
95.94000 10.883
95.96000 7.404
95.98000 1.850
96.00000 2.618
96.02000 8.842
96.04000 4.431
96.06000 0.486
96.08000 -0.663
96.10000 8.830
96.12000 11.574
96.14000 8.184
96.16000 4.856
96.18000 6.953
96.20000 9.654
96.22000 7.414
96.24000 8.272
96.26000 11.162
96.28000 8.263
96.30000 6.817
96.32000 3.666
96.34000 4.956
96.36000 3.637
96.38000 1.384
96.40000 0.766
96.42000 1.483
96.44000 7.040
96.46000 2.877
96.48000 1.943
96.50000 6.457
96.52000 1.210
96.54000 4.975
96.56000 10.926
96.58000 8.388
96.60000 7.891
96.62000 1.338
96.64000 2.465
96.66000 -0.717
96.68000 2.796
96.70000 10.598
96.72000 11.944
96.74000 10.191
96.76000 3.971
96.78000 -2.201
96.80000 2.382
96.82000 13.561
96.84000 16.273
96.86000 10.420
96.88000 0.933
96.90000 8.966
96.92000 11.710
96.94000 12.453
96.96000 9.947
96.98000 6.785
97.00000 5.880
97.02000 2.913
97.04000 6.043
97.06000 6.333
97.08000 5.789
97.10000 4.458
97.12000 6.022
97.14000 1.372
97.16000 6.562
97.18000 8.984
97.20000 4.180
97.22000 0.889
97.24000 6.949
97.26000 3.007
97.28000 3.561
97.30000 7.019
97.32000 7.447
97.34000 2.489
97.36000 0.624
97.38000 0.825
97.40000 3.733
97.42000 6.430
97.44000 5.277
97.46000 3.687
97.48000 7.824
97.50000 2.884
97.52000 0.238
97.54000 5.391
97.56000 10.709
97.58000 7.493
97.60000 4.073
97.62000 4.320
97.64000 5.925
97.66000 4.589
97.68000 5.903
97.70000 5.282
97.72000 11.403
97.74000 6.969
97.76000 3.336
97.78000 6.088
97.80000 4.646
97.82000 1.530
97.84000 -1.553
97.86000 5.412
97.88000 11.511
97.90000 12.467
97.92000 5.588
97.94000 2.492
97.96000 3.440
97.98000 6.789
98.00000 7.371
98.02000 2.855
98.04000 10.302
98.06000 5.176
98.08000 3.147
98.10000 3.089
98.12000 6.037
98.14000 5.833
98.16000 4.696
98.18000 7.337
98.20000 8.387
98.22000 -2.162
98.24000 1.350
98.26000 3.108
98.28000 6.488
98.30000 10.693
98.32000 11.881
98.34000 14.241
98.36000 8.711
98.38000 6.363
98.40000 10.462
98.42000 13.820
98.44000 5.474
98.46000 8.200
98.48000 6.326
98.50000 13.019
98.52000 15.912
98.54000 9.321
98.56000 8.902
98.58000 6.830
98.60000 4.503
98.62000 7.497
98.64000 9.620
98.66000 3.363
98.68000 4.621
98.70000 -2.199
98.72000 6.409
98.74000 10.344
98.76000 13.198
98.78000 3.869
98.80000 5.012
98.82000 8.205
98.84000 11.146
98.86000 10.054
98.88000 11.285
98.90000 1.199
98.92000 9.255
98.94000 11.577
98.96000 3.371
98.98000 11.185
99.00000 9.824
99.02000 10.513
99.04000 7.069
99.06000 6.266
99.08000 8.409
99.10000 13.797
99.12000 9.164
99.14000 3.391
99.16000 6.300
99.18000 3.255
99.20000 9.780
99.22000 3.532
99.24000 7.522
99.26000 15.499
99.28000 7.490
99.30000 2.792
99.32000 3.742
99.34000 11.371
99.36000 8.829
99.38000 9.542
99.40000 12.179
99.42000 12.768
99.44000 1.998
99.46000 -2.119
99.48000 1.475
99.50000 12.496
99.52000 8.550
99.54000 0.744
99.56000 7.624
99.58000 5.042
99.60000 1.610
99.62000 6.862
99.64000 11.706
99.66000 12.134
99.68000 8.324
99.70000 1.930
99.72000 -1.157
99.74000 6.732
99.76000 1.029
99.78000 4.565
99.80000 7.423
99.82000 11.445
99.84000 4.190
99.86000 1.560
99.88000 -6.183
99.90000 9.101
99.92000 7.988
99.94000 8.140
99.96000 4.898
99.98000 0.000
