'Id: "0011389" Comment: "Integrate frame 0011389_Au-Ir-Rh_Au-Rich_XRD_Mapping-121-0000.gfrmwith cursor Wedge Cursor #5" Operator: "B?rgel" Anode: "Cu" Wavelength: "1.5406" Scantype: "2Theta (TwoTheta)" TimePerStep: "1" X: "-18" Y: "-9" Z: "5.95" 
10.00000 0.000
10.02000 -4.584
10.04000 -0.823
10.06000 2.002
10.08000 1.301
10.10000 4.068
10.12000 2.774
10.14000 -4.442
10.16000 5.555
10.18000 -3.612
10.20000 -4.131
10.22000 0.077
10.24000 16.216
10.26000 12.071
10.28000 8.997
10.30000 19.075
10.32000 21.826
10.34000 18.372
10.36000 11.751
10.38000 -2.579
10.40000 -5.892
10.42000 22.223
10.44000 30.735
10.46000 35.186
10.48000 4.396
10.50000 15.970
10.52000 24.063
10.54000 24.967
10.56000 23.517
10.58000 17.132
10.60000 22.708
10.62000 36.017
10.64000 30.106
10.66000 16.072
10.68000 12.766
10.70000 17.469
10.72000 7.503
10.74000 23.004
10.76000 29.505
10.78000 19.261
10.80000 21.722
10.82000 19.450
10.84000 6.886
10.86000 14.082
10.88000 12.481
10.90000 7.317
10.92000 18.239
10.94000 39.919
10.96000 35.585
10.98000 8.466
11.00000 10.995
11.02000 11.956
11.04000 8.952
11.06000 4.417
11.08000 22.638
11.10000 16.750
11.12000 12.437
11.14000 11.187
11.16000 12.420
11.18000 0.159
11.20000 5.103
11.22000 10.891
11.24000 4.071
11.26000 8.680
11.28000 17.744
11.30000 20.466
11.32000 16.004
11.34000 25.504
11.36000 12.418
11.38000 13.473
11.40000 13.728
11.42000 12.264
11.44000 20.542
11.46000 9.496
11.48000 1.520
11.50000 -2.197
11.52000 3.760
11.54000 2.714
11.56000 10.922
11.58000 17.509
11.60000 28.109
11.62000 10.248
11.64000 7.363
11.66000 14.370
11.68000 16.569
11.70000 23.768
11.72000 18.714
11.74000 19.413
11.76000 13.934
11.78000 20.444
11.80000 27.161
11.82000 28.791
11.84000 27.072
11.86000 27.407
11.88000 21.514
11.90000 22.808
11.92000 23.285
11.94000 31.074
11.96000 22.114
11.98000 15.512
12.00000 20.299
12.02000 12.396
12.04000 13.330
12.06000 19.623
12.08000 20.562
12.10000 11.894
12.12000 10.751
12.14000 12.830
12.16000 23.981
12.18000 18.111
12.20000 22.584
12.22000 26.658
12.24000 23.733
12.26000 15.817
12.28000 17.395
12.30000 12.270
12.32000 13.801
12.34000 21.642
12.36000 8.975
12.38000 14.508
12.40000 22.448
12.42000 23.873
12.44000 17.625
12.46000 7.097
12.48000 8.528
12.50000 18.685
12.52000 14.286
12.54000 13.146
12.56000 16.499
12.58000 24.253
12.60000 16.601
12.62000 13.247
12.64000 10.784
12.66000 11.806
12.68000 17.405
12.70000 15.424
12.72000 13.714
12.74000 15.639
12.76000 13.347
12.78000 22.039
12.80000 25.189
12.82000 28.076
12.84000 29.296
12.86000 21.249
12.88000 10.299
12.90000 15.618
12.92000 21.819
12.94000 17.730
12.96000 14.814
12.98000 11.701
13.00000 1.965
13.02000 -1.178
13.04000 9.846
13.06000 8.230
13.08000 13.472
13.10000 18.722
13.12000 20.301
13.14000 25.740
13.16000 27.917
13.18000 18.979
13.20000 20.840
13.22000 24.249
13.24000 12.571
13.26000 -0.386
13.28000 -4.417
13.30000 1.472
13.32000 9.847
13.34000 20.935
13.36000 18.864
13.38000 21.194
13.40000 21.934
13.42000 18.756
13.44000 16.210
13.46000 5.727
13.48000 3.945
13.50000 5.802
13.52000 14.763
13.54000 17.953
13.56000 10.854
13.58000 7.342
13.60000 4.747
13.62000 5.667
13.64000 18.588
13.66000 23.144
13.68000 18.196
13.70000 8.682
13.72000 13.881
13.74000 17.910
13.76000 15.118
13.78000 11.465
13.80000 5.960
13.82000 11.507
13.84000 24.783
13.86000 12.112
13.88000 13.726
13.90000 15.329
13.92000 11.165
13.94000 6.409
13.96000 8.598
13.98000 10.965
14.00000 8.014
14.02000 17.720
14.04000 17.743
14.06000 12.483
14.08000 10.372
14.10000 10.375
14.12000 7.931
14.14000 15.560
14.16000 17.136
14.18000 11.467
14.20000 6.782
14.22000 1.317
14.24000 8.757
14.26000 17.562
14.28000 5.686
14.30000 5.005
14.32000 2.561
14.34000 12.949
14.36000 10.007
14.38000 11.237
14.40000 14.070
14.42000 12.024
14.44000 5.991
14.46000 2.835
14.48000 4.473
14.50000 6.788
14.52000 11.039
14.54000 12.860
14.56000 9.311
14.58000 7.365
14.60000 6.010
14.62000 8.971
14.64000 8.167
14.66000 7.126
14.68000 9.385
14.70000 10.394
14.72000 7.774
14.74000 5.537
14.76000 16.094
14.78000 15.179
14.80000 16.088
14.82000 14.152
14.84000 21.636
14.86000 16.752
14.88000 11.718
14.90000 1.459
14.92000 6.986
14.94000 2.073
14.96000 4.607
14.98000 9.483
15.00000 13.561
15.02000 10.293
15.04000 17.135
15.06000 14.689
15.08000 4.975
15.10000 4.398
15.12000 3.303
15.14000 1.022
15.16000 2.065
15.18000 2.178
15.20000 4.914
15.22000 9.947
15.24000 10.243
15.26000 2.127
15.28000 5.441
15.30000 13.681
15.32000 8.728
15.34000 10.372
15.36000 10.263
15.38000 12.025
15.40000 13.430
15.42000 6.008
15.44000 2.829
15.46000 6.442
15.48000 9.156
15.50000 12.362
15.52000 13.318
15.54000 3.303
15.56000 7.118
15.58000 13.113
15.60000 4.492
15.62000 3.661
15.64000 1.123
15.66000 9.164
15.68000 8.172
15.70000 4.842
15.72000 -1.475
15.74000 2.667
15.76000 15.902
15.78000 11.150
15.80000 0.431
15.82000 3.232
15.84000 5.714
15.86000 11.381
15.88000 12.017
15.90000 8.586
15.92000 6.611
15.94000 6.294
15.96000 7.910
15.98000 3.448
16.00000 0.244
16.02000 1.481
16.04000 3.951
16.06000 4.543
16.08000 10.782
16.10000 10.688
16.12000 14.496
16.14000 10.800
16.16000 11.999
16.18000 10.063
16.20000 13.040
16.22000 4.287
16.24000 3.114
16.26000 6.722
16.28000 4.945
16.30000 6.224
16.32000 1.510
16.34000 3.018
16.36000 7.589
16.38000 6.710
16.40000 8.965
16.42000 5.812
16.44000 0.027
16.46000 -0.942
16.48000 8.233
16.50000 -0.850
16.52000 -1.096
16.54000 3.982
16.56000 1.936
16.58000 -4.407
16.60000 4.080
16.62000 0.185
16.64000 2.570
16.66000 1.281
16.68000 -1.954
16.70000 -2.034
16.72000 -0.525
16.74000 5.639
16.76000 7.658
16.78000 8.366
16.80000 8.260
16.82000 13.723
16.84000 15.094
16.86000 7.865
16.88000 -2.286
16.90000 1.950
16.92000 9.001
16.94000 13.817
16.96000 12.565
16.98000 16.543
17.00000 8.312
17.02000 -1.525
17.04000 2.339
17.06000 4.593
17.08000 2.132
17.10000 4.326
17.12000 5.629
17.14000 2.191
17.16000 8.672
17.18000 8.618
17.20000 -0.717
17.22000 0.301
17.24000 6.198
17.26000 4.961
17.28000 7.806
17.30000 8.765
17.32000 10.008
17.34000 14.886
17.36000 4.690
17.38000 3.736
17.40000 10.456
17.42000 2.369
17.44000 -1.013
17.46000 6.665
17.48000 6.326
17.50000 -1.828
17.52000 5.796
17.54000 9.815
17.56000 7.454
17.58000 13.402
17.60000 12.194
17.62000 8.242
17.64000 0.221
17.66000 2.712
17.68000 7.790
17.70000 5.865
17.72000 1.120
17.74000 2.780
17.76000 6.872
17.78000 10.078
17.80000 9.881
17.82000 8.472
17.84000 6.082
17.86000 3.814
17.88000 6.542
17.90000 6.054
17.92000 6.491
17.94000 3.244
17.96000 9.801
17.98000 19.616
18.00000 12.375
18.02000 7.111
18.04000 1.968
18.06000 3.784
18.08000 6.652
18.10000 7.636
18.12000 11.176
18.14000 12.836
18.16000 2.004
18.18000 2.134
18.20000 3.327
18.22000 5.531
18.24000 -4.195
18.26000 -2.576
18.28000 0.454
18.30000 1.689
18.32000 4.810
18.34000 6.174
18.36000 5.112
18.38000 8.751
18.40000 10.499
18.42000 8.444
18.44000 4.780
18.46000 -1.588
18.48000 3.304
18.50000 10.464
18.52000 10.753
18.54000 3.746
18.56000 2.044
18.58000 1.875
18.60000 10.911
18.62000 11.645
18.64000 10.452
18.66000 8.350
18.68000 1.298
18.70000 2.609
18.72000 6.738
18.74000 5.745
18.76000 8.821
18.78000 11.040
18.80000 6.700
18.82000 6.091
18.84000 13.005
18.86000 16.099
18.88000 4.795
18.90000 -0.631
18.92000 6.914
18.94000 11.760
18.96000 5.402
18.98000 10.657
19.00000 9.362
19.02000 8.358
19.04000 14.438
19.06000 16.246
19.08000 9.779
19.10000 10.876
19.12000 13.344
19.14000 14.522
19.16000 9.756
19.18000 6.538
19.20000 15.982
19.22000 20.093
19.24000 18.726
19.26000 12.529
19.28000 5.360
19.30000 -4.191
19.32000 -2.135
19.34000 7.488
19.36000 14.566
19.38000 17.765
19.40000 7.962
19.42000 10.232
19.44000 13.657
19.46000 9.005
19.48000 5.730
19.50000 6.220
19.52000 2.886
19.54000 5.177
19.56000 4.055
19.58000 10.821
19.60000 11.794
19.62000 5.973
19.64000 3.854
19.66000 4.201
19.68000 6.620
19.70000 3.768
19.72000 7.768
19.74000 11.696
19.76000 7.654
19.78000 6.625
19.80000 8.539
19.82000 2.070
19.84000 8.681
19.86000 9.848
19.88000 14.916
19.90000 14.794
19.92000 11.998
19.94000 4.018
19.96000 4.594
19.98000 4.143
20.00000 2.943
20.02000 4.512
20.04000 5.208
20.06000 8.471
20.08000 5.443
20.10000 2.955
20.12000 8.466
20.14000 16.082
20.16000 12.321
20.18000 8.701
20.20000 1.745
20.22000 9.788
20.24000 10.182
20.26000 8.270
20.28000 6.583
20.30000 2.602
20.32000 4.916
20.34000 8.621
20.36000 5.825
20.38000 -1.711
20.40000 -2.290
20.42000 2.405
20.44000 5.242
20.46000 9.135
20.48000 1.093
20.50000 1.620
20.52000 4.938
20.54000 4.315
20.56000 1.849
20.58000 1.859
20.60000 8.408
20.62000 6.474
20.64000 6.290
20.66000 4.211
20.68000 9.308
20.70000 5.664
20.72000 1.427
20.74000 -4.165
20.76000 -3.854
20.78000 6.892
20.80000 5.081
20.82000 0.432
20.84000 6.307
20.86000 9.045
20.88000 12.822
20.90000 16.700
20.92000 7.897
20.94000 3.138
20.96000 1.217
20.98000 3.497
21.00000 6.978
21.02000 2.097
21.04000 6.229
21.06000 3.731
21.08000 0.284
21.10000 -2.564
21.12000 3.010
21.14000 6.281
21.16000 4.359
21.18000 1.690
21.20000 6.638
21.22000 0.162
21.24000 -1.144
21.26000 3.165
21.28000 3.163
21.30000 8.649
21.32000 15.452
21.34000 6.842
21.36000 3.001
21.38000 4.149
21.40000 0.499
21.42000 1.744
21.44000 0.262
21.46000 0.992
21.48000 3.990
21.50000 3.457
21.52000 7.453
21.54000 7.696
21.56000 9.172
21.58000 3.073
21.60000 -0.218
21.62000 2.946
21.64000 -1.935
21.66000 -0.191
21.68000 4.336
21.70000 5.304
21.72000 1.251
21.74000 0.513
21.76000 0.339
21.78000 0.417
21.80000 5.157
21.82000 2.314
21.84000 4.433
21.86000 3.761
21.88000 5.028
21.90000 7.186
21.92000 0.982
21.94000 -2.603
21.96000 5.313
21.98000 9.122
22.00000 3.583
22.02000 3.255
22.04000 3.749
22.06000 5.385
22.08000 6.871
22.10000 -1.688
22.12000 -3.256
22.14000 0.282
22.16000 -0.295
22.18000 4.602
22.20000 3.636
22.22000 -0.804
22.24000 -0.002
22.26000 1.012
22.28000 1.640
22.30000 -1.619
22.32000 -0.854
22.34000 1.392
22.36000 7.829
22.38000 2.147
22.40000 0.720
22.42000 9.805
22.44000 3.861
22.46000 -1.308
22.48000 -4.088
22.50000 -0.616
22.52000 1.600
22.54000 4.450
22.56000 2.999
22.58000 -1.365
22.60000 -0.711
22.62000 2.084
22.64000 1.700
22.66000 3.008
22.68000 6.819
22.70000 6.160
22.72000 4.351
22.74000 3.952
22.76000 3.303
22.78000 1.458
22.80000 2.715
22.82000 0.954
22.84000 0.577
22.86000 2.087
22.88000 6.050
22.90000 6.389
22.92000 2.986
22.94000 8.654
22.96000 11.922
22.98000 9.977
23.00000 2.131
23.02000 6.097
23.04000 0.812
23.06000 -1.263
23.08000 3.551
23.10000 4.508
23.12000 7.251
23.14000 12.326
23.16000 7.372
23.18000 0.430
23.20000 -2.795
23.22000 3.834
23.24000 9.471
23.26000 3.510
23.28000 -3.041
23.30000 -1.220
23.32000 -0.236
23.34000 3.127
23.36000 7.716
23.38000 10.116
23.40000 9.465
23.42000 8.424
23.44000 7.422
23.46000 6.071
23.48000 8.373
23.50000 8.487
23.52000 5.290
23.54000 3.592
23.56000 -1.407
23.58000 -1.971
23.60000 1.777
23.62000 8.606
23.64000 8.570
23.66000 2.119
23.68000 -4.004
23.70000 -2.128
23.72000 5.756
23.74000 7.436
23.76000 5.828
23.78000 3.225
23.80000 6.547
23.82000 9.224
23.84000 7.274
23.86000 6.130
23.88000 7.599
23.90000 8.109
23.92000 10.811
23.94000 11.645
23.96000 9.398
23.98000 3.911
24.00000 0.920
24.02000 -3.993
24.04000 0.885
24.06000 4.701
24.08000 -0.317
24.10000 -0.168
24.12000 4.119
24.14000 6.070
24.16000 3.248
24.18000 3.385
24.20000 7.336
24.22000 8.170
24.24000 3.191
24.26000 4.112
24.28000 3.646
24.30000 5.646
24.32000 1.446
24.34000 5.093
24.36000 2.149
24.38000 0.792
24.40000 2.462
24.42000 5.620
24.44000 0.438
24.46000 0.784
24.48000 -3.520
24.50000 0.078
24.52000 4.490
24.54000 6.261
24.56000 9.245
24.58000 4.506
24.60000 3.841
24.62000 5.200
24.64000 5.077
24.66000 0.433
24.68000 1.029
24.70000 -2.055
24.72000 2.898
24.74000 5.208
24.76000 4.519
24.78000 3.878
24.80000 3.801
24.82000 5.912
24.84000 1.297
24.86000 -3.086
24.88000 3.062
24.90000 2.996
24.92000 -1.765
24.94000 0.858
24.96000 4.676
24.98000 3.344
25.00000 1.401
25.02000 2.822
25.04000 4.200
25.06000 0.139
25.08000 0.616
25.10000 3.434
25.12000 -0.915
25.14000 -0.007
25.16000 2.250
25.18000 4.279
25.20000 3.813
25.22000 -2.826
25.24000 1.602
25.26000 2.714
25.28000 -3.928
25.30000 -1.837
25.32000 -0.331
25.34000 1.669
25.36000 1.675
25.38000 -2.971
25.40000 -3.702
25.42000 6.525
25.44000 0.742
25.46000 1.623
25.48000 5.559
25.50000 0.870
25.52000 -2.761
25.54000 1.145
25.56000 9.255
25.58000 3.995
25.60000 6.356
25.62000 5.931
25.64000 -0.564
25.66000 4.107
25.68000 4.734
25.70000 1.369
25.72000 -3.759
25.74000 2.102
25.76000 6.189
25.78000 4.477
25.80000 8.297
25.82000 11.390
25.84000 9.145
25.86000 4.476
25.88000 -1.137
25.90000 -2.073
25.92000 0.877
25.94000 6.434
25.96000 3.221
25.98000 2.089
26.00000 4.991
26.02000 6.263
26.04000 -0.066
26.06000 3.572
26.08000 4.799
26.10000 8.563
26.12000 4.697
26.14000 -1.092
26.16000 2.137
26.18000 0.004
26.20000 1.364
26.22000 3.989
26.24000 3.937
26.26000 1.071
26.28000 3.431
26.30000 9.227
26.32000 8.563
26.34000 2.094
26.36000 1.566
26.38000 -1.052
26.40000 0.837
26.42000 6.941
26.44000 0.846
26.46000 -3.866
26.48000 0.750
26.50000 1.976
26.52000 5.195
26.54000 8.280
26.56000 4.586
26.58000 1.445
26.60000 6.220
26.62000 5.967
26.64000 4.712
26.66000 2.330
26.68000 -0.003
26.70000 4.488
26.72000 -1.318
26.74000 -2.242
26.76000 -1.803
26.78000 2.524
26.80000 -0.858
26.82000 0.163
26.84000 0.156
26.86000 3.528
26.88000 4.213
26.90000 -1.377
26.92000 -2.175
26.94000 3.928
26.96000 8.435
26.98000 4.729
27.00000 1.904
27.02000 2.525
27.04000 3.905
27.06000 3.231
27.08000 -2.812
27.10000 2.419
27.12000 8.032
27.14000 12.741
27.16000 9.958
27.18000 6.360
27.20000 4.084
27.22000 3.660
27.24000 6.702
27.26000 1.010
27.28000 2.111
27.30000 1.937
27.32000 1.184
27.34000 3.126
27.36000 0.918
27.38000 3.781
27.40000 5.630
27.42000 2.591
27.44000 -0.356
27.46000 -0.172
27.48000 2.322
27.50000 1.555
27.52000 -1.507
27.54000 1.575
27.56000 7.684
27.58000 6.824
27.60000 0.444
27.62000 2.199
27.64000 -0.831
27.66000 -0.772
27.68000 -0.182
27.70000 0.401
27.72000 3.357
27.74000 0.042
27.76000 -2.271
27.78000 -1.152
27.80000 -1.588
27.82000 -1.692
27.84000 3.513
27.86000 3.764
27.88000 -1.603
27.90000 -0.120
27.92000 0.231
27.94000 -0.854
27.96000 -2.910
27.98000 -0.463
28.00000 -0.060
28.02000 -1.019
28.04000 2.454
28.06000 -2.424
28.08000 -2.379
28.10000 -3.793
28.12000 -0.533
28.14000 1.798
28.16000 2.349
28.18000 1.386
28.20000 2.333
28.22000 6.594
28.24000 6.130
28.26000 2.913
28.28000 1.901
28.30000 1.764
28.32000 0.552
28.34000 0.214
28.36000 3.758
28.38000 0.042
28.40000 0.500
28.42000 4.330
28.44000 0.776
28.46000 4.628
28.48000 4.336
28.50000 2.596
28.52000 2.093
28.54000 -0.338
28.56000 -1.098
28.58000 2.164
28.60000 0.595
28.62000 -0.191
28.64000 -1.311
28.66000 -0.110
28.68000 3.707
28.70000 5.152
28.72000 3.466
28.74000 1.438
28.76000 1.427
28.78000 0.976
28.80000 3.763
28.82000 4.215
28.84000 4.556
28.86000 9.444
28.88000 4.544
28.90000 -1.804
28.92000 -1.544
28.94000 -2.387
28.96000 0.916
28.98000 -0.728
29.00000 -3.393
29.02000 2.685
29.04000 4.246
29.06000 -0.266
29.08000 -3.192
29.10000 4.911
29.12000 -2.287
29.14000 0.137
29.16000 0.841
29.18000 -2.115
29.20000 -0.235
29.22000 2.478
29.24000 0.845
29.26000 -3.742
29.28000 -0.884
29.30000 2.361
29.32000 4.508
29.34000 6.735
29.36000 4.039
29.38000 -3.231
29.40000 -3.735
29.42000 -2.144
29.44000 -0.996
29.46000 -2.610
29.48000 2.063
29.50000 0.895
29.52000 6.656
29.54000 6.414
29.56000 9.230
29.58000 3.501
29.60000 -0.736
29.62000 -0.541
29.64000 4.236
29.66000 2.713
29.68000 1.777
29.70000 4.672
29.72000 6.715
29.74000 1.589
29.76000 3.302
29.78000 1.109
29.80000 -0.431
29.82000 2.297
29.84000 0.321
29.86000 1.533
29.88000 -0.327
29.90000 4.024
29.92000 -2.562
29.94000 1.967
29.96000 4.935
29.98000 2.649
30.00000 -0.060
30.02000 2.476
30.04000 5.507
30.06000 0.691
30.08000 4.685
30.10000 5.139
30.12000 -1.350
30.14000 -1.830
30.16000 1.261
30.18000 3.956
30.20000 1.307
30.22000 3.312
30.24000 2.472
30.26000 1.035
30.28000 -0.968
30.30000 3.557
30.32000 1.038
30.34000 -0.682
30.36000 2.820
30.38000 4.821
30.40000 7.546
30.42000 6.513
30.44000 3.216
30.46000 -0.389
30.48000 -1.485
30.50000 -3.011
30.52000 -2.711
30.54000 -0.153
30.56000 3.322
30.58000 6.003
30.60000 3.774
30.62000 1.847
30.64000 -0.741
30.66000 -2.498
30.68000 -3.621
30.70000 -1.266
30.72000 2.999
30.74000 4.362
30.76000 1.614
30.78000 -1.462
30.80000 2.223
30.82000 3.386
30.84000 2.571
30.86000 -1.629
30.88000 -1.859
30.90000 -3.115
30.92000 -1.402
30.94000 2.055
30.96000 -2.224
30.98000 -2.031
31.00000 2.835
31.02000 2.124
31.04000 -0.709
31.06000 6.133
31.08000 2.395
31.10000 -0.915
31.12000 0.827
31.14000 -0.200
31.16000 1.751
31.18000 1.620
31.20000 0.510
31.22000 -1.946
31.24000 0.407
31.26000 -3.628
31.28000 1.985
31.30000 0.236
31.32000 1.516
31.34000 5.465
31.36000 6.921
31.38000 7.171
31.40000 2.854
31.42000 3.592
31.44000 3.881
31.46000 2.135
31.48000 5.353
31.50000 0.582
31.52000 2.349
31.54000 4.433
31.56000 1.116
31.58000 -2.640
31.60000 -0.328
31.62000 4.900
31.64000 6.797
31.66000 7.003
31.68000 2.234
31.70000 3.843
31.72000 3.514
31.74000 1.844
31.76000 4.624
31.78000 2.724
31.80000 0.011
31.82000 2.048
31.84000 2.938
31.86000 1.926
31.88000 2.892
31.90000 5.839
31.92000 5.926
31.94000 0.291
31.96000 0.391
31.98000 2.487
32.00000 3.519
32.02000 -1.445
32.04000 -1.791
32.06000 -0.831
32.08000 1.732
32.10000 -3.610
32.12000 -1.963
32.14000 1.154
32.16000 1.991
32.18000 1.146
32.20000 -2.370
32.22000 1.771
32.24000 2.654
32.26000 1.948
32.28000 -1.262
32.30000 -1.317
32.32000 0.456
32.34000 2.086
32.36000 3.597
32.38000 1.779
32.40000 -2.978
32.42000 2.648
32.44000 0.103
32.46000 2.803
32.48000 0.783
32.50000 -0.824
32.52000 -0.531
32.54000 -1.034
32.56000 -1.034
32.58000 -1.568
32.60000 0.089
32.62000 0.443
32.64000 -1.375
32.66000 3.933
32.68000 10.552
32.70000 8.610
32.72000 4.895
32.74000 5.160
32.76000 4.693
32.78000 0.359
32.80000 -0.124
32.82000 -1.798
32.84000 0.700
32.86000 -3.606
32.88000 -2.078
32.90000 -0.095
32.92000 4.446
32.94000 5.435
32.96000 4.713
32.98000 4.738
33.00000 0.866
33.02000 -1.907
33.04000 0.606
33.06000 3.856
33.08000 2.586
33.10000 1.345
33.12000 0.390
33.14000 -1.712
33.16000 -0.412
33.18000 -1.338
33.20000 -3.015
33.22000 5.815
33.24000 10.032
33.26000 3.693
33.28000 1.031
33.30000 3.411
33.32000 3.080
33.34000 2.061
33.36000 3.108
33.38000 6.114
33.40000 3.406
33.42000 4.691
33.44000 5.342
33.46000 3.328
33.48000 -2.848
33.50000 1.335
33.52000 -1.644
33.54000 3.487
33.56000 4.773
33.58000 4.144
33.60000 2.356
33.62000 1.884
33.64000 3.939
33.66000 0.817
33.68000 3.079
33.70000 11.137
33.72000 5.048
33.74000 3.512
33.76000 4.690
33.78000 3.206
33.80000 7.442
33.82000 3.008
33.84000 2.664
33.86000 6.499
33.88000 4.361
33.90000 5.211
33.92000 3.542
33.94000 4.346
33.96000 1.982
33.98000 2.540
34.00000 6.080
34.02000 7.064
34.04000 8.471
34.06000 5.935
34.08000 2.631
34.10000 5.833
34.12000 5.489
34.14000 5.306
34.16000 3.329
34.18000 2.324
34.20000 5.955
34.22000 3.750
34.24000 6.503
34.26000 8.875
34.28000 3.867
34.30000 -1.145
34.32000 -3.561
34.34000 -1.481
34.36000 5.364
34.38000 6.151
34.40000 2.023
34.42000 3.453
34.44000 2.470
34.46000 5.555
34.48000 6.426
34.50000 4.262
34.52000 3.944
34.54000 2.846
34.56000 0.953
34.58000 0.844
34.60000 0.258
34.62000 5.769
34.64000 3.142
34.66000 1.752
34.68000 3.985
34.70000 9.664
34.72000 10.428
34.74000 1.206
34.76000 0.014
34.78000 -3.569
34.80000 -0.990
34.82000 0.955
34.84000 1.290
34.86000 3.811
34.88000 2.548
34.90000 2.623
34.92000 2.097
34.94000 2.265
34.96000 0.489
34.98000 3.096
35.00000 5.865
35.02000 4.234
35.04000 2.684
35.06000 1.332
35.08000 -1.506
35.10000 -2.277
35.12000 5.278
35.14000 4.042
35.16000 5.519
35.18000 3.505
35.20000 0.786
35.22000 -0.610
35.24000 -2.662
35.26000 3.737
35.28000 3.691
35.30000 1.270
35.32000 2.966
35.34000 0.922
35.36000 1.558
35.38000 -1.794
35.40000 -0.160
35.42000 3.143
35.44000 2.738
35.46000 3.293
35.48000 2.428
35.50000 0.976
35.52000 2.556
35.54000 8.195
35.56000 7.247
35.58000 7.629
35.60000 6.478
35.62000 3.739
35.64000 2.877
35.66000 3.881
35.68000 8.529
35.70000 3.695
35.72000 -0.481
35.74000 0.126
35.76000 4.951
35.78000 5.399
35.80000 2.880
35.82000 4.686
35.84000 5.087
35.86000 4.669
35.88000 5.760
35.90000 3.289
35.92000 4.116
35.94000 0.311
35.96000 -3.548
35.98000 -0.428
36.00000 1.733
36.02000 -0.872
36.04000 3.956
36.06000 7.938
36.08000 7.196
36.10000 6.404
36.12000 2.405
36.14000 2.508
36.16000 4.074
36.18000 -1.386
36.20000 2.738
36.22000 4.646
36.24000 1.442
36.26000 2.567
36.28000 1.033
36.30000 3.591
36.32000 7.367
36.34000 3.859
36.36000 4.308
36.38000 0.919
36.40000 -0.805
36.42000 1.202
36.44000 2.542
36.46000 2.405
36.48000 -0.650
36.50000 -0.556
36.52000 6.956
36.54000 9.995
36.56000 5.446
36.58000 6.183
36.60000 0.973
36.62000 0.973
36.64000 1.403
36.66000 -0.268
36.68000 2.809
36.70000 8.013
36.72000 11.357
36.74000 8.918
36.76000 1.974
36.78000 1.819
36.80000 3.661
36.82000 3.472
36.84000 7.399
36.86000 7.029
36.88000 2.777
36.90000 -1.224
36.92000 3.643
36.94000 5.793
36.96000 9.051
36.98000 7.476
37.00000 8.708
37.02000 6.530
37.04000 0.547
37.06000 -0.438
37.08000 2.348
37.10000 7.073
37.12000 11.310
37.14000 9.087
37.16000 3.822
37.18000 2.170
37.20000 4.365
37.22000 7.087
37.24000 9.486
37.26000 10.441
37.28000 6.126
37.30000 4.715
37.32000 8.169
37.34000 8.028
37.36000 6.870
37.38000 7.575
37.40000 11.753
37.42000 6.711
37.44000 10.202
37.46000 13.240
37.48000 12.358
37.50000 10.121
37.52000 10.509
37.54000 12.122
37.56000 9.863
37.58000 11.712
37.60000 11.845
37.62000 13.171
37.64000 11.562
37.66000 14.988
37.68000 16.786
37.70000 14.201
37.72000 17.822
37.74000 15.212
37.76000 19.238
37.78000 16.501
37.80000 18.364
37.82000 20.098
37.84000 18.424
37.86000 19.787
37.88000 19.299
37.90000 20.193
37.92000 17.353
37.94000 21.223
37.96000 27.487
37.98000 27.104
38.00000 24.328
38.02000 23.081
38.04000 18.949
38.06000 24.747
38.08000 28.848
38.10000 32.463
38.12000 30.634
38.14000 32.315
38.16000 36.904
38.18000 40.876
38.20000 39.576
38.22000 37.811
38.24000 41.663
38.26000 46.950
38.28000 49.733
38.30000 49.713
38.32000 52.153
38.34000 48.391
38.36000 49.276
38.38000 52.422
38.40000 55.582
38.42000 56.069
38.44000 60.272
38.46000 60.390
38.48000 63.603
38.50000 62.958
38.52000 62.560
38.54000 70.882
38.56000 74.651
38.58000 75.341
38.60000 83.488
38.62000 84.973
38.64000 90.190
38.66000 98.480
38.68000 103.384
38.70000 114.187
38.72000 117.807
38.74000 125.639
38.76000 126.708
38.78000 132.166
38.80000 137.007
38.82000 147.106
38.84000 155.192
38.86000 160.984
38.88000 175.846
38.90000 192.557
38.92000 208.748
38.94000 216.007
38.96000 226.664
38.98000 240.559
39.00000 252.499
39.02000 270.517
39.04000 281.072
39.06000 299.253
39.08000 317.596
39.10000 330.970
39.12000 347.985
39.14000 369.912
39.16000 385.621
39.18000 399.439
39.20000 420.728
39.22000 435.901
39.24000 454.990
39.26000 465.834
39.28000 476.252
39.30000 477.037
39.32000 490.569
39.34000 495.898
39.36000 501.752
39.38000 511.595
39.40000 512.506
39.42000 512.330
39.44000 516.478
39.46000 509.619
39.48000 506.811
39.50000 495.087
39.52000 486.931
39.54000 474.764
39.56000 457.307
39.58000 448.242
39.60000 434.759
39.62000 423.005
39.64000 403.358
39.66000 381.916
39.68000 364.213
39.70000 347.702
39.72000 339.352
39.74000 320.988
39.76000 299.991
39.78000 278.138
39.80000 259.757
39.82000 244.909
39.84000 234.265
39.86000 221.786
39.88000 203.825
39.90000 198.820
39.92000 189.924
39.94000 174.096
39.96000 160.412
39.98000 152.662
40.00000 137.231
40.02000 129.832
40.04000 128.161
40.06000 117.783
40.08000 109.026
40.10000 101.259
40.12000 88.593
40.14000 81.269
40.16000 84.464
40.18000 84.160
40.20000 79.115
40.22000 76.353
40.24000 73.252
40.26000 64.486
40.28000 57.979
40.30000 58.516
40.32000 53.195
40.34000 48.216
40.36000 46.941
40.38000 44.955
40.40000 40.669
40.42000 41.094
40.44000 36.028
40.46000 38.197
40.48000 33.667
40.50000 35.298
40.52000 35.474
40.54000 31.535
40.56000 26.007
40.58000 29.797
40.60000 26.784
40.62000 28.075
40.64000 30.078
40.66000 24.990
40.68000 19.993
40.70000 23.265
40.72000 18.944
40.74000 20.485
40.76000 21.253
40.78000 20.502
40.80000 18.369
40.82000 15.711
40.84000 12.605
40.86000 10.992
40.88000 13.588
40.90000 14.713
40.92000 14.069
40.94000 13.038
40.96000 10.236
40.98000 11.632
41.00000 13.777
41.02000 11.321
41.04000 12.058
41.06000 12.432
41.08000 8.344
41.10000 6.462
41.12000 7.550
41.14000 10.860
41.16000 7.923
41.18000 7.308
41.20000 10.265
41.22000 8.120
41.24000 6.885
41.26000 7.781
41.28000 6.535
41.30000 4.941
41.32000 6.446
41.34000 2.947
41.36000 3.394
41.38000 2.283
41.40000 0.524
41.42000 -1.527
41.44000 2.697
41.46000 8.124
41.48000 9.542
41.50000 3.963
41.52000 3.091
41.54000 4.892
41.56000 3.848
41.58000 0.901
41.60000 0.117
41.62000 -2.176
41.64000 2.420
41.66000 3.726
41.68000 1.206
41.70000 6.527
41.72000 3.994
41.74000 1.667
41.76000 -3.290
41.78000 1.380
41.80000 2.451
41.82000 0.250
41.84000 1.498
41.86000 2.375
41.88000 1.258
41.90000 -1.878
41.92000 -3.400
41.94000 -1.439
41.96000 2.267
41.98000 -0.817
42.00000 2.736
42.02000 0.252
42.04000 4.624
42.06000 2.609
42.08000 0.613
42.10000 -0.382
42.12000 2.766
42.14000 1.370
42.16000 0.917
42.18000 2.424
42.20000 -3.361
42.22000 -0.038
42.24000 1.974
42.26000 -1.012
42.28000 1.430
42.30000 0.534
42.32000 2.927
42.34000 -1.327
42.36000 -0.347
42.38000 1.336
42.40000 1.347
42.42000 -0.771
42.44000 -1.935
42.46000 2.465
42.48000 2.002
42.50000 0.883
42.52000 0.980
42.54000 -1.453
42.56000 0.625
42.58000 -1.801
42.60000 0.862
42.62000 0.344
42.64000 2.261
42.66000 1.936
42.68000 2.799
42.70000 5.853
42.72000 4.376
42.74000 4.407
42.76000 3.435
42.78000 1.930
42.80000 2.646
42.82000 0.814
42.84000 0.823
42.86000 2.211
42.88000 3.139
42.90000 2.547
42.92000 1.007
42.94000 4.371
42.96000 0.681
42.98000 -1.486
43.00000 -3.243
43.02000 3.628
43.04000 1.647
43.06000 2.033
43.08000 6.816
43.10000 3.350
43.12000 -0.094
43.14000 -0.067
43.16000 0.467
43.18000 -0.450
43.20000 -0.163
43.22000 1.068
43.24000 0.653
43.26000 2.455
43.28000 0.852
43.30000 -3.217
43.32000 0.339
43.34000 -0.875
43.36000 0.614
43.38000 3.013
43.40000 1.717
43.42000 -0.735
43.44000 0.132
43.46000 -1.171
43.48000 3.149
43.50000 5.395
43.52000 2.861
43.54000 -2.731
43.56000 -1.938
43.58000 -1.491
43.60000 0.017
43.62000 1.184
43.64000 -2.411
43.66000 -0.959
43.68000 -0.662
43.70000 1.168
43.72000 -1.505
43.74000 -1.054
43.76000 2.096
43.78000 1.593
43.80000 0.904
43.82000 -1.019
43.84000 -0.678
43.86000 4.783
43.88000 4.767
43.90000 2.148
43.92000 2.889
43.94000 3.486
43.96000 2.956
43.98000 1.300
44.00000 -1.337
44.02000 0.700
44.04000 0.988
44.06000 -1.234
44.08000 -3.182
44.10000 -1.350
44.12000 0.472
44.14000 2.053
44.16000 1.830
44.18000 -0.117
44.20000 -1.292
44.22000 -1.668
44.24000 0.060
44.26000 -1.200
44.28000 -1.237
44.30000 0.699
44.32000 1.968
44.34000 2.490
44.36000 1.582
44.38000 -2.704
44.40000 -1.958
44.42000 -0.706
44.44000 0.688
44.46000 1.835
44.48000 3.495
44.50000 3.039
44.52000 2.080
44.54000 2.561
44.56000 4.795
44.58000 5.659
44.60000 0.925
44.62000 0.299
44.64000 2.770
44.66000 4.704
44.68000 4.120
44.70000 4.972
44.72000 4.136
44.74000 0.826
44.76000 2.138
44.78000 5.652
44.80000 3.972
44.82000 6.440
44.84000 4.169
44.86000 2.750
44.88000 6.333
44.90000 7.563
44.92000 7.265
44.94000 5.729
44.96000 8.917
44.98000 9.821
45.00000 9.214
45.02000 9.711
45.04000 5.459
45.06000 8.575
45.08000 9.974
45.10000 9.072
45.12000 14.797
45.14000 16.678
45.16000 17.565
45.18000 14.714
45.20000 13.662
45.22000 17.683
45.24000 14.945
45.26000 14.375
45.28000 16.910
45.30000 20.172
45.32000 21.590
45.34000 20.735
45.36000 23.067
45.38000 28.132
45.40000 27.315
45.42000 26.362
45.44000 28.605
45.46000 27.862
45.48000 30.581
45.50000 29.025
45.52000 32.217
45.54000 30.245
45.56000 36.235
45.58000 40.992
45.60000 40.002
45.62000 40.269
45.64000 40.315
45.66000 45.697
45.68000 48.371
45.70000 47.424
45.72000 49.347
45.74000 50.308
45.76000 49.252
45.78000 52.205
45.80000 50.875
45.82000 51.764
45.84000 55.974
45.86000 59.711
45.88000 59.855
45.90000 63.674
45.92000 62.152
45.94000 55.937
45.96000 62.252
45.98000 63.612
46.00000 60.234
46.02000 62.757
46.04000 63.418
46.06000 65.881
46.08000 61.881
46.10000 66.423
46.12000 69.548
46.14000 70.363
46.16000 61.050
46.18000 61.579
46.20000 62.432
46.22000 64.430
46.24000 64.160
46.26000 61.911
46.28000 58.414
46.30000 53.156
46.32000 57.213
46.34000 57.371
46.36000 50.333
46.38000 45.215
46.40000 46.002
46.42000 44.659
46.44000 45.689
46.46000 40.830
46.48000 38.551
46.50000 32.926
46.52000 34.031
46.54000 35.129
46.56000 35.494
46.58000 29.305
46.60000 26.637
46.62000 20.683
46.64000 23.648
46.66000 23.466
46.68000 19.613
46.70000 16.668
46.72000 22.255
46.74000 21.673
46.76000 20.530
46.78000 17.954
46.80000 17.551
46.82000 17.922
46.84000 11.210
46.86000 6.874
46.88000 11.999
46.90000 11.364
46.92000 13.199
46.94000 15.304
46.96000 8.840
46.98000 4.503
47.00000 8.143
47.02000 9.571
47.04000 6.171
47.06000 4.081
47.08000 2.715
47.10000 4.393
47.12000 5.224
47.14000 4.830
47.16000 7.357
47.18000 6.113
47.20000 5.463
47.22000 2.189
47.24000 1.252
47.26000 1.967
47.28000 0.522
47.30000 0.784
47.32000 1.138
47.34000 -0.379
47.36000 -1.026
47.38000 -2.829
47.40000 -2.411
47.42000 0.879
47.44000 3.102
47.46000 1.220
47.48000 1.636
47.50000 1.956
47.52000 0.982
47.54000 0.144
47.56000 7.354
47.58000 6.721
47.60000 7.169
47.62000 2.976
47.64000 0.202
47.66000 -1.655
47.68000 -2.115
47.70000 -0.986
47.72000 -0.170
47.74000 3.625
47.76000 -0.496
47.78000 2.364
47.80000 6.046
47.82000 6.650
47.84000 3.457
47.86000 3.198
47.88000 5.465
47.90000 2.857
47.92000 2.501
47.94000 3.080
47.96000 2.170
47.98000 4.851
48.00000 5.346
48.02000 2.524
48.04000 -1.867
48.06000 -0.143
48.08000 2.105
48.10000 -0.331
48.12000 -2.689
48.14000 1.924
48.16000 1.815
48.18000 -2.677
48.20000 0.686
48.22000 3.690
48.24000 6.035
48.26000 6.300
48.28000 4.339
48.30000 3.270
48.32000 3.536
48.34000 6.048
48.36000 4.260
48.38000 4.114
48.40000 4.095
48.42000 7.401
48.44000 6.608
48.46000 3.009
48.48000 3.451
48.50000 5.057
48.52000 1.352
48.54000 0.342
48.56000 1.703
48.58000 3.506
48.60000 3.056
48.62000 3.283
48.64000 2.692
48.66000 3.013
48.68000 1.434
48.70000 1.336
48.72000 2.763
48.74000 2.671
48.76000 3.187
48.78000 0.512
48.80000 -0.485
48.82000 -1.599
48.84000 3.858
48.86000 6.201
48.88000 1.926
48.90000 -0.210
48.92000 2.752
48.94000 3.169
48.96000 2.546
48.98000 3.191
49.00000 0.776
49.02000 2.744
49.04000 -2.627
49.06000 2.570
49.08000 7.237
49.10000 6.239
49.12000 4.403
49.14000 0.846
49.16000 1.013
49.18000 0.553
49.20000 0.016
49.22000 -0.364
49.24000 0.248
49.26000 3.798
49.28000 4.838
49.30000 4.892
49.32000 3.641
49.34000 1.273
49.36000 0.040
49.38000 1.130
49.40000 3.872
49.42000 3.579
49.44000 1.262
49.46000 0.801
49.48000 0.633
49.50000 1.857
49.52000 4.373
49.54000 3.451
49.56000 3.247
49.58000 3.208
49.60000 2.089
49.62000 3.953
49.64000 8.389
49.66000 2.209
49.68000 0.963
49.70000 1.350
49.72000 1.512
49.74000 4.981
49.76000 5.440
49.78000 3.746
49.80000 4.375
49.82000 3.631
49.84000 0.760
49.86000 0.572
49.88000 -0.984
49.90000 0.785
49.92000 -0.536
49.94000 2.597
49.96000 0.289
49.98000 1.783
50.00000 3.993
50.02000 7.245
50.04000 9.497
50.06000 2.334
50.08000 1.173
50.10000 3.355
50.12000 3.037
50.14000 3.238
50.16000 1.541
50.18000 0.442
50.20000 0.757
50.22000 1.759
50.24000 0.397
50.26000 -0.760
50.28000 1.687
50.30000 3.188
50.32000 4.777
50.34000 1.327
50.36000 -0.242
50.38000 -0.990
50.40000 -1.867
50.42000 1.009
50.44000 1.803
50.46000 -0.344
50.48000 2.896
50.50000 3.497
50.52000 2.330
50.54000 5.747
50.56000 5.097
50.58000 2.677
50.60000 4.418
50.62000 -1.074
50.64000 -2.548
50.66000 2.219
50.68000 1.183
50.70000 0.587
50.72000 0.788
50.74000 2.783
50.76000 2.181
50.78000 4.090
50.80000 4.134
50.82000 4.024
50.84000 2.905
50.86000 -0.238
50.88000 1.237
50.90000 1.204
50.92000 0.875
50.94000 -1.642
50.96000 -0.056
50.98000 2.593
51.00000 1.603
51.02000 5.953
51.04000 2.801
51.06000 -0.793
51.08000 -0.101
51.10000 1.786
51.12000 5.018
51.14000 2.594
51.16000 -0.304
51.18000 3.041
51.20000 0.845
51.22000 1.508
51.24000 1.738
51.26000 2.404
51.28000 2.373
51.30000 6.469
51.32000 4.163
51.34000 1.959
51.36000 1.317
51.38000 -0.046
51.40000 0.653
51.42000 1.025
51.44000 2.249
51.46000 -0.704
51.48000 -0.254
51.50000 0.255
51.52000 1.668
51.54000 0.693
51.56000 3.831
51.58000 4.400
51.60000 2.922
51.62000 0.673
51.64000 3.294
51.66000 1.184
51.68000 4.371
51.70000 3.263
51.72000 3.365
51.74000 1.574
51.76000 1.783
51.78000 1.539
51.80000 2.528
51.82000 3.057
51.84000 -1.637
51.86000 2.460
51.88000 6.544
51.90000 5.198
51.92000 1.118
51.94000 3.068
51.96000 3.500
51.98000 2.019
52.00000 1.782
52.02000 4.679
52.04000 4.069
52.06000 4.243
52.08000 4.113
52.10000 3.583
52.12000 6.401
52.14000 6.302
52.16000 4.436
52.18000 4.316
52.20000 5.434
52.22000 2.058
52.24000 5.837
52.26000 1.641
52.28000 4.149
52.30000 1.045
52.32000 -2.489
52.34000 0.330
52.36000 4.756
52.38000 6.053
52.40000 4.182
52.42000 6.340
52.44000 6.122
52.46000 6.783
52.48000 1.859
52.50000 4.490
52.52000 8.471
52.54000 4.734
52.56000 7.073
52.58000 4.887
52.60000 3.194
52.62000 3.129
52.64000 2.243
52.66000 4.252
52.68000 3.126
52.70000 0.025
52.72000 4.965
52.74000 3.823
52.76000 2.043
52.78000 -0.727
52.80000 0.170
52.82000 2.442
52.84000 5.691
52.86000 1.972
52.88000 3.106
52.90000 5.501
52.92000 3.130
52.94000 0.832
52.96000 2.736
52.98000 2.330
53.00000 2.464
53.02000 0.190
53.04000 2.965
53.06000 1.639
53.08000 3.183
53.10000 4.524
53.12000 2.712
53.14000 3.962
53.16000 4.034
53.18000 7.035
53.20000 5.082
53.22000 3.377
53.24000 2.633
53.26000 3.554
53.28000 2.648
53.30000 2.396
53.32000 0.795
53.34000 2.819
53.36000 5.451
53.38000 5.084
53.40000 3.437
53.42000 2.182
53.44000 -1.556
53.46000 -2.486
53.48000 1.753
53.50000 2.193
53.52000 2.810
53.54000 -2.298
53.56000 -1.079
53.58000 2.584
53.60000 -0.366
53.62000 -0.555
53.64000 2.244
53.66000 4.070
53.68000 2.280
53.70000 2.064
53.72000 2.687
53.74000 -0.311
53.76000 4.241
53.78000 3.264
53.80000 1.438
53.82000 3.570
53.84000 1.527
53.86000 5.203
53.88000 1.965
53.90000 -0.879
53.92000 -0.740
53.94000 1.476
53.96000 4.889
53.98000 2.700
54.00000 4.936
54.02000 0.176
54.04000 0.023
54.06000 -0.742
54.08000 0.134
54.10000 -0.986
54.12000 -2.465
54.14000 -0.529
54.16000 2.489
54.18000 2.520
54.20000 3.252
54.22000 3.565
54.24000 2.939
54.26000 3.933
54.28000 0.423
54.30000 -1.244
54.32000 1.450
54.34000 3.424
54.36000 4.878
54.38000 5.802
54.40000 5.545
54.42000 2.765
54.44000 3.161
54.46000 2.413
54.48000 -0.056
54.50000 1.302
54.52000 2.664
54.54000 -0.171
54.56000 0.213
54.58000 1.735
54.60000 0.320
54.62000 -2.457
54.64000 2.340
54.66000 1.728
54.68000 4.114
54.70000 4.278
54.72000 4.344
54.74000 1.045
54.76000 0.838
54.78000 7.393
54.80000 8.572
54.82000 8.268
54.84000 5.878
54.86000 -1.888
54.88000 -0.624
54.90000 -0.614
54.92000 1.861
54.94000 4.737
54.96000 3.740
54.98000 4.361
55.00000 4.058
55.02000 -0.307
55.04000 2.030
55.06000 -0.352
55.08000 0.045
55.10000 -0.333
55.12000 -0.921
55.14000 0.010
55.16000 0.237
55.18000 1.031
55.20000 4.109
55.22000 1.674
55.24000 1.452
55.26000 0.631
55.28000 1.084
55.30000 -2.440
55.32000 2.163
55.34000 2.134
55.36000 2.448
55.38000 2.551
55.40000 5.189
55.42000 7.884
55.44000 7.484
55.46000 6.226
55.48000 7.185
55.50000 4.539
55.52000 2.263
55.54000 1.333
55.56000 2.606
55.58000 -0.960
55.60000 -2.431
55.62000 3.338
55.64000 6.458
55.66000 6.358
55.68000 7.032
55.70000 1.349
55.72000 0.444
55.74000 4.794
55.76000 3.020
55.78000 -0.994
55.80000 -1.978
55.82000 0.782
55.84000 3.374
55.86000 4.555
55.88000 4.303
55.90000 -0.049
55.92000 -0.396
55.94000 0.846
55.96000 -0.762
55.98000 1.361
56.00000 4.937
56.02000 1.008
56.04000 -0.570
56.06000 -2.290
56.08000 -0.133
56.10000 -0.153
56.12000 2.505
56.14000 0.959
56.16000 1.019
56.18000 -0.141
56.20000 2.280
56.22000 4.401
56.24000 2.157
56.26000 1.324
56.28000 3.189
56.30000 3.066
56.32000 -0.781
56.34000 -0.515
56.36000 -1.942
56.38000 -0.446
56.40000 -1.246
56.42000 -0.556
56.44000 1.595
56.46000 1.748
56.48000 3.528
56.50000 2.692
56.52000 0.924
56.54000 0.007
56.56000 -0.602
56.58000 -1.715
56.60000 2.025
56.62000 3.648
56.64000 1.563
56.66000 0.718
56.68000 1.729
56.70000 2.345
56.72000 1.286
56.74000 -2.421
56.76000 0.421
56.78000 -0.514
56.80000 -2.122
56.82000 -2.125
56.84000 -0.593
56.86000 0.434
56.88000 2.610
56.90000 5.520
56.92000 4.283
56.94000 1.685
56.96000 4.624
56.98000 4.336
57.00000 3.749
57.02000 2.309
57.04000 1.517
57.06000 -2.403
57.08000 -0.085
57.10000 2.567
57.12000 5.077
57.14000 3.477
57.16000 1.348
57.18000 4.033
57.20000 8.295
57.22000 7.448
57.24000 6.129
57.26000 1.266
57.28000 0.539
57.30000 0.888
57.32000 -1.256
57.34000 1.052
57.36000 1.464
57.38000 2.589
57.40000 0.895
57.42000 -2.068
57.44000 5.029
57.46000 6.410
57.48000 1.387
57.50000 0.405
57.52000 2.806
57.54000 3.293
57.56000 3.224
57.58000 3.719
57.60000 1.257
57.62000 -0.987
57.64000 1.240
57.66000 2.540
57.68000 -1.210
57.70000 -0.455
57.72000 1.312
57.74000 0.286
57.76000 0.999
57.78000 1.122
57.80000 -0.697
57.82000 -0.328
57.84000 0.331
57.86000 3.466
57.88000 1.122
57.90000 2.161
57.92000 1.530
57.94000 0.347
57.96000 0.916
57.98000 -2.377
58.00000 1.244
58.02000 0.000
58.04000 1.198
58.06000 0.188
58.08000 -0.669
58.10000 0.637
58.12000 -0.715
58.14000 3.763
58.16000 -2.373
58.18000 -2.011
58.20000 0.564
58.22000 1.705
58.24000 5.212
58.26000 2.240
58.28000 0.287
58.30000 4.468
58.32000 3.139
58.34000 6.040
58.36000 8.397
58.38000 6.007
58.40000 0.958
58.42000 -0.438
58.44000 2.345
58.46000 1.527
58.48000 1.269
58.50000 2.607
58.52000 4.106
58.54000 3.079
58.56000 4.156
58.58000 4.410
58.60000 1.969
58.62000 2.326
58.64000 2.865
58.66000 2.018
58.68000 1.258
58.70000 4.439
58.72000 1.868
58.74000 2.251
58.76000 2.942
58.78000 1.687
58.80000 5.053
58.82000 4.303
58.84000 0.256
58.86000 2.262
58.88000 3.990
58.90000 0.419
58.92000 -1.037
58.94000 -0.711
58.96000 -2.339
58.98000 0.453
59.00000 0.307
59.02000 -0.131
59.04000 2.288
59.06000 2.924
59.08000 4.201
59.10000 2.299
59.12000 2.534
59.14000 4.457
59.16000 4.040
59.18000 -0.470
59.20000 -2.336
59.22000 -1.766
59.24000 1.817
59.26000 3.391
59.28000 2.111
59.30000 2.876
59.32000 -0.630
59.34000 0.075
59.36000 0.239
59.38000 1.325
59.40000 2.312
59.42000 4.027
59.44000 1.162
59.46000 0.914
59.48000 -0.652
59.50000 0.488
59.52000 -1.396
59.54000 0.336
59.56000 1.670
59.58000 1.787
59.60000 1.560
59.62000 1.901
59.64000 1.929
59.66000 2.049
59.68000 2.466
59.70000 3.822
59.72000 4.647
59.74000 -0.284
59.76000 -0.547
59.78000 -2.156
59.80000 0.689
59.82000 2.016
59.84000 2.795
59.86000 1.190
59.88000 0.305
59.90000 -0.876
59.92000 -0.666
59.94000 -0.103
59.96000 -0.266
59.98000 2.216
60.00000 4.179
60.02000 2.918
60.04000 1.591
60.06000 -1.630
60.08000 0.297
60.10000 0.648
60.12000 -1.228
60.14000 0.858
60.16000 3.024
60.18000 1.081
60.20000 -0.904
60.22000 1.651
60.24000 0.731
60.26000 2.137
60.28000 0.647
60.30000 0.441
60.32000 1.886
60.34000 -0.681
60.36000 0.859
60.38000 3.038
60.40000 1.993
60.42000 -0.287
60.44000 3.954
60.46000 3.942
60.48000 0.994
60.50000 1.073
60.52000 1.247
60.54000 0.572
60.56000 2.630
60.58000 -1.108
60.60000 0.412
60.62000 4.239
60.64000 3.747
60.66000 2.915
60.68000 2.454
60.70000 2.218
60.72000 -1.764
60.74000 -1.764
60.76000 0.610
60.78000 3.882
60.80000 4.123
60.82000 4.715
60.84000 3.555
60.86000 0.299
60.88000 -2.276
60.90000 1.541
60.92000 1.353
60.94000 -0.457
60.96000 -1.502
60.98000 -2.187
61.00000 -0.660
61.02000 0.993
61.04000 1.847
61.06000 6.125
61.08000 3.148
61.10000 2.946
61.12000 0.025
61.14000 -0.220
61.16000 0.006
61.18000 2.764
61.20000 2.793
61.22000 -1.012
61.24000 0.285
61.26000 1.070
61.28000 2.599
61.30000 3.045
61.32000 0.328
61.34000 1.974
61.36000 0.105
61.38000 4.170
61.40000 3.844
61.42000 3.141
61.44000 2.864
61.46000 1.268
61.48000 1.857
61.50000 1.466
61.52000 -0.647
61.54000 0.371
61.56000 -1.760
61.58000 -1.228
61.60000 0.761
61.62000 3.999
61.64000 3.818
61.66000 2.614
61.68000 -0.505
61.70000 -2.264
61.72000 -1.657
61.74000 0.948
61.76000 -0.664
61.78000 1.915
61.80000 1.982
61.82000 -0.351
61.84000 -1.379
61.86000 2.412
61.88000 2.318
61.90000 2.711
61.92000 0.889
61.94000 -0.797
61.96000 1.319
61.98000 1.101
62.00000 1.628
62.02000 3.009
62.04000 0.470
62.06000 0.678
62.08000 2.041
62.10000 1.879
62.12000 2.229
62.14000 4.099
62.16000 1.341
62.18000 -1.953
62.20000 3.681
62.22000 4.627
62.24000 2.817
62.26000 3.149
62.28000 -0.414
62.30000 -2.198
62.32000 0.097
62.34000 -0.733
62.36000 -2.265
62.38000 0.669
62.40000 2.612
62.42000 3.668
62.44000 4.060
62.46000 2.368
62.48000 -0.520
62.50000 -1.134
62.52000 -1.113
62.54000 1.127
62.56000 0.029
62.58000 -0.929
62.60000 1.312
62.62000 3.128
62.64000 1.010
62.66000 -2.032
62.68000 -0.729
62.70000 -1.237
62.72000 -0.992
62.74000 -0.730
62.76000 0.486
62.78000 1.996
62.80000 1.164
62.82000 -0.338
62.84000 0.942
62.86000 0.797
62.88000 -0.215
62.90000 -0.264
62.92000 0.229
62.94000 3.820
62.96000 2.084
62.98000 0.045
63.00000 -2.243
63.02000 -0.269
63.04000 3.029
63.06000 2.067
63.08000 1.294
63.10000 0.664
63.12000 3.517
63.14000 2.505
63.16000 2.074
63.18000 2.204
63.20000 3.443
63.22000 4.495
63.24000 1.744
63.26000 2.252
63.28000 1.779
63.30000 -0.683
63.32000 -2.225
63.34000 -0.122
63.36000 1.029
63.38000 -0.628
63.40000 2.901
63.42000 2.551
63.44000 1.899
63.46000 3.050
63.48000 0.214
63.50000 0.315
63.52000 2.180
63.54000 4.294
63.56000 3.070
63.58000 2.414
63.60000 2.538
63.62000 3.486
63.64000 0.834
63.66000 0.821
63.68000 1.000
63.70000 1.770
63.72000 0.855
63.74000 1.209
63.76000 -0.528
63.78000 -0.120
63.80000 -2.092
63.82000 -1.917
63.84000 -1.894
63.86000 1.557
63.88000 1.965
63.90000 -0.652
63.92000 1.987
63.94000 3.003
63.96000 1.054
63.98000 2.739
64.00000 4.089
64.02000 2.831
64.04000 2.104
64.06000 2.478
64.08000 2.777
64.10000 1.194
64.12000 3.183
64.14000 3.655
64.16000 3.312
64.18000 -1.075
64.20000 -1.915
64.22000 0.790
64.24000 1.968
64.26000 0.688
64.28000 4.421
64.30000 4.634
64.32000 1.766
64.34000 0.590
64.36000 0.145
64.38000 2.201
64.40000 2.203
64.42000 0.583
64.44000 1.147
64.46000 -0.048
64.48000 1.875
64.50000 1.037
64.52000 3.301
64.54000 2.102
64.56000 3.471
64.58000 2.895
64.60000 -2.212
64.62000 -1.188
64.64000 1.147
64.66000 -0.932
64.68000 0.260
64.70000 5.215
64.72000 4.470
64.74000 6.448
64.76000 6.213
64.78000 4.533
64.80000 2.103
64.82000 2.574
64.84000 2.122
64.86000 1.647
64.88000 -0.201
64.90000 0.222
64.92000 3.180
64.94000 3.810
64.96000 4.515
64.98000 1.470
65.00000 1.720
65.02000 2.319
65.04000 0.942
65.06000 1.976
65.08000 2.336
65.10000 3.181
65.12000 1.306
65.14000 -0.488
65.16000 -2.204
65.18000 0.223
65.20000 2.888
65.22000 1.424
65.24000 3.590
65.26000 3.366
65.28000 5.220
65.30000 3.202
65.32000 0.819
65.34000 -0.355
65.36000 -1.266
65.38000 -0.527
65.40000 2.113
65.42000 1.186
65.44000 1.865
65.46000 1.060
65.48000 0.215
65.50000 0.875
65.52000 2.133
65.54000 0.923
65.56000 -0.476
65.58000 -1.283
65.60000 2.957
65.62000 2.752
65.64000 1.746
65.66000 2.072
65.68000 2.423
65.70000 1.555
65.72000 1.053
65.74000 0.946
65.76000 2.513
65.78000 2.288
65.80000 -1.826
65.82000 -1.091
65.84000 -0.060
65.86000 -0.103
65.88000 -2.023
65.90000 -0.885
65.92000 -1.029
65.94000 -2.206
65.96000 -1.111
65.98000 0.194
66.00000 2.734
66.02000 1.727
66.04000 1.934
66.06000 0.433
66.08000 -1.234
66.10000 -2.243
66.12000 2.036
66.14000 5.236
66.16000 5.487
66.18000 1.784
66.20000 1.121
66.22000 0.514
66.24000 0.247
66.26000 0.773
66.28000 1.247
66.30000 2.180
66.32000 2.867
66.34000 1.514
66.36000 3.078
66.38000 0.201
66.40000 4.766
66.42000 5.327
66.44000 6.086
66.46000 5.319
66.48000 1.675
66.50000 2.274
66.52000 3.281
66.54000 1.812
66.56000 2.475
66.58000 3.150
66.60000 4.618
66.62000 4.588
66.64000 3.516
66.66000 4.153
66.68000 3.864
66.70000 3.433
66.72000 2.288
66.74000 3.387
66.76000 5.418
66.78000 4.512
66.80000 2.091
66.82000 2.558
66.84000 3.958
66.86000 4.007
66.88000 2.888
66.90000 1.135
66.92000 3.729
66.94000 6.147
66.96000 7.315
66.98000 4.637
67.00000 6.155
67.02000 4.833
67.04000 5.208
67.06000 8.598
67.08000 7.191
67.10000 3.970
67.12000 4.782
67.14000 5.814
67.16000 5.542
67.18000 6.118
67.20000 3.765
67.22000 3.576
67.24000 4.306
67.26000 2.065
67.28000 4.651
67.30000 4.272
67.32000 1.728
67.34000 4.889
67.36000 4.745
67.38000 6.770
67.40000 4.584
67.42000 1.984
67.44000 4.856
67.46000 4.771
67.48000 4.022
67.50000 3.469
67.52000 0.398
67.54000 2.464
67.56000 2.348
67.58000 0.906
67.60000 0.423
67.62000 3.689
67.64000 2.108
67.66000 0.894
67.68000 1.042
67.70000 1.606
67.72000 1.962
67.74000 2.725
67.76000 1.257
67.78000 0.043
67.80000 -1.315
67.82000 -1.070
67.84000 0.614
67.86000 2.029
67.88000 1.166
67.90000 0.734
67.92000 0.763
67.94000 -1.757
67.96000 -0.202
67.98000 0.962
68.00000 -2.056
68.02000 -1.022
68.04000 1.255
68.06000 -0.610
68.08000 -0.191
68.10000 -2.170
68.12000 0.567
68.14000 0.268
68.16000 -0.911
68.18000 0.222
68.20000 -0.262
68.22000 -1.678
68.24000 -0.269
68.26000 0.057
68.28000 -1.495
68.30000 0.370
68.32000 0.478
68.34000 -0.063
68.36000 0.074
68.38000 0.617
68.40000 -0.826
68.42000 -0.943
68.44000 1.173
68.46000 1.143
68.48000 2.602
68.50000 2.156
68.52000 0.315
68.54000 0.762
68.56000 0.326
68.58000 0.060
68.60000 1.103
68.62000 0.972
68.64000 0.051
68.66000 -2.107
68.68000 -1.446
68.70000 0.349
68.72000 1.183
68.74000 0.694
68.76000 0.811
68.78000 1.781
68.80000 3.120
68.82000 -1.011
68.84000 -1.013
68.86000 2.107
68.88000 4.760
68.90000 2.338
68.92000 0.868
68.94000 -2.066
68.96000 -0.500
68.98000 2.990
69.00000 1.419
69.02000 3.171
69.04000 4.211
69.06000 2.056
69.08000 -0.338
69.10000 1.086
69.12000 -0.263
69.14000 1.511
69.16000 1.825
69.18000 -0.797
69.20000 0.141
69.22000 2.080
69.24000 3.103
69.26000 2.686
69.28000 2.056
69.30000 1.230
69.32000 0.948
69.34000 2.114
69.36000 2.433
69.38000 4.212
69.40000 1.673
69.42000 1.273
69.44000 2.025
69.46000 2.761
69.48000 4.889
69.50000 2.032
69.52000 0.703
69.54000 1.754
69.56000 0.829
69.58000 1.124
69.60000 2.643
69.62000 2.198
69.64000 3.088
69.66000 2.563
69.68000 2.511
69.70000 -0.103
69.72000 0.055
69.74000 2.253
69.76000 0.925
69.78000 0.520
69.80000 2.592
69.82000 -0.090
69.84000 0.700
69.86000 1.036
69.88000 1.665
69.90000 4.194
69.92000 5.607
69.94000 3.184
69.96000 2.680
69.98000 2.952
70.00000 3.711
70.02000 1.487
70.04000 -1.393
70.06000 -2.033
70.08000 0.980
70.10000 3.219
70.12000 0.221
70.14000 -0.803
70.16000 1.688
70.18000 1.237
70.20000 1.041
70.22000 0.802
70.24000 2.499
70.26000 2.888
70.28000 0.557
70.30000 0.041
70.32000 1.770
70.34000 4.574
70.36000 1.979
70.38000 2.654
70.40000 1.760
70.42000 1.335
70.44000 0.576
70.46000 2.225
70.48000 2.781
70.50000 3.079
70.52000 3.009
70.54000 0.322
70.56000 1.993
70.58000 -0.781
70.60000 -1.912
70.62000 -1.096
70.64000 0.889
70.66000 -0.081
70.68000 0.523
70.70000 1.465
70.72000 -2.022
70.74000 -1.520
70.76000 0.563
70.78000 0.813
70.80000 2.268
70.82000 2.924
70.84000 1.460
70.86000 3.656
70.88000 3.157
70.90000 0.312
70.92000 1.261
70.94000 -0.907
70.96000 1.270
70.98000 3.760
71.00000 4.386
71.02000 3.654
71.04000 3.530
71.06000 0.884
71.08000 1.385
71.10000 -0.251
71.12000 -0.449
71.14000 -0.900
71.16000 0.753
71.18000 0.907
71.20000 0.164
71.22000 -0.760
71.24000 -0.297
71.26000 -0.305
71.28000 -1.119
71.30000 -1.640
71.32000 2.765
71.34000 3.696
71.36000 1.694
71.38000 3.539
71.40000 -0.145
71.42000 -0.689
71.44000 1.789
71.46000 1.567
71.48000 2.586
71.50000 1.699
71.52000 -0.552
71.54000 -0.933
71.56000 0.056
71.58000 0.630
71.60000 0.529
71.62000 0.712
71.64000 0.758
71.66000 -1.215
71.68000 -1.757
71.70000 -1.023
71.72000 -2.004
71.74000 0.104
71.76000 -0.260
71.78000 1.600
71.80000 1.323
71.82000 1.810
71.84000 2.056
71.86000 -1.091
71.88000 2.199
71.90000 1.891
71.92000 0.623
71.94000 -0.200
71.96000 -1.336
71.98000 0.423
72.00000 -0.151
72.02000 -1.615
72.04000 -0.882
72.06000 2.893
72.08000 4.536
72.10000 0.849
72.12000 -1.197
72.14000 1.418
72.16000 0.330
72.18000 0.499
72.20000 1.994
72.22000 0.456
72.24000 -1.257
72.26000 -1.348
72.28000 -0.693
72.30000 -0.918
72.32000 0.207
72.34000 -0.667
72.36000 -0.332
72.38000 2.918
72.40000 -1.047
72.42000 -0.092
72.44000 2.253
72.46000 1.388
72.48000 0.711
72.50000 0.594
72.52000 1.592
72.54000 1.056
72.56000 0.920
72.58000 1.732
72.60000 1.699
72.62000 -1.167
72.64000 0.282
72.66000 0.836
72.68000 -0.418
72.70000 -1.932
72.72000 -0.410
72.74000 0.672
72.76000 2.947
72.78000 0.155
72.80000 1.077
72.82000 2.867
72.84000 4.486
72.86000 4.326
72.88000 3.361
72.90000 2.882
72.92000 1.524
72.94000 2.380
72.96000 -0.307
72.98000 -1.942
73.00000 1.065
73.02000 3.956
73.04000 1.489
73.06000 -0.060
73.08000 -0.116
73.10000 3.200
73.12000 2.323
73.14000 0.548
73.16000 1.639
73.18000 1.970
73.20000 -1.092
73.22000 0.891
73.24000 1.061
73.26000 0.778
73.28000 0.261
73.30000 0.259
73.32000 2.414
73.34000 3.179
73.36000 2.196
73.38000 4.466
73.40000 2.308
73.42000 3.512
73.44000 2.705
73.46000 1.083
73.48000 -1.360
73.50000 -1.057
73.52000 -0.496
73.54000 1.024
73.56000 2.725
73.58000 2.818
73.60000 -1.415
73.62000 1.290
73.64000 -1.097
73.66000 0.878
73.68000 2.031
73.70000 3.544
73.72000 0.736
73.74000 3.254
73.76000 1.444
73.78000 0.526
73.80000 3.768
73.82000 0.835
73.84000 -1.940
73.86000 -0.743
73.88000 3.118
73.90000 5.282
73.92000 4.176
73.94000 0.235
73.96000 -1.601
73.98000 0.608
74.00000 1.181
74.02000 1.359
74.04000 2.753
74.06000 0.365
74.08000 -1.243
74.10000 4.178
74.12000 2.821
74.14000 0.258
74.16000 -0.157
74.18000 0.842
74.20000 2.999
74.22000 1.296
74.24000 1.838
74.26000 -0.783
74.28000 -0.139
74.30000 -1.644
74.32000 -1.571
74.34000 1.976
74.36000 1.453
74.38000 1.798
74.40000 1.997
74.42000 2.383
74.44000 -0.489
74.46000 -0.957
74.48000 1.143
74.50000 0.874
74.52000 1.692
74.54000 1.341
74.56000 3.449
74.58000 5.529
74.60000 0.458
74.62000 -0.028
74.64000 -0.593
74.66000 -0.790
74.68000 0.983
74.70000 -0.726
74.72000 0.369
74.74000 0.666
74.76000 1.053
74.78000 2.720
74.80000 2.338
74.82000 -1.203
74.84000 -1.961
74.86000 2.712
74.88000 5.312
74.90000 2.980
74.92000 2.086
74.94000 1.998
74.96000 2.006
74.98000 0.059
75.00000 -0.196
75.02000 0.753
75.04000 3.675
75.06000 -1.259
75.08000 -1.947
75.10000 -0.776
75.12000 -0.287
75.14000 0.417
75.16000 -1.941
75.18000 2.825
75.20000 2.007
75.22000 2.176
75.24000 0.862
75.26000 1.403
75.28000 0.931
75.30000 0.195
75.32000 1.638
75.34000 1.807
75.36000 0.046
75.38000 0.540
75.40000 3.386
75.42000 1.394
75.44000 1.187
75.46000 -1.084
75.48000 1.030
75.50000 3.149
75.52000 1.424
75.54000 -1.938
75.56000 0.735
75.58000 0.623
75.60000 0.985
75.62000 1.781
75.64000 5.683
75.66000 4.566
75.68000 2.488
75.70000 0.360
75.72000 -1.927
75.74000 0.816
75.76000 4.372
75.78000 4.480
75.80000 3.571
75.82000 3.865
75.84000 1.528
75.86000 1.904
75.88000 5.478
75.90000 2.144
75.92000 2.336
75.94000 0.533
75.96000 -1.486
75.98000 1.505
76.00000 1.399
76.02000 -0.554
76.04000 0.786
76.06000 2.564
76.08000 2.939
76.10000 4.546
76.12000 2.194
76.14000 0.048
76.16000 -0.421
76.18000 -1.373
76.20000 -0.044
76.22000 2.937
76.24000 1.291
76.26000 0.543
76.28000 3.161
76.30000 4.670
76.32000 2.680
76.34000 -0.139
76.36000 3.343
76.38000 3.852
76.40000 0.164
76.42000 0.038
76.44000 1.983
76.46000 5.676
76.48000 2.549
76.50000 0.714
76.52000 1.442
76.54000 2.986
76.56000 3.310
76.58000 0.679
76.60000 0.943
76.62000 5.581
76.64000 3.723
76.66000 1.947
76.68000 -0.358
76.70000 -0.459
76.72000 -0.584
76.74000 -0.760
76.76000 0.380
76.78000 -0.410
76.80000 0.222
76.82000 -0.279
76.84000 4.639
76.86000 1.591
76.88000 0.323
76.90000 2.014
76.92000 -0.457
76.94000 -1.519
76.96000 0.964
76.98000 1.555
77.00000 -0.119
77.02000 2.237
77.04000 0.169
77.06000 0.263
77.08000 1.160
77.10000 -1.141
77.12000 -0.669
77.14000 2.655
77.16000 4.734
77.18000 4.165
77.20000 3.680
77.22000 1.838
77.24000 6.418
77.26000 5.613
77.28000 6.038
77.30000 2.531
77.32000 2.337
77.34000 0.214
77.36000 -0.708
77.38000 -1.950
77.40000 -0.902
77.42000 1.820
77.44000 1.409
77.46000 0.015
77.48000 2.927
77.50000 4.059
77.52000 2.215
77.54000 5.883
77.56000 3.454
77.58000 0.831
77.60000 2.981
77.62000 2.661
77.64000 4.405
77.66000 2.943
77.68000 3.892
77.70000 -0.231
77.72000 0.067
77.74000 2.005
77.76000 2.555
77.78000 1.247
77.80000 0.068
77.82000 -1.124
77.84000 2.426
77.86000 0.190
77.88000 4.023
77.90000 3.006
77.92000 1.630
77.94000 1.117
77.96000 -0.186
77.98000 -2.013
78.00000 0.653
78.02000 -0.411
78.04000 -0.778
78.06000 -0.371
78.08000 -0.654
78.10000 0.071
78.12000 -0.904
78.14000 1.237
78.16000 0.190
78.18000 -0.671
78.20000 -1.710
78.22000 0.664
78.24000 3.014
78.26000 1.937
78.28000 2.375
78.30000 2.891
78.32000 0.623
78.34000 1.046
78.36000 3.022
78.38000 1.776
78.40000 0.180
78.42000 0.284
78.44000 -1.254
78.46000 -0.252
78.48000 0.129
78.50000 0.706
78.52000 2.365
78.54000 0.544
78.56000 1.580
78.58000 0.194
78.60000 -0.297
78.62000 2.559
78.64000 1.121
78.66000 2.904
78.68000 1.518
78.70000 0.231
78.72000 -0.083
78.74000 1.672
78.76000 2.931
78.78000 1.613
78.80000 -1.113
78.82000 0.587
78.84000 -0.428
78.86000 2.045
78.88000 1.758
78.90000 1.747
78.92000 0.588
78.94000 -1.732
78.96000 0.937
78.98000 -2.076
79.00000 0.313
79.02000 1.462
79.04000 2.915
79.06000 -1.714
79.08000 1.586
79.10000 -0.023
79.12000 0.094
79.14000 2.613
79.16000 3.486
79.18000 1.552
79.20000 2.092
79.22000 1.200
79.24000 2.754
79.26000 2.186
79.28000 3.008
79.30000 0.787
79.32000 0.721
79.34000 0.412
79.36000 -1.901
79.38000 -2.127
79.40000 -0.063
79.42000 3.213
79.44000 0.194
79.46000 1.331
79.48000 5.576
79.50000 2.554
79.52000 1.281
79.54000 5.451
79.56000 2.024
79.58000 2.721
79.60000 4.708
79.62000 4.514
79.64000 3.756
79.66000 1.025
79.68000 2.427
79.70000 4.076
79.72000 6.882
79.74000 2.304
79.76000 2.420
79.78000 4.341
79.80000 6.100
79.82000 7.503
79.84000 6.179
79.86000 5.666
79.88000 3.539
79.90000 7.407
79.92000 7.404
79.94000 4.276
79.96000 4.960
79.98000 6.871
80.00000 8.047
80.02000 8.032
80.04000 6.179
80.06000 7.647
80.08000 7.274
80.10000 6.760
80.12000 6.942
80.14000 9.506
80.16000 12.152
80.18000 12.948
80.20000 12.441
80.22000 10.099
80.24000 10.435
80.26000 12.965
80.28000 9.514
80.30000 10.014
80.32000 9.673
80.34000 13.851
80.36000 14.152
80.38000 14.266
80.40000 15.471
80.42000 13.982
80.44000 11.713
80.46000 12.644
80.48000 15.451
80.50000 13.425
80.52000 16.168
80.54000 16.262
80.56000 20.995
80.58000 16.925
80.60000 16.047
80.62000 16.484
80.64000 18.227
80.66000 16.975
80.68000 17.490
80.70000 14.666
80.72000 12.193
80.74000 13.876
80.76000 16.593
80.78000 16.718
80.80000 17.659
80.82000 20.052
80.84000 17.506
80.86000 19.311
80.88000 17.919
80.90000 17.837
80.92000 21.155
80.94000 21.261
80.96000 18.923
80.98000 15.060
81.00000 14.164
81.02000 12.599
81.04000 17.000
81.06000 17.881
81.08000 16.239
81.10000 13.768
81.12000 13.557
81.14000 13.757
81.16000 13.179
81.18000 14.202
81.20000 16.417
81.22000 14.811
81.24000 11.343
81.26000 10.546
81.28000 7.377
81.30000 8.403
81.32000 11.102
81.34000 7.444
81.36000 8.062
81.38000 12.203
81.40000 6.550
81.42000 9.218
81.44000 13.456
81.46000 5.183
81.48000 6.926
81.50000 9.184
81.52000 8.222
81.54000 4.596
81.56000 6.132
81.58000 3.807
81.60000 4.580
81.62000 3.322
81.64000 -0.798
81.66000 -1.602
81.68000 0.940
81.70000 0.137
81.72000 2.151
81.74000 3.080
81.76000 2.356
81.78000 3.337
81.80000 2.517
81.82000 2.546
81.84000 3.698
81.86000 4.800
81.88000 2.131
81.90000 1.817
81.92000 5.918
81.94000 6.716
81.96000 4.591
81.98000 6.616
82.00000 3.789
82.02000 -0.233
82.04000 0.836
82.06000 -1.547
82.08000 -1.135
82.10000 0.895
82.12000 3.476
82.14000 3.138
82.16000 -0.921
82.18000 -2.171
82.20000 -1.975
82.22000 1.737
82.24000 0.605
82.26000 0.824
82.28000 -1.527
82.30000 0.481
82.32000 -0.097
82.34000 0.852
82.36000 0.608
82.38000 0.394
82.40000 3.253
82.42000 -1.478
82.44000 -1.091
82.46000 2.875
82.48000 3.128
82.50000 2.586
82.52000 -0.082
82.54000 1.551
82.56000 1.302
82.58000 2.056
82.60000 3.018
82.62000 2.360
82.64000 1.359
82.66000 1.814
82.68000 3.251
82.70000 -1.444
82.72000 -1.101
82.74000 -2.178
82.76000 -0.296
82.78000 2.162
82.80000 0.711
82.82000 -1.710
82.84000 -1.054
82.86000 0.168
82.88000 -1.170
82.90000 0.133
82.92000 -0.273
82.94000 4.880
82.96000 4.637
82.98000 0.035
83.00000 -0.025
83.02000 2.097
83.04000 -0.408
83.06000 -0.345
83.08000 -1.084
83.10000 -0.081
83.12000 -1.614
83.14000 1.284
83.16000 -1.101
83.18000 1.861
83.20000 -0.185
83.22000 -2.203
83.24000 -0.841
83.26000 2.097
83.28000 3.409
83.30000 2.112
83.32000 2.352
83.34000 3.618
83.36000 2.794
83.38000 2.360
83.40000 0.877
83.42000 5.572
83.44000 4.458
83.46000 0.094
83.48000 4.364
83.50000 5.465
83.52000 4.473
83.54000 0.300
83.56000 2.285
83.58000 3.242
83.60000 8.059
83.62000 7.372
83.64000 6.865
83.66000 5.597
83.68000 6.439
83.70000 7.368
83.72000 7.621
83.74000 9.591
83.76000 9.747
83.78000 9.822
83.80000 7.496
83.82000 6.620
83.84000 4.607
83.86000 5.359
83.88000 7.603
83.90000 9.345
83.92000 8.187
83.94000 9.012
83.96000 9.023
83.98000 17.296
84.00000 16.302
84.02000 16.334
84.04000 17.304
84.06000 15.491
84.08000 15.236
84.10000 13.993
84.12000 15.744
84.14000 19.576
84.16000 16.064
84.18000 13.691
84.20000 19.272
84.22000 23.731
84.24000 20.014
84.26000 19.210
84.28000 20.770
84.30000 22.974
84.32000 23.593
84.34000 23.328
84.36000 23.230
84.38000 25.636
84.40000 29.888
84.42000 28.396
84.44000 25.673
84.46000 27.032
84.48000 26.038
84.50000 24.811
84.52000 28.761
84.54000 30.824
84.56000 29.689
84.58000 29.253
84.60000 26.412
84.62000 25.509
84.64000 27.871
84.66000 25.502
84.68000 24.339
84.70000 27.439
84.72000 27.706
84.74000 27.980
84.76000 22.932
84.78000 27.068
84.80000 26.317
84.82000 29.276
84.84000 31.140
84.86000 25.022
84.88000 23.358
84.90000 23.250
84.92000 22.165
84.94000 20.999
84.96000 21.539
84.98000 25.971
85.00000 25.197
85.02000 23.697
85.04000 22.355
85.06000 20.316
85.08000 20.437
85.10000 20.957
85.12000 20.267
85.14000 20.623
85.16000 20.588
85.18000 15.598
85.20000 14.785
85.22000 12.808
85.24000 15.071
85.26000 12.193
85.28000 15.165
85.30000 10.504
85.32000 9.648
85.34000 10.354
85.36000 12.289
85.38000 8.847
85.40000 11.436
85.42000 7.208
85.44000 6.701
85.46000 9.822
85.48000 7.036
85.50000 6.096
85.52000 2.543
85.54000 4.147
85.56000 4.968
85.58000 2.158
85.60000 2.066
85.62000 3.168
85.64000 6.541
85.66000 4.453
85.68000 5.000
85.70000 3.382
85.72000 2.876
85.74000 3.978
85.76000 4.216
85.78000 1.299
85.80000 1.259
85.82000 3.063
85.84000 3.092
85.86000 1.623
85.88000 -0.303
85.90000 -0.923
85.92000 0.206
85.94000 -0.996
85.96000 -2.025
85.98000 -0.187
86.00000 0.447
86.02000 1.606
86.04000 1.361
86.06000 4.595
86.08000 3.642
86.10000 0.228
86.12000 5.346
86.14000 2.820
86.16000 -1.116
86.18000 2.052
86.20000 1.924
86.22000 2.277
86.24000 -0.568
86.26000 0.305
86.28000 1.636
86.30000 0.210
86.32000 -0.655
86.34000 -0.119
86.36000 1.726
86.38000 0.661
86.40000 0.453
86.42000 0.659
86.44000 1.064
86.46000 0.700
86.48000 3.915
86.50000 0.006
86.52000 -1.285
86.54000 -0.643
86.56000 -0.352
86.58000 3.975
86.60000 2.952
86.62000 3.179
86.64000 1.311
86.66000 3.491
86.68000 0.262
86.70000 3.192
86.72000 3.578
86.74000 1.367
86.76000 2.161
86.78000 3.213
86.80000 4.200
86.82000 5.949
86.84000 1.515
86.86000 1.486
86.88000 -1.833
86.90000 1.864
86.92000 1.229
86.94000 -0.114
86.96000 3.335
86.98000 3.021
87.00000 2.042
87.02000 2.867
87.04000 -0.003
87.06000 0.656
87.08000 2.758
87.10000 1.561
87.12000 1.418
87.14000 2.906
87.16000 1.251
87.18000 1.814
87.20000 1.996
87.22000 1.616
87.24000 1.911
87.26000 0.945
87.28000 0.193
87.30000 0.947
87.32000 2.671
87.34000 4.414
87.36000 2.934
87.38000 4.056
87.40000 2.925
87.42000 1.342
87.44000 3.109
87.46000 4.693
87.48000 3.466
87.50000 3.746
87.52000 4.840
87.54000 5.335
87.56000 4.961
87.58000 2.435
87.60000 2.540
87.62000 -0.577
87.64000 -1.548
87.66000 1.165
87.68000 1.800
87.70000 3.205
87.72000 3.788
87.74000 4.458
87.76000 2.343
87.78000 1.504
87.80000 -0.457
87.82000 1.725
87.84000 1.877
87.86000 0.164
87.88000 -1.845
87.90000 0.521
87.92000 0.059
87.94000 -1.523
87.96000 -0.861
87.98000 -0.100
88.00000 1.076
88.02000 2.383
88.04000 1.301
88.06000 3.109
88.08000 1.158
88.10000 2.554
88.12000 2.542
88.14000 -0.476
88.16000 1.446
88.18000 2.950
88.20000 -1.024
88.22000 -1.837
88.24000 -0.017
88.26000 1.801
88.28000 3.041
88.30000 3.111
88.32000 0.205
88.34000 -0.150
88.36000 0.301
88.38000 -0.250
88.40000 -0.516
88.42000 1.710
88.44000 1.886
88.46000 1.390
88.48000 -0.136
88.50000 0.337
88.52000 2.183
88.54000 -0.470
88.56000 -1.681
88.58000 0.455
88.60000 2.541
88.62000 3.727
88.64000 2.368
88.66000 2.586
88.68000 0.200
88.70000 3.305
88.72000 5.833
88.74000 2.500
88.76000 0.348
88.78000 -0.025
88.80000 -0.078
88.82000 0.441
88.84000 2.017
88.86000 4.287
88.88000 2.032
88.90000 2.459
88.92000 4.760
88.94000 0.567
88.96000 -0.044
88.98000 1.570
89.00000 2.085
89.02000 3.607
89.04000 -1.329
89.06000 -1.801
89.08000 2.477
89.10000 0.950
89.12000 -0.275
89.14000 0.468
89.16000 4.528
89.18000 3.378
89.20000 1.999
89.22000 1.374
89.24000 3.838
89.26000 4.398
89.28000 2.712
89.30000 2.073
89.32000 0.755
89.34000 1.165
89.36000 2.659
89.38000 3.655
89.40000 1.644
89.42000 2.681
89.44000 2.579
89.46000 3.075
89.48000 3.135
89.50000 1.355
89.52000 0.711
89.54000 2.345
89.56000 1.093
89.58000 1.793
89.60000 -0.466
89.62000 2.362
89.64000 -0.416
89.66000 0.253
89.68000 -1.809
89.70000 -0.593
89.72000 0.425
89.74000 -0.387
89.76000 -0.841
89.78000 0.905
89.80000 3.672
89.82000 1.767
89.84000 0.484
89.86000 0.517
89.88000 4.486
89.90000 3.042
89.92000 0.470
89.94000 0.408
89.96000 1.716
89.98000 2.185
90.00000 0.714
90.02000 0.722
90.04000 1.982
90.06000 0.144
90.08000 0.552
90.10000 -1.822
90.12000 -1.466
90.14000 1.303
90.16000 1.050
90.18000 1.086
90.20000 1.097
90.22000 2.888
90.24000 4.052
90.26000 1.463
90.28000 1.623
90.30000 1.241
90.32000 1.770
90.34000 3.932
90.36000 1.125
90.38000 1.397
90.40000 0.847
90.42000 1.233
90.44000 -0.648
90.46000 -1.827
90.48000 -0.486
90.50000 -0.791
90.52000 -1.829
90.54000 -0.593
90.56000 2.029
90.58000 1.192
90.60000 0.027
90.62000 -0.503
90.64000 1.098
90.66000 1.978
90.68000 0.189
90.70000 0.586
90.72000 1.441
90.74000 0.425
90.76000 0.924
90.78000 0.543
90.80000 1.627
90.82000 4.976
90.84000 3.166
90.86000 -0.203
90.88000 1.350
90.90000 3.349
90.92000 3.588
90.94000 0.820
90.96000 0.792
90.98000 0.391
91.00000 0.425
91.02000 1.042
91.04000 0.585
91.06000 -1.175
91.08000 0.705
91.10000 0.828
91.12000 3.435
91.14000 4.239
91.16000 1.011
91.18000 4.042
91.20000 0.846
91.22000 -1.763
91.24000 1.220
91.26000 1.881
91.28000 1.511
91.30000 2.372
91.32000 0.335
91.34000 0.893
91.36000 4.747
91.38000 4.514
91.40000 4.690
91.42000 2.879
91.44000 1.673
91.46000 -0.174
91.48000 2.005
91.50000 3.152
91.52000 -0.647
91.54000 0.400
91.56000 1.266
91.58000 1.471
91.60000 1.975
91.62000 1.820
91.64000 1.511
91.66000 3.748
91.68000 3.748
91.70000 3.358
91.72000 1.985
91.74000 2.014
91.76000 1.841
91.78000 1.988
91.80000 2.856
91.82000 2.520
91.84000 0.389
91.86000 2.704
91.88000 0.311
91.90000 0.199
91.92000 0.293
91.94000 0.800
91.96000 -1.064
91.98000 0.564
92.00000 5.083
92.02000 3.536
92.04000 5.262
92.06000 4.307
92.08000 2.518
92.10000 1.408
92.12000 -1.790
92.14000 1.071
92.16000 3.375
92.18000 5.822
92.20000 3.171
92.22000 1.348
92.24000 1.557
92.26000 2.382
92.28000 0.427
92.30000 2.614
92.32000 3.523
92.34000 2.345
92.36000 5.255
92.38000 7.022
92.40000 5.998
92.42000 5.392
92.44000 7.273
92.46000 0.623
92.48000 -1.470
92.50000 -0.600
92.52000 0.350
92.54000 3.310
92.56000 3.490
92.58000 0.218
92.60000 0.955
92.62000 1.811
92.64000 0.971
92.66000 0.281
92.68000 -0.632
92.70000 0.208
92.72000 0.719
92.74000 3.037
92.76000 4.375
92.78000 1.597
92.80000 0.583
92.82000 2.129
92.84000 1.993
92.86000 3.324
92.88000 1.914
92.90000 1.452
92.92000 3.040
92.94000 -0.236
92.96000 -1.095
92.98000 -1.838
93.00000 -0.301
93.02000 2.279
93.04000 4.032
93.06000 4.106
93.08000 2.030
93.10000 4.410
93.12000 3.969
93.14000 3.414
93.16000 -0.179
93.18000 3.179
93.20000 1.352
93.22000 4.108
93.24000 5.344
93.26000 6.261
93.28000 4.324
93.30000 3.562
93.32000 0.884
93.34000 -0.641
93.36000 -0.518
93.38000 -1.768
93.40000 1.608
93.42000 2.818
93.44000 3.065
93.46000 1.697
93.48000 1.795
93.50000 4.243
93.52000 1.385
93.54000 -1.610
93.56000 -0.492
93.58000 3.253
93.60000 0.930
93.62000 -0.543
93.64000 0.591
93.66000 2.751
93.68000 0.915
93.70000 0.582
93.72000 1.769
93.74000 -0.369
93.76000 2.426
93.78000 4.985
93.80000 -0.672
93.82000 -1.239
93.84000 2.665
93.86000 3.781
93.88000 -0.016
93.90000 0.899
93.92000 3.786
93.94000 2.226
93.96000 2.051
93.98000 4.369
94.00000 4.705
94.02000 -0.592
94.04000 0.781
94.06000 4.087
94.08000 3.693
94.10000 5.000
94.12000 5.447
94.14000 4.734
94.16000 2.309
94.18000 -0.073
94.20000 4.346
94.22000 2.374
94.24000 4.297
94.26000 3.958
94.28000 5.333
94.30000 2.654
94.32000 -1.798
94.34000 3.481
94.36000 7.923
94.38000 4.869
94.40000 1.381
94.42000 0.952
94.44000 5.565
94.46000 8.163
94.48000 3.585
94.50000 4.166
94.52000 3.480
94.54000 5.537
94.56000 6.087
94.58000 5.767
94.60000 3.420
94.62000 3.239
94.64000 5.045
94.66000 2.742
94.68000 2.102
94.70000 4.664
94.72000 3.848
94.74000 5.456
94.76000 4.392
94.78000 3.133
94.80000 5.553
94.82000 4.089
94.84000 6.418
94.86000 8.017
94.88000 5.140
94.90000 1.956
94.92000 6.791
94.94000 6.905
94.96000 4.239
94.98000 -1.803
95.00000 3.134
95.02000 8.051
95.04000 7.968
95.06000 3.437
95.08000 -1.363
95.10000 1.433
95.12000 2.531
95.14000 2.534
95.16000 1.900
95.18000 6.044
95.20000 5.034
95.22000 6.845
95.24000 4.383
95.26000 4.495
95.28000 3.051
95.30000 6.267
95.32000 3.554
95.34000 2.846
95.36000 8.346
95.38000 5.525
95.40000 3.100
95.42000 5.948
95.44000 2.717
95.46000 0.975
95.48000 0.973
95.50000 2.517
95.52000 4.123
95.54000 2.904
95.56000 2.528
95.58000 2.522
95.60000 3.672
95.62000 1.427
95.64000 2.962
95.66000 6.447
95.68000 3.307
95.70000 3.902
95.72000 5.081
95.74000 6.389
95.76000 5.073
95.78000 5.300
95.80000 7.385
95.82000 6.617
95.84000 4.228
95.86000 5.555
95.88000 9.022
95.90000 7.699
95.92000 4.065
95.94000 3.777
95.96000 3.620
95.98000 5.300
96.00000 5.885
96.02000 1.801
96.04000 4.306
96.06000 1.816
96.08000 -1.778
96.10000 -0.882
96.12000 1.801
96.14000 4.182
96.16000 6.533
96.18000 6.091
96.20000 5.493
96.22000 7.704
96.24000 4.314
96.26000 4.544
96.28000 5.955
96.30000 7.015
96.32000 4.971
96.34000 6.720
96.36000 5.387
96.38000 3.881
96.40000 2.124
96.42000 6.949
96.44000 5.400
96.46000 0.442
96.48000 3.722
96.50000 6.085
96.52000 5.619
96.54000 5.306
96.56000 6.217
96.58000 6.022
96.60000 12.056
96.62000 9.983
96.64000 7.953
96.66000 5.552
96.68000 6.499
96.70000 9.257
96.72000 6.900
96.74000 7.417
96.76000 2.969
96.78000 -1.770
96.80000 -0.662
96.82000 2.641
96.84000 4.441
96.86000 4.343
96.88000 4.153
96.90000 2.950
96.92000 2.581
96.94000 5.852
96.96000 5.324
96.98000 4.202
97.00000 4.829
97.02000 3.339
97.04000 5.082
97.06000 9.821
97.08000 4.514
97.10000 2.638
97.12000 3.226
97.14000 6.350
97.16000 5.401
97.18000 1.442
97.20000 2.008
97.22000 9.189
97.24000 6.901
97.26000 2.679
97.28000 2.818
97.30000 2.078
97.32000 2.080
97.34000 5.887
97.36000 5.419
97.38000 5.794
97.40000 9.121
97.42000 2.224
97.44000 1.517
97.46000 8.083
97.48000 7.580
97.50000 5.436
97.52000 5.978
97.54000 1.335
97.56000 1.268
97.58000 -0.565
97.60000 -1.151
97.62000 1.734
97.64000 0.721
97.66000 3.395
97.68000 2.338
97.70000 2.643
97.72000 3.958
97.74000 2.090
97.76000 1.045
97.78000 -0.722
97.80000 0.747
97.82000 3.808
97.84000 3.583
97.86000 5.384
97.88000 7.893
97.90000 4.063
97.92000 -0.094
97.94000 -0.022
97.96000 0.021
97.98000 0.470
98.00000 -1.156
98.02000 5.490
98.04000 4.330
98.06000 2.307
98.08000 2.028
98.10000 2.249
98.12000 0.466
98.14000 -1.818
98.16000 6.653
98.18000 4.426
98.20000 4.820
98.22000 4.572
98.24000 1.215
98.26000 -0.130
98.28000 0.608
98.30000 1.492
98.32000 -0.750
98.34000 0.028
98.36000 1.256
98.38000 -1.060
98.40000 1.925
98.42000 5.023
98.44000 1.445
98.46000 0.394
98.48000 -1.683
98.50000 2.560
98.52000 4.564
98.54000 3.106
98.56000 3.318
98.58000 5.047
98.60000 4.579
98.62000 5.967
98.64000 0.130
98.66000 3.068
98.68000 4.830
98.70000 3.364
98.72000 2.090
98.74000 3.095
98.76000 0.490
98.78000 3.592
98.80000 6.821
98.82000 2.763
98.84000 4.988
98.86000 7.768
98.88000 4.698
98.90000 -1.792
98.92000 0.128
98.94000 2.057
98.96000 8.713
98.98000 6.831
99.00000 1.925
99.02000 3.664
99.04000 3.138
99.06000 6.269
99.08000 6.629
99.10000 8.503
99.12000 3.775
99.14000 8.231
99.16000 9.083
99.18000 4.539
99.20000 2.013
99.22000 3.535
99.24000 3.245
99.26000 2.331
99.28000 -0.267
99.30000 -1.404
99.32000 -1.128
99.34000 3.160
99.36000 5.988
99.38000 2.252
99.40000 -0.168
99.42000 -0.224
99.44000 5.634
99.46000 5.490
99.48000 3.391
99.50000 -0.205
99.52000 -0.144
99.54000 -0.922
99.56000 1.751
99.58000 3.420
99.60000 5.900
99.62000 10.110
99.64000 10.208
99.66000 3.824
99.68000 1.196
99.70000 0.941
99.72000 -1.162
99.74000 -1.777
99.76000 3.396
99.78000 6.736
99.80000 5.468
99.82000 -0.260
99.84000 6.417
99.86000 3.481
99.88000 3.357
99.90000 7.905
99.92000 6.616
99.94000 4.376
99.96000 -1.867
99.98000 0.000
