'Id: "0011387" Comment: "Integrate frame 0011387_Au-Ir-Rh_Rh-rich_XRD-Mapping-298-0000.gfrmwith cursor Wedge Cursor #5" Operator: "B?rgel" Anode: "Cu" Wavelength: "1.5406" Scantype: "2Theta (TwoTheta)" TimePerStep: "1" X: "-22.5" Y: "31.5" Z: "5.95" 
10.00000 0.000
10.02000 3.311
10.04000 12.139
10.06000 4.467
10.08000 0.813
10.10000 14.449
10.12000 2.089
10.14000 3.440
10.16000 11.089
10.18000 11.228
10.20000 8.845
10.22000 23.914
10.24000 16.661
10.26000 2.407
10.28000 13.622
10.30000 10.639
10.32000 7.992
10.34000 20.642
10.36000 17.829
10.38000 13.571
10.40000 13.063
10.42000 16.973
10.44000 15.671
10.46000 14.573
10.48000 11.532
10.50000 -4.471
10.52000 6.242
10.54000 12.263
10.56000 18.167
10.58000 13.175
10.60000 20.322
10.62000 23.102
10.64000 20.158
10.66000 17.502
10.68000 -0.261
10.70000 -0.795
10.72000 9.718
10.74000 7.211
10.76000 14.805
10.78000 9.875
10.80000 11.873
10.82000 7.302
10.84000 10.305
10.86000 15.077
10.88000 13.418
10.90000 11.401
10.92000 17.765
10.94000 15.773
10.96000 19.883
10.98000 10.246
11.00000 13.383
11.02000 15.557
11.04000 6.344
11.06000 1.783
11.08000 11.743
11.10000 10.645
11.12000 17.156
11.14000 14.754
11.16000 10.138
11.18000 10.083
11.20000 24.238
11.22000 27.830
11.24000 18.890
11.26000 6.855
11.28000 15.548
11.30000 14.910
11.32000 8.697
11.34000 9.942
11.36000 6.987
11.38000 11.289
11.40000 6.355
11.42000 21.692
11.44000 20.740
11.46000 18.515
11.48000 7.237
11.50000 10.457
11.52000 6.902
11.54000 12.015
11.56000 5.232
11.58000 -0.256
11.60000 4.518
11.62000 6.069
11.64000 9.057
11.66000 8.614
11.68000 15.459
11.70000 28.348
11.72000 11.261
11.74000 12.084
11.76000 22.212
11.78000 17.025
11.80000 17.955
11.82000 22.221
11.84000 7.414
11.86000 4.174
11.88000 4.238
11.90000 4.715
11.92000 14.924
11.94000 9.508
11.96000 8.612
11.98000 -4.532
12.00000 -1.320
12.02000 -0.370
12.04000 11.685
12.06000 10.014
12.08000 5.765
12.10000 7.625
12.12000 8.475
12.14000 3.175
12.16000 6.912
12.18000 -3.090
12.20000 -2.182
12.22000 2.033
12.24000 11.402
12.26000 14.245
12.28000 14.218
12.30000 2.421
12.32000 10.690
12.34000 13.451
12.36000 14.135
12.38000 12.360
12.40000 12.968
12.42000 15.352
12.44000 10.038
12.46000 7.979
12.48000 5.983
12.50000 7.877
12.52000 8.324
12.54000 6.101
12.56000 11.367
12.58000 5.626
12.60000 2.416
12.62000 -1.429
12.64000 1.675
12.66000 6.516
12.68000 11.623
12.70000 6.535
12.72000 8.601
12.74000 9.606
12.76000 0.146
12.78000 3.032
12.80000 17.868
12.82000 17.090
12.84000 4.934
12.86000 15.969
12.88000 9.800
12.90000 7.481
12.92000 9.720
12.94000 11.552
12.96000 11.710
12.98000 15.777
13.00000 10.382
13.02000 4.587
13.04000 14.944
13.06000 15.420
13.08000 1.433
13.10000 -0.147
13.12000 7.702
13.14000 9.521
13.16000 15.435
13.18000 13.389
13.20000 17.558
13.22000 14.677
13.24000 8.913
13.26000 8.725
13.28000 8.600
13.30000 0.090
13.32000 10.853
13.34000 4.214
13.36000 7.017
13.38000 3.751
13.40000 -0.740
13.42000 1.577
13.44000 2.791
13.46000 6.517
13.48000 8.138
13.50000 9.396
13.52000 11.724
13.54000 20.234
13.56000 15.224
13.58000 9.977
13.60000 3.321
13.62000 0.813
13.64000 5.609
13.66000 0.135
13.68000 3.567
13.70000 -3.876
13.72000 5.305
13.74000 5.992
13.76000 4.447
13.78000 8.480
13.80000 8.219
13.82000 -1.039
13.84000 -0.194
13.86000 6.257
13.88000 6.560
13.90000 1.895
13.92000 3.648
13.94000 6.497
13.96000 8.960
13.98000 5.847
14.00000 4.574
14.02000 7.716
14.04000 9.181
14.06000 17.004
14.08000 9.835
14.10000 12.434
14.12000 3.195
14.14000 0.230
14.16000 -1.707
14.18000 -1.596
14.20000 7.923
14.22000 2.748
14.24000 -4.510
14.26000 5.449
14.28000 4.496
14.30000 -4.509
14.32000 5.413
14.34000 10.003
14.36000 10.469
14.38000 0.744
14.40000 4.085
14.42000 1.114
14.44000 6.184
14.46000 12.408
14.48000 12.558
14.50000 9.669
14.52000 7.532
14.54000 6.875
14.56000 -0.605
14.58000 -4.236
14.60000 2.572
14.62000 9.808
14.64000 7.967
14.66000 8.525
14.68000 -3.617
14.70000 -1.471
14.72000 1.959
14.74000 5.230
14.76000 8.693
14.78000 -0.041
14.80000 3.858
14.82000 9.411
14.84000 1.156
14.86000 2.535
14.88000 1.119
14.90000 -4.503
14.92000 2.083
14.94000 11.009
14.96000 8.652
14.98000 13.443
15.00000 8.877
15.02000 6.457
15.04000 5.789
15.06000 2.451
15.08000 8.850
15.10000 7.921
15.12000 5.592
15.14000 1.961
15.16000 6.372
15.18000 2.002
15.20000 12.300
15.22000 15.446
15.24000 13.696
15.26000 7.544
15.28000 5.415
15.30000 5.325
15.32000 3.800
15.34000 3.815
15.36000 5.859
15.38000 12.930
15.40000 7.540
15.42000 9.480
15.44000 9.660
15.46000 9.632
15.48000 9.803
15.50000 5.545
15.52000 11.509
15.54000 8.916
15.56000 6.715
15.58000 12.410
15.60000 8.670
15.62000 12.787
15.64000 3.761
15.66000 7.520
15.68000 6.361
15.70000 0.156
15.72000 8.039
15.74000 10.401
15.76000 5.209
15.78000 -0.179
15.80000 -1.098
15.82000 5.796
15.84000 6.213
15.86000 7.200
15.88000 2.135
15.90000 1.446
15.92000 4.404
15.94000 5.830
15.96000 6.505
15.98000 12.130
16.00000 9.470
16.02000 7.189
16.04000 1.275
16.06000 0.834
16.08000 0.711
16.10000 -4.459
16.12000 5.600
16.14000 4.133
16.16000 1.487
16.18000 3.752
16.20000 2.168
16.22000 1.971
16.24000 -2.307
16.26000 -4.454
16.28000 -2.100
16.30000 -0.411
16.32000 -1.114
16.34000 7.961
16.36000 7.479
16.38000 7.981
16.40000 8.190
16.42000 2.548
16.44000 5.322
16.46000 10.929
16.48000 2.184
16.50000 -0.579
16.52000 -1.072
16.54000 11.507
16.56000 1.419
16.58000 1.776
16.60000 8.318
16.62000 3.196
16.64000 6.423
16.66000 8.749
16.68000 9.585
16.70000 9.605
16.72000 8.646
16.74000 2.793
16.76000 7.129
16.78000 0.888
16.80000 -4.433
16.82000 -3.847
16.84000 7.729
16.86000 4.825
16.88000 2.158
16.90000 -0.686
16.92000 1.073
16.94000 5.100
16.96000 6.451
16.98000 11.711
17.00000 0.595
17.02000 2.935
17.04000 9.691
17.06000 12.667
17.08000 13.449
17.10000 6.061
17.12000 6.020
17.14000 7.361
17.16000 3.035
17.18000 4.099
17.20000 6.847
17.22000 4.423
17.24000 5.606
17.26000 7.178
17.28000 5.887
17.30000 2.830
17.32000 1.169
17.34000 0.344
17.36000 6.635
17.38000 8.384
17.40000 -3.154
17.42000 4.502
17.44000 2.823
17.46000 3.174
17.48000 7.287
17.50000 8.288
17.52000 10.791
17.54000 12.723
17.56000 6.775
17.58000 6.087
17.60000 6.914
17.62000 -4.386
17.64000 3.792
17.66000 7.652
17.68000 5.500
17.70000 5.692
17.72000 17.290
17.74000 10.555
17.76000 0.247
17.78000 7.530
17.80000 6.668
17.82000 5.520
17.84000 8.517
17.86000 11.058
17.88000 0.576
17.90000 3.300
17.92000 5.374
17.94000 4.767
17.96000 8.487
17.98000 2.971
18.00000 6.475
18.02000 4.182
18.04000 5.198
18.06000 7.638
18.08000 10.294
18.10000 7.188
18.12000 14.784
18.14000 9.263
18.16000 5.764
18.18000 4.565
18.20000 4.725
18.22000 3.705
18.24000 10.692
18.26000 9.959
18.28000 17.854
18.30000 11.693
18.32000 3.926
18.34000 1.705
18.36000 1.288
18.38000 7.682
18.40000 3.522
18.42000 3.157
18.44000 -2.880
18.46000 -0.864
18.48000 8.522
18.50000 5.714
18.52000 -0.840
18.54000 -2.602
18.56000 -2.119
18.58000 0.789
18.60000 -4.339
18.62000 -0.880
18.64000 -0.172
18.66000 -3.377
18.68000 -1.746
18.70000 2.222
18.72000 2.413
18.74000 7.305
18.76000 6.902
18.78000 8.373
18.80000 2.864
18.82000 2.450
18.84000 1.158
18.86000 0.439
18.88000 -2.422
18.90000 3.125
18.92000 2.769
18.94000 -1.072
18.96000 0.637
18.98000 1.819
19.00000 4.596
19.02000 10.564
19.04000 4.995
19.06000 0.432
19.08000 4.766
19.10000 13.054
19.12000 10.768
19.14000 2.777
19.16000 8.767
19.18000 4.794
19.20000 8.060
19.22000 -1.076
19.24000 -2.110
19.26000 -1.917
19.28000 4.321
19.30000 -2.469
19.32000 -4.302
19.34000 0.371
19.36000 3.623
19.38000 3.325
19.40000 -1.567
19.42000 -2.940
19.44000 -4.294
19.46000 -2.181
19.48000 -1.225
19.50000 1.142
19.52000 4.532
19.54000 1.279
19.56000 1.020
19.58000 4.581
19.60000 10.105
19.62000 2.272
19.64000 -2.519
19.66000 -0.203
19.68000 -0.045
19.70000 -3.187
19.72000 0.273
19.74000 5.599
19.76000 6.571
19.78000 5.722
19.80000 9.051
19.82000 0.665
19.84000 0.709
19.86000 -2.994
19.88000 -0.871
19.90000 2.251
19.92000 7.464
19.94000 2.528
19.96000 7.111
19.98000 4.725
20.00000 5.323
20.02000 7.676
20.04000 12.085
20.06000 9.126
20.08000 8.724
20.10000 6.897
20.12000 1.011
20.14000 1.589
20.16000 12.091
20.18000 15.741
20.20000 7.337
20.22000 2.638
20.24000 -4.237
20.26000 1.807
20.28000 4.508
20.30000 10.856
20.32000 12.950
20.34000 8.339
20.36000 -2.852
20.38000 5.562
20.40000 2.664
20.42000 5.880
20.44000 1.548
20.46000 2.448
20.48000 2.548
20.50000 3.842
20.52000 3.999
20.54000 6.488
20.56000 7.853
20.58000 5.878
20.60000 9.184
20.62000 4.938
20.64000 2.868
20.66000 3.329
20.68000 -3.402
20.70000 4.543
20.72000 8.045
20.74000 3.204
20.76000 6.658
20.78000 7.510
20.80000 8.322
20.82000 5.649
20.84000 -0.002
20.86000 1.534
20.88000 0.902
20.90000 -2.311
20.92000 2.408
20.94000 -1.213
20.96000 -1.293
20.98000 1.934
21.00000 8.069
21.02000 5.564
21.04000 6.283
21.06000 4.589
21.08000 6.847
21.10000 6.028
21.12000 3.817
21.14000 -3.901
21.16000 -1.419
21.18000 3.253
21.20000 12.303
21.22000 4.813
21.24000 -0.100
21.26000 -1.533
21.28000 4.818
21.30000 4.173
21.32000 5.427
21.34000 7.833
21.36000 1.189
21.38000 -2.178
21.40000 5.535
21.42000 6.268
21.44000 0.840
21.46000 6.465
21.48000 11.387
21.50000 7.576
21.52000 3.764
21.54000 4.670
21.56000 1.447
21.58000 -0.525
21.60000 -0.185
21.62000 4.974
21.64000 1.998
21.66000 0.269
21.68000 1.837
21.70000 5.008
21.72000 5.459
21.74000 5.747
21.76000 0.176
21.78000 2.818
21.80000 0.550
21.82000 -2.784
21.84000 -0.493
21.86000 2.910
21.88000 3.540
21.90000 4.516
21.92000 4.018
21.94000 -2.386
21.96000 -0.856
21.98000 0.245
22.00000 0.673
22.02000 -0.398
22.04000 4.507
22.06000 -0.364
22.08000 -2.271
22.10000 0.080
22.12000 0.932
22.14000 -4.140
22.16000 0.337
22.18000 2.232
22.20000 -1.845
22.22000 4.124
22.24000 6.603
22.26000 8.373
22.28000 5.656
22.30000 4.724
22.32000 -1.144
22.34000 -3.596
22.36000 -1.926
22.38000 1.226
22.40000 2.149
22.42000 6.128
22.44000 -1.579
22.46000 3.498
22.48000 6.974
22.50000 3.479
22.52000 1.033
22.54000 2.012
22.56000 2.070
22.58000 3.683
22.60000 -3.961
22.62000 5.494
22.64000 6.181
22.66000 5.280
22.68000 2.374
22.70000 -0.853
22.72000 -1.182
22.74000 2.568
22.76000 -1.403
22.78000 3.785
22.80000 7.005
22.82000 2.884
22.84000 1.962
22.86000 -3.223
22.88000 -4.058
22.90000 -3.124
22.92000 0.133
22.94000 -0.521
22.96000 -3.555
22.98000 -4.107
23.00000 -2.613
23.02000 0.379
23.04000 6.659
23.06000 1.970
23.08000 -1.334
23.10000 -2.374
23.12000 -0.114
23.14000 2.712
23.16000 0.487
23.18000 1.397
23.20000 4.851
23.22000 2.115
23.24000 -0.645
23.26000 -0.729
23.28000 0.977
23.30000 3.514
23.32000 -0.421
23.34000 7.775
23.36000 4.523
23.38000 3.765
23.40000 1.221
23.42000 -0.180
23.44000 -2.398
23.46000 -1.083
23.48000 1.913
23.50000 7.392
23.52000 9.889
23.54000 7.999
23.56000 5.566
23.58000 3.651
23.60000 4.942
23.62000 9.177
23.64000 10.825
23.66000 5.157
23.68000 3.536
23.70000 5.757
23.72000 -1.466
23.74000 -4.053
23.76000 1.044
23.78000 4.479
23.80000 1.315
23.82000 -1.094
23.84000 0.459
23.86000 5.934
23.88000 2.637
23.90000 -4.043
23.92000 -0.983
23.94000 0.718
23.96000 -0.284
23.98000 3.952
24.00000 11.333
24.02000 6.694
24.04000 6.539
24.06000 3.604
24.08000 6.014
24.10000 8.235
24.12000 0.406
24.14000 1.512
24.16000 -0.010
24.18000 1.159
24.20000 10.168
24.22000 9.734
24.24000 6.260
24.26000 0.088
24.28000 2.817
24.30000 -2.514
24.32000 -3.376
24.34000 0.855
24.36000 4.816
24.38000 0.362
24.40000 -4.012
24.42000 -0.740
24.44000 4.386
24.46000 4.956
24.48000 2.930
24.50000 1.242
24.52000 4.671
24.54000 2.484
24.56000 6.291
24.58000 3.040
24.60000 3.345
24.62000 0.593
24.64000 5.494
24.66000 1.804
24.68000 -2.458
24.70000 1.133
24.72000 6.518
24.74000 6.999
24.76000 10.676
24.78000 4.026
24.80000 -2.109
24.82000 -3.511
24.84000 0.744
24.86000 4.044
24.88000 1.122
24.90000 2.963
24.92000 4.848
24.94000 3.028
24.96000 4.041
24.98000 0.799
25.00000 -3.278
25.02000 2.322
25.04000 2.641
25.06000 1.434
25.08000 4.231
25.10000 2.094
25.12000 10.093
25.14000 6.871
25.16000 3.962
25.18000 2.821
25.20000 -1.432
25.22000 -1.241
25.24000 5.156
25.26000 6.849
25.28000 10.048
25.30000 10.678
25.32000 7.580
25.34000 0.912
25.36000 -3.931
25.38000 0.046
25.40000 -1.010
25.42000 2.593
25.44000 2.620
25.46000 0.797
25.48000 5.010
25.50000 8.889
25.52000 13.149
25.54000 12.502
25.56000 7.000
25.58000 7.122
25.60000 6.917
25.62000 3.364
25.64000 3.652
25.66000 0.234
25.68000 -2.039
25.70000 7.547
25.72000 5.113
25.74000 3.047
25.76000 3.914
25.78000 0.434
25.80000 2.911
25.82000 5.509
25.84000 4.002
25.86000 -0.244
25.88000 -0.825
25.90000 1.818
25.92000 8.549
25.94000 6.066
25.96000 5.776
25.98000 8.041
26.00000 7.138
26.02000 5.244
26.04000 1.721
26.06000 3.068
26.08000 6.674
26.10000 5.778
26.12000 2.322
26.14000 -1.064
26.16000 3.230
26.18000 3.321
26.20000 1.588
26.22000 3.357
26.24000 7.321
26.26000 4.829
26.28000 4.824
26.30000 3.211
26.32000 6.713
26.34000 10.850
26.36000 10.125
26.38000 10.517
26.40000 3.534
26.42000 5.766
26.44000 5.366
26.46000 7.826
26.48000 3.660
26.50000 2.862
26.52000 5.197
26.54000 7.863
26.56000 9.286
26.58000 8.477
26.60000 -0.145
26.62000 0.328
26.64000 6.491
26.66000 5.913
26.68000 2.879
26.70000 6.261
26.72000 1.261
26.74000 3.809
26.76000 6.127
26.78000 5.724
26.80000 9.086
26.82000 7.278
26.84000 2.083
26.86000 2.267
26.88000 4.685
26.90000 1.851
26.92000 7.632
26.94000 6.529
26.96000 8.415
26.98000 7.498
27.00000 4.971
27.02000 7.511
27.04000 6.478
27.06000 5.895
27.08000 5.769
27.10000 7.881
27.12000 6.851
27.14000 8.435
27.16000 9.602
27.18000 11.000
27.20000 5.538
27.22000 9.365
27.24000 13.844
27.26000 7.979
27.28000 2.390
27.30000 -3.800
27.32000 -0.619
27.34000 8.593
27.36000 11.044
27.38000 10.052
27.40000 7.958
27.42000 1.029
27.44000 -1.202
27.46000 0.875
27.48000 2.014
27.50000 3.940
27.52000 8.398
27.54000 10.447
27.56000 6.534
27.58000 5.455
27.60000 6.502
27.62000 2.690
27.64000 1.726
27.66000 2.511
27.68000 4.612
27.70000 0.061
27.72000 5.336
27.74000 10.526
27.76000 5.060
27.78000 5.478
27.80000 7.132
27.82000 7.362
27.84000 11.440
27.86000 12.173
27.88000 7.761
27.90000 5.315
27.92000 5.392
27.94000 5.101
27.96000 -0.962
27.98000 -2.094
28.00000 0.277
28.02000 3.207
28.04000 6.764
28.06000 -0.322
28.08000 -3.784
28.10000 1.485
28.12000 7.601
28.14000 3.397
28.16000 4.679
28.18000 4.310
28.20000 5.850
28.22000 5.678
28.24000 2.926
28.26000 -1.034
28.28000 -1.088
28.30000 3.619
28.32000 5.199
28.34000 2.659
28.36000 2.271
28.38000 3.591
28.40000 1.051
28.42000 1.090
28.44000 9.356
28.46000 8.487
28.48000 -0.964
28.50000 -3.216
28.52000 0.231
28.54000 5.336
28.56000 4.893
28.58000 2.481
28.60000 -0.107
28.62000 7.462
28.64000 11.650
28.66000 4.854
28.68000 1.794
28.70000 8.781
28.72000 5.127
28.74000 0.171
28.76000 3.425
28.78000 10.295
28.80000 6.759
28.82000 0.782
28.84000 7.703
28.86000 6.432
28.88000 7.012
28.90000 4.559
28.92000 4.348
28.94000 2.675
28.96000 4.793
28.98000 6.215
29.00000 4.631
29.02000 1.189
29.04000 1.049
29.06000 2.013
29.08000 2.309
29.10000 0.643
29.12000 -3.748
29.14000 2.823
29.16000 0.420
29.18000 2.095
29.20000 4.899
29.22000 6.406
29.24000 1.258
29.26000 3.451
29.28000 3.603
29.30000 -1.126
29.32000 -0.808
29.34000 2.038
29.36000 0.928
29.38000 -0.243
29.40000 1.575
29.42000 3.698
29.44000 1.905
29.46000 1.657
29.48000 2.491
29.50000 4.872
29.52000 7.067
29.54000 0.496
29.56000 2.379
29.58000 1.089
29.60000 5.154
29.62000 6.851
29.64000 3.731
29.66000 0.041
29.68000 -0.426
29.70000 6.752
29.72000 2.816
29.74000 0.479
29.76000 0.992
29.78000 0.079
29.80000 2.243
29.82000 0.369
29.84000 5.857
29.86000 9.171
29.88000 8.532
29.90000 7.460
29.92000 1.632
29.94000 0.081
29.96000 -0.706
29.98000 1.543
30.00000 -0.027
30.02000 4.726
30.04000 5.580
30.06000 0.635
30.08000 7.371
30.10000 6.512
30.12000 3.170
30.14000 -3.669
30.16000 1.902
30.18000 2.591
30.20000 5.097
30.22000 11.611
30.24000 3.290
30.26000 1.370
30.28000 3.781
30.30000 0.049
30.32000 5.161
30.34000 3.599
30.36000 3.008
30.38000 4.486
30.40000 2.442
30.42000 4.029
30.44000 4.099
30.46000 6.061
30.48000 8.332
30.50000 5.484
30.52000 -0.259
30.54000 -2.306
30.56000 -0.544
30.58000 3.461
30.60000 1.502
30.62000 1.481
30.64000 0.217
30.66000 1.825
30.68000 6.614
30.70000 7.415
30.72000 6.265
30.74000 4.893
30.76000 4.833
30.78000 6.621
30.80000 4.339
30.82000 1.176
30.84000 4.231
30.86000 3.352
30.88000 -3.657
30.90000 -1.850
30.92000 2.824
30.94000 4.778
30.96000 4.651
30.98000 4.620
31.00000 2.371
31.02000 1.102
31.04000 6.742
31.06000 6.114
31.08000 3.192
31.10000 -1.601
31.12000 1.950
31.14000 2.038
31.16000 0.780
31.18000 -1.599
31.20000 0.378
31.22000 0.839
31.24000 5.273
31.26000 5.834
31.28000 8.316
31.30000 5.402
31.32000 -0.756
31.34000 -3.084
31.36000 2.303
31.38000 8.463
31.40000 1.177
31.42000 -0.471
31.44000 0.521
31.46000 2.112
31.48000 -0.826
31.50000 2.598
31.52000 0.193
31.54000 5.280
31.56000 1.860
31.58000 0.995
31.60000 5.994
31.62000 4.348
31.64000 0.481
31.66000 4.254
31.68000 2.997
31.70000 1.178
31.72000 2.827
31.74000 2.932
31.76000 4.451
31.78000 4.086
31.80000 -0.425
31.82000 -3.610
31.84000 2.185
31.86000 2.936
31.88000 2.109
31.90000 0.154
31.92000 2.045
31.94000 9.284
31.96000 6.940
31.98000 9.072
32.00000 5.117
32.02000 6.208
32.04000 6.103
32.06000 7.819
32.08000 1.647
32.10000 5.093
32.12000 6.415
32.14000 7.409
32.16000 9.668
32.18000 0.987
32.20000 5.783
32.22000 12.078
32.24000 5.500
32.26000 1.709
32.28000 1.374
32.30000 3.249
32.32000 2.814
32.34000 3.518
32.36000 0.731
32.38000 -3.422
32.40000 1.296
32.42000 1.732
32.44000 0.027
32.46000 -1.626
32.48000 -0.338
32.50000 -2.367
32.52000 0.394
32.54000 0.961
32.56000 2.418
32.58000 -2.143
32.60000 -0.789
32.62000 5.230
32.64000 11.122
32.66000 2.692
32.68000 -1.950
32.70000 -1.738
32.72000 0.869
32.74000 5.264
32.76000 8.556
32.78000 9.853
32.80000 7.750
32.82000 -1.683
32.84000 0.481
32.86000 0.940
32.88000 0.998
32.90000 2.807
32.92000 7.597
32.94000 6.593
32.96000 0.385
32.98000 2.118
33.00000 6.392
33.02000 6.162
33.04000 3.263
33.06000 -3.594
33.08000 -3.252
33.10000 -2.283
33.12000 0.636
33.14000 2.473
33.16000 6.378
33.18000 2.417
33.20000 3.272
33.22000 2.672
33.24000 2.626
33.26000 1.109
33.28000 3.865
33.30000 5.391
33.32000 8.754
33.34000 5.881
33.36000 6.468
33.38000 7.735
33.40000 3.618
33.42000 2.572
33.44000 5.861
33.46000 2.750
33.48000 4.382
33.50000 0.929
33.52000 -2.334
33.54000 1.094
33.56000 5.064
33.58000 -1.717
33.60000 0.822
33.62000 0.880
33.64000 -0.604
33.66000 0.956
33.68000 2.448
33.70000 3.895
33.72000 -1.280
33.74000 -0.777
33.76000 0.583
33.78000 5.614
33.80000 13.148
33.82000 10.690
33.84000 7.229
33.86000 1.457
33.88000 3.053
33.90000 4.576
33.92000 2.397
33.94000 -0.315
33.96000 3.704
33.98000 7.311
34.00000 -0.414
34.02000 2.664
34.04000 0.553
34.06000 1.653
34.08000 8.512
34.10000 7.239
34.12000 4.435
34.14000 3.606
34.16000 2.495
34.18000 3.027
34.20000 -3.583
34.22000 -1.522
34.24000 1.990
34.26000 1.639
34.28000 0.428
34.30000 3.808
34.32000 2.362
34.34000 -0.667
34.36000 5.010
34.38000 7.835
34.40000 6.574
34.42000 5.852
34.44000 3.253
34.46000 3.440
34.48000 0.058
34.50000 -1.136
34.52000 4.033
34.54000 1.308
34.56000 4.575
34.58000 3.712
34.60000 3.191
34.62000 1.237
34.64000 -1.062
34.66000 -2.948
34.68000 -3.577
34.70000 0.304
34.72000 -0.724
34.74000 0.713
34.76000 -0.566
34.78000 -1.092
34.80000 2.251
34.82000 1.719
34.84000 4.060
34.86000 0.235
34.88000 -2.721
34.90000 -2.288
34.92000 -2.420
34.94000 -3.016
34.96000 -0.045
34.98000 5.107
35.00000 1.057
35.02000 4.307
35.04000 -0.613
35.06000 -1.883
35.08000 0.118
35.10000 2.560
35.12000 3.859
35.14000 1.906
35.16000 -1.581
35.18000 1.099
35.20000 0.608
35.22000 -2.047
35.24000 0.217
35.26000 0.970
35.28000 1.428
35.30000 3.624
35.32000 -0.680
35.34000 1.437
35.36000 -3.564
35.38000 -2.893
35.40000 1.825
35.42000 1.390
35.44000 2.563
35.46000 -0.918
35.48000 -2.094
35.50000 5.682
35.52000 1.481
35.54000 3.805
35.56000 1.766
35.58000 -3.571
35.60000 -1.805
35.62000 1.611
35.64000 1.947
35.66000 0.802
35.68000 0.600
35.70000 0.856
35.72000 2.611
35.74000 0.098
35.76000 1.572
35.78000 0.441
35.80000 1.683
35.82000 2.551
35.84000 8.662
35.86000 6.459
35.88000 2.394
35.90000 2.482
35.92000 3.869
35.94000 5.886
35.96000 1.730
35.98000 -3.583
36.00000 2.527
36.02000 3.401
36.04000 4.133
36.06000 1.957
36.08000 -3.206
36.10000 -3.437
36.12000 -1.997
36.14000 -2.836
36.16000 0.129
36.18000 4.966
36.20000 4.593
36.22000 4.964
36.24000 5.174
36.26000 -0.366
36.28000 -3.298
36.30000 -1.211
36.32000 1.187
36.34000 -0.734
36.36000 1.368
36.38000 0.547
36.40000 -2.040
36.42000 -0.623
36.44000 3.039
36.46000 4.937
36.48000 1.065
36.50000 2.046
36.52000 1.872
36.54000 5.543
36.56000 -0.193
36.58000 0.965
36.60000 0.743
36.62000 2.693
36.64000 -0.358
36.66000 5.397
36.68000 6.156
36.70000 6.265
36.72000 -3.205
36.74000 1.640
36.76000 5.281
36.78000 4.943
36.80000 3.676
36.82000 -1.488
36.84000 -3.596
36.86000 -2.440
36.88000 4.043
36.90000 3.701
36.92000 4.221
36.94000 2.417
36.96000 3.745
36.98000 3.192
37.00000 -0.793
37.02000 3.986
37.04000 5.490
37.06000 4.308
37.08000 5.565
37.10000 4.644
37.12000 2.378
37.14000 2.371
37.16000 1.892
37.18000 -0.508
37.20000 2.748
37.22000 3.974
37.24000 5.117
37.26000 -0.196
37.28000 -2.311
37.30000 0.744
37.32000 5.155
37.34000 2.646
37.36000 4.350
37.38000 -2.165
37.40000 -0.013
37.42000 3.354
37.44000 7.010
37.46000 3.355
37.48000 4.864
37.50000 5.066
37.52000 5.290
37.54000 7.701
37.56000 5.166
37.58000 4.143
37.60000 5.370
37.62000 8.910
37.64000 8.722
37.66000 13.210
37.68000 9.120
37.70000 11.583
37.72000 12.715
37.74000 9.968
37.76000 8.310
37.78000 8.525
37.80000 13.532
37.82000 13.351
37.84000 13.038
37.86000 15.443
37.88000 10.527
37.90000 10.537
37.92000 15.483
37.94000 16.150
37.96000 13.799
37.98000 19.103
38.00000 13.356
38.02000 14.968
38.04000 22.759
38.06000 19.020
38.08000 17.605
38.10000 18.521
38.12000 24.282
38.14000 27.449
38.16000 28.277
38.18000 29.644
38.20000 26.314
38.22000 26.388
38.24000 25.416
38.26000 30.609
38.28000 31.280
38.30000 27.402
38.32000 32.924
38.34000 31.907
38.36000 34.603
38.38000 36.785
38.40000 38.555
38.42000 42.655
38.44000 45.120
38.46000 45.606
38.48000 42.919
38.50000 47.706
38.52000 48.676
38.54000 50.096
38.56000 50.379
38.58000 55.309
38.60000 59.817
38.62000 61.742
38.64000 61.864
38.66000 63.752
38.68000 69.422
38.70000 68.109
38.72000 68.060
38.74000 71.118
38.76000 77.069
38.78000 80.554
38.80000 87.806
38.82000 86.483
38.84000 92.775
38.86000 92.261
38.88000 97.193
38.90000 95.636
38.92000 105.406
38.94000 113.701
38.96000 115.685
38.98000 121.680
39.00000 119.876
39.02000 127.360
39.04000 137.794
39.06000 141.552
39.08000 145.360
39.10000 152.858
39.12000 160.133
39.14000 164.878
39.16000 178.468
39.18000 185.574
39.20000 198.248
39.22000 206.936
39.24000 220.432
39.26000 228.725
39.28000 237.880
39.30000 244.170
39.32000 252.469
39.34000 262.265
39.36000 279.565
39.38000 290.097
39.40000 304.354
39.42000 327.562
39.44000 344.313
39.46000 361.267
39.48000 381.434
39.50000 403.536
39.52000 419.270
39.54000 440.407
39.56000 468.931
39.58000 484.545
39.60000 518.754
39.62000 540.589
39.64000 552.259
39.66000 566.185
39.68000 593.730
39.70000 622.920
39.72000 648.582
39.74000 665.891
39.76000 687.971
39.78000 703.362
39.80000 717.638
39.82000 738.376
39.84000 753.803
39.86000 765.536
39.88000 786.249
39.90000 797.395
39.92000 803.956
39.94000 808.208
39.96000 804.522
39.98000 795.397
40.00000 780.540
40.02000 776.351
40.04000 769.137
40.06000 763.763
40.08000 750.805
40.10000 743.084
40.12000 721.202
40.14000 703.387
40.16000 680.691
40.18000 662.670
40.20000 644.682
40.22000 624.230
40.24000 600.790
40.26000 573.464
40.28000 549.898
40.30000 525.154
40.32000 498.022
40.34000 475.437
40.36000 463.170
40.38000 442.801
40.40000 422.259
40.42000 400.726
40.44000 380.486
40.46000 354.826
40.48000 336.598
40.50000 316.951
40.52000 296.753
40.54000 277.666
40.56000 267.262
40.58000 249.490
40.60000 231.412
40.62000 220.981
40.64000 212.996
40.66000 199.446
40.68000 180.527
40.70000 172.529
40.72000 163.439
40.74000 158.748
40.76000 150.131
40.78000 141.849
40.80000 132.073
40.82000 128.027
40.84000 119.491
40.86000 104.858
40.88000 103.941
40.90000 102.277
40.92000 93.908
40.94000 80.751
40.96000 81.096
40.98000 80.142
41.00000 73.087
41.02000 64.965
41.04000 63.407
41.06000 55.777
41.08000 57.210
41.10000 55.905
41.12000 51.719
41.14000 45.899
41.16000 46.722
41.18000 42.170
41.20000 45.704
41.22000 40.788
41.24000 36.843
41.26000 32.313
41.28000 33.094
41.30000 30.997
41.32000 26.945
41.34000 29.278
41.36000 26.815
41.38000 22.029
41.40000 21.400
41.42000 23.692
41.44000 22.101
41.46000 18.850
41.48000 16.832
41.50000 14.290
41.52000 11.494
41.54000 12.515
41.56000 11.030
41.58000 16.224
41.60000 17.192
41.62000 13.387
41.64000 12.518
41.66000 10.735
41.68000 7.858
41.70000 8.148
41.72000 9.811
41.74000 12.144
41.76000 8.549
41.78000 3.824
41.80000 3.269
41.82000 3.468
41.84000 4.273
41.86000 1.786
41.88000 0.267
41.90000 3.230
41.92000 5.114
41.94000 2.498
41.96000 4.225
41.98000 8.403
42.00000 8.604
42.02000 6.905
42.04000 1.412
42.06000 4.095
42.08000 2.120
42.10000 -2.371
42.12000 -2.769
42.14000 0.818
42.16000 5.685
42.18000 7.466
42.20000 7.215
42.22000 2.162
42.24000 1.059
42.26000 0.165
42.28000 2.448
42.30000 0.485
42.32000 1.448
42.34000 1.911
42.36000 0.771
42.38000 7.128
42.40000 5.745
42.42000 -0.177
42.44000 0.213
42.46000 -0.149
42.48000 3.559
42.50000 0.784
42.52000 -1.309
42.54000 0.372
42.56000 2.519
42.58000 0.717
42.60000 -2.224
42.62000 -0.661
42.64000 0.880
42.66000 -0.835
42.68000 0.494
42.70000 -0.152
42.72000 1.340
42.74000 3.393
42.76000 0.349
42.78000 0.660
42.80000 -1.066
42.82000 2.022
42.84000 -0.360
42.86000 -2.387
42.88000 -0.573
42.90000 2.981
42.92000 1.509
42.94000 2.993
42.96000 4.638
42.98000 -0.277
43.00000 -2.279
43.02000 1.310
43.04000 2.496
43.06000 4.783
43.08000 4.107
43.10000 2.437
43.12000 -0.330
43.14000 -3.375
43.16000 -2.028
43.18000 2.494
43.20000 5.705
43.22000 2.829
43.24000 3.812
43.26000 3.443
43.28000 2.821
43.30000 4.803
43.32000 3.003
43.34000 4.096
43.36000 3.902
43.38000 3.239
43.40000 6.522
43.42000 5.235
43.44000 5.583
43.46000 5.797
43.48000 5.230
43.50000 2.642
43.52000 0.483
43.54000 4.756
43.56000 4.541
43.58000 3.215
43.60000 3.003
43.62000 4.662
43.64000 2.979
43.66000 -3.286
43.68000 0.979
43.70000 11.999
43.72000 9.174
43.74000 2.233
43.76000 3.988
43.78000 2.676
43.80000 1.384
43.82000 6.418
43.84000 6.121
43.86000 2.962
43.88000 2.920
43.90000 3.007
43.92000 6.659
43.94000 0.032
43.96000 -0.147
43.98000 2.409
44.00000 4.706
44.02000 5.293
44.04000 3.313
44.06000 0.837
44.08000 0.793
44.10000 1.968
44.12000 1.068
44.14000 5.321
44.16000 4.020
44.18000 6.016
44.20000 1.908
44.22000 0.444
44.24000 5.232
44.26000 7.336
44.28000 5.098
44.30000 0.851
44.32000 2.815
44.34000 3.243
44.36000 1.908
44.38000 0.394
44.40000 2.288
44.42000 5.654
44.44000 4.126
44.46000 0.515
44.48000 1.388
44.50000 6.971
44.52000 4.188
44.54000 4.602
44.56000 1.646
44.58000 1.989
44.60000 4.725
44.62000 4.090
44.64000 4.588
44.66000 8.960
44.68000 3.982
44.70000 1.242
44.72000 3.967
44.74000 1.856
44.76000 3.761
44.78000 5.950
44.80000 6.429
44.82000 5.472
44.84000 3.409
44.86000 5.671
44.88000 4.614
44.90000 7.230
44.92000 9.583
44.94000 11.533
44.96000 13.693
44.98000 13.484
45.00000 11.251
45.02000 11.072
45.04000 9.721
45.06000 10.542
45.08000 8.360
45.10000 11.762
45.12000 14.056
45.14000 8.561
45.16000 10.483
45.18000 12.281
45.20000 13.188
45.22000 11.867
45.24000 19.108
45.26000 22.074
45.28000 21.742
45.30000 19.484
45.32000 19.144
45.34000 17.177
45.36000 17.504
45.38000 16.686
45.40000 22.167
45.42000 24.690
45.44000 23.687
45.46000 20.488
45.48000 19.034
45.50000 28.481
45.52000 29.834
45.54000 29.303
45.56000 30.694
45.58000 27.905
45.60000 31.807
45.62000 33.391
45.64000 33.327
45.66000 35.172
45.68000 34.969
45.70000 30.607
45.72000 38.080
45.74000 44.211
45.76000 39.361
45.78000 43.992
45.80000 46.970
45.82000 46.285
45.84000 47.387
45.86000 50.979
45.88000 50.935
45.90000 51.308
45.92000 57.073
45.94000 60.703
45.96000 61.197
45.98000 66.258
46.00000 64.094
46.02000 60.846
46.04000 66.648
46.06000 65.195
46.08000 69.513
46.10000 76.129
46.12000 78.617
46.14000 78.921
46.16000 76.880
46.18000 77.931
46.20000 82.354
46.22000 91.671
46.24000 91.891
46.26000 97.992
46.28000 102.533
46.30000 98.839
46.32000 95.253
46.34000 99.489
46.36000 103.308
46.38000 103.041
46.40000 109.039
46.42000 114.089
46.44000 117.606
46.46000 116.009
46.48000 114.214
46.50000 114.267
46.52000 117.596
46.54000 118.488
46.56000 121.313
46.58000 120.030
46.60000 123.121
46.62000 124.995
46.64000 120.605
46.66000 120.129
46.68000 123.629
46.70000 122.671
46.72000 120.791
46.74000 119.066
46.76000 115.815
46.78000 113.422
46.80000 116.573
46.82000 118.955
46.84000 110.196
46.86000 111.382
46.88000 111.636
46.90000 110.996
46.92000 108.974
46.94000 105.594
46.96000 101.159
46.98000 96.651
47.00000 96.598
47.02000 100.099
47.04000 99.871
47.06000 93.442
47.08000 90.593
47.10000 79.222
47.12000 71.258
47.14000 72.529
47.16000 71.197
47.18000 68.803
47.20000 64.489
47.22000 68.717
47.24000 63.338
47.26000 59.773
47.28000 55.847
47.30000 60.929
47.32000 54.936
47.34000 44.212
47.36000 45.868
47.38000 47.357
47.40000 39.899
47.42000 40.801
47.44000 41.865
47.46000 41.845
47.48000 33.603
47.50000 31.107
47.52000 34.550
47.54000 28.914
47.56000 23.826
47.58000 20.511
47.60000 14.535
47.62000 19.856
47.64000 16.792
47.66000 13.039
47.68000 16.361
47.70000 13.042
47.72000 20.657
47.74000 19.725
47.76000 14.260
47.78000 11.470
47.80000 11.171
47.82000 12.423
47.84000 12.847
47.86000 9.742
47.88000 8.125
47.90000 9.692
47.92000 14.766
47.94000 12.048
47.96000 7.486
47.98000 6.437
48.00000 5.461
48.02000 6.092
48.04000 3.867
48.06000 2.277
48.08000 4.713
48.10000 7.522
48.12000 9.346
48.14000 5.420
48.16000 2.019
48.18000 8.964
48.20000 6.167
48.22000 3.839
48.24000 7.809
48.26000 2.192
48.28000 -1.716
48.30000 -2.689
48.32000 -1.725
48.34000 1.775
48.36000 4.935
48.38000 3.693
48.40000 2.361
48.42000 6.930
48.44000 9.628
48.46000 3.503
48.48000 -0.086
48.50000 0.881
48.52000 3.875
48.54000 4.993
48.56000 5.185
48.58000 1.653
48.60000 2.431
48.62000 7.207
48.64000 3.596
48.66000 0.809
48.68000 -2.854
48.70000 -1.018
48.72000 -0.289
48.74000 0.602
48.76000 -0.091
48.78000 6.010
48.80000 4.792
48.82000 1.184
48.84000 2.754
48.86000 2.113
48.88000 -1.512
48.90000 -1.200
48.92000 -0.378
48.94000 6.111
48.96000 3.481
48.98000 2.091
49.00000 1.492
49.02000 3.218
49.04000 6.381
49.06000 6.522
49.08000 7.273
49.10000 7.084
49.12000 1.576
49.14000 2.671
49.16000 -0.227
49.18000 1.672
49.20000 0.910
49.22000 0.921
49.24000 4.742
49.26000 1.611
49.28000 2.611
49.30000 7.068
49.32000 1.508
49.34000 -0.058
49.36000 -2.771
49.38000 -0.510
49.40000 2.487
49.42000 1.933
49.44000 -0.393
49.46000 -2.168
49.48000 -0.664
49.50000 3.291
49.52000 5.587
49.54000 2.646
49.56000 4.622
49.58000 11.266
49.60000 7.064
49.62000 0.227
49.64000 0.963
49.66000 -2.047
49.68000 1.053
49.70000 4.484
49.72000 5.577
49.74000 2.995
49.76000 2.956
49.78000 1.586
49.80000 2.005
49.82000 6.746
49.84000 2.793
49.86000 1.426
49.88000 0.719
49.90000 1.823
49.92000 -2.215
49.94000 0.509
49.96000 1.726
49.98000 4.219
50.00000 0.645
50.02000 -2.129
50.04000 -0.416
50.06000 2.912
50.08000 2.029
50.10000 4.846
50.12000 5.027
50.14000 6.003
50.16000 3.581
50.18000 0.084
50.20000 0.278
50.22000 3.006
50.24000 2.746
50.26000 1.452
50.28000 -0.527
50.30000 2.766
50.32000 2.357
50.34000 1.061
50.36000 -1.566
50.38000 -2.708
50.40000 3.296
50.42000 3.542
50.44000 1.875
50.46000 0.575
50.48000 0.939
50.50000 4.017
50.52000 3.827
50.54000 5.481
50.56000 3.001
50.58000 5.302
50.60000 3.251
50.62000 6.241
50.64000 5.667
50.66000 4.323
50.68000 -0.264
50.70000 -2.561
50.72000 -0.315
50.74000 6.050
50.76000 5.588
50.78000 -2.675
50.80000 -0.980
50.82000 2.802
50.84000 2.166
50.86000 0.814
50.88000 2.274
50.90000 1.769
50.92000 7.928
50.94000 5.848
50.96000 1.825
50.98000 7.752
51.00000 6.859
51.02000 4.847
51.04000 5.090
51.06000 5.491
51.08000 -0.259
51.10000 2.255
51.12000 5.757
51.14000 2.302
51.16000 0.994
51.18000 -1.840
51.20000 1.061
51.22000 2.908
51.24000 1.643
51.26000 0.097
51.28000 2.551
51.30000 5.420
51.32000 2.847
51.34000 -0.697
51.36000 0.697
51.38000 4.641
51.40000 2.171
51.42000 2.599
51.44000 4.772
51.46000 4.408
51.48000 3.240
51.50000 1.709
51.52000 4.166
51.54000 6.505
51.56000 7.174
51.58000 -0.112
51.60000 -0.231
51.62000 1.806
51.64000 3.943
51.66000 2.041
51.68000 -0.913
51.70000 1.882
51.72000 2.916
51.74000 2.143
51.76000 4.414
51.78000 6.652
51.80000 6.564
51.82000 2.176
51.84000 3.723
51.86000 6.131
51.88000 4.836
51.90000 6.876
51.92000 6.698
51.94000 4.335
51.96000 5.119
51.98000 4.471
52.00000 3.413
52.02000 3.846
52.04000 6.168
52.06000 7.747
52.08000 5.276
52.10000 -0.681
52.12000 -2.602
52.14000 0.482
52.16000 3.935
52.18000 6.388
52.20000 8.693
52.22000 6.614
52.24000 3.984
52.26000 3.244
52.28000 -0.086
52.30000 0.012
52.32000 6.379
52.34000 7.634
52.36000 7.789
52.38000 3.762
52.40000 3.510
52.42000 0.780
52.44000 1.900
52.46000 2.554
52.48000 4.493
52.50000 -1.058
52.52000 1.839
52.54000 2.127
52.56000 3.688
52.58000 3.988
52.60000 1.230
52.62000 4.379
52.64000 5.066
52.66000 1.268
52.68000 3.083
52.70000 8.951
52.72000 10.141
52.74000 8.898
52.76000 2.417
52.78000 6.613
52.80000 4.862
52.82000 1.557
52.84000 -2.597
52.86000 -0.384
52.88000 2.367
52.90000 4.754
52.92000 5.425
52.94000 3.155
52.96000 1.739
52.98000 2.056
53.00000 2.410
53.02000 2.269
53.04000 -0.065
53.06000 2.641
53.08000 8.044
53.10000 7.468
53.12000 4.210
53.14000 3.511
53.16000 0.976
53.18000 2.882
53.20000 -0.741
53.22000 -2.196
53.24000 1.950
53.26000 2.627
53.28000 2.364
53.30000 2.876
53.32000 3.012
53.34000 1.058
53.36000 1.503
53.38000 1.484
53.40000 1.309
53.42000 2.148
53.44000 1.493
53.46000 2.229
53.48000 3.850
53.50000 5.029
53.52000 2.896
53.54000 -0.037
53.56000 3.733
53.58000 6.697
53.60000 4.499
53.62000 3.074
53.64000 2.443
53.66000 -0.936
53.68000 -2.414
53.70000 3.099
53.72000 5.493
53.74000 3.795
53.76000 -2.398
53.78000 1.029
53.80000 2.889
53.82000 3.580
53.84000 1.526
53.86000 -2.593
53.88000 -0.993
53.90000 4.625
53.92000 5.321
53.94000 5.873
53.96000 -1.171
53.98000 -1.538
54.00000 3.414
54.02000 3.428
54.04000 4.634
54.06000 1.443
54.08000 3.780
54.10000 3.630
54.12000 2.407
54.14000 3.959
54.16000 1.569
54.18000 2.451
54.20000 0.546
54.22000 0.118
54.24000 -1.466
54.26000 0.247
54.28000 0.675
54.30000 1.994
54.32000 -1.188
54.34000 -2.566
54.36000 -1.814
54.38000 -0.785
54.40000 0.535
54.42000 -0.458
54.44000 3.395
54.46000 3.089
54.48000 1.972
54.50000 3.501
54.52000 2.688
54.54000 3.207
54.56000 4.845
54.58000 0.697
54.60000 3.985
54.62000 2.014
54.64000 -0.944
54.66000 -1.302
54.68000 -0.065
54.70000 -1.485
54.72000 -1.269
54.74000 0.023
54.76000 0.119
54.78000 2.955
54.80000 -0.533
54.82000 2.546
54.84000 -0.189
54.86000 -1.958
54.88000 -1.538
54.90000 -1.385
54.92000 0.541
54.94000 -1.328
54.96000 3.999
54.98000 5.969
55.00000 5.509
55.02000 3.246
55.04000 5.725
55.06000 5.686
55.08000 5.953
55.10000 5.864
55.12000 5.839
55.14000 3.859
55.16000 3.069
55.18000 -0.136
55.20000 6.049
55.22000 6.416
55.24000 4.790
55.26000 1.499
55.28000 4.171
55.30000 5.589
55.32000 3.115
55.34000 -0.286
55.36000 -2.332
55.38000 1.102
55.40000 3.374
55.42000 7.905
55.44000 5.531
55.46000 2.073
55.48000 -0.659
55.50000 -1.068
55.52000 0.207
55.54000 3.602
55.56000 2.451
55.58000 6.301
55.60000 8.077
55.62000 5.153
55.64000 -1.956
55.66000 -2.510
55.68000 1.571
55.70000 0.269
55.72000 2.719
55.74000 6.396
55.76000 1.995
55.78000 1.259
55.80000 2.334
55.82000 0.553
55.84000 1.710
55.86000 0.653
55.88000 -0.229
55.90000 4.807
55.92000 2.376
55.94000 4.692
55.96000 2.297
55.98000 1.434
56.00000 3.185
56.02000 4.599
56.04000 1.196
56.06000 1.848
56.08000 1.849
56.10000 4.824
56.12000 4.267
56.14000 2.074
56.16000 4.781
56.18000 5.891
56.20000 6.017
56.22000 5.488
56.24000 2.802
56.26000 0.086
56.28000 -2.509
56.30000 -0.146
56.32000 3.208
56.34000 6.924
56.36000 3.379
56.38000 6.461
56.40000 6.971
56.42000 3.708
56.44000 3.399
56.46000 0.345
56.48000 -1.607
56.50000 1.874
56.52000 3.070
56.54000 6.173
56.56000 2.554
56.58000 1.408
56.60000 2.482
56.62000 1.430
56.64000 2.232
56.66000 2.871
56.68000 4.943
56.70000 2.534
56.72000 0.584
56.74000 0.412
56.76000 -0.091
56.78000 -2.303
56.80000 1.375
56.82000 -0.102
56.84000 -1.326
56.86000 0.354
56.88000 2.144
56.90000 1.099
56.92000 2.934
56.94000 1.081
56.96000 0.794
56.98000 -0.846
57.00000 0.851
57.02000 3.909
57.04000 1.884
57.06000 0.352
57.08000 0.754
57.10000 -0.765
57.12000 1.862
57.14000 1.546
57.16000 1.827
57.18000 0.689
57.20000 1.601
57.22000 1.510
57.24000 2.096
57.26000 1.874
57.28000 0.571
57.30000 1.059
57.32000 2.272
57.34000 0.058
57.36000 -1.130
57.38000 2.798
57.40000 3.899
57.42000 3.890
57.44000 6.401
57.46000 3.742
57.48000 2.164
57.50000 1.082
57.52000 5.348
57.54000 5.374
57.56000 0.970
57.58000 0.014
57.60000 1.313
57.62000 5.634
57.64000 6.213
57.66000 5.048
57.68000 7.079
57.70000 4.531
57.72000 5.301
57.74000 3.851
57.76000 4.233
57.78000 3.230
57.80000 -0.032
57.82000 -1.255
57.84000 4.048
57.86000 6.070
57.88000 5.818
57.90000 3.124
57.92000 1.324
57.94000 4.081
57.96000 4.670
57.98000 1.850
58.00000 -2.439
58.02000 -0.542
58.04000 1.208
58.06000 1.746
58.08000 2.409
58.10000 5.524
58.12000 7.058
58.14000 3.604
58.16000 2.823
58.18000 4.290
58.20000 2.449
58.22000 0.105
58.24000 -0.770
58.26000 -0.667
58.28000 2.844
58.30000 4.987
58.32000 7.973
58.34000 3.063
58.36000 -0.394
58.38000 3.475
58.40000 3.198
58.42000 1.238
58.44000 0.712
58.46000 1.895
58.48000 0.570
58.50000 1.779
58.52000 1.446
58.54000 1.322
58.56000 2.450
58.58000 -0.138
58.60000 3.572
58.62000 3.687
58.64000 3.468
58.66000 2.524
58.68000 1.584
58.70000 -0.921
58.72000 1.111
58.74000 3.934
58.76000 1.518
58.78000 2.203
58.80000 1.732
58.82000 4.970
58.84000 2.644
58.86000 5.703
58.88000 2.539
58.90000 3.509
58.92000 -0.463
58.94000 -2.004
58.96000 2.242
58.98000 2.634
59.00000 4.089
59.02000 5.467
59.04000 0.459
59.06000 2.636
59.08000 0.854
59.10000 1.261
59.12000 3.261
59.14000 0.943
59.16000 -2.145
59.18000 -2.444
59.20000 -1.074
59.22000 2.205
59.24000 3.495
59.26000 -0.707
59.28000 0.240
59.30000 -0.351
59.32000 0.307
59.34000 3.138
59.36000 3.890
59.38000 3.426
59.40000 5.029
59.42000 0.657
59.44000 -0.269
59.46000 0.377
59.48000 1.468
59.50000 -0.537
59.52000 0.799
59.54000 1.908
59.56000 -1.058
59.58000 -2.239
59.60000 2.611
59.62000 -0.942
59.64000 3.519
59.66000 3.123
59.68000 1.767
59.70000 -1.207
59.72000 1.283
59.74000 6.316
59.76000 7.046
59.78000 3.930
59.80000 3.883
59.82000 7.439
59.84000 4.249
59.86000 4.023
59.88000 0.286
59.90000 2.702
59.92000 1.576
59.94000 5.484
59.96000 4.378
59.98000 -2.402
60.00000 1.954
60.02000 3.795
60.04000 4.879
60.06000 3.519
60.08000 0.767
60.10000 -0.470
60.12000 -0.945
60.14000 -2.145
60.16000 0.718
60.18000 -0.403
60.20000 -1.038
60.22000 -0.003
60.24000 1.371
60.26000 2.433
60.28000 3.754
60.30000 -2.277
60.32000 -0.678
60.34000 2.899
60.36000 4.785
60.38000 3.998
60.40000 5.168
60.42000 2.990
60.44000 1.253
60.46000 1.502
60.48000 0.002
60.50000 -1.312
60.52000 0.650
60.54000 -0.520
60.56000 0.798
60.58000 3.193
60.60000 2.032
60.62000 1.503
60.64000 1.520
60.66000 0.779
60.68000 1.502
60.70000 -0.852
60.72000 -1.895
60.74000 1.697
60.76000 4.116
60.78000 2.901
60.80000 -0.714
60.82000 -1.966
60.84000 3.379
60.86000 4.370
60.88000 0.624
60.90000 2.404
60.92000 2.787
60.94000 1.041
60.96000 0.546
60.98000 -1.025
61.00000 -1.724
61.02000 -0.836
61.04000 0.125
61.06000 3.170
61.08000 -1.508
61.10000 0.424
61.12000 3.883
61.14000 4.587
61.16000 2.299
61.18000 -0.221
61.20000 -2.386
61.22000 -0.295
61.24000 1.382
61.26000 -0.466
61.28000 1.540
61.30000 3.771
61.32000 1.805
61.34000 0.813
61.36000 1.299
61.38000 -0.093
61.40000 0.453
61.42000 1.762
61.44000 -0.812
61.46000 -0.333
61.48000 5.248
61.50000 5.475
61.52000 0.785
61.54000 1.412
61.56000 1.509
61.58000 0.599
61.60000 1.076
61.62000 -0.022
61.64000 -0.761
61.66000 1.918
61.68000 0.664
61.70000 1.459
61.72000 0.557
61.74000 -0.528
61.76000 -1.048
61.78000 1.769
61.80000 1.155
61.82000 0.059
61.84000 0.658
61.86000 3.263
61.88000 2.071
61.90000 4.985
61.92000 6.383
61.94000 2.228
61.96000 -2.319
61.98000 0.028
62.00000 2.813
62.02000 3.713
62.04000 2.862
62.06000 0.781
62.08000 2.190
62.10000 1.641
62.12000 0.985
62.14000 -0.775
62.16000 -2.352
62.18000 -0.776
62.20000 -0.541
62.22000 1.707
62.24000 4.200
62.26000 4.170
62.28000 2.934
62.30000 4.111
62.32000 3.904
62.34000 0.689
62.36000 0.224
62.38000 2.182
62.40000 0.947
62.42000 0.965
62.44000 3.194
62.46000 6.695
62.48000 5.118
62.50000 2.883
62.52000 1.440
62.54000 -0.716
62.56000 1.951
62.58000 3.696
62.60000 4.565
62.62000 1.739
62.64000 -1.357
62.66000 0.539
62.68000 3.688
62.70000 3.080
62.72000 1.843
62.74000 2.532
62.76000 3.375
62.78000 2.044
62.80000 1.150
62.82000 1.171
62.84000 0.742
62.86000 1.015
62.88000 1.033
62.90000 0.133
62.92000 0.799
62.94000 1.575
62.96000 -0.036
62.98000 -0.078
63.00000 1.192
63.02000 0.804
63.04000 -2.340
63.06000 2.105
63.08000 1.770
63.10000 0.506
63.12000 2.341
63.14000 1.294
63.16000 2.831
63.18000 1.803
63.20000 1.234
63.22000 4.376
63.24000 5.137
63.26000 5.868
63.28000 4.602
63.30000 4.457
63.32000 1.758
63.34000 1.126
63.36000 1.787
63.38000 1.844
63.40000 2.959
63.42000 0.452
63.44000 0.591
63.46000 -1.477
63.48000 1.765
63.50000 2.228
63.52000 1.107
63.54000 -1.182
63.56000 0.222
63.58000 0.503
63.60000 4.738
63.62000 1.458
63.64000 -1.238
63.66000 1.921
63.68000 5.069
63.70000 3.818
63.72000 2.478
63.74000 0.763
63.76000 -0.495
63.78000 0.751
63.80000 1.448
63.82000 0.338
63.84000 1.186
63.86000 -1.730
63.88000 -2.374
63.90000 -0.874
63.92000 -0.156
63.94000 0.647
63.96000 -0.138
63.98000 -1.305
64.00000 1.150
64.02000 0.097
64.04000 1.215
64.06000 -0.341
64.08000 -0.722
64.10000 -0.500
64.12000 4.120
64.14000 4.315
64.16000 1.661
64.18000 1.044
64.20000 2.509
64.22000 2.306
64.24000 -1.476
64.26000 -1.703
64.28000 -0.103
64.30000 0.740
64.32000 0.499
64.34000 0.862
64.36000 0.919
64.38000 -0.217
64.40000 -0.427
64.42000 0.104
64.44000 -0.098
64.46000 -2.379
64.48000 -0.572
64.50000 -2.096
64.52000 -0.593
64.54000 0.051
64.56000 -1.171
64.58000 -0.985
64.60000 -1.780
64.62000 3.267
64.64000 0.987
64.66000 1.273
64.68000 1.261
64.70000 -1.375
64.72000 -0.099
64.74000 0.885
64.76000 -0.329
64.78000 0.044
64.80000 1.010
64.82000 2.558
64.84000 1.767
64.86000 2.337
64.88000 1.627
64.90000 0.977
64.92000 -2.400
64.94000 0.565
64.96000 0.125
64.98000 0.094
65.00000 0.745
65.02000 3.310
65.04000 0.820
65.06000 0.016
65.08000 -2.238
65.10000 0.856
65.12000 1.877
65.14000 -1.622
65.16000 0.478
65.18000 -1.365
65.20000 1.156
65.22000 2.803
65.24000 1.416
65.26000 1.897
65.28000 0.373
65.30000 1.910
65.32000 1.386
65.34000 -2.090
65.36000 1.453
65.38000 1.167
65.40000 0.924
65.42000 -0.236
65.44000 1.702
65.46000 1.511
65.48000 -1.339
65.50000 -1.865
65.52000 -0.383
65.54000 -2.417
65.56000 -2.266
65.58000 3.397
65.60000 1.040
65.62000 1.081
65.64000 2.347
65.66000 1.716
65.68000 1.532
65.70000 -1.156
65.72000 -0.382
65.74000 2.608
65.76000 2.221
65.78000 2.917
65.80000 0.212
65.82000 2.123
65.84000 0.861
65.86000 0.540
65.88000 1.371
65.90000 -0.147
65.92000 -2.438
65.94000 -1.282
65.96000 -1.836
65.98000 0.361
66.00000 2.772
66.02000 2.415
66.04000 2.326
66.06000 0.728
66.08000 -0.412
66.10000 1.533
66.12000 0.237
66.14000 2.818
66.16000 4.770
66.18000 -0.889
66.20000 -1.313
66.22000 1.218
66.24000 0.630
66.26000 2.640
66.28000 0.663
66.30000 2.143
66.32000 0.069
66.34000 1.260
66.36000 2.716
66.38000 0.949
66.40000 -0.794
66.42000 -2.485
66.44000 -0.685
66.46000 4.078
66.48000 6.304
66.50000 0.710
66.52000 0.551
66.54000 0.358
66.56000 4.257
66.58000 1.169
66.60000 0.338
66.62000 4.531
66.64000 4.081
66.66000 4.764
66.68000 4.748
66.70000 3.772
66.72000 2.409
66.74000 0.994
66.76000 0.990
66.78000 1.440
66.80000 -0.264
66.82000 1.120
66.84000 2.942
66.86000 1.662
66.88000 4.961
66.90000 1.449
66.92000 4.069
66.94000 5.865
66.96000 6.490
66.98000 8.117
67.00000 8.521
67.02000 9.017
67.04000 8.984
67.06000 4.359
67.08000 4.950
67.10000 3.915
67.12000 3.328
67.14000 5.496
67.16000 7.705
67.18000 9.558
67.20000 10.072
67.22000 11.138
67.24000 11.651
67.26000 7.869
67.28000 8.095
67.30000 8.806
67.32000 8.578
67.34000 7.974
67.36000 12.169
67.38000 10.825
67.40000 6.885
67.42000 8.147
67.44000 11.295
67.46000 9.410
67.48000 11.923
67.50000 13.820
67.52000 13.902
67.54000 13.763
67.56000 15.387
67.58000 17.118
67.60000 16.571
67.62000 17.261
67.64000 16.082
67.66000 16.272
67.68000 19.944
67.70000 18.835
67.72000 18.276
67.74000 16.813
67.76000 16.505
67.78000 18.711
67.80000 15.488
67.82000 19.808
67.84000 21.624
67.86000 23.449
67.88000 22.939
67.90000 23.858
67.92000 26.832
67.94000 25.222
67.96000 24.338
67.98000 20.527
68.00000 17.293
68.02000 22.292
68.04000 22.243
68.06000 22.957
68.08000 22.388
68.10000 23.871
68.12000 21.829
68.14000 22.783
68.16000 23.192
68.18000 21.460
68.20000 18.417
68.22000 17.062
68.24000 16.870
68.26000 17.496
68.28000 16.482
68.30000 18.026
68.32000 22.584
68.34000 21.591
68.36000 23.342
68.38000 21.654
68.40000 17.271
68.42000 16.584
68.44000 20.334
68.46000 15.727
68.48000 17.356
68.50000 14.414
68.52000 12.441
68.54000 13.694
68.56000 13.732
68.58000 14.172
68.60000 14.756
68.62000 11.401
68.64000 11.600
68.66000 12.276
68.68000 13.297
68.70000 14.421
68.72000 10.189
68.74000 7.009
68.76000 6.903
68.78000 7.847
68.80000 5.195
68.82000 5.524
68.84000 5.222
68.86000 7.197
68.88000 5.943
68.90000 7.496
68.92000 5.483
68.94000 8.281
68.96000 6.380
68.98000 6.120
69.00000 3.848
69.02000 3.039
69.04000 4.221
69.06000 7.374
69.08000 5.177
69.10000 1.108
69.12000 5.411
69.14000 5.222
69.16000 4.293
69.18000 1.621
69.20000 1.757
69.22000 0.052
69.24000 4.314
69.26000 4.596
69.28000 0.181
69.30000 -0.672
69.32000 0.205
69.34000 3.525
69.36000 4.517
69.38000 1.252
69.40000 5.168
69.42000 2.441
69.44000 -0.705
69.46000 0.625
69.48000 -2.072
69.50000 2.941
69.52000 2.013
69.54000 5.924
69.56000 4.770
69.58000 3.150
69.60000 3.534
69.62000 3.742
69.64000 1.584
69.66000 -2.229
69.68000 -1.570
69.70000 1.047
69.72000 -0.400
69.74000 0.937
69.76000 2.155
69.78000 -2.321
69.80000 -2.320
69.82000 0.111
69.84000 3.293
69.86000 2.607
69.88000 -1.707
69.90000 1.475
69.92000 3.062
69.94000 2.838
69.96000 -0.047
69.98000 2.547
70.00000 1.256
70.02000 3.163
70.04000 1.436
70.06000 -0.087
70.08000 -0.426
70.10000 1.589
70.12000 3.275
70.14000 1.830
70.16000 -0.154
70.18000 -0.877
70.20000 -2.240
70.22000 0.997
70.24000 0.494
70.26000 -0.732
70.28000 -0.342
70.30000 3.301
70.32000 2.293
70.34000 3.200
70.36000 2.218
70.38000 0.106
70.40000 -0.086
70.42000 -0.365
70.44000 0.313
70.46000 -2.282
70.48000 -1.526
70.50000 -0.094
70.52000 3.235
70.54000 1.470
70.56000 1.925
70.58000 0.039
70.60000 1.562
70.62000 -0.568
70.64000 -2.257
70.66000 1.953
70.68000 3.247
70.70000 0.807
70.72000 -1.475
70.74000 1.930
70.76000 0.585
70.78000 3.421
70.80000 2.204
70.82000 3.855
70.84000 2.674
70.86000 1.202
70.88000 -0.177
70.90000 0.257
70.92000 1.598
70.94000 3.011
70.96000 0.309
70.98000 -0.933
71.00000 -0.193
71.02000 -0.309
71.04000 4.156
71.06000 5.045
71.08000 0.531
71.10000 -1.031
71.12000 -0.726
71.14000 2.781
71.16000 4.399
71.18000 3.013
71.20000 -1.498
71.22000 -0.805
71.24000 -0.538
71.26000 3.326
71.28000 5.761
71.30000 7.014
71.32000 7.264
71.34000 4.825
71.36000 3.068
71.38000 4.763
71.40000 7.531
71.42000 5.059
71.44000 3.746
71.46000 2.269
71.48000 2.463
71.50000 4.257
71.52000 3.742
71.54000 4.391
71.56000 5.728
71.58000 3.539
71.60000 3.158
71.62000 1.304
71.64000 5.412
71.66000 4.845
71.68000 5.274
71.70000 6.045
71.72000 4.694
71.74000 3.637
71.76000 0.081
71.78000 -2.195
71.80000 6.223
71.82000 6.989
71.84000 2.827
71.86000 5.627
71.88000 5.967
71.90000 4.657
71.92000 4.421
71.94000 -1.028
71.96000 0.630
71.98000 3.681
72.00000 3.733
72.02000 3.661
72.04000 5.821
72.06000 5.750
72.08000 1.712
72.10000 4.763
72.12000 2.378
72.14000 7.884
72.16000 5.018
72.18000 1.513
72.20000 -1.903
72.22000 3.339
72.24000 1.358
72.26000 0.489
72.28000 0.137
72.30000 1.384
72.32000 1.741
72.34000 0.631
72.36000 2.923
72.38000 6.005
72.40000 8.366
72.42000 6.404
72.44000 3.762
72.46000 3.441
72.48000 2.691
72.50000 5.429
72.52000 4.433
72.54000 4.924
72.56000 5.322
72.58000 1.125
72.60000 0.232
72.62000 0.473
72.64000 3.958
72.66000 6.396
72.68000 4.978
72.70000 3.449
72.72000 4.588
72.74000 5.119
72.76000 3.928
72.78000 4.876
72.80000 5.373
72.82000 2.616
72.84000 3.033
72.86000 5.734
72.88000 5.455
72.90000 5.085
72.92000 1.861
72.94000 -2.179
72.96000 -1.588
72.98000 1.351
73.00000 1.258
73.02000 -0.086
73.04000 1.496
73.06000 3.743
73.08000 2.959
73.10000 2.392
73.12000 6.021
73.14000 6.266
73.16000 3.524
73.18000 1.745
73.20000 2.950
73.22000 3.751
73.24000 2.222
73.26000 4.336
73.28000 5.040
73.30000 2.462
73.32000 0.325
73.34000 3.434
73.36000 6.257
73.38000 0.941
73.40000 -0.090
73.42000 1.987
73.44000 1.804
73.46000 4.972
73.48000 5.367
73.50000 0.456
73.52000 -1.482
73.54000 -2.209
73.56000 -1.323
73.58000 -0.629
73.60000 3.386
73.62000 1.269
73.64000 2.474
73.66000 4.125
73.68000 1.458
73.70000 1.147
73.72000 0.533
73.74000 2.330
73.76000 0.056
73.78000 -0.339
73.80000 0.413
73.82000 0.248
73.84000 -1.991
73.86000 1.318
73.88000 0.488
73.90000 3.807
73.92000 3.542
73.94000 -1.787
73.96000 -2.214
73.98000 -0.216
74.00000 1.480
74.02000 1.126
74.04000 0.589
74.06000 3.029
74.08000 2.164
74.10000 1.888
74.12000 0.219
74.14000 -2.001
74.16000 -2.216
74.18000 1.605
74.20000 4.490
74.22000 2.554
74.24000 4.370
74.26000 1.342
74.28000 3.720
74.30000 3.222
74.32000 2.422
74.34000 2.096
74.36000 1.579
74.38000 1.219
74.40000 1.657
74.42000 2.483
74.44000 -0.350
74.46000 1.928
74.48000 4.052
74.50000 2.249
74.52000 -1.471
74.54000 -1.207
74.56000 2.717
74.58000 3.208
74.60000 1.570
74.62000 2.393
74.64000 1.100
74.66000 1.700
74.68000 5.126
74.70000 5.678
74.72000 6.203
74.74000 2.060
74.76000 1.118
74.78000 2.508
74.80000 -0.584
74.82000 -0.108
74.84000 2.119
74.86000 2.827
74.88000 3.958
74.90000 -1.856
74.92000 0.647
74.94000 1.479
74.96000 -1.137
74.98000 -0.779
75.00000 1.589
75.02000 -0.691
75.04000 2.392
75.06000 2.104
75.08000 0.437
75.10000 1.469
75.12000 1.337
75.14000 1.068
75.16000 2.826
75.18000 2.658
75.20000 1.932
75.22000 1.054
75.24000 -2.193
75.26000 1.674
75.28000 3.411
75.30000 6.525
75.32000 2.963
75.34000 -1.310
75.36000 1.526
75.38000 3.683
75.40000 3.055
75.42000 -0.032
75.44000 -1.444
75.46000 1.766
75.48000 2.792
75.50000 3.744
75.52000 0.432
75.54000 -1.887
75.56000 3.392
75.58000 2.267
75.60000 1.964
75.62000 3.512
75.64000 4.950
75.66000 2.735
75.68000 -2.192
75.70000 -0.631
75.72000 2.859
75.74000 3.833
75.76000 4.185
75.78000 -0.081
75.80000 1.106
75.82000 2.410
75.84000 1.784
75.86000 -0.225
75.88000 3.829
75.90000 5.982
75.92000 5.394
75.94000 2.901
75.96000 0.258
75.98000 2.443
76.00000 1.309
76.02000 5.901
76.04000 6.639
76.06000 3.818
76.08000 4.476
76.10000 2.820
76.12000 2.794
76.14000 3.663
76.16000 2.214
76.18000 2.605
76.20000 3.792
76.22000 3.535
76.24000 5.257
76.26000 2.362
76.28000 3.342
76.30000 3.484
76.32000 5.202
76.34000 1.226
76.36000 4.445
76.38000 3.753
76.40000 4.883
76.42000 4.225
76.44000 5.815
76.46000 5.761
76.48000 3.457
76.50000 -1.186
76.52000 2.867
76.54000 4.341
76.56000 7.790
76.58000 8.569
76.60000 4.095
76.62000 1.640
76.64000 3.010
76.66000 -0.064
76.68000 -1.604
76.70000 3.354
76.72000 4.221
76.74000 8.329
76.76000 6.315
76.78000 5.581
76.80000 1.626
76.82000 6.203
76.84000 5.760
76.86000 9.560
76.88000 4.757
76.90000 7.684
76.92000 5.327
76.94000 5.973
76.96000 6.589
76.98000 7.739
77.00000 9.779
77.02000 10.053
77.04000 7.500
77.06000 3.944
77.08000 4.814
77.10000 5.792
77.12000 -0.309
77.14000 -2.131
77.16000 0.050
77.18000 5.799
77.20000 5.043
77.22000 2.046
77.24000 7.025
77.26000 6.605
77.28000 2.504
77.30000 7.082
77.32000 10.395
77.34000 7.738
77.36000 3.528
77.38000 4.539
77.40000 2.358
77.42000 1.680
77.44000 2.164
77.46000 2.694
77.48000 3.714
77.50000 5.401
77.52000 3.380
77.54000 4.129
77.56000 7.775
77.58000 4.257
77.60000 2.234
77.62000 2.934
77.64000 7.002
77.66000 5.513
77.68000 5.831
77.70000 5.349
77.72000 6.381
77.74000 8.677
77.76000 0.568
77.78000 -1.152
77.80000 -2.209
77.82000 2.325
77.84000 2.470
77.86000 2.211
77.88000 -0.311
77.90000 3.347
77.92000 5.108
77.94000 1.748
77.96000 -0.915
77.98000 2.661
78.00000 5.531
78.02000 6.362
78.04000 1.782
78.06000 3.938
78.08000 2.156
78.10000 5.320
78.12000 8.827
78.14000 7.025
78.16000 3.047
78.18000 3.245
78.20000 8.192
78.22000 5.229
78.24000 3.472
78.26000 3.347
78.28000 2.763
78.30000 -1.139
78.32000 2.593
78.34000 3.028
78.36000 3.169
78.38000 6.051
78.40000 6.687
78.42000 3.284
78.44000 4.496
78.46000 3.853
78.48000 2.402
78.50000 -0.410
78.52000 0.544
78.54000 2.245
78.56000 2.122
78.58000 2.826
78.60000 -0.265
78.62000 2.625
78.64000 0.528
78.66000 3.052
78.68000 4.778
78.70000 3.653
78.72000 1.735
78.74000 -0.443
78.76000 -0.537
78.78000 2.229
78.80000 1.434
78.82000 2.077
78.84000 2.836
78.86000 5.893
78.88000 6.747
78.90000 2.567
78.92000 -0.768
78.94000 2.887
78.96000 0.867
78.98000 -0.557
79.00000 0.707
79.02000 3.020
79.04000 4.013
79.06000 0.683
79.08000 2.142
79.10000 0.933
79.12000 0.993
79.14000 1.612
79.16000 3.731
79.18000 3.843
79.20000 -2.298
79.22000 -0.950
79.24000 1.624
79.26000 0.684
79.28000 3.421
79.30000 2.803
79.32000 1.876
79.34000 2.482
79.36000 3.572
79.38000 -0.662
79.40000 0.490
79.42000 2.610
79.44000 3.611
79.46000 5.944
79.48000 2.471
79.50000 1.313
79.52000 4.722
79.54000 2.438
79.56000 0.645
79.58000 -0.690
79.60000 3.049
79.62000 3.169
79.64000 2.791
79.66000 6.067
79.68000 0.451
79.70000 -0.602
79.72000 2.812
79.74000 0.024
79.76000 -0.766
79.78000 2.684
79.80000 -1.005
79.82000 -2.255
79.84000 1.054
79.86000 -0.499
79.88000 -2.263
79.90000 -2.381
79.92000 -1.764
79.94000 2.471
79.96000 2.115
79.98000 0.886
80.00000 -0.526
80.02000 1.861
80.04000 0.269
80.06000 2.833
80.08000 3.846
80.10000 0.486
80.12000 0.329
80.14000 4.058
80.16000 4.604
80.18000 1.046
80.20000 2.205
80.22000 7.458
80.24000 4.423
80.26000 2.123
80.28000 2.720
80.30000 3.557
80.32000 2.094
80.34000 4.180
80.36000 5.185
80.38000 6.855
80.40000 7.480
80.42000 1.919
80.44000 -2.432
80.46000 -0.363
80.48000 3.908
80.50000 3.925
80.52000 2.748
80.54000 8.117
80.56000 10.122
80.58000 5.520
80.60000 4.373
80.62000 4.810
80.64000 2.707
80.66000 2.849
80.68000 8.208
80.70000 4.451
80.72000 4.856
80.74000 6.976
80.76000 7.708
80.78000 5.769
80.80000 5.727
80.82000 7.885
80.84000 11.844
80.86000 9.065
80.88000 6.410
80.90000 6.934
80.92000 7.822
80.94000 12.224
80.96000 10.607
80.98000 6.784
81.00000 7.735
81.02000 7.978
81.04000 10.666
81.06000 8.676
81.08000 8.995
81.10000 14.977
81.12000 13.815
81.14000 10.601
81.16000 8.234
81.18000 11.250
81.20000 12.786
81.22000 11.629
81.24000 14.671
81.26000 19.731
81.28000 18.813
81.30000 15.975
81.32000 11.924
81.34000 14.104
81.36000 14.635
81.38000 15.342
81.40000 16.574
81.42000 15.195
81.44000 16.561
81.46000 16.915
81.48000 16.696
81.50000 18.459
81.52000 17.392
81.54000 19.804
81.56000 21.800
81.58000 25.035
81.60000 23.890
81.62000 20.028
81.64000 24.710
81.66000 28.677
81.68000 25.242
81.70000 21.936
81.72000 20.611
81.74000 21.697
81.76000 19.535
81.78000 23.146
81.80000 25.473
81.82000 27.338
81.84000 30.187
81.86000 27.260
81.88000 28.792
81.90000 29.916
81.92000 26.256
81.94000 29.526
81.96000 32.028
81.98000 34.328
82.00000 34.294
82.02000 30.423
82.04000 29.063
82.06000 27.787
82.08000 32.510
82.10000 31.842
82.12000 26.379
82.14000 34.458
82.16000 31.608
82.18000 30.810
82.20000 30.935
82.22000 33.521
82.24000 35.745
82.26000 35.102
82.28000 32.362
82.30000 26.999
82.32000 29.639
82.34000 31.992
82.36000 30.602
82.38000 31.949
82.40000 26.651
82.42000 25.192
82.44000 25.697
82.46000 30.652
82.48000 22.511
82.50000 20.711
82.52000 18.665
82.54000 21.596
82.56000 21.109
82.58000 20.934
82.60000 22.108
82.62000 24.233
82.64000 18.603
82.66000 19.943
82.68000 20.227
82.70000 17.174
82.72000 13.575
82.74000 13.446
82.76000 13.479
82.78000 13.931
82.80000 12.493
82.82000 11.361
82.84000 7.437
82.86000 9.657
82.88000 12.275
82.90000 11.278
82.92000 11.532
82.94000 7.869
82.96000 6.274
82.98000 6.653
83.00000 9.778
83.02000 13.260
83.04000 12.703
83.06000 10.295
83.08000 7.683
83.10000 10.375
83.12000 8.867
83.14000 6.028
83.16000 8.870
83.18000 6.294
83.20000 8.171
83.22000 9.274
83.24000 7.758
83.26000 4.948
83.28000 3.974
83.30000 4.563
83.32000 0.164
83.34000 -0.005
83.36000 1.957
83.38000 0.615
83.40000 5.446
83.42000 5.072
83.44000 3.532
83.46000 1.523
83.48000 0.924
83.50000 2.019
83.52000 1.999
83.54000 1.415
83.56000 1.878
83.58000 2.417
83.60000 2.539
83.62000 3.737
83.64000 4.412
83.66000 4.495
83.68000 6.623
83.70000 2.071
83.72000 1.636
83.74000 3.239
83.76000 3.310
83.78000 2.366
83.80000 3.213
83.82000 0.261
83.84000 0.828
83.86000 -0.295
83.88000 -0.024
83.90000 -2.372
83.92000 -0.544
83.94000 2.932
83.96000 0.191
83.98000 0.994
84.00000 3.084
84.02000 3.875
84.04000 4.214
84.06000 2.443
84.08000 3.543
84.10000 3.532
84.12000 3.814
84.14000 1.440
84.16000 3.215
84.18000 0.811
84.20000 -1.397
84.22000 -2.359
84.24000 -1.509
84.26000 2.438
84.28000 0.838
84.30000 0.018
84.32000 -2.361
84.34000 0.003
84.36000 0.584
84.38000 3.757
84.40000 4.931
84.42000 2.007
84.44000 0.082
84.46000 1.144
84.48000 -1.354
84.50000 1.145
84.52000 -1.277
84.54000 -2.082
84.56000 -0.675
84.58000 1.073
84.60000 4.272
84.62000 -0.215
84.64000 -2.387
84.66000 1.642
84.68000 2.361
84.70000 3.763
84.72000 3.188
84.74000 1.373
84.76000 -0.529
84.78000 1.187
84.80000 7.639
84.82000 4.696
84.84000 -0.053
84.86000 0.628
84.88000 4.869
84.90000 1.281
84.92000 5.464
84.94000 1.817
84.96000 1.111
84.98000 0.003
85.00000 -0.041
85.02000 0.644
85.04000 1.774
85.06000 8.971
85.08000 7.691
85.10000 7.410
85.12000 3.951
85.14000 5.697
85.16000 3.230
85.18000 6.057
85.20000 6.828
85.22000 8.972
85.24000 11.379
85.26000 10.584
85.28000 8.657
85.30000 6.147
85.32000 4.081
85.34000 7.177
85.36000 7.264
85.38000 9.171
85.40000 9.744
85.42000 11.141
85.44000 9.258
85.46000 8.648
85.48000 12.886
85.50000 12.910
85.52000 11.391
85.54000 13.598
85.56000 10.369
85.58000 8.762
85.60000 10.827
85.62000 13.184
85.64000 14.200
85.66000 13.882
85.68000 16.453
85.70000 13.941
85.72000 12.854
85.74000 12.395
85.76000 13.731
85.78000 20.170
85.80000 20.187
85.82000 19.570
85.84000 23.818
85.86000 21.214
85.88000 21.533
85.90000 23.609
85.92000 24.597
85.94000 24.804
85.96000 23.902
85.98000 29.115
86.00000 26.442
86.02000 22.974
86.04000 24.192
86.06000 23.571
86.08000 28.676
86.10000 27.149
86.12000 32.268
86.14000 34.940
86.16000 28.047
86.18000 27.815
86.20000 29.176
86.22000 29.886
86.24000 30.860
86.26000 28.842
86.28000 30.581
86.30000 31.369
86.32000 32.538
86.34000 25.494
86.36000 24.515
86.38000 26.439
86.40000 22.746
86.42000 20.826
86.44000 20.439
86.46000 21.856
86.48000 20.604
86.50000 25.768
86.52000 24.123
86.54000 20.273
86.56000 18.888
86.58000 19.479
86.60000 17.527
86.62000 20.414
86.64000 19.105
86.66000 13.459
86.68000 14.471
86.70000 14.265
86.72000 14.893
86.74000 15.202
86.76000 13.899
86.78000 15.042
86.80000 16.534
86.82000 14.267
86.84000 10.536
86.86000 14.940
86.88000 17.325
86.90000 13.754
86.92000 13.522
86.94000 13.662
86.96000 14.241
86.98000 9.440
87.00000 10.336
87.02000 5.191
87.04000 6.669
87.06000 6.385
87.08000 8.674
87.10000 7.303
87.12000 6.255
87.14000 7.621
87.16000 7.507
87.18000 5.790
87.20000 3.677
87.22000 6.512
87.24000 5.921
87.26000 2.478
87.28000 9.549
87.30000 4.703
87.32000 4.118
87.34000 4.693
87.36000 3.419
87.38000 3.663
87.40000 1.321
87.42000 -1.999
87.44000 1.006
87.46000 3.872
87.48000 5.346
87.50000 7.847
87.52000 7.926
87.54000 6.397
87.56000 4.658
87.58000 2.038
87.60000 0.802
87.62000 1.885
87.64000 0.997
87.66000 -2.220
87.68000 0.945
87.70000 2.575
87.72000 1.762
87.74000 1.138
87.76000 -1.538
87.78000 2.562
87.80000 4.733
87.82000 1.508
87.84000 1.835
87.86000 6.985
87.88000 7.114
87.90000 3.764
87.92000 6.437
87.94000 2.460
87.96000 3.451
87.98000 6.249
88.00000 2.755
88.02000 3.791
88.04000 5.146
88.06000 0.343
88.08000 1.615
88.10000 3.368
88.12000 3.013
88.14000 0.815
88.16000 -2.149
88.18000 0.277
88.20000 3.013
88.22000 4.176
88.24000 1.154
88.26000 -1.569
88.28000 2.844
88.30000 3.191
88.32000 -1.368
88.34000 -2.148
88.36000 4.573
88.38000 4.169
88.40000 3.949
88.42000 2.147
88.44000 2.052
88.46000 2.697
88.48000 -0.714
88.50000 0.455
88.52000 1.349
88.54000 0.016
88.56000 2.404
88.58000 1.593
88.60000 -0.172
88.62000 -2.128
88.64000 0.502
88.66000 3.577
88.68000 6.894
88.70000 5.533
88.72000 0.282
88.74000 -1.566
88.76000 -0.194
88.78000 2.352
88.80000 1.461
88.82000 4.536
88.84000 5.103
88.86000 5.050
88.88000 6.245
88.90000 4.233
88.92000 -0.652
88.94000 -0.394
88.96000 -1.577
88.98000 1.091
89.00000 5.534
89.02000 5.904
89.04000 1.790
89.06000 0.945
89.08000 -0.255
89.10000 0.187
89.12000 -2.116
89.14000 0.992
89.16000 2.779
89.18000 0.866
89.20000 -0.472
89.22000 2.757
89.24000 3.594
89.26000 2.778
89.28000 3.150
89.30000 4.067
89.32000 3.831
89.34000 -0.017
89.36000 -1.331
89.38000 3.314
89.40000 3.495
89.42000 2.814
89.44000 -0.728
89.46000 -1.308
89.48000 0.540
89.50000 0.224
89.52000 2.018
89.54000 -2.086
89.56000 -0.297
89.58000 2.496
89.60000 1.349
89.62000 0.210
89.64000 5.144
89.66000 7.939
89.68000 1.954
89.70000 1.035
89.72000 1.533
89.74000 0.592
89.76000 2.813
89.78000 5.305
89.80000 2.840
89.82000 2.927
89.84000 2.171
89.86000 3.397
89.88000 2.945
89.90000 2.713
89.92000 1.733
89.94000 0.502
89.96000 2.399
89.98000 5.951
90.00000 7.736
90.02000 4.229
90.04000 -0.242
90.06000 3.696
90.08000 7.420
90.10000 6.530
90.12000 3.777
90.14000 1.581
90.16000 2.413
90.18000 2.355
90.20000 6.174
90.22000 4.624
90.24000 2.782
90.26000 3.339
90.28000 5.060
90.30000 4.463
90.32000 5.610
90.34000 1.935
90.36000 -2.026
90.38000 0.205
90.40000 4.019
90.42000 7.014
90.44000 6.241
90.46000 4.240
90.48000 4.838
90.50000 3.951
90.52000 4.435
90.54000 4.957
90.56000 2.192
90.58000 6.449
90.60000 8.129
90.62000 2.674
90.64000 4.748
90.66000 2.973
90.68000 2.014
90.70000 5.523
90.72000 4.781
90.74000 4.882
90.76000 4.664
90.78000 8.934
90.80000 7.715
90.82000 4.296
90.84000 2.391
90.86000 6.253
90.88000 5.360
90.90000 4.819
90.92000 3.534
90.94000 7.034
90.96000 5.039
90.98000 3.325
91.00000 4.044
91.02000 4.682
91.04000 3.422
91.06000 1.282
91.08000 -0.437
91.10000 1.115
91.12000 3.856
91.14000 7.020
91.16000 9.008
91.18000 10.200
91.20000 4.729
91.22000 7.129
91.24000 3.941
91.26000 1.069
91.28000 2.822
91.30000 5.939
91.32000 5.712
91.34000 3.833
91.36000 4.671
91.38000 1.724
91.40000 2.637
91.42000 2.725
91.44000 6.466
91.46000 3.463
91.48000 -2.043
91.50000 -0.694
91.52000 2.033
91.54000 4.734
91.56000 6.246
91.58000 4.907
91.60000 2.451
91.62000 0.564
91.64000 0.189
91.66000 5.752
91.68000 6.001
91.70000 7.897
91.72000 3.177
91.74000 1.814
91.76000 1.215
91.78000 0.681
91.80000 -0.719
91.82000 0.849
91.84000 3.348
91.86000 2.600
91.88000 3.342
91.90000 5.766
91.92000 0.901
91.94000 -0.873
91.96000 1.423
91.98000 2.456
92.00000 5.551
92.02000 2.780
92.04000 3.183
92.06000 5.556
92.08000 4.500
92.10000 0.908
92.12000 5.253
92.14000 2.200
92.16000 5.455
92.18000 -0.051
92.20000 -0.487
92.22000 3.348
92.24000 10.804
92.26000 7.026
92.28000 -0.271
92.30000 -0.963
92.32000 3.329
92.34000 4.730
92.36000 2.827
92.38000 3.125
92.40000 5.753
92.42000 6.724
92.44000 5.420
92.46000 3.158
92.48000 4.981
92.50000 1.215
92.52000 -1.864
92.54000 -1.259
92.56000 2.191
92.58000 2.480
92.60000 1.783
92.62000 -0.188
92.64000 0.707
92.66000 -0.550
92.68000 -1.891
92.70000 2.878
92.72000 5.246
92.74000 4.928
92.76000 2.968
92.78000 2.621
92.80000 6.543
92.82000 6.159
92.84000 1.178
92.86000 4.110
92.88000 4.171
92.90000 7.774
92.92000 2.860
92.94000 2.617
92.96000 4.341
92.98000 4.531
93.00000 2.734
93.02000 4.489
93.04000 3.376
93.06000 0.341
93.08000 6.436
93.10000 6.855
93.12000 2.330
93.14000 1.148
93.16000 4.312
93.18000 4.394
93.20000 -2.049
93.22000 0.081
93.24000 0.770
93.26000 3.385
93.28000 4.642
93.30000 2.681
93.32000 3.585
93.34000 2.304
93.36000 0.738
93.38000 -0.431
93.40000 -0.358
93.42000 2.076
93.44000 6.032
93.46000 5.143
93.48000 8.515
93.50000 1.831
93.52000 0.357
93.54000 3.075
93.56000 4.581
93.58000 3.384
93.60000 1.738
93.62000 6.963
93.64000 6.975
93.66000 6.714
93.68000 7.937
93.70000 10.412
93.72000 7.784
93.74000 0.364
93.76000 2.117
93.78000 4.177
93.80000 6.559
93.82000 3.148
93.84000 -2.074
93.86000 2.187
93.88000 1.568
93.90000 -0.254
93.92000 -0.361
93.94000 -1.490
93.96000 6.455
93.98000 4.967
94.00000 2.276
94.02000 5.013
94.04000 3.391
94.06000 8.734
94.08000 7.081
94.10000 5.100
94.12000 7.875
94.14000 5.536
94.16000 2.746
94.18000 0.132
94.20000 2.067
94.22000 6.282
94.24000 3.593
94.26000 6.005
94.28000 6.269
94.30000 3.434
94.32000 1.822
94.34000 -1.270
94.36000 0.990
94.38000 8.691
94.40000 5.284
94.42000 5.435
94.44000 -2.069
94.46000 0.054
94.48000 3.614
94.50000 5.957
94.52000 1.280
94.54000 5.647
94.56000 6.974
94.58000 5.113
94.60000 2.211
94.62000 5.333
94.64000 5.547
94.66000 5.113
94.68000 4.036
94.70000 4.593
94.72000 5.334
94.74000 2.803
94.76000 4.821
94.78000 2.252
94.80000 1.958
94.82000 2.628
94.84000 5.933
94.86000 1.212
94.88000 5.113
94.90000 4.424
94.92000 3.750
94.94000 4.227
94.96000 7.174
94.98000 7.463
95.00000 3.588
95.02000 2.528
95.04000 3.854
95.06000 4.463
95.08000 3.649
95.10000 0.587
95.12000 2.852
95.14000 4.136
95.16000 0.640
95.18000 3.702
95.20000 9.973
95.22000 10.554
95.24000 3.108
95.26000 2.336
95.28000 0.073
95.30000 -0.532
95.32000 3.249
95.34000 1.891
95.36000 1.622
95.38000 3.522
95.40000 3.592
95.42000 3.690
95.44000 3.224
95.46000 -0.436
95.48000 -2.044
95.50000 1.738
95.52000 2.227
95.54000 3.208
95.56000 3.256
95.58000 -1.442
95.60000 2.640
95.62000 8.156
95.64000 6.275
95.66000 2.154
95.68000 -2.112
95.70000 1.905
95.72000 2.489
95.74000 1.443
95.76000 0.672
95.78000 2.448
95.80000 1.265
95.82000 3.670
95.84000 2.199
95.86000 2.230
95.88000 9.987
95.90000 4.405
95.92000 -0.915
95.94000 -1.914
95.96000 0.512
95.98000 1.646
96.00000 0.331
96.02000 4.076
96.04000 7.575
96.06000 3.091
96.08000 0.664
96.10000 0.387
96.12000 8.160
96.14000 7.015
96.16000 4.795
96.18000 -1.766
96.20000 4.943
96.22000 7.143
96.24000 1.679
96.26000 1.730
96.28000 4.234
96.30000 -0.476
96.32000 4.917
96.34000 5.461
96.36000 5.733
96.38000 3.476
96.40000 3.223
96.42000 0.326
96.44000 -2.030
96.46000 1.281
96.48000 -1.408
96.50000 -0.499
96.52000 5.985
96.54000 6.119
96.56000 7.025
96.58000 0.295
96.60000 3.091
96.62000 6.219
96.64000 3.892
96.66000 2.534
96.68000 1.655
96.70000 2.343
96.72000 -1.970
96.74000 -2.064
96.76000 1.303
96.78000 8.378
96.80000 6.925
96.82000 3.555
96.84000 2.597
96.86000 0.704
96.88000 3.525
96.90000 7.409
96.92000 10.151
96.94000 5.827
96.96000 7.039
96.98000 6.381
97.00000 9.868
97.02000 4.437
97.04000 6.422
97.06000 10.592
97.08000 7.935
97.10000 4.765
97.12000 1.280
97.14000 -1.374
97.16000 2.780
97.18000 3.871
97.20000 8.453
97.22000 3.846
97.24000 1.336
97.26000 3.837
97.28000 -2.037
97.30000 3.342
97.32000 6.902
97.34000 1.778
97.36000 4.505
97.38000 7.454
97.40000 9.378
97.42000 6.212
97.44000 5.624
97.46000 9.117
97.48000 8.480
97.50000 -0.223
97.52000 4.405
97.54000 8.695
97.56000 4.192
97.58000 6.093
97.60000 9.030
97.62000 1.465
97.64000 2.911
97.66000 5.537
97.68000 3.282
97.70000 1.291
97.72000 4.443
97.74000 4.485
97.76000 4.105
97.78000 1.056
97.80000 -1.361
97.82000 0.152
97.84000 -1.646
97.86000 3.851
97.88000 8.543
97.90000 6.462
97.92000 4.743
97.94000 9.038
97.96000 3.774
97.98000 -2.285
98.00000 6.623
98.02000 8.671
98.04000 3.806
98.06000 5.541
98.08000 1.604
98.10000 9.335
98.12000 4.088
98.14000 5.808
98.16000 9.177
98.18000 7.979
98.20000 8.482
98.22000 8.815
98.24000 -1.164
98.26000 1.579
98.28000 4.907
98.30000 10.025
98.32000 6.791
98.34000 9.512
98.36000 10.727
98.38000 5.769
98.40000 10.304
98.42000 13.819
98.44000 5.749
98.46000 4.792
98.48000 10.505
98.50000 6.937
98.52000 7.222
98.54000 2.531
98.56000 3.517
98.58000 0.357
98.60000 5.398
98.62000 7.369
98.64000 5.589
98.66000 1.821
98.68000 9.241
98.70000 7.419
98.72000 8.587
98.74000 6.188
98.76000 1.593
98.78000 4.383
98.80000 9.158
98.82000 6.775
98.84000 0.207
98.86000 6.389
98.88000 7.460
98.90000 6.568
98.92000 7.297
98.94000 10.104
98.96000 11.233
98.98000 5.929
99.00000 3.595
99.02000 5.051
99.04000 4.530
99.06000 6.594
99.08000 13.251
99.10000 14.053
99.12000 8.267
99.14000 4.391
99.16000 4.064
99.18000 11.632
99.20000 10.635
99.22000 10.312
99.24000 14.751
99.26000 9.533
99.28000 3.969
99.30000 8.876
99.32000 19.285
99.34000 14.762
99.36000 8.972
99.38000 -1.923
99.40000 -1.761
99.42000 3.820
99.44000 15.593
99.46000 8.857
99.48000 6.791
99.50000 2.022
99.52000 -0.138
99.54000 3.098
99.56000 12.810
99.58000 10.731
99.60000 16.913
99.62000 9.322
99.64000 0.873
99.66000 -0.930
99.68000 6.913
99.70000 11.508
99.72000 11.946
99.74000 13.047
99.76000 2.610
99.78000 8.444
99.80000 16.621
99.82000 13.197
99.84000 7.486
99.86000 -3.501
99.88000 2.582
99.90000 0.018
99.92000 -1.743
99.94000 -2.100
99.96000 4.855
99.98000 0.000
