'Id: "0011389" Comment: "Integrate frame 0011389_Au-Ir-Rh_Au-Rich_XRD_Mapping-229-0000.gfrmwith cursor Wedge Cursor #5" Operator: "B?rgel" Anode: "Cu" Wavelength: "1.5406" Scantype: "2Theta (TwoTheta)" TimePerStep: "1" X: "-4.5" Y: "13.5" Z: "5.95" 
10.00000 0.000
10.02000 11.533
10.04000 -2.046
10.06000 -0.531
10.08000 -4.294
10.10000 -0.712
10.12000 5.266
10.14000 -1.663
10.16000 -2.299
10.18000 -0.540
10.20000 2.994
10.22000 -0.384
10.24000 -4.226
10.26000 10.671
10.28000 10.161
10.30000 3.661
10.32000 18.186
10.34000 13.774
10.36000 27.813
10.38000 31.604
10.40000 7.914
10.42000 11.352
10.44000 26.186
10.46000 34.953
10.48000 16.809
10.50000 12.588
10.52000 6.599
10.54000 -1.802
10.56000 6.400
10.58000 11.226
10.60000 27.215
10.62000 18.231
10.64000 13.420
10.66000 18.754
10.68000 11.555
10.70000 11.356
10.72000 19.774
10.74000 21.439
10.76000 14.130
10.78000 15.044
10.80000 14.875
10.82000 15.166
10.84000 14.107
10.86000 6.708
10.88000 5.226
10.90000 14.578
10.92000 22.093
10.94000 24.406
10.96000 31.845
10.98000 20.029
11.00000 18.375
11.02000 13.188
11.04000 11.100
11.06000 1.806
11.08000 7.999
11.10000 9.403
11.12000 24.252
11.14000 23.820
11.16000 11.976
11.18000 6.771
11.20000 9.930
11.22000 1.152
11.24000 5.467
11.26000 5.599
11.28000 12.633
11.30000 8.591
11.32000 4.358
11.34000 7.792
11.36000 3.896
11.38000 3.146
11.40000 2.534
11.42000 6.721
11.44000 17.842
11.46000 15.668
11.48000 8.910
11.50000 10.624
11.52000 11.140
11.54000 12.810
11.56000 22.731
11.58000 25.098
11.60000 25.734
11.62000 11.343
11.64000 11.421
11.66000 9.100
11.68000 12.730
11.70000 12.789
11.72000 17.558
11.74000 21.064
11.76000 10.431
11.78000 10.801
11.80000 18.352
11.82000 15.809
11.84000 6.889
11.86000 9.809
11.88000 16.597
11.90000 8.204
11.92000 7.636
11.94000 5.301
11.96000 17.111
11.98000 5.558
12.00000 1.250
12.02000 -4.395
12.04000 11.374
12.06000 18.041
12.08000 28.922
12.10000 31.281
12.12000 18.444
12.14000 13.574
12.16000 11.491
12.18000 10.356
12.20000 1.668
12.22000 3.421
12.24000 10.921
12.26000 13.400
12.28000 18.592
12.30000 14.264
12.32000 9.576
12.34000 1.710
12.36000 5.819
12.38000 5.547
12.40000 15.637
12.42000 24.561
12.44000 18.959
12.46000 13.259
12.48000 13.323
12.50000 8.832
12.52000 12.206
12.54000 5.422
12.56000 6.070
12.58000 8.122
12.60000 14.573
12.62000 20.332
12.64000 13.103
12.66000 7.174
12.68000 16.885
12.70000 9.041
12.72000 9.599
12.74000 13.239
12.76000 8.494
12.78000 16.067
12.80000 13.271
12.82000 13.727
12.84000 14.153
12.86000 23.487
12.88000 10.180
12.90000 6.669
12.92000 21.249
12.94000 20.726
12.96000 12.957
12.98000 9.021
13.00000 10.075
13.02000 19.913
13.04000 13.854
13.06000 15.995
13.08000 18.282
13.10000 21.595
13.12000 23.990
13.14000 13.271
13.16000 3.378
13.18000 24.219
13.20000 25.468
13.22000 17.734
13.24000 13.704
13.26000 20.241
13.28000 11.434
13.30000 13.635
13.32000 16.696
13.34000 13.262
13.36000 10.943
13.38000 17.619
13.40000 20.235
13.42000 21.791
13.44000 8.086
13.46000 -1.304
13.48000 1.289
13.50000 20.593
13.52000 15.057
13.54000 0.475
13.56000 12.566
13.58000 16.035
13.60000 3.785
13.62000 1.973
13.64000 12.697
13.66000 9.205
13.68000 11.876
13.70000 13.507
13.72000 6.551
13.74000 5.419
13.76000 12.332
13.78000 14.092
13.80000 16.076
13.82000 18.895
13.84000 19.107
13.86000 1.593
13.88000 6.526
13.90000 17.361
13.92000 17.473
13.94000 12.303
13.96000 8.290
13.98000 8.735
14.00000 15.593
14.02000 10.574
14.04000 6.748
14.06000 9.143
14.08000 12.534
14.10000 6.254
14.12000 -3.376
14.14000 7.441
14.16000 9.764
14.18000 15.461
14.20000 15.086
14.22000 8.194
14.24000 7.605
14.26000 9.294
14.28000 15.806
14.30000 14.443
14.32000 7.852
14.34000 6.625
14.36000 -0.288
14.38000 3.644
14.40000 13.569
14.42000 9.881
14.44000 5.261
14.46000 15.667
14.48000 5.975
14.50000 4.300
14.52000 0.105
14.54000 14.432
14.56000 8.845
14.58000 5.584
14.60000 3.747
14.62000 7.905
14.64000 11.320
14.66000 13.131
14.68000 10.143
14.70000 10.889
14.72000 14.968
14.74000 8.451
14.76000 4.337
14.78000 6.433
14.80000 14.839
14.82000 6.957
14.84000 -3.546
14.86000 3.815
14.88000 4.952
14.90000 4.548
14.92000 10.315
14.94000 11.296
14.96000 4.623
14.98000 2.681
15.00000 6.412
15.02000 4.817
15.04000 4.161
15.06000 -1.043
15.08000 0.698
15.10000 -0.260
15.12000 0.851
15.14000 -1.139
15.16000 1.956
15.18000 5.891
15.20000 -0.861
15.22000 8.404
15.24000 4.766
15.26000 3.659
15.28000 5.688
15.30000 9.638
15.32000 10.246
15.34000 4.823
15.36000 12.054
15.38000 12.569
15.40000 12.247
15.42000 8.540
15.44000 -1.007
15.46000 -1.848
15.48000 1.360
15.50000 0.287
15.52000 -2.898
15.54000 4.490
15.56000 4.698
15.58000 4.053
15.60000 6.479
15.62000 17.530
15.64000 14.457
15.66000 12.206
15.68000 15.425
15.70000 13.076
15.72000 9.525
15.74000 13.500
15.76000 12.768
15.78000 3.468
15.80000 -0.328
15.82000 -2.358
15.84000 4.383
15.86000 6.781
15.88000 7.336
15.90000 7.217
15.92000 13.198
15.94000 1.554
15.96000 0.038
15.98000 9.179
16.00000 15.860
16.02000 12.097
16.04000 4.826
16.06000 -1.696
16.08000 -4.475
16.10000 -3.555
16.12000 10.195
16.14000 8.180
16.16000 3.553
16.18000 3.066
16.20000 1.818
16.22000 0.804
16.24000 1.189
16.26000 1.097
16.28000 -1.467
16.30000 0.611
16.32000 4.310
16.34000 4.995
16.36000 -1.792
16.38000 -3.457
16.40000 -0.344
16.42000 -3.635
16.44000 5.092
16.46000 5.260
16.48000 3.218
16.50000 12.232
16.52000 15.086
16.54000 5.023
16.56000 -3.063
16.58000 5.258
16.60000 8.108
16.62000 3.513
16.64000 1.381
16.66000 5.214
16.68000 3.921
16.70000 11.442
16.72000 11.458
16.74000 9.615
16.76000 3.640
16.78000 8.435
16.80000 10.376
16.82000 7.384
16.84000 7.209
16.86000 5.323
16.88000 1.018
16.90000 4.562
16.92000 8.338
16.94000 9.441
16.96000 9.076
16.98000 8.077
17.00000 11.557
17.02000 4.922
17.04000 2.427
17.06000 15.341
17.08000 11.332
17.10000 -4.425
17.12000 0.962
17.14000 5.338
17.16000 6.011
17.18000 10.962
17.20000 9.716
17.22000 4.935
17.24000 11.514
17.26000 3.914
17.28000 6.843
17.30000 2.335
17.32000 11.055
17.34000 12.728
17.36000 1.616
17.38000 5.855
17.40000 12.618
17.42000 11.371
17.44000 0.987
17.46000 4.718
17.48000 0.733
17.50000 -1.861
17.52000 3.275
17.54000 7.513
17.56000 5.716
17.58000 15.350
17.60000 11.272
17.62000 15.692
17.64000 7.351
17.66000 0.134
17.68000 3.438
17.70000 9.071
17.72000 10.890
17.74000 3.349
17.76000 1.655
17.78000 3.527
17.80000 1.772
17.82000 -4.396
17.84000 1.008
17.86000 -1.524
17.88000 0.856
17.90000 8.114
17.92000 3.522
17.94000 3.725
17.96000 1.917
17.98000 2.892
18.00000 1.499
18.02000 -0.662
18.04000 -0.854
18.06000 5.814
18.08000 3.897
18.10000 -3.380
18.12000 1.004
18.14000 7.106
18.16000 7.371
18.18000 12.501
18.20000 3.031
18.22000 -0.435
18.24000 1.367
18.26000 9.201
18.28000 1.346
18.30000 -0.166
18.32000 1.575
18.34000 -1.132
18.36000 -2.435
18.38000 -0.387
18.40000 4.511
18.42000 -0.993
18.44000 1.870
18.46000 5.133
18.48000 3.842
18.50000 6.152
18.52000 7.841
18.54000 5.038
18.56000 6.040
18.58000 5.801
18.60000 1.259
18.62000 7.774
18.64000 6.991
18.66000 3.336
18.68000 -1.143
18.70000 -4.337
18.72000 -3.792
18.74000 0.605
18.76000 -1.194
18.78000 1.827
18.80000 6.376
18.82000 5.781
18.84000 4.026
18.86000 1.189
18.88000 8.218
18.90000 5.353
18.92000 5.484
18.94000 2.473
18.96000 6.994
18.98000 1.827
19.00000 7.695
19.02000 9.325
19.04000 5.084
19.06000 1.722
19.08000 2.077
19.10000 1.427
19.12000 -4.288
19.14000 1.246
19.16000 1.975
19.18000 7.484
19.20000 3.864
19.22000 4.901
19.24000 5.884
19.26000 5.958
19.28000 1.839
19.30000 -1.689
19.32000 2.021
19.34000 6.373
19.36000 12.291
19.38000 15.469
19.40000 12.905
19.42000 9.229
19.44000 13.863
19.46000 17.638
19.48000 10.418
19.50000 10.014
19.52000 3.929
19.54000 10.205
19.56000 5.237
19.58000 5.373
19.60000 10.950
19.62000 8.423
19.64000 6.294
19.66000 1.898
19.68000 10.043
19.70000 9.403
19.72000 8.951
19.74000 8.689
19.76000 7.579
19.78000 3.972
19.80000 6.293
19.82000 0.651
19.84000 1.219
19.86000 -4.244
19.88000 3.205
19.90000 10.160
19.92000 10.144
19.94000 4.017
19.96000 5.278
19.98000 7.185
20.00000 5.503
20.02000 9.028
20.04000 9.339
20.06000 12.402
20.08000 11.151
20.10000 0.750
20.12000 3.720
20.14000 1.379
20.16000 4.083
20.18000 3.768
20.20000 2.690
20.22000 -0.276
20.24000 0.781
20.26000 5.206
20.28000 13.204
20.30000 10.224
20.32000 7.273
20.34000 12.655
20.36000 11.507
20.38000 7.439
20.40000 2.390
20.42000 7.561
20.44000 1.945
20.46000 -1.578
20.48000 6.440
20.50000 4.622
20.52000 2.707
20.54000 3.482
20.56000 5.797
20.58000 7.114
20.60000 5.707
20.62000 5.051
20.64000 8.613
20.66000 8.858
20.68000 7.678
20.70000 10.822
20.72000 13.072
20.74000 15.931
20.76000 13.814
20.78000 17.138
20.80000 2.544
20.82000 1.899
20.84000 3.980
20.86000 4.590
20.88000 1.794
20.90000 5.593
20.92000 3.374
20.94000 7.047
20.96000 4.533
20.98000 -4.172
21.00000 1.939
21.02000 10.136
21.04000 9.111
21.06000 6.271
21.08000 1.188
21.10000 1.654
21.12000 8.958
21.14000 11.098
21.16000 7.249
21.18000 7.858
21.20000 4.821
21.22000 0.466
21.24000 0.999
21.26000 7.816
21.28000 6.069
21.30000 5.495
21.32000 7.834
21.34000 3.700
21.36000 3.409
21.38000 2.457
21.40000 0.399
21.42000 5.750
21.44000 3.738
21.46000 0.132
21.48000 3.884
21.50000 4.083
21.52000 8.423
21.54000 11.330
21.56000 7.926
21.58000 6.676
21.60000 6.826
21.62000 2.301
21.64000 1.925
21.66000 9.186
21.68000 7.443
21.70000 8.169
21.72000 5.178
21.74000 1.740
21.76000 0.519
21.78000 6.269
21.80000 4.279
21.82000 -2.072
21.84000 6.192
21.86000 7.623
21.88000 5.830
21.90000 4.342
21.92000 5.403
21.94000 9.385
21.96000 8.272
21.98000 5.988
22.00000 3.824
22.02000 2.276
22.04000 3.786
22.06000 3.982
22.08000 7.408
22.10000 6.589
22.12000 8.497
22.14000 6.780
22.16000 5.340
22.18000 1.498
22.20000 6.441
22.22000 6.622
22.24000 -0.363
22.26000 6.622
22.28000 5.976
22.30000 -4.131
22.32000 1.535
22.34000 0.405
22.36000 5.617
22.38000 2.768
22.40000 0.661
22.42000 -0.615
22.44000 1.637
22.46000 -0.154
22.48000 2.435
22.50000 4.422
22.52000 5.594
22.54000 -0.408
22.56000 2.419
22.58000 6.223
22.60000 8.686
22.62000 1.047
22.64000 -3.110
22.66000 -1.286
22.68000 4.007
22.70000 4.616
22.72000 6.917
22.74000 8.837
22.76000 -0.814
22.78000 -1.855
22.80000 2.873
22.82000 1.697
22.84000 2.228
22.86000 1.882
22.88000 3.310
22.90000 4.028
22.92000 -2.497
22.94000 1.807
22.96000 6.125
22.98000 8.759
23.00000 5.198
23.02000 1.721
23.04000 2.613
23.06000 0.941
23.08000 -4.085
23.10000 -0.077
23.12000 4.578
23.14000 5.600
23.16000 3.837
23.18000 8.292
23.20000 7.636
23.22000 1.442
23.24000 -0.233
23.26000 4.415
23.28000 2.713
23.30000 1.509
23.32000 1.948
23.34000 5.211
23.36000 6.423
23.38000 4.732
23.40000 6.735
23.42000 3.967
23.44000 2.952
23.46000 0.407
23.48000 -0.191
23.50000 2.061
23.52000 6.252
23.54000 6.787
23.56000 5.604
23.58000 9.239
23.60000 4.606
23.62000 2.410
23.64000 7.208
23.66000 7.199
23.68000 5.197
23.70000 2.227
23.72000 6.149
23.74000 7.417
23.76000 4.082
23.78000 2.308
23.80000 5.041
23.82000 4.266
23.84000 -1.026
23.86000 2.298
23.88000 6.503
23.90000 15.645
23.92000 13.679
23.94000 2.697
23.96000 2.582
23.98000 5.025
24.00000 4.230
24.02000 10.006
24.04000 7.214
24.06000 6.833
24.08000 10.073
24.10000 8.677
24.12000 0.431
24.14000 3.182
24.16000 3.652
24.18000 9.326
24.20000 6.189
24.22000 1.882
24.24000 2.461
24.26000 10.481
24.28000 14.461
24.30000 8.040
24.32000 3.303
24.34000 -1.110
24.36000 2.022
24.38000 4.325
24.40000 3.113
24.42000 6.767
24.44000 4.069
24.46000 2.698
24.48000 1.042
24.50000 2.996
24.52000 9.153
24.54000 8.623
24.56000 5.391
24.58000 -0.699
24.60000 -0.016
24.62000 0.497
24.64000 -0.441
24.66000 -3.967
24.68000 3.013
24.70000 3.093
24.72000 -1.917
24.74000 0.090
24.76000 3.980
24.78000 3.841
24.80000 6.215
24.82000 12.601
24.84000 8.275
24.86000 8.535
24.88000 3.660
24.90000 8.539
24.92000 9.101
24.94000 1.580
24.96000 5.651
24.98000 6.039
25.00000 7.061
25.02000 5.578
25.04000 0.520
25.06000 -1.179
25.08000 0.922
25.10000 4.380
25.12000 4.684
25.14000 4.680
25.16000 5.434
25.18000 6.482
25.20000 11.695
25.22000 11.568
25.24000 6.165
25.26000 6.106
25.28000 4.290
25.30000 -1.820
25.32000 0.121
25.34000 -0.525
25.36000 -1.412
25.38000 0.272
25.40000 8.536
25.42000 4.935
25.44000 2.651
25.46000 5.291
25.48000 8.383
25.50000 6.741
25.52000 5.062
25.54000 2.681
25.56000 3.945
25.58000 2.866
25.60000 6.726
25.62000 -0.041
25.64000 -0.827
25.66000 6.687
25.68000 3.029
25.70000 7.520
25.72000 7.186
25.74000 5.816
25.76000 4.058
25.78000 3.353
25.80000 -1.512
25.82000 -0.562
25.84000 0.931
25.86000 0.848
25.88000 1.570
25.90000 9.104
25.92000 9.256
25.94000 2.632
25.96000 3.065
25.98000 0.021
26.00000 -0.188
26.02000 -2.058
26.04000 1.622
26.06000 0.474
26.08000 4.805
26.10000 8.429
26.12000 5.596
26.14000 3.498
26.16000 2.887
26.18000 5.739
26.20000 2.227
26.22000 1.943
26.24000 5.239
26.26000 1.615
26.28000 1.922
26.30000 5.237
26.32000 7.148
26.34000 2.069
26.36000 -3.907
26.38000 2.424
26.40000 4.440
26.42000 3.942
26.44000 0.658
26.46000 0.146
26.48000 -1.484
26.50000 6.213
26.52000 10.062
26.54000 8.148
26.56000 2.395
26.58000 -2.569
26.60000 5.374
26.62000 6.730
26.64000 1.830
26.66000 1.943
26.68000 3.549
26.70000 6.572
26.72000 5.002
26.74000 2.193
26.76000 4.835
26.78000 1.142
26.80000 -0.345
26.82000 -1.248
26.84000 3.066
26.86000 3.846
26.88000 -3.880
26.90000 -0.816
26.92000 11.584
26.94000 3.824
26.96000 5.631
26.98000 6.572
27.00000 8.269
27.02000 8.861
27.04000 2.850
27.06000 -1.903
27.08000 2.162
27.10000 3.052
27.12000 3.189
27.14000 4.096
27.16000 6.388
27.18000 5.289
27.20000 1.481
27.22000 1.776
27.24000 6.651
27.26000 0.460
27.28000 0.982
27.30000 1.337
27.32000 6.076
27.34000 7.384
27.36000 6.142
27.38000 5.833
27.40000 7.617
27.42000 2.286
27.44000 4.517
27.46000 4.657
27.48000 6.722
27.50000 2.848
27.52000 7.175
27.54000 10.087
27.56000 1.908
27.58000 3.808
27.60000 4.800
27.62000 -1.532
27.64000 2.584
27.66000 -1.349
27.68000 0.517
27.70000 6.162
27.72000 8.462
27.74000 8.522
27.76000 2.025
27.78000 2.503
27.80000 1.964
27.82000 1.616
27.84000 2.312
27.86000 4.932
27.88000 4.579
27.90000 -1.357
27.92000 -0.237
27.94000 4.236
27.96000 5.804
27.98000 5.070
28.00000 8.992
28.02000 4.408
28.04000 -0.473
28.06000 9.789
28.08000 10.362
28.10000 1.069
28.12000 -3.811
28.14000 2.957
28.16000 6.521
28.18000 2.344
28.20000 5.816
28.22000 2.902
28.24000 3.036
28.26000 2.880
28.28000 2.835
28.30000 -1.994
28.32000 4.031
28.34000 5.421
28.36000 0.697
28.38000 0.156
28.40000 -2.602
28.42000 -2.256
28.44000 -0.378
28.46000 -1.191
28.48000 2.092
28.50000 -0.851
28.52000 2.419
28.54000 3.262
28.56000 4.346
28.58000 0.567
28.60000 1.380
28.62000 0.587
28.64000 6.178
28.66000 2.888
28.68000 8.474
28.70000 11.515
28.72000 7.670
28.74000 1.833
28.76000 -0.324
28.78000 -1.331
28.80000 -3.185
28.82000 5.694
28.84000 5.898
28.86000 5.967
28.88000 3.111
28.90000 2.596
28.92000 2.971
28.94000 1.090
28.96000 5.464
28.98000 2.652
29.00000 2.007
29.02000 2.454
29.04000 0.120
29.06000 3.661
29.08000 -0.550
29.10000 -3.775
29.12000 -2.031
29.14000 2.546
29.16000 1.937
29.18000 5.447
29.20000 1.760
29.22000 1.154
29.24000 2.881
29.26000 7.571
29.28000 7.880
29.30000 -3.371
29.32000 -3.762
29.34000 1.150
29.36000 3.108
29.38000 5.939
29.40000 1.481
29.42000 1.200
29.44000 2.231
29.46000 6.427
29.48000 4.941
29.50000 -0.233
29.52000 -2.672
29.54000 1.169
29.56000 3.229
29.58000 -1.050
29.60000 0.093
29.62000 -0.090
29.64000 3.570
29.66000 5.529
29.68000 11.480
29.70000 3.618
29.72000 -3.606
29.74000 0.306
29.76000 0.504
29.78000 3.887
29.80000 6.350
29.82000 6.867
29.84000 7.196
29.86000 6.181
29.88000 3.316
29.90000 4.790
29.92000 2.013
29.94000 0.578
29.96000 1.362
29.98000 3.795
30.00000 4.375
30.02000 1.322
30.04000 0.348
30.06000 2.215
30.08000 -3.444
30.10000 0.390
30.12000 -0.378
30.14000 1.059
30.16000 2.567
30.18000 2.634
30.20000 2.679
30.22000 4.026
30.24000 3.324
30.26000 5.953
30.28000 3.000
30.30000 -2.458
30.32000 1.590
30.34000 5.528
30.36000 5.034
30.38000 1.750
30.40000 1.938
30.42000 1.575
30.44000 -2.660
30.46000 -0.225
30.48000 5.026
30.50000 4.668
30.52000 6.281
30.54000 4.598
30.56000 4.477
30.58000 8.719
30.60000 9.187
30.62000 10.634
30.64000 7.625
30.66000 0.923
30.68000 -3.680
30.70000 -1.175
30.72000 4.853
30.74000 2.739
30.76000 1.554
30.78000 3.850
30.80000 8.228
30.82000 12.058
30.84000 11.526
30.86000 1.551
30.88000 -0.428
30.90000 7.173
30.92000 4.713
30.94000 5.013
30.96000 7.956
30.98000 1.161
31.00000 1.752
31.02000 8.261
31.04000 8.075
31.06000 4.278
31.08000 -1.056
31.10000 1.681
31.12000 2.304
31.14000 3.836
31.16000 4.617
31.18000 6.631
31.20000 3.942
31.22000 3.535
31.24000 6.926
31.26000 3.913
31.28000 2.597
31.30000 0.245
31.32000 -0.749
31.34000 -0.991
31.36000 -0.122
31.38000 0.924
31.40000 0.601
31.42000 1.257
31.44000 2.500
31.46000 -2.332
31.48000 0.358
31.50000 1.517
31.52000 -0.102
31.54000 1.445
31.56000 5.695
31.58000 6.230
31.60000 0.575
31.62000 5.677
31.64000 3.091
31.66000 5.476
31.68000 5.051
31.70000 5.445
31.72000 4.890
31.74000 2.419
31.76000 -2.228
31.78000 -0.578
31.80000 1.449
31.82000 -0.285
31.84000 7.819
31.86000 3.592
31.88000 1.428
31.90000 -0.672
31.92000 2.156
31.94000 2.547
31.96000 0.585
31.98000 5.381
32.00000 8.515
32.02000 3.546
32.04000 -1.131
32.06000 -1.696
32.08000 0.356
32.10000 -0.958
32.12000 -3.650
32.14000 1.244
32.16000 4.610
32.18000 2.534
32.20000 1.228
32.22000 -0.860
32.24000 -2.905
32.26000 -3.235
32.28000 2.124
32.30000 2.860
32.32000 4.834
32.34000 6.125
32.36000 6.023
32.38000 3.760
32.40000 -1.609
32.42000 -1.354
32.44000 2.523
32.46000 1.312
32.48000 5.131
32.50000 7.615
32.52000 8.890
32.54000 1.857
32.56000 0.582
32.58000 3.381
32.60000 0.756
32.62000 2.109
32.64000 2.376
32.66000 1.912
32.68000 0.222
32.70000 0.501
32.72000 0.512
32.74000 4.713
32.76000 1.649
32.78000 -2.267
32.80000 2.279
32.82000 3.224
32.84000 -0.263
32.86000 1.648
32.88000 1.236
32.90000 4.478
32.92000 3.906
32.94000 -0.916
32.96000 -0.499
32.98000 -1.717
33.00000 1.830
33.02000 5.166
33.04000 5.703
33.06000 5.225
33.08000 1.122
33.10000 1.283
33.12000 4.815
33.14000 1.614
33.16000 1.786
33.18000 7.130
33.20000 5.706
33.22000 2.493
33.24000 2.462
33.26000 2.082
33.28000 7.081
33.30000 7.900
33.32000 4.476
33.34000 -2.618
33.36000 -0.806
33.38000 3.150
33.40000 6.177
33.42000 4.421
33.44000 -3.529
33.46000 -3.610
33.48000 1.940
33.50000 6.218
33.52000 9.898
33.54000 7.286
33.56000 3.385
33.58000 5.653
33.60000 7.382
33.62000 9.845
33.64000 10.660
33.66000 7.761
33.68000 5.909
33.70000 6.956
33.72000 2.220
33.74000 1.089
33.76000 0.664
33.78000 9.395
33.80000 8.583
33.82000 4.676
33.84000 5.542
33.86000 5.976
33.88000 9.194
33.90000 10.892
33.92000 4.588
33.94000 2.388
33.96000 -1.008
33.98000 -0.713
34.00000 4.556
34.02000 1.620
34.04000 2.060
34.06000 5.989
34.08000 1.927
34.10000 0.638
34.12000 1.348
34.14000 1.588
34.16000 1.974
34.18000 3.974
34.20000 5.596
34.22000 7.943
34.24000 4.366
34.26000 -2.839
34.28000 -1.306
34.30000 3.887
34.32000 4.719
34.34000 2.510
34.36000 3.335
34.38000 2.242
34.40000 4.306
34.42000 1.502
34.44000 0.557
34.46000 2.114
34.48000 0.295
34.50000 -2.830
34.52000 1.761
34.54000 8.986
34.56000 2.998
34.58000 0.280
34.60000 1.184
34.62000 7.388
34.64000 6.624
34.66000 2.742
34.68000 2.592
34.70000 0.471
34.72000 3.926
34.74000 2.021
34.76000 1.745
34.78000 1.183
34.80000 1.056
34.82000 1.036
34.84000 -0.628
34.86000 3.223
34.88000 4.382
34.90000 1.895
34.92000 2.072
34.94000 -0.512
34.96000 -0.025
34.98000 0.432
35.00000 3.140
35.02000 7.878
35.04000 6.398
35.06000 7.111
35.08000 8.236
35.10000 7.108
35.12000 6.170
35.14000 4.161
35.16000 -2.938
35.18000 -3.622
35.20000 1.575
35.22000 2.189
35.24000 -0.954
35.26000 -0.876
35.28000 4.776
35.30000 3.270
35.32000 2.648
35.34000 -2.246
35.36000 4.591
35.38000 3.191
35.40000 2.810
35.42000 1.976
35.44000 4.170
35.46000 4.539
35.48000 4.883
35.50000 2.743
35.52000 -3.274
35.54000 -2.275
35.56000 -1.613
35.58000 -2.719
35.60000 0.440
35.62000 1.086
35.64000 3.331
35.66000 6.384
35.68000 2.850
35.70000 -0.371
35.72000 -2.538
35.74000 -2.846
35.76000 -0.258
35.78000 -0.359
35.80000 1.604
35.82000 1.480
35.84000 6.346
35.86000 4.970
35.88000 1.312
35.90000 1.994
35.92000 -1.498
35.94000 -1.965
35.96000 5.134
35.98000 0.653
36.00000 1.295
36.02000 0.580
36.04000 -1.727
36.06000 -3.659
36.08000 4.158
36.10000 5.408
36.12000 2.338
36.14000 4.334
36.16000 1.185
36.18000 2.627
36.20000 3.040
36.22000 2.841
36.24000 7.268
36.26000 5.144
36.28000 7.169
36.30000 9.302
36.32000 8.066
36.34000 2.371
36.36000 0.074
36.38000 -2.292
36.40000 -2.087
36.42000 -2.342
36.44000 -1.792
36.46000 0.926
36.48000 3.008
36.50000 -0.277
36.52000 -2.294
36.54000 1.509
36.56000 5.050
36.58000 1.183
36.60000 2.085
36.62000 5.475
36.64000 2.259
36.66000 -0.799
36.68000 0.002
36.70000 0.849
36.72000 3.545
36.74000 1.349
36.76000 2.786
36.78000 1.554
36.80000 8.147
36.82000 10.174
36.84000 12.274
36.86000 6.461
36.88000 2.932
36.90000 5.085
36.92000 2.955
36.94000 6.170
36.96000 8.319
36.98000 1.851
37.00000 -2.035
37.02000 4.922
37.04000 9.682
37.06000 12.696
37.08000 15.562
37.10000 13.915
37.12000 11.295
37.14000 11.346
37.16000 12.186
37.18000 6.947
37.20000 6.403
37.22000 9.365
37.24000 7.782
37.26000 8.386
37.28000 11.513
37.30000 8.069
37.32000 7.284
37.34000 9.702
37.36000 10.948
37.38000 17.554
37.40000 14.048
37.42000 10.132
37.44000 16.096
37.46000 17.522
37.48000 15.473
37.50000 18.111
37.52000 18.838
37.54000 20.526
37.56000 19.302
37.58000 18.722
37.60000 12.830
37.62000 12.016
37.64000 15.270
37.66000 16.018
37.68000 19.831
37.70000 22.006
37.72000 21.066
37.74000 25.556
37.76000 24.979
37.78000 22.945
37.80000 23.611
37.82000 22.654
37.84000 22.093
37.86000 25.133
37.88000 26.966
37.90000 28.068
37.92000 26.564
37.94000 29.319
37.96000 33.644
37.98000 34.723
38.00000 30.368
38.02000 29.518
38.04000 35.893
38.06000 40.970
38.08000 43.484
38.10000 42.500
38.12000 41.481
38.14000 38.908
38.16000 40.839
38.18000 50.304
38.20000 55.249
38.22000 52.396
38.24000 51.477
38.26000 54.672
38.28000 56.539
38.30000 65.052
38.32000 67.903
38.34000 69.612
38.36000 69.954
38.38000 74.971
38.40000 76.669
38.42000 77.211
38.44000 79.657
38.46000 84.345
38.48000 88.234
38.50000 94.003
38.52000 104.414
38.54000 103.162
38.56000 108.211
38.58000 113.431
38.60000 124.196
38.62000 134.127
38.64000 138.181
38.66000 145.600
38.68000 150.959
38.70000 162.447
38.72000 172.614
38.74000 179.955
38.76000 196.549
38.78000 217.951
38.80000 224.698
38.82000 230.643
38.84000 243.218
38.86000 253.207
38.88000 272.773
38.90000 287.943
38.92000 300.175
38.94000 312.402
38.96000 331.340
38.98000 343.879
39.00000 350.716
39.02000 359.974
39.04000 376.883
39.06000 377.449
39.08000 389.664
39.10000 398.182
39.12000 397.360
39.14000 402.059
39.16000 408.915
39.18000 400.610
39.20000 390.666
39.22000 386.617
39.24000 384.301
39.26000 382.120
39.28000 366.822
39.30000 348.792
39.32000 340.631
39.34000 338.977
39.36000 328.242
39.38000 310.120
39.40000 291.239
39.42000 281.504
39.44000 271.358
39.46000 249.981
39.48000 242.119
39.50000 232.060
39.52000 223.704
39.54000 205.863
39.56000 190.114
39.58000 178.020
39.60000 169.448
39.62000 159.869
39.64000 151.449
39.66000 142.508
39.68000 134.646
39.70000 129.497
39.72000 123.599
39.74000 115.382
39.76000 101.484
39.78000 97.549
39.80000 91.799
39.82000 87.505
39.84000 84.595
39.86000 76.608
39.88000 71.588
39.90000 66.738
39.92000 63.214
39.94000 57.893
39.96000 54.162
39.98000 51.435
40.00000 49.830
40.02000 46.152
40.04000 44.152
40.06000 42.054
40.08000 46.222
40.10000 46.161
40.12000 43.529
40.14000 39.323
40.16000 36.707
40.18000 36.953
40.20000 32.460
40.22000 29.910
40.24000 25.393
40.26000 29.718
40.28000 30.149
40.30000 26.669
40.32000 17.404
40.34000 20.024
40.36000 21.575
40.38000 19.818
40.40000 20.488
40.42000 22.974
40.44000 25.010
40.46000 19.761
40.48000 19.510
40.50000 20.895
40.52000 17.058
40.54000 17.098
40.56000 15.795
40.58000 14.704
40.60000 14.446
40.62000 18.350
40.64000 14.836
40.66000 7.351
40.68000 7.183
40.70000 12.828
40.72000 12.202
40.74000 9.265
40.76000 9.666
40.78000 8.489
40.80000 10.415
40.82000 7.395
40.84000 3.852
40.86000 5.069
40.88000 6.246
40.90000 9.419
40.92000 7.050
40.94000 5.341
40.96000 7.468
40.98000 4.872
41.00000 6.077
41.02000 4.968
41.04000 -0.081
41.06000 3.603
41.08000 9.655
41.10000 8.212
41.12000 5.997
41.14000 0.835
41.16000 -0.322
41.18000 -1.830
41.20000 1.451
41.22000 5.907
41.24000 5.921
41.26000 0.557
41.28000 1.113
41.30000 1.439
41.32000 2.877
41.34000 1.948
41.36000 3.216
41.38000 6.476
41.40000 4.023
41.42000 1.777
41.44000 4.320
41.46000 1.715
41.48000 2.350
41.50000 1.875
41.52000 0.204
41.54000 1.434
41.56000 2.834
41.58000 2.891
41.60000 0.740
41.62000 -0.477
41.64000 -0.900
41.66000 2.346
41.68000 4.149
41.70000 3.685
41.72000 0.899
41.74000 3.202
41.76000 1.872
41.78000 -1.417
41.80000 -3.424
41.82000 -1.186
41.84000 0.515
41.86000 2.203
41.88000 3.095
41.90000 3.221
41.92000 2.370
41.94000 5.593
41.96000 0.373
41.98000 -0.233
42.00000 4.167
42.02000 -0.546
42.04000 -2.753
42.06000 -1.711
42.08000 1.828
42.10000 0.712
42.12000 0.145
42.14000 -0.901
42.16000 -2.227
42.18000 -0.951
42.20000 -1.744
42.22000 1.033
42.24000 -3.370
42.26000 -0.082
42.28000 0.507
42.30000 3.085
42.32000 2.209
42.34000 1.127
42.36000 1.356
42.38000 1.933
42.40000 2.698
42.42000 0.042
42.44000 2.763
42.46000 -1.885
42.48000 0.247
42.50000 1.939
42.52000 0.060
42.54000 -3.306
42.56000 -2.953
42.58000 -2.496
42.60000 -2.736
42.62000 -0.234
42.64000 -1.290
42.66000 0.342
42.68000 0.289
42.70000 -2.117
42.72000 -2.437
42.74000 -0.051
42.76000 -1.742
42.78000 -0.156
42.80000 0.631
42.82000 -2.150
42.84000 -3.312
42.86000 -2.927
42.88000 0.284
42.90000 -2.011
42.92000 0.460
42.94000 -0.254
42.96000 1.179
42.98000 0.224
43.00000 -1.007
43.02000 -2.299
43.04000 -2.147
43.06000 -1.278
43.08000 1.179
43.10000 -2.481
43.12000 1.522
43.14000 3.341
43.16000 -0.423
43.18000 -2.857
43.20000 -3.270
43.22000 -2.574
43.24000 -0.768
43.26000 -0.955
43.28000 1.114
43.30000 3.485
43.32000 2.003
43.34000 -1.371
43.36000 -1.247
43.38000 -1.784
43.40000 -0.517
43.42000 -0.568
43.44000 -1.800
43.46000 -2.156
43.48000 -0.295
43.50000 0.637
43.52000 1.068
43.54000 1.069
43.56000 1.635
43.58000 4.627
43.60000 3.998
43.62000 1.096
43.64000 -0.993
43.66000 -2.412
43.68000 -3.222
43.70000 -0.185
43.72000 0.698
43.74000 2.640
43.76000 2.077
43.78000 2.517
43.80000 4.247
43.82000 -0.391
43.84000 -0.730
43.86000 0.803
43.88000 0.604
43.90000 2.065
43.92000 2.552
43.94000 -1.897
43.96000 1.360
43.98000 2.581
44.00000 1.597
44.02000 1.936
44.04000 1.771
44.06000 0.965
44.08000 1.850
44.10000 4.080
44.12000 2.495
44.14000 2.600
44.16000 1.396
44.18000 5.390
44.20000 4.794
44.22000 0.961
44.24000 1.424
44.26000 5.143
44.28000 1.822
44.30000 1.680
44.32000 -0.361
44.34000 1.605
44.36000 5.196
44.38000 7.101
44.40000 3.905
44.42000 4.872
44.44000 5.660
44.46000 3.023
44.48000 2.604
44.50000 6.773
44.52000 6.512
44.54000 6.692
44.56000 9.290
44.58000 6.038
44.60000 5.547
44.62000 7.141
44.64000 9.278
44.66000 8.736
44.68000 11.002
44.70000 15.124
44.72000 14.339
44.74000 11.743
44.76000 13.879
44.78000 16.008
44.80000 18.371
44.82000 15.889
44.84000 18.046
44.86000 23.460
44.88000 21.243
44.90000 20.327
44.92000 16.777
44.94000 20.111
44.96000 25.784
44.98000 26.862
45.00000 28.195
45.02000 28.071
45.04000 30.066
45.06000 28.882
45.08000 32.134
45.10000 34.187
45.12000 38.104
45.14000 37.417
45.16000 36.924
45.18000 37.563
45.20000 42.002
45.22000 41.788
45.24000 43.417
45.26000 46.630
45.28000 44.323
45.30000 44.836
45.32000 50.427
45.34000 54.916
45.36000 54.417
45.38000 57.326
45.40000 59.814
45.42000 63.587
45.44000 60.046
45.46000 62.032
45.48000 67.619
45.50000 71.533
45.52000 71.190
45.54000 73.346
45.56000 72.432
45.58000 74.461
45.60000 78.783
45.62000 78.897
45.64000 80.895
45.66000 79.175
45.68000 76.638
45.70000 76.162
45.72000 83.900
45.74000 78.260
45.76000 80.228
45.78000 80.924
45.80000 78.680
45.82000 83.239
45.84000 79.694
45.86000 74.343
45.88000 67.521
45.90000 75.037
45.92000 73.953
45.94000 69.236
45.96000 68.946
45.98000 70.155
46.00000 70.941
46.02000 69.337
46.04000 62.439
46.06000 60.478
46.08000 59.699
46.10000 57.703
46.12000 56.400
46.14000 50.508
46.16000 46.339
46.18000 46.191
46.20000 45.621
46.22000 44.460
46.24000 41.177
46.26000 38.083
46.28000 37.562
46.30000 37.536
46.32000 36.413
46.34000 32.911
46.36000 29.100
46.38000 28.471
46.40000 25.023
46.42000 20.695
46.44000 23.645
46.46000 20.398
46.48000 17.912
46.50000 15.362
46.52000 16.434
46.54000 16.008
46.56000 16.549
46.58000 11.809
46.60000 13.956
46.62000 10.365
46.64000 10.842
46.66000 9.553
46.68000 8.265
46.70000 11.363
46.72000 10.584
46.74000 10.637
46.76000 10.201
46.78000 8.816
46.80000 6.660
46.82000 1.561
46.84000 1.859
46.86000 5.423
46.88000 5.432
46.90000 6.560
46.92000 5.230
46.94000 5.178
46.96000 3.219
46.98000 3.779
47.00000 0.484
47.02000 3.383
47.04000 2.771
47.06000 3.990
47.08000 4.333
47.10000 4.753
47.12000 1.533
47.14000 0.441
47.16000 -1.486
47.18000 0.370
47.20000 3.256
47.22000 -2.162
47.24000 -0.777
47.26000 4.753
47.28000 3.661
47.30000 2.389
47.32000 3.827
47.34000 2.029
47.36000 4.689
47.38000 2.126
47.40000 2.095
47.42000 4.287
47.44000 5.854
47.46000 4.531
47.48000 0.969
47.50000 0.921
47.52000 0.656
47.54000 0.676
47.56000 3.246
47.58000 2.759
47.60000 6.460
47.62000 5.005
47.64000 5.234
47.66000 2.089
47.68000 -2.734
47.70000 0.747
47.72000 2.468
47.74000 5.034
47.76000 5.345
47.78000 4.201
47.80000 3.251
47.82000 4.465
47.84000 9.828
47.86000 12.739
47.88000 11.707
47.90000 7.830
47.92000 5.883
47.94000 8.358
47.96000 7.958
47.98000 7.856
48.00000 4.179
48.02000 -0.601
48.04000 -0.606
48.06000 0.644
48.08000 1.402
48.10000 3.718
48.12000 5.935
48.14000 6.219
48.16000 1.743
48.18000 0.898
48.20000 4.087
48.22000 4.971
48.24000 2.827
48.26000 -2.665
48.28000 -1.274
48.30000 1.912
48.32000 6.906
48.34000 6.440
48.36000 3.463
48.38000 4.126
48.40000 0.985
48.42000 -0.155
48.44000 3.134
48.46000 1.268
48.48000 1.753
48.50000 0.489
48.52000 -2.708
48.54000 -0.561
48.56000 -0.031
48.58000 0.695
48.60000 0.206
48.62000 0.292
48.64000 -1.101
48.66000 -0.999
48.68000 -0.514
48.70000 1.061
48.72000 1.148
48.74000 2.291
48.76000 0.570
48.78000 -1.550
48.80000 -2.300
48.82000 1.091
48.84000 0.888
48.86000 1.404
48.88000 -0.753
48.90000 2.059
48.92000 3.756
48.94000 1.502
48.96000 -1.685
48.98000 -1.212
49.00000 -1.705
49.02000 1.488
49.04000 4.628
49.06000 0.833
49.08000 1.978
49.10000 -1.806
49.12000 -1.521
49.14000 -2.281
49.16000 0.770
49.18000 0.116
49.20000 0.768
49.22000 5.055
49.24000 -0.287
49.26000 -2.673
49.28000 1.928
49.30000 1.717
49.32000 -0.865
49.34000 3.461
49.36000 -1.079
49.38000 -1.383
49.40000 -0.475
49.42000 1.227
49.44000 1.114
49.46000 3.980
49.48000 2.480
49.50000 4.108
49.52000 2.512
49.54000 3.069
49.56000 4.338
49.58000 1.512
49.60000 -2.559
49.62000 -1.069
49.64000 0.720
49.66000 2.005
49.68000 1.608
49.70000 1.025
49.72000 2.505
49.74000 4.679
49.76000 4.847
49.78000 1.502
49.80000 -0.067
49.82000 2.054
49.84000 0.975
49.86000 2.589
49.88000 1.364
49.90000 1.193
49.92000 -0.052
49.94000 -0.587
49.96000 1.228
49.98000 0.708
50.00000 0.265
50.02000 3.270
50.04000 4.245
50.06000 4.078
50.08000 4.105
50.10000 1.324
50.12000 0.727
50.14000 2.815
50.16000 3.673
50.18000 2.209
50.20000 1.644
50.22000 -0.271
50.24000 1.636
50.26000 2.953
50.28000 1.239
50.30000 -2.622
50.32000 2.176
50.34000 4.708
50.36000 2.417
50.38000 1.260
50.40000 0.026
50.42000 4.273
50.44000 6.825
50.46000 3.328
50.48000 -0.382
50.50000 -0.403
50.52000 -2.607
50.54000 -1.173
50.56000 -2.216
50.58000 -1.241
50.60000 1.657
50.62000 1.908
50.64000 1.873
50.66000 1.681
50.68000 1.653
50.70000 3.009
50.72000 1.938
50.74000 5.066
50.76000 5.027
50.78000 0.344
50.80000 -2.337
50.82000 -1.168
50.84000 2.086
50.86000 2.351
50.88000 -0.646
50.90000 3.677
50.92000 2.691
50.94000 -1.000
50.96000 0.989
50.98000 2.943
51.00000 3.524
51.02000 7.101
51.04000 2.210
51.06000 -2.374
51.08000 0.903
51.10000 1.328
51.12000 -1.545
51.14000 0.802
51.16000 2.636
51.18000 1.423
51.20000 2.126
51.22000 0.443
51.24000 -0.587
51.26000 0.725
51.28000 2.689
51.30000 3.940
51.32000 4.810
51.34000 3.350
51.36000 3.870
51.38000 2.015
51.40000 4.483
51.42000 2.947
51.44000 0.818
51.46000 0.630
51.48000 6.624
51.50000 -0.034
51.52000 -0.171
51.54000 3.307
51.56000 4.963
51.58000 3.366
51.60000 2.155
51.62000 4.373
51.64000 4.411
51.66000 2.215
51.68000 1.654
51.70000 1.291
51.72000 0.659
51.74000 1.260
51.76000 1.977
51.78000 4.693
51.80000 7.144
51.82000 8.153
51.84000 2.674
51.86000 1.380
51.88000 3.133
51.90000 1.613
51.92000 0.456
51.94000 1.174
51.96000 0.502
51.98000 -2.535
52.00000 -1.232
52.02000 -0.184
52.04000 6.287
52.06000 4.579
52.08000 3.273
52.10000 3.584
52.12000 3.124
52.14000 1.939
52.16000 2.724
52.18000 0.660
52.20000 3.279
52.22000 4.871
52.24000 3.187
52.26000 -0.343
52.28000 -2.533
52.30000 0.549
52.32000 4.818
52.34000 2.674
52.36000 6.384
52.38000 0.908
52.40000 -1.471
52.42000 0.589
52.44000 5.952
52.46000 5.088
52.48000 5.108
52.50000 1.870
52.52000 2.577
52.54000 -2.533
52.56000 -0.469
52.58000 3.423
52.60000 3.433
52.62000 4.704
52.64000 0.579
52.66000 0.377
52.68000 3.170
52.70000 0.362
52.72000 2.435
52.74000 7.140
52.76000 3.542
52.78000 0.789
52.80000 2.730
52.82000 3.067
52.84000 0.979
52.86000 1.436
52.88000 0.125
52.90000 0.826
52.92000 1.754
52.94000 1.273
52.96000 0.535
52.98000 0.861
53.00000 1.177
53.02000 1.892
53.04000 1.280
53.06000 2.313
53.08000 0.627
53.10000 2.128
53.12000 1.000
53.14000 7.887
53.16000 3.438
53.18000 6.239
53.20000 5.178
53.22000 3.758
53.24000 5.796
53.26000 4.867
53.28000 2.516
53.30000 1.599
53.32000 2.442
53.34000 3.623
53.36000 4.310
53.38000 8.104
53.40000 7.618
53.42000 4.400
53.44000 1.486
53.46000 3.186
53.48000 4.727
53.50000 2.706
53.52000 2.265
53.54000 -1.835
53.56000 -2.061
53.58000 1.072
53.60000 1.158
53.62000 -0.923
53.64000 3.283
53.66000 1.822
53.68000 -1.872
53.70000 -0.173
53.72000 4.027
53.74000 3.377
53.76000 2.251
53.78000 -2.487
53.80000 3.218
53.82000 6.656
53.84000 4.725
53.86000 5.779
53.88000 5.483
53.90000 2.680
53.92000 1.248
53.94000 0.735
53.96000 2.547
53.98000 5.142
54.00000 2.651
54.02000 -0.816
54.04000 2.743
54.06000 9.857
54.08000 5.833
54.10000 -2.481
54.12000 -0.496
54.14000 4.048
54.16000 7.740
54.18000 3.485
54.20000 2.353
54.22000 7.048
54.24000 7.780
54.26000 0.792
54.28000 2.326
54.30000 1.118
54.32000 -1.481
54.34000 2.020
54.36000 4.682
54.38000 3.788
54.40000 2.301
54.42000 2.915
54.44000 5.633
54.46000 4.865
54.48000 3.339
54.50000 3.228
54.52000 2.511
54.54000 3.855
54.56000 5.554
54.58000 4.040
54.60000 0.914
54.62000 -0.667
54.64000 3.272
54.66000 2.521
54.68000 2.834
54.70000 0.271
54.72000 1.365
54.74000 2.120
54.76000 3.197
54.78000 4.758
54.80000 3.231
54.82000 3.083
54.84000 -0.636
54.86000 -0.633
54.88000 1.792
54.90000 -0.632
54.92000 2.357
54.94000 4.863
54.96000 7.855
54.98000 2.873
55.00000 1.810
55.02000 3.364
55.04000 3.258
55.06000 2.294
55.08000 0.570
55.10000 4.015
55.12000 2.358
55.14000 4.111
55.16000 3.983
55.18000 2.490
55.20000 2.637
55.22000 0.663
55.24000 1.164
55.26000 0.787
55.28000 3.927
55.30000 3.692
55.32000 3.018
55.34000 6.533
55.36000 7.667
55.38000 1.781
55.40000 -0.621
55.42000 0.383
55.44000 2.820
55.46000 1.308
55.48000 0.885
55.50000 -2.455
55.52000 0.330
55.54000 4.299
55.56000 3.689
55.58000 2.560
55.60000 2.659
55.62000 2.779
55.64000 3.921
55.66000 3.173
55.68000 1.182
55.70000 2.773
55.72000 3.441
55.74000 1.211
55.76000 -0.205
55.78000 -0.706
55.80000 2.227
55.82000 4.700
55.84000 4.665
55.86000 6.548
55.88000 0.046
55.90000 1.329
55.92000 4.226
55.94000 4.102
55.96000 2.276
55.98000 1.951
56.00000 2.700
56.02000 3.292
56.04000 6.144
56.06000 8.508
56.08000 8.276
56.10000 4.070
56.12000 2.205
56.14000 1.521
56.16000 0.992
56.18000 5.223
56.20000 4.612
56.22000 3.083
56.24000 5.980
56.26000 5.930
56.28000 2.458
56.30000 3.133
56.32000 4.272
56.34000 5.864
56.36000 2.387
56.38000 0.285
56.40000 4.940
56.42000 7.469
56.44000 4.935
56.46000 4.221
56.48000 7.897
56.50000 4.110
56.52000 -2.386
56.54000 1.248
56.56000 7.324
56.58000 5.790
56.60000 6.458
56.62000 5.890
56.64000 4.101
56.66000 3.767
56.68000 6.361
56.70000 6.436
56.72000 4.579
56.74000 3.357
56.76000 2.396
56.78000 3.947
56.80000 6.321
56.82000 6.115
56.84000 5.513
56.86000 4.443
56.88000 2.358
56.90000 2.609
56.92000 5.357
56.94000 5.314
56.96000 2.454
56.98000 0.914
57.00000 6.196
57.02000 6.128
57.04000 2.712
57.06000 2.944
57.08000 2.532
57.10000 3.961
57.12000 4.661
57.14000 2.193
57.16000 3.356
57.18000 6.162
57.20000 5.206
57.22000 3.628
57.24000 5.046
57.26000 3.950
57.28000 1.796
57.30000 -2.399
57.32000 1.927
57.34000 0.936
57.36000 3.481
57.38000 3.164
57.40000 2.618
57.42000 2.104
57.44000 2.324
57.46000 4.147
57.48000 -1.876
57.50000 -0.220
57.52000 0.323
57.54000 1.102
57.56000 1.546
57.58000 -0.351
57.60000 0.584
57.62000 3.045
57.64000 2.793
57.66000 3.484
57.68000 -1.705
57.70000 -0.516
57.72000 1.540
57.74000 0.244
57.76000 1.519
57.78000 0.037
57.80000 5.024
57.82000 5.285
57.84000 3.585
57.86000 4.359
57.88000 1.862
57.90000 5.333
57.92000 2.768
57.94000 2.475
57.96000 3.753
57.98000 3.893
58.00000 3.190
58.02000 0.682
58.04000 3.037
58.06000 1.465
58.08000 -2.409
58.10000 -0.701
58.12000 0.578
58.14000 0.466
58.16000 -0.044
58.18000 2.496
58.20000 5.991
58.22000 3.131
58.24000 0.541
58.26000 -1.431
58.28000 1.143
58.30000 2.252
58.32000 1.860
58.34000 1.826
58.36000 1.148
58.38000 0.632
58.40000 1.363
58.42000 4.000
58.44000 4.508
58.46000 4.962
58.48000 0.331
58.50000 2.224
58.52000 2.056
58.54000 0.993
58.56000 1.974
58.58000 1.495
58.60000 3.900
58.62000 2.458
58.64000 1.586
58.66000 1.574
58.68000 0.171
58.70000 1.492
58.72000 0.851
58.74000 -0.367
58.76000 0.785
58.78000 3.066
58.80000 -1.253
58.82000 0.044
58.84000 0.558
58.86000 -1.315
58.88000 -2.203
58.90000 0.402
58.92000 2.943
58.94000 4.694
58.96000 1.743
58.98000 -0.058
59.00000 3.654
59.02000 2.593
59.04000 1.978
59.06000 1.858
59.08000 -0.026
59.10000 1.213
59.12000 -0.747
59.14000 -0.883
59.16000 0.979
59.18000 1.151
59.20000 4.398
59.22000 7.124
59.24000 4.019
59.26000 1.999
59.28000 4.285
59.30000 5.428
59.32000 3.284
59.34000 0.651
59.36000 -2.346
59.38000 0.615
59.40000 2.039
59.42000 2.077
59.44000 -0.279
59.46000 3.054
59.48000 1.753
59.50000 2.273
59.52000 4.393
59.54000 6.930
59.56000 7.030
59.58000 5.823
59.60000 4.355
59.62000 3.242
59.64000 3.568
59.66000 4.272
59.68000 2.255
59.70000 1.167
59.72000 2.290
59.74000 5.171
59.76000 4.995
59.78000 1.354
59.80000 1.306
59.82000 6.354
59.84000 5.250
59.86000 2.614
59.88000 1.078
59.90000 2.561
59.92000 1.767
59.94000 1.755
59.96000 -0.311
59.98000 2.082
60.00000 3.819
60.02000 3.639
60.04000 2.967
60.06000 3.031
60.08000 0.950
60.10000 0.386
60.12000 -0.009
60.14000 1.505
60.16000 3.829
60.18000 3.798
60.20000 2.334
60.22000 2.561
60.24000 3.028
60.26000 6.573
60.28000 6.562
60.30000 4.282
60.32000 4.110
60.34000 3.944
60.36000 1.094
60.38000 -2.275
60.40000 1.687
60.42000 5.134
60.44000 2.930
60.46000 3.095
60.48000 1.898
60.50000 4.729
60.52000 5.445
60.54000 3.824
60.56000 1.969
60.58000 1.621
60.60000 6.027
60.62000 6.118
60.64000 4.255
60.66000 3.063
60.68000 1.140
60.70000 4.253
60.72000 2.184
60.74000 3.688
60.76000 1.550
60.78000 2.548
60.80000 4.038
60.82000 0.222
60.84000 1.751
60.86000 2.974
60.88000 2.730
60.90000 2.083
60.92000 1.535
60.94000 3.297
60.96000 -0.167
60.98000 1.512
61.00000 0.944
61.02000 0.778
61.04000 -2.299
61.06000 -0.860
61.08000 -1.826
61.10000 -0.985
61.12000 0.812
61.14000 -1.374
61.16000 -0.906
61.18000 2.638
61.20000 2.453
61.22000 -1.478
61.24000 1.104
61.26000 3.119
61.28000 1.753
61.30000 -1.597
61.32000 2.628
61.34000 2.682
61.36000 2.930
61.38000 0.234
61.40000 3.201
61.42000 5.520
61.44000 1.272
61.46000 0.237
61.48000 -0.981
61.50000 1.969
61.52000 1.966
61.54000 -1.173
61.56000 -0.238
61.58000 2.709
61.60000 5.885
61.62000 5.520
61.64000 5.143
61.66000 3.576
61.68000 0.200
61.70000 -1.175
61.72000 -2.297
61.74000 -0.359
61.76000 1.272
61.78000 -0.668
61.80000 0.699
61.82000 3.325
61.84000 2.502
61.86000 -0.736
61.88000 2.719
61.90000 1.406
61.92000 0.571
61.94000 1.989
61.96000 2.112
61.98000 1.589
62.00000 3.763
62.02000 5.718
62.04000 4.831
62.06000 2.953
62.08000 2.427
62.10000 0.989
62.12000 -0.540
62.14000 3.186
62.16000 2.858
62.18000 3.331
62.20000 3.400
62.22000 2.580
62.24000 0.608
62.26000 1.095
62.28000 1.462
62.30000 0.097
62.32000 2.044
62.34000 4.072
62.36000 1.114
62.38000 2.603
62.40000 2.479
62.42000 -0.225
62.44000 -2.208
62.46000 -0.520
62.48000 1.271
62.50000 -0.839
62.52000 0.974
62.54000 2.683
62.56000 2.275
62.58000 3.534
62.60000 5.338
62.62000 2.471
62.64000 3.760
62.66000 3.578
62.68000 3.155
62.70000 0.948
62.72000 0.600
62.74000 3.299
62.76000 3.471
62.78000 2.144
62.80000 4.115
62.82000 2.427
62.84000 3.635
62.86000 3.555
62.88000 1.580
62.90000 1.655
62.92000 2.269
62.94000 1.586
62.96000 2.332
62.98000 3.378
63.00000 2.237
63.02000 -0.623
63.04000 -2.234
63.06000 0.405
63.08000 0.859
63.10000 3.886
63.12000 2.075
63.14000 -0.412
63.16000 2.431
63.18000 5.053
63.20000 3.859
63.22000 3.147
63.24000 4.929
63.26000 5.559
63.28000 6.296
63.30000 5.044
63.32000 3.613
63.34000 1.359
63.36000 3.292
63.38000 4.314
63.40000 5.542
63.42000 3.296
63.44000 2.842
63.46000 4.399
63.48000 2.088
63.50000 0.357
63.52000 2.302
63.54000 -1.715
63.56000 1.493
63.58000 2.278
63.60000 2.729
63.62000 1.500
63.64000 -2.011
63.66000 -0.342
63.68000 3.519
63.70000 0.703
63.72000 0.294
63.74000 3.260
63.76000 5.821
63.78000 1.727
63.80000 1.035
63.82000 1.506
63.84000 1.441
63.86000 1.978
63.88000 3.837
63.90000 1.964
63.92000 -1.847
63.94000 2.565
63.96000 1.488
63.98000 1.767
64.00000 0.668
64.02000 1.414
64.04000 3.848
64.06000 1.260
64.08000 0.345
64.10000 -0.691
64.12000 -0.320
64.14000 0.393
64.16000 2.043
64.18000 0.174
64.20000 2.698
64.22000 1.940
64.24000 -2.255
64.26000 2.253
64.28000 3.571
64.30000 1.152
64.32000 -0.351
64.34000 -0.859
64.36000 2.308
64.38000 3.973
64.40000 2.882
64.42000 1.663
64.44000 1.658
64.46000 1.273
64.48000 0.398
64.50000 2.032
64.52000 -0.415
64.54000 1.405
64.56000 1.850
64.58000 0.848
64.60000 1.131
64.62000 4.522
64.64000 2.169
64.66000 2.007
64.68000 -1.772
64.70000 2.068
64.72000 1.601
64.74000 1.080
64.76000 1.218
64.78000 -0.655
64.80000 -1.207
64.82000 -1.454
64.84000 -2.266
64.86000 -0.123
64.88000 0.426
64.90000 3.696
64.92000 1.696
64.94000 0.667
64.96000 -0.034
64.98000 -0.418
65.00000 1.730
65.02000 0.961
65.04000 0.050
65.06000 -2.128
65.08000 -0.206
65.10000 0.234
65.12000 2.451
65.14000 0.605
65.16000 1.703
65.18000 1.213
65.20000 0.597
65.22000 1.730
65.24000 2.244
65.26000 1.299
65.28000 0.849
65.30000 -0.157
65.32000 -1.652
65.34000 -2.275
65.36000 -0.958
65.38000 -1.123
65.40000 -2.222
65.42000 -2.244
65.44000 0.151
65.46000 1.161
65.48000 0.700
65.50000 -0.819
65.52000 -0.370
65.54000 0.297
65.56000 0.406
65.58000 -0.339
65.60000 1.945
65.62000 3.057
65.64000 2.749
65.66000 2.339
65.68000 1.035
65.70000 0.736
65.72000 1.482
65.74000 1.113
65.76000 1.346
65.78000 5.955
65.80000 0.974
65.82000 0.481
65.84000 5.058
65.86000 2.889
65.88000 3.541
65.90000 1.879
65.92000 1.612
65.94000 -0.132
65.96000 0.234
65.98000 -2.032
66.00000 -0.386
66.02000 0.702
66.04000 2.066
66.06000 2.785
66.08000 2.166
66.10000 4.076
66.12000 3.877
66.14000 2.921
66.16000 3.962
66.18000 0.857
66.20000 0.526
66.22000 1.409
66.24000 2.101
66.26000 5.317
66.28000 4.502
66.30000 4.250
66.32000 5.494
66.34000 4.664
66.36000 6.639
66.38000 4.724
66.40000 4.906
66.42000 5.731
66.44000 7.948
66.46000 5.669
66.48000 4.126
66.50000 6.868
66.52000 6.482
66.54000 4.584
66.56000 6.040
66.58000 6.250
66.60000 8.120
66.62000 6.886
66.64000 3.794
66.66000 3.005
66.68000 6.018
66.70000 8.848
66.72000 6.332
66.74000 4.517
66.76000 5.026
66.78000 3.325
66.80000 3.349
66.82000 3.033
66.84000 3.302
66.86000 6.698
66.88000 6.539
66.90000 3.884
66.92000 2.189
66.94000 0.101
66.96000 1.025
66.98000 3.500
67.00000 2.644
67.02000 1.917
67.04000 0.913
67.06000 1.866
67.08000 0.376
67.10000 2.184
67.12000 1.972
67.14000 -0.989
67.16000 -0.398
67.18000 1.401
67.20000 0.672
67.22000 -0.931
67.24000 0.681
67.26000 2.032
67.28000 1.877
67.30000 0.335
67.32000 -0.870
67.34000 -0.111
67.36000 -0.157
67.38000 0.456
67.40000 -0.421
67.42000 -0.026
67.44000 -0.545
67.46000 3.592
67.48000 -0.427
67.50000 -2.215
67.52000 -1.242
67.54000 1.090
67.56000 -0.338
67.58000 -0.310
67.60000 0.833
67.62000 1.100
67.64000 -1.997
67.66000 -1.328
67.68000 0.265
67.70000 2.170
67.72000 0.201
67.74000 -1.053
67.76000 -1.639
67.78000 0.167
67.80000 0.822
67.82000 -2.184
67.84000 -2.163
67.86000 0.268
67.88000 1.433
67.90000 1.460
67.92000 1.619
67.94000 1.022
67.96000 -0.053
67.98000 0.342
68.00000 -1.942
68.02000 -1.428
68.04000 -0.280
68.06000 2.864
68.08000 2.386
68.10000 3.776
68.12000 2.503
68.14000 0.690
68.16000 0.596
68.18000 1.647
68.20000 0.345
68.22000 0.047
68.24000 0.978
68.26000 0.019
68.28000 2.564
68.30000 -0.420
68.32000 2.273
68.34000 1.720
68.36000 2.984
68.38000 3.024
68.40000 2.737
68.42000 2.401
68.44000 0.558
68.46000 0.558
68.48000 0.581
68.50000 0.784
68.52000 5.226
68.54000 5.084
68.56000 2.398
68.58000 1.213
68.60000 3.083
68.62000 4.556
68.64000 3.238
68.66000 0.717
68.68000 0.660
68.70000 1.606
68.72000 2.154
68.74000 1.387
68.76000 1.197
68.78000 0.176
68.80000 -2.061
68.82000 1.804
68.84000 2.922
68.86000 2.875
68.88000 1.715
68.90000 1.748
68.92000 2.209
68.94000 3.345
68.96000 3.208
68.98000 2.387
69.00000 0.508
69.02000 1.794
69.04000 2.106
69.06000 2.709
69.08000 1.742
69.10000 4.232
69.12000 4.606
69.14000 4.317
69.16000 4.073
69.18000 3.321
69.20000 0.353
69.22000 0.640
69.24000 0.316
69.26000 1.841
69.28000 3.876
69.30000 1.468
69.32000 -0.597
69.34000 -1.230
69.36000 0.516
69.38000 0.911
69.40000 2.407
69.42000 1.930
69.44000 3.512
69.46000 2.524
69.48000 2.724
69.50000 -0.369
69.52000 -0.699
69.54000 1.360
69.56000 3.394
69.58000 1.708
69.60000 2.349
69.62000 3.272
69.64000 0.988
69.66000 0.377
69.68000 0.765
69.70000 0.078
69.72000 0.843
69.74000 2.522
69.76000 0.994
69.78000 0.258
69.80000 3.608
69.82000 2.965
69.84000 -2.090
69.86000 1.409
69.88000 0.018
69.90000 -1.488
69.92000 -0.920
69.94000 -0.317
69.96000 0.266
69.98000 0.665
70.00000 1.405
70.02000 1.333
70.04000 1.425
70.06000 0.174
70.08000 -0.349
70.10000 0.404
70.12000 0.928
70.14000 -2.086
70.16000 -0.448
70.18000 -0.241
70.20000 1.077
70.22000 0.189
70.24000 0.268
70.26000 0.786
70.28000 0.127
70.30000 2.436
70.32000 1.030
70.34000 1.087
70.36000 0.201
70.38000 2.331
70.40000 1.038
70.42000 0.091
70.44000 2.706
70.46000 2.884
70.48000 1.802
70.50000 -0.515
70.52000 -1.577
70.54000 1.106
70.56000 0.313
70.58000 0.517
70.60000 -0.903
70.62000 0.829
70.64000 2.226
70.66000 -0.065
70.68000 1.232
70.70000 0.405
70.72000 -0.540
70.74000 -0.429
70.76000 0.929
70.78000 -0.129
70.80000 -0.727
70.82000 1.911
70.84000 3.227
70.86000 1.775
70.88000 0.146
70.90000 1.759
70.92000 2.649
70.94000 -0.550
70.96000 0.546
70.98000 2.172
71.00000 1.364
71.02000 1.699
71.04000 1.867
71.06000 -0.501
71.08000 -2.053
71.10000 0.321
71.12000 3.564
71.14000 0.039
71.16000 1.281
71.18000 0.117
71.20000 -0.038
71.22000 -0.087
71.24000 0.872
71.26000 -0.889
71.28000 -0.785
71.30000 0.780
71.32000 0.477
71.34000 -1.102
71.36000 -0.347
71.38000 2.515
71.40000 2.972
71.42000 -0.346
71.44000 0.045
71.46000 -0.632
71.48000 -0.045
71.50000 0.247
71.52000 1.321
71.54000 0.681
71.56000 0.492
71.58000 -1.387
71.60000 -1.176
71.62000 0.525
71.64000 1.205
71.66000 1.843
71.68000 1.965
71.70000 1.029
71.72000 2.797
71.74000 2.454
71.76000 0.448
71.78000 -0.579
71.80000 0.952
71.82000 0.145
71.84000 1.409
71.86000 3.389
71.88000 -1.470
71.90000 -2.000
71.92000 0.460
71.94000 2.883
71.96000 3.461
71.98000 3.319
72.00000 3.494
72.02000 4.446
72.04000 1.221
72.06000 0.440
72.08000 0.102
72.10000 -1.158
72.12000 -1.990
72.14000 1.779
72.16000 -1.904
72.18000 -1.333
72.20000 0.460
72.22000 0.916
72.24000 -0.638
72.26000 -0.118
72.28000 -0.931
72.30000 -1.049
72.32000 -1.291
72.34000 0.610
72.36000 0.796
72.38000 0.984
72.40000 2.207
72.42000 2.998
72.44000 1.288
72.46000 -0.033
72.48000 -0.747
72.50000 1.506
72.52000 -0.014
72.54000 0.733
72.56000 2.441
72.58000 1.440
72.60000 1.945
72.62000 0.068
72.64000 -0.971
72.66000 0.131
72.68000 -0.517
72.70000 -1.861
72.72000 1.997
72.74000 3.351
72.76000 1.603
72.78000 -0.928
72.80000 0.521
72.82000 -0.971
72.84000 0.753
72.86000 -1.431
72.88000 -0.305
72.90000 -1.263
72.92000 -0.048
72.94000 -0.808
72.96000 0.737
72.98000 2.392
73.00000 2.273
73.02000 1.478
73.04000 1.753
73.06000 1.013
73.08000 -0.484
73.10000 -0.257
73.12000 0.252
73.14000 0.364
73.16000 0.410
73.18000 -0.891
73.20000 -1.202
73.22000 2.618
73.24000 -0.256
73.26000 0.015
73.28000 0.771
73.30000 2.094
73.32000 0.001
73.34000 0.800
73.36000 -1.030
73.38000 -1.287
73.40000 -1.210
73.42000 3.244
73.44000 3.642
73.46000 1.587
73.48000 -0.660
73.50000 -0.721
73.52000 0.942
73.54000 0.289
73.56000 -1.924
73.58000 -1.306
73.60000 -0.278
73.62000 3.439
73.64000 2.641
73.66000 2.080
73.68000 2.181
73.70000 2.244
73.72000 0.626
73.74000 -0.514
73.76000 2.905
73.78000 2.729
73.80000 2.448
73.82000 -0.338
73.84000 -1.963
73.86000 1.352
73.88000 2.505
73.90000 1.050
73.92000 0.353
73.94000 2.645
73.96000 2.683
73.98000 0.177
74.00000 0.698
74.02000 1.827
74.04000 0.676
74.06000 -0.148
74.08000 0.581
74.10000 3.202
74.12000 3.063
74.14000 3.619
74.16000 2.328
74.18000 1.051
74.20000 1.646
74.22000 4.214
74.24000 3.566
74.26000 3.189
74.28000 3.625
74.30000 4.766
74.32000 2.062
74.34000 -1.651
74.36000 0.817
74.38000 1.213
74.40000 2.074
74.42000 -0.710
74.44000 0.411
74.46000 2.746
74.48000 -0.110
74.50000 1.055
74.52000 1.859
74.54000 2.983
74.56000 4.223
74.58000 2.467
74.60000 2.675
74.62000 2.103
74.64000 2.525
74.66000 -0.615
74.68000 0.287
74.70000 -0.493
74.72000 2.997
74.74000 2.532
74.76000 1.890
74.78000 1.307
74.80000 0.384
74.82000 1.131
74.84000 0.188
74.86000 1.531
74.88000 2.888
74.90000 -0.217
74.92000 -0.618
74.94000 -1.948
74.96000 -0.723
74.98000 1.869
75.00000 3.286
75.02000 2.318
75.04000 0.449
75.06000 3.711
75.08000 3.822
75.10000 2.683
75.12000 2.404
75.14000 2.451
75.16000 3.975
75.18000 2.362
75.20000 0.123
75.22000 2.269
75.24000 1.494
75.26000 -0.010
75.28000 -1.927
75.30000 2.478
75.32000 3.453
75.34000 5.054
75.36000 2.813
75.38000 3.966
75.40000 3.372
75.42000 2.645
75.44000 2.137
75.46000 4.343
75.48000 4.077
75.50000 1.042
75.52000 4.421
75.54000 6.280
75.56000 5.545
75.58000 3.708
75.60000 2.068
75.62000 4.445
75.64000 3.314
75.66000 0.556
75.68000 0.687
75.70000 1.791
75.72000 1.294
75.74000 3.229
75.76000 5.096
75.78000 4.312
75.80000 2.857
75.82000 4.185
75.84000 5.505
75.86000 1.416
75.88000 -0.674
75.90000 -1.715
75.92000 0.033
75.94000 2.305
75.96000 3.933
75.98000 0.061
76.00000 -0.951
76.02000 -1.103
76.04000 -0.731
76.06000 -0.915
76.08000 -0.235
76.10000 5.363
76.12000 6.170
76.14000 2.061
76.16000 4.434
76.18000 2.638
76.20000 2.196
76.22000 5.784
76.24000 5.520
76.26000 1.347
76.28000 -0.037
76.30000 1.889
76.32000 3.082
76.34000 0.680
76.36000 -0.848
76.38000 -0.843
76.40000 2.307
76.42000 6.231
76.44000 3.410
76.46000 2.572
76.48000 2.733
76.50000 0.017
76.52000 -0.293
76.54000 0.540
76.56000 2.868
76.58000 2.395
76.60000 5.928
76.62000 4.608
76.64000 1.935
76.66000 2.665
76.68000 2.440
76.70000 1.405
76.72000 0.035
76.74000 -0.266
76.76000 -0.955
76.78000 -0.343
76.80000 4.040
76.82000 5.476
76.84000 4.103
76.86000 0.926
76.88000 -1.236
76.90000 -0.901
76.92000 2.012
76.94000 -2.009
76.96000 0.069
76.98000 3.857
77.00000 3.498
77.02000 2.437
77.04000 3.840
77.06000 2.423
77.08000 1.107
77.10000 0.524
77.12000 2.527
77.14000 4.789
77.16000 3.321
77.18000 2.823
77.20000 2.675
77.22000 1.605
77.24000 0.654
77.26000 1.064
77.28000 2.445
77.30000 4.051
77.32000 3.454
77.34000 -0.156
77.36000 5.109
77.38000 3.991
77.40000 2.334
77.42000 0.695
77.44000 0.564
77.46000 3.626
77.48000 2.499
77.50000 1.407
77.52000 -0.032
77.54000 -0.819
77.56000 -0.372
77.58000 -0.427
77.60000 -0.308
77.62000 1.386
77.64000 1.028
77.66000 3.248
77.68000 2.699
77.70000 3.160
77.72000 1.439
77.74000 1.759
77.76000 1.557
77.78000 -2.052
77.80000 0.004
77.82000 2.736
77.84000 5.456
77.86000 1.683
77.88000 -0.345
77.90000 1.136
77.92000 0.881
77.94000 1.005
77.96000 1.300
77.98000 0.099
78.00000 0.512
78.02000 2.627
78.04000 3.157
78.06000 -1.280
78.08000 -0.410
78.10000 1.596
78.12000 0.215
78.14000 3.959
78.16000 3.761
78.18000 1.670
78.20000 -2.078
78.22000 0.939
78.24000 0.316
78.26000 -0.894
78.28000 -1.270
78.30000 -0.828
78.32000 0.609
78.34000 0.035
78.36000 1.111
78.38000 4.341
78.40000 0.806
78.42000 2.986
78.44000 2.541
78.46000 3.341
78.48000 2.577
78.50000 0.653
78.52000 2.749
78.54000 3.315
78.56000 0.235
78.58000 1.860
78.60000 2.250
78.62000 3.133
78.64000 1.333
78.66000 1.023
78.68000 0.644
78.70000 0.703
78.72000 2.843
78.74000 -0.298
78.76000 -0.938
78.78000 -0.500
78.80000 0.787
78.82000 0.560
78.84000 0.635
78.86000 0.657
78.88000 0.580
78.90000 0.980
78.92000 -1.412
78.94000 -0.980
78.96000 -1.161
78.98000 -1.882
79.00000 -1.587
79.02000 3.089
79.04000 4.577
79.06000 3.229
79.08000 3.396
79.10000 5.255
79.12000 5.345
79.14000 2.558
79.16000 3.793
79.18000 4.946
79.20000 2.738
79.22000 2.208
79.24000 2.913
79.26000 6.657
79.28000 7.998
79.30000 9.305
79.32000 6.312
79.34000 6.144
79.36000 9.125
79.38000 7.314
79.40000 5.126
79.42000 6.251
79.44000 7.231
79.46000 9.350
79.48000 12.769
79.50000 14.497
79.52000 13.452
79.54000 14.856
79.56000 10.136
79.58000 10.609
79.60000 10.983
79.62000 9.622
79.64000 10.826
79.66000 11.940
79.68000 14.421
79.70000 16.862
79.72000 18.019
79.74000 19.995
79.76000 17.827
79.78000 15.987
79.80000 20.882
79.82000 19.103
79.84000 21.192
79.86000 25.890
79.88000 24.097
79.90000 18.531
79.92000 19.152
79.94000 19.625
79.96000 19.821
79.98000 20.430
80.00000 21.819
80.02000 23.302
80.04000 20.665
80.06000 20.721
80.08000 23.267
80.10000 22.393
80.12000 19.661
80.14000 23.810
80.16000 17.883
80.18000 15.834
80.20000 18.342
80.22000 17.831
80.24000 18.863
80.26000 20.384
80.28000 22.123
80.30000 19.727
80.32000 22.511
80.34000 18.352
80.36000 22.865
80.38000 17.558
80.40000 16.771
80.42000 17.819
80.44000 17.791
80.46000 17.046
80.48000 21.026
80.50000 18.895
80.52000 15.441
80.54000 13.015
80.56000 13.727
80.58000 14.107
80.60000 18.983
80.62000 18.347
80.64000 16.902
80.66000 13.734
80.68000 14.461
80.70000 18.771
80.72000 16.711
80.74000 12.035
80.76000 12.149
80.78000 8.862
80.80000 5.504
80.82000 9.972
80.84000 11.070
80.86000 7.738
80.88000 7.308
80.90000 7.380
80.92000 10.248
80.94000 6.478
80.96000 7.725
80.98000 9.182
81.00000 7.632
81.02000 6.324
81.04000 2.185
81.06000 6.052
81.08000 7.484
81.10000 5.170
81.12000 7.205
81.14000 7.262
81.16000 5.585
81.18000 3.355
81.20000 1.740
81.22000 7.409
81.24000 9.237
81.26000 5.449
81.28000 3.875
81.30000 3.804
81.32000 1.678
81.34000 6.570
81.36000 4.768
81.38000 6.778
81.40000 4.834
81.42000 2.141
81.44000 0.728
81.46000 0.117
81.48000 3.924
81.50000 2.759
81.52000 2.195
81.54000 1.984
81.56000 3.866
81.58000 3.453
81.60000 2.898
81.62000 1.473
81.64000 3.550
81.66000 1.062
81.68000 -2.184
81.70000 1.262
81.72000 2.229
81.74000 4.408
81.76000 3.933
81.78000 4.045
81.80000 2.891
81.82000 1.145
81.84000 2.767
81.86000 4.971
81.88000 2.866
81.90000 5.148
81.92000 4.489
81.94000 5.937
81.96000 4.388
81.98000 -0.805
82.00000 0.367
82.02000 2.042
82.04000 2.940
82.06000 1.947
82.08000 1.998
82.10000 2.344
82.12000 2.986
82.14000 2.260
82.16000 4.174
82.18000 3.570
82.20000 2.542
82.22000 -2.172
82.24000 3.457
82.26000 5.084
82.28000 6.230
82.30000 4.464
82.32000 2.737
82.34000 3.221
82.36000 2.110
82.38000 3.439
82.40000 4.488
82.42000 4.649
82.44000 1.928
82.46000 -0.183
82.48000 3.340
82.50000 4.944
82.52000 1.460
82.54000 2.062
82.56000 3.277
82.58000 1.768
82.60000 4.973
82.62000 4.026
82.64000 2.033
82.66000 4.637
82.68000 4.690
82.70000 5.907
82.72000 7.216
82.74000 5.635
82.76000 8.192
82.78000 9.670
82.80000 8.040
82.82000 7.883
82.84000 3.213
82.86000 5.349
82.88000 6.603
82.90000 7.220
82.92000 7.549
82.94000 5.347
82.96000 5.580
82.98000 10.222
83.00000 12.261
83.02000 11.822
83.04000 10.413
83.06000 8.904
83.08000 5.397
83.10000 5.430
83.12000 5.927
83.14000 8.946
83.16000 12.058
83.18000 12.340
83.20000 11.629
83.22000 13.652
83.24000 10.256
83.26000 9.539
83.28000 14.003
83.30000 17.528
83.32000 15.729
83.34000 16.770
83.36000 17.820
83.38000 17.982
83.40000 14.589
83.42000 14.562
83.44000 14.585
83.46000 16.086
83.48000 22.564
83.50000 25.090
83.52000 24.434
83.54000 23.141
83.56000 22.050
83.58000 25.350
83.60000 24.448
83.62000 27.058
83.64000 27.374
83.66000 28.066
83.68000 29.253
83.70000 29.907
83.72000 33.327
83.74000 35.299
83.76000 34.103
83.78000 36.674
83.80000 36.754
83.82000 36.395
83.84000 38.388
83.86000 39.381
83.88000 39.019
83.90000 35.043
83.92000 35.921
83.94000 35.578
83.96000 41.108
83.98000 43.736
84.00000 43.292
84.02000 39.956
84.04000 38.574
84.06000 39.882
84.08000 37.973
84.10000 38.000
84.12000 39.486
84.14000 37.887
84.16000 38.295
84.18000 38.549
84.20000 40.288
84.22000 39.975
84.24000 36.858
84.26000 37.934
84.28000 40.878
84.30000 37.343
84.32000 32.550
84.34000 32.717
84.36000 34.679
84.38000 30.910
84.40000 33.679
84.42000 29.371
84.44000 25.947
84.46000 26.935
84.48000 24.084
84.50000 22.573
84.52000 25.393
84.54000 25.710
84.56000 23.956
84.58000 21.074
84.60000 21.860
84.62000 24.537
84.64000 21.178
84.66000 16.705
84.68000 15.949
84.70000 19.328
84.72000 19.341
84.74000 16.289
84.76000 17.476
84.78000 12.705
84.80000 10.859
84.82000 14.280
84.84000 12.359
84.86000 8.340
84.88000 9.907
84.90000 11.876
84.92000 8.255
84.94000 10.212
84.96000 8.025
84.98000 9.118
85.00000 6.968
85.02000 6.791
85.04000 7.420
85.06000 6.003
85.08000 3.080
85.10000 3.881
85.12000 3.965
85.14000 4.365
85.16000 6.684
85.18000 6.382
85.20000 5.144
85.22000 2.763
85.24000 4.222
85.26000 2.643
85.28000 2.509
85.30000 2.760
85.32000 2.779
85.34000 2.368
85.36000 1.961
85.38000 3.073
85.40000 2.909
85.42000 2.320
85.44000 0.126
85.46000 0.959
85.48000 0.510
85.50000 0.417
85.52000 1.043
85.54000 0.585
85.56000 0.922
85.58000 1.718
85.60000 2.173
85.62000 4.408
85.64000 5.572
85.66000 1.732
85.68000 2.278
85.70000 0.081
85.72000 -1.983
85.74000 -0.058
85.76000 0.514
85.78000 0.560
85.80000 -0.500
85.82000 0.010
85.84000 2.437
85.86000 1.974
85.88000 -0.290
85.90000 1.553
85.92000 -1.323
85.94000 -0.555
85.96000 -0.671
85.98000 0.609
86.00000 3.332
86.02000 1.107
86.04000 -1.963
86.06000 1.237
86.08000 1.255
86.10000 1.452
86.12000 0.810
86.14000 -0.773
86.16000 -1.491
86.18000 3.322
86.20000 4.209
86.22000 3.330
86.24000 2.330
86.26000 3.010
86.28000 2.213
86.30000 3.805
86.32000 3.219
86.34000 2.777
86.36000 2.993
86.38000 3.174
86.40000 3.034
86.42000 2.111
86.44000 0.939
86.46000 -0.986
86.48000 -1.281
86.50000 0.045
86.52000 3.170
86.54000 2.546
86.56000 -0.510
86.58000 -1.913
86.60000 1.167
86.62000 3.980
86.64000 2.348
86.66000 1.363
86.68000 -0.525
86.70000 2.091
86.72000 4.779
86.74000 5.479
86.76000 1.928
86.78000 2.413
86.80000 1.243
86.82000 1.620
86.84000 -0.634
86.86000 0.599
86.88000 0.577
86.90000 4.543
86.92000 6.069
86.94000 0.996
86.96000 0.928
86.98000 0.597
87.00000 5.053
87.02000 4.505
87.04000 3.657
87.06000 1.100
87.08000 4.681
87.10000 1.907
87.12000 2.821
87.14000 -0.042
87.16000 0.092
87.18000 0.807
87.20000 2.473
87.22000 1.437
87.24000 1.570
87.26000 3.496
87.28000 1.931
87.30000 2.916
87.32000 1.023
87.34000 2.036
87.36000 0.983
87.38000 0.886
87.40000 1.286
87.42000 -1.826
87.44000 0.707
87.46000 3.701
87.48000 4.335
87.50000 5.164
87.52000 4.850
87.54000 4.081
87.56000 4.946
87.58000 4.098
87.60000 0.286
87.62000 3.269
87.64000 6.823
87.66000 4.080
87.68000 2.110
87.70000 1.613
87.72000 3.171
87.74000 0.147
87.76000 1.522
87.78000 1.409
87.80000 2.130
87.82000 2.795
87.84000 5.019
87.86000 4.102
87.88000 3.860
87.90000 3.120
87.92000 4.550
87.94000 0.856
87.96000 0.409
87.98000 1.337
88.00000 2.946
88.02000 1.815
88.04000 -1.274
88.06000 -1.734
88.08000 -0.189
88.10000 1.628
88.12000 2.774
88.14000 1.340
88.16000 -0.076
88.18000 -1.286
88.20000 0.669
88.22000 2.785
88.24000 2.752
88.26000 0.638
88.28000 1.593
88.30000 2.414
88.32000 0.472
88.34000 -0.365
88.36000 1.203
88.38000 0.175
88.40000 -0.197
88.42000 -0.843
88.44000 2.242
88.46000 3.311
88.48000 2.524
88.50000 0.616
88.52000 0.903
88.54000 2.508
88.56000 4.337
88.58000 1.075
88.60000 1.503
88.62000 3.792
88.64000 3.349
88.66000 -0.039
88.68000 2.776
88.70000 4.973
88.72000 2.010
88.74000 3.018
88.76000 0.853
88.78000 -1.844
88.80000 -0.579
88.82000 0.952
88.84000 -0.451
88.86000 0.011
88.88000 0.301
88.90000 3.303
88.92000 0.383
88.94000 1.493
88.96000 1.874
88.98000 -1.020
89.00000 -0.245
89.02000 1.028
89.04000 1.143
89.06000 3.150
89.08000 2.906
89.10000 1.755
89.12000 0.031
89.14000 2.946
89.16000 5.198
89.18000 3.779
89.20000 1.621
89.22000 1.449
89.24000 -1.827
89.26000 -0.601
89.28000 3.177
89.30000 2.617
89.32000 1.648
89.34000 -1.001
89.36000 -1.821
89.38000 1.466
89.40000 4.544
89.42000 3.034
89.44000 3.367
89.46000 1.929
89.48000 2.693
89.50000 4.383
89.52000 2.655
89.54000 1.798
89.56000 3.181
89.58000 2.728
89.60000 2.339
89.62000 3.413
89.64000 5.176
89.66000 3.501
89.68000 1.527
89.70000 1.833
89.72000 2.097
89.74000 1.405
89.76000 0.233
89.78000 -1.814
89.80000 0.030
89.82000 0.573
89.84000 3.088
89.86000 1.853
89.88000 0.774
89.90000 1.412
89.92000 1.906
89.94000 0.822
89.96000 0.916
89.98000 0.077
90.00000 0.128
90.02000 1.120
90.04000 1.883
90.06000 6.359
90.08000 5.870
90.10000 5.313
90.12000 1.417
90.14000 0.841
90.16000 4.979
90.18000 1.829
90.20000 0.788
90.22000 3.402
90.24000 3.392
90.26000 2.218
90.28000 2.166
90.30000 4.562
90.32000 5.124
90.34000 3.536
90.36000 1.493
90.38000 2.845
90.40000 1.528
90.42000 3.008
90.44000 6.331
90.46000 3.127
90.48000 0.316
90.50000 1.867
90.52000 2.031
90.54000 2.349
90.56000 3.195
90.58000 3.249
90.60000 5.233
90.62000 3.245
90.64000 2.742
90.66000 1.742
90.68000 -1.778
90.70000 3.630
90.72000 3.455
90.74000 3.401
90.76000 2.912
90.78000 5.575
90.80000 2.480
90.82000 1.393
90.84000 1.631
90.86000 3.069
90.88000 5.812
90.90000 2.488
90.92000 1.121
90.94000 2.688
90.96000 4.127
90.98000 4.097
91.00000 4.335
91.02000 2.714
91.04000 0.570
91.06000 2.787
91.08000 4.717
91.10000 4.673
91.12000 3.010
91.14000 2.054
91.16000 4.440
91.18000 5.344
91.20000 4.004
91.22000 3.930
91.24000 1.869
91.26000 2.260
91.28000 -0.142
91.30000 0.860
91.32000 2.430
91.34000 2.255
91.36000 2.821
91.38000 2.480
91.40000 2.125
91.42000 2.340
91.44000 -1.310
91.46000 1.853
91.48000 3.116
91.50000 6.147
91.52000 4.051
91.54000 2.661
91.56000 1.996
91.58000 3.421
91.60000 3.909
91.62000 3.285
91.64000 2.299
91.66000 2.537
91.68000 0.659
91.70000 -0.860
91.72000 3.083
91.74000 0.759
91.76000 0.754
91.78000 -0.235
91.80000 -0.039
91.82000 1.940
91.84000 4.168
91.86000 6.900
91.88000 4.674
91.90000 3.196
91.92000 0.188
91.94000 1.252
91.96000 0.444
91.98000 0.290
92.00000 2.810
92.02000 3.960
92.04000 3.387
92.06000 -0.251
92.08000 -1.082
92.10000 5.777
92.12000 4.936
92.14000 4.211
92.16000 3.224
92.18000 6.419
92.20000 4.678
92.22000 3.107
92.24000 1.980
92.26000 2.176
92.28000 2.720
92.30000 1.304
92.32000 4.979
92.34000 6.777
92.36000 3.975
92.38000 6.263
92.40000 7.012
92.42000 4.247
92.44000 -1.817
92.46000 1.812
92.48000 4.326
92.50000 5.273
92.52000 3.669
92.54000 5.862
92.56000 4.366
92.58000 2.329
92.60000 2.608
92.62000 2.017
92.64000 -0.396
92.66000 0.422
92.68000 0.967
92.70000 2.875
92.72000 4.250
92.74000 4.007
92.76000 0.237
92.78000 0.556
92.80000 1.250
92.82000 2.982
92.84000 3.108
92.86000 2.108
92.88000 0.595
92.90000 0.991
92.92000 2.451
92.94000 3.684
92.96000 6.341
92.98000 4.757
93.00000 2.697
93.02000 2.046
93.04000 3.069
93.06000 1.614
93.08000 0.502
93.10000 4.761
93.12000 4.439
93.14000 0.232
93.16000 3.081
93.18000 4.863
93.20000 3.202
93.22000 1.081
93.24000 2.842
93.26000 0.737
93.28000 1.140
93.30000 2.024
93.32000 3.791
93.34000 3.736
93.36000 1.803
93.38000 -0.942
93.40000 -1.344
93.42000 -0.003
93.44000 1.637
93.46000 4.729
93.48000 6.127
93.50000 3.885
93.52000 0.200
93.54000 1.489
93.56000 4.520
93.58000 1.476
93.60000 2.712
93.62000 3.224
93.64000 2.838
93.66000 1.601
93.68000 1.208
93.70000 -0.369
93.72000 -1.825
93.74000 1.263
93.76000 0.630
93.78000 1.086
93.80000 5.861
93.82000 6.699
93.84000 2.038
93.86000 3.402
93.88000 5.034
93.90000 6.843
93.92000 5.517
93.94000 4.070
93.96000 7.107
93.98000 5.243
94.00000 1.257
94.02000 3.221
94.04000 0.895
94.06000 1.755
94.08000 1.997
94.10000 0.460
94.12000 4.078
94.14000 4.138
94.16000 2.445
94.18000 3.311
94.20000 6.509
94.22000 3.848
94.24000 0.922
94.26000 0.679
94.28000 -0.754
94.30000 1.251
94.32000 2.589
94.34000 2.018
94.36000 1.997
94.38000 1.389
94.40000 1.878
94.42000 2.607
94.44000 7.070
94.46000 9.245
94.48000 3.660
94.50000 1.922
94.52000 4.156
94.54000 2.779
94.56000 3.936
94.58000 2.891
94.60000 1.161
94.62000 2.209
94.64000 4.773
94.66000 4.233
94.68000 5.178
94.70000 6.207
94.72000 5.177
94.74000 4.238
94.76000 3.707
94.78000 1.654
94.80000 3.696
94.82000 7.288
94.84000 7.547
94.86000 4.077
94.88000 5.570
94.90000 3.032
94.92000 1.785
94.94000 -1.846
94.96000 3.061
94.98000 4.649
95.00000 4.806
95.02000 3.319
95.04000 4.277
95.06000 5.458
95.08000 1.462
95.10000 -0.566
95.12000 1.017
95.14000 3.174
95.16000 2.693
95.18000 -0.382
95.20000 2.983
95.22000 5.343
95.24000 0.477
95.26000 1.195
95.28000 1.586
95.30000 -0.806
95.32000 -1.303
95.34000 0.766
95.36000 0.883
95.38000 4.297
95.40000 3.547
95.42000 2.879
95.44000 0.522
95.46000 3.290
95.48000 3.708
95.50000 3.230
95.52000 4.378
95.54000 3.707
95.56000 2.993
95.58000 1.000
95.60000 0.387
95.62000 1.776
95.64000 0.683
95.66000 2.908
95.68000 6.048
95.70000 7.361
95.72000 4.352
95.74000 5.039
95.76000 4.112
95.78000 1.647
95.80000 4.292
95.82000 -1.256
95.84000 0.520
95.86000 1.779
95.88000 6.736
95.90000 6.227
95.92000 5.144
95.94000 0.170
95.96000 -1.486
95.98000 1.868
96.00000 3.272
96.02000 4.011
96.04000 6.845
96.06000 3.355
96.08000 -0.506
96.10000 2.742
96.12000 5.202
96.14000 4.928
96.16000 6.774
96.18000 6.409
96.20000 3.475
96.22000 2.407
96.24000 -1.867
96.26000 -0.889
96.28000 2.984
96.30000 4.192
96.32000 2.508
96.34000 2.802
96.36000 0.598
96.38000 0.583
96.40000 4.028
96.42000 5.292
96.44000 6.325
96.46000 4.902
96.48000 1.585
96.50000 2.989
96.52000 4.878
96.54000 -0.274
96.56000 2.510
96.58000 3.984
96.60000 -1.155
96.62000 1.536
96.64000 -1.857
96.66000 -0.256
96.68000 0.498
96.70000 4.085
96.72000 5.890
96.74000 4.863
96.76000 6.517
96.78000 5.754
96.80000 -0.171
96.82000 -1.855
96.84000 -0.278
96.86000 2.960
96.88000 4.497
96.90000 2.857
96.92000 6.490
96.94000 0.805
96.96000 0.230
96.98000 4.584
97.00000 7.913
97.02000 3.010
97.04000 4.314
97.06000 6.490
97.08000 5.609
97.10000 3.745
97.12000 3.919
97.14000 7.608
97.16000 2.771
97.18000 1.118
97.20000 -0.132
97.22000 0.976
97.24000 3.982
97.26000 3.345
97.28000 1.766
97.30000 5.481
97.32000 3.854
97.34000 3.345
97.36000 3.150
97.38000 1.950
97.40000 4.666
97.42000 5.897
97.44000 5.458
97.46000 2.935
97.48000 1.548
97.50000 -0.046
97.52000 -0.831
97.54000 1.530
97.56000 6.772
97.58000 4.718
97.60000 0.623
97.62000 0.560
97.64000 -1.459
97.66000 -1.374
97.68000 0.212
97.70000 7.479
97.72000 8.063
97.74000 4.769
97.76000 2.855
97.78000 1.661
97.80000 -1.552
97.82000 0.883
97.84000 2.397
97.86000 -1.834
97.88000 3.252
97.90000 5.691
97.92000 3.211
97.94000 1.516
97.96000 4.032
97.98000 4.453
98.00000 3.536
98.02000 0.280
98.04000 0.961
98.06000 4.105
98.08000 5.407
98.10000 3.376
98.12000 0.978
98.14000 2.877
98.16000 5.146
98.18000 3.773
98.20000 1.502
98.22000 1.153
98.24000 3.654
98.26000 0.633
98.28000 4.914
98.30000 2.185
98.32000 2.241
98.34000 6.247
98.36000 5.593
98.38000 3.731
98.40000 2.911
98.42000 4.074
98.44000 2.529
98.46000 7.622
98.48000 6.273
98.50000 4.020
98.52000 1.633
98.54000 3.529
98.56000 5.285
98.58000 6.300
98.60000 9.891
98.62000 5.263
98.64000 3.422
98.66000 2.736
98.68000 3.034
98.70000 3.157
98.72000 4.624
98.74000 2.329
98.76000 4.699
98.78000 3.735
98.80000 -0.228
98.82000 -1.784
98.84000 1.201
98.86000 1.017
98.88000 4.975
98.90000 4.958
98.92000 2.178
98.94000 5.982
98.96000 4.943
98.98000 1.977
99.00000 2.541
99.02000 5.756
99.04000 6.731
99.06000 10.458
99.08000 1.946
99.10000 1.648
99.12000 8.172
99.14000 6.321
99.16000 7.162
99.18000 1.756
99.20000 8.541
99.22000 10.480
99.24000 9.060
99.26000 2.429
99.28000 4.393
99.30000 4.752
99.32000 3.147
99.34000 4.931
99.36000 6.134
99.38000 1.535
99.40000 5.737
99.42000 3.076
99.44000 0.451
99.46000 4.060
99.48000 11.352
99.50000 7.104
99.52000 3.990
99.54000 3.957
99.56000 5.118
99.58000 1.501
99.60000 3.086
99.62000 4.727
99.64000 6.083
99.66000 -0.705
99.68000 -1.784
99.70000 -0.144
99.72000 0.821
99.74000 4.314
99.76000 12.595
99.78000 7.257
99.80000 5.508
99.82000 3.390
99.84000 2.875
99.86000 3.337
99.88000 4.807
99.90000 -5.501
99.92000 4.406
99.94000 -1.869
99.96000 4.868
99.98000 0.000
