'Id: "0011389" Comment: "Integrate frame 0011389_Au-Ir-Rh_Au-Rich_XRD_Mapping-309-0000.gfrmwith cursor Wedge Cursor #5" Operator: "B?rgel" Anode: "Cu" Wavelength: "1.5406" Scantype: "2Theta (TwoTheta)" TimePerStep: "1" X: "27" Y: "31.5" Z: "5.95" 
10.00000 0.000
10.02000 3.063
10.04000 4.782
10.06000 6.209
10.08000 5.966
10.10000 15.391
10.12000 25.525
10.14000 2.623
10.16000 8.978
10.18000 0.526
10.20000 1.720
10.22000 0.477
10.24000 -3.824
10.26000 1.576
10.28000 3.943
10.30000 13.727
10.32000 12.937
10.34000 3.219
10.36000 6.134
10.38000 1.721
10.40000 11.223
10.42000 15.217
10.44000 13.406
10.46000 11.190
10.48000 22.412
10.50000 29.141
10.52000 19.841
10.54000 10.778
10.56000 18.585
10.58000 27.662
10.60000 20.161
10.62000 11.768
10.64000 8.324
10.66000 21.755
10.68000 19.450
10.70000 12.556
10.72000 10.203
10.74000 15.415
10.76000 17.593
10.78000 27.710
10.80000 27.438
10.82000 22.450
10.84000 15.219
10.86000 7.774
10.88000 14.048
10.90000 25.409
10.92000 20.627
10.94000 24.726
10.96000 21.590
10.98000 23.201
11.00000 20.362
11.02000 12.045
11.04000 5.305
11.06000 20.931
11.08000 29.749
11.10000 19.877
11.12000 21.591
11.14000 26.988
11.16000 16.078
11.18000 11.236
11.20000 13.633
11.22000 36.557
11.24000 28.094
11.26000 24.926
11.28000 24.171
11.30000 23.772
11.32000 15.109
11.34000 27.338
11.36000 23.571
11.38000 25.656
11.40000 21.708
11.42000 16.690
11.44000 17.658
11.46000 20.230
11.48000 22.921
11.50000 10.616
11.52000 13.124
11.54000 25.542
11.56000 24.602
11.58000 38.935
11.60000 37.722
11.62000 28.511
11.64000 32.059
11.66000 23.405
11.68000 17.138
11.70000 19.521
11.72000 12.917
11.74000 17.443
11.76000 25.598
11.78000 21.609
11.80000 28.904
11.82000 28.835
11.84000 24.108
11.86000 23.907
11.88000 23.329
11.90000 25.149
11.92000 19.297
11.94000 18.929
11.96000 26.543
11.98000 23.884
12.00000 29.078
12.02000 29.896
12.04000 23.685
12.06000 23.572
12.08000 21.515
12.10000 25.461
12.12000 28.925
12.14000 30.256
12.16000 23.931
12.18000 18.314
12.20000 15.023
12.22000 15.921
12.24000 23.627
12.26000 24.373
12.28000 29.442
12.30000 26.455
12.32000 16.640
12.34000 18.316
12.36000 25.467
12.38000 29.809
12.40000 17.894
12.42000 27.131
12.44000 36.318
12.46000 25.745
12.48000 21.759
12.50000 32.489
12.52000 30.042
12.54000 17.716
12.56000 23.488
12.58000 25.695
12.60000 31.318
12.62000 25.141
12.64000 29.589
12.66000 28.353
12.68000 35.584
12.70000 33.592
12.72000 37.732
12.74000 32.514
12.76000 18.965
12.78000 22.928
12.80000 31.667
12.82000 33.059
12.84000 22.638
12.86000 30.516
12.88000 31.362
12.90000 23.271
12.92000 21.835
12.94000 32.768
12.96000 25.206
12.98000 18.711
13.00000 25.001
13.02000 23.774
13.04000 24.740
13.06000 27.809
13.08000 20.685
13.10000 20.377
13.12000 19.086
13.14000 26.596
13.16000 29.058
13.18000 21.901
13.20000 36.844
13.22000 31.579
13.24000 13.041
13.26000 14.974
13.28000 29.017
13.30000 29.370
13.32000 22.612
13.34000 26.589
13.36000 26.762
13.38000 28.083
13.40000 27.416
13.42000 32.917
13.44000 37.994
13.46000 30.833
13.48000 27.634
13.50000 28.296
13.52000 19.931
13.54000 34.037
13.56000 28.624
13.58000 24.652
13.60000 23.150
13.62000 23.113
13.64000 22.712
13.66000 32.487
13.68000 35.021
13.70000 34.749
13.72000 31.838
13.74000 28.937
13.76000 25.568
13.78000 24.679
13.80000 28.617
13.82000 26.444
13.84000 26.740
13.86000 21.979
13.88000 31.159
13.90000 30.061
13.92000 23.071
13.94000 21.403
13.96000 30.933
13.98000 19.886
14.00000 16.479
14.02000 17.326
14.04000 19.531
14.06000 24.642
14.08000 21.004
14.10000 25.968
14.12000 14.740
14.14000 21.487
14.16000 19.242
14.18000 17.339
14.20000 11.480
14.22000 19.782
14.24000 29.407
14.26000 25.341
14.28000 20.833
14.30000 29.712
14.32000 27.152
14.34000 22.042
14.36000 21.470
14.38000 14.685
14.40000 6.862
14.42000 9.444
14.44000 17.219
14.46000 20.495
14.48000 26.344
14.50000 27.970
14.52000 31.214
14.54000 26.398
14.56000 14.734
14.58000 15.051
14.60000 19.183
14.62000 28.013
14.64000 29.125
14.66000 18.770
14.68000 15.858
14.70000 24.967
14.72000 27.330
14.74000 13.699
14.76000 14.630
14.78000 16.079
14.80000 16.372
14.82000 17.364
14.84000 12.365
14.86000 17.525
14.88000 21.254
14.90000 8.856
14.92000 17.079
14.94000 21.160
14.96000 18.229
14.98000 16.907
15.00000 24.503
15.02000 23.850
15.04000 14.494
15.06000 15.428
15.08000 12.972
15.10000 8.955
15.12000 17.234
15.14000 23.686
15.16000 15.092
15.18000 10.811
15.20000 17.747
15.22000 24.229
15.24000 19.998
15.26000 12.163
15.28000 17.528
15.30000 12.521
15.32000 15.150
15.34000 17.462
15.36000 21.414
15.38000 27.915
15.40000 13.574
15.42000 7.220
15.44000 7.439
15.46000 9.328
15.48000 18.732
15.50000 16.113
15.52000 18.072
15.54000 13.791
15.56000 16.192
15.58000 14.301
15.60000 9.767
15.62000 7.920
15.64000 10.460
15.66000 11.866
15.68000 13.806
15.70000 11.167
15.72000 13.940
15.74000 9.506
15.76000 5.371
15.78000 14.442
15.80000 12.951
15.82000 9.022
15.84000 12.821
15.86000 10.230
15.88000 14.402
15.90000 22.026
15.92000 15.089
15.94000 8.719
15.96000 8.544
15.98000 15.873
16.00000 17.829
16.02000 21.130
16.04000 13.700
16.06000 3.954
16.08000 3.128
16.10000 15.630
16.12000 13.019
16.14000 9.489
16.16000 8.145
16.18000 10.491
16.20000 4.666
16.22000 6.502
16.24000 18.495
16.26000 14.746
16.28000 6.864
16.30000 3.426
16.32000 5.054
16.34000 6.904
16.36000 4.301
16.38000 2.510
16.40000 11.225
16.42000 10.606
16.44000 15.826
16.46000 11.935
16.48000 2.884
16.50000 8.418
16.52000 13.140
16.54000 14.514
16.56000 11.525
16.58000 7.263
16.60000 1.885
16.62000 6.676
16.64000 8.303
16.66000 2.445
16.68000 8.852
16.70000 9.201
16.72000 1.100
16.74000 5.518
16.76000 11.261
16.78000 19.127
16.80000 4.382
16.82000 -2.522
16.84000 3.647
16.86000 8.759
16.88000 -0.591
16.90000 2.788
16.92000 6.908
16.94000 13.283
16.96000 11.327
16.98000 6.739
17.00000 5.333
17.02000 6.651
17.04000 8.066
17.06000 6.467
17.08000 8.648
17.10000 3.989
17.12000 8.203
17.14000 14.527
17.16000 7.618
17.18000 4.884
17.20000 8.163
17.22000 12.491
17.24000 4.969
17.26000 9.188
17.28000 10.414
17.30000 14.044
17.32000 8.443
17.34000 6.975
17.36000 9.273
17.38000 4.380
17.40000 0.276
17.42000 5.198
17.44000 10.735
17.46000 8.701
17.48000 6.005
17.50000 4.386
17.52000 3.002
17.54000 11.757
17.56000 14.563
17.58000 9.579
17.60000 8.048
17.62000 6.246
17.64000 4.641
17.66000 3.980
17.68000 2.417
17.70000 3.600
17.72000 -0.650
17.74000 -1.220
17.76000 1.768
17.78000 -1.588
17.80000 -4.395
17.82000 8.943
17.84000 9.104
17.86000 2.703
17.88000 9.773
17.90000 12.580
17.92000 6.132
17.94000 5.020
17.96000 9.154
17.98000 8.757
18.00000 7.177
18.02000 2.850
18.04000 3.414
18.06000 0.973
18.08000 2.348
18.10000 9.606
18.12000 14.387
18.14000 5.140
18.16000 2.824
18.18000 -0.937
18.20000 2.112
18.22000 8.143
18.24000 3.611
18.26000 6.651
18.28000 6.134
18.30000 1.839
18.32000 4.346
18.34000 2.333
18.36000 1.377
18.38000 0.513
18.40000 -0.276
18.42000 -1.593
18.44000 5.068
18.46000 4.768
18.48000 2.001
18.50000 -3.466
18.52000 3.851
18.54000 4.199
18.56000 -0.170
18.58000 -3.782
18.60000 -3.499
18.62000 -0.971
18.64000 0.284
18.66000 0.246
18.68000 0.362
18.70000 2.903
18.72000 3.209
18.74000 -1.937
18.76000 1.256
18.78000 5.566
18.80000 0.798
18.82000 -0.754
18.84000 -2.419
18.86000 1.357
18.88000 0.996
18.90000 -2.038
18.92000 3.635
18.94000 5.705
18.96000 2.404
18.98000 3.880
19.00000 2.554
19.02000 4.437
19.04000 5.137
19.06000 3.399
19.08000 1.742
19.10000 2.245
19.12000 4.353
19.14000 2.076
19.16000 6.937
19.18000 5.313
19.20000 1.524
19.22000 1.744
19.24000 -1.621
19.26000 5.878
19.28000 3.836
19.30000 1.415
19.32000 2.190
19.34000 2.577
19.36000 2.443
19.38000 -0.516
19.40000 -2.030
19.42000 -2.655
19.44000 1.706
19.46000 5.620
19.48000 7.085
19.50000 5.181
19.52000 2.754
19.54000 2.924
19.56000 2.574
19.58000 5.582
19.60000 6.460
19.62000 -0.897
19.64000 5.343
19.66000 5.681
19.68000 4.021
19.70000 -0.452
19.72000 3.379
19.74000 6.107
19.76000 1.302
19.78000 4.565
19.80000 4.628
19.82000 2.920
19.84000 1.595
19.86000 8.133
19.88000 9.755
19.90000 7.643
19.92000 1.116
19.94000 1.471
19.96000 3.821
19.98000 1.709
20.00000 3.652
20.02000 8.086
20.04000 1.020
20.06000 -2.628
20.08000 -0.965
20.10000 1.033
20.12000 1.018
20.14000 0.917
20.16000 0.044
20.18000 -3.611
20.20000 0.994
20.22000 3.479
20.24000 -4.258
20.26000 1.445
20.28000 5.644
20.30000 0.272
20.32000 4.602
20.34000 -0.087
20.36000 1.450
20.38000 2.046
20.40000 7.578
20.42000 9.884
20.44000 9.651
20.46000 7.293
20.48000 2.435
20.50000 -1.121
20.52000 3.294
20.54000 1.693
20.56000 3.710
20.58000 3.506
20.60000 7.840
20.62000 7.071
20.64000 6.914
20.66000 4.176
20.68000 2.536
20.70000 2.233
20.72000 6.566
20.74000 11.591
20.76000 11.606
20.78000 8.031
20.80000 2.802
20.82000 2.330
20.84000 2.118
20.86000 -0.783
20.88000 3.598
20.90000 4.400
20.92000 4.095
20.94000 4.043
20.96000 7.268
20.98000 3.547
21.00000 -4.228
21.02000 -1.689
21.04000 9.271
21.06000 4.230
21.08000 -1.847
21.10000 2.477
21.12000 0.293
21.14000 1.872
21.16000 1.043
21.18000 11.794
21.20000 4.919
21.22000 5.844
21.24000 4.332
21.26000 2.998
21.28000 8.374
21.30000 6.039
21.32000 4.574
21.34000 9.815
21.36000 9.167
21.38000 4.848
21.40000 5.403
21.42000 1.780
21.44000 -2.254
21.46000 0.332
21.48000 1.865
21.50000 -3.336
21.52000 -0.218
21.54000 4.184
21.56000 1.396
21.58000 2.751
21.60000 -1.726
21.62000 0.743
21.64000 4.418
21.66000 3.280
21.68000 5.613
21.70000 2.219
21.72000 4.425
21.74000 6.095
21.76000 15.930
21.78000 11.052
21.80000 6.452
21.82000 2.308
21.84000 2.242
21.86000 1.794
21.88000 -4.172
21.90000 -0.164
21.92000 6.734
21.94000 1.958
21.96000 3.060
21.98000 3.707
22.00000 -0.402
22.02000 -1.569
22.04000 -0.556
22.06000 4.557
22.08000 4.763
22.10000 4.272
22.12000 4.706
22.14000 7.558
22.16000 5.001
22.18000 4.975
22.20000 2.536
22.22000 2.905
22.24000 7.163
22.26000 6.809
22.28000 3.665
22.30000 -1.427
22.32000 -1.489
22.34000 9.270
22.36000 6.848
22.38000 -4.138
22.40000 1.717
22.42000 1.018
22.44000 5.882
22.46000 3.557
22.48000 2.946
22.50000 0.332
22.52000 -2.922
22.54000 -3.165
22.56000 3.209
22.58000 9.609
22.60000 1.993
22.62000 5.975
22.64000 7.018
22.66000 3.014
22.68000 -1.163
22.70000 2.183
22.72000 2.813
22.74000 -0.561
22.76000 3.974
22.78000 3.427
22.80000 2.776
22.82000 4.318
22.84000 1.559
22.86000 -2.491
22.88000 1.069
22.90000 8.953
22.92000 9.393
22.94000 2.948
22.96000 5.716
22.98000 3.438
23.00000 4.513
23.02000 -2.001
23.04000 -0.830
23.06000 2.878
23.08000 4.573
23.10000 2.929
23.12000 -2.995
23.14000 0.060
23.16000 4.585
23.18000 0.566
23.20000 1.347
23.22000 3.644
23.24000 3.891
23.26000 2.490
23.28000 -2.060
23.30000 -0.715
23.32000 -1.293
23.34000 0.854
23.36000 0.122
23.38000 -4.081
23.40000 1.810
23.42000 2.920
23.44000 1.624
23.46000 5.141
23.48000 7.741
23.50000 9.470
23.52000 11.536
23.54000 3.497
23.56000 -2.606
23.58000 -0.721
23.60000 2.323
23.62000 2.318
23.64000 7.079
23.66000 8.617
23.68000 5.262
23.70000 9.495
23.72000 7.708
23.74000 7.049
23.76000 6.478
23.78000 5.694
23.80000 7.987
23.82000 8.657
23.84000 -0.351
23.86000 1.388
23.88000 5.100
23.90000 8.633
23.92000 8.827
23.94000 8.120
23.96000 10.586
23.98000 4.193
24.00000 -1.289
24.02000 3.180
24.04000 6.887
24.06000 6.782
24.08000 7.822
24.10000 5.142
24.12000 4.872
24.14000 8.462
24.16000 6.868
24.18000 2.584
24.20000 7.770
24.22000 8.738
24.24000 5.979
24.26000 6.744
24.28000 7.104
24.30000 -0.669
24.32000 -4.002
24.34000 3.628
24.36000 8.110
24.38000 1.247
24.40000 2.145
24.42000 4.273
24.44000 5.606
24.46000 5.203
24.48000 5.985
24.50000 7.952
24.52000 5.939
24.54000 8.112
24.56000 5.268
24.58000 6.578
24.60000 9.016
24.62000 6.273
24.64000 8.121
24.66000 0.462
24.68000 2.859
24.70000 5.792
24.72000 4.020
24.74000 8.163
24.76000 5.810
24.78000 3.388
24.80000 -1.833
24.82000 -3.949
24.84000 3.178
24.86000 9.756
24.88000 7.625
24.90000 8.071
24.92000 7.169
24.94000 6.690
24.96000 7.790
24.98000 7.302
25.00000 5.234
25.02000 3.392
25.04000 2.630
25.06000 3.975
25.08000 5.667
25.10000 1.618
25.12000 4.591
25.14000 14.845
25.16000 15.130
25.18000 9.406
25.20000 5.926
25.22000 1.928
25.24000 1.928
25.26000 3.480
25.28000 4.748
25.30000 3.456
25.32000 4.796
25.34000 3.896
25.36000 7.606
25.38000 5.991
25.40000 11.859
25.42000 8.045
25.44000 3.817
25.46000 -1.823
25.48000 8.087
25.50000 8.804
25.52000 4.550
25.54000 8.310
25.56000 10.294
25.58000 1.472
25.60000 0.537
25.62000 4.129
25.64000 1.692
25.66000 3.575
25.68000 8.889
25.70000 6.309
25.72000 5.362
25.74000 5.475
25.76000 3.723
25.78000 -1.148
25.80000 -1.870
25.82000 -0.314
25.84000 -0.107
25.86000 -3.947
25.88000 2.137
25.90000 3.899
25.92000 -1.897
25.94000 -1.203
25.96000 0.549
25.98000 0.618
26.00000 8.112
26.02000 9.500
26.04000 3.784
26.06000 6.597
26.08000 7.538
26.10000 2.706
26.12000 0.975
26.14000 1.537
26.16000 0.913
26.18000 2.090
26.20000 5.123
26.22000 7.319
26.24000 10.765
26.26000 11.296
26.28000 2.087
26.30000 -0.497
26.32000 2.441
26.34000 2.628
26.36000 -0.905
26.38000 0.919
26.40000 3.491
26.42000 7.544
26.44000 5.594
26.46000 -1.297
26.48000 0.342
26.50000 -0.676
26.52000 -1.379
26.54000 -1.576
26.56000 -1.944
26.58000 -1.938
26.60000 -0.012
26.62000 2.214
26.64000 4.922
26.66000 4.058
26.68000 4.455
26.70000 1.128
26.72000 3.624
26.74000 7.147
26.76000 6.023
26.78000 0.507
26.80000 -0.529
26.82000 2.942
26.84000 1.067
26.86000 3.467
26.88000 1.134
26.90000 -0.791
26.92000 5.132
26.94000 2.620
26.96000 -0.434
26.98000 6.441
27.00000 6.706
27.02000 3.203
27.04000 -0.122
27.06000 2.053
27.08000 0.667
27.10000 -0.721
27.12000 3.134
27.14000 8.210
27.16000 8.419
27.18000 3.628
27.20000 2.617
27.22000 3.832
27.24000 1.714
27.26000 -1.967
27.28000 -0.724
27.30000 6.434
27.32000 7.284
27.34000 6.688
27.36000 5.017
27.38000 0.683
27.40000 3.649
27.42000 5.254
27.44000 4.434
27.46000 5.508
27.48000 5.441
27.50000 1.708
27.52000 0.749
27.54000 6.258
27.56000 9.797
27.58000 6.114
27.60000 9.665
27.62000 5.422
27.64000 5.972
27.66000 8.605
27.68000 7.342
27.70000 -3.846
27.72000 -0.149
27.74000 4.282
27.76000 2.648
27.78000 2.390
27.80000 3.319
27.82000 -0.138
27.84000 1.401
27.86000 -1.256
27.88000 0.343
27.90000 3.748
27.92000 4.950
27.94000 4.258
27.96000 0.232
27.98000 4.769
28.00000 9.131
28.02000 4.280
28.04000 -1.106
28.06000 0.269
28.08000 -0.548
28.10000 0.414
28.12000 1.115
28.14000 3.484
28.16000 1.892
28.18000 0.312
28.20000 3.582
28.22000 2.270
28.24000 3.297
28.26000 2.759
28.28000 5.677
28.30000 8.126
28.32000 6.545
28.34000 3.009
28.36000 1.451
28.38000 4.829
28.40000 4.479
28.42000 6.468
28.44000 1.571
28.46000 2.571
28.48000 0.589
28.50000 1.520
28.52000 5.960
28.54000 4.343
28.56000 10.430
28.58000 7.607
28.60000 1.829
28.62000 4.559
28.64000 -2.483
28.66000 1.222
28.68000 2.629
28.70000 4.376
28.72000 -1.125
28.74000 -3.792
28.76000 3.136
28.78000 5.460
28.80000 0.310
28.82000 2.316
28.84000 2.300
28.86000 6.997
28.88000 9.080
28.90000 4.555
28.92000 2.363
28.94000 7.465
28.96000 2.629
28.98000 8.242
29.00000 10.588
29.02000 2.445
29.04000 -1.027
29.06000 1.380
29.08000 6.245
29.10000 11.876
29.12000 5.323
29.14000 -0.752
29.16000 -0.164
29.18000 -2.776
29.20000 0.950
29.22000 4.290
29.24000 7.552
29.26000 4.950
29.28000 1.633
29.30000 -2.980
29.32000 -3.157
29.34000 -0.652
29.36000 3.772
29.38000 7.833
29.40000 2.816
29.42000 0.444
29.44000 4.767
29.46000 6.036
29.48000 2.276
29.50000 0.447
29.52000 2.192
29.54000 1.228
29.56000 -0.635
29.58000 0.395
29.60000 -3.767
29.62000 -2.280
29.64000 1.183
29.66000 3.137
29.68000 3.434
29.70000 2.782
29.72000 -0.332
29.74000 2.497
29.76000 2.112
29.78000 -0.114
29.80000 1.402
29.82000 2.266
29.84000 0.401
29.86000 -1.519
29.88000 -1.910
29.90000 -0.824
29.92000 -2.884
29.94000 -1.290
29.96000 3.319
29.98000 -0.621
30.00000 -2.357
30.02000 3.467
30.04000 4.352
30.06000 6.215
30.08000 6.947
30.10000 7.594
30.12000 6.331
30.14000 1.227
30.16000 8.341
30.18000 7.658
30.20000 6.232
30.22000 5.348
30.24000 2.569
30.26000 3.799
30.28000 -3.737
30.30000 -1.219
30.32000 9.542
30.34000 7.617
30.36000 1.142
30.38000 2.265
30.40000 0.924
30.42000 2.635
30.44000 2.492
30.46000 0.622
30.48000 -0.045
30.50000 0.540
30.52000 1.376
30.54000 7.295
30.56000 0.369
30.58000 2.061
30.60000 2.853
30.62000 4.734
30.64000 6.974
30.66000 3.322
30.68000 5.101
30.70000 4.822
30.72000 6.080
30.74000 3.795
30.76000 0.003
30.78000 -3.718
30.80000 1.971
30.82000 4.733
30.84000 8.211
30.86000 6.464
30.88000 3.480
30.90000 3.179
30.92000 0.200
30.94000 2.636
30.96000 4.836
30.98000 1.197
31.00000 0.487
31.02000 1.006
31.04000 7.733
31.06000 9.959
31.08000 8.088
31.10000 5.336
31.12000 0.256
31.14000 -1.899
31.16000 0.099
31.18000 2.613
31.20000 2.284
31.22000 2.832
31.24000 5.330
31.26000 3.826
31.28000 0.527
31.30000 -1.185
31.32000 3.247
31.34000 2.893
31.36000 5.352
31.38000 0.041
31.40000 1.006
31.42000 -3.650
31.44000 0.838
31.46000 1.909
31.48000 5.072
31.50000 6.560
31.52000 8.311
31.54000 1.094
31.56000 -1.311
31.58000 -0.947
31.60000 -3.259
31.62000 0.473
31.64000 1.843
31.66000 1.186
31.68000 -2.858
31.70000 1.715
31.72000 5.014
31.74000 0.803
31.76000 -1.024
31.78000 -1.350
31.80000 1.924
31.82000 -0.924
31.84000 0.626
31.86000 3.242
31.88000 3.957
31.90000 3.811
31.92000 1.203
31.94000 1.236
31.96000 -1.703
31.98000 -3.685
32.00000 -1.874
32.02000 4.182
32.04000 8.043
32.06000 5.705
32.08000 6.930
32.10000 4.712
32.12000 4.606
32.14000 4.727
32.16000 3.498
32.18000 0.517
32.20000 0.950
32.22000 2.412
32.24000 -2.142
32.26000 -2.418
32.28000 -2.101
32.30000 7.553
32.32000 11.376
32.34000 6.120
32.36000 3.906
32.38000 3.159
32.40000 -0.579
32.42000 2.302
32.44000 4.984
32.46000 6.056
32.48000 1.676
32.50000 5.257
32.52000 6.170
32.54000 0.800
32.56000 1.684
32.58000 6.279
32.60000 7.703
32.62000 0.296
32.64000 1.045
32.66000 3.657
32.68000 5.498
32.70000 -0.292
32.72000 -1.209
32.74000 1.944
32.76000 2.312
32.78000 2.524
32.80000 4.075
32.82000 -1.019
32.84000 4.743
32.86000 6.224
32.88000 7.570
32.90000 3.543
32.92000 3.661
32.94000 -3.668
32.96000 0.156
32.98000 1.639
33.00000 3.188
33.02000 10.722
33.04000 10.312
33.06000 8.127
33.08000 2.561
33.10000 -2.484
33.12000 -3.520
33.14000 -2.529
33.16000 1.324
33.18000 -0.132
33.20000 0.160
33.22000 1.994
33.24000 2.264
33.26000 4.630
33.28000 4.308
33.30000 6.859
33.32000 12.500
33.34000 2.755
33.36000 -0.542
33.38000 -1.726
33.40000 -3.396
33.42000 -0.603
33.44000 1.357
33.46000 -1.962
33.48000 1.096
33.50000 1.551
33.52000 3.213
33.54000 2.415
33.56000 8.510
33.58000 0.209
33.60000 -2.568
33.62000 -2.764
33.64000 -0.017
33.66000 1.386
33.68000 4.026
33.70000 5.647
33.72000 0.105
33.74000 0.987
33.76000 5.288
33.78000 8.096
33.80000 7.340
33.82000 11.232
33.84000 8.243
33.86000 2.915
33.88000 2.975
33.90000 4.501
33.92000 1.219
33.94000 6.996
33.96000 0.448
33.98000 2.664
34.00000 6.091
34.02000 3.178
34.04000 2.652
34.06000 2.040
34.08000 1.040
34.10000 1.767
34.12000 2.723
34.14000 2.210
34.16000 2.897
34.18000 0.161
34.20000 5.756
34.22000 3.808
34.24000 4.438
34.26000 4.853
34.28000 7.814
34.30000 3.231
34.32000 3.414
34.34000 5.138
34.36000 8.579
34.38000 5.401
34.40000 7.439
34.42000 8.313
34.44000 2.827
34.46000 3.042
34.48000 11.260
34.50000 5.930
34.52000 1.561
34.54000 0.173
34.56000 0.432
34.58000 -0.774
34.60000 4.128
34.62000 3.204
34.64000 3.927
34.66000 1.915
34.68000 1.424
34.70000 2.563
34.72000 0.521
34.74000 1.608
34.76000 -2.065
34.78000 -1.380
34.80000 2.555
34.82000 -2.943
34.84000 0.392
34.86000 5.455
34.88000 8.945
34.90000 8.374
34.92000 8.796
34.94000 2.851
34.96000 0.155
34.98000 2.742
35.00000 0.972
35.02000 0.982
35.04000 -2.101
35.06000 1.071
35.08000 5.496
35.10000 0.869
35.12000 2.181
35.14000 -0.784
35.16000 2.224
35.18000 2.081
35.20000 3.894
35.22000 3.896
35.24000 1.681
35.26000 2.361
35.28000 3.442
35.30000 0.174
35.32000 -3.621
35.34000 0.118
35.36000 3.606
35.38000 8.560
35.40000 7.101
35.42000 8.121
35.44000 6.846
35.46000 3.748
35.48000 8.108
35.50000 6.918
35.52000 7.142
35.54000 3.415
35.56000 5.128
35.58000 5.764
35.60000 -0.751
35.62000 -3.627
35.64000 -0.223
35.66000 0.423
35.68000 2.581
35.70000 9.226
35.72000 4.809
35.74000 5.317
35.76000 9.432
35.78000 10.741
35.80000 3.712
35.82000 3.962
35.84000 6.472
35.86000 7.654
35.88000 5.023
35.90000 0.976
35.92000 3.240
35.94000 3.658
35.96000 3.466
35.98000 -3.602
36.00000 -1.665
36.02000 6.453
36.04000 5.247
36.06000 2.855
36.08000 4.529
36.10000 2.158
36.12000 -1.223
36.14000 -3.658
36.16000 -0.146
36.18000 -1.004
36.20000 -3.327
36.22000 1.434
36.24000 -0.542
36.26000 -1.833
36.28000 -0.155
36.30000 3.664
36.32000 10.079
36.34000 8.139
36.36000 7.410
36.38000 2.845
36.40000 1.952
36.42000 0.594
36.44000 -3.685
36.46000 -0.959
36.48000 -2.460
36.50000 4.179
36.52000 4.342
36.54000 2.469
36.56000 -2.874
36.58000 2.939
36.60000 4.434
36.62000 7.215
36.64000 2.881
36.66000 8.503
36.68000 2.596
36.70000 3.952
36.72000 8.751
36.74000 5.667
36.76000 4.017
36.78000 2.827
36.80000 4.868
36.82000 3.919
36.84000 5.825
36.86000 1.763
36.88000 4.441
36.90000 5.279
36.92000 2.823
36.94000 7.768
36.96000 9.544
36.98000 2.691
37.00000 0.412
37.02000 3.219
37.04000 3.420
37.06000 3.927
37.08000 4.612
37.10000 6.193
37.12000 5.467
37.14000 7.838
37.16000 10.468
37.18000 12.940
37.20000 12.206
37.22000 7.413
37.24000 7.031
37.26000 9.079
37.28000 11.990
37.30000 10.099
37.32000 8.691
37.34000 8.178
37.36000 8.107
37.38000 5.788
37.40000 9.752
37.42000 18.181
37.44000 21.872
37.46000 14.906
37.48000 9.755
37.50000 7.581
37.52000 13.052
37.54000 14.804
37.56000 15.976
37.58000 17.088
37.60000 15.806
37.62000 17.819
37.64000 19.426
37.66000 20.098
37.68000 17.144
37.70000 16.108
37.72000 15.560
37.74000 14.112
37.76000 17.992
37.78000 25.329
37.80000 26.527
37.82000 24.351
37.84000 26.879
37.86000 25.633
37.88000 28.343
37.90000 24.435
37.92000 26.046
37.94000 30.090
37.96000 28.075
37.98000 27.636
38.00000 23.044
38.02000 27.098
38.04000 29.592
38.06000 30.155
38.08000 32.039
38.10000 39.298
38.12000 40.027
38.14000 37.292
38.16000 35.306
38.18000 39.303
38.20000 48.399
38.22000 43.189
38.24000 40.170
38.26000 44.331
38.28000 51.437
38.30000 53.719
38.32000 57.866
38.34000 59.370
38.36000 54.613
38.38000 55.595
38.40000 56.503
38.42000 60.849
38.44000 63.952
38.46000 66.937
38.48000 67.371
38.50000 71.686
38.52000 74.793
38.54000 76.451
38.56000 80.263
38.58000 85.832
38.60000 87.216
38.62000 85.376
38.64000 98.634
38.66000 102.718
38.68000 104.333
38.70000 113.022
38.72000 111.807
38.74000 120.122
38.76000 131.637
38.78000 137.830
38.80000 142.760
38.82000 151.934
38.84000 162.808
38.86000 170.888
38.88000 183.463
38.90000 186.256
38.92000 201.902
38.94000 208.894
38.96000 221.016
38.98000 230.919
39.00000 240.864
39.02000 259.000
39.04000 269.456
39.06000 288.895
39.08000 298.975
39.10000 307.776
39.12000 322.064
39.14000 338.910
39.16000 342.360
39.18000 360.576
39.20000 375.446
39.22000 379.452
39.24000 390.193
39.26000 398.364
39.28000 400.572
39.30000 406.558
39.32000 413.572
39.34000 416.968
39.36000 415.087
39.38000 413.869
39.40000 405.496
39.42000 398.054
39.44000 390.758
39.46000 380.727
39.48000 361.028
39.50000 355.079
39.52000 350.543
39.54000 332.661
39.56000 320.004
39.58000 301.299
39.60000 290.558
39.62000 270.012
39.64000 253.274
39.66000 244.962
39.68000 232.002
39.70000 218.820
39.72000 210.480
39.74000 195.859
39.76000 183.523
39.78000 169.531
39.80000 155.991
39.82000 147.871
39.84000 142.997
39.86000 136.743
39.88000 130.477
39.90000 118.695
39.92000 104.976
39.94000 100.098
39.96000 93.739
39.98000 89.579
40.00000 85.636
40.02000 79.216
40.04000 70.667
40.06000 64.723
40.08000 63.976
40.10000 66.474
40.12000 63.311
40.14000 59.476
40.16000 53.671
40.18000 52.574
40.20000 47.768
40.22000 49.954
40.24000 43.952
40.26000 40.190
40.28000 35.153
40.30000 31.097
40.32000 35.958
40.34000 37.789
40.36000 36.528
40.38000 32.369
40.40000 32.017
40.42000 27.385
40.44000 30.079
40.46000 28.789
40.48000 29.661
40.50000 25.275
40.52000 24.213
40.54000 22.752
40.56000 19.535
40.58000 17.977
40.60000 14.948
40.62000 18.904
40.64000 21.111
40.66000 20.206
40.68000 15.149
40.70000 16.509
40.72000 15.824
40.74000 13.274
40.76000 14.081
40.78000 16.892
40.80000 15.819
40.82000 12.583
40.84000 14.107
40.86000 9.542
40.88000 10.100
40.90000 11.618
40.92000 9.457
40.94000 6.217
40.96000 2.971
40.98000 7.955
41.00000 10.731
41.02000 8.526
41.04000 4.500
41.06000 5.722
41.08000 8.356
41.10000 5.272
41.12000 3.940
41.14000 7.452
41.16000 9.398
41.18000 6.566
41.20000 7.323
41.22000 5.651
41.24000 -1.398
41.26000 0.276
41.28000 3.777
41.30000 3.431
41.32000 3.337
41.34000 1.758
41.36000 0.492
41.38000 1.269
41.40000 -1.104
41.42000 1.702
41.44000 -1.821
41.46000 -1.512
41.48000 -0.192
41.50000 0.451
41.52000 0.441
41.54000 1.289
41.56000 2.154
41.58000 3.472
41.60000 7.279
41.62000 3.638
41.64000 4.708
41.66000 3.128
41.68000 2.125
41.70000 2.919
41.72000 5.130
41.74000 7.385
41.76000 4.911
41.78000 2.441
41.80000 7.857
41.82000 5.549
41.84000 3.522
41.86000 0.889
41.88000 2.137
41.90000 -0.666
41.92000 -0.881
41.94000 2.363
41.96000 2.317
41.98000 0.871
42.00000 0.803
42.02000 2.219
42.04000 2.264
42.06000 3.903
42.08000 5.755
42.10000 3.784
42.12000 2.392
42.14000 1.259
42.16000 1.199
42.18000 -3.314
42.20000 -0.483
42.22000 2.905
42.24000 3.941
42.26000 1.180
42.28000 -0.405
42.30000 -0.764
42.32000 -3.301
42.34000 2.868
42.36000 5.932
42.38000 5.126
42.40000 2.317
42.42000 1.142
42.44000 2.978
42.46000 0.176
42.48000 1.401
42.50000 0.709
42.52000 4.077
42.54000 2.448
42.56000 0.569
42.58000 2.500
42.60000 0.311
42.62000 -2.121
42.64000 -2.515
42.66000 -0.419
42.68000 -1.256
42.70000 0.219
42.72000 4.690
42.74000 4.984
42.76000 0.723
42.78000 -0.989
42.80000 2.584
42.82000 3.556
42.84000 -2.597
42.86000 -2.062
42.88000 0.992
42.90000 1.966
42.92000 -2.066
42.94000 -1.388
42.96000 2.047
42.98000 1.518
43.00000 2.488
43.02000 0.291
43.04000 -1.851
43.06000 3.733
43.08000 4.983
43.10000 0.336
43.12000 1.647
43.14000 0.809
43.16000 0.574
43.18000 1.616
43.20000 -0.544
43.22000 0.483
43.24000 2.834
43.26000 0.725
43.28000 -0.306
43.30000 -3.200
43.32000 -0.482
43.34000 -2.530
43.36000 1.556
43.38000 0.649
43.40000 -0.150
43.42000 -0.361
43.44000 1.711
43.46000 1.543
43.48000 -1.302
43.50000 -1.730
43.52000 -2.032
43.54000 0.907
43.56000 0.771
43.58000 -0.163
43.60000 0.817
43.62000 1.894
43.64000 1.094
43.66000 2.942
43.68000 -0.092
43.70000 -1.152
43.72000 -1.438
43.74000 -2.122
43.76000 -2.914
43.78000 0.474
43.80000 0.038
43.82000 0.438
43.84000 0.236
43.86000 0.705
43.88000 2.330
43.90000 -1.062
43.92000 -3.163
43.94000 -2.311
43.96000 -0.425
43.98000 0.155
44.00000 -0.307
44.02000 1.854
44.04000 0.084
44.06000 -1.441
44.08000 -0.773
44.10000 -3.159
44.12000 -2.520
44.14000 -0.470
44.16000 -0.491
44.18000 2.294
44.20000 5.404
44.22000 7.987
44.24000 5.929
44.26000 1.461
44.28000 0.307
44.30000 3.906
44.32000 2.746
44.34000 4.282
44.36000 4.170
44.38000 2.268
44.40000 1.602
44.42000 2.759
44.44000 3.970
44.46000 4.506
44.48000 5.193
44.50000 9.417
44.52000 6.578
44.54000 4.301
44.56000 5.177
44.58000 6.744
44.60000 8.855
44.62000 9.919
44.64000 5.674
44.66000 3.989
44.68000 4.701
44.70000 5.223
44.72000 8.225
44.74000 9.965
44.76000 6.882
44.78000 4.916
44.80000 8.076
44.82000 10.449
44.84000 13.202
44.86000 11.201
44.88000 7.105
44.90000 8.654
44.92000 8.886
44.94000 11.259
44.96000 12.602
44.98000 14.052
45.00000 14.526
45.02000 13.531
45.04000 15.005
45.06000 15.315
45.08000 15.276
45.10000 19.315
45.12000 19.886
45.14000 21.270
45.16000 20.793
45.18000 19.395
45.20000 20.478
45.22000 21.227
45.24000 25.727
45.26000 28.204
45.28000 31.593
45.30000 29.446
45.32000 26.609
45.34000 28.527
45.36000 28.181
45.38000 33.195
45.40000 38.824
45.42000 36.879
45.44000 38.965
45.46000 42.131
45.48000 42.415
45.50000 39.112
45.52000 39.293
45.54000 47.613
45.56000 51.921
45.58000 56.460
45.60000 57.880
45.62000 59.390
45.64000 60.282
45.66000 62.414
45.68000 62.403
45.70000 64.655
45.72000 67.201
45.74000 67.151
45.76000 69.323
45.78000 67.851
45.80000 78.041
45.82000 79.311
45.84000 78.911
45.86000 82.066
45.88000 75.065
45.90000 75.015
45.92000 77.938
45.94000 81.691
45.96000 82.848
45.98000 85.261
46.00000 80.441
46.02000 79.054
46.04000 79.078
46.06000 83.641
46.08000 79.890
46.10000 80.056
46.12000 76.604
46.14000 75.945
46.16000 76.303
46.18000 74.375
46.20000 72.052
46.22000 74.315
46.24000 74.667
46.26000 71.166
46.28000 66.406
46.30000 60.354
46.32000 57.676
46.34000 55.749
46.36000 53.430
46.38000 53.716
46.40000 52.860
46.42000 47.289
46.44000 50.269
46.46000 47.878
46.48000 44.651
46.50000 49.483
46.52000 47.216
46.54000 45.449
46.56000 35.815
46.58000 30.754
46.60000 31.485
46.62000 29.701
46.64000 27.996
46.66000 26.636
46.68000 29.633
46.70000 28.374
46.72000 27.951
46.74000 26.943
46.76000 24.277
46.78000 24.036
46.80000 21.791
46.82000 12.311
46.84000 14.070
46.86000 12.908
46.88000 12.484
46.90000 12.224
46.92000 11.671
46.94000 12.635
46.96000 6.660
46.98000 4.071
47.00000 4.439
47.02000 4.943
47.04000 2.134
47.06000 4.203
47.08000 6.861
47.10000 7.617
47.12000 11.051
47.14000 7.133
47.16000 3.779
47.18000 3.738
47.20000 7.207
47.22000 5.432
47.24000 3.635
47.26000 3.021
47.28000 7.160
47.30000 4.904
47.32000 1.908
47.34000 4.097
47.36000 1.130
47.38000 2.788
47.40000 0.782
47.42000 -2.796
47.44000 0.113
47.46000 3.563
47.48000 1.896
47.50000 3.629
47.52000 5.706
47.54000 1.645
47.56000 -0.344
47.58000 4.633
47.60000 2.660
47.62000 -0.389
47.64000 0.970
47.66000 1.843
47.68000 6.216
47.70000 3.461
47.72000 2.042
47.74000 5.323
47.76000 1.197
47.78000 -0.746
47.80000 -1.139
47.82000 0.070
47.84000 -0.736
47.86000 -2.604
47.88000 2.362
47.90000 5.109
47.92000 4.175
47.94000 0.598
47.96000 2.103
47.98000 4.295
48.00000 4.613
48.02000 8.295
48.04000 4.041
48.06000 6.422
48.08000 6.447
48.10000 8.352
48.12000 7.912
48.14000 -0.126
48.16000 -2.634
48.18000 -0.964
48.20000 4.039
48.22000 5.493
48.24000 1.836
48.26000 0.970
48.28000 4.577
48.30000 5.121
48.32000 3.393
48.34000 3.098
48.36000 5.450
48.38000 3.907
48.40000 6.601
48.42000 6.170
48.44000 3.222
48.46000 1.659
48.48000 3.663
48.50000 3.159
48.52000 0.671
48.54000 1.257
48.56000 3.112
48.58000 4.478
48.60000 1.470
48.62000 2.868
48.64000 2.305
48.66000 2.669
48.68000 2.649
48.70000 0.234
48.72000 -0.511
48.74000 0.230
48.76000 -1.165
48.78000 -1.320
48.80000 1.063
48.82000 1.798
48.84000 0.148
48.86000 -0.807
48.88000 -1.362
48.90000 -1.404
48.92000 -0.204
48.94000 -0.477
48.96000 2.929
48.98000 2.886
49.00000 0.460
49.02000 0.139
49.04000 -1.551
49.06000 -1.787
49.08000 1.132
49.10000 1.853
49.12000 3.556
49.14000 4.405
49.16000 4.712
49.18000 2.500
49.20000 0.316
49.22000 2.306
49.24000 -2.616
49.26000 0.541
49.28000 -0.108
49.30000 3.730
49.32000 5.114
49.34000 -0.952
49.36000 -0.574
49.38000 -0.239
49.40000 3.125
49.42000 3.549
49.44000 -0.291
49.46000 1.746
49.48000 0.671
49.50000 1.834
49.52000 1.803
49.54000 0.326
49.56000 -1.884
49.58000 -1.433
49.60000 4.325
49.62000 1.941
49.64000 -2.191
49.66000 -2.454
49.68000 -0.818
49.70000 -2.589
49.72000 2.389
49.74000 2.448
49.76000 1.991
49.78000 1.530
49.80000 0.719
49.82000 1.360
49.84000 0.436
49.86000 -1.563
49.88000 -1.389
49.90000 0.768
49.92000 2.012
49.94000 1.441
49.96000 2.660
49.98000 0.315
50.00000 0.956
50.02000 0.342
50.04000 1.313
50.06000 -1.077
50.08000 1.881
50.10000 -0.492
50.12000 1.033
50.14000 2.062
50.16000 3.792
50.18000 0.886
50.20000 1.036
50.22000 2.027
50.24000 4.903
50.26000 2.862
50.28000 2.497
50.30000 2.505
50.32000 0.778
50.34000 3.850
50.36000 2.704
50.38000 2.770
50.40000 2.418
50.42000 2.804
50.44000 1.457
50.46000 -0.351
50.48000 2.101
50.50000 1.306
50.52000 -1.533
50.54000 1.106
50.56000 0.643
50.58000 -1.347
50.60000 -0.325
50.62000 -0.755
50.64000 -2.373
50.66000 -0.739
50.68000 0.429
50.70000 2.054
50.72000 1.850
50.74000 4.023
50.76000 3.561
50.78000 -0.448
50.80000 0.729
50.82000 1.586
50.84000 3.019
50.86000 0.990
50.88000 -2.519
50.90000 0.145
50.92000 3.053
50.94000 2.061
50.96000 1.425
50.98000 -0.880
51.00000 -1.106
51.02000 -2.473
51.04000 -0.409
51.06000 0.102
51.08000 1.737
51.10000 3.931
51.12000 5.650
51.14000 2.034
51.16000 1.653
51.18000 4.730
51.20000 2.733
51.22000 -1.491
51.24000 0.747
51.26000 4.934
51.28000 3.444
51.30000 4.301
51.32000 4.597
51.34000 3.515
51.36000 3.458
51.38000 2.923
51.40000 1.795
51.42000 0.471
51.44000 0.789
51.46000 3.894
51.48000 3.384
51.50000 1.103
51.52000 3.561
51.54000 -2.518
51.56000 0.341
51.58000 0.001
51.60000 -0.914
51.62000 2.046
51.64000 0.233
51.66000 3.872
51.68000 0.466
51.70000 -1.673
51.72000 -1.095
51.74000 -0.406
51.76000 0.336
51.78000 1.098
51.80000 -1.861
51.82000 -1.675
51.84000 0.225
51.86000 3.413
51.88000 5.007
51.90000 2.747
51.92000 0.961
51.94000 0.282
51.96000 1.359
51.98000 2.772
52.00000 1.469
52.02000 2.969
52.04000 -0.577
52.06000 -0.286
52.08000 3.999
52.10000 2.299
52.12000 2.283
52.14000 1.907
52.16000 1.201
52.18000 -2.389
52.20000 1.994
52.22000 1.225
52.24000 1.858
52.26000 1.234
52.28000 2.876
52.30000 -0.882
52.32000 -0.447
52.34000 2.904
52.36000 2.109
52.38000 3.740
52.40000 2.318
52.42000 0.319
52.44000 -0.157
52.46000 3.730
52.48000 2.505
52.50000 1.484
52.52000 0.673
52.54000 1.054
52.56000 1.836
52.58000 1.668
52.60000 5.474
52.62000 4.145
52.64000 1.311
52.66000 -0.467
52.68000 2.243
52.70000 2.094
52.72000 3.307
52.74000 3.257
52.76000 5.087
52.78000 5.876
52.80000 2.625
52.82000 4.618
52.84000 4.763
52.86000 0.352
52.88000 -2.457
52.90000 1.664
52.92000 0.545
52.94000 -0.116
52.96000 0.851
52.98000 1.341
53.00000 2.468
53.02000 3.739
53.04000 -0.105
53.06000 -1.254
53.08000 1.570
53.10000 2.472
53.12000 -0.373
53.14000 -0.374
53.16000 2.562
53.18000 1.307
53.20000 5.338
53.22000 1.373
53.24000 -0.520
53.26000 -1.088
53.28000 3.475
53.30000 3.105
53.32000 -0.548
53.34000 2.474
53.36000 3.258
53.38000 3.287
53.40000 2.061
53.42000 0.301
53.44000 0.796
53.46000 1.357
53.48000 3.783
53.50000 6.234
53.52000 2.975
53.54000 1.300
53.56000 4.660
53.58000 5.938
53.60000 7.213
53.62000 6.348
53.64000 2.850
53.66000 1.238
53.68000 3.079
53.70000 4.203
53.72000 7.563
53.74000 5.882
53.76000 2.397
53.78000 4.318
53.80000 4.042
53.82000 4.480
53.84000 3.044
53.86000 0.795
53.88000 2.588
53.90000 2.068
53.92000 1.610
53.94000 1.369
53.96000 0.818
53.98000 2.437
54.00000 4.210
54.02000 2.934
54.04000 3.434
54.06000 3.323
54.08000 1.419
54.10000 1.254
54.12000 1.602
54.14000 3.618
54.16000 3.041
54.18000 0.121
54.20000 4.969
54.22000 4.272
54.24000 3.582
54.26000 2.522
54.28000 0.602
54.30000 -2.410
54.32000 1.419
54.34000 2.433
54.36000 3.098
54.38000 5.746
54.40000 5.536
54.42000 1.253
54.44000 2.587
54.46000 5.731
54.48000 1.710
54.50000 -0.561
54.52000 2.564
54.54000 3.863
54.56000 3.098
54.58000 3.833
54.60000 6.644
54.62000 4.725
54.64000 3.418
54.66000 -0.294
54.68000 1.632
54.70000 3.553
54.72000 4.361
54.74000 1.607
54.76000 1.121
54.78000 2.794
54.80000 3.933
54.82000 1.475
54.84000 0.642
54.86000 -0.704
54.88000 2.074
54.90000 1.520
54.92000 1.298
54.94000 1.946
54.96000 1.677
54.98000 4.107
55.00000 2.201
55.02000 -2.059
55.04000 -1.728
55.06000 1.419
55.08000 2.275
55.10000 3.272
55.12000 3.562
55.14000 2.769
55.16000 3.280
55.18000 1.259
55.20000 -0.280
55.22000 0.612
55.24000 5.646
55.26000 2.947
55.28000 0.103
55.30000 -0.885
55.32000 -1.264
55.34000 -0.284
55.36000 0.708
55.38000 6.021
55.40000 5.203
55.42000 4.874
55.44000 4.500
55.46000 4.170
55.48000 4.226
55.50000 4.703
55.52000 1.888
55.54000 1.655
55.56000 -0.173
55.58000 -0.153
55.60000 2.460
55.62000 3.816
55.64000 3.694
55.66000 -1.815
55.68000 0.651
55.70000 3.812
55.72000 0.571
55.74000 -0.822
55.76000 1.117
55.78000 3.771
55.80000 3.117
55.82000 1.704
55.84000 3.928
55.86000 4.820
55.88000 -0.574
55.90000 0.141
55.92000 2.891
55.94000 2.268
55.96000 -2.409
55.98000 1.249
56.00000 1.789
56.02000 -0.475
56.04000 0.287
56.06000 3.043
56.08000 0.388
56.10000 -1.678
56.12000 2.149
56.14000 2.794
56.16000 2.026
56.18000 -0.862
56.20000 3.059
56.22000 3.831
56.24000 7.296
56.26000 2.132
56.28000 2.189
56.30000 -0.041
56.32000 2.550
56.34000 3.760
56.36000 2.441
56.38000 -0.151
56.40000 0.118
56.42000 -0.814
56.44000 -0.606
56.46000 -0.002
56.48000 2.020
56.50000 2.405
56.52000 2.809
56.54000 4.067
56.56000 2.080
56.58000 1.589
56.60000 -0.952
56.62000 -2.011
56.64000 0.224
56.66000 -2.375
56.68000 -0.734
56.70000 2.812
56.72000 4.876
56.74000 2.508
56.76000 2.368
56.78000 2.356
56.80000 1.580
56.82000 3.149
56.84000 3.362
56.86000 2.215
56.88000 2.799
56.90000 2.599
56.92000 1.766
56.94000 2.780
56.96000 3.124
56.98000 1.482
57.00000 1.953
57.02000 2.658
57.04000 2.055
57.06000 2.610
57.08000 1.334
57.10000 2.076
57.12000 3.706
57.14000 3.136
57.16000 0.443
57.18000 1.593
57.20000 3.940
57.22000 4.164
57.24000 2.585
57.26000 1.196
57.28000 1.064
57.30000 3.091
57.32000 4.880
57.34000 5.071
57.36000 2.536
57.38000 -0.878
57.40000 0.087
57.42000 -2.343
57.44000 1.898
57.46000 1.147
57.48000 3.420
57.50000 1.002
57.52000 3.709
57.54000 5.426
57.56000 3.790
57.58000 2.087
57.60000 0.616
57.62000 1.982
57.64000 2.835
57.66000 2.967
57.68000 3.229
57.70000 1.160
57.72000 0.224
57.74000 -0.070
57.76000 4.243
57.78000 5.232
57.80000 5.502
57.82000 2.402
57.84000 1.880
57.86000 1.170
57.88000 0.810
57.90000 0.782
57.92000 1.435
57.94000 0.338
57.96000 -2.316
57.98000 2.643
58.00000 7.425
58.02000 10.260
58.04000 3.904
58.06000 0.588
58.08000 3.526
58.10000 2.493
58.12000 5.533
58.14000 4.786
58.16000 0.819
58.18000 -1.852
58.20000 2.180
58.22000 3.701
58.24000 0.901
58.26000 2.853
58.28000 2.890
58.30000 2.457
58.32000 3.083
58.34000 0.310
58.36000 1.244
58.38000 2.991
58.40000 1.792
58.42000 1.468
58.44000 2.850
58.46000 3.619
58.48000 2.794
58.50000 4.085
58.52000 1.804
58.54000 -0.222
58.56000 1.400
58.58000 5.085
58.60000 1.497
58.62000 -0.809
58.64000 -1.936
58.66000 -0.078
58.68000 -0.311
58.70000 0.064
58.72000 2.732
58.74000 2.688
58.76000 1.278
58.78000 -0.847
58.80000 -1.800
58.82000 1.212
58.84000 -0.588
58.86000 0.165
58.88000 3.648
58.90000 3.947
58.92000 5.640
58.94000 2.077
58.96000 -2.304
58.98000 -1.160
59.00000 0.462
59.02000 -2.031
59.04000 -0.209
59.06000 2.368
59.08000 3.357
59.10000 -0.049
59.12000 -0.854
59.14000 -0.448
59.16000 3.293
59.18000 4.379
59.20000 1.106
59.22000 1.695
59.24000 1.698
59.26000 1.704
59.28000 3.840
59.30000 1.088
59.32000 0.846
59.34000 1.882
59.36000 1.872
59.38000 0.846
59.40000 1.002
59.42000 6.070
59.44000 2.034
59.46000 2.373
59.48000 2.209
59.50000 -0.557
59.52000 -0.649
59.54000 2.701
59.56000 1.515
59.58000 -2.310
59.60000 1.783
59.62000 1.264
59.64000 2.841
59.66000 6.777
59.68000 2.699
59.70000 -0.441
59.72000 3.798
59.74000 1.784
59.76000 -0.032
59.78000 -0.855
59.80000 -1.941
59.82000 -1.423
59.84000 -2.019
59.86000 -1.037
59.88000 0.321
59.90000 2.584
59.92000 1.375
59.94000 -0.839
59.96000 3.195
59.98000 -0.305
60.00000 0.577
60.02000 1.503
60.04000 -2.301
60.06000 -1.602
60.08000 -1.052
60.10000 -1.994
60.12000 0.740
60.14000 1.569
60.16000 0.922
60.18000 3.054
60.20000 2.660
60.22000 2.606
60.24000 4.254
60.26000 1.449
60.28000 0.263
60.30000 1.766
60.32000 -2.161
60.34000 -1.242
60.36000 -1.072
60.38000 -0.598
60.40000 0.089
60.42000 -2.017
60.44000 -1.635
60.46000 0.159
60.48000 1.324
60.50000 2.716
60.52000 -0.401
60.54000 -1.598
60.56000 2.920
60.58000 3.823
60.60000 0.995
60.62000 -0.387
60.64000 0.135
60.66000 0.054
60.68000 0.513
60.70000 1.474
60.72000 5.452
60.74000 2.369
60.76000 0.185
60.78000 -1.267
60.80000 2.287
60.82000 2.548
60.84000 -2.262
60.86000 -1.472
60.88000 0.423
60.90000 1.016
60.92000 2.444
60.94000 3.034
60.96000 1.915
60.98000 1.372
61.00000 2.755
61.02000 1.501
61.04000 -0.333
61.06000 -1.612
61.08000 0.922
61.10000 1.530
61.12000 2.058
61.14000 1.360
61.16000 -0.549
61.18000 0.832
61.20000 1.317
61.22000 -2.241
61.24000 -0.753
61.26000 1.019
61.28000 0.863
61.30000 6.075
61.32000 3.194
61.34000 1.201
61.36000 3.566
61.38000 3.498
61.40000 0.647
61.42000 0.160
61.44000 2.999
61.46000 1.783
61.48000 -0.593
61.50000 0.765
61.52000 1.221
61.54000 2.244
61.56000 3.360
61.58000 0.648
61.60000 -1.539
61.62000 0.186
61.64000 2.692
61.66000 4.441
61.68000 3.728
61.70000 0.455
61.72000 1.377
61.74000 6.192
61.76000 4.298
61.78000 3.625
61.80000 1.425
61.82000 0.990
61.84000 0.753
61.86000 0.092
61.88000 3.147
61.90000 0.785
61.92000 -2.231
61.94000 -1.144
61.96000 -0.135
61.98000 0.674
62.00000 -0.836
62.02000 0.227
62.04000 1.348
62.06000 1.146
62.08000 1.146
62.10000 -0.860
62.12000 1.829
62.14000 2.527
62.16000 -0.753
62.18000 -0.132
62.20000 0.489
62.22000 0.572
62.24000 -0.921
62.26000 -1.407
62.28000 -1.537
62.30000 -1.406
62.32000 -0.377
62.34000 2.319
62.36000 4.767
62.38000 2.933
62.40000 0.393
62.42000 -2.217
62.44000 -1.085
62.46000 2.579
62.48000 0.563
62.50000 3.590
62.52000 0.155
62.54000 -0.187
62.56000 1.165
62.58000 2.284
62.60000 2.973
62.62000 4.427
62.64000 2.780
62.66000 1.901
62.68000 -1.492
62.70000 -1.851
62.72000 -0.167
62.74000 1.234
62.76000 0.213
62.78000 2.442
62.80000 3.774
62.82000 2.422
62.84000 1.016
62.86000 1.540
62.88000 1.623
62.90000 1.178
62.92000 0.778
62.94000 2.828
62.96000 2.219
62.98000 2.635
63.00000 2.805
63.02000 0.425
63.04000 -0.753
63.06000 3.390
63.08000 2.443
63.10000 2.408
63.12000 4.401
63.14000 4.087
63.16000 -0.329
63.18000 -0.814
63.20000 0.072
63.22000 1.099
63.24000 -0.382
63.26000 1.868
63.28000 4.102
63.30000 1.978
63.32000 1.335
63.34000 -0.267
63.36000 -1.958
63.38000 -1.437
63.40000 2.745
63.42000 1.746
63.44000 0.117
63.46000 -1.673
63.48000 -2.202
63.50000 -0.841
63.52000 0.623
63.54000 1.280
63.56000 0.374
63.58000 0.087
63.60000 1.628
63.62000 1.544
63.64000 1.319
63.66000 3.204
63.68000 3.132
63.70000 1.700
63.72000 1.084
63.74000 -1.539
63.76000 -1.836
63.78000 -2.205
63.80000 -1.464
63.82000 1.056
63.84000 1.844
63.86000 2.268
63.88000 2.456
63.90000 4.706
63.92000 2.299
63.94000 0.249
63.96000 3.491
63.98000 1.953
64.00000 -1.281
64.02000 0.761
64.04000 -0.264
64.06000 1.060
64.08000 0.727
64.10000 2.692
64.12000 3.164
64.14000 1.040
64.16000 2.367
64.18000 4.031
64.20000 1.201
64.22000 2.668
64.24000 2.856
64.26000 1.963
64.28000 2.040
64.30000 3.823
64.32000 2.356
64.34000 1.396
64.36000 0.585
64.38000 0.916
64.40000 1.770
64.42000 2.507
64.44000 3.002
64.46000 1.393
64.48000 2.107
64.50000 0.410
64.52000 0.689
64.54000 0.773
64.56000 3.006
64.58000 2.900
64.60000 2.626
64.62000 0.641
64.64000 -0.015
64.66000 2.235
64.68000 1.440
64.70000 3.516
64.72000 2.176
64.74000 3.580
64.76000 2.745
64.78000 5.312
64.80000 5.335
64.82000 4.143
64.84000 4.993
64.86000 2.366
64.88000 1.709
64.90000 1.138
64.92000 -2.166
64.94000 -1.248
64.96000 -0.075
64.98000 0.796
65.00000 0.313
65.02000 -1.484
65.04000 0.543
65.06000 2.765
65.08000 1.531
65.10000 -0.394
65.12000 3.225
65.14000 1.909
65.16000 2.172
65.18000 1.640
65.20000 1.157
65.22000 3.340
65.24000 2.841
65.26000 1.376
65.28000 2.124
65.30000 2.959
65.32000 1.182
65.34000 0.342
65.36000 2.526
65.38000 0.393
65.40000 -1.480
65.42000 1.471
65.44000 2.474
65.46000 2.615
65.48000 1.991
65.50000 -1.864
65.52000 -0.520
65.54000 1.137
65.56000 1.726
65.58000 2.080
65.60000 2.244
65.62000 2.971
65.64000 0.398
65.66000 -0.951
65.68000 -1.226
65.70000 0.542
65.72000 1.026
65.74000 1.473
65.76000 -0.389
65.78000 0.721
65.80000 4.061
65.82000 2.510
65.84000 0.971
65.86000 0.450
65.88000 0.500
65.90000 0.465
65.92000 1.082
65.94000 3.980
65.96000 2.615
65.98000 2.383
66.00000 3.085
66.02000 1.660
66.04000 0.489
66.06000 -0.663
66.08000 0.333
66.10000 0.661
66.12000 2.131
66.14000 5.117
66.16000 4.911
66.18000 4.818
66.20000 3.656
66.22000 5.174
66.24000 4.228
66.26000 2.195
66.28000 4.000
66.30000 4.185
66.32000 3.413
66.34000 4.603
66.36000 4.392
66.38000 3.789
66.40000 2.437
66.42000 3.976
66.44000 5.520
66.46000 5.571
66.48000 8.553
66.50000 8.197
66.52000 5.231
66.54000 5.184
66.56000 6.537
66.58000 6.757
66.60000 4.476
66.62000 7.351
66.64000 9.996
66.66000 7.801
66.68000 8.046
66.70000 5.472
66.72000 5.903
66.74000 7.073
66.76000 7.822
66.78000 7.461
66.80000 6.249
66.82000 6.285
66.84000 7.001
66.86000 8.885
66.88000 9.621
66.90000 11.166
66.92000 9.316
66.94000 8.466
66.96000 9.845
66.98000 10.332
67.00000 10.373
67.02000 7.453
67.04000 9.369
67.06000 9.043
67.08000 8.062
67.10000 9.262
67.12000 7.858
67.14000 8.468
67.16000 9.096
67.18000 5.361
67.20000 4.658
67.22000 6.492
67.24000 9.548
67.26000 7.477
67.28000 6.506
67.30000 10.250
67.32000 6.991
67.34000 4.926
67.36000 5.275
67.38000 5.034
67.40000 9.248
67.42000 7.550
67.44000 5.018
67.46000 3.717
67.48000 3.403
67.50000 4.444
67.52000 3.931
67.54000 4.135
67.56000 6.253
67.58000 4.297
67.60000 3.541
67.62000 4.100
67.64000 3.642
67.66000 3.154
67.68000 2.050
67.70000 3.778
67.72000 3.229
67.74000 0.303
67.76000 -1.146
67.78000 2.553
67.80000 2.705
67.82000 3.183
67.84000 3.140
67.86000 1.501
67.88000 0.655
67.90000 1.677
67.92000 1.705
67.94000 0.921
67.96000 2.545
67.98000 1.236
68.00000 3.667
68.02000 3.276
68.04000 -2.113
68.06000 -0.747
68.08000 1.554
68.10000 3.430
68.12000 3.675
68.14000 2.762
68.16000 3.435
68.18000 2.382
68.20000 2.535
68.22000 1.612
68.24000 -0.306
68.26000 0.815
68.28000 1.424
68.30000 0.246
68.32000 0.574
68.34000 0.358
68.36000 0.352
68.38000 1.705
68.40000 0.922
68.42000 -0.599
68.44000 1.301
68.46000 1.626
68.48000 1.178
68.50000 0.614
68.52000 1.529
68.54000 0.514
68.56000 1.668
68.58000 2.507
68.60000 -0.575
68.62000 -2.097
68.64000 1.217
68.66000 2.896
68.68000 0.497
68.70000 0.916
68.72000 0.936
68.74000 0.418
68.76000 -2.006
68.78000 -1.835
68.80000 -1.135
68.82000 1.027
68.84000 1.102
68.86000 -0.531
68.88000 -0.291
68.90000 0.556
68.92000 -0.209
68.94000 0.838
68.96000 1.219
68.98000 1.959
69.00000 0.822
69.02000 -2.082
69.04000 1.638
69.06000 -1.516
69.08000 -0.396
69.10000 0.938
69.12000 -1.211
69.14000 -0.238
69.16000 1.022
69.18000 1.605
69.20000 1.282
69.22000 1.922
69.24000 2.914
69.26000 0.965
69.28000 1.584
69.30000 0.309
69.32000 -0.383
69.34000 -0.545
69.36000 0.949
69.38000 1.274
69.40000 0.693
69.42000 2.394
69.44000 1.927
69.46000 -1.017
69.48000 -0.413
69.50000 0.638
69.52000 2.316
69.54000 1.317
69.56000 2.819
69.58000 1.947
69.60000 2.071
69.62000 3.807
69.64000 3.003
69.66000 1.097
69.68000 1.179
69.70000 1.555
69.72000 -0.629
69.74000 -0.374
69.76000 -1.764
69.78000 -0.662
69.80000 1.270
69.82000 0.207
69.84000 -0.833
69.86000 0.872
69.88000 0.826
69.90000 2.529
69.92000 1.008
69.94000 1.470
69.96000 2.633
69.98000 1.104
70.00000 0.761
70.02000 -1.301
70.04000 -1.799
70.06000 -2.028
70.08000 0.294
70.10000 0.899
70.12000 1.817
70.14000 0.834
70.16000 1.182
70.18000 2.624
70.20000 1.233
70.22000 0.313
70.24000 -1.189
70.26000 0.694
70.28000 1.173
70.30000 -0.247
70.32000 -2.025
70.34000 1.511
70.36000 0.532
70.38000 -1.274
70.40000 2.807
70.42000 2.686
70.44000 -1.730
70.46000 -0.035
70.48000 1.757
70.50000 1.921
70.52000 1.859
70.54000 3.629
70.56000 1.783
70.58000 2.172
70.60000 1.975
70.62000 -0.682
70.64000 -1.557
70.66000 0.465
70.68000 3.495
70.70000 1.412
70.72000 0.323
70.74000 0.990
70.76000 -0.066
70.78000 -0.569
70.80000 -1.871
70.82000 -1.128
70.84000 2.832
70.86000 1.166
70.88000 1.157
70.90000 0.100
70.92000 -1.114
70.94000 0.385
70.96000 0.443
70.98000 1.841
71.00000 1.637
71.02000 0.599
71.04000 -0.117
71.06000 -0.503
71.08000 1.227
71.10000 1.075
71.12000 -0.735
71.14000 -1.825
71.16000 -0.247
71.18000 2.687
71.20000 3.305
71.22000 1.702
71.24000 -0.449
71.26000 -0.611
71.28000 0.592
71.30000 0.045
71.32000 -1.479
71.34000 -0.882
71.36000 -1.201
71.38000 0.911
71.40000 0.527
71.42000 0.833
71.44000 1.259
71.46000 0.776
71.48000 2.549
71.50000 1.213
71.52000 0.182
71.54000 0.285
71.56000 1.493
71.58000 0.635
71.60000 0.428
71.62000 0.852
71.64000 1.908
71.66000 -0.032
71.68000 1.621
71.70000 -1.053
71.72000 1.221
71.74000 -1.429
71.76000 -1.963
71.78000 -0.797
71.80000 2.362
71.82000 4.116
71.84000 0.089
71.86000 0.408
71.88000 -0.249
71.90000 -1.790
71.92000 -1.960
71.94000 -1.004
71.96000 -0.653
71.98000 -0.987
72.00000 -0.291
72.02000 -1.151
72.04000 0.439
72.06000 0.297
72.08000 2.138
72.10000 0.425
72.12000 -0.344
72.14000 0.660
72.16000 0.143
72.18000 1.420
72.20000 2.270
72.22000 3.678
72.24000 5.778
72.26000 1.237
72.28000 -1.840
72.30000 -0.849
72.32000 -1.415
72.34000 0.409
72.36000 0.555
72.38000 1.308
72.40000 1.168
72.42000 0.488
72.44000 2.145
72.46000 2.627
72.48000 0.623
72.50000 0.586
72.52000 1.139
72.54000 1.916
72.56000 3.047
72.58000 2.079
72.60000 1.737
72.62000 0.863
72.64000 1.754
72.66000 -0.931
72.68000 1.352
72.70000 1.047
72.72000 0.597
72.74000 3.455
72.76000 2.115
72.78000 1.709
72.80000 3.412
72.82000 3.160
72.84000 1.911
72.86000 0.061
72.88000 -1.930
72.90000 -1.888
72.92000 1.785
72.94000 4.441
72.96000 8.060
72.98000 4.173
73.00000 2.846
73.02000 -1.313
73.04000 0.869
73.06000 1.459
73.08000 1.939
73.10000 1.361
73.12000 3.570
73.14000 3.893
73.16000 1.507
73.18000 -1.586
73.20000 0.883
73.22000 -0.835
73.24000 -0.798
73.26000 1.329
73.28000 1.413
73.30000 -0.072
73.32000 -1.937
73.34000 0.884
73.36000 1.822
73.38000 0.231
73.40000 -0.167
73.42000 -0.479
73.44000 0.480
73.46000 3.067
73.48000 -1.469
73.50000 -1.221
73.52000 2.150
73.54000 1.300
73.56000 1.647
73.58000 3.102
73.60000 0.597
73.62000 1.640
73.64000 1.231
73.66000 0.415
73.68000 3.808
73.70000 3.504
73.72000 1.854
73.74000 -0.573
73.76000 2.169
73.78000 1.343
73.80000 -1.933
73.82000 -1.100
73.84000 0.481
73.86000 -1.353
73.88000 -1.708
73.90000 0.328
73.92000 2.210
73.94000 1.945
73.96000 -0.955
73.98000 1.125
74.00000 1.040
74.02000 1.587
74.04000 1.973
74.06000 0.475
74.08000 1.293
74.10000 1.829
74.12000 3.256
74.14000 1.222
74.16000 -0.997
74.18000 -1.104
74.20000 1.136
74.22000 -0.197
74.24000 -0.263
74.26000 -0.237
74.28000 0.635
74.30000 3.139
74.32000 4.014
74.34000 3.067
74.36000 0.585
74.38000 -1.088
74.40000 1.978
74.42000 2.187
74.44000 0.399
74.46000 1.609
74.48000 1.209
74.50000 1.702
74.52000 1.575
74.54000 0.532
74.56000 0.690
74.58000 -1.932
74.60000 -0.619
74.62000 2.942
74.64000 4.042
74.66000 -0.382
74.68000 0.033
74.70000 -1.775
74.72000 0.087
74.74000 1.503
74.76000 1.694
74.78000 2.981
74.80000 1.595
74.82000 0.439
74.84000 -0.723
74.86000 -1.598
74.88000 -0.107
74.90000 -1.664
74.92000 -0.774
74.94000 2.166
74.96000 2.143
74.98000 -0.464
75.00000 -1.162
75.02000 -0.094
75.04000 1.385
75.06000 1.097
75.08000 0.660
75.10000 4.550
75.12000 1.165
75.14000 -0.097
75.16000 2.257
75.18000 -1.925
75.20000 1.025
75.22000 0.533
75.24000 -0.363
75.26000 3.350
75.28000 2.333
75.30000 0.662
75.32000 -0.308
75.34000 2.781
75.36000 3.595
75.38000 2.904
75.40000 -1.233
75.42000 2.729
75.44000 0.891
75.46000 0.373
75.48000 2.593
75.50000 0.228
75.52000 2.260
75.54000 0.745
75.56000 2.184
75.58000 1.177
75.60000 1.136
75.62000 1.736
75.64000 5.048
75.66000 4.147
75.68000 4.941
75.70000 3.316
75.72000 2.266
75.74000 2.259
75.76000 2.908
75.78000 3.296
75.80000 1.456
75.82000 -1.894
75.84000 -1.675
75.86000 0.156
75.88000 1.565
75.90000 3.750
75.92000 3.495
75.94000 3.802
75.96000 1.736
75.98000 1.173
76.00000 2.622
76.02000 2.732
76.04000 0.071
76.06000 -1.149
76.08000 0.505
76.10000 5.759
76.12000 4.249
76.14000 1.640
76.16000 0.641
76.18000 3.076
76.20000 2.504
76.22000 -0.539
76.24000 -1.924
76.26000 -0.321
76.28000 1.318
76.30000 3.016
76.32000 2.524
76.34000 2.128
76.36000 4.080
76.38000 6.190
76.40000 3.318
76.42000 4.194
76.44000 0.704
76.46000 -0.420
76.48000 -0.119
76.50000 0.452
76.52000 1.182
76.54000 1.951
76.56000 0.320
76.58000 2.144
76.60000 0.935
76.62000 -0.898
76.64000 0.772
76.66000 1.975
76.68000 2.497
76.70000 3.417
76.72000 1.454
76.74000 1.612
76.76000 -0.151
76.78000 -0.292
76.80000 -0.823
76.82000 -0.877
76.84000 2.011
76.86000 1.518
76.88000 1.226
76.90000 -0.173
76.92000 0.497
76.94000 0.562
76.96000 4.082
76.98000 3.378
77.00000 3.036
77.02000 0.331
77.04000 -1.119
77.06000 1.283
77.08000 1.833
77.10000 -0.877
77.12000 -0.438
77.14000 -1.037
77.16000 -0.367
77.18000 0.697
77.20000 -0.555
77.22000 1.133
77.24000 1.818
77.26000 -0.001
77.28000 -1.995
77.30000 0.481
77.32000 1.126
77.34000 -0.847
77.36000 -0.693
77.38000 2.209
77.40000 0.729
77.42000 2.140
77.44000 3.170
77.46000 0.467
77.48000 1.524
77.50000 1.830
77.52000 2.628
77.54000 2.680
77.56000 3.241
77.58000 1.632
77.60000 -0.205
77.62000 -1.447
77.64000 0.041
77.66000 -0.650
77.68000 1.936
77.70000 0.223
77.72000 -0.091
77.74000 -0.856
77.76000 0.827
77.78000 0.672
77.80000 -0.853
77.82000 -0.173
77.84000 1.372
77.86000 4.527
77.88000 -0.759
77.90000 -2.013
77.92000 -1.845
77.94000 0.876
77.96000 1.567
77.98000 1.832
78.00000 2.332
78.02000 1.362
78.04000 0.257
78.06000 0.082
78.08000 0.331
78.10000 -0.647
78.12000 0.487
78.14000 2.864
78.16000 -0.498
78.18000 -0.190
78.20000 -1.538
78.22000 1.395
78.24000 5.023
78.26000 2.738
78.28000 3.065
78.30000 -2.027
78.32000 0.585
78.34000 2.361
78.36000 1.901
78.38000 3.575
78.40000 2.961
78.42000 -0.412
78.44000 1.140
78.46000 0.971
78.48000 0.954
78.50000 1.715
78.52000 0.653
78.54000 -0.364
78.56000 -1.527
78.58000 -2.036
78.60000 -0.297
78.62000 4.461
78.64000 3.026
78.66000 3.110
78.68000 3.810
78.70000 4.408
78.72000 3.220
78.74000 -0.189
78.76000 1.719
78.78000 0.005
78.80000 1.149
78.82000 2.845
78.84000 6.015
78.86000 4.535
78.88000 -0.315
78.90000 -0.872
78.92000 -0.382
78.94000 0.506
78.96000 2.087
78.98000 2.393
79.00000 1.898
79.02000 -2.044
79.04000 0.534
79.06000 1.818
79.08000 1.254
79.10000 4.421
79.12000 4.955
79.14000 3.652
79.16000 1.702
79.18000 0.179
79.20000 -1.120
79.22000 0.668
79.24000 3.943
79.26000 4.902
79.28000 4.530
79.30000 4.375
79.32000 5.266
79.34000 5.536
79.36000 2.830
79.38000 5.132
79.40000 5.256
79.42000 3.955
79.44000 2.402
79.46000 6.096
79.48000 5.106
79.50000 4.395
79.52000 6.099
79.54000 4.954
79.56000 4.667
79.58000 6.665
79.60000 7.225
79.62000 3.103
79.64000 5.561
79.66000 6.699
79.68000 6.374
79.70000 6.376
79.72000 7.698
79.74000 10.937
79.76000 7.788
79.78000 4.849
79.80000 6.694
79.82000 3.726
79.84000 3.652
79.86000 5.750
79.88000 8.769
79.90000 12.442
79.92000 12.612
79.94000 9.269
79.96000 12.552
79.98000 14.845
80.00000 12.393
80.02000 13.695
80.04000 11.609
80.06000 11.048
80.08000 11.476
80.10000 9.849
80.12000 10.275
80.14000 10.477
80.16000 16.716
80.18000 17.918
80.20000 18.240
80.22000 14.308
80.24000 19.221
80.26000 13.963
80.28000 13.229
80.30000 16.678
80.32000 18.001
80.34000 18.603
80.36000 19.232
80.38000 16.507
80.40000 19.213
80.42000 20.845
80.44000 21.185
80.46000 20.996
80.48000 23.367
80.50000 18.907
80.52000 20.138
80.54000 19.254
80.56000 20.924
80.58000 21.845
80.60000 22.586
80.62000 19.153
80.64000 20.324
80.66000 24.314
80.68000 26.516
80.70000 28.033
80.72000 21.907
80.74000 21.099
80.76000 19.597
80.78000 21.476
80.80000 24.843
80.82000 24.738
80.84000 22.754
80.86000 18.514
80.88000 18.903
80.90000 22.799
80.92000 21.012
80.94000 23.718
80.96000 22.324
80.98000 19.561
81.00000 18.376
81.02000 17.754
81.04000 15.669
81.06000 13.092
81.08000 16.745
81.10000 19.626
81.12000 18.074
81.14000 17.545
81.16000 15.402
81.18000 12.810
81.20000 14.401
81.22000 14.882
81.24000 12.833
81.26000 13.036
81.28000 13.515
81.30000 12.175
81.32000 9.834
81.34000 11.322
81.36000 12.495
81.38000 13.474
81.40000 11.294
81.42000 11.209
81.44000 8.832
81.46000 7.607
81.48000 7.617
81.50000 11.146
81.52000 11.944
81.54000 8.223
81.56000 4.756
81.58000 4.440
81.60000 5.318
81.62000 7.254
81.64000 2.176
81.66000 2.965
81.68000 4.411
81.70000 4.330
81.72000 1.665
81.74000 3.609
81.76000 5.076
81.78000 6.086
81.80000 1.404
81.82000 2.576
81.84000 1.935
81.86000 3.362
81.88000 7.391
81.90000 7.701
81.92000 6.293
81.94000 2.874
81.96000 1.227
81.98000 2.930
82.00000 5.018
82.02000 2.917
82.04000 2.437
82.06000 0.634
82.08000 0.170
82.10000 -1.073
82.12000 0.087
82.14000 -0.148
82.16000 -1.439
82.18000 -2.143
82.20000 1.030
82.22000 0.586
82.24000 2.270
82.26000 3.615
82.28000 5.043
82.30000 2.177
82.32000 2.571
82.34000 5.864
82.36000 1.908
82.38000 -1.942
82.40000 0.059
82.42000 4.352
82.44000 4.035
82.46000 2.094
82.48000 2.245
82.50000 -2.114
82.52000 -1.480
82.54000 -2.115
82.56000 -2.139
82.58000 -1.619
82.60000 -0.050
82.62000 1.511
82.64000 -0.502
82.66000 0.209
82.68000 -1.576
82.70000 0.873
82.72000 1.479
82.74000 0.375
82.76000 4.376
82.78000 4.473
82.80000 3.415
82.82000 1.493
82.84000 2.621
82.86000 2.775
82.88000 4.154
82.90000 1.395
82.92000 2.089
82.94000 2.891
82.96000 2.537
82.98000 0.111
83.00000 -2.140
83.02000 0.574
83.04000 2.069
83.06000 2.629
83.08000 1.564
83.10000 -1.005
83.12000 0.311
83.14000 1.889
83.16000 3.303
83.18000 3.634
83.20000 3.298
83.22000 1.752
83.24000 2.495
83.26000 3.095
83.28000 1.772
83.30000 1.023
83.32000 4.505
83.34000 4.216
83.36000 1.014
83.38000 1.574
83.40000 0.087
83.42000 -0.525
83.44000 -0.089
83.46000 1.810
83.48000 2.177
83.50000 4.180
83.52000 6.236
83.54000 4.070
83.56000 4.151
83.58000 6.049
83.60000 4.142
83.62000 5.151
83.64000 9.163
83.66000 8.453
83.68000 6.733
83.70000 5.434
83.72000 7.227
83.74000 7.584
83.76000 8.350
83.78000 7.337
83.80000 8.403
83.82000 8.055
83.84000 8.051
83.86000 6.535
83.88000 8.477
83.90000 10.957
83.92000 9.946
83.94000 12.612
83.96000 8.066
83.98000 8.883
84.00000 9.680
84.02000 8.231
84.04000 10.926
84.06000 15.860
84.08000 15.419
84.10000 15.467
84.12000 11.269
84.14000 14.152
84.16000 16.777
84.18000 16.290
84.20000 16.139
84.22000 15.287
84.24000 16.097
84.26000 17.135
84.28000 15.935
84.30000 17.591
84.32000 22.046
84.34000 22.605
84.36000 19.302
84.38000 19.095
84.40000 19.176
84.42000 18.497
84.44000 18.527
84.46000 17.285
84.48000 19.836
84.50000 17.653
84.52000 20.214
84.54000 20.303
84.56000 22.873
84.58000 21.191
84.60000 21.100
84.62000 16.632
84.64000 17.216
84.66000 21.682
84.68000 20.587
84.70000 21.217
84.72000 20.717
84.74000 17.353
84.76000 17.897
84.78000 20.728
84.80000 20.881
84.82000 15.336
84.84000 17.242
84.86000 18.026
84.88000 17.491
84.90000 19.558
84.92000 18.481
84.94000 18.108
84.96000 16.104
84.98000 16.643
85.00000 13.606
85.02000 14.745
85.04000 11.805
85.06000 10.620
85.08000 11.379
85.10000 13.810
85.12000 14.066
85.14000 8.854
85.16000 7.846
85.18000 8.480
85.20000 6.879
85.22000 6.248
85.24000 5.613
85.26000 4.891
85.28000 7.606
85.30000 7.661
85.32000 7.234
85.34000 5.697
85.36000 5.310
85.38000 2.906
85.40000 5.588
85.42000 2.100
85.44000 1.925
85.46000 1.037
85.48000 1.951
85.50000 1.522
85.52000 -1.175
85.54000 -2.018
85.56000 3.051
85.58000 5.813
85.60000 3.971
85.62000 0.669
85.64000 3.095
85.66000 -0.593
85.68000 0.429
85.70000 0.775
85.72000 0.147
85.74000 3.806
85.76000 2.552
85.78000 1.247
85.80000 -0.269
85.82000 0.074
85.84000 6.482
85.86000 3.506
85.88000 2.126
85.90000 -0.581
85.92000 -0.283
85.94000 0.015
85.96000 0.225
85.98000 1.675
86.00000 -0.398
86.02000 1.215
86.04000 0.007
86.06000 -1.009
86.08000 0.476
86.10000 0.966
86.12000 4.465
86.14000 3.845
86.16000 -0.988
86.18000 -0.245
86.20000 -1.853
86.22000 2.814
86.24000 1.187
86.26000 0.051
86.28000 0.715
86.30000 0.895
86.32000 2.459
86.34000 1.509
86.36000 1.020
86.38000 1.041
86.40000 1.515
86.42000 1.668
86.44000 2.302
86.46000 4.348
86.48000 1.676
86.50000 0.257
86.52000 -1.857
86.54000 -0.854
86.56000 1.028
86.58000 2.913
86.60000 1.031
86.62000 -0.090
86.64000 -1.098
86.66000 0.809
86.68000 -0.492
86.70000 -0.846
86.72000 -0.118
86.74000 2.682
86.76000 1.175
86.78000 0.962
86.80000 0.756
86.82000 1.148
86.84000 1.266
86.86000 -1.299
86.88000 -1.563
86.90000 -0.103
86.92000 1.037
86.94000 1.511
86.96000 1.774
86.98000 1.274
87.00000 1.606
87.02000 1.551
87.04000 0.339
87.06000 -0.296
87.08000 0.865
87.10000 2.408
87.12000 0.945
87.14000 1.638
87.16000 0.970
87.18000 1.412
87.20000 0.030
87.22000 0.759
87.24000 1.393
87.26000 3.264
87.28000 1.513
87.30000 0.304
87.32000 -0.181
87.34000 -1.071
87.36000 2.878
87.38000 1.951
87.40000 0.884
87.42000 0.051
87.44000 1.041
87.46000 -1.831
87.48000 -1.432
87.50000 -0.118
87.52000 2.693
87.54000 2.204
87.56000 0.510
87.58000 0.174
87.60000 -0.210
87.62000 -0.100
87.64000 1.041
87.66000 1.119
87.68000 2.960
87.70000 2.780
87.72000 1.731
87.74000 2.294
87.76000 -0.195
87.78000 -0.979
87.80000 -0.973
87.82000 -1.682
87.84000 2.709
87.86000 4.758
87.88000 4.409
87.90000 2.567
87.92000 3.076
87.94000 2.953
87.96000 -0.425
87.98000 -1.800
88.00000 -1.410
88.02000 1.253
88.04000 0.438
88.06000 2.786
88.08000 3.577
88.10000 -0.054
88.12000 1.517
88.14000 2.570
88.16000 4.001
88.18000 2.112
88.20000 3.068
88.22000 1.547
88.24000 -0.749
88.26000 1.987
88.28000 0.974
88.30000 3.703
88.32000 3.562
88.34000 1.375
88.36000 2.181
88.38000 -0.025
88.40000 -0.818
88.42000 -0.553
88.44000 -1.759
88.46000 0.293
88.48000 5.165
88.50000 3.107
88.52000 3.351
88.54000 1.925
88.56000 2.298
88.58000 3.407
88.60000 3.306
88.62000 3.846
88.64000 2.548
88.66000 -1.350
88.68000 0.232
88.70000 0.093
88.72000 0.298
88.74000 0.962
88.76000 -0.491
88.78000 0.175
88.80000 -0.711
88.82000 2.892
88.84000 2.922
88.86000 2.551
88.88000 3.862
88.90000 3.192
88.92000 1.980
88.94000 1.102
88.96000 2.634
88.98000 0.821
89.00000 2.572
89.02000 1.975
89.04000 0.124
89.06000 2.029
89.08000 5.249
89.10000 3.200
89.12000 2.432
89.14000 0.950
89.16000 0.448
89.18000 2.541
89.20000 2.526
89.22000 2.469
89.24000 0.339
89.26000 -0.274
89.28000 1.712
89.30000 1.779
89.32000 1.270
89.34000 0.386
89.36000 0.696
89.38000 0.267
89.40000 -0.090
89.42000 1.103
89.44000 1.205
89.46000 0.063
89.48000 1.111
89.50000 3.968
89.52000 1.549
89.54000 1.452
89.56000 -0.566
89.58000 -0.063
89.60000 1.345
89.62000 0.467
89.64000 0.402
89.66000 -1.785
89.68000 0.465
89.70000 0.278
89.72000 -0.466
89.74000 2.934
89.76000 1.858
89.78000 1.491
89.80000 2.590
89.82000 2.696
89.84000 -1.786
89.86000 3.964
89.88000 3.049
89.90000 2.761
89.92000 0.361
89.94000 -0.556
89.96000 -1.083
89.98000 0.012
90.00000 2.066
90.02000 2.196
90.04000 1.354
90.06000 0.746
90.08000 -1.644
90.10000 -0.396
90.12000 0.960
90.14000 0.360
90.16000 -0.034
90.18000 -1.795
90.20000 -0.714
90.22000 -1.712
90.24000 -0.722
90.26000 -0.161
90.28000 -0.191
90.30000 0.280
90.32000 0.942
90.34000 3.116
90.36000 3.277
90.38000 2.455
90.40000 2.874
90.42000 2.936
90.44000 1.467
90.46000 0.819
90.48000 -1.796
90.50000 0.628
90.52000 0.256
90.54000 0.658
90.56000 0.656
90.58000 1.866
90.60000 0.041
90.62000 0.363
90.64000 1.600
90.66000 0.787
90.68000 1.557
90.70000 2.939
90.72000 2.554
90.74000 0.750
90.76000 0.436
90.78000 -1.463
90.80000 0.806
90.82000 2.174
90.84000 1.104
90.86000 1.995
90.88000 2.867
90.90000 2.337
90.92000 2.341
90.94000 3.884
90.96000 3.008
90.98000 3.467
91.00000 0.204
91.02000 0.039
91.04000 -1.403
91.06000 1.017
91.08000 2.223
91.10000 1.566
91.12000 -0.951
91.14000 1.479
91.16000 4.937
91.18000 0.784
91.20000 0.354
91.22000 -0.929
91.24000 -1.786
91.26000 -1.654
91.28000 2.040
91.30000 2.382
91.32000 1.234
91.34000 1.815
91.36000 3.265
91.38000 4.960
91.40000 5.695
91.42000 5.250
91.44000 3.545
91.46000 -0.628
91.48000 1.330
91.50000 1.532
91.52000 2.126
91.54000 3.420
91.56000 2.451
91.58000 1.794
91.60000 0.623
91.62000 3.505
91.64000 6.037
91.66000 5.461
91.68000 1.536
91.70000 2.747
91.72000 1.806
91.74000 1.767
91.76000 3.890
91.78000 5.038
91.80000 2.198
91.82000 4.882
91.84000 4.175
91.86000 3.075
91.88000 2.428
91.90000 3.761
91.92000 0.877
91.94000 2.032
91.96000 1.150
91.98000 0.525
92.00000 0.804
92.02000 2.799
92.04000 5.764
92.06000 7.072
92.08000 3.202
92.10000 -1.758
92.12000 1.456
92.14000 2.794
92.16000 1.803
92.18000 2.497
92.20000 5.565
92.22000 4.764
92.24000 2.566
92.26000 3.787
92.28000 4.588
92.30000 4.596
92.32000 3.008
92.34000 3.771
92.36000 6.169
92.38000 3.756
92.40000 3.033
92.42000 4.253
92.44000 3.091
92.46000 -0.482
92.48000 1.673
92.50000 1.963
92.52000 4.458
92.54000 2.771
92.56000 1.049
92.58000 -0.142
92.60000 3.609
92.62000 3.254
92.64000 0.392
92.66000 3.854
92.68000 4.000
92.70000 4.100
92.72000 -0.596
92.74000 1.692
92.76000 4.649
92.78000 3.422
92.80000 2.537
92.82000 2.601
92.84000 -0.072
92.86000 0.547
92.88000 2.912
92.90000 0.567
92.92000 -0.137
92.94000 1.472
92.96000 1.085
92.98000 1.905
93.00000 3.319
93.02000 5.881
93.04000 6.006
93.06000 1.717
93.08000 -1.349
93.10000 0.004
93.12000 -1.019
93.14000 0.311
93.16000 2.353
93.18000 2.732
93.20000 -0.452
93.22000 1.828
93.24000 -0.630
93.26000 -1.792
93.28000 -0.417
93.30000 2.760
93.32000 0.911
93.34000 2.345
93.36000 7.103
93.38000 4.884
93.40000 3.155
93.42000 0.753
93.44000 2.889
93.46000 1.359
93.48000 1.397
93.50000 3.395
93.52000 2.402
93.54000 2.502
93.56000 0.155
93.58000 4.204
93.60000 4.806
93.62000 -0.226
93.64000 2.690
93.66000 5.011
93.68000 2.169
93.70000 0.131
93.72000 0.085
93.74000 0.425
93.76000 0.147
93.78000 2.583
93.80000 1.658
93.82000 3.309
93.84000 3.971
93.86000 0.853
93.88000 0.567
93.90000 -1.772
93.92000 1.020
93.94000 2.671
93.96000 7.882
93.98000 3.528
94.00000 1.931
94.02000 2.995
94.04000 3.524
94.06000 1.718
94.08000 2.673
94.10000 2.753
94.12000 5.747
94.14000 4.908
94.16000 3.630
94.18000 2.017
94.20000 1.872
94.22000 0.903
94.24000 0.596
94.26000 2.779
94.28000 4.015
94.30000 4.745
94.32000 0.903
94.34000 -0.340
94.36000 1.212
94.38000 2.011
94.40000 1.264
94.42000 4.134
94.44000 5.236
94.46000 3.549
94.48000 1.148
94.50000 1.488
94.52000 2.945
94.54000 5.005
94.56000 4.005
94.58000 0.991
94.60000 0.107
94.62000 2.179
94.64000 6.022
94.66000 3.782
94.68000 5.545
94.70000 5.010
94.72000 1.386
94.74000 2.511
94.76000 3.623
94.78000 2.763
94.80000 -1.493
94.82000 -1.579
94.84000 -1.816
94.86000 -1.510
94.88000 1.424
94.90000 4.270
94.92000 0.388
94.94000 2.048
94.96000 4.883
94.98000 4.811
95.00000 1.258
95.02000 2.314
95.04000 5.091
95.06000 1.676
95.08000 3.112
95.10000 0.268
95.12000 -0.797
95.14000 1.181
95.16000 5.203
95.18000 2.886
95.20000 0.302
95.22000 -0.071
95.24000 -0.412
95.26000 0.352
95.28000 0.210
95.30000 -0.257
95.32000 -0.514
95.34000 -0.111
95.36000 4.738
95.38000 4.880
95.40000 5.886
95.42000 4.218
95.44000 1.245
95.46000 1.969
95.48000 1.083
95.50000 0.273
95.52000 0.012
95.54000 4.381
95.56000 3.581
95.58000 -1.807
95.60000 -1.535
95.62000 0.368
95.64000 1.882
95.66000 0.545
95.68000 2.755
95.70000 2.916
95.72000 3.001
95.74000 3.257
95.76000 0.893
95.78000 3.832
95.80000 5.344
95.82000 0.855
95.84000 0.780
95.86000 0.304
95.88000 2.696
95.90000 3.128
95.92000 4.106
95.94000 3.606
95.96000 5.940
95.98000 5.574
96.00000 3.237
96.02000 2.826
96.04000 5.283
96.06000 4.435
96.08000 1.978
96.10000 1.808
96.12000 1.532
96.14000 1.726
96.16000 -1.836
96.18000 -0.688
96.20000 0.553
96.22000 -0.436
96.24000 -1.237
96.26000 -1.436
96.28000 0.733
96.30000 2.424
96.32000 -0.865
96.34000 0.303
96.36000 1.577
96.38000 2.919
96.40000 3.915
96.42000 1.974
96.44000 0.958
96.46000 2.141
96.48000 2.366
96.50000 0.430
96.52000 -0.762
96.54000 -0.097
96.56000 0.726
96.58000 4.149
96.60000 8.146
96.62000 5.723
96.64000 1.356
96.66000 4.980
96.68000 6.667
96.70000 4.314
96.72000 2.786
96.74000 3.021
96.76000 2.106
96.78000 2.051
96.80000 1.132
96.82000 5.129
96.84000 5.886
96.86000 4.450
96.88000 2.940
96.90000 3.466
96.92000 -1.025
96.94000 0.642
96.96000 3.110
96.98000 5.647
97.00000 1.243
97.02000 2.612
97.04000 4.541
97.06000 1.789
97.08000 3.254
97.10000 5.009
97.12000 3.284
97.14000 3.707
97.16000 5.274
97.18000 5.394
97.20000 3.867
97.22000 3.795
97.24000 3.001
97.26000 1.442
97.28000 1.221
97.30000 1.224
97.32000 0.122
97.34000 4.521
97.36000 4.238
97.38000 4.256
97.40000 1.894
97.42000 -1.768
97.44000 1.259
97.46000 0.143
97.48000 2.455
97.50000 2.474
97.52000 3.873
97.54000 6.900
97.56000 7.508
97.58000 6.336
97.60000 2.185
97.62000 1.911
97.64000 0.361
97.66000 0.657
97.68000 3.834
97.70000 5.887
97.72000 9.222
97.74000 5.962
97.76000 7.280
97.78000 5.744
97.80000 5.594
97.82000 4.726
97.84000 8.785
97.86000 7.430
97.88000 6.174
97.90000 8.177
97.92000 7.858
97.94000 3.969
97.96000 7.609
97.98000 2.914
98.00000 3.301
98.02000 9.070
98.04000 12.343
98.06000 11.067
98.08000 4.598
98.10000 -0.027
98.12000 -1.735
98.14000 2.211
98.16000 4.178
98.18000 5.380
98.20000 5.373
98.22000 6.048
98.24000 4.270
98.26000 3.592
98.28000 5.711
98.30000 6.265
98.32000 -1.480
98.34000 0.320
98.36000 5.872
98.38000 4.371
98.40000 4.113
98.42000 -0.410
98.44000 5.685
98.46000 3.599
98.48000 1.741
98.50000 4.614
98.52000 6.064
98.54000 4.120
98.56000 3.323
98.58000 -0.660
98.60000 2.053
98.62000 1.844
98.64000 5.449
98.66000 5.754
98.68000 5.826
98.70000 3.280
98.72000 5.783
98.74000 4.640
98.76000 0.119
98.78000 7.481
98.80000 8.364
98.82000 5.891
98.84000 4.957
98.86000 5.001
98.88000 4.255
98.90000 2.107
98.92000 5.475
98.94000 8.196
98.96000 4.849
98.98000 1.036
99.00000 0.792
99.02000 3.301
99.04000 3.879
99.06000 5.041
99.08000 4.476
99.10000 5.277
99.12000 6.369
99.14000 8.518
99.16000 9.348
99.18000 8.056
99.20000 3.989
99.22000 0.073
99.24000 -0.066
99.26000 -1.748
99.28000 2.352
99.30000 10.681
99.32000 7.621
99.34000 2.336
99.36000 3.981
99.38000 0.336
99.40000 7.136
99.42000 6.125
99.44000 4.278
99.46000 5.111
99.48000 9.459
99.50000 6.449
99.52000 2.742
99.54000 2.231
99.56000 3.849
99.58000 2.934
99.60000 0.784
99.62000 1.108
99.64000 1.986
99.66000 -1.806
99.68000 1.353
99.70000 5.406
99.72000 2.917
99.74000 3.415
99.76000 4.939
99.78000 7.571
99.80000 6.986
99.82000 7.242
99.84000 0.304
99.86000 0.122
99.88000 -1.836
99.90000 1.846
99.92000 -1.896
99.94000 4.735
99.96000 -1.987
99.98000 0.000
