'Id: "0011387" Comment: "Integrate frame 0011387_Au-Ir-Rh_Rh-rich_XRD-Mapping-120-0000.gfrmwith cursor Wedge Cursor #5" Operator: "B?rgel" Anode: "Cu" Wavelength: "1.5406" Scantype: "2Theta (TwoTheta)" TimePerStep: "1" X: "-22.5" Y: "-9" Z: "5.95" 
10.00000 0.000
10.02000 17.571
10.04000 11.602
10.06000 -4.453
10.08000 0.345
10.10000 16.632
10.12000 12.480
10.14000 23.420
10.16000 10.222
10.18000 -4.389
10.20000 9.242
10.22000 17.513
10.24000 -3.004
10.26000 -2.456
10.28000 11.675
10.30000 10.244
10.32000 17.687
10.34000 8.433
10.36000 18.184
10.38000 5.692
10.40000 4.761
10.42000 14.197
10.44000 24.101
10.46000 22.959
10.48000 22.664
10.50000 16.788
10.52000 9.971
10.54000 8.027
10.56000 10.747
10.58000 9.270
10.60000 18.484
10.62000 23.236
10.64000 10.055
10.66000 4.781
10.68000 -4.358
10.70000 5.889
10.72000 13.770
10.74000 26.016
10.76000 20.448
10.78000 7.942
10.80000 16.484
10.82000 24.415
10.84000 11.776
10.86000 3.704
10.88000 11.797
10.90000 12.982
10.92000 20.588
10.94000 10.172
10.96000 5.478
10.98000 12.189
11.00000 11.512
11.02000 12.568
11.04000 11.327
11.06000 -1.074
11.08000 8.827
11.10000 19.800
11.12000 6.624
11.14000 -1.601
11.16000 -2.707
11.18000 2.168
11.20000 1.913
11.22000 10.371
11.24000 8.290
11.26000 10.027
11.28000 19.471
11.30000 12.454
11.32000 21.939
11.34000 19.202
11.36000 14.466
11.38000 23.011
11.40000 13.349
11.42000 4.694
11.44000 16.302
11.46000 4.884
11.48000 3.446
11.50000 6.381
11.52000 3.393
11.54000 4.326
11.56000 2.569
11.58000 1.435
11.60000 -3.388
11.62000 1.133
11.64000 1.967
11.66000 0.879
11.68000 4.396
11.70000 5.190
11.72000 1.172
11.74000 4.726
11.76000 7.201
11.78000 -1.886
11.80000 0.581
11.82000 9.578
11.84000 -1.108
11.86000 2.771
11.88000 8.121
11.90000 11.106
11.92000 8.307
11.94000 6.078
11.96000 4.418
11.98000 10.181
12.00000 -0.425
12.02000 10.414
12.04000 17.056
12.06000 17.603
12.08000 11.034
12.10000 9.999
12.12000 17.282
12.14000 7.090
12.16000 6.173
12.18000 14.928
12.20000 14.903
12.22000 5.631
12.24000 3.146
12.26000 1.698
12.28000 17.149
12.30000 10.430
12.32000 10.529
12.34000 14.886
12.36000 14.285
12.38000 -1.966
12.40000 -4.459
12.42000 9.663
12.44000 22.096
12.46000 11.216
12.48000 4.900
12.50000 6.196
12.52000 -0.965
12.54000 4.907
12.56000 11.351
12.58000 15.268
12.60000 17.495
12.62000 16.352
12.64000 11.638
12.66000 5.664
12.68000 7.011
12.70000 9.409
12.72000 18.678
12.74000 12.401
12.76000 5.214
12.78000 8.701
12.80000 12.715
12.82000 5.761
12.84000 6.012
12.86000 7.410
12.88000 8.895
12.90000 14.253
12.92000 11.268
12.94000 8.932
12.96000 8.062
12.98000 9.629
13.00000 4.278
13.02000 9.539
13.04000 9.845
13.06000 9.201
13.08000 -3.110
13.10000 -0.896
13.12000 2.296
13.14000 5.526
13.16000 10.574
13.18000 15.739
13.20000 -0.034
13.22000 3.250
13.24000 7.051
13.26000 8.733
13.28000 8.306
13.30000 3.650
13.32000 3.959
13.34000 6.325
13.36000 10.003
13.38000 0.756
13.40000 3.614
13.42000 23.513
13.44000 21.917
13.46000 1.561
13.48000 1.515
13.50000 2.182
13.52000 2.825
13.54000 13.226
13.56000 7.574
13.58000 5.271
13.60000 8.061
13.62000 10.324
13.64000 2.276
13.66000 -0.079
13.68000 5.292
13.70000 5.777
13.72000 2.651
13.74000 1.775
13.76000 0.654
13.78000 9.503
13.80000 9.791
13.82000 5.679
13.84000 3.773
13.86000 2.744
13.88000 5.899
13.90000 7.127
13.92000 -0.680
13.94000 1.822
13.96000 5.336
13.98000 17.152
14.00000 12.543
14.02000 10.522
14.04000 15.388
14.06000 11.335
14.08000 20.398
14.10000 13.891
14.12000 12.774
14.14000 7.507
14.16000 13.535
14.18000 10.107
14.20000 6.718
14.22000 2.771
14.24000 -0.066
14.26000 0.808
14.28000 4.716
14.30000 13.178
14.32000 7.344
14.34000 7.078
14.36000 7.767
14.38000 7.843
14.40000 5.020
14.42000 2.609
14.44000 -3.917
14.46000 5.286
14.48000 1.540
14.50000 -1.646
14.52000 7.493
14.54000 20.716
14.56000 10.389
14.58000 2.577
14.60000 14.413
14.62000 12.407
14.64000 12.742
14.66000 4.736
14.68000 0.178
14.70000 9.960
14.72000 7.283
14.74000 0.628
14.76000 9.166
14.78000 13.704
14.80000 12.367
14.82000 13.094
14.84000 13.461
14.86000 5.292
14.88000 11.612
14.90000 14.406
14.92000 9.209
14.94000 10.264
14.96000 4.071
14.98000 5.237
15.00000 9.797
15.02000 9.973
15.04000 9.668
15.06000 8.496
15.08000 6.947
15.10000 13.372
15.12000 19.858
15.14000 10.785
15.16000 -3.231
15.18000 -0.915
15.20000 8.128
15.22000 7.674
15.24000 5.980
15.26000 11.097
15.28000 8.135
15.30000 4.434
15.32000 4.084
15.34000 11.118
15.36000 11.481
15.38000 6.083
15.40000 0.809
15.42000 2.938
15.44000 9.741
15.46000 8.943
15.48000 16.435
15.50000 14.008
15.52000 10.789
15.54000 10.055
15.56000 11.200
15.58000 12.389
15.60000 0.891
15.62000 -4.401
15.64000 10.032
15.66000 11.664
15.68000 8.950
15.70000 7.252
15.72000 5.024
15.74000 4.803
15.76000 11.369
15.78000 11.018
15.80000 5.917
15.82000 8.471
15.84000 12.927
15.86000 6.655
15.88000 3.819
15.90000 15.329
15.92000 12.190
15.94000 4.425
15.96000 4.848
15.98000 13.017
16.00000 14.364
16.02000 6.424
16.04000 -2.590
16.06000 6.989
16.08000 9.653
16.10000 5.114
16.12000 18.665
16.14000 14.506
16.16000 8.695
16.18000 0.774
16.20000 -0.816
16.22000 5.605
16.24000 11.273
16.26000 6.711
16.28000 12.357
16.30000 5.293
16.32000 -0.238
16.34000 6.221
16.36000 9.471
16.38000 13.167
16.40000 6.625
16.42000 1.725
16.44000 -0.494
16.46000 2.377
16.48000 -0.913
16.50000 9.412
16.52000 6.070
16.54000 0.768
16.56000 5.830
16.58000 6.608
16.60000 8.574
16.62000 8.851
16.64000 8.584
16.66000 4.842
16.68000 0.463
16.70000 7.413
16.72000 11.678
16.74000 13.794
16.76000 5.803
16.78000 11.641
16.80000 5.190
16.82000 4.760
16.84000 1.103
16.86000 3.409
16.88000 3.940
16.90000 6.132
16.92000 11.239
16.94000 6.277
16.96000 3.373
16.98000 6.312
17.00000 6.776
17.02000 7.337
17.04000 6.719
17.06000 7.189
17.08000 9.105
17.10000 4.852
17.12000 4.003
17.14000 7.355
17.16000 7.651
17.18000 5.063
17.20000 0.926
17.22000 0.027
17.24000 7.121
17.26000 4.724
17.28000 8.824
17.30000 5.641
17.32000 9.690
17.34000 12.514
17.36000 4.258
17.38000 3.951
17.40000 0.331
17.42000 6.535
17.44000 5.972
17.46000 8.481
17.48000 3.896
17.50000 -1.463
17.52000 -4.336
17.54000 7.498
17.56000 14.069
17.58000 4.629
17.60000 7.711
17.62000 7.814
17.64000 5.130
17.66000 6.492
17.68000 1.919
17.70000 -2.410
17.72000 2.484
17.74000 5.516
17.76000 2.501
17.78000 7.820
17.80000 16.469
17.82000 12.536
17.84000 20.444
17.86000 18.621
17.88000 11.102
17.90000 16.383
17.92000 14.662
17.94000 5.826
17.96000 2.521
17.98000 4.877
18.00000 -0.411
18.02000 9.021
18.04000 11.777
18.06000 9.980
18.08000 10.302
18.10000 8.529
18.12000 2.952
18.14000 3.374
18.16000 3.653
18.18000 -4.296
18.20000 4.749
18.22000 3.010
18.24000 3.641
18.26000 3.842
18.28000 3.830
18.30000 2.610
18.32000 1.455
18.34000 -1.941
18.36000 -0.858
18.38000 3.166
18.40000 9.958
18.42000 9.521
18.44000 7.905
18.46000 8.494
18.48000 1.390
18.50000 -3.100
18.52000 -1.227
18.54000 3.730
18.56000 5.960
18.58000 4.061
18.60000 11.395
18.62000 7.119
18.64000 4.418
18.66000 6.857
18.68000 8.081
18.70000 3.871
18.72000 4.340
18.74000 9.149
18.76000 11.124
18.78000 2.580
18.80000 1.374
18.82000 5.180
18.84000 4.282
18.86000 0.763
18.88000 -1.880
18.90000 -2.625
18.92000 5.299
18.94000 4.704
18.96000 10.866
18.98000 8.253
19.00000 7.086
19.02000 7.311
19.04000 6.846
19.06000 -0.391
19.08000 3.652
19.10000 17.870
19.12000 18.247
19.14000 9.689
19.16000 1.302
19.18000 -0.360
19.20000 -2.230
19.22000 8.840
19.24000 14.083
19.26000 4.679
19.28000 -2.064
19.30000 3.862
19.32000 9.898
19.34000 8.247
19.36000 11.435
19.38000 5.894
19.40000 2.699
19.42000 9.642
19.44000 8.912
19.46000 12.051
19.48000 4.895
19.50000 7.555
19.52000 11.197
19.54000 12.323
19.56000 10.893
19.58000 7.447
19.60000 9.197
19.62000 12.609
19.64000 4.560
19.66000 6.257
19.68000 5.151
19.70000 2.651
19.72000 9.578
19.74000 6.860
19.76000 6.245
19.78000 10.847
19.80000 6.499
19.82000 8.654
19.84000 10.788
19.86000 9.227
19.88000 6.993
19.90000 5.334
19.92000 3.138
19.94000 8.421
19.96000 6.322
19.98000 10.190
20.00000 4.190
20.02000 -4.157
20.04000 1.468
20.06000 10.217
20.08000 3.063
20.10000 12.255
20.12000 12.224
20.14000 5.417
20.16000 7.352
20.18000 8.826
20.20000 8.867
20.22000 7.620
20.24000 0.305
20.26000 -0.377
20.28000 3.451
20.30000 -2.366
20.32000 -0.851
20.34000 -3.046
20.36000 6.156
20.38000 6.306
20.40000 10.252
20.42000 12.176
20.44000 6.763
20.46000 9.008
20.48000 13.370
20.50000 8.557
20.52000 2.970
20.54000 -0.727
20.56000 -2.868
20.58000 -2.804
20.60000 4.175
20.62000 5.735
20.64000 3.643
20.66000 5.866
20.68000 -0.983
20.70000 -0.975
20.72000 -0.313
20.74000 1.888
20.76000 -1.193
20.78000 4.321
20.80000 9.851
20.82000 10.037
20.84000 3.017
20.86000 3.731
20.88000 5.652
20.90000 5.582
20.92000 9.461
20.94000 6.546
20.96000 3.150
20.98000 4.152
21.00000 5.495
21.02000 6.966
21.04000 4.572
21.06000 -3.927
21.08000 5.840
21.10000 10.046
21.12000 5.040
21.14000 4.701
21.16000 2.682
21.18000 5.776
21.20000 2.734
21.22000 -0.628
21.24000 6.657
21.26000 6.020
21.28000 0.309
21.30000 2.928
21.32000 8.020
21.34000 3.328
21.36000 0.460
21.38000 5.154
21.40000 5.224
21.42000 6.509
21.44000 7.990
21.46000 7.010
21.48000 4.151
21.50000 -2.516
21.52000 -3.304
21.54000 0.660
21.56000 -1.801
21.58000 -1.489
21.60000 -2.447
21.62000 -2.169
21.64000 1.607
21.66000 -0.967
21.68000 -3.935
21.70000 4.567
21.72000 5.595
21.74000 2.968
21.76000 -2.642
21.78000 -3.139
21.80000 -3.654
21.82000 -1.276
21.84000 5.853
21.86000 3.013
21.88000 1.717
21.90000 1.765
21.92000 1.947
21.94000 1.026
21.96000 -2.817
21.98000 0.114
22.00000 4.965
22.02000 0.943
22.04000 6.143
22.06000 4.586
22.08000 6.482
22.10000 4.428
22.12000 5.918
22.14000 7.721
22.16000 6.741
22.18000 9.246
22.20000 6.715
22.22000 4.270
22.24000 2.659
22.26000 -0.600
22.28000 3.670
22.30000 6.773
22.32000 7.810
22.34000 7.213
22.36000 -1.538
22.38000 -4.062
22.40000 0.979
22.42000 2.239
22.44000 12.428
22.46000 12.056
22.48000 12.164
22.50000 11.646
22.52000 6.422
22.54000 2.627
22.56000 6.735
22.58000 5.035
22.60000 8.483
22.62000 4.826
22.64000 4.561
22.66000 6.029
22.68000 5.406
22.70000 8.563
22.72000 7.176
22.74000 3.656
22.76000 3.148
22.78000 6.478
22.80000 5.896
22.82000 3.818
22.84000 4.283
22.86000 3.592
22.88000 4.558
22.90000 4.180
22.92000 3.071
22.94000 -3.953
22.96000 -0.625
22.98000 2.725
23.00000 -0.348
23.02000 2.993
23.04000 1.552
23.06000 -0.842
23.08000 2.513
23.10000 1.120
23.12000 -1.634
23.14000 -2.547
23.16000 0.251
23.18000 1.196
23.20000 5.257
23.22000 5.387
23.24000 11.910
23.26000 11.755
23.28000 4.314
23.30000 6.057
23.32000 9.558
23.34000 9.716
23.36000 7.853
23.38000 0.189
23.40000 3.794
23.42000 5.721
23.44000 5.555
23.46000 2.634
23.48000 4.589
23.50000 4.180
23.52000 5.528
23.54000 6.654
23.56000 4.264
23.58000 7.157
23.60000 7.407
23.62000 7.034
23.64000 2.299
23.66000 -0.802
23.68000 3.990
23.70000 3.980
23.72000 3.882
23.74000 3.721
23.76000 1.608
23.78000 5.908
23.80000 6.363
23.82000 0.693
23.84000 -1.233
23.86000 0.926
23.88000 -3.982
23.90000 4.356
23.92000 7.918
23.94000 7.889
23.96000 6.448
23.98000 5.285
24.00000 1.024
24.02000 -0.693
24.04000 -0.535
24.06000 1.412
24.08000 2.991
24.10000 4.955
24.12000 5.731
24.14000 4.133
24.16000 6.283
24.18000 4.086
24.20000 -2.611
24.22000 1.520
24.24000 2.852
24.26000 3.138
24.28000 6.560
24.30000 7.052
24.32000 7.778
24.34000 4.276
24.36000 -3.965
24.38000 0.554
24.40000 4.657
24.42000 4.774
24.44000 -0.402
24.46000 -3.305
24.48000 2.901
24.50000 2.499
24.52000 0.285
24.54000 5.245
24.56000 2.467
24.58000 2.265
24.60000 5.198
24.62000 8.294
24.64000 2.474
24.66000 2.201
24.68000 2.006
24.70000 0.964
24.72000 -0.508
24.74000 -0.466
24.76000 0.868
24.78000 8.101
24.80000 2.947
24.82000 1.927
24.84000 -1.356
24.86000 0.957
24.88000 -0.012
24.90000 4.286
24.92000 3.425
24.94000 4.053
24.96000 -2.608
24.98000 -2.745
25.00000 -1.801
25.02000 2.201
25.04000 5.198
25.06000 4.962
25.08000 2.062
25.10000 2.317
25.12000 5.897
25.14000 1.285
25.16000 -0.392
25.18000 5.268
25.20000 1.680
25.22000 -0.859
25.24000 3.187
25.26000 4.731
25.28000 3.156
25.30000 1.784
25.32000 3.376
25.34000 -0.370
25.36000 1.998
25.38000 2.005
25.40000 1.470
25.42000 -0.807
25.44000 -1.605
25.46000 -3.902
25.48000 -0.769
25.50000 -3.042
25.52000 -1.613
25.54000 4.795
25.56000 3.163
25.58000 2.892
25.60000 3.541
25.62000 3.187
25.64000 4.997
25.66000 2.409
25.68000 2.997
25.70000 3.620
25.72000 -0.473
25.74000 -2.396
25.76000 1.513
25.78000 2.466
25.80000 -1.142
25.82000 -0.057
25.84000 0.199
25.86000 1.123
25.88000 0.043
25.90000 2.703
25.92000 3.500
25.94000 3.038
25.96000 2.694
25.98000 -0.525
26.00000 -0.358
26.02000 -0.624
26.04000 -0.481
26.06000 -3.872
26.08000 0.208
26.10000 0.755
26.12000 0.577
26.14000 0.135
26.16000 1.553
26.18000 5.583
26.20000 4.504
26.22000 4.752
26.24000 6.464
26.26000 8.208
26.28000 7.319
26.30000 -1.504
26.32000 -0.985
26.34000 -1.787
26.36000 -2.366
26.38000 -2.209
26.40000 -1.499
26.42000 -1.839
26.44000 -1.760
26.46000 1.884
26.48000 3.988
26.50000 1.120
26.52000 0.844
26.54000 4.270
26.56000 -1.580
26.58000 -3.848
26.60000 2.246
26.62000 1.794
26.64000 1.948
26.66000 5.010
26.68000 0.656
26.70000 0.862
26.72000 2.278
26.74000 -1.195
26.76000 -3.837
26.78000 0.694
26.80000 5.462
26.82000 3.565
26.84000 2.974
26.86000 6.909
26.88000 6.870
26.90000 1.231
26.92000 -0.908
26.94000 2.285
26.96000 -1.379
26.98000 0.670
27.00000 2.737
27.02000 1.646
27.04000 3.103
27.06000 7.694
27.08000 3.478
27.10000 0.012
27.12000 3.980
27.14000 3.162
27.16000 -0.516
27.18000 -1.116
27.20000 3.653
27.22000 -3.818
27.24000 1.217
27.26000 1.460
27.28000 -0.211
27.30000 -2.086
27.32000 1.951
27.34000 1.484
27.36000 5.085
27.38000 7.607
27.40000 6.710
27.42000 4.172
27.44000 -1.059
27.46000 -1.337
27.48000 -1.103
27.50000 1.341
27.52000 2.156
27.54000 -2.538
27.56000 -3.336
27.58000 -1.918
27.60000 4.829
27.62000 7.764
27.64000 6.654
27.66000 4.164
27.68000 3.165
27.70000 0.503
27.72000 -2.467
27.74000 -1.138
27.76000 1.895
27.78000 -2.651
27.80000 -3.779
27.82000 -1.839
27.84000 -0.724
27.86000 1.551
27.88000 6.964
27.90000 5.264
27.92000 3.963
27.94000 4.339
27.96000 5.166
27.98000 4.774
28.00000 4.164
28.02000 -2.598
28.04000 -2.334
28.06000 -0.855
28.08000 -1.118
28.10000 2.423
28.12000 2.409
28.14000 3.874
28.16000 2.788
28.18000 5.436
28.20000 4.274
28.22000 4.139
28.24000 10.355
28.26000 1.698
28.28000 0.268
28.30000 -0.878
28.32000 2.094
28.34000 -0.335
28.36000 -0.389
28.38000 7.111
28.40000 2.545
28.42000 2.730
28.44000 3.281
28.46000 1.881
28.48000 5.689
28.50000 6.382
28.52000 -0.287
28.54000 2.385
28.56000 7.754
28.58000 6.486
28.60000 2.691
28.62000 1.429
28.64000 -1.657
28.66000 4.097
28.68000 1.195
28.70000 6.729
28.72000 8.673
28.74000 4.567
28.76000 5.574
28.78000 4.437
28.80000 1.915
28.82000 -0.469
28.84000 3.278
28.86000 3.193
28.88000 5.341
28.90000 9.964
28.92000 2.361
28.94000 -1.102
28.96000 2.089
28.98000 6.119
29.00000 6.371
29.02000 5.376
29.04000 1.887
29.06000 5.395
29.08000 10.637
29.10000 7.635
29.12000 3.906
29.14000 6.460
29.16000 2.805
29.18000 -2.498
29.20000 -3.390
29.22000 -3.667
29.24000 1.648
29.26000 5.367
29.28000 5.883
29.30000 5.777
29.32000 5.759
29.34000 6.059
29.36000 5.503
29.38000 4.130
29.40000 5.972
29.42000 4.058
29.44000 4.277
29.46000 1.738
29.48000 -0.950
29.50000 1.657
29.52000 4.470
29.54000 3.008
29.56000 3.603
29.58000 4.727
29.60000 2.627
29.62000 3.956
29.64000 5.265
29.66000 2.945
29.68000 8.626
29.70000 2.558
29.72000 3.608
29.74000 1.520
29.76000 -1.703
29.78000 4.080
29.80000 0.721
29.82000 -0.280
29.84000 4.850
29.86000 4.320
29.88000 5.429
29.90000 2.710
29.92000 -0.430
29.94000 1.971
29.96000 2.138
29.98000 7.519
30.00000 3.334
30.02000 -1.626
30.04000 -2.611
30.06000 -1.113
30.08000 3.713
30.10000 1.904
30.12000 0.833
30.14000 3.942
30.16000 6.014
30.18000 8.717
30.20000 8.308
30.22000 5.639
30.24000 2.536
30.26000 0.881
30.28000 -2.860
30.30000 -2.527
30.32000 -3.479
30.34000 0.112
30.36000 0.176
30.38000 2.802
30.40000 -0.793
30.42000 3.025
30.44000 5.379
30.46000 3.355
30.48000 5.274
30.50000 -0.462
30.52000 -2.143
30.54000 1.033
30.56000 3.623
30.58000 -1.703
30.60000 -0.253
30.62000 5.845
30.64000 4.738
30.66000 4.179
30.68000 0.696
30.70000 2.420
30.72000 1.815
30.74000 3.538
30.76000 3.003
30.78000 0.232
30.80000 5.451
30.82000 3.194
30.84000 -3.478
30.86000 -0.640
30.88000 0.273
30.90000 2.101
30.92000 -0.354
30.94000 2.181
30.96000 2.307
30.98000 3.239
31.00000 3.584
31.02000 1.588
31.04000 0.432
31.06000 -0.738
31.08000 1.008
31.10000 5.733
31.12000 7.247
31.14000 4.798
31.16000 6.297
31.18000 1.281
31.20000 3.556
31.22000 5.253
31.24000 0.372
31.26000 -0.086
31.28000 4.314
31.30000 2.641
31.32000 4.796
31.34000 4.427
31.36000 7.837
31.38000 8.620
31.40000 3.918
31.42000 8.026
31.44000 11.146
31.46000 8.367
31.48000 6.463
31.50000 9.820
31.52000 11.569
31.54000 9.915
31.56000 4.838
31.58000 -0.111
31.60000 -3.556
31.62000 2.318
31.64000 4.099
31.66000 6.016
31.68000 6.294
31.70000 8.274
31.72000 7.629
31.74000 3.991
31.76000 1.887
31.78000 2.626
31.80000 0.812
31.82000 -1.764
31.84000 4.932
31.86000 3.066
31.88000 5.307
31.90000 6.317
31.92000 4.865
31.94000 3.772
31.96000 2.476
31.98000 1.672
32.00000 6.239
32.02000 6.466
32.04000 2.088
32.06000 8.284
32.08000 0.720
32.10000 0.196
32.12000 5.496
32.14000 8.977
32.16000 5.570
32.18000 4.342
32.20000 5.919
32.22000 2.628
32.24000 0.670
32.26000 5.523
32.28000 9.706
32.30000 2.121
32.32000 2.323
32.34000 5.270
32.36000 4.980
32.38000 6.280
32.40000 6.643
32.42000 1.900
32.44000 -1.813
32.46000 -0.051
32.48000 2.597
32.50000 -1.646
32.52000 -0.968
32.54000 0.670
32.56000 3.460
32.58000 2.807
32.60000 3.682
32.62000 -0.316
32.64000 -2.902
32.66000 -0.273
32.68000 -1.865
32.70000 -3.550
32.72000 1.400
32.74000 5.455
32.76000 3.136
32.78000 4.536
32.80000 5.807
32.82000 3.652
32.84000 5.028
32.86000 4.999
32.88000 8.621
32.90000 4.231
32.92000 3.737
32.94000 -1.015
32.96000 -0.039
32.98000 3.911
33.00000 0.904
33.02000 -0.792
33.04000 -1.620
33.06000 3.646
33.08000 5.292
33.10000 11.099
33.12000 4.441
33.14000 0.662
33.16000 4.859
33.18000 2.360
33.20000 0.109
33.22000 1.173
33.24000 2.219
33.26000 1.232
33.28000 4.266
33.30000 8.135
33.32000 6.714
33.34000 -0.064
33.36000 -0.822
33.38000 -0.347
33.40000 4.796
33.42000 3.692
33.44000 -0.268
33.46000 2.752
33.48000 7.069
33.50000 3.997
33.52000 -0.568
33.54000 2.191
33.56000 3.786
33.58000 3.542
33.60000 -2.442
33.62000 -0.669
33.64000 -2.701
33.66000 -3.018
33.68000 5.265
33.70000 4.616
33.72000 4.763
33.74000 3.762
33.76000 2.328
33.78000 7.007
33.80000 2.333
33.82000 0.538
33.84000 6.484
33.86000 5.444
33.88000 -0.465
33.90000 2.024
33.92000 5.181
33.94000 5.211
33.96000 3.424
33.98000 3.361
34.00000 5.024
34.02000 6.826
34.04000 7.804
34.06000 5.588
34.08000 6.290
34.10000 7.427
34.12000 9.662
34.14000 8.587
34.16000 1.795
34.18000 3.618
34.20000 2.776
34.22000 2.038
34.24000 0.159
34.26000 5.186
34.28000 3.933
34.30000 3.894
34.32000 8.788
34.34000 7.282
34.36000 2.613
34.38000 1.557
34.40000 3.366
34.42000 -0.721
34.44000 0.822
34.46000 1.420
34.48000 0.589
34.50000 1.551
34.52000 4.329
34.54000 6.056
34.56000 7.651
34.58000 4.955
34.60000 0.509
34.62000 -3.463
34.64000 -0.308
34.66000 2.326
34.68000 5.863
34.70000 4.936
34.72000 0.070
34.74000 1.419
34.76000 1.698
34.78000 1.944
34.80000 5.965
34.82000 3.438
34.84000 6.149
34.86000 3.113
34.88000 4.729
34.90000 8.120
34.92000 8.103
34.94000 7.342
34.96000 3.189
34.98000 -1.084
35.00000 0.435
35.02000 6.722
35.04000 8.695
35.06000 8.033
35.08000 11.032
35.10000 10.129
35.12000 5.942
35.14000 5.312
35.16000 5.206
35.18000 0.751
35.20000 1.884
35.22000 1.804
35.24000 -0.193
35.26000 0.916
35.28000 5.322
35.30000 3.218
35.32000 -1.367
35.34000 0.850
35.36000 2.446
35.38000 6.824
35.40000 5.046
35.42000 3.940
35.44000 5.357
35.46000 5.694
35.48000 4.216
35.50000 1.310
35.52000 3.909
35.54000 4.969
35.56000 6.789
35.58000 3.080
35.60000 2.099
35.62000 1.102
35.64000 1.606
35.66000 2.910
35.68000 1.334
35.70000 0.326
35.72000 2.563
35.74000 3.289
35.76000 1.412
35.78000 4.401
35.80000 0.818
35.82000 -3.459
35.84000 -1.463
35.86000 2.976
35.88000 4.411
35.90000 4.372
35.92000 -0.896
35.94000 0.928
35.96000 3.244
35.98000 5.786
36.00000 3.346
36.02000 0.749
36.04000 3.966
36.06000 7.079
36.08000 3.636
36.10000 7.540
36.12000 11.452
36.14000 9.991
36.16000 7.936
36.18000 2.084
36.20000 -3.473
36.22000 -3.377
36.24000 1.263
36.26000 -0.915
36.28000 1.288
36.30000 5.999
36.32000 5.565
36.34000 6.910
36.36000 7.034
36.38000 1.945
36.40000 -3.483
36.42000 -2.033
36.44000 3.653
36.46000 3.098
36.48000 5.728
36.50000 3.409
36.52000 3.180
36.54000 -0.564
36.56000 -0.010
36.58000 4.473
36.60000 5.799
36.62000 7.749
36.64000 7.578
36.66000 7.636
36.68000 2.524
36.70000 -2.499
36.72000 -0.780
36.74000 -0.345
36.76000 7.766
36.78000 7.592
36.80000 -1.770
36.82000 -2.727
36.84000 0.126
36.86000 1.675
36.88000 0.771
36.90000 -0.342
36.92000 -2.551
36.94000 -2.350
36.96000 -3.505
36.98000 -1.884
37.00000 -1.832
37.02000 -2.340
37.04000 -0.736
37.06000 1.065
37.08000 -3.329
37.10000 -1.275
37.12000 0.984
37.14000 -0.863
37.16000 -0.591
37.18000 0.231
37.20000 -1.120
37.22000 3.439
37.24000 0.616
37.26000 -2.149
37.28000 2.527
37.30000 2.203
37.32000 2.023
37.34000 7.309
37.36000 5.157
37.38000 -1.766
37.40000 -1.636
37.42000 0.691
37.44000 1.544
37.46000 2.783
37.48000 -0.760
37.50000 -0.579
37.52000 -3.548
37.54000 0.437
37.56000 4.104
37.58000 -0.449
37.60000 -0.786
37.62000 5.271
37.64000 2.346
37.66000 -2.919
37.68000 0.102
37.70000 -0.732
37.72000 0.074
37.74000 7.938
37.76000 -0.191
37.78000 -1.470
37.80000 0.365
37.82000 0.759
37.84000 6.985
37.86000 6.518
37.88000 7.665
37.90000 7.527
37.92000 7.739
37.94000 7.511
37.96000 8.971
37.98000 11.802
38.00000 6.397
38.02000 5.913
38.04000 6.466
38.06000 6.431
38.08000 6.073
38.10000 11.412
38.12000 13.902
38.14000 9.295
38.16000 9.199
38.18000 10.831
38.20000 8.618
38.22000 7.836
38.24000 10.436
38.26000 11.780
38.28000 14.883
38.30000 14.488
38.32000 10.926
38.34000 10.189
38.36000 13.797
38.38000 17.084
38.40000 18.855
38.42000 19.957
38.44000 19.141
38.46000 18.358
38.48000 15.578
38.50000 19.121
38.52000 22.972
38.54000 21.136
38.56000 17.938
38.58000 18.301
38.60000 27.644
38.62000 23.263
38.64000 23.803
38.66000 21.057
38.68000 21.144
38.70000 23.355
38.72000 27.876
38.74000 22.370
38.76000 21.713
38.78000 22.975
38.80000 27.566
38.82000 29.526
38.84000 34.726
38.86000 31.572
38.88000 31.436
38.90000 26.393
38.92000 25.687
38.94000 24.406
38.96000 27.585
38.98000 34.457
39.00000 36.070
39.02000 40.073
39.04000 41.759
39.06000 42.218
39.08000 42.256
39.10000 41.222
39.12000 41.961
39.14000 46.758
39.16000 46.009
39.18000 45.925
39.20000 50.324
39.22000 52.674
39.24000 56.231
39.26000 57.336
39.28000 61.114
39.30000 57.820
39.32000 63.940
39.34000 68.895
39.36000 71.921
39.38000 71.775
39.40000 71.918
39.42000 78.717
39.44000 85.924
39.46000 90.271
39.48000 94.497
39.50000 93.510
39.52000 98.638
39.54000 106.916
39.56000 116.067
39.58000 121.934
39.60000 130.972
39.62000 140.692
39.64000 146.288
39.66000 153.002
39.68000 160.847
39.70000 175.972
39.72000 194.659
39.74000 191.823
39.76000 198.230
39.78000 215.609
39.80000 236.845
39.82000 240.720
39.84000 253.268
39.86000 276.049
39.88000 292.965
39.90000 313.596
39.92000 338.537
39.94000 358.736
39.96000 378.892
39.98000 413.710
40.00000 435.657
40.02000 456.251
40.04000 494.849
40.06000 532.124
40.08000 569.781
40.10000 604.767
40.12000 642.223
40.14000 664.713
40.16000 709.933
40.18000 746.066
40.20000 788.071
40.22000 815.257
40.24000 861.224
40.26000 892.358
40.28000 911.986
40.30000 937.061
40.32000 965.119
40.34000 1003.789
40.36000 1009.930
40.38000 1029.251
40.40000 1039.708
40.42000 1035.206
40.44000 1040.325
40.46000 1035.039
40.48000 1032.012
40.50000 1024.962
40.52000 1004.664
40.54000 978.955
40.56000 970.545
40.58000 954.631
40.60000 925.625
40.62000 912.431
40.64000 898.375
40.66000 858.900
40.68000 817.324
40.70000 781.465
40.72000 745.427
40.74000 723.041
40.76000 696.588
40.78000 660.768
40.80000 635.214
40.82000 608.053
40.84000 567.247
40.86000 543.067
40.88000 524.160
40.90000 481.511
40.92000 452.002
40.94000 429.358
40.96000 410.236
40.98000 388.791
41.00000 372.104
41.02000 356.249
41.04000 325.273
41.06000 304.232
41.08000 297.623
41.10000 278.104
41.12000 260.728
41.14000 242.254
41.16000 225.396
41.18000 218.099
41.20000 205.744
41.22000 194.365
41.24000 188.195
41.26000 177.229
41.28000 164.659
41.30000 154.590
41.32000 151.781
41.34000 144.829
41.36000 128.678
41.38000 119.439
41.40000 113.396
41.42000 106.852
41.44000 103.985
41.46000 101.551
41.48000 102.524
41.50000 90.977
41.52000 85.317
41.54000 79.752
41.56000 78.882
41.58000 73.373
41.60000 70.771
41.62000 66.001
41.64000 62.884
41.66000 65.029
41.68000 59.280
41.70000 55.645
41.72000 55.934
41.74000 49.996
41.76000 44.948
41.78000 49.976
41.80000 49.797
41.82000 43.475
41.84000 39.261
41.86000 38.029
41.88000 38.235
41.90000 39.436
41.92000 32.231
41.94000 24.675
41.96000 25.606
41.98000 29.660
42.00000 26.119
42.02000 22.602
42.04000 22.772
42.06000 24.294
42.08000 25.501
42.10000 24.148
42.12000 20.162
42.14000 16.253
42.16000 21.216
42.18000 17.331
42.20000 17.546
42.22000 13.113
42.24000 13.109
42.26000 14.174
42.28000 15.357
42.30000 13.158
42.32000 10.814
42.34000 12.190
42.36000 10.838
42.38000 10.471
42.40000 9.382
42.42000 9.969
42.44000 11.525
42.46000 10.367
42.48000 8.961
42.50000 9.648
42.52000 6.732
42.54000 5.525
42.56000 5.620
42.58000 6.008
42.60000 5.738
42.62000 6.171
42.64000 3.011
42.66000 3.692
42.68000 3.827
42.70000 5.940
42.72000 4.318
42.74000 5.921
42.76000 2.385
42.78000 3.254
42.80000 1.648
42.82000 -0.304
42.84000 2.387
42.86000 3.959
42.88000 4.404
42.90000 4.972
42.92000 1.218
42.94000 2.144
42.96000 -0.636
42.98000 -3.037
43.00000 -2.196
43.02000 -2.875
43.04000 2.825
43.06000 0.766
43.08000 -2.211
43.10000 0.594
43.12000 -0.736
43.14000 -1.646
43.16000 -2.703
43.18000 -3.500
43.20000 -3.352
43.22000 -2.200
43.24000 -0.388
43.26000 -2.303
43.28000 -1.233
43.30000 0.407
43.32000 3.206
43.34000 3.355
43.36000 3.770
43.38000 1.615
43.40000 -1.485
43.42000 -0.777
43.44000 0.747
43.46000 -2.376
43.48000 1.321
43.50000 -0.478
43.52000 -2.356
43.54000 -1.176
43.56000 -2.148
43.58000 -2.248
43.60000 2.916
43.62000 0.604
43.64000 -3.417
43.66000 -0.581
43.68000 3.516
43.70000 1.144
43.72000 0.043
43.74000 0.890
43.76000 -1.652
43.78000 2.454
43.80000 -0.018
43.82000 -0.899
43.84000 2.416
43.86000 2.801
43.88000 2.022
43.90000 2.045
43.92000 -1.247
43.94000 -3.216
43.96000 -2.405
43.98000 1.221
44.00000 0.245
44.02000 -0.046
44.04000 -1.792
44.06000 -0.714
44.08000 -0.063
44.10000 4.012
44.12000 0.759
44.14000 0.894
44.16000 2.900
44.18000 2.960
44.20000 3.131
44.22000 -0.785
44.24000 -3.320
44.26000 -0.644
44.28000 -1.623
44.30000 -1.290
44.32000 0.025
44.34000 4.738
44.36000 3.316
44.38000 2.449
44.40000 1.219
44.42000 1.202
44.44000 2.600
44.46000 2.047
44.48000 4.309
44.50000 5.064
44.52000 5.300
44.54000 -1.812
44.56000 -0.181
44.58000 2.443
44.60000 0.695
44.62000 0.401
44.64000 -3.311
44.66000 -0.875
44.68000 1.185
44.70000 3.415
44.72000 4.525
44.74000 2.733
44.76000 1.365
44.78000 0.696
44.80000 2.535
44.82000 -1.387
44.84000 0.467
44.86000 -3.302
44.88000 1.767
44.90000 -1.512
44.92000 -2.084
44.94000 0.813
44.96000 -0.220
44.98000 2.625
45.00000 -2.296
45.02000 -0.146
45.04000 0.251
45.06000 2.615
45.08000 7.034
45.10000 6.289
45.12000 5.244
45.14000 0.574
45.16000 -0.711
45.18000 3.857
45.20000 4.423
45.22000 3.042
45.24000 2.276
45.26000 1.157
45.28000 1.596
45.30000 2.153
45.32000 4.404
45.34000 2.208
45.36000 3.229
45.38000 4.856
45.40000 7.251
45.42000 2.151
45.44000 3.867
45.46000 5.348
45.48000 7.622
45.50000 4.303
45.52000 6.451
45.54000 9.359
45.56000 4.217
45.58000 2.078
45.60000 6.260
45.62000 12.683
45.64000 12.777
45.66000 9.380
45.68000 4.669
45.70000 2.785
45.72000 1.621
45.74000 8.118
45.76000 10.946
45.78000 13.021
45.80000 14.154
45.82000 13.675
45.84000 9.865
45.86000 12.882
45.88000 14.369
45.90000 15.332
45.92000 16.915
45.94000 16.780
45.96000 19.501
45.98000 20.769
46.00000 17.915
46.02000 20.350
46.04000 23.824
46.06000 21.699
46.08000 22.030
46.10000 26.521
46.12000 32.923
46.14000 33.949
46.16000 34.066
46.18000 38.130
46.20000 42.049
46.22000 40.097
46.24000 39.608
46.26000 40.995
46.28000 42.993
46.30000 44.231
46.32000 44.767
46.34000 44.778
46.36000 51.573
46.38000 53.876
46.40000 59.352
46.42000 57.655
46.44000 59.381
46.46000 64.456
46.48000 74.488
46.50000 77.227
46.52000 78.641
46.54000 79.407
46.56000 90.743
46.58000 90.315
46.60000 92.073
46.62000 95.558
46.64000 100.493
46.66000 104.140
46.68000 111.071
46.70000 119.237
46.72000 115.048
46.74000 119.301
46.76000 129.970
46.78000 133.642
46.80000 136.215
46.82000 134.266
46.84000 143.782
46.86000 148.129
46.88000 147.355
46.90000 154.399
46.92000 162.521
46.94000 164.846
46.96000 172.986
46.98000 170.595
47.00000 167.805
47.02000 172.169
47.04000 177.302
47.06000 175.556
47.08000 171.537
47.10000 174.823
47.12000 171.355
47.14000 167.319
47.16000 160.814
47.18000 157.300
47.20000 156.676
47.22000 152.192
47.24000 151.024
47.26000 147.774
47.28000 143.044
47.30000 142.978
47.32000 138.793
47.34000 129.067
47.36000 122.667
47.38000 119.320
47.40000 116.527
47.42000 109.669
47.44000 107.638
47.46000 104.640
47.48000 100.501
47.50000 89.730
47.52000 88.393
47.54000 88.840
47.56000 79.968
47.58000 75.604
47.60000 74.293
47.62000 72.275
47.64000 71.148
47.66000 67.549
47.68000 61.462
47.70000 53.874
47.72000 51.528
47.74000 46.042
47.76000 39.918
47.78000 43.748
47.80000 44.397
47.82000 38.295
47.84000 42.615
47.86000 42.075
47.88000 38.601
47.90000 31.881
47.92000 29.701
47.94000 29.465
47.96000 29.140
47.98000 29.964
48.00000 24.258
48.02000 21.284
48.04000 22.094
48.06000 18.420
48.08000 12.947
48.10000 15.224
48.12000 12.747
48.14000 14.972
48.16000 19.673
48.18000 14.272
48.20000 6.760
48.22000 6.532
48.24000 9.483
48.26000 10.623
48.28000 8.069
48.30000 6.433
48.32000 8.260
48.34000 10.644
48.36000 9.034
48.38000 8.939
48.40000 5.162
48.42000 0.076
48.44000 4.580
48.46000 11.129
48.48000 7.854
48.50000 1.001
48.52000 -1.736
48.54000 -2.890
48.56000 -2.930
48.58000 0.946
48.60000 5.669
48.62000 3.723
48.64000 2.425
48.66000 0.627
48.68000 2.366
48.70000 4.117
48.72000 3.023
48.74000 -1.254
48.76000 0.400
48.78000 2.793
48.80000 7.607
48.82000 2.017
48.84000 1.854
48.86000 4.569
48.88000 1.841
48.90000 -0.003
48.92000 -1.187
48.94000 1.285
48.96000 1.657
48.98000 5.238
49.00000 -0.459
49.02000 -2.041
49.04000 5.453
49.06000 0.595
49.08000 0.555
49.10000 1.308
49.12000 -2.819
49.14000 -0.735
49.16000 -1.149
49.18000 0.858
49.20000 -1.561
49.22000 0.383
49.24000 7.303
49.26000 5.983
49.28000 1.061
49.30000 4.376
49.32000 -1.053
49.34000 -1.151
49.36000 -0.405
49.38000 2.874
49.40000 5.246
49.42000 0.875
49.44000 2.352
49.46000 6.316
49.48000 3.785
49.50000 -2.749
49.52000 1.157
49.54000 0.568
49.56000 -0.963
49.58000 2.092
49.60000 4.874
49.62000 3.226
49.64000 0.051
49.66000 4.033
49.68000 -2.342
49.70000 -0.903
49.72000 2.392
49.74000 0.515
49.76000 2.147
49.78000 4.254
49.80000 1.587
49.82000 1.354
49.84000 0.064
49.86000 -0.902
49.88000 0.179
49.90000 4.047
49.92000 4.132
49.94000 3.489
49.96000 2.227
49.98000 -0.085
50.00000 0.669
50.02000 -0.098
50.04000 2.003
50.06000 0.123
50.08000 -0.362
50.10000 -0.752
50.12000 -0.802
50.14000 2.328
50.16000 3.419
50.18000 2.093
50.20000 2.016
50.22000 3.231
50.24000 3.410
50.26000 -2.392
50.28000 -2.668
50.30000 1.073
50.32000 1.724
50.34000 1.378
50.36000 3.249
50.38000 2.349
50.40000 1.322
50.42000 0.403
50.44000 4.753
50.46000 5.164
50.48000 3.788
50.50000 3.056
50.52000 0.429
50.54000 1.228
50.56000 1.163
50.58000 -2.637
50.60000 0.335
50.62000 6.371
50.64000 10.831
50.66000 4.215
50.68000 2.389
50.70000 1.138
50.72000 4.691
50.74000 6.661
50.76000 5.377
50.78000 1.648
50.80000 2.134
50.82000 -0.839
50.84000 0.719
50.86000 -1.374
50.88000 0.470
50.90000 3.114
50.92000 3.884
50.94000 3.386
50.96000 1.754
50.98000 -0.675
51.00000 1.268
51.02000 -0.476
51.04000 1.252
51.06000 0.616
51.08000 -1.580
51.10000 0.326
51.12000 3.141
51.14000 3.196
51.16000 3.004
51.18000 4.710
51.20000 2.385
51.22000 2.539
51.24000 2.128
51.26000 4.994
51.28000 4.780
51.30000 2.151
51.32000 3.242
51.34000 3.411
51.36000 3.608
51.38000 -1.348
51.40000 0.815
51.42000 -2.602
51.44000 4.649
51.46000 4.040
51.48000 6.314
51.50000 3.364
51.52000 0.373
51.54000 -1.644
51.56000 -2.592
51.58000 0.349
51.60000 -2.329
51.62000 -2.589
51.64000 3.353
51.66000 4.502
51.68000 0.190
51.70000 5.275
51.72000 5.730
51.74000 -2.587
51.76000 -1.846
51.78000 0.592
51.80000 2.712
51.82000 -1.389
51.84000 -1.056
51.86000 1.206
51.88000 1.246
51.90000 1.752
51.92000 0.980
51.94000 5.695
51.96000 0.396
51.98000 -1.159
52.00000 1.340
52.02000 0.138
52.04000 3.036
52.06000 0.620
52.08000 2.804
52.10000 -1.409
52.12000 -1.553
52.14000 -2.219
52.16000 -1.774
52.18000 1.888
52.20000 5.652
52.22000 7.154
52.24000 -1.493
52.26000 -2.573
52.28000 -1.685
52.30000 1.663
52.32000 -0.578
52.34000 1.050
52.36000 1.738
52.38000 -0.016
52.40000 1.903
52.42000 4.478
52.44000 -0.667
52.46000 2.279
52.48000 -1.295
52.50000 0.795
52.52000 7.650
52.54000 4.640
52.56000 2.956
52.58000 2.116
52.60000 1.488
52.62000 -0.495
52.64000 0.791
52.66000 4.779
52.68000 6.388
52.70000 2.119
52.72000 0.927
52.74000 3.184
52.76000 4.748
52.78000 3.058
52.80000 2.719
52.82000 3.857
52.84000 0.688
52.86000 0.761
52.88000 2.068
52.90000 0.710
52.92000 1.460
52.94000 5.386
52.96000 5.864
52.98000 -0.550
53.00000 -0.818
53.02000 -2.516
53.04000 2.700
53.06000 4.006
53.08000 4.779
53.10000 3.686
53.12000 1.531
53.14000 -0.102
53.16000 -2.506
53.18000 0.020
53.20000 0.317
53.22000 1.239
53.24000 0.674
53.26000 4.389
53.28000 1.887
53.30000 2.758
53.32000 6.103
53.34000 1.390
53.36000 3.878
53.38000 3.407
53.40000 2.542
53.42000 1.758
53.44000 -1.386
53.46000 0.319
53.48000 3.219
53.50000 6.654
53.52000 3.278
53.54000 1.151
53.56000 2.215
53.58000 -0.274
53.60000 2.110
53.62000 0.844
53.64000 4.938
53.66000 4.541
53.68000 3.241
53.70000 2.096
53.72000 3.456
53.74000 5.433
53.76000 5.073
53.78000 0.991
53.80000 4.629
53.82000 2.222
53.84000 3.874
53.86000 2.918
53.88000 2.235
53.90000 1.451
53.92000 4.115
53.94000 3.383
53.96000 1.249
53.98000 -0.713
54.00000 0.685
54.02000 0.477
54.04000 1.263
54.06000 0.673
54.08000 0.733
54.10000 1.104
54.12000 0.276
54.14000 1.458
54.16000 3.178
54.18000 2.250
54.20000 4.442
54.22000 6.010
54.24000 7.068
54.26000 3.398
54.28000 3.853
54.30000 -0.438
54.32000 1.531
54.34000 0.667
54.36000 -2.444
54.38000 3.932
54.40000 -0.458
54.42000 1.418
54.44000 2.996
54.46000 3.466
54.48000 2.618
54.50000 3.906
54.52000 1.404
54.54000 0.962
54.56000 1.317
54.58000 5.467
54.60000 4.282
54.62000 0.697
54.64000 0.295
54.66000 6.930
54.68000 5.608
54.70000 1.739
54.72000 2.639
54.74000 0.945
54.76000 2.054
54.78000 4.045
54.80000 3.878
54.82000 5.895
54.84000 0.207
54.86000 0.544
54.88000 3.724
54.90000 0.034
54.92000 -2.458
54.94000 -1.032
54.96000 3.151
54.98000 4.963
55.00000 5.557
55.02000 6.110
55.04000 5.885
55.06000 4.932
55.08000 2.613
55.10000 5.380
55.12000 5.701
55.14000 6.221
55.16000 8.189
55.18000 6.930
55.20000 8.284
55.22000 1.856
55.24000 2.178
55.26000 3.149
55.28000 0.624
55.30000 5.938
55.32000 3.494
55.34000 1.388
55.36000 5.889
55.38000 8.404
55.40000 4.042
55.42000 2.089
55.44000 6.191
55.46000 3.428
55.48000 8.777
55.50000 7.041
55.52000 4.494
55.54000 4.752
55.56000 5.057
55.58000 9.579
55.60000 5.731
55.62000 9.113
55.64000 7.312
55.66000 5.232
55.68000 6.107
55.70000 4.746
55.72000 4.462
55.74000 2.681
55.76000 2.525
55.78000 3.280
55.80000 4.076
55.82000 -2.384
55.84000 1.752
55.86000 2.768
55.88000 9.785
55.90000 4.555
55.92000 2.717
55.94000 3.500
55.96000 5.386
55.98000 3.251
56.00000 2.506
56.02000 6.080
56.04000 9.280
56.06000 7.796
56.08000 7.022
56.10000 9.249
56.12000 4.284
56.14000 2.779
56.16000 5.786
56.18000 7.140
56.20000 2.186
56.22000 1.897
56.24000 4.234
56.26000 6.247
56.28000 3.094
56.30000 4.497
56.32000 3.285
56.34000 -2.389
56.36000 -0.608
56.38000 2.641
56.40000 3.648
56.42000 4.718
56.44000 2.692
56.46000 2.777
56.48000 2.899
56.50000 3.864
56.52000 4.722
56.54000 7.026
56.56000 3.962
56.58000 3.407
56.60000 4.696
56.62000 6.734
56.64000 6.016
56.66000 4.615
56.68000 2.598
56.70000 4.407
56.72000 5.905
56.74000 3.995
56.76000 6.009
56.78000 2.608
56.80000 2.849
56.82000 -0.028
56.84000 -1.328
56.86000 0.268
56.88000 1.180
56.90000 1.816
56.92000 3.378
56.94000 4.332
56.96000 2.513
56.98000 -0.034
57.00000 3.401
57.02000 1.849
57.04000 3.401
57.06000 2.775
57.08000 5.060
57.10000 3.010
57.12000 6.422
57.14000 4.144
57.16000 3.056
57.18000 2.239
57.20000 -0.536
57.22000 2.563
57.24000 0.236
57.26000 2.434
57.28000 0.108
57.30000 -2.088
57.32000 2.958
57.34000 4.487
57.36000 6.597
57.38000 1.792
57.40000 1.754
57.42000 2.776
57.44000 3.540
57.46000 2.705
57.48000 4.268
57.50000 4.932
57.52000 5.323
57.54000 0.356
57.56000 -2.391
57.58000 2.009
57.60000 0.000
57.62000 0.427
57.64000 3.175
57.66000 1.080
57.68000 1.672
57.70000 4.783
57.72000 1.514
57.74000 -0.749
57.76000 -1.239
57.78000 2.095
57.80000 6.247
57.82000 4.023
57.84000 2.197
57.86000 0.042
57.88000 -1.340
57.90000 2.312
57.92000 1.934
57.94000 -0.230
57.96000 -0.381
57.98000 1.961
58.00000 6.024
58.02000 3.894
58.04000 -0.141
58.06000 -0.786
58.08000 3.106
58.10000 1.129
58.12000 3.379
58.14000 1.412
58.16000 2.939
58.18000 4.009
58.20000 5.170
58.22000 4.631
58.24000 2.774
58.26000 2.538
58.28000 2.771
58.30000 5.533
58.32000 4.625
58.34000 2.718
58.36000 1.014
58.38000 3.881
58.40000 5.976
58.42000 3.892
58.44000 5.339
58.46000 7.248
58.48000 7.214
58.50000 6.447
58.52000 8.148
58.54000 7.907
58.56000 4.287
58.58000 3.728
58.60000 3.001
58.62000 5.419
58.64000 5.422
58.66000 5.215
58.68000 2.151
58.70000 2.792
58.72000 3.331
58.74000 0.305
58.76000 2.671
58.78000 5.611
58.80000 4.959
58.82000 1.631
58.84000 0.351
58.86000 1.732
58.88000 4.408
58.90000 4.752
58.92000 6.527
58.94000 3.583
58.96000 2.264
58.98000 6.638
59.00000 6.802
59.02000 5.916
59.04000 4.954
59.06000 4.280
59.08000 5.171
59.10000 0.360
59.12000 -2.273
59.14000 -1.407
59.16000 0.909
59.18000 5.159
59.20000 5.757
59.22000 7.008
59.24000 7.184
59.26000 3.702
59.28000 2.105
59.30000 2.975
59.32000 4.090
59.34000 6.019
59.36000 1.972
59.38000 5.672
59.40000 7.902
59.42000 7.936
59.44000 6.064
59.46000 1.944
59.48000 2.144
59.50000 5.957
59.52000 6.303
59.54000 2.811
59.56000 6.871
59.58000 4.849
59.60000 4.398
59.62000 5.573
59.64000 0.598
59.66000 3.034
59.68000 0.992
59.70000 2.487
59.72000 4.892
59.74000 4.492
59.76000 3.578
59.78000 6.999
59.80000 5.950
59.82000 3.943
59.84000 3.311
59.86000 6.603
59.88000 7.665
59.90000 2.871
59.92000 3.457
59.94000 1.965
59.96000 4.796
59.98000 5.337
60.00000 4.018
60.02000 5.103
60.04000 -0.293
60.06000 -1.137
60.08000 -2.294
60.10000 -1.760
60.12000 0.821
60.14000 3.111
60.16000 4.774
60.18000 6.493
60.20000 7.772
60.22000 7.075
60.24000 7.398
60.26000 3.879
60.28000 2.242
60.30000 3.771
60.32000 6.467
60.34000 3.894
60.36000 3.220
60.38000 2.615
60.40000 3.307
60.42000 4.403
60.44000 4.385
60.46000 1.575
60.48000 2.233
60.50000 7.094
60.52000 5.511
60.54000 3.971
60.56000 6.799
60.58000 4.640
60.60000 3.381
60.62000 1.582
60.64000 -0.318
60.66000 0.028
60.68000 2.172
60.70000 3.785
60.72000 3.229
60.74000 4.495
60.76000 4.786
60.78000 1.028
60.80000 0.492
60.82000 4.319
60.84000 5.169
60.86000 7.188
60.88000 6.014
60.90000 2.372
60.92000 1.506
60.94000 1.593
60.96000 0.274
60.98000 -2.275
61.00000 -1.211
61.02000 1.290
61.04000 4.959
61.06000 2.980
61.08000 4.301
61.10000 3.678
61.12000 4.305
61.14000 1.151
61.16000 1.730
61.18000 4.903
61.20000 3.147
61.22000 2.310
61.24000 4.995
61.26000 6.013
61.28000 5.678
61.30000 3.227
61.32000 3.388
61.34000 3.713
61.36000 4.537
61.38000 1.200
61.40000 0.305
61.42000 2.114
61.44000 1.413
61.46000 1.610
61.48000 2.083
61.50000 3.521
61.52000 2.058
61.54000 3.173
61.56000 2.909
61.58000 4.968
61.60000 0.352
61.62000 -2.274
61.64000 0.882
61.66000 1.731
61.68000 -0.273
61.70000 -1.198
61.72000 2.450
61.74000 3.119
61.76000 1.081
61.78000 -1.126
61.80000 2.496
61.82000 2.085
61.84000 3.524
61.86000 1.308
61.88000 6.247
61.90000 4.688
61.92000 2.785
61.94000 0.928
61.96000 -0.251
61.98000 -0.686
62.00000 1.581
62.02000 3.123
62.04000 1.390
62.06000 4.564
62.08000 1.938
62.10000 -1.851
62.12000 0.710
62.14000 1.043
62.16000 2.116
62.18000 1.342
62.20000 0.282
62.22000 0.907
62.24000 1.215
62.26000 1.938
62.28000 4.254
62.30000 4.062
62.32000 2.962
62.34000 0.516
62.36000 1.698
62.38000 1.767
62.40000 -2.281
62.42000 -2.034
62.44000 -0.579
62.46000 -1.780
62.48000 -2.033
62.50000 -0.733
62.52000 -0.491
62.54000 0.664
62.56000 0.999
62.58000 2.512
62.60000 3.194
62.62000 1.803
62.64000 -1.159
62.66000 -0.189
62.68000 2.543
62.70000 1.976
62.72000 0.149
62.74000 1.264
62.76000 -0.727
62.78000 1.821
62.80000 3.620
62.82000 -1.335
62.84000 1.667
62.86000 3.004
62.88000 4.951
62.90000 1.402
62.92000 1.565
62.94000 2.370
62.96000 1.843
62.98000 1.636
63.00000 2.637
63.02000 3.670
63.04000 0.867
63.06000 0.329
63.08000 2.030
63.10000 2.488
63.12000 1.862
63.14000 2.292
63.16000 4.244
63.18000 4.976
63.20000 6.226
63.22000 2.949
63.24000 1.597
63.26000 2.445
63.28000 4.145
63.30000 2.813
63.32000 4.571
63.34000 5.531
63.36000 3.323
63.38000 4.187
63.40000 -0.445
63.42000 -2.246
63.44000 -0.041
63.46000 2.761
63.48000 0.741
63.50000 -0.728
63.52000 2.049
63.54000 2.194
63.56000 0.682
63.58000 1.834
63.60000 3.515
63.62000 2.479
63.64000 1.969
63.66000 0.878
63.68000 2.801
63.70000 2.958
63.72000 3.761
63.74000 3.645
63.76000 4.272
63.78000 0.484
63.80000 -0.918
63.82000 1.971
63.84000 -0.518
63.86000 -0.346
63.88000 0.685
63.90000 5.154
63.92000 0.946
63.94000 0.099
63.96000 2.236
63.98000 3.726
64.00000 6.779
64.02000 4.670
64.04000 -0.375
64.06000 -1.151
64.08000 3.898
64.10000 6.076
64.12000 3.064
64.14000 2.374
64.16000 0.539
64.18000 1.562
64.20000 3.923
64.22000 2.912
64.24000 0.171
64.26000 0.445
64.28000 0.307
64.30000 -0.233
64.32000 1.362
64.34000 0.981
64.36000 -0.148
64.38000 -0.181
64.40000 -0.390
64.42000 -2.267
64.44000 1.053
64.46000 3.928
64.48000 3.951
64.50000 4.985
64.52000 2.234
64.54000 -0.656
64.56000 1.907
64.58000 3.240
64.60000 3.654
64.62000 -0.568
64.64000 0.229
64.66000 -0.540
64.68000 0.772
64.70000 0.316
64.72000 3.063
64.74000 5.263
64.76000 3.400
64.78000 -1.617
64.80000 -2.263
64.82000 -0.888
64.84000 0.355
64.86000 0.055
64.88000 -2.176
64.90000 1.269
64.92000 -0.847
64.94000 2.157
64.96000 0.488
64.98000 2.551
65.00000 2.202
65.02000 2.571
65.04000 3.823
65.06000 1.691
65.08000 1.127
65.10000 -0.912
65.12000 -1.535
65.14000 -2.289
65.16000 -0.539
65.18000 1.685
65.20000 2.115
65.22000 -1.261
65.24000 0.212
65.26000 1.640
65.28000 2.669
65.30000 1.111
65.32000 -1.286
65.34000 -0.555
65.36000 1.478
65.38000 0.404
65.40000 -0.647
65.42000 -1.634
65.44000 1.237
65.46000 0.040
65.48000 -0.742
65.50000 1.023
65.52000 1.074
65.54000 1.696
65.56000 1.727
65.58000 2.342
65.60000 0.735
65.62000 -1.907
65.64000 -1.448
65.66000 -0.922
65.68000 0.051
65.70000 1.526
65.72000 4.290
65.74000 2.283
65.76000 -1.021
65.78000 -2.312
65.80000 -0.725
65.82000 1.610
65.84000 1.801
65.86000 1.546
65.88000 -0.420
65.90000 0.210
65.92000 -0.850
65.94000 0.236
65.96000 0.996
65.98000 0.405
66.00000 -1.865
66.02000 -0.834
66.04000 1.008
66.06000 1.081
66.08000 2.096
66.10000 0.048
66.12000 -2.309
66.14000 -0.024
66.16000 0.697
66.18000 1.694
66.20000 -0.446
66.22000 1.008
66.24000 0.895
66.26000 0.789
66.28000 1.565
66.30000 2.945
66.32000 4.028
66.34000 1.432
66.36000 -1.136
66.38000 -2.317
66.40000 -0.659
66.42000 0.412
66.44000 0.719
66.46000 -0.328
66.48000 1.905
66.50000 2.037
66.52000 -0.004
66.54000 -0.359
66.56000 -0.273
66.58000 0.793
66.60000 0.366
66.62000 0.316
66.64000 2.524
66.66000 -1.353
66.68000 -2.328
66.70000 -2.123
66.72000 -1.838
66.74000 -1.260
66.76000 0.781
66.78000 1.323
66.80000 0.621
66.82000 0.149
66.84000 -0.250
66.86000 -0.571
66.88000 -0.922
66.90000 1.113
66.92000 1.588
66.94000 -0.026
66.96000 -1.298
66.98000 -0.535
67.00000 0.686
67.02000 -1.729
67.04000 -1.873
67.06000 -0.707
67.08000 1.945
67.10000 -0.821
67.12000 1.950
67.14000 3.014
67.16000 1.514
67.18000 -0.795
67.20000 -2.359
67.22000 -0.490
67.24000 -0.618
67.26000 0.702
67.28000 -0.046
67.30000 -1.018
67.32000 0.837
67.34000 2.392
67.36000 -0.045
67.38000 -0.120
67.40000 2.537
67.42000 2.628
67.44000 0.012
67.46000 -0.359
67.48000 -2.371
67.50000 1.508
67.52000 0.302
67.54000 1.451
67.56000 2.608
67.58000 1.945
67.60000 2.413
67.62000 0.669
67.64000 1.069
67.66000 -0.793
67.68000 -0.325
67.70000 1.162
67.72000 -0.975
67.74000 -1.213
67.76000 2.206
67.78000 4.859
67.80000 5.439
67.82000 3.566
67.84000 1.672
67.86000 3.889
67.88000 4.607
67.90000 4.086
67.92000 4.067
67.94000 2.338
67.96000 2.538
67.98000 6.139
68.00000 7.058
68.02000 7.419
68.04000 9.744
68.06000 9.853
68.08000 10.145
68.10000 12.098
68.12000 10.371
68.14000 10.829
68.16000 10.015
68.18000 14.033
68.20000 16.437
68.22000 17.746
68.24000 16.194
68.26000 13.284
68.28000 17.249
68.30000 20.122
68.32000 19.850
68.34000 21.519
68.36000 23.358
68.38000 22.352
68.40000 20.710
68.42000 20.672
68.44000 24.390
68.46000 31.428
68.48000 29.491
68.50000 26.992
68.52000 25.547
68.54000 27.337
68.56000 34.766
68.58000 34.088
68.60000 32.800
68.62000 33.779
68.64000 37.920
68.66000 37.756
68.68000 36.693
68.70000 39.651
68.72000 37.840
68.74000 37.262
68.76000 35.830
68.78000 38.128
68.80000 38.554
68.82000 35.312
68.84000 35.675
68.86000 37.989
68.88000 36.482
68.90000 35.054
68.92000 38.600
68.94000 33.060
68.96000 32.611
68.98000 32.531
69.00000 29.507
69.02000 30.714
69.04000 29.899
69.06000 27.419
69.08000 30.146
69.10000 28.005
69.12000 26.842
69.14000 25.324
69.16000 25.888
69.18000 24.762
69.20000 24.159
69.22000 21.614
69.24000 20.060
69.26000 17.248
69.28000 20.485
69.30000 21.008
69.32000 20.077
69.34000 19.432
69.36000 15.032
69.38000 15.704
69.40000 12.560
69.42000 10.756
69.44000 9.313
69.46000 10.489
69.48000 10.717
69.50000 7.907
69.52000 9.997
69.54000 6.825
69.56000 9.048
69.58000 9.449
69.60000 8.942
69.62000 9.919
69.64000 7.164
69.66000 4.249
69.68000 1.833
69.70000 1.307
69.72000 2.403
69.74000 4.577
69.76000 3.909
69.78000 5.647
69.80000 3.947
69.82000 5.452
69.84000 4.930
69.86000 1.833
69.88000 4.165
69.90000 3.370
69.92000 0.870
69.94000 -0.498
69.96000 1.002
69.98000 -0.084
70.00000 2.530
70.02000 1.398
70.04000 1.287
70.06000 2.444
70.08000 3.263
70.10000 0.098
70.12000 0.437
70.14000 3.730
70.16000 4.868
70.18000 0.957
70.20000 1.141
70.22000 -0.955
70.24000 1.377
70.26000 1.756
70.28000 1.158
70.30000 0.729
70.32000 -0.067
70.34000 3.354
70.36000 -0.041
70.38000 2.545
70.40000 3.133
70.42000 -0.258
70.44000 -0.933
70.46000 -2.247
70.48000 -1.845
70.50000 0.209
70.52000 0.936
70.54000 0.763
70.56000 1.687
70.58000 -0.204
70.60000 -2.163
70.62000 2.783
70.64000 3.856
70.66000 7.186
70.68000 3.993
70.70000 2.564
70.72000 -0.417
70.74000 0.768
70.76000 -2.197
70.78000 -0.165
70.80000 2.649
70.82000 5.168
70.84000 3.291
70.86000 2.510
70.88000 1.592
70.90000 2.725
70.92000 3.326
70.94000 5.161
70.96000 4.726
70.98000 3.173
71.00000 2.722
71.02000 2.767
71.04000 2.238
71.06000 0.575
71.08000 1.804
71.10000 4.429
71.12000 3.673
71.14000 4.732
71.16000 2.616
71.18000 1.449
71.20000 4.420
71.22000 3.728
71.24000 2.440
71.26000 3.406
71.28000 1.054
71.30000 0.351
71.32000 1.073
71.34000 2.634
71.36000 6.044
71.38000 2.221
71.40000 4.943
71.42000 5.969
71.44000 6.581
71.46000 0.824
71.48000 2.959
71.50000 -0.206
71.52000 3.221
71.54000 6.526
71.56000 2.349
71.58000 -2.159
71.60000 0.527
71.62000 4.187
71.64000 3.075
71.66000 2.384
71.68000 3.447
71.70000 3.073
71.72000 -1.929
71.74000 0.007
71.76000 0.678
71.78000 0.030
71.80000 3.206
71.82000 2.045
71.84000 1.056
71.86000 3.141
71.88000 0.241
71.90000 0.943
71.92000 0.406
71.94000 1.496
71.96000 1.131
71.98000 3.621
72.00000 4.016
72.02000 1.590
72.04000 2.319
72.06000 1.766
72.08000 0.567
72.10000 4.143
72.12000 5.815
72.14000 1.615
72.16000 1.245
72.18000 0.968
72.20000 1.576
72.22000 3.180
72.24000 1.520
72.26000 5.952
72.28000 5.889
72.30000 5.635
72.32000 4.964
72.34000 2.460
72.36000 -2.118
72.38000 3.819
72.40000 3.704
72.42000 2.486
72.44000 2.033
72.46000 1.563
72.48000 1.056
72.50000 2.793
72.52000 1.574
72.54000 -0.033
72.56000 1.850
72.58000 3.689
72.60000 0.392
72.62000 1.327
72.64000 2.720
72.66000 2.112
72.68000 3.910
72.70000 3.964
72.72000 5.007
72.74000 2.596
72.76000 -0.713
72.78000 0.140
72.80000 0.346
72.82000 1.162
72.84000 1.255
72.86000 3.005
72.88000 4.899
72.90000 0.477
72.92000 -2.116
72.94000 1.037
72.96000 0.772
72.98000 1.075
73.00000 0.368
73.02000 1.584
73.04000 3.719
73.06000 0.829
73.08000 0.584
73.10000 1.082
73.12000 -0.617
73.14000 2.974
73.16000 0.519
73.18000 0.486
73.20000 2.407
73.22000 0.861
73.24000 3.959
73.26000 1.848
73.28000 3.732
73.30000 4.171
73.32000 3.160
73.34000 0.305
73.36000 -0.970
73.38000 3.055
73.40000 5.800
73.42000 1.618
73.44000 0.773
73.46000 -1.424
73.48000 -1.516
73.50000 -0.743
73.52000 -0.497
73.54000 -0.227
73.56000 4.278
73.58000 1.581
73.60000 3.525
73.62000 2.706
73.64000 3.531
73.66000 0.910
73.68000 -0.011
73.70000 0.607
73.72000 -0.909
73.74000 3.312
73.76000 -1.444
73.78000 -1.915
73.80000 3.371
73.82000 3.661
73.84000 2.918
73.86000 2.490
73.88000 -2.113
73.90000 0.092
73.92000 1.413
73.94000 0.469
73.96000 -1.938
73.98000 2.064
74.00000 4.476
74.02000 1.191
74.04000 0.071
74.06000 2.137
74.08000 1.855
74.10000 -0.546
74.12000 1.022
74.14000 3.378
74.16000 -0.243
74.18000 5.126
74.20000 -0.673
74.22000 -0.151
74.24000 4.407
74.26000 3.556
74.28000 5.351
74.30000 6.264
74.32000 5.294
74.34000 5.871
74.36000 2.905
74.38000 -0.817
74.40000 4.824
74.42000 3.976
74.44000 1.649
74.46000 -0.202
74.48000 -1.747
74.50000 2.328
74.52000 3.757
74.54000 2.264
74.56000 1.034
74.58000 2.287
74.60000 1.888
74.62000 2.488
74.64000 0.938
74.66000 -2.091
74.68000 2.017
74.70000 -0.455
74.72000 0.563
74.74000 3.817
74.76000 1.135
74.78000 2.035
74.80000 1.946
74.82000 3.702
74.84000 2.723
74.86000 -0.109
74.88000 -0.019
74.90000 5.466
74.92000 4.647
74.94000 0.993
74.96000 0.144
74.98000 3.265
75.00000 1.528
75.02000 0.663
75.04000 1.073
75.06000 3.072
75.08000 1.729
75.10000 1.786
75.12000 3.166
75.14000 -0.653
75.16000 3.056
75.18000 1.939
75.20000 1.013
75.22000 7.292
75.24000 3.728
75.26000 1.499
75.28000 2.438
75.30000 2.887
75.32000 1.200
75.34000 1.940
75.36000 -1.587
75.38000 -1.816
75.40000 3.037
75.42000 3.976
75.44000 1.027
75.46000 1.498
75.48000 3.941
75.50000 2.733
75.52000 -1.297
75.54000 -0.386
75.56000 0.745
75.58000 2.433
75.60000 1.062
75.62000 1.634
75.64000 -0.020
75.66000 -0.403
75.68000 -0.611
75.70000 -2.128
75.72000 2.553
75.74000 3.030
75.76000 2.619
75.78000 2.181
75.80000 -0.066
75.82000 -0.747
75.84000 -1.668
75.86000 0.121
75.88000 2.672
75.90000 1.960
75.92000 2.108
75.94000 1.542
75.96000 -0.276
75.98000 -2.134
76.00000 -1.113
76.02000 0.245
76.04000 1.705
76.06000 1.232
76.08000 0.323
76.10000 0.596
76.12000 0.588
76.14000 3.047
76.16000 -0.362
76.18000 0.525
76.20000 3.484
76.22000 5.592
76.24000 3.138
76.26000 5.567
76.28000 3.035
76.30000 -0.758
76.32000 3.717
76.34000 5.139
76.36000 1.899
76.38000 2.471
76.40000 1.580
76.42000 1.680
76.44000 2.730
76.46000 4.741
76.48000 4.453
76.50000 1.186
76.52000 0.281
76.54000 -0.861
76.56000 -0.336
76.58000 -1.413
76.60000 -2.092
76.62000 3.511
76.64000 3.543
76.66000 1.034
76.68000 1.612
76.70000 -1.302
76.72000 2.000
76.74000 2.142
76.76000 2.285
76.78000 3.832
76.80000 3.606
76.82000 1.894
76.84000 0.652
76.86000 5.134
76.88000 3.542
76.90000 0.783
76.92000 2.316
76.94000 4.435
76.96000 4.505
76.98000 2.537
77.00000 1.240
77.02000 5.182
77.04000 3.917
77.06000 0.866
77.08000 2.625
77.10000 5.147
77.12000 3.363
77.14000 5.521
77.16000 6.224
77.18000 4.362
77.20000 4.096
77.22000 6.268
77.24000 4.195
77.26000 5.248
77.28000 2.129
77.30000 -2.085
77.32000 0.228
77.34000 2.898
77.36000 2.512
77.38000 3.929
77.40000 3.406
77.42000 6.045
77.44000 3.043
77.46000 2.270
77.48000 3.658
77.50000 5.790
77.52000 8.059
77.54000 4.388
77.56000 1.916
77.58000 -1.107
77.60000 -0.101
77.62000 2.071
77.64000 5.993
77.66000 3.701
77.68000 4.026
77.70000 3.383
77.72000 6.007
77.74000 2.820
77.76000 1.150
77.78000 0.510
77.80000 1.895
77.82000 2.505
77.84000 3.616
77.86000 2.830
77.88000 3.812
77.90000 3.424
77.92000 0.014
77.94000 -1.007
77.96000 0.178
77.98000 0.337
78.00000 -0.583
78.02000 -1.224
78.04000 4.194
78.06000 6.361
78.08000 3.227
78.10000 1.179
78.12000 0.641
78.14000 3.781
78.16000 -0.595
78.18000 -1.445
78.20000 5.691
78.22000 2.889
78.24000 5.563
78.26000 1.393
78.28000 1.921
78.30000 -0.043
78.32000 0.663
78.34000 1.536
78.36000 0.791
78.38000 4.429
78.40000 3.457
78.42000 3.376
78.44000 3.028
78.46000 3.543
78.48000 -1.350
78.50000 -2.081
78.52000 0.586
78.54000 0.145
78.56000 0.649
78.58000 1.594
78.60000 1.958
78.62000 0.486
78.64000 2.769
78.66000 4.072
78.68000 1.289
78.70000 1.516
78.72000 0.625
78.74000 -1.434
78.76000 -0.545
78.78000 0.173
78.80000 -0.691
78.82000 -0.306
78.84000 4.633
78.86000 5.550
78.88000 2.236
78.90000 2.365
78.92000 3.234
78.94000 0.788
78.96000 0.429
78.98000 0.378
79.00000 1.792
79.02000 3.839
79.04000 3.408
79.06000 1.298
79.08000 1.740
79.10000 1.183
79.12000 -0.051
79.14000 -1.165
79.16000 -0.581
79.18000 3.787
79.20000 5.576
79.22000 3.111
79.24000 4.255
79.26000 0.300
79.28000 0.749
79.30000 0.627
79.32000 1.101
79.34000 4.551
79.36000 3.805
79.38000 1.092
79.40000 -2.136
79.42000 0.511
79.44000 0.816
79.46000 0.633
79.48000 3.099
79.50000 5.139
79.52000 1.349
79.54000 -1.117
79.56000 0.248
79.58000 1.811
79.60000 8.371
79.62000 5.779
79.64000 3.932
79.66000 2.455
79.68000 4.490
79.70000 1.579
79.72000 1.680
79.74000 2.422
79.76000 -0.490
79.78000 -0.403
79.80000 2.857
79.82000 2.523
79.84000 2.313
79.86000 5.245
79.88000 3.920
79.90000 0.771
79.92000 2.066
79.94000 1.836
79.96000 3.368
79.98000 0.824
80.00000 -0.443
80.02000 0.862
80.04000 3.525
80.06000 3.799
80.08000 4.285
80.10000 3.227
80.12000 3.083
80.14000 2.329
80.16000 1.511
80.18000 3.160
80.20000 0.744
80.22000 3.678
80.24000 2.432
80.26000 -0.114
80.28000 -2.191
80.30000 -1.452
80.32000 1.789
80.34000 1.712
80.36000 0.107
80.38000 0.830
80.40000 0.863
80.42000 -0.068
80.44000 2.034
80.46000 2.943
80.48000 1.578
80.50000 2.604
80.52000 5.028
80.54000 8.380
80.56000 6.857
80.58000 5.128
80.60000 3.629
80.62000 4.229
80.64000 3.639
80.66000 6.160
80.68000 1.253
80.70000 -2.202
80.72000 0.426
80.74000 2.361
80.76000 2.972
80.78000 3.595
80.80000 3.706
80.82000 2.176
80.84000 1.229
80.86000 -1.562
80.88000 -0.850
80.90000 -1.254
80.92000 -1.920
80.94000 1.738
80.96000 -2.243
80.98000 -1.172
81.00000 0.974
81.02000 2.019
81.04000 -1.851
81.06000 2.168
81.08000 4.901
81.10000 -0.367
81.12000 0.185
81.14000 1.113
81.16000 3.176
81.18000 2.135
81.20000 1.621
81.22000 3.712
81.24000 5.008
81.26000 2.028
81.28000 -0.653
81.30000 2.104
81.32000 1.929
81.34000 0.756
81.36000 2.189
81.38000 3.172
81.40000 5.930
81.42000 0.103
81.44000 1.217
81.46000 3.724
81.48000 4.128
81.50000 3.217
81.52000 3.082
81.54000 3.892
81.56000 2.923
81.58000 2.169
81.60000 2.070
81.62000 1.074
81.64000 3.325
81.66000 3.645
81.68000 4.921
81.70000 4.026
81.72000 3.693
81.74000 4.874
81.76000 7.846
81.78000 5.583
81.80000 9.480
81.82000 10.778
81.84000 7.669
81.86000 7.378
81.88000 7.525
81.90000 11.237
81.92000 12.390
81.94000 8.845
81.96000 11.057
81.98000 8.475
82.00000 11.450
82.02000 13.121
82.04000 18.613
82.06000 16.663
82.08000 12.969
82.10000 15.950
82.12000 12.805
82.14000 14.171
82.16000 18.886
82.18000 15.848
82.20000 16.494
82.22000 17.159
82.24000 17.345
82.26000 23.803
82.28000 26.730
82.30000 23.409
82.32000 23.311
82.34000 26.524
82.36000 29.473
82.38000 34.415
82.40000 34.575
82.42000 31.836
82.44000 37.463
82.46000 39.899
82.48000 35.294
82.50000 32.257
82.52000 29.436
82.54000 32.889
82.56000 45.444
82.58000 42.950
82.60000 38.583
82.62000 38.888
82.64000 43.795
82.66000 44.631
82.68000 47.333
82.70000 51.165
82.72000 46.461
82.74000 49.078
82.76000 55.785
82.78000 58.704
82.80000 57.709
82.82000 54.645
82.84000 56.803
82.86000 55.483
82.88000 55.980
82.90000 59.339
82.92000 62.973
82.94000 62.810
82.96000 61.476
82.98000 59.712
83.00000 58.798
83.02000 61.710
83.04000 65.505
83.06000 63.410
83.08000 61.808
83.10000 61.963
83.12000 61.263
83.14000 59.875
83.16000 58.771
83.18000 53.749
83.20000 54.345
83.22000 55.447
83.24000 55.313
83.26000 54.425
83.28000 54.518
83.30000 51.159
83.32000 47.096
83.34000 44.298
83.36000 43.411
83.38000 42.671
83.40000 41.214
83.42000 36.291
83.44000 38.609
83.46000 34.769
83.48000 35.425
83.50000 35.567
83.52000 32.823
83.54000 28.786
83.56000 30.587
83.58000 34.246
83.60000 31.541
83.62000 25.909
83.64000 19.015
83.66000 22.129
83.68000 23.713
83.70000 24.051
83.72000 20.714
83.74000 26.472
83.76000 26.828
83.78000 22.803
83.80000 19.092
83.82000 16.678
83.84000 18.522
83.86000 19.220
83.88000 21.462
83.90000 18.170
83.92000 16.262
83.94000 13.219
83.96000 10.930
83.98000 14.493
84.00000 12.029
84.02000 7.864
84.04000 11.678
84.06000 9.905
84.08000 6.655
84.10000 10.031
84.12000 9.039
84.14000 5.799
84.16000 6.626
84.18000 8.171
84.20000 4.747
84.22000 9.248
84.24000 10.513
84.26000 4.675
84.28000 3.255
84.30000 3.458
84.32000 3.163
84.34000 2.892
84.36000 4.265
84.38000 4.501
84.40000 4.339
84.42000 1.864
84.44000 4.003
84.46000 0.954
84.48000 0.119
84.50000 2.722
84.52000 2.641
84.54000 2.797
84.56000 2.096
84.58000 -0.373
84.60000 0.699
84.62000 0.698
84.64000 0.622
84.66000 0.370
84.68000 1.848
84.70000 0.076
84.72000 -0.268
84.74000 -2.306
84.76000 2.326
84.78000 4.092
84.80000 4.485
84.82000 1.668
84.84000 -1.480
84.86000 0.692
84.88000 1.051
84.90000 1.803
84.92000 -2.246
84.94000 1.423
84.96000 2.625
84.98000 0.307
85.00000 1.236
85.02000 2.830
85.04000 -0.859
85.06000 -2.189
85.08000 2.612
85.10000 2.102
85.12000 1.395
85.14000 3.500
85.16000 3.375
85.18000 2.194
85.20000 -0.042
85.22000 -1.069
85.24000 -0.718
85.26000 -2.240
85.28000 -1.688
85.30000 -1.685
85.32000 -0.076
85.34000 -2.243
85.36000 1.526
85.38000 2.347
85.40000 3.031
85.42000 3.722
85.44000 4.502
85.46000 0.832
85.48000 -0.242
85.50000 2.860
85.52000 1.977
85.54000 -1.121
85.56000 0.781
85.58000 0.122
85.60000 0.315
85.62000 -0.389
85.64000 -0.422
85.66000 1.678
85.68000 0.043
85.70000 3.252
85.72000 5.595
85.74000 4.946
85.76000 2.253
85.78000 5.908
85.80000 3.557
85.82000 2.292
85.84000 -1.511
85.86000 -0.625
85.88000 -2.253
85.90000 2.596
85.92000 5.004
85.94000 4.284
85.96000 1.375
85.98000 -1.989
86.00000 -0.651
86.02000 -0.003
86.04000 -1.091
86.06000 -0.175
86.08000 2.775
86.10000 5.536
86.12000 5.133
86.14000 0.596
86.16000 3.188
86.18000 4.059
86.20000 4.385
86.22000 6.230
86.24000 3.360
86.26000 3.417
86.28000 5.186
86.30000 1.574
86.32000 4.936
86.34000 4.980
86.36000 2.675
86.38000 -2.278
86.40000 1.630
86.42000 4.810
86.44000 3.250
86.46000 3.266
86.48000 3.476
86.50000 9.025
86.52000 7.057
86.54000 3.170
86.56000 2.714
86.58000 3.889
86.60000 6.962
86.62000 8.558
86.64000 6.010
86.66000 5.930
86.68000 4.962
86.70000 9.941
86.72000 12.634
86.74000 12.069
86.76000 11.597
86.78000 12.136
86.80000 12.108
86.82000 14.057
86.84000 14.968
86.86000 17.978
86.88000 18.310
86.90000 17.216
86.92000 15.956
86.94000 20.356
86.96000 25.516
86.98000 23.298
87.00000 24.594
87.02000 27.914
87.04000 24.221
87.06000 23.685
87.08000 23.100
87.10000 26.446
87.12000 27.980
87.14000 26.512
87.16000 24.533
87.18000 27.376
87.20000 28.360
87.22000 36.848
87.24000 38.614
87.26000 35.773
87.28000 35.254
87.30000 37.927
87.32000 34.325
87.34000 31.068
87.36000 31.149
87.38000 29.682
87.40000 31.329
87.42000 36.665
87.44000 40.132
87.46000 37.270
87.48000 34.118
87.50000 41.693
87.52000 36.152
87.54000 35.407
87.56000 35.887
87.58000 38.784
87.60000 31.897
87.62000 32.283
87.64000 29.517
87.66000 35.303
87.68000 29.468
87.70000 28.110
87.72000 29.375
87.74000 30.094
87.76000 30.294
87.78000 28.761
87.80000 28.380
87.82000 24.344
87.84000 22.944
87.86000 23.285
87.88000 23.497
87.90000 18.642
87.92000 18.365
87.94000 23.770
87.96000 21.859
87.98000 21.682
88.00000 22.456
88.02000 17.431
88.04000 16.452
88.06000 14.551
88.08000 14.153
88.10000 14.359
88.12000 11.537
88.14000 12.268
88.16000 14.358
88.18000 15.197
88.20000 11.581
88.22000 14.048
88.24000 12.973
88.26000 12.880
88.28000 12.547
88.30000 14.446
88.32000 10.322
88.34000 5.832
88.36000 6.589
88.38000 3.189
88.40000 10.402
88.42000 7.049
88.44000 5.545
88.46000 6.509
88.48000 8.563
88.50000 6.686
88.52000 6.416
88.54000 7.052
88.56000 4.325
88.58000 3.802
88.60000 3.983
88.62000 0.887
88.64000 5.241
88.66000 5.125
88.68000 3.007
88.70000 1.774
88.72000 3.348
88.74000 5.212
88.76000 2.438
88.78000 -0.893
88.80000 0.638
88.82000 4.797
88.84000 5.447
88.86000 0.916
88.88000 0.443
88.90000 0.672
88.92000 2.550
88.94000 0.441
88.96000 0.444
88.98000 2.157
89.00000 3.330
89.02000 2.230
89.04000 1.590
89.06000 3.111
89.08000 7.144
89.10000 2.295
89.12000 0.091
89.14000 2.180
89.16000 3.612
89.18000 5.178
89.20000 6.867
89.22000 6.148
89.24000 5.849
89.26000 2.523
89.28000 -0.450
89.30000 -2.040
89.32000 4.292
89.34000 2.404
89.36000 0.227
89.38000 2.510
89.40000 3.250
89.42000 3.713
89.44000 4.374
89.46000 2.357
89.48000 -0.509
89.50000 -0.035
89.52000 3.963
89.54000 5.109
89.56000 3.769
89.58000 4.387
89.60000 0.558
89.62000 1.612
89.64000 1.113
89.66000 1.097
89.68000 0.042
89.70000 1.281
89.72000 2.934
89.74000 1.771
89.76000 1.875
89.78000 3.236
89.80000 -2.045
89.82000 1.794
89.84000 0.517
89.86000 0.293
89.88000 -1.354
89.90000 -1.385
89.92000 -0.446
89.94000 -0.270
89.96000 -1.306
89.98000 -1.763
90.00000 -0.553
90.02000 0.724
90.04000 1.055
90.06000 1.370
90.08000 2.127
90.10000 1.632
90.12000 -0.212
90.14000 -0.051
90.16000 3.927
90.18000 2.191
90.20000 0.352
90.22000 2.843
90.24000 -0.059
90.26000 -0.020
90.28000 0.229
90.30000 2.094
90.32000 0.420
90.34000 0.796
90.36000 -1.002
90.38000 -1.104
90.40000 0.878
90.42000 1.030
90.44000 2.988
90.46000 1.268
90.48000 0.079
90.50000 -1.390
90.52000 -0.383
90.54000 -1.623
90.56000 -1.749
90.58000 2.691
90.60000 0.528
90.62000 -0.869
90.64000 1.711
90.66000 0.259
90.68000 -1.643
90.70000 0.474
90.72000 -1.487
90.74000 -2.039
90.76000 -0.142
90.78000 0.656
90.80000 0.873
90.82000 -0.127
90.84000 -0.632
90.86000 0.082
90.88000 1.380
90.90000 0.155
90.92000 -1.454
90.94000 0.727
90.96000 -0.036
90.98000 -2.038
91.00000 -1.378
91.02000 -0.487
91.04000 -1.354
91.06000 2.170
91.08000 2.501
91.10000 2.087
91.12000 1.175
91.14000 -0.507
91.16000 4.883
91.18000 6.425
91.20000 4.430
91.22000 1.846
91.24000 1.440
91.26000 3.503
91.28000 0.329
91.30000 2.143
91.32000 -0.166
91.34000 -0.506
91.36000 -0.466
91.38000 -0.232
91.40000 0.084
91.42000 0.869
91.44000 -1.023
91.46000 0.599
91.48000 0.032
91.50000 1.127
91.52000 3.021
91.54000 -2.019
91.56000 1.458
91.58000 4.111
91.60000 -0.192
91.62000 -0.646
91.64000 3.299
91.66000 5.276
91.68000 4.674
91.70000 5.643
91.72000 6.081
91.74000 2.431
91.76000 1.404
91.78000 1.939
91.80000 0.649
91.82000 1.677
91.84000 2.634
91.86000 1.923
91.88000 0.496
91.90000 1.956
91.92000 5.251
91.94000 4.472
91.96000 1.308
91.98000 0.352
92.00000 -1.902
92.02000 2.503
92.04000 5.546
92.06000 6.579
92.08000 7.068
92.10000 6.632
92.12000 6.643
92.14000 0.524
92.16000 0.078
92.18000 3.775
92.20000 4.835
92.22000 5.257
92.24000 3.307
92.26000 2.994
92.28000 5.617
92.30000 5.001
92.32000 5.509
92.34000 5.495
92.36000 3.867
92.38000 7.925
92.40000 8.706
92.42000 8.001
92.44000 5.959
92.46000 4.953
92.48000 5.049
92.50000 3.373
92.52000 3.536
92.54000 5.365
92.56000 5.440
92.58000 6.378
92.60000 0.978
92.62000 -1.922
92.64000 1.166
92.66000 4.186
92.68000 3.520
92.70000 5.315
92.72000 6.388
92.74000 5.717
92.76000 4.867
92.78000 5.189
92.80000 5.806
92.82000 3.511
92.84000 3.426
92.86000 7.877
92.88000 7.069
92.90000 6.326
92.92000 3.463
92.94000 6.959
92.96000 6.179
92.98000 6.211
93.00000 4.663
93.02000 3.398
93.04000 6.067
93.06000 1.525
93.08000 1.596
93.10000 6.961
93.12000 6.546
93.14000 5.325
93.16000 3.786
93.18000 3.110
93.20000 3.425
93.22000 6.506
93.24000 4.387
93.26000 1.822
93.28000 6.378
93.30000 4.091
93.32000 2.665
93.34000 3.839
93.36000 5.579
93.38000 4.738
93.40000 5.092
93.42000 2.688
93.44000 4.046
93.46000 6.682
93.48000 5.050
93.50000 6.434
93.52000 5.827
93.54000 4.999
93.56000 1.962
93.58000 2.209
93.60000 4.217
93.62000 4.782
93.64000 1.635
93.66000 2.132
93.68000 1.059
93.70000 1.580
93.72000 2.672
93.74000 2.954
93.76000 4.568
93.78000 5.095
93.80000 4.901
93.82000 4.526
93.84000 1.875
93.86000 -0.036
93.88000 -1.969
93.90000 1.744
93.92000 1.206
93.94000 3.674
93.96000 4.763
93.98000 2.494
94.00000 4.389
94.02000 3.533
94.04000 3.908
94.06000 4.151
94.08000 2.059
94.10000 4.246
94.12000 6.305
94.14000 3.315
94.16000 6.255
94.18000 3.475
94.20000 2.057
94.22000 2.125
94.24000 4.205
94.26000 3.433
94.28000 1.075
94.30000 2.762
94.32000 1.215
94.34000 -1.389
94.36000 0.647
94.38000 -0.325
94.40000 3.147
94.42000 2.956
94.44000 -1.043
94.46000 -2.012
94.48000 0.192
94.50000 -1.801
94.52000 1.876
94.54000 4.455
94.56000 6.174
94.58000 5.455
94.60000 1.189
94.62000 3.885
94.64000 4.014
94.66000 4.786
94.68000 4.634
94.70000 5.745
94.72000 5.239
94.74000 4.146
94.76000 2.493
94.78000 1.908
94.80000 1.000
94.82000 -1.839
94.84000 0.755
94.86000 0.307
94.88000 1.082
94.90000 1.252
94.92000 3.148
94.94000 1.944
94.96000 -2.025
94.98000 1.058
95.00000 5.914
95.02000 5.031
95.04000 4.909
95.06000 0.563
95.08000 1.004
95.10000 5.606
95.12000 1.350
95.14000 -1.230
95.16000 4.134
95.18000 -0.325
95.20000 4.493
95.22000 6.347
95.24000 6.209
95.26000 -0.859
95.28000 1.558
95.30000 7.749
95.32000 2.305
95.34000 0.576
95.36000 1.455
95.38000 2.990
95.40000 6.316
95.42000 5.044
95.44000 2.177
95.46000 2.176
95.48000 3.859
95.50000 5.453
95.52000 6.728
95.54000 2.783
95.56000 -0.423
95.58000 1.238
95.60000 2.365
95.62000 0.786
95.64000 -0.639
95.66000 2.621
95.68000 1.122
95.70000 3.194
95.72000 4.836
95.74000 3.588
95.76000 2.032
95.78000 -0.667
95.80000 -2.022
95.82000 0.928
95.84000 1.386
95.86000 2.203
95.88000 7.401
95.90000 6.530
95.92000 3.831
95.94000 0.242
95.96000 -0.541
95.98000 6.885
96.00000 4.646
96.02000 3.697
96.04000 5.697
96.06000 6.675
96.08000 0.468
96.10000 -2.006
96.12000 2.979
96.14000 3.872
96.16000 2.779
96.18000 5.576
96.20000 5.156
96.22000 3.999
96.24000 -0.802
96.26000 0.607
96.28000 0.744
96.30000 -1.049
96.32000 -1.053
96.34000 4.603
96.36000 0.537
96.38000 3.217
96.40000 0.470
96.42000 7.786
96.44000 5.779
96.46000 5.549
96.48000 4.933
96.50000 4.852
96.52000 3.301
96.54000 0.579
96.56000 1.562
96.58000 3.390
96.60000 5.579
96.62000 7.139
96.64000 6.682
96.66000 6.573
96.68000 2.873
96.70000 1.242
96.72000 1.569
96.74000 0.610
96.76000 5.453
96.78000 6.161
96.80000 -0.002
96.82000 0.766
96.84000 -1.146
96.86000 -0.848
96.88000 -1.098
96.90000 3.191
96.92000 5.423
96.94000 4.808
96.96000 6.039
96.98000 0.081
97.00000 1.644
97.02000 4.179
97.04000 6.518
97.06000 3.160
97.08000 3.496
97.10000 0.270
97.12000 3.935
97.14000 7.149
97.16000 7.500
97.18000 4.561
97.20000 3.765
97.22000 3.179
97.24000 6.207
97.26000 10.635
97.28000 8.598
97.30000 0.513
97.32000 -1.967
97.34000 -0.337
97.36000 3.445
97.38000 7.600
97.40000 13.838
97.42000 8.384
97.44000 0.673
97.46000 4.439
97.48000 3.283
97.50000 8.548
97.52000 7.701
97.54000 12.727
97.56000 6.092
97.58000 0.906
97.60000 1.985
97.62000 5.066
97.64000 6.423
97.66000 1.178
97.68000 1.674
97.70000 4.197
97.72000 2.627
97.74000 3.792
97.76000 7.054
97.78000 5.134
97.80000 1.437
97.82000 1.411
97.84000 5.102
97.86000 6.720
97.88000 1.070
97.90000 3.354
97.92000 5.094
97.94000 5.932
97.96000 5.608
97.98000 8.378
98.00000 7.166
98.02000 10.817
98.04000 7.060
98.06000 5.764
98.08000 3.520
98.10000 -0.711
98.12000 1.335
98.14000 2.706
98.16000 6.231
98.18000 12.548
98.20000 6.658
98.22000 -1.122
98.24000 0.597
98.26000 5.199
98.28000 3.569
98.30000 3.546
98.32000 8.866
98.34000 10.443
98.36000 6.977
98.38000 7.084
98.40000 10.369
98.42000 7.599
98.44000 7.250
98.46000 7.105
98.48000 4.431
98.50000 5.553
98.52000 5.867
98.54000 13.096
98.56000 3.573
98.58000 -0.695
98.60000 3.182
98.62000 1.331
98.64000 6.508
98.66000 5.787
98.68000 6.346
98.70000 6.961
98.72000 -1.931
98.74000 1.513
98.76000 0.982
98.78000 4.908
98.80000 4.437
98.82000 7.083
98.84000 4.077
98.86000 4.312
98.88000 4.889
98.90000 15.638
98.92000 7.527
98.94000 -0.626
98.96000 4.748
98.98000 1.477
99.00000 -0.086
99.02000 -0.686
99.04000 10.709
99.06000 13.070
99.08000 7.373
99.10000 6.842
99.12000 2.927
99.14000 1.427
99.16000 6.942
99.18000 7.225
99.20000 10.311
99.22000 8.801
99.24000 7.979
99.26000 8.366
99.28000 7.319
99.30000 15.818
99.32000 13.953
99.34000 16.832
99.36000 10.301
99.38000 9.596
99.40000 11.078
99.42000 4.044
99.44000 12.587
99.46000 13.096
99.48000 11.457
99.50000 3.501
99.52000 5.231
99.54000 2.538
99.56000 -1.844
99.58000 2.207
99.60000 8.030
99.62000 3.359
99.64000 1.134
99.66000 4.616
99.68000 -1.436
99.70000 1.679
99.72000 5.525
99.74000 10.207
99.76000 9.680
99.78000 6.191
99.80000 0.082
99.82000 4.232
99.84000 6.343
99.86000 6.070
99.88000 -2.052
99.90000 1.002
99.92000 -2.150
99.94000 6.644
99.96000 -2.281
99.98000 0.000
