'Id: "0011389" Comment: "Integrate frame 0011389_Au-Ir-Rh_Au-Rich_XRD_Mapping-339-0000.gfrmwith cursor Wedge Cursor #5" Operator: "B?rgel" Anode: "Cu" Wavelength: "1.5406" Scantype: "2Theta (TwoTheta)" TimePerStep: "1" X: "4.5" Y: "45" Z: "5.95" 
10.00000 0.000
10.02000 -4.502
10.04000 -8.373
10.06000 18.586
10.08000 16.765
10.10000 25.560
10.12000 18.165
10.14000 14.929
10.16000 14.591
10.18000 6.574
10.20000 12.974
10.22000 28.167
10.24000 10.407
10.26000 3.464
10.28000 15.541
10.30000 31.703
10.32000 27.529
10.34000 15.771
10.36000 18.112
10.38000 2.991
10.40000 -5.309
10.42000 17.696
10.44000 28.753
10.46000 37.848
10.48000 25.964
10.50000 10.180
10.52000 17.577
10.54000 11.838
10.56000 8.627
10.58000 22.577
10.60000 31.088
10.62000 28.375
10.64000 17.733
10.66000 22.664
10.68000 17.402
10.70000 17.020
10.72000 31.007
10.74000 20.874
10.76000 15.040
10.78000 6.146
10.80000 0.144
10.82000 8.536
10.84000 7.091
10.86000 4.211
10.88000 9.481
10.90000 9.883
10.92000 10.743
10.94000 18.219
10.96000 20.919
10.98000 25.970
11.00000 35.425
11.02000 13.744
11.04000 6.941
11.06000 25.103
11.08000 23.545
11.10000 6.853
11.12000 19.627
11.14000 16.128
11.16000 4.196
11.18000 22.038
11.20000 33.348
11.22000 24.259
11.24000 21.599
11.26000 22.888
11.28000 19.758
11.30000 12.670
11.32000 13.552
11.34000 19.724
11.36000 7.754
11.38000 4.576
11.40000 19.811
11.42000 25.924
11.44000 29.185
11.46000 23.815
11.48000 11.246
11.50000 10.717
11.52000 10.039
11.54000 12.484
11.56000 16.019
11.58000 28.693
11.60000 23.144
11.62000 15.167
11.64000 13.626
11.66000 14.144
11.68000 13.398
11.70000 11.752
11.72000 13.182
11.74000 16.014
11.76000 18.386
11.78000 23.809
11.80000 21.830
11.82000 12.674
11.84000 1.281
11.86000 8.931
11.88000 20.202
11.90000 19.835
11.92000 26.151
11.94000 20.985
11.96000 17.032
11.98000 21.605
12.00000 14.533
12.02000 13.601
12.04000 5.858
12.06000 -0.105
12.08000 8.992
12.10000 17.959
12.12000 24.559
12.14000 25.305
12.16000 25.545
12.18000 17.832
12.20000 17.390
12.22000 15.420
12.24000 6.814
12.26000 3.691
12.28000 11.099
12.30000 23.076
12.32000 30.613
12.34000 26.210
12.36000 17.598
12.38000 14.033
12.40000 13.074
12.42000 18.425
12.44000 13.043
12.46000 18.642
12.48000 19.267
12.50000 21.258
12.52000 30.370
12.54000 20.993
12.56000 17.662
12.58000 14.937
12.60000 14.058
12.62000 21.639
12.64000 12.814
12.66000 16.431
12.68000 23.078
12.70000 15.277
12.72000 16.524
12.74000 14.384
12.76000 10.844
12.78000 15.891
12.80000 18.916
12.82000 12.932
12.84000 8.071
12.86000 17.781
12.88000 16.817
12.90000 10.895
12.92000 7.046
12.94000 14.065
12.96000 18.895
12.98000 19.657
13.00000 13.683
13.02000 10.133
13.04000 14.953
13.06000 12.798
13.08000 11.830
13.10000 10.554
13.12000 9.373
13.14000 10.143
13.16000 8.532
13.18000 19.173
13.20000 28.695
13.22000 17.203
13.24000 4.917
13.26000 15.855
13.28000 25.103
13.30000 17.745
13.32000 14.210
13.34000 18.779
13.36000 6.538
13.38000 -0.987
13.40000 7.301
13.42000 0.634
13.44000 7.682
13.46000 2.997
13.48000 10.595
13.50000 16.193
13.52000 13.751
13.54000 14.723
13.56000 12.719
13.58000 19.940
13.60000 15.290
13.62000 10.261
13.64000 3.975
13.66000 4.114
13.68000 9.710
13.70000 14.976
13.72000 13.156
13.74000 11.196
13.76000 12.264
13.78000 13.830
13.80000 5.872
13.82000 3.827
13.84000 -0.252
13.86000 3.253
13.88000 2.586
13.90000 4.917
13.92000 12.400
13.94000 11.967
13.96000 8.660
13.98000 1.544
14.00000 12.132
14.02000 6.855
14.04000 8.110
14.06000 -0.786
14.08000 6.325
14.10000 9.479
14.12000 8.755
14.14000 3.884
14.16000 5.054
14.18000 17.623
14.20000 18.075
14.22000 10.602
14.24000 15.580
14.26000 7.690
14.28000 3.708
14.30000 4.811
14.32000 4.159
14.34000 14.417
14.36000 12.967
14.38000 21.327
14.40000 16.597
14.42000 13.456
14.44000 13.490
14.46000 11.336
14.48000 11.134
14.50000 10.080
14.52000 13.115
14.54000 17.142
14.56000 17.374
14.58000 20.092
14.60000 13.740
14.62000 22.510
14.64000 20.077
14.66000 7.155
14.68000 20.864
14.70000 16.681
14.72000 10.807
14.74000 3.618
14.76000 9.026
14.78000 20.630
14.80000 17.912
14.82000 15.894
14.84000 7.583
14.86000 4.767
14.88000 5.537
14.90000 6.263
14.92000 13.489
14.94000 22.007
14.96000 16.604
14.98000 21.192
15.00000 15.614
15.02000 15.348
15.04000 14.415
15.06000 11.413
15.08000 8.431
15.10000 8.489
15.12000 13.092
15.14000 16.229
15.16000 13.811
15.18000 10.861
15.20000 10.678
15.22000 2.725
15.24000 4.884
15.26000 5.348
15.28000 4.717
15.30000 9.784
15.32000 15.354
15.34000 21.414
15.36000 20.026
15.38000 6.396
15.40000 11.070
15.42000 15.171
15.44000 19.976
15.46000 15.586
15.48000 21.309
15.50000 16.165
15.52000 17.836
15.54000 11.597
15.56000 5.891
15.58000 -4.465
15.60000 6.074
15.62000 11.110
15.64000 12.585
15.66000 13.142
15.68000 21.794
15.70000 19.743
15.72000 17.203
15.74000 10.489
15.76000 2.321
15.78000 7.888
15.80000 10.482
15.82000 11.950
15.84000 11.823
15.86000 12.426
15.88000 7.156
15.90000 6.513
15.92000 3.980
15.94000 3.712
15.96000 1.256
15.98000 6.352
16.00000 13.381
16.02000 5.855
16.04000 6.563
16.06000 10.089
16.08000 12.085
16.10000 10.788
16.12000 16.355
16.14000 19.934
16.16000 13.945
16.18000 9.368
16.20000 8.145
16.22000 8.501
16.24000 -0.036
16.26000 0.153
16.28000 5.544
16.30000 -1.898
16.32000 7.170
16.34000 10.211
16.36000 8.547
16.38000 2.351
16.40000 3.382
16.42000 4.499
16.44000 4.477
16.46000 9.129
16.48000 4.402
16.50000 10.418
16.52000 5.972
16.54000 2.108
16.56000 7.397
16.58000 6.120
16.60000 4.902
16.62000 3.436
16.64000 10.621
16.66000 13.951
16.68000 11.216
16.70000 -0.622
16.72000 2.476
16.74000 4.296
16.76000 10.031
16.78000 12.848
16.80000 12.687
16.82000 2.523
16.84000 10.539
16.86000 12.199
16.88000 21.713
16.90000 17.784
16.92000 10.337
16.94000 7.036
16.96000 5.471
16.98000 7.274
17.00000 3.212
17.02000 3.002
17.04000 -2.714
17.06000 7.233
17.08000 3.582
17.10000 2.342
17.12000 12.262
17.14000 11.974
17.16000 17.511
17.18000 11.321
17.20000 -0.496
17.22000 3.286
17.24000 5.486
17.26000 0.370
17.28000 2.070
17.30000 11.996
17.32000 6.944
17.34000 6.816
17.36000 7.345
17.38000 6.539
17.40000 6.160
17.42000 7.096
17.44000 8.353
17.46000 9.842
17.48000 5.982
17.50000 5.016
17.52000 4.337
17.54000 -4.419
17.56000 8.669
17.58000 10.764
17.60000 2.066
17.62000 -0.471
17.64000 6.270
17.66000 13.070
17.68000 12.391
17.70000 6.634
17.72000 9.288
17.74000 2.924
17.76000 -1.494
17.78000 1.336
17.80000 6.433
17.82000 10.939
17.84000 7.509
17.86000 8.120
17.88000 5.490
17.90000 4.259
17.92000 2.289
17.94000 3.035
17.96000 7.924
17.98000 1.135
18.00000 -4.392
18.02000 3.014
18.04000 4.576
18.06000 7.876
18.08000 0.981
18.10000 4.139
18.12000 6.695
18.14000 10.619
18.16000 5.709
18.18000 6.340
18.20000 12.029
18.22000 7.860
18.24000 -0.906
18.26000 2.492
18.28000 8.538
18.30000 4.688
18.32000 8.390
18.34000 6.302
18.36000 10.300
18.38000 5.532
18.40000 6.240
18.42000 4.318
18.44000 2.279
18.46000 8.373
18.48000 1.207
18.50000 3.189
18.52000 6.119
18.54000 7.107
18.56000 12.262
18.58000 7.088
18.60000 6.559
18.62000 7.247
18.64000 7.963
18.66000 9.695
18.68000 4.480
18.70000 6.115
18.72000 5.769
18.74000 2.683
18.76000 0.622
18.78000 2.170
18.80000 6.853
18.82000 8.205
18.84000 7.922
18.86000 5.352
18.88000 7.019
18.90000 6.507
18.92000 8.630
18.94000 8.605
18.96000 3.701
18.98000 -1.820
19.00000 -0.658
19.02000 2.232
19.04000 -0.012
19.06000 -0.071
19.08000 4.251
19.10000 5.854
19.12000 2.506
19.14000 1.077
19.16000 11.827
19.18000 3.019
19.20000 2.579
19.22000 5.522
19.24000 5.550
19.26000 6.523
19.28000 0.295
19.30000 -0.343
19.32000 2.232
19.34000 8.283
19.36000 11.573
19.38000 10.258
19.40000 4.079
19.42000 2.542
19.44000 4.088
19.46000 4.264
19.48000 7.617
19.50000 8.646
19.52000 2.122
19.54000 4.599
19.56000 9.375
19.58000 8.074
19.60000 10.870
19.62000 8.782
19.64000 10.991
19.66000 10.918
19.68000 6.705
19.70000 5.971
19.72000 6.271
19.74000 7.340
19.76000 3.518
19.78000 8.261
19.80000 11.600
19.82000 9.180
19.84000 8.291
19.86000 12.339
19.88000 6.630
19.90000 -2.656
19.92000 6.872
19.94000 11.215
19.96000 7.517
19.98000 -4.213
20.00000 -0.795
20.02000 7.715
20.04000 7.866
20.06000 5.729
20.08000 6.667
20.10000 13.635
20.12000 9.572
20.14000 8.800
20.16000 9.465
20.18000 4.011
20.20000 5.461
20.22000 5.973
20.24000 2.324
20.26000 8.668
20.28000 7.030
20.30000 12.339
20.32000 14.319
20.34000 6.563
20.36000 3.585
20.38000 6.244
20.40000 3.421
20.42000 9.534
20.44000 8.113
20.46000 7.254
20.48000 4.613
20.50000 1.040
20.52000 4.945
20.54000 7.168
20.56000 7.064
20.58000 13.988
20.60000 9.504
20.62000 11.001
20.64000 8.783
20.66000 8.583
20.68000 1.475
20.70000 3.092
20.72000 2.628
20.74000 11.017
20.76000 5.320
20.78000 -0.565
20.80000 -3.725
20.82000 4.436
20.84000 10.719
20.86000 4.122
20.88000 1.848
20.90000 1.514
20.92000 4.427
20.94000 4.623
20.96000 3.325
20.98000 6.874
21.00000 8.475
21.02000 4.439
21.04000 5.332
21.06000 10.771
21.08000 8.418
21.10000 -1.719
21.12000 1.028
21.14000 -4.194
21.16000 4.395
21.18000 4.976
21.20000 7.436
21.22000 6.025
21.24000 4.242
21.26000 3.969
21.28000 7.112
21.30000 10.463
21.32000 6.481
21.34000 -0.354
21.36000 1.976
21.38000 8.685
21.40000 6.775
21.42000 4.778
21.44000 1.078
21.46000 5.230
21.48000 6.084
21.50000 1.656
21.52000 -2.314
21.54000 -0.749
21.56000 3.519
21.58000 3.112
21.60000 0.208
21.62000 -1.161
21.64000 -2.120
21.66000 2.305
21.68000 4.593
21.70000 1.837
21.72000 8.793
21.74000 8.921
21.76000 7.583
21.78000 5.092
21.80000 5.903
21.82000 0.915
21.84000 5.318
21.86000 -0.058
21.88000 0.798
21.90000 8.848
21.92000 7.591
21.94000 2.733
21.96000 9.737
21.98000 10.897
22.00000 7.726
22.02000 2.847
22.04000 0.913
22.06000 6.874
22.08000 7.936
22.10000 5.815
22.12000 7.467
22.14000 0.656
22.16000 2.235
22.18000 4.158
22.20000 3.977
22.22000 7.316
22.24000 2.269
22.26000 -0.230
22.28000 0.055
22.30000 3.306
22.32000 7.784
22.34000 6.511
22.36000 5.069
22.38000 3.649
22.40000 2.676
22.42000 6.854
22.44000 7.559
22.46000 5.895
22.48000 1.738
22.50000 -1.927
22.52000 1.578
22.54000 8.010
22.56000 8.173
22.58000 5.862
22.60000 6.590
22.62000 -4.122
22.64000 4.797
22.66000 -0.707
22.68000 -3.266
22.70000 -1.881
22.72000 2.835
22.74000 3.657
22.76000 -1.057
22.78000 0.185
22.80000 2.881
22.82000 6.795
22.84000 8.074
22.86000 5.591
22.88000 0.528
22.90000 0.447
22.92000 1.332
22.94000 -1.113
22.96000 4.573
22.98000 2.456
23.00000 -0.827
23.02000 -0.048
23.04000 5.201
23.06000 8.522
23.08000 3.187
23.10000 3.350
23.12000 5.340
23.14000 8.265
23.16000 5.727
23.18000 -2.163
23.20000 -1.812
23.22000 2.131
23.24000 3.255
23.26000 2.374
23.28000 -0.462
23.30000 3.429
23.32000 2.060
23.34000 3.209
23.36000 8.433
23.38000 3.168
23.40000 -0.092
23.42000 -1.194
23.44000 2.913
23.46000 5.359
23.48000 0.473
23.50000 1.928
23.52000 8.237
23.54000 10.226
23.56000 2.067
23.58000 7.122
23.60000 4.469
23.62000 2.267
23.64000 5.680
23.66000 2.568
23.68000 3.013
23.70000 5.550
23.72000 6.179
23.74000 4.596
23.76000 4.724
23.78000 -1.247
23.80000 -1.897
23.82000 5.378
23.84000 0.974
23.86000 -2.529
23.88000 -4.063
23.90000 2.180
23.92000 7.624
23.94000 5.656
23.96000 -1.297
23.98000 1.331
24.00000 3.470
24.02000 -2.513
24.04000 3.000
24.06000 9.185
24.08000 -1.429
24.10000 -2.550
24.12000 0.448
24.14000 -1.148
24.16000 3.487
24.18000 5.530
24.20000 6.647
24.22000 8.859
24.24000 1.203
24.26000 4.550
24.28000 7.593
24.30000 11.393
24.32000 5.942
24.34000 3.419
24.36000 3.990
24.38000 5.152
24.40000 4.022
24.42000 2.572
24.44000 2.580
24.46000 6.727
24.48000 2.915
24.50000 -0.869
24.52000 5.521
24.54000 1.624
24.56000 -0.514
24.58000 -4.013
24.60000 2.752
24.62000 0.766
24.64000 1.599
24.66000 4.687
24.68000 7.629
24.70000 8.143
24.72000 3.118
24.74000 4.907
24.76000 0.799
24.78000 2.653
24.80000 4.748
24.82000 3.156
24.84000 8.715
24.86000 10.689
24.88000 4.672
24.90000 7.054
24.92000 6.403
24.94000 -2.798
24.96000 -3.987
24.98000 4.092
25.00000 5.272
25.02000 5.373
25.04000 3.235
25.06000 2.389
25.08000 -3.084
25.10000 0.821
25.12000 3.697
25.14000 3.582
25.16000 5.729
25.18000 7.765
25.20000 7.190
25.22000 7.030
25.24000 6.775
25.26000 1.374
25.28000 -0.305
25.30000 0.123
25.32000 -0.738
25.34000 -2.939
25.36000 -1.238
25.38000 -0.528
25.40000 -0.959
25.42000 1.410
25.44000 -0.339
25.46000 1.850
25.48000 0.914
25.50000 4.152
25.52000 7.638
25.54000 7.333
25.56000 4.702
25.58000 -0.549
25.60000 0.967
25.62000 4.981
25.64000 5.440
25.66000 -0.119
25.68000 -0.527
25.70000 1.380
25.72000 -1.906
25.74000 2.405
25.76000 -1.135
25.78000 4.156
25.80000 5.574
25.82000 4.637
25.84000 0.230
25.86000 -1.991
25.88000 2.808
25.90000 -1.454
25.92000 -1.501
25.94000 6.386
25.96000 4.620
25.98000 6.084
26.00000 0.285
26.02000 4.538
26.04000 9.027
26.06000 5.390
26.08000 5.971
26.10000 2.747
26.12000 2.301
26.14000 3.285
26.16000 3.940
26.18000 3.271
26.20000 5.261
26.22000 1.722
26.24000 -1.839
26.26000 -0.521
26.28000 -0.158
26.30000 3.066
26.32000 4.629
26.34000 5.117
26.36000 3.510
26.38000 4.022
26.40000 4.325
26.42000 7.504
26.44000 9.924
26.46000 10.765
26.48000 10.304
26.50000 5.255
26.52000 3.023
26.54000 3.080
26.56000 2.018
26.58000 1.189
26.60000 4.778
26.62000 1.152
26.64000 -1.719
26.66000 0.879
26.68000 2.992
26.70000 11.639
26.72000 7.409
26.74000 0.215
26.76000 3.263
26.78000 5.592
26.80000 0.558
26.82000 5.342
26.84000 7.139
26.86000 5.087
26.88000 3.118
26.90000 7.229
26.92000 4.757
26.94000 4.319
26.96000 4.995
26.98000 4.671
27.00000 5.393
27.02000 2.187
27.04000 4.674
27.06000 3.908
27.08000 -1.604
27.10000 -3.898
27.12000 -0.182
27.14000 2.275
27.16000 -0.916
27.18000 1.919
27.20000 2.434
27.22000 1.777
27.24000 0.881
27.26000 -1.957
27.28000 -0.945
27.30000 -0.978
27.32000 3.585
27.34000 5.586
27.36000 3.859
27.38000 4.099
27.40000 -0.469
27.42000 -0.746
27.44000 2.571
27.46000 2.705
27.48000 5.755
27.50000 8.471
27.52000 4.034
27.54000 2.076
27.56000 2.841
27.58000 1.789
27.60000 2.341
27.62000 4.719
27.64000 -1.155
27.66000 -0.830
27.68000 1.630
27.70000 2.444
27.72000 -0.669
27.74000 2.216
27.76000 2.758
27.78000 7.856
27.80000 2.263
27.82000 3.546
27.84000 3.882
27.86000 4.306
27.88000 7.163
27.90000 1.351
27.92000 1.264
27.94000 2.028
27.96000 0.848
27.98000 7.449
28.00000 5.915
28.02000 3.237
28.04000 4.245
28.06000 8.134
28.08000 4.946
28.10000 3.085
28.12000 3.007
28.14000 7.020
28.16000 7.980
28.18000 3.327
28.20000 -2.293
28.22000 -3.803
28.24000 4.392
28.26000 4.026
28.28000 4.435
28.30000 7.063
28.32000 9.175
28.34000 3.014
28.36000 5.366
28.38000 5.707
28.40000 5.473
28.42000 2.028
28.44000 0.110
28.46000 5.115
28.48000 0.870
28.50000 -0.421
28.52000 2.077
28.54000 2.584
28.56000 6.607
28.58000 3.435
28.60000 -0.385
28.62000 0.881
28.64000 3.435
28.66000 6.521
28.68000 5.691
28.70000 6.736
28.72000 4.621
28.74000 9.288
28.76000 4.227
28.78000 0.987
28.80000 3.879
28.82000 5.045
28.84000 4.434
28.86000 2.484
28.88000 4.113
28.90000 2.225
28.92000 1.870
28.94000 -0.917
28.96000 0.463
28.98000 0.396
29.00000 1.704
29.02000 1.402
29.04000 2.539
29.06000 -0.317
29.08000 6.085
29.10000 3.172
29.12000 1.186
29.14000 -1.056
29.16000 1.098
29.18000 0.258
29.20000 4.016
29.22000 1.673
29.24000 -1.361
29.26000 2.284
29.28000 1.520
29.30000 1.472
29.32000 4.947
29.34000 5.720
29.36000 2.727
29.38000 3.502
29.40000 5.032
29.42000 0.746
29.44000 0.737
29.46000 3.273
29.48000 2.176
29.50000 3.480
29.52000 1.368
29.54000 -3.262
29.56000 -2.594
29.58000 1.516
29.60000 4.417
29.62000 6.125
29.64000 1.162
29.66000 -0.860
29.68000 -1.683
29.70000 -3.773
29.72000 -1.137
29.74000 -1.444
29.76000 -1.741
29.78000 -1.490
29.80000 -1.127
29.82000 0.674
29.84000 0.024
29.86000 -0.450
29.88000 0.731
29.90000 -0.004
29.92000 2.747
29.94000 3.684
29.96000 5.867
29.98000 2.471
30.00000 1.210
30.02000 -3.047
30.04000 -2.490
30.06000 1.121
30.08000 4.019
30.10000 -3.515
30.12000 -0.095
30.14000 2.798
30.16000 3.561
30.18000 3.689
30.20000 1.656
30.22000 4.679
30.24000 5.914
30.26000 8.769
30.28000 4.660
30.30000 4.471
30.32000 8.187
30.34000 4.899
30.36000 4.758
30.38000 5.608
30.40000 6.786
30.42000 0.650
30.44000 3.438
30.46000 6.456
30.48000 3.831
30.50000 0.879
30.52000 4.265
30.54000 -1.119
30.56000 -0.370
30.58000 5.982
30.60000 10.192
30.62000 11.881
30.64000 6.148
30.66000 0.790
30.68000 1.125
30.70000 3.788
30.72000 0.148
30.74000 -2.929
30.76000 -2.248
30.78000 4.104
30.80000 4.433
30.82000 5.985
30.84000 6.094
30.86000 0.190
30.88000 4.034
30.90000 6.679
30.92000 2.256
30.94000 2.108
30.96000 3.123
30.98000 4.696
31.00000 2.478
31.02000 2.988
31.04000 -0.570
31.06000 -3.694
31.08000 0.568
31.10000 2.497
31.12000 4.931
31.14000 6.421
31.16000 6.839
31.18000 7.155
31.20000 8.266
31.22000 3.845
31.24000 3.141
31.26000 9.297
31.28000 3.899
31.30000 0.592
31.32000 0.232
31.34000 -1.045
31.36000 6.322
31.38000 3.728
31.40000 1.805
31.42000 2.481
31.44000 2.208
31.46000 3.482
31.48000 6.034
31.50000 6.348
31.52000 5.748
31.54000 5.143
31.56000 2.338
31.58000 2.923
31.60000 1.696
31.62000 2.411
31.64000 2.412
31.66000 1.023
31.68000 -1.937
31.70000 -0.447
31.72000 1.803
31.74000 1.097
31.76000 4.887
31.78000 6.686
31.80000 -1.587
31.82000 -2.827
31.84000 3.405
31.86000 0.984
31.88000 2.798
31.90000 2.894
31.92000 6.242
31.94000 8.024
31.96000 6.445
31.98000 5.884
32.00000 8.375
32.02000 7.918
32.04000 3.482
32.06000 -0.524
32.08000 5.004
32.10000 5.422
32.12000 4.198
32.14000 3.567
32.16000 2.733
32.18000 0.451
32.20000 3.318
32.22000 -0.060
32.24000 3.699
32.26000 1.182
32.28000 1.206
32.30000 -2.513
32.32000 -0.674
32.34000 1.496
32.36000 8.287
32.38000 12.442
32.40000 3.844
32.42000 -3.656
32.44000 1.526
32.46000 4.493
32.48000 4.135
32.50000 1.194
32.52000 5.141
32.54000 7.832
32.56000 7.795
32.58000 6.588
32.60000 2.227
32.62000 2.254
32.64000 -0.295
32.66000 -3.643
32.68000 -1.699
32.70000 4.142
32.72000 8.541
32.74000 5.753
32.76000 0.639
32.78000 -2.394
32.80000 -1.696
32.82000 1.652
32.84000 -0.181
32.86000 2.119
32.88000 2.485
32.90000 5.448
32.92000 7.370
32.94000 4.628
32.96000 9.889
32.98000 9.917
33.00000 3.566
33.02000 1.390
33.04000 6.767
33.06000 1.541
33.08000 1.055
33.10000 2.236
33.12000 3.658
33.14000 1.714
33.16000 2.981
33.18000 -3.477
33.20000 3.380
33.22000 6.828
33.24000 6.122
33.26000 7.889
33.28000 3.536
33.30000 -0.456
33.32000 -2.314
33.34000 1.791
33.36000 2.497
33.38000 6.905
33.40000 1.615
33.42000 -0.715
33.44000 2.902
33.46000 1.311
33.48000 0.935
33.50000 6.263
33.52000 7.269
33.54000 5.932
33.56000 0.673
33.58000 5.956
33.60000 4.426
33.62000 8.068
33.64000 3.814
33.66000 0.790
33.68000 0.642
33.70000 1.069
33.72000 2.849
33.74000 2.348
33.76000 -0.051
33.78000 4.276
33.80000 1.701
33.82000 2.267
33.84000 6.622
33.86000 5.977
33.88000 4.000
33.90000 4.251
33.92000 1.446
33.94000 3.414
33.96000 6.790
33.98000 7.433
34.00000 4.007
34.02000 7.136
34.04000 7.035
34.06000 5.963
34.08000 2.196
34.10000 4.231
34.12000 2.023
34.14000 3.965
34.16000 3.389
34.18000 1.693
34.20000 4.241
34.22000 2.778
34.24000 0.540
34.26000 -0.281
34.28000 1.567
34.30000 5.148
34.32000 1.714
34.34000 -0.607
34.36000 -1.410
34.38000 -2.351
34.40000 1.748
34.42000 0.645
34.44000 0.953
34.46000 5.827
34.48000 9.470
34.50000 9.135
34.52000 3.389
34.54000 -1.641
34.56000 -3.049
34.58000 3.445
34.60000 6.009
34.62000 6.496
34.64000 -3.646
34.66000 -2.897
34.68000 -1.980
34.70000 -0.034
34.72000 5.903
34.74000 4.200
34.76000 1.763
34.78000 6.207
34.80000 1.447
34.82000 0.960
34.84000 3.319
34.86000 4.877
34.88000 3.409
34.90000 1.605
34.92000 -3.653
34.94000 -3.561
34.96000 -2.142
34.98000 0.361
35.00000 5.553
35.02000 -1.293
35.04000 -2.293
35.06000 2.073
35.08000 -0.880
35.10000 -3.659
35.12000 -1.920
35.14000 -0.093
35.16000 -0.179
35.18000 0.443
35.20000 -0.267
35.22000 -3.577
35.24000 -0.666
35.26000 1.769
35.28000 0.164
35.30000 1.299
35.32000 2.965
35.34000 1.932
35.36000 -0.719
35.38000 6.750
35.40000 3.131
35.42000 -0.648
35.44000 -0.596
35.46000 -0.492
35.48000 0.677
35.50000 2.122
35.52000 -2.209
35.54000 1.838
35.56000 6.778
35.58000 2.602
35.60000 -0.352
35.62000 0.064
35.64000 1.496
35.66000 1.811
35.68000 1.465
35.70000 5.183
35.72000 6.906
35.74000 2.816
35.76000 0.063
35.78000 1.529
35.80000 2.450
35.82000 3.119
35.84000 7.593
35.86000 2.717
35.88000 -1.403
35.90000 3.098
35.92000 7.869
35.94000 3.105
35.96000 0.125
35.98000 -0.517
36.00000 -0.466
36.02000 -0.553
36.04000 1.928
36.06000 0.764
36.08000 3.337
36.10000 2.763
36.12000 -3.694
36.14000 -1.632
36.16000 1.313
36.18000 -0.817
36.20000 1.235
36.22000 4.536
36.24000 3.164
36.26000 4.874
36.28000 -0.210
36.30000 2.584
36.32000 3.746
36.34000 2.150
36.36000 5.927
36.38000 2.436
36.40000 3.215
36.42000 2.246
36.44000 1.284
36.46000 2.056
36.48000 -0.176
36.50000 -1.033
36.52000 7.751
36.54000 8.886
36.56000 1.022
36.58000 4.961
36.60000 7.906
36.62000 5.195
36.64000 4.243
36.66000 -1.367
36.68000 7.061
36.70000 5.733
36.72000 6.240
36.74000 -0.690
36.76000 5.380
36.78000 3.616
36.80000 5.808
36.82000 5.550
36.84000 6.993
36.86000 9.835
36.88000 9.791
36.90000 11.210
36.92000 7.767
36.94000 7.613
36.96000 10.065
36.98000 12.238
37.00000 12.697
37.02000 8.742
37.04000 7.328
37.06000 12.072
37.08000 21.075
37.10000 10.916
37.12000 9.564
37.14000 5.582
37.16000 11.100
37.18000 13.432
37.20000 15.779
37.22000 14.608
37.24000 16.445
37.26000 13.778
37.28000 18.055
37.30000 19.420
37.32000 17.747
37.34000 14.084
37.36000 13.761
37.38000 17.985
37.40000 23.048
37.42000 21.814
37.44000 27.500
37.46000 23.626
37.48000 17.549
37.50000 21.782
37.52000 21.702
37.54000 20.973
37.56000 23.728
37.58000 23.420
37.60000 25.320
37.62000 26.612
37.64000 30.569
37.66000 27.122
37.68000 33.826
37.70000 35.819
37.72000 33.230
37.74000 33.014
37.76000 34.321
37.78000 32.351
37.80000 39.652
37.82000 39.711
37.84000 37.478
37.86000 40.307
37.88000 44.605
37.90000 49.011
37.92000 42.390
37.94000 41.765
37.96000 39.087
37.98000 44.083
38.00000 47.600
38.02000 47.549
38.04000 54.442
38.06000 51.856
38.08000 53.016
38.10000 59.880
38.12000 66.131
38.14000 66.014
38.16000 65.985
38.18000 71.223
38.20000 73.958
38.22000 72.741
38.24000 78.523
38.26000 80.159
38.28000 80.989
38.30000 87.755
38.32000 85.488
38.34000 93.507
38.36000 105.038
38.38000 108.676
38.40000 115.789
38.42000 116.176
38.44000 120.853
38.46000 135.471
38.48000 146.157
38.50000 149.498
38.52000 156.936
38.54000 166.301
38.56000 176.043
38.58000 185.359
38.60000 193.847
38.62000 197.912
38.64000 214.472
38.66000 233.725
38.68000 244.791
38.70000 254.735
38.72000 263.048
38.74000 264.324
38.76000 274.700
38.78000 291.427
38.80000 302.378
38.82000 303.497
38.84000 316.243
38.86000 320.595
38.88000 316.165
38.90000 314.350
38.92000 319.560
38.94000 313.230
38.96000 306.390
38.98000 297.519
39.00000 294.583
39.02000 287.881
39.04000 283.536
39.06000 277.954
39.08000 273.183
39.10000 260.908
39.12000 249.569
39.14000 243.041
39.16000 224.908
39.18000 215.729
39.20000 208.467
39.22000 197.719
39.24000 185.319
39.26000 174.479
39.28000 160.254
39.30000 148.208
39.32000 140.977
39.34000 141.564
39.36000 135.814
39.38000 128.215
39.40000 115.516
39.42000 107.262
39.44000 102.657
39.46000 100.565
39.48000 96.718
39.50000 93.764
39.52000 89.721
39.54000 78.925
39.56000 72.641
39.58000 72.720
39.60000 73.814
39.62000 70.264
39.64000 65.432
39.66000 57.229
39.68000 55.544
39.70000 53.915
39.72000 54.745
39.74000 49.203
39.76000 44.045
39.78000 36.579
39.80000 38.792
39.82000 42.932
39.84000 38.414
39.86000 35.600
39.88000 34.397
39.90000 37.047
39.92000 37.743
39.94000 39.069
39.96000 32.568
39.98000 29.016
40.00000 26.862
40.02000 26.299
40.04000 23.047
40.06000 24.984
40.08000 21.647
40.10000 22.087
40.12000 19.153
40.14000 20.757
40.16000 25.643
40.18000 27.515
40.20000 23.853
40.22000 14.560
40.24000 17.398
40.26000 20.385
40.28000 19.549
40.30000 15.541
40.32000 18.881
40.34000 14.871
40.36000 15.474
40.38000 17.688
40.40000 19.710
40.42000 15.373
40.44000 14.948
40.46000 17.248
40.48000 12.852
40.50000 11.878
40.52000 14.463
40.54000 12.853
40.56000 12.139
40.58000 10.947
40.60000 16.415
40.62000 12.937
40.64000 9.565
40.66000 7.415
40.68000 7.915
40.70000 11.757
40.72000 8.017
40.74000 6.016
40.76000 6.881
40.78000 6.374
40.80000 7.443
40.82000 8.929
40.84000 4.767
40.86000 3.244
40.88000 3.137
40.90000 3.903
40.92000 2.164
40.94000 6.210
40.96000 5.382
40.98000 6.213
41.00000 8.703
41.02000 7.198
41.04000 6.436
41.06000 4.821
41.08000 4.060
41.10000 7.029
41.12000 8.280
41.14000 7.372
41.16000 4.045
41.18000 1.340
41.20000 1.373
41.22000 3.237
41.24000 0.460
41.26000 6.746
41.28000 10.292
41.30000 7.303
41.32000 5.189
41.34000 4.856
41.36000 3.869
41.38000 1.207
41.40000 4.076
41.42000 6.611
41.44000 5.107
41.46000 4.089
41.48000 7.702
41.50000 8.005
41.52000 2.947
41.54000 -0.802
41.56000 0.692
41.58000 2.073
41.60000 2.022
41.62000 0.183
41.64000 3.016
41.66000 3.410
41.68000 5.289
41.70000 3.586
41.72000 4.727
41.74000 3.630
41.76000 1.688
41.78000 4.345
41.80000 3.676
41.82000 2.202
41.84000 0.326
41.86000 0.387
41.88000 2.939
41.90000 2.664
41.92000 3.255
41.94000 0.279
41.96000 3.462
41.98000 4.011
42.00000 1.534
42.02000 0.314
42.04000 2.974
42.06000 7.118
42.08000 7.597
42.10000 6.479
42.12000 6.951
42.14000 8.956
42.16000 5.232
42.18000 3.751
42.20000 5.355
42.22000 7.183
42.24000 2.798
42.26000 -0.093
42.28000 3.296
42.30000 3.138
42.32000 2.193
42.34000 2.839
42.36000 5.563
42.38000 5.628
42.40000 -0.248
42.42000 -3.338
42.44000 -0.159
42.46000 1.692
42.48000 6.806
42.50000 5.671
42.52000 8.845
42.54000 4.186
42.56000 5.017
42.58000 4.277
42.60000 4.272
42.62000 0.904
42.64000 -1.902
42.66000 1.650
42.68000 2.447
42.70000 4.756
42.72000 7.236
42.74000 6.440
42.76000 3.952
42.78000 1.980
42.80000 4.003
42.82000 1.882
42.84000 1.821
42.86000 1.097
42.88000 2.729
42.90000 4.312
42.92000 4.233
42.94000 4.167
42.96000 0.999
42.98000 5.417
43.00000 4.865
43.02000 4.601
43.04000 1.299
43.06000 0.662
43.08000 -2.499
43.10000 -0.554
43.12000 2.171
43.14000 0.545
43.16000 -1.763
43.18000 -0.161
43.20000 0.772
43.22000 4.837
43.24000 4.737
43.26000 4.135
43.28000 1.161
43.30000 0.031
43.32000 3.878
43.34000 4.348
43.36000 3.219
43.38000 1.925
43.40000 1.747
43.42000 1.755
43.44000 0.831
43.46000 -3.296
43.48000 -1.576
43.50000 1.754
43.52000 -0.342
43.54000 -0.657
43.56000 -2.796
43.58000 -2.183
43.60000 1.518
43.62000 1.188
43.64000 1.214
43.66000 0.568
43.68000 0.443
43.70000 -2.624
43.72000 0.685
43.74000 0.209
43.76000 -2.119
43.78000 2.023
43.80000 6.969
43.82000 2.674
43.84000 2.790
43.86000 2.238
43.88000 1.575
43.90000 2.892
43.92000 2.107
43.94000 6.176
43.96000 4.007
43.98000 4.891
44.00000 5.819
44.02000 5.814
44.04000 7.539
44.06000 6.506
44.08000 2.618
44.10000 5.068
44.12000 9.596
44.14000 8.325
44.16000 11.669
44.18000 9.726
44.20000 6.428
44.22000 6.917
44.24000 7.525
44.26000 12.081
44.28000 8.503
44.30000 6.624
44.32000 8.056
44.34000 10.947
44.36000 10.199
44.38000 11.807
44.40000 11.411
44.42000 14.093
44.44000 11.359
44.46000 14.558
44.48000 16.405
44.50000 16.953
44.52000 17.067
44.54000 18.127
44.56000 23.602
44.58000 23.438
44.60000 26.979
44.62000 28.531
44.64000 29.219
44.66000 31.599
44.68000 31.771
44.70000 31.408
44.72000 34.796
44.74000 38.669
44.76000 38.258
44.78000 40.526
44.80000 47.307
44.82000 51.002
44.84000 49.534
44.86000 46.973
44.88000 55.278
44.90000 57.645
44.92000 62.342
44.94000 65.573
44.96000 67.922
44.98000 69.422
45.00000 76.329
45.02000 82.183
45.04000 87.278
45.06000 91.166
45.08000 93.417
45.10000 94.245
45.12000 98.598
45.14000 105.133
45.16000 113.929
45.18000 115.020
45.20000 114.708
45.22000 117.064
45.24000 114.000
45.26000 109.919
45.28000 119.193
45.30000 126.493
45.32000 125.689
45.34000 125.387
45.36000 125.353
45.38000 123.703
45.40000 125.575
45.42000 120.802
45.44000 114.646
45.46000 114.358
45.48000 116.288
45.50000 109.312
45.52000 106.110
45.54000 101.820
45.56000 98.458
45.58000 93.691
45.60000 92.859
45.62000 96.834
45.64000 92.574
45.66000 83.973
45.68000 83.895
45.70000 80.468
45.72000 73.070
45.74000 66.730
45.76000 67.497
45.78000 68.461
45.80000 60.597
45.82000 53.279
45.84000 54.460
45.86000 56.191
45.88000 46.995
45.90000 43.973
45.92000 44.278
45.94000 40.564
45.96000 35.678
45.98000 32.177
46.00000 28.554
46.02000 30.444
46.04000 32.136
46.06000 30.043
46.08000 24.983
46.10000 19.722
46.12000 19.917
46.14000 20.265
46.16000 21.511
46.18000 21.223
46.20000 20.612
46.22000 14.296
46.24000 10.506
46.26000 10.847
46.28000 7.260
46.30000 4.719
46.32000 6.967
46.34000 4.674
46.36000 5.946
46.38000 9.835
46.40000 8.097
46.42000 5.017
46.44000 6.527
46.46000 1.549
46.48000 4.671
46.50000 8.427
46.52000 10.417
46.54000 8.312
46.56000 5.757
46.58000 3.025
46.60000 -0.489
46.62000 4.054
46.64000 6.077
46.66000 4.151
46.68000 -3.005
46.70000 -2.538
46.72000 -0.975
46.74000 0.412
46.76000 3.136
46.78000 4.493
46.80000 2.587
46.82000 -1.154
46.84000 0.139
46.86000 0.885
46.88000 0.232
46.90000 -1.383
46.92000 2.250
46.94000 2.915
46.96000 5.378
46.98000 5.857
47.00000 3.401
47.02000 2.077
47.04000 -0.704
47.06000 0.736
47.08000 1.240
47.10000 2.707
47.12000 -2.867
47.14000 1.128
47.16000 -0.128
47.18000 2.231
47.20000 -1.699
47.22000 -2.659
47.24000 3.897
47.26000 2.689
47.28000 0.293
47.30000 0.499
47.32000 -0.107
47.34000 4.155
47.36000 3.498
47.38000 1.190
47.40000 -0.741
47.42000 -2.881
47.44000 1.687
47.46000 6.964
47.48000 2.899
47.50000 -2.869
47.52000 -0.663
47.54000 1.919
47.56000 2.007
47.58000 7.600
47.60000 3.954
47.62000 1.190
47.64000 2.844
47.66000 1.372
47.68000 -1.864
47.70000 1.289
47.72000 3.651
47.74000 4.145
47.76000 1.930
47.78000 1.946
47.80000 3.711
47.82000 3.527
47.84000 1.820
47.86000 3.389
47.88000 4.636
47.90000 6.187
47.92000 3.988
47.94000 4.648
47.96000 2.343
47.98000 5.137
48.00000 3.968
48.02000 3.091
48.04000 -0.723
48.06000 0.865
48.08000 -0.777
48.10000 -0.136
48.12000 -1.809
48.14000 -0.919
48.16000 0.759
48.18000 -0.112
48.20000 3.967
48.22000 3.516
48.24000 2.534
48.26000 2.645
48.28000 1.070
48.30000 2.949
48.32000 -0.643
48.34000 0.183
48.36000 -0.105
48.38000 2.018
48.40000 5.622
48.42000 4.640
48.44000 3.729
48.46000 3.196
48.48000 3.513
48.50000 2.264
48.52000 -0.186
48.54000 2.491
48.56000 6.583
48.58000 3.295
48.60000 1.319
48.62000 2.926
48.64000 1.508
48.66000 -0.365
48.68000 2.409
48.70000 4.275
48.72000 4.285
48.74000 0.070
48.76000 -2.730
48.78000 2.653
48.80000 4.287
48.82000 1.640
48.84000 -0.262
48.86000 4.633
48.88000 3.115
48.90000 2.927
48.92000 2.539
48.94000 0.597
48.96000 1.440
48.98000 1.427
49.00000 6.982
49.02000 3.355
49.04000 3.523
49.06000 4.296
49.08000 -2.283
49.10000 -1.211
49.12000 4.242
49.14000 5.058
49.16000 3.333
49.18000 4.803
49.20000 5.145
49.22000 6.640
49.24000 5.751
49.26000 6.062
49.28000 7.214
49.30000 6.643
49.32000 1.742
49.34000 2.651
49.36000 0.467
49.38000 0.571
49.40000 0.768
49.42000 3.186
49.44000 2.003
49.46000 1.218
49.48000 3.079
49.50000 2.802
49.52000 3.001
49.54000 3.760
49.56000 -0.021
49.58000 3.071
49.60000 4.900
49.62000 2.234
49.64000 0.349
49.66000 4.775
49.68000 6.614
49.70000 5.841
49.72000 2.245
49.74000 3.661
49.76000 2.358
49.78000 0.629
49.80000 1.041
49.82000 6.191
49.84000 4.950
49.86000 2.266
49.88000 4.114
49.90000 5.431
49.92000 4.222
49.94000 6.206
49.96000 7.705
49.98000 6.577
50.00000 7.198
50.02000 5.943
50.04000 6.221
50.06000 4.707
50.08000 7.312
50.10000 9.469
50.12000 7.208
50.14000 1.665
50.16000 3.965
50.18000 2.737
50.20000 1.597
50.22000 3.377
50.24000 1.013
50.26000 -2.193
50.28000 -2.667
50.30000 0.683
50.32000 1.004
50.34000 2.837
50.36000 3.114
50.38000 5.064
50.40000 2.996
50.42000 4.334
50.44000 4.364
50.46000 3.827
50.48000 4.228
50.50000 6.155
50.52000 7.200
50.54000 5.151
50.56000 3.844
50.58000 2.529
50.60000 2.453
50.62000 3.035
50.64000 2.601
50.66000 1.518
50.68000 -1.017
50.70000 1.946
50.72000 -2.651
50.74000 1.837
50.76000 4.707
50.78000 1.947
50.80000 5.219
50.82000 1.629
50.84000 1.550
50.86000 5.193
50.88000 4.384
50.90000 1.650
50.92000 -1.944
50.94000 1.616
50.96000 3.669
50.98000 5.303
51.00000 2.382
51.02000 3.420
51.04000 2.599
51.06000 2.126
51.08000 6.249
51.10000 4.552
51.12000 1.277
51.14000 4.562
51.16000 6.894
51.18000 3.350
51.20000 -1.033
51.22000 1.317
51.24000 0.131
51.26000 0.869
51.28000 -2.281
51.30000 -2.622
51.32000 -1.370
51.34000 -1.564
51.36000 -0.710
51.38000 -2.010
51.40000 1.342
51.42000 2.646
51.44000 3.167
51.46000 1.659
51.48000 5.426
51.50000 4.917
51.52000 -0.091
51.54000 -2.647
51.56000 3.289
51.58000 4.762
51.60000 -0.410
51.62000 -2.647
51.64000 -2.000
51.66000 -0.469
51.68000 2.271
51.70000 -1.166
51.72000 -0.429
51.74000 -0.150
51.76000 1.770
51.78000 2.822
51.80000 2.128
51.82000 -1.669
51.84000 1.211
51.86000 4.372
51.88000 3.580
51.90000 2.492
51.92000 1.841
51.94000 1.988
51.96000 3.312
51.98000 1.753
52.00000 1.649
52.02000 5.010
52.04000 6.030
52.06000 2.658
52.08000 4.221
52.10000 5.881
52.12000 2.385
52.14000 5.138
52.16000 2.873
52.18000 0.822
52.20000 4.216
52.22000 4.406
52.24000 3.079
52.26000 3.512
52.28000 -1.359
52.30000 -1.660
52.32000 -0.568
52.34000 4.478
52.36000 1.752
52.38000 6.461
52.40000 1.769
52.42000 4.372
52.44000 2.653
52.46000 -0.062
52.48000 0.177
52.50000 4.081
52.52000 0.515
52.54000 0.767
52.56000 2.320
52.58000 1.634
52.60000 -0.253
52.62000 1.488
52.64000 -2.639
52.66000 2.220
52.68000 0.985
52.70000 1.239
52.72000 2.276
52.74000 0.939
52.76000 -0.937
52.78000 -1.422
52.80000 -0.016
52.82000 0.750
52.84000 2.941
52.86000 1.673
52.88000 2.703
52.90000 4.613
52.92000 3.543
52.94000 4.312
52.96000 2.863
52.98000 -0.194
53.00000 -0.647
53.02000 0.004
53.04000 0.254
53.06000 -0.077
53.08000 -2.632
53.10000 -1.001
53.12000 1.621
53.14000 0.202
53.16000 0.123
53.18000 2.758
53.20000 0.766
53.22000 -1.115
53.24000 4.908
53.26000 2.345
53.28000 3.703
53.30000 3.986
53.32000 5.436
53.34000 5.118
53.36000 4.391
53.38000 4.287
53.40000 2.831
53.42000 1.033
53.44000 2.339
53.46000 4.106
53.48000 3.200
53.50000 2.823
53.52000 4.022
53.54000 2.063
53.56000 3.295
53.58000 2.648
53.60000 3.306
53.62000 -0.883
53.64000 -1.678
53.66000 -1.059
53.68000 1.451
53.70000 1.495
53.72000 1.246
53.74000 2.922
53.76000 -2.608
53.78000 1.013
53.80000 0.506
53.82000 3.050
53.84000 4.176
53.86000 4.099
53.88000 5.667
53.90000 4.622
53.92000 1.545
53.94000 0.275
53.96000 0.059
53.98000 1.477
54.00000 2.176
54.02000 5.196
54.04000 6.159
54.06000 9.880
54.08000 9.385
54.10000 9.670
54.12000 5.379
54.14000 -2.384
54.16000 0.974
54.18000 2.745
54.20000 1.553
54.22000 2.104
54.24000 3.906
54.26000 5.109
54.28000 6.047
54.30000 1.957
54.32000 -2.576
54.34000 -2.059
54.36000 -1.874
54.38000 -1.750
54.40000 3.600
54.42000 8.882
54.44000 6.034
54.46000 3.851
54.48000 4.533
54.50000 7.895
54.52000 5.460
54.54000 0.802
54.56000 -1.117
54.58000 5.727
54.60000 7.140
54.62000 6.485
54.64000 7.255
54.66000 4.841
54.68000 1.395
54.70000 2.407
54.72000 1.681
54.74000 5.444
54.76000 6.689
54.78000 6.290
54.80000 3.464
54.82000 4.328
54.84000 6.515
54.86000 2.084
54.88000 2.019
54.90000 4.100
54.92000 2.294
54.94000 0.177
54.96000 -0.164
54.98000 2.818
55.00000 5.501
55.02000 5.544
55.04000 6.884
55.06000 4.621
55.08000 4.268
55.10000 3.322
55.12000 -1.120
55.14000 0.781
55.16000 1.862
55.18000 4.344
55.20000 3.571
55.22000 1.751
55.24000 5.381
55.26000 4.029
55.28000 3.903
55.30000 6.445
55.32000 4.499
55.34000 5.692
55.36000 2.684
55.38000 1.180
55.40000 0.721
55.42000 2.779
55.44000 2.686
55.46000 1.760
55.48000 1.315
55.50000 0.420
55.52000 2.532
55.54000 1.857
55.56000 4.893
55.58000 2.157
55.60000 -0.905
55.62000 1.328
55.64000 2.556
55.66000 6.565
55.68000 6.550
55.70000 0.835
55.72000 0.730
55.74000 2.701
55.76000 0.253
55.78000 -0.085
55.80000 0.499
55.82000 3.495
55.84000 3.404
55.86000 3.575
55.88000 9.821
55.90000 7.736
55.92000 8.311
55.94000 5.356
55.96000 3.688
55.98000 0.514
56.00000 -2.499
56.02000 2.690
56.04000 6.308
56.06000 8.029
56.08000 4.108
56.10000 1.046
56.12000 4.594
56.14000 4.509
56.16000 3.772
56.18000 3.544
56.20000 4.696
56.22000 4.468
56.24000 1.654
56.26000 4.887
56.28000 6.204
56.30000 6.773
56.32000 7.649
56.34000 6.986
56.36000 5.537
56.38000 7.021
56.40000 4.238
56.42000 1.718
56.44000 2.515
56.46000 3.856
56.48000 4.838
56.50000 3.017
56.52000 4.260
56.54000 9.773
56.56000 10.191
56.58000 4.489
56.60000 -1.648
56.62000 -0.942
56.64000 -2.499
56.66000 -0.061
56.68000 4.994
56.70000 3.537
56.72000 3.929
56.74000 2.755
56.76000 5.200
56.78000 2.570
56.80000 4.697
56.82000 3.994
56.84000 2.963
56.86000 1.399
56.88000 5.579
56.90000 8.252
56.92000 5.153
56.94000 0.673
56.96000 2.919
56.98000 7.545
57.00000 0.871
57.02000 4.098
57.04000 4.667
57.06000 5.036
57.08000 6.363
57.10000 4.495
57.12000 3.602
57.14000 2.834
57.16000 0.331
57.18000 0.512
57.20000 -1.355
57.22000 0.622
57.24000 4.146
57.26000 5.213
57.28000 3.774
57.30000 2.959
57.32000 0.302
57.34000 2.674
57.36000 1.635
57.38000 -0.425
57.40000 3.756
57.42000 4.630
57.44000 4.348
57.46000 4.283
57.48000 0.870
57.50000 5.535
57.52000 3.328
57.54000 -0.688
57.56000 2.406
57.58000 0.993
57.60000 3.985
57.62000 3.215
57.64000 1.726
57.66000 5.409
57.68000 4.258
57.70000 3.878
57.72000 1.210
57.74000 -0.396
57.76000 0.888
57.78000 1.204
57.80000 -1.445
57.82000 0.122
57.84000 1.201
57.86000 2.811
57.88000 0.858
57.90000 -0.682
57.92000 1.880
57.94000 3.653
57.96000 3.714
57.98000 5.481
58.00000 4.570
58.02000 2.314
58.04000 3.100
58.06000 1.789
58.08000 0.147
58.10000 2.193
58.12000 1.857
58.14000 -0.838
58.16000 -0.962
58.18000 3.128
58.20000 3.830
58.22000 1.728
58.24000 0.887
58.26000 1.955
58.28000 2.020
58.30000 3.347
58.32000 2.112
58.34000 -0.770
58.36000 3.392
58.38000 2.510
58.40000 0.319
58.42000 -2.473
58.44000 -2.318
58.46000 1.812
58.48000 3.675
58.50000 1.483
58.52000 0.675
58.54000 -2.051
58.56000 -1.698
58.58000 2.399
58.60000 6.384
58.62000 5.281
58.64000 2.666
58.66000 3.630
58.68000 2.269
58.70000 1.871
58.72000 0.213
58.74000 5.503
58.76000 2.992
58.78000 3.854
58.80000 5.040
58.82000 2.668
58.84000 2.073
58.86000 3.155
58.88000 0.554
58.90000 4.497
58.92000 2.238
58.94000 0.070
58.96000 4.252
58.98000 5.271
59.00000 2.934
59.02000 0.485
59.04000 0.622
59.06000 3.077
59.08000 5.286
59.10000 2.147
59.12000 1.946
59.14000 1.107
59.16000 0.918
59.18000 3.503
59.20000 3.628
59.22000 0.898
59.24000 -2.183
59.26000 -2.427
59.28000 0.810
59.30000 3.241
59.32000 2.005
59.34000 4.830
59.36000 3.008
59.38000 2.306
59.40000 -0.229
59.42000 1.489
59.44000 1.433
59.46000 4.266
59.48000 3.100
59.50000 2.921
59.52000 7.330
59.54000 5.167
59.56000 6.208
59.58000 3.264
59.60000 1.581
59.62000 2.262
59.64000 1.912
59.66000 2.618
59.68000 2.738
59.70000 2.148
59.72000 5.577
59.74000 4.508
59.76000 2.926
59.78000 1.471
59.80000 3.145
59.82000 2.191
59.84000 2.272
59.86000 1.770
59.88000 4.768
59.90000 1.858
59.92000 1.872
59.94000 4.998
59.96000 5.203
59.98000 2.172
60.00000 3.777
60.02000 3.712
60.04000 3.904
60.06000 4.887
60.08000 6.586
60.10000 5.207
60.12000 5.374
60.14000 7.147
60.16000 8.093
60.18000 2.184
60.20000 -2.365
60.22000 1.779
60.24000 6.817
60.26000 4.938
60.28000 3.901
60.30000 4.685
60.32000 2.503
60.34000 3.725
60.36000 1.746
60.38000 4.547
60.40000 4.662
60.42000 4.034
60.44000 3.472
60.46000 3.995
60.48000 3.075
60.50000 1.822
60.52000 4.574
60.54000 3.387
60.56000 5.282
60.58000 8.672
60.60000 5.899
60.62000 5.977
60.64000 2.972
60.66000 2.817
60.68000 5.491
60.70000 3.435
60.72000 -0.927
60.74000 -1.361
60.76000 3.684
60.78000 3.001
60.80000 -0.049
60.82000 1.326
60.84000 -0.304
60.86000 0.846
60.88000 5.211
60.90000 4.736
60.92000 4.011
60.94000 1.912
60.96000 4.883
60.98000 2.491
61.00000 4.092
61.02000 4.973
61.04000 3.418
61.06000 0.926
61.08000 4.205
61.10000 3.075
61.12000 0.593
61.14000 5.629
61.16000 6.145
61.18000 8.244
61.20000 4.114
61.22000 4.703
61.24000 8.671
61.26000 3.741
61.28000 5.387
61.30000 3.256
61.32000 -2.341
61.34000 2.052
61.36000 2.714
61.38000 2.820
61.40000 2.133
61.42000 3.520
61.44000 6.701
61.46000 3.546
61.48000 1.392
61.50000 2.130
61.52000 3.931
61.54000 1.310
61.56000 4.664
61.58000 4.421
61.60000 3.346
61.62000 0.022
61.64000 3.764
61.66000 3.950
61.68000 5.513
61.70000 2.204
61.72000 3.532
61.74000 0.076
61.76000 0.042
61.78000 0.530
61.80000 2.255
61.82000 -0.544
61.84000 -0.257
61.86000 -0.126
61.88000 0.149
61.90000 1.915
61.92000 2.902
61.94000 2.509
61.96000 -0.204
61.98000 0.873
62.00000 2.035
62.02000 1.196
62.04000 1.140
62.06000 5.826
62.08000 3.781
62.10000 2.765
62.12000 2.656
62.14000 0.516
62.16000 2.104
62.18000 4.288
62.20000 0.201
62.22000 0.790
62.24000 0.542
62.26000 -0.482
62.28000 3.491
62.30000 3.221
62.32000 -2.330
62.34000 4.593
62.36000 7.364
62.38000 5.113
62.40000 2.850
62.42000 3.723
62.44000 2.258
62.46000 3.935
62.48000 3.818
62.50000 1.627
62.52000 3.796
62.54000 7.760
62.56000 5.337
62.58000 4.759
62.60000 4.713
62.62000 4.004
62.64000 3.329
62.66000 4.032
62.68000 1.706
62.70000 2.915
62.72000 3.672
62.74000 1.328
62.76000 5.323
62.78000 5.052
62.80000 2.849
62.82000 2.381
62.84000 3.481
62.86000 5.144
62.88000 2.844
62.90000 0.995
62.92000 -1.486
62.94000 -2.322
62.96000 -1.106
62.98000 3.084
63.00000 4.709
63.02000 3.771
63.04000 2.541
63.06000 1.108
63.08000 1.907
63.10000 2.062
63.12000 4.631
63.14000 2.838
63.16000 1.681
63.18000 -1.717
63.20000 2.290
63.22000 3.712
63.24000 5.500
63.26000 4.822
63.28000 2.900
63.30000 1.531
63.32000 4.885
63.34000 2.659
63.36000 1.881
63.38000 -1.142
63.40000 1.545
63.42000 1.829
63.44000 0.368
63.46000 2.524
63.48000 3.406
63.50000 1.529
63.52000 0.487
63.54000 1.592
63.56000 1.862
63.58000 2.918
63.60000 3.140
63.62000 -0.636
63.64000 0.470
63.66000 1.868
63.68000 2.566
63.70000 2.896
63.72000 2.055
63.74000 1.948
63.76000 0.946
63.78000 2.068
63.80000 3.533
63.82000 1.542
63.84000 0.617
63.86000 0.222
63.88000 2.379
63.90000 0.516
63.92000 0.984
63.94000 4.462
63.96000 2.018
63.98000 4.012
64.00000 5.361
64.02000 4.407
64.04000 3.296
64.06000 1.768
64.08000 1.053
64.10000 -2.314
64.12000 -0.831
64.14000 0.824
64.16000 -2.260
64.18000 -1.469
64.20000 2.056
64.22000 3.897
64.24000 2.544
64.26000 2.602
64.28000 2.045
64.30000 1.083
64.32000 -0.040
64.34000 -0.171
64.36000 1.572
64.38000 4.654
64.40000 1.181
64.42000 3.539
64.44000 3.362
64.46000 2.945
64.48000 5.266
64.50000 5.373
64.52000 2.457
64.54000 0.972
64.56000 1.660
64.58000 1.848
64.60000 0.656
64.62000 3.423
64.64000 2.639
64.66000 1.596
64.68000 1.465
64.70000 2.863
64.72000 3.322
64.74000 0.626
64.76000 -0.667
64.78000 -1.567
64.80000 0.634
64.82000 1.979
64.84000 0.010
64.86000 0.678
64.88000 0.995
64.90000 2.590
64.92000 -0.178
64.94000 0.640
64.96000 1.397
64.98000 4.460
65.00000 3.908
65.02000 1.209
65.04000 -1.847
65.06000 -1.345
65.08000 2.181
65.10000 1.846
65.12000 1.456
65.14000 2.905
65.16000 6.819
65.18000 3.729
65.20000 1.208
65.22000 2.625
65.24000 3.483
65.26000 3.539
65.28000 3.295
65.30000 0.354
65.32000 1.051
65.34000 1.820
65.36000 -2.244
65.38000 2.823
65.40000 6.454
65.42000 7.474
65.44000 4.983
65.46000 1.627
65.48000 3.212
65.50000 5.839
65.52000 1.670
65.54000 0.228
65.56000 4.437
65.58000 6.859
65.60000 5.637
65.62000 4.482
65.64000 3.030
65.66000 4.341
65.68000 5.054
65.70000 2.290
65.72000 5.645
65.74000 8.150
65.76000 8.430
65.78000 6.748
65.80000 9.750
65.82000 6.598
65.84000 9.522
65.86000 11.300
65.88000 8.527
65.90000 4.518
65.92000 7.243
65.94000 10.351
65.96000 9.223
65.98000 6.917
66.00000 5.918
66.02000 9.128
66.04000 8.520
66.06000 6.398
66.08000 8.846
66.10000 7.744
66.12000 8.486
66.14000 6.540
66.16000 5.799
66.18000 4.305
66.20000 4.583
66.22000 5.157
66.24000 7.262
66.26000 7.455
66.28000 4.361
66.30000 7.797
66.32000 10.636
66.34000 10.217
66.36000 6.990
66.38000 3.555
66.40000 4.892
66.42000 5.800
66.44000 5.451
66.46000 4.623
66.48000 4.179
66.50000 5.771
66.52000 5.626
66.54000 3.284
66.56000 2.201
66.58000 4.354
66.60000 3.608
66.62000 1.319
66.64000 -0.959
66.66000 2.309
66.68000 3.691
66.70000 3.729
66.72000 2.892
66.74000 1.875
66.76000 1.493
66.78000 5.369
66.80000 5.066
66.82000 5.343
66.84000 1.833
66.86000 -2.292
66.88000 -0.895
66.90000 -0.943
66.92000 -0.125
66.94000 1.458
66.96000 0.905
66.98000 3.618
67.00000 3.943
67.02000 2.087
67.04000 -0.729
67.06000 -0.252
67.08000 -0.655
67.10000 1.272
67.12000 1.737
67.14000 0.803
67.16000 1.787
67.18000 2.623
67.20000 1.954
67.22000 1.983
67.24000 0.516
67.26000 -0.147
67.28000 1.076
67.30000 0.273
67.32000 0.507
67.34000 1.649
67.36000 1.848
67.38000 -0.202
67.40000 2.728
67.42000 4.652
67.44000 3.754
67.46000 -2.253
67.48000 -2.085
67.50000 -0.970
67.52000 0.012
67.54000 -0.566
67.56000 -1.396
67.58000 -1.273
67.60000 2.817
67.62000 4.742
67.64000 1.542
67.66000 0.139
67.68000 -1.051
67.70000 1.126
67.72000 0.343
67.74000 0.855
67.76000 0.721
67.78000 1.996
67.80000 0.909
67.82000 -0.621
67.84000 -0.206
67.86000 -0.804
67.88000 -0.524
67.90000 1.561
67.92000 -0.470
67.94000 -2.205
67.96000 0.157
67.98000 0.413
68.00000 1.497
68.02000 2.704
68.04000 0.435
68.06000 1.378
68.08000 5.666
68.10000 2.839
68.12000 0.759
68.14000 1.379
68.16000 -1.009
68.18000 1.430
68.20000 1.309
68.22000 -0.066
68.24000 2.114
68.26000 3.482
68.28000 4.086
68.30000 4.119
68.32000 3.781
68.34000 2.592
68.36000 3.553
68.38000 2.514
68.40000 1.942
68.42000 4.699
68.44000 1.998
68.46000 1.286
68.48000 0.354
68.50000 2.356
68.52000 1.056
68.54000 1.595
68.56000 3.892
68.58000 0.853
68.60000 -0.288
68.62000 3.113
68.64000 3.217
68.66000 0.625
68.68000 1.332
68.70000 2.701
68.72000 -0.321
68.74000 -2.194
68.76000 0.365
68.78000 1.191
68.80000 3.284
68.82000 2.487
68.84000 2.980
68.86000 2.000
68.88000 2.580
68.90000 1.235
68.92000 1.071
68.94000 3.413
68.96000 0.898
68.98000 -0.864
69.00000 1.172
69.02000 1.076
69.04000 2.099
69.06000 1.701
69.08000 1.393
69.10000 0.665
69.12000 1.598
69.14000 -1.966
69.16000 0.844
69.18000 0.607
69.20000 0.795
69.22000 -0.991
69.24000 2.499
69.26000 3.135
69.28000 3.408
69.30000 0.928
69.32000 -0.740
69.34000 -2.165
69.36000 2.106
69.38000 3.369
69.40000 1.770
69.42000 2.003
69.44000 3.346
69.46000 4.181
69.48000 1.649
69.50000 1.069
69.52000 1.854
69.54000 -0.252
69.56000 1.217
69.58000 0.691
69.60000 1.991
69.62000 4.881
69.64000 5.247
69.66000 5.731
69.68000 4.189
69.70000 0.053
69.72000 1.273
69.74000 2.138
69.76000 1.617
69.78000 -0.433
69.80000 0.576
69.82000 -0.342
69.84000 -2.139
69.86000 2.736
69.88000 2.330
69.90000 3.163
69.92000 3.260
69.94000 3.266
69.96000 3.014
69.98000 0.667
70.00000 3.479
70.02000 2.263
70.04000 1.270
70.06000 2.455
70.08000 2.094
70.10000 0.857
70.12000 -0.209
70.14000 1.442
70.16000 5.101
70.18000 2.089
70.20000 2.980
70.22000 -0.921
70.24000 -2.137
70.26000 3.777
70.28000 2.457
70.30000 4.401
70.32000 4.853
70.34000 3.133
70.36000 2.142
70.38000 5.391
70.40000 2.742
70.42000 1.507
70.44000 3.478
70.46000 2.087
70.48000 1.540
70.50000 -0.253
70.52000 -1.750
70.54000 1.551
70.56000 1.970
70.58000 -0.129
70.60000 0.391
70.62000 1.408
70.64000 1.072
70.66000 -0.222
70.68000 0.089
70.70000 0.987
70.72000 -0.163
70.74000 3.009
70.76000 3.583
70.78000 0.338
70.80000 0.780
70.82000 1.203
70.84000 0.622
70.86000 0.191
70.88000 0.959
70.90000 1.193
70.92000 1.321
70.94000 -1.241
70.96000 1.996
70.98000 3.161
71.00000 1.222
71.02000 0.146
71.04000 3.098
71.06000 1.048
71.08000 2.594
71.10000 2.729
71.12000 1.268
71.14000 -0.728
71.16000 -1.494
71.18000 -0.654
71.20000 -0.234
71.22000 2.114
71.24000 2.549
71.26000 0.590
71.28000 3.171
71.30000 5.947
71.32000 1.338
71.34000 -0.032
71.36000 3.024
71.38000 3.247
71.40000 1.772
71.42000 0.342
71.44000 0.516
71.46000 0.084
71.48000 -1.314
71.50000 1.042
71.52000 4.317
71.54000 3.156
71.56000 2.451
71.58000 3.669
71.60000 1.239
71.62000 1.830
71.64000 4.843
71.66000 2.851
71.68000 3.092
71.70000 -1.405
71.72000 -1.750
71.74000 -1.020
71.76000 0.699
71.78000 -2.086
71.80000 1.995
71.82000 3.966
71.84000 -1.672
71.86000 -0.055
71.88000 2.215
71.90000 4.272
71.92000 4.909
71.94000 2.894
71.96000 0.455
71.98000 1.192
72.00000 2.315
72.02000 0.903
72.04000 4.382
72.06000 3.237
72.08000 0.845
72.10000 1.907
72.12000 1.535
72.14000 2.594
72.16000 1.684
72.18000 4.743
72.20000 2.498
72.22000 -1.512
72.24000 -0.055
72.26000 0.060
72.28000 -0.857
72.30000 0.591
72.32000 1.470
72.34000 2.172
72.36000 3.205
72.38000 4.641
72.40000 2.167
72.42000 1.674
72.44000 1.836
72.46000 1.751
72.48000 0.375
72.50000 0.825
72.52000 1.468
72.54000 -0.022
72.56000 0.396
72.58000 0.227
72.60000 -0.735
72.62000 -0.268
72.64000 -0.070
72.66000 -0.282
72.68000 0.346
72.70000 1.730
72.72000 -2.036
72.74000 1.040
72.76000 1.515
72.78000 -0.263
72.80000 3.496
72.82000 3.878
72.84000 1.891
72.86000 2.761
72.88000 5.788
72.90000 5.332
72.92000 2.657
72.94000 0.205
72.96000 1.513
72.98000 0.823
73.00000 -0.738
73.02000 2.046
73.04000 2.053
73.06000 2.021
73.08000 3.731
73.10000 4.472
73.12000 4.376
73.14000 0.622
73.16000 3.284
73.18000 3.728
73.20000 2.135
73.22000 2.382
73.24000 1.987
73.26000 2.112
73.28000 2.483
73.30000 0.105
73.32000 1.713
73.34000 3.056
73.36000 3.708
73.38000 4.464
73.40000 1.604
73.42000 0.349
73.44000 -2.008
73.46000 0.413
73.48000 0.455
73.50000 2.154
73.52000 3.184
73.54000 3.949
73.56000 1.551
73.58000 2.604
73.60000 3.172
73.62000 4.802
73.64000 5.867
73.66000 4.716
73.68000 2.294
73.70000 5.615
73.72000 3.136
73.74000 5.788
73.76000 6.184
73.78000 3.905
73.80000 3.490
73.82000 5.995
73.84000 5.422
73.86000 3.330
73.88000 4.803
73.90000 5.025
73.92000 3.794
73.94000 3.267
73.96000 0.781
73.98000 3.614
74.00000 5.215
74.02000 4.462
74.04000 2.207
74.06000 3.679
74.08000 5.826
74.10000 7.611
74.12000 5.437
74.14000 1.677
74.16000 3.384
74.18000 3.789
74.20000 5.249
74.22000 5.216
74.24000 1.594
74.26000 1.795
74.28000 2.528
74.30000 2.353
74.32000 5.204
74.34000 4.552
74.36000 2.827
74.38000 1.708
74.40000 1.120
74.42000 1.219
74.44000 1.142
74.46000 2.493
74.48000 2.084
74.50000 3.322
74.52000 2.594
74.54000 5.610
74.56000 4.035
74.58000 2.068
74.60000 2.683
74.62000 7.978
74.64000 3.192
74.66000 1.339
74.68000 4.190
74.70000 1.823
74.72000 3.674
74.74000 6.988
74.76000 6.525
74.78000 3.090
74.80000 6.242
74.82000 7.647
74.84000 8.697
74.86000 7.384
74.88000 6.035
74.90000 6.100
74.92000 3.263
74.94000 1.986
74.96000 4.273
74.98000 4.073
75.00000 4.093
75.02000 3.079
75.04000 0.642
75.06000 -1.969
75.08000 2.300
75.10000 4.450
75.12000 6.386
75.14000 6.761
75.16000 5.673
75.18000 5.610
75.20000 3.173
75.22000 5.857
75.24000 8.976
75.26000 5.742
75.28000 7.569
75.30000 8.951
75.32000 6.925
75.34000 4.959
75.36000 2.536
75.38000 1.904
75.40000 5.163
75.42000 6.137
75.44000 3.748
75.46000 0.441
75.48000 2.296
75.50000 3.377
75.52000 3.629
75.54000 4.401
75.56000 5.025
75.58000 1.960
75.60000 2.378
75.62000 3.138
75.64000 3.672
75.66000 -0.085
75.68000 1.525
75.70000 7.526
75.72000 5.697
75.74000 2.344
75.76000 0.339
75.78000 2.218
75.80000 0.148
75.82000 -1.049
75.84000 -2.059
75.86000 -0.075
75.88000 3.876
75.90000 4.025
75.92000 1.604
75.94000 1.344
75.96000 1.070
75.98000 0.628
76.00000 2.756
76.02000 2.824
76.04000 2.916
76.06000 4.714
76.08000 1.409
76.10000 2.264
76.12000 -1.473
76.14000 2.874
76.16000 3.235
76.18000 1.336
76.20000 1.691
76.22000 3.067
76.24000 2.575
76.26000 3.479
76.28000 1.625
76.30000 3.666
76.32000 5.626
76.34000 1.372
76.36000 0.798
76.38000 4.371
76.40000 3.596
76.42000 -1.365
76.44000 0.966
76.46000 3.357
76.48000 1.041
76.50000 -0.680
76.52000 2.715
76.54000 -0.157
76.56000 -2.107
76.58000 0.676
76.60000 1.958
76.62000 0.540
76.64000 0.981
76.66000 2.001
76.68000 1.120
76.70000 -0.013
76.72000 3.085
76.74000 3.474
76.76000 0.787
76.78000 -0.183
76.80000 1.237
76.82000 2.545
76.84000 0.246
76.86000 3.855
76.88000 2.725
76.90000 1.791
76.92000 0.196
76.94000 -0.317
76.96000 0.990
76.98000 0.217
77.00000 1.021
77.02000 0.867
77.04000 -2.129
77.06000 -2.131
77.08000 0.830
77.10000 0.187
77.12000 -0.236
77.14000 -0.522
77.16000 0.247
77.18000 -0.774
77.20000 0.342
77.22000 0.886
77.24000 1.174
77.26000 -1.425
77.28000 -0.077
77.30000 1.549
77.32000 0.653
77.34000 -0.800
77.36000 4.003
77.38000 4.412
77.40000 1.332
77.42000 -1.946
77.44000 0.394
77.46000 -1.081
77.48000 -0.162
77.50000 -1.867
77.52000 -1.584
77.54000 1.633
77.56000 -1.391
77.58000 -0.897
77.60000 2.210
77.62000 2.720
77.64000 1.038
77.66000 -2.217
77.68000 -1.778
77.70000 -0.327
77.72000 0.373
77.74000 2.861
77.76000 1.855
77.78000 -0.843
77.80000 0.129
77.82000 -0.259
77.84000 0.016
77.86000 -1.153
77.88000 -0.301
77.90000 0.910
77.92000 1.156
77.94000 -0.003
77.96000 -1.212
77.98000 0.041
78.00000 -1.957
78.02000 -1.742
78.04000 -0.226
78.06000 1.355
78.08000 0.889
78.10000 -1.164
78.12000 2.560
78.14000 1.198
78.16000 1.381
78.18000 3.867
78.20000 3.808
78.22000 2.402
78.24000 -0.310
78.26000 -1.102
78.28000 0.541
78.30000 1.538
78.32000 1.512
78.34000 2.282
78.36000 3.595
78.38000 3.100
78.40000 -0.484
78.42000 -1.875
78.44000 2.736
78.46000 3.974
78.48000 3.294
78.50000 7.011
78.52000 2.514
78.54000 1.283
78.56000 6.469
78.58000 10.789
78.60000 5.654
78.62000 3.639
78.64000 7.409
78.66000 10.430
78.68000 10.282
78.70000 8.347
78.72000 9.452
78.74000 15.415
78.76000 15.276
78.78000 14.571
78.80000 15.059
78.82000 8.498
78.84000 11.352
78.86000 18.069
78.88000 17.325
78.90000 11.410
78.92000 16.172
78.94000 19.122
78.96000 23.628
78.98000 18.370
79.00000 18.486
79.02000 16.598
79.04000 19.174
79.06000 23.777
79.08000 23.876
79.10000 20.430
79.12000 22.200
79.14000 24.264
79.16000 24.797
79.18000 24.525
79.20000 30.298
79.22000 31.092
79.24000 32.480
79.26000 32.914
79.28000 29.829
79.30000 31.894
79.32000 30.435
79.34000 26.933
79.36000 28.334
79.38000 34.864
79.40000 32.760
79.42000 34.277
79.44000 37.516
79.46000 35.257
79.48000 34.180
79.50000 32.700
79.52000 35.285
79.54000 33.597
79.56000 32.023
79.58000 32.065
79.60000 32.152
79.62000 28.671
79.64000 24.114
79.66000 26.770
79.68000 28.454
79.70000 27.851
79.72000 25.441
79.74000 23.825
79.76000 22.848
79.78000 18.918
79.80000 18.483
79.82000 20.257
79.84000 21.392
79.86000 19.647
79.88000 15.660
79.90000 20.759
79.92000 21.172
79.94000 17.632
79.96000 15.981
79.98000 12.225
80.00000 14.315
80.02000 13.188
80.04000 14.312
80.06000 11.098
80.08000 10.241
80.10000 11.418
80.12000 9.876
80.14000 10.368
80.16000 9.924
80.18000 7.813
80.20000 6.404
80.22000 4.104
80.24000 3.652
80.26000 4.747
80.28000 5.593
80.30000 5.671
80.32000 4.777
80.34000 1.331
80.36000 1.671
80.38000 6.089
80.40000 0.398
80.42000 1.551
80.44000 5.480
80.46000 2.068
80.48000 -1.463
80.50000 0.956
80.52000 1.118
80.54000 3.221
80.56000 5.474
80.58000 2.291
80.60000 -1.525
80.62000 0.573
80.64000 5.819
80.66000 3.402
80.68000 4.238
80.70000 3.051
80.72000 3.064
80.74000 4.310
80.76000 1.982
80.78000 1.602
80.80000 -0.078
80.82000 2.323
80.84000 0.864
80.86000 1.884
80.88000 0.337
80.90000 -1.862
80.92000 -1.109
80.94000 2.624
80.96000 2.147
80.98000 3.527
81.00000 -2.385
81.02000 -2.091
81.04000 -0.773
81.06000 1.542
81.08000 1.654
81.10000 1.948
81.12000 2.389
81.14000 1.510
81.16000 -0.033
81.18000 -0.284
81.20000 0.840
81.22000 -0.343
81.24000 -1.710
81.26000 0.985
81.28000 -2.380
81.30000 -1.616
81.32000 -2.134
81.34000 -0.546
81.36000 -2.017
81.38000 -2.005
81.40000 2.212
81.42000 3.809
81.44000 2.160
81.46000 2.909
81.48000 2.742
81.50000 -0.681
81.52000 -1.706
81.54000 0.318
81.56000 1.625
81.58000 -2.386
81.60000 -0.620
81.62000 3.997
81.64000 2.049
81.66000 6.584
81.68000 6.808
81.70000 6.010
81.72000 1.151
81.74000 -1.026
81.76000 1.752
81.78000 4.485
81.80000 5.973
81.82000 0.725
81.84000 2.857
81.86000 3.537
81.88000 1.367
81.90000 3.407
81.92000 5.596
81.94000 3.177
81.96000 1.391
81.98000 2.540
82.00000 2.321
82.02000 3.651
82.04000 4.102
82.06000 3.848
82.08000 5.698
82.10000 6.425
82.12000 8.899
82.14000 8.974
82.16000 4.363
82.18000 2.856
82.20000 5.066
82.22000 6.781
82.24000 9.104
82.26000 12.007
82.28000 8.538
82.30000 9.432
82.32000 9.957
82.34000 11.204
82.36000 11.465
82.38000 14.366
82.40000 15.286
82.42000 11.112
82.44000 13.918
82.46000 17.194
82.48000 16.391
82.50000 13.416
82.52000 14.615
82.54000 16.929
82.56000 19.522
82.58000 20.840
82.60000 22.767
82.62000 19.303
82.64000 24.203
82.66000 26.091
82.68000 22.345
82.70000 21.306
82.72000 24.585
82.74000 19.500
82.76000 26.563
82.78000 26.943
82.80000 27.400
82.82000 31.803
82.84000 34.098
82.86000 29.972
82.88000 34.306
82.90000 35.928
82.92000 33.670
82.94000 38.455
82.96000 43.464
82.98000 42.393
83.00000 46.079
83.02000 49.942
83.04000 49.886
83.06000 51.509
83.08000 48.517
83.10000 55.964
83.12000 60.346
83.14000 56.715
83.16000 60.729
83.18000 62.699
83.20000 66.213
83.22000 66.286
83.24000 67.186
83.26000 71.162
83.28000 72.178
83.30000 77.442
83.32000 78.082
83.34000 77.278
83.36000 78.823
83.38000 86.197
83.40000 78.664
83.42000 76.524
83.44000 83.438
83.46000 86.298
83.48000 86.948
83.50000 90.038
83.52000 88.698
83.54000 88.175
83.56000 84.077
83.58000 79.981
83.60000 80.311
83.62000 83.036
83.64000 85.901
83.66000 86.560
83.68000 84.867
83.70000 78.783
83.72000 75.655
83.74000 69.001
83.76000 69.751
83.78000 64.875
83.80000 68.455
83.82000 62.317
83.84000 60.538
83.86000 58.957
83.88000 57.733
83.90000 55.301
83.92000 53.629
83.94000 49.492
83.96000 49.558
83.98000 53.076
84.00000 47.595
84.02000 45.512
84.04000 42.495
84.06000 38.522
84.08000 35.136
84.10000 34.508
84.12000 32.449
84.14000 32.745
84.16000 34.720
84.18000 31.732
84.20000 29.454
84.22000 28.573
84.24000 26.422
84.26000 23.840
84.28000 20.109
84.30000 19.241
84.32000 20.104
84.34000 20.807
84.36000 20.453
84.38000 21.659
84.40000 14.415
84.42000 11.901
84.44000 7.089
84.46000 6.904
84.48000 8.847
84.50000 7.325
84.52000 10.836
84.54000 8.754
84.56000 7.221
84.58000 4.511
84.60000 3.650
84.62000 4.336
84.64000 4.830
84.66000 5.436
84.68000 5.555
84.70000 5.496
84.72000 5.041
84.74000 2.617
84.76000 3.839
84.78000 4.431
84.80000 5.805
84.82000 -0.430
84.84000 2.107
84.86000 2.110
84.88000 -0.612
84.90000 3.943
84.92000 2.155
84.94000 2.827
84.96000 3.337
84.98000 -0.633
85.00000 -0.576
85.02000 -0.106
85.04000 0.472
85.06000 2.447
85.08000 1.562
85.10000 2.037
85.12000 0.416
85.14000 1.528
85.16000 -0.196
85.18000 2.269
85.20000 0.052
85.22000 -1.836
85.24000 -1.207
85.26000 -0.494
85.28000 -0.022
85.30000 1.267
85.32000 2.212
85.34000 3.904
85.36000 3.061
85.38000 0.889
85.40000 0.229
85.42000 1.437
85.44000 0.401
85.46000 -1.656
85.48000 -0.377
85.50000 1.723
85.52000 0.437
85.54000 1.394
85.56000 -0.914
85.58000 0.975
85.60000 -2.071
85.62000 -1.989
85.64000 -0.643
85.66000 1.905
85.68000 0.885
85.70000 1.512
85.72000 3.217
85.74000 0.269
85.76000 0.373
85.78000 -1.597
85.80000 -0.116
85.82000 0.426
85.84000 3.898
85.86000 4.125
85.88000 4.769
85.90000 0.817
85.92000 -0.724
85.94000 -2.002
85.96000 2.882
85.98000 2.637
86.00000 3.460
86.02000 0.877
86.04000 -1.108
86.06000 -0.735
86.08000 -1.704
86.10000 -1.993
86.12000 -0.847
86.14000 0.444
86.16000 1.697
86.18000 0.784
86.20000 0.756
86.22000 0.541
86.24000 1.798
86.26000 2.520
86.28000 3.906
86.30000 0.776
86.32000 0.148
86.34000 0.379
86.36000 2.608
86.38000 2.167
86.40000 3.092
86.42000 3.991
86.44000 2.516
86.46000 2.900
86.48000 0.733
86.50000 2.232
86.52000 2.915
86.54000 -0.707
86.56000 -1.590
86.58000 -0.336
86.60000 0.463
86.62000 3.062
86.64000 3.007
86.66000 -0.080
86.68000 0.190
86.70000 2.873
86.72000 -0.068
86.74000 1.602
86.76000 -0.494
86.78000 -0.706
86.80000 0.911
86.82000 1.992
86.84000 0.250
86.86000 -0.023
86.88000 2.807
86.90000 4.541
86.92000 4.375
86.94000 6.399
86.96000 2.589
86.98000 0.574
87.00000 2.850
87.02000 2.591
87.04000 0.540
87.06000 -0.469
87.08000 -0.241
87.10000 -0.517
87.12000 -1.089
87.14000 2.561
87.16000 2.249
87.18000 1.318
87.20000 3.697
87.22000 1.930
87.24000 4.076
87.26000 1.409
87.28000 3.969
87.30000 3.319
87.32000 2.702
87.34000 1.536
87.36000 3.084
87.38000 0.436
87.40000 0.859
87.42000 2.404
87.44000 4.535
87.46000 6.509
87.48000 2.260
87.50000 2.046
87.52000 3.061
87.54000 1.459
87.56000 1.974
87.58000 -0.726
87.60000 -1.923
87.62000 1.005
87.64000 1.789
87.66000 1.845
87.68000 1.040
87.70000 0.685
87.72000 0.851
87.74000 0.919
87.76000 1.683
87.78000 2.507
87.80000 3.257
87.82000 2.485
87.84000 2.500
87.86000 3.540
87.88000 5.586
87.90000 0.168
87.92000 -1.148
87.94000 1.539
87.96000 0.753
87.98000 2.045
88.00000 4.753
88.02000 1.490
88.04000 1.987
88.06000 2.625
88.08000 0.741
88.10000 2.241
88.12000 2.228
88.14000 0.281
88.16000 0.035
88.18000 -0.971
88.20000 2.493
88.22000 5.501
88.24000 1.043
88.26000 0.398
88.28000 -1.017
88.30000 -0.557
88.32000 1.428
88.34000 2.050
88.36000 4.240
88.38000 1.689
88.40000 1.052
88.42000 -0.783
88.44000 -1.918
88.46000 -0.226
88.48000 0.131
88.50000 0.968
88.52000 2.015
88.54000 2.485
88.56000 0.085
88.58000 -0.952
88.60000 -0.373
88.62000 0.018
88.64000 1.589
88.66000 1.792
88.68000 -1.556
88.70000 1.241
88.72000 2.659
88.74000 5.691
88.76000 2.706
88.78000 1.139
88.80000 -0.087
88.82000 0.468
88.84000 0.879
88.86000 3.678
88.88000 3.980
88.90000 2.184
88.92000 0.437
88.94000 4.204
88.96000 2.179
88.98000 0.265
89.00000 1.685
89.02000 -0.147
89.04000 -0.793
89.06000 1.945
89.08000 0.980
89.10000 3.298
89.12000 2.092
89.14000 3.089
89.16000 2.354
89.18000 0.892
89.20000 3.188
89.22000 6.022
89.24000 3.202
89.26000 2.640
89.28000 1.112
89.30000 -1.896
89.32000 2.335
89.34000 1.776
89.36000 1.880
89.38000 5.274
89.40000 5.247
89.42000 2.241
89.44000 -0.459
89.46000 -1.401
89.48000 -1.447
89.50000 -0.109
89.52000 3.941
89.54000 2.249
89.56000 1.248
89.58000 1.356
89.60000 3.046
89.62000 3.151
89.64000 0.996
89.66000 1.621
89.68000 0.464
89.70000 -0.745
89.72000 -1.524
89.74000 1.877
89.76000 3.244
89.78000 3.737
89.80000 -0.818
89.82000 2.156
89.84000 -1.298
89.86000 1.988
89.88000 2.205
89.90000 -0.834
89.92000 -1.528
89.94000 -1.008
89.96000 1.510
89.98000 1.754
90.00000 3.241
90.02000 3.477
90.04000 -0.035
90.06000 0.823
90.08000 -1.172
90.10000 -0.401
90.12000 -1.634
90.14000 3.297
90.16000 4.725
90.18000 1.435
90.20000 2.181
90.22000 -0.196
90.24000 0.934
90.26000 -0.511
90.28000 1.314
90.30000 0.378
90.32000 0.367
90.34000 1.175
90.36000 0.600
90.38000 -0.185
90.40000 0.187
90.42000 -1.624
90.44000 0.628
90.46000 1.903
90.48000 1.368
90.50000 -0.021
90.52000 0.611
90.54000 0.711
90.56000 2.259
90.58000 0.305
90.60000 1.179
90.62000 3.695
90.64000 3.966
90.66000 6.536
90.68000 3.715
90.70000 1.502
90.72000 1.877
90.74000 1.533
90.76000 1.507
90.78000 4.451
90.80000 4.595
90.82000 1.173
90.84000 1.494
90.86000 4.076
90.88000 3.105
90.90000 0.726
90.92000 -1.007
90.94000 -1.905
90.96000 3.485
90.98000 2.276
91.00000 1.629
91.02000 1.452
91.04000 0.752
91.06000 3.585
91.08000 1.408
91.10000 2.579
91.12000 2.966
91.14000 1.346
91.16000 -0.067
91.18000 1.099
91.20000 2.063
91.22000 4.726
91.24000 3.555
91.26000 -0.220
91.28000 0.591
91.30000 2.424
91.32000 1.835
91.34000 -0.564
91.36000 1.545
91.38000 1.630
91.40000 3.874
91.42000 3.808
91.44000 2.859
91.46000 3.032
91.48000 0.983
91.50000 -0.671
91.52000 1.662
91.54000 4.569
91.56000 4.881
91.58000 0.775
91.60000 0.554
91.62000 0.334
91.64000 -1.108
91.66000 2.610
91.68000 2.495
91.70000 6.275
91.72000 5.287
91.74000 4.493
91.76000 2.535
91.78000 0.322
91.80000 2.008
91.82000 2.619
91.84000 0.358
91.86000 3.508
91.88000 6.278
91.90000 3.895
91.92000 -1.299
91.94000 -1.455
91.96000 -0.155
91.98000 3.077
92.00000 6.475
92.02000 5.420
92.04000 1.704
92.06000 -1.898
92.08000 2.774
92.10000 4.032
92.12000 1.327
92.14000 4.437
92.16000 5.747
92.18000 1.672
92.20000 1.247
92.22000 2.056
92.24000 3.537
92.26000 1.722
92.28000 -1.906
92.30000 0.619
92.32000 1.230
92.34000 1.498
92.36000 4.804
92.38000 3.612
92.40000 3.243
92.42000 1.880
92.44000 2.237
92.46000 3.432
92.48000 2.112
92.50000 2.089
92.52000 1.119
92.54000 3.784
92.56000 3.760
92.58000 4.334
92.60000 5.298
92.62000 4.936
92.64000 6.744
92.66000 6.065
92.68000 4.391
92.70000 4.119
92.72000 0.638
92.74000 3.302
92.76000 2.131
92.78000 2.152
92.80000 0.739
92.82000 -0.343
92.84000 1.051
92.86000 -0.178
92.88000 0.389
92.90000 3.291
92.92000 4.095
92.94000 0.807
92.96000 -1.929
92.98000 1.151
93.00000 2.490
93.02000 -0.183
93.04000 1.769
93.06000 1.403
93.08000 0.057
93.10000 0.024
93.12000 -0.018
93.14000 0.978
93.16000 2.564
93.18000 3.346
93.20000 -0.928
93.22000 2.276
93.24000 2.448
93.26000 2.216
93.28000 3.889
93.30000 4.592
93.32000 5.853
93.34000 5.146
93.36000 3.847
93.38000 3.482
93.40000 2.180
93.42000 -1.540
93.44000 1.665
93.46000 0.976
93.48000 2.162
93.50000 4.602
93.52000 4.766
93.54000 9.302
93.56000 6.141
93.58000 0.338
93.60000 -0.866
93.62000 3.363
93.64000 3.351
93.66000 1.065
93.68000 0.186
93.70000 -1.088
93.72000 1.627
93.74000 3.998
93.76000 6.547
93.78000 7.144
93.80000 1.850
93.82000 1.985
93.84000 1.325
93.86000 0.482
93.88000 -1.659
93.90000 0.350
93.92000 -1.477
93.94000 -1.906
93.96000 2.965
93.98000 3.672
94.00000 2.987
94.02000 3.901
94.04000 2.833
94.06000 -0.498
94.08000 3.180
94.10000 6.451
94.12000 5.795
94.14000 5.662
94.16000 4.601
94.18000 1.349
94.20000 1.976
94.22000 4.630
94.24000 6.906
94.26000 2.832
94.28000 1.259
94.30000 5.328
94.32000 5.421
94.34000 1.098
94.36000 1.550
94.38000 0.043
94.40000 2.115
94.42000 2.630
94.44000 1.468
94.46000 -0.556
94.48000 1.745
94.50000 5.084
94.52000 6.117
94.54000 6.144
94.56000 2.998
94.58000 1.230
94.60000 0.359
94.62000 1.315
94.64000 2.112
94.66000 2.721
94.68000 0.509
94.70000 2.481
94.72000 4.343
94.74000 1.770
94.76000 4.423
94.78000 4.762
94.80000 0.020
94.82000 2.239
94.84000 4.306
94.86000 2.576
94.88000 0.225
94.90000 1.912
94.92000 5.613
94.94000 5.996
94.96000 6.192
94.98000 2.178
95.00000 -1.938
95.02000 1.147
95.04000 1.903
95.06000 5.429
95.08000 5.714
95.10000 5.262
95.12000 3.045
95.14000 4.318
95.16000 4.236
95.18000 1.297
95.20000 -0.499
95.22000 2.344
95.24000 4.907
95.26000 2.882
95.28000 4.010
95.30000 1.471
95.32000 -1.478
95.34000 0.065
95.36000 0.062
95.38000 1.910
95.40000 1.787
95.42000 4.514
95.44000 7.654
95.46000 5.201
95.48000 4.795
95.50000 2.612
95.52000 4.852
95.54000 0.840
95.56000 5.312
95.58000 5.919
95.60000 5.788
95.62000 3.768
95.64000 4.934
95.66000 5.204
95.68000 2.819
95.70000 2.644
95.72000 4.202
95.74000 4.586
95.76000 0.239
95.78000 0.185
95.80000 0.031
95.82000 2.977
95.84000 2.445
95.86000 4.194
95.88000 3.504
95.90000 2.623
95.92000 3.145
95.94000 -0.502
95.96000 -1.905
95.98000 -0.603
96.00000 3.649
96.02000 6.195
96.04000 5.947
96.06000 1.423
96.08000 1.503
96.10000 1.593
96.12000 4.922
96.14000 4.479
96.16000 3.822
96.18000 8.307
96.20000 8.935
96.22000 5.978
96.24000 5.936
96.26000 4.369
96.28000 1.360
96.30000 1.954
96.32000 4.799
96.34000 4.700
96.36000 3.893
96.38000 1.682
96.40000 3.788
96.42000 5.931
96.44000 8.774
96.46000 6.196
96.48000 2.819
96.50000 -1.857
96.52000 1.010
96.54000 2.348
96.56000 0.808
96.58000 3.867
96.60000 4.563
96.62000 8.367
96.64000 4.905
96.66000 -1.852
96.68000 -1.871
96.70000 4.824
96.72000 1.424
96.74000 6.171
96.76000 10.332
96.78000 6.069
96.80000 6.672
96.82000 7.847
96.84000 6.000
96.86000 3.644
96.88000 4.990
96.90000 5.561
96.92000 3.696
96.94000 4.820
96.96000 7.336
96.98000 5.046
97.00000 1.833
97.02000 1.651
97.04000 6.575
97.06000 10.391
97.08000 11.354
97.10000 8.092
97.12000 6.436
97.14000 4.883
97.16000 5.699
97.18000 9.497
97.20000 9.111
97.22000 7.290
97.24000 6.147
97.26000 5.234
97.28000 6.540
97.30000 1.830
97.32000 -1.868
97.34000 6.662
97.36000 7.839
97.38000 7.571
97.40000 6.871
97.42000 2.645
97.44000 0.918
97.46000 4.888
97.48000 5.066
97.50000 6.579
97.52000 6.056
97.54000 10.084
97.56000 5.710
97.58000 5.948
97.60000 6.459
97.62000 6.284
97.64000 1.735
97.66000 2.857
97.68000 3.534
97.70000 5.874
97.72000 4.833
97.74000 4.197
97.76000 3.786
97.78000 2.626
97.80000 5.887
97.82000 3.567
97.84000 4.192
97.86000 -0.318
97.88000 2.233
97.90000 0.330
97.92000 3.045
97.94000 3.725
97.96000 6.927
97.98000 2.950
98.00000 2.436
98.02000 2.490
98.04000 4.276
98.06000 1.943
98.08000 1.968
98.10000 0.067
98.12000 1.328
98.14000 -1.196
98.16000 3.574
98.18000 6.118
98.20000 5.264
98.22000 0.526
98.24000 2.983
98.26000 -0.022
98.28000 1.122
98.30000 7.969
98.32000 6.672
98.34000 1.395
98.36000 3.970
98.38000 0.299
98.40000 3.010
98.42000 0.875
98.44000 0.736
98.46000 5.194
98.48000 3.627
98.50000 6.383
98.52000 4.134
98.54000 2.572
98.56000 -1.376
98.58000 -1.891
98.60000 7.566
98.62000 6.036
98.64000 4.184
98.66000 7.152
98.68000 7.542
98.70000 0.893
98.72000 2.537
98.74000 8.380
98.76000 4.504
98.78000 7.905
98.80000 7.457
98.82000 9.005
98.84000 7.209
98.86000 -0.971
98.88000 2.938
98.90000 0.426
98.92000 0.136
98.94000 8.553
98.96000 9.195
98.98000 6.099
99.00000 0.256
99.02000 2.776
99.04000 5.487
99.06000 1.849
99.08000 -0.732
99.10000 5.826
99.12000 9.772
99.14000 5.847
99.16000 9.353
99.18000 4.451
99.20000 7.484
99.22000 5.925
99.24000 4.543
99.26000 8.928
99.28000 6.175
99.30000 4.279
99.32000 0.843
99.34000 0.978
99.36000 3.077
99.38000 -1.143
99.40000 3.030
99.42000 1.250
99.44000 2.477
99.46000 -1.890
99.48000 0.911
99.50000 5.147
99.52000 10.034
99.54000 11.804
99.56000 7.297
99.58000 0.506
99.60000 3.328
99.62000 7.804
99.64000 11.111
99.66000 8.753
99.68000 1.189
99.70000 1.566
99.72000 3.476
99.74000 6.673
99.76000 6.589
99.78000 5.941
99.80000 6.192
99.82000 5.624
99.84000 0.517
99.86000 -0.233
99.88000 4.715
99.90000 8.230
99.92000 6.311
99.94000 5.622
99.96000 14.256
99.98000 0.000
