'Id: "0011389" Comment: "Integrate frame 0011389_Au-Ir-Rh_Au-Rich_XRD_Mapping-070-0000.gfrmwith cursor Wedge Cursor #5" Operator: "B?rgel" Anode: "Cu" Wavelength: "1.5406" Scantype: "2Theta (TwoTheta)" TimePerStep: "1" X: "22.5" Y: "-22.5" Z: "5.95" 
10.00000 0.000
10.02000 -3.810
10.04000 2.491
10.06000 7.978
10.08000 0.385
10.10000 13.823
10.12000 7.929
10.14000 15.242
10.16000 4.472
10.18000 4.767
10.20000 9.056
10.22000 -3.737
10.24000 6.299
10.26000 40.926
10.28000 26.557
10.30000 18.063
10.32000 20.328
10.34000 14.793
10.36000 10.396
10.38000 15.434
10.40000 23.321
10.42000 18.569
10.44000 13.894
10.46000 10.695
10.48000 19.717
10.50000 17.864
10.52000 3.644
10.54000 26.053
10.56000 14.859
10.58000 8.121
10.60000 3.927
10.62000 20.567
10.64000 27.269
10.66000 11.663
10.68000 16.805
10.70000 20.778
10.72000 23.156
10.74000 2.944
10.76000 9.867
10.78000 24.750
10.80000 20.154
10.82000 16.342
10.84000 18.929
10.86000 18.761
10.88000 17.942
10.90000 16.182
10.92000 14.283
10.94000 26.604
10.96000 14.063
10.98000 17.602
11.00000 21.709
11.02000 16.199
11.04000 22.897
11.06000 25.276
11.08000 17.739
11.10000 19.700
11.12000 23.837
11.14000 25.594
11.16000 28.802
11.18000 23.460
11.20000 30.214
11.22000 19.963
11.24000 18.856
11.26000 21.779
11.28000 27.254
11.30000 20.480
11.32000 21.458
11.34000 13.668
11.36000 14.289
11.38000 28.433
11.40000 22.836
11.42000 21.885
11.44000 12.094
11.46000 10.240
11.48000 24.372
11.50000 26.468
11.52000 21.854
11.54000 19.323
11.56000 30.230
11.58000 37.131
11.60000 35.027
11.62000 34.199
11.64000 36.391
11.66000 30.250
11.68000 19.614
11.70000 23.923
11.72000 24.520
11.74000 25.839
11.76000 36.664
11.78000 29.773
11.80000 25.764
11.82000 26.610
11.84000 20.951
11.86000 24.872
11.88000 24.141
11.90000 28.170
11.92000 23.489
11.94000 22.541
11.96000 18.038
11.98000 26.529
12.00000 21.240
12.02000 13.690
12.04000 20.283
12.06000 15.079
12.08000 24.043
12.10000 29.771
12.12000 33.846
12.14000 37.603
12.16000 38.886
12.18000 37.860
12.20000 44.563
12.22000 29.071
12.24000 21.006
12.26000 18.257
12.28000 19.457
12.30000 21.409
12.32000 21.756
12.34000 15.020
12.36000 27.742
12.38000 32.375
12.40000 29.227
12.42000 23.038
12.44000 21.258
12.46000 25.831
12.48000 23.993
12.50000 28.831
12.52000 21.568
12.54000 15.566
12.56000 23.922
12.58000 25.254
12.60000 30.348
12.62000 31.865
12.64000 27.733
12.66000 31.716
12.68000 30.559
12.70000 24.791
12.72000 26.645
12.74000 32.980
12.76000 30.925
12.78000 24.141
12.80000 32.751
12.82000 26.031
12.84000 12.499
12.86000 19.346
12.88000 21.354
12.90000 24.539
12.92000 19.387
12.94000 18.880
12.96000 26.329
12.98000 29.992
13.00000 22.398
13.02000 28.686
13.04000 38.267
13.06000 34.658
13.08000 30.430
13.10000 29.779
13.12000 29.873
13.14000 28.704
13.16000 28.954
13.18000 24.453
13.20000 18.526
13.22000 19.526
13.24000 29.164
13.26000 22.986
13.28000 19.585
13.30000 25.339
13.32000 18.753
13.34000 12.784
13.36000 26.566
13.38000 24.709
13.40000 15.951
13.42000 16.436
13.44000 22.437
13.46000 15.631
13.48000 23.111
13.50000 31.109
13.52000 33.862
13.54000 30.959
13.56000 30.556
13.58000 27.022
13.60000 25.101
13.62000 20.388
13.64000 16.757
13.66000 16.334
13.68000 20.950
13.70000 21.360
13.72000 24.478
13.74000 29.055
13.76000 18.997
13.78000 14.462
13.80000 17.080
13.82000 19.117
13.84000 21.679
13.86000 13.743
13.88000 15.623
13.90000 26.676
13.92000 16.296
13.94000 15.119
13.96000 21.795
13.98000 13.935
14.00000 10.801
14.02000 17.398
14.04000 14.460
14.06000 7.619
14.08000 15.064
14.10000 19.543
14.12000 18.863
14.14000 22.942
14.16000 21.526
14.18000 21.360
14.20000 20.543
14.22000 11.663
14.24000 16.417
14.26000 23.124
14.28000 23.819
14.30000 17.806
14.32000 13.579
14.34000 12.703
14.36000 15.991
14.38000 19.998
14.40000 21.782
14.42000 23.859
14.44000 18.933
14.46000 18.874
14.48000 18.496
14.50000 20.856
14.52000 16.438
14.54000 7.196
14.56000 7.762
14.58000 22.617
14.60000 23.335
14.62000 19.250
14.64000 22.324
14.66000 18.728
14.68000 15.933
14.70000 11.961
14.72000 14.312
14.74000 21.443
14.76000 18.759
14.78000 15.365
14.80000 12.002
14.82000 10.976
14.84000 14.031
14.86000 6.291
14.88000 10.658
14.90000 19.428
14.92000 23.126
14.94000 20.091
14.96000 18.299
14.98000 17.098
15.00000 20.757
15.02000 17.272
15.04000 17.881
15.06000 16.072
15.08000 15.396
15.10000 15.280
15.12000 15.951
15.14000 7.626
15.16000 11.661
15.18000 16.518
15.20000 21.877
15.22000 13.600
15.24000 8.591
15.26000 14.430
15.28000 16.624
15.30000 11.300
15.32000 8.892
15.34000 11.140
15.36000 19.763
15.38000 19.223
15.40000 14.417
15.42000 8.931
15.44000 14.298
15.46000 15.355
15.48000 13.930
15.50000 17.176
15.52000 11.891
15.54000 7.422
15.56000 9.383
15.58000 15.555
15.60000 11.556
15.62000 11.618
15.64000 14.630
15.66000 19.498
15.68000 19.108
15.70000 15.835
15.72000 14.111
15.74000 12.542
15.76000 20.735
15.78000 17.835
15.80000 11.825
15.82000 7.289
15.84000 6.348
15.86000 9.738
15.88000 14.382
15.90000 10.269
15.92000 20.745
15.94000 16.273
15.96000 11.887
15.98000 7.643
16.00000 16.269
16.02000 7.889
16.04000 -1.005
16.06000 4.789
16.08000 15.666
16.10000 13.418
16.12000 11.662
16.14000 20.601
16.16000 19.429
16.18000 10.908
16.20000 12.037
16.22000 20.943
16.24000 17.930
16.26000 17.389
16.28000 22.498
16.30000 14.023
16.32000 14.392
16.34000 7.466
16.36000 12.798
16.38000 13.989
16.40000 11.313
16.42000 16.892
16.44000 14.815
16.46000 4.782
16.48000 15.373
16.50000 22.697
16.52000 17.266
16.54000 13.570
16.56000 9.380
16.58000 12.161
16.60000 11.258
16.62000 11.912
16.64000 20.084
16.66000 14.811
16.68000 23.094
16.70000 19.105
16.72000 14.827
16.74000 21.893
16.76000 13.087
16.78000 6.259
16.80000 12.006
16.82000 11.965
16.84000 8.211
16.86000 11.184
16.88000 11.702
16.90000 10.491
16.92000 10.163
16.94000 9.630
16.96000 14.762
16.98000 17.157
17.00000 16.892
17.02000 18.732
17.04000 13.129
17.06000 10.223
17.08000 11.899
17.10000 10.635
17.12000 10.643
17.14000 10.847
17.16000 8.549
17.18000 15.433
17.20000 14.128
17.22000 16.246
17.24000 20.553
17.26000 25.617
17.28000 25.579
17.30000 18.340
17.32000 15.446
17.34000 17.065
17.36000 15.665
17.38000 15.672
17.40000 21.910
17.42000 18.600
17.44000 7.964
17.46000 5.319
17.48000 10.818
17.50000 17.698
17.52000 9.092
17.54000 6.834
17.56000 11.197
17.58000 9.002
17.60000 16.158
17.62000 23.494
17.64000 18.450
17.66000 10.687
17.68000 15.015
17.70000 13.365
17.72000 15.575
17.74000 14.996
17.76000 13.419
17.78000 -4.254
17.80000 0.892
17.82000 16.590
17.84000 20.032
17.86000 15.287
17.88000 16.218
17.90000 16.170
17.92000 13.770
17.94000 10.401
17.96000 8.054
17.98000 20.246
18.00000 13.782
18.02000 10.856
18.04000 6.130
18.06000 13.879
18.08000 20.087
18.10000 15.624
18.12000 8.326
18.14000 8.172
18.16000 10.175
18.18000 8.303
18.20000 8.642
18.22000 10.794
18.24000 6.960
18.26000 5.262
18.28000 11.627
18.30000 16.560
18.32000 10.216
18.34000 10.603
18.36000 6.977
18.38000 10.771
18.40000 12.071
18.42000 7.364
18.44000 9.503
18.46000 13.006
18.48000 12.959
18.50000 1.840
18.52000 -1.154
18.54000 0.831
18.56000 4.436
18.58000 5.575
18.60000 10.168
18.62000 8.743
18.64000 11.504
18.66000 12.420
18.68000 16.655
18.70000 12.947
18.72000 1.878
18.74000 -3.673
18.76000 1.340
18.78000 11.093
18.80000 5.333
18.82000 6.805
18.84000 11.664
18.86000 2.825
18.88000 2.389
18.90000 5.833
18.92000 8.203
18.94000 9.177
18.96000 10.102
18.98000 4.277
19.00000 2.420
19.02000 5.025
19.04000 11.203
19.06000 5.962
19.08000 2.187
19.10000 3.160
19.12000 -2.041
19.14000 -4.249
19.16000 1.164
19.18000 10.264
19.20000 14.636
19.22000 4.828
19.24000 -2.290
19.26000 0.683
19.28000 3.540
19.30000 2.261
19.32000 5.269
19.34000 4.110
19.36000 0.877
19.38000 -0.138
19.40000 9.978
19.42000 12.525
19.44000 9.987
19.46000 8.962
19.48000 11.876
19.50000 9.317
19.52000 2.829
19.54000 0.399
19.56000 3.142
19.58000 4.207
19.60000 -1.029
19.62000 1.140
19.64000 -2.863
19.66000 -4.230
19.68000 4.756
19.70000 2.722
19.72000 4.117
19.74000 5.442
19.76000 5.654
19.78000 10.760
19.80000 9.325
19.82000 4.351
19.84000 -0.923
19.86000 2.792
19.88000 5.200
19.90000 3.942
19.92000 6.015
19.94000 2.101
19.96000 1.185
19.98000 -3.731
20.00000 -1.146
20.02000 2.456
20.04000 10.757
20.06000 7.228
20.08000 -1.700
20.10000 10.235
20.12000 11.708
20.14000 4.109
20.16000 -1.184
20.18000 8.329
20.20000 10.673
20.22000 2.035
20.24000 1.242
20.26000 2.499
20.28000 0.937
20.30000 4.211
20.32000 2.757
20.34000 3.233
20.36000 5.550
20.38000 -2.870
20.40000 -2.170
20.42000 -3.200
20.44000 1.127
20.46000 10.190
20.48000 9.461
20.50000 4.254
20.52000 2.404
20.54000 2.598
20.56000 4.438
20.58000 5.634
20.60000 11.953
20.62000 4.693
20.64000 -2.938
20.66000 -4.182
20.68000 -2.305
20.70000 4.403
20.72000 11.433
20.74000 15.176
20.76000 11.623
20.78000 7.684
20.80000 4.922
20.82000 -0.656
20.84000 4.052
20.86000 4.686
20.88000 6.690
20.90000 6.333
20.92000 3.596
20.94000 2.784
20.96000 -2.422
20.98000 -3.140
21.00000 -4.169
21.02000 -1.119
21.04000 4.739
21.06000 5.283
21.08000 6.128
21.10000 6.509
21.12000 7.577
21.14000 7.816
21.16000 14.647
21.18000 11.303
21.20000 8.311
21.22000 3.104
21.24000 2.848
21.26000 4.390
21.28000 4.120
21.30000 4.026
21.32000 0.048
21.34000 4.856
21.36000 7.110
21.38000 1.532
21.40000 2.386
21.42000 8.318
21.44000 7.141
21.46000 7.932
21.48000 7.523
21.50000 1.683
21.52000 3.018
21.54000 5.958
21.56000 6.014
21.58000 4.777
21.60000 8.092
21.62000 12.466
21.64000 8.305
21.66000 6.877
21.68000 2.673
21.70000 5.501
21.72000 7.063
21.74000 2.445
21.76000 -0.138
21.78000 4.679
21.80000 9.327
21.82000 8.071
21.84000 -1.153
21.86000 -1.015
21.88000 7.591
21.90000 3.377
21.92000 3.602
21.94000 3.907
21.96000 -0.840
21.98000 0.228
22.00000 -0.374
22.02000 3.816
22.04000 1.935
22.06000 5.042
22.08000 9.247
22.10000 3.730
22.12000 -4.095
22.14000 4.120
22.16000 8.468
22.18000 4.849
22.20000 1.435
22.22000 -0.825
22.24000 -1.422
22.26000 0.943
22.28000 4.132
22.30000 6.044
22.32000 4.675
22.34000 -2.276
22.36000 -3.235
22.38000 -0.680
22.40000 5.135
22.42000 6.278
22.44000 2.463
22.46000 -1.772
22.48000 1.436
22.50000 0.240
22.52000 5.960
22.54000 9.825
22.56000 5.344
22.58000 -0.377
22.60000 8.714
22.62000 12.946
22.64000 8.744
22.66000 6.920
22.68000 5.500
22.70000 6.246
22.72000 7.227
22.74000 6.737
22.76000 7.675
22.78000 5.524
22.80000 6.092
22.82000 6.655
22.84000 1.992
22.86000 6.318
22.88000 3.620
22.90000 1.197
22.92000 -4.030
22.94000 -3.601
22.96000 -1.146
22.98000 3.182
23.00000 7.817
23.02000 7.879
23.04000 3.438
23.06000 5.902
23.08000 9.285
23.10000 4.372
23.12000 -4.014
23.14000 3.184
23.16000 8.034
23.18000 7.134
23.20000 7.176
23.22000 13.725
23.24000 9.005
23.26000 5.536
23.28000 8.907
23.30000 11.291
23.32000 6.135
23.34000 7.914
23.36000 7.557
23.38000 7.487
23.40000 4.338
23.42000 3.009
23.44000 3.260
23.46000 1.437
23.48000 1.347
23.50000 0.620
23.52000 0.257
23.54000 1.105
23.56000 5.758
23.58000 14.553
23.60000 12.908
23.62000 7.675
23.64000 3.353
23.66000 0.903
23.68000 3.077
23.70000 2.229
23.72000 -1.067
23.74000 2.775
23.76000 6.807
23.78000 4.204
23.80000 5.997
23.82000 4.502
23.84000 3.120
23.86000 2.900
23.88000 1.044
23.90000 7.491
23.92000 8.094
23.94000 6.387
23.96000 4.375
23.98000 4.639
24.00000 3.364
24.02000 4.786
24.04000 6.938
24.06000 3.792
24.08000 2.560
24.10000 4.839
24.12000 5.475
24.14000 -2.317
24.16000 -0.764
24.18000 -1.609
24.20000 6.224
24.22000 5.771
24.24000 6.128
24.26000 8.793
24.28000 9.114
24.30000 8.383
24.32000 5.947
24.34000 8.518
24.36000 8.922
24.38000 2.884
24.40000 -1.333
24.42000 -2.286
24.44000 -0.260
24.46000 6.157
24.48000 3.209
24.50000 -0.645
24.52000 -1.669
24.54000 0.118
24.56000 2.918
24.58000 6.111
24.60000 4.886
24.62000 8.039
24.64000 6.949
24.66000 0.465
24.68000 3.451
24.70000 9.992
24.72000 4.809
24.74000 1.579
24.76000 3.752
24.78000 3.363
24.80000 8.304
24.82000 3.843
24.84000 1.833
24.86000 4.779
24.88000 12.613
24.90000 9.472
24.92000 5.410
24.94000 4.196
24.96000 3.205
24.98000 5.718
25.00000 7.280
25.02000 -0.152
25.04000 0.631
25.06000 5.371
25.08000 11.738
25.10000 9.210
25.12000 7.142
25.14000 4.826
25.16000 1.262
25.18000 6.527
25.20000 3.549
25.22000 -1.377
25.24000 1.407
25.26000 5.958
25.28000 3.703
25.30000 4.552
25.32000 2.762
25.34000 3.102
25.36000 2.822
25.38000 8.857
25.40000 9.447
25.42000 7.009
25.44000 8.988
25.46000 6.442
25.48000 7.346
25.50000 5.317
25.52000 5.243
25.54000 7.379
25.56000 7.694
25.58000 9.317
25.60000 11.323
25.62000 9.584
25.64000 11.558
25.66000 10.396
25.68000 9.830
25.70000 11.275
25.72000 6.154
25.74000 -3.834
25.76000 3.495
25.78000 10.466
25.80000 2.483
25.82000 4.407
25.84000 7.077
25.86000 6.485
25.88000 7.500
25.90000 12.119
25.92000 12.117
25.94000 13.991
25.96000 6.472
25.98000 2.416
26.00000 8.130
26.02000 9.999
26.04000 5.690
26.06000 0.736
26.08000 1.228
26.10000 7.494
26.12000 1.277
26.14000 2.561
26.16000 1.411
26.18000 6.211
26.20000 7.375
26.22000 6.558
26.24000 5.963
26.26000 7.408
26.28000 5.419
26.30000 3.012
26.32000 2.828
26.34000 4.342
26.36000 2.157
26.38000 0.544
26.40000 5.151
26.42000 4.710
26.44000 1.910
26.46000 -0.012
26.48000 1.912
26.50000 0.318
26.52000 -0.971
26.54000 -1.968
26.56000 2.331
26.58000 0.845
26.60000 -1.159
26.62000 -0.173
26.64000 0.638
26.66000 0.342
26.68000 4.078
26.70000 8.792
26.72000 3.176
26.74000 -2.527
26.76000 -0.156
26.78000 8.160
26.80000 5.859
26.82000 7.618
26.84000 7.203
26.86000 1.637
26.88000 -0.975
26.90000 0.134
26.92000 2.637
26.94000 5.950
26.96000 4.088
26.98000 0.565
27.00000 -2.693
27.02000 3.229
27.04000 3.140
27.06000 -0.046
27.08000 -0.797
27.10000 -0.603
27.12000 3.190
27.14000 2.621
27.16000 1.649
27.18000 2.139
27.20000 2.093
27.22000 2.475
27.24000 -1.105
27.26000 1.035
27.28000 3.334
27.30000 -0.176
27.32000 -0.349
27.34000 9.280
27.36000 3.980
27.38000 -0.563
27.40000 2.545
27.42000 1.967
27.44000 -0.221
27.46000 2.486
27.48000 0.064
27.50000 -1.133
27.52000 -0.263
27.54000 5.378
27.56000 1.182
27.58000 -3.822
27.60000 1.381
27.62000 2.530
27.64000 -0.501
27.66000 -0.001
27.68000 1.711
27.70000 4.400
27.72000 7.266
27.74000 8.815
27.76000 2.271
27.78000 -0.260
27.80000 1.034
27.82000 -0.516
27.84000 1.302
27.86000 6.799
27.88000 3.099
27.90000 3.034
27.92000 -0.518
27.94000 -2.361
27.96000 -2.233
27.98000 -1.607
28.00000 3.103
28.02000 6.508
28.04000 10.834
28.06000 3.166
28.08000 4.113
28.10000 3.842
28.12000 -1.719
28.14000 -3.788
28.16000 -0.580
28.18000 0.731
28.20000 0.398
28.22000 2.979
28.24000 -1.841
28.26000 1.190
28.28000 6.372
28.30000 7.633
28.32000 3.839
28.34000 2.132
28.36000 -2.368
28.38000 -1.966
28.40000 2.703
28.42000 -0.689
28.44000 -1.466
28.46000 2.305
28.48000 -0.571
28.50000 4.844
28.52000 2.925
28.54000 1.621
28.56000 0.305
28.58000 6.968
28.60000 7.064
28.62000 9.807
28.64000 3.149
28.66000 4.180
28.68000 7.304
28.70000 9.067
28.72000 2.741
28.74000 6.355
28.76000 5.617
28.78000 1.096
28.80000 2.155
28.82000 0.142
28.84000 4.293
28.86000 2.665
28.88000 -0.134
28.90000 -0.895
28.92000 -0.620
28.94000 -0.701
28.96000 -0.940
28.98000 4.400
29.00000 4.221
29.02000 5.643
29.04000 -0.080
29.06000 -3.737
29.08000 0.189
29.10000 4.722
29.12000 4.017
29.14000 -1.181
29.16000 0.177
29.18000 0.534
29.20000 3.248
29.22000 3.965
29.24000 4.227
29.26000 5.452
29.28000 2.645
29.30000 -1.407
29.32000 1.075
29.34000 4.608
29.36000 1.193
29.38000 3.499
29.40000 2.594
29.42000 -1.664
29.44000 -0.258
29.46000 2.511
29.48000 -1.109
29.50000 2.950
29.52000 4.111
29.54000 0.048
29.56000 -1.881
29.58000 -3.246
29.60000 -0.960
29.62000 0.197
29.64000 -1.626
29.66000 -2.361
29.68000 -0.199
29.70000 4.033
29.72000 2.810
29.74000 4.300
29.76000 9.577
29.78000 3.319
29.80000 0.874
29.82000 -2.049
29.84000 -3.355
29.86000 -1.540
29.88000 -3.316
29.90000 -3.179
29.92000 -2.073
29.94000 0.657
29.96000 2.282
29.98000 1.102
30.00000 2.752
30.02000 1.281
30.04000 -0.923
30.06000 -1.763
30.08000 2.126
30.10000 2.901
30.12000 -1.535
30.14000 -0.553
30.16000 2.887
30.18000 5.531
30.20000 6.983
30.22000 7.043
30.24000 2.279
30.26000 -3.661
30.28000 -3.304
30.30000 4.002
30.32000 4.995
30.34000 1.835
30.36000 -3.595
30.38000 5.155
30.40000 7.291
30.42000 6.990
30.44000 7.911
30.46000 6.651
30.48000 3.228
30.50000 -2.921
30.52000 -3.643
30.54000 1.018
30.56000 6.060
30.58000 7.474
30.60000 5.620
30.62000 0.886
30.64000 1.001
30.66000 4.767
30.68000 0.003
30.70000 1.417
30.72000 3.137
30.74000 4.223
30.76000 5.041
30.78000 0.584
30.80000 -0.954
30.82000 1.742
30.84000 5.222
30.86000 3.156
30.88000 3.432
30.90000 6.198
30.92000 5.453
30.94000 -0.842
30.96000 -1.683
30.98000 -0.118
31.00000 -1.873
31.02000 -0.943
31.04000 1.555
31.06000 1.195
31.08000 0.606
31.10000 0.715
31.12000 0.450
31.14000 1.979
31.16000 2.403
31.18000 -0.850
31.20000 0.124
31.22000 -2.252
31.24000 -0.854
31.26000 -2.722
31.28000 -2.828
31.30000 1.473
31.32000 1.091
31.34000 -2.247
31.36000 6.649
31.38000 6.225
31.40000 4.934
31.42000 0.411
31.44000 1.122
31.46000 2.374
31.48000 1.946
31.50000 0.790
31.52000 -0.095
31.54000 1.873
31.56000 3.546
31.58000 3.595
31.60000 4.920
31.62000 5.635
31.64000 -0.294
31.66000 4.923
31.68000 1.334
31.70000 -0.546
31.72000 3.834
31.74000 3.136
31.76000 -0.402
31.78000 -2.187
31.80000 1.866
31.82000 8.765
31.84000 4.631
31.86000 3.681
31.88000 -1.389
31.90000 1.276
31.92000 7.338
31.94000 5.998
31.96000 5.667
31.98000 5.851
32.00000 -0.221
32.02000 -3.451
32.04000 -2.396
32.06000 4.433
32.08000 3.114
32.10000 3.024
32.12000 -3.613
32.14000 0.900
32.16000 0.720
32.18000 -0.848
32.20000 3.900
32.22000 1.465
32.24000 1.183
32.26000 6.150
32.28000 4.651
32.30000 0.803
32.32000 1.357
32.34000 1.979
32.36000 -0.175
32.38000 -3.314
32.40000 -0.238
32.42000 4.656
32.44000 0.917
32.46000 -0.772
32.48000 4.081
32.50000 0.365
32.52000 -2.018
32.54000 1.022
32.56000 0.489
32.58000 3.590
32.60000 0.876
32.62000 -1.384
32.64000 -0.427
32.66000 0.006
32.68000 -2.614
32.70000 -1.911
32.72000 -2.407
32.74000 0.765
32.76000 -0.679
32.78000 -0.828
32.80000 1.996
32.82000 0.906
32.84000 -0.817
32.86000 -2.345
32.88000 0.422
32.90000 2.900
32.92000 2.902
32.94000 5.518
32.96000 6.093
32.98000 5.821
33.00000 4.213
33.02000 -1.300
33.04000 -1.584
33.06000 2.473
33.08000 -0.928
33.10000 -2.162
33.12000 -0.069
33.14000 -0.606
33.16000 2.290
33.18000 -1.194
33.20000 1.317
33.22000 6.982
33.24000 3.629
33.26000 2.594
33.28000 4.204
33.30000 2.497
33.32000 2.768
33.34000 1.024
33.36000 -0.958
33.38000 -0.997
33.40000 -0.730
33.42000 -3.600
33.44000 0.255
33.46000 2.728
33.48000 -2.261
33.50000 3.176
33.52000 5.127
33.54000 2.921
33.56000 5.470
33.58000 4.708
33.60000 2.242
33.62000 1.229
33.64000 -1.384
33.66000 -2.717
33.68000 0.754
33.70000 2.539
33.72000 4.501
33.74000 3.499
33.76000 1.876
33.78000 -1.470
33.80000 -0.446
33.82000 -2.720
33.84000 -0.630
33.86000 3.997
33.88000 2.562
33.90000 5.446
33.92000 5.069
33.94000 5.092
33.96000 1.015
33.98000 0.283
34.00000 0.910
34.02000 1.229
34.04000 3.098
34.06000 4.630
34.08000 2.008
34.10000 0.576
34.12000 0.284
34.14000 -0.529
34.16000 0.005
34.18000 6.874
34.20000 -0.420
34.22000 -3.581
34.24000 1.256
34.26000 2.972
34.28000 -0.748
34.30000 -1.728
34.32000 0.953
34.34000 5.182
34.36000 4.826
34.38000 5.129
34.40000 -0.955
34.42000 -2.908
34.44000 1.218
34.46000 0.364
34.48000 2.225
34.50000 2.846
34.52000 -0.057
34.54000 -1.383
34.56000 -0.780
34.58000 3.200
34.60000 1.323
34.62000 5.601
34.64000 5.641
34.66000 6.928
34.68000 1.340
34.70000 2.354
34.72000 3.829
34.74000 2.369
34.76000 2.260
34.78000 0.592
34.80000 -0.196
34.82000 0.475
34.84000 -1.120
34.86000 2.135
34.88000 4.011
34.90000 6.913
34.92000 5.073
34.94000 6.236
34.96000 6.385
34.98000 3.491
35.00000 1.859
35.02000 -1.255
35.04000 -0.530
35.06000 -0.583
35.08000 0.540
35.10000 1.823
35.12000 -0.229
35.14000 2.058
35.16000 2.085
35.18000 -1.427
35.20000 -2.655
35.22000 1.306
35.24000 4.833
35.26000 6.232
35.28000 6.697
35.30000 8.539
35.32000 1.558
35.34000 -0.617
35.36000 -1.052
35.38000 -0.757
35.40000 3.184
35.42000 0.858
35.44000 0.272
35.46000 0.390
35.48000 -2.876
35.50000 -3.537
35.52000 3.308
35.54000 8.066
35.56000 8.923
35.58000 5.851
35.60000 2.778
35.62000 1.272
35.64000 -2.406
35.66000 2.101
35.68000 5.522
35.70000 1.166
35.72000 5.882
35.74000 6.455
35.76000 6.450
35.78000 1.726
35.80000 -0.555
35.82000 0.621
35.84000 0.495
35.86000 2.549
35.88000 5.460
35.90000 4.470
35.92000 0.643
35.94000 4.055
35.96000 4.911
35.98000 4.873
36.00000 3.175
36.02000 1.804
36.04000 -2.458
36.06000 -1.757
36.08000 1.329
36.10000 3.088
36.12000 3.208
36.14000 1.642
36.16000 2.734
36.18000 -0.370
36.20000 -0.244
36.22000 1.495
36.24000 3.248
36.26000 2.140
36.28000 2.158
36.30000 0.754
36.32000 -0.169
36.34000 2.183
36.36000 1.891
36.38000 0.072
36.40000 2.573
36.42000 2.754
36.44000 -0.007
36.46000 -0.621
36.48000 -0.375
36.50000 2.000
36.52000 -0.756
36.54000 -0.661
36.56000 5.188
36.58000 3.996
36.60000 3.101
36.62000 4.162
36.64000 3.111
36.66000 1.787
36.68000 1.724
36.70000 3.118
36.72000 7.312
36.74000 3.022
36.76000 2.871
36.78000 3.796
36.80000 5.222
36.82000 6.337
36.84000 4.016
36.86000 0.209
36.88000 -3.579
36.90000 0.658
36.92000 4.738
36.94000 2.990
36.96000 2.324
36.98000 4.454
37.00000 0.760
37.02000 -2.840
37.04000 2.069
37.06000 5.798
37.08000 6.182
37.10000 0.159
37.12000 -3.595
37.14000 -1.431
37.16000 1.682
37.18000 2.874
37.20000 6.879
37.22000 5.639
37.24000 7.168
37.26000 9.312
37.28000 2.529
37.30000 5.530
37.32000 10.898
37.34000 10.838
37.36000 6.578
37.38000 7.706
37.40000 5.943
37.42000 7.411
37.44000 7.246
37.46000 7.469
37.48000 7.776
37.50000 5.162
37.52000 8.609
37.54000 7.192
37.56000 6.171
37.58000 10.135
37.60000 10.743
37.62000 13.828
37.64000 14.180
37.66000 10.514
37.68000 11.192
37.70000 7.851
37.72000 13.431
37.74000 16.535
37.76000 13.732
37.78000 14.290
37.80000 16.220
37.82000 16.817
37.84000 15.330
37.86000 17.677
37.88000 15.776
37.90000 14.626
37.92000 12.262
37.94000 9.128
37.96000 14.076
37.98000 17.213
38.00000 14.306
38.02000 18.430
38.04000 21.625
38.06000 21.308
38.08000 19.350
38.10000 16.567
38.12000 20.979
38.14000 27.230
38.16000 21.911
38.18000 20.113
38.20000 21.989
38.22000 22.885
38.24000 25.441
38.26000 26.740
38.28000 25.114
38.30000 27.999
38.32000 31.019
38.34000 36.084
38.36000 34.195
38.38000 35.455
38.40000 39.726
38.42000 41.296
38.44000 37.963
38.46000 33.793
38.48000 35.448
38.50000 40.569
38.52000 40.630
38.54000 37.277
38.56000 38.068
38.58000 37.039
38.60000 43.126
38.62000 49.759
38.64000 52.890
38.66000 52.116
38.68000 53.077
38.70000 59.237
38.72000 61.377
38.74000 62.585
38.76000 63.079
38.78000 63.960
38.80000 66.231
38.82000 70.009
38.84000 74.623
38.86000 77.177
38.88000 83.283
38.90000 82.108
38.92000 87.429
38.94000 92.942
38.96000 97.739
38.98000 104.020
39.00000 107.945
39.02000 110.680
39.04000 121.937
39.06000 123.104
39.08000 125.160
39.10000 129.235
39.12000 140.028
39.14000 150.032
39.16000 159.018
39.18000 169.463
39.20000 177.770
39.22000 187.705
39.24000 200.238
39.26000 209.673
39.28000 214.824
39.30000 231.780
39.32000 243.330
39.34000 257.747
39.36000 271.771
39.38000 285.321
39.40000 296.492
39.42000 313.620
39.44000 334.647
39.46000 349.721
39.48000 371.065
39.50000 386.568
39.52000 409.575
39.54000 437.475
39.56000 446.492
39.58000 463.036
39.60000 493.621
39.62000 508.280
39.64000 524.833
39.66000 537.972
39.68000 567.538
39.70000 583.006
39.72000 592.337
39.74000 606.926
39.76000 618.383
39.78000 628.611
39.80000 630.371
39.82000 633.135
39.84000 638.355
39.86000 639.430
39.88000 648.622
39.90000 644.749
39.92000 634.317
39.94000 624.524
39.96000 614.778
39.98000 603.402
40.00000 584.690
40.02000 570.549
40.04000 566.178
40.06000 556.939
40.08000 539.451
40.10000 521.925
40.12000 495.203
40.14000 478.115
40.16000 453.576
40.18000 426.580
40.20000 405.802
40.22000 383.333
40.24000 373.154
40.26000 354.336
40.28000 335.083
40.30000 322.408
40.32000 299.853
40.34000 282.413
40.36000 265.160
40.38000 244.411
40.40000 239.912
40.42000 229.082
40.44000 207.223
40.46000 194.803
40.48000 177.549
40.50000 166.502
40.52000 161.329
40.54000 149.590
40.56000 145.015
40.58000 130.074
40.60000 121.431
40.62000 120.229
40.64000 113.581
40.66000 98.452
40.68000 95.055
40.70000 92.692
40.72000 87.849
40.74000 86.823
40.76000 78.576
40.78000 72.989
40.80000 68.140
40.82000 65.224
40.84000 60.945
40.86000 56.179
40.88000 53.554
40.90000 54.678
40.92000 51.688
40.94000 47.680
40.96000 46.593
40.98000 42.235
41.00000 36.041
41.02000 34.409
41.04000 36.114
41.06000 36.636
41.08000 35.010
41.10000 30.948
41.12000 31.177
41.14000 32.503
41.16000 28.448
41.18000 24.302
41.20000 19.752
41.22000 20.145
41.24000 18.005
41.26000 18.950
41.28000 19.745
41.30000 19.444
41.32000 20.834
41.34000 18.189
41.36000 17.154
41.38000 23.243
41.40000 19.740
41.42000 15.864
41.44000 16.027
41.46000 13.886
41.48000 7.888
41.50000 12.118
41.52000 13.452
41.54000 8.281
41.56000 7.821
41.58000 10.817
41.60000 12.042
41.62000 9.891
41.64000 11.444
41.66000 11.189
41.68000 8.002
41.70000 7.558
41.72000 7.035
41.74000 3.857
41.76000 3.782
41.78000 5.898
41.80000 6.000
41.82000 3.666
41.84000 4.756
41.86000 3.776
41.88000 1.359
41.90000 6.177
41.92000 8.644
41.94000 4.383
41.96000 0.623
41.98000 1.779
42.00000 4.865
42.02000 4.668
42.04000 4.990
42.06000 2.248
42.08000 3.462
42.10000 4.350
42.12000 0.971
42.14000 1.439
42.16000 4.872
42.18000 2.386
42.20000 3.097
42.22000 1.873
42.24000 2.313
42.26000 4.444
42.28000 10.353
42.30000 3.921
42.32000 1.030
42.34000 -3.360
42.36000 -2.243
42.38000 0.781
42.40000 1.185
42.42000 1.385
42.44000 0.114
42.46000 6.506
42.48000 2.922
42.50000 -0.844
42.52000 4.748
42.54000 5.565
42.56000 1.674
42.58000 -0.011
42.60000 1.735
42.62000 1.578
42.64000 -1.335
42.66000 3.664
42.68000 3.175
42.70000 2.683
42.72000 -1.677
42.74000 -2.258
42.76000 0.500
42.78000 3.795
42.80000 3.172
42.82000 2.935
42.84000 4.029
42.86000 3.975
42.88000 0.808
42.90000 -1.641
42.92000 0.755
42.94000 -3.284
42.96000 -1.696
42.98000 -1.194
43.00000 2.833
43.02000 4.573
43.04000 3.589
43.06000 3.922
43.08000 0.797
43.10000 3.117
43.12000 2.995
43.14000 1.108
43.16000 3.833
43.18000 2.464
43.20000 -0.333
43.22000 -2.650
43.24000 -0.477
43.26000 -2.623
43.28000 -1.913
43.30000 -0.250
43.32000 2.254
43.34000 -1.094
43.36000 -3.254
43.38000 1.312
43.40000 3.172
43.42000 0.899
43.44000 -2.921
43.46000 -2.630
43.48000 1.092
43.50000 2.839
43.52000 0.560
43.54000 -2.493
43.56000 -1.820
43.58000 0.249
43.60000 1.203
43.62000 0.719
43.64000 1.584
43.66000 0.579
43.68000 4.558
43.70000 4.202
43.72000 1.442
43.74000 3.790
43.76000 1.156
43.78000 -2.693
43.80000 -1.120
43.82000 0.503
43.84000 -1.077
43.86000 -0.278
43.88000 2.881
43.90000 1.998
43.92000 -3.203
43.94000 -0.086
43.96000 -1.445
43.98000 -0.891
44.00000 -2.036
44.02000 -2.703
44.04000 -1.093
44.06000 0.186
44.08000 0.151
44.10000 -0.397
44.12000 1.584
44.14000 -1.861
44.16000 -3.186
44.18000 0.397
44.20000 1.601
44.22000 3.530
44.24000 5.611
44.26000 2.095
44.28000 -1.783
44.30000 0.668
44.32000 3.388
44.34000 3.632
44.36000 3.068
44.38000 1.264
44.40000 1.766
44.42000 2.940
44.44000 1.561
44.46000 -2.173
44.48000 -1.991
44.50000 -3.187
44.52000 -0.118
44.54000 -0.600
44.56000 -1.351
44.58000 1.799
44.60000 3.418
44.62000 2.794
44.64000 2.895
44.66000 -0.920
44.68000 -0.909
44.70000 1.039
44.72000 3.496
44.74000 4.535
44.76000 1.538
44.78000 1.368
44.80000 2.856
44.82000 0.630
44.84000 1.109
44.86000 4.727
44.88000 3.915
44.90000 6.953
44.92000 7.408
44.94000 3.598
44.96000 1.805
44.98000 3.191
45.00000 4.692
45.02000 5.347
45.04000 5.980
45.06000 9.197
45.08000 8.430
45.10000 5.811
45.12000 4.023
45.14000 1.195
45.16000 -0.756
45.18000 7.678
45.20000 6.027
45.22000 5.874
45.24000 4.463
45.26000 0.982
45.28000 2.325
45.30000 5.627
45.32000 4.917
45.34000 3.365
45.36000 4.621
45.38000 6.984
45.40000 11.867
45.42000 9.894
45.44000 11.067
45.46000 13.514
45.48000 13.038
45.50000 11.564
45.52000 10.518
45.54000 11.234
45.56000 12.025
45.58000 12.139
45.60000 12.492
45.62000 13.142
45.64000 14.135
45.66000 12.801
45.68000 15.938
45.70000 16.649
45.72000 21.163
45.74000 16.963
45.76000 19.606
45.78000 17.081
45.80000 20.829
45.82000 22.573
45.84000 21.579
45.86000 20.096
45.88000 24.233
45.90000 25.448
45.92000 29.456
45.94000 32.807
45.96000 33.247
45.98000 35.291
46.00000 32.786
46.02000 38.069
46.04000 41.979
46.06000 41.505
46.08000 42.919
46.10000 52.357
46.12000 47.454
46.14000 46.992
46.16000 48.644
46.18000 48.782
46.20000 52.384
46.22000 54.875
46.24000 60.866
46.26000 63.433
46.28000 59.149
46.30000 58.165
46.32000 59.777
46.34000 63.588
46.36000 65.297
46.38000 63.680
46.40000 62.760
46.42000 63.147
46.44000 62.560
46.46000 61.375
46.48000 65.834
46.50000 67.145
46.52000 68.312
46.54000 72.263
46.56000 64.526
46.58000 62.644
46.60000 61.219
46.62000 64.188
46.64000 61.765
46.66000 61.204
46.68000 63.097
46.70000 62.402
46.72000 59.813
46.74000 58.146
46.76000 58.544
46.78000 61.238
46.80000 53.415
46.82000 48.822
46.84000 48.060
46.86000 48.055
46.88000 50.973
46.90000 44.997
46.92000 42.766
46.94000 44.236
46.96000 42.542
46.98000 39.085
47.00000 33.292
47.02000 37.266
47.04000 39.841
47.06000 34.718
47.08000 32.435
47.10000 30.361
47.12000 31.393
47.14000 30.513
47.16000 29.729
47.18000 27.490
47.20000 25.862
47.22000 25.551
47.24000 23.020
47.26000 21.345
47.28000 19.645
47.30000 22.197
47.32000 16.885
47.34000 16.282
47.36000 16.868
47.38000 11.697
47.40000 12.255
47.42000 12.025
47.44000 13.978
47.46000 12.229
47.48000 7.976
47.50000 7.064
47.52000 7.118
47.54000 8.380
47.56000 6.114
47.58000 4.090
47.60000 5.668
47.62000 6.469
47.64000 4.760
47.66000 5.206
47.68000 3.269
47.70000 -0.007
47.72000 -2.317
47.74000 -0.388
47.76000 1.235
47.78000 5.279
47.80000 2.764
47.82000 3.458
47.84000 6.644
47.86000 2.491
47.88000 0.781
47.90000 0.644
47.92000 0.974
47.94000 0.423
47.96000 -2.002
47.98000 -0.450
48.00000 -1.235
48.02000 -1.341
48.04000 -0.294
48.06000 2.701
48.08000 4.631
48.10000 2.355
48.12000 4.721
48.14000 0.616
48.16000 3.270
48.18000 1.181
48.20000 -0.103
48.22000 -2.845
48.24000 -1.990
48.26000 0.579
48.28000 0.946
48.30000 -0.608
48.32000 2.528
48.34000 2.539
48.36000 5.590
48.38000 2.598
48.40000 5.210
48.42000 6.464
48.44000 2.743
48.46000 2.692
48.48000 0.562
48.50000 -1.675
48.52000 2.461
48.54000 1.708
48.56000 1.755
48.58000 -2.764
48.60000 -0.693
48.62000 3.581
48.64000 2.974
48.66000 4.671
48.68000 5.247
48.70000 3.698
48.72000 3.208
48.74000 4.029
48.76000 3.129
48.78000 2.949
48.80000 6.605
48.82000 3.738
48.84000 3.566
48.86000 2.891
48.88000 2.124
48.90000 3.311
48.92000 3.823
48.94000 4.519
48.96000 5.286
48.98000 4.426
49.00000 3.398
49.02000 0.284
49.04000 0.672
49.06000 1.658
49.08000 3.708
49.10000 7.517
49.12000 1.857
49.14000 1.821
49.16000 3.031
49.18000 2.077
49.20000 0.560
49.22000 0.494
49.24000 8.728
49.26000 11.074
49.28000 8.733
49.30000 6.628
49.32000 5.903
49.34000 6.921
49.36000 7.538
49.38000 4.501
49.40000 8.978
49.42000 8.988
49.44000 4.571
49.46000 5.718
49.48000 5.300
49.50000 6.362
49.52000 5.236
49.54000 2.357
49.56000 -2.272
49.58000 1.012
49.60000 -2.620
49.62000 0.222
49.64000 0.397
49.66000 0.522
49.68000 5.610
49.70000 7.457
49.72000 7.179
49.74000 5.252
49.76000 6.506
49.78000 4.055
49.80000 4.500
49.82000 7.016
49.84000 4.884
49.86000 4.852
49.88000 2.867
49.90000 -0.543
49.92000 -0.661
49.94000 3.039
49.96000 4.438
49.98000 6.123
50.00000 6.684
50.02000 3.393
50.04000 1.951
50.06000 0.940
50.08000 1.240
50.10000 -0.092
50.12000 -0.096
50.14000 6.252
50.16000 10.657
50.18000 5.955
50.20000 1.518
50.22000 2.109
50.24000 2.367
50.26000 3.421
50.28000 2.975
50.30000 3.913
50.32000 3.663
50.34000 5.213
50.36000 5.784
50.38000 0.722
50.40000 5.881
50.42000 3.937
50.44000 5.879
50.46000 2.128
50.48000 -1.707
50.50000 1.231
50.52000 -2.257
50.54000 -2.639
50.56000 0.925
50.58000 0.887
50.60000 1.608
50.62000 2.474
50.64000 6.493
50.66000 1.904
50.68000 -1.054
50.70000 0.687
50.72000 2.179
50.74000 -2.213
50.76000 -1.697
50.78000 -0.281
50.80000 2.564
50.82000 1.620
50.84000 0.202
50.86000 3.246
50.88000 5.228
50.90000 2.976
50.92000 -0.104
50.94000 2.982
50.96000 2.958
50.98000 3.524
51.00000 2.836
51.02000 1.541
51.04000 -1.677
51.06000 1.736
51.08000 4.022
51.10000 0.774
51.12000 -0.798
51.14000 0.372
51.16000 -2.627
51.18000 -1.103
51.20000 3.077
51.22000 2.113
51.24000 1.783
51.26000 -0.157
51.28000 2.929
51.30000 4.759
51.32000 0.429
51.34000 0.555
51.36000 0.969
51.38000 2.783
51.40000 5.136
51.42000 2.140
51.44000 0.911
51.46000 2.509
51.48000 3.779
51.50000 4.916
51.52000 3.118
51.54000 4.135
51.56000 5.404
51.58000 3.470
51.60000 -2.611
51.62000 -1.774
51.64000 -1.526
51.66000 1.213
51.68000 4.212
51.70000 2.549
51.72000 0.252
51.74000 1.479
51.76000 -1.661
51.78000 -0.197
51.80000 0.413
51.82000 5.287
51.84000 5.395
51.86000 -0.828
51.88000 -1.292
51.90000 2.331
51.92000 1.974
51.94000 1.620
51.96000 4.551
51.98000 1.425
52.00000 2.311
52.02000 3.570
52.04000 4.301
52.06000 -0.372
52.08000 -0.315
52.10000 2.318
52.12000 3.336
52.14000 4.131
52.16000 5.681
52.18000 1.230
52.20000 2.143
52.22000 3.891
52.24000 4.399
52.26000 7.307
52.28000 6.711
52.30000 0.088
52.32000 0.757
52.34000 1.273
52.36000 4.237
52.38000 4.441
52.40000 2.361
52.42000 2.216
52.44000 3.715
52.46000 4.643
52.48000 1.196
52.50000 2.448
52.52000 7.506
52.54000 4.611
52.56000 0.999
52.58000 2.472
52.60000 3.087
52.62000 1.263
52.64000 0.273
52.66000 -2.541
52.68000 3.100
52.70000 7.802
52.72000 5.033
52.74000 1.667
52.76000 -0.219
52.78000 0.107
52.80000 5.922
52.82000 4.821
52.84000 5.357
52.86000 2.824
52.88000 2.809
52.90000 5.091
52.92000 4.605
52.94000 2.023
52.96000 2.878
52.98000 5.230
53.00000 2.907
53.02000 0.030
53.04000 2.369
53.06000 2.845
53.08000 3.023
53.10000 8.669
53.12000 5.273
53.14000 3.523
53.16000 4.079
53.18000 1.137
53.20000 4.147
53.22000 2.654
53.24000 5.665
53.26000 3.178
53.28000 4.054
53.30000 8.713
53.32000 6.322
53.34000 2.783
53.36000 1.865
53.38000 3.566
53.40000 2.196
53.42000 0.912
53.44000 3.582
53.46000 3.274
53.48000 4.405
53.50000 2.855
53.52000 2.084
53.54000 3.233
53.56000 -1.183
53.58000 -2.548
53.60000 -0.310
53.62000 0.305
53.64000 3.594
53.66000 4.733
53.68000 4.741
53.70000 2.104
53.72000 2.338
53.74000 4.768
53.76000 2.209
53.78000 -0.844
53.80000 -0.099
53.82000 1.127
53.84000 -0.420
53.86000 0.789
53.88000 1.948
53.90000 3.931
53.92000 0.633
53.94000 0.490
53.96000 0.182
53.98000 1.506
54.00000 1.832
54.02000 0.961
54.04000 -0.154
54.06000 1.774
54.08000 -0.076
54.10000 4.924
54.12000 3.884
54.14000 0.585
54.16000 2.677
54.18000 -0.449
54.20000 -0.969
54.22000 0.755
54.24000 2.050
54.26000 4.746
54.28000 2.466
54.30000 2.352
54.32000 2.622
54.34000 4.294
54.36000 8.370
54.38000 -0.516
54.40000 -2.533
54.42000 -0.432
54.44000 3.081
54.46000 2.723
54.48000 3.625
54.50000 1.498
54.52000 2.168
54.54000 1.388
54.56000 1.425
54.58000 4.803
54.60000 3.332
54.62000 1.620
54.64000 2.482
54.66000 1.238
54.68000 -1.276
54.70000 -0.228
54.72000 3.617
54.74000 5.244
54.76000 3.234
54.78000 -0.834
54.80000 4.938
54.82000 7.898
54.84000 1.360
54.86000 -2.530
54.88000 0.838
54.90000 1.552
54.92000 5.377
54.94000 4.466
54.96000 0.083
54.98000 2.793
55.00000 0.866
55.02000 2.357
55.04000 2.621
55.06000 5.929
55.08000 0.719
55.10000 -0.197
55.12000 -1.960
55.14000 0.268
55.16000 1.627
55.18000 0.088
55.20000 0.453
55.22000 5.172
55.24000 2.555
55.26000 5.776
55.28000 5.610
55.30000 4.892
55.32000 0.380
55.34000 -1.576
55.36000 0.325
55.38000 -0.712
55.40000 1.789
55.42000 1.531
55.44000 2.332
55.46000 3.038
55.48000 2.254
55.50000 4.242
55.52000 5.353
55.54000 1.168
55.56000 -2.497
55.58000 0.955
55.60000 2.660
55.62000 1.158
55.64000 4.360
55.66000 7.994
55.68000 3.510
55.70000 1.748
55.72000 6.338
55.74000 7.140
55.76000 3.317
55.78000 0.569
55.80000 2.471
55.82000 4.600
55.84000 4.370
55.86000 3.908
55.88000 5.261
55.90000 0.926
55.92000 0.705
55.94000 3.235
55.96000 5.078
55.98000 1.197
56.00000 0.223
56.02000 1.835
56.04000 0.373
56.06000 1.097
56.08000 0.081
56.10000 0.363
56.12000 -2.485
56.14000 -0.584
56.16000 1.897
56.18000 2.980
56.20000 1.576
56.22000 3.105
56.24000 3.386
56.26000 -1.585
56.28000 -0.579
56.30000 0.244
56.32000 2.603
56.34000 1.586
56.36000 1.667
56.38000 7.256
56.40000 9.222
56.42000 4.115
56.44000 1.633
56.46000 0.264
56.48000 2.518
56.50000 2.877
56.52000 0.842
56.54000 -0.779
56.56000 -1.471
56.58000 -0.325
56.60000 0.043
56.62000 0.359
56.64000 1.829
56.66000 2.901
56.68000 6.220
56.70000 6.688
56.72000 2.273
56.74000 1.054
56.76000 2.388
56.78000 5.540
56.80000 5.088
56.82000 2.268
56.84000 5.154
56.86000 3.045
56.88000 6.482
56.90000 5.365
56.92000 -2.444
56.94000 2.489
56.96000 2.958
56.98000 4.046
57.00000 2.154
57.02000 6.266
57.04000 5.307
57.06000 6.171
57.08000 3.535
57.10000 5.410
57.12000 8.100
57.14000 3.258
57.16000 1.992
57.18000 3.567
57.20000 2.492
57.22000 1.420
57.24000 3.306
57.26000 2.363
57.28000 -2.441
57.30000 3.356
57.32000 6.205
57.34000 3.411
57.36000 5.063
57.38000 5.246
57.40000 1.671
57.42000 2.565
57.44000 4.587
57.46000 2.585
57.48000 3.746
57.50000 0.207
57.52000 0.749
57.54000 3.853
57.56000 3.354
57.58000 5.407
57.60000 6.814
57.62000 5.050
57.64000 4.574
57.66000 2.328
57.68000 1.894
57.70000 2.027
57.72000 1.432
57.74000 2.804
57.76000 3.398
57.78000 -1.000
57.80000 -2.427
57.82000 1.938
57.84000 0.561
57.86000 2.822
57.88000 1.839
57.90000 -1.406
57.92000 1.750
57.94000 1.182
57.96000 1.744
57.98000 2.188
58.00000 5.505
58.02000 4.609
58.04000 6.248
58.06000 1.855
58.08000 3.292
58.10000 1.096
58.12000 1.044
58.14000 1.392
58.16000 -1.223
58.18000 1.339
58.20000 1.259
58.22000 1.585
58.24000 -0.889
58.26000 1.203
58.28000 2.181
58.30000 4.707
58.32000 1.571
58.34000 1.430
58.36000 1.152
58.38000 0.914
58.40000 -0.644
58.42000 3.096
58.44000 3.829
58.46000 0.999
58.48000 -0.653
58.50000 1.867
58.52000 1.794
58.54000 -0.738
58.56000 0.492
58.58000 2.581
58.60000 2.371
58.62000 1.648
58.64000 -2.416
58.66000 0.724
58.68000 0.162
58.70000 7.073
58.72000 3.434
58.74000 -1.556
58.76000 0.040
58.78000 -0.123
58.80000 1.231
58.82000 4.889
58.84000 3.461
58.86000 2.916
58.88000 4.092
58.90000 3.293
58.92000 4.119
58.94000 3.583
58.96000 2.768
58.98000 3.918
59.00000 5.697
59.02000 0.723
59.04000 -1.243
59.06000 -0.690
59.08000 2.393
59.10000 2.861
59.12000 4.021
59.14000 0.680
59.16000 -1.547
59.18000 0.539
59.20000 7.118
59.22000 6.002
59.24000 2.089
59.26000 -0.212
59.28000 -0.200
59.30000 -0.210
59.32000 -0.596
59.34000 0.191
59.36000 2.411
59.38000 6.825
59.40000 3.865
59.42000 4.108
59.44000 2.591
59.46000 2.366
59.48000 2.564
59.50000 -0.571
59.52000 2.797
59.54000 4.897
59.56000 3.747
59.58000 3.851
59.60000 2.930
59.62000 2.369
59.64000 2.823
59.66000 1.433
59.68000 3.824
59.70000 3.029
59.72000 0.430
59.74000 -2.356
59.76000 -1.686
59.78000 3.993
59.80000 5.617
59.82000 2.273
59.84000 1.968
59.86000 2.372
59.88000 9.152
59.90000 6.969
59.92000 -1.260
59.94000 2.571
59.96000 2.434
59.98000 0.415
60.00000 2.437
60.02000 5.622
60.04000 6.341
60.06000 2.687
60.08000 2.373
60.10000 3.495
60.12000 1.904
60.14000 1.105
60.16000 -1.907
60.18000 -2.036
60.20000 -0.132
60.22000 3.809
60.24000 4.698
60.26000 2.803
60.28000 3.891
60.30000 3.525
60.32000 2.805
60.34000 1.440
60.36000 0.517
60.38000 2.152
60.40000 3.632
60.42000 2.802
60.44000 1.287
60.46000 0.595
60.48000 0.906
60.50000 2.008
60.52000 -1.889
60.54000 -0.186
60.56000 2.005
60.58000 3.438
60.60000 5.996
60.62000 2.630
60.64000 0.579
60.66000 1.220
60.68000 0.412
60.70000 4.620
60.72000 1.399
60.74000 0.105
60.76000 0.419
60.78000 4.807
60.80000 1.836
60.82000 3.061
60.84000 -0.749
60.86000 -1.281
60.88000 1.315
60.90000 3.092
60.92000 1.804
60.94000 2.749
60.96000 3.364
60.98000 -2.346
61.00000 -1.030
61.02000 0.378
61.04000 -0.525
61.06000 -1.927
61.08000 0.618
61.10000 4.236
61.12000 0.733
61.14000 0.717
61.16000 -0.666
61.18000 0.180
61.20000 -0.058
61.22000 -0.479
61.24000 0.750
61.26000 2.401
61.28000 4.223
61.30000 2.668
61.32000 0.347
61.34000 2.310
61.36000 -0.145
61.38000 -0.122
61.40000 3.489
61.42000 2.641
61.44000 4.155
61.46000 -1.987
61.48000 -2.318
61.50000 2.783
61.52000 -0.776
61.54000 -1.536
61.56000 0.580
61.58000 0.155
61.60000 -0.738
61.62000 -1.203
61.64000 0.138
61.66000 2.839
61.68000 4.838
61.70000 3.078
61.72000 1.114
61.74000 3.494
61.76000 3.230
61.78000 1.648
61.80000 2.960
61.82000 4.528
61.84000 2.242
61.86000 -0.805
61.88000 1.060
61.90000 -0.480
61.92000 0.641
61.94000 3.139
61.96000 6.433
61.98000 4.561
62.00000 1.895
62.02000 0.120
62.04000 1.829
62.06000 1.320
62.08000 -0.791
62.10000 0.977
62.12000 1.451
62.14000 -1.006
62.16000 0.701
62.18000 1.027
62.20000 -0.014
62.22000 0.959
62.24000 2.928
62.26000 3.031
62.28000 1.598
62.30000 0.433
62.32000 -0.014
62.34000 2.489
62.36000 1.735
62.38000 0.631
62.40000 2.859
62.42000 2.894
62.44000 0.604
62.46000 -0.477
62.48000 1.588
62.50000 3.262
62.52000 2.004
62.54000 0.990
62.56000 1.334
62.58000 0.970
62.60000 3.501
62.62000 2.799
62.64000 4.048
62.66000 2.768
62.68000 2.160
62.70000 3.745
62.72000 3.117
62.74000 2.606
62.76000 1.973
62.78000 6.414
62.80000 8.093
62.82000 5.696
62.84000 3.439
62.86000 0.190
62.88000 0.045
62.90000 -1.146
62.92000 -2.275
62.94000 1.108
62.96000 5.198
62.98000 1.421
63.00000 -0.317
63.02000 0.622
63.04000 2.372
63.06000 3.516
63.08000 4.179
63.10000 3.503
63.12000 4.037
63.14000 0.154
63.16000 0.056
63.18000 2.683
63.20000 1.938
63.22000 4.094
63.24000 5.136
63.26000 2.442
63.28000 -1.219
63.30000 1.216
63.32000 2.590
63.34000 1.813
63.36000 0.263
63.38000 5.236
63.40000 3.104
63.42000 3.223
63.44000 0.975
63.46000 -0.762
63.48000 0.427
63.50000 2.907
63.52000 2.172
63.54000 2.063
63.56000 2.173
63.58000 0.232
63.60000 -2.284
63.62000 -2.173
63.64000 -0.392
63.66000 -0.206
63.68000 3.287
63.70000 3.934
63.72000 -0.098
63.74000 -0.285
63.76000 0.937
63.78000 1.948
63.80000 3.812
63.82000 3.467
63.84000 4.001
63.86000 4.742
63.88000 2.541
63.90000 2.264
63.92000 -1.489
63.94000 -1.102
63.96000 -1.011
63.98000 2.260
64.00000 3.388
64.02000 -0.698
64.04000 0.016
64.06000 1.138
64.08000 3.974
64.10000 0.596
64.12000 -1.966
64.14000 0.180
64.16000 3.636
64.18000 5.265
64.20000 1.507
64.22000 1.721
64.24000 2.871
64.26000 3.629
64.28000 3.085
64.30000 2.436
64.32000 2.557
64.34000 3.192
64.36000 -0.272
64.38000 0.453
64.40000 -0.072
64.42000 2.583
64.44000 2.408
64.46000 2.295
64.48000 0.270
64.50000 -0.842
64.52000 1.482
64.54000 1.086
64.56000 0.379
64.58000 0.788
64.60000 0.330
64.62000 1.053
64.64000 0.102
64.66000 1.086
64.68000 1.885
64.70000 3.436
64.72000 4.020
64.74000 2.276
64.76000 2.378
64.78000 3.109
64.80000 0.360
64.82000 0.473
64.84000 1.747
64.86000 1.663
64.88000 -1.551
64.90000 0.944
64.92000 3.465
64.94000 2.378
64.96000 0.008
64.98000 1.175
65.00000 -0.927
65.02000 0.350
65.04000 2.811
65.06000 4.075
65.08000 4.440
65.10000 4.048
65.12000 5.321
65.14000 2.612
65.16000 2.846
65.18000 2.038
65.20000 -2.258
65.22000 2.504
65.24000 4.913
65.26000 5.659
65.28000 5.881
65.30000 3.722
65.32000 4.204
65.34000 4.521
65.36000 1.295
65.38000 2.248
65.40000 2.577
65.42000 1.806
65.44000 0.523
65.46000 -0.648
65.48000 1.662
65.50000 2.056
65.52000 3.479
65.54000 2.741
65.56000 0.096
65.58000 -0.933
65.60000 -0.238
65.62000 -0.804
65.64000 -0.267
65.66000 3.707
65.68000 4.207
65.70000 3.067
65.72000 -0.813
65.74000 1.274
65.76000 3.816
65.78000 3.476
65.80000 -1.050
65.82000 -0.604
65.84000 -0.707
65.86000 0.902
65.88000 1.743
65.90000 0.035
65.92000 1.768
65.94000 1.866
65.96000 0.336
65.98000 -2.293
66.00000 1.797
66.02000 2.976
66.04000 3.112
66.06000 -0.419
66.08000 0.592
66.10000 1.317
66.12000 -1.850
66.14000 -0.779
66.16000 2.903
66.18000 -0.648
66.20000 -1.645
66.22000 1.210
66.24000 -0.436
66.26000 -1.536
66.28000 0.920
66.30000 2.953
66.32000 2.985
66.34000 3.866
66.36000 1.160
66.38000 -1.360
66.40000 0.425
66.42000 -1.413
66.44000 -0.896
66.46000 -0.774
66.48000 -0.305
66.50000 -0.380
66.52000 -1.186
66.54000 -2.322
66.56000 -1.808
66.58000 -0.998
66.60000 0.951
66.62000 4.033
66.64000 3.109
66.66000 4.316
66.68000 3.452
66.70000 6.785
66.72000 4.115
66.74000 2.987
66.76000 1.814
66.78000 1.433
66.80000 3.476
66.82000 4.270
66.84000 3.356
66.86000 4.663
66.88000 2.678
66.90000 5.469
66.92000 6.082
66.94000 3.276
66.96000 6.606
66.98000 7.224
67.00000 7.123
67.02000 6.768
67.04000 7.934
67.06000 6.896
67.08000 7.367
67.10000 4.157
67.12000 5.423
67.14000 5.446
67.16000 5.870
67.18000 9.402
67.20000 8.008
67.22000 8.709
67.24000 8.641
67.26000 10.362
67.28000 8.941
67.30000 7.805
67.32000 7.393
67.34000 9.957
67.36000 8.529
67.38000 9.188
67.40000 11.934
67.42000 13.373
67.44000 11.257
67.46000 13.256
67.48000 10.629
67.50000 11.416
67.52000 13.818
67.54000 14.669
67.56000 14.946
67.58000 15.771
67.60000 15.231
67.62000 12.869
67.64000 13.868
67.66000 14.881
67.68000 14.122
67.70000 14.703
67.72000 18.891
67.74000 15.663
67.76000 11.323
67.78000 12.769
67.80000 15.778
67.82000 16.985
67.84000 18.394
67.86000 19.864
67.88000 19.795
67.90000 15.808
67.92000 15.282
67.94000 14.314
67.96000 15.144
67.98000 16.109
68.00000 13.139
68.02000 11.608
68.04000 13.887
68.06000 10.493
68.08000 13.318
68.10000 16.117
68.12000 14.850
68.14000 13.003
68.16000 11.061
68.18000 10.416
68.20000 11.816
68.22000 9.731
68.24000 8.582
68.26000 7.532
68.28000 8.489
68.30000 12.354
68.32000 13.463
68.34000 7.565
68.36000 7.592
68.38000 6.692
68.40000 5.078
68.42000 5.537
68.44000 6.635
68.46000 5.617
68.48000 6.541
68.50000 6.699
68.52000 4.030
68.54000 6.010
68.56000 4.836
68.58000 4.970
68.60000 5.366
68.62000 5.101
68.64000 2.457
68.66000 3.801
68.68000 3.007
68.70000 2.972
68.72000 0.779
68.74000 2.801
68.76000 0.264
68.78000 -0.616
68.80000 3.913
68.82000 4.637
68.84000 3.046
68.86000 1.326
68.88000 4.243
68.90000 2.023
68.92000 -1.960
68.94000 -2.178
68.96000 3.168
68.98000 5.693
69.00000 3.521
69.02000 0.422
69.04000 1.301
69.06000 3.388
69.08000 2.859
69.10000 4.177
69.12000 2.009
69.14000 -1.266
69.16000 -2.169
69.18000 1.920
69.20000 2.271
69.22000 -1.161
69.24000 1.102
69.26000 0.275
69.28000 -0.214
69.30000 1.520
69.32000 0.107
69.34000 -0.046
69.36000 3.579
69.38000 2.312
69.40000 1.615
69.42000 5.134
69.44000 3.292
69.46000 2.241
69.48000 0.195
69.50000 1.595
69.52000 2.496
69.54000 1.119
69.56000 1.719
69.58000 1.514
69.60000 1.596
69.62000 -0.019
69.64000 4.430
69.66000 -0.430
69.68000 -2.132
69.70000 -0.875
69.72000 2.243
69.74000 1.702
69.76000 -0.932
69.78000 3.188
69.80000 1.989
69.82000 1.741
69.84000 0.269
69.86000 -1.092
69.88000 0.207
69.90000 -0.994
69.92000 1.655
69.94000 1.859
69.96000 1.879
69.98000 0.896
70.00000 0.171
70.02000 0.156
70.04000 2.091
70.06000 3.037
70.08000 1.792
70.10000 3.050
70.12000 2.427
70.14000 1.646
70.16000 1.511
70.18000 0.410
70.20000 0.814
70.22000 1.689
70.24000 0.103
70.26000 -0.455
70.28000 0.322
70.30000 -1.106
70.32000 -0.358
70.34000 3.440
70.36000 4.196
70.38000 1.644
70.40000 -1.345
70.42000 -1.270
70.44000 -1.304
70.46000 0.417
70.48000 4.421
70.50000 3.568
70.52000 0.990
70.54000 -0.243
70.56000 0.551
70.58000 1.231
70.60000 4.283
70.62000 4.864
70.64000 4.933
70.66000 2.282
70.68000 -1.154
70.70000 -2.045
70.72000 -0.496
70.74000 1.096
70.76000 1.635
70.78000 2.733
70.80000 4.934
70.82000 4.969
70.84000 3.671
70.86000 2.747
70.88000 4.857
70.90000 3.754
70.92000 1.265
70.94000 1.516
70.96000 1.142
70.98000 0.109
71.00000 2.022
71.02000 2.559
71.04000 3.693
71.06000 1.156
71.08000 -0.741
71.10000 0.104
71.12000 1.943
71.14000 4.953
71.16000 5.648
71.18000 2.398
71.20000 0.333
71.22000 -0.658
71.24000 1.906
71.26000 4.652
71.28000 3.085
71.30000 -0.143
71.32000 3.331
71.34000 1.368
71.36000 2.641
71.38000 1.595
71.40000 -0.238
71.42000 2.458
71.44000 3.029
71.46000 3.718
71.48000 1.362
71.50000 -1.612
71.52000 0.258
71.54000 2.414
71.56000 5.297
71.58000 3.649
71.60000 2.969
71.62000 1.823
71.64000 0.541
71.66000 -0.332
71.68000 0.144
71.70000 0.016
71.72000 1.813
71.74000 0.529
71.76000 1.557
71.78000 2.902
71.80000 2.057
71.82000 0.307
71.84000 -0.208
71.86000 0.735
71.88000 -0.818
71.90000 -0.226
71.92000 -1.379
71.94000 2.641
71.96000 5.802
71.98000 2.810
72.00000 0.352
72.02000 -0.243
72.04000 0.090
72.06000 2.581
72.08000 0.911
72.10000 -1.989
72.12000 0.088
72.14000 0.534
72.16000 1.116
72.18000 -0.190
72.20000 -0.938
72.22000 1.429
72.24000 3.494
72.26000 2.427
72.28000 3.607
72.30000 2.392
72.32000 3.598
72.34000 1.576
72.36000 1.438
72.38000 0.622
72.40000 -0.984
72.42000 1.051
72.44000 2.447
72.46000 0.393
72.48000 1.735
72.50000 2.873
72.52000 -0.843
72.54000 1.016
72.56000 3.964
72.58000 2.315
72.60000 1.001
72.62000 1.587
72.64000 2.802
72.66000 3.024
72.68000 2.396
72.70000 2.044
72.72000 0.168
72.74000 -0.023
72.76000 0.120
72.78000 1.784
72.80000 0.502
72.82000 2.494
72.84000 3.862
72.86000 3.757
72.88000 2.726
72.90000 1.771
72.92000 1.339
72.94000 2.297
72.96000 1.116
72.98000 1.546
73.00000 2.118
73.02000 3.949
73.04000 1.131
73.06000 1.737
73.08000 2.293
73.10000 2.872
73.12000 2.991
73.14000 1.480
73.16000 1.237
73.18000 2.461
73.20000 5.481
73.22000 1.221
73.24000 -0.830
73.26000 0.159
73.28000 1.381
73.30000 1.310
73.32000 -0.085
73.34000 2.061
73.36000 2.826
73.38000 3.256
73.40000 1.473
73.42000 3.688
73.44000 3.255
73.46000 2.972
73.48000 4.787
73.50000 2.246
73.52000 0.478
73.54000 0.301
73.56000 0.335
73.58000 2.579
73.60000 2.562
73.62000 3.030
73.64000 1.758
73.66000 -0.283
73.68000 0.267
73.70000 3.270
73.72000 1.521
73.74000 0.815
73.76000 -1.313
73.78000 -1.952
73.80000 3.556
73.82000 8.599
73.84000 4.053
73.86000 3.181
73.88000 2.107
73.90000 3.466
73.92000 4.347
73.94000 4.940
73.96000 3.702
73.98000 3.100
74.00000 2.987
74.02000 3.282
74.04000 3.232
74.06000 1.438
74.08000 0.830
74.10000 2.318
74.12000 3.816
74.14000 1.895
74.16000 2.429
74.18000 1.092
74.20000 2.221
74.22000 2.722
74.24000 3.455
74.26000 0.075
74.28000 0.352
74.30000 0.226
74.32000 0.855
74.34000 1.496
74.36000 2.317
74.38000 0.217
74.40000 -1.365
74.42000 2.606
74.44000 3.546
74.46000 5.311
74.48000 5.749
74.50000 4.802
74.52000 2.907
74.54000 -1.924
74.56000 2.249
74.58000 1.529
74.60000 1.275
74.62000 4.107
74.64000 3.794
74.66000 4.941
74.68000 4.646
74.70000 4.717
74.72000 3.913
74.74000 3.764
74.76000 0.811
74.78000 3.102
74.80000 4.080
74.82000 4.456
74.84000 3.545
74.86000 5.112
74.88000 3.187
74.90000 1.993
74.92000 0.635
74.94000 1.480
74.96000 0.868
74.98000 0.592
75.00000 4.762
75.02000 4.042
75.04000 3.854
75.06000 1.287
75.08000 2.486
75.10000 2.612
75.12000 1.798
75.14000 -0.116
75.16000 0.543
75.18000 0.914
75.20000 1.219
75.22000 1.521
75.24000 2.038
75.26000 0.443
75.28000 -0.488
75.30000 3.552
75.32000 3.224
75.34000 3.920
75.36000 4.737
75.38000 6.477
75.40000 4.303
75.42000 2.332
75.44000 2.588
75.46000 0.450
75.48000 0.582
75.50000 0.700
75.52000 1.189
75.54000 0.491
75.56000 1.290
75.58000 2.578
75.60000 1.286
75.62000 0.554
75.64000 1.390
75.66000 1.000
75.68000 -0.866
75.70000 -1.980
75.72000 1.395
75.74000 1.761
75.76000 4.103
75.78000 3.674
75.80000 3.967
75.82000 3.574
75.84000 0.821
75.86000 1.135
75.88000 0.071
75.90000 -0.066
75.92000 2.238
75.94000 3.024
75.96000 4.029
75.98000 2.786
76.00000 3.284
76.02000 5.156
76.04000 0.585
76.06000 1.178
76.08000 0.394
76.10000 4.276
76.12000 6.297
76.14000 4.559
76.16000 0.494
76.18000 2.828
76.20000 3.711
76.22000 -0.082
76.24000 0.797
76.26000 -0.006
76.28000 3.039
76.30000 4.395
76.32000 5.248
76.34000 5.108
76.36000 0.039
76.38000 -0.795
76.40000 2.007
76.42000 1.622
76.44000 1.359
76.46000 1.552
76.48000 -0.569
76.50000 -0.218
76.52000 3.681
76.54000 1.913
76.56000 2.136
76.58000 3.205
76.60000 4.495
76.62000 3.396
76.64000 1.351
76.66000 3.509
76.68000 1.102
76.70000 0.455
76.72000 -0.331
76.74000 0.001
76.76000 -0.119
76.78000 -0.040
76.80000 0.670
76.82000 5.251
76.84000 2.613
76.86000 3.426
76.88000 7.554
76.90000 1.016
76.92000 -1.978
76.94000 -0.376
76.96000 3.201
76.98000 5.044
77.00000 4.793
77.02000 3.581
77.04000 1.481
77.06000 -1.091
77.08000 -1.983
77.10000 0.315
77.12000 3.085
77.14000 1.588
77.16000 -1.987
77.18000 -0.827
77.20000 0.582
77.22000 1.619
77.24000 1.375
77.26000 1.203
77.28000 2.380
77.30000 2.003
77.32000 -0.616
77.34000 -0.626
77.36000 -1.440
77.38000 -1.503
77.40000 3.948
77.42000 4.938
77.44000 6.689
77.46000 8.105
77.48000 2.441
77.50000 0.764
77.52000 0.960
77.54000 1.311
77.56000 -0.224
77.58000 -1.485
77.60000 -1.763
77.62000 2.635
77.64000 4.084
77.66000 1.866
77.68000 2.360
77.70000 2.062
77.72000 2.184
77.74000 1.386
77.76000 0.336
77.78000 0.097
77.80000 1.564
77.82000 3.636
77.84000 3.651
77.86000 2.399
77.88000 1.044
77.90000 1.409
77.92000 3.854
77.94000 6.566
77.96000 3.004
77.98000 1.415
78.00000 -1.993
78.02000 1.736
78.04000 0.563
78.06000 0.172
78.08000 2.172
78.10000 4.662
78.12000 2.116
78.14000 2.378
78.16000 4.121
78.18000 2.498
78.20000 3.084
78.22000 3.845
78.24000 3.040
78.26000 2.799
78.28000 0.513
78.30000 -0.298
78.32000 0.978
78.34000 0.053
78.36000 3.341
78.38000 4.479
78.40000 1.992
78.42000 2.276
78.44000 4.119
78.46000 3.232
78.48000 3.149
78.50000 -0.769
78.52000 1.940
78.54000 2.835
78.56000 1.002
78.58000 -2.017
78.60000 -1.846
78.62000 -0.254
78.64000 0.459
78.66000 2.030
78.68000 1.183
78.70000 0.779
78.72000 2.156
78.74000 0.243
78.76000 0.139
78.78000 2.049
78.80000 5.001
78.82000 0.737
78.84000 0.182
78.86000 1.242
78.88000 0.095
78.90000 0.375
78.92000 2.499
78.94000 1.506
78.96000 -0.801
78.98000 0.995
79.00000 2.237
79.02000 1.629
79.04000 1.532
79.06000 3.850
79.08000 1.862
79.10000 2.399
79.12000 3.058
79.14000 -1.879
79.16000 -0.597
79.18000 -0.904
79.20000 3.076
79.22000 1.870
79.24000 0.009
79.26000 1.140
79.28000 1.565
79.30000 0.815
79.32000 0.405
79.34000 -0.614
79.36000 4.510
79.38000 3.553
79.40000 1.729
79.42000 2.525
79.44000 -1.263
79.46000 -2.053
79.48000 -0.757
79.50000 -1.628
79.52000 2.096
79.54000 3.368
79.56000 3.388
79.58000 0.506
79.60000 -0.538
79.62000 2.160
79.64000 0.655
79.66000 -0.395
79.68000 0.827
79.70000 -1.307
79.72000 0.216
79.74000 1.523
79.76000 2.776
79.78000 0.623
79.80000 1.762
79.82000 2.988
79.84000 2.175
79.86000 2.853
79.88000 1.198
79.90000 0.134
79.92000 -2.106
79.94000 1.388
79.96000 0.795
79.98000 4.664
80.00000 4.895
80.02000 4.267
80.04000 3.895
80.06000 4.303
80.08000 0.910
80.10000 3.155
80.12000 4.106
80.14000 -1.382
80.16000 -1.231
80.18000 1.614
80.20000 0.962
80.22000 3.216
80.24000 3.062
80.26000 2.860
80.28000 2.835
80.30000 3.730
80.32000 0.919
80.34000 0.681
80.36000 3.219
80.38000 1.801
80.40000 -0.493
80.42000 2.681
80.44000 5.790
80.46000 1.668
80.48000 0.246
80.50000 1.998
80.52000 4.650
80.54000 3.477
80.56000 1.453
80.58000 -2.184
80.60000 1.768
80.62000 3.298
80.64000 4.415
80.66000 3.531
80.68000 2.895
80.70000 2.125
80.72000 -0.321
80.74000 0.013
80.76000 6.474
80.78000 4.692
80.80000 3.654
80.82000 3.604
80.84000 5.732
80.86000 6.842
80.88000 6.816
80.90000 6.388
80.92000 9.284
80.94000 11.463
80.96000 12.068
80.98000 9.993
81.00000 8.503
81.02000 6.931
81.04000 7.028
81.06000 5.605
81.08000 8.520
81.10000 8.100
81.12000 9.341
81.14000 9.903
81.16000 8.106
81.18000 14.323
81.20000 14.269
81.22000 14.647
81.24000 12.616
81.26000 12.990
81.28000 15.164
81.30000 11.131
81.32000 7.561
81.34000 13.868
81.36000 16.894
81.38000 13.036
81.40000 12.620
81.42000 13.696
81.44000 11.862
81.46000 11.060
81.48000 12.182
81.50000 15.418
81.52000 17.093
81.54000 18.073
81.56000 18.213
81.58000 15.869
81.60000 18.011
81.62000 18.402
81.64000 17.381
81.66000 15.675
81.68000 18.101
81.70000 18.914
81.72000 16.423
81.74000 17.014
81.76000 17.184
81.78000 13.685
81.80000 15.823
81.82000 16.947
81.84000 18.615
81.86000 17.368
81.88000 17.468
81.90000 17.488
81.92000 16.298
81.94000 20.158
81.96000 17.098
81.98000 16.304
82.00000 16.408
82.02000 19.145
82.04000 16.734
82.06000 16.496
82.08000 13.399
82.10000 14.858
82.12000 17.329
82.14000 17.760
82.16000 17.718
82.18000 17.176
82.20000 18.166
82.22000 15.441
82.24000 13.295
82.26000 12.836
82.28000 9.579
82.30000 12.993
82.32000 13.681
82.34000 13.786
82.36000 10.986
82.38000 9.339
82.40000 6.625
82.42000 9.967
82.44000 8.707
82.46000 11.528
82.48000 8.191
82.50000 5.601
82.52000 5.521
82.54000 8.146
82.56000 10.897
82.58000 10.156
82.60000 11.131
82.62000 8.418
82.64000 3.316
82.66000 3.803
82.68000 2.527
82.70000 2.650
82.72000 2.362
82.74000 8.063
82.76000 7.660
82.78000 5.560
82.80000 3.692
82.82000 2.152
82.84000 0.789
82.86000 3.120
82.88000 4.206
82.90000 4.870
82.92000 3.442
82.94000 4.588
82.96000 2.820
82.98000 2.889
83.00000 -0.240
83.02000 -1.984
83.04000 3.282
83.06000 6.835
83.08000 0.927
83.10000 -0.853
83.12000 -0.460
83.14000 -0.071
83.16000 -0.594
83.18000 2.500
83.20000 0.622
83.22000 -2.160
83.24000 -1.708
83.26000 -0.164
83.28000 0.546
83.30000 0.508
83.32000 -1.337
83.34000 -0.718
83.36000 -0.384
83.38000 1.810
83.40000 -0.118
83.42000 -1.849
83.44000 -0.145
83.46000 -1.290
83.48000 1.710
83.50000 3.296
83.52000 0.673
83.54000 -1.377
83.56000 0.289
83.58000 0.295
83.60000 -2.039
83.62000 0.404
83.64000 0.987
83.66000 -1.968
83.68000 -0.557
83.70000 3.124
83.72000 3.241
83.74000 1.929
83.76000 2.389
83.78000 3.943
83.80000 3.769
83.82000 2.806
83.84000 0.534
83.86000 -0.719
83.88000 2.595
83.90000 0.877
83.92000 -2.085
83.94000 0.604
83.96000 1.998
83.98000 0.412
84.00000 0.109
84.02000 3.149
84.04000 3.170
84.06000 0.998
84.08000 3.153
84.10000 1.743
84.12000 5.402
84.14000 5.662
84.16000 0.006
84.18000 1.363
84.20000 3.175
84.22000 4.801
84.24000 0.830
84.26000 -1.183
84.28000 -0.650
84.30000 -0.949
84.32000 -1.017
84.34000 -0.546
84.36000 2.267
84.38000 2.069
84.40000 1.088
84.42000 4.537
84.44000 2.993
84.46000 0.763
84.48000 -0.751
84.50000 -2.114
84.52000 0.646
84.54000 2.841
84.56000 -0.687
84.58000 -1.341
84.60000 0.165
84.62000 1.389
84.64000 1.032
84.66000 1.036
84.68000 0.369
84.70000 1.278
84.72000 4.008
84.74000 7.086
84.76000 5.751
84.78000 0.001
84.80000 -0.558
84.82000 0.260
84.84000 3.008
84.86000 0.633
84.88000 3.678
84.90000 7.463
84.92000 6.010
84.94000 3.007
84.96000 2.186
84.98000 1.477
85.00000 0.443
85.02000 -0.048
85.04000 0.919
85.06000 -0.056
85.08000 3.751
85.10000 4.999
85.12000 7.340
85.14000 6.431
85.16000 4.987
85.18000 6.389
85.20000 8.556
85.22000 7.917
85.24000 6.581
85.26000 7.358
85.28000 9.201
85.30000 7.116
85.32000 6.451
85.34000 4.476
85.36000 6.165
85.38000 7.673
85.40000 7.951
85.42000 11.206
85.44000 12.862
85.46000 13.926
85.48000 10.812
85.50000 10.646
85.52000 10.408
85.54000 10.808
85.56000 12.376
85.58000 14.493
85.60000 17.137
85.62000 15.546
85.64000 13.475
85.66000 7.475
85.68000 8.499
85.70000 14.870
85.72000 16.030
85.74000 17.711
85.76000 19.136
85.78000 19.040
85.80000 16.429
85.82000 15.569
85.84000 16.140
85.86000 17.806
85.88000 20.116
85.90000 18.541
85.92000 15.679
85.94000 13.504
85.96000 14.299
85.98000 15.430
86.00000 19.994
86.02000 18.122
86.04000 19.961
86.06000 18.862
86.08000 18.756
86.10000 19.343
86.12000 18.218
86.14000 12.575
86.16000 10.054
86.18000 16.109
86.20000 17.788
86.22000 15.796
86.24000 13.299
86.26000 13.085
86.28000 14.567
86.30000 16.448
86.32000 16.281
86.34000 11.755
86.36000 11.513
86.38000 12.485
86.40000 12.831
86.42000 13.906
86.44000 12.014
86.46000 8.214
86.48000 6.324
86.50000 8.777
86.52000 7.242
86.54000 7.265
86.56000 5.734
86.58000 4.314
86.60000 7.396
86.62000 8.602
86.64000 9.571
86.66000 7.164
86.68000 8.129
86.70000 8.978
86.72000 7.777
86.74000 3.106
86.76000 2.472
86.78000 4.219
86.80000 6.991
86.82000 4.641
86.84000 4.446
86.86000 3.025
86.88000 3.473
86.90000 0.529
86.92000 1.975
86.94000 3.631
86.96000 3.937
86.98000 2.088
87.00000 2.817
87.02000 -0.183
87.04000 -1.641
87.06000 -2.009
87.08000 2.587
87.10000 3.618
87.12000 1.574
87.14000 2.522
87.16000 3.129
87.18000 1.116
87.20000 0.788
87.22000 -0.018
87.24000 -0.212
87.26000 1.262
87.28000 3.626
87.30000 0.846
87.32000 1.149
87.34000 4.958
87.36000 2.241
87.38000 -1.971
87.40000 -1.062
87.42000 -0.374
87.44000 1.193
87.46000 2.388
87.48000 4.005
87.50000 1.546
87.52000 -0.144
87.54000 1.332
87.56000 0.813
87.58000 2.397
87.60000 1.994
87.62000 0.200
87.64000 0.797
87.66000 -0.089
87.68000 0.603
87.70000 2.243
87.72000 3.500
87.74000 2.368
87.76000 0.531
87.78000 1.191
87.80000 1.329
87.82000 -0.350
87.84000 2.130
87.86000 0.851
87.88000 -0.194
87.90000 -1.809
87.92000 -0.801
87.94000 -0.357
87.96000 0.577
87.98000 -0.787
88.00000 -0.955
88.02000 -0.689
88.04000 0.356
88.06000 0.063
88.08000 3.147
88.10000 4.682
88.12000 1.055
88.14000 4.428
88.16000 4.972
88.18000 3.346
88.20000 3.108
88.22000 1.594
88.24000 -1.858
88.26000 0.023
88.28000 3.396
88.30000 3.377
88.32000 2.162
88.34000 2.121
88.36000 5.143
88.38000 5.918
88.40000 4.228
88.42000 1.229
88.44000 -1.377
88.46000 -1.830
88.48000 -1.830
88.50000 -1.765
88.52000 1.502
88.54000 3.707
88.56000 1.197
88.58000 -1.800
88.60000 0.419
88.62000 3.328
88.64000 3.941
88.66000 3.142
88.68000 3.328
88.70000 1.700
88.72000 2.176
88.74000 -0.042
88.76000 -0.820
88.78000 0.543
88.80000 1.410
88.82000 0.654
88.84000 4.578
88.86000 5.729
88.88000 2.144
88.90000 -1.356
88.92000 -0.985
88.94000 1.516
88.96000 2.596
88.98000 4.513
89.00000 3.085
89.02000 1.707
89.04000 0.576
89.06000 0.418
89.08000 3.120
89.10000 5.192
89.12000 2.792
89.14000 4.376
89.16000 3.447
89.18000 -0.699
89.20000 -1.553
89.22000 0.808
89.24000 1.412
89.26000 0.702
89.28000 2.796
89.30000 1.781
89.32000 0.244
89.34000 0.599
89.36000 -0.668
89.38000 -0.243
89.40000 1.255
89.42000 2.833
89.44000 5.896
89.46000 6.329
89.48000 2.802
89.50000 -1.064
89.52000 0.725
89.54000 -1.865
89.56000 0.202
89.58000 0.016
89.60000 0.522
89.62000 0.374
89.64000 2.517
89.66000 -0.710
89.68000 2.675
89.70000 1.703
89.72000 -1.398
89.74000 0.011
89.76000 1.760
89.78000 0.912
89.80000 -0.916
89.82000 -0.097
89.84000 0.424
89.86000 4.655
89.88000 4.490
89.90000 2.898
89.92000 -0.361
89.94000 0.628
89.96000 1.556
89.98000 -0.408
90.00000 -0.855
90.02000 0.941
90.04000 0.843
90.06000 0.689
90.08000 1.454
90.10000 0.677
90.12000 -0.017
90.14000 2.130
90.16000 0.855
90.18000 0.946
90.20000 2.707
90.22000 5.182
90.24000 1.673
90.26000 -1.885
90.28000 -1.850
90.30000 -1.261
90.32000 0.463
90.34000 3.170
90.36000 4.771
90.38000 0.953
90.40000 -1.243
90.42000 0.786
90.44000 -1.473
90.46000 0.906
90.48000 -0.415
90.50000 -0.153
90.52000 -1.133
90.54000 -1.031
90.56000 3.083
90.58000 1.290
90.60000 -1.465
90.62000 2.383
90.64000 3.486
90.66000 2.852
90.68000 4.173
90.70000 2.238
90.72000 1.343
90.74000 0.497
90.76000 0.596
90.78000 -0.087
90.80000 -1.212
90.82000 2.348
90.84000 5.183
90.86000 2.226
90.88000 0.759
90.90000 0.895
90.92000 3.893
90.94000 3.032
90.96000 2.772
90.98000 2.242
91.00000 1.277
91.02000 -0.836
91.04000 1.926
91.06000 3.211
91.08000 1.017
91.10000 -1.847
91.12000 0.052
91.14000 0.898
91.16000 0.677
91.18000 2.566
91.20000 1.106
91.22000 -0.243
91.24000 -0.313
91.26000 1.381
91.28000 0.376
91.30000 5.295
91.32000 6.181
91.34000 5.348
91.36000 7.806
91.38000 3.504
91.40000 0.068
91.42000 -1.838
91.44000 0.271
91.46000 1.501
91.48000 1.501
91.50000 4.534
91.52000 4.734
91.54000 4.152
91.56000 5.089
91.58000 3.042
91.60000 -1.561
91.62000 -0.241
91.64000 1.904
91.66000 2.219
91.68000 4.296
91.70000 4.470
91.72000 4.591
91.74000 3.245
91.76000 -0.288
91.78000 2.418
91.80000 4.947
91.82000 4.108
91.84000 -1.505
91.86000 0.143
91.88000 -0.369
91.90000 1.185
91.92000 1.083
91.94000 2.623
91.96000 2.659
91.98000 3.947
92.00000 3.298
92.02000 3.106
92.04000 1.344
92.06000 0.499
92.08000 2.440
92.10000 1.632
92.12000 3.213
92.14000 3.802
92.16000 2.962
92.18000 3.581
92.20000 3.221
92.22000 2.206
92.24000 2.069
92.26000 5.213
92.28000 -0.009
92.30000 -1.871
92.32000 0.304
92.34000 -0.598
92.36000 0.284
92.38000 3.065
92.40000 1.701
92.42000 2.523
92.44000 -1.275
92.46000 0.785
92.48000 5.782
92.50000 5.835
92.52000 -0.643
92.54000 0.156
92.56000 1.441
92.58000 1.588
92.60000 1.213
92.62000 0.278
92.64000 -0.369
92.66000 1.548
92.68000 2.639
92.70000 1.127
92.72000 -1.392
92.74000 -1.873
92.76000 -0.107
92.78000 1.569
92.80000 -0.969
92.82000 -1.887
92.84000 -0.672
92.86000 2.087
92.88000 4.406
92.90000 4.849
92.92000 2.514
92.94000 5.200
92.96000 4.786
92.98000 1.596
93.00000 -1.887
93.02000 -1.609
93.04000 2.131
93.06000 0.032
93.08000 1.854
93.10000 0.221
93.12000 1.160
93.14000 1.612
93.16000 0.848
93.18000 1.357
93.20000 2.738
93.22000 2.594
93.24000 -0.613
93.26000 -0.556
93.28000 -1.016
93.30000 -1.207
93.32000 1.540
93.34000 1.335
93.36000 5.177
93.38000 1.501
93.40000 1.629
93.42000 3.622
93.44000 -0.198
93.46000 0.141
93.48000 4.034
93.50000 5.489
93.52000 -1.871
93.54000 -0.343
93.56000 1.369
93.58000 3.276
93.60000 0.441
93.62000 3.006
93.64000 0.413
93.66000 -0.233
93.68000 3.386
93.70000 1.716
93.72000 1.582
93.74000 1.955
93.76000 0.716
93.78000 3.775
93.80000 3.042
93.82000 4.705
93.84000 4.533
93.86000 5.791
93.88000 8.141
93.90000 4.968
93.92000 2.409
93.94000 2.074
93.96000 1.395
93.98000 1.352
94.00000 0.955
94.02000 3.427
94.04000 2.345
94.06000 2.743
94.08000 2.462
94.10000 2.575
94.12000 1.991
94.14000 1.035
94.16000 2.653
94.18000 0.263
94.20000 0.256
94.22000 4.470
94.24000 3.644
94.26000 4.722
94.28000 1.908
94.30000 -1.860
94.32000 -0.886
94.34000 3.212
94.36000 1.548
94.38000 2.379
94.40000 1.816
94.42000 3.643
94.44000 2.210
94.46000 1.684
94.48000 6.561
94.50000 3.569
94.52000 0.882
94.54000 1.625
94.56000 3.156
94.58000 2.167
94.60000 3.158
94.62000 2.929
94.64000 0.518
94.66000 2.191
94.68000 5.410
94.70000 3.583
94.72000 1.210
94.74000 -0.040
94.76000 1.397
94.78000 0.052
94.80000 0.533
94.82000 0.896
94.84000 1.018
94.86000 0.447
94.88000 0.422
94.90000 1.656
94.92000 1.795
94.94000 1.496
94.96000 0.416
94.98000 0.955
95.00000 5.119
95.02000 6.285
95.04000 5.401
95.06000 2.363
95.08000 -1.900
95.10000 1.636
95.12000 1.412
95.14000 1.255
95.16000 2.628
95.18000 2.833
95.20000 -0.175
95.22000 -0.994
95.24000 -0.865
95.26000 0.756
95.28000 2.980
95.30000 4.091
95.32000 1.828
95.34000 1.429
95.36000 1.108
95.38000 7.132
95.40000 3.523
95.42000 2.470
95.44000 1.647
95.46000 -1.901
95.48000 -0.087
95.50000 -0.446
95.52000 1.133
95.54000 1.058
95.56000 1.373
95.58000 -1.879
95.60000 0.269
95.62000 0.205
95.64000 2.820
95.66000 2.715
95.68000 3.032
95.70000 1.628
95.72000 0.921
95.74000 1.138
95.76000 2.639
95.78000 0.550
95.80000 -1.566
95.82000 0.756
95.84000 2.021
95.86000 0.875
95.88000 -0.300
95.90000 2.020
95.92000 -0.435
95.94000 0.135
95.96000 1.626
95.98000 4.623
96.00000 3.227
96.02000 3.602
96.04000 1.584
96.06000 2.048
96.08000 1.687
96.10000 0.800
96.12000 2.547
96.14000 2.465
96.16000 3.917
96.18000 3.344
96.20000 1.305
96.22000 -0.543
96.24000 2.188
96.26000 5.784
96.28000 1.137
96.30000 0.501
96.32000 3.406
96.34000 7.345
96.36000 3.820
96.38000 4.857
96.40000 3.885
96.42000 3.381
96.44000 2.459
96.46000 3.255
96.48000 1.967
96.50000 4.119
96.52000 0.732
96.54000 0.700
96.56000 -1.874
96.58000 -1.423
96.60000 0.810
96.62000 3.278
96.64000 5.283
96.66000 5.466
96.68000 4.942
96.70000 3.926
96.72000 4.859
96.74000 0.212
96.76000 0.795
96.78000 -1.086
96.80000 3.347
96.82000 5.415
96.84000 6.339
96.86000 3.014
96.88000 4.478
96.90000 7.842
96.92000 4.382
96.94000 1.609
96.96000 2.322
96.98000 6.476
97.00000 4.638
97.02000 2.977
97.04000 3.794
97.06000 2.200
97.08000 4.790
97.10000 4.273
97.12000 0.535
97.14000 -0.414
97.16000 5.040
97.18000 7.121
97.20000 9.850
97.22000 6.959
97.24000 3.206
97.26000 5.306
97.28000 0.055
97.30000 1.347
97.32000 5.299
97.34000 3.512
97.36000 5.399
97.38000 3.826
97.40000 4.780
97.42000 4.886
97.44000 -0.283
97.46000 1.406
97.48000 1.181
97.50000 1.679
97.52000 8.091
97.54000 6.674
97.56000 4.642
97.58000 2.864
97.60000 6.875
97.62000 4.470
97.64000 -1.576
97.66000 0.730
97.68000 0.607
97.70000 4.604
97.72000 5.385
97.74000 2.421
97.76000 -1.801
97.78000 1.368
97.80000 4.851
97.82000 7.187
97.84000 6.569
97.86000 4.976
97.88000 11.965
97.90000 7.360
97.92000 3.912
97.94000 -0.321
97.96000 -1.367
97.98000 2.673
98.00000 7.370
98.02000 5.472
98.04000 10.040
98.06000 8.927
98.08000 -0.795
98.10000 -1.779
98.12000 2.267
98.14000 0.771
98.16000 3.531
98.18000 6.847
98.20000 7.505
98.22000 8.787
98.24000 5.942
98.26000 7.113
98.28000 6.975
98.30000 3.527
98.32000 7.198
98.34000 5.877
98.36000 7.539
98.38000 9.029
98.40000 6.977
98.42000 7.432
98.44000 4.306
98.46000 4.844
98.48000 5.452
98.50000 6.732
98.52000 6.734
98.54000 5.673
98.56000 3.305
98.58000 7.163
98.60000 10.255
98.62000 11.266
98.64000 9.226
98.66000 4.384
98.68000 5.853
98.70000 5.361
98.72000 -0.355
98.74000 3.927
98.76000 3.933
98.78000 -1.774
98.80000 3.787
98.82000 6.617
98.84000 5.643
98.86000 10.339
98.88000 7.261
98.90000 7.694
98.92000 9.640
98.94000 5.832
98.96000 5.173
98.98000 1.318
99.00000 0.511
99.02000 -0.617
99.04000 -0.320
99.06000 2.006
99.08000 -1.799
99.10000 0.503
99.12000 7.439
99.14000 4.477
99.16000 5.708
99.18000 3.428
99.20000 2.229
99.22000 -1.106
99.24000 0.715
99.26000 1.561
99.28000 0.538
99.30000 1.452
99.32000 6.819
99.34000 9.336
99.36000 4.979
99.38000 1.244
99.40000 2.987
99.42000 0.268
99.44000 3.908
99.46000 11.521
99.48000 7.729
99.50000 3.438
99.52000 7.783
99.54000 3.014
99.56000 4.556
99.58000 -0.146
99.60000 1.069
99.62000 8.429
99.64000 4.725
99.66000 12.089
99.68000 4.692
99.70000 1.888
99.72000 3.087
99.74000 4.357
99.76000 10.392
99.78000 4.885
99.80000 5.909
99.82000 4.137
99.84000 11.153
99.86000 7.033
99.88000 3.604
99.90000 5.501
99.92000 3.960
99.94000 -1.848
99.96000 3.514
99.98000 0.000
