'Id: "0011389" Comment: "Integrate frame 0011389_Au-Ir-Rh_Au-Rich_XRD_Mapping-067-0000.gfrmwith cursor Wedge Cursor #5" Operator: "B?rgel" Anode: "Cu" Wavelength: "1.5406" Scantype: "2Theta (TwoTheta)" TimePerStep: "1" X: "9" Y: "-22.5" Z: "5.95" 
10.00000 0.000
10.02000 3.275
10.04000 -0.754
10.06000 -4.052
10.08000 3.005
10.10000 6.570
10.12000 5.184
10.14000 23.207
10.16000 22.468
10.18000 21.646
10.20000 9.415
10.22000 21.830
10.24000 9.275
10.26000 -2.600
10.28000 17.135
10.30000 28.048
10.32000 11.565
10.34000 -4.043
10.36000 4.032
10.38000 11.508
10.40000 14.140
10.42000 17.282
10.44000 21.275
10.46000 14.643
10.48000 11.232
10.50000 1.242
10.52000 18.221
10.54000 13.679
10.56000 18.550
10.58000 21.322
10.60000 10.087
10.62000 8.835
10.64000 7.332
10.66000 12.013
10.68000 11.113
10.70000 5.297
10.72000 4.645
10.74000 15.116
10.76000 8.481
10.78000 8.052
10.80000 14.512
10.82000 11.289
10.84000 20.098
10.86000 14.206
10.88000 19.771
10.90000 25.598
10.92000 19.457
10.94000 11.648
10.96000 19.897
10.98000 22.367
11.00000 33.975
11.02000 24.795
11.04000 19.045
11.06000 22.713
11.08000 22.446
11.10000 22.827
11.12000 21.014
11.14000 17.629
11.16000 14.409
11.18000 21.974
11.20000 26.861
11.22000 26.146
11.24000 26.399
11.26000 20.392
11.28000 18.404
11.30000 14.623
11.32000 11.431
11.34000 9.952
11.36000 21.955
11.38000 29.084
11.40000 30.223
11.42000 23.495
11.44000 27.268
11.46000 16.472
11.48000 9.990
11.50000 10.739
11.52000 10.169
11.54000 11.381
11.56000 18.045
11.58000 16.697
11.60000 23.631
11.62000 24.819
11.64000 15.052
11.66000 4.144
11.68000 -0.083
11.70000 -4.187
11.72000 10.623
11.74000 22.953
11.76000 21.431
11.78000 24.448
11.80000 24.840
11.82000 22.967
11.84000 8.676
11.86000 1.192
11.88000 12.244
11.90000 19.811
11.92000 24.334
11.94000 18.864
11.96000 12.451
11.98000 17.779
12.00000 24.533
12.02000 8.616
12.04000 16.504
12.06000 22.096
12.08000 19.822
12.10000 18.399
12.12000 13.672
12.14000 7.530
12.16000 19.331
12.18000 25.514
12.20000 31.551
12.22000 20.576
12.24000 8.782
12.26000 12.451
12.28000 16.062
12.30000 18.144
12.32000 19.167
12.34000 22.852
12.36000 23.841
12.38000 17.873
12.40000 22.743
12.42000 28.003
12.44000 26.952
12.46000 27.522
12.48000 21.560
12.50000 23.241
12.52000 11.271
12.54000 18.475
12.56000 39.408
12.58000 37.923
12.60000 27.788
12.62000 23.410
12.64000 23.598
12.66000 31.177
12.68000 26.693
12.70000 16.474
12.72000 16.222
12.74000 16.770
12.76000 16.361
12.78000 24.447
12.80000 23.301
12.82000 13.674
12.84000 24.751
12.86000 19.078
12.88000 16.393
12.90000 9.986
12.92000 16.918
12.94000 14.253
12.96000 16.159
12.98000 14.636
13.00000 21.706
13.02000 26.314
13.04000 19.050
13.06000 25.325
13.08000 20.300
13.10000 27.063
13.12000 18.854
13.14000 18.643
13.16000 17.936
13.18000 19.083
13.20000 21.586
13.22000 17.433
13.24000 15.629
13.26000 15.761
13.28000 23.521
13.30000 23.465
13.32000 18.527
13.34000 19.566
13.36000 12.452
13.38000 11.244
13.40000 21.152
13.42000 12.297
13.44000 11.929
13.46000 13.120
13.48000 19.458
13.50000 17.873
13.52000 20.582
13.54000 15.750
13.56000 16.096
13.58000 25.773
13.60000 18.527
13.62000 19.114
13.64000 22.670
13.66000 15.039
13.68000 18.971
13.70000 20.329
13.72000 18.674
13.74000 11.184
13.76000 12.882
13.78000 9.664
13.80000 12.046
13.82000 11.019
13.84000 13.676
13.86000 19.751
13.88000 19.361
13.90000 10.517
13.92000 11.425
13.94000 16.805
13.96000 18.236
13.98000 18.724
14.00000 11.715
14.02000 13.249
14.04000 16.995
14.06000 14.685
14.08000 16.278
14.10000 18.991
14.12000 15.504
14.14000 13.882
14.16000 6.232
14.18000 10.477
14.20000 7.547
14.22000 4.107
14.24000 16.199
14.26000 14.914
14.28000 2.922
14.30000 11.643
14.32000 9.346
14.34000 13.555
14.36000 16.504
14.38000 7.581
14.40000 8.925
14.42000 15.480
14.44000 19.714
14.46000 21.234
14.48000 5.704
14.50000 10.524
14.52000 13.174
14.54000 11.876
14.56000 16.189
14.58000 15.535
14.60000 11.358
14.62000 18.171
14.64000 18.665
14.66000 11.634
14.68000 10.049
14.70000 7.718
14.72000 11.379
14.74000 10.700
14.76000 8.733
14.78000 16.439
14.80000 18.387
14.82000 9.787
14.84000 -4.426
14.86000 -4.136
14.88000 13.534
14.90000 22.560
14.92000 16.444
14.94000 12.692
14.96000 7.129
14.98000 4.825
15.00000 14.106
15.02000 10.349
15.04000 4.912
15.06000 13.499
15.08000 15.988
15.10000 5.372
15.12000 5.302
15.14000 11.099
15.16000 7.293
15.18000 14.756
15.20000 14.607
15.22000 7.562
15.24000 5.112
15.26000 13.077
15.28000 10.301
15.30000 14.632
15.32000 9.012
15.34000 2.165
15.36000 6.584
15.38000 9.185
15.40000 13.267
15.42000 17.398
15.44000 17.218
15.46000 10.971
15.48000 4.424
15.50000 9.140
15.52000 4.464
15.54000 3.957
15.56000 6.898
15.58000 4.464
15.60000 5.245
15.62000 1.349
15.64000 -1.014
15.66000 9.407
15.68000 16.204
15.70000 7.911
15.72000 10.387
15.74000 2.841
15.76000 4.457
15.78000 7.843
15.80000 5.218
15.82000 6.915
15.84000 2.731
15.86000 8.171
15.88000 9.430
15.90000 -4.433
15.92000 4.776
15.94000 4.412
15.96000 -0.791
15.98000 2.809
16.00000 9.369
16.02000 10.251
16.04000 6.732
16.06000 10.079
16.08000 4.110
16.10000 4.942
16.12000 5.744
16.14000 -2.937
16.16000 0.298
16.18000 2.127
16.20000 1.887
16.22000 -2.207
16.24000 4.339
16.26000 4.225
16.28000 3.766
16.30000 9.837
16.32000 7.284
16.34000 3.617
16.36000 3.874
16.38000 5.200
16.40000 5.021
16.42000 1.387
16.44000 1.308
16.46000 6.882
16.48000 6.362
16.50000 2.699
16.52000 10.495
16.54000 -0.093
16.56000 -1.566
16.58000 -1.102
16.60000 -0.529
16.62000 2.003
16.64000 4.027
16.66000 5.486
16.68000 4.562
16.70000 6.885
16.72000 9.313
16.74000 10.959
16.76000 17.626
16.78000 15.516
16.80000 10.343
16.82000 6.467
16.84000 5.918
16.86000 4.357
16.88000 3.248
16.90000 4.389
16.92000 2.129
16.94000 2.011
16.96000 3.634
16.98000 5.244
17.00000 7.974
17.02000 6.712
17.04000 6.025
17.06000 3.647
17.08000 6.882
17.10000 4.858
17.12000 7.506
17.14000 4.661
17.16000 4.242
17.18000 10.827
17.20000 10.434
17.22000 8.269
17.24000 1.623
17.26000 -3.722
17.28000 2.187
17.30000 6.148
17.32000 6.260
17.34000 5.258
17.36000 6.557
17.38000 12.445
17.40000 4.974
17.42000 1.391
17.44000 3.554
17.46000 3.600
17.48000 3.639
17.50000 3.714
17.52000 0.052
17.54000 7.772
17.56000 7.491
17.58000 2.611
17.60000 12.308
17.62000 9.159
17.64000 2.073
17.66000 -4.375
17.68000 -0.093
17.70000 4.225
17.72000 1.456
17.74000 4.509
17.76000 2.105
17.78000 -3.238
17.80000 -2.554
17.82000 8.754
17.84000 6.098
17.86000 -0.625
17.88000 8.516
17.90000 9.712
17.92000 11.666
17.94000 7.800
17.96000 2.506
17.98000 -4.353
18.00000 -0.373
18.02000 0.158
18.04000 2.335
18.06000 8.332
18.08000 7.264
18.10000 1.745
18.12000 1.059
18.14000 0.452
18.16000 0.737
18.18000 0.978
18.20000 10.579
18.22000 0.968
18.24000 1.121
18.26000 -2.901
18.28000 6.123
18.30000 0.247
18.32000 5.040
18.34000 -1.075
18.36000 -1.689
18.38000 4.159
18.40000 4.543
18.42000 10.186
18.44000 3.279
18.46000 4.935
18.48000 2.100
18.50000 3.652
18.52000 6.350
18.54000 2.277
18.56000 3.548
18.58000 0.814
18.60000 7.305
18.62000 7.966
18.64000 6.672
18.66000 5.253
18.68000 10.338
18.70000 7.960
18.72000 4.945
18.74000 5.363
18.76000 3.566
18.78000 2.074
18.80000 2.491
18.82000 2.328
18.84000 5.792
18.86000 3.290
18.88000 5.012
18.90000 2.582
18.92000 -4.193
18.94000 0.484
18.96000 3.631
18.98000 5.246
19.00000 11.987
19.02000 6.522
19.04000 2.990
19.06000 0.624
19.08000 1.820
19.10000 3.365
19.12000 5.410
19.14000 1.898
19.16000 3.923
19.18000 13.739
19.20000 10.588
19.22000 6.617
19.24000 14.148
19.26000 12.927
19.28000 6.184
19.30000 7.231
19.32000 -1.420
19.34000 -4.230
19.36000 6.122
19.38000 9.763
19.40000 5.510
19.42000 1.296
19.44000 1.725
19.46000 2.241
19.48000 6.249
19.50000 1.974
19.52000 6.210
19.54000 9.612
19.56000 4.064
19.58000 1.513
19.60000 4.916
19.62000 4.485
19.64000 0.342
19.66000 0.258
19.68000 -0.563
19.70000 -3.170
19.72000 5.165
19.74000 6.458
19.76000 3.115
19.78000 0.805
19.80000 4.726
19.82000 7.181
19.84000 -0.002
19.86000 1.366
19.88000 2.613
19.90000 -0.310
19.92000 2.825
19.94000 11.181
19.96000 8.035
19.98000 5.301
20.00000 6.267
20.02000 4.323
20.04000 4.214
20.06000 5.154
20.08000 9.563
20.10000 12.271
20.12000 12.033
20.14000 6.697
20.16000 -0.055
20.18000 -3.302
20.20000 -1.435
20.22000 9.302
20.24000 10.833
20.26000 7.783
20.28000 8.783
20.30000 8.291
20.32000 4.207
20.34000 3.363
20.36000 2.427
20.38000 1.991
20.40000 0.831
20.42000 1.171
20.44000 2.556
20.46000 5.291
20.48000 3.622
20.50000 -4.192
20.52000 -1.627
20.54000 7.021
20.56000 5.980
20.58000 5.965
20.60000 5.025
20.62000 6.110
20.64000 3.018
20.66000 -3.428
20.68000 -0.553
20.70000 3.457
20.72000 5.141
20.74000 5.527
20.76000 6.489
20.78000 9.206
20.80000 6.900
20.82000 -0.875
20.84000 -1.644
20.86000 -1.062
20.88000 1.252
20.90000 6.130
20.92000 4.416
20.94000 2.501
20.96000 6.007
20.98000 4.541
21.00000 1.373
21.02000 1.171
21.04000 -3.430
21.06000 -2.591
21.08000 1.648
21.10000 6.876
21.12000 8.668
21.14000 4.095
21.16000 8.119
21.18000 10.583
21.20000 4.255
21.22000 -1.801
21.24000 0.777
21.26000 3.524
21.28000 1.911
21.30000 4.209
21.32000 5.976
21.34000 -0.748
21.36000 0.574
21.38000 -0.913
21.40000 2.558
21.42000 3.467
21.44000 7.646
21.46000 5.976
21.48000 0.378
21.50000 -0.940
21.52000 7.827
21.54000 8.416
21.56000 5.202
21.58000 2.488
21.60000 -2.556
21.62000 -4.135
21.64000 2.147
21.66000 -4.132
21.68000 1.390
21.70000 6.030
21.72000 7.935
21.74000 8.317
21.76000 8.428
21.78000 3.801
21.80000 -2.236
21.82000 -0.804
21.84000 -1.612
21.86000 -1.513
21.88000 5.528
21.90000 6.225
21.92000 4.012
21.94000 3.985
21.96000 10.505
21.98000 5.970
22.00000 7.874
22.02000 -2.856
22.04000 1.317
22.06000 7.996
22.08000 5.553
22.10000 5.564
22.12000 3.385
22.14000 4.666
22.16000 6.710
22.18000 2.748
22.20000 -0.189
22.22000 2.886
22.24000 4.025
22.26000 5.310
22.28000 10.435
22.30000 8.449
22.32000 0.735
22.34000 -0.360
22.36000 6.822
22.38000 4.141
22.40000 5.370
22.42000 9.970
22.44000 1.209
22.46000 0.457
22.48000 -4.087
22.50000 -3.427
22.52000 6.267
22.54000 8.836
22.56000 8.584
22.58000 6.476
22.60000 2.382
22.62000 7.941
22.64000 7.021
22.66000 -0.963
22.68000 5.022
22.70000 5.038
22.72000 6.920
22.74000 5.886
22.76000 5.425
22.78000 4.857
22.80000 7.099
22.82000 10.211
22.84000 6.102
22.86000 5.397
22.88000 8.159
22.90000 4.036
22.92000 6.404
22.94000 3.477
22.96000 1.239
22.98000 1.300
23.00000 4.106
23.02000 3.954
23.04000 4.360
23.06000 -3.442
23.08000 1.174
23.10000 4.072
23.12000 2.437
23.14000 -0.139
23.16000 0.700
23.18000 -0.707
23.20000 -1.385
23.22000 3.040
23.24000 3.434
23.26000 1.075
23.28000 1.669
23.30000 0.857
23.32000 -2.771
23.34000 0.569
23.36000 -2.188
23.38000 -3.334
23.40000 -2.509
23.42000 4.330
23.44000 3.365
23.46000 8.330
23.48000 10.580
23.50000 2.000
23.52000 3.714
23.54000 9.201
23.56000 7.416
23.58000 2.627
23.60000 -2.124
23.62000 -3.402
23.64000 -0.875
23.66000 1.609
23.68000 1.598
23.70000 3.738
23.72000 -1.231
23.74000 -0.693
23.76000 1.192
23.78000 4.922
23.80000 7.253
23.82000 2.923
23.84000 0.766
23.86000 -0.342
23.88000 0.747
23.90000 0.919
23.92000 -1.620
23.94000 -0.407
23.96000 -0.222
23.98000 1.029
24.00000 3.143
24.02000 0.446
24.04000 2.762
24.06000 8.631
24.08000 9.303
24.10000 5.482
24.12000 1.412
24.14000 -0.353
24.16000 0.778
24.18000 2.521
24.20000 0.538
24.22000 0.501
24.24000 4.985
24.26000 5.809
24.28000 0.687
24.30000 0.536
24.32000 -2.175
24.34000 -1.948
24.36000 0.178
24.38000 4.716
24.40000 8.092
24.42000 8.575
24.44000 6.049
24.46000 1.154
24.48000 -3.972
24.50000 -1.569
24.52000 1.297
24.54000 4.040
24.56000 4.815
24.58000 1.033
24.60000 6.742
24.62000 2.192
24.64000 4.686
24.66000 9.869
24.68000 3.138
24.70000 2.442
24.72000 6.471
24.74000 5.164
24.76000 1.736
24.78000 -0.860
24.80000 2.526
24.82000 3.240
24.84000 1.712
24.86000 0.542
24.88000 4.474
24.90000 -0.429
24.92000 1.613
24.94000 1.108
24.96000 3.293
24.98000 1.152
25.00000 0.773
25.02000 1.774
25.04000 -0.874
25.06000 3.003
25.08000 3.332
25.10000 3.069
25.12000 0.079
25.14000 1.497
25.16000 3.236
25.18000 2.866
25.20000 -0.834
25.22000 1.936
25.24000 1.116
25.26000 0.076
25.28000 3.207
25.30000 3.107
25.32000 3.810
25.34000 8.621
25.36000 3.535
25.38000 0.688
25.40000 0.930
25.42000 2.905
25.44000 4.021
25.46000 -0.280
25.48000 -0.066
25.50000 3.398
25.52000 3.238
25.54000 11.595
25.56000 7.883
25.58000 6.867
25.60000 1.863
25.62000 1.787
25.64000 2.887
25.66000 -0.644
25.68000 0.042
25.70000 -3.900
25.72000 2.290
25.74000 12.593
25.76000 8.894
25.78000 6.989
25.80000 5.399
25.82000 8.231
25.84000 5.779
25.86000 5.649
25.88000 1.395
25.90000 0.962
25.92000 6.323
25.94000 8.622
25.96000 5.250
25.98000 5.700
26.00000 8.194
26.02000 4.662
26.04000 3.229
26.06000 4.333
26.08000 2.669
26.10000 3.339
26.12000 7.064
26.14000 1.507
26.16000 6.944
26.18000 7.552
26.20000 2.992
26.22000 3.069
26.24000 2.732
26.26000 7.716
26.28000 1.179
26.30000 0.650
26.32000 -1.472
26.34000 1.192
26.36000 -0.326
26.38000 2.331
26.40000 4.957
26.42000 2.241
26.44000 3.541
26.46000 4.603
26.48000 7.845
26.50000 9.435
26.52000 2.077
26.54000 -1.145
26.56000 1.314
26.58000 3.329
26.60000 6.982
26.62000 5.779
26.64000 2.165
26.66000 4.389
26.68000 5.148
26.70000 -0.047
26.72000 0.388
26.74000 2.667
26.76000 1.290
26.78000 4.361
26.80000 2.640
26.82000 2.825
26.84000 5.868
26.86000 4.241
26.88000 2.272
26.90000 2.001
26.92000 -0.655
26.94000 1.876
26.96000 5.653
26.98000 4.521
27.00000 6.081
27.02000 6.365
27.04000 1.888
27.06000 3.691
27.08000 -0.737
27.10000 4.235
27.12000 3.217
27.14000 4.753
27.16000 2.609
27.18000 6.038
27.20000 7.509
27.22000 7.843
27.24000 7.694
27.26000 2.320
27.28000 5.775
27.30000 9.315
27.32000 10.972
27.34000 5.492
27.36000 3.684
27.38000 3.066
27.40000 6.547
27.42000 3.008
27.44000 2.863
27.46000 7.913
27.48000 4.954
27.50000 -3.766
27.52000 -1.008
27.54000 3.482
27.56000 9.954
27.58000 13.941
27.60000 9.728
27.62000 0.891
27.64000 6.387
27.66000 5.263
27.68000 3.294
27.70000 5.768
27.72000 5.702
27.74000 3.110
27.76000 1.883
27.78000 0.859
27.80000 4.002
27.82000 7.132
27.84000 4.059
27.86000 3.259
27.88000 2.967
27.90000 3.837
27.92000 8.460
27.94000 5.218
27.96000 5.716
27.98000 7.288
28.00000 3.249
28.02000 3.204
28.04000 3.861
28.06000 -3.707
28.08000 4.288
28.10000 5.413
28.12000 5.081
28.14000 4.469
28.16000 8.536
28.18000 4.880
28.20000 6.437
28.22000 -0.541
28.24000 -3.765
28.26000 -1.704
28.28000 -0.754
28.30000 3.603
28.32000 7.309
28.34000 1.546
28.36000 3.445
28.38000 -1.839
28.40000 -1.039
28.42000 4.082
28.44000 2.687
28.46000 6.459
28.48000 4.280
28.50000 -0.250
28.52000 1.843
28.54000 5.869
28.56000 5.694
28.58000 1.817
28.60000 5.212
28.62000 4.231
28.64000 1.943
28.66000 3.627
28.68000 6.990
28.70000 7.602
28.72000 2.178
28.74000 -0.133
28.76000 4.157
28.78000 8.506
28.80000 3.909
28.82000 2.181
28.84000 5.278
28.86000 5.048
28.88000 4.584
28.90000 4.961
28.92000 3.124
28.94000 -0.853
28.96000 1.183
28.98000 -1.117
29.00000 -1.453
29.02000 1.032
29.04000 2.811
29.06000 1.901
29.08000 3.306
29.10000 6.332
29.12000 4.466
29.14000 3.424
29.16000 5.465
29.18000 7.235
29.20000 5.762
29.22000 1.223
29.24000 -0.398
29.26000 -3.729
29.28000 -2.046
29.30000 -1.015
29.32000 -0.037
29.34000 3.444
29.36000 4.320
29.38000 1.352
29.40000 -2.998
29.42000 -0.270
29.44000 0.245
29.46000 -2.349
29.48000 -3.446
29.50000 4.092
29.52000 3.188
29.54000 -2.395
29.56000 -1.366
29.58000 0.464
29.60000 2.975
29.62000 4.060
29.64000 1.540
29.66000 3.174
29.68000 2.745
29.70000 5.422
29.72000 8.849
29.74000 9.956
29.76000 10.158
29.78000 4.221
29.80000 4.084
29.82000 2.371
29.84000 2.247
29.86000 -3.700
29.88000 -2.458
29.90000 5.459
29.92000 6.373
29.94000 2.941
29.96000 3.074
29.98000 3.546
30.00000 5.035
30.02000 0.821
30.04000 -1.265
30.06000 0.152
30.08000 4.242
30.10000 4.467
30.12000 4.419
30.14000 5.403
30.16000 5.034
30.18000 -0.373
30.20000 -2.084
30.22000 3.175
30.24000 0.601
30.26000 -2.242
30.28000 -0.559
30.30000 6.404
30.32000 3.099
30.34000 -0.045
30.36000 0.494
30.38000 -3.001
30.40000 -1.050
30.42000 -1.670
30.44000 -0.398
30.46000 1.890
30.48000 1.143
30.50000 -1.083
30.52000 -2.253
30.54000 0.299
30.56000 3.516
30.58000 2.550
30.60000 -0.338
30.62000 -0.146
30.64000 1.877
30.66000 -1.751
30.68000 -0.449
30.70000 1.320
30.72000 3.201
30.74000 3.521
30.76000 -2.106
30.78000 -2.312
30.80000 -3.662
30.82000 -0.893
30.84000 1.480
30.86000 1.541
30.88000 -0.445
30.90000 0.768
30.92000 3.202
30.94000 4.047
30.96000 -1.333
30.98000 1.742
31.00000 6.269
31.02000 6.702
31.04000 3.793
31.06000 4.768
31.08000 4.655
31.10000 4.763
31.12000 5.436
31.14000 0.673
31.16000 0.353
31.18000 -0.600
31.20000 -2.020
31.22000 1.289
31.24000 2.580
31.26000 0.485
31.28000 5.258
31.30000 5.000
31.32000 1.258
31.34000 3.632
31.36000 3.498
31.38000 2.631
31.40000 -1.229
31.42000 -2.768
31.44000 -3.628
31.46000 -3.459
31.48000 0.308
31.50000 3.934
31.52000 4.961
31.54000 10.667
31.56000 4.285
31.58000 1.281
31.60000 0.447
31.62000 2.997
31.64000 3.480
31.66000 3.224
31.68000 5.575
31.70000 8.970
31.72000 6.072
31.74000 6.866
31.76000 6.457
31.78000 3.992
31.80000 1.300
31.82000 1.986
31.84000 -3.609
31.86000 -0.782
31.88000 1.142
31.90000 2.145
31.92000 6.159
31.94000 9.626
31.96000 9.740
31.98000 8.898
32.00000 2.411
32.02000 1.649
32.04000 1.960
32.06000 1.071
32.08000 1.554
32.10000 5.955
32.12000 7.264
32.14000 6.241
32.16000 8.286
32.18000 5.460
32.20000 -3.273
32.22000 -3.432
32.24000 1.747
32.26000 5.945
32.28000 4.481
32.30000 2.243
32.32000 7.389
32.34000 3.916
32.36000 4.665
32.38000 0.240
32.40000 1.524
32.42000 3.406
32.44000 6.703
32.46000 6.629
32.48000 4.650
32.50000 1.016
32.52000 -3.572
32.54000 0.907
32.56000 5.484
32.58000 2.451
32.60000 5.121
32.62000 7.537
32.64000 2.990
32.66000 0.774
32.68000 1.284
32.70000 5.145
32.72000 4.005
32.74000 6.485
32.76000 2.040
32.78000 0.628
32.80000 1.510
32.82000 3.035
32.84000 -2.527
32.86000 -1.624
32.88000 2.186
32.90000 2.492
32.92000 4.478
32.94000 0.971
32.96000 3.513
32.98000 -0.350
33.00000 -0.589
33.02000 0.132
33.04000 -0.856
33.06000 1.396
33.08000 3.502
33.10000 5.945
33.12000 6.478
33.14000 7.269
33.16000 9.138
33.18000 8.015
33.20000 5.304
33.22000 -0.718
33.24000 2.935
33.26000 2.639
33.28000 5.752
33.30000 4.785
33.32000 -0.980
33.34000 4.879
33.36000 3.985
33.38000 6.567
33.40000 -0.199
33.42000 -3.576
33.44000 -0.612
33.46000 -0.933
33.48000 3.141
33.50000 3.620
33.52000 3.297
33.54000 5.287
33.56000 0.857
33.58000 5.159
33.60000 4.393
33.62000 0.906
33.64000 1.921
33.66000 2.280
33.68000 4.037
33.70000 7.395
33.72000 5.064
33.74000 6.582
33.76000 9.268
33.78000 5.321
33.80000 -0.426
33.82000 -0.225
33.84000 2.547
33.86000 3.883
33.88000 3.497
33.90000 2.133
33.92000 4.089
33.94000 -0.698
33.96000 2.333
33.98000 5.049
34.00000 0.696
34.02000 0.622
34.04000 9.734
34.06000 9.964
34.08000 6.252
34.10000 5.615
34.12000 4.058
34.14000 6.289
34.16000 4.318
34.18000 2.516
34.20000 4.010
34.22000 3.325
34.24000 2.387
34.26000 0.313
34.28000 1.712
34.30000 2.626
34.32000 6.074
34.34000 6.866
34.36000 3.094
34.38000 4.033
34.40000 11.635
34.42000 6.583
34.44000 0.408
34.46000 -2.939
34.48000 -3.579
34.50000 -2.098
34.52000 -0.581
34.54000 -1.230
34.56000 -1.271
34.58000 0.453
34.60000 2.328
34.62000 0.236
34.64000 1.461
34.66000 5.498
34.68000 9.007
34.70000 -0.868
34.72000 -3.572
34.74000 1.512
34.76000 2.009
34.78000 4.759
34.80000 2.168
34.82000 1.532
34.84000 -0.500
34.86000 0.408
34.88000 -0.153
34.90000 -2.241
34.92000 -3.129
34.94000 -2.489
34.96000 2.297
34.98000 -0.463
35.00000 3.655
35.02000 1.677
35.04000 1.045
35.06000 0.276
35.08000 -1.680
35.10000 2.464
35.12000 5.431
35.14000 1.679
35.16000 0.866
35.18000 -2.998
35.20000 -3.320
35.22000 -2.791
35.24000 -0.409
35.26000 -1.731
35.28000 -0.007
35.30000 2.394
35.32000 2.158
35.34000 6.446
35.36000 3.287
35.38000 -0.864
35.40000 -0.675
35.42000 0.331
35.44000 2.946
35.46000 1.257
35.48000 0.419
35.50000 2.195
35.52000 -2.387
35.54000 -1.826
35.56000 6.561
35.58000 7.390
35.60000 2.248
35.62000 -1.355
35.64000 -0.362
35.66000 0.129
35.68000 1.915
35.70000 3.101
35.72000 9.153
35.74000 4.584
35.76000 -3.557
35.78000 -3.142
35.80000 0.115
35.82000 6.239
35.84000 8.414
35.86000 3.882
35.88000 0.930
35.90000 0.200
35.92000 3.609
35.94000 2.177
35.96000 1.263
35.98000 2.217
36.00000 5.450
36.02000 2.061
36.04000 1.546
36.06000 -2.791
36.08000 -2.233
36.10000 5.065
36.12000 7.419
36.14000 6.672
36.16000 7.569
36.18000 2.561
36.20000 1.720
36.22000 1.834
36.24000 -0.716
36.26000 -1.715
36.28000 -1.107
36.30000 3.874
36.32000 6.440
36.34000 5.906
36.36000 5.622
36.38000 8.802
36.40000 7.688
36.42000 3.693
36.44000 5.546
36.46000 10.048
36.48000 2.882
36.50000 5.824
36.52000 7.958
36.54000 9.213
36.56000 1.235
36.58000 1.781
36.60000 3.338
36.62000 0.724
36.64000 3.195
36.66000 9.858
36.68000 11.545
36.70000 7.376
36.72000 4.083
36.74000 -3.573
36.76000 0.051
36.78000 3.597
36.80000 3.506
36.82000 3.374
36.84000 4.578
36.86000 1.383
36.88000 3.034
36.90000 2.852
36.92000 6.381
36.94000 6.596
36.96000 4.925
36.98000 8.823
37.00000 8.353
37.02000 8.820
37.04000 5.513
37.06000 4.789
37.08000 4.259
37.10000 8.775
37.12000 5.147
37.14000 4.636
37.16000 6.083
37.18000 7.260
37.20000 0.297
37.22000 3.394
37.24000 4.562
37.26000 3.831
37.28000 11.063
37.30000 12.638
37.32000 9.129
37.34000 10.275
37.36000 10.555
37.38000 7.736
37.40000 10.795
37.42000 7.177
37.44000 0.503
37.46000 5.665
37.48000 6.214
37.50000 8.417
37.52000 9.048
37.54000 8.717
37.56000 13.533
37.58000 7.676
37.60000 6.313
37.62000 6.931
37.64000 13.108
37.66000 19.385
37.68000 20.168
37.70000 15.034
37.72000 15.746
37.74000 18.567
37.76000 15.126
37.78000 18.076
37.80000 15.133
37.82000 12.315
37.84000 12.537
37.86000 13.939
37.88000 18.932
37.90000 19.427
37.92000 13.622
37.94000 16.496
37.96000 20.516
37.98000 17.194
38.00000 15.253
38.02000 18.751
38.04000 17.549
38.06000 20.779
38.08000 23.107
38.10000 25.204
38.12000 23.176
38.14000 27.919
38.16000 31.445
38.18000 30.354
38.20000 30.881
38.22000 25.231
38.24000 28.802
38.26000 30.363
38.28000 30.773
38.30000 31.250
38.32000 30.762
38.34000 35.042
38.36000 32.929
38.38000 33.749
38.40000 37.163
38.42000 34.062
38.44000 41.045
38.46000 48.039
38.48000 49.332
38.50000 45.559
38.52000 43.875
38.54000 50.145
38.56000 52.185
38.58000 52.944
38.60000 49.404
38.62000 55.527
38.64000 63.042
38.66000 61.887
38.68000 68.184
38.70000 66.180
38.72000 67.440
38.74000 72.827
38.76000 75.273
38.78000 71.325
38.80000 79.049
38.82000 81.958
38.84000 89.425
38.86000 96.537
38.88000 98.634
38.90000 100.784
38.92000 103.578
38.94000 109.126
38.96000 115.815
38.98000 125.828
39.00000 130.433
39.02000 135.579
39.04000 143.746
39.06000 151.261
39.08000 163.401
39.10000 171.047
39.12000 182.634
39.14000 191.109
39.16000 202.123
39.18000 205.518
39.20000 216.712
39.22000 235.526
39.24000 247.427
39.26000 263.820
39.28000 275.893
39.30000 294.871
39.32000 313.847
39.34000 336.554
39.36000 352.647
39.38000 374.315
39.40000 394.188
39.42000 413.945
39.44000 431.606
39.46000 452.482
39.48000 472.356
39.50000 503.002
39.52000 527.073
39.54000 552.786
39.56000 566.500
39.58000 587.303
39.60000 605.786
39.62000 620.297
39.64000 637.399
39.66000 647.273
39.68000 656.905
39.70000 678.825
39.72000 692.851
39.74000 691.847
39.76000 692.865
39.78000 688.646
39.80000 688.289
39.82000 692.738
39.84000 690.303
39.86000 675.726
39.88000 666.899
39.90000 656.206
39.92000 639.258
39.94000 625.722
39.96000 614.213
39.98000 596.645
40.00000 576.224
40.02000 549.466
40.04000 520.598
40.06000 498.476
40.08000 486.978
40.10000 459.492
40.12000 436.649
40.14000 407.275
40.16000 397.958
40.18000 374.769
40.20000 345.306
40.22000 328.899
40.24000 308.869
40.26000 294.193
40.28000 286.943
40.30000 262.511
40.32000 245.258
40.34000 231.500
40.36000 217.270
40.38000 199.230
40.40000 187.092
40.42000 176.434
40.44000 166.025
40.46000 159.668
40.48000 146.086
40.50000 134.309
40.52000 126.056
40.54000 121.694
40.56000 114.319
40.58000 106.840
40.60000 103.323
40.62000 99.466
40.64000 92.542
40.66000 78.860
40.68000 76.883
40.70000 75.047
40.72000 70.664
40.74000 66.367
40.76000 61.292
40.78000 56.851
40.80000 58.490
40.82000 50.547
40.84000 47.585
40.86000 43.409
40.88000 43.097
40.90000 37.693
40.92000 34.867
40.94000 33.496
40.96000 32.424
40.98000 35.615
41.00000 34.168
41.02000 34.518
41.04000 31.456
41.06000 29.182
41.08000 25.849
41.10000 24.729
41.12000 25.237
41.14000 20.237
41.16000 19.958
41.18000 19.219
41.20000 20.282
41.22000 18.876
41.24000 15.424
41.26000 15.852
41.28000 13.623
41.30000 12.741
41.32000 12.123
41.34000 15.380
41.36000 10.239
41.38000 12.113
41.40000 12.721
41.42000 10.820
41.44000 7.573
41.46000 5.528
41.48000 5.646
41.50000 10.308
41.52000 14.191
41.54000 8.550
41.56000 4.215
41.58000 7.284
41.60000 4.662
41.62000 2.300
41.64000 7.861
41.66000 5.595
41.68000 1.576
41.70000 0.269
41.72000 1.694
41.74000 -0.030
41.76000 -0.169
41.78000 3.002
41.80000 4.053
41.82000 9.821
41.84000 8.987
41.86000 4.406
41.88000 1.471
41.90000 -2.648
41.92000 -0.583
41.94000 5.078
41.96000 1.354
41.98000 3.886
42.00000 0.310
42.02000 -0.332
42.04000 2.251
42.06000 7.265
42.08000 4.260
42.10000 0.396
42.12000 0.546
42.14000 -0.601
42.16000 -0.211
42.18000 5.820
42.20000 4.799
42.22000 1.013
42.24000 1.342
42.26000 1.758
42.28000 0.571
42.30000 2.633
42.32000 0.630
42.34000 -0.902
42.36000 3.536
42.38000 6.043
42.40000 2.345
42.42000 0.291
42.44000 -3.344
42.46000 0.734
42.48000 -1.453
42.50000 2.963
42.52000 3.380
42.54000 3.058
42.56000 6.175
42.58000 2.758
42.60000 -1.799
42.62000 -2.651
42.64000 2.420
42.66000 0.843
42.68000 2.325
42.70000 5.784
42.72000 -0.985
42.74000 -0.606
42.76000 2.568
42.78000 -0.955
42.80000 -0.672
42.82000 -1.822
42.84000 -0.891
42.86000 3.513
42.88000 1.556
42.90000 -2.800
42.92000 -3.277
42.94000 -2.211
42.96000 -0.905
42.98000 -1.930
43.00000 -1.079
43.02000 -0.499
43.04000 0.136
43.06000 4.969
43.08000 -0.238
43.10000 -3.253
43.12000 0.954
43.14000 5.021
43.16000 3.101
43.18000 1.392
43.20000 3.832
43.22000 1.180
43.24000 0.741
43.26000 -1.887
43.28000 -1.625
43.30000 -1.859
43.32000 -0.494
43.34000 0.648
43.36000 -1.090
43.38000 -0.380
43.40000 -0.444
43.42000 1.554
43.44000 -1.245
43.46000 4.410
43.48000 0.041
43.50000 -3.214
43.52000 -1.384
43.54000 -1.302
43.56000 -1.912
43.58000 0.146
43.60000 0.421
43.62000 6.050
43.64000 6.803
43.66000 1.650
43.68000 0.726
43.70000 -1.494
43.72000 -2.749
43.74000 0.434
43.76000 0.427
43.78000 -2.023
43.80000 0.345
43.82000 5.082
43.84000 2.313
43.86000 -0.620
43.88000 -0.958
43.90000 -2.185
43.92000 -0.434
43.94000 0.762
43.96000 -1.301
43.98000 -1.390
44.00000 1.006
44.02000 0.690
44.04000 -0.011
44.06000 0.869
44.08000 2.054
44.10000 0.641
44.12000 -0.540
44.14000 -0.171
44.16000 -0.864
44.18000 1.944
44.20000 1.457
44.22000 -1.633
44.24000 1.154
44.26000 -0.620
44.28000 -3.172
44.30000 0.342
44.32000 -0.238
44.34000 2.998
44.36000 2.968
44.38000 -0.298
44.40000 -0.837
44.42000 -1.973
44.44000 0.059
44.46000 2.418
44.48000 -0.130
44.50000 0.245
44.52000 2.969
44.54000 1.261
44.56000 1.560
44.58000 0.964
44.60000 -0.784
44.62000 -2.847
44.64000 -2.117
44.66000 -0.586
44.68000 2.985
44.70000 2.628
44.72000 1.721
44.74000 2.478
44.76000 -0.688
44.78000 -3.153
44.80000 -2.032
44.82000 0.454
44.84000 0.873
44.86000 1.862
44.88000 3.830
44.90000 5.181
44.92000 1.502
44.94000 0.299
44.96000 1.953
44.98000 2.917
45.00000 4.071
45.02000 5.765
45.04000 9.225
45.06000 7.874
45.08000 4.579
45.10000 5.618
45.12000 3.838
45.14000 4.243
45.16000 4.719
45.18000 6.627
45.20000 8.162
45.22000 5.284
45.24000 7.844
45.26000 8.657
45.28000 8.858
45.30000 10.247
45.32000 10.866
45.34000 12.878
45.36000 12.732
45.38000 14.393
45.40000 13.000
45.42000 14.863
45.44000 15.681
45.46000 14.020
45.48000 15.404
45.50000 15.120
45.52000 17.010
45.54000 13.615
45.56000 16.336
45.58000 14.995
45.60000 14.050
45.62000 15.115
45.64000 18.274
45.66000 22.906
45.68000 24.699
45.70000 23.423
45.72000 28.348
45.74000 27.283
45.76000 25.000
45.78000 27.461
45.80000 31.319
45.82000 30.623
45.84000 29.934
45.86000 30.755
45.88000 30.265
45.90000 32.270
45.92000 38.061
45.94000 33.383
45.96000 34.069
45.98000 37.926
46.00000 38.511
46.02000 42.677
46.04000 38.779
46.06000 38.546
46.08000 44.930
46.10000 50.919
46.12000 58.218
46.14000 57.225
46.16000 50.332
46.18000 51.797
46.20000 54.905
46.22000 58.082
46.24000 63.107
46.26000 63.071
46.28000 62.210
46.30000 62.290
46.32000 68.242
46.34000 72.509
46.36000 70.887
46.38000 65.363
46.40000 65.841
46.42000 73.149
46.44000 74.947
46.46000 71.526
46.48000 69.823
46.50000 72.631
46.52000 73.648
46.54000 75.783
46.56000 70.414
46.58000 67.602
46.60000 68.981
46.62000 70.462
46.64000 67.357
46.66000 63.131
46.68000 64.120
46.70000 60.792
46.72000 58.384
46.74000 58.328
46.76000 53.385
46.78000 56.121
46.80000 57.104
46.82000 55.870
46.84000 52.287
46.86000 49.165
46.88000 45.985
46.90000 44.995
46.92000 44.873
46.94000 44.547
46.96000 42.719
46.98000 38.951
47.00000 32.921
47.02000 32.133
47.04000 32.407
47.06000 34.627
47.08000 35.685
47.10000 30.063
47.12000 31.147
47.14000 27.630
47.16000 23.915
47.18000 24.312
47.20000 24.187
47.22000 19.612
47.24000 18.377
47.26000 18.537
47.28000 19.008
47.30000 17.951
47.32000 18.847
47.34000 16.149
47.36000 15.556
47.38000 15.403
47.40000 14.507
47.42000 9.435
47.44000 7.713
47.46000 7.419
47.48000 9.703
47.50000 5.444
47.52000 1.730
47.54000 0.944
47.56000 1.203
47.58000 4.895
47.60000 4.313
47.62000 3.831
47.64000 2.892
47.66000 1.711
47.68000 0.754
47.70000 -2.537
47.72000 -2.865
47.74000 3.015
47.76000 -0.277
47.78000 -0.833
47.80000 -0.081
47.82000 0.084
47.84000 2.884
47.86000 3.090
47.88000 4.679
47.90000 6.153
47.92000 1.907
47.94000 1.651
47.96000 0.874
47.98000 0.824
48.00000 2.972
48.02000 -0.310
48.04000 -1.650
48.06000 -0.429
48.08000 -0.112
48.10000 1.435
48.12000 0.065
48.14000 1.835
48.16000 -1.481
48.18000 -0.759
48.20000 -0.944
48.22000 1.237
48.24000 -0.084
48.26000 1.894
48.28000 1.776
48.30000 2.024
48.32000 -0.173
48.34000 2.372
48.36000 2.796
48.38000 -1.538
48.40000 -2.771
48.42000 1.377
48.44000 3.316
48.46000 0.268
48.48000 5.444
48.50000 2.291
48.52000 -0.779
48.54000 1.381
48.56000 -2.032
48.58000 -2.742
48.60000 -1.074
48.62000 1.353
48.64000 3.639
48.66000 0.177
48.68000 1.001
48.70000 1.579
48.72000 4.628
48.74000 0.916
48.76000 1.400
48.78000 0.133
48.80000 -1.351
48.82000 -2.389
48.84000 -2.249
48.86000 0.097
48.88000 0.427
48.90000 1.622
48.92000 -0.354
48.94000 -0.420
48.96000 -1.252
48.98000 4.111
49.00000 2.343
49.02000 4.318
49.04000 4.659
49.06000 0.290
49.08000 -0.585
49.10000 2.331
49.12000 2.366
49.14000 -2.014
49.16000 -0.040
49.18000 3.534
49.20000 4.689
49.22000 2.031
49.24000 -0.346
49.26000 2.149
49.28000 0.303
49.30000 2.860
49.32000 2.746
49.34000 0.925
49.36000 1.033
49.38000 4.277
49.40000 3.051
49.42000 0.511
49.44000 1.686
49.46000 0.384
49.48000 -0.220
49.50000 -0.981
49.52000 4.374
49.54000 4.960
49.56000 2.859
49.58000 5.144
49.60000 4.793
49.62000 2.933
49.64000 1.785
49.66000 -2.627
49.68000 2.954
49.70000 3.110
49.72000 4.697
49.74000 4.639
49.76000 3.821
49.78000 5.744
49.80000 3.488
49.82000 5.410
49.84000 6.042
49.86000 0.749
49.88000 -1.433
49.90000 0.459
49.92000 3.799
49.94000 2.293
49.96000 -0.123
49.98000 2.077
50.00000 3.538
50.02000 2.003
50.04000 3.761
50.06000 3.742
50.08000 4.972
50.10000 6.276
50.12000 3.134
50.14000 0.294
50.16000 2.259
50.18000 6.113
50.20000 3.568
50.22000 -0.774
50.24000 -2.593
50.26000 2.104
50.28000 1.781
50.30000 5.028
50.32000 1.948
50.34000 3.183
50.36000 3.970
50.38000 4.392
50.40000 4.677
50.42000 3.273
50.44000 2.119
50.46000 1.518
50.48000 0.638
50.50000 1.048
50.52000 0.842
50.54000 2.944
50.56000 7.580
50.58000 9.579
50.60000 8.005
50.62000 3.596
50.64000 0.807
50.66000 -1.641
50.68000 -1.564
50.70000 5.560
50.72000 4.618
50.74000 5.367
50.76000 5.375
50.78000 2.484
50.80000 -0.702
50.82000 -2.582
50.84000 -0.563
50.86000 5.243
50.88000 2.639
50.90000 0.909
50.92000 3.542
50.94000 1.307
50.96000 6.266
50.98000 2.866
51.00000 1.992
51.02000 2.898
51.04000 3.668
51.06000 1.233
51.08000 1.613
51.10000 3.298
51.12000 1.853
51.14000 2.480
51.16000 -0.246
51.18000 0.169
51.20000 -1.593
51.22000 0.921
51.24000 2.870
51.26000 4.040
51.28000 2.676
51.30000 3.553
51.32000 4.387
51.34000 1.156
51.36000 1.062
51.38000 -0.114
51.40000 -1.153
51.42000 -0.259
51.44000 5.492
51.46000 6.480
51.48000 4.944
51.50000 6.251
51.52000 5.009
51.54000 4.862
51.56000 5.587
51.58000 5.495
51.60000 4.048
51.62000 2.957
51.64000 3.003
51.66000 -1.256
51.68000 -1.414
51.70000 1.028
51.72000 -0.336
51.74000 -0.154
51.76000 1.217
51.78000 2.447
51.80000 1.644
51.82000 1.685
51.84000 3.038
51.86000 4.356
51.88000 3.919
51.90000 5.256
51.92000 2.855
51.94000 4.111
51.96000 4.378
51.98000 7.222
52.00000 6.414
52.02000 5.302
52.04000 8.556
52.06000 7.061
52.08000 -1.218
52.10000 -2.516
52.12000 1.673
52.14000 4.847
52.16000 5.203
52.18000 4.453
52.20000 3.089
52.22000 3.911
52.24000 3.080
52.26000 5.971
52.28000 7.954
52.30000 4.830
52.32000 -0.001
52.34000 3.636
52.36000 5.441
52.38000 6.742
52.40000 7.820
52.42000 2.165
52.44000 0.190
52.46000 0.441
52.48000 4.126
52.50000 3.323
52.52000 2.551
52.54000 3.886
52.56000 6.975
52.58000 3.705
52.60000 2.249
52.62000 2.825
52.64000 2.714
52.66000 0.385
52.68000 2.340
52.70000 2.486
52.72000 4.504
52.74000 1.699
52.76000 1.604
52.78000 4.035
52.80000 2.291
52.82000 2.324
52.84000 -0.136
52.86000 0.620
52.88000 0.068
52.90000 -0.940
52.92000 1.988
52.94000 3.903
52.96000 4.398
52.98000 3.495
53.00000 -2.506
53.02000 -1.152
53.04000 -0.495
53.06000 2.783
53.08000 -1.344
53.10000 0.439
53.12000 2.065
53.14000 1.735
53.16000 4.837
53.18000 4.960
53.20000 -0.415
53.22000 -2.505
53.24000 -2.364
53.26000 3.960
53.28000 4.243
53.30000 1.310
53.32000 1.334
53.34000 4.096
53.36000 0.758
53.38000 -2.299
53.40000 0.334
53.42000 0.599
53.44000 2.013
53.46000 0.409
53.48000 2.333
53.50000 -0.584
53.52000 1.130
53.54000 -0.070
53.56000 -0.893
53.58000 0.337
53.60000 2.525
53.62000 0.492
53.64000 2.023
53.66000 1.035
53.68000 1.033
53.70000 2.774
53.72000 3.811
53.74000 2.184
53.76000 -0.054
53.78000 1.415
53.80000 5.130
53.82000 2.201
53.84000 0.290
53.86000 1.228
53.88000 4.243
53.90000 6.567
53.92000 5.799
53.94000 1.624
53.96000 -0.812
53.98000 2.040
54.00000 1.349
54.02000 1.937
54.04000 5.323
54.06000 3.042
54.08000 -0.499
54.10000 0.334
54.12000 4.627
54.14000 -0.426
54.16000 -2.403
54.18000 -1.573
54.20000 -0.328
54.22000 -1.220
54.24000 -2.505
54.26000 -1.458
54.28000 1.506
54.30000 3.382
54.32000 1.429
54.34000 -1.047
54.36000 -1.986
54.38000 -1.181
54.40000 -1.903
54.42000 -2.012
54.44000 0.848
54.46000 3.625
54.48000 -0.893
54.50000 -0.152
54.52000 1.029
54.54000 1.380
54.56000 -0.117
54.58000 -1.705
54.60000 1.384
54.62000 1.833
54.64000 5.100
54.66000 4.125
54.68000 4.130
54.70000 2.983
54.72000 0.959
54.74000 2.143
54.76000 -0.369
54.78000 -0.425
54.80000 -0.219
54.82000 4.497
54.84000 2.731
54.86000 1.782
54.88000 1.040
54.90000 1.952
54.92000 5.332
54.94000 1.722
54.96000 0.621
54.98000 1.453
55.00000 -0.039
55.02000 -0.060
55.04000 3.787
55.06000 2.048
55.08000 -2.001
55.10000 -0.805
55.12000 0.031
55.14000 1.742
55.16000 4.106
55.18000 -1.410
55.20000 -2.462
55.22000 -1.407
55.24000 2.510
55.26000 4.857
55.28000 6.854
55.30000 6.096
55.32000 3.224
55.34000 1.056
55.36000 4.499
55.38000 5.161
55.40000 2.734
55.42000 4.128
55.44000 1.975
55.46000 4.241
55.48000 1.930
55.50000 5.004
55.52000 4.587
55.54000 3.226
55.56000 3.459
55.58000 2.039
55.60000 -1.579
55.62000 1.274
55.64000 -2.430
55.66000 -0.916
55.68000 1.436
55.70000 4.219
55.72000 1.385
55.74000 4.261
55.76000 7.704
55.78000 3.150
55.80000 4.586
55.82000 7.605
55.84000 3.236
55.86000 2.837
55.88000 1.479
55.90000 1.507
55.92000 1.931
55.94000 2.038
55.96000 4.066
55.98000 4.015
56.00000 2.769
56.02000 3.849
56.04000 4.693
56.06000 3.783
56.08000 3.999
56.10000 0.526
56.12000 0.388
56.14000 -1.125
56.16000 0.164
56.18000 2.288
56.20000 3.861
56.22000 1.118
56.24000 0.583
56.26000 1.801
56.28000 1.527
56.30000 2.372
56.32000 -1.224
56.34000 4.822
56.36000 5.268
56.38000 3.370
56.40000 1.091
56.42000 2.695
56.44000 2.998
56.46000 2.673
56.48000 6.108
56.50000 3.324
56.52000 3.482
56.54000 4.575
56.56000 2.170
56.58000 0.612
56.60000 4.438
56.62000 4.708
56.64000 1.662
56.66000 0.079
56.68000 -1.494
56.70000 -2.418
56.72000 0.930
56.74000 3.089
56.76000 1.885
56.78000 3.341
56.80000 1.613
56.82000 -0.749
56.84000 2.435
56.86000 1.994
56.88000 4.263
56.90000 3.877
56.92000 1.473
56.94000 1.413
56.96000 2.643
56.98000 3.025
57.00000 0.708
57.02000 -0.065
57.04000 0.203
57.06000 -2.411
57.08000 1.239
57.10000 3.952
57.12000 3.763
57.14000 1.396
57.16000 3.919
57.18000 4.451
57.20000 2.808
57.22000 2.860
57.24000 -1.485
57.26000 1.373
57.28000 -0.799
57.30000 0.866
57.32000 0.420
57.34000 -0.230
57.36000 0.423
57.38000 4.104
57.40000 -0.518
57.42000 -1.152
57.44000 -1.671
57.46000 0.676
57.48000 2.774
57.50000 3.726
57.52000 3.489
57.54000 2.749
57.56000 3.511
57.58000 1.584
57.60000 3.792
57.62000 1.668
57.64000 0.042
57.66000 3.227
57.68000 2.626
57.70000 0.136
57.72000 -2.407
57.74000 -0.668
57.76000 -0.080
57.78000 1.724
57.80000 2.956
57.82000 2.226
57.84000 2.125
57.86000 3.425
57.88000 3.445
57.90000 7.237
57.92000 3.386
57.94000 1.516
57.96000 2.779
57.98000 4.388
58.00000 2.448
58.02000 -0.070
58.04000 -0.771
58.06000 -0.050
58.08000 2.874
58.10000 3.888
58.12000 4.647
58.14000 2.217
58.16000 2.376
58.18000 0.600
58.20000 -2.378
58.22000 -0.190
58.24000 2.354
58.26000 -0.045
58.28000 2.232
58.30000 1.980
58.32000 2.287
58.34000 4.210
58.36000 5.312
58.38000 3.709
58.40000 2.866
58.42000 3.498
58.44000 4.629
58.46000 -0.020
58.48000 -0.654
58.50000 2.027
58.52000 2.029
58.54000 0.219
58.56000 3.486
58.58000 3.639
58.60000 3.572
58.62000 4.247
58.64000 4.072
58.66000 2.679
58.68000 3.304
58.70000 3.586
58.72000 1.974
58.74000 0.706
58.76000 2.247
58.78000 1.784
58.80000 1.753
58.82000 5.685
58.84000 1.928
58.86000 2.508
58.88000 5.213
58.90000 3.659
58.92000 0.351
58.94000 -1.529
58.96000 -1.355
58.98000 3.445
59.00000 1.651
59.02000 0.529
59.04000 0.933
59.06000 -0.027
59.08000 2.353
59.10000 2.593
59.12000 -1.079
59.14000 -1.134
59.16000 -1.049
59.18000 1.026
59.20000 -0.252
59.22000 -0.809
59.24000 1.323
59.26000 1.486
59.28000 2.984
59.30000 3.527
59.32000 2.285
59.34000 1.475
59.36000 -0.326
59.38000 2.656
59.40000 1.688
59.42000 4.342
59.44000 2.302
59.46000 4.882
59.48000 6.641
59.50000 4.608
59.52000 3.603
59.54000 2.253
59.56000 4.022
59.58000 3.682
59.60000 1.563
59.62000 -2.318
59.64000 0.578
59.66000 4.065
59.68000 2.400
59.70000 2.043
59.72000 0.464
59.74000 -0.929
59.76000 0.946
59.78000 1.324
59.80000 2.805
59.82000 5.839
59.84000 3.915
59.86000 8.248
59.88000 6.257
59.90000 6.416
59.92000 5.047
59.94000 6.624
59.96000 3.120
59.98000 -0.986
60.00000 0.801
60.02000 4.848
60.04000 3.173
60.06000 -2.313
60.08000 -0.839
60.10000 0.107
60.12000 1.610
60.14000 2.236
60.16000 3.352
60.18000 2.598
60.20000 4.503
60.22000 2.716
60.24000 2.881
60.26000 1.058
60.28000 1.266
60.30000 -0.127
60.32000 1.455
60.34000 1.036
60.36000 3.092
60.38000 0.040
60.40000 -0.021
60.42000 -1.456
60.44000 -0.147
60.46000 0.252
60.48000 0.317
60.50000 2.474
60.52000 1.481
60.54000 1.595
60.56000 0.707
60.58000 2.853
60.60000 5.462
60.62000 1.217
60.64000 1.306
60.66000 0.728
60.68000 2.945
60.70000 4.759
60.72000 3.522
60.74000 0.492
60.76000 2.310
60.78000 2.835
60.80000 2.274
60.82000 3.941
60.84000 3.008
60.86000 1.546
60.88000 1.355
60.90000 0.534
60.92000 0.431
60.94000 0.441
60.96000 2.152
60.98000 4.667
61.00000 4.141
61.02000 2.518
61.04000 2.303
61.06000 3.698
61.08000 2.284
61.10000 2.367
61.12000 4.659
61.14000 5.725
61.16000 3.678
61.18000 2.267
61.20000 1.419
61.22000 2.330
61.24000 3.089
61.26000 1.785
61.28000 0.530
61.30000 -1.665
61.32000 -2.274
61.34000 1.052
61.36000 3.497
61.38000 2.175
61.40000 0.801
61.42000 0.402
61.44000 2.423
61.46000 2.820
61.48000 1.075
61.50000 1.227
61.52000 1.575
61.54000 6.889
61.56000 3.256
61.58000 1.885
61.60000 1.025
61.62000 1.383
61.64000 3.019
61.66000 -1.087
61.68000 2.201
61.70000 3.638
61.72000 -0.755
61.74000 1.642
61.76000 2.915
61.78000 -1.123
61.80000 1.086
61.82000 -1.238
61.84000 1.408
61.86000 3.082
61.88000 1.664
61.90000 -0.272
61.92000 1.408
61.94000 2.848
61.96000 -0.398
61.98000 -0.177
62.00000 4.744
62.02000 5.219
62.04000 2.137
62.06000 3.397
62.08000 1.546
62.10000 1.620
62.12000 1.254
62.14000 4.186
62.16000 5.412
62.18000 0.524
62.20000 -0.269
62.22000 -0.673
62.24000 2.575
62.26000 -0.325
62.28000 -0.130
62.30000 0.450
62.32000 -0.080
62.34000 3.207
62.36000 1.618
62.38000 1.336
62.40000 2.659
62.42000 3.744
62.44000 -0.484
62.46000 -1.183
62.48000 0.433
62.50000 1.109
62.52000 0.908
62.54000 -0.074
62.56000 1.274
62.58000 -2.283
62.60000 -0.278
62.62000 1.475
62.64000 3.854
62.66000 2.761
62.68000 1.692
62.70000 -0.645
62.72000 -1.241
62.74000 0.282
62.76000 -0.075
62.78000 0.585
62.80000 1.549
62.82000 1.325
62.84000 2.870
62.86000 3.198
62.88000 3.511
62.90000 2.264
62.92000 -0.289
62.94000 1.075
62.96000 1.904
62.98000 0.960
63.00000 1.595
63.02000 1.721
63.04000 -1.241
63.06000 1.766
63.08000 2.158
63.10000 0.135
63.12000 -1.115
63.14000 1.841
63.16000 0.541
63.18000 -2.279
63.20000 -1.321
63.22000 3.312
63.24000 4.254
63.26000 4.256
63.28000 1.890
63.30000 0.872
63.32000 0.384
63.34000 1.953
63.36000 1.312
63.38000 5.049
63.40000 11.641
63.42000 3.340
63.44000 -0.912
63.46000 2.531
63.48000 0.359
63.50000 1.606
63.52000 2.401
63.54000 -0.520
63.56000 2.411
63.58000 3.765
63.60000 -0.141
63.62000 -1.524
63.64000 -2.258
63.66000 -0.922
63.68000 2.103
63.70000 3.523
63.72000 1.425
63.74000 1.370
63.76000 -1.438
63.78000 -2.143
63.80000 0.406
63.82000 3.540
63.84000 4.578
63.86000 3.999
63.88000 3.404
63.90000 4.311
63.92000 2.547
63.94000 0.954
63.96000 0.143
63.98000 0.666
64.00000 0.467
64.02000 0.307
64.04000 5.101
64.06000 4.803
64.08000 3.080
64.10000 2.579
64.12000 -1.484
64.14000 3.436
64.16000 3.413
64.18000 1.910
64.20000 4.640
64.22000 3.952
64.24000 2.042
64.26000 -0.174
64.28000 3.364
64.30000 4.003
64.32000 1.602
64.34000 3.462
64.36000 1.680
64.38000 0.400
64.40000 0.552
64.42000 1.177
64.44000 1.730
64.46000 0.895
64.48000 1.866
64.50000 2.610
64.52000 0.767
64.54000 2.022
64.56000 -0.251
64.58000 0.941
64.60000 0.854
64.62000 0.855
64.64000 0.662
64.66000 2.435
64.68000 5.305
64.70000 -0.899
64.72000 0.339
64.74000 2.379
64.76000 2.751
64.78000 1.831
64.80000 1.978
64.82000 1.458
64.84000 -0.782
64.86000 -2.288
64.88000 1.426
64.90000 2.540
64.92000 4.524
64.94000 3.194
64.96000 -0.344
64.98000 0.090
65.00000 3.396
65.02000 3.550
65.04000 6.124
65.06000 5.136
65.08000 3.669
65.10000 1.894
65.12000 -0.335
65.14000 2.680
65.16000 2.747
65.18000 0.185
65.20000 -2.092
65.22000 0.117
65.24000 3.421
65.26000 3.052
65.28000 0.618
65.30000 -2.307
65.32000 0.407
65.34000 1.857
65.36000 0.415
65.38000 0.387
65.40000 -0.246
65.42000 0.433
65.44000 -0.159
65.46000 -1.682
65.48000 -0.601
65.50000 1.996
65.52000 2.308
65.54000 3.171
65.56000 1.349
65.58000 -1.281
65.60000 1.083
65.62000 -0.900
65.64000 -2.322
65.66000 -2.071
65.68000 0.288
65.70000 1.193
65.72000 3.221
65.74000 3.258
65.76000 -0.175
65.78000 0.746
65.80000 2.809
65.82000 2.471
65.84000 0.139
65.86000 1.539
65.88000 0.476
65.90000 4.028
65.92000 2.518
65.94000 0.134
65.96000 -0.593
65.98000 -1.487
66.00000 -0.690
66.02000 1.152
66.04000 -2.334
66.06000 0.068
66.08000 2.294
66.10000 4.179
66.12000 2.208
66.14000 0.915
66.16000 -0.588
66.18000 0.512
66.20000 1.178
66.22000 1.446
66.24000 0.233
66.26000 -0.461
66.28000 3.996
66.30000 1.315
66.32000 -0.421
66.34000 -0.128
66.36000 -0.162
66.38000 0.432
66.40000 0.772
66.42000 0.193
66.44000 0.610
66.46000 -2.338
66.48000 -0.219
66.50000 2.169
66.52000 -1.042
66.54000 -0.941
66.56000 1.939
66.58000 2.277
66.60000 3.427
66.62000 3.541
66.64000 2.858
66.66000 1.444
66.68000 0.403
66.70000 2.237
66.72000 3.777
66.74000 5.513
66.76000 5.116
66.78000 4.523
66.80000 6.377
66.82000 4.895
66.84000 2.802
66.86000 2.625
66.88000 2.340
66.90000 3.373
66.92000 4.663
66.94000 5.090
66.96000 5.055
66.98000 4.927
67.00000 4.432
67.02000 4.516
67.04000 8.414
67.06000 7.247
67.08000 7.253
67.10000 6.202
67.12000 4.708
67.14000 5.000
67.16000 9.758
67.18000 8.199
67.20000 8.265
67.22000 6.549
67.24000 5.826
67.26000 6.761
67.28000 5.889
67.30000 9.786
67.32000 11.395
67.34000 11.613
67.36000 11.662
67.38000 11.942
67.40000 11.039
67.42000 11.546
67.44000 11.334
67.46000 13.538
67.48000 12.314
67.50000 15.963
67.52000 16.586
67.54000 16.153
67.56000 16.707
67.58000 18.019
67.60000 17.557
67.62000 15.466
67.64000 11.548
67.66000 10.370
67.68000 14.677
67.70000 17.096
67.72000 14.882
67.74000 14.163
67.76000 13.651
67.78000 14.177
67.80000 13.192
67.82000 13.041
67.84000 15.888
67.86000 13.313
67.88000 12.278
67.90000 12.822
67.92000 9.298
67.94000 10.337
67.96000 11.609
67.98000 12.318
68.00000 12.237
68.02000 12.092
68.04000 10.394
68.06000 11.072
68.08000 12.016
68.10000 10.247
68.12000 12.204
68.14000 10.289
68.16000 7.353
68.18000 3.914
68.20000 5.525
68.22000 7.176
68.24000 7.165
68.26000 7.995
68.28000 11.141
68.30000 6.850
68.32000 6.312
68.34000 6.952
68.36000 3.138
68.38000 2.712
68.40000 0.434
68.42000 0.827
68.44000 1.493
68.46000 4.254
68.48000 5.769
68.50000 5.807
68.52000 4.872
68.54000 3.615
68.56000 2.896
68.58000 0.951
68.60000 0.399
68.62000 2.541
68.64000 2.199
68.66000 -0.121
68.68000 3.188
68.70000 2.185
68.72000 -1.007
68.74000 -0.714
68.76000 -0.007
68.78000 -1.649
68.80000 -1.601
68.82000 -1.306
68.84000 -1.318
68.86000 3.333
68.88000 -0.636
68.90000 -1.301
68.92000 2.557
68.94000 2.779
68.96000 0.278
68.98000 -1.134
69.00000 2.495
69.02000 2.867
69.04000 0.191
69.06000 -1.223
69.08000 0.489
69.10000 0.741
69.12000 1.397
69.14000 0.193
69.16000 0.657
69.18000 -1.046
69.20000 -2.262
69.22000 2.795
69.24000 6.159
69.26000 1.550
69.28000 -1.038
69.30000 1.426
69.32000 -1.255
69.34000 -1.516
69.36000 -0.324
69.38000 1.023
69.40000 0.253
69.42000 -0.771
69.44000 0.839
69.46000 -0.261
69.48000 0.989
69.50000 2.518
69.52000 1.671
69.54000 3.046
69.56000 1.516
69.58000 -2.098
69.60000 -0.067
69.62000 2.300
69.64000 1.083
69.66000 0.526
69.68000 0.220
69.70000 0.253
69.72000 -0.054
69.74000 -0.922
69.76000 0.539
69.78000 -1.018
69.80000 -0.875
69.82000 -1.035
69.84000 -0.203
69.86000 1.746
69.88000 2.750
69.90000 2.431
69.92000 -0.736
69.94000 3.062
69.96000 5.329
69.98000 2.130
70.00000 0.823
70.02000 0.960
70.04000 -0.638
70.06000 1.274
70.08000 3.246
70.10000 -0.140
70.12000 -0.352
70.14000 2.612
70.16000 1.929
70.18000 0.546
70.20000 1.109
70.22000 3.411
70.24000 2.934
70.26000 -2.142
70.28000 -0.578
70.30000 1.667
70.32000 4.158
70.34000 3.071
70.36000 5.455
70.38000 6.819
70.40000 5.160
70.42000 3.404
70.44000 -0.221
70.46000 0.430
70.48000 1.804
70.50000 2.974
70.52000 6.098
70.54000 6.211
70.56000 2.476
70.58000 3.102
70.60000 5.499
70.62000 6.252
70.64000 4.345
70.66000 0.364
70.68000 -2.113
70.70000 0.994
70.72000 4.692
70.74000 4.389
70.76000 7.772
70.78000 5.392
70.80000 4.429
70.82000 7.791
70.84000 6.296
70.86000 5.844
70.88000 3.471
70.90000 3.834
70.92000 5.787
70.94000 2.556
70.96000 6.056
70.98000 5.033
71.00000 3.028
71.02000 2.764
71.04000 2.593
71.06000 2.720
71.08000 2.987
71.10000 0.695
71.12000 1.521
71.14000 6.337
71.16000 6.767
71.18000 2.000
71.20000 1.292
71.22000 5.655
71.24000 2.431
71.26000 3.296
71.28000 3.394
71.30000 3.328
71.32000 2.117
71.34000 0.704
71.36000 2.758
71.38000 7.574
71.40000 5.160
71.42000 3.606
71.44000 4.488
71.46000 5.127
71.48000 3.418
71.50000 3.305
71.52000 4.842
71.54000 1.315
71.56000 5.187
71.58000 5.288
71.60000 2.163
71.62000 -2.145
71.64000 4.996
71.66000 7.823
71.68000 4.401
71.70000 2.735
71.72000 2.883
71.74000 3.384
71.76000 1.332
71.78000 1.274
71.80000 2.142
71.82000 0.117
71.84000 0.171
71.86000 3.059
71.88000 2.816
71.90000 3.352
71.92000 2.917
71.94000 4.973
71.96000 2.555
71.98000 1.439
72.00000 1.727
72.02000 0.020
72.04000 0.134
72.06000 1.356
72.08000 2.807
72.10000 1.727
72.12000 0.854
72.14000 -1.258
72.16000 0.064
72.18000 0.565
72.20000 0.793
72.22000 0.933
72.24000 0.613
72.26000 0.585
72.28000 0.813
72.30000 1.292
72.32000 2.927
72.34000 6.245
72.36000 5.358
72.38000 5.226
72.40000 3.639
72.42000 3.432
72.44000 1.172
72.46000 1.077
72.48000 1.752
72.50000 2.110
72.52000 1.473
72.54000 0.521
72.56000 1.064
72.58000 1.454
72.60000 0.686
72.62000 -2.102
72.64000 2.815
72.66000 2.793
72.68000 1.147
72.70000 1.802
72.72000 2.869
72.74000 0.581
72.76000 0.209
72.78000 1.732
72.80000 1.319
72.82000 -0.990
72.84000 1.383
72.86000 1.704
72.88000 0.686
72.90000 -1.154
72.92000 -1.891
72.94000 2.457
72.96000 2.546
72.98000 -0.347
73.00000 0.421
73.02000 -0.066
73.04000 -0.726
73.06000 -0.965
73.08000 0.161
73.10000 0.491
73.12000 -0.062
73.14000 3.073
73.16000 2.960
73.18000 2.888
73.20000 1.153
73.22000 2.142
73.24000 2.030
73.26000 1.773
73.28000 -0.046
73.30000 0.631
73.32000 0.525
73.34000 2.181
73.36000 4.367
73.38000 1.679
73.40000 -1.291
73.42000 0.998
73.44000 4.508
73.46000 2.065
73.48000 0.257
73.50000 1.717
73.52000 3.133
73.54000 0.873
73.56000 0.191
73.58000 0.679
73.60000 0.691
73.62000 4.320
73.64000 7.183
73.66000 3.050
73.68000 -1.654
73.70000 -1.398
73.72000 2.554
73.74000 1.667
73.76000 2.175
73.78000 5.334
73.80000 7.913
73.82000 2.944
73.84000 0.634
73.86000 0.709
73.88000 -0.689
73.90000 -2.100
73.92000 2.043
73.94000 4.841
73.96000 5.073
73.98000 1.865
74.00000 0.377
74.02000 3.875
74.04000 3.430
74.06000 2.746
74.08000 2.201
74.10000 1.043
74.12000 2.180
74.14000 6.061
74.16000 2.586
74.18000 -2.098
74.20000 -0.582
74.22000 2.134
74.24000 1.499
74.26000 0.004
74.28000 4.072
74.30000 2.466
74.32000 4.720
74.34000 0.940
74.36000 -1.300
74.38000 -0.189
74.40000 1.624
74.42000 2.441
74.44000 1.251
74.46000 -1.518
74.48000 0.051
74.50000 -0.047
74.52000 2.315
74.54000 2.217
74.56000 -0.447
74.58000 -0.923
74.60000 -0.626
74.62000 -0.696
74.64000 -2.100
74.66000 1.192
74.68000 3.616
74.70000 1.619
74.72000 2.824
74.74000 4.029
74.76000 6.445
74.78000 3.600
74.80000 1.419
74.82000 2.356
74.84000 0.727
74.86000 3.320
74.88000 0.509
74.90000 2.517
74.92000 3.153
74.94000 4.593
74.96000 2.954
74.98000 2.029
75.00000 0.525
75.02000 2.674
75.04000 3.715
75.06000 3.286
75.08000 -0.182
75.10000 0.258
75.12000 1.478
75.14000 -0.462
75.16000 1.075
75.18000 1.481
75.20000 3.302
75.22000 3.267
75.24000 6.084
75.26000 2.903
75.28000 2.664
75.30000 3.327
75.32000 1.998
75.34000 3.345
75.36000 1.399
75.38000 -0.187
75.40000 -2.095
75.42000 1.725
75.44000 0.953
75.46000 2.036
75.48000 0.104
75.50000 0.395
75.52000 -0.574
75.54000 2.848
75.56000 4.116
75.58000 4.229
75.60000 4.336
75.62000 4.330
75.64000 3.773
75.66000 5.054
75.68000 0.909
75.70000 0.286
75.72000 1.540
75.74000 0.530
75.76000 -1.051
75.78000 3.035
75.80000 6.164
75.82000 2.987
75.84000 5.519
75.86000 6.601
75.88000 5.934
75.90000 5.346
75.92000 5.319
75.94000 5.564
75.96000 3.667
75.98000 3.379
76.00000 3.097
76.02000 2.882
76.04000 2.455
76.06000 3.377
76.08000 2.941
76.10000 2.543
76.12000 -2.124
76.14000 -1.855
76.16000 2.430
76.18000 3.109
76.20000 2.235
76.22000 4.138
76.24000 4.616
76.26000 5.423
76.28000 5.291
76.30000 2.569
76.32000 7.118
76.34000 2.843
76.36000 -1.559
76.38000 0.932
76.40000 3.727
76.42000 5.913
76.44000 3.919
76.46000 1.648
76.48000 1.637
76.50000 0.748
76.52000 -2.130
76.54000 0.996
76.56000 1.047
76.58000 0.197
76.60000 2.429
76.62000 2.205
76.64000 2.692
76.66000 4.633
76.68000 2.116
76.70000 2.376
76.72000 6.391
76.74000 4.775
76.76000 2.846
76.78000 0.992
76.80000 0.065
76.82000 2.857
76.84000 -0.528
76.86000 -0.449
76.88000 -1.309
76.90000 1.606
76.92000 2.876
76.94000 4.624
76.96000 1.459
76.98000 3.142
77.00000 3.863
77.02000 3.093
77.04000 3.490
77.06000 0.630
77.08000 2.927
77.10000 0.143
77.12000 3.686
77.14000 1.961
77.16000 3.139
77.18000 2.978
77.20000 3.439
77.22000 -2.116
77.24000 -0.492
77.26000 1.750
77.28000 1.016
77.30000 0.172
77.32000 -0.192
77.34000 0.284
77.36000 2.320
77.38000 1.066
77.40000 3.749
77.42000 4.592
77.44000 1.406
77.46000 1.205
77.48000 0.333
77.50000 0.411
77.52000 3.201
77.54000 0.538
77.56000 1.399
77.58000 1.785
77.60000 0.355
77.62000 1.200
77.64000 3.148
77.66000 2.236
77.68000 6.299
77.70000 3.567
77.72000 2.944
77.74000 4.477
77.76000 4.724
77.78000 3.779
77.80000 0.716
77.82000 3.441
77.84000 2.093
77.86000 1.626
77.88000 3.391
77.90000 3.902
77.92000 1.539
77.94000 -0.943
77.96000 0.133
77.98000 2.586
78.00000 3.336
78.02000 4.166
78.04000 5.927
78.06000 3.550
78.08000 0.995
78.10000 -0.364
78.12000 0.130
78.14000 3.240
78.16000 -0.818
78.18000 -1.024
78.20000 2.717
78.22000 3.105
78.24000 2.085
78.26000 1.482
78.28000 0.709
78.30000 -0.440
78.32000 3.819
78.34000 3.450
78.36000 1.467
78.38000 2.423
78.40000 3.030
78.42000 3.438
78.44000 2.863
78.46000 2.234
78.48000 -1.242
78.50000 -0.859
78.52000 0.840
78.54000 -0.989
78.56000 0.425
78.58000 0.976
78.60000 2.300
78.62000 7.444
78.64000 5.200
78.66000 1.416
78.68000 1.694
78.70000 2.735
78.72000 1.850
78.74000 -2.175
78.76000 0.404
78.78000 3.220
78.80000 2.626
78.82000 1.615
78.84000 1.788
78.86000 1.446
78.88000 -1.412
78.90000 0.432
78.92000 2.553
78.94000 2.754
78.96000 2.501
78.98000 0.193
79.00000 -0.077
79.02000 1.655
79.04000 4.615
79.06000 7.682
79.08000 8.584
79.10000 1.476
79.12000 0.668
79.14000 3.425
79.16000 -2.183
79.18000 0.615
79.20000 0.296
79.22000 3.215
79.24000 1.626
79.26000 5.018
79.28000 3.658
79.30000 3.413
79.32000 6.004
79.34000 1.650
79.36000 4.607
79.38000 8.278
79.40000 6.759
79.42000 6.890
79.44000 2.006
79.46000 2.247
79.48000 -0.393
79.50000 -2.205
79.52000 -0.606
79.54000 0.732
79.56000 -0.300
79.58000 4.143
79.60000 3.965
79.62000 4.686
79.64000 8.135
79.66000 7.647
79.68000 4.244
79.70000 1.673
79.72000 -1.058
79.74000 -1.469
79.76000 -0.854
79.78000 -2.235
79.80000 -1.282
79.82000 2.213
79.84000 4.919
79.86000 5.195
79.88000 6.175
79.90000 9.657
79.92000 3.209
79.94000 4.381
79.96000 4.587
79.98000 -0.503
80.00000 1.871
80.02000 4.601
80.04000 4.055
80.06000 5.747
80.08000 -0.102
80.10000 3.603
80.12000 4.870
80.14000 0.415
80.16000 0.711
80.18000 1.188
80.20000 1.327
80.22000 2.430
80.24000 3.867
80.26000 3.161
80.28000 6.103
80.30000 5.055
80.32000 1.706
80.34000 2.541
80.36000 1.789
80.38000 4.133
80.40000 4.835
80.42000 1.698
80.44000 6.387
80.46000 6.584
80.48000 6.142
80.50000 8.772
80.52000 4.161
80.54000 3.239
80.56000 1.835
80.58000 2.296
80.60000 7.158
80.62000 12.385
80.64000 9.040
80.66000 1.929
80.68000 4.196
80.70000 7.696
80.72000 9.808
80.74000 7.311
80.76000 8.370
80.78000 9.921
80.80000 12.425
80.82000 9.005
80.84000 9.103
80.86000 10.257
80.88000 9.763
80.90000 10.980
80.92000 16.561
80.94000 14.278
80.96000 11.072
80.98000 11.804
81.00000 13.304
81.02000 18.338
81.04000 15.524
81.06000 12.606
81.08000 12.829
81.10000 17.264
81.12000 20.419
81.14000 20.414
81.16000 22.433
81.18000 25.874
81.20000 24.232
81.22000 23.674
81.24000 19.975
81.26000 15.552
81.28000 19.514
81.30000 22.539
81.32000 23.673
81.34000 22.172
81.36000 23.665
81.38000 21.175
81.40000 15.972
81.42000 18.836
81.44000 20.675
81.46000 23.392
81.48000 28.943
81.50000 26.817
81.52000 18.595
81.54000 19.351
81.56000 24.840
81.58000 24.978
81.60000 22.261
81.62000 20.723
81.64000 24.917
81.66000 27.631
81.68000 26.470
81.70000 25.412
81.72000 29.711
81.74000 30.600
81.76000 25.109
81.78000 23.504
81.80000 24.606
81.82000 21.988
81.84000 22.298
81.86000 25.260
81.88000 24.408
81.90000 22.575
81.92000 23.222
81.94000 20.455
81.96000 18.758
81.98000 19.383
82.00000 18.017
82.02000 17.062
82.04000 16.532
82.06000 15.752
82.08000 18.785
82.10000 20.434
82.12000 18.417
82.14000 16.973
82.16000 15.512
82.18000 16.308
82.20000 12.883
82.22000 15.035
82.24000 16.559
82.26000 15.046
82.28000 12.675
82.30000 11.625
82.32000 14.482
82.34000 15.231
82.36000 10.683
82.38000 7.698
82.40000 2.384
82.42000 6.306
82.44000 6.169
82.46000 7.162
82.48000 7.056
82.50000 8.970
82.52000 9.065
82.54000 6.077
82.56000 3.333
82.58000 5.730
82.60000 10.092
82.62000 8.561
82.64000 4.948
82.66000 1.328
82.68000 3.437
82.70000 6.878
82.72000 4.686
82.74000 4.148
82.76000 4.823
82.78000 3.711
82.80000 2.172
82.82000 2.532
82.84000 3.896
82.86000 4.404
82.88000 6.722
82.90000 4.040
82.92000 1.449
82.94000 0.599
82.96000 4.524
82.98000 5.157
83.00000 2.202
83.02000 1.077
83.04000 -2.276
83.06000 4.097
83.08000 4.680
83.10000 2.538
83.12000 2.116
83.14000 3.045
83.16000 4.166
83.18000 -2.299
83.20000 -0.323
83.22000 -0.360
83.24000 0.611
83.26000 -1.049
83.28000 2.217
83.30000 0.002
83.32000 -0.903
83.34000 -0.986
83.36000 -0.998
83.38000 1.074
83.40000 -0.289
83.42000 0.742
83.44000 2.067
83.46000 -0.068
83.48000 1.151
83.50000 3.420
83.52000 2.435
83.54000 1.075
83.56000 1.304
83.58000 0.767
83.60000 -1.414
83.62000 0.936
83.64000 0.844
83.66000 3.954
83.68000 4.826
83.70000 0.716
83.72000 -1.098
83.74000 -0.013
83.76000 2.570
83.78000 3.113
83.80000 2.109
83.82000 -0.366
83.84000 2.751
83.86000 0.020
83.88000 2.833
83.90000 2.331
83.92000 4.065
83.94000 4.152
83.96000 5.545
83.98000 4.403
84.00000 3.432
84.02000 4.957
84.04000 4.159
84.06000 1.613
84.08000 -2.242
84.10000 -0.920
84.12000 2.472
84.14000 4.319
84.16000 3.297
84.18000 6.244
84.20000 1.513
84.22000 1.188
84.24000 0.427
84.26000 0.405
84.28000 2.684
84.30000 2.637
84.32000 2.121
84.34000 1.676
84.36000 4.341
84.38000 4.514
84.40000 6.322
84.42000 4.270
84.44000 2.362
84.46000 7.177
84.48000 7.653
84.50000 7.079
84.52000 6.775
84.54000 5.947
84.56000 3.922
84.58000 6.035
84.60000 5.604
84.62000 4.622
84.64000 4.698
84.66000 4.462
84.68000 9.271
84.70000 8.585
84.72000 4.608
84.74000 3.900
84.76000 5.048
84.78000 6.671
84.80000 8.364
84.82000 5.925
84.84000 8.813
84.86000 9.591
84.88000 14.940
84.90000 13.790
84.92000 10.794
84.94000 8.390
84.96000 11.658
84.98000 13.765
85.00000 10.298
85.02000 11.050
85.04000 8.073
85.06000 9.789
85.08000 11.190
85.10000 13.553
85.12000 16.212
85.14000 15.754
85.16000 15.779
85.18000 15.125
85.20000 10.024
85.22000 11.575
85.24000 12.867
85.26000 14.090
85.28000 17.251
85.30000 22.913
85.32000 17.787
85.34000 18.363
85.36000 18.394
85.38000 18.388
85.40000 24.071
85.42000 22.130
85.44000 20.246
85.46000 19.443
85.48000 19.686
85.50000 19.449
85.52000 22.123
85.54000 25.796
85.56000 23.743
85.58000 24.336
85.60000 25.201
85.62000 22.874
85.64000 20.766
85.66000 24.497
85.68000 27.705
85.70000 25.182
85.72000 21.843
85.74000 22.376
85.76000 23.597
85.78000 23.889
85.80000 20.653
85.82000 22.109
85.84000 20.682
85.86000 24.936
85.88000 23.433
85.90000 20.737
85.92000 22.193
85.94000 21.009
85.96000 19.112
85.98000 21.104
86.00000 15.608
86.02000 18.345
86.04000 18.924
86.06000 17.911
86.08000 19.544
86.10000 13.764
86.12000 12.259
86.14000 14.747
86.16000 17.192
86.18000 12.862
86.20000 12.546
86.22000 13.872
86.24000 13.165
86.26000 12.566
86.28000 13.137
86.30000 12.429
86.32000 10.663
86.34000 10.445
86.36000 8.172
86.38000 11.947
86.40000 10.941
86.42000 12.490
86.44000 10.514
86.46000 7.388
86.48000 5.148
86.50000 4.337
86.52000 6.997
86.54000 6.195
86.56000 2.410
86.58000 4.119
86.60000 5.821
86.62000 7.450
86.64000 5.864
86.66000 5.094
86.68000 5.836
86.70000 4.517
86.72000 2.156
86.74000 5.478
86.76000 0.812
86.78000 1.630
86.80000 2.071
86.82000 1.718
86.84000 5.183
86.86000 2.583
86.88000 2.025
86.90000 2.941
86.92000 4.942
86.94000 3.154
86.96000 1.011
86.98000 1.272
87.00000 3.970
87.02000 2.092
87.04000 0.481
87.06000 1.494
87.08000 -2.079
87.10000 2.801
87.12000 5.945
87.14000 4.140
87.16000 1.876
87.18000 0.528
87.20000 -1.672
87.22000 -0.046
87.24000 1.416
87.26000 4.057
87.28000 0.081
87.30000 -2.103
87.32000 2.626
87.34000 3.711
87.36000 1.601
87.38000 4.081
87.40000 3.599
87.42000 2.212
87.44000 0.231
87.46000 0.365
87.48000 1.752
87.50000 -0.088
87.52000 -0.267
87.54000 2.049
87.56000 1.200
87.58000 -1.218
87.60000 1.835
87.62000 4.427
87.64000 -0.052
87.66000 -1.424
87.68000 1.465
87.70000 1.772
87.72000 -0.862
87.74000 1.358
87.76000 1.262
87.78000 0.196
87.80000 0.214
87.82000 0.113
87.84000 1.271
87.86000 4.914
87.88000 3.321
87.90000 1.209
87.92000 1.887
87.94000 3.073
87.96000 4.794
87.98000 5.697
88.00000 -0.407
88.02000 -1.999
88.04000 -2.022
88.06000 -0.384
88.08000 2.785
88.10000 5.334
88.12000 0.183
88.14000 0.907
88.16000 2.497
88.18000 2.466
88.20000 -0.743
88.22000 1.342
88.24000 3.059
88.26000 2.356
88.28000 -0.980
88.30000 3.285
88.32000 4.800
88.34000 1.418
88.36000 -0.314
88.38000 0.389
88.40000 2.265
88.42000 0.849
88.44000 1.243
88.46000 2.048
88.48000 1.331
88.50000 0.681
88.52000 1.087
88.54000 1.793
88.56000 -0.052
88.58000 -0.143
88.60000 0.432
88.62000 3.246
88.64000 4.536
88.66000 5.689
88.68000 3.197
88.70000 -0.384
88.72000 -0.807
88.74000 -0.576
88.76000 -1.209
88.78000 1.347
88.80000 2.086
88.82000 -2.005
88.84000 1.740
88.86000 3.198
88.88000 4.205
88.90000 5.653
88.92000 1.459
88.94000 0.086
88.96000 3.101
88.98000 3.171
89.00000 1.182
89.02000 0.620
89.04000 1.403
89.06000 3.625
89.08000 0.361
89.10000 1.703
89.12000 3.269
89.14000 1.079
89.16000 3.532
89.18000 -1.251
89.20000 -1.987
89.22000 1.958
89.24000 4.065
89.26000 1.377
89.28000 -0.200
89.30000 -0.445
89.32000 4.038
89.34000 5.010
89.36000 1.164
89.38000 2.721
89.40000 5.403
89.42000 4.907
89.44000 2.863
89.46000 3.363
89.48000 1.328
89.50000 2.091
89.52000 4.856
89.54000 1.046
89.56000 -1.703
89.58000 1.713
89.60000 2.923
89.62000 -1.286
89.64000 -1.703
89.66000 2.067
89.68000 3.383
89.70000 2.049
89.72000 3.970
89.74000 0.963
89.76000 0.337
89.78000 0.309
89.80000 -1.325
89.82000 -0.116
89.84000 2.036
89.86000 0.467
89.88000 0.212
89.90000 -0.219
89.92000 -0.073
89.94000 1.692
89.96000 1.402
89.98000 1.199
90.00000 2.290
90.02000 3.049
90.04000 1.955
90.06000 -0.582
90.08000 2.515
90.10000 9.373
90.12000 7.022
90.14000 4.385
90.16000 2.544
90.18000 3.386
90.20000 -1.957
90.22000 3.405
90.24000 -1.044
90.26000 0.194
90.28000 1.210
90.30000 2.321
90.32000 2.969
90.34000 4.775
90.36000 3.487
90.38000 3.122
90.40000 3.542
90.42000 1.244
90.44000 5.264
90.46000 3.989
90.48000 2.421
90.50000 1.000
90.52000 5.501
90.54000 5.930
90.56000 2.285
90.58000 1.070
90.60000 2.720
90.62000 6.623
90.64000 5.828
90.66000 -1.135
90.68000 -0.035
90.70000 -0.258
90.72000 0.936
90.74000 1.165
90.76000 1.731
90.78000 2.842
90.80000 4.985
90.82000 6.072
90.84000 7.801
90.86000 6.603
90.88000 3.103
90.90000 2.935
90.92000 3.811
90.94000 2.415
90.96000 2.012
90.98000 4.705
91.00000 3.820
91.02000 3.704
91.04000 7.187
91.06000 10.311
91.08000 6.247
91.10000 1.996
91.12000 4.192
91.14000 5.932
91.16000 6.876
91.18000 1.851
91.20000 2.189
91.22000 2.665
91.24000 7.083
91.26000 4.285
91.28000 2.829
91.30000 5.188
91.32000 3.978
91.34000 3.741
91.36000 5.487
91.38000 3.816
91.40000 3.311
91.42000 4.738
91.44000 1.895
91.46000 1.648
91.48000 5.185
91.50000 7.128
91.52000 4.184
91.54000 -1.281
91.56000 7.949
91.58000 3.676
91.60000 5.374
91.62000 10.465
91.64000 7.800
91.66000 2.188
91.68000 -1.918
91.70000 2.133
91.72000 7.584
91.74000 6.598
91.76000 7.106
91.78000 6.486
91.80000 6.372
91.82000 9.333
91.84000 7.823
91.86000 7.870
91.88000 8.896
91.90000 7.455
91.92000 6.951
91.94000 5.117
91.96000 0.299
91.98000 4.535
92.00000 9.004
92.02000 6.895
92.04000 3.603
92.06000 0.945
92.08000 1.379
92.10000 2.583
92.12000 -0.343
92.14000 2.746
92.16000 2.956
92.18000 7.209
92.20000 7.889
92.22000 5.433
92.24000 5.451
92.26000 5.839
92.28000 4.700
92.30000 5.238
92.32000 -0.607
92.34000 2.106
92.36000 3.897
92.38000 6.758
92.40000 5.267
92.42000 5.288
92.44000 4.548
92.46000 7.286
92.48000 5.559
92.50000 5.897
92.52000 5.353
92.54000 5.667
92.56000 2.004
92.58000 0.090
92.60000 3.120
92.62000 2.130
92.64000 3.890
92.66000 4.475
92.68000 6.850
92.70000 7.073
92.72000 5.933
92.74000 3.696
92.76000 5.393
92.78000 3.308
92.80000 3.910
92.82000 3.645
92.84000 1.727
92.86000 3.913
92.88000 6.192
92.90000 5.585
92.92000 3.163
92.94000 0.110
92.96000 3.427
92.98000 5.125
93.00000 1.736
93.02000 -1.973
93.04000 1.153
93.06000 0.983
93.08000 4.156
93.10000 7.904
93.12000 8.665
93.14000 5.383
93.16000 5.010
93.18000 6.479
93.20000 3.483
93.22000 0.744
93.24000 3.752
93.26000 7.687
93.28000 5.232
93.30000 4.530
93.32000 0.877
93.34000 0.217
93.36000 2.540
93.38000 2.300
93.40000 0.622
93.42000 0.861
93.44000 5.666
93.46000 5.308
93.48000 4.645
93.50000 4.382
93.52000 0.294
93.54000 2.179
93.56000 2.758
93.58000 -0.332
93.60000 1.409
93.62000 0.278
93.64000 1.315
93.66000 0.685
93.68000 2.009
93.70000 2.834
93.72000 2.401
93.74000 1.275
93.76000 0.548
93.78000 -0.792
93.80000 -0.662
93.82000 0.931
93.84000 0.823
93.86000 0.765
93.88000 0.077
93.90000 3.260
93.92000 5.028
93.94000 1.405
93.96000 0.768
93.98000 -1.455
94.00000 -2.007
94.02000 3.488
94.04000 2.446
94.06000 0.882
94.08000 3.276
94.10000 0.334
94.12000 5.914
94.14000 3.542
94.16000 -0.394
94.18000 1.027
94.20000 2.468
94.22000 2.653
94.24000 5.298
94.26000 5.126
94.28000 6.380
94.30000 4.368
94.32000 2.431
94.34000 2.144
94.36000 2.949
94.38000 3.270
94.40000 5.990
94.42000 1.528
94.44000 1.392
94.46000 1.543
94.48000 3.213
94.50000 1.470
94.52000 0.706
94.54000 2.728
94.56000 -0.303
94.58000 -2.012
94.60000 2.316
94.62000 6.917
94.64000 7.911
94.66000 3.860
94.68000 1.665
94.70000 2.895
94.72000 -0.869
94.74000 1.678
94.76000 3.200
94.78000 3.800
94.80000 5.034
94.82000 6.489
94.84000 3.042
94.86000 0.573
94.88000 2.187
94.90000 2.593
94.92000 0.250
94.94000 2.597
94.96000 4.462
94.98000 3.595
95.00000 1.296
95.02000 2.231
95.04000 3.030
95.06000 4.310
95.08000 2.441
95.10000 1.161
95.12000 1.459
95.14000 2.896
95.16000 -1.998
95.18000 1.309
95.20000 6.032
95.22000 3.228
95.24000 4.572
95.26000 1.899
95.28000 1.602
95.30000 3.708
95.32000 5.860
95.34000 5.754
95.36000 2.383
95.38000 5.847
95.40000 4.223
95.42000 -0.693
95.44000 0.636
95.46000 3.576
95.48000 7.289
95.50000 4.420
95.52000 2.152
95.54000 4.891
95.56000 4.465
95.58000 2.133
95.60000 0.895
95.62000 0.974
95.64000 1.987
95.66000 3.755
95.68000 9.089
95.70000 8.984
95.72000 8.550
95.74000 3.050
95.76000 -1.985
95.78000 -0.969
95.80000 2.887
95.82000 3.341
95.84000 1.081
95.86000 -1.306
95.88000 1.134
95.90000 2.662
95.92000 -0.065
95.94000 0.631
95.96000 2.709
95.98000 5.496
96.00000 7.104
96.02000 9.499
96.04000 6.085
96.06000 3.538
96.08000 5.216
96.10000 2.505
96.12000 3.125
96.14000 0.780
96.16000 2.571
96.18000 1.294
96.20000 0.871
96.22000 0.583
96.24000 2.159
96.26000 3.944
96.28000 4.635
96.30000 -2.006
96.32000 1.131
96.34000 4.199
96.36000 3.204
96.38000 0.191
96.40000 4.034
96.42000 3.054
96.44000 2.394
96.46000 2.232
96.48000 4.520
96.50000 4.868
96.52000 2.477
96.54000 5.805
96.56000 11.957
96.58000 13.825
96.60000 8.303
96.62000 3.039
96.64000 -1.616
96.66000 6.264
96.68000 2.761
96.70000 3.413
96.72000 6.419
96.74000 3.201
96.76000 6.144
96.78000 8.742
96.80000 2.408
96.82000 2.024
96.84000 0.052
96.86000 2.643
96.88000 5.166
96.90000 5.462
96.92000 6.357
96.94000 5.783
96.96000 1.569
96.98000 -1.067
97.00000 2.688
97.02000 2.338
97.04000 0.724
97.06000 2.368
97.08000 2.074
97.10000 7.601
97.12000 5.807
97.14000 -1.993
97.16000 1.324
97.18000 2.745
97.20000 2.872
97.22000 5.323
97.24000 2.473
97.26000 4.475
97.28000 8.109
97.30000 6.812
97.32000 3.335
97.34000 -0.820
97.36000 3.254
97.38000 7.020
97.40000 6.823
97.42000 6.340
97.44000 3.656
97.46000 2.659
97.48000 2.231
97.50000 4.027
97.52000 0.230
97.54000 -1.411
97.56000 7.445
97.58000 7.429
97.60000 9.999
97.62000 4.086
97.64000 -1.679
97.66000 4.001
97.68000 7.312
97.70000 6.862
97.72000 2.775
97.74000 2.378
97.76000 4.276
97.78000 4.526
97.80000 3.146
97.82000 1.935
97.84000 2.969
97.86000 7.165
97.88000 3.176
97.90000 7.230
97.92000 4.284
97.94000 2.393
97.96000 -1.933
97.98000 0.664
98.00000 6.458
98.02000 7.568
98.04000 5.024
98.06000 0.823
98.08000 0.169
98.10000 -0.503
98.12000 0.288
98.14000 4.169
98.16000 3.815
98.18000 3.993
98.20000 7.958
98.22000 7.748
98.24000 -0.579
98.26000 2.868
98.28000 6.196
98.30000 7.452
98.32000 8.415
98.34000 5.492
98.36000 5.436
98.38000 6.827
98.40000 6.070
98.42000 4.009
98.44000 4.535
98.46000 3.595
98.48000 3.625
98.50000 2.965
98.52000 1.541
98.54000 7.401
98.56000 7.057
98.58000 3.026
98.60000 1.725
98.62000 6.712
98.64000 9.837
98.66000 9.497
98.68000 8.197
98.70000 5.376
98.72000 7.612
98.74000 4.478
98.76000 7.004
98.78000 11.018
98.80000 3.724
98.82000 7.382
98.84000 -1.256
98.86000 -1.272
98.88000 8.394
98.90000 10.020
98.92000 11.006
98.94000 7.013
98.96000 7.374
98.98000 4.671
99.00000 5.737
99.02000 8.864
99.04000 4.734
99.06000 8.866
99.08000 2.091
99.10000 -0.268
99.12000 6.013
99.14000 6.103
99.16000 6.579
99.18000 5.229
99.20000 6.234
99.22000 -0.106
99.24000 2.558
99.26000 2.795
99.28000 4.546
99.30000 6.964
99.32000 4.866
99.34000 3.160
99.36000 4.183
99.38000 1.148
99.40000 -1.914
99.42000 2.754
99.44000 8.163
99.46000 3.628
99.48000 4.385
99.50000 6.591
99.52000 8.746
99.54000 6.533
99.56000 6.222
99.58000 0.694
99.60000 -1.221
99.62000 1.945
99.64000 2.765
99.66000 4.293
99.68000 6.831
99.70000 3.857
99.72000 8.412
99.74000 9.785
99.76000 10.064
99.78000 9.415
99.80000 9.332
99.82000 9.916
99.84000 13.680
99.86000 4.545
99.88000 -6.845
99.90000 3.275
99.92000 7.711
99.94000 14.889
99.96000 1.876
99.98000 0.000
