'Id: "0011388" Comment: "Integrate frame 0011388_Au-Ir-Rh_Rh-rich_XRD-Mapping-174-0000.gfrmwith cursor Wedge Cursor #5" Operator: "B?rgel" Anode: "Cu" Wavelength: "1.5406" Scantype: "2Theta (TwoTheta)" TimePerStep: "1" X: "31.5" Y: "0" Z: "5.95" 
10.00000 0.000
10.02000 -3.234
10.04000 10.591
10.06000 -0.755
10.08000 12.318
10.10000 2.182
10.12000 17.167
10.14000 25.578
10.16000 18.287
10.18000 13.697
10.20000 15.115
10.22000 11.965
10.24000 14.299
10.26000 24.305
10.28000 23.847
10.30000 17.633
10.32000 19.474
10.34000 18.305
10.36000 17.067
10.38000 16.167
10.40000 19.835
10.42000 30.042
10.44000 44.249
10.46000 26.794
10.48000 12.089
10.50000 19.552
10.52000 16.878
10.54000 15.019
10.56000 4.447
10.58000 19.762
10.60000 27.019
10.62000 14.651
10.64000 14.011
10.66000 22.558
10.68000 20.818
10.70000 20.058
10.72000 26.776
10.74000 35.641
10.76000 22.816
10.78000 11.668
10.80000 26.262
10.82000 24.916
10.84000 24.295
10.86000 28.188
10.88000 30.209
10.90000 34.961
10.92000 39.291
10.94000 23.478
10.96000 27.093
10.98000 34.775
11.00000 25.937
11.02000 26.448
11.04000 39.450
11.06000 37.157
11.08000 42.552
11.10000 39.973
11.12000 27.923
11.14000 16.184
11.16000 24.220
11.18000 28.478
11.20000 27.591
11.22000 27.370
11.24000 28.034
11.26000 36.270
11.28000 36.896
11.30000 41.838
11.32000 40.317
11.34000 25.398
11.36000 24.563
11.38000 29.394
11.40000 30.875
11.42000 32.987
11.44000 41.953
11.46000 39.639
11.48000 26.926
11.50000 22.874
11.52000 31.026
11.54000 31.839
11.56000 36.384
11.58000 41.903
11.60000 35.382
11.62000 27.194
11.64000 27.565
11.66000 40.160
11.68000 38.947
11.70000 38.068
11.72000 38.500
11.74000 29.966
11.76000 32.980
11.78000 40.387
11.80000 36.315
11.82000 36.333
11.84000 37.680
11.86000 43.633
11.88000 45.029
11.90000 40.925
11.92000 47.830
11.94000 33.850
11.96000 27.695
11.98000 36.177
12.00000 35.971
12.02000 44.317
12.04000 52.609
12.06000 49.808
12.08000 40.736
12.10000 47.373
12.12000 39.259
12.14000 33.643
12.16000 38.260
12.18000 43.015
12.20000 43.065
12.22000 41.264
12.24000 41.508
12.26000 45.178
12.28000 45.063
12.30000 38.735
12.32000 41.783
12.34000 44.953
12.36000 41.145
12.38000 38.106
12.40000 38.143
12.42000 35.288
12.44000 30.804
12.46000 32.464
12.48000 38.085
12.50000 30.209
12.52000 26.984
12.54000 28.282
12.56000 37.748
12.58000 42.958
12.60000 44.979
12.62000 46.585
12.64000 42.993
12.66000 37.227
12.68000 36.292
12.70000 33.915
12.72000 32.181
12.74000 27.770
12.76000 35.597
12.78000 39.864
12.80000 38.052
12.82000 41.057
12.84000 49.296
12.86000 55.155
12.88000 52.992
12.90000 45.081
12.92000 39.284
12.94000 33.033
12.96000 28.685
12.98000 31.098
13.00000 39.292
13.02000 42.916
13.04000 41.299
13.06000 52.457
13.08000 40.852
13.10000 34.210
13.12000 43.160
13.14000 48.338
13.16000 39.121
13.18000 43.645
13.20000 40.978
13.22000 38.275
13.24000 40.999
13.26000 41.134
13.28000 38.097
13.30000 37.468
13.32000 34.990
13.34000 38.971
13.36000 35.934
13.38000 41.694
13.40000 36.195
13.42000 35.590
13.44000 32.220
13.46000 32.456
13.48000 28.786
13.50000 30.474
13.52000 28.067
13.54000 34.743
13.56000 35.030
13.58000 35.281
13.60000 30.837
13.62000 32.483
13.64000 33.350
13.66000 42.712
13.68000 42.713
13.70000 32.355
13.72000 21.964
13.74000 22.045
13.76000 24.146
13.78000 40.914
13.80000 35.831
13.82000 32.070
13.84000 25.996
13.86000 26.973
13.88000 30.979
13.90000 29.681
13.92000 30.665
13.94000 31.815
13.96000 31.849
13.98000 28.593
14.00000 33.246
14.02000 32.195
14.04000 23.295
14.06000 17.433
14.08000 20.719
14.10000 22.318
14.12000 30.993
14.14000 35.774
14.16000 39.652
14.18000 33.862
14.20000 25.317
14.22000 27.877
14.24000 25.455
14.26000 25.306
14.28000 34.483
14.30000 34.448
14.32000 39.406
14.34000 26.398
14.36000 28.349
14.38000 30.753
14.40000 26.135
14.42000 26.808
14.44000 32.994
14.46000 29.753
14.48000 20.175
14.50000 18.118
14.52000 24.486
14.54000 24.628
14.56000 23.659
14.58000 23.715
14.60000 21.585
14.62000 19.623
14.64000 25.943
14.66000 19.824
14.68000 23.809
14.70000 28.052
14.72000 33.102
14.74000 30.294
14.76000 20.509
14.78000 31.462
14.80000 25.146
14.82000 20.279
14.84000 19.126
14.86000 17.326
14.88000 26.318
14.90000 28.717
14.92000 16.451
14.94000 20.392
14.96000 25.755
14.98000 31.080
15.00000 33.047
15.02000 31.187
15.04000 18.063
15.06000 22.124
15.08000 21.578
15.10000 21.510
15.12000 13.000
15.14000 10.615
15.16000 9.302
15.18000 18.591
15.20000 24.116
15.22000 21.227
15.24000 19.056
15.26000 22.296
15.28000 18.344
15.30000 12.593
15.32000 22.816
15.34000 20.594
15.36000 20.584
15.38000 19.142
15.40000 24.472
15.42000 24.400
15.44000 23.699
15.46000 20.499
15.48000 19.829
15.50000 19.106
15.52000 15.084
15.54000 16.750
15.56000 22.145
15.58000 19.953
15.60000 21.479
15.62000 24.026
15.64000 18.041
15.66000 23.511
15.68000 23.181
15.70000 18.718
15.72000 10.943
15.74000 8.939
15.76000 15.642
15.78000 25.207
15.80000 22.410
15.82000 19.388
15.84000 16.095
15.86000 17.724
15.88000 17.154
15.90000 13.727
15.92000 8.479
15.94000 9.600
15.96000 10.452
15.98000 12.249
16.00000 14.903
16.02000 8.272
16.04000 8.174
16.06000 7.427
16.08000 7.136
16.10000 14.150
16.12000 25.131
16.14000 26.856
16.16000 16.289
16.18000 5.708
16.20000 10.602
16.22000 16.308
16.24000 11.247
16.26000 8.149
16.28000 11.564
16.30000 9.298
16.32000 0.889
16.34000 3.378
16.36000 10.423
16.38000 6.956
16.40000 13.014
16.42000 25.184
16.44000 17.202
16.46000 1.776
16.48000 5.895
16.50000 9.453
16.52000 14.839
16.54000 15.147
16.56000 17.148
16.58000 18.748
16.60000 11.216
16.62000 9.844
16.64000 18.969
16.66000 14.956
16.68000 10.853
16.70000 7.846
16.72000 4.295
16.74000 6.097
16.76000 15.025
16.78000 10.214
16.80000 8.643
16.82000 19.973
16.84000 15.876
16.86000 18.681
16.88000 14.836
16.90000 14.453
16.92000 12.955
16.94000 12.568
16.96000 12.999
16.98000 8.557
17.00000 6.687
17.02000 8.479
17.04000 11.770
17.06000 11.831
17.08000 7.952
17.10000 11.073
17.12000 9.030
17.14000 1.547
17.16000 13.452
17.18000 17.709
17.20000 19.679
17.22000 14.991
17.24000 10.740
17.26000 6.999
17.28000 9.014
17.30000 11.197
17.32000 12.447
17.34000 15.702
17.36000 15.369
17.38000 19.182
17.40000 11.825
17.42000 3.911
17.44000 1.959
17.46000 9.840
17.48000 10.182
17.50000 7.746
17.52000 0.748
17.54000 -0.932
17.56000 7.058
17.58000 12.108
17.60000 10.292
17.62000 7.366
17.64000 9.913
17.66000 9.017
17.68000 5.531
17.70000 6.237
17.72000 4.836
17.74000 7.773
17.76000 12.183
17.78000 7.826
17.80000 9.820
17.82000 5.029
17.84000 3.747
17.86000 4.213
17.88000 10.454
17.90000 9.005
17.92000 12.608
17.94000 6.611
17.96000 1.367
17.98000 4.851
18.00000 8.423
18.02000 13.883
18.04000 8.914
18.06000 6.661
18.08000 2.978
18.10000 1.528
18.12000 3.850
18.14000 2.046
18.16000 4.369
18.18000 12.683
18.20000 14.520
18.22000 1.352
18.24000 5.588
18.26000 9.709
18.28000 8.195
18.30000 11.640
18.32000 10.256
18.34000 7.788
18.36000 4.951
18.38000 7.872
18.40000 7.878
18.42000 8.171
18.44000 9.443
18.46000 9.729
18.48000 11.163
18.50000 12.825
18.52000 12.423
18.54000 8.499
18.56000 7.379
18.58000 5.685
18.60000 -0.610
18.62000 0.083
18.64000 6.239
18.66000 1.513
18.68000 3.174
18.70000 6.204
18.72000 4.657
18.74000 1.864
18.76000 5.309
18.78000 6.397
18.80000 3.213
18.82000 6.806
18.84000 7.224
18.86000 4.968
18.88000 3.419
18.90000 8.476
18.92000 2.410
18.94000 -4.280
18.96000 3.657
18.98000 4.167
19.00000 4.477
19.02000 3.974
19.04000 4.462
19.06000 6.125
19.08000 8.386
19.10000 8.125
19.12000 6.876
19.14000 0.846
19.16000 4.490
19.18000 6.861
19.20000 3.696
19.22000 6.087
19.24000 8.771
19.26000 -0.967
19.28000 -0.657
19.30000 1.138
19.32000 2.368
19.34000 5.926
19.36000 6.002
19.38000 10.587
19.40000 4.516
19.42000 -2.291
19.44000 -0.560
19.46000 3.282
19.48000 2.208
19.50000 0.721
19.52000 4.480
19.54000 7.967
19.56000 10.363
19.58000 6.271
19.60000 -4.254
19.62000 6.130
19.64000 11.027
19.66000 -0.218
19.68000 -4.250
19.70000 3.676
19.72000 6.834
19.74000 12.902
19.76000 6.380
19.78000 3.867
19.80000 8.726
19.82000 3.952
19.84000 5.701
19.86000 -0.113
19.88000 5.034
19.90000 9.213
19.92000 4.356
19.94000 -3.415
19.96000 -1.596
19.98000 3.602
20.00000 2.566
20.02000 1.729
20.04000 -1.189
20.06000 1.844
20.08000 5.452
20.10000 4.416
20.12000 9.061
20.14000 3.116
20.16000 -2.553
20.18000 -4.230
20.20000 -3.552
20.22000 0.525
20.24000 7.737
20.26000 2.111
20.28000 3.038
20.30000 9.243
20.32000 6.723
20.34000 -0.569
20.36000 0.646
20.38000 4.372
20.40000 4.043
20.42000 -0.598
20.44000 -0.561
20.46000 0.355
20.48000 5.588
20.50000 0.962
20.52000 7.323
20.54000 5.655
20.56000 -0.624
20.58000 -0.321
20.60000 1.199
20.62000 0.991
20.64000 10.380
20.66000 4.257
20.68000 6.293
20.70000 1.253
20.72000 2.418
20.74000 6.851
20.76000 2.827
20.78000 -1.700
20.80000 1.422
20.82000 8.331
20.84000 -0.530
20.86000 1.441
20.88000 4.750
20.90000 -0.262
20.92000 7.099
20.94000 3.818
20.96000 0.445
20.98000 -1.552
21.00000 -1.386
21.02000 1.388
21.04000 6.564
21.06000 6.490
21.08000 3.639
21.10000 -4.188
21.12000 -3.290
21.14000 4.553
21.16000 2.118
21.18000 -3.477
21.20000 5.265
21.22000 5.472
21.24000 9.610
21.26000 2.923
21.28000 2.400
21.30000 0.609
21.32000 -3.366
21.34000 -1.272
21.36000 -0.087
21.38000 4.188
21.40000 7.287
21.42000 2.730
21.44000 2.770
21.46000 3.266
21.48000 -2.580
21.50000 -1.514
21.52000 1.265
21.54000 -0.631
21.56000 -1.511
21.58000 -3.061
21.60000 0.039
21.62000 5.848
21.64000 5.877
21.66000 5.572
21.68000 2.457
21.70000 -0.829
21.72000 -1.358
21.74000 -1.459
21.76000 4.060
21.78000 -0.039
21.80000 3.750
21.82000 1.729
21.84000 2.072
21.86000 7.376
21.88000 -1.640
21.90000 -1.520
21.92000 2.996
21.94000 9.996
21.96000 3.220
21.98000 0.853
22.00000 -0.121
22.02000 -2.942
22.04000 -2.295
22.06000 -1.437
22.08000 -0.846
22.10000 1.798
22.12000 4.123
22.14000 -1.204
22.16000 1.963
22.18000 2.558
22.20000 7.808
22.22000 5.438
22.24000 1.387
22.26000 6.277
22.28000 16.638
22.30000 10.613
22.32000 1.180
22.34000 0.913
22.36000 7.074
22.38000 9.285
22.40000 0.000
22.42000 -4.122
22.44000 1.416
22.46000 -1.551
22.48000 1.995
22.50000 6.500
22.52000 2.775
22.54000 3.070
22.56000 3.715
22.58000 3.153
22.60000 2.433
22.62000 5.707
22.64000 4.664
22.66000 6.341
22.68000 8.011
22.70000 9.638
22.72000 5.507
22.74000 -3.173
22.76000 -2.393
22.78000 -0.844
22.80000 1.995
22.82000 5.124
22.84000 4.672
22.86000 4.770
22.88000 6.003
22.90000 10.772
22.92000 2.793
22.94000 1.627
22.96000 -1.347
22.98000 -1.295
23.00000 3.212
23.02000 4.200
23.04000 2.427
23.06000 -1.625
23.08000 -1.488
23.10000 3.332
23.12000 6.003
23.14000 7.641
23.16000 4.552
23.18000 -4.087
23.20000 -2.406
23.22000 0.977
23.24000 -2.684
23.26000 -1.910
23.28000 0.897
23.30000 -1.688
23.32000 4.959
23.34000 4.182
23.36000 -0.658
23.38000 -0.958
23.40000 1.255
23.42000 0.836
23.44000 5.264
23.46000 2.382
23.48000 -3.694
23.50000 -1.061
23.52000 -0.724
23.54000 -2.090
23.56000 6.485
23.58000 4.791
23.60000 -2.129
23.62000 2.274
23.64000 4.742
23.66000 1.858
23.68000 6.769
23.70000 9.741
23.72000 3.937
23.74000 2.731
23.76000 2.711
23.78000 2.994
23.80000 0.981
23.82000 4.644
23.84000 8.327
23.86000 6.267
23.88000 -1.787
23.90000 0.306
23.92000 6.106
23.94000 8.945
23.96000 9.359
23.98000 7.112
24.00000 6.118
24.02000 0.882
24.04000 2.633
24.06000 0.546
24.08000 2.815
24.10000 -0.376
24.12000 3.528
24.14000 7.631
24.16000 4.455
24.18000 3.421
24.20000 3.389
24.22000 2.590
24.24000 4.990
24.26000 1.577
24.28000 -3.888
24.30000 -2.604
24.32000 3.233
24.34000 7.167
24.36000 8.466
24.38000 5.164
24.40000 7.604
24.42000 5.349
24.44000 0.880
24.46000 -2.183
24.48000 3.621
24.50000 12.693
24.52000 8.010
24.54000 2.501
24.56000 2.766
24.58000 8.567
24.60000 2.944
24.62000 -3.957
24.64000 1.899
24.66000 4.858
24.68000 10.534
24.70000 12.393
24.72000 9.234
24.74000 5.801
24.76000 5.303
24.78000 2.654
24.80000 3.909
24.82000 5.875
24.84000 4.611
24.86000 6.719
24.88000 4.382
24.90000 4.413
24.92000 3.803
24.94000 2.350
24.96000 1.614
24.98000 3.620
25.00000 5.726
25.02000 2.275
25.04000 -0.609
25.06000 7.156
25.08000 1.581
25.10000 -0.061
25.12000 4.200
25.14000 1.827
25.16000 2.195
25.18000 7.349
25.20000 1.182
25.22000 -0.058
25.24000 1.390
25.26000 1.959
25.28000 6.621
25.30000 4.524
25.32000 1.491
25.34000 -1.154
25.36000 0.749
25.38000 -0.904
25.40000 3.824
25.42000 2.405
25.44000 2.186
25.46000 -0.043
25.48000 -3.943
25.50000 0.425
25.52000 0.579
25.54000 -1.988
25.56000 -2.842
25.58000 2.037
25.60000 5.807
25.62000 2.395
25.64000 4.756
25.66000 5.485
25.68000 3.441
25.70000 0.888
25.72000 0.836
25.74000 -3.194
25.76000 -3.931
25.78000 1.347
25.80000 7.383
25.82000 2.214
25.84000 2.484
25.86000 2.988
25.88000 5.824
25.90000 2.644
25.92000 3.830
25.94000 5.136
25.96000 1.136
25.98000 6.343
26.00000 5.908
26.02000 3.871
26.04000 3.663
26.06000 3.447
26.08000 3.829
26.10000 6.420
26.12000 7.366
26.14000 3.647
26.16000 1.857
26.18000 4.892
26.20000 7.080
26.22000 7.643
26.24000 8.891
26.26000 5.496
26.28000 1.162
26.30000 5.146
26.32000 7.464
26.34000 1.784
26.36000 1.000
26.38000 0.636
26.40000 -0.896
26.42000 0.808
26.44000 -1.983
26.46000 -1.074
26.48000 -0.434
26.50000 4.530
26.52000 8.705
26.54000 0.831
26.56000 5.233
26.58000 4.358
26.60000 4.864
26.62000 2.205
26.64000 -1.931
26.66000 -2.107
26.68000 -3.888
26.70000 -3.718
26.72000 -2.025
26.74000 -1.762
26.76000 2.925
26.78000 -1.052
26.80000 0.177
26.82000 4.406
26.84000 2.339
26.86000 3.733
26.88000 6.470
26.90000 5.555
26.92000 2.753
26.94000 5.684
26.96000 5.410
26.98000 3.332
27.00000 2.702
27.02000 -3.393
27.04000 1.201
27.06000 4.135
27.08000 3.622
27.10000 -0.786
27.12000 1.048
27.14000 -3.703
27.16000 -3.483
27.18000 0.665
27.20000 5.558
27.22000 6.349
27.24000 3.269
27.26000 3.740
27.28000 7.567
27.30000 8.193
27.32000 5.217
27.34000 4.814
27.36000 1.533
27.38000 1.785
27.40000 7.064
27.42000 5.332
27.44000 3.384
27.46000 0.055
27.48000 -0.960
27.50000 -2.609
27.52000 2.928
27.54000 8.463
27.56000 9.486
27.58000 8.991
27.60000 -0.422
27.62000 -3.815
27.64000 -0.275
27.66000 2.691
27.68000 4.432
27.70000 3.949
27.72000 1.830
27.74000 2.340
27.76000 0.678
27.78000 2.396
27.80000 -0.281
27.82000 1.523
27.84000 5.071
27.86000 6.518
27.88000 3.913
27.90000 4.941
27.92000 1.371
27.94000 3.440
27.96000 6.863
27.98000 8.950
28.00000 4.842
28.02000 4.318
28.04000 3.147
28.06000 4.460
28.08000 5.191
28.10000 4.500
28.12000 -0.232
28.14000 0.857
28.16000 2.922
28.18000 1.067
28.20000 -1.293
28.22000 -2.032
28.24000 1.336
28.26000 2.509
28.28000 5.826
28.30000 1.007
28.32000 -1.392
28.34000 3.345
28.36000 3.805
28.38000 5.908
28.40000 0.694
28.42000 0.644
28.44000 5.224
28.46000 7.312
28.48000 0.575
28.50000 -1.370
28.52000 4.507
28.54000 11.125
28.56000 4.625
28.58000 2.259
28.60000 0.487
28.62000 -2.456
28.64000 -0.937
28.66000 -3.765
28.68000 2.152
28.70000 5.998
28.72000 8.892
28.74000 7.585
28.76000 4.252
28.78000 4.381
28.80000 3.057
28.82000 0.259
28.84000 8.551
28.86000 5.802
28.88000 -0.342
28.90000 5.216
28.92000 9.733
28.94000 2.998
28.96000 -2.251
28.98000 2.284
29.00000 7.932
29.02000 -1.387
29.04000 0.419
29.06000 1.051
29.08000 -0.974
29.10000 6.719
29.12000 4.720
29.14000 -1.552
29.16000 2.508
29.18000 7.307
29.20000 5.237
29.22000 5.536
29.24000 4.251
29.26000 4.228
29.28000 4.508
29.30000 -0.188
29.32000 5.508
29.34000 6.555
29.36000 7.116
29.38000 -3.175
29.40000 -2.304
29.42000 0.416
29.44000 4.623
29.46000 6.871
29.48000 6.605
29.50000 5.986
29.52000 1.064
29.54000 -0.249
29.56000 2.389
29.58000 7.056
29.60000 5.304
29.62000 3.746
29.64000 0.495
29.66000 3.113
29.68000 5.886
29.70000 2.121
29.72000 2.995
29.74000 8.660
29.76000 3.280
29.78000 1.946
29.80000 -0.882
29.82000 -0.002
29.84000 1.887
29.86000 1.836
29.88000 -3.702
29.90000 2.156
29.92000 3.201
29.94000 4.008
29.96000 7.111
29.98000 4.180
30.00000 2.876
30.02000 1.675
30.04000 7.343
30.06000 8.829
30.08000 -0.140
30.10000 5.161
30.12000 7.285
30.14000 0.194
30.16000 -1.912
30.18000 0.663
30.20000 -1.113
30.22000 0.536
30.24000 0.152
30.26000 0.867
30.28000 2.656
30.30000 2.255
30.32000 1.081
30.34000 -2.264
30.36000 -0.458
30.38000 3.612
30.40000 -0.013
30.42000 -0.648
30.44000 -0.471
30.46000 2.697
30.48000 3.276
30.50000 -1.089
30.52000 -1.922
30.54000 1.119
30.56000 2.567
30.58000 7.150
30.60000 2.470
30.62000 -0.883
30.64000 -0.949
30.66000 1.721
30.68000 -3.676
30.70000 0.108
30.72000 5.988
30.74000 6.138
30.76000 4.818
30.78000 2.286
30.80000 -1.136
30.82000 3.178
30.84000 5.871
30.86000 4.752
30.88000 4.228
30.90000 5.491
30.92000 2.719
30.94000 1.036
30.96000 -2.642
30.98000 1.871
31.00000 4.114
31.02000 2.024
31.04000 2.738
31.06000 -3.657
31.08000 -2.580
31.10000 1.827
31.12000 -1.890
31.14000 1.306
31.16000 1.274
31.18000 3.537
31.20000 5.659
31.22000 5.195
31.24000 0.303
31.26000 -0.814
31.28000 1.629
31.30000 0.807
31.32000 4.194
31.34000 4.162
31.36000 2.524
31.38000 3.808
31.40000 2.092
31.42000 -1.876
31.44000 1.845
31.46000 6.189
31.48000 2.696
31.50000 3.056
31.52000 2.146
31.54000 2.680
31.56000 1.140
31.58000 4.769
31.60000 3.544
31.62000 0.303
31.64000 -1.475
31.66000 0.413
31.68000 5.197
31.70000 3.425
31.72000 2.332
31.74000 2.580
31.76000 1.920
31.78000 1.833
31.80000 2.550
31.82000 2.927
31.84000 4.977
31.86000 -1.313
31.88000 -1.911
31.90000 2.945
31.92000 2.106
31.94000 4.372
31.96000 7.020
31.98000 2.580
32.00000 -0.386
32.02000 -3.627
32.04000 -3.626
32.06000 -2.446
32.08000 1.493
32.10000 2.402
32.12000 1.830
32.14000 3.101
32.16000 4.464
32.18000 3.350
32.20000 4.654
32.22000 -0.617
32.24000 1.075
32.26000 5.279
32.28000 3.044
32.30000 0.668
32.32000 0.146
32.34000 0.171
32.36000 0.162
32.38000 2.599
32.40000 2.853
32.42000 3.564
32.44000 -3.616
32.46000 -2.450
32.48000 2.494
32.50000 5.070
32.52000 -1.912
32.54000 2.153
32.56000 3.713
32.58000 1.509
32.60000 -1.414
32.62000 3.924
32.64000 3.269
32.66000 2.328
32.68000 4.599
32.70000 6.744
32.72000 -1.098
32.74000 -1.722
32.76000 0.997
32.78000 0.327
32.80000 -3.343
32.82000 0.376
32.84000 2.710
32.86000 1.874
32.88000 2.034
32.90000 1.647
32.92000 6.056
32.94000 6.769
32.96000 3.386
32.98000 -3.592
33.00000 3.238
33.02000 6.533
33.04000 6.117
33.06000 2.457
33.08000 -2.718
33.10000 0.292
33.12000 -0.390
33.14000 3.064
33.16000 7.431
33.18000 8.435
33.20000 5.965
33.22000 -1.194
33.24000 0.146
33.26000 4.875
33.28000 4.014
33.30000 3.716
33.32000 3.415
33.34000 4.038
33.36000 0.952
33.38000 1.998
33.40000 7.422
33.42000 8.717
33.44000 8.786
33.46000 5.699
33.48000 3.680
33.50000 1.403
33.52000 4.066
33.54000 7.758
33.56000 6.656
33.58000 4.036
33.60000 1.159
33.62000 -3.545
33.64000 -0.135
33.66000 7.475
33.68000 8.040
33.70000 5.894
33.72000 6.581
33.74000 2.392
33.76000 -3.112
33.78000 5.366
33.80000 14.415
33.82000 7.092
33.84000 3.259
33.86000 4.033
33.88000 7.581
33.90000 7.622
33.92000 7.030
33.94000 1.334
33.96000 2.340
33.98000 2.649
34.00000 3.000
34.02000 1.076
34.04000 4.510
34.06000 6.533
34.08000 10.048
34.10000 7.282
34.12000 8.387
34.14000 7.357
34.16000 5.608
34.18000 8.671
34.20000 6.357
34.22000 5.607
34.24000 3.507
34.26000 0.595
34.28000 -2.912
34.30000 -2.018
34.32000 3.264
34.34000 0.595
34.36000 0.792
34.38000 1.471
34.40000 5.393
34.42000 5.362
34.44000 4.757
34.46000 4.496
34.48000 4.750
34.50000 5.956
34.52000 6.960
34.54000 6.521
34.56000 5.695
34.58000 3.894
34.60000 6.523
34.62000 5.647
34.64000 4.818
34.66000 1.040
34.68000 1.526
34.70000 0.801
34.72000 3.696
34.74000 4.302
34.76000 9.864
34.78000 6.339
34.80000 4.063
34.82000 7.524
34.84000 8.302
34.86000 3.296
34.88000 -2.386
34.90000 2.180
34.92000 1.483
34.94000 -1.497
34.96000 -0.294
34.98000 -0.459
35.00000 5.535
35.02000 8.419
35.04000 7.446
35.06000 4.406
35.08000 1.629
35.10000 4.613
35.12000 7.402
35.14000 13.296
35.16000 8.506
35.18000 -2.340
35.20000 -3.511
35.22000 -2.150
35.24000 4.488
35.26000 3.591
35.28000 0.830
35.30000 -2.724
35.32000 3.341
35.34000 4.770
35.36000 -3.517
35.38000 -2.849
35.40000 3.374
35.42000 6.862
35.44000 3.120
35.46000 3.083
35.48000 3.936
35.50000 2.229
35.52000 1.971
35.54000 1.111
35.56000 1.827
35.58000 5.315
35.60000 5.756
35.62000 4.547
35.64000 -2.068
35.66000 1.146
35.68000 2.055
35.70000 5.554
35.72000 1.677
35.74000 1.214
35.76000 3.658
35.78000 5.176
35.80000 7.335
35.82000 3.372
35.84000 -0.770
35.86000 -1.567
35.88000 -1.121
35.90000 -0.952
35.92000 -1.642
35.94000 -0.580
35.96000 0.674
35.98000 4.140
36.00000 -0.732
36.02000 -3.238
36.04000 -3.536
36.06000 1.112
36.08000 2.309
36.10000 -0.722
36.12000 0.042
36.14000 -2.906
36.16000 -0.720
36.18000 -1.364
36.20000 1.778
36.22000 2.123
36.24000 -0.996
36.26000 0.974
36.28000 4.956
36.30000 7.788
36.32000 6.575
36.34000 0.525
36.36000 0.167
36.38000 -0.668
36.40000 2.482
36.42000 3.615
36.44000 -0.437
36.46000 -3.542
36.48000 -0.019
36.50000 5.766
36.52000 8.817
36.54000 4.224
36.56000 0.255
36.58000 0.824
36.60000 10.544
36.62000 10.983
36.64000 4.473
36.66000 7.969
36.68000 5.602
36.70000 6.120
36.72000 5.350
36.74000 4.326
36.76000 3.597
36.78000 0.631
36.80000 -0.624
36.82000 0.181
36.84000 3.557
36.86000 2.937
36.88000 7.055
36.90000 9.202
36.92000 6.085
36.94000 4.445
36.96000 6.464
36.98000 1.979
37.00000 -2.707
37.02000 -0.794
37.04000 2.590
37.06000 3.482
37.08000 4.148
37.10000 6.812
37.12000 3.212
37.14000 9.220
37.16000 6.449
37.18000 0.682
37.20000 1.611
37.22000 3.567
37.24000 4.979
37.26000 4.979
37.28000 1.447
37.30000 -3.533
37.32000 3.969
37.34000 8.966
37.36000 8.689
37.38000 9.983
37.40000 9.294
37.42000 8.207
37.44000 7.408
37.46000 5.953
37.48000 2.552
37.50000 2.417
37.52000 0.222
37.54000 -2.629
37.56000 1.115
37.58000 2.725
37.60000 3.349
37.62000 4.541
37.64000 9.895
37.66000 12.493
37.68000 11.418
37.70000 5.244
37.72000 4.929
37.74000 2.741
37.76000 -0.312
37.78000 6.728
37.80000 2.609
37.82000 5.867
37.84000 3.259
37.86000 1.261
37.88000 2.666
37.90000 4.748
37.92000 6.657
37.94000 5.027
37.96000 7.476
37.98000 3.572
38.00000 7.461
38.02000 10.175
38.04000 5.813
38.06000 2.936
38.08000 3.562
38.10000 7.031
38.12000 13.537
38.14000 9.068
38.16000 3.636
38.18000 9.242
38.20000 12.289
38.22000 11.563
38.24000 12.559
38.26000 13.760
38.28000 14.240
38.30000 17.543
38.32000 12.625
38.34000 12.601
38.36000 13.086
38.38000 9.026
38.40000 10.951
38.42000 15.628
38.44000 16.542
38.46000 17.165
38.48000 16.240
38.50000 19.335
38.52000 15.857
38.54000 18.891
38.56000 15.728
38.58000 15.813
38.60000 18.517
38.62000 12.449
38.64000 16.801
38.66000 21.911
38.68000 18.779
38.70000 18.873
38.72000 22.527
38.74000 20.049
38.76000 21.031
38.78000 23.145
38.80000 25.595
38.82000 24.251
38.84000 21.108
38.86000 19.593
38.88000 21.703
38.90000 23.278
38.92000 26.188
38.94000 24.925
38.96000 30.141
38.98000 26.785
39.00000 26.349
39.02000 24.192
39.04000 29.261
39.06000 29.430
39.08000 27.092
39.10000 28.331
39.12000 33.670
39.14000 35.045
39.16000 34.791
39.18000 40.962
39.20000 42.131
39.22000 43.967
39.24000 43.999
39.26000 44.163
39.28000 39.914
39.30000 46.437
39.32000 48.925
39.34000 48.567
39.36000 53.396
39.38000 53.059
39.40000 54.406
39.42000 53.420
39.44000 61.045
39.46000 61.116
39.48000 55.591
39.50000 59.950
39.52000 65.426
39.54000 70.884
39.56000 76.250
39.58000 71.897
39.60000 79.376
39.62000 87.786
39.64000 90.850
39.66000 95.808
39.68000 97.758
39.70000 103.397
39.72000 107.426
39.74000 108.476
39.76000 114.051
39.78000 112.832
39.80000 123.461
39.82000 128.140
39.84000 130.750
39.86000 142.343
39.88000 150.365
39.90000 155.245
39.92000 165.556
39.94000 171.421
39.96000 179.572
39.98000 183.459
40.00000 191.257
40.02000 201.284
40.04000 216.947
40.06000 224.238
40.08000 235.116
40.10000 250.968
40.12000 258.290
40.14000 274.659
40.16000 284.566
40.18000 289.900
40.20000 305.499
40.22000 319.984
40.24000 340.411
40.26000 358.249
40.28000 365.520
40.30000 385.016
40.32000 405.695
40.34000 414.167
40.36000 424.990
40.38000 445.815
40.40000 462.467
40.42000 489.466
40.44000 500.189
40.46000 507.665
40.48000 520.227
40.50000 547.062
40.52000 556.864
40.54000 567.424
40.56000 579.298
40.58000 605.478
40.60000 607.021
40.62000 604.963
40.64000 612.901
40.66000 633.601
40.68000 627.279
40.70000 624.164
40.72000 630.602
40.74000 631.549
40.76000 630.936
40.78000 631.639
40.80000 625.981
40.82000 616.482
40.84000 613.423
40.86000 601.180
40.88000 581.790
40.90000 565.268
40.92000 562.630
40.94000 559.670
40.96000 534.392
40.98000 519.679
41.00000 498.729
41.02000 485.212
41.04000 459.317
41.06000 433.483
41.08000 429.202
41.10000 417.742
41.12000 394.985
41.14000 378.590
41.16000 362.385
41.18000 343.740
41.20000 329.349
41.22000 321.120
41.24000 305.137
41.26000 286.154
41.28000 266.303
41.30000 261.850
41.32000 247.132
41.34000 239.085
41.36000 231.705
41.38000 219.699
41.40000 209.023
41.42000 190.161
41.44000 170.556
41.46000 164.117
41.48000 156.452
41.50000 152.305
41.52000 147.032
41.54000 138.681
41.56000 126.582
41.58000 121.859
41.60000 120.318
41.62000 111.513
41.64000 104.629
41.66000 101.324
41.68000 92.608
41.70000 88.738
41.72000 89.206
41.74000 80.944
41.76000 81.649
41.78000 72.554
41.80000 72.039
41.82000 67.061
41.84000 61.278
41.86000 62.352
41.88000 56.722
41.90000 57.111
41.92000 53.336
41.94000 54.959
41.96000 54.120
41.98000 49.131
42.00000 43.175
42.02000 41.950
42.04000 42.379
42.06000 39.504
42.08000 37.758
42.10000 33.570
42.12000 34.601
42.14000 35.021
42.16000 36.269
42.18000 31.869
42.20000 26.116
42.22000 24.322
42.24000 26.159
42.26000 23.508
42.28000 23.957
42.30000 21.575
42.32000 22.462
42.34000 17.098
42.36000 17.774
42.38000 22.481
42.40000 20.458
42.42000 16.017
42.44000 15.185
42.46000 15.138
42.48000 16.762
42.50000 13.194
42.52000 14.320
42.54000 14.525
42.56000 12.068
42.58000 13.889
42.60000 10.516
42.62000 8.158
42.64000 13.330
42.66000 10.535
42.68000 9.277
42.70000 6.138
42.72000 5.184
42.74000 10.497
42.76000 9.264
42.78000 5.751
42.80000 3.591
42.82000 2.371
42.84000 2.663
42.86000 -0.131
42.88000 2.375
42.90000 5.321
42.92000 4.804
42.94000 2.821
42.96000 3.134
42.98000 5.265
43.00000 5.513
43.02000 9.085
43.04000 7.075
43.06000 6.388
43.08000 1.825
43.10000 1.196
43.12000 3.228
43.14000 5.351
43.16000 4.445
43.18000 5.622
43.20000 5.227
43.22000 0.020
43.24000 2.327
43.26000 4.059
43.28000 1.505
43.30000 2.846
43.32000 4.644
43.34000 5.782
43.36000 4.411
43.38000 1.566
43.40000 5.864
43.42000 7.891
43.44000 7.158
43.46000 5.667
43.48000 1.072
43.50000 -1.948
43.52000 2.832
43.54000 1.172
43.56000 1.470
43.58000 2.546
43.60000 -1.140
43.62000 -3.547
43.64000 -0.642
43.66000 5.980
43.68000 9.930
43.70000 4.340
43.72000 1.004
43.74000 -0.317
43.76000 1.543
43.78000 -0.947
43.80000 -1.361
43.82000 3.465
43.84000 3.029
43.86000 9.353
43.88000 6.107
43.90000 2.436
43.92000 1.128
43.94000 1.469
43.96000 -0.497
43.98000 -0.350
44.00000 1.191
44.02000 -0.807
44.04000 0.865
44.06000 0.559
44.08000 2.013
44.10000 4.497
44.12000 3.716
44.14000 6.087
44.16000 3.608
44.18000 -2.712
44.20000 -0.802
44.22000 0.944
44.24000 0.303
44.26000 3.396
44.28000 2.189
44.30000 3.963
44.32000 -0.405
44.34000 0.581
44.36000 1.609
44.38000 3.708
44.40000 2.759
44.42000 0.364
44.44000 -2.815
44.46000 -3.515
44.48000 2.778
44.50000 3.769
44.52000 -0.974
44.54000 1.325
44.56000 -1.166
44.58000 2.650
44.60000 3.353
44.62000 2.166
44.64000 -1.147
44.66000 3.056
44.68000 0.804
44.70000 -0.481
44.72000 0.667
44.74000 4.242
44.76000 3.351
44.78000 3.592
44.80000 2.528
44.82000 1.043
44.84000 2.061
44.86000 -0.596
44.88000 -1.109
44.90000 -3.508
44.92000 -0.603
44.94000 3.309
44.96000 4.703
44.98000 2.320
45.00000 3.028
45.02000 2.607
45.04000 2.875
45.06000 1.674
45.08000 4.111
45.10000 3.548
45.12000 -0.272
45.14000 -0.961
45.16000 1.643
45.18000 0.915
45.20000 4.927
45.22000 3.049
45.24000 7.194
45.26000 9.335
45.28000 7.555
45.30000 -2.501
45.32000 0.797
45.34000 3.733
45.36000 6.566
45.38000 4.668
45.40000 -0.787
45.42000 5.948
45.44000 6.291
45.46000 3.522
45.48000 4.463
45.50000 4.077
45.52000 2.269
45.54000 4.405
45.56000 5.923
45.58000 15.477
45.60000 15.136
45.62000 7.921
45.64000 8.148
45.66000 12.525
45.68000 9.478
45.70000 10.267
45.72000 12.513
45.74000 10.700
45.76000 13.628
45.78000 7.975
45.80000 11.002
45.82000 8.555
45.84000 12.968
45.86000 7.254
45.88000 10.038
45.90000 18.002
45.92000 20.099
45.94000 16.772
45.96000 18.110
45.98000 12.950
46.00000 11.033
46.02000 14.188
46.04000 13.651
46.06000 16.887
46.08000 20.873
46.10000 11.593
46.12000 17.911
46.14000 22.650
46.16000 16.264
46.18000 19.843
46.20000 18.526
46.22000 25.087
46.24000 24.302
46.26000 27.871
46.28000 30.072
46.30000 26.606
46.32000 31.967
46.34000 31.951
46.36000 33.360
46.38000 32.481
46.40000 36.957
46.42000 35.501
46.44000 35.506
46.46000 39.891
46.48000 35.196
46.50000 38.792
46.52000 40.897
46.54000 39.997
46.56000 36.463
46.58000 39.772
46.60000 46.207
46.62000 48.929
46.64000 46.653
46.66000 44.012
46.68000 50.213
46.70000 48.650
46.72000 54.481
46.74000 55.121
46.76000 53.606
46.78000 49.483
46.80000 57.969
46.82000 56.975
46.84000 52.739
46.86000 52.723
46.88000 52.351
46.90000 54.212
46.92000 61.173
46.94000 62.004
46.96000 65.854
46.98000 67.949
47.00000 66.016
47.02000 59.729
47.04000 67.528
47.06000 67.634
47.08000 65.890
47.10000 69.594
47.12000 69.521
47.14000 71.154
47.16000 70.089
47.18000 67.965
47.20000 67.312
47.22000 70.649
47.24000 78.679
47.26000 82.044
47.28000 71.197
47.30000 67.059
47.32000 73.682
47.34000 78.624
47.36000 76.887
47.38000 80.314
47.40000 77.324
47.42000 71.777
47.44000 69.134
47.46000 66.759
47.48000 74.892
47.50000 75.282
47.52000 66.213
47.54000 64.124
47.56000 65.925
47.58000 73.502
47.60000 72.659
47.62000 65.923
47.64000 60.809
47.66000 69.164
47.68000 63.678
47.70000 54.200
47.72000 51.893
47.74000 55.078
47.76000 59.617
47.78000 56.264
47.80000 46.541
47.82000 48.357
47.84000 45.934
47.86000 40.764
47.88000 41.281
47.90000 39.847
47.92000 44.571
47.94000 43.264
47.96000 43.331
47.98000 39.132
48.00000 39.130
48.02000 39.368
48.04000 39.810
48.06000 35.117
48.08000 24.998
48.10000 24.595
48.12000 25.574
48.14000 29.621
48.16000 23.350
48.18000 25.222
48.20000 19.633
48.22000 30.064
48.24000 23.732
48.26000 13.086
48.28000 17.473
48.30000 17.647
48.32000 20.680
48.34000 18.863
48.36000 15.534
48.38000 17.515
48.40000 11.083
48.42000 11.096
48.44000 16.367
48.46000 16.798
48.48000 15.345
48.50000 14.950
48.52000 13.410
48.54000 8.693
48.56000 8.795
48.58000 7.233
48.60000 9.343
48.62000 11.596
48.64000 14.245
48.66000 5.798
48.68000 3.352
48.70000 4.414
48.72000 2.774
48.74000 4.041
48.76000 2.736
48.78000 6.872
48.80000 8.273
48.82000 7.532
48.84000 3.989
48.86000 3.901
48.88000 3.634
48.90000 4.637
48.92000 4.918
48.94000 5.795
48.96000 3.336
48.98000 4.049
49.00000 2.917
49.02000 -0.805
49.04000 3.503
49.06000 2.506
49.08000 8.748
49.10000 3.907
49.12000 2.775
49.14000 2.031
49.16000 0.775
49.18000 3.887
49.20000 2.811
49.22000 1.863
49.24000 -1.429
49.26000 4.571
49.28000 -3.170
49.30000 -0.022
49.32000 6.288
49.34000 8.395
49.36000 4.139
49.38000 3.381
49.40000 7.256
49.42000 13.238
49.44000 1.361
49.46000 2.759
49.48000 -2.214
49.50000 -3.129
49.52000 -2.880
49.54000 2.024
49.56000 4.573
49.58000 4.610
49.60000 4.655
49.62000 8.296
49.64000 7.453
49.66000 4.550
49.68000 6.961
49.70000 8.815
49.72000 3.099
49.74000 -1.152
49.76000 -2.620
49.78000 -3.108
49.80000 -2.719
49.82000 1.522
49.84000 3.620
49.86000 6.708
49.88000 7.345
49.90000 5.560
49.92000 1.743
49.94000 -1.374
49.96000 4.872
49.98000 5.593
50.00000 5.998
50.02000 3.015
50.04000 3.115
50.06000 1.630
50.08000 2.405
50.10000 2.483
50.12000 1.916
50.14000 1.047
50.16000 3.944
50.18000 3.508
50.20000 3.513
50.22000 8.049
50.24000 8.468
50.26000 1.265
50.28000 2.951
50.30000 8.143
50.32000 6.290
50.34000 0.887
50.36000 0.622
50.38000 6.607
50.40000 7.594
50.42000 5.286
50.44000 0.249
50.46000 -2.124
50.48000 -0.970
50.50000 0.046
50.52000 -3.033
50.54000 4.137
50.56000 2.204
50.58000 2.081
50.60000 1.746
50.62000 6.773
50.64000 1.174
50.66000 3.601
50.68000 3.568
50.70000 1.349
50.72000 -0.523
50.74000 2.367
50.76000 6.300
50.78000 8.828
50.80000 1.656
50.82000 2.197
50.84000 5.307
50.86000 -1.197
50.88000 -3.016
50.90000 5.414
50.92000 2.740
50.94000 5.073
50.96000 3.020
50.98000 2.291
51.00000 5.304
51.02000 6.379
51.04000 6.506
51.06000 1.770
51.08000 0.987
51.10000 7.960
51.12000 3.569
51.14000 6.429
51.16000 -0.536
51.18000 -1.000
51.20000 1.068
51.22000 3.417
51.24000 1.433
51.26000 5.170
51.28000 2.240
51.30000 3.865
51.32000 4.077
51.34000 1.736
51.36000 1.542
51.38000 1.597
51.40000 1.691
51.42000 -0.056
51.44000 6.716
51.46000 3.702
51.48000 2.809
51.50000 0.402
51.52000 1.993
51.54000 2.774
51.56000 1.595
51.58000 -1.289
51.60000 7.267
51.62000 6.825
51.64000 8.375
51.66000 6.963
51.68000 2.617
51.70000 3.394
51.72000 4.801
51.74000 6.347
51.76000 2.857
51.78000 2.942
51.80000 7.339
51.82000 4.203
51.84000 4.127
51.86000 3.186
51.88000 -2.953
51.90000 -0.904
51.92000 3.318
51.94000 2.181
51.96000 4.702
51.98000 6.797
52.00000 7.189
52.02000 5.177
52.04000 0.469
52.06000 1.114
52.08000 7.722
52.10000 7.371
52.12000 10.909
52.14000 7.548
52.16000 9.934
52.18000 3.143
52.20000 0.369
52.22000 5.753
52.24000 4.499
52.26000 2.366
52.28000 1.288
52.30000 2.023
52.32000 1.376
52.34000 3.721
52.36000 3.424
52.38000 4.085
52.40000 4.661
52.42000 4.019
52.44000 7.551
52.46000 3.995
52.48000 0.591
52.50000 3.100
52.52000 -0.870
52.54000 2.190
52.56000 4.284
52.58000 6.336
52.60000 7.808
52.62000 4.110
52.64000 5.413
52.66000 1.700
52.68000 3.595
52.70000 6.379
52.72000 7.790
52.74000 3.241
52.76000 2.499
52.78000 0.898
52.80000 2.061
52.82000 0.945
52.84000 -1.880
52.86000 1.026
52.88000 1.624
52.90000 2.221
52.92000 5.419
52.94000 2.128
52.96000 -2.039
52.98000 -0.508
53.00000 2.473
53.02000 3.284
53.04000 4.023
53.06000 8.350
53.08000 10.504
53.10000 10.097
53.12000 5.873
53.14000 4.619
53.16000 2.613
53.18000 0.942
53.20000 1.793
53.22000 4.559
53.24000 3.798
53.26000 5.507
53.28000 2.800
53.30000 1.504
53.32000 -2.903
53.34000 2.975
53.36000 6.236
53.38000 6.567
53.40000 2.496
53.42000 1.150
53.44000 6.086
53.46000 3.251
53.48000 5.473
53.50000 5.183
53.52000 1.927
53.54000 -2.670
53.56000 -2.337
53.58000 -1.800
53.60000 1.116
53.62000 -2.413
53.64000 3.697
53.66000 3.580
53.68000 0.276
53.70000 -0.744
53.72000 -0.335
53.74000 6.370
53.76000 9.042
53.78000 2.732
53.80000 2.105
53.82000 6.878
53.84000 7.520
53.86000 9.158
53.88000 8.761
53.90000 7.085
53.92000 6.299
53.94000 -0.858
53.96000 3.796
53.98000 5.497
54.00000 7.059
54.02000 5.285
54.04000 5.368
54.06000 7.384
54.08000 -2.635
54.10000 -2.851
54.12000 -0.503
54.14000 7.037
54.16000 8.453
54.18000 9.332
54.20000 8.953
54.22000 7.472
54.24000 9.941
54.26000 6.352
54.28000 8.388
54.30000 8.082
54.32000 5.209
54.34000 9.088
54.36000 6.707
54.38000 2.842
54.40000 5.257
54.42000 6.659
54.44000 3.180
54.46000 7.353
54.48000 7.277
54.50000 7.942
54.52000 5.032
54.54000 -0.170
54.56000 4.938
54.58000 3.317
54.60000 0.045
54.62000 2.207
54.64000 7.743
54.66000 3.221
54.68000 1.979
54.70000 2.910
54.72000 5.943
54.74000 8.915
54.76000 2.859
54.78000 4.760
54.80000 2.315
54.82000 4.903
54.84000 6.105
54.86000 4.270
54.88000 4.056
54.90000 6.316
54.92000 6.034
54.94000 10.121
54.96000 9.466
54.98000 6.682
55.00000 2.581
55.02000 0.493
55.04000 3.826
55.06000 7.480
55.08000 5.873
55.10000 6.665
55.12000 5.952
55.14000 2.339
55.16000 1.523
55.18000 5.359
55.20000 7.440
55.22000 6.625
55.24000 2.154
55.26000 7.305
55.28000 6.924
55.30000 6.048
55.32000 10.444
55.34000 4.119
55.36000 -1.198
55.38000 1.819
55.40000 8.194
55.42000 8.576
55.44000 8.468
55.46000 8.815
55.48000 4.394
55.50000 4.977
55.52000 4.266
55.54000 -0.389
55.56000 3.443
55.58000 4.101
55.60000 3.295
55.62000 8.202
55.64000 5.475
55.66000 2.277
55.68000 4.615
55.70000 6.281
55.72000 6.601
55.74000 3.273
55.76000 1.799
55.78000 -2.808
55.80000 4.624
55.82000 1.850
55.84000 4.699
55.86000 9.160
55.88000 2.156
55.90000 4.449
55.92000 7.119
55.94000 7.199
55.96000 5.352
55.98000 6.003
56.00000 5.094
56.02000 4.287
56.04000 2.598
56.06000 4.894
56.08000 10.281
56.10000 4.583
56.12000 4.545
56.14000 5.134
56.16000 4.624
56.18000 6.495
56.20000 4.483
56.22000 3.502
56.24000 3.351
56.26000 7.222
56.28000 5.123
56.30000 1.959
56.32000 3.723
56.34000 4.171
56.36000 8.554
56.38000 5.382
56.40000 7.262
56.42000 8.477
56.44000 5.254
56.46000 3.261
56.48000 2.844
56.50000 3.648
56.52000 7.453
56.54000 5.154
56.56000 0.561
56.58000 -1.183
56.60000 3.042
56.62000 1.518
56.64000 5.382
56.66000 10.193
56.68000 10.658
56.70000 4.354
56.72000 1.365
56.74000 7.266
56.76000 7.555
56.78000 6.631
56.80000 4.605
56.82000 5.153
56.84000 4.808
56.86000 0.384
56.88000 -2.785
56.90000 -1.209
56.92000 2.312
56.94000 0.995
56.96000 2.171
56.98000 1.931
57.00000 1.487
57.02000 -0.026
57.04000 -0.639
57.06000 -0.645
57.08000 3.337
57.10000 0.337
57.12000 2.453
57.14000 2.747
57.16000 0.794
57.18000 3.244
57.20000 3.097
57.22000 4.492
57.24000 3.220
57.26000 8.550
57.28000 5.486
57.30000 3.470
57.32000 1.180
57.34000 1.069
57.36000 3.926
57.38000 2.159
57.40000 6.300
57.42000 3.796
57.44000 11.873
57.46000 8.556
57.48000 7.482
57.50000 2.361
57.52000 3.393
57.54000 3.771
57.56000 4.191
57.58000 -1.017
57.60000 -1.809
57.62000 0.058
57.64000 2.012
57.66000 6.614
57.68000 6.236
57.70000 6.926
57.72000 7.440
57.74000 3.284
57.76000 3.176
57.78000 5.240
57.80000 3.685
57.82000 -2.086
57.84000 -1.496
57.86000 4.359
57.88000 1.152
57.90000 1.902
57.92000 2.844
57.94000 0.388
57.96000 4.694
57.98000 6.442
58.00000 -2.756
58.02000 1.324
58.04000 0.603
58.06000 5.749
58.08000 2.052
58.10000 3.392
58.12000 4.687
58.14000 5.590
58.16000 3.285
58.18000 0.056
58.20000 5.946
58.22000 2.614
58.24000 -2.123
58.26000 2.412
58.28000 -1.046
58.30000 0.413
58.32000 2.814
58.34000 0.119
58.36000 3.413
58.38000 1.668
58.40000 4.366
58.42000 5.558
58.44000 0.195
58.46000 1.008
58.48000 3.956
58.50000 3.213
58.52000 4.178
58.54000 4.711
58.56000 5.778
58.58000 1.541
58.60000 3.752
58.62000 0.937
58.64000 1.192
58.66000 3.966
58.68000 4.259
58.70000 2.177
58.72000 0.016
58.74000 1.132
58.76000 -0.929
58.78000 4.961
58.80000 3.546
58.82000 4.403
58.84000 5.914
58.86000 3.878
58.88000 -1.492
58.90000 0.241
58.92000 5.920
58.94000 -0.168
58.96000 0.063
58.98000 2.079
59.00000 3.600
59.02000 5.068
59.04000 7.307
59.06000 6.487
59.08000 7.503
59.10000 9.001
59.12000 4.454
59.14000 3.821
59.16000 -0.906
59.18000 1.243
59.20000 6.325
59.22000 5.319
59.24000 1.184
59.26000 -1.389
59.28000 2.447
59.30000 6.920
59.32000 7.261
59.34000 3.359
59.36000 0.468
59.38000 0.973
59.40000 -0.626
59.42000 2.428
59.44000 2.627
59.46000 2.391
59.48000 1.874
59.50000 2.643
59.52000 1.087
59.54000 6.662
59.56000 5.179
59.58000 2.258
59.60000 -0.213
59.62000 -2.708
59.64000 5.191
59.66000 6.456
59.68000 4.813
59.70000 4.486
59.72000 5.633
59.74000 4.123
59.76000 2.143
59.78000 3.973
59.80000 3.751
59.82000 0.330
59.84000 -2.322
59.86000 1.411
59.88000 1.330
59.90000 1.492
59.92000 5.496
59.94000 6.723
59.96000 2.008
59.98000 3.231
60.00000 2.601
60.02000 2.136
60.04000 -2.697
60.06000 -1.935
60.08000 4.136
60.10000 2.742
60.12000 4.688
60.14000 0.456
60.16000 0.297
60.18000 2.537
60.20000 5.381
60.22000 4.183
60.24000 6.385
60.26000 8.381
60.28000 3.250
60.30000 0.987
60.32000 3.237
60.34000 3.856
60.36000 0.770
60.38000 -0.237
60.40000 3.230
60.42000 1.284
60.44000 0.466
60.46000 2.478
60.48000 0.966
60.50000 3.165
60.52000 1.859
60.54000 -0.522
60.56000 3.260
60.58000 0.328
60.60000 3.591
60.62000 2.922
60.64000 3.522
60.66000 3.114
60.68000 3.940
60.70000 3.703
60.72000 5.626
60.74000 2.287
60.76000 -0.616
60.78000 1.084
60.80000 2.826
60.82000 5.083
60.84000 5.487
60.86000 2.948
60.88000 2.065
60.90000 1.308
60.92000 3.879
60.94000 2.348
60.96000 1.910
60.98000 3.638
61.00000 -1.725
61.02000 2.416
61.04000 2.996
61.06000 4.939
61.08000 1.638
61.10000 -0.304
61.12000 0.071
61.14000 2.281
61.16000 1.340
61.18000 3.155
61.20000 2.817
61.22000 0.118
61.24000 -0.654
61.26000 4.120
61.28000 5.515
61.30000 0.999
61.32000 3.858
61.34000 -0.571
61.36000 -0.589
61.38000 0.858
61.40000 -1.477
61.42000 -1.365
61.44000 6.712
61.46000 3.558
61.48000 -1.565
61.50000 -0.737
61.52000 2.393
61.54000 4.008
61.56000 4.405
61.58000 3.237
61.60000 2.344
61.62000 -2.096
61.64000 -2.648
61.66000 -0.282
61.68000 2.853
61.70000 2.230
61.72000 -1.629
61.74000 3.398
61.76000 2.526
61.78000 2.700
61.80000 0.254
61.82000 2.763
61.84000 1.579
61.86000 2.475
61.88000 1.882
61.90000 2.679
61.92000 2.741
61.94000 -0.028
61.96000 1.064
61.98000 1.881
62.00000 1.954
62.02000 1.050
62.04000 -2.631
62.06000 0.205
62.08000 3.651
62.10000 6.521
62.12000 8.962
62.14000 1.929
62.16000 0.508
62.18000 0.072
62.20000 1.030
62.22000 4.672
62.24000 5.340
62.26000 5.757
62.28000 3.566
62.30000 0.631
62.32000 0.545
62.34000 3.785
62.36000 2.048
62.38000 3.255
62.40000 2.939
62.42000 1.342
62.44000 0.630
62.46000 1.063
62.48000 3.654
62.50000 4.151
62.52000 3.087
62.54000 0.325
62.56000 -2.072
62.58000 -2.582
62.60000 -0.068
62.62000 0.917
62.64000 1.204
62.66000 6.759
62.68000 5.503
62.70000 -0.322
62.72000 -1.031
62.74000 3.701
62.76000 4.826
62.78000 5.153
62.80000 2.826
62.82000 1.208
62.84000 0.786
62.86000 4.638
62.88000 0.936
62.90000 3.364
62.92000 3.614
62.94000 4.254
62.96000 7.033
62.98000 4.197
63.00000 3.251
63.02000 2.977
63.04000 2.303
63.06000 2.411
63.08000 -1.281
63.10000 0.344
63.12000 3.088
63.14000 5.509
63.16000 4.687
63.18000 1.753
63.20000 -2.591
63.22000 -0.656
63.24000 1.646
63.26000 0.894
63.28000 0.119
63.30000 0.298
63.32000 1.640
63.34000 -1.430
63.36000 0.035
63.38000 3.316
63.40000 1.244
63.42000 3.619
63.44000 5.920
63.46000 5.088
63.48000 0.174
63.50000 1.651
63.52000 -1.121
63.54000 -0.144
63.56000 -0.625
63.58000 2.440
63.60000 4.859
63.62000 5.454
63.64000 7.470
63.66000 3.479
63.68000 -1.539
63.70000 -0.112
63.72000 1.546
63.74000 5.854
63.76000 6.470
63.78000 1.255
63.80000 3.344
63.82000 4.446
63.84000 2.475
63.86000 3.818
63.88000 3.377
63.90000 7.115
63.92000 5.830
63.94000 4.881
63.96000 -0.847
63.98000 -2.596
64.00000 4.663
64.02000 1.353
64.04000 4.584
64.06000 8.818
64.08000 7.167
64.10000 5.540
64.12000 6.823
64.14000 5.018
64.16000 3.976
64.18000 3.407
64.20000 3.837
64.22000 1.130
64.24000 3.387
64.26000 4.742
64.28000 1.383
64.30000 0.440
64.32000 0.890
64.34000 3.312
64.36000 2.008
64.38000 5.385
64.40000 8.369
64.42000 4.071
64.44000 3.167
64.46000 1.962
64.48000 3.376
64.50000 6.273
64.52000 11.455
64.54000 6.158
64.56000 4.136
64.58000 2.683
64.60000 0.496
64.62000 3.136
64.64000 3.692
64.66000 -0.015
64.68000 -2.272
64.70000 1.822
64.72000 -1.527
64.74000 -2.553
64.76000 -0.892
64.78000 1.398
64.80000 5.928
64.82000 4.973
64.84000 7.366
64.86000 5.546
64.88000 1.757
64.90000 -0.058
64.92000 -1.539
64.94000 -0.468
64.96000 2.533
64.98000 3.411
65.00000 2.918
65.02000 1.944
65.04000 4.409
65.06000 5.607
65.08000 2.315
65.10000 0.649
65.12000 2.776
65.14000 -1.191
65.16000 -1.424
65.18000 -0.629
65.20000 0.797
65.22000 1.606
65.24000 2.379
65.26000 -1.197
65.28000 1.306
65.30000 2.101
65.32000 2.148
65.34000 2.624
65.36000 2.931
65.38000 0.887
65.40000 -1.676
65.42000 4.752
65.44000 5.065
65.46000 1.830
65.48000 3.229
65.50000 2.906
65.52000 3.545
65.54000 6.209
65.56000 1.549
65.58000 1.599
65.60000 5.257
65.62000 5.861
65.64000 2.611
65.66000 1.739
65.68000 -1.430
65.70000 0.475
65.72000 1.268
65.74000 0.885
65.76000 -0.353
65.78000 1.541
65.80000 2.132
65.82000 1.449
65.84000 -0.813
65.86000 -2.646
65.88000 1.298
65.90000 5.688
65.92000 6.304
65.94000 5.965
65.96000 5.708
65.98000 2.622
66.00000 -2.408
66.02000 -2.647
66.04000 -0.466
66.06000 4.626
66.08000 1.421
66.10000 0.441
66.12000 4.839
66.14000 3.961
66.16000 4.571
66.18000 2.628
66.20000 1.933
66.22000 5.364
66.24000 5.124
66.26000 1.968
66.28000 -1.356
66.30000 -0.718
66.32000 4.376
66.34000 3.667
66.36000 4.864
66.38000 2.631
66.40000 5.514
66.42000 5.118
66.44000 0.267
66.46000 3.204
66.48000 3.620
66.50000 5.138
66.52000 2.570
66.54000 1.186
66.56000 5.151
66.58000 2.671
66.60000 0.589
66.62000 4.901
66.64000 5.951
66.66000 5.165
66.68000 2.854
66.70000 0.508
66.72000 1.670
66.74000 2.459
66.76000 0.654
66.78000 1.799
66.80000 0.992
66.82000 4.741
66.84000 1.345
66.86000 1.773
66.88000 0.188
66.90000 3.053
66.92000 1.558
66.94000 -2.145
66.96000 -2.668
66.98000 1.531
67.00000 5.373
67.02000 3.123
67.04000 2.584
67.06000 4.476
67.08000 4.609
67.10000 -0.401
67.12000 -2.113
67.14000 -0.246
67.16000 0.279
67.18000 4.346
67.20000 1.306
67.22000 1.959
67.24000 -1.036
67.26000 1.761
67.28000 1.170
67.30000 2.457
67.32000 2.453
67.34000 5.118
67.36000 3.158
67.38000 1.835
67.40000 2.835
67.42000 2.942
67.44000 6.442
67.46000 1.580
67.48000 -0.159
67.50000 -2.243
67.52000 3.838
67.54000 3.330
67.56000 -0.435
67.58000 0.167
67.60000 0.134
67.62000 -0.147
67.64000 0.657
67.66000 -2.723
67.68000 -0.392
67.70000 3.666
67.72000 0.745
67.74000 -1.522
67.76000 1.435
67.78000 1.284
67.80000 0.673
67.82000 0.530
67.84000 5.688
67.86000 5.286
67.88000 5.120
67.90000 6.409
67.92000 4.644
67.94000 6.651
67.96000 2.444
67.98000 3.044
68.00000 4.093
68.02000 8.450
68.04000 4.402
68.06000 3.214
68.08000 2.418
68.10000 4.716
68.12000 6.067
68.14000 7.327
68.16000 4.984
68.18000 9.389
68.20000 10.056
68.22000 9.614
68.24000 13.241
68.26000 13.640
68.28000 10.296
68.30000 12.202
68.32000 9.015
68.34000 11.930
68.36000 14.002
68.38000 12.520
68.40000 12.624
68.42000 13.483
68.44000 13.538
68.46000 13.994
68.48000 12.597
68.50000 12.239
68.52000 15.489
68.54000 16.046
68.56000 16.670
68.58000 17.811
68.60000 16.895
68.62000 18.168
68.64000 17.659
68.66000 18.581
68.68000 18.511
68.70000 14.526
68.72000 17.187
68.74000 25.336
68.76000 24.265
68.78000 23.826
68.80000 22.398
68.82000 18.291
68.84000 19.935
68.86000 23.474
68.88000 25.266
68.90000 25.883
68.92000 29.864
68.94000 31.071
68.96000 26.808
68.98000 29.470
69.00000 28.922
69.02000 27.544
69.04000 29.006
69.06000 28.505
69.08000 27.870
69.10000 30.667
69.12000 33.758
69.14000 28.311
69.16000 30.228
69.18000 31.277
69.20000 33.174
69.22000 31.944
69.24000 31.722
69.26000 33.734
69.28000 28.105
69.30000 28.096
69.32000 23.144
69.34000 24.839
69.36000 27.812
69.38000 28.249
69.40000 26.954
69.42000 28.653
69.44000 30.715
69.46000 28.387
69.48000 27.271
69.50000 23.125
69.52000 23.207
69.54000 20.511
69.56000 21.301
69.58000 22.095
69.60000 25.676
69.62000 27.571
69.64000 27.942
69.66000 17.607
69.68000 16.699
69.70000 15.045
69.72000 17.536
69.74000 16.458
69.76000 17.354
69.78000 13.584
69.80000 15.700
69.82000 16.941
69.84000 12.958
69.86000 15.353
69.88000 11.454
69.90000 10.036
69.92000 12.293
69.94000 8.285
69.96000 11.481
69.98000 9.945
70.00000 8.771
70.02000 7.356
70.04000 11.228
70.06000 14.375
70.08000 15.724
70.10000 10.476
70.12000 5.839
70.14000 9.544
70.16000 6.276
70.18000 5.718
70.20000 8.034
70.22000 6.103
70.24000 0.650
70.26000 5.986
70.28000 7.196
70.30000 3.091
70.32000 3.231
70.34000 9.037
70.36000 7.172
70.38000 3.580
70.40000 1.228
70.42000 -0.004
70.44000 0.239
70.46000 2.988
70.48000 7.351
70.50000 7.067
70.52000 7.278
70.54000 7.005
70.56000 2.480
70.58000 4.567
70.60000 6.283
70.62000 6.172
70.64000 0.048
70.66000 -0.132
70.68000 2.977
70.70000 5.232
70.72000 3.196
70.74000 2.903
70.76000 1.486
70.78000 2.956
70.80000 0.248
70.82000 2.985
70.84000 7.114
70.86000 5.194
70.88000 4.043
70.90000 3.920
70.92000 5.821
70.94000 9.520
70.96000 7.488
70.98000 5.528
71.00000 7.637
71.02000 7.961
71.04000 6.467
71.06000 10.232
71.08000 3.330
71.10000 2.079
71.12000 3.973
71.14000 4.756
71.16000 -2.532
71.18000 -0.424
71.20000 0.109
71.22000 1.079
71.24000 4.063
71.26000 5.160
71.28000 1.341
71.30000 1.132
71.32000 3.476
71.34000 3.458
71.36000 4.846
71.38000 5.580
71.40000 3.651
71.42000 3.706
71.44000 4.974
71.46000 5.455
71.48000 3.640
71.50000 4.972
71.52000 1.735
71.54000 1.078
71.56000 -0.653
71.58000 5.262
71.60000 4.410
71.62000 7.078
71.64000 5.061
71.66000 2.882
71.68000 0.990
71.70000 4.133
71.72000 2.471
71.74000 3.275
71.76000 4.120
71.78000 6.069
71.80000 6.775
71.82000 3.432
71.84000 -1.053
71.86000 2.900
71.88000 4.442
71.90000 2.780
71.92000 3.404
71.94000 6.132
71.96000 3.510
71.98000 6.345
72.00000 7.678
72.02000 5.898
72.04000 -0.725
72.06000 1.594
72.08000 3.796
72.10000 1.666
72.12000 2.408
72.14000 1.445
72.16000 0.637
72.18000 3.222
72.20000 1.676
72.22000 0.808
72.24000 7.757
72.26000 5.493
72.28000 2.861
72.30000 5.078
72.32000 4.550
72.34000 1.479
72.36000 2.302
72.38000 -0.827
72.40000 0.041
72.42000 2.170
72.44000 2.462
72.46000 -2.375
72.48000 -2.464
72.50000 1.961
72.52000 0.025
72.54000 2.554
72.56000 3.077
72.58000 7.349
72.60000 5.281
72.62000 2.294
72.64000 4.082
72.66000 7.245
72.68000 3.867
72.70000 -2.450
72.72000 1.835
72.74000 1.279
72.76000 3.789
72.78000 1.635
72.80000 2.060
72.82000 1.145
72.84000 0.627
72.86000 3.902
72.88000 9.523
72.90000 7.015
72.92000 6.911
72.94000 -0.690
72.96000 -1.325
72.98000 4.105
73.00000 4.244
73.02000 7.315
73.04000 6.771
73.06000 -0.123
73.08000 2.886
73.10000 3.126
73.12000 2.464
73.14000 2.921
73.16000 3.866
73.18000 0.936
73.20000 5.175
73.22000 4.621
73.24000 1.487
73.26000 7.396
73.28000 5.309
73.30000 3.323
73.32000 4.409
73.34000 5.236
73.36000 6.207
73.38000 2.810
73.40000 -0.160
73.42000 2.689
73.44000 5.612
73.46000 3.477
73.48000 4.122
73.50000 5.454
73.52000 3.336
73.54000 6.480
73.56000 8.227
73.58000 2.584
73.60000 4.268
73.62000 7.973
73.64000 3.089
73.66000 -2.408
73.68000 -0.909
73.70000 1.996
73.72000 4.704
73.74000 8.933
73.76000 3.559
73.78000 1.913
73.80000 6.637
73.82000 8.716
73.84000 5.899
73.86000 2.253
73.88000 6.113
73.90000 4.452
73.92000 4.366
73.94000 4.565
73.96000 2.557
73.98000 1.020
74.00000 -0.390
74.02000 0.222
74.04000 1.626
74.06000 1.338
74.08000 3.473
74.10000 7.286
74.12000 2.168
74.14000 1.876
74.16000 1.800
74.18000 4.934
74.20000 1.024
74.22000 4.278
74.24000 3.324
74.26000 4.741
74.28000 0.720
74.30000 1.213
74.32000 2.525
74.34000 0.985
74.36000 5.425
74.38000 8.449
74.40000 4.869
74.42000 6.211
74.44000 7.029
74.46000 9.873
74.48000 7.008
74.50000 0.877
74.52000 4.197
74.54000 4.336
74.56000 3.114
74.58000 -1.705
74.60000 1.821
74.62000 5.080
74.64000 8.412
74.66000 4.740
74.68000 -0.968
74.70000 -0.268
74.72000 1.561
74.74000 -1.522
74.76000 0.519
74.78000 2.255
74.80000 1.775
74.82000 6.209
74.84000 8.917
74.86000 6.328
74.88000 2.847
74.90000 3.620
74.92000 1.106
74.94000 2.360
74.96000 2.758
74.98000 3.759
75.00000 4.366
75.02000 4.827
75.04000 0.692
75.06000 0.470
75.08000 0.285
75.10000 1.956
75.12000 4.520
75.14000 3.118
75.16000 4.251
75.18000 8.633
75.20000 6.460
75.22000 4.062
75.24000 0.324
75.26000 -2.426
75.28000 0.999
75.30000 0.112
75.32000 3.698
75.34000 3.421
75.36000 3.021
75.38000 4.783
75.40000 1.662
75.42000 2.326
75.44000 3.196
75.46000 1.458
75.48000 0.613
75.50000 -0.872
75.52000 -0.243
75.54000 -1.440
75.56000 2.894
75.58000 4.132
75.60000 4.567
75.62000 5.595
75.64000 7.309
75.66000 3.806
75.68000 0.868
75.70000 0.134
75.72000 -0.875
75.74000 3.553
75.76000 3.032
75.78000 -1.280
75.80000 -0.120
75.82000 1.030
75.84000 1.746
75.86000 0.516
75.88000 2.958
75.90000 4.461
75.92000 2.672
75.94000 3.878
75.96000 2.899
75.98000 3.043
76.00000 1.782
76.02000 0.191
76.04000 0.748
76.06000 2.019
76.08000 3.342
76.10000 2.063
76.12000 2.186
76.14000 -1.696
76.16000 -2.452
76.18000 -1.021
76.20000 3.385
76.22000 -2.241
76.24000 2.368
76.26000 6.752
76.28000 5.506
76.30000 5.455
76.32000 7.467
76.34000 2.459
76.36000 3.342
76.38000 4.134
76.40000 -0.468
76.42000 -2.423
76.44000 -1.311
76.46000 2.374
76.48000 3.502
76.50000 6.970
76.52000 1.366
76.54000 2.537
76.56000 3.580
76.58000 0.330
76.60000 1.374
76.62000 7.570
76.64000 4.256
76.66000 -0.336
76.68000 4.400
76.70000 4.743
76.72000 5.808
76.74000 6.453
76.76000 3.474
76.78000 1.121
76.80000 1.524
76.82000 2.742
76.84000 2.969
76.86000 3.222
76.88000 -0.377
76.90000 -0.113
76.92000 3.947
76.94000 0.097
76.96000 2.066
76.98000 3.305
77.00000 2.907
77.02000 1.947
77.04000 -2.465
77.06000 3.242
77.08000 4.268
77.10000 0.699
77.12000 1.868
77.14000 5.107
77.16000 9.418
77.18000 11.025
77.20000 5.175
77.22000 -1.363
77.24000 1.470
77.26000 6.569
77.28000 6.006
77.30000 6.961
77.32000 5.067
77.34000 1.313
77.36000 -0.503
77.38000 3.913
77.40000 3.912
77.42000 3.818
77.44000 3.434
77.46000 7.103
77.48000 1.835
77.50000 2.341
77.52000 1.334
77.54000 4.058
77.56000 6.587
77.58000 3.640
77.60000 3.744
77.62000 -2.461
77.64000 0.044
77.66000 1.692
77.68000 1.447
77.70000 1.912
77.72000 4.499
77.74000 4.519
77.76000 2.612
77.78000 2.754
77.80000 -2.460
77.82000 -0.381
77.84000 1.555
77.86000 2.388
77.88000 4.273
77.90000 5.467
77.92000 2.018
77.94000 -0.472
77.96000 -1.365
77.98000 -1.578
78.00000 -2.469
78.02000 -2.171
78.04000 7.162
78.06000 5.105
78.08000 6.951
78.10000 1.837
78.12000 3.868
78.14000 1.763
78.16000 1.534
78.18000 7.032
78.20000 4.244
78.22000 1.007
78.24000 1.384
78.26000 2.078
78.28000 1.316
78.30000 6.307
78.32000 4.438
78.34000 0.304
78.36000 -1.283
78.38000 2.554
78.40000 3.587
78.42000 -0.973
78.44000 2.842
78.46000 7.584
78.48000 4.620
78.50000 0.260
78.52000 1.055
78.54000 -1.757
78.56000 1.105
78.58000 3.714
78.60000 4.038
78.62000 -0.346
78.64000 1.578
78.66000 1.895
78.68000 5.575
78.70000 3.030
78.72000 1.650
78.74000 1.637
78.76000 2.416
78.78000 -2.490
78.80000 1.628
78.82000 0.195
78.84000 2.638
78.86000 3.054
78.88000 -0.062
78.90000 0.930
78.92000 -0.413
78.94000 -1.454
78.96000 0.482
78.98000 0.765
79.00000 3.265
79.02000 6.833
79.04000 14.431
79.06000 11.913
79.08000 3.829
79.10000 1.490
79.12000 2.387
79.14000 -0.054
79.16000 3.604
79.18000 2.585
79.20000 7.711
79.22000 2.194
79.24000 3.090
79.26000 7.256
79.28000 6.635
79.30000 2.684
79.32000 -1.967
79.34000 1.054
79.36000 4.963
79.38000 5.627
79.40000 4.724
79.42000 4.514
79.44000 3.733
79.46000 1.962
79.48000 1.888
79.50000 -0.388
79.52000 -0.484
79.54000 -2.493
79.56000 2.980
79.58000 5.772
79.60000 6.263
79.62000 2.933
79.64000 1.660
79.66000 4.200
79.68000 4.625
79.70000 1.326
79.72000 4.375
79.74000 1.371
79.76000 2.824
79.78000 2.841
79.80000 2.670
79.82000 2.343
79.84000 5.397
79.86000 2.944
79.88000 4.968
79.90000 4.448
79.92000 7.279
79.94000 8.081
79.96000 3.499
79.98000 -2.488
80.00000 -0.342
80.02000 0.406
80.04000 5.273
80.06000 6.735
80.08000 2.186
80.10000 2.772
80.12000 1.645
80.14000 -1.644
80.16000 0.704
80.18000 -1.949
80.20000 5.266
80.22000 8.869
80.24000 5.939
80.26000 5.840
80.28000 5.720
80.30000 7.985
80.32000 2.373
80.34000 0.920
80.36000 5.613
80.38000 3.308
80.40000 1.084
80.42000 1.598
80.44000 1.744
80.46000 0.156
80.48000 -2.500
80.50000 3.794
80.52000 -0.179
80.54000 2.305
80.56000 0.579
80.58000 0.290
80.60000 3.611
80.62000 6.138
80.64000 -1.742
80.66000 -1.035
80.68000 4.187
80.70000 8.123
80.72000 3.851
80.74000 2.175
80.76000 -0.041
80.78000 3.132
80.80000 0.930
80.82000 3.546
80.84000 2.230
80.86000 -2.188
80.88000 -2.226
80.90000 1.359
80.92000 3.647
80.94000 2.826
80.96000 2.300
80.98000 2.158
81.00000 4.104
81.02000 3.780
81.04000 3.699
81.06000 5.313
81.08000 0.597
81.10000 6.649
81.12000 6.052
81.14000 3.603
81.16000 0.566
81.18000 3.102
81.20000 2.093
81.22000 -0.527
81.24000 0.964
81.26000 2.132
81.28000 8.701
81.30000 3.318
81.32000 -2.038
81.34000 -2.592
81.36000 -1.668
81.38000 0.635
81.40000 4.865
81.42000 1.101
81.44000 4.853
81.46000 3.298
81.48000 -1.111
81.50000 2.073
81.52000 2.158
81.54000 8.508
81.56000 9.163
81.58000 3.738
81.60000 -2.427
81.62000 0.275
81.64000 2.352
81.66000 -0.880
81.68000 -0.162
81.70000 -0.835
81.72000 0.601
81.74000 0.210
81.76000 0.299
81.78000 2.155
81.80000 -1.823
81.82000 -0.659
81.84000 3.252
81.86000 14.442
81.88000 5.530
81.90000 0.119
81.92000 -0.303
81.94000 1.988
81.96000 -0.108
81.98000 -0.166
82.00000 3.678
82.02000 3.951
82.04000 3.211
82.06000 3.108
82.08000 1.343
82.10000 2.043
82.12000 3.045
82.14000 0.956
82.16000 2.802
82.18000 5.890
82.20000 8.945
82.22000 6.618
82.24000 4.966
82.26000 5.674
82.28000 8.339
82.30000 4.871
82.32000 -0.650
82.34000 5.637
82.36000 1.925
82.38000 5.420
82.40000 10.784
82.42000 10.067
82.44000 7.955
82.46000 4.614
82.48000 2.309
82.50000 9.186
82.52000 7.992
82.54000 2.201
82.56000 5.552
82.58000 5.428
82.60000 5.125
82.62000 8.712
82.64000 16.045
82.66000 12.570
82.68000 11.085
82.70000 11.316
82.72000 17.524
82.74000 13.105
82.76000 14.020
82.78000 12.811
82.80000 18.569
82.82000 18.431
82.84000 18.232
82.86000 19.183
82.88000 18.804
82.90000 12.581
82.92000 8.300
82.94000 15.004
82.96000 16.261
82.98000 17.621
83.00000 13.455
83.02000 11.257
83.04000 17.911
83.06000 13.450
83.08000 13.085
83.10000 17.585
83.12000 19.923
83.14000 18.472
83.16000 24.329
83.18000 26.903
83.20000 28.480
83.22000 27.065
83.24000 23.712
83.26000 26.363
83.28000 26.381
83.30000 22.193
83.32000 21.652
83.34000 25.451
83.36000 25.872
83.38000 25.647
83.40000 26.364
83.42000 28.605
83.44000 30.261
83.46000 29.177
83.48000 30.439
83.50000 26.145
83.52000 24.000
83.54000 31.168
83.56000 31.716
83.58000 26.505
83.60000 20.226
83.62000 19.713
83.64000 23.017
83.66000 27.878
83.68000 28.187
83.70000 28.589
83.72000 29.049
83.74000 26.945
83.76000 22.667
83.78000 32.991
83.80000 33.894
83.82000 30.660
83.84000 32.097
83.86000 29.666
83.88000 25.803
83.90000 22.130
83.92000 22.618
83.94000 22.697
83.96000 27.216
83.98000 22.052
84.00000 25.191
84.02000 28.734
84.04000 27.747
84.06000 25.400
84.08000 27.052
84.10000 20.288
84.12000 17.673
84.14000 22.515
84.16000 20.618
84.18000 16.548
84.20000 15.195
84.22000 17.544
84.24000 14.271
84.26000 14.687
84.28000 15.151
84.30000 21.385
84.32000 23.254
84.34000 17.421
84.36000 9.629
84.38000 10.794
84.40000 8.536
84.42000 15.836
84.44000 17.859
84.46000 11.660
84.48000 10.629
84.50000 15.704
84.52000 17.464
84.54000 17.283
84.56000 16.361
84.58000 14.224
84.60000 12.562
84.62000 13.954
84.64000 12.517
84.66000 9.809
84.68000 1.960
84.70000 2.671
84.72000 4.593
84.74000 7.711
84.76000 7.659
84.78000 6.042
84.80000 7.049
84.82000 8.624
84.84000 3.695
84.86000 2.251
84.88000 6.687
84.90000 4.543
84.92000 4.511
84.94000 3.740
84.96000 5.852
84.98000 7.849
85.00000 5.951
85.02000 2.494
85.04000 5.502
85.06000 9.531
85.08000 7.507
85.10000 3.465
85.12000 4.536
85.14000 6.747
85.16000 9.760
85.18000 5.659
85.20000 5.978
85.22000 7.706
85.24000 2.106
85.26000 1.650
85.28000 2.042
85.30000 2.398
85.32000 5.882
85.34000 2.368
85.36000 2.822
85.38000 -2.545
85.40000 2.421
85.42000 3.614
85.44000 1.701
85.46000 0.304
85.48000 5.007
85.50000 6.237
85.52000 4.035
85.54000 4.315
85.56000 0.290
85.58000 -0.767
85.60000 -0.080
85.62000 1.680
85.64000 4.463
85.66000 4.262
85.68000 4.220
85.70000 -1.099
85.72000 0.259
85.74000 0.871
85.76000 4.800
85.78000 6.339
85.80000 2.056
85.82000 5.895
85.84000 7.676
85.86000 7.472
85.88000 3.443
85.90000 -2.464
85.92000 2.027
85.94000 10.907
85.96000 10.438
85.98000 4.087
86.00000 3.361
86.02000 4.640
86.04000 8.200
86.06000 7.614
86.08000 5.854
86.10000 6.412
86.12000 6.715
86.14000 8.077
86.16000 7.062
86.18000 6.934
86.20000 5.075
86.22000 9.928
86.24000 7.974
86.26000 1.157
86.28000 -1.363
86.30000 8.769
86.32000 6.029
86.34000 1.122
86.36000 5.109
86.38000 3.490
86.40000 5.507
86.42000 4.800
86.44000 7.616
86.46000 5.379
86.48000 4.646
86.50000 0.695
86.52000 -2.506
86.54000 4.402
86.56000 0.482
86.58000 1.801
86.60000 2.341
86.62000 8.214
86.64000 11.874
86.66000 13.614
86.68000 12.714
86.70000 7.904
86.72000 7.768
86.74000 12.297
86.76000 11.265
86.78000 5.148
86.80000 4.038
86.82000 6.032
86.84000 7.866
86.86000 5.684
86.88000 0.731
86.90000 4.602
86.92000 6.198
86.94000 9.818
86.96000 4.560
86.98000 5.786
87.00000 6.691
87.02000 7.456
87.04000 9.882
87.06000 14.037
87.08000 14.237
87.10000 8.458
87.12000 8.623
87.14000 6.160
87.16000 10.356
87.18000 18.665
87.20000 16.842
87.22000 9.063
87.24000 6.100
87.26000 7.927
87.28000 10.417
87.30000 8.750
87.32000 7.936
87.34000 14.531
87.36000 15.148
87.38000 17.178
87.40000 16.241
87.42000 10.706
87.44000 11.026
87.46000 17.869
87.48000 14.652
87.50000 13.488
87.52000 14.403
87.54000 20.138
87.56000 15.668
87.58000 21.879
87.60000 22.572
87.62000 14.651
87.64000 16.473
87.66000 16.991
87.68000 16.962
87.70000 20.642
87.72000 19.888
87.74000 16.584
87.76000 14.698
87.78000 18.233
87.80000 26.615
87.82000 25.842
87.84000 19.270
87.86000 18.905
87.88000 23.632
87.90000 25.580
87.92000 25.795
87.94000 27.070
87.96000 21.195
87.98000 23.317
88.00000 24.907
88.02000 23.274
88.04000 25.293
88.06000 24.326
88.08000 26.788
88.10000 23.638
88.12000 21.447
88.14000 23.474
88.16000 26.579
88.18000 27.315
88.20000 26.374
88.22000 26.408
88.24000 24.786
88.26000 23.653
88.28000 27.642
88.30000 28.021
88.32000 24.806
88.34000 23.223
88.36000 26.971
88.38000 29.022
88.40000 24.423
88.42000 24.135
88.44000 18.548
88.46000 21.373
88.48000 26.470
88.50000 32.703
88.52000 27.344
88.54000 17.583
88.56000 24.718
88.58000 23.868
88.60000 25.657
88.62000 23.512
88.64000 17.566
88.66000 18.737
88.68000 21.683
88.70000 24.459
88.72000 20.688
88.74000 17.156
88.76000 18.276
88.78000 21.542
88.80000 20.522
88.82000 18.840
88.84000 14.494
88.86000 16.603
88.88000 16.333
88.90000 13.577
88.92000 16.920
88.94000 18.845
88.96000 12.481
88.98000 11.248
89.00000 13.513
89.02000 15.977
89.04000 17.279
89.06000 14.890
89.08000 14.174
89.10000 13.351
89.12000 13.400
89.14000 10.357
89.16000 8.881
89.18000 12.604
89.20000 9.054
89.22000 6.861
89.24000 3.932
89.26000 4.545
89.28000 7.531
89.30000 6.746
89.32000 10.195
89.34000 7.073
89.36000 8.366
89.38000 10.252
89.40000 8.059
89.42000 6.348
89.44000 3.588
89.46000 3.616
89.48000 3.394
89.50000 2.092
89.52000 2.805
89.54000 0.807
89.56000 1.322
89.58000 3.824
89.60000 7.504
89.62000 7.105
89.64000 5.005
89.66000 5.061
89.68000 5.499
89.70000 4.805
89.72000 1.386
89.74000 4.899
89.76000 3.204
89.78000 1.651
89.80000 2.533
89.82000 2.089
89.84000 4.418
89.86000 6.091
89.88000 5.328
89.90000 3.056
89.92000 2.285
89.94000 4.590
89.96000 8.575
89.98000 6.454
90.00000 5.284
90.02000 7.487
90.04000 8.417
90.06000 8.323
90.08000 1.972
90.10000 -2.351
90.12000 2.836
90.14000 -1.620
90.16000 4.040
90.18000 6.920
90.20000 11.219
90.22000 7.391
90.24000 6.433
90.26000 4.165
90.28000 5.506
90.30000 7.105
90.32000 6.906
90.34000 11.130
90.36000 7.309
90.38000 14.964
90.40000 7.164
90.42000 2.967
90.44000 4.637
90.46000 12.936
90.48000 9.758
90.50000 5.648
90.52000 4.395
90.54000 4.812
90.56000 5.381
90.58000 4.423
90.60000 1.533
90.62000 4.034
90.64000 6.142
90.66000 3.324
90.68000 4.319
90.70000 10.247
90.72000 7.041
90.74000 5.136
90.76000 9.552
90.78000 7.049
90.80000 1.483
90.82000 -1.384
90.84000 -2.253
90.86000 0.823
90.88000 6.677
90.90000 10.338
90.92000 5.165
90.94000 5.699
90.96000 8.474
90.98000 8.624
91.00000 3.399
91.02000 4.047
91.04000 6.716
91.06000 5.132
91.08000 4.205
91.10000 6.135
91.12000 6.573
91.14000 3.968
91.16000 9.173
91.18000 5.923
91.20000 5.492
91.22000 5.745
91.24000 10.353
91.26000 8.859
91.28000 4.831
91.30000 8.011
91.32000 6.205
91.34000 5.541
91.36000 5.636
91.38000 4.212
91.40000 4.061
91.42000 1.431
91.44000 5.138
91.46000 9.488
91.48000 13.026
91.50000 8.991
91.52000 7.297
91.54000 7.381
91.56000 5.427
91.58000 5.986
91.60000 5.892
91.62000 7.219
91.64000 3.002
91.66000 4.814
91.68000 2.239
91.70000 2.086
91.72000 6.075
91.74000 10.785
91.76000 11.619
91.78000 9.344
91.80000 3.791
91.82000 -2.310
91.84000 5.905
91.86000 7.328
91.88000 6.055
91.90000 3.268
91.92000 1.311
91.94000 0.903
91.96000 1.184
91.98000 3.964
92.00000 6.397
92.02000 7.964
92.04000 4.379
92.06000 3.879
92.08000 -2.160
92.10000 1.358
92.12000 3.002
92.14000 2.144
92.16000 7.675
92.18000 3.856
92.20000 0.198
92.22000 -2.321
92.24000 6.021
92.26000 6.297
92.28000 6.316
92.30000 3.132
92.32000 8.521
92.34000 10.188
92.36000 6.269
92.38000 6.916
92.40000 4.865
92.42000 4.853
92.44000 1.773
92.46000 -0.196
92.48000 -2.202
92.50000 3.767
92.52000 3.252
92.54000 -0.601
92.56000 5.380
92.58000 4.817
92.60000 0.945
92.62000 -0.081
92.64000 3.975
92.66000 3.065
92.68000 -2.328
92.70000 3.224
92.72000 7.880
92.74000 8.471
92.76000 4.822
92.78000 4.757
92.80000 5.244
92.82000 7.702
92.84000 8.099
92.86000 7.264
92.88000 4.914
92.90000 6.336
92.92000 3.230
92.94000 -0.707
92.96000 4.895
92.98000 8.618
93.00000 7.743
93.02000 3.231
93.04000 2.479
93.06000 3.455
93.08000 4.962
93.10000 0.118
93.12000 3.635
93.14000 8.477
93.16000 8.942
93.18000 7.376
93.20000 4.090
93.22000 2.076
93.24000 6.437
93.26000 2.558
93.28000 3.498
93.30000 8.276
93.32000 6.856
93.34000 2.851
93.36000 3.111
93.38000 6.452
93.40000 7.801
93.42000 5.456
93.44000 3.705
93.46000 3.798
93.48000 1.004
93.50000 -0.001
93.52000 1.719
93.54000 5.923
93.56000 -2.312
93.58000 1.968
93.60000 6.874
93.62000 6.841
93.64000 2.315
93.66000 3.730
93.68000 -2.313
93.70000 -2.023
93.72000 4.066
93.74000 7.763
93.76000 3.533
93.78000 3.760
93.80000 1.355
93.82000 -0.046
93.84000 6.621
93.86000 8.800
93.88000 5.636
93.90000 6.190
93.92000 6.913
93.94000 9.590
93.96000 6.937
93.98000 4.103
94.00000 3.002
94.02000 6.207
94.04000 6.255
94.06000 1.930
94.08000 5.646
94.10000 4.197
94.12000 4.086
94.14000 1.164
94.16000 4.632
94.18000 6.475
94.20000 6.615
94.22000 0.761
94.24000 1.515
94.26000 0.265
94.28000 3.996
94.30000 6.359
94.32000 7.183
94.34000 4.334
94.36000 2.000
94.38000 6.103
94.40000 8.442
94.42000 5.428
94.44000 5.754
94.46000 3.584
94.48000 1.731
94.50000 -0.343
94.52000 5.601
94.54000 8.176
94.56000 11.998
94.58000 8.550
94.60000 10.000
94.62000 5.696
94.64000 5.335
94.66000 6.543
94.68000 7.573
94.70000 3.513
94.72000 3.500
94.74000 6.337
94.76000 5.445
94.78000 -2.327
94.80000 3.130
94.82000 5.520
94.84000 3.683
94.86000 -0.079
94.88000 1.087
94.90000 6.904
94.92000 8.241
94.94000 3.521
94.96000 12.232
94.98000 8.048
95.00000 4.141
95.02000 8.158
95.04000 5.403
95.06000 5.608
95.08000 7.051
95.10000 8.734
95.12000 6.213
95.14000 9.385
95.16000 3.811
95.18000 1.021
95.20000 1.805
95.22000 1.643
95.24000 1.220
95.26000 -0.015
95.28000 1.961
95.30000 2.585
95.32000 4.651
95.34000 5.194
95.36000 2.189
95.38000 2.765
95.40000 2.122
95.42000 6.263
95.44000 10.816
95.46000 7.138
95.48000 1.253
95.50000 3.630
95.52000 8.001
95.54000 5.652
95.56000 4.823
95.58000 -2.040
95.60000 -0.207
95.62000 3.290
95.64000 3.459
95.66000 -1.182
95.68000 5.568
95.70000 4.140
95.72000 4.698
95.74000 2.968
95.76000 4.311
95.78000 8.677
95.80000 7.534
95.82000 4.513
95.84000 0.824
95.86000 -2.303
95.88000 5.004
95.90000 5.738
95.92000 1.629
95.94000 4.366
95.96000 4.152
95.98000 3.883
96.00000 0.301
96.02000 6.434
96.04000 8.478
96.06000 8.501
96.08000 12.061
96.10000 2.085
96.12000 2.279
96.14000 4.882
96.16000 4.245
96.18000 8.649
96.20000 9.761
96.22000 7.273
96.24000 1.027
96.26000 8.478
96.28000 6.423
96.30000 3.664
96.32000 3.840
96.34000 11.214
96.36000 7.734
96.38000 8.572
96.40000 4.518
96.42000 5.020
96.44000 3.966
96.46000 7.369
96.48000 3.992
96.50000 -0.798
96.52000 2.388
96.54000 2.932
96.56000 3.798
96.58000 2.042
96.60000 1.686
96.62000 4.701
96.64000 5.165
96.66000 5.691
96.68000 3.863
96.70000 2.370
96.72000 3.949
96.74000 9.932
96.76000 7.982
96.78000 7.047
96.80000 5.160
96.82000 2.233
96.84000 -1.038
96.86000 -1.731
96.88000 0.782
96.90000 6.144
96.92000 10.860
96.94000 14.059
96.96000 2.355
96.98000 3.200
97.00000 2.390
97.02000 8.352
97.04000 13.184
97.06000 8.474
97.08000 5.361
97.10000 -2.316
97.12000 2.703
97.14000 7.760
97.16000 11.010
97.18000 9.601
97.20000 14.047
97.22000 4.880
97.24000 13.359
97.26000 15.985
97.28000 10.022
97.30000 2.553
97.32000 6.287
97.34000 13.712
97.36000 3.618
97.38000 -2.303
97.40000 5.100
97.42000 10.009
97.44000 5.563
97.46000 11.577
97.48000 6.503
97.50000 6.468
97.52000 8.043
97.54000 8.336
97.56000 3.198
97.58000 6.879
97.60000 3.410
97.62000 -1.471
97.64000 -1.002
97.66000 1.098
97.68000 -0.406
97.70000 2.214
97.72000 6.252
97.74000 0.706
97.76000 3.384
97.78000 7.689
97.80000 3.523
97.82000 3.512
97.84000 7.708
97.86000 14.495
97.88000 13.697
97.90000 12.720
97.92000 8.613
97.94000 5.047
97.96000 1.136
97.98000 0.399
98.00000 2.229
98.02000 10.141
98.04000 5.904
98.06000 2.345
98.08000 -0.533
98.10000 -2.267
98.12000 2.470
98.14000 9.624
98.16000 5.867
98.18000 -3.935
98.20000 7.638
98.22000 7.640
98.24000 2.926
98.26000 7.891
98.28000 7.298
98.30000 3.636
98.32000 8.146
98.34000 5.598
98.36000 4.707
98.38000 -0.637
98.40000 4.602
98.42000 7.470
98.44000 -0.208
98.46000 7.882
98.48000 8.883
98.50000 17.564
98.52000 14.025
98.54000 5.858
98.56000 2.023
98.58000 2.353
98.60000 9.832
98.62000 8.122
98.64000 5.987
98.66000 8.628
98.68000 10.292
98.70000 5.921
98.72000 3.523
98.74000 -2.240
98.76000 2.677
98.78000 6.848
98.80000 6.256
98.82000 3.092
98.84000 3.602
98.86000 2.146
98.88000 12.428
98.90000 15.337
98.92000 9.485
98.94000 10.849
98.96000 16.596
98.98000 18.554
99.00000 1.588
99.02000 -3.294
99.04000 10.786
99.06000 10.698
99.08000 1.956
99.10000 3.745
99.12000 11.409
99.14000 8.080
99.16000 7.737
99.18000 6.126
99.20000 4.315
99.22000 0.801
99.24000 0.144
99.26000 9.849
99.28000 4.998
99.30000 14.679
99.32000 14.804
99.34000 12.806
99.36000 7.241
99.38000 6.830
99.40000 -1.080
99.42000 -2.274
99.44000 9.940
99.46000 16.063
99.48000 7.507
99.50000 1.470
99.52000 5.976
99.54000 5.394
99.56000 1.971
99.58000 1.544
99.60000 2.152
99.62000 3.379
99.64000 2.682
99.66000 9.538
99.68000 8.021
99.70000 2.851
99.72000 9.641
99.74000 3.920
99.76000 5.994
99.78000 8.418
99.80000 3.437
99.82000 9.795
99.84000 7.616
99.86000 -1.183
99.88000 -2.328
99.90000 5.912
99.92000 14.239
99.94000 3.414
99.96000 -2.376
99.98000 0.000
