'Id: "0011388" Comment: "Integrate frame 0011388_Au-Ir-Rh_Rh-rich_XRD-Mapping-031-0000.gfrmwith cursor Wedge Cursor #5" Operator: "B?rgel" Anode: "Cu" Wavelength: "1.5406" Scantype: "2Theta (TwoTheta)" TimePerStep: "1" X: "0" Y: "-31.5" Z: "5.95" 
10.00000 0.000
10.02000 -4.206
10.04000 1.277
10.06000 -2.808
10.08000 12.144
10.10000 15.107
10.12000 14.443
10.14000 14.128
10.16000 20.385
10.18000 4.253
10.20000 5.640
10.22000 0.477
10.24000 19.157
10.26000 20.255
10.28000 20.088
10.30000 2.635
10.32000 -4.227
10.34000 14.212
10.36000 16.217
10.38000 14.569
10.40000 20.162
10.42000 23.399
10.44000 23.190
10.46000 22.916
10.48000 15.326
10.50000 14.718
10.52000 12.983
10.54000 -2.164
10.56000 11.347
10.58000 23.758
10.60000 16.958
10.62000 32.176
10.64000 22.326
10.66000 6.356
10.68000 8.334
10.70000 4.060
10.72000 8.092
10.74000 22.610
10.76000 24.781
10.78000 30.116
10.80000 30.533
10.82000 19.371
10.84000 16.468
10.86000 7.964
10.88000 11.270
10.90000 16.206
10.92000 15.767
10.94000 14.211
10.96000 11.973
10.98000 1.928
11.00000 -3.661
11.02000 3.282
11.04000 3.115
11.06000 8.244
11.08000 5.954
11.10000 6.237
11.12000 -4.181
11.14000 3.483
11.16000 9.866
11.18000 3.257
11.20000 11.247
11.22000 28.183
11.24000 28.691
11.26000 21.203
11.28000 17.109
11.30000 15.369
11.32000 24.677
11.34000 13.357
11.36000 17.555
11.38000 33.614
11.40000 20.804
11.42000 10.876
11.44000 11.237
11.46000 12.055
11.48000 16.609
11.50000 12.404
11.52000 5.223
11.54000 14.105
11.56000 9.598
11.58000 -4.339
11.60000 2.247
11.62000 9.187
11.64000 6.642
11.66000 9.501
11.68000 10.633
11.70000 9.866
11.72000 10.628
11.74000 7.181
11.76000 3.071
11.78000 -2.830
11.80000 4.518
11.82000 12.637
11.84000 22.210
11.86000 14.502
11.88000 3.225
11.90000 3.518
11.92000 0.731
11.94000 5.685
11.96000 12.828
11.98000 14.548
12.00000 12.839
12.02000 8.165
12.04000 14.889
12.06000 17.598
12.08000 13.954
12.10000 13.064
12.12000 20.046
12.14000 18.374
12.16000 10.354
12.18000 7.531
12.20000 12.375
12.22000 7.882
12.24000 2.521
12.26000 5.308
12.28000 14.903
12.30000 12.345
12.32000 11.417
12.34000 14.035
12.36000 9.911
12.38000 19.428
12.40000 13.803
12.42000 5.227
12.44000 9.977
12.46000 17.888
12.48000 15.001
12.50000 9.448
12.52000 17.399
12.54000 16.520
12.56000 12.251
12.58000 16.779
12.60000 19.848
12.62000 12.404
12.64000 16.823
12.66000 13.947
12.68000 8.571
12.70000 11.980
12.72000 16.498
12.74000 13.107
12.76000 10.601
12.78000 11.786
12.80000 15.302
12.82000 24.110
12.84000 8.711
12.86000 15.081
12.88000 16.411
12.90000 10.508
12.92000 14.503
12.94000 11.729
12.96000 5.299
12.98000 5.133
13.00000 2.889
13.02000 7.919
13.04000 3.952
13.06000 -0.685
13.08000 5.365
13.10000 8.818
13.12000 11.979
13.14000 15.637
13.16000 11.597
13.18000 14.216
13.20000 16.581
13.22000 14.898
13.24000 12.229
13.26000 6.452
13.28000 3.526
13.30000 4.039
13.32000 0.087
13.34000 6.610
13.36000 11.010
13.38000 12.107
13.40000 7.901
13.42000 6.941
13.44000 6.568
13.46000 9.591
13.48000 13.266
13.50000 13.943
13.52000 16.562
13.54000 9.160
13.56000 12.604
13.58000 15.531
13.60000 22.270
13.62000 15.144
13.64000 13.052
13.66000 9.606
13.68000 13.470
13.70000 17.820
13.72000 14.424
13.74000 13.757
13.76000 10.906
13.78000 16.395
13.80000 12.603
13.82000 6.773
13.84000 -0.525
13.86000 0.954
13.88000 13.008
13.90000 2.688
13.92000 7.528
13.94000 14.168
13.96000 11.302
13.98000 4.100
14.00000 4.436
14.02000 12.201
14.04000 18.434
14.06000 22.252
14.08000 13.381
14.10000 12.728
14.12000 17.327
14.14000 8.338
14.16000 0.075
14.18000 7.019
14.20000 13.340
14.22000 10.622
14.24000 14.114
14.26000 8.904
14.28000 7.471
14.30000 9.142
14.32000 9.662
14.34000 14.732
14.36000 18.599
14.38000 9.121
14.40000 4.935
14.42000 7.571
14.44000 8.761
14.46000 2.717
14.48000 4.147
14.50000 12.141
14.52000 7.298
14.54000 2.453
14.56000 12.696
14.58000 16.688
14.60000 16.274
14.62000 2.185
14.64000 -1.886
14.66000 9.609
14.68000 13.679
14.70000 5.211
14.72000 3.068
14.74000 1.425
14.76000 7.175
14.78000 18.342
14.80000 12.629
14.82000 4.532
14.84000 7.747
14.86000 1.319
14.88000 -3.117
14.90000 -3.112
14.92000 5.089
14.94000 6.340
14.96000 1.360
14.98000 -2.135
15.00000 -2.896
15.02000 0.216
15.04000 8.900
15.06000 7.331
15.08000 11.267
15.10000 12.032
15.12000 12.548
15.14000 1.096
15.16000 -3.948
15.18000 6.300
15.20000 16.476
15.22000 16.046
15.24000 14.292
15.26000 11.218
15.28000 10.188
15.30000 8.916
15.32000 4.545
15.34000 -0.776
15.36000 4.217
15.38000 5.099
15.40000 4.325
15.42000 4.920
15.44000 11.799
15.46000 6.223
15.48000 4.251
15.50000 0.531
15.52000 4.950
15.54000 2.834
15.56000 3.342
15.58000 10.066
15.60000 9.362
15.62000 -3.984
15.64000 0.230
15.66000 11.076
15.68000 6.386
15.70000 8.597
15.72000 3.768
15.74000 5.967
15.76000 7.213
15.78000 -4.424
15.80000 7.461
15.82000 0.916
15.84000 0.115
15.86000 6.945
15.88000 3.990
15.90000 3.464
15.92000 2.497
15.94000 7.750
15.96000 12.289
15.98000 4.016
16.00000 6.003
16.02000 9.528
16.04000 3.251
16.06000 4.159
16.08000 13.360
16.10000 9.149
16.12000 7.267
16.14000 1.807
16.16000 17.811
16.18000 14.780
16.20000 2.315
16.22000 7.454
16.24000 2.539
16.26000 1.564
16.28000 8.691
16.30000 8.787
16.32000 2.114
16.34000 3.421
16.36000 14.666
16.38000 17.149
16.40000 9.404
16.42000 5.026
16.44000 1.722
16.46000 6.875
16.48000 9.795
16.50000 6.906
16.52000 5.023
16.54000 8.652
16.56000 4.341
16.58000 5.405
16.60000 15.769
16.62000 15.598
16.64000 4.239
16.66000 3.767
16.68000 10.029
16.70000 14.107
16.72000 14.412
16.74000 16.129
16.76000 12.467
16.78000 11.054
16.80000 14.897
16.82000 20.727
16.84000 5.109
16.86000 -4.340
16.88000 0.475
16.90000 10.929
16.92000 16.745
16.94000 8.607
16.96000 11.675
16.98000 16.519
17.00000 9.007
17.02000 2.817
17.04000 3.811
17.06000 4.578
17.08000 9.758
17.10000 2.692
17.12000 8.894
17.14000 10.715
17.16000 9.614
17.18000 16.246
17.20000 14.025
17.22000 16.040
17.24000 15.630
17.26000 13.314
17.28000 15.525
17.30000 14.954
17.32000 4.611
17.34000 -1.044
17.36000 2.677
17.38000 3.959
17.40000 4.772
17.42000 9.771
17.44000 11.410
17.46000 9.456
17.48000 4.678
17.50000 -1.980
17.52000 0.808
17.54000 12.273
17.56000 13.205
17.58000 8.373
17.60000 11.662
17.62000 8.256
17.64000 11.868
17.66000 9.689
17.68000 2.101
17.70000 5.716
17.72000 3.975
17.74000 -2.553
17.76000 3.197
17.78000 8.579
17.80000 -0.050
17.82000 3.234
17.84000 4.169
17.86000 3.905
17.88000 0.508
17.90000 8.187
17.92000 8.363
17.94000 8.168
17.96000 4.464
17.98000 -4.311
18.00000 -1.823
18.02000 6.253
18.04000 12.141
18.06000 2.352
18.08000 1.323
18.10000 8.038
18.12000 10.053
18.14000 7.105
18.16000 5.283
18.18000 11.071
18.20000 13.560
18.22000 4.975
18.24000 0.670
18.26000 3.268
18.28000 6.699
18.30000 7.821
18.32000 7.877
18.34000 5.479
18.36000 10.575
18.38000 7.327
18.40000 8.381
18.42000 8.979
18.44000 5.664
18.46000 2.117
18.48000 1.132
18.50000 7.880
18.52000 8.550
18.54000 3.147
18.56000 -4.288
18.58000 -0.993
18.60000 4.462
18.62000 5.312
18.64000 10.214
18.66000 11.622
18.68000 7.178
18.70000 6.761
18.72000 7.409
18.74000 1.581
18.76000 1.858
18.78000 -1.527
18.80000 -2.445
18.82000 0.076
18.84000 4.485
18.86000 9.526
18.88000 8.512
18.90000 2.736
18.92000 -1.492
18.94000 -0.095
18.96000 3.859
18.98000 6.333
19.00000 -0.880
19.02000 3.221
19.04000 7.685
19.06000 -0.617
19.08000 -0.030
19.10000 7.740
19.12000 2.556
19.14000 2.453
19.16000 1.832
19.18000 5.532
19.20000 8.061
19.22000 9.550
19.24000 4.077
19.26000 1.192
19.28000 3.466
19.30000 -0.358
19.32000 0.512
19.34000 2.318
19.36000 9.905
19.38000 8.929
19.40000 1.114
19.42000 2.097
19.44000 4.592
19.46000 -1.729
19.48000 -2.630
19.50000 0.182
19.52000 4.443
19.54000 4.087
19.56000 6.086
19.58000 8.407
19.60000 12.368
19.62000 7.198
19.64000 9.320
19.66000 3.220
19.68000 2.279
19.70000 3.173
19.72000 6.207
19.74000 9.893
19.76000 8.009
19.78000 7.022
19.80000 2.681
19.82000 5.522
19.84000 5.753
19.86000 3.881
19.88000 7.344
19.90000 -0.355
19.92000 0.369
19.94000 3.905
19.96000 3.312
19.98000 1.074
20.00000 7.084
20.02000 7.710
20.04000 11.301
20.06000 13.816
20.08000 5.989
20.10000 1.686
20.12000 7.038
20.14000 3.154
20.16000 2.490
20.18000 5.659
20.20000 5.781
20.22000 7.912
20.24000 6.894
20.26000 7.157
20.28000 10.537
20.30000 6.604
20.32000 11.183
20.34000 8.997
20.36000 2.764
20.38000 4.439
20.40000 11.285
20.42000 6.780
20.44000 5.798
20.46000 7.633
20.48000 2.119
20.50000 3.310
20.52000 6.193
20.54000 3.359
20.56000 8.935
20.58000 6.465
20.60000 8.989
20.62000 5.432
20.64000 12.779
20.66000 9.196
20.68000 -4.111
20.70000 2.219
20.72000 12.516
20.74000 8.245
20.76000 5.714
20.78000 12.476
20.80000 10.508
20.82000 12.006
20.84000 6.491
20.86000 1.151
20.88000 -2.277
20.90000 -0.413
20.92000 0.872
20.94000 6.557
20.96000 8.518
20.98000 13.596
21.00000 6.495
21.02000 -0.571
21.04000 0.277
21.06000 6.895
21.08000 2.615
21.10000 0.839
21.12000 6.798
21.14000 6.999
21.16000 10.821
21.18000 7.381
21.20000 4.010
21.22000 5.834
21.24000 9.674
21.26000 9.152
21.28000 12.609
21.30000 5.859
21.32000 4.477
21.34000 0.040
21.36000 1.139
21.38000 4.053
21.40000 3.369
21.42000 10.252
21.44000 10.002
21.46000 5.201
21.48000 1.972
21.50000 -0.116
21.52000 13.326
21.54000 12.030
21.56000 9.701
21.58000 4.823
21.60000 2.640
21.62000 8.576
21.64000 13.905
21.66000 3.851
21.68000 9.284
21.70000 10.208
21.72000 9.087
21.74000 0.996
21.76000 4.066
21.78000 -1.309
21.80000 1.418
21.82000 8.036
21.84000 9.036
21.86000 1.089
21.88000 8.421
21.90000 4.284
21.92000 4.338
21.94000 9.134
21.96000 9.427
21.98000 0.099
22.00000 -1.621
22.02000 7.071
22.04000 8.378
22.06000 1.349
22.08000 -1.521
22.10000 6.721
22.12000 8.285
22.14000 7.202
22.16000 11.320
22.18000 3.275
22.20000 0.905
22.22000 1.953
22.24000 5.131
22.26000 1.101
22.28000 10.446
22.30000 8.796
22.32000 5.365
22.34000 1.608
22.36000 8.549
22.38000 15.806
22.40000 14.194
22.42000 1.536
22.44000 2.887
22.46000 -0.055
22.48000 4.273
22.50000 2.958
22.52000 2.763
22.54000 8.485
22.56000 11.094
22.58000 8.567
22.60000 9.643
22.62000 6.204
22.64000 -0.191
22.66000 3.976
22.68000 5.424
22.70000 3.519
22.72000 8.323
22.74000 6.467
22.76000 2.422
22.78000 1.253
22.80000 3.059
22.82000 4.955
22.84000 4.020
22.86000 -0.624
22.88000 1.053
22.90000 3.633
22.92000 3.083
22.94000 2.103
22.96000 1.312
22.98000 6.534
23.00000 4.830
23.02000 4.177
23.04000 4.064
23.06000 8.267
23.08000 8.639
23.10000 5.707
23.12000 2.820
23.14000 4.591
23.16000 6.107
23.18000 4.382
23.20000 4.868
23.22000 3.576
23.24000 8.984
23.26000 11.029
23.28000 8.986
23.30000 3.522
23.32000 -3.994
23.34000 -3.557
23.36000 4.161
23.38000 12.153
23.40000 9.919
23.42000 6.230
23.44000 6.983
23.46000 10.497
23.48000 6.743
23.50000 0.882
23.52000 -2.502
23.54000 -1.857
23.56000 2.470
23.58000 5.725
23.60000 1.719
23.62000 2.099
23.64000 4.209
23.66000 5.166
23.68000 0.642
23.70000 -2.570
23.72000 0.723
23.74000 -0.734
23.76000 6.183
23.78000 7.046
23.80000 7.666
23.82000 1.733
23.84000 -0.373
23.86000 -1.978
23.88000 -0.564
23.90000 1.909
23.92000 -2.586
23.94000 -0.732
23.96000 3.763
23.98000 6.374
24.00000 2.840
24.02000 7.843
24.04000 7.969
24.06000 3.576
24.08000 5.597
24.10000 1.986
24.12000 1.853
24.14000 2.647
24.16000 1.190
24.18000 -0.732
24.20000 0.392
24.22000 1.862
24.24000 6.431
24.26000 7.336
24.28000 5.373
24.30000 0.153
24.32000 1.300
24.34000 1.115
24.36000 -2.098
24.38000 2.526
24.40000 12.241
24.42000 5.735
24.44000 -3.490
24.46000 -1.406
24.48000 -0.999
24.50000 2.880
24.52000 3.885
24.54000 -2.085
24.56000 -3.961
24.58000 2.948
24.60000 1.133
24.62000 -3.604
24.64000 3.371
24.66000 5.302
24.68000 3.622
24.70000 3.746
24.72000 3.855
24.74000 5.873
24.76000 5.252
24.78000 6.073
24.80000 2.324
24.82000 3.686
24.84000 7.308
24.86000 6.684
24.88000 0.097
24.90000 1.729
24.92000 -1.599
24.94000 2.640
24.96000 1.743
24.98000 0.210
25.00000 6.124
25.02000 0.675
25.04000 5.294
25.06000 5.748
25.08000 6.415
25.10000 7.757
25.12000 9.155
25.14000 3.075
25.16000 0.490
25.18000 4.874
25.20000 4.255
25.22000 1.729
25.24000 5.333
25.26000 1.137
25.28000 1.676
25.30000 1.302
25.32000 4.351
25.34000 5.067
25.36000 2.384
25.38000 1.699
25.40000 3.670
25.42000 -1.218
25.44000 -3.257
25.46000 -3.277
25.48000 -0.957
25.50000 8.241
25.52000 4.215
25.54000 3.663
25.56000 4.787
25.58000 1.630
25.60000 2.850
25.62000 3.521
25.64000 0.186
25.66000 3.669
25.68000 -1.187
25.70000 -2.234
25.72000 -1.585
25.74000 -3.890
25.76000 -1.392
25.78000 3.314
25.80000 3.842
25.82000 2.173
25.84000 7.810
25.86000 8.101
25.88000 1.889
25.90000 1.021
25.92000 -0.154
25.94000 -0.461
25.96000 -0.670
25.98000 -0.475
26.00000 1.703
26.02000 2.985
26.04000 3.155
26.06000 1.565
26.08000 6.962
26.10000 7.382
26.12000 4.839
26.14000 -1.888
26.16000 2.610
26.18000 0.185
26.20000 -1.021
26.22000 1.134
26.24000 3.845
26.26000 6.400
26.28000 4.943
26.30000 1.608
26.32000 3.676
26.34000 2.231
26.36000 1.778
26.38000 0.114
26.40000 0.463
26.42000 1.970
26.44000 7.695
26.46000 4.984
26.48000 0.423
26.50000 -0.697
26.52000 1.273
26.54000 1.674
26.56000 -2.215
26.58000 -0.604
26.60000 2.539
26.62000 -3.856
26.64000 -1.918
26.66000 4.630
26.68000 3.631
26.70000 4.987
26.72000 -0.882
26.74000 -2.589
26.76000 -1.155
26.78000 0.672
26.80000 4.151
26.82000 3.622
26.84000 4.403
26.86000 5.986
26.88000 2.696
26.90000 -0.611
26.92000 1.752
26.94000 0.951
26.96000 -3.844
26.98000 -1.671
27.00000 3.393
27.02000 5.908
27.04000 8.477
27.06000 8.879
27.08000 5.106
27.10000 2.777
27.12000 -0.122
27.14000 -3.434
27.16000 6.107
27.18000 3.827
27.20000 -0.037
27.22000 2.870
27.24000 1.654
27.26000 -0.813
27.28000 -0.437
27.30000 5.068
27.32000 3.305
27.34000 0.578
27.36000 1.330
27.38000 0.220
27.40000 -3.281
27.42000 -0.848
27.44000 -1.139
27.46000 3.023
27.48000 2.791
27.50000 1.845
27.52000 0.224
27.54000 -0.349
27.56000 -0.613
27.58000 0.724
27.60000 5.245
27.62000 3.293
27.64000 4.337
27.66000 2.737
27.68000 2.748
27.70000 3.669
27.72000 3.937
27.74000 4.498
27.76000 2.379
27.78000 1.342
27.80000 3.976
27.82000 0.560
27.84000 -2.728
27.86000 -0.126
27.88000 3.695
27.90000 -0.799
27.92000 -3.336
27.94000 -3.628
27.96000 -2.296
27.98000 -0.227
28.00000 4.521
28.02000 2.622
28.04000 -0.794
28.06000 -2.419
28.08000 1.219
28.10000 4.976
28.12000 3.665
28.14000 5.849
28.16000 4.830
28.18000 -0.324
28.20000 -3.391
28.22000 -3.775
28.24000 1.040
28.26000 -0.885
28.28000 -0.192
28.30000 -1.921
28.32000 -2.269
28.34000 -3.768
28.36000 -0.179
28.38000 -0.155
28.40000 2.006
28.42000 3.851
28.44000 3.889
28.46000 4.319
28.48000 2.616
28.50000 -0.403
28.52000 1.812
28.54000 -0.022
28.56000 -1.519
28.58000 -3.079
28.60000 -1.486
28.62000 0.614
28.64000 4.231
28.66000 3.498
28.68000 1.649
28.70000 3.739
28.72000 -3.311
28.74000 -1.015
28.76000 3.778
28.78000 0.769
28.80000 2.015
28.82000 4.078
28.84000 2.177
28.86000 6.263
28.88000 4.132
28.90000 5.471
28.92000 2.050
28.94000 1.633
28.96000 2.890
28.98000 6.690
29.00000 5.249
29.02000 0.792
29.04000 7.424
29.06000 7.904
29.08000 0.978
29.10000 3.520
29.12000 3.806
29.14000 0.879
29.16000 2.310
29.18000 -3.710
29.20000 -1.846
29.22000 0.875
29.24000 1.141
29.26000 1.772
29.28000 5.748
29.30000 6.252
29.32000 4.086
29.34000 1.985
29.36000 2.782
29.38000 4.543
29.40000 7.569
29.42000 8.210
29.44000 4.203
29.46000 5.506
29.48000 6.055
29.50000 4.356
29.52000 4.706
29.54000 -0.451
29.56000 1.455
29.58000 0.699
29.60000 1.273
29.62000 5.954
29.64000 3.052
29.66000 9.713
29.68000 5.375
29.70000 5.327
29.72000 10.322
29.74000 5.724
29.76000 2.425
29.78000 0.985
29.80000 3.991
29.82000 8.084
29.84000 1.308
29.86000 -0.118
29.88000 3.586
29.90000 5.499
29.92000 6.055
29.94000 8.403
29.96000 2.587
29.98000 -3.661
30.00000 5.537
30.02000 7.095
30.04000 6.748
30.06000 4.439
30.08000 3.608
30.10000 2.828
30.12000 -1.387
30.14000 4.116
30.16000 2.997
30.18000 3.432
30.20000 4.740
30.22000 6.560
30.24000 5.077
30.26000 1.981
30.28000 -0.016
30.30000 2.876
30.32000 7.563
30.34000 1.725
30.36000 4.226
30.38000 4.157
30.40000 5.019
30.42000 3.740
30.44000 -1.205
30.46000 -2.007
30.48000 4.184
30.50000 3.771
30.52000 7.957
30.54000 1.998
30.56000 2.099
30.58000 6.240
30.60000 2.475
30.62000 0.053
30.64000 5.935
30.66000 3.846
30.68000 5.442
30.70000 9.305
30.72000 7.052
30.74000 1.399
30.76000 3.956
30.78000 1.917
30.80000 5.757
30.82000 7.387
30.84000 7.542
30.86000 4.900
30.88000 3.008
30.90000 1.031
30.92000 -3.626
30.94000 -1.940
30.96000 -1.346
30.98000 0.550
31.00000 3.047
31.02000 3.097
31.04000 4.470
31.06000 7.305
31.08000 6.036
31.10000 4.230
31.12000 7.087
31.14000 3.615
31.16000 5.551
31.18000 5.506
31.20000 2.095
31.22000 2.411
31.24000 0.459
31.26000 6.134
31.28000 6.838
31.30000 1.143
31.32000 -2.258
31.34000 -0.984
31.36000 4.549
31.38000 8.972
31.40000 7.219
31.42000 3.076
31.44000 -0.840
31.46000 -1.769
31.48000 1.880
31.50000 6.150
31.52000 3.716
31.54000 1.031
31.56000 3.319
31.58000 4.729
31.60000 2.961
31.62000 -0.298
31.64000 -0.146
31.66000 -2.662
31.68000 -1.882
31.70000 2.372
31.72000 4.259
31.74000 -2.617
31.76000 3.321
31.78000 1.651
31.80000 1.267
31.82000 -0.198
31.84000 3.371
31.86000 2.946
31.88000 -2.005
31.90000 0.023
31.92000 3.443
31.94000 5.406
31.96000 7.593
31.98000 7.813
32.00000 3.941
32.02000 3.172
32.04000 3.454
32.06000 1.172
32.08000 6.035
32.10000 3.523
32.12000 1.491
32.14000 0.551
32.16000 3.237
32.18000 3.355
32.20000 2.288
32.22000 4.288
32.24000 6.227
32.26000 6.008
32.28000 0.713
32.30000 0.484
32.32000 2.827
32.34000 2.140
32.36000 -0.899
32.38000 -1.624
32.40000 -0.754
32.42000 1.838
32.44000 8.368
32.46000 7.329
32.48000 4.545
32.50000 5.795
32.52000 8.515
32.54000 5.942
32.56000 6.512
32.58000 4.543
32.60000 5.568
32.62000 4.877
32.64000 3.955
32.66000 0.792
32.68000 -3.537
32.70000 -1.090
32.72000 1.420
32.74000 4.948
32.76000 2.510
32.78000 7.118
32.80000 5.417
32.82000 1.976
32.84000 0.501
32.86000 3.834
32.88000 4.043
32.90000 3.069
32.92000 5.309
32.94000 3.217
32.96000 1.897
32.98000 3.972
33.00000 3.916
33.02000 4.246
33.04000 3.840
33.06000 2.049
33.08000 2.501
33.10000 3.013
33.12000 3.197
33.14000 -0.060
33.16000 -1.757
33.18000 -0.317
33.20000 1.531
33.22000 2.540
33.24000 -0.734
33.26000 3.572
33.28000 6.373
33.30000 2.329
33.32000 -0.675
33.34000 -2.212
33.36000 3.129
33.38000 2.891
33.40000 3.947
33.42000 4.009
33.44000 2.581
33.46000 2.790
33.48000 2.902
33.50000 3.977
33.52000 1.570
33.54000 4.958
33.56000 2.996
33.58000 3.168
33.60000 0.355
33.62000 -0.742
33.64000 3.270
33.66000 0.796
33.68000 -2.322
33.70000 -0.010
33.72000 3.607
33.74000 5.005
33.76000 4.935
33.78000 5.948
33.80000 5.060
33.82000 2.682
33.84000 0.426
33.86000 2.759
33.88000 5.386
33.90000 3.322
33.92000 2.827
33.94000 0.133
33.96000 2.447
33.98000 4.552
34.00000 2.517
34.02000 -3.514
34.04000 1.448
34.06000 -0.008
34.08000 0.232
34.10000 -0.179
34.12000 -1.486
34.14000 6.175
34.16000 8.937
34.18000 4.733
34.20000 1.921
34.22000 0.301
34.24000 1.674
34.26000 2.987
34.28000 5.569
34.30000 -0.207
34.32000 3.257
34.34000 1.036
34.36000 1.512
34.38000 3.828
34.40000 2.945
34.42000 6.704
34.44000 5.273
34.46000 2.470
34.48000 5.387
34.50000 -0.778
34.52000 -1.694
34.54000 3.702
34.56000 5.644
34.58000 6.718
34.60000 6.442
34.62000 4.236
34.64000 3.648
34.66000 4.271
34.68000 2.617
34.70000 2.597
34.72000 2.588
34.74000 0.703
34.76000 -3.484
34.78000 1.411
34.80000 5.740
34.82000 4.077
34.84000 2.091
34.86000 2.487
34.88000 1.194
34.90000 3.385
34.92000 -0.330
34.94000 -0.491
34.96000 0.750
34.98000 0.266
35.00000 -1.461
35.02000 -0.232
35.04000 3.771
35.06000 0.538
35.08000 -1.616
35.10000 2.828
35.12000 1.974
35.14000 0.527
35.16000 3.951
35.18000 1.054
35.20000 2.029
35.22000 2.846
35.24000 4.239
35.26000 4.378
35.28000 7.887
35.30000 5.681
35.32000 2.662
35.34000 -2.233
35.36000 0.134
35.38000 5.455
35.40000 7.328
35.42000 2.979
35.44000 -0.242
35.46000 -3.400
35.48000 -3.446
35.50000 -1.536
35.52000 3.954
35.54000 2.977
35.56000 2.524
35.58000 3.226
35.60000 -0.491
35.62000 3.280
35.64000 4.508
35.66000 2.087
35.68000 3.807
35.70000 1.382
35.72000 6.409
35.74000 5.844
35.76000 2.533
35.78000 3.380
35.80000 7.725
35.82000 7.794
35.84000 3.953
35.86000 4.140
35.88000 2.892
35.90000 -2.524
35.92000 -0.753
35.94000 2.646
35.96000 1.511
35.98000 4.169
36.00000 1.775
36.02000 1.166
36.04000 1.212
36.06000 3.178
36.08000 -0.012
36.10000 5.987
36.12000 5.273
36.14000 9.464
36.16000 3.680
36.18000 5.356
36.20000 3.637
36.22000 4.990
36.24000 4.553
36.26000 6.724
36.28000 3.514
36.30000 4.181
36.32000 4.477
36.34000 2.433
36.36000 5.008
36.38000 5.841
36.40000 4.902
36.42000 4.580
36.44000 -0.239
36.46000 -3.463
36.48000 -1.056
36.50000 3.787
36.52000 4.441
36.54000 8.832
36.56000 5.461
36.58000 1.915
36.60000 -1.318
36.62000 -2.565
36.64000 -0.786
36.66000 -2.962
36.68000 -2.802
36.70000 0.445
36.72000 -1.747
36.74000 -2.401
36.76000 -1.897
36.78000 3.171
36.80000 4.848
36.82000 -1.528
36.84000 -3.495
36.86000 -1.925
36.88000 1.368
36.90000 6.641
36.92000 4.249
36.94000 -0.637
36.96000 -0.914
36.98000 -0.729
37.00000 -0.836
37.02000 1.201
37.04000 1.552
37.06000 0.696
37.08000 1.610
37.10000 1.174
37.12000 0.651
37.14000 0.395
37.16000 2.005
37.18000 3.668
37.20000 -1.617
37.22000 -0.927
37.24000 0.172
37.26000 -3.523
37.28000 -3.381
37.30000 -2.694
37.32000 -1.382
37.34000 4.388
37.36000 3.511
37.38000 4.291
37.40000 5.912
37.42000 1.304
37.44000 0.130
37.46000 1.492
37.48000 0.125
37.50000 -1.747
37.52000 -0.138
37.54000 5.409
37.56000 4.798
37.58000 1.901
37.60000 -0.159
37.62000 -0.382
37.64000 -0.610
37.66000 -2.098
37.68000 -0.561
37.70000 1.048
37.72000 0.530
37.74000 -0.191
37.76000 -3.549
37.78000 3.180
37.80000 5.176
37.82000 0.283
37.84000 -1.047
37.86000 3.822
37.88000 3.689
37.90000 5.417
37.92000 0.562
37.94000 3.565
37.96000 2.821
37.98000 1.148
38.00000 -2.370
38.02000 -0.563
38.04000 2.405
38.06000 6.736
38.08000 7.560
38.10000 4.014
38.12000 3.229
38.14000 5.986
38.16000 6.106
38.18000 6.919
38.20000 5.305
38.22000 6.949
38.24000 0.016
38.26000 6.832
38.28000 9.785
38.30000 7.358
38.32000 7.351
38.34000 9.363
38.36000 9.174
38.38000 12.351
38.40000 9.796
38.42000 6.799
38.44000 8.837
38.46000 9.879
38.48000 6.778
38.50000 8.787
38.52000 13.318
38.54000 11.728
38.56000 9.650
38.58000 11.675
38.60000 14.370
38.62000 14.610
38.64000 16.034
38.66000 16.518
38.68000 14.645
38.70000 14.758
38.72000 20.736
38.74000 21.733
38.76000 19.463
38.78000 20.226
38.80000 20.106
38.82000 17.456
38.84000 18.572
38.86000 16.617
38.88000 17.920
38.90000 23.901
38.92000 19.021
38.94000 18.617
38.96000 20.029
38.98000 22.978
39.00000 23.297
39.02000 28.791
39.04000 30.061
39.06000 24.547
39.08000 25.286
39.10000 26.686
39.12000 30.222
39.14000 28.754
39.16000 30.650
39.18000 31.790
39.20000 32.758
39.22000 33.442
39.24000 35.349
39.26000 37.335
39.28000 41.131
39.30000 41.555
39.32000 44.204
39.34000 47.578
39.36000 43.499
39.38000 39.666
39.40000 39.864
39.42000 40.116
39.44000 45.384
39.46000 51.485
39.48000 63.766
39.50000 63.501
39.52000 62.378
39.54000 63.453
39.56000 69.542
39.58000 71.687
39.60000 71.222
39.62000 63.756
39.64000 65.657
39.66000 77.608
39.68000 84.918
39.70000 89.533
39.72000 90.824
39.74000 94.282
39.76000 99.197
39.78000 101.719
39.80000 107.205
39.82000 114.235
39.84000 117.054
39.86000 130.469
39.88000 136.287
39.90000 145.356
39.92000 148.258
39.94000 157.336
39.96000 164.656
39.98000 167.871
40.00000 174.511
40.02000 184.279
40.04000 196.869
40.06000 205.050
40.08000 216.278
40.10000 220.739
40.12000 241.675
40.14000 258.985
40.16000 263.652
40.18000 273.201
40.20000 293.752
40.22000 305.812
40.24000 315.391
40.26000 336.365
40.28000 358.643
40.30000 368.887
40.32000 384.950
40.34000 396.780
40.36000 405.276
40.38000 420.397
40.40000 441.526
40.42000 462.760
40.44000 461.654
40.46000 478.960
40.48000 500.138
40.50000 510.062
40.52000 529.036
40.54000 533.431
40.56000 549.714
40.58000 550.759
40.60000 549.595
40.62000 559.941
40.64000 564.647
40.66000 570.029
40.68000 564.493
40.70000 566.905
40.72000 556.714
40.74000 544.994
40.76000 541.054
40.78000 537.319
40.80000 530.896
40.82000 521.207
40.84000 507.120
40.86000 504.615
40.88000 490.809
40.90000 472.801
40.92000 462.309
40.94000 444.242
40.96000 439.543
40.98000 422.007
41.00000 405.977
41.02000 386.364
41.04000 368.015
41.06000 348.937
41.08000 332.411
41.10000 319.591
41.12000 310.922
41.14000 293.896
41.16000 278.525
41.18000 263.747
41.20000 252.209
41.22000 245.078
41.24000 232.503
41.26000 225.272
41.28000 209.333
41.30000 193.052
41.32000 182.960
41.34000 174.552
41.36000 164.404
41.38000 160.766
41.40000 150.496
41.42000 141.364
41.44000 135.928
41.46000 122.637
41.48000 122.978
41.50000 118.140
41.52000 105.722
41.54000 102.094
41.56000 99.628
41.58000 96.043
41.60000 88.993
41.62000 90.065
41.64000 90.294
41.66000 83.481
41.68000 75.648
41.70000 71.397
41.72000 62.611
41.74000 64.285
41.76000 59.664
41.78000 56.329
41.80000 52.823
41.82000 49.802
41.84000 48.503
41.86000 43.213
41.88000 40.496
41.90000 38.358
41.92000 39.991
41.94000 37.564
41.96000 38.473
41.98000 33.127
42.00000 28.655
42.02000 30.706
42.04000 28.069
42.06000 29.211
42.08000 32.313
42.10000 27.249
42.12000 24.435
42.14000 24.489
42.16000 24.704
42.18000 22.170
42.20000 22.768
42.22000 23.201
42.24000 16.540
42.26000 17.066
42.28000 16.714
42.30000 14.749
42.32000 13.591
42.34000 15.571
42.36000 14.455
42.38000 12.934
42.40000 17.522
42.42000 13.744
42.44000 10.784
42.46000 9.404
42.48000 9.053
42.50000 6.442
42.52000 7.847
42.54000 9.722
42.56000 4.877
42.58000 3.048
42.60000 4.153
42.62000 9.312
42.64000 4.957
42.66000 8.243
42.68000 8.105
42.70000 9.334
42.72000 8.207
42.74000 10.638
42.76000 8.474
42.78000 4.873
42.80000 3.739
42.82000 0.953
42.84000 -3.565
42.86000 4.939
42.88000 9.648
42.90000 7.672
42.92000 5.473
42.94000 9.364
42.96000 4.390
42.98000 4.707
43.00000 5.742
43.02000 4.261
43.04000 3.671
43.06000 0.441
43.08000 -0.756
43.10000 2.033
43.12000 -0.626
43.14000 1.466
43.16000 3.014
43.18000 1.190
43.20000 1.205
43.22000 2.980
43.24000 4.605
43.26000 1.312
43.28000 0.424
43.30000 2.106
43.32000 0.067
43.34000 3.520
43.36000 3.663
43.38000 5.051
43.40000 0.943
43.42000 -1.062
43.44000 -1.647
43.46000 2.113
43.48000 1.944
43.50000 -1.799
43.52000 -1.998
43.54000 -2.667
43.56000 1.769
43.58000 0.312
43.60000 -3.490
43.62000 0.710
43.64000 1.547
43.66000 -1.488
43.68000 -1.045
43.70000 -1.068
43.72000 1.006
43.74000 1.839
43.76000 -0.804
43.78000 2.149
43.80000 2.505
43.82000 2.697
43.84000 3.318
43.86000 1.039
43.88000 0.118
43.90000 -0.454
43.92000 -1.748
43.94000 -2.974
43.96000 1.632
43.98000 1.279
44.00000 -0.679
44.02000 -0.780
44.04000 0.566
44.06000 0.890
44.08000 -1.372
44.10000 -3.429
44.12000 0.343
44.14000 2.660
44.16000 0.636
44.18000 6.134
44.20000 4.157
44.22000 2.963
44.24000 1.128
44.26000 0.760
44.28000 1.130
44.30000 -1.909
44.32000 3.001
44.34000 1.319
44.36000 -3.397
44.38000 1.265
44.40000 0.193
44.42000 0.317
44.44000 -1.318
44.46000 4.487
44.48000 4.913
44.50000 2.017
44.52000 2.654
44.54000 3.848
44.56000 3.007
44.58000 1.741
44.60000 1.466
44.62000 -1.010
44.64000 -1.321
44.66000 3.956
44.68000 3.034
44.70000 6.211
44.72000 8.769
44.74000 3.259
44.76000 -1.973
44.78000 -3.283
44.80000 1.325
44.82000 -1.425
44.84000 -2.215
44.86000 -0.758
44.88000 7.085
44.90000 1.935
44.92000 0.414
44.94000 7.167
44.96000 7.254
44.98000 1.041
45.00000 6.372
45.02000 6.342
45.04000 3.216
45.06000 -3.306
45.08000 -3.399
45.10000 1.496
45.12000 -0.148
45.14000 -2.649
45.16000 -2.545
45.18000 2.771
45.20000 3.900
45.22000 7.138
45.24000 2.604
45.26000 1.116
45.28000 3.904
45.30000 7.182
45.32000 8.132
45.34000 1.865
45.36000 -1.456
45.38000 2.035
45.40000 4.262
45.42000 6.016
45.44000 6.851
45.46000 5.564
45.48000 1.385
45.50000 4.301
45.52000 4.957
45.54000 2.067
45.56000 1.417
45.58000 0.224
45.60000 3.774
45.62000 6.391
45.64000 6.860
45.66000 7.058
45.68000 13.806
45.70000 8.630
45.72000 7.456
45.74000 4.426
45.76000 5.894
45.78000 4.338
45.80000 8.367
45.82000 8.406
45.84000 9.939
45.86000 16.393
45.88000 13.349
45.90000 8.878
45.92000 9.109
45.94000 13.813
45.96000 19.950
45.98000 14.730
46.00000 14.236
46.02000 14.981
46.04000 19.537
46.06000 15.948
46.08000 15.588
46.10000 20.243
46.12000 22.786
46.14000 27.054
46.16000 20.953
46.18000 23.734
46.20000 27.605
46.22000 20.265
46.24000 20.298
46.26000 24.380
46.28000 22.270
46.30000 25.370
46.32000 27.884
46.34000 25.326
46.36000 33.547
46.38000 35.748
46.40000 30.086
46.42000 25.408
46.44000 33.632
46.46000 32.440
46.48000 32.080
46.50000 30.643
46.52000 32.681
46.54000 39.729
46.56000 41.986
46.58000 41.344
46.60000 43.583
46.62000 48.635
46.64000 50.662
46.66000 49.516
46.68000 48.841
46.70000 50.024
46.72000 56.170
46.74000 54.885
46.76000 57.524
46.78000 54.723
46.80000 51.966
46.82000 49.710
46.84000 58.153
46.86000 53.976
46.88000 52.984
46.90000 56.063
46.92000 61.789
46.94000 58.583
46.96000 54.376
46.98000 58.996
47.00000 67.580
47.02000 66.124
47.04000 66.378
47.06000 60.088
47.08000 55.736
47.10000 65.443
47.12000 71.322
47.14000 74.054
47.16000 77.077
47.18000 68.278
47.20000 70.852
47.22000 69.457
47.24000 69.956
47.26000 68.990
47.28000 68.549
47.30000 74.058
47.32000 76.423
47.34000 65.532
47.36000 64.706
47.38000 69.091
47.40000 72.887
47.42000 68.324
47.44000 65.113
47.46000 67.767
47.48000 72.067
47.50000 71.114
47.52000 56.901
47.54000 52.734
47.56000 55.841
47.58000 58.042
47.60000 54.526
47.62000 58.197
47.64000 59.306
47.66000 56.581
47.68000 54.408
47.70000 44.336
47.72000 47.380
47.74000 48.530
47.76000 46.767
47.78000 47.298
47.80000 42.585
47.82000 42.701
47.84000 41.637
47.86000 42.027
47.88000 45.303
47.90000 37.009
47.92000 31.037
47.94000 33.818
47.96000 34.173
47.98000 33.010
48.00000 33.270
48.02000 30.154
48.04000 29.010
48.06000 32.651
48.08000 29.923
48.10000 26.396
48.12000 19.543
48.14000 24.211
48.16000 24.992
48.18000 26.285
48.20000 21.550
48.22000 20.284
48.24000 19.026
48.26000 16.826
48.28000 15.373
48.30000 18.212
48.32000 21.274
48.34000 15.165
48.36000 9.809
48.38000 8.098
48.40000 7.091
48.42000 11.949
48.44000 9.593
48.46000 9.589
48.48000 12.318
48.50000 10.454
48.52000 12.128
48.54000 10.412
48.56000 2.524
48.58000 5.645
48.60000 8.925
48.62000 5.839
48.64000 6.274
48.66000 9.544
48.68000 5.604
48.70000 1.572
48.72000 5.186
48.74000 2.529
48.76000 6.114
48.78000 10.578
48.80000 6.728
48.82000 4.967
48.84000 6.256
48.86000 4.185
48.88000 4.532
48.90000 3.073
48.92000 6.585
48.94000 9.065
48.96000 5.048
48.98000 2.596
49.00000 0.673
49.02000 1.317
49.04000 3.073
49.06000 2.404
49.08000 1.309
49.10000 0.563
49.12000 2.540
49.14000 3.524
49.16000 5.477
49.18000 8.676
49.20000 5.696
49.22000 2.717
49.24000 2.748
49.26000 5.030
49.28000 8.850
49.30000 8.380
49.32000 5.929
49.34000 4.559
49.36000 2.281
49.38000 4.612
49.40000 4.449
49.42000 3.186
49.44000 -3.002
49.46000 -0.286
49.48000 -1.090
49.50000 -1.050
49.52000 4.323
49.54000 3.611
49.56000 -1.584
49.58000 3.434
49.60000 5.009
49.62000 7.242
49.64000 1.798
49.66000 5.072
49.68000 4.338
49.70000 6.088
49.72000 6.295
49.74000 4.254
49.76000 -0.231
49.78000 2.460
49.80000 -2.932
49.82000 1.544
49.84000 6.125
49.86000 2.974
49.88000 2.782
49.90000 1.331
49.92000 2.491
49.94000 7.366
49.96000 5.960
49.98000 0.490
50.00000 -1.054
50.02000 0.291
50.04000 -0.406
50.06000 2.689
50.08000 3.245
50.10000 -0.326
50.12000 5.856
50.14000 7.309
50.16000 7.068
50.18000 7.227
50.20000 -0.359
50.22000 -1.644
50.24000 2.031
50.26000 7.063
50.28000 5.749
50.30000 4.780
50.32000 5.501
50.34000 2.756
50.36000 5.369
50.38000 8.024
50.40000 6.130
50.42000 4.944
50.44000 4.580
50.46000 5.613
50.48000 5.734
50.50000 4.124
50.52000 7.720
50.54000 3.035
50.56000 0.939
50.58000 -2.879
50.60000 4.880
50.62000 5.704
50.64000 5.246
50.66000 -0.603
50.68000 2.411
50.70000 8.392
50.72000 6.970
50.74000 1.016
50.76000 2.790
50.78000 1.775
50.80000 0.985
50.82000 3.670
50.84000 3.101
50.86000 2.094
50.88000 5.290
50.90000 -0.679
50.92000 1.434
50.94000 2.138
50.96000 3.772
50.98000 6.622
51.00000 4.076
51.02000 2.765
51.04000 8.254
51.06000 6.929
51.08000 4.210
51.10000 6.799
51.12000 7.334
51.14000 2.331
51.16000 4.838
51.18000 9.438
51.20000 5.991
51.22000 1.564
51.24000 6.563
51.26000 2.403
51.28000 -1.443
51.30000 0.430
51.32000 4.851
51.34000 0.872
51.36000 -2.842
51.38000 -0.378
51.40000 -1.579
51.42000 -0.576
51.44000 -0.299
51.46000 3.150
51.48000 4.131
51.50000 4.199
51.52000 5.608
51.54000 3.584
51.56000 -1.891
51.58000 0.565
51.60000 -0.622
51.62000 -1.283
51.64000 6.542
51.66000 7.725
51.68000 3.206
51.70000 5.443
51.72000 7.068
51.74000 2.637
51.76000 4.009
51.78000 6.842
51.80000 2.860
51.82000 4.216
51.84000 4.879
51.86000 5.161
51.88000 8.511
51.90000 4.160
51.92000 4.218
51.94000 -0.720
51.96000 0.813
51.98000 4.022
52.00000 4.585
52.02000 4.662
52.04000 3.751
52.06000 7.490
52.08000 6.271
52.10000 4.188
52.12000 3.310
52.14000 3.260
52.16000 -1.526
52.18000 1.041
52.20000 3.427
52.22000 -0.728
52.24000 2.243
52.26000 5.731
52.28000 -1.445
52.30000 2.901
52.32000 4.238
52.34000 2.357
52.36000 3.478
52.38000 1.880
52.40000 -2.803
52.42000 -0.708
52.44000 3.311
52.46000 9.188
52.48000 5.871
52.50000 7.361
52.52000 2.265
52.54000 1.783
52.56000 9.643
52.58000 5.183
52.60000 3.916
52.62000 3.675
52.64000 7.652
52.66000 6.606
52.68000 -1.853
52.70000 1.244
52.72000 4.773
52.74000 1.471
52.76000 3.800
52.78000 7.611
52.80000 5.811
52.82000 7.810
52.84000 6.262
52.86000 8.103
52.88000 3.646
52.90000 -0.177
52.92000 1.483
52.94000 0.282
52.96000 0.505
52.98000 4.179
53.00000 2.394
53.02000 2.610
53.04000 3.388
53.06000 2.940
53.08000 4.464
53.10000 3.548
53.12000 1.120
53.14000 -1.145
53.16000 2.689
53.18000 1.712
53.20000 -2.792
53.22000 0.514
53.24000 2.739
53.26000 1.634
53.28000 1.771
53.30000 1.208
53.32000 3.658
53.34000 -1.077
53.36000 5.103
53.38000 3.145
53.40000 -0.275
53.42000 -2.784
53.44000 0.252
53.46000 3.585
53.48000 8.343
53.50000 7.415
53.52000 2.398
53.54000 1.181
53.56000 0.840
53.58000 0.484
53.60000 -1.833
53.62000 -1.948
53.64000 0.475
53.66000 9.442
53.68000 5.818
53.70000 2.782
53.72000 4.955
53.74000 4.134
53.76000 1.283
53.78000 2.352
53.80000 6.758
53.82000 -2.556
53.84000 -1.456
53.86000 -1.250
53.88000 4.167
53.90000 -1.655
53.92000 -1.386
53.94000 3.619
53.96000 3.177
53.98000 0.689
54.00000 3.469
54.02000 5.946
54.04000 5.338
54.06000 1.870
54.08000 0.706
54.10000 0.508
54.12000 1.089
54.14000 3.490
54.16000 3.925
54.18000 4.653
54.20000 2.540
54.22000 5.259
54.24000 3.027
54.26000 4.899
54.28000 5.378
54.30000 3.482
54.32000 3.982
54.34000 3.808
54.36000 4.667
54.38000 2.429
54.40000 -0.774
54.42000 -2.743
54.44000 2.327
54.46000 4.509
54.48000 2.821
54.50000 4.661
54.52000 6.110
54.54000 4.195
54.56000 4.405
54.58000 4.466
54.60000 -0.722
54.62000 0.473
54.64000 1.689
54.66000 0.597
54.68000 1.405
54.70000 2.997
54.72000 3.290
54.74000 5.938
54.76000 5.372
54.78000 4.792
54.80000 2.194
54.82000 4.560
54.84000 6.065
54.86000 -0.690
54.88000 -2.487
54.90000 -1.056
54.92000 1.926
54.94000 2.043
54.96000 4.774
54.98000 5.214
55.00000 2.137
55.02000 3.763
55.04000 6.934
55.06000 6.280
55.08000 4.065
55.10000 6.879
55.12000 9.722
55.14000 4.117
55.16000 5.697
55.18000 4.481
55.20000 3.691
55.22000 4.102
55.24000 5.280
55.26000 6.676
55.28000 5.321
55.30000 3.472
55.32000 3.020
55.34000 1.784
55.36000 1.090
55.38000 5.653
55.40000 8.324
55.42000 2.445
55.44000 3.194
55.46000 6.515
55.48000 7.708
55.50000 5.637
55.52000 2.310
55.54000 1.806
55.56000 2.392
55.58000 7.257
55.60000 3.291
55.62000 4.127
55.64000 2.754
55.66000 -2.025
55.68000 -2.699
55.70000 1.655
55.72000 4.500
55.74000 1.760
55.76000 0.990
55.78000 3.997
55.80000 6.040
55.82000 5.731
55.84000 3.711
55.86000 4.106
55.88000 7.959
55.90000 12.400
55.92000 5.266
55.94000 3.420
55.96000 8.051
55.98000 6.259
56.00000 5.926
56.02000 2.951
56.04000 6.492
56.06000 4.910
56.08000 5.676
56.10000 2.151
56.12000 1.106
56.14000 0.729
56.16000 1.529
56.18000 0.483
56.20000 6.788
56.22000 6.972
56.24000 4.179
56.26000 4.369
56.28000 1.421
56.30000 4.993
56.32000 5.745
56.34000 3.773
56.36000 2.950
56.38000 2.539
56.40000 3.526
56.42000 5.542
56.44000 5.973
56.46000 9.525
56.48000 5.235
56.50000 2.376
56.52000 1.781
56.54000 5.773
56.56000 7.327
56.58000 0.775
56.60000 2.359
56.62000 0.259
56.64000 0.726
56.66000 0.578
56.68000 -0.791
56.70000 0.976
56.72000 5.603
56.74000 8.096
56.76000 8.146
56.78000 7.654
56.80000 5.395
56.82000 3.665
56.84000 3.188
56.86000 2.743
56.88000 4.102
56.90000 0.997
56.92000 4.980
56.94000 10.302
56.96000 8.280
56.98000 9.574
57.00000 5.084
57.02000 6.015
57.04000 7.072
57.06000 4.167
57.08000 0.694
57.10000 4.013
57.12000 4.535
57.14000 2.765
57.16000 5.933
57.18000 3.841
57.20000 2.675
57.22000 4.237
57.24000 5.347
57.26000 8.793
57.28000 10.176
57.30000 8.279
57.32000 2.563
57.34000 -2.604
57.36000 7.310
57.38000 9.272
57.40000 8.646
57.42000 2.658
57.44000 3.128
57.46000 6.814
57.48000 5.073
57.50000 5.147
57.52000 6.374
57.54000 6.772
57.56000 5.711
57.58000 4.432
57.60000 4.822
57.62000 4.540
57.64000 5.617
57.66000 3.018
57.68000 0.558
57.70000 2.135
57.72000 6.526
57.74000 2.561
57.76000 0.647
57.78000 5.810
57.80000 5.272
57.82000 6.830
57.84000 3.460
57.86000 4.318
57.88000 4.204
57.90000 10.005
57.92000 5.750
57.94000 -2.210
57.96000 0.571
57.98000 -0.349
58.00000 1.895
58.02000 -0.018
58.04000 1.861
58.06000 -0.359
58.08000 1.970
58.10000 -0.121
58.12000 -0.282
58.14000 2.595
58.16000 3.502
58.18000 1.698
58.20000 0.369
58.22000 0.944
58.24000 -1.510
58.26000 -1.669
58.28000 4.439
58.30000 3.393
58.32000 0.190
58.34000 1.682
58.36000 4.473
58.38000 -0.203
58.40000 -0.009
58.42000 1.605
58.44000 2.540
58.46000 -0.511
58.48000 0.400
58.50000 2.048
58.52000 5.555
58.54000 4.356
58.56000 2.198
58.58000 0.267
58.60000 1.242
58.62000 2.656
58.64000 3.384
58.66000 6.726
58.68000 4.367
58.70000 5.883
58.72000 5.657
58.74000 1.976
58.76000 2.848
58.78000 7.052
58.80000 3.612
58.82000 -1.673
58.84000 -0.981
58.86000 0.018
58.88000 2.143
58.90000 2.143
58.92000 3.706
58.94000 5.516
58.96000 2.942
58.98000 3.457
59.00000 1.604
59.02000 -1.382
59.04000 -0.093
59.06000 2.114
59.08000 3.706
59.10000 5.890
59.12000 4.007
59.14000 0.337
59.16000 1.630
59.18000 4.416
59.20000 1.821
59.22000 -2.609
59.24000 -2.281
59.26000 3.172
59.28000 6.749
59.30000 5.758
59.32000 3.659
59.34000 2.747
59.36000 1.304
59.38000 2.895
59.40000 2.822
59.42000 -2.603
59.44000 -0.860
59.46000 0.744
59.48000 -1.029
59.50000 -0.334
59.52000 -0.504
59.54000 2.456
59.56000 1.705
59.58000 -0.717
59.60000 2.290
59.62000 4.284
59.64000 4.299
59.66000 9.610
59.68000 10.094
59.70000 6.022
59.72000 0.674
59.74000 0.398
59.76000 -1.189
59.78000 1.570
59.80000 2.942
59.82000 3.684
59.84000 1.098
59.86000 3.639
59.88000 1.936
59.90000 1.679
59.92000 4.668
59.94000 3.806
59.96000 3.430
59.98000 -2.591
60.00000 -0.222
60.02000 2.344
60.04000 1.711
60.06000 0.660
60.08000 3.076
60.10000 4.668
60.12000 1.938
60.14000 -0.374
60.16000 0.538
60.18000 -0.452
60.20000 2.145
60.22000 -0.695
60.24000 2.025
60.26000 -1.193
60.28000 -0.998
60.30000 2.213
60.32000 2.451
60.34000 -0.518
60.36000 0.403
60.38000 -0.429
60.40000 -0.478
60.42000 0.489
60.44000 2.478
60.46000 2.709
60.48000 1.193
60.50000 6.992
60.52000 5.593
60.54000 6.007
60.56000 2.526
60.58000 0.809
60.60000 4.766
60.62000 3.088
60.64000 0.054
60.66000 3.146
60.68000 4.708
60.70000 2.503
60.72000 1.116
60.74000 2.962
60.76000 0.520
60.78000 0.509
60.80000 3.255
60.82000 3.365
60.84000 -1.081
60.86000 -2.544
60.88000 0.392
60.90000 -2.403
60.92000 -1.910
60.94000 0.640
60.96000 1.483
60.98000 0.649
61.00000 0.793
61.02000 0.548
61.04000 0.584
61.06000 -1.983
61.08000 -1.259
61.10000 3.494
61.12000 2.061
61.14000 5.628
61.16000 0.467
61.18000 1.043
61.20000 4.253
61.22000 -0.376
61.24000 0.775
61.26000 3.293
61.28000 3.477
61.30000 3.313
61.32000 4.838
61.34000 9.131
61.36000 7.133
61.38000 0.610
61.40000 -2.206
61.42000 0.166
61.44000 -2.495
61.46000 -0.116
61.48000 2.702
61.50000 4.241
61.52000 4.732
61.54000 8.417
61.56000 7.010
61.58000 5.648
61.60000 7.145
61.62000 9.726
61.64000 6.628
61.66000 3.448
61.68000 2.387
61.70000 3.429
61.72000 6.206
61.74000 4.308
61.76000 5.491
61.78000 2.520
61.80000 3.938
61.82000 -0.064
61.84000 1.569
61.86000 2.832
61.88000 1.101
61.90000 1.513
61.92000 2.452
61.94000 5.678
61.96000 4.845
61.98000 6.572
62.00000 7.425
62.02000 5.959
62.04000 5.507
62.06000 3.721
62.08000 3.344
62.10000 2.129
62.12000 4.681
62.14000 5.483
62.16000 8.122
62.18000 5.924
62.20000 4.586
62.22000 5.249
62.24000 5.764
62.26000 2.871
62.28000 2.763
62.30000 0.736
62.32000 3.808
62.34000 1.837
62.36000 -0.794
62.38000 -0.432
62.40000 2.285
62.42000 1.482
62.44000 0.964
62.46000 2.331
62.48000 2.152
62.50000 0.922
62.52000 -1.110
62.54000 -2.485
62.56000 0.842
62.58000 6.542
62.60000 5.911
62.62000 5.000
62.64000 7.191
62.66000 5.905
62.68000 4.744
62.70000 6.127
62.72000 4.443
62.74000 1.140
62.76000 2.345
62.78000 7.690
62.80000 4.980
62.82000 1.918
62.84000 3.300
62.86000 3.754
62.88000 1.245
62.90000 2.893
62.92000 2.250
62.94000 3.076
62.96000 2.296
62.98000 1.385
63.00000 2.540
63.02000 4.178
63.04000 4.181
63.06000 6.532
63.08000 6.727
63.10000 4.603
63.12000 0.826
63.14000 3.602
63.16000 7.694
63.18000 8.009
63.20000 2.887
63.22000 2.826
63.24000 2.023
63.26000 6.785
63.28000 6.521
63.30000 4.011
63.32000 0.986
63.34000 1.512
63.36000 0.405
63.38000 2.428
63.40000 1.479
63.42000 -2.473
63.44000 1.296
63.46000 3.052
63.48000 1.496
63.50000 0.036
63.52000 1.401
63.54000 1.523
63.56000 4.627
63.58000 3.061
63.60000 3.170
63.62000 3.524
63.64000 4.654
63.66000 2.897
63.68000 -0.098
63.70000 -0.277
63.72000 3.007
63.74000 3.925
63.76000 4.392
63.78000 2.146
63.80000 2.247
63.82000 3.526
63.84000 1.021
63.86000 -0.177
63.88000 3.260
63.90000 3.869
63.92000 1.805
63.94000 -1.177
63.96000 -2.483
63.98000 0.625
64.00000 3.861
64.02000 2.626
64.04000 4.244
64.06000 1.998
64.08000 0.981
64.10000 3.721
64.12000 5.473
64.14000 4.599
64.16000 4.853
64.18000 0.066
64.20000 0.581
64.22000 3.838
64.24000 5.868
64.26000 2.690
64.28000 -1.029
64.30000 -1.459
64.32000 -0.163
64.34000 -2.120
64.36000 -0.423
64.38000 0.527
64.40000 4.447
64.42000 5.798
64.44000 2.857
64.46000 2.333
64.48000 -0.375
64.50000 0.580
64.52000 4.402
64.54000 3.350
64.56000 1.262
64.58000 0.257
64.60000 4.068
64.62000 6.012
64.64000 4.608
64.66000 2.882
64.68000 4.346
64.70000 7.104
64.72000 2.535
64.74000 -0.269
64.76000 2.241
64.78000 2.248
64.80000 2.002
64.82000 5.868
64.84000 6.341
64.86000 4.504
64.88000 4.726
64.90000 -0.488
64.92000 3.633
64.94000 3.293
64.96000 2.962
64.98000 3.416
65.00000 4.976
65.02000 3.613
65.04000 1.796
65.06000 1.412
65.08000 -2.484
65.10000 -0.506
65.12000 2.398
65.14000 1.820
65.16000 2.822
65.18000 2.600
65.20000 4.279
65.22000 1.122
65.24000 0.827
65.26000 2.785
65.28000 2.964
65.30000 1.370
65.32000 -1.773
65.34000 3.780
65.36000 4.294
65.38000 2.711
65.40000 3.286
65.42000 0.115
65.44000 0.902
65.46000 2.381
65.48000 3.278
65.50000 5.478
65.52000 8.537
65.54000 4.938
65.56000 1.214
65.58000 3.556
65.60000 3.646
65.62000 4.895
65.64000 4.197
65.66000 2.220
65.68000 3.186
65.70000 -0.755
65.72000 -2.512
65.74000 1.538
65.76000 2.913
65.78000 4.454
65.80000 3.054
65.82000 1.888
65.84000 1.271
65.86000 0.216
65.88000 1.654
65.90000 1.761
65.92000 -0.263
65.94000 -1.674
65.96000 0.487
65.98000 3.442
66.00000 1.165
66.02000 1.580
66.04000 1.525
66.06000 2.214
66.08000 1.963
66.10000 5.578
66.12000 5.176
66.14000 2.998
66.16000 0.331
66.18000 0.035
66.20000 1.238
66.22000 0.215
66.24000 0.506
66.26000 1.263
66.28000 0.747
66.30000 -0.230
66.32000 0.847
66.34000 3.384
66.36000 4.938
66.38000 3.567
66.40000 1.131
66.42000 -1.268
66.44000 -2.530
66.46000 -1.654
66.48000 0.015
66.50000 1.374
66.52000 0.533
66.54000 2.038
66.56000 -0.785
66.58000 1.049
66.60000 2.546
66.62000 2.358
66.64000 0.991
66.66000 -0.740
66.68000 3.761
66.70000 5.892
66.72000 6.022
66.74000 3.312
66.76000 6.169
66.78000 5.778
66.80000 2.612
66.82000 1.325
66.84000 0.950
66.86000 1.526
66.88000 -0.905
66.90000 -2.544
66.92000 0.800
66.94000 5.659
66.96000 3.995
66.98000 4.601
67.00000 3.169
67.02000 0.422
67.04000 1.879
67.06000 4.565
67.08000 3.176
67.10000 -1.451
67.12000 1.274
67.14000 0.854
67.16000 1.848
67.18000 2.669
67.20000 3.620
67.22000 2.267
67.24000 1.529
67.26000 -2.565
67.28000 1.091
67.30000 5.276
67.32000 3.967
67.34000 3.242
67.36000 3.229
67.38000 3.027
67.40000 5.575
67.42000 4.411
67.44000 1.563
67.46000 0.119
67.48000 2.809
67.50000 2.308
67.52000 3.097
67.54000 2.329
67.56000 -1.360
67.58000 -1.791
67.60000 0.559
67.62000 0.468
67.64000 1.963
67.66000 2.024
67.68000 2.995
67.70000 -0.083
67.72000 -1.111
67.74000 -2.594
67.76000 -1.363
67.78000 1.394
67.80000 1.781
67.82000 2.696
67.84000 0.619
67.86000 3.287
67.88000 5.339
67.90000 2.113
67.92000 0.331
67.94000 2.455
67.96000 2.523
67.98000 0.692
68.00000 0.451
68.02000 5.915
68.04000 8.781
68.06000 8.030
68.08000 7.063
68.10000 2.333
68.12000 1.805
68.14000 6.080
68.16000 7.318
68.18000 6.617
68.20000 6.761
68.22000 5.577
68.24000 6.421
68.26000 8.149
68.28000 6.713
68.30000 6.505
68.32000 7.119
68.34000 5.636
68.36000 8.907
68.38000 8.785
68.40000 11.159
68.42000 9.550
68.44000 11.901
68.46000 11.014
68.48000 11.411
68.50000 16.734
68.52000 15.478
68.54000 15.499
68.56000 13.939
68.58000 15.912
68.60000 13.140
68.62000 13.541
68.64000 13.260
68.66000 12.815
68.68000 16.515
68.70000 17.796
68.72000 15.835
68.74000 12.704
68.76000 17.236
68.78000 16.731
68.80000 16.617
68.82000 20.768
68.84000 22.980
68.86000 21.788
68.88000 23.186
68.90000 21.259
68.92000 19.832
68.94000 23.930
68.96000 21.661
68.98000 21.056
69.00000 21.396
69.02000 18.428
69.04000 18.147
69.06000 19.504
69.08000 23.310
69.10000 24.502
69.12000 23.915
69.14000 22.435
69.16000 22.938
69.18000 22.038
69.20000 21.530
69.22000 26.896
69.24000 25.344
69.26000 20.990
69.28000 20.588
69.30000 19.262
69.32000 21.416
69.34000 22.471
69.36000 20.294
69.38000 17.043
69.40000 17.967
69.42000 19.885
69.44000 17.476
69.46000 15.056
69.48000 13.177
69.50000 8.401
69.52000 8.656
69.54000 15.546
69.56000 12.616
69.58000 16.954
69.60000 16.993
69.62000 15.189
69.64000 14.918
69.66000 12.913
69.68000 8.713
69.70000 10.967
69.72000 11.555
69.74000 11.626
69.76000 11.561
69.78000 8.712
69.80000 10.240
69.82000 12.595
69.84000 11.962
69.86000 9.065
69.88000 7.439
69.90000 6.602
69.92000 6.585
69.94000 7.353
69.96000 7.664
69.98000 3.993
70.00000 2.088
70.02000 4.162
70.04000 8.812
70.06000 9.573
70.08000 6.293
70.10000 2.594
70.12000 1.538
70.14000 2.693
70.16000 1.697
70.18000 6.084
70.20000 8.826
70.22000 2.628
70.24000 1.545
70.26000 0.128
70.28000 2.769
70.30000 0.180
70.32000 2.968
70.34000 2.957
70.36000 3.284
70.38000 5.583
70.40000 4.749
70.42000 7.256
70.44000 5.826
70.46000 3.528
70.48000 4.938
70.50000 5.052
70.52000 3.057
70.54000 2.517
70.56000 -0.835
70.58000 -2.456
70.60000 2.118
70.62000 4.522
70.64000 3.908
70.66000 4.170
70.68000 3.367
70.70000 2.408
70.72000 3.793
70.74000 3.708
70.76000 3.404
70.78000 1.462
70.80000 1.182
70.82000 5.403
70.84000 7.135
70.86000 5.558
70.88000 3.038
70.90000 4.106
70.92000 2.344
70.94000 1.270
70.96000 1.970
70.98000 3.124
71.00000 3.555
71.02000 2.680
71.04000 4.249
71.06000 3.554
71.08000 4.689
71.10000 2.878
71.12000 1.621
71.14000 1.342
71.16000 3.559
71.18000 5.707
71.20000 0.949
71.22000 4.237
71.24000 3.959
71.26000 1.481
71.28000 0.014
71.30000 0.049
71.32000 1.275
71.34000 4.341
71.36000 1.416
71.38000 4.183
71.40000 5.888
71.42000 6.485
71.44000 3.503
71.46000 3.507
71.48000 7.109
71.50000 0.246
71.52000 4.294
71.54000 5.329
71.56000 3.442
71.58000 6.979
71.60000 7.746
71.62000 3.529
71.64000 7.461
71.66000 5.450
71.68000 -2.349
71.70000 2.814
71.72000 5.090
71.74000 7.196
71.76000 4.757
71.78000 3.578
71.80000 3.864
71.82000 2.417
71.84000 2.023
71.86000 0.754
71.88000 3.010
71.90000 7.395
71.92000 5.565
71.94000 7.202
71.96000 3.302
71.98000 -2.231
72.00000 0.811
72.02000 4.485
72.04000 1.801
72.06000 3.944
72.08000 2.647
72.10000 4.164
72.12000 4.132
72.14000 3.251
72.16000 5.226
72.18000 2.852
72.20000 -0.840
72.22000 -1.925
72.24000 5.717
72.26000 4.601
72.28000 0.623
72.30000 6.068
72.32000 5.489
72.34000 3.174
72.36000 3.206
72.38000 3.478
72.40000 3.311
72.42000 5.953
72.44000 5.580
72.46000 3.867
72.48000 0.744
72.50000 4.993
72.52000 3.947
72.54000 4.756
72.56000 1.067
72.58000 1.338
72.60000 7.802
72.62000 5.932
72.64000 7.053
72.66000 4.212
72.68000 3.242
72.70000 -0.712
72.72000 -0.860
72.74000 2.017
72.76000 1.566
72.78000 -2.301
72.80000 3.011
72.82000 2.950
72.84000 3.535
72.86000 3.259
72.88000 7.377
72.90000 6.227
72.92000 3.394
72.94000 2.786
72.96000 4.012
72.98000 4.510
73.00000 3.174
73.02000 2.024
73.04000 3.394
73.06000 3.371
73.08000 1.585
73.10000 -0.318
73.12000 4.058
73.14000 3.276
73.16000 3.905
73.18000 1.447
73.20000 -0.451
73.22000 4.435
73.24000 2.143
73.26000 0.422
73.28000 2.312
73.30000 5.586
73.32000 4.179
73.34000 0.093
73.36000 1.156
73.38000 6.616
73.40000 7.661
73.42000 6.195
73.44000 1.073
73.46000 -2.005
73.48000 2.390
73.50000 5.135
73.52000 3.781
73.54000 0.232
73.56000 2.218
73.58000 4.377
73.60000 1.859
73.62000 1.758
73.64000 0.454
73.66000 2.007
73.68000 1.134
73.70000 1.359
73.72000 -2.298
73.74000 0.340
73.76000 6.252
73.78000 5.879
73.80000 6.386
73.82000 5.348
73.84000 4.303
73.86000 2.899
73.88000 2.085
73.90000 3.777
73.92000 4.918
73.94000 2.831
73.96000 4.988
73.98000 0.752
74.00000 1.781
74.02000 4.355
74.04000 3.795
74.06000 1.020
74.08000 4.701
74.10000 3.069
74.12000 -0.590
74.14000 1.884
74.16000 3.092
74.18000 1.180
74.20000 -0.213
74.22000 -0.828
74.24000 3.010
74.26000 6.341
74.28000 4.499
74.30000 2.802
74.32000 0.870
74.34000 2.719
74.36000 4.250
74.38000 3.208
74.40000 7.559
74.42000 7.533
74.44000 5.350
74.46000 4.105
74.48000 5.071
74.50000 4.641
74.52000 0.901
74.54000 3.078
74.56000 2.218
74.58000 -0.445
74.60000 2.431
74.62000 7.871
74.64000 5.065
74.66000 2.846
74.68000 -0.015
74.70000 2.578
74.72000 4.176
74.74000 6.444
74.76000 4.640
74.78000 3.900
74.80000 7.550
74.82000 4.594
74.84000 3.603
74.86000 3.568
74.88000 3.008
74.90000 4.761
74.92000 5.153
74.94000 2.298
74.96000 -0.892
74.98000 3.500
75.00000 6.540
75.02000 8.283
75.04000 3.161
75.06000 4.365
75.08000 4.366
75.10000 2.749
75.12000 -2.166
75.14000 -2.149
75.16000 -2.271
75.18000 -0.566
75.20000 2.793
75.22000 1.180
75.24000 1.251
75.26000 2.763
75.28000 7.089
75.30000 3.754
75.32000 6.175
75.34000 5.442
75.36000 7.881
75.38000 5.873
75.40000 5.083
75.42000 2.641
75.44000 5.382
75.46000 4.815
75.48000 5.767
75.50000 6.523
75.52000 3.486
75.54000 1.186
75.56000 0.919
75.58000 6.733
75.60000 3.646
75.62000 4.008
75.64000 1.461
75.66000 0.555
75.68000 0.662
75.70000 5.043
75.72000 6.724
75.74000 11.257
75.76000 5.784
75.78000 7.573
75.80000 8.820
75.82000 1.744
75.84000 5.280
75.86000 4.063
75.88000 6.458
75.90000 9.980
75.92000 8.434
75.94000 6.020
75.96000 2.562
75.98000 0.486
76.00000 -0.558
76.02000 -2.309
76.04000 0.548
76.06000 6.735
76.08000 6.306
76.10000 5.039
76.12000 6.126
76.14000 2.324
76.16000 3.584
76.18000 7.494
76.20000 4.720
76.22000 1.431
76.24000 -0.542
76.26000 -1.842
76.28000 4.072
76.30000 7.952
76.32000 8.108
76.34000 9.127
76.36000 6.862
76.38000 5.057
76.40000 4.519
76.42000 3.946
76.44000 6.881
76.46000 2.908
76.48000 1.389
76.50000 -0.672
76.52000 5.541
76.54000 1.997
76.56000 -2.308
76.58000 2.531
76.60000 6.617
76.62000 3.351
76.64000 -0.136
76.66000 -0.795
76.68000 1.451
76.70000 4.203
76.72000 -0.360
76.74000 -0.954
76.76000 0.429
76.78000 1.763
76.80000 2.580
76.82000 0.543
76.84000 1.404
76.86000 2.190
76.88000 3.096
76.90000 1.670
76.92000 2.867
76.94000 6.226
76.96000 1.213
76.98000 -2.324
77.00000 -1.757
77.02000 1.552
77.04000 1.715
77.06000 0.330
77.08000 3.744
77.10000 4.900
77.12000 5.310
77.14000 5.199
77.16000 3.878
77.18000 4.508
77.20000 4.058
77.22000 6.259
77.24000 2.466
77.26000 4.164
77.28000 3.599
77.30000 2.469
77.32000 2.013
77.34000 5.228
77.36000 -0.889
77.38000 3.148
77.40000 5.943
77.42000 3.337
77.44000 4.329
77.46000 4.999
77.48000 6.377
77.50000 7.293
77.52000 1.020
77.54000 -1.249
77.56000 -0.959
77.58000 1.581
77.60000 6.847
77.62000 8.656
77.64000 2.433
77.66000 1.450
77.68000 2.150
77.70000 1.797
77.72000 1.050
77.74000 2.322
77.76000 3.738
77.78000 9.323
77.80000 0.724
77.82000 -0.433
77.84000 4.021
77.86000 3.959
77.88000 -1.373
77.90000 -0.815
77.92000 4.360
77.94000 10.083
77.96000 4.664
77.98000 4.265
78.00000 6.418
78.02000 6.785
78.04000 9.310
78.06000 6.069
78.08000 3.474
78.10000 2.491
78.12000 3.294
78.14000 3.797
78.16000 6.293
78.18000 1.063
78.20000 -0.810
78.22000 0.111
78.24000 6.853
78.26000 7.738
78.28000 4.311
78.30000 1.061
78.32000 2.804
78.34000 7.565
78.36000 7.461
78.38000 6.832
78.40000 1.804
78.42000 0.934
78.44000 -0.746
78.46000 1.218
78.48000 -0.109
78.50000 1.599
78.52000 4.748
78.54000 3.681
78.56000 2.089
78.58000 6.169
78.60000 4.095
78.62000 -2.288
78.64000 -0.053
78.66000 4.497
78.68000 5.383
78.70000 7.042
78.72000 8.194
78.74000 9.945
78.76000 7.647
78.78000 3.129
78.80000 4.652
78.82000 4.076
78.84000 1.636
78.86000 4.552
78.88000 8.364
78.90000 4.588
78.92000 5.348
78.94000 3.186
78.96000 1.705
78.98000 6.257
79.00000 4.829
79.02000 5.910
79.04000 6.393
79.06000 3.785
79.08000 3.278
79.10000 9.389
79.12000 8.010
79.14000 6.551
79.16000 7.099
79.18000 5.249
79.20000 -0.124
79.22000 1.703
79.24000 4.662
79.26000 3.310
79.28000 8.448
79.30000 4.407
79.32000 2.973
79.34000 6.595
79.36000 12.237
79.38000 1.161
79.40000 2.758
79.42000 6.229
79.44000 7.741
79.46000 7.146
79.48000 7.434
79.50000 8.010
79.52000 4.892
79.54000 2.573
79.56000 1.739
79.58000 1.574
79.60000 3.284
79.62000 4.139
79.64000 5.620
79.66000 4.930
79.68000 3.195
79.70000 7.512
79.72000 1.683
79.74000 0.980
79.76000 3.036
79.78000 1.964
79.80000 1.401
79.82000 6.613
79.84000 7.130
79.86000 7.105
79.88000 3.593
79.90000 4.079
79.92000 2.505
79.94000 -0.702
79.96000 0.800
79.98000 4.215
80.00000 7.574
80.02000 4.315
80.04000 4.882
80.06000 6.071
80.08000 8.933
80.10000 2.679
80.12000 8.124
80.14000 5.058
80.16000 -2.338
80.18000 -0.421
80.20000 7.646
80.22000 6.634
80.24000 3.852
80.26000 1.995
80.28000 0.494
80.30000 6.997
80.32000 9.065
80.34000 10.288
80.36000 10.610
80.38000 5.098
80.40000 1.755
80.42000 -0.965
80.44000 0.171
80.46000 7.912
80.48000 1.108
80.50000 0.098
80.52000 5.272
80.54000 8.115
80.56000 6.346
80.58000 1.597
80.60000 -1.409
80.62000 1.137
80.64000 4.182
80.66000 5.408
80.68000 5.474
80.70000 7.600
80.72000 4.225
80.74000 0.411
80.76000 3.860
80.78000 4.408
80.80000 0.898
80.82000 0.928
80.84000 3.440
80.86000 3.326
80.88000 2.034
80.90000 3.573
80.92000 7.405
80.94000 2.471
80.96000 1.982
80.98000 5.609
81.00000 3.279
81.02000 2.565
81.04000 1.104
81.06000 2.517
81.08000 -2.431
81.10000 0.641
81.12000 4.527
81.14000 2.122
81.16000 4.206
81.18000 5.776
81.20000 5.129
81.22000 7.132
81.24000 4.271
81.26000 2.019
81.28000 5.883
81.30000 5.055
81.32000 -0.025
81.34000 4.893
81.36000 6.657
81.38000 2.481
81.40000 3.740
81.42000 7.764
81.44000 1.362
81.46000 1.025
81.48000 0.483
81.50000 0.005
81.52000 3.565
81.54000 7.618
81.56000 6.929
81.58000 2.377
81.60000 6.463
81.62000 6.318
81.64000 4.451
81.66000 0.926
81.68000 0.129
81.70000 2.825
81.72000 2.202
81.74000 4.538
81.76000 4.950
81.78000 4.686
81.80000 2.470
81.82000 4.964
81.84000 3.428
81.86000 0.873
81.88000 1.303
81.90000 3.596
81.92000 6.135
81.94000 2.278
81.96000 3.888
81.98000 9.317
82.00000 4.549
82.02000 0.277
82.04000 1.014
82.06000 3.772
82.08000 5.155
82.10000 6.354
82.12000 10.206
82.14000 12.029
82.16000 10.431
82.18000 6.791
82.20000 7.976
82.22000 8.542
82.24000 10.059
82.26000 11.216
82.28000 10.235
82.30000 10.681
82.32000 12.427
82.34000 4.535
82.36000 7.215
82.38000 10.359
82.40000 8.267
82.42000 8.686
82.44000 11.850
82.46000 15.284
82.48000 9.608
82.50000 8.159
82.52000 9.421
82.54000 11.582
82.56000 10.906
82.58000 12.890
82.60000 16.110
82.62000 14.169
82.64000 16.693
82.66000 19.702
82.68000 14.357
82.70000 11.815
82.72000 16.516
82.74000 18.224
82.76000 19.841
82.78000 17.640
82.80000 19.302
82.82000 16.787
82.84000 22.688
82.86000 27.155
82.88000 20.990
82.90000 20.342
82.92000 21.811
82.94000 19.555
82.96000 22.121
82.98000 21.408
83.00000 23.518
83.02000 24.159
83.04000 22.071
83.06000 23.849
83.08000 29.886
83.10000 23.753
83.12000 23.814
83.14000 26.578
83.16000 29.591
83.18000 32.668
83.20000 34.735
83.22000 31.723
83.24000 26.777
83.26000 24.190
83.28000 23.198
83.30000 26.264
83.32000 28.991
83.34000 28.202
83.36000 35.394
83.38000 25.823
83.40000 27.026
83.42000 23.835
83.44000 30.635
83.46000 32.819
83.48000 29.274
83.50000 28.093
83.52000 32.734
83.54000 33.528
83.56000 27.865
83.58000 23.704
83.60000 26.079
83.62000 27.542
83.64000 30.374
83.66000 26.642
83.68000 24.058
83.70000 22.597
83.72000 28.699
83.74000 28.247
83.76000 25.332
83.78000 24.815
83.80000 18.577
83.82000 19.471
83.84000 16.183
83.86000 16.492
83.88000 17.319
83.90000 15.912
83.92000 19.405
83.94000 18.305
83.96000 19.668
83.98000 16.500
84.00000 19.673
84.02000 19.324
84.04000 19.238
84.06000 18.723
84.08000 20.650
84.10000 21.615
84.12000 14.765
84.14000 10.873
84.16000 9.442
84.18000 18.864
84.20000 15.323
84.22000 16.839
84.24000 17.375
84.26000 12.987
84.28000 13.567
84.30000 9.993
84.32000 10.625
84.34000 7.733
84.36000 10.293
84.38000 9.984
84.40000 14.687
84.42000 13.145
84.44000 8.745
84.46000 10.177
84.48000 7.851
84.50000 7.653
84.52000 10.879
84.54000 10.470
84.56000 11.179
84.58000 10.005
84.60000 10.296
84.62000 5.633
84.64000 11.380
84.66000 14.400
84.68000 12.392
84.70000 7.344
84.72000 6.655
84.74000 7.558
84.76000 7.339
84.78000 7.648
84.80000 3.448
84.82000 -2.443
84.84000 4.092
84.86000 5.927
84.88000 6.325
84.90000 6.673
84.92000 4.613
84.94000 7.559
84.96000 5.864
84.98000 6.788
85.00000 7.501
85.02000 8.751
85.04000 6.864
85.06000 1.755
85.08000 4.139
85.10000 2.043
85.12000 4.055
85.14000 2.347
85.16000 0.456
85.18000 3.601
85.20000 8.266
85.22000 9.977
85.24000 9.640
85.26000 6.141
85.28000 3.417
85.30000 -1.034
85.32000 -0.209
85.34000 7.879
85.36000 9.915
85.38000 7.537
85.40000 5.636
85.42000 10.401
85.44000 4.740
85.46000 6.851
85.48000 6.192
85.50000 -0.838
85.52000 -2.365
85.54000 1.568
85.56000 2.175
85.58000 0.749
85.60000 0.269
85.62000 0.776
85.64000 6.238
85.66000 7.834
85.68000 3.785
85.70000 5.857
85.72000 3.417
85.74000 0.931
85.76000 2.624
85.78000 1.842
85.80000 4.413
85.82000 1.286
85.84000 4.167
85.86000 1.357
85.88000 1.081
85.90000 5.100
85.92000 4.686
85.94000 4.286
85.96000 3.666
85.98000 -0.032
86.00000 -1.341
86.02000 0.800
86.04000 3.835
86.06000 2.629
86.08000 3.128
86.10000 5.383
86.12000 10.620
86.14000 13.210
86.16000 2.577
86.18000 -0.328
86.20000 0.026
86.22000 4.410
86.24000 4.875
86.26000 4.306
86.28000 6.522
86.30000 10.695
86.32000 8.980
86.34000 4.175
86.36000 6.322
86.38000 4.671
86.40000 4.812
86.42000 5.851
86.44000 7.172
86.46000 9.239
86.48000 12.457
86.50000 12.706
86.52000 9.406
86.54000 4.723
86.56000 -2.319
86.58000 2.188
86.60000 3.710
86.62000 1.885
86.64000 10.529
86.66000 7.314
86.68000 7.635
86.70000 10.493
86.72000 8.475
86.74000 12.473
86.76000 11.443
86.78000 4.498
86.80000 8.049
86.82000 8.714
86.84000 8.568
86.86000 14.307
86.88000 13.467
86.90000 13.444
86.92000 12.772
86.94000 10.076
86.96000 8.252
86.98000 8.961
87.00000 8.015
87.02000 10.724
87.04000 9.836
87.06000 13.590
87.08000 14.996
87.10000 14.801
87.12000 13.754
87.14000 12.622
87.16000 9.744
87.18000 9.696
87.20000 13.876
87.22000 11.923
87.24000 18.054
87.26000 16.367
87.28000 18.134
87.30000 15.162
87.32000 17.901
87.34000 17.620
87.36000 18.001
87.38000 17.046
87.40000 19.653
87.42000 15.834
87.44000 18.616
87.46000 17.830
87.48000 18.939
87.50000 17.213
87.52000 18.542
87.54000 21.905
87.56000 19.822
87.58000 22.497
87.60000 24.600
87.62000 25.069
87.64000 20.955
87.66000 18.678
87.68000 19.291
87.70000 23.389
87.72000 27.845
87.74000 25.563
87.76000 26.264
87.78000 23.878
87.80000 26.314
87.82000 28.206
87.84000 27.847
87.86000 26.178
87.88000 25.803
87.90000 25.279
87.92000 27.266
87.94000 28.388
87.96000 23.735
87.98000 22.162
88.00000 20.687
88.02000 28.652
88.04000 27.227
88.06000 29.422
88.08000 25.938
88.10000 23.688
88.12000 21.134
88.14000 22.928
88.16000 28.449
88.18000 24.040
88.20000 24.751
88.22000 24.752
88.24000 20.867
88.26000 21.517
88.28000 26.845
88.30000 25.538
88.32000 23.392
88.34000 17.883
88.36000 18.945
88.38000 18.873
88.40000 21.177
88.42000 16.612
88.44000 16.224
88.46000 18.214
88.48000 16.810
88.50000 19.471
88.52000 16.019
88.54000 10.866
88.56000 13.489
88.58000 22.044
88.60000 16.571
88.62000 14.664
88.64000 11.734
88.66000 16.541
88.68000 16.328
88.70000 11.316
88.72000 6.951
88.74000 9.907
88.76000 14.429
88.78000 6.041
88.80000 6.491
88.82000 9.219
88.84000 7.589
88.86000 5.560
88.88000 7.312
88.90000 11.028
88.92000 10.367
88.94000 12.094
88.96000 12.910
88.98000 14.490
89.00000 7.302
89.02000 9.409
89.04000 12.976
89.06000 10.929
89.08000 7.495
89.10000 5.867
89.12000 0.217
89.14000 3.303
89.16000 10.443
89.18000 11.738
89.20000 3.551
89.22000 0.007
89.24000 -0.838
89.26000 1.925
89.28000 3.144
89.30000 4.312
89.32000 5.911
89.34000 0.652
89.36000 3.785
89.38000 5.238
89.40000 1.653
89.42000 -2.293
89.44000 -1.748
89.46000 2.371
89.48000 0.618
89.50000 0.301
89.52000 3.469
89.54000 2.638
89.56000 -0.732
89.58000 0.411
89.60000 4.787
89.62000 -1.366
89.64000 0.714
89.66000 3.115
89.68000 3.201
89.70000 2.305
89.72000 5.462
89.74000 3.792
89.76000 -2.267
89.78000 -1.291
89.80000 -1.008
89.82000 2.995
89.84000 6.123
89.86000 6.771
89.88000 0.599
89.90000 -0.423
89.92000 0.349
89.94000 2.041
89.96000 2.325
89.98000 1.339
90.00000 0.718
90.02000 2.266
90.04000 3.229
90.06000 2.297
90.08000 3.811
90.10000 4.230
90.12000 1.778
90.14000 0.243
90.16000 4.313
90.18000 6.272
90.20000 6.251
90.22000 1.086
90.24000 4.013
90.26000 1.219
90.28000 -0.341
90.30000 5.010
90.32000 3.153
90.34000 0.122
90.36000 2.346
90.38000 4.137
90.40000 4.651
90.42000 3.830
90.44000 4.831
90.46000 6.423
90.48000 8.205
90.50000 1.076
90.52000 1.058
90.54000 0.964
90.56000 -2.201
90.58000 -0.842
90.60000 0.196
90.62000 3.689
90.64000 7.327
90.66000 5.472
90.68000 5.108
90.70000 2.502
90.72000 -1.554
90.74000 0.103
90.76000 1.654
90.78000 -1.156
90.80000 0.143
90.82000 -0.707
90.84000 -0.242
90.86000 6.026
90.88000 6.580
90.90000 3.702
90.92000 5.670
90.94000 6.073
90.96000 4.700
90.98000 2.138
91.00000 6.676
91.02000 5.399
91.04000 1.189
91.06000 1.374
91.08000 0.499
91.10000 1.569
91.12000 -0.815
91.14000 7.058
91.16000 8.139
91.18000 5.372
91.20000 2.684
91.22000 1.781
91.24000 1.916
91.26000 6.227
91.28000 5.935
91.30000 6.362
91.32000 6.074
91.34000 5.304
91.36000 4.337
91.38000 9.998
91.40000 9.129
91.42000 5.428
91.44000 3.907
91.46000 3.997
91.48000 4.688
91.50000 3.151
91.52000 -2.197
91.54000 3.236
91.56000 1.656
91.58000 5.103
91.60000 1.898
91.62000 2.281
91.64000 4.434
91.66000 6.411
91.68000 4.705
91.70000 4.918
91.72000 11.167
91.74000 3.878
91.76000 0.937
91.78000 1.032
91.80000 3.517
91.82000 8.846
91.84000 6.054
91.86000 7.277
91.88000 6.192
91.90000 7.212
91.92000 1.361
91.94000 0.903
91.96000 3.865
91.98000 5.549
92.00000 4.472
92.02000 4.754
92.04000 5.766
92.06000 5.058
92.08000 4.465
92.10000 4.654
92.12000 -2.175
92.14000 1.084
92.16000 3.386
92.18000 4.348
92.20000 7.302
92.22000 4.618
92.24000 4.470
92.26000 3.579
92.28000 4.822
92.30000 3.715
92.32000 2.919
92.34000 7.749
92.36000 8.372
92.38000 6.636
92.40000 5.129
92.42000 5.410
92.44000 2.666
92.46000 4.379
92.48000 6.031
92.50000 9.211
92.52000 5.291
92.54000 7.146
92.56000 12.826
92.58000 11.278
92.60000 4.581
92.62000 3.180
92.64000 4.301
92.66000 4.766
92.68000 3.051
92.70000 6.369
92.72000 4.901
92.74000 8.477
92.76000 8.217
92.78000 5.491
92.80000 7.146
92.82000 6.304
92.84000 9.522
92.86000 7.941
92.88000 1.431
92.90000 5.914
92.92000 9.471
92.94000 6.085
92.96000 -2.180
92.98000 0.921
93.00000 4.802
93.02000 5.981
93.04000 4.527
93.06000 4.827
93.08000 7.516
93.10000 9.809
93.12000 5.263
93.14000 3.797
93.16000 3.604
93.18000 8.150
93.20000 7.527
93.22000 6.664
93.24000 6.569
93.26000 2.930
93.28000 2.048
93.30000 6.169
93.32000 3.214
93.34000 3.338
93.36000 6.975
93.38000 6.832
93.40000 5.186
93.42000 1.055
93.44000 0.408
93.46000 4.481
93.48000 6.877
93.50000 6.725
93.52000 6.908
93.54000 1.600
93.56000 2.713
93.58000 0.872
93.60000 3.441
93.62000 11.492
93.64000 10.317
93.66000 9.334
93.68000 6.177
93.70000 1.438
93.72000 2.287
93.74000 5.118
93.76000 3.831
93.78000 3.564
93.80000 3.290
93.82000 2.952
93.84000 2.055
93.86000 1.369
93.88000 5.400
93.90000 4.937
93.92000 4.906
93.94000 2.064
93.96000 -2.193
93.98000 1.535
94.00000 6.305
94.02000 4.304
94.04000 4.805
94.06000 7.860
94.08000 6.675
94.10000 -0.373
94.12000 4.675
94.14000 1.629
94.16000 3.047
94.18000 3.077
94.20000 0.692
94.22000 6.309
94.24000 5.693
94.26000 7.213
94.28000 9.175
94.30000 5.277
94.32000 5.135
94.34000 2.328
94.36000 5.018
94.38000 5.857
94.40000 5.330
94.42000 5.719
94.44000 3.546
94.46000 2.312
94.48000 3.982
94.50000 8.277
94.52000 8.115
94.54000 2.917
94.56000 4.502
94.58000 4.419
94.60000 4.280
94.62000 4.636
94.64000 3.533
94.66000 1.487
94.68000 4.898
94.70000 5.804
94.72000 2.671
94.74000 1.693
94.76000 4.726
94.78000 5.798
94.80000 6.980
94.82000 4.292
94.84000 -0.350
94.86000 5.381
94.88000 7.654
94.90000 6.490
94.92000 1.862
94.94000 4.208
94.96000 6.423
94.98000 2.459
95.00000 1.893
95.02000 2.212
95.04000 4.488
95.06000 4.531
95.08000 1.145
95.10000 -2.129
95.12000 2.388
95.14000 3.760
95.16000 2.299
95.18000 4.100
95.20000 9.756
95.22000 13.031
95.24000 7.989
95.26000 7.752
95.28000 5.287
95.30000 3.218
95.32000 2.417
95.34000 1.597
95.36000 4.374
95.38000 3.951
95.40000 6.177
95.42000 7.601
95.44000 9.441
95.46000 5.749
95.48000 3.213
95.50000 8.057
95.52000 11.746
95.54000 5.334
95.56000 3.345
95.58000 5.182
95.60000 5.554
95.62000 3.632
95.64000 5.468
95.66000 11.419
95.68000 7.906
95.70000 4.122
95.72000 0.906
95.74000 3.380
95.76000 7.001
95.78000 5.750
95.80000 2.059
95.82000 3.748
95.84000 3.954
95.86000 -2.849
95.88000 7.143
95.90000 16.444
95.92000 11.309
95.94000 13.286
95.96000 10.018
95.98000 13.063
96.00000 2.517
96.02000 1.397
96.04000 1.733
96.06000 8.569
96.08000 10.882
96.10000 12.387
96.12000 10.553
96.14000 6.118
96.16000 2.622
96.18000 7.311
96.20000 6.501
96.22000 9.788
96.24000 8.582
96.26000 4.518
96.28000 1.427
96.30000 4.626
96.32000 15.635
96.34000 13.877
96.36000 5.973
96.38000 4.338
96.40000 5.831
96.42000 3.154
96.44000 6.165
96.46000 7.494
96.48000 1.532
96.50000 5.069
96.52000 10.723
96.54000 11.245
96.56000 7.795
96.58000 4.372
96.60000 5.652
96.62000 5.449
96.64000 7.276
96.66000 6.458
96.68000 5.997
96.70000 4.368
96.72000 3.647
96.74000 2.670
96.76000 0.315
96.78000 3.171
96.80000 0.580
96.82000 10.635
96.84000 7.357
96.86000 5.418
96.88000 11.095
96.90000 11.899
96.92000 8.995
96.94000 7.127
96.96000 4.456
96.98000 4.471
97.00000 7.168
97.02000 16.021
97.04000 11.771
97.06000 6.237
97.08000 8.793
97.10000 2.590
97.12000 0.331
97.14000 4.256
97.16000 6.409
97.18000 2.955
97.20000 6.089
97.22000 9.304
97.24000 6.635
97.26000 5.560
97.28000 10.589
97.30000 3.878
97.32000 9.359
97.34000 6.295
97.36000 3.819
97.38000 11.489
97.40000 5.116
97.42000 -0.947
97.44000 2.227
97.46000 0.291
97.48000 4.665
97.50000 4.423
97.52000 4.525
97.54000 4.964
97.56000 7.082
97.58000 7.419
97.60000 2.502
97.62000 7.650
97.64000 4.493
97.66000 7.903
97.68000 8.528
97.70000 7.878
97.72000 7.230
97.74000 10.319
97.76000 3.082
97.78000 3.034
97.80000 -2.162
97.82000 5.499
97.84000 13.338
97.86000 9.131
97.88000 9.938
97.90000 15.461
97.92000 11.188
97.94000 15.407
97.96000 12.346
97.98000 16.310
98.00000 16.884
98.02000 14.510
98.04000 14.729
98.06000 7.874
98.08000 -0.109
98.10000 -0.742
98.12000 6.392
98.14000 4.954
98.16000 10.573
98.18000 -0.547
98.20000 8.087
98.22000 7.237
98.24000 2.688
98.26000 2.868
98.28000 8.599
98.30000 9.082
98.32000 4.635
98.34000 3.335
98.36000 8.017
98.38000 4.442
98.40000 9.624
98.42000 8.957
98.44000 10.508
98.46000 6.522
98.48000 -2.125
98.50000 1.649
98.52000 6.545
98.54000 12.562
98.56000 8.758
98.58000 9.485
98.60000 5.663
98.62000 10.752
98.64000 9.573
98.66000 13.769
98.68000 3.352
98.70000 -2.158
98.72000 7.379
98.74000 8.071
98.76000 3.528
98.78000 6.586
98.80000 3.322
98.82000 12.859
98.84000 8.857
98.86000 0.044
98.88000 8.114
98.90000 14.912
98.92000 17.575
98.94000 14.776
98.96000 10.798
98.98000 16.585
99.00000 14.694
99.02000 9.001
99.04000 3.014
99.06000 10.469
99.08000 11.678
99.10000 8.444
99.12000 8.831
99.14000 17.195
99.16000 9.874
99.18000 4.538
99.20000 7.221
99.22000 5.002
99.24000 -0.793
99.26000 4.141
99.28000 10.303
99.30000 6.652
99.32000 5.089
99.34000 8.790
99.36000 12.293
99.38000 9.098
99.40000 13.233
99.42000 11.312
99.44000 3.300
99.46000 -2.149
99.48000 -1.542
99.50000 -0.469
99.52000 3.674
99.54000 3.353
99.56000 4.305
99.58000 1.786
99.60000 0.155
99.62000 6.919
99.64000 5.254
99.66000 2.928
99.68000 9.718
99.70000 6.533
99.72000 1.565
99.74000 8.953
99.76000 15.757
99.78000 16.391
99.80000 12.683
99.82000 6.732
99.84000 14.157
99.86000 12.685
99.88000 8.199
99.90000 -1.527
99.92000 -2.273
99.94000 2.162
99.96000 3.639
99.98000 0.000
