'Id: "0011387" Comment: "Integrate frame 0011387_Au-Ir-Rh_Rh-rich_XRD-Mapping-259-0000.gfrmwith cursor Wedge Cursor #5" Operator: "B?rgel" Anode: "Cu" Wavelength: "1.5406" Scantype: "2Theta (TwoTheta)" TimePerStep: "1" X: "40.5" Y: "18" Z: "5.95" 
10.00000 0.000
10.02000 -2.965
10.04000 1.249
10.06000 11.113
10.08000 16.653
10.10000 3.721
10.12000 12.720
10.14000 18.750
10.16000 19.286
10.18000 20.431
10.20000 11.519
10.22000 10.798
10.24000 23.623
10.26000 20.790
10.28000 11.370
10.30000 17.421
10.32000 25.810
10.34000 25.715
10.36000 25.167
10.38000 28.969
10.40000 29.508
10.42000 33.289
10.44000 30.864
10.46000 23.277
10.48000 20.715
10.50000 22.802
10.52000 29.070
10.54000 20.224
10.56000 19.132
10.58000 28.820
10.60000 35.246
10.62000 25.931
10.64000 23.701
10.66000 21.402
10.68000 9.432
10.70000 18.232
10.72000 28.176
10.74000 32.768
10.76000 26.939
10.78000 29.646
10.80000 29.366
10.82000 26.535
10.84000 18.999
10.86000 28.728
10.88000 35.903
10.90000 45.263
10.92000 42.467
10.94000 50.210
10.96000 55.154
10.98000 37.510
11.00000 24.944
11.02000 39.913
11.04000 35.045
11.06000 34.159
11.08000 28.474
11.10000 42.374
11.12000 38.541
11.14000 33.585
11.16000 35.122
11.18000 32.805
11.20000 49.109
11.22000 45.874
11.24000 39.155
11.26000 42.934
11.28000 46.241
11.30000 41.823
11.32000 42.530
11.34000 36.029
11.36000 40.777
11.38000 48.202
11.40000 49.817
11.42000 49.329
11.44000 39.108
11.46000 32.098
11.48000 29.469
11.50000 32.289
11.52000 45.912
11.54000 37.747
11.56000 39.875
11.58000 46.750
11.60000 44.008
11.62000 50.883
11.64000 43.285
11.66000 37.374
11.68000 45.310
11.70000 41.182
11.72000 46.392
11.74000 59.931
11.76000 55.585
11.78000 45.858
11.80000 40.172
11.82000 42.800
11.84000 38.997
11.86000 41.051
11.88000 47.403
11.90000 47.241
11.92000 51.852
11.94000 53.920
11.96000 58.034
11.98000 50.901
12.00000 52.031
12.02000 53.636
12.04000 61.263
12.06000 57.160
12.08000 48.514
12.10000 53.989
12.12000 62.527
12.14000 56.121
12.16000 46.609
12.18000 44.804
12.20000 45.559
12.22000 49.339
12.24000 45.599
12.26000 57.385
12.28000 66.081
12.30000 48.941
12.32000 48.319
12.34000 50.048
12.36000 42.819
12.38000 50.894
12.40000 52.829
12.42000 52.746
12.44000 60.483
12.46000 57.925
12.48000 55.390
12.50000 56.067
12.52000 53.752
12.54000 56.105
12.56000 50.528
12.58000 51.268
12.60000 57.739
12.62000 51.459
12.64000 55.732
12.66000 45.784
12.68000 52.582
12.70000 61.758
12.72000 57.627
12.74000 53.874
12.76000 47.497
12.78000 54.524
12.80000 52.388
12.82000 61.300
12.84000 64.799
12.86000 48.985
12.88000 49.478
12.90000 55.734
12.92000 52.544
12.94000 57.511
12.96000 60.769
12.98000 55.634
13.00000 46.750
13.02000 54.110
13.04000 57.720
13.06000 55.054
13.08000 53.306
13.10000 60.269
13.12000 61.868
13.14000 58.276
13.16000 51.388
13.18000 53.971
13.20000 48.112
13.22000 49.539
13.24000 61.700
13.26000 55.044
13.28000 49.897
13.30000 57.439
13.32000 55.831
13.34000 49.034
13.36000 51.694
13.38000 55.790
13.40000 49.702
13.42000 51.978
13.44000 57.594
13.46000 55.596
13.48000 54.732
13.50000 40.290
13.52000 37.916
13.54000 49.013
13.56000 54.799
13.58000 46.632
13.60000 43.568
13.62000 46.937
13.64000 53.540
13.66000 49.905
13.68000 50.411
13.70000 50.399
13.72000 47.901
13.74000 48.354
13.76000 55.739
13.78000 57.264
13.80000 53.624
13.82000 48.992
13.84000 47.806
13.86000 54.830
13.88000 57.111
13.90000 48.276
13.92000 51.922
13.94000 48.992
13.96000 45.199
13.98000 49.382
14.00000 56.609
14.02000 50.583
14.04000 53.389
14.06000 60.387
14.08000 54.280
14.10000 45.899
14.12000 51.432
14.14000 49.368
14.16000 55.547
14.18000 44.964
14.20000 40.786
14.22000 46.246
14.24000 47.377
14.26000 48.772
14.28000 43.750
14.30000 43.348
14.32000 44.688
14.34000 55.602
14.36000 55.117
14.38000 46.908
14.40000 43.523
14.42000 44.235
14.44000 46.870
14.46000 41.988
14.48000 37.249
14.50000 37.795
14.52000 42.391
14.54000 43.932
14.56000 40.148
14.58000 36.297
14.60000 48.818
14.62000 45.685
14.64000 33.670
14.66000 42.572
14.68000 48.984
14.70000 41.570
14.72000 36.162
14.74000 40.079
14.76000 36.349
14.78000 35.908
14.80000 35.083
14.82000 33.957
14.84000 37.626
14.86000 29.618
14.88000 25.171
14.90000 35.992
14.92000 47.385
14.94000 41.449
14.96000 42.818
14.98000 44.513
15.00000 35.346
15.02000 26.712
15.04000 43.942
15.06000 39.735
15.08000 39.073
15.10000 35.591
15.12000 32.182
15.14000 37.354
15.16000 31.138
15.18000 30.560
15.20000 27.064
15.22000 37.793
15.24000 34.224
15.26000 27.013
15.28000 26.011
15.30000 37.349
15.32000 40.620
15.34000 32.091
15.36000 31.947
15.38000 32.085
15.40000 39.927
15.42000 44.205
15.44000 39.821
15.46000 39.070
15.48000 32.955
15.50000 27.404
15.52000 22.870
15.54000 19.290
15.56000 25.695
15.58000 27.305
15.60000 27.549
15.62000 31.665
15.64000 30.765
15.66000 30.855
15.68000 20.740
15.70000 22.797
15.72000 28.055
15.74000 30.940
15.76000 31.422
15.78000 33.014
15.80000 31.053
15.82000 28.375
15.84000 31.438
15.86000 33.899
15.88000 24.105
15.90000 25.361
15.92000 18.766
15.94000 13.988
15.96000 26.268
15.98000 33.360
16.00000 30.847
16.02000 23.990
16.04000 23.379
16.06000 25.251
16.08000 19.880
16.10000 25.580
16.12000 25.009
16.14000 35.111
16.16000 23.160
16.18000 12.735
16.20000 13.684
16.22000 17.951
16.24000 25.006
16.26000 28.490
16.28000 28.605
16.30000 15.869
16.32000 15.371
16.34000 22.825
16.36000 15.488
16.38000 19.372
16.40000 15.644
16.42000 21.797
16.44000 20.790
16.46000 20.024
16.48000 19.741
16.50000 23.873
16.52000 26.214
16.54000 17.390
16.56000 11.113
16.58000 20.662
16.60000 18.403
16.62000 10.946
16.64000 13.903
16.66000 14.593
16.68000 23.251
16.70000 19.608
16.72000 25.298
16.74000 21.011
16.76000 13.781
16.78000 26.716
16.80000 25.570
16.82000 20.186
16.84000 21.995
16.86000 18.720
16.88000 23.422
16.90000 23.055
16.92000 19.821
16.94000 22.142
16.96000 18.351
16.98000 15.170
17.00000 18.692
17.02000 19.857
17.04000 17.148
17.06000 17.942
17.08000 15.059
17.10000 9.708
17.12000 18.684
17.14000 18.046
17.16000 16.970
17.18000 23.600
17.20000 21.854
17.22000 17.227
17.24000 14.485
17.26000 14.151
17.28000 17.010
17.30000 18.122
17.32000 19.016
17.34000 19.988
17.36000 10.645
17.38000 12.214
17.40000 10.751
17.42000 13.410
17.44000 14.974
17.46000 11.143
17.48000 12.052
17.50000 12.869
17.52000 17.898
17.54000 19.286
17.56000 19.484
17.58000 15.277
17.60000 13.138
17.62000 11.882
17.64000 7.298
17.66000 12.164
17.68000 14.237
17.70000 11.726
17.72000 14.093
17.74000 16.483
17.76000 14.392
17.78000 14.771
17.80000 9.180
17.82000 8.495
17.84000 8.779
17.86000 5.821
17.88000 4.763
17.90000 9.240
17.92000 12.528
17.94000 14.234
17.96000 10.942
17.98000 12.028
18.00000 24.622
18.02000 27.469
18.04000 18.032
18.06000 10.078
18.08000 11.032
18.10000 11.185
18.12000 14.296
18.14000 11.476
18.16000 8.590
18.18000 3.924
18.20000 3.661
18.22000 9.386
18.24000 12.689
18.26000 15.774
18.28000 9.739
18.30000 9.801
18.32000 6.558
18.34000 8.444
18.36000 5.305
18.38000 8.173
18.40000 7.801
18.42000 8.785
18.44000 11.938
18.46000 12.261
18.48000 12.735
18.50000 7.340
18.52000 -4.289
18.54000 0.230
18.56000 15.572
18.58000 11.493
18.60000 11.613
18.62000 13.659
18.64000 7.208
18.66000 1.556
18.68000 -1.021
18.70000 4.437
18.72000 11.162
18.74000 7.035
18.76000 1.096
18.78000 4.020
18.80000 3.550
18.82000 7.408
18.84000 9.960
18.86000 5.576
18.88000 5.437
18.90000 9.895
18.92000 13.632
18.94000 10.269
18.96000 6.719
18.98000 5.359
19.00000 5.236
19.02000 8.051
19.04000 10.498
19.06000 7.673
19.08000 10.268
19.10000 10.538
19.12000 4.763
19.14000 5.128
19.16000 8.168
19.18000 7.107
19.20000 11.265
19.22000 10.848
19.24000 5.894
19.26000 3.918
19.28000 5.113
19.30000 11.191
19.32000 15.882
19.34000 10.379
19.36000 0.273
19.38000 8.664
19.40000 10.429
19.42000 8.592
19.44000 -4.246
19.46000 1.556
19.48000 9.018
19.50000 10.730
19.52000 9.591
19.54000 6.278
19.56000 9.552
19.58000 7.347
19.60000 1.379
19.62000 0.889
19.64000 5.548
19.66000 12.311
19.68000 10.567
19.70000 4.617
19.72000 4.045
19.74000 7.588
19.76000 7.888
19.78000 7.809
19.80000 -1.298
19.82000 -4.230
19.84000 -0.254
19.86000 -0.933
19.88000 4.089
19.90000 12.626
19.92000 2.830
19.94000 -2.063
19.96000 -0.398
19.98000 9.486
20.00000 7.593
20.02000 7.971
20.04000 7.433
20.06000 5.077
20.08000 5.761
20.10000 5.949
20.12000 7.735
20.14000 4.674
20.16000 0.263
20.18000 1.224
20.20000 -0.500
20.22000 5.467
20.24000 7.532
20.26000 2.931
20.28000 6.257
20.30000 7.635
20.32000 7.248
20.34000 8.799
20.36000 6.591
20.38000 2.574
20.40000 6.318
20.42000 12.209
20.44000 5.197
20.46000 1.304
20.48000 2.258
20.50000 4.886
20.52000 8.032
20.54000 6.962
20.56000 3.438
20.58000 3.437
20.60000 4.658
20.62000 5.808
20.64000 3.917
20.66000 6.695
20.68000 4.410
20.70000 -0.773
20.72000 3.125
20.74000 3.612
20.76000 1.898
20.78000 3.541
20.80000 2.873
20.82000 6.743
20.84000 -0.568
20.86000 -0.857
20.88000 -1.590
20.90000 -1.095
20.92000 3.212
20.94000 4.781
20.96000 3.971
20.98000 6.734
21.00000 3.037
21.02000 1.770
21.04000 5.415
21.06000 3.773
21.08000 4.492
21.10000 -4.186
21.12000 -2.635
21.14000 1.592
21.16000 4.380
21.18000 2.817
21.20000 1.634
21.22000 4.848
21.24000 6.361
21.26000 4.543
21.28000 2.770
21.30000 -0.251
21.32000 2.173
21.34000 8.281
21.36000 4.918
21.38000 9.068
21.40000 5.456
21.42000 5.230
21.44000 9.207
21.46000 11.077
21.48000 8.727
21.50000 10.963
21.52000 3.467
21.54000 6.063
21.56000 7.034
21.58000 2.990
21.60000 0.796
21.62000 0.646
21.64000 5.158
21.66000 10.894
21.68000 5.709
21.70000 3.657
21.72000 6.572
21.74000 1.071
21.76000 3.478
21.78000 4.571
21.80000 4.389
21.82000 1.691
21.84000 9.296
21.86000 11.216
21.88000 10.736
21.90000 5.249
21.92000 5.114
21.94000 5.524
21.96000 -0.097
21.98000 7.085
22.00000 7.434
22.02000 4.283
22.04000 0.470
22.06000 5.793
22.08000 11.891
22.10000 16.822
22.12000 13.763
22.14000 1.684
22.16000 4.164
22.18000 7.957
22.20000 10.684
22.22000 -0.680
22.24000 -4.095
22.26000 -2.200
22.28000 0.990
22.30000 7.658
22.32000 11.350
22.34000 10.120
22.36000 10.244
22.38000 10.802
22.40000 0.120
22.42000 2.169
22.44000 10.468
22.46000 12.995
22.48000 10.114
22.50000 8.416
22.52000 10.462
22.54000 3.890
22.56000 4.171
22.58000 3.684
22.60000 6.739
22.62000 15.480
22.64000 13.332
22.66000 11.614
22.68000 12.638
22.70000 5.578
22.72000 6.916
22.74000 6.626
22.76000 -1.298
22.78000 3.613
22.80000 7.664
22.82000 4.668
22.84000 10.751
22.86000 0.991
22.88000 3.556
22.90000 8.462
22.92000 12.938
22.94000 13.009
22.96000 5.714
22.98000 7.007
23.00000 6.235
23.02000 3.122
23.04000 9.821
23.06000 10.709
23.08000 6.422
23.10000 4.620
23.12000 2.278
23.14000 6.386
23.16000 7.103
23.18000 -4.033
23.20000 -1.510
23.22000 5.555
23.24000 5.292
23.26000 8.887
23.28000 14.690
23.30000 12.018
23.32000 13.014
23.34000 12.735
23.36000 15.140
23.38000 6.816
23.40000 2.986
23.42000 2.809
23.44000 6.731
23.46000 8.309
23.48000 0.604
23.50000 5.902
23.52000 8.348
23.54000 8.618
23.56000 8.412
23.58000 4.928
23.60000 1.816
23.62000 4.962
23.64000 4.170
23.66000 2.866
23.68000 3.106
23.70000 9.585
23.72000 5.194
23.74000 5.295
23.76000 7.362
23.78000 8.111
23.80000 7.405
23.82000 7.079
23.84000 1.177
23.86000 1.248
23.88000 2.045
23.90000 5.031
23.92000 4.479
23.94000 2.631
23.96000 4.656
23.98000 7.180
24.00000 5.734
24.02000 7.661
24.04000 4.234
24.06000 -0.651
24.08000 0.965
24.10000 1.394
24.12000 6.051
24.14000 6.249
24.16000 3.932
24.18000 -0.106
24.20000 -0.197
24.22000 6.112
24.24000 6.165
24.26000 6.685
24.28000 3.561
24.30000 3.319
24.32000 2.897
24.34000 0.097
24.36000 -2.831
24.38000 -1.286
24.40000 2.129
24.42000 0.450
24.44000 -0.724
24.46000 -4.003
24.48000 -0.801
24.50000 2.109
24.52000 8.566
24.54000 11.577
24.56000 4.247
24.58000 -0.204
24.60000 4.753
24.62000 3.230
24.64000 1.176
24.66000 3.319
24.68000 3.831
24.70000 1.870
24.72000 1.909
24.74000 2.770
24.76000 7.422
24.78000 2.538
24.80000 -3.994
24.82000 -1.273
24.84000 9.659
24.86000 4.883
24.88000 -1.366
24.90000 -1.562
24.92000 -0.534
24.94000 -1.700
24.96000 0.986
24.98000 -2.872
25.00000 0.659
25.02000 1.826
25.04000 5.819
25.06000 3.842
25.08000 2.588
25.10000 -0.613
25.12000 0.574
25.14000 4.886
25.16000 4.706
25.18000 1.008
25.20000 0.892
25.22000 3.363
25.24000 4.819
25.26000 -1.009
25.28000 -0.764
25.30000 2.305
25.32000 -0.581
25.34000 0.395
25.36000 -1.007
25.38000 3.255
25.40000 1.313
25.42000 -0.688
25.44000 0.517
25.46000 1.960
25.48000 0.057
25.50000 2.414
25.52000 2.643
25.54000 -3.045
25.56000 4.302
25.58000 8.861
25.60000 6.976
25.62000 6.307
25.64000 8.070
25.66000 1.771
25.68000 -1.751
25.70000 -3.277
25.72000 -2.298
25.74000 -2.993
25.76000 1.893
25.78000 1.595
25.80000 4.141
25.82000 2.567
25.84000 5.701
25.86000 2.959
25.88000 0.035
25.90000 0.620
25.92000 4.150
25.94000 4.513
25.96000 4.687
25.98000 2.886
26.00000 1.974
26.02000 1.717
26.04000 1.278
26.06000 0.641
26.08000 -0.634
26.10000 0.062
26.12000 1.808
26.14000 7.116
26.16000 2.831
26.18000 2.002
26.20000 -3.908
26.22000 0.975
26.24000 6.111
26.26000 5.247
26.28000 2.157
26.30000 -3.012
26.32000 0.596
26.34000 11.288
26.36000 6.462
26.38000 6.112
26.40000 12.344
26.42000 9.333
26.44000 7.843
26.46000 7.424
26.48000 6.208
26.50000 6.575
26.52000 5.028
26.54000 1.953
26.56000 0.926
26.58000 -0.016
26.60000 8.096
26.62000 3.858
26.64000 -2.530
26.66000 1.403
26.68000 4.271
26.70000 1.298
26.72000 3.356
26.74000 2.181
26.76000 3.286
26.78000 0.973
26.80000 9.110
26.82000 4.355
26.84000 -0.877
26.86000 1.830
26.88000 -2.065
26.90000 -0.181
26.92000 3.808
26.94000 2.322
26.96000 2.974
26.98000 4.283
27.00000 0.502
27.02000 4.579
27.04000 -0.634
27.06000 -3.885
27.08000 -3.180
27.10000 -2.727
27.12000 -1.622
27.14000 -1.129
27.16000 0.694
27.18000 4.846
27.20000 1.433
27.22000 1.726
27.24000 2.107
27.26000 -0.168
27.28000 0.623
27.30000 1.393
27.32000 -3.200
27.34000 -3.334
27.36000 -2.220
27.38000 -2.059
27.40000 1.913
27.42000 2.310
27.44000 -2.582
27.46000 -3.589
27.48000 1.547
27.50000 3.446
27.52000 4.324
27.54000 1.118
27.56000 6.381
27.58000 1.942
27.60000 0.170
27.62000 1.325
27.64000 3.430
27.66000 0.594
27.68000 2.263
27.70000 1.752
27.72000 -2.720
27.74000 -2.015
27.76000 -0.002
27.78000 -3.847
27.80000 -0.599
27.82000 0.201
27.84000 -0.609
27.86000 -0.955
27.88000 1.092
27.90000 1.458
27.92000 -0.996
27.94000 -0.064
27.96000 4.191
27.98000 1.384
28.00000 2.648
28.02000 6.881
28.04000 -1.931
28.06000 1.347
28.08000 2.227
28.10000 0.260
28.12000 0.138
28.14000 -2.678
28.16000 -2.809
28.18000 0.605
28.20000 4.837
28.22000 4.234
28.24000 6.309
28.26000 7.702
28.28000 3.926
28.30000 -0.052
28.32000 6.403
28.34000 3.529
28.36000 -0.855
28.38000 0.888
28.40000 1.172
28.42000 1.443
28.44000 -0.134
28.46000 -1.361
28.48000 0.122
28.50000 0.388
28.52000 -1.445
28.54000 -0.857
28.56000 -2.965
28.58000 -1.570
28.60000 0.349
28.62000 4.171
28.64000 4.114
28.66000 3.627
28.68000 5.457
28.70000 -0.100
28.72000 2.274
28.74000 1.440
28.76000 4.773
28.78000 6.876
28.80000 2.044
28.82000 2.977
28.84000 4.671
28.86000 0.757
28.88000 -3.780
28.90000 0.243
28.92000 7.237
28.94000 4.217
28.96000 4.278
28.98000 3.771
29.00000 6.339
29.02000 2.372
29.04000 -1.854
29.06000 -3.183
29.08000 0.163
29.10000 4.181
29.12000 6.646
29.14000 3.358
29.16000 3.116
29.18000 -1.087
29.20000 0.468
29.22000 2.818
29.24000 -0.274
29.26000 -0.893
29.28000 -1.080
29.30000 2.956
29.32000 0.262
29.34000 -1.966
29.36000 2.033
29.38000 3.812
29.40000 5.316
29.42000 4.839
29.44000 3.097
29.46000 2.461
29.48000 0.301
29.50000 1.285
29.52000 4.129
29.54000 -2.055
29.56000 -0.493
29.58000 2.750
29.60000 4.045
29.62000 3.678
29.64000 3.303
29.66000 5.590
29.68000 3.936
29.70000 -0.438
29.72000 -0.467
29.74000 3.132
29.76000 5.354
29.78000 3.437
29.80000 1.406
29.82000 2.926
29.84000 5.805
29.86000 4.742
29.88000 -2.868
29.90000 -1.205
29.92000 -3.718
29.94000 -0.178
29.96000 -0.272
29.98000 0.463
30.00000 0.496
30.02000 3.826
30.04000 4.119
30.06000 5.461
30.08000 2.599
30.10000 -0.526
30.12000 2.997
30.14000 3.492
30.16000 1.999
30.18000 5.445
30.20000 4.921
30.22000 0.171
30.24000 2.529
30.26000 -0.875
30.28000 -3.613
30.30000 1.197
30.32000 5.957
30.34000 8.096
30.36000 6.529
30.38000 0.975
30.40000 3.600
30.42000 2.839
30.44000 7.449
30.46000 2.808
30.48000 -0.296
30.50000 -1.873
30.52000 -3.210
30.54000 1.802
30.56000 7.019
30.58000 5.271
30.60000 -0.374
30.62000 1.132
30.64000 2.685
30.66000 -0.520
30.68000 -1.297
30.70000 2.637
30.72000 4.205
30.74000 6.478
30.76000 5.249
30.78000 7.562
30.80000 9.949
30.82000 12.536
30.84000 8.211
30.86000 3.119
30.88000 2.573
30.90000 0.003
30.92000 -3.669
30.94000 0.209
30.96000 3.424
30.98000 -0.775
31.00000 0.817
31.02000 0.508
31.04000 2.162
31.06000 0.960
31.08000 1.687
31.10000 1.659
31.12000 -3.009
31.14000 -3.002
31.16000 -3.661
31.18000 -1.273
31.20000 -0.028
31.22000 2.704
31.24000 1.495
31.26000 -0.081
31.28000 -0.876
31.30000 -1.026
31.32000 -2.118
31.34000 -1.116
31.36000 -2.452
31.38000 -2.926
31.40000 -2.252
31.42000 -0.859
31.44000 7.231
31.46000 1.802
31.48000 3.159
31.50000 7.006
31.52000 4.582
31.54000 0.137
31.56000 0.779
31.58000 1.348
31.60000 2.166
31.62000 3.782
31.64000 2.169
31.66000 2.032
31.68000 2.304
31.70000 2.257
31.72000 0.331
31.74000 3.107
31.76000 -0.109
31.78000 -3.635
31.80000 1.910
31.82000 1.674
31.84000 0.122
31.86000 3.288
31.88000 5.354
31.90000 10.435
31.92000 10.380
31.94000 6.299
31.96000 0.207
31.98000 0.450
32.00000 2.733
32.02000 4.362
32.04000 0.686
32.06000 -2.048
32.08000 -0.947
32.10000 1.578
32.12000 -0.882
32.14000 -2.314
32.16000 1.660
32.18000 2.358
32.20000 -2.702
32.22000 1.644
32.24000 5.610
32.26000 5.465
32.28000 5.257
32.30000 3.144
32.32000 0.046
32.34000 0.796
32.36000 1.122
32.38000 4.328
32.40000 1.999
32.42000 1.317
32.44000 1.988
32.46000 -2.296
32.48000 -0.239
32.50000 -2.796
32.52000 -1.337
32.54000 3.696
32.56000 5.179
32.58000 3.699
32.60000 0.568
32.62000 4.502
32.64000 3.413
32.66000 -3.588
32.68000 -2.885
32.70000 -2.940
32.72000 -0.942
32.74000 1.728
32.76000 -1.055
32.78000 1.851
32.80000 3.822
32.82000 4.817
32.84000 1.066
32.86000 -2.859
32.88000 -0.823
32.90000 2.880
32.92000 2.633
32.94000 2.694
32.96000 3.620
32.98000 -2.071
33.00000 0.065
33.02000 9.543
33.04000 3.706
33.06000 -0.874
33.08000 -1.413
33.10000 1.817
33.12000 5.842
33.14000 4.778
33.16000 1.792
33.18000 1.082
33.20000 2.340
33.22000 6.233
33.24000 9.492
33.26000 7.452
33.28000 0.867
33.30000 2.675
33.32000 0.225
33.34000 2.535
33.36000 -0.551
33.38000 1.018
33.40000 -3.576
33.42000 3.083
33.44000 4.857
33.46000 2.440
33.48000 3.481
33.50000 2.879
33.52000 4.441
33.54000 6.169
33.56000 5.702
33.58000 4.903
33.60000 2.269
33.62000 2.350
33.64000 0.984
33.66000 0.427
33.68000 4.935
33.70000 2.229
33.72000 1.035
33.74000 2.747
33.76000 4.296
33.78000 4.668
33.80000 5.341
33.82000 8.007
33.84000 6.421
33.86000 5.423
33.88000 0.650
33.90000 -1.002
33.92000 4.288
33.94000 3.541
33.96000 3.276
33.98000 6.531
34.00000 6.894
34.02000 3.581
34.04000 5.195
34.06000 3.253
34.08000 0.676
34.10000 -2.328
34.12000 -1.752
34.14000 4.037
34.16000 0.874
34.18000 2.030
34.20000 -1.301
34.22000 1.639
34.24000 1.195
34.26000 -1.724
34.28000 2.236
34.30000 3.025
34.32000 5.719
34.34000 -3.014
34.36000 -0.671
34.38000 5.691
34.40000 6.850
34.42000 4.450
34.44000 5.593
34.46000 5.542
34.48000 5.101
34.50000 -0.077
34.52000 2.302
34.54000 -0.884
34.56000 -3.523
34.58000 -0.430
34.60000 1.048
34.62000 -3.559
34.64000 3.344
34.66000 3.503
34.68000 -0.885
34.70000 -0.727
34.72000 -1.972
34.74000 -0.840
34.76000 1.679
34.78000 -2.285
34.80000 -3.495
34.82000 -0.487
34.84000 -0.258
34.86000 7.384
34.88000 6.440
34.90000 5.212
34.92000 2.899
34.94000 2.548
34.96000 -1.253
34.98000 -2.109
35.00000 1.846
35.02000 -0.113
35.04000 1.481
35.06000 6.146
35.08000 1.378
35.10000 1.605
35.12000 6.020
35.14000 3.898
35.16000 -3.531
35.18000 -0.377
35.20000 1.278
35.22000 1.032
35.24000 1.623
35.26000 2.671
35.28000 4.021
35.30000 0.111
35.32000 0.612
35.34000 3.860
35.36000 4.577
35.38000 1.205
35.40000 3.344
35.42000 2.507
35.44000 2.021
35.46000 0.276
35.48000 4.723
35.50000 4.376
35.52000 5.370
35.54000 5.486
35.56000 9.765
35.58000 3.101
35.60000 5.639
35.62000 8.712
35.64000 4.517
35.66000 1.710
35.68000 1.739
35.70000 -0.113
35.72000 3.052
35.74000 10.054
35.76000 4.227
35.78000 0.546
35.80000 1.827
35.82000 3.764
35.84000 0.585
35.86000 -0.517
35.88000 1.325
35.90000 0.950
35.92000 -0.715
35.94000 -1.283
35.96000 -0.118
35.98000 3.860
36.00000 2.780
36.02000 -3.509
36.04000 1.223
36.06000 5.495
36.08000 5.966
36.10000 5.555
36.12000 3.132
36.14000 4.095
36.16000 4.176
36.18000 1.429
36.20000 4.318
36.22000 5.042
36.24000 -2.024
36.26000 2.761
36.28000 3.436
36.30000 2.396
36.32000 2.925
36.34000 3.759
36.36000 5.906
36.38000 1.437
36.40000 0.792
36.42000 5.694
36.44000 7.444
36.46000 3.294
36.48000 -0.208
36.50000 -1.773
36.52000 -1.083
36.54000 0.363
36.56000 2.856
36.58000 4.114
36.60000 6.448
36.62000 8.174
36.64000 6.177
36.66000 7.971
36.68000 2.877
36.70000 4.862
36.72000 8.622
36.74000 7.682
36.76000 5.276
36.78000 7.307
36.80000 3.512
36.82000 1.829
36.84000 -3.529
36.86000 -1.478
36.88000 2.451
36.90000 6.618
36.92000 7.168
36.94000 -2.874
36.96000 -0.522
36.98000 1.259
37.00000 7.305
37.02000 4.400
37.04000 1.152
37.06000 -0.620
37.08000 2.605
37.10000 8.232
37.12000 5.748
37.14000 7.983
37.16000 5.139
37.18000 -0.581
37.20000 5.950
37.22000 5.397
37.24000 4.283
37.26000 5.813
37.28000 2.708
37.30000 2.428
37.32000 4.297
37.34000 4.072
37.36000 0.784
37.38000 3.857
37.40000 -0.926
37.42000 -3.394
37.44000 0.097
37.46000 8.240
37.48000 6.112
37.50000 0.468
37.52000 -1.512
37.54000 0.759
37.56000 -3.571
37.58000 1.020
37.60000 -2.136
37.62000 0.846
37.64000 5.065
37.66000 10.387
37.68000 8.318
37.70000 6.534
37.72000 6.676
37.74000 7.065
37.76000 4.995
37.78000 2.806
37.80000 4.353
37.82000 8.746
37.84000 6.183
37.86000 6.180
37.88000 9.149
37.90000 8.824
37.92000 8.877
37.94000 7.400
37.96000 7.249
37.98000 7.509
38.00000 4.034
38.02000 5.150
38.04000 9.783
38.06000 11.960
38.08000 10.672
38.10000 12.591
38.12000 15.186
38.14000 10.474
38.16000 9.167
38.18000 12.598
38.20000 12.648
38.22000 11.575
38.24000 10.911
38.26000 15.449
38.28000 12.289
38.30000 9.244
38.32000 10.605
38.34000 14.062
38.36000 15.365
38.38000 14.407
38.40000 12.507
38.42000 12.867
38.44000 18.608
38.46000 20.356
38.48000 16.594
38.50000 15.991
38.52000 14.490
38.54000 13.037
38.56000 17.048
38.58000 21.869
38.60000 23.768
38.62000 21.369
38.64000 18.156
38.66000 18.025
38.68000 16.700
38.70000 19.021
38.72000 24.307
38.74000 25.268
38.76000 28.390
38.78000 27.281
38.80000 23.068
38.82000 22.507
38.84000 26.376
38.86000 28.119
38.88000 30.090
38.90000 32.626
38.92000 31.244
38.94000 34.442
38.96000 35.439
38.98000 37.159
39.00000 37.533
39.02000 35.564
39.04000 36.016
39.06000 40.036
39.08000 39.075
39.10000 42.788
39.12000 47.794
39.14000 55.351
39.16000 51.754
39.18000 51.416
39.20000 51.782
39.22000 50.173
39.24000 51.049
39.26000 54.704
39.28000 64.079
39.30000 67.192
39.32000 67.554
39.34000 65.939
39.36000 68.518
39.38000 74.697
39.40000 76.933
39.42000 79.024
39.44000 81.302
39.46000 90.739
39.48000 90.092
39.50000 93.906
39.52000 99.318
39.54000 105.577
39.56000 109.026
39.58000 117.898
39.60000 124.496
39.62000 130.555
39.64000 137.583
39.66000 138.608
39.68000 147.611
39.70000 151.944
39.72000 155.318
39.74000 165.752
39.76000 177.216
39.78000 190.439
39.80000 192.345
39.82000 198.258
39.84000 211.244
39.86000 229.128
39.88000 241.183
39.90000 251.203
39.92000 258.015
39.94000 268.914
39.96000 277.969
39.98000 300.179
40.00000 316.907
40.02000 329.562
40.04000 343.302
40.06000 356.443
40.08000 375.132
40.10000 388.397
40.12000 398.583
40.14000 424.426
40.16000 432.680
40.18000 443.933
40.20000 460.617
40.22000 470.313
40.24000 477.246
40.26000 484.183
40.28000 493.439
40.30000 501.639
40.32000 506.342
40.34000 512.178
40.36000 516.646
40.38000 517.076
40.40000 523.007
40.42000 515.490
40.44000 518.883
40.46000 510.870
40.48000 505.020
40.50000 497.140
40.52000 492.772
40.54000 481.551
40.56000 477.238
40.58000 473.940
40.60000 453.726
40.62000 437.304
40.64000 422.605
40.66000 403.051
40.68000 390.809
40.70000 373.478
40.72000 375.041
40.74000 362.963
40.76000 337.523
40.78000 323.280
40.80000 314.220
40.82000 298.735
40.84000 283.896
40.86000 269.267
40.88000 254.974
40.90000 242.919
40.92000 239.418
40.94000 221.251
40.96000 214.555
40.98000 208.895
41.00000 193.053
41.02000 177.403
41.04000 169.376
41.06000 160.259
41.08000 152.416
41.10000 155.129
41.12000 146.970
41.14000 138.606
41.16000 130.804
41.18000 118.377
41.20000 118.844
41.22000 111.531
41.24000 101.716
41.26000 96.489
41.28000 90.482
41.30000 87.399
41.32000 86.514
41.34000 79.969
41.36000 74.066
41.38000 72.989
41.40000 67.193
41.42000 65.822
41.44000 60.581
41.46000 57.236
41.48000 57.470
41.50000 55.024
41.52000 48.524
41.54000 49.197
41.56000 45.179
41.58000 39.763
41.60000 41.293
41.62000 41.746
41.64000 38.787
41.66000 40.369
41.68000 37.046
41.70000 34.424
41.72000 30.670
41.74000 28.376
41.76000 28.446
41.78000 27.446
41.80000 23.267
41.82000 20.497
41.84000 20.659
41.86000 20.565
41.88000 21.954
41.90000 19.986
41.92000 18.669
41.94000 15.844
41.96000 16.760
41.98000 16.509
42.00000 12.329
42.02000 15.823
42.04000 18.099
42.06000 18.498
42.08000 12.544
42.10000 8.696
42.12000 7.508
42.14000 4.427
42.16000 5.373
42.18000 7.152
42.20000 13.640
42.22000 13.539
42.24000 10.204
42.26000 1.956
42.28000 6.450
42.30000 3.983
42.32000 4.370
42.34000 7.959
42.36000 8.021
42.38000 4.486
42.40000 0.777
42.42000 0.526
42.44000 4.434
42.46000 2.640
42.48000 4.620
42.50000 6.812
42.52000 3.942
42.54000 4.496
42.56000 7.750
42.58000 4.261
42.60000 3.371
42.62000 2.167
42.64000 5.373
42.66000 5.644
42.68000 5.899
42.70000 7.198
42.72000 5.609
42.74000 3.360
42.76000 7.174
42.78000 5.730
42.80000 2.606
42.82000 1.440
42.84000 -1.461
42.86000 -1.696
42.88000 0.624
42.90000 4.677
42.92000 3.570
42.94000 -0.232
42.96000 -3.294
42.98000 -0.597
43.00000 0.440
43.02000 1.719
43.04000 1.501
43.06000 -1.044
43.08000 -1.888
43.10000 3.493
43.12000 5.554
43.14000 0.859
43.16000 1.635
43.18000 2.056
43.20000 1.289
43.22000 -1.024
43.24000 3.088
43.26000 1.239
43.28000 0.383
43.30000 -0.648
43.32000 0.871
43.34000 1.599
43.36000 3.434
43.38000 -3.424
43.40000 -2.155
43.42000 2.422
43.44000 5.571
43.46000 0.712
43.48000 0.873
43.50000 -0.390
43.52000 -1.881
43.54000 -3.407
43.56000 -3.278
43.58000 -1.469
43.60000 0.370
43.62000 3.430
43.64000 3.372
43.66000 2.516
43.68000 0.917
43.70000 0.844
43.72000 -2.357
43.74000 -1.947
43.76000 0.980
43.78000 -0.502
43.80000 -1.306
43.82000 -2.670
43.84000 -1.384
43.86000 -3.384
43.88000 -1.674
43.90000 -0.927
43.92000 -3.381
43.94000 -2.501
43.96000 1.262
43.98000 2.904
44.00000 2.765
44.02000 -2.075
44.04000 -2.189
44.06000 0.741
44.08000 -1.499
44.10000 -1.579
44.12000 -1.019
44.14000 0.612
44.16000 0.290
44.18000 -1.351
44.20000 1.837
44.22000 4.667
44.24000 4.319
44.26000 2.482
44.28000 0.957
44.30000 2.708
44.32000 2.562
44.34000 1.740
44.36000 0.964
44.38000 -1.936
44.40000 -3.250
44.42000 1.165
44.44000 -1.277
44.46000 -2.842
44.48000 -2.394
44.50000 -2.167
44.52000 -0.123
44.54000 1.243
44.56000 1.749
44.58000 2.591
44.60000 0.646
44.62000 -3.369
44.64000 -2.582
44.66000 -1.130
44.68000 -0.379
44.70000 -0.259
44.72000 -0.187
44.74000 -0.190
44.76000 -0.447
44.78000 -2.272
44.80000 -3.129
44.82000 -1.003
44.84000 1.477
44.86000 -3.347
44.88000 -1.792
44.90000 0.060
44.92000 0.467
44.94000 1.180
44.96000 0.215
44.98000 3.064
45.00000 5.201
45.02000 7.369
45.04000 0.355
45.06000 -1.707
45.08000 0.946
45.10000 2.408
45.12000 7.170
45.14000 1.947
45.16000 -1.786
45.18000 2.863
45.20000 6.073
45.22000 5.333
45.24000 6.446
45.26000 6.783
45.28000 6.260
45.30000 5.653
45.32000 5.603
45.34000 0.542
45.36000 2.860
45.38000 9.137
45.40000 11.139
45.42000 11.740
45.44000 9.875
45.46000 6.599
45.48000 7.234
45.50000 7.839
45.52000 10.311
45.54000 6.632
45.56000 12.175
45.58000 18.393
45.60000 16.826
45.62000 15.527
45.64000 16.121
45.66000 16.619
45.68000 8.328
45.70000 9.223
45.72000 8.691
45.74000 11.681
45.76000 14.430
45.78000 15.742
45.80000 15.864
45.82000 12.647
45.84000 11.052
45.86000 12.252
45.88000 19.171
45.90000 26.248
45.92000 26.183
45.94000 23.942
45.96000 26.284
45.98000 22.760
46.00000 25.362
46.02000 22.550
46.04000 22.581
46.06000 23.856
46.08000 27.222
46.10000 30.325
46.12000 21.713
46.14000 25.329
46.16000 31.984
46.18000 35.598
46.20000 37.713
46.22000 36.935
46.24000 34.549
46.26000 39.994
46.28000 40.279
46.30000 38.614
46.32000 41.833
46.34000 42.219
46.36000 48.507
46.38000 43.240
46.40000 39.749
46.42000 43.615
46.44000 47.907
46.46000 49.547
46.48000 50.980
46.50000 52.070
46.52000 53.452
46.54000 50.723
46.56000 57.967
46.58000 54.600
46.60000 56.151
46.62000 57.241
46.64000 60.460
46.66000 55.859
46.68000 60.673
46.70000 67.193
46.72000 63.397
46.74000 67.068
46.76000 69.487
46.78000 69.901
46.80000 74.896
46.82000 76.827
46.84000 74.507
46.86000 78.021
46.88000 78.908
46.90000 71.443
46.92000 72.153
46.94000 74.631
46.96000 74.187
46.98000 71.080
47.00000 78.273
47.02000 76.243
47.04000 75.535
47.06000 71.397
47.08000 76.169
47.10000 78.239
47.12000 80.008
47.14000 75.091
47.16000 70.898
47.18000 78.347
47.20000 75.359
47.22000 70.597
47.24000 71.624
47.26000 67.068
47.28000 73.891
47.30000 70.058
47.32000 60.825
47.34000 65.953
47.36000 64.694
47.38000 70.026
47.40000 64.137
47.42000 67.167
47.44000 64.698
47.46000 55.998
47.48000 56.220
47.50000 56.289
47.52000 56.348
47.54000 52.055
47.56000 49.385
47.58000 55.790
47.60000 50.958
47.62000 48.629
47.64000 45.496
47.66000 40.981
47.68000 40.537
47.70000 41.953
47.72000 41.528
47.74000 43.961
47.76000 41.771
47.78000 38.674
47.80000 29.213
47.82000 25.768
47.84000 28.955
47.86000 28.905
47.88000 32.433
47.90000 29.108
47.92000 27.766
47.94000 24.461
47.96000 21.190
47.98000 21.213
48.00000 19.120
48.02000 21.245
48.04000 17.554
48.06000 16.004
48.08000 18.883
48.10000 13.727
48.12000 11.288
48.14000 13.058
48.16000 8.309
48.18000 10.881
48.20000 8.975
48.22000 11.894
48.24000 13.644
48.26000 12.188
48.28000 11.271
48.30000 7.720
48.32000 2.474
48.34000 8.561
48.36000 4.725
48.38000 2.092
48.40000 4.470
48.42000 5.199
48.44000 3.025
48.46000 3.056
48.48000 1.323
48.50000 2.033
48.52000 3.503
48.54000 7.831
48.56000 10.641
48.58000 7.141
48.60000 3.467
48.62000 5.252
48.64000 6.393
48.66000 6.608
48.68000 3.501
48.70000 0.898
48.72000 -0.696
48.74000 0.031
48.76000 0.824
48.78000 0.115
48.80000 -3.027
48.82000 -0.230
48.84000 -1.702
48.86000 -0.002
48.88000 -0.212
48.90000 0.334
48.92000 1.234
48.94000 0.097
48.96000 -2.592
48.98000 -0.901
49.00000 0.078
49.02000 0.420
49.04000 2.426
49.06000 0.131
49.08000 -0.267
49.10000 0.010
49.12000 -2.974
49.14000 1.971
49.16000 -0.410
49.18000 3.455
49.20000 5.759
49.22000 0.052
49.24000 1.964
49.26000 4.289
49.28000 3.100
49.30000 1.600
49.32000 -1.066
49.34000 -1.820
49.36000 -0.531
49.38000 -1.646
49.40000 -1.324
49.42000 2.706
49.44000 8.255
49.46000 6.902
49.48000 4.712
49.50000 3.623
49.52000 2.715
49.54000 4.690
49.56000 2.856
49.58000 -0.040
49.60000 2.110
49.62000 8.134
49.64000 7.225
49.66000 2.542
49.68000 -1.172
49.70000 -2.882
49.72000 1.545
49.74000 4.286
49.76000 1.852
49.78000 4.284
49.80000 5.240
49.82000 7.234
49.84000 -1.614
49.86000 -0.252
49.88000 -1.910
49.90000 -2.847
49.92000 -0.956
49.94000 -0.972
49.96000 4.220
49.98000 4.883
50.00000 5.027
50.02000 5.398
50.04000 0.107
50.06000 0.209
50.08000 4.178
50.10000 2.381
50.12000 4.129
50.14000 4.832
50.16000 8.345
50.18000 4.483
50.20000 2.358
50.22000 3.749
50.24000 3.768
50.26000 3.864
50.28000 4.912
50.30000 2.674
50.32000 -2.802
50.34000 3.573
50.36000 6.731
50.38000 5.791
50.40000 5.137
50.42000 5.069
50.44000 7.724
50.46000 3.356
50.48000 6.260
50.50000 4.114
50.52000 5.178
50.54000 6.389
50.56000 9.284
50.58000 8.409
50.60000 6.541
50.62000 7.038
50.64000 2.368
50.66000 1.959
50.68000 -0.017
50.70000 0.167
50.72000 4.287
50.74000 0.532
50.76000 -0.540
50.78000 4.948
50.80000 5.051
50.82000 0.586
50.84000 -2.758
50.86000 -2.686
50.88000 -0.447
50.90000 4.010
50.92000 8.286
50.94000 7.196
50.96000 4.272
50.98000 3.549
51.00000 7.194
51.02000 8.416
51.04000 4.858
51.06000 3.576
51.08000 7.141
51.10000 4.650
51.12000 7.475
51.14000 5.984
51.16000 3.341
51.18000 7.245
51.20000 4.123
51.22000 5.671
51.24000 1.780
51.26000 3.428
51.28000 4.110
51.30000 -1.010
51.32000 0.605
51.34000 2.892
51.36000 2.889
51.38000 0.653
51.40000 0.209
51.42000 6.544
51.44000 4.233
51.46000 4.538
51.48000 4.014
51.50000 0.644
51.52000 5.287
51.54000 4.955
51.56000 2.717
51.58000 -2.082
51.60000 1.600
51.62000 -0.140
51.64000 -0.158
51.66000 -1.023
51.68000 5.055
51.70000 -2.759
51.72000 -2.174
51.74000 2.286
51.76000 1.785
51.78000 2.303
51.80000 4.832
51.82000 2.906
51.84000 -0.430
51.86000 1.427
51.88000 0.676
51.90000 0.344
51.92000 1.818
51.94000 9.192
51.96000 7.328
51.98000 4.946
52.00000 5.610
52.02000 9.349
52.04000 7.238
52.06000 4.461
52.08000 5.761
52.10000 2.158
52.12000 1.207
52.14000 2.305
52.16000 3.404
52.18000 -0.099
52.20000 3.880
52.22000 3.857
52.24000 0.100
52.26000 1.963
52.28000 6.546
52.30000 -0.620
52.32000 0.040
52.34000 3.612
52.36000 7.492
52.38000 7.248
52.40000 6.169
52.42000 3.970
52.44000 -2.725
52.46000 -0.669
52.48000 4.078
52.50000 2.259
52.52000 4.040
52.54000 3.721
52.56000 -0.912
52.58000 -2.387
52.60000 -0.600
52.62000 1.431
52.64000 0.389
52.66000 2.557
52.68000 0.871
52.70000 -2.498
52.72000 0.306
52.74000 4.342
52.76000 10.500
52.78000 11.477
52.80000 9.915
52.82000 2.114
52.84000 1.755
52.86000 9.788
52.88000 7.495
52.90000 1.146
52.92000 1.233
52.94000 -0.119
52.96000 -0.839
52.98000 0.066
53.00000 2.672
53.02000 5.408
53.04000 4.647
53.06000 5.141
53.08000 7.560
53.10000 3.949
53.12000 -2.688
53.14000 -2.134
53.16000 -0.046
53.18000 2.919
53.20000 -1.908
53.22000 3.273
53.24000 3.172
53.26000 2.425
53.28000 3.488
53.30000 7.502
53.32000 4.353
53.34000 1.492
53.36000 -0.434
53.38000 -0.717
53.40000 2.241
53.42000 5.045
53.44000 9.842
53.46000 7.302
53.48000 6.690
53.50000 6.635
53.52000 5.978
53.54000 6.921
53.56000 3.411
53.58000 5.391
53.60000 4.558
53.62000 6.573
53.64000 3.123
53.66000 3.835
53.68000 -0.353
53.70000 -2.679
53.72000 2.017
53.74000 5.017
53.76000 4.466
53.78000 4.621
53.80000 0.603
53.82000 4.909
53.84000 2.318
53.86000 2.507
53.88000 -0.024
53.90000 2.001
53.92000 2.632
53.94000 -2.206
53.96000 0.053
53.98000 1.121
54.00000 6.390
54.02000 8.267
54.04000 2.063
54.06000 5.446
54.08000 7.659
54.10000 7.577
54.12000 6.445
54.14000 2.616
54.16000 3.383
54.18000 6.309
54.20000 4.449
54.22000 5.901
54.24000 6.956
54.26000 1.889
54.28000 6.806
54.30000 7.661
54.32000 5.631
54.34000 7.370
54.36000 4.614
54.38000 1.805
54.40000 0.881
54.42000 -2.661
54.44000 -1.739
54.46000 0.813
54.48000 0.301
54.50000 -0.301
54.52000 2.780
54.54000 3.600
54.56000 -0.862
54.58000 1.738
54.60000 2.808
54.62000 3.750
54.64000 0.384
54.66000 3.634
54.68000 6.571
54.70000 7.085
54.72000 3.530
54.74000 6.834
54.76000 3.927
54.78000 1.503
54.80000 0.886
54.82000 0.644
54.84000 2.885
54.86000 4.341
54.88000 5.559
54.90000 1.138
54.92000 -2.321
54.94000 0.506
54.96000 0.795
54.98000 0.562
55.00000 1.556
55.02000 0.528
55.04000 -2.636
55.06000 -0.835
55.08000 2.638
55.10000 1.828
55.12000 0.703
55.14000 3.283
55.16000 7.478
55.18000 6.474
55.20000 2.312
55.22000 4.856
55.24000 7.188
55.26000 5.995
55.28000 0.964
55.30000 1.811
55.32000 1.093
55.34000 0.578
55.36000 5.547
55.38000 4.023
55.40000 0.087
55.42000 1.482
55.44000 2.565
55.46000 2.477
55.48000 5.684
55.50000 4.574
55.52000 2.905
55.54000 4.014
55.56000 2.162
55.58000 1.384
55.60000 3.626
55.62000 2.459
55.64000 3.111
55.66000 2.514
55.68000 1.148
55.70000 1.363
55.72000 4.389
55.74000 6.535
55.76000 3.701
55.78000 1.347
55.80000 5.732
55.82000 3.553
55.84000 3.066
55.86000 -0.739
55.88000 0.015
55.90000 2.908
55.92000 6.069
55.94000 3.420
55.96000 4.893
55.98000 2.123
56.00000 -0.332
56.02000 1.715
56.04000 2.038
56.06000 1.757
56.08000 0.816
56.10000 2.824
56.12000 0.471
56.14000 -0.514
56.16000 3.241
56.18000 5.652
56.20000 3.643
56.22000 0.864
56.24000 -1.773
56.26000 -2.622
56.28000 0.114
56.30000 -1.269
56.32000 1.509
56.34000 4.904
56.36000 1.644
56.38000 2.958
56.40000 1.727
56.42000 0.158
56.44000 -0.142
56.46000 0.768
56.48000 3.647
56.50000 1.082
56.52000 5.008
56.54000 4.143
56.56000 4.064
56.58000 3.810
56.60000 7.437
56.62000 3.345
56.64000 2.522
56.66000 0.654
56.68000 2.224
56.70000 2.629
56.72000 4.009
56.74000 0.230
56.76000 2.033
56.78000 0.822
56.80000 -2.589
56.82000 -1.057
56.84000 -0.327
56.86000 3.690
56.88000 2.548
56.90000 6.742
56.92000 3.439
56.94000 3.462
56.96000 1.119
56.98000 0.503
57.00000 1.917
57.02000 2.467
57.04000 5.248
57.06000 2.303
57.08000 2.208
57.10000 -0.579
57.12000 0.487
57.14000 0.208
57.16000 -0.845
57.18000 2.763
57.20000 5.448
57.22000 2.350
57.24000 -0.316
57.26000 0.644
57.28000 -1.160
57.30000 0.101
57.32000 -0.481
57.34000 -0.090
57.36000 2.904
57.38000 4.701
57.40000 2.848
57.42000 8.289
57.44000 2.020
57.46000 0.230
57.48000 3.088
57.50000 -1.319
57.52000 -0.764
57.54000 -1.141
57.56000 4.843
57.58000 2.109
57.60000 3.232
57.62000 3.216
57.64000 1.757
57.66000 1.052
57.68000 1.834
57.70000 7.463
57.72000 7.989
57.74000 5.522
57.76000 6.568
57.78000 2.936
57.80000 3.505
57.82000 7.028
57.84000 4.255
57.86000 4.005
57.88000 3.495
57.90000 1.675
57.92000 -1.929
57.94000 1.542
57.96000 2.414
57.98000 4.656
58.00000 3.546
58.02000 3.332
58.04000 5.501
58.06000 4.129
58.08000 1.373
58.10000 5.295
58.12000 4.302
58.14000 6.696
58.16000 6.183
58.18000 5.468
58.20000 5.292
58.22000 1.502
58.24000 1.481
58.26000 1.904
58.28000 -0.633
58.30000 -2.549
58.32000 -2.294
58.34000 0.047
58.36000 1.094
58.38000 1.514
58.40000 3.560
58.42000 6.137
58.44000 6.247
58.46000 4.160
58.48000 3.007
58.50000 2.209
58.52000 5.178
58.54000 4.786
58.56000 5.825
58.58000 2.456
58.60000 0.738
58.62000 0.124
58.64000 5.312
58.66000 4.125
58.68000 4.501
58.70000 2.134
58.72000 3.619
58.74000 3.386
58.76000 3.957
58.78000 2.478
58.80000 -0.102
58.82000 1.520
58.84000 4.989
58.86000 1.715
58.88000 1.303
58.90000 1.813
58.92000 3.225
58.94000 6.687
58.96000 3.804
58.98000 6.852
59.00000 7.406
59.02000 9.519
59.04000 3.575
59.06000 -0.221
59.08000 -2.509
59.10000 1.122
59.12000 6.218
59.14000 6.456
59.16000 6.972
59.18000 5.927
59.20000 3.990
59.22000 2.286
59.24000 4.716
59.26000 5.129
59.28000 7.860
59.30000 10.173
59.32000 7.683
59.34000 3.144
59.36000 -0.523
59.38000 4.895
59.40000 4.924
59.42000 3.898
59.44000 0.248
59.46000 0.794
59.48000 5.314
59.50000 5.929
59.52000 6.711
59.54000 1.466
59.56000 2.362
59.58000 2.462
59.60000 0.878
59.62000 4.661
59.64000 8.573
59.66000 3.480
59.68000 5.975
59.70000 3.423
59.72000 1.047
59.74000 0.132
59.76000 -0.974
59.78000 0.495
59.80000 0.973
59.82000 1.899
59.84000 3.446
59.86000 0.948
59.88000 2.394
59.90000 4.540
59.92000 5.068
59.94000 5.928
59.96000 2.506
59.98000 -0.699
60.00000 2.209
60.02000 0.654
60.04000 1.463
60.06000 1.627
60.08000 0.656
60.10000 0.320
60.12000 -0.322
60.14000 1.648
60.16000 1.091
60.18000 1.497
60.20000 1.342
60.22000 3.515
60.24000 5.756
60.26000 4.238
60.28000 1.506
60.30000 4.187
60.32000 3.638
60.34000 -0.081
60.36000 2.617
60.38000 1.643
60.40000 5.585
60.42000 1.357
60.44000 -0.511
60.46000 3.954
60.48000 6.288
60.50000 3.680
60.52000 1.392
60.54000 3.105
60.56000 2.741
60.58000 -1.420
60.60000 -1.628
60.62000 -2.486
60.64000 -0.765
60.66000 -0.499
60.68000 0.136
60.70000 0.075
60.72000 1.795
60.74000 1.029
60.76000 1.694
60.78000 4.414
60.80000 2.460
60.82000 3.857
60.84000 4.016
60.86000 6.448
60.88000 6.116
60.90000 5.424
60.92000 4.403
60.94000 1.913
60.96000 1.098
60.98000 2.869
61.00000 3.628
61.02000 1.915
61.04000 2.536
61.06000 3.401
61.08000 4.142
61.10000 4.173
61.12000 5.710
61.14000 6.537
61.16000 3.166
61.18000 0.865
61.20000 -2.438
61.22000 2.749
61.24000 6.170
61.26000 6.886
61.28000 4.459
61.30000 3.608
61.32000 5.866
61.34000 5.254
61.36000 2.479
61.38000 3.872
61.40000 1.649
61.42000 0.681
61.44000 1.862
61.46000 2.187
61.48000 6.600
61.50000 3.474
61.52000 1.978
61.54000 4.123
61.56000 3.019
61.58000 6.264
61.60000 5.899
61.62000 2.762
61.64000 -0.010
61.66000 1.158
61.68000 -1.230
61.70000 1.383
61.72000 0.465
61.74000 -0.707
61.76000 4.458
61.78000 5.885
61.80000 6.468
61.82000 5.594
61.84000 1.827
61.86000 0.759
61.88000 2.713
61.90000 1.656
61.92000 1.878
61.94000 3.031
61.96000 2.652
61.98000 3.598
62.00000 0.744
62.02000 1.705
62.04000 0.637
62.06000 4.089
62.08000 5.158
62.10000 0.925
62.12000 2.411
62.14000 4.764
62.16000 2.124
62.18000 3.222
62.20000 1.880
62.22000 4.275
62.24000 1.023
62.26000 3.262
62.28000 1.413
62.30000 -2.449
62.32000 4.009
62.34000 6.075
62.36000 2.666
62.38000 0.908
62.40000 1.573
62.42000 0.336
62.44000 0.322
62.46000 6.410
62.48000 2.533
62.50000 -1.077
62.52000 1.594
62.54000 0.814
62.56000 3.198
62.58000 1.648
62.60000 0.537
62.62000 3.328
62.64000 -1.211
62.66000 1.556
62.68000 3.470
62.70000 1.133
62.72000 1.765
62.74000 -0.370
62.76000 3.729
62.78000 2.204
62.80000 2.873
62.82000 4.916
62.84000 2.093
62.86000 3.886
62.88000 3.448
62.90000 -1.177
62.92000 -0.663
62.94000 2.098
62.96000 -1.063
62.98000 -0.557
63.00000 -2.234
63.02000 0.361
63.04000 1.782
63.06000 1.013
63.08000 -0.849
63.10000 -0.857
63.12000 0.298
63.14000 -2.448
63.16000 -1.980
63.18000 0.134
63.20000 2.490
63.22000 2.017
63.24000 1.662
63.26000 1.469
63.28000 0.340
63.30000 0.967
63.32000 1.099
63.34000 4.417
63.36000 3.442
63.38000 0.556
63.40000 1.880
63.42000 1.008
63.44000 1.946
63.46000 3.946
63.48000 2.303
63.50000 0.132
63.52000 3.881
63.54000 1.261
63.56000 1.110
63.58000 2.803
63.60000 2.594
63.62000 2.253
63.64000 1.642
63.66000 1.073
63.68000 2.296
63.70000 6.121
63.72000 0.504
63.74000 2.436
63.76000 1.212
63.78000 -0.808
63.80000 2.751
63.82000 0.964
63.84000 0.473
63.86000 -1.112
63.88000 0.424
63.90000 0.497
63.92000 1.556
63.94000 4.353
63.96000 4.003
63.98000 4.561
64.00000 4.866
64.02000 0.859
64.04000 1.227
64.06000 4.436
64.08000 3.424
64.10000 6.071
64.12000 4.723
64.14000 -0.082
64.16000 3.352
64.18000 2.618
64.20000 -2.419
64.22000 -1.366
64.24000 -1.310
64.26000 -2.343
64.28000 0.798
64.30000 2.704
64.32000 4.004
64.34000 5.476
64.36000 0.786
64.38000 1.773
64.40000 2.830
64.42000 4.917
64.44000 3.093
64.46000 0.493
64.48000 2.489
64.50000 4.427
64.52000 3.830
64.54000 2.593
64.56000 5.323
64.58000 4.283
64.60000 4.548
64.62000 0.558
64.64000 3.141
64.66000 7.277
64.68000 7.728
64.70000 7.414
64.72000 7.138
64.74000 2.583
64.76000 4.070
64.78000 3.353
64.80000 2.564
64.82000 4.814
64.84000 2.092
64.86000 0.367
64.88000 3.115
64.90000 3.094
64.92000 0.712
64.94000 3.784
64.96000 1.997
64.98000 1.877
65.00000 1.934
65.02000 4.280
65.04000 6.543
65.06000 1.761
65.08000 -1.989
65.10000 -2.446
65.12000 0.786
65.14000 3.629
65.16000 0.950
65.18000 0.059
65.20000 0.906
65.22000 2.657
65.24000 5.875
65.26000 3.846
65.28000 3.773
65.30000 3.491
65.32000 2.939
65.34000 -0.064
65.36000 0.692
65.38000 0.718
65.40000 1.987
65.42000 0.289
65.44000 2.910
65.46000 5.423
65.48000 2.653
65.50000 2.306
65.52000 1.279
65.54000 0.759
65.56000 -0.655
65.58000 -2.457
65.60000 0.279
65.62000 1.893
65.64000 1.609
65.66000 3.159
65.68000 1.194
65.70000 3.291
65.72000 1.522
65.74000 2.540
65.76000 2.813
65.78000 1.964
65.80000 0.560
65.82000 -0.823
65.84000 0.358
65.86000 -1.792
65.88000 -1.029
65.90000 0.902
65.92000 0.803
65.94000 3.011
65.96000 0.823
65.98000 2.175
66.00000 1.455
66.02000 0.692
66.04000 2.941
66.06000 -0.958
66.08000 0.502
66.10000 4.177
66.12000 -0.183
66.14000 -0.267
66.16000 2.383
66.18000 1.744
66.20000 2.124
66.22000 1.120
66.24000 2.445
66.26000 0.310
66.28000 2.848
66.30000 2.932
66.32000 1.417
66.34000 1.132
66.36000 3.537
66.38000 -1.422
66.40000 -1.428
66.42000 -0.590
66.44000 -0.291
66.46000 2.837
66.48000 1.609
66.50000 3.400
66.52000 4.574
66.54000 2.503
66.56000 3.628
66.58000 0.913
66.60000 1.680
66.62000 3.851
66.64000 3.378
66.66000 -0.667
66.68000 -2.485
66.70000 1.058
66.72000 1.985
66.74000 0.592
66.76000 0.012
66.78000 -0.763
66.80000 0.226
66.82000 1.630
66.84000 0.923
66.86000 3.704
66.88000 4.480
66.90000 2.152
66.92000 0.711
66.94000 4.413
66.96000 3.673
66.98000 2.893
67.00000 3.539
67.02000 -0.576
67.04000 2.624
67.06000 1.596
67.08000 2.085
67.10000 -1.049
67.12000 0.959
67.14000 5.723
67.16000 5.341
67.18000 2.291
67.20000 3.144
67.22000 2.506
67.24000 0.643
67.26000 1.522
67.28000 2.088
67.30000 1.971
67.32000 4.351
67.34000 1.950
67.36000 3.105
67.38000 3.459
67.40000 3.091
67.42000 3.117
67.44000 2.795
67.46000 0.432
67.48000 1.181
67.50000 3.163
67.52000 4.493
67.54000 4.724
67.56000 3.708
67.58000 3.748
67.60000 2.340
67.62000 -0.871
67.64000 0.103
67.66000 2.520
67.68000 5.685
67.70000 8.710
67.72000 7.877
67.74000 2.841
67.76000 5.451
67.78000 6.925
67.80000 8.750
67.82000 11.361
67.84000 7.299
67.86000 8.660
67.88000 8.192
67.90000 8.568
67.92000 6.938
67.94000 9.394
67.96000 11.060
67.98000 15.279
68.00000 10.812
68.02000 6.836
68.04000 6.588
68.06000 11.202
68.08000 12.536
68.10000 11.610
68.12000 14.243
68.14000 7.994
68.16000 11.342
68.18000 14.336
68.20000 13.298
68.22000 15.707
68.24000 15.557
68.26000 13.038
68.28000 15.679
68.30000 16.644
68.32000 17.194
68.34000 19.732
68.36000 18.607
68.38000 18.266
68.40000 19.722
68.42000 19.722
68.44000 22.781
68.46000 23.754
68.48000 26.895
68.50000 21.844
68.52000 20.386
68.54000 21.156
68.56000 19.481
68.58000 19.144
68.60000 20.312
68.62000 22.293
68.64000 21.808
68.66000 22.435
68.68000 21.217
68.70000 26.110
68.72000 24.411
68.74000 20.115
68.76000 21.348
68.78000 22.177
68.80000 23.483
68.82000 23.603
68.84000 23.095
68.86000 22.555
68.88000 21.476
68.90000 18.131
68.92000 21.715
68.94000 21.321
68.96000 21.473
68.98000 19.958
69.00000 18.392
69.02000 18.495
69.04000 18.290
69.06000 15.288
69.08000 16.174
69.10000 17.036
69.12000 16.985
69.14000 16.863
69.16000 19.436
69.18000 15.471
69.20000 12.250
69.22000 13.777
69.24000 15.688
69.26000 12.844
69.28000 14.377
69.30000 14.332
69.32000 9.575
69.34000 10.522
69.36000 11.126
69.38000 8.680
69.40000 8.886
69.42000 9.153
69.44000 10.977
69.46000 12.678
69.48000 8.198
69.50000 5.670
69.52000 8.707
69.54000 4.832
69.56000 6.390
69.58000 2.699
69.60000 3.067
69.62000 6.130
69.64000 5.687
69.66000 0.353
69.68000 2.986
69.70000 3.255
69.72000 3.317
69.74000 4.569
69.76000 5.617
69.78000 5.126
69.80000 2.463
69.82000 0.778
69.84000 2.091
69.86000 1.029
69.88000 0.969
69.90000 1.522
69.92000 3.135
69.94000 0.686
69.96000 -1.008
69.98000 2.293
70.00000 6.202
70.02000 3.461
70.04000 0.669
70.06000 0.337
70.08000 1.923
70.10000 2.311
70.12000 4.444
70.14000 4.861
70.16000 1.836
70.18000 1.133
70.20000 2.432
70.22000 2.211
70.24000 2.306
70.26000 -1.085
70.28000 -1.568
70.30000 2.076
70.32000 3.688
70.34000 1.237
70.36000 2.746
70.38000 3.287
70.40000 3.993
70.42000 2.313
70.44000 7.477
70.46000 6.885
70.48000 6.000
70.50000 6.322
70.52000 3.265
70.54000 2.356
70.56000 5.124
70.58000 3.975
70.60000 5.170
70.62000 3.404
70.64000 2.743
70.66000 4.461
70.68000 3.583
70.70000 -1.150
70.72000 -0.609
70.74000 0.031
70.76000 -2.357
70.78000 1.496
70.80000 6.060
70.82000 4.755
70.84000 4.424
70.86000 1.789
70.88000 2.897
70.90000 5.347
70.92000 6.247
70.94000 2.860
70.96000 1.825
70.98000 -0.202
71.00000 -0.835
71.02000 -0.005
71.04000 2.726
71.06000 6.048
71.08000 6.165
71.10000 1.008
71.12000 3.612
71.14000 2.865
71.16000 0.705
71.18000 0.059
71.20000 3.261
71.22000 2.903
71.24000 -1.322
71.26000 2.826
71.28000 7.848
71.30000 5.080
71.32000 -1.405
71.34000 0.270
71.36000 2.138
71.38000 3.040
71.40000 1.361
71.42000 0.720
71.44000 -2.347
71.46000 -1.219
71.48000 2.797
71.50000 1.591
71.52000 2.772
71.54000 4.185
71.56000 -1.658
71.58000 1.917
71.60000 5.167
71.62000 1.496
71.64000 -1.001
71.66000 2.637
71.68000 4.233
71.70000 8.200
71.72000 3.148
71.74000 2.877
71.76000 2.497
71.78000 0.449
71.80000 0.405
71.82000 2.335
71.84000 5.152
71.86000 1.499
71.88000 1.322
71.90000 4.258
71.92000 4.348
71.94000 0.910
71.96000 0.466
71.98000 1.516
72.00000 3.221
72.02000 0.449
72.04000 -0.131
72.06000 4.002
72.08000 4.838
72.10000 2.848
72.12000 1.561
72.14000 0.780
72.16000 -1.208
72.18000 2.440
72.20000 2.189
72.22000 0.030
72.24000 -0.196
72.26000 1.078
72.28000 1.709
72.30000 1.997
72.32000 -0.095
72.34000 3.331
72.36000 2.696
72.38000 1.153
72.40000 3.686
72.42000 1.261
72.44000 -0.160
72.46000 -1.378
72.48000 1.350
72.50000 4.001
72.52000 4.527
72.54000 1.727
72.56000 0.188
72.58000 1.860
72.60000 3.127
72.62000 6.067
72.64000 2.100
72.66000 1.701
72.68000 2.205
72.70000 1.862
72.72000 2.689
72.74000 7.226
72.76000 8.149
72.78000 4.845
72.80000 1.602
72.82000 2.028
72.84000 1.172
72.86000 7.258
72.88000 4.306
72.90000 2.727
72.92000 2.396
72.94000 3.013
72.96000 2.573
72.98000 1.969
73.00000 1.235
73.02000 5.224
73.04000 5.029
73.06000 4.319
73.08000 6.030
73.10000 5.937
73.12000 4.148
73.14000 5.011
73.16000 3.288
73.18000 6.382
73.20000 8.406
73.22000 5.688
73.24000 -0.344
73.26000 -0.571
73.28000 -2.233
73.30000 -0.031
73.32000 5.926
73.34000 4.668
73.36000 7.387
73.38000 6.617
73.40000 6.790
73.42000 3.846
73.44000 3.975
73.46000 4.217
73.48000 3.678
73.50000 10.053
73.52000 7.791
73.54000 0.920
73.56000 3.110
73.58000 4.764
73.60000 4.479
73.62000 5.561
73.64000 5.825
73.66000 3.634
73.68000 3.625
73.70000 1.540
73.72000 4.353
73.74000 2.570
73.76000 6.271
73.78000 6.402
73.80000 7.785
73.82000 3.935
73.84000 3.374
73.86000 6.765
73.88000 3.338
73.90000 4.640
73.92000 4.226
73.94000 4.329
73.96000 1.821
73.98000 3.858
74.00000 2.621
74.02000 3.834
74.04000 5.106
74.06000 5.803
74.08000 4.521
74.10000 4.563
74.12000 3.756
74.14000 4.477
74.16000 5.119
74.18000 6.863
74.20000 8.373
74.22000 10.249
74.24000 6.895
74.26000 4.843
74.28000 4.589
74.30000 6.870
74.32000 6.212
74.34000 7.023
74.36000 9.916
74.38000 9.192
74.40000 6.079
74.42000 4.172
74.44000 3.081
74.46000 6.129
74.48000 5.807
74.50000 3.705
74.52000 1.065
74.54000 0.005
74.56000 -2.196
74.58000 1.607
74.60000 6.446
74.62000 5.912
74.64000 5.717
74.66000 4.243
74.68000 4.369
74.70000 3.330
74.72000 3.840
74.74000 3.842
74.76000 2.678
74.78000 6.329
74.80000 5.574
74.82000 7.955
74.84000 7.727
74.86000 9.110
74.88000 6.991
74.90000 4.782
74.92000 8.309
74.94000 10.168
74.96000 9.163
74.98000 4.096
75.00000 3.964
75.02000 5.746
75.04000 4.924
75.06000 6.905
75.08000 8.459
75.10000 7.832
75.12000 3.190
75.14000 6.768
75.16000 8.732
75.18000 4.945
75.20000 0.672
75.22000 3.085
75.24000 5.862
75.26000 4.955
75.28000 7.956
75.30000 10.223
75.32000 4.954
75.34000 7.006
75.36000 8.861
75.38000 1.332
75.40000 3.040
75.42000 5.041
75.44000 5.607
75.46000 3.448
75.48000 0.123
75.50000 -2.122
75.52000 3.810
75.54000 1.637
75.56000 -2.244
75.58000 0.048
75.60000 1.926
75.62000 4.236
75.64000 5.058
75.66000 5.301
75.68000 2.062
75.70000 1.550
75.72000 5.292
75.74000 6.019
75.76000 6.830
75.78000 4.072
75.80000 3.675
75.82000 4.763
75.84000 -0.072
75.86000 3.057
75.88000 5.286
75.90000 1.847
75.92000 3.391
75.94000 3.155
75.96000 0.364
75.98000 -0.011
76.00000 -1.990
76.02000 4.827
76.04000 4.105
76.06000 -0.142
76.08000 -0.030
76.10000 0.667
76.12000 1.316
76.14000 1.894
76.16000 5.558
76.18000 5.399
76.20000 1.109
76.22000 1.829
76.24000 5.626
76.26000 3.467
76.28000 1.977
76.30000 3.926
76.32000 3.006
76.34000 2.770
76.36000 2.832
76.38000 -0.415
76.40000 1.171
76.42000 3.976
76.44000 5.111
76.46000 4.102
76.48000 -0.308
76.50000 0.211
76.52000 -1.948
76.54000 -2.301
76.56000 1.462
76.58000 0.106
76.60000 0.222
76.62000 0.539
76.64000 2.302
76.66000 3.018
76.68000 4.073
76.70000 3.727
76.72000 -0.566
76.74000 1.667
76.76000 3.662
76.78000 1.919
76.80000 -0.292
76.82000 -0.462
76.84000 3.381
76.86000 2.678
76.88000 -0.400
76.90000 -1.618
76.92000 0.929
76.94000 1.400
76.96000 4.763
76.98000 5.301
77.00000 4.420
77.02000 6.122
77.04000 3.895
77.06000 6.653
77.08000 3.075
77.10000 2.001
77.12000 1.427
77.14000 -0.210
77.16000 4.128
77.18000 4.114
77.20000 3.134
77.22000 0.391
77.24000 1.819
77.26000 4.273
77.28000 3.798
77.30000 4.191
77.32000 -0.394
77.34000 2.445
77.36000 4.965
77.38000 9.161
77.40000 3.406
77.42000 1.635
77.44000 0.488
77.46000 2.157
77.48000 1.177
77.50000 5.530
77.52000 10.400
77.54000 0.395
77.56000 -2.298
77.58000 0.186
77.60000 2.490
77.62000 -0.913
77.64000 2.168
77.66000 5.630
77.68000 2.272
77.70000 -0.049
77.72000 2.954
77.74000 1.028
77.76000 1.915
77.78000 5.073
77.80000 0.758
77.82000 3.703
77.84000 2.398
77.86000 0.631
77.88000 1.809
77.90000 6.776
77.92000 6.301
77.94000 5.601
77.96000 2.593
77.98000 0.993
78.00000 -0.253
78.02000 5.776
78.04000 4.660
78.06000 7.236
78.08000 3.817
78.10000 1.332
78.12000 -0.245
78.14000 2.673
78.16000 3.472
78.18000 -1.169
78.20000 -1.702
78.22000 -1.659
78.24000 0.304
78.26000 -0.109
78.28000 -0.759
78.30000 -0.415
78.32000 4.701
78.34000 5.397
78.36000 4.995
78.38000 7.836
78.40000 3.242
78.42000 0.822
78.44000 3.125
78.46000 1.960
78.48000 0.034
78.50000 -1.846
78.52000 1.144
78.54000 4.474
78.56000 2.736
78.58000 6.067
78.60000 4.565
78.62000 0.718
78.64000 0.813
78.66000 3.881
78.68000 5.139
78.70000 7.083
78.72000 7.885
78.74000 5.933
78.76000 1.216
78.78000 -2.181
78.80000 0.017
78.82000 0.936
78.84000 2.049
78.86000 2.855
78.88000 4.185
78.90000 3.593
78.92000 7.075
78.94000 7.969
78.96000 3.289
78.98000 3.166
79.00000 1.554
79.02000 2.757
79.04000 0.319
79.06000 2.338
79.08000 3.905
79.10000 -0.519
79.12000 3.365
79.14000 4.246
79.16000 1.115
79.18000 0.685
79.20000 1.710
79.22000 7.292
79.24000 7.114
79.26000 10.201
79.28000 4.933
79.30000 3.360
79.32000 2.779
79.34000 6.945
79.36000 6.228
79.38000 2.542
79.40000 -2.269
79.42000 1.819
79.44000 5.045
79.46000 3.526
79.48000 2.805
79.50000 4.882
79.52000 5.371
79.54000 6.613
79.56000 6.274
79.58000 6.683
79.60000 3.809
79.62000 6.482
79.64000 7.504
79.66000 4.248
79.68000 6.121
79.70000 2.904
79.72000 5.461
79.74000 6.659
79.76000 2.932
79.78000 2.312
79.80000 -1.382
79.82000 0.024
79.84000 -1.843
79.86000 1.263
79.88000 6.291
79.90000 6.241
79.92000 5.746
79.94000 6.580
79.96000 2.704
79.98000 2.115
80.00000 5.951
80.02000 5.592
80.04000 5.160
80.06000 3.208
80.08000 -0.329
80.10000 -2.328
80.12000 2.616
80.14000 1.671
80.16000 -0.180
80.18000 2.117
80.20000 1.726
80.22000 3.688
80.24000 3.772
80.26000 2.162
80.28000 4.571
80.30000 0.084
80.32000 2.093
80.34000 0.255
80.36000 3.118
80.38000 1.546
80.40000 -1.471
80.42000 0.158
80.44000 -1.177
80.46000 2.664
80.48000 3.787
80.50000 0.483
80.52000 -2.376
80.54000 -0.021
80.56000 2.151
80.58000 5.215
80.60000 6.108
80.62000 0.445
80.64000 1.593
80.66000 0.222
80.68000 1.894
80.70000 7.355
80.72000 3.839
80.74000 -1.306
80.76000 2.571
80.78000 2.911
80.80000 4.817
80.82000 2.579
80.84000 0.124
80.86000 4.550
80.88000 2.930
80.90000 2.963
80.92000 2.821
80.94000 7.932
80.96000 1.816
80.98000 1.680
81.00000 -0.513
81.02000 3.618
81.04000 3.382
81.06000 3.227
81.08000 3.061
81.10000 0.501
81.12000 2.549
81.14000 -1.746
81.16000 1.463
81.18000 5.465
81.20000 4.051
81.22000 5.848
81.24000 7.141
81.26000 6.456
81.28000 5.838
81.30000 7.389
81.32000 4.631
81.34000 4.065
81.36000 5.107
81.38000 4.215
81.40000 5.353
81.42000 9.168
81.44000 3.864
81.46000 3.289
81.48000 7.509
81.50000 3.099
81.52000 0.036
81.54000 7.304
81.56000 6.737
81.58000 4.229
81.60000 1.813
81.62000 0.412
81.64000 7.013
81.66000 8.335
81.68000 5.488
81.70000 6.873
81.72000 7.345
81.74000 4.677
81.76000 12.133
81.78000 7.631
81.80000 3.525
81.82000 7.677
81.84000 7.624
81.86000 9.146
81.88000 2.614
81.90000 1.797
81.92000 5.025
81.94000 7.197
81.96000 8.067
81.98000 9.075
82.00000 8.228
82.02000 8.270
82.04000 9.661
82.06000 12.009
82.08000 16.148
82.10000 11.358
82.12000 13.386
82.14000 13.839
82.16000 12.401
82.18000 11.069
82.20000 15.683
82.22000 14.101
82.24000 17.139
82.26000 14.705
82.28000 18.774
82.30000 17.252
82.32000 18.287
82.34000 14.516
82.36000 18.793
82.38000 23.255
82.40000 14.959
82.42000 18.811
82.44000 24.050
82.46000 18.684
82.48000 24.933
82.50000 23.862
82.52000 18.883
82.54000 18.804
82.56000 19.246
82.58000 21.744
82.60000 21.950
82.62000 24.370
82.64000 23.877
82.66000 23.193
82.68000 21.134
82.70000 20.442
82.72000 24.640
82.74000 24.614
82.76000 21.553
82.78000 25.744
82.80000 31.113
82.82000 25.521
82.84000 25.331
82.86000 29.729
82.88000 30.376
82.90000 27.587
82.92000 28.108
82.94000 26.031
82.96000 22.822
82.98000 27.372
83.00000 29.307
83.02000 30.101
83.04000 30.352
83.06000 31.138
83.08000 28.745
83.10000 26.632
83.12000 22.801
83.14000 25.542
83.16000 28.731
83.18000 22.024
83.20000 21.294
83.22000 25.957
83.24000 27.389
83.26000 23.354
83.28000 25.940
83.30000 25.639
83.32000 23.884
83.34000 19.898
83.36000 22.403
83.38000 20.192
83.40000 21.053
83.42000 25.768
83.44000 18.881
83.46000 17.650
83.48000 18.707
83.50000 14.798
83.52000 15.105
83.54000 17.579
83.56000 18.185
83.58000 14.969
83.60000 14.423
83.62000 14.275
83.64000 14.630
83.66000 13.905
83.68000 15.056
83.70000 14.951
83.72000 14.432
83.74000 10.349
83.76000 5.593
83.78000 11.007
83.80000 16.890
83.82000 13.056
83.84000 13.957
83.86000 6.320
83.88000 9.314
83.90000 9.734
83.92000 7.310
83.94000 7.469
83.96000 9.111
83.98000 12.624
84.00000 13.430
84.02000 7.401
84.04000 4.595
84.06000 3.743
84.08000 6.253
84.10000 6.564
84.12000 9.942
84.14000 1.529
84.16000 1.033
84.18000 2.986
84.20000 5.591
84.22000 7.643
84.24000 3.267
84.26000 3.679
84.28000 1.344
84.30000 4.717
84.32000 3.764
84.34000 7.967
84.36000 10.147
84.38000 11.583
84.40000 15.472
84.42000 8.817
84.44000 5.538
84.46000 6.487
84.48000 6.607
84.50000 5.238
84.52000 3.092
84.54000 -1.664
84.56000 1.292
84.58000 3.965
84.60000 4.880
84.62000 9.123
84.64000 3.881
84.66000 1.640
84.68000 3.028
84.70000 4.665
84.72000 2.368
84.74000 1.636
84.76000 1.221
84.78000 3.337
84.80000 4.554
84.82000 4.846
84.84000 5.006
84.86000 2.368
84.88000 0.495
84.90000 6.519
84.92000 2.591
84.94000 3.785
84.96000 3.079
84.98000 3.620
85.00000 3.668
85.02000 4.745
85.04000 1.068
85.06000 -2.345
85.08000 -1.005
85.10000 3.868
85.12000 3.577
85.14000 4.024
85.16000 -0.110
85.18000 1.483
85.20000 1.744
85.22000 1.161
85.24000 0.725
85.26000 1.023
85.28000 0.947
85.30000 4.246
85.32000 1.963
85.34000 -2.341
85.36000 -1.142
85.38000 3.701
85.40000 4.354
85.42000 5.220
85.44000 3.454
85.46000 3.728
85.48000 8.315
85.50000 3.431
85.52000 3.810
85.54000 0.260
85.56000 -1.407
85.58000 5.356
85.60000 0.943
85.62000 2.309
85.64000 1.838
85.66000 1.041
85.68000 2.507
85.70000 3.485
85.72000 5.573
85.74000 0.427
85.76000 1.691
85.78000 -1.917
85.80000 1.653
85.82000 7.909
85.84000 4.161
85.86000 4.566
85.88000 3.410
85.90000 3.219
85.92000 3.185
85.94000 3.054
85.96000 7.345
85.98000 9.440
86.00000 6.462
86.02000 5.778
86.04000 6.415
86.06000 6.528
86.08000 4.609
86.10000 0.492
86.12000 -2.342
86.14000 0.841
86.16000 1.358
86.18000 2.575
86.20000 2.590
86.22000 4.333
86.24000 2.476
86.26000 3.765
86.28000 6.029
86.30000 1.298
86.32000 3.710
86.34000 5.607
86.36000 6.029
86.38000 7.217
86.40000 7.912
86.42000 7.326
86.44000 7.518
86.46000 5.457
86.48000 8.278
86.50000 11.391
86.52000 7.508
86.54000 3.713
86.56000 4.233
86.58000 5.107
86.60000 3.389
86.62000 2.988
86.64000 7.280
86.66000 6.901
86.68000 0.506
86.70000 2.391
86.72000 6.235
86.74000 8.859
86.76000 11.597
86.78000 10.954
86.80000 9.233
86.82000 9.920
86.84000 10.732
86.86000 14.165
86.88000 12.587
86.90000 15.081
86.92000 11.248
86.94000 10.962
86.96000 9.995
86.98000 10.261
87.00000 12.124
87.02000 13.617
87.04000 11.354
87.06000 10.666
87.08000 19.422
87.10000 11.234
87.12000 16.622
87.14000 13.897
87.16000 10.536
87.18000 11.992
87.20000 13.859
87.22000 14.506
87.24000 13.081
87.26000 10.223
87.28000 20.075
87.30000 17.176
87.32000 15.292
87.34000 17.363
87.36000 15.400
87.38000 11.171
87.40000 15.046
87.42000 20.426
87.44000 14.688
87.46000 15.141
87.48000 19.208
87.50000 14.816
87.52000 12.485
87.54000 14.055
87.56000 15.636
87.58000 11.985
87.60000 13.627
87.62000 19.609
87.64000 12.203
87.66000 13.570
87.68000 15.786
87.70000 13.224
87.72000 12.234
87.74000 11.655
87.76000 16.011
87.78000 14.300
87.80000 8.324
87.82000 6.903
87.84000 12.627
87.86000 17.188
87.88000 10.932
87.90000 12.846
87.92000 13.059
87.94000 8.075
87.96000 7.908
87.98000 9.861
88.00000 9.823
88.02000 1.379
88.04000 5.134
88.06000 6.923
88.08000 4.276
88.10000 5.145
88.12000 4.638
88.14000 5.038
88.16000 1.875
88.18000 5.785
88.20000 8.144
88.22000 9.432
88.24000 7.732
88.26000 6.771
88.28000 5.946
88.30000 6.288
88.32000 3.687
88.34000 -0.036
88.36000 2.842
88.38000 6.476
88.40000 4.746
88.42000 1.624
88.44000 2.234
88.46000 4.342
88.48000 3.910
88.50000 -0.032
88.52000 0.841
88.54000 6.545
88.56000 5.816
88.58000 1.926
88.60000 5.254
88.62000 4.749
88.64000 4.146
88.66000 3.858
88.68000 3.067
88.70000 2.323
88.72000 2.751
88.74000 5.278
88.76000 5.658
88.78000 1.182
88.80000 3.698
88.82000 0.507
88.84000 2.682
88.86000 3.602
88.88000 2.276
88.90000 2.117
88.92000 1.199
88.94000 -1.120
88.96000 0.811
88.98000 1.602
89.00000 2.620
89.02000 2.612
89.04000 4.743
89.06000 5.846
89.08000 3.543
89.10000 4.284
89.12000 -0.204
89.14000 -1.500
89.16000 -0.425
89.18000 1.822
89.20000 6.879
89.22000 9.054
89.24000 3.171
89.26000 2.070
89.28000 1.587
89.30000 -2.208
89.32000 1.982
89.34000 0.717
89.36000 0.708
89.38000 4.874
89.40000 3.524
89.42000 1.664
89.44000 1.172
89.46000 3.089
89.48000 0.393
89.50000 -0.564
89.52000 1.218
89.54000 4.223
89.56000 5.926
89.58000 0.881
89.60000 7.525
89.62000 3.026
89.64000 1.855
89.66000 2.368
89.68000 -2.168
89.70000 0.334
89.72000 0.822
89.74000 4.901
89.76000 6.158
89.78000 0.610
89.80000 -0.588
89.82000 0.458
89.84000 2.723
89.86000 0.145
89.88000 2.683
89.90000 1.419
89.92000 0.236
89.94000 -1.881
89.96000 2.033
89.98000 3.431
90.00000 0.951
90.02000 -0.184
90.04000 -0.747
90.06000 -2.070
90.08000 0.229
90.10000 2.079
90.12000 4.088
90.14000 0.885
90.16000 4.383
90.18000 1.489
90.20000 0.167
90.22000 -2.167
90.24000 2.520
90.26000 2.286
90.28000 4.057
90.30000 5.740
90.32000 1.904
90.34000 0.606
90.36000 2.649
90.38000 9.282
90.40000 9.884
90.42000 8.845
90.44000 1.473
90.46000 2.413
90.48000 -0.217
90.50000 -1.576
90.52000 -1.392
90.54000 -0.054
90.56000 4.608
90.58000 5.532
90.60000 7.437
90.62000 2.749
90.64000 -1.177
90.66000 -0.295
90.68000 2.168
90.70000 5.923
90.72000 7.530
90.74000 5.049
90.76000 3.429
90.78000 3.825
90.80000 2.086
90.82000 4.678
90.84000 4.996
90.86000 5.473
90.88000 5.631
90.90000 6.548
90.92000 -0.606
90.94000 -2.145
90.96000 2.519
90.98000 3.259
91.00000 4.292
91.02000 3.557
91.04000 2.731
91.06000 2.418
91.08000 1.080
91.10000 2.028
91.12000 5.129
91.14000 4.397
91.16000 5.141
91.18000 6.737
91.20000 4.976
91.22000 5.057
91.24000 2.384
91.26000 2.431
91.28000 2.178
91.30000 0.801
91.32000 -0.628
91.34000 0.971
91.36000 3.047
91.38000 2.411
91.40000 4.314
91.42000 4.517
91.44000 1.194
91.46000 6.039
91.48000 5.456
91.50000 3.048
91.52000 -0.537
91.54000 2.958
91.56000 2.398
91.58000 3.704
91.60000 2.930
91.62000 1.390
91.64000 3.517
91.66000 3.143
91.68000 2.923
91.70000 6.202
91.72000 5.821
91.74000 4.195
91.76000 1.539
91.78000 -0.182
91.80000 0.957
91.82000 3.023
91.84000 9.249
91.86000 7.621
91.88000 5.445
91.90000 0.630
91.92000 -1.035
91.94000 -1.699
91.96000 -1.898
91.98000 1.196
92.00000 4.763
92.02000 2.126
92.04000 3.816
92.06000 1.599
92.08000 4.097
92.10000 1.096
92.12000 -0.774
92.14000 5.982
92.16000 3.824
92.18000 1.377
92.20000 1.759
92.22000 1.500
92.24000 1.059
92.26000 2.389
92.28000 -2.158
92.30000 -1.753
92.32000 5.861
92.34000 3.207
92.36000 2.296
92.38000 2.999
92.40000 3.402
92.42000 0.319
92.44000 0.802
92.46000 1.036
92.48000 0.592
92.50000 -0.435
92.52000 0.417
92.54000 -0.608
92.56000 2.173
92.58000 0.923
92.60000 3.215
92.62000 4.082
92.64000 2.856
92.66000 1.843
92.68000 3.059
92.70000 0.734
92.72000 0.519
92.74000 4.258
92.76000 2.686
92.78000 1.650
92.80000 2.491
92.82000 6.264
92.84000 8.088
92.86000 2.646
92.88000 3.496
92.90000 2.578
92.92000 2.441
92.94000 3.941
92.96000 5.708
92.98000 1.878
93.00000 -2.171
93.02000 5.249
93.04000 5.798
93.06000 2.633
93.08000 4.073
93.10000 1.493
93.12000 2.526
93.14000 6.399
93.16000 3.653
93.18000 7.474
93.20000 6.870
93.22000 3.361
93.24000 5.719
93.26000 4.795
93.28000 8.730
93.30000 6.287
93.32000 4.424
93.34000 -2.185
93.36000 0.136
93.38000 1.096
93.40000 -0.979
93.42000 4.255
93.44000 2.546
93.46000 6.000
93.48000 -0.316
93.50000 -1.880
93.52000 2.454
93.54000 1.416
93.56000 0.469
93.58000 2.496
93.60000 -0.695
93.62000 1.527
93.64000 2.339
93.66000 -0.762
93.68000 2.958
93.70000 5.071
93.72000 5.020
93.74000 0.181
93.76000 2.865
93.78000 2.233
93.80000 0.608
93.82000 1.476
93.84000 -0.623
93.86000 -0.377
93.88000 1.270
93.90000 -1.996
93.92000 2.469
93.94000 3.279
93.96000 4.381
93.98000 4.018
94.00000 3.026
94.02000 5.448
94.04000 3.193
94.06000 3.434
94.08000 1.921
94.10000 -1.105
94.12000 1.705
94.14000 2.247
94.16000 1.935
94.18000 -0.424
94.20000 1.106
94.22000 5.298
94.24000 2.892
94.26000 1.848
94.28000 7.897
94.30000 9.378
94.32000 6.722
94.34000 6.982
94.36000 4.218
94.38000 4.890
94.40000 7.136
94.42000 4.272
94.44000 3.203
94.46000 4.833
94.48000 4.128
94.50000 0.300
94.52000 -0.879
94.54000 0.239
94.56000 -0.707
94.58000 -2.136
94.60000 3.349
94.62000 4.908
94.64000 4.194
94.66000 10.378
94.68000 4.672
94.70000 4.462
94.72000 2.014
94.74000 4.256
94.76000 5.616
94.78000 4.573
94.80000 1.458
94.82000 2.888
94.84000 4.095
94.86000 4.626
94.88000 7.888
94.90000 6.984
94.92000 6.541
94.94000 4.268
94.96000 -1.874
94.98000 -2.147
95.00000 4.415
95.02000 6.470
95.04000 0.279
95.06000 1.659
95.08000 5.264
95.10000 6.970
95.12000 7.867
95.14000 3.936
95.16000 4.585
95.18000 0.448
95.20000 2.029
95.22000 5.932
95.24000 4.135
95.26000 8.307
95.28000 6.984
95.30000 3.880
95.32000 -0.730
95.34000 0.710
95.36000 3.602
95.38000 5.358
95.40000 1.455
95.42000 5.248
95.44000 8.510
95.46000 4.983
95.48000 3.464
95.50000 0.627
95.52000 0.666
95.54000 4.968
95.56000 5.361
95.58000 2.480
95.60000 1.978
95.62000 -0.154
95.64000 -0.002
95.66000 3.455
95.68000 5.643
95.70000 6.600
95.72000 6.893
95.74000 7.239
95.76000 0.342
95.78000 4.957
95.80000 3.076
95.82000 6.832
95.84000 4.176
95.86000 -1.799
95.88000 4.768
95.90000 7.360
95.92000 1.763
95.94000 2.007
95.96000 3.308
95.98000 2.113
96.00000 -1.516
96.02000 2.623
96.04000 6.686
96.06000 -1.110
96.08000 -1.106
96.10000 -1.955
96.12000 3.833
96.14000 4.005
96.16000 5.012
96.18000 6.725
96.20000 12.468
96.22000 1.276
96.24000 -2.198
96.26000 -1.613
96.28000 4.301
96.30000 5.472
96.32000 2.476
96.34000 5.685
96.36000 6.216
96.38000 0.129
96.40000 2.501
96.42000 -0.811
96.44000 3.324
96.46000 6.997
96.48000 0.592
96.50000 1.572
96.52000 2.217
96.54000 0.462
96.56000 2.309
96.58000 1.222
96.60000 4.023
96.62000 6.022
96.64000 6.569
96.66000 2.979
96.68000 3.988
96.70000 4.015
96.72000 3.647
96.74000 0.450
96.76000 -0.263
96.78000 -0.639
96.80000 1.188
96.82000 1.884
96.84000 2.443
96.86000 6.665
96.88000 5.047
96.90000 -1.546
96.92000 -1.391
96.94000 5.648
96.96000 5.472
96.98000 -2.192
97.00000 -0.231
97.02000 3.435
97.04000 9.006
97.06000 8.726
97.08000 5.799
97.10000 0.679
97.12000 -0.649
97.14000 2.661
97.16000 1.980
97.18000 2.648
97.20000 6.514
97.22000 0.951
97.24000 2.801
97.26000 4.194
97.28000 6.146
97.30000 7.056
97.32000 8.538
97.34000 1.766
97.36000 8.417
97.38000 13.149
97.40000 12.522
97.42000 4.708
97.44000 -1.786
97.46000 -1.043
97.48000 2.188
97.50000 2.529
97.52000 4.846
97.54000 5.687
97.56000 7.715
97.58000 7.557
97.60000 6.053
97.62000 5.125
97.64000 -0.225
97.66000 3.038
97.68000 6.664
97.70000 5.656
97.72000 4.934
97.74000 -1.267
97.76000 1.351
97.78000 1.998
97.80000 -0.423
97.82000 3.157
97.84000 5.673
97.86000 10.051
97.88000 10.618
97.90000 7.452
97.92000 3.210
97.94000 2.307
97.96000 3.139
97.98000 6.183
98.00000 8.419
98.02000 7.307
98.04000 7.094
98.06000 6.227
98.08000 8.590
98.10000 10.810
98.12000 5.111
98.14000 2.380
98.16000 2.587
98.18000 10.435
98.20000 6.132
98.22000 5.947
98.24000 7.776
98.26000 6.780
98.28000 1.779
98.30000 8.708
98.32000 10.643
98.34000 5.773
98.36000 3.659
98.38000 -0.552
98.40000 -2.078
98.42000 1.999
98.44000 0.350
98.46000 10.173
98.48000 9.830
98.50000 14.368
98.52000 11.526
98.54000 5.324
98.56000 1.808
98.58000 9.126
98.60000 5.948
98.62000 0.376
98.64000 -0.301
98.66000 6.623
98.68000 8.177
98.70000 3.563
98.72000 2.949
98.74000 3.680
98.76000 2.268
98.78000 7.426
98.80000 8.226
98.82000 0.676
98.84000 4.439
98.86000 8.010
98.88000 13.607
98.90000 8.431
98.92000 10.351
98.94000 8.051
98.96000 6.434
98.98000 -0.637
99.00000 7.138
99.02000 5.428
99.04000 -2.070
99.06000 -2.071
99.08000 1.745
99.10000 5.339
99.12000 13.177
99.14000 5.881
99.16000 6.691
99.18000 8.692
99.20000 4.955
99.22000 4.026
99.24000 10.162
99.26000 -1.137
99.28000 3.913
99.30000 9.199
99.32000 7.390
99.34000 12.013
99.36000 8.416
99.38000 14.760
99.40000 16.447
99.42000 1.252
99.44000 1.599
99.46000 0.945
99.48000 1.442
99.50000 5.831
99.52000 10.254
99.54000 2.239
99.56000 -1.125
99.58000 9.054
99.60000 12.254
99.62000 10.734
99.64000 3.614
99.66000 9.768
99.68000 7.111
99.70000 8.981
99.72000 19.863
99.74000 9.352
99.76000 -3.681
99.78000 0.878
99.80000 15.483
99.82000 11.991
99.84000 0.235
99.86000 -2.180
99.88000 -1.026
99.90000 -2.249
99.92000 -1.682
99.94000 -2.318
99.96000 -2.358
99.98000 0.000
