'Id: "0011388" Comment: "Integrate frame 0011388_Au-Ir-Rh_Rh-rich_XRD-Mapping-325-0000.gfrmwith cursor Wedge Cursor #5" Operator: "B?rgel" Anode: "Cu" Wavelength: "1.5406" Scantype: "2Theta (TwoTheta)" TimePerStep: "1" X: "-18" Y: "40.5" Z: "5.95" 
10.00000 0.000
10.02000 -4.511
10.04000 -4.483
10.06000 14.333
10.08000 6.965
10.10000 10.505
10.12000 0.990
10.14000 7.957
10.16000 15.339
10.18000 16.845
10.20000 30.427
10.22000 27.898
10.24000 7.696
10.26000 14.910
10.28000 23.051
10.30000 37.381
10.32000 27.038
10.34000 9.308
10.36000 7.420
10.38000 8.068
10.40000 15.600
10.42000 9.384
10.44000 25.508
10.46000 17.735
10.48000 14.124
10.50000 15.062
10.52000 16.476
10.54000 31.995
10.56000 13.312
10.58000 -4.505
10.60000 8.002
10.62000 18.402
10.64000 9.410
10.66000 3.751
10.68000 4.620
10.70000 12.620
10.72000 12.207
10.74000 9.155
10.76000 14.942
10.78000 8.711
10.80000 4.747
10.82000 11.021
10.84000 16.484
10.86000 14.990
10.88000 17.695
10.90000 28.403
10.92000 12.133
10.94000 14.264
10.96000 23.323
10.98000 12.474
11.00000 22.980
11.02000 33.975
11.04000 13.438
11.06000 9.525
11.08000 8.406
11.10000 12.961
11.12000 17.134
11.14000 24.824
11.16000 22.581
11.18000 12.076
11.20000 -1.109
11.22000 6.270
11.24000 5.539
11.26000 16.841
11.28000 6.357
11.30000 4.833
11.32000 10.746
11.34000 21.896
11.36000 11.452
11.38000 9.777
11.40000 10.646
11.42000 0.152
11.44000 0.329
11.46000 15.779
11.48000 6.551
11.50000 6.338
11.52000 13.578
11.54000 7.419
11.56000 9.650
11.58000 14.744
11.60000 10.155
11.62000 6.898
11.64000 9.896
11.66000 8.169
11.68000 11.274
11.70000 17.156
11.72000 11.556
11.74000 1.620
11.76000 11.286
11.78000 12.975
11.80000 12.864
11.82000 1.765
11.84000 -4.037
11.86000 11.333
11.88000 6.790
11.90000 10.481
11.92000 11.676
11.94000 23.260
11.96000 11.557
11.98000 14.304
12.00000 3.156
12.02000 5.299
12.04000 2.773
12.06000 5.273
12.08000 1.019
12.10000 20.137
12.12000 25.322
12.14000 3.329
12.16000 0.136
12.18000 1.434
12.20000 7.740
12.22000 -0.308
12.24000 10.034
12.26000 11.621
12.28000 20.544
12.30000 10.384
12.32000 9.284
12.34000 2.574
12.36000 5.943
12.38000 3.767
12.40000 1.188
12.42000 6.141
12.44000 -1.962
12.46000 9.132
12.48000 17.799
12.50000 18.666
12.52000 8.525
12.54000 16.966
12.56000 8.223
12.58000 8.830
12.60000 17.780
12.62000 9.436
12.64000 8.367
12.66000 14.521
12.68000 11.386
12.70000 7.104
12.72000 4.475
12.74000 0.496
12.76000 2.588
12.78000 7.507
12.80000 10.946
12.82000 11.984
12.84000 12.307
12.86000 7.649
12.88000 6.072
12.90000 16.418
12.92000 10.674
12.94000 12.395
12.96000 20.591
12.98000 16.254
13.00000 3.549
13.02000 -4.563
13.04000 7.090
13.06000 14.701
13.08000 9.700
13.10000 4.456
13.12000 4.583
13.14000 4.530
13.16000 -1.792
13.18000 -1.152
13.20000 -0.566
13.22000 9.935
13.24000 15.973
13.26000 11.604
13.28000 16.417
13.30000 11.352
13.32000 20.114
13.34000 23.367
13.36000 13.101
13.38000 3.355
13.40000 0.665
13.42000 5.773
13.44000 15.341
13.46000 16.283
13.48000 14.897
13.50000 12.281
13.52000 13.074
13.54000 8.284
13.56000 2.530
13.58000 6.030
13.60000 14.000
13.62000 9.904
13.64000 9.792
13.66000 16.730
13.68000 19.329
13.70000 12.718
13.72000 6.815
13.74000 10.207
13.76000 12.599
13.78000 10.693
13.80000 0.274
13.82000 6.808
13.84000 6.382
13.86000 5.337
13.88000 8.659
13.90000 6.371
13.92000 2.218
13.94000 8.647
13.96000 4.416
13.98000 -0.534
14.00000 1.050
14.02000 8.440
14.04000 1.633
14.06000 3.523
14.08000 10.654
14.10000 8.024
14.12000 -0.154
14.14000 -3.970
14.16000 9.216
14.18000 19.047
14.20000 18.388
14.22000 12.593
14.24000 11.302
14.26000 8.923
14.28000 16.851
14.30000 16.993
14.32000 11.351
14.34000 12.082
14.36000 9.880
14.38000 6.733
14.40000 4.809
14.42000 8.196
14.44000 11.801
14.46000 20.331
14.48000 19.807
14.50000 11.653
14.52000 15.001
14.54000 11.939
14.56000 24.835
14.58000 23.733
14.60000 13.869
14.62000 5.472
14.64000 -4.473
14.66000 1.674
14.68000 12.308
14.70000 19.527
14.72000 15.644
14.74000 7.435
14.76000 6.599
14.78000 13.167
14.80000 13.508
14.82000 18.993
14.84000 10.416
14.86000 13.675
14.88000 13.100
14.90000 13.177
14.92000 12.359
14.94000 11.055
14.96000 11.296
14.98000 7.981
15.00000 11.374
15.02000 19.168
15.04000 10.289
15.06000 -1.595
15.08000 1.958
15.10000 3.266
15.12000 7.841
15.14000 3.484
15.16000 6.399
15.18000 8.929
15.20000 13.244
15.22000 8.187
15.24000 1.153
15.26000 5.796
15.28000 7.958
15.30000 6.588
15.32000 1.704
15.34000 8.029
15.36000 10.276
15.38000 10.102
15.40000 12.339
15.42000 6.301
15.44000 5.790
15.46000 -1.025
15.48000 -1.035
15.50000 3.595
15.52000 11.336
15.54000 11.277
15.56000 8.374
15.58000 6.006
15.60000 11.060
15.62000 11.147
15.64000 9.451
15.66000 11.863
15.68000 3.541
15.70000 3.045
15.72000 7.886
15.74000 13.191
15.76000 11.017
15.78000 4.121
15.80000 6.193
15.82000 9.475
15.84000 10.313
15.86000 12.661
15.88000 11.678
15.90000 12.379
15.92000 3.068
15.94000 6.482
15.96000 9.955
15.98000 4.027
16.00000 2.601
16.02000 11.196
16.04000 10.852
16.06000 -0.971
16.08000 0.719
16.10000 2.930
16.12000 2.737
16.14000 8.018
16.16000 8.176
16.18000 4.452
16.20000 -0.479
16.22000 1.840
16.24000 1.215
16.26000 -2.593
16.28000 5.588
16.30000 1.649
16.32000 9.417
16.34000 15.047
16.36000 10.215
16.38000 7.379
16.40000 2.548
16.42000 10.826
16.44000 8.997
16.46000 8.273
16.48000 4.085
16.50000 8.738
16.52000 10.927
16.54000 6.006
16.56000 6.834
16.58000 -3.161
16.60000 -4.441
16.62000 8.109
16.64000 5.798
16.66000 7.440
16.68000 13.484
16.70000 1.781
16.72000 -1.483
16.74000 7.352
16.76000 9.240
16.78000 1.529
16.80000 -1.387
16.82000 3.536
16.84000 6.492
16.86000 1.985
16.88000 0.499
16.90000 9.326
16.92000 7.570
16.94000 3.661
16.96000 2.880
16.98000 5.114
17.00000 8.509
17.02000 6.405
17.04000 5.100
17.06000 6.964
17.08000 10.968
17.10000 7.961
17.12000 7.183
17.14000 0.336
17.16000 6.161
17.18000 9.142
17.20000 3.226
17.22000 5.626
17.24000 9.143
17.26000 8.794
17.28000 9.933
17.30000 9.315
17.32000 7.204
17.34000 6.102
17.36000 11.812
17.38000 8.266
17.40000 4.304
17.42000 4.512
17.44000 1.444
17.46000 5.141
17.48000 10.469
17.50000 11.999
17.52000 8.929
17.54000 -2.334
17.56000 0.754
17.58000 7.673
17.60000 5.852
17.62000 9.186
17.64000 13.045
17.66000 8.616
17.68000 8.754
17.70000 15.155
17.72000 12.573
17.74000 0.082
17.76000 -0.226
17.78000 6.622
17.80000 6.710
17.82000 5.400
17.84000 2.973
17.86000 8.844
17.88000 7.490
17.90000 -2.062
17.92000 -2.522
17.94000 -4.394
17.96000 1.488
17.98000 1.785
18.00000 6.393
18.02000 8.883
18.04000 2.713
18.06000 1.448
18.08000 -0.272
18.10000 2.754
18.12000 10.518
18.14000 10.209
18.16000 4.863
18.18000 4.802
18.20000 8.788
18.22000 7.685
18.24000 10.235
18.26000 8.936
18.28000 7.724
18.30000 13.036
18.32000 2.471
18.34000 3.007
18.36000 16.726
18.38000 16.381
18.40000 10.639
18.42000 3.540
18.44000 -3.857
18.46000 -0.661
18.48000 1.948
18.50000 5.146
18.52000 4.726
18.54000 3.680
18.56000 3.786
18.58000 12.940
18.60000 15.519
18.62000 9.749
18.64000 4.728
18.66000 3.733
18.68000 -2.633
18.70000 2.171
18.72000 12.451
18.74000 14.476
18.76000 5.564
18.78000 5.171
18.80000 1.886
18.82000 -2.369
18.84000 0.175
18.86000 -4.315
18.88000 9.916
18.90000 6.835
18.92000 3.172
18.94000 13.621
18.96000 14.076
18.98000 6.602
19.00000 10.188
19.02000 7.848
19.04000 6.671
19.06000 3.061
19.08000 2.817
19.10000 8.181
19.12000 9.437
19.14000 7.059
19.16000 2.901
19.18000 2.304
19.20000 0.484
19.22000 4.903
19.24000 6.414
19.26000 2.507
19.28000 7.054
19.30000 10.000
19.32000 8.022
19.34000 8.919
19.36000 3.836
19.38000 -0.748
19.40000 2.717
19.42000 11.606
19.44000 15.043
19.46000 9.597
19.48000 4.668
19.50000 -4.273
19.52000 -0.490
19.54000 6.374
19.56000 9.258
19.58000 10.948
19.60000 4.585
19.62000 -2.544
19.64000 5.487
19.66000 3.180
19.68000 2.245
19.70000 8.947
19.72000 7.154
19.74000 15.734
19.76000 10.753
19.78000 1.987
19.80000 3.755
19.82000 5.511
19.84000 9.974
19.86000 4.392
19.88000 6.060
19.90000 8.376
19.92000 6.241
19.94000 5.491
19.96000 5.733
19.98000 7.342
20.00000 7.498
20.02000 9.072
20.04000 8.606
20.06000 6.935
20.08000 -0.133
20.10000 3.671
20.12000 6.993
20.14000 -1.373
20.16000 1.606
20.18000 6.770
20.20000 -1.055
20.22000 -0.369
20.24000 3.534
20.26000 1.567
20.28000 3.919
20.30000 5.773
20.32000 5.527
20.34000 10.863
20.36000 7.253
20.38000 7.353
20.40000 1.696
20.42000 -0.006
20.44000 2.463
20.46000 1.742
20.48000 5.604
20.50000 10.126
20.52000 9.338
20.54000 7.746
20.56000 7.019
20.58000 11.302
20.60000 9.361
20.62000 7.271
20.64000 14.237
20.66000 8.899
20.68000 3.495
20.70000 -4.211
20.72000 0.229
20.74000 2.060
20.76000 2.750
20.78000 5.534
20.80000 1.812
20.82000 -2.300
20.84000 -2.388
20.86000 2.431
20.88000 5.293
20.90000 8.384
20.92000 4.822
20.94000 9.859
20.96000 7.650
20.98000 3.751
21.00000 3.705
21.02000 3.126
21.04000 4.235
21.06000 1.547
21.08000 6.074
21.10000 3.876
21.12000 1.713
21.14000 3.948
21.16000 3.420
21.18000 0.610
21.20000 2.747
21.22000 5.401
21.24000 1.808
21.26000 6.067
21.28000 7.462
21.30000 0.537
21.32000 -0.734
21.34000 1.480
21.36000 1.793
21.38000 3.346
21.40000 9.945
21.42000 9.155
21.44000 9.182
21.46000 2.234
21.48000 -0.564
21.50000 0.895
21.52000 0.206
21.54000 0.358
21.56000 1.855
21.58000 3.623
21.60000 10.735
21.62000 9.715
21.64000 3.466
21.66000 0.934
21.68000 6.956
21.70000 5.876
21.72000 3.578
21.74000 -1.519
21.76000 6.225
21.78000 13.568
21.80000 6.470
21.82000 1.635
21.84000 4.334
21.86000 6.006
21.88000 5.785
21.90000 6.001
21.92000 4.571
21.94000 3.497
21.96000 8.867
21.98000 14.229
22.00000 6.008
22.02000 -4.082
22.04000 6.780
22.06000 9.363
22.08000 5.569
22.10000 4.980
22.12000 4.554
22.14000 3.494
22.16000 10.971
22.18000 11.059
22.20000 6.806
22.22000 5.371
22.24000 4.647
22.26000 2.510
22.28000 2.050
22.30000 5.553
22.32000 3.375
22.34000 1.559
22.36000 5.928
22.38000 12.422
22.40000 12.817
22.42000 3.127
22.44000 4.244
22.46000 6.337
22.48000 -4.112
22.50000 0.180
22.52000 8.060
22.54000 7.432
22.56000 2.235
22.58000 1.336
22.60000 2.504
22.62000 10.214
22.64000 8.052
22.66000 0.772
22.68000 5.248
22.70000 7.747
22.72000 5.478
22.74000 7.146
22.76000 8.430
22.78000 10.809
22.80000 8.500
22.82000 7.577
22.84000 8.457
22.86000 8.314
22.88000 7.527
22.90000 7.528
22.92000 6.121
22.94000 5.833
22.96000 6.009
22.98000 4.722
23.00000 5.170
23.02000 5.023
23.04000 11.965
23.06000 6.889
23.08000 3.673
23.10000 3.674
23.12000 7.236
23.14000 7.489
23.16000 5.822
23.18000 5.323
23.20000 -0.728
23.22000 -0.407
23.24000 -1.483
23.26000 -4.078
23.28000 5.197
23.30000 2.501
23.32000 5.578
23.34000 -1.091
23.36000 0.024
23.38000 4.416
23.40000 1.492
23.42000 1.610
23.44000 3.208
23.46000 3.491
23.48000 0.433
23.50000 0.311
23.52000 2.760
23.54000 -0.724
23.56000 0.392
23.58000 0.791
23.60000 1.793
23.62000 2.518
23.64000 8.469
23.66000 5.454
23.68000 1.721
23.70000 -2.219
23.72000 2.061
23.74000 7.006
23.76000 5.153
23.78000 -0.442
23.80000 0.344
23.82000 1.784
23.84000 -0.305
23.86000 0.659
23.88000 0.193
23.90000 5.187
23.92000 1.216
23.94000 3.500
23.96000 -2.195
23.98000 3.227
24.00000 3.837
24.02000 -1.479
24.04000 2.488
24.06000 4.261
24.08000 0.065
24.10000 6.032
24.12000 5.746
24.14000 -0.565
24.16000 -1.209
24.18000 10.056
24.20000 10.283
24.22000 7.050
24.24000 1.096
24.26000 5.987
24.28000 9.963
24.30000 8.166
24.32000 9.270
24.34000 8.684
24.36000 2.899
24.38000 -4.030
24.40000 -1.810
24.42000 -0.999
24.44000 -0.504
24.46000 0.216
24.48000 -2.932
24.50000 -3.452
24.52000 1.220
24.54000 3.381
24.56000 3.095
24.58000 1.234
24.60000 0.879
24.62000 -0.660
24.64000 5.656
24.66000 0.692
24.68000 4.509
24.70000 9.062
24.72000 6.818
24.74000 2.984
24.76000 2.237
24.78000 2.512
24.80000 6.210
24.82000 2.810
24.84000 3.616
24.86000 -3.005
24.88000 -2.233
24.90000 -1.261
24.92000 0.730
24.94000 0.765
24.96000 2.961
24.98000 3.596
25.00000 -3.606
25.02000 3.148
25.04000 7.188
25.06000 0.993
25.08000 0.177
25.10000 4.000
25.12000 -0.750
25.14000 7.957
25.16000 7.715
25.18000 3.773
25.20000 -1.355
25.22000 -2.213
25.24000 3.753
25.26000 3.226
25.28000 9.619
25.30000 7.871
25.32000 1.470
25.34000 -3.986
25.36000 -3.177
25.38000 3.714
25.40000 7.682
25.42000 3.066
25.44000 4.575
25.46000 9.012
25.48000 6.892
25.50000 6.651
25.52000 3.344
25.54000 -3.422
25.56000 0.483
25.58000 4.134
25.60000 2.738
25.62000 2.975
25.64000 5.535
25.66000 -2.696
25.68000 1.777
25.70000 7.372
25.72000 4.745
25.74000 5.814
25.76000 3.383
25.78000 2.940
25.80000 6.611
25.82000 2.793
25.84000 -3.953
25.86000 2.211
25.88000 2.588
25.90000 2.596
25.92000 2.067
25.94000 2.972
25.96000 0.660
25.98000 5.818
26.00000 6.765
26.02000 5.941
26.04000 4.474
26.06000 5.345
26.08000 7.501
26.10000 8.981
26.12000 5.067
26.14000 1.443
26.16000 0.483
26.18000 1.296
26.20000 2.604
26.22000 1.802
26.24000 4.164
26.26000 5.327
26.28000 3.628
26.30000 -1.019
26.32000 2.727
26.34000 5.645
26.36000 4.766
26.38000 5.505
26.40000 5.463
26.42000 7.363
26.44000 6.211
26.46000 -0.761
26.48000 3.053
26.50000 3.602
26.52000 1.895
26.54000 1.782
26.56000 3.402
26.58000 5.805
26.60000 7.279
26.62000 6.301
26.64000 3.967
26.66000 4.887
26.68000 5.225
26.70000 5.671
26.72000 -3.893
26.74000 -0.573
26.76000 1.404
26.78000 2.038
26.80000 5.835
26.82000 3.002
26.84000 3.930
26.86000 3.687
26.88000 3.806
26.90000 3.254
26.92000 -3.019
26.94000 -2.395
26.96000 -1.200
26.98000 2.949
27.00000 1.294
27.02000 -0.711
27.04000 4.593
27.06000 4.425
27.08000 0.928
27.10000 10.663
27.12000 12.727
27.14000 6.441
27.16000 6.020
27.18000 3.920
27.20000 3.478
27.22000 2.766
27.24000 8.370
27.26000 8.785
27.28000 3.987
27.30000 0.602
27.32000 3.273
27.34000 6.569
27.36000 4.323
27.38000 1.123
27.40000 0.268
27.42000 0.987
27.44000 0.487
27.46000 3.059
27.48000 1.431
27.50000 -1.704
27.52000 -0.070
27.54000 1.779
27.56000 1.872
27.58000 6.520
27.60000 6.992
27.62000 4.075
27.64000 3.279
27.66000 1.621
27.68000 -0.919
27.70000 0.396
27.72000 9.023
27.74000 10.660
27.76000 2.797
27.78000 -2.414
27.80000 2.392
27.82000 5.490
27.84000 0.069
27.86000 4.598
27.88000 8.259
27.90000 5.238
27.92000 6.154
27.94000 6.043
27.96000 3.995
27.98000 5.466
28.00000 2.567
28.02000 -2.218
28.04000 3.260
28.06000 9.623
28.08000 -0.843
28.10000 -3.830
28.12000 0.920
28.14000 -0.728
28.16000 6.455
28.18000 2.656
28.20000 4.001
28.22000 4.621
28.24000 7.878
28.26000 8.413
28.28000 0.070
28.30000 -1.233
28.32000 2.039
28.34000 2.133
28.36000 5.572
28.38000 5.685
28.40000 -1.233
28.42000 0.258
28.44000 1.876
28.46000 1.270
28.48000 -1.974
28.50000 2.133
28.52000 5.382
28.54000 6.948
28.56000 3.663
28.58000 -0.500
28.60000 -2.097
28.62000 -0.885
28.64000 -1.085
28.66000 2.949
28.68000 8.853
28.70000 7.291
28.72000 4.134
28.74000 -0.357
28.76000 3.413
28.78000 3.032
28.80000 0.742
28.82000 3.736
28.84000 -1.322
28.86000 -2.547
28.88000 0.545
28.90000 3.229
28.92000 4.755
28.94000 0.062
28.96000 2.890
28.98000 8.679
29.00000 3.811
29.02000 -0.572
29.04000 -0.482
29.06000 6.044
29.08000 1.701
29.10000 2.640
29.12000 5.001
29.14000 4.027
29.16000 2.845
29.18000 1.052
29.20000 0.793
29.22000 7.444
29.24000 4.602
29.26000 1.641
29.28000 -1.630
29.30000 0.237
29.32000 -3.783
29.34000 -0.952
29.36000 -2.295
29.38000 0.920
29.40000 2.847
29.42000 1.222
29.44000 1.556
29.46000 2.629
29.48000 3.799
29.50000 -0.605
29.52000 -3.495
29.54000 -1.025
29.56000 2.446
29.58000 4.977
29.60000 2.386
29.62000 1.221
29.64000 -0.601
29.66000 1.490
29.68000 1.954
29.70000 2.428
29.72000 4.050
29.74000 9.086
29.76000 4.839
29.78000 2.357
29.80000 4.007
29.82000 3.810
29.84000 2.357
29.86000 -3.696
29.88000 -3.761
29.90000 0.547
29.92000 0.393
29.94000 1.524
29.96000 1.683
29.98000 6.278
30.00000 6.814
30.02000 4.839
30.04000 0.495
30.06000 -1.341
30.08000 4.295
30.10000 8.076
30.12000 1.785
30.14000 -0.746
30.16000 -1.668
30.18000 -0.159
30.20000 3.884
30.22000 1.980
30.24000 0.809
30.26000 1.129
30.28000 -1.136
30.30000 1.276
30.32000 1.814
30.34000 1.517
30.36000 -3.744
30.38000 -2.928
30.40000 2.300
30.42000 3.626
30.44000 2.191
30.46000 1.360
30.48000 4.650
30.50000 7.241
30.52000 7.625
30.54000 1.721
30.56000 -1.412
30.58000 2.170
30.60000 -1.918
30.62000 -0.633
30.64000 1.208
30.66000 2.050
30.68000 -2.113
30.70000 1.017
30.72000 0.862
30.74000 1.282
30.76000 5.452
30.78000 -0.560
30.80000 -2.170
30.82000 0.071
30.84000 -2.568
30.86000 2.419
30.88000 0.158
30.90000 1.518
30.92000 3.507
30.94000 8.748
30.96000 3.094
30.98000 -0.434
31.00000 -0.796
31.02000 -3.707
31.04000 -2.383
31.06000 4.188
31.08000 4.013
31.10000 0.274
31.12000 1.058
31.14000 1.065
31.16000 -1.571
31.18000 3.490
31.20000 1.140
31.22000 3.827
31.24000 5.588
31.26000 4.849
31.28000 4.107
31.30000 5.172
31.32000 -0.100
31.34000 1.672
31.36000 4.091
31.38000 -3.690
31.40000 -1.714
31.42000 0.594
31.44000 -0.929
31.46000 3.564
31.48000 -0.155
31.50000 -0.906
31.52000 -0.210
31.54000 -1.699
31.56000 -0.165
31.58000 2.513
31.60000 4.100
31.62000 5.305
31.64000 0.924
31.66000 -0.605
31.68000 7.549
31.70000 6.467
31.72000 5.240
31.74000 2.385
31.76000 4.016
31.78000 4.096
31.80000 1.894
31.82000 1.715
31.84000 6.455
31.86000 5.666
31.88000 3.214
31.90000 2.861
31.92000 3.556
31.94000 2.656
31.96000 4.189
31.98000 8.540
32.00000 12.395
32.02000 5.616
32.04000 1.363
32.06000 2.591
32.08000 -1.107
32.10000 -3.089
32.12000 -1.575
32.14000 -3.661
32.16000 1.027
32.18000 8.446
32.20000 4.834
32.22000 2.857
32.24000 1.657
32.26000 -0.397
32.28000 4.024
32.30000 7.660
32.32000 6.260
32.34000 4.329
32.36000 1.684
32.38000 0.250
32.40000 2.966
32.42000 1.068
32.44000 -1.193
32.46000 -1.467
32.48000 1.691
32.50000 -3.206
32.52000 -3.663
32.54000 -2.039
32.56000 1.610
32.58000 3.269
32.60000 2.360
32.62000 4.357
32.64000 1.667
32.66000 1.084
32.68000 -0.205
32.70000 -1.867
32.72000 -2.828
32.74000 1.821
32.76000 1.712
32.78000 0.439
32.80000 0.843
32.82000 -0.135
32.84000 4.592
32.86000 3.446
32.88000 4.312
32.90000 2.689
32.92000 4.550
32.94000 1.641
32.96000 0.905
32.98000 2.311
33.00000 -1.359
33.02000 1.997
33.04000 -0.892
33.06000 1.978
33.08000 3.915
33.10000 0.775
33.12000 0.774
33.14000 4.921
33.16000 3.968
33.18000 -1.252
33.20000 0.463
33.22000 -1.284
33.24000 -3.003
33.26000 6.870
33.28000 10.426
33.30000 6.146
33.32000 -2.870
33.34000 -2.430
33.36000 1.044
33.38000 -2.381
33.40000 0.892
33.42000 0.307
33.44000 -3.660
33.46000 -1.090
33.48000 -0.864
33.50000 2.677
33.52000 -2.437
33.54000 -1.719
33.56000 -2.326
33.58000 -0.985
33.60000 -0.167
33.62000 2.701
33.64000 9.089
33.66000 1.604
33.68000 2.900
33.70000 4.462
33.72000 3.134
33.74000 -2.028
33.76000 -2.755
33.78000 3.335
33.80000 7.679
33.82000 3.855
33.84000 -1.184
33.86000 -1.528
33.88000 -1.873
33.90000 -3.036
33.92000 -1.711
33.94000 1.243
33.96000 -1.043
33.98000 0.155
34.00000 1.700
34.02000 -0.781
34.04000 2.147
34.06000 1.742
34.08000 1.203
34.10000 2.428
34.12000 3.793
34.14000 5.845
34.16000 1.204
34.18000 2.138
34.20000 4.391
34.22000 7.217
34.24000 3.964
34.26000 0.404
34.28000 3.153
34.30000 5.078
34.32000 2.356
34.34000 3.718
34.36000 1.654
34.38000 -0.084
34.40000 3.090
34.42000 4.253
34.44000 4.519
34.46000 2.670
34.48000 0.711
34.50000 0.922
34.52000 3.883
34.54000 -0.814
34.56000 1.285
34.58000 -0.399
34.60000 0.673
34.62000 2.576
34.64000 2.112
34.66000 4.248
34.68000 -0.264
34.70000 0.862
34.72000 -1.604
34.74000 -3.630
34.76000 0.453
34.78000 3.181
34.80000 -0.921
34.82000 -2.000
34.84000 -0.868
34.86000 0.623
34.88000 0.547
34.90000 1.488
34.92000 7.035
34.94000 5.693
34.96000 1.143
34.98000 -2.229
35.00000 2.413
35.02000 5.113
35.04000 8.579
35.06000 4.227
35.08000 2.763
35.10000 1.489
35.12000 2.194
35.14000 0.863
35.16000 4.923
35.18000 6.780
35.20000 3.113
35.22000 1.420
35.24000 5.328
35.26000 7.503
35.28000 5.117
35.30000 -3.593
35.32000 1.317
35.34000 3.631
35.36000 -1.317
35.38000 3.676
35.40000 5.336
35.42000 5.200
35.44000 3.077
35.46000 -0.809
35.48000 4.239
35.50000 10.032
35.52000 8.030
35.54000 1.958
35.56000 0.622
35.58000 6.670
35.60000 7.637
35.62000 1.423
35.64000 3.670
35.66000 -0.101
35.68000 1.091
35.70000 -2.140
35.72000 -3.613
35.74000 -0.227
35.76000 0.338
35.78000 4.618
35.80000 8.324
35.82000 3.296
35.84000 2.988
35.86000 2.627
35.88000 6.547
35.90000 4.883
35.92000 6.234
35.94000 0.760
35.96000 3.699
35.98000 8.641
36.00000 5.050
36.02000 3.319
36.04000 4.205
36.06000 7.426
36.08000 6.352
36.10000 1.242
36.12000 6.210
36.14000 5.731
36.16000 2.201
36.18000 3.280
36.20000 2.768
36.22000 3.551
36.24000 2.990
36.26000 0.083
36.28000 0.348
36.30000 4.019
36.32000 1.294
36.34000 1.966
36.36000 5.049
36.38000 3.987
36.40000 7.375
36.42000 6.189
36.44000 4.269
36.46000 7.315
36.48000 3.494
36.50000 6.986
36.52000 6.877
36.54000 7.874
36.56000 2.170
36.58000 -0.256
36.60000 4.142
36.62000 2.077
36.64000 0.229
36.66000 -0.559
36.68000 -3.661
36.70000 2.236
36.72000 5.098
36.74000 5.416
36.76000 -0.657
36.78000 -1.219
36.80000 4.068
36.82000 4.417
36.84000 3.802
36.86000 7.273
36.88000 8.123
36.90000 6.959
36.92000 6.042
36.94000 1.323
36.96000 4.370
36.98000 7.612
37.00000 4.284
37.02000 1.673
37.04000 5.443
37.06000 9.229
37.08000 11.330
37.10000 6.853
37.12000 1.937
37.14000 -2.027
37.16000 3.018
37.18000 3.865
37.20000 0.816
37.22000 6.068
37.24000 4.269
37.26000 5.452
37.28000 5.944
37.30000 5.849
37.32000 9.044
37.34000 12.048
37.36000 13.604
37.38000 10.542
37.40000 8.025
37.42000 10.254
37.44000 11.895
37.46000 10.346
37.48000 10.184
37.50000 5.288
37.52000 6.512
37.54000 8.205
37.56000 10.079
37.58000 14.288
37.60000 13.597
37.62000 12.008
37.64000 12.130
37.66000 10.999
37.68000 11.879
37.70000 11.571
37.72000 12.992
37.74000 13.243
37.76000 8.890
37.78000 13.845
37.80000 21.590
37.82000 16.330
37.84000 18.716
37.86000 21.907
37.88000 19.944
37.90000 24.227
37.92000 20.689
37.94000 18.563
37.96000 19.060
37.98000 22.179
38.00000 21.339
38.02000 27.108
38.04000 24.880
38.06000 30.836
38.08000 29.181
38.10000 29.818
38.12000 30.942
38.14000 34.152
38.16000 35.739
38.18000 33.047
38.20000 34.122
38.22000 33.575
38.24000 36.298
38.26000 36.859
38.28000 38.879
38.30000 42.656
38.32000 40.586
38.34000 40.994
38.36000 38.502
38.38000 41.690
38.40000 44.727
38.42000 43.059
38.44000 49.166
38.46000 52.973
38.48000 49.910
38.50000 54.091
38.52000 55.707
38.54000 53.935
38.56000 59.845
38.58000 63.199
38.60000 60.742
38.62000 67.100
38.64000 67.603
38.66000 71.933
38.68000 71.607
38.70000 77.616
38.72000 77.900
38.74000 85.374
38.76000 89.431
38.78000 90.863
38.80000 92.547
38.82000 97.302
38.84000 101.212
38.86000 108.790
38.88000 116.105
38.90000 119.976
38.92000 118.621
38.94000 117.627
38.96000 131.093
38.98000 139.949
39.00000 145.358
39.02000 156.802
39.04000 158.243
39.06000 159.515
39.08000 165.451
39.10000 179.759
39.12000 184.034
39.14000 190.302
39.16000 199.346
39.18000 214.202
39.20000 223.177
39.22000 230.020
39.24000 248.502
39.26000 259.610
39.28000 270.749
39.30000 285.698
39.32000 292.343
39.34000 304.490
39.36000 319.134
39.38000 343.796
39.40000 365.487
39.42000 387.258
39.44000 390.499
39.46000 418.281
39.48000 430.407
39.50000 452.821
39.52000 469.132
39.54000 498.653
39.56000 510.930
39.58000 541.104
39.60000 565.877
39.62000 588.206
39.64000 608.402
39.66000 638.518
39.68000 660.879
39.70000 692.195
39.72000 723.725
39.74000 742.121
39.76000 759.775
39.78000 770.693
39.80000 786.295
39.82000 801.740
39.84000 817.547
39.86000 838.547
39.88000 862.846
39.90000 874.085
39.92000 870.097
39.94000 870.933
39.96000 879.551
39.98000 877.488
40.00000 866.399
40.02000 855.564
40.04000 856.361
40.06000 867.460
40.08000 855.455
40.10000 832.071
40.12000 811.619
40.14000 792.040
40.16000 761.831
40.18000 731.153
40.20000 711.523
40.22000 702.454
40.24000 678.821
40.26000 642.730
40.28000 631.948
40.30000 610.537
40.32000 567.620
40.34000 537.114
40.36000 503.918
40.38000 495.098
40.40000 471.342
40.42000 437.628
40.44000 418.951
40.46000 397.313
40.48000 372.979
40.50000 343.232
40.52000 335.853
40.54000 311.258
40.56000 290.674
40.58000 280.473
40.60000 268.749
40.62000 247.515
40.64000 230.610
40.66000 218.131
40.68000 199.471
40.70000 187.804
40.72000 181.810
40.74000 168.959
40.76000 162.934
40.78000 153.963
40.80000 139.748
40.82000 128.303
40.84000 120.609
40.86000 112.036
40.88000 104.539
40.90000 100.633
40.92000 98.631
40.94000 89.432
40.96000 86.899
40.98000 82.236
41.00000 73.997
41.02000 72.006
41.04000 68.790
41.06000 62.205
41.08000 59.161
41.10000 52.485
41.12000 49.717
41.14000 50.035
41.16000 44.590
41.18000 43.039
41.20000 44.448
41.22000 44.792
41.24000 42.514
41.26000 34.444
41.28000 35.261
41.30000 28.566
41.32000 27.797
41.34000 23.252
41.36000 28.690
41.38000 25.404
41.40000 21.608
41.42000 14.721
41.44000 18.657
41.46000 20.338
41.48000 20.490
41.50000 25.049
41.52000 21.481
41.54000 14.848
41.56000 16.814
41.58000 16.221
41.60000 11.722
41.62000 8.985
41.64000 10.083
41.66000 17.234
41.68000 14.243
41.70000 10.734
41.72000 8.043
41.74000 5.224
41.76000 4.377
41.78000 4.732
41.80000 11.892
41.82000 9.641
41.84000 0.891
41.86000 3.018
41.88000 4.643
41.90000 7.042
41.92000 9.894
41.94000 6.894
41.96000 2.106
41.98000 3.691
42.00000 2.290
42.02000 3.446
42.04000 2.110
42.06000 2.917
42.08000 4.856
42.10000 3.334
42.12000 3.493
42.14000 2.276
42.16000 4.166
42.18000 4.060
42.20000 6.020
42.22000 1.176
42.24000 0.338
42.26000 -0.335
42.28000 2.327
42.30000 3.694
42.32000 3.455
42.34000 2.424
42.36000 3.405
42.38000 5.646
42.40000 0.941
42.42000 -2.819
42.44000 -0.109
42.46000 0.803
42.48000 0.171
42.50000 2.210
42.52000 3.988
42.54000 1.025
42.56000 3.572
42.58000 4.661
42.60000 8.680
42.62000 10.923
42.64000 6.492
42.66000 4.489
42.68000 4.206
42.70000 6.058
42.72000 3.914
42.74000 3.403
42.76000 4.372
42.78000 2.686
42.80000 -1.469
42.82000 -3.611
42.84000 -2.086
42.86000 2.157
42.88000 2.292
42.90000 0.056
42.92000 -3.607
42.94000 -1.039
42.96000 -0.256
42.98000 2.250
43.00000 2.728
43.02000 3.329
43.04000 -0.336
43.06000 1.731
43.08000 3.832
43.10000 5.109
43.12000 3.459
43.14000 4.679
43.16000 2.134
43.18000 -3.231
43.20000 -3.485
43.22000 2.820
43.24000 7.344
43.26000 9.193
43.28000 6.617
43.30000 3.533
43.32000 2.441
43.34000 7.122
43.36000 8.576
43.38000 8.482
43.40000 2.397
43.42000 -3.577
43.44000 0.788
43.46000 3.500
43.48000 1.920
43.50000 4.030
43.52000 1.890
43.54000 -0.519
43.56000 1.983
43.58000 -0.661
43.60000 -0.536
43.62000 2.003
43.64000 6.366
43.66000 9.127
43.68000 6.173
43.70000 0.942
43.72000 -0.016
43.74000 0.945
43.76000 -2.270
43.78000 -2.980
43.80000 -1.540
43.82000 -1.082
43.84000 -3.597
43.86000 -3.539
43.88000 -1.043
43.90000 2.012
43.92000 -3.499
43.94000 0.510
43.96000 -1.250
43.98000 -2.886
44.00000 0.650
44.02000 3.431
44.04000 1.496
44.06000 1.297
44.08000 1.355
44.10000 3.294
44.12000 4.518
44.14000 1.397
44.16000 1.203
44.18000 1.221
44.20000 4.528
44.22000 -2.433
44.24000 1.536
44.26000 -0.358
44.28000 -1.952
44.30000 -1.215
44.32000 -1.599
44.34000 -2.992
44.36000 -3.619
44.38000 -1.975
44.40000 -1.871
44.42000 -2.443
44.44000 3.812
44.46000 8.197
44.48000 2.424
44.50000 6.459
44.52000 4.262
44.54000 0.827
44.56000 2.862
44.58000 0.814
44.60000 4.460
44.62000 3.589
44.64000 4.588
44.66000 0.083
44.68000 3.356
44.70000 1.437
44.72000 4.187
44.74000 4.078
44.76000 5.220
44.78000 5.984
44.80000 3.644
44.82000 -0.830
44.84000 -1.693
44.86000 -2.560
44.88000 -3.631
44.90000 0.059
44.92000 7.447
44.94000 7.375
44.96000 8.329
44.98000 11.082
45.00000 13.610
45.02000 18.039
45.04000 13.265
45.06000 11.780
45.08000 10.855
45.10000 11.088
45.12000 16.855
45.14000 11.389
45.16000 8.829
45.18000 16.948
45.20000 18.933
45.22000 18.541
45.24000 19.412
45.26000 19.460
45.28000 14.280
45.30000 11.209
45.32000 15.106
45.34000 15.957
45.36000 16.166
45.38000 18.190
45.40000 20.592
45.42000 21.231
45.44000 18.977
45.46000 22.528
45.48000 18.356
45.50000 25.662
45.52000 31.157
45.54000 32.825
45.56000 30.133
45.58000 29.640
45.60000 39.523
45.62000 35.141
45.64000 42.369
45.66000 40.675
45.68000 31.135
45.70000 34.897
45.72000 38.886
45.74000 37.475
45.76000 39.164
45.78000 38.732
45.80000 44.949
45.82000 44.555
45.84000 41.672
45.86000 39.383
45.88000 43.164
45.90000 41.196
45.92000 45.417
45.94000 48.413
45.96000 50.426
45.98000 49.561
46.00000 53.488
46.02000 56.565
46.04000 62.016
46.06000 64.745
46.08000 61.451
46.10000 63.324
46.12000 63.857
46.14000 65.441
46.16000 70.380
46.18000 60.217
46.20000 64.217
46.22000 67.532
46.24000 78.650
46.26000 74.380
46.28000 72.236
46.30000 77.932
46.32000 78.120
46.34000 75.445
46.36000 75.883
46.38000 75.512
46.40000 78.016
46.42000 79.372
46.44000 85.328
46.46000 82.500
46.48000 77.810
46.50000 78.631
46.52000 77.762
46.54000 77.342
46.56000 71.193
46.58000 81.211
46.60000 86.038
46.62000 80.132
46.64000 77.675
46.66000 78.683
46.68000 76.259
46.70000 78.704
46.72000 81.680
46.74000 74.180
46.76000 76.631
46.78000 82.790
46.80000 77.676
46.82000 71.936
46.84000 72.098
46.86000 69.395
46.88000 64.461
46.90000 59.435
46.92000 58.145
46.94000 60.879
46.96000 57.113
46.98000 51.965
47.00000 56.604
47.02000 51.950
47.04000 55.927
47.06000 56.872
47.08000 54.999
47.10000 54.142
47.12000 52.314
47.14000 48.750
47.16000 36.936
47.18000 35.658
47.20000 39.569
47.22000 39.739
47.24000 39.639
47.26000 35.682
47.28000 32.709
47.30000 31.403
47.32000 22.304
47.34000 22.110
47.36000 23.646
47.38000 25.418
47.40000 28.972
47.42000 27.582
47.44000 31.898
47.46000 28.218
47.48000 26.343
47.50000 21.624
47.52000 21.959
47.54000 20.765
47.56000 21.219
47.58000 18.414
47.60000 17.322
47.62000 17.746
47.64000 12.812
47.66000 8.946
47.68000 8.777
47.70000 8.508
47.72000 9.851
47.74000 10.423
47.76000 9.891
47.78000 6.756
47.80000 7.747
47.82000 2.199
47.84000 4.756
47.86000 3.924
47.88000 0.810
47.90000 6.082
47.92000 3.730
47.94000 0.656
47.96000 7.065
47.98000 3.198
48.00000 -0.001
48.02000 2.055
48.04000 1.084
48.06000 2.729
48.08000 4.979
48.10000 7.940
48.12000 5.200
48.14000 1.466
48.16000 5.808
48.18000 5.558
48.20000 4.891
48.22000 6.210
48.24000 7.698
48.26000 1.127
48.28000 0.791
48.30000 -2.915
48.32000 4.693
48.34000 6.590
48.36000 0.866
48.38000 1.777
48.40000 8.715
48.42000 5.273
48.44000 3.491
48.46000 2.512
48.48000 1.565
48.50000 5.026
48.52000 4.251
48.54000 1.085
48.56000 -3.314
48.58000 -2.469
48.60000 -0.827
48.62000 -0.025
48.64000 -2.149
48.66000 0.411
48.68000 2.760
48.70000 8.614
48.72000 2.306
48.74000 3.733
48.76000 9.565
48.78000 3.639
48.80000 4.802
48.82000 3.334
48.84000 2.124
48.86000 2.338
48.88000 0.839
48.90000 -1.639
48.92000 -3.002
48.94000 3.169
48.96000 8.163
48.98000 3.638
49.00000 4.229
49.02000 -1.388
49.04000 -0.495
49.06000 6.672
49.08000 1.234
49.10000 0.266
49.12000 -0.178
49.14000 0.147
49.16000 0.308
49.18000 2.371
49.20000 -3.240
49.22000 4.647
49.24000 0.842
49.26000 -0.723
49.28000 0.041
49.30000 0.604
49.32000 0.210
49.34000 1.453
49.36000 5.177
49.38000 2.986
49.40000 4.234
49.42000 0.279
49.44000 -1.527
49.46000 -0.666
49.48000 1.400
49.50000 1.578
49.52000 -2.988
49.54000 -1.600
49.56000 3.913
49.58000 0.592
49.60000 -1.498
49.62000 1.630
49.64000 0.213
49.66000 3.399
49.68000 0.533
49.70000 -2.785
49.72000 -2.246
49.74000 3.307
49.76000 5.981
49.78000 0.890
49.80000 3.989
49.82000 10.937
49.84000 6.656
49.86000 0.162
49.88000 -2.226
49.90000 -0.703
49.92000 -0.070
49.94000 -0.306
49.96000 -0.703
49.98000 1.189
50.00000 -3.172
50.02000 -0.007
50.04000 4.381
50.06000 7.964
50.08000 5.395
50.10000 3.521
50.12000 1.173
50.14000 -2.926
50.16000 -0.957
50.18000 -0.745
50.20000 5.918
50.22000 3.644
50.24000 -0.194
50.26000 3.596
50.28000 3.964
50.30000 2.159
50.32000 -0.967
50.34000 2.958
50.36000 7.534
50.38000 6.725
50.40000 3.724
50.42000 3.013
50.44000 3.298
50.46000 6.009
50.48000 3.788
50.50000 -0.829
50.52000 3.298
50.54000 4.442
50.56000 3.645
50.58000 2.275
50.60000 5.334
50.62000 8.104
50.64000 -3.128
50.66000 0.177
50.68000 0.092
50.70000 2.173
50.72000 7.395
50.74000 4.310
50.76000 4.704
50.78000 2.050
50.80000 2.408
50.82000 3.176
50.84000 3.096
50.86000 2.878
50.88000 2.014
50.90000 -2.181
50.92000 0.102
50.94000 5.450
50.96000 6.145
50.98000 0.456
51.00000 -1.260
51.02000 1.984
51.04000 8.410
51.06000 13.841
51.08000 6.911
51.10000 -3.099
51.12000 2.102
51.14000 7.569
51.16000 4.730
51.18000 4.266
51.20000 1.006
51.22000 0.382
51.24000 0.567
51.26000 5.078
51.28000 8.224
51.30000 4.138
51.32000 7.253
51.34000 5.404
51.36000 -0.399
51.38000 1.945
51.40000 7.114
51.42000 10.304
51.44000 13.283
51.46000 -0.365
51.48000 0.375
51.50000 1.130
51.52000 5.422
51.54000 11.508
51.56000 9.555
51.58000 6.072
51.60000 11.097
51.62000 9.702
51.64000 5.953
51.66000 0.772
51.68000 0.566
51.70000 4.946
51.72000 5.655
51.74000 3.963
51.76000 2.456
51.78000 1.351
51.80000 -0.868
51.82000 -3.053
51.84000 9.304
51.86000 11.183
51.88000 6.965
51.90000 7.776
51.92000 6.187
51.94000 4.158
51.96000 1.179
51.98000 3.085
52.00000 3.279
52.02000 4.703
52.04000 5.553
52.06000 9.003
52.08000 7.623
52.10000 2.454
52.12000 1.058
52.14000 5.098
52.16000 8.741
52.18000 10.024
52.20000 7.558
52.22000 6.531
52.24000 -0.426
52.26000 5.428
52.28000 8.912
52.30000 9.884
52.32000 8.732
52.34000 8.592
52.36000 8.547
52.38000 5.600
52.40000 8.518
52.42000 0.128
52.44000 2.748
52.46000 3.118
52.48000 3.992
52.50000 -0.379
52.52000 4.629
52.54000 10.849
52.56000 10.343
52.58000 11.432
52.60000 7.399
52.62000 6.055
52.64000 1.615
52.66000 -3.053
52.68000 -2.706
52.70000 4.610
52.72000 3.083
52.74000 6.938
52.76000 2.912
52.78000 1.104
52.80000 -0.509
52.82000 -1.167
52.84000 -2.528
52.86000 2.518
52.88000 5.526
52.90000 7.552
52.92000 4.296
52.94000 1.399
52.96000 2.765
52.98000 1.572
53.00000 1.820
53.02000 2.312
53.04000 3.213
53.06000 2.788
53.08000 6.044
53.10000 14.205
53.12000 6.974
53.14000 1.541
53.16000 8.475
53.18000 7.823
53.20000 5.217
53.22000 1.413
53.24000 1.517
53.26000 0.031
53.28000 3.832
53.30000 0.602
53.32000 -2.452
53.34000 -1.203
53.36000 2.748
53.38000 4.822
53.40000 1.422
53.42000 4.104
53.44000 5.058
53.46000 4.023
53.48000 2.293
53.50000 -0.063
53.52000 3.647
53.54000 0.304
53.56000 5.387
53.58000 5.144
53.60000 -0.577
53.62000 5.721
53.64000 5.568
53.66000 7.606
53.68000 6.280
53.70000 5.158
53.72000 -0.545
53.74000 -2.790
53.76000 -3.016
53.78000 -0.035
53.80000 3.690
53.82000 1.120
53.84000 1.105
53.86000 -0.545
53.88000 4.196
53.90000 3.960
53.92000 -2.845
53.94000 1.438
53.96000 1.397
53.98000 1.349
54.00000 5.143
54.02000 -1.319
54.04000 2.068
54.06000 2.433
54.08000 2.280
54.10000 0.832
54.12000 2.166
54.14000 3.986
54.16000 2.458
54.18000 1.530
54.20000 1.772
54.22000 10.063
54.24000 15.863
54.26000 5.640
54.28000 2.462
54.30000 1.001
54.32000 4.057
54.34000 -1.466
54.36000 3.935
54.38000 9.649
54.40000 5.991
54.42000 1.136
54.44000 1.390
54.46000 1.653
54.48000 -3.002
54.50000 1.993
54.52000 5.217
54.54000 1.525
54.56000 0.411
54.58000 8.964
54.60000 8.903
54.62000 8.567
54.64000 4.971
54.66000 6.818
54.68000 4.883
54.70000 2.996
54.72000 6.292
54.74000 4.730
54.76000 3.525
54.78000 0.684
54.80000 1.071
54.82000 2.100
54.84000 3.353
54.86000 0.693
54.88000 4.656
54.90000 2.545
54.92000 -2.994
54.94000 4.477
54.96000 1.222
54.98000 2.743
55.00000 6.158
55.02000 11.595
55.04000 10.311
55.06000 10.469
55.08000 14.766
55.10000 13.919
55.12000 7.098
55.14000 12.979
55.16000 10.126
55.18000 3.428
55.20000 2.335
55.22000 4.504
55.24000 2.270
55.26000 -2.985
55.28000 -1.170
55.30000 -0.280
55.32000 -1.363
55.34000 2.791
55.36000 6.920
55.38000 3.444
55.40000 6.026
55.42000 6.401
55.44000 5.321
55.46000 3.914
55.48000 10.745
55.50000 9.265
55.52000 7.101
55.54000 1.986
55.56000 2.480
55.58000 1.131
55.60000 1.861
55.62000 -1.834
55.64000 -1.824
55.66000 5.163
55.68000 7.853
55.70000 1.395
55.72000 5.134
55.74000 4.010
55.76000 10.072
55.78000 8.771
55.80000 4.714
55.82000 1.934
55.84000 -2.635
55.86000 5.368
55.88000 8.676
55.90000 1.020
55.92000 1.752
55.94000 4.225
55.96000 2.725
55.98000 3.760
56.00000 4.062
56.02000 -0.362
56.04000 0.470
56.06000 5.344
56.08000 1.077
56.10000 2.643
56.12000 3.648
56.14000 -0.367
56.16000 1.783
56.18000 1.941
56.20000 -0.702
56.22000 2.509
56.24000 4.914
56.26000 -0.226
56.28000 -1.509
56.30000 -0.960
56.32000 -1.223
56.34000 -1.631
56.36000 1.812
56.38000 1.073
56.40000 -0.811
56.42000 -0.514
56.44000 -1.140
56.46000 1.154
56.48000 3.910
56.50000 4.559
56.52000 6.889
56.54000 4.773
56.56000 3.133
56.58000 4.368
56.60000 3.705
56.62000 1.124
56.64000 0.252
56.66000 4.434
56.68000 7.814
56.70000 5.070
56.72000 4.493
56.74000 5.901
56.76000 5.917
56.78000 3.634
56.80000 -1.244
56.82000 -2.533
56.84000 7.731
56.86000 3.653
56.88000 -2.927
56.90000 7.518
56.92000 9.635
56.94000 5.683
56.96000 0.308
56.98000 -2.920
57.00000 2.217
57.02000 3.125
57.04000 2.223
57.06000 4.638
57.08000 6.212
57.10000 -0.711
57.12000 2.575
57.14000 2.044
57.16000 2.272
57.18000 -1.578
57.20000 -1.692
57.22000 3.900
57.24000 3.313
57.26000 9.087
57.28000 9.875
57.30000 9.060
57.32000 2.333
57.34000 2.097
57.36000 -2.009
57.38000 3.124
57.40000 3.704
57.42000 0.809
57.44000 -2.917
57.46000 -0.081
57.48000 1.692
57.50000 1.089
57.52000 -1.638
57.54000 1.115
57.56000 2.121
57.58000 0.698
57.60000 1.368
57.62000 2.377
57.64000 2.175
57.66000 1.035
57.68000 5.211
57.70000 4.597
57.72000 1.674
57.74000 1.268
57.76000 4.936
57.78000 1.207
57.80000 -0.774
57.82000 3.106
57.84000 4.354
57.86000 0.110
57.88000 2.136
57.90000 3.241
57.92000 4.483
57.94000 0.920
57.96000 5.457
57.98000 1.605
58.00000 3.010
58.02000 -2.702
58.04000 -2.900
58.06000 5.568
58.08000 3.192
58.10000 1.077
58.12000 3.623
58.14000 0.320
58.16000 -0.975
58.18000 -1.186
58.20000 -1.194
58.22000 0.352
58.24000 2.279
58.26000 5.231
58.28000 9.611
58.30000 4.252
58.32000 2.733
58.34000 -0.031
58.36000 2.984
58.38000 3.430
58.40000 1.264
58.42000 -2.555
58.44000 0.859
58.46000 3.872
58.48000 -1.105
58.50000 0.620
58.52000 -0.790
58.54000 -2.450
58.56000 -2.621
58.58000 2.703
58.60000 -0.405
58.62000 -2.231
58.64000 4.404
58.66000 3.992
58.68000 -2.058
58.70000 5.280
58.72000 3.680
58.74000 -0.915
58.76000 3.111
58.78000 3.281
58.80000 3.314
58.82000 2.956
58.84000 0.668
58.86000 -0.406
58.88000 1.404
58.90000 0.559
58.92000 1.576
58.94000 -0.750
58.96000 -0.584
58.98000 2.557
59.00000 7.030
59.02000 4.819
59.04000 6.556
59.06000 6.181
59.08000 7.452
59.10000 -0.799
59.12000 -2.851
59.14000 0.143
59.16000 0.457
59.18000 3.771
59.20000 4.544
59.22000 1.707
59.24000 1.436
59.26000 3.692
59.28000 4.473
59.30000 0.461
59.32000 1.071
59.34000 3.683
59.36000 2.547
59.38000 1.439
59.40000 3.302
59.42000 -0.359
59.44000 -1.904
59.46000 1.088
59.48000 -0.043
59.50000 1.312
59.52000 1.629
59.54000 8.729
59.56000 8.199
59.58000 5.433
59.60000 8.363
59.62000 9.397
59.64000 6.999
59.66000 6.154
59.68000 9.785
59.70000 11.674
59.72000 6.686
59.74000 0.390
59.76000 6.313
59.78000 10.733
59.80000 8.081
59.82000 5.070
59.84000 6.383
59.86000 3.935
59.88000 -1.719
59.90000 -2.792
59.92000 -1.933
59.94000 1.155
59.96000 4.792
59.98000 7.405
60.00000 4.035
60.02000 1.120
60.04000 1.484
60.06000 3.094
60.08000 6.508
60.10000 6.901
60.12000 7.415
60.14000 7.332
60.16000 4.103
60.18000 5.341
60.20000 4.472
60.22000 3.056
60.24000 3.493
60.26000 4.543
60.28000 -0.658
60.30000 -1.359
60.32000 4.450
60.34000 8.416
60.36000 7.894
60.38000 2.777
60.40000 1.272
60.42000 3.554
60.44000 0.682
60.46000 4.222
60.48000 3.283
60.50000 2.110
60.52000 0.949
60.54000 -0.787
60.56000 3.869
60.58000 8.373
60.60000 4.530
60.62000 -0.828
60.64000 1.655
60.66000 1.212
60.68000 1.596
60.70000 3.289
60.72000 2.979
60.74000 2.565
60.76000 2.332
60.78000 6.967
60.80000 6.527
60.82000 3.054
60.84000 2.463
60.86000 -2.232
60.88000 2.750
60.90000 3.297
60.92000 8.295
60.94000 6.981
60.96000 1.374
60.98000 5.034
61.00000 4.770
61.02000 5.335
61.04000 0.451
61.06000 0.830
61.08000 5.234
61.10000 4.357
61.12000 4.198
61.14000 -0.102
61.16000 -1.787
61.18000 -2.782
61.20000 1.980
61.22000 4.310
61.24000 2.940
61.26000 1.855
61.28000 0.864
61.30000 6.182
61.32000 2.035
61.34000 -0.225
61.36000 0.065
61.38000 3.624
61.40000 6.507
61.42000 1.391
61.44000 -1.270
61.46000 -0.856
61.48000 2.406
61.50000 4.380
61.52000 2.627
61.54000 0.056
61.56000 0.099
61.58000 0.513
61.60000 1.883
61.62000 0.460
61.64000 5.793
61.66000 1.753
61.68000 -0.400
61.70000 3.466
61.72000 2.398
61.74000 0.008
61.76000 -2.778
61.78000 0.138
61.80000 5.296
61.82000 1.760
61.84000 5.886
61.86000 3.489
61.88000 1.790
61.90000 -0.167
61.92000 1.452
61.94000 1.547
61.96000 1.062
61.98000 3.763
62.00000 7.045
62.02000 1.494
62.04000 3.424
62.06000 7.125
62.08000 5.294
62.10000 -0.895
62.12000 -1.789
62.14000 3.854
62.16000 1.951
62.18000 0.857
62.20000 3.409
62.22000 6.525
62.24000 0.712
62.26000 -0.559
62.28000 -0.471
62.30000 0.893
62.32000 2.764
62.34000 3.420
62.36000 2.802
62.38000 5.284
62.40000 3.915
62.42000 5.857
62.44000 5.478
62.46000 6.266
62.48000 3.626
62.50000 4.497
62.52000 7.424
62.54000 1.401
62.56000 4.864
62.58000 11.303
62.60000 4.853
62.62000 6.693
62.64000 7.092
62.66000 4.185
62.68000 0.536
62.70000 -2.722
62.72000 4.837
62.74000 5.315
62.76000 3.216
62.78000 4.752
62.80000 2.195
62.82000 1.513
62.84000 8.268
62.86000 6.003
62.88000 7.316
62.90000 5.942
62.92000 3.397
62.94000 2.366
62.96000 0.819
62.98000 4.304
63.00000 7.192
63.02000 3.708
63.04000 5.208
63.06000 7.007
63.08000 6.973
63.10000 4.861
63.12000 1.199
63.14000 1.180
63.16000 5.519
63.18000 6.480
63.20000 4.960
63.22000 2.731
63.24000 4.106
63.26000 7.936
63.28000 7.471
63.30000 1.399
63.32000 -0.902
63.34000 2.314
63.36000 8.726
63.38000 3.382
63.40000 2.856
63.42000 1.571
63.44000 1.002
63.46000 1.800
63.48000 0.405
63.50000 -1.983
63.52000 -1.214
63.54000 -0.710
63.56000 5.468
63.58000 8.354
63.60000 4.880
63.62000 5.254
63.64000 9.917
63.66000 5.063
63.68000 -0.741
63.70000 -0.287
63.72000 -0.372
63.74000 1.372
63.76000 3.657
63.78000 1.757
63.80000 2.457
63.82000 2.701
63.84000 4.922
63.86000 5.028
63.88000 4.383
63.90000 3.111
63.92000 2.455
63.94000 6.452
63.96000 7.231
63.98000 5.314
64.00000 -2.555
64.02000 -2.740
64.04000 0.360
64.06000 2.154
64.08000 6.844
64.10000 6.902
64.12000 3.355
64.14000 8.435
64.16000 4.783
64.18000 2.441
64.20000 3.308
64.22000 5.820
64.24000 4.443
64.26000 4.418
64.28000 3.793
64.30000 1.359
64.32000 1.666
64.34000 -1.484
64.36000 1.870
64.38000 2.049
64.40000 1.314
64.42000 7.855
64.44000 5.675
64.46000 6.101
64.48000 3.292
64.50000 2.597
64.52000 5.157
64.54000 2.230
64.56000 0.306
64.58000 0.814
64.60000 -1.673
64.62000 5.180
64.64000 8.526
64.66000 1.500
64.68000 0.287
64.70000 -0.733
64.72000 6.638
64.74000 4.974
64.76000 4.906
64.78000 6.867
64.80000 8.956
64.82000 5.713
64.84000 6.371
64.86000 3.137
64.88000 1.260
64.90000 1.986
64.92000 1.607
64.94000 6.806
64.96000 3.045
64.98000 5.405
65.00000 5.103
65.02000 0.281
65.04000 -1.522
65.06000 -0.132
65.08000 0.070
65.10000 -2.765
65.12000 2.296
65.14000 7.257
65.16000 10.915
65.18000 7.785
65.20000 0.088
65.22000 -0.044
65.24000 5.222
65.26000 4.836
65.28000 2.428
65.30000 2.394
65.32000 2.506
65.34000 4.814
65.36000 8.587
65.38000 5.451
65.40000 2.932
65.42000 0.805
65.44000 -0.103
65.46000 3.082
65.48000 -1.715
65.50000 -0.354
65.52000 2.471
65.54000 5.904
65.56000 2.624
65.58000 -2.661
65.60000 -2.816
65.62000 -2.597
65.64000 3.133
65.66000 5.169
65.68000 9.311
65.70000 7.339
65.72000 1.252
65.74000 2.001
65.76000 4.723
65.78000 6.250
65.80000 0.385
65.82000 -2.841
65.84000 -1.563
65.86000 2.700
65.88000 2.977
65.90000 3.341
65.92000 3.071
65.94000 2.661
65.96000 2.862
65.98000 2.098
66.00000 1.131
66.02000 -1.253
66.04000 -0.562
66.06000 2.188
66.08000 1.708
66.10000 3.921
66.12000 5.993
66.14000 7.667
66.16000 2.415
66.18000 5.430
66.20000 6.612
66.22000 3.379
66.24000 0.632
66.26000 1.525
66.28000 3.395
66.30000 1.430
66.32000 1.280
66.34000 3.116
66.36000 7.232
66.38000 3.688
66.40000 0.169
66.42000 0.517
66.44000 2.555
66.46000 2.073
66.48000 2.744
66.50000 6.010
66.52000 7.924
66.54000 7.658
66.56000 6.190
66.58000 8.668
66.60000 10.279
66.62000 8.442
66.64000 5.022
66.66000 8.238
66.68000 8.695
66.70000 7.643
66.72000 4.415
66.74000 3.537
66.76000 6.399
66.78000 10.159
66.80000 8.488
66.82000 6.569
66.84000 9.002
66.86000 13.104
66.88000 10.581
66.90000 10.237
66.92000 10.103
66.94000 12.873
66.96000 11.293
66.98000 7.862
67.00000 15.597
67.02000 16.063
67.04000 15.479
67.06000 11.596
67.08000 11.003
67.10000 11.445
67.12000 16.328
67.14000 22.248
67.16000 19.195
67.18000 14.493
67.20000 11.445
67.22000 15.797
67.24000 16.675
67.26000 18.373
67.28000 16.842
67.30000 18.413
67.32000 17.376
67.34000 14.896
67.36000 19.476
67.38000 21.006
67.40000 21.077
67.42000 19.407
67.44000 18.607
67.46000 18.414
67.48000 21.148
67.50000 18.166
67.52000 17.293
67.54000 21.245
67.56000 22.683
67.58000 22.280
67.60000 28.385
67.62000 26.839
67.64000 24.693
67.66000 24.624
67.68000 23.872
67.70000 18.763
67.72000 19.717
67.74000 20.287
67.76000 20.141
67.78000 17.808
67.80000 22.643
67.82000 24.403
67.84000 26.656
67.86000 20.675
67.88000 23.817
67.90000 28.947
67.92000 26.081
67.94000 25.494
67.96000 24.859
67.98000 22.906
68.00000 25.147
68.02000 20.277
68.04000 16.233
68.06000 18.310
68.08000 18.718
68.10000 19.551
68.12000 20.387
68.14000 21.949
68.16000 23.830
68.18000 23.534
68.20000 18.236
68.22000 23.308
68.24000 21.974
68.26000 15.014
68.28000 20.189
68.30000 20.819
68.32000 15.768
68.34000 13.150
68.36000 16.349
68.38000 17.409
68.40000 18.757
68.42000 16.883
68.44000 19.302
68.46000 13.407
68.48000 10.435
68.50000 12.086
68.52000 12.173
68.54000 10.861
68.56000 13.834
68.58000 13.523
68.60000 9.764
68.62000 11.346
68.64000 8.755
68.66000 8.039
68.68000 8.863
68.70000 9.344
68.72000 11.528
68.74000 11.351
68.76000 4.241
68.78000 1.749
68.80000 4.288
68.82000 4.880
68.84000 10.994
68.86000 9.846
68.88000 8.699
68.90000 5.418
68.92000 6.091
68.94000 6.613
68.96000 10.115
68.98000 8.009
69.00000 0.576
69.02000 0.444
69.04000 2.823
69.06000 6.916
69.08000 5.385
69.10000 0.725
69.12000 1.258
69.14000 5.591
69.16000 4.260
69.18000 0.544
69.20000 1.199
69.22000 3.147
69.24000 7.506
69.26000 -1.508
69.28000 -2.387
69.30000 -1.911
69.32000 1.174
69.34000 0.395
69.36000 -1.603
69.38000 -2.765
69.40000 -0.931
69.42000 3.129
69.44000 4.892
69.46000 3.883
69.48000 5.373
69.50000 3.319
69.52000 3.687
69.54000 3.331
69.56000 -0.767
69.58000 -0.866
69.60000 0.417
69.62000 2.977
69.64000 -0.030
69.66000 1.609
69.68000 3.176
69.70000 -2.485
69.72000 2.622
69.74000 1.609
69.76000 4.065
69.78000 1.155
69.80000 4.189
69.82000 5.899
69.84000 2.594
69.86000 0.643
69.88000 4.002
69.90000 7.474
69.92000 6.511
69.94000 3.417
69.96000 0.010
69.98000 1.282
70.00000 -2.118
70.02000 -2.688
70.04000 0.385
70.06000 -1.941
70.08000 4.413
70.10000 4.969
70.12000 7.523
70.14000 4.455
70.16000 4.253
70.18000 6.544
70.20000 3.095
70.22000 2.683
70.24000 4.976
70.26000 1.240
70.28000 3.554
70.30000 4.094
70.32000 -0.696
70.34000 2.628
70.36000 3.923
70.38000 -0.739
70.40000 0.435
70.42000 -2.653
70.44000 3.832
70.46000 3.885
70.48000 1.298
70.50000 3.077
70.52000 4.996
70.54000 5.157
70.56000 2.603
70.58000 2.760
70.60000 1.058
70.62000 0.440
70.64000 1.513
70.66000 1.042
70.68000 -0.943
70.70000 1.376
70.72000 4.236
70.74000 3.795
70.76000 -2.649
70.78000 1.855
70.80000 6.825
70.82000 7.345
70.84000 5.114
70.86000 12.755
70.88000 9.613
70.90000 1.279
70.92000 3.758
70.94000 1.223
70.96000 0.662
70.98000 3.768
71.00000 1.413
71.02000 4.684
71.04000 6.089
71.06000 4.476
71.08000 4.279
71.10000 6.592
71.12000 5.562
71.14000 4.155
71.16000 -1.309
71.18000 -0.471
71.20000 7.348
71.22000 6.527
71.24000 2.933
71.26000 6.164
71.28000 4.484
71.30000 -1.817
71.32000 1.612
71.34000 6.134
71.36000 4.026
71.38000 2.019
71.40000 4.811
71.42000 6.029
71.44000 2.285
71.46000 1.442
71.48000 5.739
71.50000 10.775
71.52000 3.885
71.54000 -0.411
71.56000 -1.127
71.58000 -1.318
71.60000 -0.514
71.62000 5.607
71.64000 4.939
71.66000 4.836
71.68000 3.617
71.70000 0.259
71.72000 3.310
71.74000 -0.570
71.76000 0.647
71.78000 -0.746
71.80000 3.765
71.82000 2.767
71.84000 4.224
71.86000 4.354
71.88000 5.083
71.90000 4.287
71.92000 4.284
71.94000 -2.583
71.96000 0.017
71.98000 0.930
72.00000 3.713
72.02000 2.708
72.04000 3.117
72.06000 2.467
72.08000 7.394
72.10000 2.746
72.12000 5.087
72.14000 5.307
72.16000 2.979
72.18000 6.855
72.20000 4.515
72.22000 1.167
72.24000 1.165
72.26000 -0.704
72.28000 1.095
72.30000 2.796
72.32000 2.971
72.34000 2.271
72.36000 4.287
72.38000 3.456
72.40000 5.446
72.42000 4.702
72.44000 0.306
72.46000 3.751
72.48000 0.424
72.50000 4.904
72.52000 11.370
72.54000 6.379
72.56000 5.453
72.58000 7.322
72.60000 4.636
72.62000 0.816
72.64000 -0.862
72.66000 -2.562
72.68000 -0.755
72.70000 2.513
72.72000 -0.644
72.74000 -0.823
72.76000 1.812
72.78000 4.120
72.80000 1.238
72.82000 1.561
72.84000 1.334
72.86000 6.451
72.88000 6.010
72.90000 5.081
72.92000 0.152
72.94000 -0.822
72.96000 -1.800
72.98000 3.013
73.00000 6.627
73.02000 1.216
73.04000 -2.543
73.06000 -0.315
73.08000 2.115
73.10000 6.033
73.12000 8.131
73.14000 4.058
73.16000 6.782
73.18000 6.596
73.20000 5.888
73.22000 1.894
73.24000 1.149
73.26000 3.844
73.28000 7.357
73.30000 6.683
73.32000 5.810
73.34000 5.551
73.36000 9.988
73.38000 9.534
73.40000 9.088
73.42000 2.168
73.44000 0.918
73.46000 3.559
73.48000 0.796
73.50000 3.313
73.52000 5.942
73.54000 2.319
73.56000 -1.983
73.58000 1.774
73.60000 5.867
73.62000 2.788
73.64000 -0.153
73.66000 0.912
73.68000 3.790
73.70000 5.516
73.72000 7.382
73.74000 8.474
73.76000 7.051
73.78000 9.304
73.80000 8.161
73.82000 5.488
73.84000 5.319
73.86000 2.619
73.88000 2.926
73.90000 -1.327
73.92000 -2.560
73.94000 4.894
73.96000 3.478
73.98000 1.143
74.00000 -1.355
74.02000 1.261
74.04000 5.418
74.06000 0.959
74.08000 0.206
74.10000 0.577
74.12000 4.889
74.14000 5.051
74.16000 2.072
74.18000 1.558
74.20000 1.965
74.22000 1.230
74.24000 3.751
74.26000 1.789
74.28000 1.228
74.30000 -0.456
74.32000 -1.082
74.34000 4.812
74.36000 1.680
74.38000 -0.409
74.40000 0.755
74.42000 -0.066
74.44000 2.862
74.46000 6.263
74.48000 5.815
74.50000 6.897
74.52000 7.296
74.54000 8.329
74.56000 5.243
74.58000 1.505
74.60000 2.855
74.62000 1.862
74.64000 0.920
74.66000 2.179
74.68000 7.743
74.70000 11.032
74.72000 5.455
74.74000 2.291
74.76000 3.700
74.78000 6.314
74.80000 4.347
74.82000 4.310
74.84000 5.137
74.86000 3.572
74.88000 2.038
74.90000 2.505
74.92000 -2.516
74.94000 0.639
74.96000 2.141
74.98000 -1.660
75.00000 6.201
75.02000 6.610
75.04000 3.792
75.06000 5.880
75.08000 4.426
75.10000 3.606
75.12000 -0.130
75.14000 5.455
75.16000 4.380
75.18000 0.109
75.20000 2.281
75.22000 8.961
75.24000 11.626
75.26000 6.167
75.28000 5.157
75.30000 7.764
75.32000 11.175
75.34000 5.461
75.36000 8.346
75.38000 7.464
75.40000 4.686
75.42000 2.159
75.44000 4.738
75.46000 5.600
75.48000 10.638
75.50000 3.270
75.52000 2.434
75.54000 -0.094
75.56000 -2.513
75.58000 -1.767
75.60000 3.739
75.62000 4.341
75.64000 3.737
75.66000 5.097
75.68000 3.716
75.70000 0.578
75.72000 1.467
75.74000 10.710
75.76000 11.185
75.78000 8.408
75.80000 7.440
75.82000 9.896
75.84000 5.465
75.86000 5.925
75.88000 2.496
75.90000 8.497
75.92000 9.646
75.94000 6.204
75.96000 3.627
75.98000 3.175
76.00000 3.057
76.02000 4.251
76.04000 6.541
76.06000 1.120
76.08000 5.539
76.10000 9.425
76.12000 4.889
76.14000 6.529
76.16000 9.137
76.18000 8.515
76.20000 4.467
76.22000 3.668
76.24000 4.422
76.26000 11.779
76.28000 8.585
76.30000 12.887
76.32000 12.820
76.34000 3.658
76.36000 2.535
76.38000 7.503
76.40000 5.023
76.42000 7.251
76.44000 8.548
76.46000 10.177
76.48000 7.223
76.50000 3.601
76.52000 7.017
76.54000 4.551
76.56000 6.635
76.58000 5.130
76.60000 1.436
76.62000 -0.024
76.64000 8.314
76.66000 13.639
76.68000 12.153
76.70000 9.104
76.72000 5.250
76.74000 -2.503
76.76000 2.780
76.78000 11.780
76.80000 14.071
76.82000 14.387
76.84000 11.823
76.86000 9.078
76.88000 8.276
76.90000 4.021
76.92000 5.827
76.94000 4.853
76.96000 8.590
76.98000 4.719
77.00000 3.704
77.02000 4.097
77.04000 9.441
77.06000 8.905
77.08000 3.203
77.10000 2.252
77.12000 6.158
77.14000 8.321
77.16000 11.597
77.18000 10.248
77.20000 7.244
77.22000 8.246
77.24000 5.887
77.26000 6.670
77.28000 9.424
77.30000 7.676
77.32000 4.209
77.34000 3.859
77.36000 -0.697
77.38000 3.298
77.40000 8.028
77.42000 10.427
77.44000 4.598
77.46000 -2.568
77.48000 2.699
77.50000 -0.088
77.52000 0.776
77.54000 2.985
77.56000 6.529
77.58000 3.044
77.60000 4.305
77.62000 10.189
77.64000 9.323
77.66000 9.080
77.68000 6.886
77.70000 3.633
77.72000 -2.595
77.74000 2.045
77.76000 5.195
77.78000 2.740
77.80000 2.863
77.82000 5.763
77.84000 1.770
77.86000 6.762
77.88000 3.759
77.90000 4.858
77.92000 5.668
77.94000 2.670
77.96000 1.308
77.98000 -1.568
78.00000 2.574
78.02000 9.067
78.04000 8.238
78.06000 1.851
78.08000 -1.066
78.10000 4.497
78.12000 9.793
78.14000 6.931
78.16000 2.965
78.18000 2.322
78.20000 1.960
78.22000 4.388
78.24000 2.309
78.26000 3.521
78.28000 5.450
78.30000 4.044
78.32000 2.086
78.34000 3.075
78.36000 1.280
78.38000 2.581
78.40000 6.487
78.42000 6.860
78.44000 7.849
78.46000 8.112
78.48000 6.671
78.50000 1.619
78.52000 4.153
78.54000 0.858
78.56000 -2.668
78.58000 0.487
78.60000 2.335
78.62000 2.244
78.64000 3.715
78.66000 0.398
78.68000 1.235
78.70000 1.779
78.72000 2.712
78.74000 0.303
78.76000 2.644
78.78000 6.461
78.80000 2.928
78.82000 3.738
78.84000 6.965
78.86000 4.814
78.88000 -1.516
78.90000 0.893
78.92000 -0.663
78.94000 1.661
78.96000 6.420
78.98000 10.221
79.00000 7.428
79.02000 5.986
79.04000 0.041
79.06000 2.074
79.08000 1.053
79.10000 2.677
79.12000 0.330
79.14000 0.394
79.16000 2.785
79.18000 4.936
79.20000 4.423
79.22000 6.476
79.24000 6.056
79.26000 5.271
79.28000 3.386
79.30000 0.614
79.32000 4.620
79.34000 7.090
79.36000 2.354
79.38000 8.800
79.40000 7.532
79.42000 6.441
79.44000 3.077
79.46000 2.303
79.48000 -0.737
79.50000 2.659
79.52000 5.194
79.54000 5.508
79.56000 1.429
79.58000 4.619
79.60000 2.485
79.62000 6.734
79.64000 12.684
79.66000 16.391
79.68000 10.099
79.70000 6.854
79.72000 4.762
79.74000 9.148
79.76000 9.511
79.78000 12.893
79.80000 13.539
79.82000 12.474
79.84000 4.699
79.86000 2.137
79.88000 -2.728
79.90000 4.086
79.92000 8.104
79.94000 8.591
79.96000 8.568
79.98000 4.157
80.00000 4.192
80.02000 8.925
80.04000 11.786
80.06000 7.305
80.08000 5.504
80.10000 2.701
80.12000 3.476
80.14000 3.526
80.16000 5.417
80.18000 5.498
80.20000 4.320
80.22000 8.924
80.24000 6.123
80.26000 11.504
80.28000 8.961
80.30000 1.077
80.32000 -0.243
80.34000 5.343
80.36000 9.978
80.38000 16.977
80.40000 11.403
80.42000 7.446
80.44000 13.254
80.46000 16.069
80.48000 10.503
80.50000 6.540
80.52000 7.865
80.54000 9.721
80.56000 11.897
80.58000 11.585
80.60000 15.670
80.62000 10.162
80.64000 5.773
80.66000 3.991
80.68000 10.687
80.70000 9.217
80.72000 11.109
80.74000 11.364
80.76000 12.540
80.78000 11.691
80.80000 9.879
80.82000 8.895
80.84000 8.131
80.86000 11.343
80.88000 11.789
80.90000 9.646
80.92000 12.370
80.94000 11.574
80.96000 12.538
80.98000 14.433
81.00000 11.135
81.02000 10.569
81.04000 15.243
81.06000 12.892
81.08000 18.297
81.10000 18.474
81.12000 18.169
81.14000 20.129
81.16000 20.295
81.18000 17.966
81.20000 13.345
81.22000 18.238
81.24000 15.266
81.26000 11.971
81.28000 16.403
81.30000 17.866
81.32000 14.143
81.34000 14.292
81.36000 18.128
81.38000 13.634
81.40000 18.386
81.42000 20.380
81.44000 20.811
81.46000 23.203
81.48000 26.848
81.50000 22.687
81.52000 21.481
81.54000 22.464
81.56000 22.088
81.58000 24.306
81.60000 25.895
81.62000 26.275
81.64000 24.322
81.66000 30.640
81.68000 27.239
81.70000 23.338
81.72000 20.449
81.74000 19.256
81.76000 21.463
81.78000 22.911
81.80000 25.017
81.82000 19.861
81.84000 15.935
81.86000 16.432
81.88000 19.928
81.90000 17.481
81.92000 23.080
81.94000 23.308
81.96000 20.971
81.98000 24.005
82.00000 21.848
82.02000 21.649
82.04000 21.490
82.06000 28.928
82.08000 29.673
82.10000 29.356
82.12000 25.633
82.14000 20.888
82.16000 24.108
82.18000 20.759
82.20000 22.903
82.22000 17.280
82.24000 20.739
82.26000 19.449
82.28000 22.377
82.30000 17.776
82.32000 20.157
82.34000 22.933
82.36000 20.188
82.38000 18.255
82.40000 25.973
82.42000 24.033
82.44000 27.273
82.46000 22.689
82.48000 16.897
82.50000 21.046
82.52000 14.805
82.54000 9.833
82.56000 16.013
82.58000 18.881
82.60000 18.780
82.62000 17.757
82.64000 22.371
82.66000 17.187
82.68000 15.577
82.70000 15.942
82.72000 13.170
82.74000 16.346
82.76000 17.941
82.78000 19.167
82.80000 14.571
82.82000 13.178
82.84000 11.479
82.86000 13.535
82.88000 8.500
82.90000 8.413
82.92000 9.558
82.94000 4.293
82.96000 2.150
82.98000 2.951
83.00000 3.237
83.02000 8.779
83.04000 9.827
83.06000 6.652
83.08000 7.829
83.10000 6.884
83.12000 5.921
83.14000 3.832
83.16000 5.136
83.18000 5.298
83.20000 6.886
83.22000 4.423
83.24000 3.704
83.26000 8.486
83.28000 8.951
83.30000 6.004
83.32000 6.069
83.34000 -1.430
83.36000 0.023
83.38000 2.086
83.40000 3.536
83.42000 3.436
83.44000 2.132
83.46000 4.770
83.48000 3.897
83.50000 0.560
83.52000 0.042
83.54000 2.516
83.56000 3.688
83.58000 -1.519
83.60000 0.450
83.62000 2.845
83.64000 3.997
83.66000 -0.280
83.68000 -0.128
83.70000 0.587
83.72000 3.612
83.74000 3.058
83.76000 6.138
83.78000 4.582
83.80000 -2.826
83.82000 1.304
83.84000 1.770
83.86000 -0.537
83.88000 0.777
83.90000 -1.482
83.92000 -0.076
83.94000 -1.317
83.96000 -0.409
83.98000 -1.443
84.00000 0.703
84.02000 -0.790
84.04000 -2.823
84.06000 -2.239
84.08000 3.429
84.10000 3.188
84.12000 -0.613
84.14000 2.669
84.16000 -1.037
84.18000 -0.491
84.20000 -0.294
84.22000 -2.479
84.24000 1.814
84.26000 -0.205
84.28000 -1.546
84.30000 -1.271
84.32000 -1.290
84.34000 -0.645
84.36000 -1.058
84.38000 3.385
84.40000 2.826
84.42000 0.959
84.44000 0.006
84.46000 -1.167
84.48000 0.042
84.50000 1.371
84.52000 0.810
84.54000 -1.521
84.56000 -0.515
84.58000 7.726
84.60000 4.995
84.62000 2.199
84.64000 4.002
84.66000 5.060
84.68000 7.882
84.70000 3.618
84.72000 -2.843
84.74000 0.121
84.76000 2.388
84.78000 5.987
84.80000 1.178
84.82000 -0.755
84.84000 2.127
84.86000 1.638
84.88000 1.704
84.90000 1.363
84.92000 1.931
84.94000 5.403
84.96000 3.741
84.98000 5.351
85.00000 8.732
85.02000 10.317
85.04000 11.677
85.06000 9.418
85.08000 6.899
85.10000 10.685
85.12000 11.069
85.14000 10.164
85.16000 12.138
85.18000 13.314
85.20000 13.389
85.22000 14.989
85.24000 11.710
85.26000 12.419
85.28000 13.531
85.30000 19.774
85.32000 16.389
85.34000 19.575
85.36000 20.741
85.38000 21.005
85.40000 22.118
85.42000 27.838
85.44000 25.525
85.46000 22.450
85.48000 24.428
85.50000 24.167
85.52000 23.662
85.54000 22.974
85.56000 25.615
85.58000 34.002
85.60000 31.515
85.62000 33.593
85.64000 31.536
85.66000 37.956
85.68000 38.303
85.70000 39.466
85.72000 36.591
85.74000 39.087
85.76000 38.782
85.78000 38.364
85.80000 41.195
85.82000 44.738
85.84000 41.094
85.86000 41.012
85.88000 42.111
85.90000 50.108
85.92000 50.688
85.94000 45.242
85.96000 45.092
85.98000 43.231
86.00000 47.757
86.02000 52.825
86.04000 50.642
86.06000 52.298
86.08000 54.875
86.10000 52.569
86.12000 54.110
86.14000 56.980
86.16000 53.878
86.18000 51.334
86.20000 52.851
86.22000 50.642
86.24000 53.806
86.26000 51.712
86.28000 51.328
86.30000 52.862
86.32000 49.735
86.34000 52.818
86.36000 54.261
86.38000 53.962
86.40000 52.102
86.42000 48.895
86.44000 48.980
86.46000 47.949
86.48000 47.941
86.50000 45.276
86.52000 43.460
86.54000 44.741
86.56000 43.184
86.58000 41.568
86.60000 40.480
86.62000 41.685
86.64000 39.098
86.66000 32.270
86.68000 37.564
86.70000 41.790
86.72000 45.053
86.74000 33.877
86.76000 31.738
86.78000 36.738
86.80000 32.965
86.82000 30.387
86.84000 25.318
86.86000 30.838
86.88000 35.119
86.90000 32.878
86.92000 30.815
86.94000 24.878
86.96000 21.826
86.98000 17.592
87.00000 18.592
87.02000 24.237
87.04000 23.287
87.06000 17.094
87.08000 18.574
87.10000 16.950
87.12000 21.532
87.14000 20.591
87.16000 12.091
87.18000 16.177
87.20000 17.443
87.22000 15.310
87.24000 13.725
87.26000 6.754
87.28000 10.903
87.30000 16.176
87.32000 15.753
87.34000 13.856
87.36000 9.202
87.38000 4.018
87.40000 7.187
87.42000 13.388
87.44000 12.848
87.46000 12.281
87.48000 7.104
87.50000 2.472
87.52000 1.868
87.54000 2.398
87.56000 4.204
87.58000 5.950
87.60000 1.799
87.62000 -0.423
87.64000 5.454
87.66000 7.812
87.68000 5.627
87.70000 2.606
87.72000 5.240
87.74000 3.466
87.76000 3.582
87.78000 0.203
87.80000 -0.751
87.82000 -0.126
87.84000 -2.446
87.86000 -2.146
87.88000 1.263
87.90000 5.483
87.92000 2.048
87.94000 10.881
87.96000 13.551
87.98000 7.078
88.00000 6.386
88.02000 3.042
88.04000 4.309
88.06000 8.952
88.08000 7.367
88.10000 6.531
88.12000 4.892
88.14000 12.706
88.16000 9.814
88.18000 4.306
88.20000 7.000
88.22000 3.232
88.24000 10.646
88.26000 8.530
88.28000 3.078
88.30000 -2.462
88.32000 2.967
88.34000 -0.017
88.36000 5.302
88.38000 8.114
88.40000 4.024
88.42000 5.433
88.44000 8.173
88.46000 9.738
88.48000 7.963
88.50000 4.364
88.52000 0.872
88.54000 1.780
88.56000 3.865
88.58000 6.122
88.60000 4.851
88.62000 8.809
88.64000 3.215
88.66000 1.722
88.68000 3.442
88.70000 3.406
88.72000 1.087
88.74000 -0.080
88.76000 -2.423
88.78000 -0.753
88.80000 4.289
88.82000 3.367
88.84000 3.691
88.86000 3.067
88.88000 13.130
88.90000 11.850
88.92000 7.699
88.94000 4.644
88.96000 3.668
88.98000 1.551
89.00000 1.039
89.02000 1.419
89.04000 6.289
89.06000 7.442
89.08000 0.469
89.10000 1.590
89.12000 2.474
89.14000 5.179
89.16000 7.467
89.18000 8.772
89.20000 3.452
89.22000 -0.311
89.24000 1.268
89.26000 5.422
89.28000 4.654
89.30000 2.188
89.32000 4.491
89.34000 4.136
89.36000 -0.075
89.38000 4.891
89.40000 2.474
89.42000 5.137
89.44000 1.810
89.46000 1.318
89.48000 3.730
89.50000 4.066
89.52000 7.394
89.54000 1.865
89.56000 2.314
89.58000 5.683
89.60000 4.720
89.62000 4.306
89.64000 3.986
89.66000 -0.793
89.68000 0.420
89.70000 2.398
89.72000 3.749
89.74000 4.435
89.76000 6.137
89.78000 5.119
89.80000 4.222
89.82000 4.782
89.84000 -2.410
89.86000 -0.904
89.88000 0.533
89.90000 0.829
89.92000 3.980
89.94000 4.007
89.96000 5.020
89.98000 2.111
90.00000 0.364
90.02000 1.935
90.04000 2.817
90.06000 4.328
90.08000 5.333
90.10000 1.370
90.12000 -0.701
90.14000 7.883
90.16000 5.915
90.18000 5.951
90.20000 5.109
90.22000 1.665
90.24000 1.849
90.26000 5.096
90.28000 5.018
90.30000 3.077
90.32000 5.334
90.34000 9.288
90.36000 10.520
90.38000 3.188
90.40000 4.853
90.42000 -0.277
90.44000 -0.172
90.46000 1.644
90.48000 4.853
90.50000 0.748
90.52000 1.695
90.54000 2.003
90.56000 6.301
90.58000 4.549
90.60000 4.570
90.62000 7.018
90.64000 10.013
90.66000 6.687
90.68000 4.503
90.70000 8.417
90.72000 12.609
90.74000 9.829
90.76000 7.874
90.78000 8.433
90.80000 3.495
90.82000 7.128
90.84000 10.797
90.86000 6.940
90.88000 -2.345
90.90000 2.152
90.92000 12.315
90.94000 10.312
90.96000 4.001
90.98000 1.854
91.00000 5.572
91.02000 3.242
91.04000 2.810
91.06000 4.497
91.08000 7.415
91.10000 8.470
91.12000 5.564
91.14000 10.421
91.16000 8.278
91.18000 5.043
91.20000 2.342
91.22000 1.618
91.24000 5.952
91.26000 5.707
91.28000 1.747
91.30000 3.717
91.32000 3.769
91.34000 12.496
91.36000 8.011
91.38000 3.844
91.40000 4.246
91.42000 12.623
91.44000 6.464
91.46000 3.051
91.48000 0.529
91.50000 6.357
91.52000 10.376
91.54000 9.941
91.56000 9.467
91.58000 3.345
91.60000 0.776
91.62000 9.865
91.64000 13.171
91.66000 9.512
91.68000 5.441
91.70000 6.153
91.72000 7.043
91.74000 0.408
91.76000 0.651
91.78000 2.857
91.80000 6.083
91.82000 7.394
91.84000 7.786
91.86000 9.037
91.88000 8.118
91.90000 12.224
91.92000 7.721
91.94000 8.705
91.96000 7.786
91.98000 5.490
92.00000 4.295
92.02000 5.144
92.04000 6.866
92.06000 4.152
92.08000 4.123
92.10000 6.831
92.12000 -2.366
92.14000 1.857
92.16000 8.821
92.18000 4.271
92.20000 6.357
92.22000 6.973
92.24000 7.671
92.26000 2.060
92.28000 2.392
92.30000 2.247
92.32000 1.698
92.34000 3.437
92.36000 3.965
92.38000 6.183
92.40000 6.294
92.42000 7.718
92.44000 9.529
92.46000 5.299
92.48000 1.454
92.50000 5.369
92.52000 7.776
92.54000 7.665
92.56000 7.615
92.58000 7.764
92.60000 2.496
92.62000 0.865
92.64000 1.555
92.66000 8.810
92.68000 10.115
92.70000 6.467
92.72000 4.442
92.74000 3.159
92.76000 4.303
92.78000 -0.982
92.80000 -2.392
92.82000 5.087
92.84000 5.643
92.86000 6.780
92.88000 3.646
92.90000 4.051
92.92000 -1.907
92.94000 0.006
92.96000 -1.018
92.98000 3.357
93.00000 3.711
93.02000 7.744
93.04000 6.586
93.06000 -1.198
93.08000 -1.815
93.10000 6.341
93.12000 5.379
93.14000 2.663
93.16000 -2.007
93.18000 5.331
93.20000 7.169
93.22000 9.061
93.24000 4.002
93.26000 8.722
93.28000 10.816
93.30000 4.303
93.32000 7.424
93.34000 7.774
93.36000 6.813
93.38000 3.503
93.40000 -2.326
93.42000 2.993
93.44000 10.783
93.46000 -0.965
93.48000 8.726
93.50000 10.043
93.52000 3.174
93.54000 8.001
93.56000 11.320
93.58000 2.462
93.60000 -1.781
93.62000 -2.393
93.64000 9.676
93.66000 12.307
93.68000 5.672
93.70000 0.494
93.72000 3.118
93.74000 8.783
93.76000 7.793
93.78000 8.006
93.80000 9.045
93.82000 7.523
93.84000 5.994
93.86000 4.617
93.88000 1.344
93.90000 4.012
93.92000 4.741
93.94000 5.345
93.96000 6.542
93.98000 6.816
94.00000 8.432
94.02000 7.944
94.04000 8.841
94.06000 3.054
94.08000 3.174
94.10000 9.329
94.12000 11.734
94.14000 8.595
94.16000 2.400
94.18000 3.191
94.20000 8.828
94.22000 8.306
94.24000 4.383
94.26000 3.381
94.28000 3.330
94.30000 6.759
94.32000 1.943
94.34000 -2.436
94.36000 0.218
94.38000 2.022
94.40000 1.678
94.42000 4.043
94.44000 9.870
94.46000 4.758
94.48000 2.892
94.50000 3.675
94.52000 3.842
94.54000 9.084
94.56000 4.006
94.58000 2.408
94.60000 -0.534
94.62000 1.093
94.64000 3.602
94.66000 1.191
94.68000 4.261
94.70000 2.183
94.72000 3.345
94.74000 4.806
94.76000 5.282
94.78000 2.359
94.80000 2.493
94.82000 0.821
94.84000 3.999
94.86000 5.977
94.88000 7.475
94.90000 5.163
94.92000 2.046
94.94000 4.399
94.96000 7.136
94.98000 6.889
95.00000 3.552
95.02000 8.590
95.04000 6.041
95.06000 5.464
95.08000 12.087
95.10000 6.487
95.12000 1.347
95.14000 7.002
95.16000 3.716
95.18000 2.612
95.20000 4.136
95.22000 1.958
95.24000 2.856
95.26000 11.603
95.28000 8.309
95.30000 2.676
95.32000 5.590
95.34000 1.679
95.36000 -1.623
95.38000 0.721
95.40000 4.875
95.42000 5.876
95.44000 0.650
95.46000 1.045
95.48000 -2.062
95.50000 0.684
95.52000 2.738
95.54000 3.288
95.56000 10.789
95.58000 10.600
95.60000 6.929
95.62000 8.801
95.64000 2.395
95.66000 1.494
95.68000 3.350
95.70000 8.665
95.72000 3.476
95.74000 2.273
95.76000 1.481
95.78000 0.726
95.80000 -0.665
95.82000 4.842
95.84000 2.489
95.86000 -0.811
95.88000 3.740
95.90000 -1.941
95.92000 2.776
95.94000 13.513
95.96000 7.280
95.98000 12.062
96.00000 10.994
96.02000 8.212
96.04000 15.682
96.06000 4.501
96.08000 11.038
96.10000 3.679
96.12000 -2.420
96.14000 4.550
96.16000 7.232
96.18000 8.943
96.20000 11.340
96.22000 7.294
96.24000 6.010
96.26000 -1.415
96.28000 5.159
96.30000 7.593
96.32000 -1.518
96.34000 3.431
96.36000 5.206
96.38000 4.413
96.40000 13.616
96.42000 15.093
96.44000 7.738
96.46000 2.019
96.48000 4.485
96.50000 4.765
96.52000 8.425
96.54000 3.724
96.56000 2.037
96.58000 -0.112
96.60000 7.416
96.62000 0.486
96.64000 3.715
96.66000 8.476
96.68000 8.985
96.70000 6.974
96.72000 11.271
96.74000 7.664
96.76000 11.353
96.78000 9.003
96.80000 8.073
96.82000 6.303
96.84000 7.269
96.86000 0.444
96.88000 0.190
96.90000 3.287
96.92000 0.042
96.94000 -0.375
96.96000 7.225
96.98000 6.684
97.00000 4.766
97.02000 -0.881
97.04000 0.331
97.06000 2.651
97.08000 9.846
97.10000 5.942
97.12000 8.212
97.14000 10.688
97.16000 6.710
97.18000 11.845
97.20000 14.036
97.22000 16.212
97.24000 8.143
97.26000 8.478
97.28000 10.630
97.30000 0.927
97.32000 -2.352
97.34000 5.811
97.36000 15.130
97.38000 13.481
97.40000 6.849
97.42000 12.379
97.44000 11.211
97.46000 8.514
97.48000 8.610
97.50000 9.744
97.52000 5.453
97.54000 4.052
97.56000 11.360
97.58000 12.557
97.60000 9.099
97.62000 11.018
97.64000 5.494
97.66000 15.174
97.68000 17.541
97.70000 18.295
97.72000 16.916
97.74000 19.712
97.76000 6.309
97.78000 12.316
97.80000 3.552
97.82000 6.129
97.84000 10.196
97.86000 12.756
97.88000 11.974
97.90000 10.573
97.92000 7.609
97.94000 1.869
97.96000 -2.319
97.98000 8.500
98.00000 13.241
98.02000 7.944
98.04000 7.428
98.06000 1.204
98.08000 5.473
98.10000 9.025
98.12000 14.375
98.14000 6.268
98.16000 10.337
98.18000 18.012
98.20000 19.322
98.22000 11.944
98.24000 8.143
98.26000 6.297
98.28000 7.761
98.30000 9.648
98.32000 15.551
98.34000 8.769
98.36000 2.382
98.38000 1.526
98.40000 1.564
98.42000 0.704
98.44000 6.744
98.46000 7.522
98.48000 11.875
98.50000 14.282
98.52000 5.578
98.54000 9.012
98.56000 10.859
98.58000 3.301
98.60000 -0.077
98.62000 5.183
98.64000 5.787
98.66000 0.430
98.68000 5.522
98.70000 -0.799
98.72000 -2.346
98.74000 2.491
98.76000 6.535
98.78000 8.068
98.80000 3.231
98.82000 3.678
98.84000 0.442
98.86000 1.885
98.88000 3.639
98.90000 7.676
98.92000 7.446
98.94000 12.976
98.96000 9.760
98.98000 15.494
99.00000 15.626
99.02000 3.038
99.04000 0.993
99.06000 4.222
99.08000 5.316
99.10000 7.227
99.12000 4.317
99.14000 6.463
99.16000 2.161
99.18000 0.824
99.20000 8.759
99.22000 0.477
99.24000 14.791
99.26000 12.142
99.28000 6.292
99.30000 13.787
99.32000 14.207
99.34000 18.373
99.36000 10.243
99.38000 7.365
99.40000 5.718
99.42000 12.465
99.44000 8.150
99.46000 3.347
99.48000 5.164
99.50000 -2.386
99.52000 2.777
99.54000 8.266
99.56000 2.038
99.58000 0.423
99.60000 5.026
99.62000 2.602
99.64000 14.248
99.66000 12.274
99.68000 21.375
99.70000 28.277
99.72000 9.544
99.74000 -0.707
99.76000 4.107
99.78000 5.489
99.80000 5.759
99.82000 2.748
99.84000 15.677
99.86000 11.055
99.88000 4.197
99.90000 0.978
99.92000 -6.797
99.94000 8.107
99.96000 0.030
99.98000 0.000
