'Id: "0011388" Comment: "Integrate frame 0011388_Au-Ir-Rh_Rh-rich_XRD-Mapping-153-0000.gfrmwith cursor Wedge Cursor #5" Operator: "B?rgel" Anode: "Cu" Wavelength: "1.5406" Scantype: "2Theta (TwoTheta)" TimePerStep: "1" X: "31.5" Y: "-4.5" Z: "5.95" 
10.00000 0.000
10.02000 1.521
10.04000 -3.312
10.06000 1.701
10.08000 4.160
10.10000 2.930
10.12000 15.467
10.14000 5.906
10.16000 3.033
10.18000 13.846
10.20000 10.448
10.22000 3.636
10.24000 8.480
10.26000 13.539
10.28000 18.192
10.30000 27.754
10.32000 23.659
10.34000 21.846
10.36000 3.409
10.38000 -3.388
10.40000 6.620
10.42000 19.722
10.44000 14.607
10.46000 20.142
10.48000 17.884
10.50000 23.495
10.52000 19.536
10.54000 5.423
10.56000 18.719
10.58000 19.262
10.60000 19.200
10.62000 22.430
10.64000 21.547
10.66000 19.241
10.68000 14.411
10.70000 19.235
10.72000 28.841
10.74000 32.929
10.76000 30.466
10.78000 29.622
10.80000 15.815
10.82000 24.775
10.84000 23.551
10.86000 24.441
10.88000 28.035
10.90000 34.913
10.92000 30.200
10.94000 19.894
10.96000 31.395
10.98000 25.171
11.00000 27.759
11.02000 33.851
11.04000 38.637
11.06000 30.625
11.08000 31.229
11.10000 36.409
11.12000 36.350
11.14000 27.355
11.16000 19.846
11.18000 26.271
11.20000 29.128
11.22000 31.616
11.24000 25.096
11.26000 26.748
11.28000 41.844
11.30000 40.324
11.32000 37.900
11.34000 40.430
11.36000 39.926
11.38000 28.850
11.40000 25.757
11.42000 26.051
11.44000 23.358
11.46000 25.219
11.48000 24.491
11.50000 27.404
11.52000 26.875
11.54000 23.565
11.56000 28.517
11.58000 42.255
11.60000 43.065
11.62000 39.798
11.64000 37.626
11.66000 37.917
11.68000 38.754
11.70000 32.654
11.72000 32.514
11.74000 41.414
11.76000 34.566
11.78000 33.911
11.80000 38.531
11.82000 46.896
11.84000 33.360
11.86000 25.920
11.88000 28.063
11.90000 37.825
11.92000 46.257
11.94000 44.257
11.96000 28.883
11.98000 37.087
12.00000 47.017
12.02000 46.749
12.04000 43.630
12.06000 38.355
12.08000 36.392
12.10000 42.491
12.12000 39.396
12.14000 42.341
12.16000 41.629
12.18000 41.741
12.20000 38.330
12.22000 33.747
12.24000 31.263
12.26000 36.472
12.28000 44.461
12.30000 45.114
12.32000 44.127
12.34000 44.235
12.36000 38.919
12.38000 38.529
12.40000 38.058
12.42000 39.033
12.44000 38.951
12.46000 33.790
12.48000 37.221
12.50000 32.089
12.52000 38.471
12.54000 43.467
12.56000 45.036
12.58000 36.629
12.60000 43.792
12.62000 46.433
12.64000 34.106
12.66000 36.227
12.68000 35.655
12.70000 32.758
12.72000 36.066
12.74000 38.500
12.76000 33.524
12.78000 37.213
12.80000 44.388
12.82000 39.833
12.84000 32.911
12.86000 29.859
12.88000 36.725
12.90000 41.272
12.92000 42.505
12.94000 45.502
12.96000 42.671
12.98000 40.952
13.00000 38.474
13.02000 33.620
13.04000 43.660
13.06000 47.564
13.08000 43.647
13.10000 36.435
13.12000 38.885
13.14000 41.592
13.16000 38.019
13.18000 44.847
13.20000 42.520
13.22000 47.574
13.24000 43.719
13.26000 38.734
13.28000 38.959
13.30000 39.795
13.32000 33.289
13.34000 31.128
13.36000 28.786
13.38000 33.438
13.40000 38.930
13.42000 44.890
13.44000 49.941
13.46000 47.889
13.48000 36.324
13.50000 31.965
13.52000 31.045
13.54000 35.856
13.56000 32.699
13.58000 28.204
13.60000 29.060
13.62000 28.400
13.64000 30.797
13.66000 37.367
13.68000 27.736
13.70000 29.573
13.72000 52.832
13.74000 49.208
13.76000 38.941
13.78000 44.664
13.80000 37.920
13.82000 34.031
13.84000 33.921
13.86000 36.313
13.88000 33.573
13.90000 23.227
13.92000 26.536
13.94000 36.418
13.96000 30.162
13.98000 31.854
14.00000 36.767
14.02000 30.330
14.04000 34.359
14.06000 34.227
14.08000 28.511
14.10000 33.341
14.12000 26.376
14.14000 32.848
14.16000 45.110
14.18000 39.814
14.20000 37.850
14.22000 25.991
14.24000 23.179
14.26000 29.814
14.28000 31.500
14.30000 25.250
14.32000 25.767
14.34000 31.748
14.36000 31.344
14.38000 29.157
14.40000 24.657
14.42000 31.110
14.44000 30.082
14.46000 35.737
14.48000 33.531
14.50000 33.310
14.52000 26.631
14.54000 21.387
14.56000 15.588
14.58000 19.375
14.60000 23.885
14.62000 25.251
14.64000 29.643
14.66000 38.025
14.68000 29.598
14.70000 20.209
14.72000 17.674
14.74000 18.324
14.76000 19.290
14.78000 25.565
14.80000 28.415
14.82000 29.443
14.84000 30.586
14.86000 26.287
14.88000 25.041
14.90000 22.578
14.92000 18.366
14.94000 17.690
14.96000 10.343
14.98000 19.877
15.00000 30.246
15.02000 17.986
15.04000 18.283
15.06000 30.242
15.08000 25.692
15.10000 18.842
15.12000 23.120
15.14000 26.196
15.16000 27.032
15.18000 20.777
15.20000 26.105
15.22000 21.610
15.24000 18.958
15.26000 17.396
15.28000 14.029
15.30000 20.771
15.32000 20.759
15.34000 15.238
15.36000 22.466
15.38000 14.118
15.40000 12.158
15.42000 23.041
15.44000 22.186
15.46000 24.509
15.48000 24.673
15.50000 21.936
15.52000 28.135
15.54000 23.125
15.56000 25.226
15.58000 23.530
15.60000 20.863
15.62000 11.924
15.64000 9.778
15.66000 17.277
15.68000 23.386
15.70000 19.972
15.72000 17.811
15.74000 17.879
15.76000 16.858
15.78000 15.944
15.80000 18.200
15.82000 21.957
15.84000 25.111
15.86000 24.955
15.88000 18.998
15.90000 16.450
15.92000 5.255
15.94000 9.120
15.96000 13.692
15.98000 12.216
16.00000 11.006
16.02000 17.608
16.04000 13.544
16.06000 13.327
16.08000 25.213
16.10000 13.292
16.12000 14.034
16.14000 14.375
16.16000 13.689
16.18000 11.620
16.20000 12.514
16.22000 10.635
16.24000 18.019
16.26000 5.751
16.28000 7.705
16.30000 13.455
16.32000 19.889
16.34000 16.879
16.36000 9.701
16.38000 16.391
16.40000 10.928
16.42000 14.176
16.44000 6.126
16.46000 7.294
16.48000 12.626
16.50000 15.812
16.52000 16.038
16.54000 9.585
16.56000 11.943
16.58000 14.397
16.60000 13.781
16.62000 9.353
16.64000 6.989
16.66000 6.594
16.68000 10.076
16.70000 4.967
16.72000 13.115
16.74000 19.446
16.76000 12.222
16.78000 8.420
16.80000 9.955
16.82000 11.575
16.84000 12.728
16.86000 6.970
16.88000 10.124
16.90000 8.148
16.92000 15.901
16.94000 13.638
16.96000 10.757
16.98000 16.672
17.00000 19.000
17.02000 14.572
17.04000 16.505
17.06000 19.636
17.08000 17.262
17.10000 9.905
17.12000 12.080
17.14000 9.329
17.16000 9.756
17.18000 7.858
17.20000 11.292
17.22000 10.376
17.24000 10.150
17.26000 11.321
17.28000 9.287
17.30000 13.728
17.32000 8.938
17.34000 4.358
17.36000 10.131
17.38000 13.865
17.40000 11.492
17.42000 14.311
17.44000 15.766
17.46000 12.726
17.48000 13.984
17.50000 11.689
17.52000 11.921
17.54000 9.163
17.56000 11.972
17.58000 15.262
17.60000 19.026
17.62000 14.839
17.64000 10.407
17.66000 5.746
17.68000 5.256
17.70000 15.329
17.72000 16.846
17.74000 7.983
17.76000 8.305
17.78000 8.696
17.80000 5.556
17.82000 6.301
17.84000 4.467
17.86000 2.980
17.88000 8.055
17.90000 12.372
17.92000 11.172
17.94000 12.615
17.96000 7.014
17.98000 8.211
18.00000 11.742
18.02000 10.780
18.04000 7.293
18.06000 -0.174
18.08000 4.082
18.10000 5.663
18.12000 11.189
18.14000 11.316
18.16000 12.100
18.18000 9.446
18.20000 8.593
18.22000 7.763
18.24000 5.806
18.26000 8.184
18.28000 5.295
18.30000 1.422
18.32000 12.605
18.34000 6.266
18.36000 1.926
18.38000 2.195
18.40000 2.100
18.42000 -1.664
18.44000 0.221
18.46000 0.544
18.48000 12.903
18.50000 8.954
18.52000 8.604
18.54000 8.139
18.56000 12.636
18.58000 10.292
18.60000 9.703
18.62000 12.055
18.64000 13.437
18.66000 9.547
18.68000 5.466
18.70000 8.491
18.72000 8.008
18.74000 13.605
18.76000 11.064
18.78000 6.020
18.80000 10.636
18.82000 10.717
18.84000 5.039
18.86000 5.526
18.88000 11.901
18.90000 1.415
18.92000 7.954
18.94000 11.012
18.96000 2.006
18.98000 1.988
19.00000 7.374
19.02000 15.452
19.04000 12.409
19.06000 2.399
19.08000 2.983
19.10000 8.355
19.12000 3.878
19.14000 5.835
19.16000 13.902
19.18000 16.796
19.20000 7.836
19.22000 -4.217
19.24000 2.634
19.26000 12.703
19.28000 10.651
19.30000 7.240
19.32000 14.446
19.34000 11.661
19.36000 1.899
19.38000 0.080
19.40000 5.750
19.42000 7.664
19.44000 6.488
19.46000 3.659
19.48000 3.489
19.50000 3.082
19.52000 8.299
19.54000 10.457
19.56000 9.575
19.58000 5.361
19.60000 0.855
19.62000 -1.737
19.64000 8.705
19.66000 11.294
19.68000 6.660
19.70000 0.704
19.72000 3.201
19.74000 0.728
19.76000 12.762
19.78000 10.305
19.80000 8.674
19.82000 6.433
19.84000 7.199
19.86000 7.011
19.88000 7.198
19.90000 0.154
19.92000 12.326
19.94000 9.048
19.96000 0.847
19.98000 2.213
20.00000 2.573
20.02000 10.581
20.04000 9.029
20.06000 3.059
20.08000 3.738
20.10000 12.922
20.12000 12.056
20.14000 10.253
20.16000 2.859
20.18000 -2.433
20.20000 8.333
20.22000 14.062
20.24000 8.672
20.26000 6.059
20.28000 7.356
20.30000 4.727
20.32000 -0.729
20.34000 4.477
20.36000 10.928
20.38000 3.310
20.40000 1.247
20.42000 5.885
20.44000 6.012
20.46000 16.303
20.48000 14.243
20.50000 5.806
20.52000 4.583
20.54000 7.443
20.56000 0.482
20.58000 3.268
20.60000 14.438
20.62000 9.255
20.64000 2.851
20.66000 6.148
20.68000 8.098
20.70000 2.388
20.72000 -2.846
20.74000 -2.074
20.76000 -1.450
20.78000 0.937
20.80000 6.996
20.82000 8.234
20.84000 6.998
20.86000 13.340
20.88000 11.659
20.90000 4.299
20.92000 -4.151
20.94000 -0.448
20.96000 5.106
20.98000 3.113
21.00000 2.885
21.02000 10.600
21.04000 3.056
21.06000 3.720
21.08000 4.317
21.10000 5.305
21.12000 12.012
21.14000 15.670
21.16000 8.308
21.18000 12.408
21.20000 12.659
21.22000 6.104
21.24000 8.087
21.26000 10.136
21.28000 7.564
21.30000 8.551
21.32000 14.719
21.34000 7.282
21.36000 10.570
21.38000 13.510
21.40000 6.364
21.42000 -0.055
21.44000 3.825
21.46000 -1.400
21.48000 5.282
21.50000 9.497
21.52000 4.867
21.54000 9.854
21.56000 11.152
21.58000 3.256
21.60000 3.631
21.62000 2.103
21.64000 8.902
21.66000 9.250
21.68000 5.614
21.70000 7.130
21.72000 6.594
21.74000 2.819
21.76000 0.757
21.78000 2.600
21.80000 7.811
21.82000 7.649
21.84000 4.701
21.86000 1.983
21.88000 5.782
21.90000 3.549
21.92000 8.961
21.94000 6.567
21.96000 6.771
21.98000 8.722
22.00000 5.795
22.02000 8.014
22.04000 2.403
22.06000 4.297
22.08000 0.736
22.10000 0.524
22.12000 4.224
22.14000 -1.681
22.16000 5.248
22.18000 6.045
22.20000 4.864
22.22000 6.198
22.24000 8.222
22.26000 4.516
22.28000 6.442
22.30000 11.798
22.32000 13.572
22.34000 4.555
22.36000 -2.120
22.38000 5.422
22.40000 8.868
22.42000 6.976
22.44000 2.394
22.46000 4.895
22.48000 5.200
22.50000 1.433
22.52000 0.232
22.54000 5.392
22.56000 6.753
22.58000 4.344
22.60000 9.012
22.62000 8.514
22.64000 4.201
22.66000 11.150
22.68000 8.936
22.70000 4.422
22.72000 2.573
22.74000 3.406
22.76000 9.236
22.78000 6.908
22.80000 6.889
22.82000 7.405
22.84000 -0.733
22.86000 -3.220
22.88000 2.731
22.90000 4.362
22.92000 0.556
22.94000 5.563
22.96000 6.446
22.98000 9.964
23.00000 11.223
23.02000 6.865
23.04000 1.389
23.06000 2.405
23.08000 -4.033
23.10000 0.207
23.12000 -0.868
23.14000 4.914
23.16000 8.947
23.18000 6.287
23.20000 6.813
23.22000 8.827
23.24000 9.035
23.26000 7.634
23.28000 4.842
23.30000 2.877
23.32000 6.443
23.34000 7.937
23.36000 3.630
23.38000 0.195
23.40000 8.531
23.42000 13.364
23.44000 12.626
23.46000 11.325
23.48000 9.285
23.50000 3.228
23.52000 2.273
23.54000 -1.546
23.56000 -1.906
23.58000 -3.001
23.60000 -1.193
23.62000 6.016
23.64000 5.604
23.66000 -3.372
23.68000 2.999
23.70000 2.989
23.72000 6.600
23.74000 3.476
23.76000 3.024
23.78000 8.252
23.80000 8.618
23.82000 5.220
23.84000 1.864
23.86000 1.895
23.88000 2.417
23.90000 0.161
23.92000 2.775
23.94000 1.595
23.96000 5.308
23.98000 6.430
24.00000 2.178
24.02000 1.245
24.04000 4.411
24.06000 3.328
24.08000 4.436
24.10000 5.015
24.12000 8.096
24.14000 4.373
24.16000 11.510
24.18000 2.871
24.20000 -3.813
24.22000 3.445
24.24000 3.948
24.26000 2.536
24.28000 1.721
24.30000 1.708
24.32000 3.660
24.34000 0.286
24.36000 1.712
24.38000 3.436
24.40000 7.119
24.42000 11.447
24.44000 4.262
24.46000 -1.487
24.48000 3.057
24.50000 1.850
24.52000 -2.747
24.54000 8.545
24.56000 6.886
24.58000 5.291
24.60000 0.548
24.62000 -3.974
24.64000 6.494
24.66000 8.938
24.68000 5.380
24.70000 4.875
24.72000 1.747
24.74000 1.450
24.76000 1.715
24.78000 2.718
24.80000 2.801
24.82000 -0.202
24.84000 5.103
24.86000 5.430
24.88000 4.423
24.90000 6.653
24.92000 4.168
24.94000 4.840
24.96000 6.544
24.98000 1.055
25.00000 -2.533
25.02000 0.656
25.04000 -3.953
25.06000 0.215
25.08000 0.457
25.10000 -0.389
25.12000 4.534
25.14000 7.829
25.16000 10.592
25.18000 10.195
25.20000 2.782
25.22000 2.606
25.24000 4.720
25.26000 1.624
25.28000 -3.816
25.30000 -2.071
25.32000 1.815
25.34000 -1.141
25.36000 1.994
25.38000 -2.459
25.40000 5.850
25.42000 3.248
25.44000 1.183
25.46000 6.103
25.48000 6.410
25.50000 6.192
25.52000 1.361
25.54000 -1.194
25.56000 2.672
25.58000 2.868
25.60000 8.496
25.62000 4.900
25.64000 2.299
25.66000 1.887
25.68000 7.886
25.70000 5.208
25.72000 0.088
25.74000 -0.797
25.76000 3.833
25.78000 7.056
25.80000 0.069
25.82000 3.911
25.84000 5.697
25.86000 5.640
25.88000 -0.582
25.90000 -2.361
25.92000 0.287
25.94000 3.577
25.96000 -1.138
25.98000 0.752
26.00000 1.196
26.02000 4.800
26.04000 4.401
26.06000 8.898
26.08000 6.444
26.10000 2.449
26.12000 3.987
26.14000 2.481
26.16000 0.971
26.18000 6.811
26.20000 6.929
26.22000 6.690
26.24000 5.049
26.26000 4.342
26.28000 4.113
26.30000 3.602
26.32000 6.209
26.34000 -0.391
26.36000 0.908
26.38000 6.238
26.40000 9.013
26.42000 3.904
26.44000 3.089
26.46000 2.029
26.48000 -3.865
26.50000 -1.043
26.52000 3.516
26.54000 4.399
26.56000 8.143
26.58000 2.415
26.60000 -0.836
26.62000 3.211
26.64000 3.550
26.66000 1.278
26.68000 1.881
26.70000 -0.676
26.72000 2.942
26.74000 3.501
26.76000 3.985
26.78000 7.510
26.80000 6.795
26.82000 3.922
26.84000 1.428
26.86000 1.563
26.88000 5.852
26.90000 2.300
26.92000 6.645
26.94000 5.063
26.96000 1.859
26.98000 -1.785
27.00000 5.853
27.02000 5.703
27.04000 5.750
27.06000 8.118
27.08000 0.953
27.10000 -3.827
27.12000 0.896
27.14000 4.439
27.16000 3.952
27.18000 4.432
27.20000 -0.269
27.22000 7.747
27.24000 9.353
27.26000 6.638
27.28000 8.468
27.30000 5.747
27.32000 3.368
27.34000 5.830
27.36000 7.139
27.38000 4.691
27.40000 4.100
27.42000 1.197
27.44000 -1.479
27.46000 1.647
27.48000 0.649
27.50000 -2.456
27.52000 1.039
27.54000 -1.705
27.56000 0.351
27.58000 6.613
27.60000 12.229
27.62000 8.472
27.64000 5.847
27.66000 5.323
27.68000 3.537
27.70000 6.309
27.72000 8.343
27.74000 10.382
27.76000 5.871
27.78000 8.550
27.80000 8.447
27.82000 4.227
27.84000 1.239
27.86000 9.885
27.88000 9.831
27.90000 7.970
27.92000 3.810
27.94000 3.509
27.96000 9.031
27.98000 9.116
28.00000 6.494
28.02000 8.602
28.04000 3.239
28.06000 -3.755
28.08000 4.514
28.10000 1.336
28.12000 -0.633
28.14000 4.792
28.16000 9.512
28.18000 5.582
28.20000 3.827
28.22000 4.789
28.24000 8.551
28.26000 8.185
28.28000 5.080
28.30000 3.621
28.32000 5.677
28.34000 7.646
28.36000 7.678
28.38000 5.026
28.40000 4.118
28.42000 3.365
28.44000 5.262
28.46000 4.394
28.48000 2.437
28.50000 9.165
28.52000 8.926
28.54000 7.111
28.56000 4.126
28.58000 1.472
28.60000 2.897
28.62000 7.501
28.64000 7.945
28.66000 4.662
28.68000 7.390
28.70000 7.727
28.72000 5.364
28.74000 5.857
28.76000 1.953
28.78000 -0.430
28.80000 0.635
28.82000 3.817
28.84000 2.704
28.86000 3.159
28.88000 2.773
28.90000 1.345
28.92000 4.561
28.94000 3.624
28.96000 1.424
28.98000 1.028
29.00000 1.952
29.02000 3.527
29.04000 3.545
29.06000 3.354
29.08000 3.952
29.10000 4.868
29.12000 0.898
29.14000 -0.470
29.16000 -1.758
29.18000 0.808
29.20000 0.563
29.22000 3.630
29.24000 -1.596
29.26000 2.274
29.28000 -3.734
29.30000 0.923
29.32000 -2.247
29.34000 -1.508
29.36000 1.012
29.38000 2.551
29.40000 5.455
29.42000 7.989
29.44000 1.820
29.46000 -0.273
29.48000 0.304
29.50000 5.050
29.52000 1.101
29.54000 1.872
29.56000 3.531
29.58000 2.080
29.60000 0.142
29.62000 5.044
29.64000 5.030
29.66000 1.982
29.68000 6.242
29.70000 2.786
29.72000 2.090
29.74000 1.534
29.76000 10.435
29.78000 6.295
29.80000 3.061
29.82000 0.230
29.84000 -3.711
29.86000 -3.320
29.88000 -0.287
29.90000 -1.392
29.92000 -1.258
29.94000 2.340
29.96000 -0.736
29.98000 2.080
30.00000 4.420
30.02000 1.496
30.04000 -0.651
30.06000 2.319
30.08000 1.051
30.10000 4.495
30.12000 6.134
30.14000 1.648
30.16000 2.592
30.18000 3.012
30.20000 3.987
30.22000 2.641
30.24000 0.290
30.26000 -0.528
30.28000 2.982
30.30000 3.676
30.32000 5.885
30.34000 0.301
30.36000 2.003
30.38000 2.572
30.40000 0.719
30.42000 -0.226
30.44000 3.086
30.46000 7.590
30.48000 5.142
30.50000 4.036
30.52000 4.156
30.54000 2.837
30.56000 0.714
30.58000 0.715
30.60000 5.585
30.62000 4.041
30.64000 2.606
30.66000 6.077
30.68000 6.579
30.70000 5.017
30.72000 8.198
30.74000 7.184
30.76000 4.136
30.78000 3.623
30.80000 6.074
30.82000 7.010
30.84000 4.720
30.86000 2.634
30.88000 0.862
30.90000 -3.645
30.92000 -0.904
30.94000 9.009
30.96000 11.461
30.98000 6.158
31.00000 7.641
31.02000 3.159
31.04000 4.845
31.06000 9.453
31.08000 8.293
31.10000 2.093
31.12000 5.480
31.14000 5.172
31.16000 3.364
31.18000 4.904
31.20000 6.061
31.22000 6.661
31.24000 4.795
31.26000 0.621
31.28000 -0.857
31.30000 0.450
31.32000 5.291
31.34000 4.469
31.36000 3.644
31.38000 8.109
31.40000 4.023
31.42000 4.529
31.44000 0.135
31.46000 1.131
31.48000 2.277
31.50000 2.607
31.52000 3.321
31.54000 6.403
31.56000 5.273
31.58000 8.671
31.60000 9.426
31.62000 9.255
31.64000 -0.127
31.66000 1.796
31.68000 0.240
31.70000 2.312
31.72000 6.888
31.74000 5.890
31.76000 3.532
31.78000 7.087
31.80000 4.383
31.82000 -0.646
31.84000 2.498
31.86000 3.976
31.88000 4.496
31.90000 2.488
31.92000 3.287
31.94000 5.611
31.96000 6.984
31.98000 4.467
32.00000 -0.913
32.02000 0.985
32.04000 6.287
32.06000 5.560
32.08000 3.888
32.10000 3.334
32.12000 2.877
32.14000 1.278
32.16000 5.493
32.18000 2.977
32.20000 -2.151
32.22000 -3.577
32.24000 2.921
32.26000 8.243
32.28000 6.290
32.30000 3.407
32.32000 2.224
32.34000 4.012
32.36000 10.449
32.38000 6.528
32.40000 6.234
32.42000 7.487
32.44000 6.229
32.46000 2.534
32.48000 1.748
32.50000 2.522
32.52000 6.918
32.54000 4.690
32.56000 5.419
32.58000 7.462
32.60000 -1.621
32.62000 -1.386
32.64000 1.452
32.66000 0.261
32.68000 -0.126
32.70000 -0.019
32.72000 0.842
32.74000 2.709
32.76000 1.897
32.78000 2.582
32.80000 -3.318
32.82000 0.341
32.84000 5.908
32.86000 8.867
32.88000 -1.598
32.90000 -1.252
32.92000 4.779
32.94000 0.473
32.96000 -1.242
32.98000 -0.142
33.00000 2.680
33.02000 0.091
33.04000 6.539
33.06000 4.740
33.08000 1.675
33.10000 1.579
33.12000 -1.875
33.14000 -3.544
33.16000 4.136
33.18000 5.555
33.20000 1.387
33.22000 -2.161
33.24000 0.600
33.26000 -0.522
33.28000 -0.581
33.30000 2.735
33.32000 -0.242
33.34000 0.622
33.36000 2.340
33.38000 5.397
33.40000 0.771
33.42000 0.744
33.44000 3.974
33.46000 2.510
33.48000 4.644
33.50000 6.163
33.52000 2.198
33.54000 2.057
33.56000 5.060
33.58000 5.346
33.60000 1.301
33.62000 5.120
33.64000 5.830
33.66000 4.135
33.68000 3.728
33.70000 1.643
33.72000 4.685
33.74000 5.388
33.76000 4.874
33.78000 3.620
33.80000 3.409
33.82000 4.917
33.84000 1.438
33.86000 0.912
33.88000 -0.246
33.90000 1.384
33.92000 5.229
33.94000 4.705
33.96000 3.839
33.98000 4.243
34.00000 3.003
34.02000 1.182
34.04000 0.195
34.06000 2.187
34.08000 3.915
34.10000 7.068
34.12000 4.277
34.14000 -0.184
34.16000 -3.535
34.18000 3.830
34.20000 3.434
34.22000 6.797
34.24000 5.876
34.26000 7.356
34.28000 3.642
34.30000 0.094
34.32000 0.313
34.34000 -0.494
34.36000 0.842
34.38000 8.154
34.40000 7.487
34.42000 5.514
34.44000 6.164
34.46000 7.233
34.48000 0.992
34.50000 2.664
34.52000 4.443
34.54000 4.596
34.56000 5.284
34.58000 4.576
34.60000 1.847
34.62000 4.525
34.64000 4.234
34.66000 -2.973
34.68000 2.418
34.70000 6.753
34.72000 4.008
34.74000 1.555
34.76000 1.210
34.78000 4.037
34.80000 8.495
34.82000 2.893
34.84000 5.402
34.86000 1.770
34.88000 -3.191
34.90000 -3.499
34.92000 -1.412
34.94000 6.675
34.96000 4.084
34.98000 8.358
35.00000 10.315
35.02000 5.115
35.04000 4.130
35.06000 4.541
35.08000 8.620
35.10000 1.083
35.12000 2.985
35.14000 1.417
35.16000 -2.124
35.18000 3.600
35.20000 5.006
35.22000 -1.017
35.24000 -3.501
35.26000 0.493
35.28000 10.809
35.30000 8.895
35.32000 2.115
35.34000 0.247
35.36000 1.936
35.38000 8.866
35.40000 5.834
35.42000 4.151
35.44000 1.870
35.46000 -1.639
35.48000 1.642
35.50000 3.348
35.52000 2.338
35.54000 2.839
35.56000 1.156
35.58000 -1.909
35.60000 -1.241
35.62000 -2.635
35.64000 0.306
35.66000 4.776
35.68000 4.023
35.70000 3.768
35.72000 3.881
35.74000 2.485
35.76000 -0.664
35.78000 3.912
35.80000 6.756
35.82000 1.630
35.84000 -3.480
35.86000 1.534
35.88000 1.661
35.90000 2.081
35.92000 2.700
35.94000 1.177
35.96000 -1.001
35.98000 -2.227
36.00000 -3.514
36.02000 -0.068
36.04000 2.650
36.06000 0.675
36.08000 0.504
36.10000 -2.752
36.12000 0.425
36.14000 -2.664
36.16000 -2.189
36.18000 -1.543
36.20000 2.692
36.22000 -1.511
36.24000 2.802
36.26000 5.228
36.28000 2.826
36.30000 0.027
36.32000 2.879
36.34000 8.653
36.36000 5.239
36.38000 -0.233
36.40000 -2.009
36.42000 -2.721
36.44000 0.726
36.46000 -2.590
36.48000 -1.853
36.50000 1.360
36.52000 2.084
36.54000 3.541
36.56000 3.255
36.58000 1.765
36.60000 0.675
36.62000 -1.424
36.64000 2.601
36.66000 0.773
36.68000 3.028
36.70000 2.613
36.72000 6.152
36.74000 8.515
36.76000 2.550
36.78000 1.430
36.80000 0.748
36.82000 4.202
36.84000 4.332
36.86000 3.394
36.88000 0.497
36.90000 3.012
36.92000 -1.467
36.94000 -3.510
36.96000 4.655
36.98000 1.393
37.00000 2.047
37.02000 1.877
37.04000 3.520
37.06000 2.078
37.08000 -0.142
37.10000 0.670
37.12000 -3.059
37.14000 -3.529
37.16000 1.288
37.18000 -1.587
37.20000 1.256
37.22000 -0.044
37.24000 2.464
37.26000 5.193
37.28000 3.566
37.30000 2.059
37.32000 2.148
37.34000 0.739
37.36000 0.040
37.38000 0.575
37.40000 -0.534
37.42000 -1.480
37.44000 3.609
37.46000 1.522
37.48000 -1.465
37.50000 0.063
37.52000 -1.959
37.54000 -0.327
37.56000 -1.113
37.58000 0.985
37.60000 3.849
37.62000 8.867
37.64000 7.366
37.66000 6.661
37.68000 4.647
37.70000 4.914
37.72000 3.861
37.74000 6.642
37.76000 2.869
37.78000 1.207
37.80000 0.841
37.82000 -0.295
37.84000 -1.538
37.86000 -0.599
37.88000 2.085
37.90000 2.714
37.92000 3.224
37.94000 1.898
37.96000 4.989
37.98000 6.877
38.00000 0.490
38.02000 1.845
38.04000 4.588
38.06000 5.096
38.08000 5.241
38.10000 6.825
38.12000 4.827
38.14000 4.315
38.16000 3.631
38.18000 1.197
38.20000 6.627
38.22000 9.073
38.24000 6.926
38.26000 7.179
38.28000 5.819
38.30000 7.427
38.32000 11.868
38.34000 13.911
38.36000 9.322
38.38000 6.383
38.40000 8.669
38.42000 11.093
38.44000 11.924
38.46000 10.346
38.48000 12.283
38.50000 12.039
38.52000 9.763
38.54000 8.465
38.56000 15.966
38.58000 13.548
38.60000 13.387
38.62000 14.319
38.64000 18.541
38.66000 15.821
38.68000 16.159
38.70000 16.383
38.72000 16.601
38.74000 13.741
38.76000 16.298
38.78000 19.794
38.80000 20.058
38.82000 18.708
38.84000 26.388
38.86000 23.403
38.88000 18.052
38.90000 20.999
38.92000 20.167
38.94000 18.067
38.96000 20.980
38.98000 25.689
39.00000 26.539
39.02000 22.061
39.04000 27.047
39.06000 36.350
39.08000 32.395
39.10000 28.468
39.12000 27.884
39.14000 30.915
39.16000 30.149
39.18000 35.925
39.20000 43.703
39.22000 41.718
39.24000 37.528
39.26000 34.621
39.28000 34.853
39.30000 39.263
39.32000 38.454
39.34000 41.659
39.36000 48.589
39.38000 50.481
39.40000 44.442
39.42000 50.293
39.44000 50.075
39.46000 55.173
39.48000 56.741
39.50000 60.863
39.52000 60.189
39.54000 66.845
39.56000 65.305
39.58000 67.435
39.60000 71.475
39.62000 76.626
39.64000 77.022
39.66000 83.913
39.68000 87.771
39.70000 89.935
39.72000 95.394
39.74000 99.491
39.76000 101.370
39.78000 111.960
39.80000 115.964
39.82000 119.203
39.84000 124.258
39.86000 134.136
39.88000 142.839
39.90000 146.997
39.92000 145.513
39.94000 153.849
39.96000 165.808
39.98000 169.683
40.00000 183.051
40.02000 199.312
40.04000 205.755
40.06000 214.598
40.08000 231.190
40.10000 241.463
40.12000 246.397
40.14000 262.365
40.16000 273.450
40.18000 279.868
40.20000 289.839
40.22000 296.961
40.24000 313.928
40.26000 329.716
40.28000 358.563
40.30000 374.695
40.32000 373.678
40.34000 387.450
40.36000 405.819
40.38000 418.007
40.40000 436.014
40.42000 454.309
40.44000 477.837
40.46000 499.514
40.48000 505.637
40.50000 506.853
40.52000 532.877
40.54000 540.295
40.56000 553.455
40.58000 564.329
40.60000 575.732
40.62000 586.959
40.64000 589.771
40.66000 600.596
40.68000 606.391
40.70000 608.803
40.72000 603.470
40.74000 619.911
40.76000 615.937
40.78000 610.110
40.80000 608.746
40.82000 595.610
40.84000 594.764
40.86000 588.143
40.88000 580.636
40.90000 562.847
40.92000 547.144
40.94000 541.429
40.96000 528.312
40.98000 507.523
41.00000 490.728
41.02000 480.165
41.04000 465.860
41.06000 448.124
41.08000 430.553
41.10000 416.096
41.12000 396.244
41.14000 378.308
41.16000 367.333
41.18000 352.094
41.20000 337.860
41.22000 318.643
41.24000 292.137
41.26000 279.607
41.28000 265.530
41.30000 264.332
41.32000 249.068
41.34000 237.529
41.36000 227.869
41.38000 212.138
41.40000 196.566
41.42000 187.420
41.44000 178.316
41.46000 170.348
41.48000 160.962
41.50000 163.251
41.52000 158.843
41.54000 143.021
41.56000 132.149
41.58000 123.519
41.60000 113.585
41.62000 108.816
41.64000 104.470
41.66000 102.698
41.68000 98.515
41.70000 92.561
41.72000 88.796
41.74000 85.888
41.76000 80.239
41.78000 72.929
41.80000 72.350
41.82000 68.443
41.84000 65.919
41.86000 60.220
41.88000 59.240
41.90000 56.713
41.92000 56.234
41.94000 53.086
41.96000 47.313
41.98000 43.798
42.00000 50.216
42.02000 44.557
42.04000 43.949
42.06000 36.935
42.08000 33.663
42.10000 33.601
42.12000 30.763
42.14000 29.913
42.16000 27.880
42.18000 21.019
42.20000 22.993
42.22000 22.820
42.24000 24.068
42.26000 25.714
42.28000 21.560
42.30000 19.981
42.32000 15.275
42.34000 15.911
42.36000 17.206
42.38000 14.659
42.40000 15.281
42.42000 21.235
42.44000 23.291
42.46000 17.477
42.48000 16.046
42.50000 17.601
42.52000 14.652
42.54000 12.056
42.56000 12.371
42.58000 7.457
42.60000 6.042
42.62000 4.096
42.64000 6.128
42.66000 14.141
42.68000 12.444
42.70000 11.155
42.72000 10.198
42.74000 12.438
42.76000 12.018
42.78000 12.756
42.80000 8.905
42.82000 7.358
42.84000 7.060
42.86000 0.565
42.88000 4.125
42.90000 4.797
42.92000 1.013
42.94000 1.248
42.96000 3.470
42.98000 5.360
43.00000 2.238
43.02000 1.473
43.04000 4.639
43.06000 5.694
43.08000 3.575
43.10000 0.773
43.12000 4.174
43.14000 7.455
43.16000 5.794
43.18000 -2.191
43.20000 -3.604
43.22000 -2.133
43.24000 -1.629
43.26000 1.714
43.28000 5.806
43.30000 6.411
43.32000 -0.742
43.34000 3.758
43.36000 6.445
43.38000 2.863
43.40000 1.141
43.42000 0.294
43.44000 -0.107
43.46000 -0.505
43.48000 3.555
43.50000 2.670
43.52000 -2.252
43.54000 -0.738
43.56000 1.249
43.58000 1.041
43.60000 2.851
43.62000 3.572
43.64000 8.028
43.66000 6.894
43.68000 1.052
43.70000 2.005
43.72000 6.400
43.74000 2.061
43.76000 -0.609
43.78000 3.556
43.80000 1.526
43.82000 5.560
43.84000 3.230
43.86000 1.617
43.88000 -0.862
43.90000 -2.157
43.92000 4.526
43.94000 -0.324
43.96000 -3.494
43.98000 -1.491
44.00000 0.734
44.02000 0.471
44.04000 5.150
44.06000 10.226
44.08000 10.715
44.10000 10.692
44.12000 9.505
44.14000 6.720
44.16000 3.680
44.18000 3.946
44.20000 3.143
44.22000 0.232
44.24000 2.841
44.26000 3.633
44.28000 5.985
44.30000 6.449
44.32000 0.282
44.34000 -0.756
44.36000 4.588
44.38000 2.502
44.40000 -3.479
44.42000 0.594
44.44000 2.397
44.46000 2.063
44.48000 -0.155
44.50000 1.051
44.52000 5.387
44.54000 4.292
44.56000 -0.454
44.58000 -0.495
44.60000 -0.589
44.62000 0.770
44.64000 1.760
44.66000 2.356
44.68000 4.499
44.70000 4.902
44.72000 0.277
44.74000 -0.918
44.76000 1.244
44.78000 -0.763
44.80000 -2.899
44.82000 0.141
44.84000 3.785
44.86000 2.037
44.88000 -0.497
44.90000 -2.808
44.92000 -3.493
44.94000 -0.975
44.96000 -0.083
44.98000 3.265
45.00000 6.325
45.02000 6.719
45.04000 3.638
45.06000 2.765
45.08000 2.768
45.10000 5.515
45.12000 4.010
45.14000 5.771
45.16000 2.422
45.18000 2.128
45.20000 6.758
45.22000 6.284
45.24000 4.610
45.26000 2.104
45.28000 -3.495
45.30000 1.604
45.32000 2.382
45.34000 0.864
45.36000 0.061
45.38000 4.598
45.40000 3.140
45.42000 1.369
45.44000 -0.175
45.46000 3.989
45.48000 7.996
45.50000 10.016
45.52000 9.631
45.54000 10.442
45.56000 7.085
45.58000 8.823
45.60000 7.884
45.62000 1.498
45.64000 5.183
45.66000 12.576
45.68000 11.551
45.70000 7.453
45.72000 10.377
45.74000 11.468
45.76000 16.949
45.78000 12.773
45.80000 17.912
45.82000 11.564
45.84000 15.165
45.86000 14.789
45.88000 8.228
45.90000 10.371
45.92000 8.195
45.94000 12.113
45.96000 11.153
45.98000 15.140
46.00000 16.813
46.02000 21.374
46.04000 21.917
46.06000 18.033
46.08000 19.921
46.10000 24.911
46.12000 23.454
46.14000 22.917
46.16000 25.045
46.18000 23.079
46.20000 25.126
46.22000 20.815
46.24000 20.561
46.26000 17.367
46.28000 22.281
46.30000 26.209
46.32000 26.190
46.34000 26.312
46.36000 29.847
46.38000 29.974
46.40000 32.947
46.42000 27.082
46.44000 31.221
46.46000 30.932
46.48000 35.205
46.50000 41.145
46.52000 37.341
46.54000 33.504
46.56000 39.355
46.58000 40.049
46.60000 43.808
46.62000 51.616
46.64000 52.391
46.66000 54.028
46.68000 49.805
46.70000 48.814
46.72000 51.920
46.74000 51.670
46.76000 49.083
46.78000 47.521
46.80000 56.091
46.82000 52.473
46.84000 49.147
46.86000 52.818
46.88000 55.889
46.90000 54.918
46.92000 53.354
46.94000 53.176
46.96000 58.597
46.98000 61.027
47.00000 67.242
47.02000 64.244
47.04000 63.550
47.06000 61.312
47.08000 60.915
47.10000 71.104
47.12000 67.497
47.14000 72.642
47.16000 70.425
47.18000 73.307
47.20000 75.488
47.22000 75.032
47.24000 71.002
47.26000 71.805
47.28000 71.488
47.30000 65.714
47.32000 70.283
47.34000 68.458
47.36000 74.327
47.38000 76.985
47.40000 72.761
47.42000 71.122
47.44000 77.358
47.46000 74.109
47.48000 69.188
47.50000 72.084
47.52000 69.109
47.54000 64.997
47.56000 63.981
47.58000 65.106
47.60000 58.702
47.62000 62.130
47.64000 64.571
47.66000 65.213
47.68000 58.339
47.70000 52.385
47.72000 55.714
47.74000 53.365
47.76000 53.444
47.78000 46.945
47.80000 42.670
47.82000 47.669
47.84000 49.719
47.86000 40.209
47.88000 46.970
47.90000 52.939
47.92000 45.934
47.94000 41.735
47.96000 45.972
47.98000 41.060
48.00000 38.339
48.02000 29.513
48.04000 27.118
48.06000 38.087
48.08000 35.701
48.10000 30.065
48.12000 29.502
48.14000 25.781
48.16000 22.581
48.18000 26.574
48.20000 32.952
48.22000 23.790
48.24000 16.673
48.26000 22.316
48.28000 20.101
48.30000 20.820
48.32000 19.274
48.34000 24.109
48.36000 25.571
48.38000 20.909
48.40000 14.508
48.42000 10.524
48.44000 10.240
48.46000 14.899
48.48000 12.386
48.50000 7.113
48.52000 11.956
48.54000 17.150
48.56000 17.732
48.58000 9.808
48.60000 8.343
48.62000 14.203
48.64000 9.461
48.66000 6.749
48.68000 7.817
48.70000 6.367
48.72000 9.546
48.74000 10.130
48.76000 7.944
48.78000 5.881
48.80000 6.642
48.82000 -2.314
48.84000 1.087
48.86000 -1.011
48.88000 -0.457
48.90000 -0.386
48.92000 0.550
48.94000 6.054
48.96000 10.288
48.98000 12.592
49.00000 9.054
49.02000 5.719
49.04000 0.346
49.06000 4.348
49.08000 4.325
49.10000 -1.403
49.12000 -1.988
49.14000 3.726
49.16000 1.730
49.18000 2.149
49.20000 -0.560
49.22000 -2.184
49.24000 1.391
49.26000 0.745
49.28000 8.348
49.30000 4.292
49.32000 2.028
49.34000 1.840
49.36000 1.443
49.38000 1.091
49.40000 -3.133
49.42000 0.301
49.44000 2.746
49.46000 2.299
49.48000 5.689
49.50000 6.126
49.52000 6.091
49.54000 3.496
49.56000 3.920
49.58000 4.016
49.60000 5.663
49.62000 2.998
49.64000 5.308
49.66000 4.532
49.68000 5.598
49.70000 5.969
49.72000 4.149
49.74000 7.342
49.76000 -1.340
49.78000 -3.081
49.80000 1.422
49.82000 -1.287
49.84000 5.327
49.86000 4.659
49.88000 -1.922
49.90000 1.351
49.92000 5.331
49.94000 0.475
49.96000 2.582
49.98000 -1.939
50.00000 -0.427
50.02000 2.951
50.04000 3.659
50.06000 8.252
50.08000 6.859
50.10000 5.263
50.12000 3.980
50.14000 2.423
50.16000 -0.676
50.18000 1.377
50.20000 3.540
50.22000 -0.436
50.24000 -1.783
50.26000 1.846
50.28000 2.664
50.30000 1.363
50.32000 2.593
50.34000 5.502
50.36000 9.616
50.38000 3.655
50.40000 -1.453
50.42000 4.116
50.44000 -1.547
50.46000 -3.028
50.48000 4.583
50.50000 6.323
50.52000 5.476
50.54000 4.086
50.56000 1.313
50.58000 3.259
50.60000 2.562
50.62000 3.622
50.64000 2.325
50.66000 0.808
50.68000 4.476
50.70000 6.839
50.72000 3.021
50.74000 3.207
50.76000 0.693
50.78000 4.993
50.80000 4.322
50.82000 8.168
50.84000 2.433
50.86000 1.687
50.88000 2.097
50.90000 2.365
50.92000 2.779
50.94000 5.124
50.96000 6.374
50.98000 5.359
51.00000 3.428
51.02000 3.075
51.04000 5.250
51.06000 6.906
51.08000 2.495
51.10000 1.442
51.12000 5.784
51.14000 11.675
51.16000 6.902
51.18000 1.646
51.20000 -0.116
51.22000 0.536
51.24000 0.496
51.26000 4.308
51.28000 8.542
51.30000 6.680
51.32000 2.944
51.34000 -2.947
51.36000 3.811
51.38000 3.107
51.40000 3.833
51.42000 6.977
51.44000 3.668
51.46000 2.672
51.48000 3.538
51.50000 7.075
51.52000 7.636
51.54000 4.649
51.56000 5.931
51.58000 9.060
51.60000 7.171
51.62000 3.405
51.64000 -1.881
51.66000 1.739
51.68000 4.065
51.70000 8.545
51.72000 1.734
51.74000 3.376
51.76000 6.484
51.78000 3.081
51.80000 -0.975
51.82000 -0.200
51.84000 4.624
51.86000 6.166
51.88000 6.824
51.90000 8.784
51.92000 7.713
51.94000 1.742
51.96000 4.661
51.98000 9.660
52.00000 6.052
52.02000 5.027
52.04000 3.909
52.06000 3.709
52.08000 2.661
52.10000 3.192
52.12000 -2.934
52.14000 1.155
52.16000 2.114
52.18000 -1.744
52.20000 3.675
52.22000 3.583
52.24000 2.438
52.26000 3.153
52.28000 2.711
52.30000 1.416
52.32000 -0.427
52.34000 5.174
52.36000 2.659
52.38000 -0.520
52.40000 1.935
52.42000 4.995
52.44000 4.606
52.46000 2.437
52.48000 -0.761
52.50000 3.539
52.52000 4.123
52.54000 2.910
52.56000 0.450
52.58000 -2.052
52.60000 0.716
52.62000 -0.742
52.64000 -1.521
52.66000 -1.774
52.68000 2.962
52.70000 1.968
52.72000 -0.952
52.74000 0.960
52.76000 3.214
52.78000 2.878
52.80000 3.587
52.82000 1.834
52.84000 1.209
52.86000 -0.165
52.88000 2.815
52.90000 -0.244
52.92000 1.026
52.94000 -0.095
52.96000 -2.936
52.98000 5.003
53.00000 2.713
53.02000 3.112
53.04000 1.958
53.06000 0.779
53.08000 0.387
53.10000 3.262
53.12000 4.966
53.14000 2.650
53.16000 1.750
53.18000 2.287
53.20000 1.341
53.22000 0.518
53.24000 3.246
53.26000 -1.494
53.28000 -1.743
53.30000 -1.553
53.32000 -0.846
53.34000 -0.156
53.36000 5.569
53.38000 6.961
53.40000 5.504
53.42000 2.054
53.44000 1.077
53.46000 2.561
53.48000 3.384
53.50000 6.353
53.52000 2.368
53.54000 -0.002
53.56000 5.459
53.58000 9.409
53.60000 5.326
53.62000 1.472
53.64000 2.968
53.66000 4.790
53.68000 3.777
53.70000 2.456
53.72000 6.884
53.74000 2.533
53.76000 4.551
53.78000 1.912
53.80000 0.870
53.82000 2.292
53.84000 1.844
53.86000 1.418
53.88000 4.868
53.90000 6.153
53.92000 3.469
53.94000 6.434
53.96000 5.007
53.98000 4.971
54.00000 1.825
54.02000 3.788
54.04000 5.007
54.06000 5.419
54.08000 7.914
54.10000 4.244
54.12000 1.891
54.14000 5.644
54.16000 9.291
54.18000 6.349
54.20000 8.968
54.22000 7.626
54.24000 1.313
54.26000 4.739
54.28000 3.447
54.30000 5.655
54.32000 7.017
54.34000 4.719
54.36000 5.882
54.38000 7.495
54.40000 11.559
54.42000 7.352
54.44000 3.137
54.46000 2.277
54.48000 1.177
54.50000 -2.826
54.52000 0.319
54.54000 7.575
54.56000 7.396
54.58000 8.898
54.60000 10.917
54.62000 11.445
54.64000 13.250
54.66000 14.681
54.68000 9.032
54.70000 6.245
54.72000 3.364
54.74000 7.405
54.76000 2.378
54.78000 5.013
54.80000 7.174
54.82000 9.224
54.84000 6.438
54.86000 -1.243
54.88000 2.528
54.90000 0.777
54.92000 0.101
54.94000 3.292
54.96000 3.890
54.98000 1.977
55.00000 3.704
55.02000 8.291
55.04000 10.099
55.06000 6.858
55.08000 4.459
55.10000 2.684
55.12000 2.046
55.14000 6.923
55.16000 10.686
55.18000 10.587
55.20000 9.800
55.22000 9.077
55.24000 8.935
55.26000 7.326
55.28000 5.592
55.30000 5.375
55.32000 -2.805
55.34000 3.023
55.36000 5.293
55.38000 9.435
55.40000 5.182
55.42000 3.952
55.44000 5.585
55.46000 6.417
55.48000 2.048
55.50000 0.979
55.52000 3.871
55.54000 3.969
55.56000 9.875
55.58000 9.952
55.60000 3.191
55.62000 6.964
55.64000 4.887
55.66000 9.044
55.68000 9.554
55.70000 8.128
55.72000 5.327
55.74000 6.188
55.76000 7.936
55.78000 5.838
55.80000 8.852
55.82000 9.323
55.84000 7.016
55.86000 1.917
55.88000 4.490
55.90000 5.032
55.92000 3.959
55.94000 6.483
55.96000 2.736
55.98000 1.543
56.00000 5.615
56.02000 3.490
56.04000 4.862
56.06000 5.786
56.08000 3.225
56.10000 3.776
56.12000 7.064
56.14000 4.514
56.16000 0.330
56.18000 -2.811
56.20000 0.962
56.22000 2.120
56.24000 7.745
56.26000 5.416
56.28000 3.276
56.30000 2.468
56.32000 3.413
56.34000 8.455
56.36000 2.377
56.38000 -0.348
56.40000 1.824
56.42000 2.496
56.44000 3.357
56.46000 3.764
56.48000 3.813
56.50000 3.470
56.52000 2.624
56.54000 -1.335
56.56000 -2.815
56.58000 1.843
56.60000 -0.811
56.62000 -0.737
56.64000 0.607
56.66000 1.139
56.68000 5.333
56.70000 7.763
56.72000 6.745
56.74000 11.318
56.76000 4.946
56.78000 2.321
56.80000 2.945
56.82000 -0.150
56.84000 -2.017
56.86000 -2.714
56.88000 -0.156
56.90000 7.385
56.92000 5.503
56.94000 5.901
56.96000 0.300
56.98000 0.066
57.00000 1.041
57.02000 2.754
57.04000 5.961
57.06000 2.202
57.08000 -0.269
57.10000 0.859
57.12000 0.214
57.14000 0.369
57.16000 1.910
57.18000 -0.159
57.20000 3.616
57.22000 2.149
57.24000 0.251
57.26000 1.430
57.28000 6.390
57.30000 5.606
57.32000 4.645
57.34000 2.454
57.36000 3.536
57.38000 3.222
57.40000 7.389
57.42000 4.777
57.44000 3.313
57.46000 0.485
57.48000 3.006
57.50000 0.512
57.52000 -0.711
57.54000 -1.947
57.56000 0.513
57.58000 3.393
57.60000 4.636
57.62000 6.806
57.64000 3.844
57.66000 1.878
57.68000 -0.864
57.70000 -0.532
57.72000 4.830
57.74000 4.204
57.76000 4.546
57.78000 3.488
57.80000 0.770
57.82000 2.622
57.84000 -0.171
57.86000 -2.782
57.88000 0.870
57.90000 -0.122
57.92000 2.494
57.94000 1.626
57.96000 4.255
57.98000 3.896
58.00000 3.887
58.02000 2.726
58.04000 2.333
58.06000 0.661
58.08000 4.837
58.10000 4.623
58.12000 1.321
58.14000 0.493
58.16000 -1.897
58.18000 -0.220
58.20000 0.802
58.22000 2.014
58.24000 1.366
58.26000 -1.134
58.28000 0.326
58.30000 2.903
58.32000 5.856
58.34000 1.232
58.36000 -1.072
58.38000 -2.750
58.40000 2.434
58.42000 0.013
58.44000 -1.599
58.46000 1.053
58.48000 6.166
58.50000 4.561
58.52000 2.253
58.54000 1.351
58.56000 2.813
58.58000 1.890
58.60000 0.758
58.62000 2.083
58.64000 8.551
58.66000 6.080
58.68000 8.446
58.70000 6.703
58.72000 3.217
58.74000 -0.686
58.76000 2.866
58.78000 1.945
58.80000 -1.693
58.82000 0.954
58.84000 0.845
58.86000 3.104
58.88000 3.678
58.90000 7.727
58.92000 4.230
58.94000 8.432
58.96000 8.036
58.98000 4.651
59.00000 0.734
59.02000 2.621
59.04000 1.040
59.06000 0.291
59.08000 6.468
59.10000 3.810
59.12000 2.408
59.14000 -2.121
59.16000 -1.277
59.18000 -2.695
59.20000 -0.523
59.22000 2.713
59.24000 5.489
59.26000 6.325
59.28000 5.520
59.30000 7.072
59.32000 6.205
59.34000 -0.042
59.36000 -1.376
59.38000 2.156
59.40000 4.660
59.42000 7.822
59.44000 6.206
59.46000 5.215
59.48000 2.555
59.50000 8.127
59.52000 4.936
59.54000 8.551
59.56000 4.035
59.58000 -0.736
59.60000 2.599
59.62000 3.344
59.64000 0.137
59.66000 -0.335
59.68000 1.218
59.70000 10.337
59.72000 9.931
59.74000 7.220
59.76000 3.621
59.78000 4.749
59.80000 13.150
59.82000 8.163
59.84000 6.899
59.86000 5.853
59.88000 10.113
59.90000 4.578
59.92000 2.066
59.94000 5.219
59.96000 6.812
59.98000 8.779
60.00000 3.644
60.02000 1.540
60.04000 4.629
60.06000 3.581
60.08000 0.865
60.10000 2.636
60.12000 2.621
60.14000 1.902
60.16000 -0.137
60.18000 -2.643
60.20000 -0.670
60.22000 6.357
60.24000 10.078
60.26000 5.329
60.28000 4.889
60.30000 2.476
60.32000 2.190
60.34000 4.489
60.36000 5.193
60.38000 3.555
60.40000 5.556
60.42000 4.245
60.44000 6.051
60.46000 3.605
60.48000 4.410
60.50000 6.003
60.52000 4.921
60.54000 6.512
60.56000 5.631
60.58000 6.812
60.60000 -1.013
60.62000 -1.399
60.64000 -0.058
60.66000 2.647
60.68000 3.843
60.70000 2.700
60.72000 -0.849
60.74000 1.873
60.76000 0.448
60.78000 -0.923
60.80000 5.179
60.82000 6.830
60.84000 3.208
60.86000 3.249
60.88000 3.272
60.90000 5.803
60.92000 0.582
60.94000 -0.581
60.96000 -2.331
60.98000 -1.709
61.00000 2.024
61.02000 6.531
61.04000 7.431
61.06000 2.125
61.08000 1.231
61.10000 -0.806
61.12000 -0.756
61.14000 -2.649
61.16000 1.639
61.18000 -1.198
61.20000 1.049
61.22000 3.002
61.24000 1.658
61.26000 0.823
61.28000 -0.151
61.30000 3.841
61.32000 2.417
61.34000 1.707
61.36000 5.629
61.38000 4.613
61.40000 1.694
61.42000 5.303
61.44000 4.980
61.46000 2.846
61.48000 1.329
61.50000 9.300
61.52000 6.099
61.54000 4.903
61.56000 3.584
61.58000 3.035
61.60000 6.470
61.62000 5.695
61.64000 3.563
61.66000 3.565
61.68000 2.485
61.70000 0.849
61.72000 1.379
61.74000 0.733
61.76000 0.798
61.78000 3.683
61.80000 5.486
61.82000 4.675
61.84000 0.344
61.86000 4.730
61.88000 8.186
61.90000 6.287
61.92000 3.518
61.94000 0.597
61.96000 0.170
61.98000 2.525
62.00000 5.127
62.02000 6.086
62.04000 7.381
62.06000 3.837
62.08000 0.852
62.10000 -2.620
62.12000 -0.709
62.14000 2.264
62.16000 6.545
62.18000 4.700
62.20000 3.689
62.22000 1.793
62.24000 4.978
62.26000 4.648
62.28000 3.895
62.30000 -0.759
62.32000 -2.425
62.34000 -1.186
62.36000 1.367
62.38000 5.130
62.40000 2.678
62.42000 0.947
62.44000 0.534
62.46000 -1.326
62.48000 -0.855
62.50000 -1.277
62.52000 1.047
62.54000 2.944
62.56000 6.681
62.58000 4.810
62.60000 0.952
62.62000 0.583
62.64000 1.984
62.66000 1.233
62.68000 -0.504
62.70000 4.067
62.72000 1.524
62.74000 1.578
62.76000 3.826
62.78000 2.351
62.80000 3.077
62.82000 2.146
62.84000 3.199
62.86000 2.431
62.88000 3.827
62.90000 3.183
62.92000 1.792
62.94000 6.977
62.96000 6.530
62.98000 2.577
63.00000 -1.839
63.02000 2.969
63.04000 4.246
63.06000 -0.990
63.08000 4.638
63.10000 5.772
63.12000 5.557
63.14000 1.817
63.16000 -2.243
63.18000 -0.367
63.20000 1.898
63.22000 3.621
63.24000 5.343
63.26000 2.404
63.28000 2.480
63.30000 -0.401
63.32000 3.485
63.34000 6.260
63.36000 3.646
63.38000 2.233
63.40000 3.652
63.42000 1.917
63.44000 1.472
63.46000 -1.219
63.48000 -2.615
63.50000 1.453
63.52000 0.038
63.54000 1.263
63.56000 -1.629
63.58000 2.775
63.60000 2.772
63.62000 6.427
63.64000 7.255
63.66000 1.849
63.68000 -1.542
63.70000 2.928
63.72000 -0.348
63.74000 1.750
63.76000 3.026
63.78000 4.466
63.80000 4.011
63.82000 4.220
63.84000 1.238
63.86000 -0.582
63.88000 3.143
63.90000 1.903
63.92000 -0.440
63.94000 3.342
63.96000 5.926
63.98000 2.309
64.00000 5.385
64.02000 3.557
64.04000 4.893
64.06000 4.956
64.08000 5.264
64.10000 4.715
64.12000 5.182
64.14000 6.286
64.16000 3.170
64.18000 -0.134
64.20000 0.524
64.22000 2.537
64.24000 2.370
64.26000 0.393
64.28000 -0.844
64.30000 0.579
64.32000 2.103
64.34000 5.461
64.36000 6.339
64.38000 0.839
64.40000 -0.264
64.42000 2.401
64.44000 0.623
64.46000 -2.041
64.48000 -2.603
64.50000 0.638
64.52000 7.098
64.54000 7.036
64.56000 3.646
64.58000 2.710
64.60000 2.283
64.62000 2.944
64.64000 2.119
64.66000 1.112
64.68000 4.853
64.70000 3.947
64.72000 6.913
64.74000 5.861
64.76000 3.635
64.78000 0.339
64.80000 0.492
64.82000 0.858
64.84000 3.158
64.86000 2.898
64.88000 2.363
64.90000 4.799
64.92000 1.958
64.94000 2.828
64.96000 7.738
64.98000 9.574
65.00000 7.995
65.02000 7.118
65.04000 2.856
65.06000 3.139
65.08000 4.280
65.10000 3.220
65.12000 2.412
65.14000 2.861
65.16000 4.725
65.18000 4.178
65.20000 4.260
65.22000 3.955
65.24000 1.175
65.26000 3.647
65.28000 2.471
65.30000 0.807
65.32000 -0.987
65.34000 -0.390
65.36000 3.707
65.38000 5.669
65.40000 -2.543
65.42000 2.863
65.44000 5.958
65.46000 7.028
65.48000 3.081
65.50000 1.080
65.52000 -2.626
65.54000 0.858
65.56000 3.448
65.58000 -1.860
65.60000 -1.636
65.62000 -0.372
65.64000 2.329
65.66000 1.852
65.68000 1.984
65.70000 2.131
65.72000 3.817
65.74000 3.174
65.76000 4.567
65.78000 0.942
65.80000 -0.875
65.82000 3.902
65.84000 6.958
65.86000 4.331
65.88000 1.809
65.90000 3.656
65.92000 3.832
65.94000 2.887
65.96000 0.731
65.98000 1.832
66.00000 3.047
66.02000 5.272
66.04000 4.165
66.06000 -1.515
66.08000 2.310
66.10000 4.851
66.12000 2.901
66.14000 1.805
66.16000 4.269
66.18000 1.089
66.20000 -0.818
66.22000 -0.156
66.24000 0.319
66.26000 0.754
66.28000 -0.294
66.30000 -1.934
66.32000 -2.181
66.34000 -0.325
66.36000 -0.809
66.38000 1.202
66.40000 1.030
66.42000 -1.160
66.44000 -2.621
66.46000 5.897
66.48000 4.303
66.50000 4.313
66.52000 1.882
66.54000 0.010
66.56000 2.367
66.58000 2.362
66.60000 1.344
66.62000 -1.840
66.64000 2.298
66.66000 -0.190
66.68000 -2.335
66.70000 1.908
66.72000 4.503
66.74000 9.019
66.76000 3.094
66.78000 3.032
66.80000 8.637
66.82000 3.321
66.84000 2.632
66.86000 1.703
66.88000 1.679
66.90000 2.148
66.92000 0.276
66.94000 2.436
66.96000 4.308
66.98000 -1.004
67.00000 1.928
67.02000 -1.861
67.04000 -2.666
67.06000 0.935
67.08000 1.258
67.10000 3.132
67.12000 3.741
67.14000 3.717
67.16000 1.745
67.18000 3.398
67.20000 2.713
67.22000 0.779
67.24000 2.110
67.26000 1.364
67.28000 2.384
67.30000 5.364
67.32000 4.291
67.34000 -0.087
67.36000 -1.085
67.38000 -1.976
67.40000 0.503
67.42000 1.531
67.44000 1.062
67.46000 2.997
67.48000 3.576
67.50000 1.972
67.52000 -1.792
67.54000 0.984
67.56000 2.277
67.58000 0.731
67.60000 2.997
67.62000 2.934
67.64000 -0.938
67.66000 -1.599
67.68000 -2.717
67.70000 -0.059
67.72000 0.379
67.74000 -2.259
67.76000 1.885
67.78000 1.338
67.80000 3.879
67.82000 3.298
67.84000 1.199
67.86000 3.343
67.88000 5.683
67.90000 4.773
67.92000 2.451
67.94000 4.368
67.96000 3.730
67.98000 5.320
68.00000 7.137
68.02000 6.178
68.04000 3.630
68.06000 4.632
68.08000 4.168
68.10000 5.351
68.12000 6.658
68.14000 4.568
68.16000 4.748
68.18000 7.215
68.20000 8.139
68.22000 6.002
68.24000 6.531
68.26000 8.860
68.28000 6.962
68.30000 10.599
68.32000 7.412
68.34000 3.295
68.36000 4.261
68.38000 6.810
68.40000 7.685
68.42000 8.223
68.44000 11.409
68.46000 13.756
68.48000 9.606
68.50000 12.488
68.52000 14.457
68.54000 9.388
68.56000 13.824
68.58000 15.961
68.60000 15.412
68.62000 18.597
68.64000 20.413
68.66000 19.036
68.68000 13.474
68.70000 14.320
68.72000 16.911
68.74000 14.718
68.76000 18.128
68.78000 17.323
68.80000 18.318
68.82000 17.864
68.84000 25.032
68.86000 22.218
68.88000 20.692
68.90000 20.302
68.92000 21.590
68.94000 27.945
68.96000 25.727
68.98000 27.307
69.00000 28.646
69.02000 25.811
69.04000 25.359
69.06000 25.240
69.08000 29.319
69.10000 28.553
69.12000 23.771
69.14000 23.316
69.16000 24.739
69.18000 24.734
69.20000 29.999
69.22000 29.015
69.24000 26.868
69.26000 27.045
69.28000 25.951
69.30000 21.906
69.32000 28.218
69.34000 27.711
69.36000 24.563
69.38000 28.479
69.40000 29.355
69.42000 29.851
69.44000 27.247
69.46000 30.022
69.48000 26.775
69.50000 24.145
69.52000 23.678
69.54000 23.713
69.56000 17.511
69.58000 19.907
69.60000 19.473
69.62000 21.217
69.64000 26.085
69.66000 21.717
69.68000 19.136
69.70000 18.898
69.72000 20.222
69.74000 15.815
69.76000 13.070
69.78000 13.922
69.80000 18.178
69.82000 21.719
69.84000 19.575
69.86000 12.851
69.88000 9.547
69.90000 10.648
69.92000 10.020
69.94000 10.783
69.96000 10.979
69.98000 6.914
70.00000 10.376
70.02000 12.664
70.04000 10.632
70.06000 7.874
70.08000 5.821
70.10000 10.776
70.12000 13.158
70.14000 4.467
70.16000 6.700
70.18000 6.133
70.20000 3.698
70.22000 3.443
70.24000 1.386
70.26000 4.491
70.28000 4.167
70.30000 4.248
70.32000 5.790
70.34000 3.852
70.36000 3.118
70.38000 2.965
70.40000 0.819
70.42000 1.187
70.44000 2.363
70.46000 1.881
70.48000 2.131
70.50000 7.575
70.52000 4.673
70.54000 4.471
70.56000 1.153
70.58000 -0.349
70.60000 -0.118
70.62000 2.143
70.64000 2.032
70.66000 1.489
70.68000 -0.874
70.70000 3.465
70.72000 -0.940
70.74000 2.243
70.76000 -0.465
70.78000 2.650
70.80000 7.085
70.82000 6.192
70.84000 2.858
70.86000 -1.250
70.88000 2.254
70.90000 1.161
70.92000 -1.626
70.94000 -0.623
70.96000 1.648
70.98000 -2.493
71.00000 1.037
71.02000 -1.594
71.04000 -2.591
71.06000 -1.081
71.08000 1.782
71.10000 2.389
71.12000 2.712
71.14000 5.461
71.16000 -1.307
71.18000 3.135
71.20000 2.852
71.22000 0.308
71.24000 4.507
71.26000 6.934
71.28000 2.707
71.30000 1.982
71.32000 1.277
71.34000 -0.256
71.36000 -1.027
71.38000 -2.545
71.40000 -0.529
71.42000 3.037
71.44000 2.546
71.46000 1.428
71.48000 6.941
71.50000 3.298
71.52000 3.836
71.54000 -1.740
71.56000 1.673
71.58000 2.667
71.60000 6.542
71.62000 5.415
71.64000 -1.028
71.66000 0.028
71.68000 1.922
71.70000 2.598
71.72000 1.783
71.74000 0.326
71.76000 5.543
71.78000 2.876
71.80000 -0.846
71.82000 3.337
71.84000 5.315
71.86000 1.295
71.88000 -1.975
71.90000 1.193
71.92000 5.731
71.94000 2.879
71.96000 4.941
71.98000 6.288
72.00000 4.756
72.02000 0.577
72.04000 2.122
72.06000 1.190
72.08000 4.946
72.10000 2.208
72.12000 3.358
72.14000 5.207
72.16000 1.546
72.18000 4.143
72.20000 3.085
72.22000 1.807
72.24000 1.043
72.26000 2.778
72.28000 1.071
72.30000 -0.643
72.32000 0.531
72.34000 5.194
72.36000 5.776
72.38000 7.137
72.40000 4.836
72.42000 1.403
72.44000 -2.444
72.46000 3.785
72.48000 7.578
72.50000 8.326
72.52000 6.737
72.54000 4.018
72.56000 3.062
72.58000 -1.365
72.60000 -1.278
72.62000 6.819
72.64000 11.990
72.66000 8.646
72.68000 8.261
72.70000 5.433
72.72000 5.704
72.74000 5.654
72.76000 -2.410
72.78000 1.296
72.80000 8.163
72.82000 0.658
72.84000 -1.035
72.86000 0.477
72.88000 7.945
72.90000 4.693
72.92000 6.405
72.94000 8.651
72.96000 2.937
72.98000 5.141
73.00000 4.336
73.02000 -0.139
73.04000 1.530
73.06000 2.042
73.08000 -0.126
73.10000 2.796
73.12000 3.697
73.14000 6.356
73.16000 2.020
73.18000 1.731
73.20000 2.509
73.22000 2.763
73.24000 -0.227
73.26000 0.456
73.28000 1.818
73.30000 0.234
73.32000 -2.413
73.34000 5.935
73.36000 7.550
73.38000 4.203
73.40000 3.319
73.42000 2.166
73.44000 1.064
73.46000 0.708
73.48000 -0.429
73.50000 -0.085
73.52000 6.963
73.54000 4.575
73.56000 8.239
73.58000 6.290
73.60000 6.251
73.62000 2.897
73.64000 2.744
73.66000 1.975
73.68000 5.888
73.70000 3.418
73.72000 5.104
73.74000 7.165
73.76000 3.930
73.78000 4.116
73.80000 4.930
73.82000 3.771
73.84000 3.933
73.86000 1.411
73.88000 3.998
73.90000 4.763
73.92000 7.624
73.94000 6.292
73.96000 3.948
73.98000 4.508
74.00000 5.275
74.02000 2.126
74.04000 3.415
74.06000 -0.688
74.08000 1.423
74.10000 2.754
74.12000 4.287
74.14000 4.056
74.16000 4.851
74.18000 3.460
74.20000 4.753
74.22000 6.969
74.24000 5.048
74.26000 1.186
74.28000 1.452
74.30000 3.366
74.32000 7.050
74.34000 7.599
74.36000 3.002
74.38000 3.121
74.40000 2.263
74.42000 0.631
74.44000 1.807
74.46000 1.188
74.48000 3.253
74.50000 1.949
74.52000 -2.366
74.54000 1.929
74.56000 5.174
74.58000 2.877
74.60000 6.400
74.62000 4.678
74.64000 4.083
74.66000 2.160
74.68000 -1.606
74.70000 1.301
74.72000 3.251
74.74000 1.995
74.76000 0.910
74.78000 1.038
74.80000 2.069
74.82000 5.832
74.84000 8.536
74.86000 5.653
74.88000 3.972
74.90000 5.434
74.92000 8.367
74.94000 3.349
74.96000 1.901
74.98000 6.097
75.00000 6.701
75.02000 3.917
75.04000 4.944
75.06000 3.306
75.08000 5.553
75.10000 7.531
75.12000 3.817
75.14000 3.580
75.16000 5.207
75.18000 3.900
75.20000 7.502
75.22000 4.917
75.24000 4.915
75.26000 7.013
75.28000 8.075
75.30000 12.548
75.32000 4.637
75.34000 3.897
75.36000 6.034
75.38000 6.055
75.40000 6.325
75.42000 2.327
75.44000 5.200
75.46000 4.042
75.48000 10.428
75.50000 6.158
75.52000 7.423
75.54000 6.024
75.56000 5.994
75.58000 9.494
75.60000 8.608
75.62000 5.597
75.64000 5.050
75.66000 1.047
75.68000 4.229
75.70000 6.289
75.72000 3.953
75.74000 6.136
75.76000 9.216
75.78000 5.119
75.80000 2.105
75.82000 2.279
75.84000 4.674
75.86000 7.343
75.88000 1.025
75.90000 5.051
75.92000 6.327
75.94000 6.965
75.96000 1.751
75.98000 -2.363
76.00000 2.070
76.02000 3.051
76.04000 7.870
76.06000 9.898
76.08000 11.982
76.10000 10.952
76.12000 12.640
76.14000 10.562
76.16000 6.767
76.18000 4.145
76.20000 8.198
76.22000 0.289
76.24000 -1.131
76.26000 3.063
76.28000 3.623
76.30000 4.420
76.32000 9.843
76.34000 11.470
76.36000 5.318
76.38000 -0.289
76.40000 0.082
76.42000 -0.956
76.44000 1.609
76.46000 2.436
76.48000 1.115
76.50000 1.708
76.52000 3.393
76.54000 4.655
76.56000 3.690
76.58000 4.392
76.60000 5.419
76.62000 7.875
76.64000 4.075
76.66000 -1.105
76.68000 1.101
76.70000 -2.420
76.72000 -1.078
76.74000 -1.624
76.76000 -0.621
76.78000 5.871
76.80000 5.596
76.82000 1.292
76.84000 3.022
76.86000 7.559
76.88000 6.732
76.90000 3.467
76.92000 1.831
76.94000 3.734
76.96000 3.917
76.98000 2.668
77.00000 6.058
77.02000 3.429
77.04000 4.744
77.06000 3.816
77.08000 0.463
77.10000 -1.488
77.12000 -0.887
77.14000 4.548
77.16000 7.275
77.18000 6.691
77.20000 7.186
77.22000 1.879
77.24000 5.506
77.26000 4.701
77.28000 6.808
77.30000 2.518
77.32000 1.625
77.34000 4.115
77.36000 3.846
77.38000 2.674
77.40000 5.768
77.42000 3.437
77.44000 3.947
77.46000 2.765
77.48000 3.767
77.50000 3.896
77.52000 6.162
77.54000 4.956
77.56000 0.168
77.58000 4.014
77.60000 3.354
77.62000 3.006
77.64000 -0.701
77.66000 -2.034
77.68000 3.809
77.70000 7.245
77.72000 1.991
77.74000 2.329
77.76000 2.630
77.78000 2.353
77.80000 3.015
77.82000 7.530
77.84000 6.880
77.86000 2.288
77.88000 3.494
77.90000 5.988
77.92000 3.538
77.94000 4.042
77.96000 0.291
77.98000 1.552
78.00000 3.638
78.02000 2.386
78.04000 -2.428
78.06000 7.862
78.08000 6.233
78.10000 3.416
78.12000 0.344
78.14000 6.189
78.16000 7.831
78.18000 5.586
78.20000 3.263
78.22000 2.871
78.24000 4.994
78.26000 1.671
78.28000 0.166
78.30000 5.375
78.32000 6.222
78.34000 7.082
78.36000 3.126
78.38000 3.753
78.40000 6.105
78.42000 7.947
78.44000 6.675
78.46000 4.720
78.48000 8.253
78.50000 4.667
78.52000 1.598
78.54000 2.829
78.56000 4.817
78.58000 1.498
78.60000 1.879
78.62000 -0.131
78.64000 -1.024
78.66000 3.727
78.68000 5.158
78.70000 0.665
78.72000 7.208
78.74000 4.225
78.76000 3.720
78.78000 1.926
78.80000 0.946
78.82000 0.257
78.84000 -2.099
78.86000 2.257
78.88000 4.925
78.90000 2.501
78.92000 -2.297
78.94000 1.272
78.96000 5.705
78.98000 3.617
79.00000 2.492
79.02000 -0.212
79.04000 -2.471
79.06000 4.351
79.08000 3.507
79.10000 3.068
79.12000 0.601
79.14000 2.847
79.16000 3.331
79.18000 4.411
79.20000 4.211
79.22000 6.055
79.24000 0.920
79.26000 1.617
79.28000 4.219
79.30000 4.751
79.32000 2.348
79.34000 1.921
79.36000 4.316
79.38000 2.773
79.40000 1.116
79.42000 -0.161
79.44000 1.674
79.46000 3.155
79.48000 1.806
79.50000 -0.954
79.52000 0.108
79.54000 -2.388
79.56000 -0.097
79.58000 5.850
79.60000 4.150
79.62000 0.950
79.64000 1.831
79.66000 -0.831
79.68000 1.937
79.70000 4.128
79.72000 2.295
79.74000 -0.313
79.76000 1.376
79.78000 -1.848
79.80000 -0.165
79.82000 3.029
79.84000 3.972
79.86000 4.359
79.88000 6.178
79.90000 5.602
79.92000 6.644
79.94000 4.736
79.96000 7.600
79.98000 5.028
80.00000 4.338
80.02000 9.462
80.04000 11.874
80.06000 7.454
80.08000 4.259
80.10000 7.093
80.12000 7.305
80.14000 2.117
80.16000 -2.453
80.18000 0.489
80.20000 2.956
80.22000 6.347
80.24000 10.430
80.26000 5.591
80.28000 5.197
80.30000 7.875
80.32000 6.688
80.34000 1.060
80.36000 2.810
80.38000 3.044
80.40000 4.479
80.42000 2.746
80.44000 2.838
80.46000 0.377
80.48000 2.050
80.50000 0.413
80.52000 -0.211
80.54000 1.711
80.56000 2.053
80.58000 2.989
80.60000 4.330
80.62000 8.071
80.64000 3.320
80.66000 -2.304
80.68000 2.615
80.70000 7.656
80.72000 4.625
80.74000 0.320
80.76000 0.888
80.78000 3.303
80.80000 2.405
80.82000 0.280
80.84000 2.650
80.86000 6.887
80.88000 3.749
80.90000 1.518
80.92000 2.365
80.94000 4.264
80.96000 6.056
80.98000 7.009
81.00000 5.129
81.02000 1.476
81.04000 1.928
81.06000 3.284
81.08000 2.853
81.10000 5.077
81.12000 6.689
81.14000 4.759
81.16000 2.231
81.18000 4.300
81.20000 5.774
81.22000 5.807
81.24000 6.311
81.26000 3.659
81.28000 0.248
81.30000 0.351
81.32000 -2.520
81.34000 3.333
81.36000 5.048
81.38000 -0.735
81.40000 3.962
81.42000 4.466
81.44000 5.057
81.46000 6.115
81.48000 1.087
81.50000 0.651
81.52000 3.735
81.54000 2.824
81.56000 3.196
81.58000 -0.745
81.60000 1.944
81.62000 2.435
81.64000 5.956
81.66000 7.422
81.68000 7.818
81.70000 6.252
81.72000 6.757
81.74000 6.016
81.76000 4.100
81.78000 -1.474
81.80000 1.524
81.82000 5.269
81.84000 5.056
81.86000 2.719
81.88000 6.941
81.90000 9.465
81.92000 9.092
81.94000 5.166
81.96000 3.408
81.98000 4.362
82.00000 5.475
82.02000 7.830
82.04000 6.222
82.06000 8.080
82.08000 8.690
82.10000 1.590
82.12000 1.747
82.14000 6.132
82.16000 11.331
82.18000 5.714
82.20000 7.416
82.22000 9.959
82.24000 6.602
82.26000 4.169
82.28000 2.864
82.30000 9.308
82.32000 10.327
82.34000 9.676
82.36000 7.842
82.38000 9.027
82.40000 7.525
82.42000 8.052
82.44000 10.102
82.46000 15.058
82.48000 6.223
82.50000 2.623
82.52000 10.135
82.54000 8.627
82.56000 4.760
82.58000 12.013
82.60000 15.988
82.62000 17.897
82.64000 14.974
82.66000 11.305
82.68000 10.611
82.70000 9.498
82.72000 13.679
82.74000 15.244
82.76000 16.645
82.78000 18.137
82.80000 11.852
82.82000 14.986
82.84000 10.596
82.86000 11.687
82.88000 10.634
82.90000 9.494
82.92000 16.567
82.94000 19.172
82.96000 11.733
82.98000 17.813
83.00000 23.150
83.02000 21.562
83.04000 19.777
83.06000 20.475
83.08000 18.275
83.10000 22.154
83.12000 26.469
83.14000 22.338
83.16000 25.955
83.18000 21.721
83.20000 21.807
83.22000 24.059
83.24000 22.617
83.26000 20.763
83.28000 14.023
83.30000 22.200
83.32000 25.510
83.34000 29.639
83.36000 30.366
83.38000 29.955
83.40000 28.997
83.42000 22.843
83.44000 21.933
83.46000 20.118
83.48000 27.576
83.50000 30.858
83.52000 27.363
83.54000 25.879
83.56000 25.732
83.58000 30.198
83.60000 26.300
83.62000 25.376
83.64000 27.430
83.66000 28.421
83.68000 32.866
83.70000 29.615
83.72000 32.981
83.74000 25.656
83.76000 25.680
83.78000 24.398
83.80000 30.270
83.82000 32.630
83.84000 26.460
83.86000 24.427
83.88000 25.585
83.90000 21.810
83.92000 24.825
83.94000 28.380
83.96000 26.632
83.98000 25.991
84.00000 25.478
84.02000 29.972
84.04000 23.495
84.06000 26.595
84.08000 25.058
84.10000 19.671
84.12000 19.300
84.14000 24.676
84.16000 28.441
84.18000 23.400
84.20000 19.919
84.22000 21.382
84.24000 21.602
84.26000 20.080
84.28000 20.009
84.30000 13.607
84.32000 17.291
84.34000 11.725
84.36000 17.000
84.38000 12.205
84.40000 13.427
84.42000 17.511
84.44000 7.681
84.46000 5.386
84.48000 13.132
84.50000 12.267
84.52000 8.182
84.54000 12.590
84.56000 13.843
84.58000 12.850
84.60000 6.545
84.62000 9.297
84.64000 11.377
84.66000 13.829
84.68000 7.592
84.70000 8.180
84.72000 9.681
84.74000 7.935
84.76000 7.953
84.78000 8.162
84.80000 6.671
84.82000 3.985
84.84000 4.028
84.86000 1.768
84.88000 3.546
84.90000 5.239
84.92000 1.874
84.94000 4.844
84.96000 7.545
84.98000 1.406
85.00000 4.010
85.02000 6.464
85.04000 4.760
85.06000 1.877
85.08000 1.805
85.10000 6.908
85.12000 6.532
85.14000 1.787
85.16000 4.339
85.18000 5.138
85.20000 8.540
85.22000 0.780
85.24000 5.227
85.26000 6.970
85.28000 0.984
85.30000 -1.064
85.32000 2.729
85.34000 6.047
85.36000 2.606
85.38000 1.256
85.40000 -0.558
85.42000 5.923
85.44000 8.333
85.46000 4.657
85.48000 -0.655
85.50000 2.497
85.52000 3.902
85.54000 4.468
85.56000 3.251
85.58000 3.511
85.60000 5.572
85.62000 6.589
85.64000 1.791
85.66000 1.063
85.68000 1.683
85.70000 4.210
85.72000 6.285
85.74000 3.291
85.76000 -2.489
85.78000 -1.457
85.80000 -0.650
85.82000 -0.944
85.84000 -0.538
85.86000 2.108
85.88000 6.315
85.90000 6.905
85.92000 2.524
85.94000 3.343
85.96000 5.261
85.98000 5.713
86.00000 2.911
86.02000 0.269
86.04000 0.631
86.06000 0.230
86.08000 0.236
86.10000 3.675
86.12000 4.759
86.14000 -0.682
86.16000 0.222
86.18000 0.850
86.20000 6.809
86.22000 10.092
86.24000 4.107
86.26000 -2.521
86.28000 -0.596
86.30000 3.411
86.32000 0.815
86.34000 2.777
86.36000 1.712
86.38000 0.538
86.40000 -1.322
86.42000 -0.709
86.44000 1.594
86.46000 0.296
86.48000 2.156
86.50000 1.851
86.52000 4.897
86.54000 2.942
86.56000 1.301
86.58000 6.524
86.60000 8.063
86.62000 5.920
86.64000 4.926
86.66000 0.306
86.68000 -1.748
86.70000 -0.221
86.72000 2.133
86.74000 -0.599
86.76000 0.599
86.78000 4.965
86.80000 6.210
86.82000 3.775
86.84000 3.942
86.86000 5.463
86.88000 8.112
86.90000 9.670
86.92000 5.796
86.94000 7.364
86.96000 5.711
86.98000 6.448
87.00000 2.360
87.02000 6.121
87.04000 3.535
87.06000 4.833
87.08000 4.115
87.10000 2.525
87.12000 6.458
87.14000 6.337
87.16000 5.064
87.18000 6.889
87.20000 6.827
87.22000 5.059
87.24000 5.735
87.26000 9.889
87.28000 10.964
87.30000 13.999
87.32000 8.055
87.34000 12.368
87.36000 14.773
87.38000 12.788
87.40000 13.425
87.42000 11.351
87.44000 15.477
87.46000 9.825
87.48000 10.727
87.50000 11.498
87.52000 11.246
87.54000 16.177
87.56000 12.459
87.58000 8.982
87.60000 14.963
87.62000 16.041
87.64000 18.043
87.66000 18.245
87.68000 12.647
87.70000 14.453
87.72000 14.577
87.74000 16.170
87.76000 15.884
87.78000 13.903
87.80000 15.325
87.82000 17.990
87.84000 18.823
87.86000 20.316
87.88000 20.482
87.90000 21.142
87.92000 27.574
87.94000 25.849
87.96000 23.439
87.98000 20.871
88.00000 20.871
88.02000 24.496
88.04000 22.252
88.06000 21.597
88.08000 21.484
88.10000 20.461
88.12000 22.802
88.14000 19.785
88.16000 18.637
88.18000 20.442
88.20000 26.547
88.22000 27.627
88.24000 26.803
88.26000 22.079
88.28000 23.530
88.30000 18.063
88.32000 24.000
88.34000 24.624
88.36000 21.740
88.38000 22.843
88.40000 23.361
88.42000 23.780
88.44000 14.088
88.46000 18.464
88.48000 25.520
88.50000 21.653
88.52000 17.813
88.54000 26.094
88.56000 24.777
88.58000 15.679
88.60000 19.136
88.62000 18.925
88.64000 16.851
88.66000 15.656
88.68000 17.875
88.70000 15.943
88.72000 16.020
88.74000 10.443
88.76000 9.611
88.78000 14.562
88.80000 12.951
88.82000 14.097
88.84000 9.879
88.86000 13.972
88.88000 16.562
88.90000 15.000
88.92000 13.666
88.94000 12.025
88.96000 10.196
88.98000 8.952
89.00000 8.937
89.02000 12.110
89.04000 12.952
89.06000 14.106
89.08000 7.469
89.10000 7.980
89.12000 8.228
89.14000 10.443
89.16000 11.551
89.18000 5.825
89.20000 7.797
89.22000 6.926
89.24000 6.431
89.26000 6.148
89.28000 8.526
89.30000 7.176
89.32000 2.633
89.34000 10.949
89.36000 8.582
89.38000 6.042
89.40000 3.299
89.42000 1.264
89.44000 4.057
89.46000 7.935
89.48000 3.979
89.50000 1.883
89.52000 2.986
89.54000 -0.513
89.56000 0.732
89.58000 8.140
89.60000 4.495
89.62000 6.840
89.64000 2.238
89.66000 4.926
89.68000 6.242
89.70000 2.283
89.72000 -1.028
89.74000 -0.239
89.76000 1.949
89.78000 1.538
89.80000 -0.384
89.82000 4.361
89.84000 9.614
89.86000 7.977
89.88000 3.619
89.90000 5.352
89.92000 4.158
89.94000 6.651
89.96000 8.086
89.98000 6.090
90.00000 2.933
90.02000 3.085
90.04000 6.146
90.06000 2.719
90.08000 2.465
90.10000 6.025
90.12000 2.158
90.14000 0.734
90.16000 3.080
90.18000 5.679
90.20000 10.243
90.22000 5.209
90.24000 6.596
90.26000 4.513
90.28000 0.936
90.30000 -2.041
90.32000 -1.892
90.34000 1.776
90.36000 1.532
90.38000 2.580
90.40000 3.067
90.42000 5.407
90.44000 7.144
90.46000 1.877
90.48000 1.359
90.50000 4.772
90.52000 6.936
90.54000 5.683
90.56000 9.047
90.58000 10.714
90.60000 8.709
90.62000 12.547
90.64000 12.401
90.66000 6.722
90.68000 -2.860
90.70000 4.512
90.72000 4.294
90.74000 8.052
90.76000 11.397
90.78000 5.260
90.80000 3.878
90.82000 5.227
90.84000 3.715
90.86000 3.189
90.88000 7.128
90.90000 15.391
90.92000 10.427
90.94000 7.734
90.96000 7.374
90.98000 9.161
91.00000 5.365
91.02000 4.566
91.04000 -1.353
91.06000 -1.313
91.08000 2.755
91.10000 4.888
91.12000 5.009
91.14000 -0.556
91.16000 -0.700
91.18000 2.015
91.20000 2.395
91.22000 6.463
91.24000 3.387
91.26000 0.777
91.28000 -1.888
91.30000 4.157
91.32000 8.224
91.34000 8.685
91.36000 9.422
91.38000 7.076
91.40000 3.846
91.42000 -0.631
91.44000 5.653
91.46000 3.928
91.48000 3.602
91.50000 7.619
91.52000 7.814
91.54000 3.784
91.56000 3.532
91.58000 3.858
91.60000 3.473
91.62000 3.961
91.64000 3.038
91.66000 3.856
91.68000 2.559
91.70000 5.432
91.72000 11.050
91.74000 5.418
91.76000 0.595
91.78000 -2.300
91.80000 0.198
91.82000 3.101
91.84000 7.271
91.86000 2.906
91.88000 3.808
91.90000 6.188
91.92000 3.015
91.94000 3.856
91.96000 1.444
91.98000 3.781
92.00000 2.594
92.02000 2.862
92.04000 5.899
92.06000 6.922
92.08000 9.535
92.10000 1.808
92.12000 4.244
92.14000 8.257
92.16000 13.399
92.18000 9.595
92.20000 2.573
92.22000 0.667
92.24000 2.432
92.26000 -1.026
92.28000 -0.171
92.30000 3.396
92.32000 5.037
92.34000 -0.412
92.36000 -1.092
92.38000 4.967
92.40000 8.952
92.42000 7.071
92.44000 2.742
92.46000 4.397
92.48000 8.912
92.50000 10.416
92.52000 8.485
92.54000 0.282
92.56000 7.739
92.58000 4.505
92.60000 4.862
92.62000 3.437
92.64000 -0.554
92.66000 0.683
92.68000 -0.440
92.70000 2.854
92.72000 7.710
92.74000 6.666
92.76000 6.103
92.78000 3.865
92.80000 3.951
92.82000 8.790
92.84000 8.641
92.86000 2.756
92.88000 4.033
92.90000 2.912
92.92000 0.687
92.94000 -2.293
92.96000 1.474
92.98000 2.273
93.00000 4.095
93.02000 5.451
93.04000 6.548
93.06000 5.691
93.08000 7.985
93.10000 7.922
93.12000 3.613
93.14000 2.637
93.16000 1.096
93.18000 3.108
93.20000 3.777
93.22000 4.672
93.24000 2.002
93.26000 4.771
93.28000 4.648
93.30000 6.917
93.32000 10.775
93.34000 9.437
93.36000 3.295
93.38000 4.475
93.40000 9.277
93.42000 3.817
93.44000 6.096
93.46000 8.206
93.48000 3.523
93.50000 4.414
93.52000 8.807
93.54000 5.867
93.56000 9.460
93.58000 8.801
93.60000 7.870
93.62000 8.397
93.64000 8.347
93.66000 7.032
93.68000 8.858
93.70000 8.763
93.72000 8.429
93.74000 4.510
93.76000 4.831
93.78000 13.515
93.80000 8.122
93.82000 4.540
93.84000 -2.220
93.86000 1.411
93.88000 5.995
93.90000 9.235
93.92000 12.877
93.94000 13.684
93.96000 12.161
93.98000 9.049
94.00000 6.539
94.02000 4.135
94.04000 6.393
94.06000 7.322
94.08000 9.611
94.10000 6.767
94.12000 7.284
94.14000 8.943
94.16000 7.874
94.18000 5.445
94.20000 6.607
94.22000 5.160
94.24000 7.133
94.26000 8.255
94.28000 8.578
94.30000 7.609
94.32000 10.894
94.34000 4.625
94.36000 6.331
94.38000 6.439
94.40000 4.648
94.42000 8.950
94.44000 11.236
94.46000 8.630
94.48000 9.739
94.50000 6.653
94.52000 3.000
94.54000 7.831
94.56000 6.207
94.58000 7.738
94.60000 5.004
94.62000 10.077
94.64000 14.879
94.66000 11.381
94.68000 6.459
94.70000 6.159
94.72000 -2.244
94.74000 3.445
94.76000 15.852
94.78000 19.961
94.80000 10.021
94.82000 6.570
94.84000 5.267
94.86000 6.419
94.88000 6.593
94.90000 6.549
94.92000 8.462
94.94000 5.230
94.96000 5.042
94.98000 4.630
95.00000 4.266
95.02000 4.858
95.04000 10.519
95.06000 4.677
95.08000 8.999
95.10000 4.389
95.12000 7.874
95.14000 3.809
95.16000 6.240
95.18000 8.733
95.20000 6.022
95.22000 7.308
95.24000 6.660
95.26000 5.984
95.28000 8.612
95.30000 3.975
95.32000 7.429
95.34000 6.092
95.36000 9.689
95.38000 12.716
95.40000 10.051
95.42000 7.709
95.44000 4.257
95.46000 1.724
95.48000 1.180
95.50000 2.616
95.52000 12.333
95.54000 12.042
95.56000 6.466
95.58000 4.212
95.60000 -0.299
95.62000 -2.283
95.64000 -0.049
95.66000 14.954
95.68000 9.676
95.70000 7.382
95.72000 6.887
95.74000 3.472
95.76000 0.253
95.78000 1.270
95.80000 0.494
95.82000 6.067
95.84000 7.339
95.86000 6.531
95.88000 12.225
95.90000 12.247
95.92000 4.069
95.94000 1.643
95.96000 6.495
95.98000 6.174
96.00000 5.271
96.02000 4.639
96.04000 6.389
96.06000 10.305
96.08000 1.313
96.10000 7.223
96.12000 9.725
96.14000 8.028
96.16000 3.222
96.18000 2.701
96.20000 7.056
96.22000 9.097
96.24000 9.086
96.26000 6.217
96.28000 6.569
96.30000 7.389
96.32000 0.898
96.34000 1.140
96.36000 5.566
96.38000 6.974
96.40000 4.165
96.42000 6.822
96.44000 5.025
96.46000 -2.266
96.48000 -0.661
96.50000 6.902
96.52000 8.791
96.54000 7.788
96.56000 8.825
96.58000 6.865
96.60000 8.095
96.62000 5.638
96.64000 6.481
96.66000 12.441
96.68000 14.608
96.70000 12.382
96.72000 5.454
96.74000 5.630
96.76000 -0.757
96.78000 -2.253
96.80000 1.591
96.82000 8.518
96.84000 4.680
96.86000 6.504
96.88000 7.296
96.90000 6.259
96.92000 6.104
96.94000 7.066
96.96000 8.098
96.98000 7.253
97.00000 7.715
97.02000 6.520
97.04000 11.085
97.06000 7.140
97.08000 10.773
97.10000 9.687
97.12000 4.203
97.14000 6.175
97.16000 9.187
97.18000 11.797
97.20000 3.461
97.22000 0.093
97.24000 5.396
97.26000 2.391
97.28000 4.303
97.30000 1.194
97.32000 7.768
97.34000 7.404
97.36000 9.951
97.38000 14.139
97.40000 4.729
97.42000 4.757
97.44000 5.225
97.46000 2.046
97.48000 4.171
97.50000 6.151
97.52000 10.753
97.54000 10.896
97.56000 13.646
97.58000 10.864
97.60000 4.154
97.62000 -0.876
97.64000 4.850
97.66000 3.903
97.68000 -2.904
97.70000 7.611
97.72000 9.744
97.74000 9.523
97.76000 7.906
97.78000 6.674
97.80000 1.225
97.82000 -2.256
97.84000 5.133
97.86000 2.899
97.88000 8.843
97.90000 8.485
97.92000 4.922
97.94000 6.312
97.96000 7.911
97.98000 5.434
98.00000 8.873
98.02000 1.416
98.04000 8.578
98.06000 6.483
98.08000 2.732
98.10000 7.437
98.12000 7.372
98.14000 5.942
98.16000 9.618
98.18000 9.382
98.20000 3.165
98.22000 9.483
98.24000 3.568
98.26000 2.311
98.28000 7.663
98.30000 3.469
98.32000 2.988
98.34000 8.973
98.36000 4.570
98.38000 4.228
98.40000 -1.870
98.42000 -0.388
98.44000 -0.183
98.46000 1.225
98.48000 12.172
98.50000 10.676
98.52000 13.328
98.54000 8.053
98.56000 5.016
98.58000 -0.232
98.60000 4.134
98.62000 10.998
98.64000 4.097
98.66000 1.475
98.68000 11.324
98.70000 10.059
98.72000 3.286
98.74000 0.096
98.76000 8.632
98.78000 10.396
98.80000 12.382
98.82000 12.998
98.84000 5.191
98.86000 2.906
98.88000 9.063
98.90000 2.105
98.92000 8.811
98.94000 9.357
98.96000 5.587
98.98000 -0.102
99.00000 -0.390
99.02000 -1.015
99.04000 -1.385
99.06000 4.548
99.08000 7.799
99.10000 0.221
99.12000 9.808
99.14000 13.357
99.16000 15.706
99.18000 5.114
99.20000 3.358
99.22000 1.919
99.24000 1.987
99.26000 0.500
99.28000 0.202
99.30000 2.432
99.32000 -2.229
99.34000 1.314
99.36000 1.403
99.38000 3.265
99.40000 3.471
99.42000 4.657
99.44000 11.601
99.46000 19.854
99.48000 20.936
99.50000 10.139
99.52000 12.701
99.54000 7.389
99.56000 10.623
99.58000 4.458
99.60000 2.219
99.62000 13.714
99.64000 15.044
99.66000 18.240
99.68000 6.653
99.70000 8.766
99.72000 7.436
99.74000 1.793
99.76000 8.020
99.78000 11.998
99.80000 11.338
99.82000 13.781
99.84000 3.772
99.86000 -2.261
99.88000 -2.267
99.90000 8.785
99.92000 7.002
99.94000 3.289
99.96000 -2.398
99.98000 0.000
