'Id: "0011388" Comment: "Integrate frame 0011388_Au-Ir-Rh_Rh-rich_XRD-Mapping-118-0000.gfrmwith cursor Wedge Cursor #5" Operator: "B?rgel" Anode: "Cu" Wavelength: "1.5406" Scantype: "2Theta (TwoTheta)" TimePerStep: "1" X: "-31.5" Y: "-9" Z: "5.95" 
10.00000 0.000
10.02000 -4.277
10.04000 -0.429
10.06000 28.170
10.08000 35.312
10.10000 26.739
10.12000 31.433
10.14000 24.381
10.16000 28.323
10.18000 25.308
10.20000 16.435
10.22000 7.411
10.24000 21.781
10.26000 22.107
10.28000 24.215
10.30000 24.766
10.32000 20.622
10.34000 25.310
10.36000 23.547
10.38000 23.612
10.40000 26.902
10.42000 23.865
10.44000 24.735
10.46000 25.807
10.48000 17.081
10.50000 22.747
10.52000 25.286
10.54000 26.965
10.56000 15.220
10.58000 23.951
10.60000 32.988
10.62000 19.158
10.64000 17.169
10.66000 23.248
10.68000 15.919
10.70000 16.413
10.72000 13.557
10.74000 30.926
10.76000 37.464
10.78000 31.990
10.80000 19.617
10.82000 16.416
10.84000 25.539
10.86000 20.713
10.88000 18.638
10.90000 25.644
10.92000 10.233
10.94000 5.855
10.96000 25.359
10.98000 13.807
11.00000 8.502
11.02000 17.477
11.04000 21.597
11.06000 18.518
11.08000 26.917
11.10000 17.919
11.12000 13.990
11.14000 16.298
11.16000 16.455
11.18000 20.474
11.20000 10.740
11.22000 14.326
11.24000 17.349
11.26000 14.122
11.28000 8.549
11.30000 -1.622
11.32000 20.515
11.34000 16.138
11.36000 15.024
11.38000 7.980
11.40000 10.296
11.42000 7.982
11.44000 -3.638
11.46000 -0.438
11.48000 16.441
11.50000 19.659
11.52000 22.693
11.54000 21.722
11.56000 18.964
11.58000 10.390
11.60000 12.275
11.62000 16.248
11.64000 11.009
11.66000 15.540
11.68000 7.863
11.70000 7.036
11.72000 8.235
11.74000 10.066
11.76000 2.060
11.78000 1.328
11.80000 5.685
11.82000 -0.807
11.84000 -2.246
11.86000 3.595
11.88000 5.150
11.90000 5.185
11.92000 5.535
11.94000 11.295
11.96000 5.382
11.98000 8.114
12.00000 9.002
12.02000 13.115
12.04000 21.411
12.06000 25.819
12.08000 11.009
12.10000 0.859
12.12000 6.878
12.14000 16.191
12.16000 21.593
12.18000 12.122
12.20000 19.453
12.22000 18.504
12.24000 11.374
12.26000 3.985
12.28000 5.451
12.30000 1.904
12.32000 4.995
12.34000 4.311
12.36000 3.415
12.38000 7.597
12.40000 19.844
12.42000 16.486
12.44000 24.769
12.46000 19.203
12.48000 14.081
12.50000 16.694
12.52000 8.636
12.54000 19.743
12.56000 23.052
12.58000 16.823
12.60000 2.123
12.62000 6.267
12.64000 7.483
12.66000 1.602
12.68000 11.945
12.70000 12.887
12.72000 18.223
12.74000 12.073
12.76000 10.358
12.78000 9.066
12.80000 6.970
12.82000 9.021
12.84000 15.219
12.86000 8.846
12.88000 9.629
12.90000 7.767
12.92000 14.384
12.94000 14.230
12.96000 11.729
12.98000 16.764
13.00000 6.000
13.02000 9.086
13.04000 7.787
13.06000 13.070
13.08000 19.374
13.10000 7.072
13.12000 7.311
13.14000 12.888
13.16000 7.439
13.18000 9.241
13.20000 16.636
13.22000 16.166
13.24000 7.947
13.26000 0.728
13.28000 3.034
13.30000 2.382
13.32000 9.264
13.34000 5.120
13.36000 3.943
13.38000 13.456
13.40000 10.642
13.42000 11.171
13.44000 5.343
13.46000 8.158
13.48000 7.431
13.50000 4.192
13.52000 -1.090
13.54000 1.088
13.56000 6.452
13.58000 11.041
13.60000 -0.404
13.62000 -4.485
13.64000 13.627
13.66000 11.918
13.68000 6.081
13.70000 1.743
13.72000 -0.007
13.74000 3.759
13.76000 1.809
13.78000 2.273
13.80000 0.758
13.82000 1.617
13.84000 3.387
13.86000 9.257
13.88000 3.669
13.90000 15.292
13.92000 10.250
13.94000 9.428
13.96000 12.616
13.98000 5.407
14.00000 8.974
14.02000 5.558
14.04000 8.859
14.06000 12.801
14.08000 12.929
14.10000 16.302
14.12000 15.065
14.14000 8.295
14.16000 8.275
14.18000 14.336
14.20000 17.583
14.22000 8.512
14.24000 1.720
14.26000 9.744
14.28000 6.135
14.30000 3.027
14.32000 1.447
14.34000 6.755
14.36000 8.194
14.38000 2.845
14.40000 10.684
14.42000 12.093
14.44000 11.698
14.46000 11.332
14.48000 7.008
14.50000 3.455
14.52000 9.111
14.54000 1.672
14.56000 3.572
14.58000 0.819
14.60000 2.967
14.62000 10.517
14.64000 10.611
14.66000 7.920
14.68000 7.520
14.70000 5.829
14.72000 2.593
14.74000 7.425
14.76000 8.927
14.78000 9.355
14.80000 12.517
14.82000 10.350
14.84000 11.079
14.86000 10.383
14.88000 14.402
14.90000 11.958
14.92000 3.397
14.94000 2.484
14.96000 -0.467
14.98000 0.976
15.00000 8.166
15.02000 8.446
15.04000 1.369
15.06000 -0.612
15.08000 9.854
15.10000 -2.793
15.12000 1.403
15.14000 -1.122
15.16000 -1.025
15.18000 4.620
15.20000 7.073
15.22000 7.421
15.24000 -2.841
15.26000 3.156
15.28000 5.831
15.30000 2.669
15.32000 0.708
15.34000 6.830
15.36000 10.167
15.38000 7.415
15.40000 1.802
15.42000 4.867
15.44000 10.477
15.46000 18.556
15.48000 5.809
15.50000 4.125
15.52000 6.038
15.54000 5.135
15.56000 -4.085
15.58000 2.682
15.60000 7.428
15.62000 7.428
15.64000 1.192
15.66000 3.034
15.68000 5.066
15.70000 5.298
15.72000 6.061
15.74000 5.893
15.76000 3.543
15.78000 7.176
15.80000 6.405
15.82000 12.432
15.84000 17.640
15.86000 4.760
15.88000 4.710
15.90000 2.911
15.92000 4.172
15.94000 17.264
15.96000 15.731
15.98000 9.905
16.00000 1.467
16.02000 -4.412
16.04000 8.484
16.06000 15.604
16.08000 10.314
16.10000 -1.372
16.12000 6.801
16.14000 3.486
16.16000 5.072
16.18000 6.396
16.20000 6.807
16.22000 -1.626
16.24000 -3.805
16.26000 4.215
16.28000 7.312
16.30000 3.238
16.32000 2.082
16.34000 7.813
16.36000 5.231
16.38000 3.676
16.40000 2.445
16.42000 9.787
16.44000 5.638
16.46000 10.249
16.48000 12.275
16.50000 9.463
16.52000 8.368
16.54000 9.203
16.56000 -2.293
16.58000 -0.213
16.60000 7.823
16.62000 11.495
16.64000 12.579
16.66000 4.645
16.68000 0.502
16.70000 9.262
16.72000 0.130
16.74000 1.661
16.76000 10.195
16.78000 14.937
16.80000 8.738
16.82000 0.685
16.84000 -2.244
16.86000 5.544
16.88000 5.393
16.90000 9.113
16.92000 5.948
16.94000 7.093
16.96000 9.838
16.98000 9.977
17.00000 13.988
17.02000 9.987
17.04000 11.427
17.06000 9.402
17.08000 10.704
17.10000 3.302
17.12000 -1.438
17.14000 4.786
17.16000 3.400
17.18000 0.558
17.20000 -2.731
17.22000 -3.419
17.24000 7.767
17.26000 17.272
17.28000 9.520
17.30000 8.925
17.32000 12.588
17.34000 10.020
17.36000 1.932
17.38000 0.031
17.40000 4.763
17.42000 6.121
17.44000 -0.162
17.46000 -0.214
17.48000 4.344
17.50000 10.254
17.52000 11.234
17.54000 12.870
17.56000 8.616
17.58000 4.104
17.60000 5.746
17.62000 5.111
17.64000 2.077
17.66000 7.406
17.68000 13.569
17.70000 12.806
17.72000 15.123
17.74000 9.581
17.76000 4.630
17.78000 0.642
17.80000 -1.499
17.82000 -4.318
17.84000 -1.931
17.86000 6.626
17.88000 7.116
17.90000 5.449
17.92000 5.175
17.94000 2.648
17.96000 12.161
17.98000 0.673
18.00000 2.511
18.02000 6.654
18.04000 9.111
18.06000 6.651
18.08000 0.553
18.10000 3.311
18.12000 7.022
18.14000 9.107
18.16000 9.962
18.18000 10.829
18.20000 3.150
18.22000 2.420
18.24000 7.215
18.26000 6.240
18.28000 -0.815
18.30000 -3.808
18.32000 2.286
18.34000 5.644
18.36000 6.789
18.38000 5.705
18.40000 3.411
18.42000 8.403
18.44000 3.627
18.46000 6.673
18.48000 6.495
18.50000 7.132
18.52000 2.213
18.54000 -0.979
18.56000 0.849
18.58000 -0.712
18.60000 7.780
18.62000 9.833
18.64000 4.876
18.66000 5.403
18.68000 9.025
18.70000 4.302
18.72000 2.502
18.74000 -3.951
18.76000 -0.069
18.78000 -0.206
18.80000 0.842
18.82000 2.470
18.84000 -1.430
18.86000 0.418
18.88000 5.455
18.90000 -0.559
18.92000 -1.377
18.94000 -4.004
18.96000 3.136
18.98000 4.305
19.00000 4.198
19.02000 11.770
19.04000 9.489
19.06000 -2.025
19.08000 -4.279
19.10000 2.182
19.12000 3.102
19.14000 4.508
19.16000 3.085
19.18000 3.256
19.20000 8.400
19.22000 7.691
19.24000 6.536
19.26000 9.984
19.28000 6.152
19.30000 5.610
19.32000 2.290
19.34000 4.022
19.36000 3.378
19.38000 1.944
19.40000 0.355
19.42000 5.668
19.44000 2.700
19.46000 -4.254
19.48000 0.734
19.50000 6.669
19.52000 5.674
19.54000 -0.482
19.56000 -3.820
19.58000 4.769
19.60000 6.123
19.62000 4.573
19.64000 -0.352
19.66000 5.085
19.68000 4.003
19.70000 5.881
19.72000 8.571
19.74000 4.758
19.76000 2.645
19.78000 5.951
19.80000 10.027
19.82000 2.264
19.84000 -2.341
19.86000 0.889
19.88000 2.182
19.90000 -2.614
19.92000 1.175
19.94000 -1.128
19.96000 -2.691
19.98000 -2.376
20.00000 1.859
20.02000 1.585
20.04000 8.688
20.06000 6.479
20.08000 1.943
20.10000 1.910
20.12000 4.678
20.14000 3.927
20.16000 2.915
20.18000 1.422
20.20000 3.359
20.22000 6.748
20.24000 11.153
20.26000 7.326
20.28000 10.366
20.30000 14.294
20.32000 12.031
20.34000 -1.081
20.36000 -0.558
20.38000 -1.117
20.40000 -4.185
20.42000 0.651
20.44000 4.249
20.46000 -3.330
20.48000 4.660
20.50000 2.499
20.52000 1.622
20.54000 -2.295
20.56000 3.864
20.58000 3.188
20.60000 0.651
20.62000 6.607
20.64000 4.588
20.66000 8.632
20.68000 7.883
20.70000 9.297
20.72000 4.847
20.74000 11.627
20.76000 11.284
20.78000 9.277
20.80000 7.550
20.82000 3.760
20.84000 5.566
20.86000 5.528
20.88000 4.798
20.90000 4.159
20.92000 5.645
20.94000 5.631
20.96000 2.731
20.98000 0.786
21.00000 -2.886
21.02000 1.091
21.04000 6.373
21.06000 0.823
21.08000 3.190
21.10000 10.312
21.12000 8.820
21.14000 7.955
21.16000 9.533
21.18000 6.005
21.20000 0.231
21.22000 2.070
21.24000 6.570
21.26000 6.703
21.28000 6.239
21.30000 5.862
21.32000 -1.153
21.34000 -0.033
21.36000 5.856
21.38000 -2.849
21.40000 -2.195
21.42000 -2.548
21.44000 -4.150
21.46000 -0.266
21.48000 2.516
21.50000 3.441
21.52000 0.765
21.54000 2.012
21.56000 2.720
21.58000 2.091
21.60000 0.697
21.62000 -0.782
21.64000 3.322
21.66000 1.388
21.68000 0.981
21.70000 4.457
21.72000 3.683
21.74000 2.169
21.76000 7.828
21.78000 3.910
21.80000 -2.460
21.82000 -0.907
21.84000 -3.138
21.86000 -1.855
21.88000 7.004
21.90000 4.726
21.92000 0.649
21.94000 3.407
21.96000 4.317
21.98000 2.966
22.00000 3.967
22.02000 4.715
22.04000 6.313
22.06000 6.303
22.08000 3.222
22.10000 5.350
22.12000 5.056
22.14000 6.341
22.16000 5.596
22.18000 3.844
22.20000 1.232
22.22000 3.023
22.24000 1.134
22.26000 -0.153
22.28000 9.059
22.30000 7.442
22.32000 2.989
22.34000 -4.090
22.36000 -0.565
22.38000 -1.313
22.40000 1.768
22.42000 6.304
22.44000 4.862
22.46000 -0.998
22.48000 3.588
22.50000 4.465
22.52000 2.908
22.54000 1.481
22.56000 -0.571
22.58000 -2.206
22.60000 -0.633
22.62000 4.027
22.64000 2.960
22.66000 5.538
22.68000 3.569
22.70000 -0.905
22.72000 -0.548
22.74000 6.197
22.76000 7.219
22.78000 5.710
22.80000 4.830
22.82000 9.570
22.84000 9.367
22.86000 1.627
22.88000 2.054
22.90000 2.641
22.92000 5.361
22.94000 8.564
22.96000 5.333
22.98000 11.069
23.00000 13.241
23.02000 8.473
23.04000 1.250
23.06000 -0.514
23.08000 0.375
23.10000 3.058
23.12000 7.450
23.14000 2.047
23.16000 0.358
23.18000 5.461
23.20000 6.917
23.22000 6.443
23.24000 4.640
23.26000 7.663
23.28000 11.672
23.30000 6.445
23.32000 6.219
23.34000 3.888
23.36000 5.124
23.38000 9.316
23.40000 8.095
23.42000 3.520
23.44000 5.242
23.46000 3.697
23.48000 1.626
23.50000 1.982
23.52000 3.525
23.54000 3.520
23.56000 0.566
23.58000 0.628
23.60000 -4.020
23.62000 -2.783
23.64000 -1.222
23.66000 4.378
23.68000 9.077
23.70000 6.564
23.72000 6.149
23.74000 5.687
23.76000 6.688
23.78000 8.103
23.80000 9.318
23.82000 9.264
23.84000 0.761
23.86000 3.218
23.88000 0.597
23.90000 4.569
23.92000 6.039
23.94000 6.560
23.96000 -1.708
23.98000 3.205
24.00000 5.705
24.02000 2.359
24.04000 6.448
24.06000 3.214
24.08000 0.984
24.10000 0.730
24.12000 -1.992
24.14000 4.088
24.16000 1.923
24.18000 0.122
24.20000 3.823
24.22000 3.323
24.24000 3.671
24.26000 6.567
24.28000 6.662
24.30000 5.015
24.32000 0.688
24.34000 6.543
24.36000 2.038
24.38000 3.052
24.40000 4.458
24.42000 3.450
24.44000 3.005
24.46000 -0.900
24.48000 -3.978
24.50000 2.124
24.52000 10.868
24.54000 6.119
24.56000 2.870
24.58000 -0.168
24.60000 3.835
24.62000 2.295
24.64000 -1.601
24.66000 0.481
24.68000 0.515
24.70000 0.600
24.72000 0.212
24.74000 4.682
24.76000 5.600
24.78000 7.555
24.80000 4.842
24.82000 1.605
24.84000 1.282
24.86000 7.123
24.88000 7.902
24.90000 1.359
24.92000 3.368
24.94000 5.121
24.96000 4.832
24.98000 2.368
25.00000 2.418
25.02000 5.134
25.04000 4.559
25.06000 0.600
25.08000 -0.015
25.10000 2.988
25.12000 5.089
25.14000 -0.607
25.16000 -1.227
25.18000 -3.088
25.20000 3.258
25.22000 6.875
25.24000 5.953
25.26000 2.100
25.28000 3.336
25.30000 2.962
25.32000 1.582
25.34000 3.563
25.36000 0.572
25.38000 2.214
25.40000 5.194
25.42000 2.196
25.44000 -0.150
25.46000 4.510
25.48000 8.224
25.50000 0.085
25.52000 2.174
25.54000 2.355
25.56000 5.534
25.58000 4.496
25.60000 2.171
25.62000 2.522
25.64000 4.389
25.66000 5.170
25.68000 4.898
25.70000 2.271
25.72000 2.863
25.74000 2.605
25.76000 -1.311
25.78000 -3.882
25.80000 3.219
25.82000 7.380
25.84000 -0.011
25.86000 -0.492
25.88000 0.678
25.90000 5.812
25.92000 7.334
25.94000 7.875
25.96000 2.687
25.98000 2.888
26.00000 1.178
26.02000 0.765
26.04000 -0.052
26.06000 6.055
26.08000 3.415
26.10000 -2.677
26.12000 -0.575
26.14000 1.593
26.16000 -0.334
26.18000 5.707
26.20000 6.923
26.22000 7.753
26.24000 6.013
26.26000 3.488
26.28000 3.921
26.30000 -3.869
26.32000 2.116
26.34000 1.524
26.36000 -1.864
26.38000 -0.566
26.40000 5.080
26.42000 0.927
26.44000 -1.334
26.46000 -1.720
26.48000 5.073
26.50000 8.128
26.52000 4.405
26.54000 1.411
26.56000 2.385
26.58000 2.147
26.60000 9.343
26.62000 12.172
26.64000 8.697
26.66000 0.572
26.68000 1.417
26.70000 4.373
26.72000 4.157
26.74000 1.663
26.76000 2.717
26.78000 7.854
26.80000 9.127
26.82000 5.259
26.84000 4.644
26.86000 0.476
26.88000 2.494
26.90000 0.527
26.92000 5.916
26.94000 5.886
26.96000 6.500
26.98000 3.755
27.00000 6.679
27.02000 3.606
27.04000 3.583
27.06000 7.487
27.08000 4.153
27.10000 2.104
27.12000 4.886
27.14000 -2.154
27.16000 6.754
27.18000 1.687
27.20000 4.096
27.22000 5.028
27.24000 0.687
27.26000 2.777
27.28000 3.820
27.30000 1.512
27.32000 5.663
27.34000 3.604
27.36000 8.913
27.38000 4.080
27.40000 0.167
27.42000 -2.596
27.44000 3.536
27.46000 6.788
27.48000 0.086
27.50000 0.694
27.52000 0.468
27.54000 3.778
27.56000 1.739
27.58000 6.380
27.60000 0.782
27.62000 3.468
27.64000 7.353
27.66000 4.823
27.68000 2.864
27.70000 0.655
27.72000 0.530
27.74000 3.501
27.76000 2.330
27.78000 -3.796
27.80000 -1.821
27.82000 3.807
27.84000 4.836
27.86000 -0.078
27.88000 1.451
27.90000 0.152
27.92000 2.033
27.94000 1.607
27.96000 0.655
27.98000 0.499
28.00000 4.673
28.02000 7.465
28.04000 -0.651
28.06000 4.194
28.08000 2.534
28.10000 6.423
28.12000 9.094
28.14000 6.562
28.16000 4.700
28.18000 -0.391
28.20000 1.027
28.22000 1.121
28.24000 3.273
28.26000 5.363
28.28000 3.022
28.30000 -2.333
28.32000 0.550
28.34000 6.950
28.36000 1.353
28.38000 3.322
28.40000 7.296
28.42000 2.402
28.44000 3.198
28.46000 7.534
28.48000 0.223
28.50000 1.963
28.52000 8.271
28.54000 0.776
28.56000 1.662
28.58000 0.364
28.60000 -2.397
28.62000 -3.712
28.64000 1.036
28.66000 -2.084
28.68000 1.396
28.70000 6.831
28.72000 2.547
28.74000 4.281
28.76000 8.208
28.78000 3.087
28.80000 -0.264
28.82000 1.767
28.84000 7.130
28.86000 2.991
28.88000 9.243
28.90000 9.223
28.92000 5.589
28.94000 6.221
28.96000 7.095
28.98000 2.446
29.00000 3.071
29.02000 1.521
29.04000 4.381
29.06000 3.347
29.08000 4.610
29.10000 5.172
29.12000 4.558
29.14000 -3.622
29.16000 -1.324
29.18000 0.594
29.20000 5.479
29.22000 8.760
29.24000 3.854
29.26000 8.775
29.28000 4.966
29.30000 0.780
29.32000 -3.468
29.34000 1.937
29.36000 5.114
29.38000 4.974
29.40000 2.633
29.42000 1.059
29.44000 2.130
29.46000 2.644
29.48000 5.579
29.50000 7.980
29.52000 4.068
29.54000 4.103
29.56000 5.567
29.58000 6.601
29.60000 1.157
29.62000 0.614
29.64000 0.587
29.66000 3.052
29.68000 7.094
29.70000 -0.269
29.72000 -3.674
29.74000 -3.390
29.76000 1.886
29.78000 0.658
29.80000 -0.834
29.82000 1.166
29.84000 4.257
29.86000 5.229
29.88000 0.590
29.90000 1.951
29.92000 -0.286
29.94000 0.311
29.96000 3.434
29.98000 2.756
30.00000 -3.662
30.02000 0.937
30.04000 2.952
30.06000 1.368
30.08000 4.901
30.10000 4.143
30.12000 1.535
30.14000 2.641
30.16000 6.098
30.18000 0.533
30.20000 0.416
30.22000 1.802
30.24000 2.967
30.26000 5.976
30.28000 6.511
30.30000 6.940
30.32000 7.719
30.34000 7.852
30.36000 4.290
30.38000 5.065
30.40000 4.386
30.42000 2.739
30.44000 2.924
30.46000 0.256
30.48000 1.879
30.50000 -3.636
30.52000 -2.102
30.54000 1.797
30.56000 2.149
30.58000 0.419
30.60000 1.644
30.62000 4.443
30.64000 3.652
30.66000 2.926
30.68000 5.083
30.70000 2.148
30.72000 1.051
30.74000 5.821
30.76000 4.863
30.78000 2.838
30.80000 3.694
30.82000 1.164
30.84000 2.479
30.86000 -0.246
30.88000 4.259
30.90000 7.363
30.92000 11.301
30.94000 6.208
30.96000 1.940
30.98000 0.209
31.00000 -0.340
31.02000 -0.652
31.04000 3.344
31.06000 2.947
31.08000 3.929
31.10000 5.082
31.12000 4.195
31.14000 4.390
31.16000 1.280
31.18000 1.754
31.20000 3.370
31.22000 2.050
31.24000 7.389
31.26000 -0.551
31.28000 4.752
31.30000 3.014
31.32000 3.554
31.34000 2.123
31.36000 -0.658
31.38000 -1.447
31.40000 -2.737
31.42000 0.700
31.44000 0.794
31.46000 -2.548
31.48000 3.681
31.50000 6.549
31.52000 2.781
31.54000 2.475
31.56000 3.920
31.58000 4.107
31.60000 4.898
31.62000 1.335
31.64000 5.577
31.66000 3.155
31.68000 0.507
31.70000 -1.089
31.72000 -0.056
31.74000 0.450
31.76000 -1.875
31.78000 0.587
31.80000 -0.200
31.82000 4.505
31.84000 6.071
31.86000 3.672
31.88000 2.035
31.90000 1.595
31.92000 1.220
31.94000 1.027
31.96000 3.362
31.98000 0.436
32.00000 4.205
32.02000 3.685
32.04000 -3.581
32.06000 1.439
32.08000 8.679
32.10000 11.502
32.12000 2.636
32.14000 -3.442
32.16000 0.004
32.18000 -2.146
32.20000 1.989
32.22000 8.469
32.24000 6.745
32.26000 8.966
32.28000 3.796
32.30000 0.194
32.32000 4.362
32.34000 6.135
32.36000 5.124
32.38000 2.836
32.40000 0.096
32.42000 -3.569
32.44000 -1.343
32.46000 5.668
32.48000 10.242
32.50000 8.022
32.52000 3.350
32.54000 2.464
32.56000 2.442
32.58000 5.518
32.60000 4.972
32.62000 0.245
32.64000 1.449
32.66000 -1.927
32.68000 -3.558
32.70000 0.176
32.72000 4.727
32.74000 3.646
32.76000 6.361
32.78000 7.154
32.80000 0.152
32.82000 0.483
32.84000 4.336
32.86000 3.114
32.88000 1.155
32.90000 1.122
32.92000 3.056
32.94000 2.512
32.96000 1.936
32.98000 4.142
33.00000 1.696
33.02000 0.687
33.04000 1.579
33.06000 1.951
33.08000 1.683
33.10000 6.884
33.12000 3.823
33.14000 4.036
33.16000 0.726
33.18000 -2.702
33.20000 1.296
33.22000 0.489
33.24000 1.567
33.26000 1.408
33.28000 2.411
33.30000 4.319
33.32000 2.760
33.34000 0.952
33.36000 1.016
33.38000 4.444
33.40000 -0.270
33.42000 3.563
33.44000 5.059
33.46000 8.854
33.48000 6.884
33.50000 2.297
33.52000 -0.465
33.54000 -3.560
33.56000 2.038
33.58000 -3.144
33.60000 -3.148
33.62000 0.805
33.64000 3.472
33.66000 5.165
33.68000 -0.756
33.70000 3.991
33.72000 1.138
33.74000 1.611
33.76000 2.441
33.78000 3.134
33.80000 9.520
33.82000 4.503
33.84000 3.178
33.86000 1.344
33.88000 0.769
33.90000 0.752
33.92000 -0.802
33.94000 -0.161
33.96000 -1.498
33.98000 2.761
34.00000 3.145
34.02000 8.023
34.04000 4.596
34.06000 4.066
34.08000 2.424
34.10000 3.765
34.12000 2.083
34.14000 0.809
34.16000 1.596
34.18000 3.344
34.20000 0.727
34.22000 6.554
34.24000 4.243
34.26000 6.570
34.28000 10.086
34.30000 5.888
34.32000 3.675
34.34000 3.547
34.36000 -1.440
34.38000 -3.534
34.40000 -1.215
34.42000 -0.977
34.44000 -0.490
34.46000 3.137
34.48000 2.742
34.50000 2.355
34.52000 3.690
34.54000 3.248
34.56000 2.893
34.58000 -2.793
34.60000 -2.556
34.62000 2.273
34.64000 2.320
34.66000 0.797
34.68000 0.871
34.70000 2.126
34.72000 4.337
34.74000 8.336
34.76000 0.718
34.78000 1.822
34.80000 4.235
34.82000 3.502
34.84000 -0.165
34.86000 0.140
34.88000 1.367
34.90000 -1.120
34.92000 1.611
34.94000 1.237
34.96000 4.619
34.98000 1.334
35.00000 -0.043
35.02000 2.449
35.04000 2.688
35.06000 1.873
35.08000 1.913
35.10000 1.979
35.12000 1.100
35.14000 -3.524
35.16000 1.644
35.18000 0.864
35.20000 -3.137
35.22000 0.737
35.24000 -0.291
35.26000 0.192
35.28000 4.084
35.30000 -1.507
35.32000 -1.150
35.34000 4.511
35.36000 2.843
35.38000 3.708
35.40000 1.962
35.42000 -1.636
35.44000 -2.951
35.46000 2.035
35.48000 -0.057
35.50000 -1.887
35.52000 -3.444
35.54000 -0.002
35.56000 -0.550
35.58000 3.626
35.60000 3.870
35.62000 1.413
35.64000 -3.202
35.66000 1.507
35.68000 1.486
35.70000 -0.846
35.72000 1.717
35.74000 1.333
35.76000 -1.522
35.78000 -2.493
35.80000 -2.775
35.82000 1.642
35.84000 1.593
35.86000 0.560
35.88000 -1.489
35.90000 -2.354
35.92000 -3.524
35.94000 1.607
35.96000 5.443
35.98000 4.125
36.00000 0.053
36.02000 -0.337
36.04000 0.441
36.06000 7.831
36.08000 0.335
36.10000 1.571
36.12000 3.350
36.14000 -2.379
36.16000 -2.731
36.18000 -3.250
36.20000 -1.129
36.22000 -2.849
36.24000 -1.327
36.26000 1.083
36.28000 -0.863
36.30000 1.435
36.32000 -0.371
36.34000 -0.998
36.36000 -1.577
36.38000 3.613
36.40000 1.220
36.42000 -1.985
36.44000 1.155
36.46000 1.694
36.48000 1.578
36.50000 2.215
36.52000 1.669
36.54000 2.093
36.56000 -1.238
36.58000 -0.161
36.60000 2.856
36.62000 1.949
36.64000 -3.515
36.66000 -1.730
36.68000 3.992
36.70000 5.438
36.72000 8.686
36.74000 5.130
36.76000 3.796
36.78000 0.571
36.80000 1.675
36.82000 -1.478
36.84000 0.256
36.86000 2.789
36.88000 2.838
36.90000 6.574
36.92000 2.750
36.94000 -1.086
36.96000 5.114
36.98000 5.277
37.00000 3.113
37.02000 0.527
37.04000 3.128
37.06000 3.117
37.08000 7.825
37.10000 6.087
37.12000 3.810
37.14000 4.177
37.16000 3.133
37.18000 1.724
37.20000 3.851
37.22000 9.167
37.24000 2.816
37.26000 1.588
37.28000 2.380
37.30000 5.388
37.32000 7.111
37.34000 2.215
37.36000 1.222
37.38000 3.047
37.40000 0.475
37.42000 2.959
37.44000 -1.192
37.46000 -3.539
37.48000 -3.147
37.50000 2.853
37.52000 4.172
37.54000 1.878
37.56000 4.638
37.58000 4.053
37.60000 8.564
37.62000 10.649
37.64000 4.975
37.66000 2.144
37.68000 7.539
37.70000 5.027
37.72000 5.081
37.74000 3.053
37.76000 5.383
37.78000 11.167
37.80000 10.460
37.82000 2.347
37.84000 1.830
37.86000 5.407
37.88000 12.942
37.90000 15.892
37.92000 14.419
37.94000 12.678
37.96000 11.494
37.98000 8.567
38.00000 12.231
38.02000 12.459
38.04000 14.350
38.06000 9.703
38.08000 9.321
38.10000 11.510
38.12000 9.598
38.14000 7.603
38.16000 8.778
38.18000 12.548
38.20000 16.051
38.22000 14.336
38.24000 15.309
38.26000 14.263
38.28000 14.915
38.30000 19.360
38.32000 18.563
38.34000 18.381
38.36000 15.304
38.38000 17.768
38.40000 21.484
38.42000 21.900
38.44000 19.275
38.46000 18.568
38.48000 18.575
38.50000 17.796
38.52000 20.772
38.54000 21.613
38.56000 20.536
38.58000 20.981
38.60000 25.547
38.62000 23.193
38.64000 22.579
38.66000 25.952
38.68000 26.404
38.70000 25.489
38.72000 29.919
38.74000 27.254
38.76000 24.811
38.78000 27.744
38.80000 25.299
38.82000 23.916
38.84000 28.267
38.86000 31.425
38.88000 33.321
38.90000 32.508
38.92000 34.104
38.94000 31.459
38.96000 36.146
38.98000 38.503
39.00000 44.043
39.02000 45.867
39.04000 42.623
39.06000 44.509
39.08000 38.149
39.10000 42.431
39.12000 46.709
39.14000 51.646
39.16000 54.076
39.18000 60.823
39.20000 60.588
39.22000 58.968
39.24000 62.273
39.26000 61.403
39.28000 59.327
39.30000 64.080
39.32000 74.516
39.34000 74.097
39.36000 74.251
39.38000 83.250
39.40000 89.171
39.42000 92.812
39.44000 92.732
39.46000 95.169
39.48000 99.538
39.50000 101.428
39.52000 111.109
39.54000 114.960
39.56000 113.376
39.58000 129.320
39.60000 135.991
39.62000 147.054
39.64000 156.394
39.66000 160.581
39.68000 165.198
39.70000 177.055
39.72000 182.550
39.74000 185.146
39.76000 193.417
39.78000 202.600
39.80000 216.434
39.82000 229.708
39.84000 241.675
39.86000 255.848
39.88000 277.902
39.90000 297.154
39.92000 305.796
39.94000 312.814
39.96000 324.020
39.98000 330.313
40.00000 343.108
40.02000 368.744
40.04000 384.420
40.06000 396.393
40.08000 421.114
40.10000 439.819
40.12000 453.016
40.14000 467.851
40.16000 478.098
40.18000 483.079
40.20000 503.533
40.22000 520.344
40.24000 528.721
40.26000 534.320
40.28000 544.247
40.30000 558.660
40.32000 560.868
40.34000 561.223
40.36000 566.876
40.38000 570.309
40.40000 575.076
40.42000 587.084
40.44000 582.348
40.46000 574.300
40.48000 579.307
40.50000 565.344
40.52000 556.108
40.54000 541.422
40.56000 537.646
40.58000 518.817
40.60000 516.484
40.62000 517.418
40.64000 498.815
40.66000 475.347
40.68000 456.284
40.70000 445.846
40.72000 420.872
40.74000 403.565
40.76000 397.289
40.78000 385.214
40.80000 368.609
40.82000 345.685
40.84000 323.238
40.86000 307.993
40.88000 294.904
40.90000 287.824
40.92000 268.905
40.94000 250.304
40.96000 239.037
40.98000 230.097
41.00000 220.149
41.02000 205.690
41.04000 188.377
41.06000 175.928
41.08000 173.162
41.10000 170.499
41.12000 165.368
41.14000 145.813
41.16000 136.468
41.18000 133.979
41.20000 127.654
41.22000 115.325
41.24000 112.564
41.26000 107.078
41.28000 99.632
41.30000 92.365
41.32000 90.409
41.34000 88.511
41.36000 80.790
41.38000 77.555
41.40000 71.160
41.42000 67.140
41.44000 67.917
41.46000 66.996
41.48000 61.932
41.50000 55.376
41.52000 55.133
41.54000 54.734
41.56000 52.758
41.58000 49.206
41.60000 41.278
41.62000 40.822
41.64000 36.733
41.66000 35.634
41.68000 34.073
41.70000 35.477
41.72000 35.958
41.74000 32.394
41.76000 22.987
41.78000 22.938
41.80000 23.979
41.82000 25.637
41.84000 21.947
41.86000 25.039
41.88000 22.439
41.90000 20.111
41.92000 17.251
41.94000 13.466
41.96000 15.915
41.98000 13.100
42.00000 8.559
42.02000 13.935
42.04000 17.973
42.06000 14.573
42.08000 13.727
42.10000 13.926
42.12000 9.879
42.14000 7.091
42.16000 6.776
42.18000 5.804
42.20000 5.984
42.22000 7.385
42.24000 4.229
42.26000 4.212
42.28000 6.070
42.30000 5.278
42.32000 9.660
42.34000 7.321
42.36000 6.294
42.38000 5.107
42.40000 2.323
42.42000 0.158
42.44000 1.597
42.46000 5.110
42.48000 2.221
42.50000 6.274
42.52000 2.820
42.54000 2.101
42.56000 2.512
42.58000 -1.426
42.60000 1.178
42.62000 4.067
42.64000 2.180
42.66000 2.507
42.68000 3.397
42.70000 1.812
42.72000 -0.115
42.74000 3.247
42.76000 1.895
42.78000 -1.217
42.80000 -1.974
42.82000 3.512
42.84000 2.591
42.86000 0.408
42.88000 -3.534
42.90000 -2.174
42.92000 0.872
42.94000 -1.220
42.96000 0.492
42.98000 3.426
43.00000 0.373
43.02000 -0.648
43.04000 -2.312
43.06000 2.288
43.08000 3.414
43.10000 2.122
43.12000 4.808
43.14000 0.189
43.16000 -1.550
43.18000 -3.112
43.20000 -3.499
43.22000 -3.501
43.24000 -2.712
43.26000 0.154
43.28000 1.571
43.30000 0.331
43.32000 3.113
43.34000 3.536
43.36000 -1.849
43.38000 -0.245
43.40000 1.358
43.42000 0.693
43.44000 -0.188
43.46000 -1.116
43.48000 -0.566
43.50000 -0.512
43.52000 -0.918
43.54000 -0.713
43.56000 -0.222
43.58000 -0.855
43.60000 -0.535
43.62000 -0.192
43.64000 2.564
43.66000 0.618
43.68000 0.914
43.70000 -2.025
43.72000 0.486
43.74000 -2.292
43.76000 -1.588
43.78000 -3.448
43.80000 0.397
43.82000 -3.184
43.84000 -2.695
43.86000 -2.277
43.88000 -2.946
43.90000 -3.438
43.92000 3.600
43.94000 2.321
43.96000 3.005
43.98000 0.009
44.00000 2.784
44.02000 1.365
44.04000 -0.929
44.06000 -2.092
44.08000 -1.687
44.10000 -3.420
44.12000 1.413
44.14000 4.727
44.16000 2.950
44.18000 5.892
44.20000 3.779
44.22000 4.706
44.24000 2.799
44.26000 2.328
44.28000 -2.091
44.30000 -1.519
44.32000 0.403
44.34000 3.529
44.36000 -1.890
44.38000 -0.589
44.40000 1.199
44.42000 -1.867
44.44000 -0.800
44.46000 1.811
44.48000 1.284
44.50000 0.309
44.52000 -1.683
44.54000 4.845
44.56000 2.006
44.58000 3.977
44.60000 1.559
44.62000 2.213
44.64000 -1.617
44.66000 0.563
44.68000 -2.651
44.70000 3.958
44.72000 6.287
44.74000 1.476
44.76000 -3.435
44.78000 2.145
44.80000 2.217
44.82000 3.659
44.84000 1.158
44.86000 -0.608
44.88000 1.500
44.90000 3.733
44.92000 -0.136
44.94000 -0.306
44.96000 1.484
44.98000 4.997
45.00000 4.604
45.02000 2.115
45.04000 2.640
45.06000 6.770
45.08000 5.741
45.10000 5.762
45.12000 13.340
45.14000 6.672
45.16000 0.694
45.18000 3.128
45.20000 5.678
45.22000 4.731
45.24000 10.468
45.26000 9.177
45.28000 7.975
45.30000 7.095
45.32000 9.821
45.34000 10.033
45.36000 8.267
45.38000 9.451
45.40000 8.643
45.42000 6.365
45.44000 5.777
45.46000 10.590
45.48000 13.106
45.50000 7.154
45.52000 10.856
45.54000 11.432
45.56000 15.152
45.58000 14.157
45.60000 18.115
45.62000 18.297
45.64000 18.277
45.66000 16.031
45.68000 14.273
45.70000 16.789
45.72000 16.847
45.74000 16.659
45.76000 19.871
45.78000 18.310
45.80000 19.682
45.82000 19.431
45.84000 20.946
45.86000 21.989
45.88000 21.685
45.90000 26.496
45.92000 27.715
45.94000 30.940
45.96000 28.750
45.98000 32.723
46.00000 33.993
46.02000 32.446
46.04000 37.288
46.06000 35.701
46.08000 34.996
46.10000 40.534
46.12000 37.140
46.14000 34.032
46.16000 40.869
46.18000 45.825
46.20000 47.349
46.22000 46.889
46.24000 44.115
46.26000 41.177
46.28000 47.935
46.30000 50.200
46.32000 49.807
46.34000 48.231
46.36000 51.797
46.38000 52.039
46.40000 53.739
46.42000 53.714
46.44000 58.102
46.46000 62.919
46.48000 59.919
46.50000 60.828
46.52000 64.473
46.54000 69.793
46.56000 71.201
46.58000 68.346
46.60000 70.233
46.62000 70.087
46.64000 78.395
46.66000 73.644
46.68000 74.730
46.70000 77.690
46.72000 82.415
46.74000 86.671
46.76000 88.500
46.78000 82.475
46.80000 79.889
46.82000 83.897
46.84000 82.090
46.86000 85.991
46.88000 83.946
46.90000 91.325
46.92000 89.421
46.94000 88.088
46.96000 87.573
46.98000 87.326
47.00000 90.510
47.02000 94.166
47.04000 100.320
47.06000 87.135
47.08000 85.050
47.10000 88.343
47.12000 87.602
47.14000 77.583
47.16000 85.900
47.18000 86.087
47.20000 84.020
47.22000 84.977
47.24000 80.555
47.26000 74.186
47.28000 81.735
47.30000 84.701
47.32000 83.757
47.34000 78.475
47.36000 75.835
47.38000 70.895
47.40000 74.276
47.42000 70.660
47.44000 68.390
47.46000 72.136
47.48000 68.326
47.50000 65.726
47.52000 56.413
47.54000 59.816
47.56000 56.213
47.58000 56.978
47.60000 52.387
47.62000 57.604
47.64000 56.229
47.66000 50.714
47.68000 50.972
47.70000 42.089
47.72000 39.865
47.74000 38.342
47.76000 36.855
47.78000 35.235
47.80000 29.534
47.82000 35.132
47.84000 28.693
47.86000 26.457
47.88000 30.053
47.90000 34.480
47.92000 33.556
47.94000 26.202
47.96000 24.583
47.98000 24.887
48.00000 27.376
48.02000 24.882
48.04000 20.359
48.06000 19.550
48.08000 17.610
48.10000 22.049
48.12000 23.380
48.14000 19.513
48.16000 17.439
48.18000 13.808
48.20000 9.717
48.22000 7.759
48.24000 12.136
48.26000 14.729
48.28000 9.765
48.30000 7.597
48.32000 8.871
48.34000 8.215
48.36000 12.304
48.38000 16.420
48.40000 13.209
48.42000 6.650
48.44000 8.487
48.46000 6.911
48.48000 12.039
48.50000 11.238
48.52000 11.218
48.54000 6.462
48.56000 3.823
48.58000 -0.806
48.60000 5.205
48.62000 7.499
48.64000 2.822
48.66000 6.209
48.68000 3.532
48.70000 0.771
48.72000 -1.112
48.74000 -1.799
48.76000 7.591
48.78000 3.188
48.80000 2.096
48.82000 3.711
48.84000 1.579
48.86000 0.720
48.88000 2.407
48.90000 -1.354
48.92000 -0.725
48.94000 1.627
48.96000 -0.003
48.98000 3.383
49.00000 6.390
49.02000 2.692
49.04000 3.917
49.06000 3.894
49.08000 2.671
49.10000 -1.670
49.12000 4.404
49.14000 1.629
49.16000 2.201
49.18000 2.102
49.20000 2.592
49.22000 3.929
49.24000 1.175
49.26000 -3.020
49.28000 -2.752
49.30000 2.795
49.32000 2.013
49.34000 0.768
49.36000 3.711
49.38000 5.602
49.40000 0.249
49.42000 2.403
49.44000 4.620
49.46000 8.780
49.48000 4.771
49.50000 10.483
49.52000 9.466
49.54000 6.493
49.56000 3.019
49.58000 1.258
49.60000 1.648
49.62000 -0.585
49.64000 0.765
49.66000 2.910
49.68000 2.058
49.70000 -0.167
49.72000 3.181
49.74000 0.584
49.76000 1.515
49.78000 1.936
49.80000 -0.877
49.82000 -2.985
49.84000 2.751
49.86000 4.703
49.88000 5.078
49.90000 0.566
49.92000 -1.929
49.94000 -0.425
49.96000 2.081
49.98000 1.214
50.00000 1.146
50.02000 1.490
50.04000 4.275
50.06000 5.768
50.08000 0.957
50.10000 -2.869
50.12000 -1.887
50.14000 1.493
50.16000 2.809
50.18000 4.322
50.20000 5.557
50.22000 4.263
50.24000 1.383
50.26000 5.695
50.28000 5.505
50.30000 1.267
50.32000 0.551
50.34000 3.375
50.36000 1.814
50.38000 -0.154
50.40000 -2.264
50.42000 -1.043
50.44000 6.164
50.46000 2.462
50.48000 2.630
50.50000 5.183
50.52000 10.021
50.54000 6.521
50.56000 3.041
50.58000 -0.709
50.60000 -1.766
50.62000 0.644
50.64000 -0.807
50.66000 0.515
50.68000 1.295
50.70000 3.660
50.72000 5.096
50.74000 3.920
50.76000 0.870
50.78000 4.176
50.80000 2.516
50.82000 -2.083
50.84000 -0.119
50.86000 0.593
50.88000 4.247
50.90000 3.581
50.92000 0.326
50.94000 3.297
50.96000 4.409
50.98000 4.298
51.00000 3.391
51.02000 -0.203
51.04000 3.058
51.06000 4.474
51.08000 2.341
51.10000 5.127
51.12000 2.611
51.14000 2.680
51.16000 -0.601
51.18000 1.696
51.20000 5.104
51.22000 5.925
51.24000 6.248
51.26000 -1.571
51.28000 -2.869
51.30000 0.316
51.32000 3.590
51.34000 3.240
51.36000 3.976
51.38000 7.401
51.40000 3.314
51.42000 3.970
51.44000 5.586
51.46000 1.606
51.48000 1.580
51.50000 3.371
51.52000 7.359
51.54000 3.258
51.56000 -0.009
51.58000 3.018
51.60000 6.282
51.62000 5.634
51.64000 3.664
51.66000 3.682
51.68000 4.031
51.70000 2.393
51.72000 3.142
51.74000 1.244
51.76000 -0.499
51.78000 1.056
51.80000 -0.726
51.82000 6.757
51.84000 11.163
51.86000 5.244
51.88000 5.193
51.90000 6.186
51.92000 1.059
51.94000 7.488
51.96000 7.402
51.98000 5.678
52.00000 3.275
52.02000 8.804
52.04000 5.762
52.06000 5.130
52.08000 1.296
52.10000 5.689
52.12000 3.977
52.14000 2.492
52.16000 -0.420
52.18000 7.077
52.20000 10.779
52.22000 2.621
52.24000 -0.263
52.26000 6.659
52.28000 10.199
52.30000 9.931
52.32000 9.184
52.34000 5.836
52.36000 -2.772
52.38000 2.347
52.40000 9.072
52.42000 10.337
52.44000 8.847
52.46000 9.619
52.48000 5.333
52.50000 4.791
52.52000 1.756
52.54000 2.415
52.56000 1.142
52.58000 3.832
52.60000 5.974
52.62000 -0.494
52.64000 0.114
52.66000 0.947
52.68000 1.911
52.70000 5.745
52.72000 4.470
52.74000 0.346
52.76000 -0.447
52.78000 1.218
52.80000 -0.051
52.82000 2.041
52.84000 2.893
52.86000 5.720
52.88000 3.808
52.90000 4.150
52.92000 6.863
52.94000 3.085
52.96000 0.809
52.98000 0.667
53.00000 6.430
53.02000 3.878
53.04000 2.306
53.06000 1.357
53.08000 -0.921
53.10000 0.868
53.12000 1.794
53.14000 5.695
53.16000 3.605
53.18000 1.386
53.20000 0.571
53.22000 4.142
53.24000 -0.079
53.26000 -2.553
53.28000 2.794
53.30000 3.843
53.32000 -0.993
53.34000 -1.776
53.36000 0.105
53.38000 0.340
53.40000 -1.104
53.42000 1.449
53.44000 1.653
53.46000 0.548
53.48000 -0.953
53.50000 4.006
53.52000 3.817
53.54000 0.719
53.56000 1.191
53.58000 1.559
53.60000 0.212
53.62000 0.414
53.64000 -1.487
53.66000 2.716
53.68000 1.890
53.70000 7.388
53.72000 6.792
53.74000 -0.085
53.76000 0.064
53.78000 -1.774
53.80000 -0.334
53.82000 3.368
53.84000 4.875
53.86000 3.962
53.88000 0.132
53.90000 4.534
53.92000 -0.032
53.94000 -2.296
53.96000 -2.779
53.98000 1.370
54.00000 1.880
54.02000 4.852
54.04000 3.566
54.06000 -1.672
54.08000 4.754
54.10000 2.127
54.12000 3.228
54.14000 1.930
54.16000 1.084
54.18000 -1.546
54.20000 2.922
54.22000 1.807
54.24000 -1.510
54.26000 -1.479
54.28000 4.437
54.30000 5.212
54.32000 3.494
54.34000 7.843
54.36000 5.417
54.38000 2.000
54.40000 1.317
54.42000 8.696
54.44000 5.468
54.46000 5.631
54.48000 -0.072
54.50000 2.106
54.52000 0.301
54.54000 0.941
54.56000 -0.546
54.58000 0.399
54.60000 6.910
54.62000 4.915
54.64000 3.355
54.66000 3.746
54.68000 9.212
54.70000 5.880
54.72000 3.682
54.74000 4.109
54.76000 3.335
54.78000 7.266
54.80000 6.759
54.82000 2.408
54.84000 6.927
54.86000 5.160
54.88000 1.537
54.90000 -2.742
54.92000 0.854
54.94000 2.834
54.96000 3.760
54.98000 5.296
55.00000 8.556
55.02000 5.184
55.04000 5.914
55.06000 6.038
55.08000 7.450
55.10000 5.189
55.12000 7.031
55.14000 8.700
55.16000 3.148
55.18000 3.211
55.20000 2.528
55.22000 0.394
55.24000 0.312
55.26000 4.718
55.28000 5.310
55.30000 2.879
55.32000 8.652
55.34000 6.796
55.36000 -1.109
55.38000 1.999
55.40000 0.160
55.42000 5.237
55.44000 7.649
55.46000 5.203
55.48000 4.591
55.50000 2.606
55.52000 1.931
55.54000 5.740
55.56000 8.308
55.58000 5.366
55.60000 0.958
55.62000 0.132
55.64000 6.655
55.66000 3.493
55.68000 6.093
55.70000 8.347
55.72000 2.831
55.74000 3.651
55.76000 5.972
55.78000 7.667
55.80000 7.150
55.82000 4.555
55.84000 6.885
55.86000 4.029
55.88000 3.788
55.90000 4.304
55.92000 4.485
55.94000 -2.693
55.96000 1.580
55.98000 6.880
56.00000 6.741
56.02000 9.862
56.04000 6.442
56.06000 5.241
56.08000 3.127
56.10000 2.837
56.12000 1.214
56.14000 8.176
56.16000 7.323
56.18000 3.382
56.20000 1.744
56.22000 4.959
56.24000 5.040
56.26000 5.886
56.28000 4.915
56.30000 3.948
56.32000 6.078
56.34000 5.917
56.36000 4.832
56.38000 2.292
56.40000 1.444
56.42000 5.109
56.44000 5.346
56.46000 2.267
56.48000 4.573
56.50000 3.758
56.52000 1.456
56.54000 2.975
56.56000 5.196
56.58000 8.159
56.60000 7.156
56.62000 4.133
56.64000 5.988
56.66000 5.019
56.68000 5.778
56.70000 5.707
56.72000 4.896
56.74000 7.273
56.76000 0.803
56.78000 -1.018
56.80000 -0.421
56.82000 3.960
56.84000 5.858
56.86000 3.249
56.88000 1.722
56.90000 6.913
56.92000 5.842
56.94000 -2.653
56.96000 0.544
56.98000 3.589
57.00000 6.032
57.02000 5.053
57.04000 9.787
57.06000 8.977
57.08000 7.196
57.10000 7.464
57.12000 1.557
57.14000 1.504
57.16000 5.132
57.18000 3.446
57.20000 5.599
57.22000 3.917
57.24000 5.156
57.26000 4.675
57.28000 7.336
57.30000 4.333
57.32000 8.265
57.34000 0.849
57.36000 -2.573
57.38000 0.020
57.40000 4.276
57.42000 1.060
57.44000 1.237
57.46000 2.770
57.48000 8.411
57.50000 8.369
57.52000 9.371
57.54000 3.222
57.56000 1.785
57.58000 2.106
57.60000 -1.068
57.62000 1.230
57.64000 1.311
57.66000 2.820
57.68000 2.464
57.70000 -0.582
57.72000 -0.877
57.74000 2.801
57.76000 5.327
57.78000 4.532
57.80000 6.433
57.82000 4.838
57.84000 4.162
57.86000 -0.443
57.88000 -0.545
57.90000 1.463
57.92000 3.779
57.94000 3.403
57.96000 2.761
57.98000 4.450
58.00000 5.041
58.02000 5.990
58.04000 4.545
58.06000 2.297
58.08000 4.301
58.10000 3.706
58.12000 -2.019
58.14000 5.519
58.16000 5.538
58.18000 2.346
58.20000 -1.240
58.22000 -1.010
58.24000 -0.910
58.26000 -0.045
58.28000 3.610
58.30000 1.724
58.32000 0.497
58.34000 0.643
58.36000 0.347
58.38000 1.039
58.40000 -0.487
58.42000 2.417
58.44000 1.630
58.46000 3.257
58.48000 2.162
58.50000 6.374
58.52000 2.943
58.54000 1.608
58.56000 4.743
58.58000 7.121
58.60000 7.679
58.62000 -1.289
58.64000 -2.641
58.66000 -2.505
58.68000 -0.779
58.70000 2.175
58.72000 3.306
58.74000 -0.016
58.76000 -1.700
58.78000 0.209
58.80000 1.685
58.82000 3.148
58.84000 2.666
58.86000 4.027
58.88000 3.489
58.90000 1.672
58.92000 -2.627
58.94000 2.298
58.96000 0.840
58.98000 1.522
59.00000 -0.308
59.02000 -1.989
59.04000 -1.986
59.06000 3.004
59.08000 0.433
59.10000 1.443
59.12000 1.107
59.14000 3.852
59.16000 1.181
59.18000 4.706
59.20000 7.329
59.22000 4.669
59.24000 3.568
59.26000 2.417
59.28000 1.375
59.30000 3.781
59.32000 1.756
59.34000 1.948
59.36000 5.587
59.38000 5.891
59.40000 6.473
59.42000 4.864
59.44000 3.319
59.46000 0.651
59.48000 3.393
59.50000 3.353
59.52000 0.540
59.54000 -0.713
59.56000 4.049
59.58000 5.285
59.60000 5.482
59.62000 0.456
59.64000 0.130
59.66000 2.230
59.68000 0.634
59.70000 5.787
59.72000 5.802
59.74000 2.586
59.76000 6.587
59.78000 6.072
59.80000 5.780
59.82000 0.025
59.84000 -2.587
59.86000 -0.957
59.88000 2.498
59.90000 3.371
59.92000 0.596
59.94000 1.877
59.96000 2.247
59.98000 3.450
60.00000 -0.330
60.02000 -1.570
60.04000 0.485
60.06000 3.312
60.08000 3.475
60.10000 -0.624
60.12000 1.013
60.14000 6.315
60.16000 5.342
60.18000 4.457
60.20000 3.416
60.22000 1.618
60.24000 2.900
60.26000 1.494
60.28000 4.762
60.30000 0.072
60.32000 1.515
60.34000 5.790
60.36000 3.700
60.38000 3.621
60.40000 4.982
60.42000 8.277
60.44000 8.156
60.46000 3.512
60.48000 5.333
60.50000 -0.340
60.52000 -2.543
60.54000 -2.093
60.56000 2.004
60.58000 4.103
60.60000 4.007
60.62000 2.756
60.64000 4.452
60.66000 5.437
60.68000 4.626
60.70000 5.490
60.72000 5.229
60.74000 0.639
60.76000 3.722
60.78000 2.500
60.80000 2.642
60.82000 3.594
60.84000 3.942
60.86000 2.281
60.88000 1.671
60.90000 0.170
60.92000 4.624
60.94000 4.149
60.96000 3.699
60.98000 2.341
61.00000 -1.355
61.02000 -0.088
61.04000 0.828
61.06000 4.092
61.08000 -1.066
61.10000 -0.973
61.12000 -0.451
61.14000 -1.381
61.16000 1.914
61.18000 0.822
61.20000 0.986
61.22000 -1.256
61.24000 -2.549
61.26000 0.858
61.28000 1.077
61.30000 0.160
61.32000 -0.073
61.34000 1.127
61.36000 1.106
61.38000 1.324
61.40000 1.442
61.42000 2.080
61.44000 -0.230
61.46000 0.287
61.48000 2.650
61.50000 5.432
61.52000 1.222
61.54000 1.577
61.56000 5.328
61.58000 2.659
61.60000 0.634
61.62000 -2.183
61.64000 2.580
61.66000 3.189
61.68000 2.693
61.70000 -0.558
61.72000 2.387
61.74000 5.912
61.76000 5.863
61.78000 -0.613
61.80000 -1.937
61.82000 0.137
61.84000 1.446
61.86000 4.139
61.88000 1.577
61.90000 -0.570
61.92000 -0.291
61.94000 -0.048
61.96000 -1.470
61.98000 -0.636
62.00000 4.077
62.02000 0.300
62.04000 0.944
62.06000 2.518
62.08000 3.323
62.10000 4.749
62.12000 3.769
62.14000 0.902
62.16000 0.790
62.18000 -0.105
62.20000 0.307
62.22000 -2.560
62.24000 -1.324
62.26000 0.582
62.28000 2.370
62.30000 1.198
62.32000 0.728
62.34000 0.033
62.36000 3.064
62.38000 -1.257
62.40000 -1.347
62.42000 0.877
62.44000 1.086
62.46000 -1.204
62.48000 -0.197
62.50000 0.846
62.52000 2.428
62.54000 2.626
62.56000 -2.428
62.58000 -1.733
62.60000 -1.663
62.62000 -0.687
62.64000 -0.380
62.66000 0.959
62.68000 4.101
62.70000 4.949
62.72000 1.958
62.74000 -0.238
62.76000 -0.927
62.78000 -2.089
62.80000 -2.083
62.82000 1.011
62.84000 -0.734
62.86000 4.049
62.88000 5.156
62.90000 -1.780
62.92000 -0.426
62.94000 4.282
62.96000 3.446
62.98000 3.341
63.00000 2.050
63.02000 -0.395
63.04000 0.388
63.06000 2.079
63.08000 2.888
63.10000 4.031
63.12000 5.382
63.14000 4.185
63.16000 0.703
63.18000 1.691
63.20000 -0.603
63.22000 1.668
63.24000 3.336
63.26000 4.675
63.28000 1.682
63.30000 1.840
63.32000 4.873
63.34000 8.133
63.36000 2.334
63.38000 2.808
63.40000 3.636
63.42000 3.603
63.44000 2.950
63.46000 6.239
63.48000 7.324
63.50000 5.772
63.52000 2.649
63.54000 3.749
63.56000 8.277
63.58000 7.336
63.60000 3.859
63.62000 -0.018
63.64000 -2.474
63.66000 -0.207
63.68000 5.670
63.70000 5.688
63.72000 4.970
63.74000 6.761
63.76000 4.020
63.78000 0.078
63.80000 2.594
63.82000 4.643
63.84000 3.310
63.86000 7.413
63.88000 10.430
63.90000 10.181
63.92000 7.895
63.94000 3.415
63.96000 7.242
63.98000 5.326
64.00000 6.795
64.02000 7.446
64.04000 3.088
64.06000 1.453
64.08000 6.617
64.10000 6.243
64.12000 1.569
64.14000 -0.010
64.16000 3.029
64.18000 4.615
64.20000 0.148
64.22000 1.475
64.24000 5.130
64.26000 6.427
64.28000 3.660
64.30000 2.083
64.32000 1.796
64.34000 2.096
64.36000 5.816
64.38000 7.863
64.40000 2.911
64.42000 2.881
64.44000 6.414
64.46000 6.008
64.48000 0.660
64.50000 6.496
64.52000 3.951
64.54000 1.376
64.56000 1.295
64.58000 2.265
64.60000 5.643
64.62000 4.779
64.64000 4.420
64.66000 2.757
64.68000 1.272
64.70000 3.929
64.72000 -0.179
64.74000 2.438
64.76000 3.594
64.78000 0.625
64.80000 0.166
64.82000 3.939
64.84000 1.548
64.86000 1.232
64.88000 3.808
64.90000 2.931
64.92000 1.353
64.94000 -0.033
64.96000 -0.178
64.98000 -1.455
65.00000 0.933
65.02000 1.675
65.04000 1.825
65.06000 0.919
65.08000 2.143
65.10000 6.288
65.12000 6.567
65.14000 2.328
65.16000 2.930
65.18000 3.791
65.20000 7.122
65.22000 2.741
65.24000 -1.088
65.26000 6.303
65.28000 7.679
65.30000 4.131
65.32000 2.446
65.34000 1.817
65.36000 1.356
65.38000 3.434
65.40000 3.432
65.42000 5.070
65.44000 5.369
65.46000 3.812
65.48000 2.875
65.50000 2.511
65.52000 5.697
65.54000 1.634
65.56000 1.911
65.58000 1.903
65.60000 2.524
65.62000 1.567
65.64000 1.114
65.66000 -0.034
65.68000 2.745
65.70000 5.214
65.72000 6.977
65.74000 1.805
65.76000 -1.669
65.78000 -2.511
65.80000 3.957
65.82000 6.216
65.84000 2.205
65.86000 4.066
65.88000 3.321
65.90000 7.209
65.92000 5.489
65.94000 4.129
65.96000 2.538
65.98000 2.789
66.00000 3.647
66.02000 2.109
66.04000 2.319
66.06000 2.113
66.08000 4.789
66.10000 7.929
66.12000 8.352
66.14000 4.598
66.16000 1.215
66.18000 2.529
66.20000 1.170
66.22000 3.303
66.24000 4.605
66.26000 2.143
66.28000 -1.224
66.30000 -0.209
66.32000 2.877
66.34000 0.563
66.36000 0.569
66.38000 3.528
66.40000 3.755
66.42000 0.152
66.44000 2.123
66.46000 2.016
66.48000 1.902
66.50000 0.815
66.52000 -2.334
66.54000 -0.634
66.56000 0.010
66.58000 -0.020
66.60000 1.540
66.62000 3.614
66.64000 3.844
66.66000 5.302
66.68000 4.804
66.70000 2.297
66.72000 0.457
66.74000 -2.598
66.76000 2.624
66.78000 4.836
66.80000 1.184
66.82000 -1.697
66.84000 -0.456
66.86000 2.387
66.88000 1.234
66.90000 -1.339
66.92000 0.852
66.94000 0.758
66.96000 -0.881
66.98000 3.723
67.00000 4.678
67.02000 1.837
67.04000 1.491
67.06000 -1.868
67.08000 -0.708
67.10000 -2.626
67.12000 0.807
67.14000 0.099
67.16000 -1.003
67.18000 -1.285
67.20000 0.573
67.22000 0.790
67.24000 3.357
67.26000 5.241
67.28000 2.778
67.30000 2.103
67.32000 2.749
67.34000 3.111
67.36000 3.550
67.38000 3.261
67.40000 5.158
67.42000 3.531
67.44000 2.822
67.46000 5.105
67.48000 5.755
67.50000 6.987
67.52000 7.611
67.54000 5.379
67.56000 5.404
67.58000 6.505
67.60000 4.173
67.62000 4.050
67.64000 3.296
67.66000 4.872
67.68000 5.653
67.70000 8.750
67.72000 8.546
67.74000 6.910
67.76000 9.581
67.78000 6.377
67.80000 4.720
67.82000 6.033
67.84000 9.176
67.86000 10.217
67.88000 6.251
67.90000 6.628
67.92000 9.605
67.94000 11.537
67.96000 13.360
67.98000 10.444
68.00000 10.026
68.02000 7.120
68.04000 12.286
68.06000 14.907
68.08000 11.995
68.10000 10.880
68.12000 14.191
68.14000 15.636
68.16000 16.392
68.18000 18.103
68.20000 18.405
68.22000 18.952
68.24000 16.108
68.26000 18.603
68.28000 16.365
68.30000 16.772
68.32000 22.694
68.34000 20.491
68.36000 18.999
68.38000 18.228
68.40000 15.752
68.42000 16.368
68.44000 15.869
68.46000 16.578
68.48000 19.319
68.50000 18.344
68.52000 20.435
68.54000 21.611
68.56000 23.044
68.58000 21.865
68.60000 19.505
68.62000 20.055
68.64000 16.994
68.66000 15.250
68.68000 17.218
68.70000 18.487
68.72000 22.542
68.74000 24.515
68.76000 23.048
68.78000 27.751
68.80000 23.023
68.82000 23.108
68.84000 25.762
68.86000 20.766
68.88000 16.118
68.90000 15.531
68.92000 15.601
68.94000 18.678
68.96000 12.229
68.98000 11.823
69.00000 16.138
69.02000 15.888
69.04000 11.413
69.06000 11.424
69.08000 12.757
69.10000 16.652
69.12000 14.966
69.14000 16.842
69.16000 18.638
69.18000 10.832
69.20000 7.519
69.22000 10.383
69.24000 10.915
69.26000 10.572
69.28000 11.069
69.30000 11.385
69.32000 8.592
69.34000 7.355
69.36000 6.784
69.38000 2.702
69.40000 8.591
69.42000 8.502
69.44000 6.940
69.46000 7.209
69.48000 7.982
69.50000 10.047
69.52000 6.023
69.54000 5.434
69.56000 2.061
69.58000 4.450
69.60000 9.284
69.62000 6.959
69.64000 3.604
69.66000 6.220
69.68000 2.428
69.70000 3.209
69.72000 1.792
69.74000 4.844
69.76000 1.859
69.78000 2.616
69.80000 4.021
69.82000 2.837
69.84000 2.554
69.86000 4.127
69.88000 3.403
69.90000 2.089
69.92000 -1.283
69.94000 -0.996
69.96000 -0.220
69.98000 -2.543
70.00000 -0.878
70.02000 1.810
70.04000 0.326
70.06000 0.686
70.08000 3.241
70.10000 4.610
70.12000 5.337
70.14000 5.583
70.16000 3.455
70.18000 -2.527
70.20000 1.206
70.22000 4.315
70.24000 3.384
70.26000 4.084
70.28000 3.061
70.30000 2.343
70.32000 7.530
70.34000 1.484
70.36000 -1.803
70.38000 0.126
70.40000 2.530
70.42000 2.643
70.44000 4.859
70.46000 4.717
70.48000 0.266
70.50000 -1.464
70.52000 -0.553
70.54000 -1.459
70.56000 -0.173
70.58000 2.214
70.60000 1.856
70.62000 2.407
70.64000 3.147
70.66000 2.070
70.68000 -2.303
70.70000 -0.573
70.72000 -0.432
70.74000 -2.177
70.76000 1.201
70.78000 -2.477
70.80000 -0.378
70.82000 -0.532
70.84000 0.274
70.86000 -1.326
70.88000 -0.091
70.90000 3.042
70.92000 -1.451
70.94000 -1.647
70.96000 -2.463
70.98000 2.189
71.00000 0.031
71.02000 3.810
71.04000 2.271
71.06000 -1.105
71.08000 3.841
71.10000 -2.451
71.12000 -1.734
71.14000 -2.448
71.16000 -0.483
71.18000 0.704
71.20000 0.023
71.22000 2.582
71.24000 2.761
71.26000 4.986
71.28000 3.347
71.30000 -1.052
71.32000 1.442
71.34000 1.514
71.36000 4.938
71.38000 3.824
71.40000 2.032
71.42000 1.539
71.44000 1.582
71.46000 -0.314
71.48000 2.245
71.50000 5.793
71.52000 4.252
71.54000 4.492
71.56000 6.601
71.58000 3.917
71.60000 1.162
71.62000 3.025
71.64000 11.039
71.66000 5.593
71.68000 -2.439
71.70000 0.800
71.72000 1.152
71.74000 -0.894
71.76000 -1.217
71.78000 -0.730
71.80000 0.983
71.82000 -0.001
71.84000 2.577
71.86000 5.309
71.88000 1.265
71.90000 4.572
71.92000 4.928
71.94000 0.730
71.96000 2.980
71.98000 6.135
72.00000 1.025
72.02000 0.231
72.04000 -0.294
72.06000 3.482
72.08000 0.947
72.10000 -0.437
72.12000 1.200
72.14000 2.235
72.16000 0.588
72.18000 1.165
72.20000 3.078
72.22000 1.710
72.24000 1.950
72.26000 0.448
72.28000 2.818
72.30000 -0.913
72.32000 3.380
72.34000 4.891
72.36000 5.638
72.38000 4.422
72.40000 2.338
72.42000 0.307
72.44000 -0.551
72.46000 3.648
72.48000 3.362
72.50000 2.353
72.52000 7.174
72.54000 6.334
72.56000 5.879
72.58000 -2.385
72.60000 0.239
72.62000 -0.825
72.64000 3.125
72.66000 9.712
72.68000 6.787
72.70000 1.711
72.72000 0.647
72.74000 -0.411
72.76000 0.771
72.78000 4.135
72.80000 4.890
72.82000 3.743
72.84000 1.555
72.86000 1.911
72.88000 -1.404
72.90000 -0.201
72.92000 0.081
72.94000 -1.764
72.96000 4.783
72.98000 2.797
73.00000 0.883
73.02000 2.157
73.04000 -1.501
73.06000 0.076
73.08000 3.193
73.10000 1.450
73.12000 3.443
73.14000 0.141
73.16000 0.361
73.18000 -0.169
73.20000 4.600
73.22000 3.706
73.24000 1.149
73.26000 6.162
73.28000 5.220
73.30000 2.851
73.32000 1.388
73.34000 1.787
73.36000 3.761
73.38000 2.543
73.40000 3.082
73.42000 -1.724
73.44000 -2.331
73.46000 2.615
73.48000 5.513
73.50000 3.938
73.52000 5.082
73.54000 7.628
73.56000 3.377
73.58000 4.796
73.60000 5.583
73.62000 1.294
73.64000 2.215
73.66000 3.317
73.68000 0.487
73.70000 1.789
73.72000 6.757
73.74000 2.508
73.76000 -0.758
73.78000 -0.851
73.80000 0.010
73.82000 2.024
73.84000 6.417
73.86000 4.404
73.88000 6.885
73.90000 8.909
73.92000 6.026
73.94000 8.240
73.96000 7.181
73.98000 8.861
74.00000 8.081
74.02000 5.575
74.04000 5.856
74.06000 5.958
74.08000 5.830
74.10000 6.810
74.12000 -0.848
74.14000 0.267
74.16000 1.152
74.18000 -0.463
74.20000 2.456
74.22000 2.580
74.24000 4.495
74.26000 2.878
74.28000 1.458
74.30000 1.395
74.32000 1.940
74.34000 1.898
74.36000 5.262
74.38000 6.299
74.40000 5.994
74.42000 3.333
74.44000 1.702
74.46000 0.077
74.48000 2.810
74.50000 4.919
74.52000 -1.979
74.54000 -2.170
74.56000 0.308
74.58000 -1.056
74.60000 0.495
74.62000 -1.711
74.64000 0.635
74.66000 3.279
74.68000 7.792
74.70000 8.501
74.72000 4.006
74.74000 1.566
74.76000 5.461
74.78000 4.985
74.80000 0.333
74.82000 -2.324
74.84000 5.226
74.86000 0.164
74.88000 3.415
74.90000 4.597
74.92000 5.469
74.94000 6.930
74.96000 4.142
74.98000 0.156
75.00000 0.883
75.02000 2.222
75.04000 1.994
75.06000 5.683
75.08000 0.790
75.10000 -1.250
75.12000 0.001
75.14000 2.176
75.16000 3.830
75.18000 5.712
75.20000 7.596
75.22000 5.138
75.24000 4.896
75.26000 1.833
75.28000 0.809
75.30000 -1.134
75.32000 3.544
75.34000 1.269
75.36000 1.628
75.38000 4.314
75.40000 1.472
75.42000 -0.453
75.44000 0.089
75.46000 -2.121
75.48000 0.297
75.50000 0.005
75.52000 -0.456
75.54000 3.165
75.56000 1.749
75.58000 6.489
75.60000 6.021
75.62000 2.969
75.64000 0.455
75.66000 0.181
75.68000 0.021
75.70000 1.514
75.72000 4.189
75.74000 1.129
75.76000 1.223
75.78000 -1.467
75.80000 4.899
75.82000 2.787
75.84000 -1.274
75.86000 -2.371
75.88000 1.716
75.90000 2.171
75.92000 1.691
75.94000 1.280
75.96000 2.586
75.98000 0.953
76.00000 -0.018
76.02000 0.672
76.04000 0.924
76.06000 0.633
76.08000 5.399
76.10000 6.399
76.12000 3.234
76.14000 1.113
76.16000 2.691
76.18000 0.673
76.20000 7.460
76.22000 4.616
76.24000 4.299
76.26000 7.379
76.28000 10.079
76.30000 9.380
76.32000 6.869
76.34000 4.266
76.36000 0.438
76.38000 1.586
76.40000 3.050
76.42000 6.286
76.44000 3.227
76.46000 1.679
76.48000 1.016
76.50000 3.062
76.52000 6.450
76.54000 2.368
76.56000 -1.080
76.58000 -1.295
76.60000 3.199
76.62000 3.272
76.64000 3.141
76.66000 5.918
76.68000 6.776
76.70000 10.847
76.72000 8.593
76.74000 5.316
76.76000 4.321
76.78000 4.419
76.80000 1.167
76.82000 0.101
76.84000 3.757
76.86000 4.321
76.88000 2.509
76.90000 1.538
76.92000 0.541
76.94000 3.173
76.96000 3.581
76.98000 6.253
77.00000 7.626
77.02000 5.755
77.04000 7.174
77.06000 8.346
77.08000 8.590
77.10000 3.168
77.12000 5.330
77.14000 2.434
77.16000 4.540
77.18000 6.170
77.20000 -0.327
77.22000 3.823
77.24000 7.994
77.26000 3.744
77.28000 5.519
77.30000 6.561
77.32000 2.504
77.34000 0.466
77.36000 4.665
77.38000 -0.570
77.40000 -0.939
77.42000 -2.307
77.44000 -0.255
77.46000 -1.221
77.48000 0.363
77.50000 -0.864
77.52000 2.073
77.54000 6.229
77.56000 6.307
77.58000 5.369
77.60000 5.581
77.62000 6.983
77.64000 3.555
77.66000 2.979
77.68000 3.164
77.70000 1.510
77.72000 1.962
77.74000 2.117
77.76000 5.197
77.78000 2.424
77.80000 1.088
77.82000 2.661
77.84000 6.706
77.86000 7.186
77.88000 8.404
77.90000 8.617
77.92000 2.851
77.94000 3.229
77.96000 -1.601
77.98000 -1.055
78.00000 2.330
78.02000 8.211
78.04000 7.360
78.06000 6.897
78.08000 7.007
78.10000 2.986
78.12000 2.192
78.14000 1.170
78.16000 -0.542
78.18000 3.305
78.20000 -0.395
78.22000 6.926
78.24000 8.154
78.26000 4.543
78.28000 2.826
78.30000 2.136
78.32000 2.763
78.34000 0.794
78.36000 4.098
78.38000 5.932
78.40000 4.721
78.42000 3.229
78.44000 1.420
78.46000 3.131
78.48000 8.899
78.50000 5.630
78.52000 1.534
78.54000 1.957
78.56000 2.475
78.58000 2.153
78.60000 -0.132
78.62000 -2.385
78.64000 0.111
78.66000 4.177
78.68000 4.314
78.70000 3.323
78.72000 4.705
78.74000 8.271
78.76000 3.957
78.78000 1.100
78.80000 1.081
78.82000 0.844
78.84000 3.864
78.86000 5.437
78.88000 7.409
78.90000 0.731
78.92000 1.617
78.94000 0.956
78.96000 4.164
78.98000 8.657
79.00000 9.287
79.02000 11.075
79.04000 3.221
79.06000 4.020
79.08000 0.949
79.10000 2.615
79.12000 -1.781
79.14000 2.147
79.16000 3.652
79.18000 4.618
79.20000 4.034
79.22000 2.242
79.24000 2.332
79.26000 5.695
79.28000 5.847
79.30000 6.034
79.32000 7.507
79.34000 5.403
79.36000 5.609
79.38000 5.463
79.40000 4.180
79.42000 -2.399
79.44000 -0.746
79.46000 1.501
79.48000 1.290
79.50000 4.926
79.52000 4.893
79.54000 7.987
79.56000 8.080
79.58000 6.931
79.60000 2.528
79.62000 0.705
79.64000 8.017
79.66000 3.691
79.68000 3.933
79.70000 3.101
79.72000 2.538
79.74000 3.992
79.76000 2.890
79.78000 -2.107
79.80000 1.917
79.82000 7.057
79.84000 4.440
79.86000 -1.295
79.88000 -1.581
79.90000 3.949
79.92000 2.605
79.94000 5.410
79.96000 3.004
79.98000 0.345
80.00000 -1.345
80.02000 0.649
80.04000 7.549
80.06000 6.043
80.08000 2.123
80.10000 4.265
80.12000 2.254
80.14000 2.925
80.16000 3.758
80.18000 4.445
80.20000 0.921
80.22000 3.089
80.24000 7.706
80.26000 5.539
80.28000 4.875
80.30000 5.906
80.32000 6.054
80.34000 9.545
80.36000 5.292
80.38000 6.292
80.40000 -0.409
80.42000 2.923
80.44000 2.486
80.46000 2.137
80.48000 3.044
80.50000 2.743
80.52000 3.538
80.54000 4.376
80.56000 1.742
80.58000 2.553
80.60000 6.227
80.62000 8.999
80.64000 11.742
80.66000 5.002
80.68000 5.848
80.70000 9.157
80.72000 4.676
80.74000 4.717
80.76000 10.400
80.78000 6.752
80.80000 5.226
80.82000 -2.450
80.84000 -0.756
80.86000 5.303
80.88000 7.638
80.90000 5.922
80.92000 6.427
80.94000 5.944
80.96000 6.182
80.98000 3.706
81.00000 2.309
81.02000 3.746
81.04000 4.670
81.06000 6.725
81.08000 10.697
81.10000 5.041
81.12000 2.773
81.14000 2.044
81.16000 6.218
81.18000 8.308
81.20000 6.052
81.22000 6.718
81.24000 6.137
81.26000 6.195
81.28000 3.678
81.30000 8.741
81.32000 12.448
81.34000 6.705
81.36000 10.257
81.38000 9.902
81.40000 8.225
81.42000 7.875
81.44000 3.839
81.46000 6.574
81.48000 7.726
81.50000 10.240
81.52000 13.118
81.54000 6.664
81.56000 8.330
81.58000 8.186
81.60000 4.557
81.62000 6.104
81.64000 11.464
81.66000 14.323
81.68000 15.038
81.70000 12.379
81.72000 13.141
81.74000 12.642
81.76000 12.591
81.78000 14.048
81.80000 11.637
81.82000 6.131
81.84000 13.027
81.86000 14.387
81.88000 10.295
81.90000 11.543
81.92000 11.877
81.94000 13.362
81.96000 17.855
81.98000 19.749
82.00000 16.729
82.02000 17.581
82.04000 17.582
82.06000 14.386
82.08000 19.646
82.10000 25.125
82.12000 20.797
82.14000 24.054
82.16000 19.878
82.18000 21.919
82.20000 16.663
82.22000 21.744
82.24000 22.553
82.26000 23.201
82.28000 21.158
82.30000 22.114
82.32000 17.320
82.34000 20.746
82.36000 21.065
82.38000 22.066
82.40000 24.283
82.42000 22.795
82.44000 28.706
82.46000 28.813
82.48000 24.256
82.50000 23.771
82.52000 24.561
82.54000 27.315
82.56000 27.277
82.58000 25.205
82.60000 29.754
82.62000 28.943
82.64000 21.121
82.66000 25.774
82.68000 29.473
82.70000 27.326
82.72000 27.798
82.74000 27.896
82.76000 27.685
82.78000 27.599
82.80000 26.145
82.82000 30.848
82.84000 27.077
82.86000 26.018
82.88000 28.212
82.90000 27.411
82.92000 29.934
82.94000 23.000
82.96000 23.178
82.98000 27.260
83.00000 27.298
83.02000 28.071
83.04000 27.068
83.06000 24.696
83.08000 26.642
83.10000 27.112
83.12000 24.393
83.14000 30.376
83.16000 27.158
83.18000 22.765
83.20000 27.549
83.22000 27.939
83.24000 28.513
83.26000 21.642
83.28000 16.924
83.30000 18.053
83.32000 19.849
83.34000 20.230
83.36000 23.216
83.38000 18.178
83.40000 15.109
83.42000 11.979
83.44000 15.451
83.46000 17.347
83.48000 15.098
83.50000 14.442
83.52000 18.785
83.54000 15.702
83.56000 15.568
83.58000 11.520
83.60000 15.521
83.62000 10.949
83.64000 8.477
83.66000 13.087
83.68000 12.767
83.70000 11.074
83.72000 12.360
83.74000 12.238
83.76000 8.727
83.78000 4.672
83.80000 5.953
83.82000 12.793
83.84000 10.305
83.86000 7.782
83.88000 7.432
83.90000 5.303
83.92000 1.804
83.94000 6.707
83.96000 14.694
83.98000 9.075
84.00000 4.575
84.02000 5.925
84.04000 8.627
84.06000 7.869
84.08000 8.564
84.10000 6.775
84.12000 3.787
84.14000 -1.280
84.16000 5.964
84.18000 9.013
84.20000 5.733
84.22000 4.241
84.24000 0.164
84.26000 -2.557
84.28000 -0.012
84.30000 3.749
84.32000 4.265
84.34000 3.535
84.36000 -0.887
84.38000 -0.780
84.40000 2.615
84.42000 1.824
84.44000 4.259
84.46000 -1.209
84.48000 0.425
84.50000 4.570
84.52000 3.730
84.54000 2.446
84.56000 2.673
84.58000 1.123
84.60000 1.037
84.62000 -0.496
84.64000 4.346
84.66000 1.029
84.68000 0.268
84.70000 4.181
84.72000 5.382
84.74000 3.310
84.76000 1.888
84.78000 0.185
84.80000 1.083
84.82000 4.834
84.84000 3.898
84.86000 1.604
84.88000 5.852
84.90000 3.626
84.92000 3.930
84.94000 2.399
84.96000 2.157
84.98000 -0.525
85.00000 -1.638
85.02000 -2.412
85.04000 1.492
85.06000 5.776
85.08000 5.450
85.10000 1.443
85.12000 1.046
85.14000 1.783
85.16000 2.264
85.18000 2.468
85.20000 5.700
85.22000 5.096
85.24000 3.805
85.26000 0.950
85.28000 1.678
85.30000 5.198
85.32000 3.831
85.34000 1.449
85.36000 5.665
85.38000 3.102
85.40000 0.249
85.42000 0.444
85.44000 -2.413
85.46000 -2.410
85.48000 -1.802
85.50000 4.354
85.52000 4.010
85.54000 3.335
85.56000 5.397
85.58000 3.775
85.60000 5.509
85.62000 2.414
85.64000 -0.697
85.66000 1.901
85.68000 2.656
85.70000 6.755
85.72000 3.145
85.74000 4.461
85.76000 2.411
85.78000 6.149
85.80000 6.950
85.82000 9.046
85.84000 0.464
85.86000 -1.437
85.88000 -1.560
85.90000 0.985
85.92000 1.441
85.94000 2.407
85.96000 3.446
85.98000 5.611
86.00000 5.417
86.02000 10.600
86.04000 11.392
86.06000 7.843
86.08000 0.716
86.10000 -0.124
86.12000 4.265
86.14000 5.397
86.16000 7.798
86.18000 6.679
86.20000 7.468
86.22000 7.465
86.24000 9.716
86.26000 9.794
86.28000 6.653
86.30000 9.242
86.32000 8.518
86.34000 9.457
86.36000 10.135
86.38000 10.251
86.40000 10.445
86.42000 10.704
86.44000 11.290
86.46000 12.385
86.48000 12.230
86.50000 8.492
86.52000 8.834
86.54000 11.528
86.56000 12.809
86.58000 12.144
86.60000 9.731
86.62000 12.154
86.64000 9.090
86.66000 7.119
86.68000 11.397
86.70000 20.112
86.72000 16.990
86.74000 15.181
86.76000 19.124
86.78000 18.283
86.80000 25.995
86.82000 22.821
86.84000 22.034
86.86000 21.722
86.88000 17.218
86.90000 18.506
86.92000 17.257
86.94000 20.520
86.96000 19.971
86.98000 19.034
87.00000 16.988
87.02000 20.445
87.04000 21.654
87.06000 23.536
87.08000 25.091
87.10000 21.339
87.12000 23.465
87.14000 28.866
87.16000 30.530
87.18000 25.796
87.20000 24.869
87.22000 25.289
87.24000 25.111
87.26000 21.482
87.28000 24.235
87.30000 28.107
87.32000 25.817
87.34000 27.736
87.36000 25.470
87.38000 31.378
87.40000 32.100
87.42000 28.136
87.44000 22.424
87.46000 17.263
87.48000 18.922
87.50000 20.285
87.52000 21.911
87.54000 15.465
87.56000 20.740
87.58000 24.316
87.60000 22.406
87.62000 19.693
87.64000 16.983
87.66000 14.430
87.68000 19.684
87.70000 23.954
87.72000 20.404
87.74000 13.982
87.76000 16.414
87.78000 15.578
87.80000 17.590
87.82000 14.877
87.84000 12.452
87.86000 13.430
87.88000 16.341
87.90000 12.366
87.92000 8.368
87.94000 10.229
87.96000 14.210
87.98000 11.461
88.00000 12.850
88.02000 13.350
88.04000 12.038
88.06000 10.548
88.08000 12.687
88.10000 11.341
88.12000 7.340
88.14000 9.169
88.16000 6.992
88.18000 8.592
88.20000 12.286
88.22000 10.184
88.24000 4.551
88.26000 6.312
88.28000 7.129
88.30000 8.306
88.32000 7.072
88.34000 10.931
88.36000 12.943
88.38000 13.179
88.40000 9.921
88.42000 6.233
88.44000 -0.211
88.46000 -1.129
88.48000 5.581
88.50000 8.700
88.52000 3.301
88.54000 1.831
88.56000 3.162
88.58000 6.348
88.60000 4.849
88.62000 4.696
88.64000 11.196
88.66000 8.991
88.68000 4.619
88.70000 6.879
88.72000 3.908
88.74000 6.431
88.76000 3.553
88.78000 4.810
88.80000 1.158
88.82000 -0.437
88.84000 0.553
88.86000 4.016
88.88000 7.451
88.90000 6.984
88.92000 8.711
88.94000 7.010
88.96000 2.834
88.98000 0.670
89.00000 4.272
89.02000 4.278
89.04000 5.282
89.06000 8.373
89.08000 6.941
89.10000 4.405
89.12000 3.312
89.14000 2.681
89.16000 -0.617
89.18000 2.012
89.20000 5.758
89.22000 -0.132
89.24000 -2.251
89.26000 1.368
89.28000 4.215
89.30000 2.057
89.32000 3.544
89.34000 4.236
89.36000 1.597
89.38000 2.428
89.40000 5.439
89.42000 5.355
89.44000 4.110
89.46000 -1.272
89.48000 4.734
89.50000 3.315
89.52000 -2.244
89.54000 -1.403
89.56000 1.819
89.58000 4.038
89.60000 4.351
89.62000 3.755
89.64000 -0.006
89.66000 0.048
89.68000 1.554
89.70000 4.657
89.72000 2.756
89.74000 -0.528
89.76000 3.123
89.78000 4.086
89.80000 2.969
89.82000 1.684
89.84000 8.883
89.86000 2.913
89.88000 -1.621
89.90000 0.699
89.92000 3.738
89.94000 -0.284
89.96000 -1.377
89.98000 -1.499
90.00000 -1.230
90.02000 2.167
90.04000 4.220
90.06000 4.200
90.08000 -0.054
90.10000 0.820
90.12000 -1.811
90.14000 -1.206
90.16000 -1.514
90.18000 0.263
90.20000 1.644
90.22000 0.062
90.24000 1.018
90.26000 1.674
90.28000 3.205
90.30000 2.159
90.32000 2.933
90.34000 1.229
90.36000 6.437
90.38000 6.395
90.40000 5.985
90.42000 2.453
90.44000 1.687
90.46000 4.371
90.48000 6.968
90.50000 4.910
90.52000 0.294
90.54000 0.566
90.56000 -0.118
90.58000 -0.360
90.60000 2.776
90.62000 2.282
90.64000 3.243
90.66000 5.618
90.68000 6.565
90.70000 2.424
90.72000 0.601
90.74000 -1.130
90.76000 2.027
90.78000 4.397
90.80000 3.846
90.82000 1.210
90.84000 0.207
90.86000 4.620
90.88000 2.400
90.90000 1.965
90.92000 8.240
90.94000 4.899
90.96000 1.649
90.98000 -2.221
91.00000 1.181
91.02000 4.728
91.04000 7.501
91.06000 3.773
91.08000 2.432
91.10000 3.808
91.12000 2.041
91.14000 4.418
91.16000 7.120
91.18000 7.814
91.20000 4.148
91.22000 4.220
91.24000 2.541
91.26000 0.807
91.28000 2.254
91.30000 8.492
91.32000 7.973
91.34000 9.704
91.36000 9.858
91.38000 5.451
91.40000 1.549
91.42000 3.661
91.44000 4.560
91.46000 1.734
91.48000 -1.178
91.50000 -2.229
91.52000 4.215
91.54000 0.307
91.56000 -1.622
91.58000 -0.521
91.60000 -0.125
91.62000 -0.908
91.64000 4.348
91.66000 7.093
91.68000 6.315
91.70000 3.506
91.72000 5.743
91.74000 5.469
91.76000 -1.130
91.78000 -1.908
91.80000 2.530
91.82000 1.269
91.84000 1.629
91.86000 1.561
91.88000 0.411
91.90000 -1.906
91.92000 -1.674
91.94000 3.881
91.96000 6.533
91.98000 4.391
92.00000 3.792
92.02000 4.173
92.04000 4.497
92.06000 6.119
92.08000 3.971
92.10000 7.643
92.12000 2.679
92.14000 5.098
92.16000 5.438
92.18000 5.873
92.20000 3.069
92.22000 4.864
92.24000 7.266
92.26000 0.878
92.28000 3.530
92.30000 4.810
92.32000 3.982
92.34000 1.025
92.36000 2.814
92.38000 -0.122
92.40000 0.282
92.42000 -0.233
92.44000 -0.553
92.46000 -1.137
92.48000 2.253
92.50000 -0.599
92.52000 3.684
92.54000 7.352
92.56000 5.915
92.58000 3.111
92.60000 8.037
92.62000 5.228
92.64000 6.849
92.66000 7.608
92.68000 7.094
92.70000 7.773
92.72000 4.595
92.74000 6.580
92.76000 3.041
92.78000 -0.854
92.80000 4.149
92.82000 2.732
92.84000 3.755
92.86000 4.232
92.88000 7.681
92.90000 2.013
92.92000 3.608
92.94000 2.435
92.96000 2.148
92.98000 0.200
93.00000 -1.495
93.02000 -2.231
93.04000 2.789
93.06000 -0.797
93.08000 3.532
93.10000 8.110
93.12000 6.871
93.14000 4.524
93.16000 2.675
93.18000 5.947
93.20000 5.084
93.22000 5.531
93.24000 5.387
93.26000 4.119
93.28000 3.795
93.30000 3.573
93.32000 3.499
93.34000 6.724
93.36000 1.795
93.38000 0.894
93.40000 2.677
93.42000 5.486
93.44000 6.775
93.46000 10.895
93.48000 4.473
93.50000 -2.203
93.52000 3.243
93.54000 5.120
93.56000 4.829
93.58000 3.814
93.60000 4.969
93.62000 8.022
93.64000 15.016
93.66000 9.995
93.68000 4.924
93.70000 -0.324
93.72000 2.970
93.74000 7.714
93.76000 2.327
93.78000 0.339
93.80000 0.777
93.82000 6.653
93.84000 4.625
93.86000 1.144
93.88000 5.160
93.90000 9.644
93.92000 3.792
93.94000 6.295
93.96000 1.761
93.98000 -1.373
94.00000 4.987
94.02000 8.330
94.04000 6.711
94.06000 1.890
94.08000 7.047
94.10000 9.375
94.12000 6.490
94.14000 4.186
94.16000 -0.163
94.18000 5.685
94.20000 6.360
94.22000 3.313
94.24000 6.560
94.26000 4.526
94.28000 2.112
94.30000 4.118
94.32000 4.397
94.34000 5.721
94.36000 6.254
94.38000 1.668
94.40000 -0.509
94.42000 3.928
94.44000 1.717
94.46000 1.884
94.48000 0.534
94.50000 3.943
94.52000 4.646
94.54000 3.041
94.56000 2.456
94.58000 4.865
94.60000 3.768
94.62000 3.881
94.64000 5.796
94.66000 9.779
94.68000 5.306
94.70000 -0.205
94.72000 -2.231
94.74000 3.401
94.76000 -0.410
94.78000 0.498
94.80000 -1.964
94.82000 -1.333
94.84000 -1.141
94.86000 4.453
94.88000 6.492
94.90000 5.540
94.92000 2.748
94.94000 3.523
94.96000 7.329
94.98000 4.259
95.00000 5.692
95.02000 9.146
95.04000 7.448
95.06000 7.768
95.08000 8.418
95.10000 6.723
95.12000 4.835
95.14000 6.093
95.16000 4.388
95.18000 4.151
95.20000 3.713
95.22000 5.938
95.24000 2.598
95.26000 1.845
95.28000 2.203
95.30000 1.514
95.32000 0.331
95.34000 -0.286
95.36000 1.002
95.38000 8.497
95.40000 5.596
95.42000 0.722
95.44000 -1.601
95.46000 -0.987
95.48000 4.296
95.50000 5.950
95.52000 5.870
95.54000 5.502
95.56000 0.335
95.58000 5.781
95.60000 5.065
95.62000 1.541
95.64000 -1.680
95.66000 4.001
95.68000 3.755
95.70000 3.247
95.72000 6.355
95.74000 5.589
95.76000 -0.994
95.78000 -2.037
95.80000 3.499
95.82000 2.060
95.84000 2.565
95.86000 4.722
95.88000 6.159
95.90000 5.957
95.92000 6.466
95.94000 5.173
95.96000 2.858
95.98000 1.483
96.00000 3.806
96.02000 5.398
96.04000 5.419
96.06000 5.130
96.08000 -1.557
96.10000 3.729
96.12000 12.878
96.14000 6.756
96.16000 7.489
96.18000 7.825
96.20000 9.362
96.22000 5.584
96.24000 1.322
96.26000 -2.235
96.28000 -2.042
96.30000 0.134
96.32000 6.228
96.34000 7.636
96.36000 1.474
96.38000 2.265
96.40000 0.572
96.42000 -2.065
96.44000 2.917
96.46000 1.904
96.48000 4.501
96.50000 2.769
96.52000 2.952
96.54000 2.697
96.56000 4.278
96.58000 6.409
96.60000 5.585
96.62000 0.712
96.64000 6.201
96.66000 12.912
96.68000 9.784
96.70000 9.190
96.72000 5.094
96.74000 0.350
96.76000 0.601
96.78000 4.509
96.80000 7.584
96.82000 1.833
96.84000 2.035
96.86000 10.315
96.88000 6.962
96.90000 1.591
96.92000 -1.919
96.94000 0.549
96.96000 2.623
96.98000 5.940
97.00000 0.398
97.02000 0.596
97.04000 1.965
97.06000 8.416
97.08000 11.098
97.10000 9.498
97.12000 6.487
97.14000 -2.214
97.16000 -1.774
97.18000 3.131
97.20000 8.156
97.22000 11.262
97.24000 8.855
97.26000 4.507
97.28000 2.567
97.30000 5.123
97.32000 0.288
97.34000 5.559
97.36000 6.672
97.38000 5.360
97.40000 7.467
97.42000 5.813
97.44000 4.937
97.46000 8.351
97.48000 4.298
97.50000 3.987
97.52000 8.873
97.54000 12.625
97.56000 10.381
97.58000 9.655
97.60000 10.250
97.62000 4.612
97.64000 3.887
97.66000 0.508
97.68000 2.377
97.70000 6.422
97.72000 6.647
97.74000 7.720
97.76000 3.876
97.78000 6.183
97.80000 3.213
97.82000 9.110
97.84000 14.364
97.86000 10.292
97.88000 5.912
97.90000 5.350
97.92000 8.823
97.94000 3.818
97.96000 7.409
97.98000 4.251
98.00000 0.767
98.02000 7.644
98.04000 4.434
98.06000 -3.000
98.08000 6.403
98.10000 8.100
98.12000 11.573
98.14000 10.472
98.16000 6.338
98.18000 6.920
98.20000 11.705
98.22000 11.780
98.24000 10.377
98.26000 4.244
98.28000 2.223
98.30000 17.060
98.32000 14.993
98.34000 8.823
98.36000 6.940
98.38000 7.412
98.40000 6.753
98.42000 2.169
98.44000 5.815
98.46000 16.663
98.48000 6.911
98.50000 7.303
98.52000 15.900
98.54000 7.226
98.56000 6.574
98.58000 2.337
98.60000 -1.115
98.62000 2.492
98.64000 9.528
98.66000 15.435
98.68000 8.103
98.70000 12.417
98.72000 6.087
98.74000 5.899
98.76000 3.014
98.78000 1.281
98.80000 -1.559
98.82000 1.364
98.84000 5.972
98.86000 6.198
98.88000 5.499
98.90000 7.557
98.92000 13.741
98.94000 0.002
98.96000 5.583
98.98000 10.421
99.00000 11.417
99.02000 3.257
99.04000 6.680
99.06000 9.195
99.08000 7.839
99.10000 3.042
99.12000 6.098
99.14000 11.300
99.16000 10.989
99.18000 7.614
99.20000 6.294
99.22000 9.627
99.24000 9.704
99.26000 4.632
99.28000 9.562
99.30000 2.093
99.32000 1.232
99.34000 1.605
99.36000 3.193
99.38000 0.169
99.40000 -2.112
99.42000 -0.410
99.44000 0.531
99.46000 8.567
99.48000 7.013
99.50000 18.341
99.52000 12.496
99.54000 14.855
99.56000 16.660
99.58000 15.243
99.60000 3.182
99.62000 1.367
99.64000 12.830
99.66000 14.315
99.68000 9.785
99.70000 -0.537
99.72000 -2.338
99.74000 14.511
99.76000 17.233
99.78000 13.143
99.80000 1.938
99.82000 4.953
99.84000 8.968
99.86000 8.896
99.88000 14.018
99.90000 24.367
99.92000 13.666
99.94000 9.448
99.96000 8.978
99.98000 0.000
