'Id: "0011387" Comment: "Integrate frame 0011387_Au-Ir-Rh_Rh-rich_XRD-Mapping-126-0000.gfrmwith cursor Wedge Cursor #5" Operator: "B?rgel" Anode: "Cu" Wavelength: "1.5406" Scantype: "2Theta (TwoTheta)" TimePerStep: "1" X: "4.5" Y: "-9" Z: "5.95" 
10.00000 0.000
10.02000 14.133
10.04000 11.301
10.06000 10.127
10.08000 24.963
10.10000 24.572
10.12000 15.557
10.14000 29.040
10.16000 35.008
10.18000 25.614
10.20000 13.735
10.22000 10.240
10.24000 14.798
10.26000 13.084
10.28000 32.758
10.30000 18.854
10.32000 6.830
10.34000 18.178
10.36000 2.752
10.38000 11.675
10.40000 16.326
10.42000 25.364
10.44000 22.090
10.46000 16.446
10.48000 12.193
10.50000 21.866
10.52000 9.491
10.54000 14.691
10.56000 24.667
10.58000 32.441
10.60000 24.456
10.62000 25.968
10.64000 16.261
10.66000 18.333
10.68000 20.591
10.70000 29.132
10.72000 28.730
10.74000 30.277
10.76000 31.958
10.78000 17.170
10.80000 19.477
10.82000 11.741
10.84000 19.228
10.86000 22.339
10.88000 34.541
10.90000 23.497
10.92000 7.631
10.94000 20.495
10.96000 28.384
10.98000 21.098
11.00000 17.703
11.02000 16.452
11.04000 20.063
11.06000 28.100
11.08000 25.206
11.10000 13.981
11.12000 17.147
11.14000 11.743
11.16000 9.093
11.18000 7.981
11.20000 11.024
11.22000 16.480
11.24000 17.369
11.26000 16.536
11.28000 26.296
11.30000 27.766
11.32000 16.754
11.34000 6.215
11.36000 3.825
11.38000 2.290
11.40000 17.841
11.42000 13.455
11.44000 9.345
11.46000 7.973
11.48000 15.746
11.50000 6.187
11.52000 8.141
11.54000 11.716
11.56000 10.253
11.58000 18.555
11.60000 12.685
11.62000 22.938
11.64000 24.254
11.66000 23.586
11.68000 17.693
11.70000 18.996
11.72000 13.765
11.74000 20.953
11.76000 24.542
11.78000 27.311
11.80000 16.790
11.82000 16.938
11.84000 12.182
11.86000 14.295
11.88000 10.483
11.90000 11.983
11.92000 17.697
11.94000 28.208
11.96000 31.114
11.98000 5.158
12.00000 7.736
12.02000 15.505
12.04000 11.200
12.06000 18.949
12.08000 23.203
12.10000 25.608
12.12000 22.332
12.14000 20.063
12.16000 23.794
12.18000 14.570
12.20000 16.888
12.22000 14.175
12.24000 18.353
12.26000 15.592
12.28000 9.326
12.30000 15.609
12.32000 17.145
12.34000 12.289
12.36000 13.055
12.38000 15.343
12.40000 18.754
12.42000 24.945
12.44000 14.641
12.46000 14.206
12.48000 20.471
12.50000 11.578
12.52000 12.768
12.54000 31.318
12.56000 23.943
12.58000 22.116
12.60000 19.754
12.62000 23.491
12.64000 20.083
12.66000 18.563
12.68000 14.882
12.70000 14.628
12.72000 19.721
12.74000 18.437
12.76000 19.211
12.78000 24.511
12.80000 16.437
12.82000 10.450
12.84000 19.698
12.86000 21.791
12.88000 33.886
12.90000 17.273
12.92000 10.872
12.94000 17.230
12.96000 23.430
12.98000 23.512
13.00000 12.604
13.02000 20.861
13.04000 23.233
13.06000 19.709
13.08000 22.750
13.10000 22.961
13.12000 29.384
13.14000 22.674
13.16000 17.210
13.18000 22.843
13.20000 15.704
13.22000 12.959
13.24000 15.783
13.26000 20.508
13.28000 34.636
13.30000 25.282
13.32000 6.149
13.34000 10.404
13.36000 21.198
13.38000 26.751
13.40000 29.502
13.42000 26.820
13.44000 10.327
13.46000 16.782
13.48000 14.140
13.50000 12.106
13.52000 12.118
13.54000 9.174
13.56000 16.175
13.58000 16.596
13.60000 21.410
13.62000 22.008
13.64000 18.374
13.66000 18.851
13.68000 13.467
13.70000 13.352
13.72000 11.961
13.74000 18.442
13.76000 21.843
13.78000 22.645
13.80000 11.871
13.82000 17.528
13.84000 8.900
13.86000 -1.926
13.88000 6.242
13.90000 10.977
13.92000 18.626
13.94000 9.183
13.96000 8.765
13.98000 17.256
14.00000 14.735
14.02000 12.899
14.04000 13.006
14.06000 11.686
14.08000 25.906
14.10000 18.651
14.12000 12.284
14.14000 16.488
14.16000 18.532
14.18000 16.531
14.20000 9.581
14.22000 4.887
14.24000 6.246
14.26000 10.015
14.28000 5.218
14.30000 2.759
14.32000 9.692
14.34000 20.148
14.36000 17.545
14.38000 3.070
14.40000 13.041
14.42000 16.352
14.44000 25.838
14.46000 21.439
14.48000 14.398
14.50000 13.509
14.52000 10.548
14.54000 14.004
14.56000 16.813
14.58000 20.015
14.60000 16.861
14.62000 6.139
14.64000 9.662
14.66000 6.906
14.68000 3.207
14.70000 3.411
14.72000 2.681
14.74000 2.072
14.76000 3.340
14.78000 10.261
14.80000 11.855
14.82000 5.934
14.84000 9.534
14.86000 13.546
14.88000 13.118
14.90000 12.741
14.92000 4.647
14.94000 4.321
14.96000 3.782
14.98000 10.840
15.00000 25.445
15.02000 10.931
15.04000 -1.594
15.06000 2.237
15.08000 6.586
15.10000 11.211
15.12000 14.717
15.14000 13.703
15.16000 5.922
15.18000 4.604
15.20000 13.454
15.22000 17.607
15.24000 10.466
15.26000 5.542
15.28000 5.062
15.30000 7.248
15.32000 12.605
15.34000 12.729
15.36000 14.437
15.38000 9.945
15.40000 -4.383
15.42000 2.687
15.44000 10.734
15.46000 18.775
15.48000 11.347
15.50000 2.699
15.52000 3.632
15.54000 1.136
15.56000 4.317
15.58000 5.199
15.60000 12.512
15.62000 13.831
15.64000 13.645
15.66000 5.404
15.68000 -0.329
15.70000 5.261
15.72000 13.516
15.74000 15.282
15.76000 16.343
15.78000 18.838
15.80000 15.809
15.82000 11.074
15.84000 9.364
15.86000 2.596
15.88000 0.695
15.90000 6.399
15.92000 -0.493
15.94000 -2.931
15.96000 6.664
15.98000 10.414
16.00000 12.754
16.02000 9.349
16.04000 7.037
16.06000 6.353
16.08000 7.650
16.10000 6.159
16.12000 4.801
16.14000 10.165
16.16000 18.487
16.18000 10.439
16.20000 13.084
16.22000 12.433
16.24000 6.259
16.26000 15.642
16.28000 17.286
16.30000 7.016
16.32000 11.131
16.34000 3.103
16.36000 8.139
16.38000 -0.665
16.40000 2.044
16.42000 7.249
16.44000 7.770
16.46000 6.440
16.48000 7.256
16.50000 4.703
16.52000 1.654
16.54000 4.826
16.56000 0.367
16.58000 -2.134
16.60000 6.079
16.62000 4.884
16.64000 -2.739
16.66000 0.144
16.68000 14.352
16.70000 15.990
16.72000 11.695
16.74000 13.587
16.76000 15.386
16.78000 10.847
16.80000 1.344
16.82000 -2.935
16.84000 -4.357
16.86000 -1.258
16.88000 -0.254
16.90000 6.978
16.92000 8.665
16.94000 1.664
16.96000 10.185
16.98000 17.868
17.00000 9.240
17.02000 11.590
17.04000 14.190
17.06000 11.157
17.08000 15.465
17.10000 13.336
17.12000 6.242
17.14000 7.124
17.16000 17.767
17.18000 10.833
17.20000 1.988
17.22000 5.541
17.24000 3.491
17.26000 1.481
17.28000 4.270
17.30000 7.784
17.32000 7.833
17.34000 10.951
17.36000 4.764
17.38000 1.912
17.40000 5.624
17.42000 9.426
17.44000 6.436
17.46000 0.391
17.48000 3.742
17.50000 8.874
17.52000 3.559
17.54000 6.192
17.56000 6.886
17.58000 11.453
17.60000 12.394
17.62000 10.367
17.64000 5.792
17.66000 4.726
17.68000 5.924
17.70000 7.127
17.72000 4.949
17.74000 13.093
17.76000 18.020
17.78000 10.825
17.80000 -0.958
17.82000 -0.379
17.84000 0.691
17.86000 0.717
17.88000 -2.408
17.90000 4.641
17.92000 7.233
17.94000 4.028
17.96000 6.344
17.98000 7.595
18.00000 2.751
18.02000 -1.695
18.04000 0.906
18.06000 5.029
18.08000 5.387
18.10000 1.169
18.12000 4.644
18.14000 0.877
18.16000 5.872
18.18000 9.240
18.20000 9.104
18.22000 10.251
18.24000 12.973
18.26000 3.102
18.28000 3.212
18.30000 8.122
18.32000 0.154
18.34000 4.625
18.36000 5.368
18.38000 0.198
18.40000 -1.220
18.42000 -1.272
18.44000 4.647
18.46000 7.123
18.48000 5.316
18.50000 5.444
18.52000 -0.829
18.54000 5.333
18.56000 5.109
18.58000 -2.205
18.60000 -2.262
18.62000 1.789
18.64000 5.494
18.66000 5.883
18.68000 11.835
18.70000 11.882
18.72000 8.833
18.74000 3.796
18.76000 3.681
18.78000 -0.666
18.80000 -2.208
18.82000 0.411
18.84000 6.521
18.86000 2.557
18.88000 2.105
18.90000 3.756
18.92000 4.997
18.94000 11.902
18.96000 11.812
18.98000 10.563
19.00000 11.031
19.02000 11.365
19.04000 1.176
19.06000 2.805
19.08000 5.417
19.10000 4.562
19.12000 1.013
19.14000 -4.226
19.16000 5.445
19.18000 5.662
19.20000 3.209
19.22000 0.648
19.24000 -0.204
19.26000 6.912
19.28000 9.870
19.30000 3.123
19.32000 3.190
19.34000 10.776
19.36000 9.987
19.38000 10.114
19.40000 13.055
19.42000 10.842
19.44000 8.683
19.46000 4.966
19.48000 7.412
19.50000 8.245
19.52000 1.769
19.54000 14.144
19.56000 10.105
19.58000 5.718
19.60000 -2.201
19.62000 0.860
19.64000 -3.219
19.66000 -0.726
19.68000 1.172
19.70000 3.730
19.72000 1.665
19.74000 -3.734
19.76000 -1.039
19.78000 0.537
19.80000 3.780
19.82000 6.773
19.84000 4.379
19.86000 4.212
19.88000 9.458
19.90000 6.567
19.92000 3.068
19.94000 -3.293
19.96000 7.741
19.98000 4.188
20.00000 -3.106
20.02000 3.803
20.04000 4.520
20.06000 2.593
20.08000 5.298
20.10000 6.331
20.12000 6.614
20.14000 14.684
20.16000 5.459
20.18000 3.985
20.20000 9.452
20.22000 10.345
20.24000 7.939
20.26000 7.518
20.28000 10.998
20.30000 11.374
20.32000 7.224
20.34000 1.158
20.36000 5.162
20.38000 2.158
20.40000 3.603
20.42000 4.206
20.44000 0.166
20.46000 -0.658
20.48000 -4.175
20.50000 6.666
20.52000 1.792
20.54000 2.368
20.56000 2.748
20.58000 9.608
20.60000 12.461
20.62000 8.033
20.64000 4.329
20.66000 8.673
20.68000 0.972
20.70000 0.140
20.72000 -0.044
20.74000 9.278
20.76000 -0.607
20.78000 -4.160
20.80000 -3.486
20.82000 1.795
20.84000 1.544
20.86000 1.324
20.88000 3.166
20.90000 8.314
20.92000 7.146
20.94000 5.435
20.96000 10.354
20.98000 6.708
21.00000 7.345
21.02000 8.517
21.04000 12.861
21.06000 5.939
21.08000 3.743
21.10000 4.470
21.12000 5.276
21.14000 3.220
21.16000 -3.577
21.18000 3.346
21.20000 3.201
21.22000 7.089
21.24000 6.434
21.26000 1.508
21.28000 2.826
21.30000 4.355
21.32000 9.107
21.34000 3.663
21.36000 -1.270
21.38000 -1.501
21.40000 2.169
21.42000 2.711
21.44000 8.502
21.46000 9.438
21.48000 6.973
21.50000 -1.055
21.52000 1.675
21.54000 4.622
21.56000 2.769
21.58000 6.990
21.60000 6.028
21.62000 6.142
21.64000 0.579
21.66000 3.218
21.68000 1.066
21.70000 -2.010
21.72000 2.194
21.74000 5.664
21.76000 5.758
21.78000 2.859
21.80000 -0.023
21.82000 5.133
21.84000 5.469
21.86000 5.154
21.88000 2.981
21.90000 1.924
21.92000 0.056
21.94000 2.078
21.96000 5.803
21.98000 5.331
22.00000 2.536
22.02000 4.364
22.04000 0.515
22.06000 -3.274
22.08000 2.373
22.10000 -0.538
22.12000 6.281
22.14000 8.590
22.16000 4.073
22.18000 1.210
22.20000 7.318
22.22000 5.641
22.24000 8.257
22.26000 8.242
22.28000 6.071
22.30000 -1.875
22.32000 -3.359
22.34000 0.294
22.36000 -1.169
22.38000 1.659
22.40000 5.065
22.42000 0.791
22.44000 0.968
22.46000 -0.790
22.48000 -4.063
22.50000 -3.097
22.52000 3.954
22.54000 6.044
22.56000 5.075
22.58000 9.036
22.60000 4.988
22.62000 8.365
22.64000 9.915
22.66000 6.579
22.68000 2.170
22.70000 3.787
22.72000 5.455
22.74000 1.819
22.76000 0.903
22.78000 4.807
22.80000 5.988
22.82000 5.965
22.84000 2.297
22.86000 1.123
22.88000 6.476
22.90000 12.860
22.92000 12.436
22.94000 10.230
22.96000 14.386
22.98000 5.836
23.00000 2.803
23.02000 2.223
23.04000 1.127
23.06000 7.798
23.08000 7.958
23.10000 8.834
23.12000 9.954
23.14000 11.508
23.16000 6.140
23.18000 4.319
23.20000 5.911
23.22000 7.180
23.24000 9.094
23.26000 8.746
23.28000 6.894
23.30000 5.312
23.32000 1.974
23.34000 -3.990
23.36000 -3.492
23.38000 0.531
23.40000 4.989
23.42000 11.573
23.44000 8.502
23.46000 9.938
23.48000 5.319
23.50000 10.782
23.52000 9.307
23.54000 13.759
23.56000 7.478
23.58000 4.420
23.60000 8.402
23.62000 5.345
23.64000 0.516
23.66000 2.512
23.68000 3.025
23.70000 7.878
23.72000 9.301
23.74000 5.772
23.76000 8.034
23.78000 10.707
23.80000 11.481
23.82000 11.845
23.84000 6.946
23.86000 4.266
23.88000 5.224
23.90000 5.831
23.92000 10.022
23.94000 10.121
23.96000 9.831
23.98000 5.800
24.00000 5.926
24.02000 4.994
24.04000 6.580
24.06000 3.078
24.08000 1.043
24.10000 2.080
24.12000 -1.281
24.14000 0.851
24.16000 4.405
24.18000 7.044
24.20000 5.923
24.22000 12.735
24.24000 -0.343
24.26000 -1.872
24.28000 0.343
24.30000 -3.939
24.32000 2.520
24.34000 1.709
24.36000 6.588
24.38000 6.534
24.40000 1.422
24.42000 5.707
24.44000 3.941
24.46000 3.793
24.48000 5.161
24.50000 4.712
24.52000 8.263
24.54000 6.465
24.56000 4.822
24.58000 4.601
24.60000 10.449
24.62000 5.870
24.64000 -0.401
24.66000 0.177
24.68000 1.014
24.70000 6.320
24.72000 5.438
24.74000 4.080
24.76000 7.055
24.78000 3.566
24.80000 1.861
24.82000 4.524
24.84000 9.190
24.86000 9.574
24.88000 6.707
24.90000 7.183
24.92000 8.856
24.94000 6.618
24.96000 3.390
24.98000 3.481
25.00000 0.887
25.02000 4.405
25.04000 6.472
25.06000 -1.014
25.08000 -2.154
25.10000 3.338
25.12000 5.284
25.14000 6.903
25.16000 8.116
25.18000 6.011
25.20000 4.820
25.22000 6.020
25.24000 6.977
25.26000 13.238
25.28000 7.257
25.30000 4.369
25.32000 5.956
25.34000 3.813
25.36000 6.240
25.38000 8.289
25.40000 5.815
25.42000 8.696
25.44000 10.233
25.46000 11.975
25.48000 10.922
25.50000 3.101
25.52000 3.825
25.54000 6.673
25.56000 8.183
25.58000 0.046
25.60000 6.958
25.62000 8.039
25.64000 -0.492
25.66000 -3.841
25.68000 -2.363
25.70000 4.756
25.72000 7.426
25.74000 10.158
25.76000 10.610
25.78000 12.899
25.80000 11.481
25.82000 11.773
25.84000 3.411
25.86000 5.837
25.88000 1.698
25.90000 3.414
25.92000 9.113
25.94000 6.549
25.96000 7.169
25.98000 4.585
26.00000 1.395
26.02000 1.812
26.04000 1.402
26.06000 -1.457
26.08000 3.950
26.10000 4.669
26.12000 1.163
26.14000 3.844
26.16000 9.864
26.18000 6.068
26.20000 -0.297
26.22000 2.226
26.24000 1.404
26.26000 5.712
26.28000 8.623
26.30000 1.775
26.32000 -0.998
26.34000 -1.175
26.36000 2.722
26.38000 8.902
26.40000 1.031
26.42000 0.506
26.44000 2.918
26.46000 9.193
26.48000 9.139
26.50000 5.779
26.52000 0.807
26.54000 2.261
26.56000 3.339
26.58000 6.013
26.60000 4.898
26.62000 1.650
26.64000 1.978
26.66000 -0.806
26.68000 2.872
26.70000 -0.062
26.72000 0.648
26.74000 4.567
26.76000 3.340
26.78000 -0.657
26.80000 4.417
26.82000 -0.027
26.84000 -0.039
26.86000 -2.160
26.88000 -3.714
26.90000 -3.843
26.92000 0.683
26.94000 0.029
26.96000 -3.073
26.98000 -0.701
27.00000 1.101
27.02000 4.758
27.04000 5.772
27.06000 -2.645
27.08000 -2.916
27.10000 3.114
27.12000 1.445
27.14000 2.554
27.16000 4.357
27.18000 3.556
27.20000 -0.747
27.22000 -0.187
27.24000 0.724
27.26000 2.121
27.28000 2.119
27.30000 1.621
27.32000 0.827
27.34000 1.445
27.36000 1.200
27.38000 4.027
27.40000 8.843
27.42000 6.427
27.44000 5.258
27.46000 0.025
27.48000 1.647
27.50000 4.650
27.52000 2.078
27.54000 3.591
27.56000 2.041
27.58000 -1.021
27.60000 -2.120
27.62000 -0.090
27.64000 2.190
27.66000 -0.130
27.68000 -0.540
27.70000 4.449
27.72000 6.977
27.74000 -0.292
27.76000 0.989
27.78000 -1.873
27.80000 3.293
27.82000 2.628
27.84000 -3.198
27.86000 0.627
27.88000 3.743
27.90000 0.426
27.92000 0.099
27.94000 -3.423
27.96000 -3.788
27.98000 3.054
28.00000 5.799
28.02000 0.411
28.04000 0.797
28.06000 5.245
28.08000 3.277
28.10000 -0.513
28.12000 2.802
28.14000 1.568
28.16000 6.190
28.18000 4.664
28.20000 7.530
28.22000 2.442
28.24000 2.924
28.26000 3.683
28.28000 0.433
28.30000 -3.404
28.32000 0.076
28.34000 7.814
28.36000 0.424
28.38000 -3.003
28.40000 -0.148
28.42000 4.326
28.44000 1.272
28.46000 -0.081
28.48000 2.041
28.50000 1.765
28.52000 -0.808
28.54000 2.452
28.56000 0.160
28.58000 6.238
28.60000 7.120
28.62000 2.161
28.64000 1.765
28.66000 4.071
28.68000 2.342
28.70000 -0.726
28.72000 3.469
28.74000 3.779
28.76000 2.140
28.78000 3.500
28.80000 5.618
28.82000 1.671
28.84000 4.536
28.86000 2.038
28.88000 0.550
28.90000 2.545
28.92000 2.740
28.94000 1.448
28.96000 -3.710
28.98000 -1.104
29.00000 1.419
29.02000 4.182
29.04000 7.337
29.06000 -0.645
29.08000 2.401
29.10000 3.699
29.12000 1.509
29.14000 0.132
29.16000 0.240
29.18000 -0.860
29.20000 -1.033
29.22000 5.372
29.24000 4.498
29.26000 3.308
29.28000 2.240
29.30000 0.325
29.32000 -0.891
29.34000 2.309
29.36000 1.715
29.38000 1.789
29.40000 3.968
29.42000 3.938
29.44000 4.123
29.46000 2.759
29.48000 4.663
29.50000 -2.671
29.52000 -1.101
29.54000 -2.201
29.56000 2.631
29.58000 7.269
29.60000 9.741
29.62000 6.102
29.64000 4.797
29.66000 5.117
29.68000 2.858
29.70000 4.112
29.72000 6.815
29.74000 4.945
29.76000 9.820
29.78000 7.874
29.80000 5.356
29.82000 9.124
29.84000 3.733
29.86000 1.534
29.88000 4.215
29.90000 4.763
29.92000 4.837
29.94000 6.274
29.96000 5.797
29.98000 3.621
30.00000 9.338
30.02000 7.112
30.04000 5.383
30.06000 4.492
30.08000 7.165
30.10000 8.227
30.12000 3.624
30.14000 8.137
30.16000 12.176
30.18000 8.510
30.20000 8.753
30.22000 7.953
30.24000 9.569
30.26000 2.026
30.28000 -3.595
30.30000 2.586
30.32000 6.956
30.34000 7.580
30.36000 3.210
30.38000 5.411
30.40000 6.788
30.42000 4.843
30.44000 9.444
30.46000 8.780
30.48000 4.351
30.50000 5.416
30.52000 5.199
30.54000 8.612
30.56000 8.762
30.58000 7.909
30.60000 8.415
30.62000 6.919
30.64000 4.488
30.66000 8.123
30.68000 9.177
30.70000 9.537
30.72000 10.355
30.74000 7.700
30.76000 6.213
30.78000 5.287
30.80000 5.227
30.82000 4.948
30.84000 4.752
30.86000 3.223
30.88000 5.465
30.90000 8.325
30.92000 5.431
30.94000 -1.203
30.96000 2.472
30.98000 2.565
31.00000 -2.045
31.02000 7.006
31.04000 10.599
31.06000 6.912
31.08000 4.412
31.10000 6.676
31.12000 7.304
31.14000 4.220
31.16000 0.905
31.18000 -2.234
31.20000 1.498
31.22000 -2.020
31.24000 0.080
31.26000 3.521
31.28000 0.796
31.30000 2.161
31.32000 7.660
31.34000 5.040
31.36000 5.033
31.38000 2.800
31.40000 3.277
31.42000 2.895
31.44000 4.603
31.46000 4.776
31.48000 3.842
31.50000 1.248
31.52000 4.059
31.54000 1.841
31.56000 1.717
31.58000 3.120
31.60000 7.049
31.62000 4.642
31.64000 6.451
31.66000 4.110
31.68000 2.272
31.70000 3.629
31.72000 4.684
31.74000 6.199
31.76000 9.132
31.78000 8.751
31.80000 7.615
31.82000 6.633
31.84000 4.311
31.86000 1.455
31.88000 3.313
31.90000 2.993
31.92000 2.809
31.94000 4.146
31.96000 0.717
31.98000 1.163
32.00000 4.669
32.02000 1.020
32.04000 -0.765
32.06000 -1.793
32.08000 2.870
32.10000 3.831
32.12000 7.458
32.14000 4.486
32.16000 0.865
32.18000 3.896
32.20000 4.952
32.22000 3.181
32.24000 5.269
32.26000 5.402
32.28000 2.845
32.30000 8.191
32.32000 1.756
32.34000 4.490
32.36000 6.942
32.38000 1.433
32.40000 -3.540
32.42000 -1.008
32.44000 3.815
32.46000 0.673
32.48000 2.719
32.50000 5.676
32.52000 4.995
32.54000 2.260
32.56000 1.264
32.58000 3.170
32.60000 3.363
32.62000 3.040
32.64000 2.155
32.66000 -1.810
32.68000 0.738
32.70000 7.717
32.72000 7.157
32.74000 3.785
32.76000 3.801
32.78000 6.831
32.80000 5.511
32.82000 1.540
32.84000 1.148
32.86000 2.465
32.88000 -0.759
32.90000 1.081
32.92000 3.723
32.94000 2.930
32.96000 0.217
32.98000 0.438
33.00000 3.440
33.02000 2.181
33.04000 2.588
33.06000 -1.358
33.08000 -3.389
33.10000 -1.572
33.12000 -1.300
33.14000 -3.554
33.16000 0.027
33.18000 7.902
33.20000 6.482
33.22000 -0.665
33.24000 -0.440
33.26000 1.647
33.28000 6.185
33.30000 7.015
33.32000 3.240
33.34000 6.424
33.36000 3.728
33.38000 1.755
33.40000 5.095
33.42000 5.650
33.44000 2.617
33.46000 5.608
33.48000 5.816
33.50000 9.338
33.52000 -0.070
33.54000 -0.637
33.56000 6.581
33.58000 6.267
33.60000 3.678
33.62000 0.646
33.64000 -1.149
33.66000 3.800
33.68000 2.175
33.70000 -1.400
33.72000 3.616
33.74000 2.567
33.76000 1.314
33.78000 2.733
33.80000 5.383
33.82000 1.137
33.84000 0.839
33.86000 1.760
33.88000 -1.949
33.90000 -0.310
33.92000 0.508
33.94000 -0.380
33.96000 0.658
33.98000 -1.533
34.00000 0.929
34.02000 -1.627
34.04000 -3.444
34.06000 -1.598
34.08000 -0.352
34.10000 -1.412
34.12000 -1.040
34.14000 -3.393
34.16000 -0.080
34.18000 -1.601
34.20000 -1.146
34.22000 -3.183
34.24000 -0.514
34.26000 -2.430
34.28000 -2.959
34.30000 -3.124
34.32000 2.746
34.34000 2.178
34.36000 1.845
34.38000 0.545
34.40000 -0.613
34.42000 -0.577
34.44000 1.392
34.46000 1.030
34.48000 3.251
34.50000 5.270
34.52000 10.470
34.54000 7.739
34.56000 3.902
34.58000 0.774
34.60000 -3.531
34.62000 1.639
34.64000 6.224
34.66000 3.759
34.68000 4.712
34.70000 -0.280
34.72000 -0.344
34.74000 2.071
34.76000 1.907
34.78000 0.736
34.80000 -1.669
34.82000 -1.376
34.84000 6.568
34.86000 1.395
34.88000 0.343
34.90000 4.720
34.92000 2.829
34.94000 2.614
34.96000 0.370
34.98000 -0.137
35.00000 0.319
35.02000 -2.073
35.04000 -1.195
35.06000 -2.142
35.08000 3.630
35.10000 7.020
35.12000 2.499
35.14000 -3.496
35.16000 -0.579
35.18000 1.257
35.20000 -1.582
35.22000 1.988
35.24000 3.653
35.26000 3.073
35.28000 3.309
35.30000 4.712
35.32000 0.088
35.34000 -0.103
35.36000 1.159
35.38000 4.248
35.40000 4.404
35.42000 10.934
35.44000 5.470
35.46000 2.271
35.48000 3.571
35.50000 3.970
35.52000 0.513
35.54000 -3.466
35.56000 0.747
35.58000 1.390
35.60000 1.589
35.62000 4.991
35.64000 4.769
35.66000 4.115
35.68000 4.649
35.70000 4.726
35.72000 1.454
35.74000 3.890
35.76000 2.294
35.78000 0.102
35.80000 2.757
35.82000 4.702
35.84000 4.199
35.86000 1.037
35.88000 3.098
35.90000 -1.620
35.92000 -1.119
35.94000 -3.464
35.96000 -0.067
35.98000 5.106
36.00000 1.822
36.02000 -1.878
36.04000 -1.049
36.06000 2.275
36.08000 5.092
36.10000 4.254
36.12000 6.263
36.14000 8.744
36.16000 4.599
36.18000 4.441
36.20000 5.340
36.22000 5.120
36.24000 -1.391
36.26000 -1.001
36.28000 2.698
36.30000 5.484
36.32000 4.976
36.34000 4.684
36.36000 4.606
36.38000 2.112
36.40000 -1.814
36.42000 0.935
36.44000 2.409
36.46000 5.700
36.48000 8.939
36.50000 6.583
36.52000 6.910
36.54000 2.806
36.56000 0.299
36.58000 1.822
36.60000 0.704
36.62000 3.215
36.64000 4.320
36.66000 6.733
36.68000 6.759
36.70000 3.622
36.72000 0.095
36.74000 5.339
36.76000 4.877
36.78000 0.210
36.80000 1.574
36.82000 2.845
36.84000 -0.358
36.86000 3.377
36.88000 10.233
36.90000 6.456
36.92000 3.575
36.94000 5.674
36.96000 1.065
36.98000 -2.077
37.00000 -3.495
37.02000 3.016
37.04000 0.861
37.06000 5.642
37.08000 4.689
37.10000 4.685
37.12000 1.051
37.14000 -3.508
37.16000 -1.445
37.18000 1.155
37.20000 4.351
37.22000 -1.631
37.24000 0.365
37.26000 6.683
37.28000 2.828
37.30000 6.457
37.32000 2.962
37.34000 1.246
37.36000 -0.954
37.38000 -2.737
37.40000 0.777
37.42000 1.664
37.44000 -0.315
37.46000 3.165
37.48000 2.345
37.50000 0.920
37.52000 3.030
37.54000 3.422
37.56000 -1.560
37.58000 -3.548
37.60000 0.132
37.62000 -0.550
37.64000 -2.736
37.66000 -0.668
37.68000 2.223
37.70000 0.780
37.72000 0.931
37.74000 2.466
37.76000 0.129
37.78000 2.405
37.80000 -1.010
37.82000 -2.024
37.84000 1.462
37.86000 1.009
37.88000 3.959
37.90000 4.412
37.92000 2.401
37.94000 1.645
37.96000 1.949
37.98000 5.528
38.00000 11.599
38.02000 8.999
38.04000 6.102
38.06000 4.605
38.08000 5.480
38.10000 9.300
38.12000 7.943
38.14000 11.561
38.16000 10.924
38.18000 14.262
38.20000 11.852
38.22000 10.899
38.24000 10.978
38.26000 11.151
38.28000 14.240
38.30000 17.083
38.32000 14.685
38.34000 17.587
38.36000 19.545
38.38000 14.766
38.40000 15.141
38.42000 13.814
38.44000 15.830
38.46000 21.360
38.48000 13.300
38.50000 12.951
38.52000 19.320
38.54000 20.262
38.56000 14.792
38.58000 16.879
38.60000 13.124
38.62000 17.370
38.64000 18.497
38.66000 17.774
38.68000 22.388
38.70000 24.827
38.72000 20.838
38.74000 18.757
38.76000 21.820
38.78000 21.768
38.80000 23.024
38.82000 27.278
38.84000 22.160
38.86000 19.191
38.88000 25.134
38.90000 27.868
38.92000 28.962
38.94000 29.582
38.96000 28.505
38.98000 31.778
39.00000 33.573
39.02000 33.297
39.04000 37.596
39.06000 31.363
39.08000 34.233
39.10000 33.662
39.12000 39.050
39.14000 44.369
39.16000 45.333
39.18000 42.975
39.20000 47.729
39.22000 50.051
39.24000 54.959
39.26000 60.114
39.28000 58.396
39.30000 54.045
39.32000 54.152
39.34000 57.228
39.36000 65.208
39.38000 61.370
39.40000 61.043
39.42000 65.599
39.44000 73.469
39.46000 81.886
39.48000 80.715
39.50000 84.302
39.52000 89.640
39.54000 92.257
39.56000 98.342
39.58000 101.982
39.60000 109.173
39.62000 114.714
39.64000 124.617
39.66000 126.327
39.68000 139.331
39.70000 141.783
39.72000 152.949
39.74000 157.615
39.76000 161.961
39.78000 177.687
39.80000 192.828
39.82000 201.727
39.84000 211.849
39.86000 222.177
39.88000 232.790
39.90000 253.581
39.92000 277.871
39.94000 296.407
39.96000 315.594
39.98000 329.542
40.00000 347.472
40.02000 366.642
40.04000 397.475
40.06000 414.349
40.08000 432.254
40.10000 461.817
40.12000 498.805
40.14000 522.047
40.16000 553.798
40.18000 578.904
40.20000 607.651
40.22000 636.522
40.24000 658.984
40.26000 689.658
40.28000 710.135
40.30000 729.438
40.32000 758.997
40.34000 778.063
40.36000 792.070
40.38000 810.494
40.40000 832.219
40.42000 826.202
40.44000 839.061
40.46000 837.459
40.48000 823.077
40.50000 837.603
40.52000 837.490
40.54000 815.175
40.56000 796.698
40.58000 786.537
40.60000 778.172
40.62000 770.452
40.64000 751.376
40.66000 718.404
40.68000 693.024
40.70000 668.445
40.72000 650.120
40.74000 616.079
40.76000 589.574
40.78000 576.806
40.80000 548.207
40.82000 514.432
40.84000 487.835
40.86000 465.926
40.88000 437.149
40.90000 418.907
40.92000 406.574
40.94000 387.723
40.96000 370.570
40.98000 349.982
41.00000 327.990
41.02000 307.591
41.04000 292.021
41.06000 276.949
41.08000 257.672
41.10000 242.011
41.12000 227.853
41.14000 214.924
41.16000 206.663
41.18000 199.169
41.20000 189.625
41.22000 179.485
41.24000 162.827
41.26000 152.825
41.28000 149.855
41.30000 147.769
41.32000 139.108
41.34000 133.261
41.36000 120.365
41.38000 116.523
41.40000 111.026
41.42000 106.424
41.44000 99.980
41.46000 94.624
41.48000 88.701
41.50000 85.096
41.52000 82.054
41.54000 75.878
41.56000 69.385
41.58000 65.113
41.60000 69.320
41.62000 67.279
41.64000 61.939
41.66000 59.525
41.68000 56.902
41.70000 54.416
41.72000 49.295
41.74000 48.032
41.76000 48.311
41.78000 45.204
41.80000 44.486
41.82000 40.053
41.84000 37.155
41.86000 38.207
41.88000 38.139
41.90000 34.980
41.92000 31.921
41.94000 28.616
41.96000 29.918
41.98000 31.097
42.00000 33.451
42.02000 28.521
42.04000 22.450
42.06000 19.804
42.08000 25.222
42.10000 22.666
42.12000 18.540
42.14000 24.272
42.16000 24.886
42.18000 20.946
42.20000 16.217
42.22000 11.350
42.24000 12.587
42.26000 13.424
42.28000 11.458
42.30000 8.422
42.32000 11.190
42.34000 8.426
42.36000 11.617
42.38000 11.314
42.40000 12.209
42.42000 8.920
42.44000 10.551
42.46000 10.420
42.48000 5.651
42.50000 2.717
42.52000 9.364
42.54000 10.126
42.56000 8.815
42.58000 8.400
42.60000 6.450
42.62000 6.961
42.64000 4.243
42.66000 3.912
42.68000 7.149
42.70000 5.741
42.72000 7.215
42.74000 6.990
42.76000 7.242
42.78000 4.797
42.80000 5.198
42.82000 3.173
42.84000 3.499
42.86000 4.165
42.88000 2.407
42.90000 3.252
42.92000 6.832
42.94000 4.854
42.96000 4.997
42.98000 6.422
43.00000 3.437
43.02000 2.308
43.04000 1.105
43.06000 0.287
43.08000 -0.320
43.10000 4.840
43.12000 5.254
43.14000 3.070
43.16000 1.086
43.18000 2.742
43.20000 -1.172
43.22000 4.467
43.24000 5.840
43.26000 4.163
43.28000 5.924
43.30000 5.154
43.32000 4.627
43.34000 6.531
43.36000 4.041
43.38000 5.802
43.40000 4.844
43.42000 7.498
43.44000 7.202
43.46000 5.976
43.48000 6.587
43.50000 4.323
43.52000 1.284
43.54000 1.141
43.56000 1.415
43.58000 2.745
43.60000 2.201
43.62000 5.079
43.64000 6.701
43.66000 5.417
43.68000 -1.867
43.70000 -3.355
43.72000 -3.290
43.74000 -0.502
43.76000 3.927
43.78000 2.087
43.80000 -0.991
43.82000 -2.859
43.84000 0.923
43.86000 -0.712
43.88000 0.164
43.90000 2.801
43.92000 6.089
43.94000 3.315
43.96000 1.240
43.98000 0.021
44.00000 -2.771
44.02000 -2.809
44.04000 2.753
44.06000 4.113
44.08000 -0.199
44.10000 -0.509
44.12000 1.175
44.14000 2.270
44.16000 0.268
44.18000 -2.011
44.20000 1.965
44.22000 -0.153
44.24000 0.178
44.26000 -1.326
44.28000 -2.085
44.30000 -3.020
44.32000 -2.481
44.34000 -1.312
44.36000 -1.491
44.38000 -2.728
44.40000 0.762
44.42000 1.031
44.44000 -2.895
44.46000 1.562
44.48000 3.631
44.50000 0.603
44.52000 -0.007
44.54000 2.125
44.56000 1.409
44.58000 1.373
44.60000 -2.059
44.62000 -1.445
44.64000 1.283
44.66000 0.621
44.68000 -2.218
44.70000 -3.304
44.72000 0.993
44.74000 2.169
44.76000 1.899
44.78000 3.134
44.80000 3.526
44.82000 3.485
44.84000 -0.198
44.86000 0.670
44.88000 2.209
44.90000 2.300
44.92000 8.116
44.94000 3.291
44.96000 -0.610
44.98000 -1.919
45.00000 0.958
45.02000 1.953
45.04000 2.247
45.06000 0.357
45.08000 -0.329
45.10000 -1.451
45.12000 2.627
45.14000 3.225
45.16000 2.780
45.18000 0.968
45.20000 -0.587
45.22000 1.184
45.24000 -1.202
45.26000 3.357
45.28000 1.981
45.30000 -0.825
45.32000 6.862
45.34000 6.342
45.36000 5.463
45.38000 8.357
45.40000 6.670
45.42000 2.169
45.44000 2.073
45.46000 0.998
45.48000 4.820
45.50000 5.201
45.52000 5.095
45.54000 5.737
45.56000 9.738
45.58000 11.014
45.60000 5.687
45.62000 7.891
45.64000 11.804
45.66000 12.099
45.68000 12.329
45.70000 11.252
45.72000 10.689
45.74000 9.398
45.76000 12.095
45.78000 11.946
45.80000 10.520
45.82000 12.663
45.84000 16.579
45.86000 13.402
45.88000 11.084
45.90000 13.994
45.92000 17.099
45.94000 15.396
45.96000 13.511
45.98000 18.025
46.00000 24.113
46.02000 24.007
46.04000 22.207
46.06000 20.280
46.08000 23.690
46.10000 29.001
46.12000 31.944
46.14000 28.501
46.16000 31.363
46.18000 30.268
46.20000 29.829
46.22000 30.308
46.24000 37.438
46.26000 37.735
46.28000 40.211
46.30000 44.601
46.32000 47.726
46.34000 48.512
46.36000 47.085
46.38000 50.285
46.40000 58.232
46.42000 55.193
46.44000 61.761
46.46000 61.908
46.48000 63.121
46.50000 66.299
46.52000 71.823
46.54000 73.015
46.56000 77.203
46.58000 79.796
46.60000 76.889
46.62000 81.106
46.64000 85.336
46.66000 91.627
46.68000 97.299
46.70000 98.278
46.72000 101.173
46.74000 101.665
46.76000 113.328
46.78000 114.055
46.80000 112.413
46.82000 121.861
46.84000 124.596
46.86000 124.542
46.88000 126.178
46.90000 131.537
46.92000 136.709
46.94000 135.390
46.96000 136.159
46.98000 138.462
47.00000 138.913
47.02000 143.861
47.04000 150.290
47.06000 144.624
47.08000 135.168
47.10000 135.518
47.12000 137.827
47.14000 137.026
47.16000 135.216
47.18000 140.728
47.20000 144.300
47.22000 140.124
47.24000 126.692
47.26000 126.528
47.28000 125.849
47.30000 118.736
47.32000 116.635
47.34000 114.354
47.36000 105.874
47.38000 111.862
47.40000 109.462
47.42000 102.027
47.44000 100.011
47.46000 92.870
47.48000 94.975
47.50000 90.703
47.52000 86.374
47.54000 82.015
47.56000 80.860
47.58000 75.646
47.60000 71.621
47.62000 71.319
47.64000 65.049
47.66000 57.741
47.68000 52.966
47.70000 51.034
47.72000 51.996
47.74000 55.948
47.76000 52.941
47.78000 52.957
47.80000 45.550
47.82000 42.712
47.84000 41.238
47.86000 41.807
47.88000 36.749
47.90000 36.645
47.92000 34.920
47.94000 34.953
47.96000 33.643
47.98000 29.209
48.00000 29.514
48.02000 25.733
48.04000 22.567
48.06000 21.233
48.08000 21.392
48.10000 18.587
48.12000 22.538
48.14000 20.535
48.16000 16.911
48.18000 15.669
48.20000 13.854
48.22000 11.797
48.24000 16.568
48.26000 14.393
48.28000 12.106
48.30000 11.933
48.32000 8.860
48.34000 8.149
48.36000 8.005
48.38000 7.224
48.40000 2.703
48.42000 6.852
48.44000 7.437
48.46000 4.845
48.48000 0.785
48.50000 5.124
48.52000 7.136
48.54000 10.680
48.56000 3.499
48.58000 4.620
48.60000 5.620
48.62000 2.893
48.64000 0.090
48.66000 0.353
48.68000 3.886
48.70000 3.866
48.72000 0.859
48.74000 -1.352
48.76000 -2.897
48.78000 2.526
48.80000 6.123
48.82000 -0.972
48.84000 0.820
48.86000 5.748
48.88000 6.100
48.90000 1.942
48.92000 0.904
48.94000 2.828
48.96000 3.270
48.98000 3.102
49.00000 0.043
49.02000 1.377
49.04000 2.637
49.06000 1.379
49.08000 4.393
49.10000 -1.836
49.12000 -0.034
49.14000 1.093
49.16000 1.508
49.18000 1.144
49.20000 3.429
49.22000 4.069
49.24000 3.667
49.26000 -2.474
49.28000 -0.248
49.30000 3.184
49.32000 -1.060
49.34000 2.464
49.36000 3.871
49.38000 2.547
49.40000 -0.559
49.42000 -1.140
49.44000 3.271
49.46000 3.890
49.48000 1.597
49.50000 2.167
49.52000 1.997
49.54000 -0.103
49.56000 1.467
49.58000 5.980
49.60000 4.905
49.62000 2.179
49.64000 0.510
49.66000 0.431
49.68000 0.083
49.70000 -2.045
49.72000 2.726
49.74000 -0.345
49.76000 -1.273
49.78000 -1.367
49.80000 2.072
49.82000 0.925
49.84000 0.414
49.86000 0.030
49.88000 3.727
49.90000 4.427
49.92000 5.121
49.94000 3.479
49.96000 7.752
49.98000 7.737
50.00000 4.582
50.02000 6.036
50.04000 3.353
50.06000 1.705
50.08000 1.603
50.10000 1.296
50.12000 0.914
50.14000 5.213
50.16000 5.358
50.18000 1.477
50.20000 3.825
50.22000 7.422
50.24000 5.656
50.26000 2.758
50.28000 2.912
50.30000 -1.466
50.32000 -2.664
50.34000 -0.063
50.36000 3.809
50.38000 6.264
50.40000 3.001
50.42000 2.660
50.44000 1.111
50.46000 1.998
50.48000 1.235
50.50000 4.296
50.52000 3.379
50.54000 4.841
50.56000 4.348
50.58000 1.936
50.60000 3.336
50.62000 1.713
50.64000 -0.073
50.66000 0.065
50.68000 -0.683
50.70000 2.257
50.72000 3.229
50.74000 0.768
50.76000 2.151
50.78000 2.493
50.80000 6.213
50.82000 7.144
50.84000 5.978
50.86000 4.902
50.88000 2.423
50.90000 -0.288
50.92000 0.226
50.94000 1.586
50.96000 1.487
50.98000 7.153
51.00000 8.549
51.02000 3.394
51.04000 0.602
51.06000 1.352
51.08000 1.886
51.10000 0.590
51.12000 4.411
51.14000 4.554
51.16000 3.880
51.18000 -0.032
51.20000 3.082
51.22000 5.079
51.24000 6.867
51.26000 3.768
51.28000 1.152
51.30000 5.576
51.32000 5.362
51.34000 3.499
51.36000 -0.001
51.38000 -2.069
51.40000 2.962
51.42000 -0.563
51.44000 -2.024
51.46000 1.267
51.48000 3.209
51.50000 4.221
51.52000 2.277
51.54000 -0.770
51.56000 -0.819
51.58000 0.991
51.60000 2.421
51.62000 0.858
51.64000 -0.570
51.66000 -2.618
51.68000 -2.455
51.70000 -0.570
51.72000 4.742
51.74000 4.089
51.76000 2.112
51.78000 -1.453
51.80000 -1.461
51.82000 2.663
51.84000 4.208
51.86000 0.858
51.88000 1.086
51.90000 -0.705
51.92000 -1.891
51.94000 -1.494
51.96000 6.725
51.98000 7.266
52.00000 3.316
52.02000 4.575
52.04000 2.481
52.06000 -0.703
52.08000 -0.583
52.10000 -2.615
52.12000 -0.482
52.14000 -0.208
52.16000 -0.383
52.18000 2.345
52.20000 2.599
52.22000 2.382
52.24000 -1.381
52.26000 0.415
52.28000 4.148
52.30000 1.763
52.32000 2.896
52.34000 1.166
52.36000 -0.236
52.38000 -1.085
52.40000 0.466
52.42000 1.115
52.44000 3.543
52.46000 3.516
52.48000 4.304
52.50000 3.105
52.52000 0.950
52.54000 -0.652
52.56000 -0.557
52.58000 1.074
52.60000 2.962
52.62000 3.254
52.64000 4.727
52.66000 -0.083
52.68000 -0.104
52.70000 2.510
52.72000 1.957
52.74000 5.066
52.76000 6.461
52.78000 1.977
52.80000 0.180
52.82000 2.613
52.84000 0.539
52.86000 -0.465
52.88000 0.861
52.90000 1.551
52.92000 1.457
52.94000 1.772
52.96000 0.371
52.98000 -0.643
53.00000 -0.572
53.02000 1.714
53.04000 -1.113
53.06000 0.375
53.08000 4.950
53.10000 -1.007
53.12000 -2.571
53.14000 -0.006
53.16000 2.081
53.18000 1.757
53.20000 1.361
53.22000 0.731
53.24000 -0.417
53.26000 -1.431
53.28000 -1.718
53.30000 1.103
53.32000 6.165
53.34000 5.464
53.36000 5.350
53.38000 2.548
53.40000 -0.576
53.42000 -1.726
53.44000 0.534
53.46000 4.479
53.48000 0.688
53.50000 -2.170
53.52000 1.453
53.54000 3.075
53.56000 3.192
53.58000 4.403
53.60000 3.278
53.62000 2.447
53.64000 1.018
53.66000 2.311
53.68000 1.894
53.70000 2.901
53.72000 4.750
53.74000 1.499
53.76000 0.724
53.78000 2.212
53.80000 0.794
53.82000 -2.549
53.84000 -0.232
53.86000 -2.351
53.88000 -2.255
53.90000 3.118
53.92000 3.575
53.94000 3.423
53.96000 0.827
53.98000 2.294
54.00000 4.524
54.02000 7.013
54.04000 2.638
54.06000 1.299
54.08000 3.377
54.10000 6.919
54.12000 5.300
54.14000 1.924
54.16000 -0.364
54.18000 -1.050
54.20000 -1.360
54.22000 -0.394
54.24000 1.633
54.26000 0.595
54.28000 0.501
54.30000 0.814
54.32000 -1.993
54.34000 2.934
54.36000 7.620
54.38000 6.790
54.40000 3.908
54.42000 5.159
54.44000 1.289
54.46000 2.340
54.48000 4.630
54.50000 6.803
54.52000 3.459
54.54000 3.445
54.56000 4.644
54.58000 -1.399
54.60000 0.095
54.62000 2.262
54.64000 1.329
54.66000 2.036
54.68000 2.232
54.70000 3.133
54.72000 2.107
54.74000 3.065
54.76000 2.278
54.78000 0.023
54.80000 1.665
54.82000 1.493
54.84000 0.545
54.86000 2.616
54.88000 6.688
54.90000 4.488
54.92000 0.320
54.94000 0.245
54.96000 -0.909
54.98000 -0.329
55.00000 1.283
55.02000 4.397
55.04000 7.991
55.06000 5.228
55.08000 1.529
55.10000 4.025
55.12000 3.456
55.14000 4.643
55.16000 2.992
55.18000 3.238
55.20000 2.905
55.22000 1.342
55.24000 -1.473
55.26000 -0.837
55.28000 -1.664
55.30000 -2.137
55.32000 -2.506
55.34000 1.000
55.36000 3.472
55.38000 2.677
55.40000 1.533
55.42000 4.182
55.44000 6.120
55.46000 4.888
55.48000 5.554
55.50000 4.969
55.52000 5.549
55.54000 2.680
55.56000 1.909
55.58000 5.531
55.60000 2.783
55.62000 2.117
55.64000 0.255
55.66000 0.811
55.68000 -0.107
55.70000 1.966
55.72000 4.950
55.74000 7.495
55.76000 5.335
55.78000 -0.032
55.80000 -2.497
55.82000 0.017
55.84000 2.444
55.86000 4.722
55.88000 3.371
55.90000 3.172
55.92000 -0.159
55.94000 0.188
55.96000 1.219
55.98000 5.189
56.00000 4.255
56.02000 5.560
56.04000 -1.174
56.06000 -1.462
56.08000 -0.228
56.10000 1.340
56.12000 4.633
56.14000 5.716
56.16000 7.462
56.18000 6.383
56.20000 2.392
56.22000 0.165
56.24000 0.337
56.26000 0.741
56.28000 1.265
56.30000 -0.553
56.32000 2.761
56.34000 1.796
56.36000 1.873
56.38000 2.556
56.40000 1.940
56.42000 -1.423
56.44000 -1.180
56.46000 2.923
56.48000 6.207
56.50000 7.354
56.52000 3.576
56.54000 1.026
56.56000 2.802
56.58000 3.351
56.60000 4.878
56.62000 5.796
56.64000 2.779
56.66000 1.396
56.68000 0.722
56.70000 -2.431
56.72000 0.916
56.74000 8.852
56.76000 6.060
56.78000 5.414
56.80000 4.006
56.82000 6.658
56.84000 8.648
56.86000 3.775
56.88000 4.909
56.90000 6.328
56.92000 5.035
56.94000 3.201
56.96000 0.282
56.98000 0.565
57.00000 2.551
57.02000 4.683
57.04000 3.451
57.06000 5.932
57.08000 7.213
57.10000 5.885
57.12000 2.016
57.14000 0.156
57.16000 2.348
57.18000 1.204
57.20000 2.409
57.22000 2.663
57.24000 6.090
57.26000 3.187
57.28000 2.255
57.30000 -0.080
57.32000 1.408
57.34000 6.227
57.36000 4.166
57.38000 3.028
57.40000 4.729
57.42000 4.967
57.44000 3.574
57.46000 5.377
57.48000 6.467
57.50000 -1.020
57.52000 0.341
57.54000 1.086
57.56000 3.448
57.58000 6.145
57.60000 4.646
57.62000 5.750
57.64000 3.729
57.66000 2.040
57.68000 0.811
57.70000 -0.788
57.72000 3.329
57.74000 4.821
57.76000 0.469
57.78000 2.059
57.80000 3.627
57.82000 0.623
57.84000 -0.023
57.86000 0.792
57.88000 2.863
57.90000 3.059
57.92000 3.350
57.94000 2.504
57.96000 -1.627
57.98000 -2.432
58.00000 -2.061
58.02000 -1.776
58.04000 2.400
58.06000 4.986
58.08000 3.002
58.10000 2.786
58.12000 0.363
58.14000 -0.010
58.16000 2.255
58.18000 4.663
58.20000 5.123
58.22000 4.820
58.24000 3.273
58.26000 2.233
58.28000 1.658
58.30000 0.898
58.32000 -1.352
58.34000 -0.847
58.36000 0.159
58.38000 -0.693
58.40000 -1.638
58.42000 -2.062
58.44000 0.746
58.46000 -1.768
58.48000 0.297
58.50000 4.142
58.52000 5.206
58.54000 0.823
58.56000 2.238
58.58000 3.492
58.60000 -0.005
58.62000 -2.033
58.64000 -2.273
58.66000 -0.436
58.68000 2.706
58.70000 1.921
58.72000 -1.159
58.74000 -1.805
58.76000 -2.187
58.78000 0.331
58.80000 -1.531
58.82000 0.306
58.84000 2.492
58.86000 1.620
58.88000 3.619
58.90000 1.890
58.92000 1.948
58.94000 0.923
58.96000 0.839
58.98000 2.159
59.00000 -0.569
59.02000 2.936
59.04000 2.204
59.06000 -0.627
59.08000 4.316
59.10000 4.462
59.12000 1.352
59.14000 0.949
59.16000 4.774
59.18000 7.018
59.20000 0.019
59.22000 0.822
59.24000 3.914
59.26000 1.758
59.28000 0.082
59.30000 0.032
59.32000 2.672
59.34000 1.692
59.36000 2.716
59.38000 2.512
59.40000 1.111
59.42000 -2.382
59.44000 0.359
59.46000 1.310
59.48000 0.347
59.50000 4.283
59.52000 2.745
59.54000 2.170
59.56000 4.168
59.58000 4.222
59.60000 3.402
59.62000 1.496
59.64000 2.242
59.66000 2.973
59.68000 1.564
59.70000 0.518
59.72000 2.625
59.74000 2.425
59.76000 -1.068
59.78000 -1.647
59.80000 -0.557
59.82000 2.635
59.84000 2.096
59.86000 5.312
59.88000 4.004
59.90000 8.189
59.92000 4.409
59.94000 -1.887
59.96000 0.782
59.98000 -0.162
60.00000 0.923
60.02000 -1.556
60.04000 -0.139
60.06000 2.444
60.08000 2.774
60.10000 2.702
60.12000 2.077
60.14000 0.920
60.16000 3.335
60.18000 2.819
60.20000 1.392
60.22000 1.118
60.24000 3.769
60.26000 -0.439
60.28000 0.758
60.30000 1.681
60.32000 0.849
60.34000 -0.039
60.36000 3.323
60.38000 2.429
60.40000 2.083
60.42000 1.597
60.44000 0.017
60.46000 2.370
60.48000 2.416
60.50000 0.486
60.52000 2.010
60.54000 -0.918
60.56000 -0.334
60.58000 1.721
60.60000 3.174
60.62000 3.564
60.64000 3.799
60.66000 8.528
60.68000 9.583
60.70000 3.874
60.72000 -2.323
60.74000 2.149
60.76000 3.255
60.78000 2.382
60.80000 4.159
60.82000 2.218
60.84000 -0.341
60.86000 1.907
60.88000 2.283
60.90000 -0.623
60.92000 -1.224
60.94000 1.427
60.96000 1.895
60.98000 2.239
61.00000 1.930
61.02000 2.238
61.04000 4.755
61.06000 0.118
61.08000 0.673
61.10000 0.619
61.12000 0.515
61.14000 1.585
61.16000 1.185
61.18000 6.181
61.20000 7.226
61.22000 4.394
61.24000 -0.668
61.26000 -2.323
61.28000 -2.090
61.30000 2.495
61.32000 3.928
61.34000 6.253
61.36000 5.848
61.38000 3.266
61.40000 3.634
61.42000 2.178
61.44000 1.223
61.46000 -1.032
61.48000 1.307
61.50000 3.903
61.52000 4.084
61.54000 4.214
61.56000 4.884
61.58000 5.679
61.60000 0.624
61.62000 0.321
61.64000 1.819
61.66000 0.240
61.68000 -2.324
61.70000 -2.323
61.72000 1.547
61.74000 3.022
61.76000 6.724
61.78000 3.239
61.80000 1.756
61.82000 3.709
61.84000 1.777
61.86000 2.767
61.88000 4.423
61.90000 4.240
61.92000 1.412
61.94000 3.249
61.96000 5.908
61.98000 3.445
62.00000 3.641
62.02000 3.356
62.04000 -1.460
62.06000 -2.248
62.08000 -1.067
62.10000 1.879
62.12000 2.885
62.14000 2.233
62.16000 2.672
62.18000 1.617
62.20000 2.285
62.22000 4.603
62.24000 2.784
62.26000 2.093
62.28000 1.294
62.30000 0.307
62.32000 1.532
62.34000 -1.158
62.36000 -0.855
62.38000 -0.700
62.40000 2.487
62.42000 2.163
62.44000 0.383
62.46000 -1.997
62.48000 -1.008
62.50000 0.231
62.52000 1.553
62.54000 3.200
62.56000 3.910
62.58000 5.203
62.60000 2.648
62.62000 0.661
62.64000 2.648
62.66000 0.050
62.68000 -2.323
62.70000 0.631
62.72000 -2.182
62.74000 -1.497
62.76000 -0.286
62.78000 -0.027
62.80000 2.499
62.82000 1.594
62.84000 -1.091
62.86000 -1.732
62.88000 -1.059
62.90000 0.536
62.92000 -1.488
62.94000 1.699
62.96000 0.299
62.98000 1.277
63.00000 2.482
63.02000 3.320
63.04000 -0.620
63.06000 0.593
63.08000 -0.453
63.10000 1.900
63.12000 6.181
63.14000 2.118
63.16000 -1.697
63.18000 0.670
63.20000 4.132
63.22000 4.108
63.24000 -2.291
63.26000 0.525
63.28000 2.576
63.30000 3.308
63.32000 2.617
63.34000 2.042
63.36000 1.459
63.38000 3.117
63.40000 3.228
63.42000 1.155
63.44000 1.388
63.46000 -1.658
63.48000 0.367
63.50000 2.448
63.52000 -0.239
63.54000 0.871
63.56000 0.795
63.58000 -1.002
63.60000 -2.097
63.62000 0.574
63.64000 -0.218
63.66000 -1.153
63.68000 -0.915
63.70000 0.572
63.72000 1.736
63.74000 -1.882
63.76000 -1.097
63.78000 0.557
63.80000 0.014
63.82000 0.124
63.84000 -0.916
63.86000 2.351
63.88000 5.273
63.90000 2.893
63.92000 2.365
63.94000 1.706
63.96000 -0.614
63.98000 1.357
64.00000 3.996
64.02000 1.264
64.04000 -0.290
64.06000 0.009
64.08000 2.921
64.10000 2.908
64.12000 -2.320
64.14000 -1.001
64.16000 -0.179
64.18000 0.354
64.20000 0.501
64.22000 -0.287
64.24000 2.138
64.26000 3.078
64.28000 0.855
64.30000 2.075
64.32000 1.905
64.34000 -0.112
64.36000 0.277
64.38000 0.345
64.40000 2.326
64.42000 4.627
64.44000 3.686
64.46000 1.138
64.48000 1.375
64.50000 -0.169
64.52000 1.863
64.54000 3.419
64.56000 3.931
64.58000 1.768
64.60000 -0.545
64.62000 -0.068
64.64000 2.626
64.66000 5.142
64.68000 2.830
64.70000 0.770
64.72000 2.619
64.74000 2.989
64.76000 0.826
64.78000 -0.763
64.80000 1.443
64.82000 3.225
64.84000 4.080
64.86000 2.542
64.88000 2.981
64.90000 0.133
64.92000 -2.293
64.94000 -2.143
64.96000 -1.809
64.98000 -1.146
65.00000 -0.208
65.02000 0.895
65.04000 3.143
65.06000 4.708
65.08000 2.412
65.10000 1.266
65.12000 2.400
65.14000 2.997
65.16000 1.521
65.18000 4.397
65.20000 1.225
65.22000 1.318
65.24000 1.375
65.26000 2.912
65.28000 2.526
65.30000 4.324
65.32000 2.787
65.34000 3.693
65.36000 1.784
65.38000 2.651
65.40000 1.907
65.42000 2.480
65.44000 1.012
65.46000 -0.022
65.48000 0.069
65.50000 4.686
65.52000 4.278
65.54000 1.705
65.56000 2.103
65.58000 1.345
65.60000 1.967
65.62000 2.256
65.64000 4.164
65.66000 3.720
65.68000 3.870
65.70000 -0.979
65.72000 -2.311
65.74000 1.841
65.76000 4.804
65.78000 3.706
65.80000 1.574
65.82000 2.329
65.84000 3.147
65.86000 3.130
65.88000 4.038
65.90000 3.547
65.92000 1.237
65.94000 2.267
65.96000 -0.142
65.98000 -0.801
66.00000 1.281
66.02000 1.823
66.04000 0.719
66.06000 2.907
66.08000 0.521
66.10000 -1.562
66.12000 -0.085
66.14000 1.015
66.16000 -0.219
66.18000 -1.702
66.20000 -1.285
66.22000 0.994
66.24000 0.753
66.26000 4.552
66.28000 0.167
66.30000 0.191
66.32000 -1.019
66.34000 0.440
66.36000 -1.930
66.38000 -0.622
66.40000 1.135
66.42000 1.007
66.44000 -0.986
66.46000 0.536
66.48000 1.792
66.50000 2.710
66.52000 2.395
66.54000 2.334
66.56000 -0.011
66.58000 0.197
66.60000 -0.005
66.62000 1.369
66.64000 1.027
66.66000 -2.330
66.68000 -0.196
66.70000 3.141
66.72000 1.991
66.74000 -0.150
66.76000 2.413
66.78000 3.818
66.80000 -0.128
66.82000 -1.363
66.84000 2.506
66.86000 1.006
66.88000 2.761
66.90000 1.704
66.92000 0.326
66.94000 0.770
66.96000 0.358
66.98000 -2.346
67.00000 -0.945
67.02000 -0.515
67.04000 1.795
67.06000 0.592
67.08000 1.166
67.10000 -1.229
67.12000 -0.791
67.14000 1.814
67.16000 3.414
67.18000 3.838
67.20000 1.891
67.22000 0.011
67.24000 -0.196
67.26000 -0.066
67.28000 2.731
67.30000 1.676
67.32000 0.127
67.34000 -1.732
67.36000 -2.139
67.38000 -2.315
67.40000 -0.402
67.42000 -0.793
67.44000 -0.604
67.46000 0.695
67.48000 1.616
67.50000 1.213
67.52000 1.391
67.54000 4.168
67.56000 3.822
67.58000 3.937
67.60000 3.151
67.62000 1.814
67.64000 2.554
67.66000 2.175
67.68000 3.074
67.70000 3.171
67.72000 3.855
67.74000 1.783
67.76000 0.234
67.78000 2.425
67.80000 4.980
67.82000 0.345
67.84000 0.571
67.86000 1.142
67.88000 5.529
67.90000 8.031
67.92000 9.424
67.94000 8.218
67.96000 7.482
67.98000 6.489
68.00000 9.429
68.02000 12.544
68.04000 9.447
68.06000 9.713
68.08000 9.849
68.10000 8.612
68.12000 10.299
68.14000 12.235
68.16000 10.193
68.18000 10.195
68.20000 14.687
68.22000 13.234
68.24000 15.446
68.26000 20.343
68.28000 15.906
68.30000 16.497
68.32000 18.438
68.34000 15.465
68.36000 16.982
68.38000 17.205
68.40000 18.803
68.42000 22.194
68.44000 24.670
68.46000 20.170
68.48000 23.134
68.50000 24.693
68.52000 22.987
68.54000 25.560
68.56000 27.173
68.58000 28.421
68.60000 27.438
68.62000 26.875
68.64000 28.842
68.66000 30.771
68.68000 31.082
68.70000 32.431
68.72000 32.168
68.74000 36.590
68.76000 32.565
68.78000 32.752
68.80000 35.989
68.82000 35.886
68.84000 35.598
68.86000 32.460
68.88000 34.865
68.90000 35.961
68.92000 34.223
68.94000 35.490
68.96000 35.849
68.98000 31.649
69.00000 28.257
69.02000 30.079
69.04000 27.929
69.06000 30.347
69.08000 27.093
69.10000 28.000
69.12000 25.019
69.14000 22.707
69.16000 23.670
69.18000 23.714
69.20000 19.980
69.22000 23.530
69.24000 24.063
69.26000 24.478
69.28000 21.870
69.30000 16.259
69.32000 13.607
69.34000 17.135
69.36000 19.629
69.38000 18.630
69.40000 17.193
69.42000 15.822
69.44000 15.741
69.46000 16.521
69.48000 11.474
69.50000 8.430
69.52000 10.709
69.54000 10.554
69.56000 10.143
69.58000 10.267
69.60000 6.721
69.62000 5.318
69.64000 6.340
69.66000 6.526
69.68000 6.074
69.70000 4.417
69.72000 4.718
69.74000 5.142
69.76000 3.754
69.78000 3.716
69.80000 1.517
69.82000 4.714
69.84000 7.229
69.86000 6.617
69.88000 4.240
69.90000 0.504
69.92000 2.844
69.94000 2.684
69.96000 2.333
69.98000 4.578
70.00000 3.076
70.02000 0.020
70.04000 -1.070
70.06000 -0.480
70.08000 1.241
70.10000 -0.179
70.12000 -1.113
70.14000 -0.396
70.16000 2.719
70.18000 0.146
70.20000 2.980
70.22000 4.028
70.24000 -0.661
70.26000 -2.311
70.28000 0.893
70.30000 2.281
70.32000 0.918
70.34000 -2.305
70.36000 -1.662
70.38000 2.384
70.40000 5.587
70.42000 4.251
70.44000 0.645
70.46000 1.508
70.48000 1.903
70.50000 0.405
70.52000 2.994
70.54000 2.544
70.56000 -0.637
70.58000 2.749
70.60000 0.147
70.62000 0.467
70.64000 -0.219
70.66000 0.326
70.68000 -0.504
70.70000 0.108
70.72000 -2.055
70.74000 2.082
70.76000 0.853
70.78000 2.413
70.80000 2.486
70.82000 -0.865
70.84000 0.586
70.86000 3.342
70.88000 1.808
70.90000 0.048
70.92000 -0.966
70.94000 -2.249
70.96000 -0.294
70.98000 -0.646
71.00000 -1.244
71.02000 -1.940
71.04000 -1.081
71.06000 1.430
71.08000 2.606
71.10000 5.484
71.12000 5.654
71.14000 -1.052
71.16000 -0.984
71.18000 1.916
71.20000 -0.044
71.22000 -2.150
71.24000 -2.189
71.26000 -1.602
71.28000 1.531
71.30000 3.565
71.32000 1.254
71.34000 2.473
71.36000 1.232
71.38000 -1.091
71.40000 -2.220
71.42000 -1.858
71.44000 0.636
71.46000 -0.306
71.48000 -0.463
71.50000 4.134
71.52000 1.823
71.54000 -1.439
71.56000 3.953
71.58000 3.021
71.60000 0.583
71.62000 -0.177
71.64000 -0.791
71.66000 -0.224
71.68000 1.618
71.70000 4.137
71.72000 1.601
71.74000 2.765
71.76000 3.535
71.78000 1.045
71.80000 -0.400
71.82000 0.244
71.84000 3.282
71.86000 1.830
71.88000 2.137
71.90000 1.949
71.92000 1.921
71.94000 0.812
71.96000 4.015
71.98000 5.319
72.00000 1.619
72.02000 -0.273
72.04000 3.524
72.06000 5.947
72.08000 5.737
72.10000 2.918
72.12000 3.861
72.14000 1.665
72.16000 2.478
72.18000 5.369
72.20000 4.042
72.22000 0.947
72.24000 2.947
72.26000 2.125
72.28000 5.947
72.30000 1.581
72.32000 -2.118
72.34000 0.500
72.36000 3.236
72.38000 1.983
72.40000 3.645
72.42000 2.467
72.44000 3.838
72.46000 4.767
72.48000 3.934
72.50000 1.174
72.52000 3.146
72.54000 3.442
72.56000 6.255
72.58000 7.208
72.60000 5.172
72.62000 3.680
72.64000 3.573
72.66000 5.989
72.68000 6.979
72.70000 2.287
72.72000 -1.313
72.74000 -1.807
72.76000 2.012
72.78000 0.582
72.80000 -1.444
72.82000 2.863
72.84000 2.239
72.86000 1.754
72.88000 2.880
72.90000 4.096
72.92000 1.913
72.94000 -0.417
72.96000 1.674
72.98000 1.720
73.00000 2.168
73.02000 -0.095
73.04000 3.194
73.06000 4.031
73.08000 1.874
73.10000 2.238
73.12000 4.378
73.14000 0.645
73.16000 1.537
73.18000 1.858
73.20000 5.707
73.22000 5.128
73.24000 -0.652
73.26000 0.858
73.28000 3.795
73.30000 2.272
73.32000 5.627
73.34000 3.604
73.36000 3.094
73.38000 3.110
73.40000 4.741
73.42000 6.610
73.44000 4.366
73.46000 0.649
73.48000 -0.850
73.50000 5.425
73.52000 7.409
73.54000 4.947
73.56000 3.449
73.58000 4.101
73.60000 4.928
73.62000 1.933
73.64000 3.116
73.66000 2.450
73.68000 1.125
73.70000 -1.052
73.72000 -1.627
73.74000 1.700
73.76000 2.231
73.78000 3.277
73.80000 4.182
73.82000 3.195
73.84000 2.392
73.86000 0.743
73.88000 0.330
73.90000 -1.119
73.92000 2.037
73.94000 4.563
73.96000 3.995
73.98000 0.448
74.00000 2.924
74.02000 0.798
74.04000 -2.113
74.06000 -1.434
74.08000 -1.028
74.10000 1.013
74.12000 1.945
74.14000 6.847
74.16000 7.204
74.18000 5.797
74.20000 5.555
74.22000 0.370
74.24000 1.180
74.26000 2.860
74.28000 4.056
74.30000 3.474
74.32000 5.812
74.34000 6.931
74.36000 6.754
74.38000 1.984
74.40000 2.495
74.42000 5.731
74.44000 2.774
74.46000 4.106
74.48000 3.653
74.50000 5.437
74.52000 4.027
74.54000 3.384
74.56000 3.575
74.58000 2.782
74.60000 1.748
74.62000 3.626
74.64000 4.952
74.66000 2.371
74.68000 -2.089
74.70000 4.520
74.72000 7.009
74.74000 2.869
74.76000 2.502
74.78000 6.420
74.80000 4.003
74.82000 2.528
74.84000 4.699
74.86000 4.554
74.88000 2.680
74.90000 1.895
74.92000 -0.031
74.94000 -2.083
74.96000 4.044
74.98000 6.796
75.00000 2.854
75.02000 1.337
75.04000 1.710
75.06000 1.254
75.08000 5.082
75.10000 6.864
75.12000 7.806
75.14000 7.681
75.16000 9.640
75.18000 4.352
75.20000 1.205
75.22000 3.789
75.24000 3.488
75.26000 0.123
75.28000 1.203
75.30000 1.421
75.32000 2.689
75.34000 4.246
75.36000 3.080
75.38000 7.093
75.40000 4.903
75.42000 3.017
75.44000 2.418
75.46000 1.877
75.48000 0.189
75.50000 2.190
75.52000 6.568
75.54000 7.204
75.56000 8.395
75.58000 7.216
75.60000 5.313
75.62000 5.474
75.64000 2.703
75.66000 4.409
75.68000 7.844
75.70000 3.178
75.72000 6.608
75.74000 6.025
75.76000 4.509
75.78000 5.111
75.80000 6.798
75.82000 7.088
75.84000 5.296
75.86000 1.417
75.88000 4.236
75.90000 4.885
75.92000 1.887
75.94000 3.674
75.96000 3.214
75.98000 3.932
76.00000 8.144
76.02000 4.488
76.04000 5.562
76.06000 4.583
76.08000 4.212
76.10000 4.113
76.12000 8.113
76.14000 5.991
76.16000 3.834
76.18000 5.154
76.20000 2.294
76.22000 7.099
76.24000 5.957
76.26000 5.839
76.28000 1.756
76.30000 1.974
76.32000 5.011
76.34000 4.013
76.36000 3.598
76.38000 2.180
76.40000 -2.053
76.42000 0.301
76.44000 3.985
76.46000 7.520
76.48000 4.145
76.50000 5.402
76.52000 4.917
76.54000 3.224
76.56000 7.366
76.58000 7.425
76.60000 6.929
76.62000 7.169
76.64000 6.747
76.66000 3.540
76.68000 7.826
76.70000 6.856
76.72000 4.575
76.74000 4.635
76.76000 4.957
76.78000 6.295
76.80000 3.941
76.82000 2.267
76.84000 2.639
76.86000 3.478
76.88000 2.575
76.90000 4.580
76.92000 5.471
76.94000 2.935
76.96000 1.466
76.98000 4.535
77.00000 3.739
77.02000 2.867
77.04000 3.848
77.06000 3.519
77.08000 4.837
77.10000 4.017
77.12000 0.445
77.14000 2.364
77.16000 4.526
77.18000 6.705
77.20000 6.844
77.22000 3.811
77.24000 -0.604
77.26000 3.361
77.28000 5.096
77.30000 5.942
77.32000 3.130
77.34000 3.991
77.36000 0.980
77.38000 2.420
77.40000 2.110
77.42000 1.382
77.44000 -1.101
77.46000 0.560
77.48000 1.054
77.50000 0.103
77.52000 0.562
77.54000 2.558
77.56000 -0.157
77.58000 -2.019
77.60000 0.534
77.62000 2.734
77.64000 -0.184
77.66000 2.017
77.68000 3.134
77.70000 5.347
77.72000 4.023
77.74000 -1.244
77.76000 1.244
77.78000 0.835
77.80000 -1.342
77.82000 1.119
77.84000 1.282
77.86000 2.325
77.88000 0.261
77.90000 -1.020
77.92000 1.321
77.94000 -0.330
77.96000 0.797
77.98000 0.290
78.00000 0.676
78.02000 4.740
78.04000 1.563
78.06000 0.821
78.08000 -1.481
78.10000 -1.105
78.12000 4.527
78.14000 2.446
78.16000 2.838
78.18000 4.754
78.20000 3.423
78.22000 2.128
78.24000 0.538
78.26000 -1.964
78.28000 -1.946
78.30000 -0.237
78.32000 4.547
78.34000 2.788
78.36000 0.093
78.38000 1.676
78.40000 -0.726
78.42000 -0.004
78.44000 0.781
78.46000 -0.861
78.48000 3.304
78.50000 -1.467
78.52000 -1.138
78.54000 -0.356
78.56000 2.336
78.58000 2.864
78.60000 1.887
78.62000 0.878
78.64000 5.919
78.66000 6.084
78.68000 2.690
78.70000 -1.102
78.72000 2.008
78.74000 0.813
78.76000 1.118
78.78000 0.372
78.80000 4.011
78.82000 2.672
78.84000 2.979
78.86000 4.614
78.88000 3.373
78.90000 -0.341
78.92000 -2.154
78.94000 1.052
78.96000 6.443
78.98000 6.635
79.00000 2.702
79.02000 0.192
79.04000 0.287
79.06000 2.280
79.08000 3.557
79.10000 4.159
79.12000 1.217
79.14000 2.956
79.16000 2.395
79.18000 -0.773
79.20000 0.494
79.22000 -0.759
79.24000 1.602
79.26000 2.348
79.28000 4.622
79.30000 3.038
79.32000 3.354
79.34000 5.293
79.36000 4.354
79.38000 3.703
79.40000 5.378
79.42000 2.048
79.44000 0.561
79.46000 0.005
79.48000 1.892
79.50000 2.506
79.52000 0.847
79.54000 1.597
79.56000 0.299
79.58000 -0.819
79.60000 0.071
79.62000 1.317
79.64000 3.591
79.66000 1.887
79.68000 2.562
79.70000 3.562
79.72000 5.428
79.74000 6.234
79.76000 4.816
79.78000 2.667
79.80000 1.278
79.82000 -0.510
79.84000 -0.632
79.86000 0.736
79.88000 2.022
79.90000 0.651
79.92000 1.201
79.94000 0.028
79.96000 3.430
79.98000 3.084
80.00000 2.048
80.02000 4.105
80.04000 2.126
80.06000 0.380
80.08000 -0.465
80.10000 1.956
80.12000 -1.009
80.14000 -1.371
80.16000 0.954
80.18000 0.137
80.20000 -1.391
80.22000 3.629
80.24000 -0.851
80.26000 -2.217
80.28000 -0.829
80.30000 2.254
80.32000 0.753
80.34000 -1.198
80.36000 -1.916
80.38000 0.638
80.40000 0.924
80.42000 0.956
80.44000 -1.332
80.46000 -1.314
80.48000 -1.576
80.50000 3.978
80.52000 3.374
80.54000 2.038
80.56000 3.659
80.58000 1.540
80.60000 0.733
80.62000 0.041
80.64000 -0.406
80.66000 0.563
80.68000 3.431
80.70000 0.456
80.72000 -2.254
80.74000 2.121
80.76000 1.923
80.78000 3.601
80.80000 1.284
80.82000 1.729
80.84000 1.526
80.86000 -0.662
80.88000 2.508
80.90000 4.528
80.92000 1.498
80.94000 1.616
80.96000 -0.582
80.98000 0.054
81.00000 3.908
81.02000 3.423
81.04000 7.166
81.06000 2.666
81.08000 -1.532
81.10000 1.799
81.12000 -2.275
81.14000 0.109
81.16000 3.123
81.18000 -1.855
81.20000 0.030
81.22000 2.739
81.24000 5.454
81.26000 3.982
81.28000 -1.435
81.30000 -2.183
81.32000 3.912
81.34000 0.067
81.36000 -2.313
81.38000 0.014
81.40000 4.104
81.42000 4.979
81.44000 1.790
81.46000 2.142
81.48000 4.227
81.50000 2.509
81.52000 4.703
81.54000 6.660
81.56000 8.665
81.58000 7.231
81.60000 5.311
81.62000 3.436
81.64000 1.660
81.66000 0.757
81.68000 4.003
81.70000 3.477
81.72000 2.177
81.74000 1.904
81.76000 4.093
81.78000 4.148
81.80000 4.974
81.82000 3.483
81.84000 8.049
81.86000 9.922
81.88000 10.834
81.90000 11.214
81.92000 6.122
81.94000 7.536
81.96000 7.334
81.98000 8.900
82.00000 10.197
82.02000 10.181
82.04000 12.530
82.06000 11.351
82.08000 9.579
82.10000 9.675
82.12000 14.293
82.14000 13.585
82.16000 12.731
82.18000 10.450
82.20000 13.920
82.22000 12.421
82.24000 18.032
82.26000 16.186
82.28000 15.799
82.30000 15.325
82.32000 18.602
82.34000 16.344
82.36000 18.738
82.38000 20.458
82.40000 18.525
82.42000 18.727
82.44000 27.438
82.46000 28.948
82.48000 25.344
82.50000 26.697
82.52000 25.874
82.54000 31.571
82.56000 29.099
82.58000 29.637
82.60000 31.986
82.62000 30.796
82.64000 35.016
82.66000 35.993
82.68000 36.356
82.70000 42.289
82.72000 34.477
82.74000 36.893
82.76000 39.451
82.78000 39.885
82.80000 42.169
82.82000 45.785
82.84000 45.210
82.86000 43.697
82.88000 47.452
82.90000 47.171
82.92000 43.538
82.94000 50.928
82.96000 52.363
82.98000 46.538
83.00000 45.196
83.02000 46.928
83.04000 48.173
83.06000 50.695
83.08000 48.844
83.10000 48.440
83.12000 41.963
83.14000 44.053
83.16000 50.735
83.18000 53.762
83.20000 52.322
83.22000 47.396
83.24000 49.358
83.26000 42.396
83.28000 38.082
83.30000 38.467
83.32000 40.370
83.34000 42.724
83.36000 45.765
83.38000 43.346
83.40000 35.592
83.42000 35.625
83.44000 37.619
83.46000 36.189
83.48000 32.560
83.50000 31.153
83.52000 30.988
83.54000 31.345
83.56000 30.032
83.58000 27.863
83.60000 32.904
83.62000 32.717
83.64000 27.472
83.66000 25.769
83.68000 23.837
83.70000 21.677
83.72000 22.025
83.74000 24.116
83.76000 18.859
83.78000 18.742
83.80000 18.400
83.82000 19.275
83.84000 20.779
83.86000 20.161
83.88000 15.868
83.90000 14.076
83.92000 12.288
83.94000 12.455
83.96000 12.467
83.98000 7.012
84.00000 13.896
84.02000 10.950
84.04000 8.657
84.06000 9.377
84.08000 10.227
84.10000 8.881
84.12000 9.238
84.14000 8.716
84.16000 7.177
84.18000 10.565
84.20000 7.892
84.22000 5.235
84.24000 4.803
84.26000 4.716
84.28000 4.814
84.30000 8.348
84.32000 7.520
84.34000 6.781
84.36000 5.521
84.38000 3.723
84.40000 9.692
84.42000 7.750
84.44000 1.459
84.46000 -2.355
84.48000 0.182
84.50000 2.519
84.52000 -0.449
84.54000 1.704
84.56000 6.031
84.58000 2.391
84.60000 0.815
84.62000 -1.581
84.64000 0.890
84.66000 4.728
84.68000 4.264
84.70000 1.992
84.72000 2.493
84.74000 -0.290
84.76000 -0.759
84.78000 -2.260
84.80000 -2.314
84.82000 0.089
84.84000 2.894
84.86000 2.188
84.88000 1.215
84.90000 -1.748
84.92000 0.899
84.94000 -2.011
84.96000 0.177
84.98000 0.941
85.00000 4.710
85.02000 4.345
85.04000 3.382
85.06000 3.311
85.08000 -0.123
85.10000 3.341
85.12000 2.591
85.14000 6.450
85.16000 0.863
85.18000 -2.260
85.20000 -0.599
85.22000 -2.053
85.24000 -1.617
85.26000 0.666
85.28000 3.486
85.30000 1.860
85.32000 2.187
85.34000 1.682
85.36000 1.640
85.38000 0.880
85.40000 3.428
85.42000 3.236
85.44000 1.399
85.46000 0.060
85.48000 -2.219
85.50000 1.587
85.52000 2.568
85.54000 1.057
85.56000 3.468
85.58000 2.727
85.60000 -0.055
85.62000 -0.924
85.64000 -2.203
85.66000 1.249
85.68000 3.560
85.70000 0.377
85.72000 -0.433
85.74000 0.943
85.76000 1.041
85.78000 0.909
85.80000 1.058
85.82000 1.419
85.84000 -0.790
85.86000 -0.965
85.88000 3.054
85.90000 -0.290
85.92000 0.430
85.94000 0.992
85.96000 1.722
85.98000 2.680
86.00000 3.280
86.02000 1.825
86.04000 4.250
86.06000 1.695
86.08000 -0.907
86.10000 -2.215
86.12000 3.811
86.14000 5.023
86.16000 5.487
86.18000 5.061
86.20000 3.485
86.22000 5.520
86.24000 2.683
86.26000 2.112
86.28000 1.223
86.30000 1.397
86.32000 2.474
86.34000 2.541
86.36000 5.111
86.38000 3.005
86.40000 4.785
86.42000 4.555
86.44000 -0.294
86.46000 0.577
86.48000 6.037
86.50000 3.722
86.52000 0.262
86.54000 4.122
86.56000 6.012
86.58000 8.685
86.60000 7.632
86.62000 3.960
86.64000 -0.977
86.66000 3.060
86.68000 7.968
86.70000 4.362
86.72000 6.633
86.74000 6.263
86.76000 6.722
86.78000 8.731
86.80000 10.199
86.82000 9.816
86.84000 9.630
86.86000 9.671
86.88000 8.036
86.90000 10.928
86.92000 10.918
86.94000 13.633
86.96000 15.490
86.98000 17.319
87.00000 16.599
87.02000 17.323
87.04000 21.095
87.06000 17.409
87.08000 21.225
87.10000 18.336
87.12000 14.369
87.14000 14.832
87.16000 17.479
87.18000 18.168
87.20000 21.773
87.22000 20.305
87.24000 21.400
87.26000 25.089
87.28000 27.027
87.30000 24.154
87.32000 26.053
87.34000 25.682
87.36000 24.368
87.38000 25.935
87.40000 25.205
87.42000 28.686
87.44000 27.718
87.46000 26.409
87.48000 26.967
87.50000 29.450
87.52000 26.153
87.54000 26.139
87.56000 25.835
87.58000 24.041
87.60000 26.773
87.62000 26.322
87.64000 23.483
87.66000 20.557
87.68000 26.496
87.70000 25.331
87.72000 22.777
87.74000 20.324
87.76000 23.479
87.78000 23.981
87.80000 21.642
87.82000 21.278
87.84000 23.870
87.86000 25.028
87.88000 23.099
87.90000 22.573
87.92000 23.059
87.94000 20.948
87.96000 15.491
87.98000 16.910
88.00000 17.456
88.02000 19.622
88.04000 20.226
88.06000 18.558
88.08000 15.716
88.10000 15.368
88.12000 11.772
88.14000 6.603
88.16000 5.942
88.18000 10.756
88.20000 8.580
88.22000 9.458
88.24000 10.593
88.26000 8.898
88.28000 4.960
88.30000 5.275
88.32000 7.771
88.34000 8.041
88.36000 8.287
88.38000 7.830
88.40000 5.822
88.42000 3.012
88.44000 4.745
88.46000 7.148
88.48000 8.250
88.50000 9.785
88.52000 5.630
88.54000 3.853
88.56000 3.795
88.58000 4.624
88.60000 8.317
88.62000 4.905
88.64000 1.793
88.66000 2.449
88.68000 6.933
88.70000 7.967
88.72000 3.130
88.74000 1.487
88.76000 5.059
88.78000 5.862
88.80000 5.463
88.82000 -0.496
88.84000 1.886
88.86000 3.143
88.88000 1.350
88.90000 3.548
88.92000 -0.205
88.94000 -0.367
88.96000 0.880
88.98000 2.137
89.00000 -0.744
89.02000 -1.914
89.04000 -2.132
89.06000 4.807
89.08000 5.518
89.10000 4.041
89.12000 2.436
89.14000 -2.018
89.16000 -2.120
89.18000 3.762
89.20000 5.251
89.22000 4.494
89.24000 1.313
89.26000 1.557
89.28000 0.652
89.30000 2.166
89.32000 1.571
89.34000 0.702
89.36000 3.411
89.38000 3.035
89.40000 2.462
89.42000 6.469
89.44000 2.999
89.46000 -0.073
89.48000 -2.103
89.50000 -0.231
89.52000 -1.591
89.54000 -1.192
89.56000 -0.991
89.58000 -1.129
89.60000 0.918
89.62000 1.211
89.64000 1.057
89.66000 -2.092
89.68000 -1.820
89.70000 0.235
89.72000 -0.647
89.74000 -1.395
89.76000 1.810
89.78000 1.054
89.80000 1.532
89.82000 2.227
89.84000 1.308
89.86000 -2.086
89.88000 -0.319
89.90000 -1.262
89.92000 -0.910
89.94000 2.842
89.96000 2.715
89.98000 1.251
90.00000 1.420
90.02000 0.638
90.04000 -1.671
90.06000 -1.772
90.08000 4.100
90.10000 -1.688
90.12000 -0.069
90.14000 -0.175
90.16000 -1.138
90.18000 -1.499
90.20000 4.042
90.22000 2.232
90.24000 -0.973
90.26000 -0.083
90.28000 2.261
90.30000 1.775
90.32000 0.306
90.34000 -1.304
90.36000 -2.050
90.38000 0.319
90.40000 2.803
90.42000 2.693
90.44000 2.846
90.46000 -1.221
90.48000 -0.449
90.50000 2.785
90.52000 2.114
90.54000 1.921
90.56000 -0.078
90.58000 -0.408
90.60000 0.843
90.62000 -2.035
90.64000 2.810
90.66000 3.277
90.68000 1.511
90.70000 1.625
90.72000 4.021
90.74000 1.528
90.76000 1.841
90.78000 0.773
90.80000 0.693
90.82000 6.110
90.84000 5.058
90.86000 2.271
90.88000 2.040
90.90000 2.747
90.92000 -0.189
90.94000 1.436
90.96000 2.956
90.98000 3.164
91.00000 5.440
91.02000 7.744
91.04000 4.105
91.06000 -0.041
91.08000 -0.886
91.10000 2.025
91.12000 2.890
91.14000 0.266
91.16000 0.769
91.18000 0.112
91.20000 1.405
91.22000 3.933
91.24000 1.912
91.26000 3.031
91.28000 2.671
91.30000 3.598
91.32000 2.113
91.34000 -2.012
91.36000 -0.921
91.38000 2.245
91.40000 4.401
91.42000 4.868
91.44000 4.149
91.46000 4.292
91.48000 6.900
91.50000 5.024
91.52000 4.784
91.54000 4.220
91.56000 -0.220
91.58000 1.196
91.60000 1.703
91.62000 -1.997
91.64000 -0.008
91.66000 5.333
91.68000 7.819
91.70000 4.607
91.72000 -0.398
91.74000 -1.999
91.76000 -0.010
91.78000 2.007
91.80000 -0.272
91.82000 2.152
91.84000 6.946
91.86000 6.236
91.88000 8.121
91.90000 4.579
91.92000 2.926
91.94000 0.169
91.96000 -0.497
91.98000 5.022
92.00000 7.040
92.02000 9.949
92.04000 5.279
92.06000 0.934
92.08000 2.860
92.10000 3.227
92.12000 1.404
92.14000 -0.774
92.16000 1.769
92.18000 7.430
92.20000 6.374
92.22000 4.804
92.24000 4.195
92.26000 5.880
92.28000 3.777
92.30000 2.436
92.32000 5.543
92.34000 6.845
92.36000 4.034
92.38000 1.057
92.40000 -0.830
92.42000 1.509
92.44000 -0.568
92.46000 0.770
92.48000 3.178
92.50000 2.568
92.52000 1.585
92.54000 1.202
92.56000 2.547
92.58000 3.197
92.60000 -1.695
92.62000 1.229
92.64000 -1.162
92.66000 -1.317
92.68000 1.561
92.70000 3.948
92.72000 2.473
92.74000 5.742
92.76000 2.775
92.78000 -0.048
92.80000 -2.056
92.82000 2.068
92.84000 1.907
92.86000 1.153
92.88000 2.670
92.90000 4.547
92.92000 3.703
92.94000 2.992
92.96000 1.943
92.98000 1.942
93.00000 5.911
93.02000 5.186
93.04000 4.279
93.06000 0.840
93.08000 1.824
93.10000 1.113
93.12000 4.820
93.14000 3.046
93.16000 3.783
93.18000 8.137
93.20000 3.690
93.22000 -0.612
93.24000 2.775
93.26000 5.894
93.28000 6.761
93.30000 0.937
93.32000 3.805
93.34000 2.021
93.36000 2.912
93.38000 2.355
93.40000 0.520
93.42000 -1.532
93.44000 1.703
93.46000 -0.810
93.48000 0.773
93.50000 4.301
93.52000 0.116
93.54000 1.635
93.56000 5.822
93.58000 7.621
93.60000 6.191
93.62000 5.830
93.64000 3.960
93.66000 -0.627
93.68000 0.507
93.70000 1.857
93.72000 2.989
93.74000 2.619
93.76000 4.289
93.78000 6.240
93.80000 8.107
93.82000 1.449
93.84000 -2.016
93.86000 0.860
93.88000 6.077
93.90000 8.273
93.92000 5.952
93.94000 4.825
93.96000 2.829
93.98000 4.580
94.00000 2.685
94.02000 0.906
94.04000 3.248
94.06000 5.443
94.08000 4.771
94.10000 4.278
94.12000 6.144
94.14000 1.326
94.16000 -0.556
94.18000 0.251
94.20000 0.807
94.22000 1.022
94.24000 6.443
94.26000 5.816
94.28000 6.122
94.30000 3.726
94.32000 1.647
94.34000 -2.004
94.36000 -0.210
94.38000 3.426
94.40000 0.825
94.42000 1.984
94.44000 6.236
94.46000 4.845
94.48000 0.017
94.50000 2.201
94.52000 5.467
94.54000 4.538
94.56000 3.525
94.58000 6.780
94.60000 2.848
94.62000 0.443
94.64000 5.744
94.66000 6.052
94.68000 2.742
94.70000 3.191
94.72000 4.194
94.74000 1.325
94.76000 0.276
94.78000 1.128
94.80000 6.110
94.82000 7.093
94.84000 2.199
94.86000 1.247
94.88000 5.479
94.90000 7.225
94.92000 4.792
94.94000 2.544
94.96000 6.844
94.98000 4.413
95.00000 4.663
95.02000 7.564
95.04000 7.385
95.06000 2.081
95.08000 3.933
95.10000 3.806
95.12000 9.247
95.14000 4.790
95.16000 4.502
95.18000 3.105
95.20000 2.316
95.22000 1.180
95.24000 3.170
95.26000 1.869
95.28000 -2.010
95.30000 2.273
95.32000 6.785
95.34000 6.865
95.36000 3.408
95.38000 -0.224
95.40000 0.518
95.42000 6.163
95.44000 5.822
95.46000 3.476
95.48000 1.585
95.50000 5.109
95.52000 6.456
95.54000 4.181
95.56000 1.398
95.58000 3.186
95.60000 3.661
95.62000 -0.225
95.64000 1.199
95.66000 2.494
95.68000 2.914
95.70000 6.886
95.72000 10.147
95.74000 4.199
95.76000 2.132
95.78000 2.921
95.80000 2.087
95.82000 2.355
95.84000 5.631
95.86000 7.269
95.88000 4.710
95.90000 4.326
95.92000 2.733
95.94000 3.107
95.96000 5.040
95.98000 1.762
96.00000 -1.540
96.02000 2.406
96.04000 -0.128
96.06000 -1.346
96.08000 5.000
96.10000 6.567
96.12000 3.103
96.14000 0.359
96.16000 -0.612
96.18000 6.203
96.20000 4.987
96.22000 6.633
96.24000 5.585
96.26000 4.477
96.28000 4.544
96.30000 2.784
96.32000 -0.485
96.34000 0.560
96.36000 3.699
96.38000 3.092
96.40000 4.886
96.42000 5.378
96.44000 1.836
96.46000 -1.187
96.48000 1.656
96.50000 -2.042
96.52000 -0.267
96.54000 1.290
96.56000 3.533
96.58000 3.672
96.60000 2.047
96.62000 1.340
96.64000 1.467
96.66000 4.460
96.68000 6.433
96.70000 8.290
96.72000 1.134
96.74000 0.864
96.76000 3.282
96.78000 4.315
96.80000 4.084
96.82000 0.212
96.84000 2.924
96.86000 3.350
96.88000 6.247
96.90000 4.609
96.92000 4.933
96.94000 3.948
96.96000 9.317
96.98000 8.270
97.00000 0.300
97.02000 6.342
97.04000 8.076
97.06000 5.382
97.08000 8.110
97.10000 5.246
97.12000 1.511
97.14000 -2.031
97.16000 5.037
97.18000 6.501
97.20000 4.451
97.22000 4.253
97.24000 7.705
97.26000 7.036
97.28000 4.565
97.30000 4.148
97.32000 5.171
97.34000 -0.145
97.36000 4.158
97.38000 10.608
97.40000 5.621
97.42000 2.278
97.44000 0.182
97.46000 1.436
97.48000 4.324
97.50000 6.842
97.52000 4.795
97.54000 2.292
97.56000 -0.577
97.58000 1.368
97.60000 0.199
97.62000 -2.005
97.64000 -1.948
97.66000 -0.379
97.68000 0.647
97.70000 7.764
97.72000 5.547
97.74000 8.711
97.76000 4.060
97.78000 4.097
97.80000 6.917
97.82000 6.544
97.84000 10.832
97.86000 7.440
97.88000 3.322
97.90000 1.072
97.92000 4.331
97.94000 6.493
97.96000 5.773
97.98000 4.641
98.00000 7.507
98.02000 9.920
98.04000 11.568
98.06000 5.257
98.08000 3.049
98.10000 6.975
98.12000 4.777
98.14000 11.545
98.16000 1.650
98.18000 2.420
98.20000 9.572
98.22000 9.139
98.24000 6.414
98.26000 12.493
98.28000 9.152
98.30000 5.379
98.32000 4.100
98.34000 11.440
98.36000 5.677
98.38000 8.976
98.40000 9.489
98.42000 8.906
98.44000 14.832
98.46000 11.429
98.48000 2.378
98.50000 4.717
98.52000 2.799
98.54000 2.105
98.56000 0.535
98.58000 7.796
98.60000 8.175
98.62000 11.654
98.64000 7.901
98.66000 13.716
98.68000 15.385
98.70000 12.172
98.72000 8.984
98.74000 8.660
98.76000 11.339
98.78000 9.898
98.80000 13.852
98.82000 19.213
98.84000 13.500
98.86000 7.865
98.88000 13.631
98.90000 14.929
98.92000 16.857
98.94000 7.996
98.96000 15.946
98.98000 15.837
99.00000 6.154
99.02000 6.665
99.04000 -1.834
99.06000 2.370
99.08000 12.767
99.10000 13.783
99.12000 11.149
99.14000 9.762
99.16000 16.134
99.18000 9.289
99.20000 9.508
99.22000 10.121
99.24000 7.238
99.26000 8.202
99.28000 12.973
99.30000 7.609
99.32000 10.972
99.34000 10.433
99.36000 11.826
99.38000 3.906
99.40000 3.521
99.42000 14.968
99.44000 16.481
99.46000 9.751
99.48000 10.706
99.50000 7.158
99.52000 7.616
99.54000 5.522
99.56000 6.586
99.58000 14.349
99.60000 11.772
99.62000 11.888
99.64000 15.031
99.66000 11.424
99.68000 7.975
99.70000 11.423
99.72000 11.185
99.74000 13.677
99.76000 7.639
99.78000 4.932
99.80000 3.347
99.82000 0.775
99.84000 -1.998
99.86000 2.496
99.88000 7.860
99.90000 2.445
99.92000 8.167
99.94000 11.248
99.96000 -4.543
99.98000 0.000
