'Id: "0011389" Comment: "Integrate frame 0011389_Au-Ir-Rh_Au-Rich_XRD_Mapping-025-0000.gfrmwith cursor Wedge Cursor #5" Operator: "B?rgel" Anode: "Cu" Wavelength: "1.5406" Scantype: "2Theta (TwoTheta)" TimePerStep: "1" X: "-27" Y: "-31.5" Z: "5.95" 
10.00000 0.000
10.02000 -4.645
10.04000 0.962
10.06000 18.424
10.08000 7.344
10.10000 5.112
10.12000 13.852
10.14000 -4.859
10.16000 7.446
10.18000 36.227
10.20000 31.549
10.22000 -6.013
10.24000 -4.478
10.26000 17.427
10.28000 15.327
10.30000 9.515
10.32000 8.486
10.34000 17.328
10.36000 22.215
10.38000 23.934
10.40000 22.633
10.42000 34.398
10.44000 32.637
10.46000 7.409
10.48000 10.720
10.50000 14.126
10.52000 17.292
10.54000 21.126
10.56000 6.915
10.58000 -3.324
10.60000 2.183
10.62000 -4.447
10.64000 3.383
10.66000 28.355
10.68000 24.648
10.70000 34.789
10.72000 24.363
10.74000 18.705
10.76000 29.885
10.78000 26.076
10.80000 10.775
10.82000 11.470
10.84000 7.265
10.86000 -4.388
10.88000 7.747
10.90000 1.999
10.92000 15.231
10.94000 36.849
10.96000 27.975
10.98000 17.241
11.00000 18.894
11.02000 19.961
11.04000 7.209
11.06000 3.845
11.08000 6.905
11.10000 21.660
11.12000 22.138
11.14000 15.404
11.16000 9.958
11.18000 0.292
11.20000 12.119
11.22000 15.712
11.24000 16.382
11.26000 19.312
11.28000 11.677
11.30000 8.113
11.32000 14.420
11.34000 10.522
11.36000 4.273
11.38000 14.701
11.40000 12.767
11.42000 22.494
11.44000 12.781
11.46000 9.497
11.48000 22.662
11.50000 17.342
11.52000 9.539
11.54000 8.228
11.56000 9.959
11.58000 15.453
11.60000 20.351
11.62000 17.400
11.64000 9.839
11.66000 6.868
11.68000 8.675
11.70000 10.404
11.72000 16.726
11.74000 24.017
11.76000 13.905
11.78000 8.461
11.80000 13.893
11.82000 7.101
11.84000 8.060
11.86000 11.476
11.88000 -0.818
11.90000 0.347
11.92000 6.876
11.94000 5.630
11.96000 5.721
11.98000 14.182
12.00000 16.082
12.02000 13.219
12.04000 7.858
12.06000 12.796
12.08000 7.444
12.10000 14.707
12.12000 6.660
12.14000 8.519
12.16000 14.196
12.18000 8.770
12.20000 8.755
12.22000 2.441
12.24000 14.105
12.26000 7.916
12.28000 5.846
12.30000 16.183
12.32000 12.272
12.34000 15.075
12.36000 13.784
12.38000 15.117
12.40000 2.809
12.42000 9.605
12.44000 17.549
12.46000 9.608
12.48000 12.811
12.50000 4.051
12.52000 12.478
12.54000 15.302
12.56000 18.857
12.58000 10.921
12.60000 6.199
12.62000 15.380
12.64000 14.089
12.66000 5.599
12.68000 11.636
12.70000 6.067
12.72000 -3.911
12.74000 -3.764
12.76000 -3.971
12.78000 5.853
12.80000 23.111
12.82000 16.805
12.84000 4.931
12.86000 5.823
12.88000 6.084
12.90000 6.695
12.92000 15.516
12.94000 9.386
12.96000 0.647
12.98000 -2.697
13.00000 -4.504
13.02000 5.113
13.04000 12.982
13.06000 7.998
13.08000 12.314
13.10000 14.273
13.12000 7.348
13.14000 10.393
13.16000 11.875
13.18000 8.353
13.20000 3.454
13.22000 -4.302
13.24000 2.016
13.26000 11.804
13.28000 12.559
13.30000 12.936
13.32000 2.234
13.34000 3.355
13.36000 5.427
13.38000 12.931
13.40000 17.176
13.42000 8.663
13.44000 15.575
13.46000 10.469
13.48000 9.685
13.50000 10.375
13.52000 16.167
13.54000 20.070
13.56000 12.798
13.58000 3.272
13.60000 6.914
13.62000 6.602
13.64000 1.841
13.66000 0.296
13.68000 -1.729
13.70000 5.459
13.72000 9.877
13.74000 4.493
13.76000 4.742
13.78000 -4.493
13.80000 -0.792
13.82000 2.301
13.84000 10.728
13.86000 6.284
13.88000 -4.491
13.90000 -0.319
13.92000 -0.613
13.94000 8.187
13.96000 5.721
13.98000 5.119
14.00000 11.930
14.02000 11.894
14.04000 4.551
14.06000 -0.026
14.08000 3.086
14.10000 12.509
14.12000 11.759
14.14000 11.611
14.16000 10.376
14.18000 4.206
14.20000 1.093
14.22000 4.156
14.24000 3.822
14.26000 3.032
14.28000 -0.553
14.30000 8.431
14.32000 15.474
14.34000 18.483
14.36000 5.562
14.38000 6.031
14.40000 14.158
14.42000 16.715
14.44000 14.112
14.46000 7.173
14.48000 12.125
14.50000 12.042
14.52000 3.608
14.54000 6.734
14.56000 7.095
14.58000 8.821
14.60000 14.388
14.62000 15.358
14.64000 13.318
14.66000 16.283
14.68000 13.797
14.70000 7.492
14.72000 8.706
14.74000 12.876
14.76000 -1.720
14.78000 2.596
14.80000 0.457
14.82000 0.815
14.84000 -0.944
14.86000 1.649
14.88000 9.295
14.90000 5.288
14.92000 5.762
14.94000 11.586
14.96000 1.362
14.98000 5.122
15.00000 4.238
15.02000 3.735
15.04000 1.745
15.06000 1.606
15.08000 7.743
15.10000 6.757
15.12000 5.053
15.14000 3.123
15.16000 -2.914
15.18000 3.680
15.20000 3.310
15.22000 10.594
15.24000 4.439
15.26000 4.479
15.28000 -4.433
15.30000 4.879
15.32000 3.095
15.34000 3.798
15.36000 2.919
15.38000 1.749
15.40000 12.615
15.42000 9.720
15.44000 11.403
15.46000 3.606
15.48000 9.622
15.50000 4.300
15.52000 -2.256
15.54000 -2.855
15.56000 1.775
15.58000 4.091
15.60000 -0.801
15.62000 -0.964
15.64000 6.053
15.66000 6.627
15.68000 1.169
15.70000 5.571
15.72000 9.628
15.74000 5.943
15.76000 4.217
15.78000 3.910
15.80000 6.497
15.82000 4.215
15.84000 2.611
15.86000 -2.132
15.88000 2.475
15.90000 6.855
15.92000 11.054
15.94000 16.024
15.96000 4.778
15.98000 5.782
16.00000 5.369
16.02000 0.704
16.04000 6.124
16.06000 1.076
16.08000 -1.407
16.10000 6.157
16.12000 9.675
16.14000 0.429
16.16000 -1.483
16.18000 1.730
16.20000 -1.564
16.22000 5.563
16.24000 13.370
16.26000 13.833
16.28000 10.712
16.30000 7.378
16.32000 13.009
16.34000 5.125
16.36000 5.795
16.38000 16.501
16.40000 17.076
16.42000 13.398
16.44000 9.885
16.46000 7.207
16.48000 -0.385
16.50000 0.540
16.52000 7.003
16.54000 9.320
16.56000 5.894
16.58000 6.399
16.60000 15.022
16.62000 15.700
16.64000 13.108
16.66000 12.271
16.68000 4.628
16.70000 -3.625
16.72000 2.473
16.74000 0.706
16.76000 11.129
16.78000 3.600
16.80000 -0.273
16.82000 3.098
16.84000 6.436
16.86000 11.012
16.88000 9.213
16.90000 15.693
16.92000 5.430
16.94000 1.004
16.96000 -0.111
16.98000 0.980
17.00000 4.890
17.02000 9.360
17.04000 2.715
17.06000 -4.332
17.08000 -2.296
17.10000 9.525
17.12000 6.977
17.14000 9.835
17.16000 8.022
17.18000 11.798
17.20000 7.712
17.22000 9.397
17.24000 7.746
17.26000 1.839
17.28000 2.830
17.30000 5.505
17.32000 -0.714
17.34000 8.373
17.36000 5.762
17.38000 2.785
17.40000 9.483
17.42000 14.729
17.44000 14.448
17.46000 2.929
17.48000 2.052
17.50000 10.043
17.52000 6.269
17.54000 10.522
17.56000 9.615
17.58000 11.495
17.60000 8.005
17.62000 9.303
17.64000 4.768
17.66000 8.157
17.68000 10.035
17.70000 7.350
17.72000 2.625
17.74000 0.679
17.76000 3.694
17.78000 1.075
17.80000 5.220
17.82000 9.696
17.84000 11.443
17.86000 12.545
17.88000 11.226
17.90000 10.852
17.92000 8.967
17.94000 0.138
17.96000 9.343
17.98000 13.939
18.00000 7.561
18.02000 4.086
18.04000 7.343
18.06000 4.971
18.08000 3.550
18.10000 10.572
18.12000 14.126
18.14000 10.981
18.16000 7.888
18.18000 8.227
18.20000 0.902
18.22000 -4.265
18.24000 -2.511
18.26000 -3.311
18.28000 3.510
18.30000 5.900
18.32000 20.186
18.34000 19.789
18.36000 3.483
18.38000 -1.050
18.40000 11.028
18.42000 5.640
18.44000 4.301
18.46000 0.330
18.48000 5.002
18.50000 4.779
18.52000 4.874
18.54000 10.251
18.56000 11.250
18.58000 6.698
18.60000 5.227
18.62000 9.194
18.64000 7.457
18.66000 9.762
18.68000 6.773
18.70000 1.744
18.72000 3.342
18.74000 6.972
18.76000 10.591
18.78000 9.818
18.80000 5.465
18.82000 4.796
18.84000 2.182
18.86000 0.392
18.88000 2.789
18.90000 8.337
18.92000 5.326
18.94000 2.129
18.96000 3.328
18.98000 6.833
19.00000 12.540
19.02000 8.995
19.04000 14.977
19.06000 10.948
19.08000 9.100
19.10000 1.338
19.12000 2.464
19.14000 8.430
19.16000 7.220
19.18000 7.014
19.20000 7.075
19.22000 8.646
19.24000 3.032
19.26000 2.034
19.28000 9.481
19.30000 9.414
19.32000 5.266
19.34000 6.146
19.36000 7.848
19.38000 0.662
19.40000 3.360
19.42000 4.129
19.44000 4.657
19.46000 7.553
19.48000 7.100
19.50000 -0.238
19.52000 -1.070
19.54000 7.858
19.56000 10.085
19.58000 11.960
19.60000 3.601
19.62000 -0.443
19.64000 6.382
19.66000 4.118
19.68000 10.256
19.70000 11.398
19.72000 9.951
19.74000 5.136
19.76000 3.763
19.78000 3.947
19.80000 9.871
19.82000 5.676
19.84000 8.357
19.86000 9.253
19.88000 8.560
19.90000 3.716
19.92000 1.429
19.94000 3.654
19.96000 11.578
19.98000 13.397
20.00000 7.957
20.02000 5.293
20.04000 11.298
20.06000 11.211
20.08000 6.660
20.10000 5.328
20.12000 6.869
20.14000 10.577
20.16000 7.751
20.18000 10.480
20.20000 13.043
20.22000 12.895
20.24000 10.152
20.26000 6.000
20.28000 3.935
20.30000 6.260
20.32000 13.835
20.34000 11.884
20.36000 7.449
20.38000 4.321
20.40000 3.253
20.42000 0.482
20.44000 0.060
20.46000 5.235
20.48000 6.427
20.50000 3.424
20.52000 6.667
20.54000 6.660
20.56000 14.027
20.58000 10.264
20.60000 1.937
20.62000 0.622
20.64000 -4.088
20.66000 1.681
20.68000 4.267
20.70000 11.031
20.72000 12.566
20.74000 16.870
20.76000 8.836
20.78000 7.648
20.80000 10.627
20.82000 6.081
20.84000 3.121
20.86000 7.175
20.88000 18.655
20.90000 14.720
20.92000 2.482
20.94000 3.941
20.96000 8.879
20.98000 13.152
21.00000 9.056
21.02000 10.698
21.04000 5.755
21.06000 9.853
21.08000 10.086
21.10000 12.321
21.12000 6.246
21.14000 4.400
21.16000 6.383
21.18000 4.803
21.20000 3.581
21.22000 0.411
21.24000 4.063
21.26000 2.224
21.28000 5.478
21.30000 6.497
21.32000 7.567
21.34000 3.667
21.36000 -0.369
21.38000 -0.701
21.40000 7.510
21.42000 5.187
21.44000 8.811
21.46000 2.691
21.48000 5.343
21.50000 4.170
21.52000 7.343
21.54000 4.408
21.56000 5.253
21.58000 5.252
21.60000 7.133
21.62000 3.666
21.64000 -0.019
21.66000 3.503
21.68000 8.884
21.70000 5.817
21.72000 0.877
21.74000 7.924
21.76000 5.027
21.78000 -1.855
21.80000 1.139
21.82000 2.429
21.84000 0.095
21.86000 2.869
21.88000 3.151
21.90000 7.040
21.92000 9.592
21.94000 6.641
21.96000 8.860
21.98000 12.703
22.00000 1.643
22.02000 -2.906
22.04000 -1.177
22.06000 0.089
22.08000 2.996
22.10000 4.684
22.12000 5.260
22.14000 -0.826
22.16000 0.143
22.18000 2.809
22.20000 4.569
22.22000 1.219
22.24000 1.656
22.26000 2.323
22.28000 6.382
22.30000 4.118
22.32000 4.273
22.34000 7.102
22.36000 7.071
22.38000 4.819
22.40000 1.907
22.42000 2.251
22.44000 0.914
22.46000 0.228
22.48000 1.446
22.50000 4.834
22.52000 3.200
22.54000 5.154
22.56000 9.459
22.58000 -0.418
22.60000 5.061
22.62000 2.488
22.64000 3.937
22.66000 6.154
22.68000 6.656
22.70000 3.835
22.72000 5.501
22.74000 -0.428
22.76000 -4.030
22.78000 -1.571
22.80000 5.009
22.82000 2.369
22.84000 3.803
22.86000 9.743
22.88000 8.129
22.90000 1.886
22.92000 3.945
22.94000 3.207
22.96000 5.879
22.98000 3.148
23.00000 3.407
23.02000 4.883
23.04000 12.327
23.06000 7.470
23.08000 -3.401
23.10000 4.425
23.12000 7.441
23.14000 4.762
23.16000 0.427
23.18000 -0.748
23.20000 4.849
23.22000 2.703
23.24000 -0.843
23.26000 2.542
23.28000 3.922
23.30000 1.955
23.32000 5.764
23.34000 1.976
23.36000 -2.430
23.38000 7.105
23.40000 1.767
23.42000 2.399
23.44000 9.324
23.46000 8.067
23.48000 7.279
23.50000 6.116
23.52000 0.767
23.54000 -3.978
23.56000 -0.656
23.58000 4.092
23.60000 -0.218
23.62000 3.992
23.64000 4.308
23.66000 0.638
23.68000 5.286
23.70000 2.479
23.72000 8.066
23.74000 5.827
23.76000 0.117
23.78000 0.900
23.80000 5.981
23.82000 3.909
23.84000 2.094
23.86000 0.623
23.88000 3.189
23.90000 -0.866
23.92000 1.628
23.94000 6.715
23.96000 3.168
23.98000 4.912
24.00000 -3.971
24.02000 0.404
24.04000 9.143
24.06000 9.052
24.08000 5.918
24.10000 6.091
24.12000 -1.593
24.14000 -1.081
24.16000 1.284
24.18000 0.920
24.20000 7.005
24.22000 8.059
24.24000 5.341
24.26000 4.391
24.28000 7.449
24.30000 4.683
24.32000 -2.522
24.34000 -0.133
24.36000 2.878
24.38000 0.340
24.40000 -0.077
24.42000 -1.037
24.44000 0.226
24.46000 5.079
24.48000 8.832
24.50000 4.939
24.52000 3.018
24.54000 9.463
24.56000 -0.953
24.58000 -0.975
24.60000 0.268
24.62000 6.190
24.64000 7.533
24.66000 10.023
24.68000 10.165
24.70000 4.487
24.72000 1.745
24.74000 -0.523
24.76000 -0.343
24.78000 4.419
24.80000 2.835
24.82000 -1.706
24.84000 -0.237
24.86000 -0.907
24.88000 0.304
24.90000 6.720
24.92000 4.622
24.94000 -0.020
24.96000 0.623
24.98000 0.567
25.00000 -3.925
25.02000 -1.023
25.04000 1.644
25.06000 1.546
25.08000 4.176
25.10000 4.029
25.12000 2.023
25.14000 2.456
25.16000 5.578
25.18000 5.305
25.20000 2.160
25.22000 -1.670
25.24000 2.749
25.26000 2.555
25.28000 1.099
25.30000 1.871
25.32000 -3.049
25.34000 -2.057
25.36000 1.919
25.38000 0.601
25.40000 -2.048
25.42000 -2.048
25.44000 -1.508
25.46000 1.180
25.48000 7.258
25.50000 7.856
25.52000 3.616
25.54000 -3.903
25.56000 -3.602
25.58000 8.387
25.60000 7.668
25.62000 -3.224
25.64000 -3.898
25.66000 -2.920
25.68000 0.674
25.70000 -3.245
25.72000 -0.491
25.74000 -1.013
25.76000 1.667
25.78000 4.806
25.80000 2.317
25.82000 3.155
25.84000 9.099
25.86000 5.945
25.88000 -2.484
25.90000 0.509
25.92000 3.440
25.94000 3.531
25.96000 1.315
25.98000 0.896
26.00000 1.820
26.02000 3.341
26.04000 6.314
26.06000 0.790
26.08000 -1.430
26.10000 -1.694
26.12000 0.979
26.14000 -3.867
26.16000 2.783
26.18000 7.951
26.20000 10.705
26.22000 1.629
26.24000 6.116
26.26000 2.831
26.28000 -1.931
26.30000 2.455
26.32000 2.183
26.34000 0.470
26.36000 0.741
26.38000 4.716
26.40000 7.948
26.42000 2.506
26.44000 2.674
26.46000 -0.668
26.48000 -1.472
26.50000 -3.508
26.52000 -3.657
26.54000 -1.625
26.56000 0.906
26.58000 -1.745
26.60000 3.684
26.62000 6.094
26.64000 0.113
26.66000 -2.984
26.68000 0.450
26.70000 2.581
26.72000 0.180
26.74000 -1.224
26.76000 -1.002
26.78000 -1.832
26.80000 -0.214
26.82000 3.391
26.84000 1.714
26.86000 2.918
26.88000 4.051
26.90000 2.886
26.92000 1.566
26.94000 1.207
26.96000 3.009
26.98000 1.456
27.00000 -1.832
27.02000 -2.023
27.04000 -2.159
27.06000 1.630
27.08000 1.380
27.10000 -2.481
27.12000 -1.207
27.14000 11.792
27.16000 6.663
27.18000 8.041
27.20000 4.973
27.22000 -2.000
27.24000 -2.310
27.26000 3.129
27.28000 1.627
27.30000 2.960
27.32000 6.061
27.34000 4.938
27.36000 0.712
27.38000 2.598
27.40000 -0.821
27.42000 -0.168
27.44000 1.906
27.46000 3.629
27.48000 5.627
27.50000 8.660
27.52000 4.896
27.54000 4.501
27.56000 2.478
27.58000 -3.774
27.60000 -2.008
27.62000 -2.493
27.64000 2.836
27.66000 7.763
27.68000 5.489
27.70000 8.226
27.72000 1.868
27.74000 0.753
27.76000 2.234
27.78000 0.876
27.80000 3.084
27.82000 -0.465
27.84000 -0.579
27.86000 -0.015
27.88000 0.621
27.90000 1.494
27.92000 1.109
27.94000 1.220
27.96000 3.481
27.98000 4.107
28.00000 -2.399
28.02000 -2.401
28.04000 4.854
28.06000 3.764
28.08000 4.666
28.10000 6.185
28.12000 3.627
28.14000 2.150
28.16000 7.441
28.18000 0.347
28.20000 -0.507
28.22000 -3.576
28.24000 -2.862
28.26000 1.908
28.28000 1.809
28.30000 -2.548
28.32000 -1.487
28.34000 1.128
28.36000 0.582
28.38000 3.860
28.40000 0.415
28.42000 -1.672
28.44000 -0.847
28.46000 0.100
28.48000 3.966
28.50000 3.671
28.52000 -1.213
28.54000 0.676
28.56000 -0.193
28.58000 1.825
28.60000 -0.376
28.62000 -0.453
28.64000 -3.724
28.66000 -1.031
28.68000 3.604
28.70000 3.757
28.72000 1.656
28.74000 2.494
28.76000 1.724
28.78000 1.397
28.80000 1.079
28.82000 5.975
28.84000 5.470
28.86000 2.847
28.88000 -2.387
28.90000 3.112
28.92000 2.856
28.94000 -1.492
28.96000 1.938
28.98000 3.241
29.00000 1.542
29.02000 3.846
29.04000 1.438
29.06000 0.342
29.08000 0.388
29.10000 0.201
29.12000 -0.270
29.14000 1.230
29.16000 2.830
29.18000 6.341
29.20000 0.817
29.22000 4.653
29.24000 4.249
29.26000 5.715
29.28000 5.371
29.30000 -0.871
29.32000 -0.506
29.34000 4.510
29.36000 5.382
29.38000 2.402
29.40000 -2.722
29.42000 -3.677
29.44000 -2.241
29.46000 1.058
29.48000 1.140
29.50000 1.939
29.52000 3.659
29.54000 2.334
29.56000 -0.368
29.58000 4.293
29.60000 4.086
29.62000 3.435
29.64000 0.815
29.66000 2.742
29.68000 2.796
29.70000 1.953
29.72000 -0.202
29.74000 1.758
29.76000 3.293
29.78000 4.504
29.80000 2.742
29.82000 5.630
29.84000 8.717
29.86000 3.668
29.88000 -3.654
29.90000 -1.125
29.92000 6.243
29.94000 7.719
29.96000 4.784
29.98000 3.843
30.00000 2.414
30.02000 -0.007
30.04000 -3.458
30.06000 1.823
30.08000 0.461
30.10000 2.384
30.12000 6.415
30.14000 8.384
30.16000 5.836
30.18000 2.996
30.20000 3.663
30.22000 6.397
30.24000 7.459
30.26000 2.677
30.28000 1.406
30.30000 2.137
30.32000 1.608
30.34000 1.080
30.36000 -1.012
30.38000 -2.118
30.40000 6.632
30.42000 4.028
30.44000 1.316
30.46000 2.170
30.48000 3.664
30.50000 3.557
30.52000 -2.215
30.54000 -3.220
30.56000 2.363
30.58000 4.124
30.60000 6.722
30.62000 3.719
30.64000 1.210
30.66000 3.995
30.68000 4.007
30.70000 8.573
30.72000 3.450
30.74000 4.223
30.76000 1.042
30.78000 -1.974
30.80000 1.857
30.82000 5.536
30.84000 3.529
30.86000 4.395
30.88000 2.893
30.90000 1.550
30.92000 3.988
30.94000 2.455
30.96000 2.068
30.98000 -1.025
31.00000 -0.365
31.02000 0.632
31.04000 1.225
31.06000 -2.193
31.08000 -2.072
31.10000 -1.319
31.12000 2.004
31.14000 -0.380
31.16000 -2.894
31.18000 -1.798
31.20000 -3.527
31.22000 0.194
31.24000 3.690
31.26000 2.579
31.28000 5.314
31.30000 -2.033
31.32000 -3.609
31.34000 2.372
31.36000 3.035
31.38000 5.428
31.40000 3.632
31.42000 2.268
31.44000 5.557
31.46000 1.327
31.48000 1.904
31.50000 -0.864
31.52000 2.060
31.54000 1.210
31.56000 -3.600
31.58000 -2.495
31.60000 0.287
31.62000 1.472
31.64000 0.867
31.66000 -1.014
31.68000 -2.916
31.70000 3.715
31.72000 2.350
31.74000 -0.921
31.76000 1.617
31.78000 1.475
31.80000 3.856
31.82000 3.819
31.84000 4.234
31.86000 3.516
31.88000 2.900
31.90000 3.104
31.92000 -0.956
31.94000 0.158
31.96000 2.131
31.98000 -1.391
32.00000 3.651
32.02000 2.882
32.04000 0.352
32.06000 4.482
32.08000 7.023
32.10000 0.901
32.12000 4.726
32.14000 4.896
32.16000 4.587
32.18000 6.395
32.20000 8.469
32.22000 4.663
32.24000 7.271
32.26000 8.621
32.28000 5.824
32.30000 5.412
32.32000 2.791
32.34000 0.706
32.36000 -2.145
32.38000 1.595
32.40000 7.773
32.42000 7.391
32.44000 4.131
32.46000 0.916
32.48000 0.497
32.50000 -3.546
32.52000 -0.962
32.54000 2.571
32.56000 0.971
32.58000 1.148
32.60000 7.512
32.62000 7.605
32.64000 1.617
32.66000 2.058
32.68000 5.622
32.70000 8.059
32.72000 5.887
32.74000 2.829
32.76000 2.951
32.78000 0.912
32.80000 -3.525
32.82000 -0.874
32.84000 5.476
32.86000 3.176
32.88000 6.207
32.90000 6.543
32.92000 5.374
32.94000 1.237
32.96000 -1.215
32.98000 1.054
33.00000 4.411
33.02000 5.236
33.04000 3.724
33.06000 4.415
33.08000 2.536
33.10000 3.943
33.12000 3.895
33.14000 7.447
33.16000 9.073
33.18000 7.204
33.20000 8.514
33.22000 4.411
33.24000 4.101
33.26000 2.690
33.28000 7.477
33.30000 7.127
33.32000 2.531
33.34000 5.987
33.36000 4.948
33.38000 5.068
33.40000 0.313
33.42000 3.756
33.44000 3.229
33.46000 4.328
33.48000 8.034
33.50000 2.908
33.52000 4.060
33.54000 2.819
33.56000 5.167
33.58000 5.222
33.60000 9.869
33.62000 4.083
33.64000 0.613
33.66000 -0.149
33.68000 3.550
33.70000 3.382
33.72000 0.297
33.74000 1.916
33.76000 4.997
33.78000 6.264
33.80000 5.625
33.82000 -0.091
33.84000 0.129
33.86000 1.524
33.88000 4.952
33.90000 4.011
33.92000 1.986
33.94000 6.005
33.96000 4.194
33.98000 4.089
34.00000 5.391
34.02000 3.497
34.04000 6.313
34.06000 5.215
34.08000 4.298
34.10000 0.992
34.12000 5.045
34.14000 6.184
34.16000 6.148
34.18000 6.873
34.20000 8.952
34.22000 7.073
34.24000 -0.489
34.26000 -1.853
34.28000 1.675
34.30000 7.768
34.32000 4.147
34.34000 5.245
34.36000 4.383
34.38000 3.163
34.40000 1.320
34.42000 -3.521
34.44000 -0.786
34.46000 9.443
34.48000 7.568
34.50000 6.251
34.52000 5.384
34.54000 2.815
34.56000 5.906
34.58000 2.206
34.60000 -2.308
34.62000 3.122
34.64000 4.707
34.66000 -3.509
34.68000 0.774
34.70000 6.212
34.72000 1.266
34.74000 4.902
34.76000 1.925
34.78000 6.383
34.80000 3.674
34.82000 -1.533
34.84000 4.196
34.86000 5.152
34.88000 5.814
34.90000 2.569
34.92000 1.413
34.94000 9.444
34.96000 8.377
34.98000 5.112
35.00000 4.263
35.02000 4.986
35.04000 4.912
35.06000 3.884
35.08000 7.157
35.10000 8.242
35.12000 4.425
35.14000 -0.341
35.16000 3.405
35.18000 8.103
35.20000 8.872
35.22000 10.178
35.24000 6.471
35.26000 5.015
35.28000 7.897
35.30000 4.609
35.32000 -0.854
35.34000 -2.753
35.36000 -3.473
35.38000 -2.758
35.40000 2.097
35.42000 7.574
35.44000 7.249
35.46000 4.079
35.48000 4.130
35.50000 8.209
35.52000 5.683
35.54000 3.301
35.56000 3.963
35.58000 2.269
35.60000 1.272
35.62000 -0.886
35.64000 0.266
35.66000 3.812
35.68000 5.386
35.70000 4.484
35.72000 8.770
35.74000 4.536
35.76000 0.033
35.78000 0.852
35.80000 3.628
35.82000 0.765
35.84000 -0.277
35.86000 4.045
35.88000 1.863
35.90000 -2.460
35.92000 -0.960
35.94000 -3.101
35.96000 2.671
35.98000 2.895
36.00000 3.312
36.02000 5.356
36.04000 3.175
36.06000 -3.530
36.08000 -1.878
36.10000 3.439
36.12000 3.980
36.14000 1.959
36.16000 -2.313
36.18000 -0.719
36.20000 -3.398
36.22000 1.108
36.24000 8.570
36.26000 6.757
36.28000 3.471
36.30000 1.121
36.32000 -0.549
36.34000 1.555
36.36000 2.906
36.38000 2.595
36.40000 1.467
36.42000 2.413
36.44000 -0.023
36.46000 1.471
36.48000 -1.515
36.50000 -0.747
36.52000 -2.179
36.54000 -1.079
36.56000 1.921
36.58000 2.988
36.60000 -2.439
36.62000 1.973
36.64000 -0.632
36.66000 3.315
36.68000 3.651
36.70000 3.699
36.72000 2.829
36.74000 -1.228
36.76000 6.880
36.78000 5.638
36.80000 5.346
36.82000 -1.197
36.84000 -3.570
36.86000 3.745
36.88000 1.257
36.90000 4.312
36.92000 4.285
36.94000 4.284
36.96000 1.040
36.98000 5.660
37.00000 2.687
37.02000 4.623
37.04000 10.802
37.06000 14.559
37.08000 8.602
37.10000 8.224
37.12000 7.705
37.14000 3.564
37.16000 5.662
37.18000 6.206
37.20000 0.789
37.22000 -0.667
37.24000 2.586
37.26000 3.497
37.28000 4.021
37.30000 3.279
37.32000 4.240
37.34000 5.328
37.36000 5.272
37.38000 6.308
37.40000 7.187
37.42000 7.861
37.44000 8.918
37.46000 6.015
37.48000 7.991
37.50000 7.840
37.52000 3.896
37.54000 2.911
37.56000 2.896
37.58000 9.204
37.60000 10.064
37.62000 10.129
37.64000 12.614
37.66000 9.588
37.68000 10.290
37.70000 12.541
37.72000 10.131
37.74000 13.867
37.76000 17.079
37.78000 15.219
37.80000 15.715
37.82000 14.944
37.84000 17.483
37.86000 15.199
37.88000 13.483
37.90000 12.686
37.92000 12.630
37.94000 14.448
37.96000 12.747
37.98000 15.219
38.00000 14.235
38.02000 16.278
38.04000 16.860
38.06000 15.970
38.08000 17.349
38.10000 17.551
38.12000 26.059
38.14000 29.017
38.16000 19.921
38.18000 20.059
38.20000 24.455
38.22000 26.693
38.24000 25.223
38.26000 22.598
38.28000 26.169
38.30000 25.919
38.32000 35.757
38.34000 33.981
38.36000 36.657
38.38000 40.575
38.40000 38.308
38.42000 34.763
38.44000 40.639
38.46000 41.452
38.48000 33.581
38.50000 37.239
38.52000 45.720
38.54000 46.744
38.56000 42.133
38.58000 50.843
38.60000 53.495
38.62000 56.332
38.64000 58.290
38.66000 56.669
38.68000 61.251
38.70000 61.780
38.72000 62.281
38.74000 65.860
38.76000 67.703
38.78000 73.138
38.80000 76.837
38.82000 84.775
38.84000 85.814
38.86000 92.263
38.88000 94.721
38.90000 99.955
38.92000 106.717
38.94000 107.750
38.96000 113.117
38.98000 119.571
39.00000 125.289
39.02000 127.757
39.04000 136.115
39.06000 151.913
39.08000 150.462
39.10000 159.610
39.12000 169.518
39.14000 177.591
39.16000 187.387
39.18000 205.027
39.20000 219.777
39.22000 232.757
39.24000 246.581
39.26000 266.557
39.28000 289.270
39.30000 304.013
39.32000 311.792
39.34000 330.428
39.36000 347.983
39.38000 372.993
39.40000 398.927
39.42000 420.020
39.44000 451.514
39.46000 475.978
39.48000 502.777
39.50000 525.538
39.52000 553.280
39.54000 566.480
39.56000 594.972
39.58000 613.502
39.60000 650.809
39.62000 681.304
39.64000 703.023
39.66000 717.756
39.68000 728.612
39.70000 734.822
39.72000 759.062
39.74000 768.805
39.76000 770.213
39.78000 774.252
39.80000 779.072
39.82000 778.475
39.84000 767.015
39.86000 757.707
39.88000 748.871
39.90000 752.227
39.92000 733.600
39.94000 705.857
39.96000 686.566
39.98000 667.632
40.00000 648.514
40.02000 631.539
40.04000 608.466
40.06000 583.703
40.08000 566.723
40.10000 536.781
40.12000 514.835
40.14000 491.045
40.16000 460.102
40.18000 437.702
40.20000 411.266
40.22000 378.692
40.24000 361.585
40.26000 339.980
40.28000 315.609
40.30000 302.061
40.32000 279.821
40.34000 257.918
40.36000 242.037
40.38000 226.905
40.40000 211.710
40.42000 204.809
40.44000 192.169
40.46000 177.511
40.48000 159.523
40.50000 155.750
40.52000 145.410
40.54000 131.683
40.56000 130.613
40.58000 122.530
40.60000 112.263
40.62000 105.141
40.64000 97.333
40.66000 89.612
40.68000 87.325
40.70000 86.048
40.72000 74.358
40.74000 64.853
40.76000 63.763
40.78000 64.262
40.80000 65.448
40.82000 59.514
40.84000 54.267
40.86000 51.988
40.88000 49.075
40.90000 45.200
40.92000 41.168
40.94000 37.446
40.96000 38.968
40.98000 40.009
41.00000 35.604
41.02000 32.590
41.04000 35.194
41.06000 30.854
41.08000 30.768
41.10000 31.412
41.12000 27.675
41.14000 23.588
41.16000 26.279
41.18000 23.762
41.20000 19.124
41.22000 16.412
41.24000 16.841
41.26000 17.435
41.28000 15.573
41.30000 14.112
41.32000 15.210
41.34000 15.289
41.36000 12.838
41.38000 13.868
41.40000 12.699
41.42000 9.904
41.44000 9.307
41.46000 10.701
41.48000 13.519
41.50000 12.535
41.52000 8.272
41.54000 8.641
41.56000 10.488
41.58000 6.804
41.60000 8.039
41.62000 9.050
41.64000 5.340
41.66000 2.809
41.68000 0.716
41.70000 2.134
41.72000 5.657
41.74000 6.332
41.76000 4.696
41.78000 6.563
41.80000 3.685
41.82000 2.913
41.84000 2.071
41.86000 4.704
41.88000 4.713
41.90000 1.475
41.92000 -0.105
41.94000 0.978
41.96000 5.439
41.98000 5.528
42.00000 3.359
42.02000 1.705
42.04000 -0.484
42.06000 0.453
42.08000 0.161
42.10000 3.567
42.12000 3.207
42.14000 0.350
42.16000 -2.294
42.18000 4.796
42.20000 5.741
42.22000 4.689
42.24000 2.541
42.26000 0.820
42.28000 1.307
42.30000 4.442
42.32000 1.963
42.34000 1.733
42.36000 -1.465
42.38000 -1.041
42.40000 0.965
42.42000 0.860
42.44000 -3.395
42.46000 -3.140
42.48000 -1.870
42.50000 0.084
42.52000 1.993
42.54000 0.143
42.56000 3.182
42.58000 2.599
42.60000 0.496
42.62000 -0.428
42.64000 -0.876
42.66000 -3.361
42.68000 -0.446
42.70000 2.325
42.72000 -0.625
42.74000 -1.337
42.76000 0.071
42.78000 -2.058
42.80000 3.784
42.82000 1.382
42.84000 -3.334
42.86000 -1.900
42.88000 -2.372
42.90000 -0.399
42.92000 0.888
42.94000 2.947
42.96000 -1.619
42.98000 -2.002
43.00000 -1.909
43.02000 -1.669
43.04000 0.886
43.06000 2.258
43.08000 -2.574
43.10000 -0.878
43.12000 2.616
43.14000 6.135
43.16000 0.858
43.18000 -2.532
43.20000 -0.710
43.22000 1.393
43.24000 -1.674
43.26000 2.943
43.28000 -2.049
43.30000 -1.014
43.32000 0.015
43.34000 -3.261
43.36000 2.949
43.38000 3.121
43.40000 -1.532
43.42000 -0.643
43.44000 0.129
43.46000 2.419
43.48000 0.349
43.50000 1.800
43.52000 3.543
43.54000 2.683
43.56000 0.735
43.58000 0.553
43.60000 -2.506
43.62000 -1.838
43.64000 -0.587
43.66000 0.507
43.68000 2.937
43.70000 1.494
43.72000 6.072
43.74000 2.815
43.76000 -1.655
43.78000 -2.652
43.80000 1.079
43.82000 3.613
43.84000 0.243
43.86000 -2.613
43.88000 -3.133
43.90000 -2.705
43.92000 2.717
43.94000 1.617
43.96000 -3.207
43.98000 -2.209
44.00000 0.641
44.02000 0.260
44.04000 -1.040
44.06000 1.640
44.08000 0.987
44.10000 2.486
44.12000 2.916
44.14000 3.784
44.16000 4.410
44.18000 2.012
44.20000 -1.424
44.22000 0.802
44.24000 5.970
44.26000 4.007
44.28000 1.809
44.30000 -1.877
44.32000 -0.037
44.34000 1.786
44.36000 -0.631
44.38000 -2.565
44.40000 -2.991
44.42000 -0.062
44.44000 1.601
44.46000 -1.112
44.48000 1.828
44.50000 2.235
44.52000 -1.271
44.54000 -0.500
44.56000 -1.104
44.58000 -2.571
44.60000 -1.646
44.62000 -1.000
44.64000 -1.787
44.66000 0.218
44.68000 -2.364
44.70000 1.619
44.72000 2.198
44.74000 2.110
44.76000 3.172
44.78000 0.137
44.80000 -1.966
44.82000 1.933
44.84000 -2.228
44.86000 -0.766
44.88000 -0.412
44.90000 4.718
44.92000 3.484
44.94000 -2.476
44.96000 0.093
44.98000 -0.449
45.00000 -2.135
45.02000 2.038
45.04000 3.325
45.06000 2.479
45.08000 2.651
45.10000 6.432
45.12000 4.193
45.14000 3.861
45.16000 3.737
45.18000 3.947
45.20000 6.051
45.22000 5.950
45.24000 4.971
45.26000 5.816
45.28000 7.240
45.30000 10.445
45.32000 5.852
45.34000 7.108
45.36000 8.591
45.38000 8.303
45.40000 9.324
45.42000 8.965
45.44000 8.079
45.46000 11.621
45.48000 9.850
45.50000 7.139
45.52000 14.979
45.54000 15.865
45.56000 13.670
45.58000 13.097
45.60000 17.446
45.62000 17.207
45.64000 19.471
45.66000 25.314
45.68000 22.781
45.70000 24.093
45.72000 23.998
45.74000 25.931
45.76000 26.710
45.78000 27.061
45.80000 27.386
45.82000 30.462
45.84000 30.913
45.86000 29.694
45.88000 36.303
45.90000 37.877
45.92000 37.177
45.94000 34.950
45.96000 40.218
45.98000 45.998
46.00000 44.884
46.02000 41.450
46.04000 44.851
46.06000 46.588
46.08000 50.051
46.10000 54.050
46.12000 54.054
46.14000 60.077
46.16000 58.994
46.18000 60.421
46.20000 61.073
46.22000 65.317
46.24000 71.000
46.26000 66.270
46.28000 71.918
46.30000 74.314
46.32000 76.777
46.34000 74.604
46.36000 80.328
46.38000 79.434
46.40000 76.372
46.42000 74.713
46.44000 81.094
46.46000 77.903
46.48000 81.539
46.50000 80.967
46.52000 81.594
46.54000 80.758
46.56000 82.472
46.58000 82.349
46.60000 80.048
46.62000 76.991
46.64000 71.912
46.66000 70.784
46.68000 74.889
46.70000 77.314
46.72000 75.056
46.74000 72.372
46.76000 66.453
46.78000 62.317
46.80000 62.770
46.82000 64.053
46.84000 57.117
46.86000 51.648
46.88000 51.825
46.90000 53.550
46.92000 54.209
46.94000 47.486
46.96000 42.146
46.98000 41.560
47.00000 40.882
47.02000 34.273
47.04000 38.661
47.06000 38.578
47.08000 32.589
47.10000 26.601
47.12000 25.138
47.14000 23.229
47.16000 21.688
47.18000 21.034
47.20000 18.257
47.22000 19.405
47.24000 18.273
47.26000 16.544
47.28000 11.931
47.30000 9.379
47.32000 12.659
47.34000 12.040
47.36000 11.044
47.38000 9.876
47.40000 8.928
47.42000 6.712
47.44000 9.791
47.46000 8.134
47.48000 6.640
47.50000 7.167
47.52000 6.562
47.54000 2.365
47.56000 -2.020
47.58000 1.099
47.60000 2.204
47.62000 2.216
47.64000 2.353
47.66000 3.822
47.68000 2.272
47.70000 1.869
47.72000 3.572
47.74000 5.641
47.76000 5.658
47.78000 3.474
47.80000 3.511
47.82000 8.249
47.84000 2.211
47.86000 0.859
47.88000 0.848
47.90000 2.405
47.92000 3.694
47.94000 3.188
47.96000 1.081
47.98000 3.401
48.00000 1.871
48.02000 1.673
48.04000 -2.746
48.06000 -1.560
48.08000 6.014
48.10000 3.196
48.12000 0.116
48.14000 -2.783
48.16000 -2.054
48.18000 2.772
48.20000 2.161
48.22000 2.986
48.24000 4.627
48.26000 -0.618
48.28000 -0.294
48.30000 0.839
48.32000 1.581
48.34000 2.792
48.36000 3.272
48.38000 -0.101
48.40000 0.844
48.42000 1.348
48.44000 -1.032
48.46000 -0.499
48.48000 1.924
48.50000 5.352
48.52000 2.322
48.54000 2.992
48.56000 2.888
48.58000 0.938
48.60000 2.166
48.62000 3.205
48.64000 5.512
48.66000 7.744
48.68000 4.869
48.70000 -1.703
48.72000 -2.701
48.74000 0.219
48.76000 1.194
48.78000 2.222
48.80000 3.365
48.82000 2.290
48.84000 4.310
48.86000 -1.367
48.88000 0.637
48.90000 -0.160
48.92000 -1.566
48.94000 -1.180
48.96000 0.937
48.98000 -1.390
49.00000 -0.337
49.02000 0.313
49.04000 0.831
49.06000 1.210
49.08000 2.119
49.10000 3.142
49.12000 4.585
49.14000 -0.447
49.16000 -0.510
49.18000 -0.266
49.20000 -2.660
49.22000 -1.206
49.24000 0.233
49.26000 0.807
49.28000 1.795
49.30000 0.610
49.32000 0.089
49.34000 2.997
49.36000 2.058
49.38000 3.044
49.40000 4.300
49.42000 4.497
49.44000 1.987
49.46000 4.616
49.48000 6.343
49.50000 6.618
49.52000 7.245
49.54000 5.272
49.56000 2.199
49.58000 2.119
49.60000 2.036
49.62000 -0.548
49.64000 3.218
49.66000 3.448
49.68000 1.316
49.70000 -1.305
49.72000 -1.106
49.74000 -0.515
49.76000 -0.757
49.78000 -0.336
49.80000 1.782
49.82000 4.018
49.84000 0.315
49.86000 -2.082
49.88000 -0.133
49.90000 1.016
49.92000 -0.101
49.94000 -1.586
49.96000 -1.078
49.98000 2.867
50.00000 5.196
50.02000 5.668
50.04000 2.255
50.06000 4.007
50.08000 5.610
50.10000 5.996
50.12000 -2.626
50.14000 -1.808
50.16000 1.381
50.18000 6.643
50.20000 3.782
50.22000 2.151
50.24000 2.284
50.26000 5.758
50.28000 3.847
50.30000 -1.955
50.32000 -1.303
50.34000 0.253
50.36000 2.197
50.38000 2.343
50.40000 -1.081
50.42000 -1.151
50.44000 -0.327
50.46000 -1.280
50.48000 -1.518
50.50000 0.293
50.52000 0.779
50.54000 -1.256
50.56000 -0.867
50.58000 -1.058
50.60000 -0.671
50.62000 1.244
50.64000 3.579
50.66000 1.612
50.68000 -1.739
50.70000 -1.765
50.72000 -0.690
50.74000 -1.506
50.76000 -2.479
50.78000 0.407
50.80000 1.466
50.82000 1.353
50.84000 -2.606
50.86000 -1.849
50.88000 -1.408
50.90000 3.400
50.92000 6.915
50.94000 8.174
50.96000 6.553
50.98000 -0.269
51.00000 -0.398
51.02000 -1.269
51.04000 -0.991
51.06000 5.530
51.08000 4.167
51.10000 5.627
51.12000 1.626
51.14000 -0.883
51.16000 0.383
51.18000 3.028
51.20000 2.946
51.22000 3.761
51.24000 6.363
51.26000 4.762
51.28000 3.971
51.30000 -2.573
51.32000 -1.662
51.34000 2.673
51.36000 0.842
51.38000 2.383
51.40000 3.227
51.42000 1.683
51.44000 1.035
51.46000 -2.234
51.48000 -1.841
51.50000 -0.331
51.52000 -1.159
51.54000 1.015
51.56000 -1.743
51.58000 2.388
51.60000 2.977
51.62000 -0.200
51.64000 0.659
51.66000 3.387
51.68000 4.430
51.70000 0.675
51.72000 1.034
51.74000 -2.535
51.76000 1.372
51.78000 3.890
51.80000 2.238
51.82000 4.591
51.84000 6.490
51.86000 7.580
51.88000 6.876
51.90000 6.790
51.92000 5.030
51.94000 2.562
51.96000 0.959
51.98000 3.057
52.00000 0.560
52.02000 3.627
52.04000 2.643
52.06000 4.409
52.08000 0.857
52.10000 -2.529
52.12000 -1.127
52.14000 3.075
52.16000 3.065
52.18000 6.000
52.20000 2.388
52.22000 0.671
52.24000 -1.736
52.26000 -2.436
52.28000 -0.315
52.30000 -0.334
52.32000 -0.844
52.34000 1.556
52.36000 2.747
52.38000 3.427
52.40000 5.402
52.42000 3.767
52.44000 4.114
52.46000 2.088
52.48000 2.217
52.50000 2.819
52.52000 0.609
52.54000 3.120
52.56000 3.260
52.58000 3.955
52.60000 1.484
52.62000 -0.316
52.64000 0.966
52.66000 -0.313
52.68000 -2.537
52.70000 -1.338
52.72000 -1.771
52.74000 0.854
52.76000 1.151
52.78000 1.360
52.80000 0.770
52.82000 -1.937
52.84000 0.885
52.86000 0.426
52.88000 3.779
52.90000 5.059
52.92000 4.921
52.94000 2.780
52.96000 -0.305
52.98000 -0.986
53.00000 -1.598
53.02000 3.537
53.04000 5.349
53.06000 2.455
53.08000 -0.137
53.10000 -0.244
53.12000 3.607
53.14000 2.315
53.16000 0.121
53.18000 -0.272
53.20000 -2.527
53.22000 -0.384
53.24000 4.071
53.26000 -1.182
53.28000 -2.215
53.30000 0.241
53.32000 4.328
53.34000 1.215
53.36000 -0.182
53.38000 -0.388
53.40000 0.428
53.42000 -0.755
53.44000 -0.103
53.46000 4.238
53.48000 2.577
53.50000 1.720
53.52000 -0.619
53.54000 -2.267
53.56000 -0.284
53.58000 0.957
53.60000 2.243
53.62000 0.430
53.64000 0.254
53.66000 -2.511
53.68000 -0.229
53.70000 -0.229
53.72000 0.748
53.74000 0.332
53.76000 0.544
53.78000 0.420
53.80000 0.158
53.82000 -1.467
53.84000 1.332
53.86000 4.102
53.88000 3.630
53.90000 1.654
53.92000 -0.362
53.94000 -0.781
53.96000 0.822
53.98000 2.152
54.00000 1.300
54.02000 0.601
54.04000 2.365
54.06000 1.489
54.08000 -0.474
54.10000 3.410
54.12000 2.472
54.14000 2.960
54.16000 -2.495
54.18000 1.010
54.20000 3.144
54.22000 3.331
54.24000 -0.901
54.26000 1.761
54.28000 5.514
54.30000 4.799
54.32000 4.252
54.34000 1.740
54.36000 -2.026
54.38000 -1.578
54.40000 -1.529
54.42000 -0.708
54.44000 1.193
54.46000 2.844
54.48000 1.666
54.50000 2.448
54.52000 3.440
54.54000 4.471
54.56000 4.249
54.58000 1.997
54.60000 -1.031
54.62000 -0.500
54.64000 4.801
54.66000 2.128
54.68000 2.894
54.70000 1.973
54.72000 2.930
54.74000 -0.340
54.76000 0.219
54.78000 0.742
54.80000 1.341
54.82000 1.685
54.84000 0.856
54.86000 1.229
54.88000 0.798
54.90000 -0.132
54.92000 -0.677
54.94000 -2.476
54.96000 -0.582
54.98000 -0.154
55.00000 5.574
55.02000 1.252
55.04000 0.516
55.06000 1.276
55.08000 1.758
55.10000 -0.243
55.12000 0.394
55.14000 0.430
55.16000 -1.389
55.18000 2.035
55.20000 2.548
55.22000 1.292
55.24000 -0.133
55.26000 1.368
55.28000 2.463
55.30000 3.429
55.32000 1.566
55.34000 1.100
55.36000 0.630
55.38000 -2.464
55.40000 -0.021
55.42000 1.262
55.44000 -0.745
55.46000 4.285
55.48000 3.053
55.50000 5.542
55.52000 2.166
55.54000 2.837
55.56000 -0.923
55.58000 -0.927
55.60000 -0.900
55.62000 2.120
55.64000 3.229
55.66000 0.230
55.68000 -0.124
55.70000 1.332
55.72000 0.436
55.74000 0.280
55.76000 3.968
55.78000 2.215
55.80000 0.531
55.82000 1.187
55.84000 1.059
55.86000 3.654
55.88000 3.627
55.90000 2.388
55.92000 0.075
55.94000 1.086
55.96000 2.854
55.98000 0.171
56.00000 2.074
56.02000 4.163
56.04000 0.616
56.06000 0.304
56.08000 -2.446
56.10000 -1.211
56.12000 1.631
56.14000 2.906
56.16000 1.848
56.18000 -0.236
56.20000 0.210
56.22000 0.718
56.24000 -0.171
56.26000 3.065
56.28000 1.941
56.30000 -0.595
56.32000 -2.433
56.34000 0.087
56.36000 0.421
56.38000 2.996
56.40000 0.611
56.42000 0.376
56.44000 1.113
56.46000 1.577
56.48000 3.977
56.50000 4.402
56.52000 5.828
56.54000 1.308
56.56000 2.138
56.58000 2.672
56.60000 6.122
56.62000 2.479
56.64000 2.094
56.66000 3.752
56.68000 2.114
56.70000 0.469
56.72000 0.875
56.74000 1.387
56.76000 4.336
56.78000 7.051
56.80000 7.056
56.82000 3.503
56.84000 1.284
56.86000 1.809
56.88000 3.986
56.90000 6.763
56.92000 -0.372
56.94000 -1.129
56.96000 3.592
56.98000 -0.789
57.00000 -0.672
57.02000 3.048
57.04000 3.196
57.06000 2.218
57.08000 0.406
57.10000 2.023
57.12000 3.511
57.14000 2.430
57.16000 3.601
57.18000 3.402
57.20000 3.062
57.22000 2.099
57.24000 2.120
57.26000 -2.393
57.28000 0.002
57.30000 5.985
57.32000 9.194
57.34000 6.386
57.36000 4.323
57.38000 1.999
57.40000 0.422
57.42000 0.544
57.44000 4.113
57.46000 4.419
57.48000 2.249
57.50000 1.789
57.52000 2.497
57.54000 1.705
57.56000 5.618
57.58000 6.991
57.60000 4.735
57.62000 -0.330
57.64000 0.857
57.66000 3.346
57.68000 1.932
57.70000 2.730
57.72000 0.482
57.74000 -1.246
57.76000 0.411
57.78000 1.462
57.80000 2.946
57.82000 4.732
57.84000 3.061
57.86000 1.725
57.88000 1.271
57.90000 0.709
57.92000 2.416
57.94000 2.782
57.96000 -1.541
57.98000 1.543
58.00000 4.244
58.02000 3.511
58.04000 2.844
58.06000 1.728
58.08000 2.584
58.10000 2.657
58.12000 2.017
58.14000 1.918
58.16000 3.144
58.18000 3.005
58.20000 3.367
58.22000 3.941
58.24000 2.281
58.26000 4.079
58.28000 -0.214
58.30000 4.341
58.32000 5.424
58.34000 0.459
58.36000 0.095
58.38000 0.558
58.40000 0.865
58.42000 -2.344
58.44000 1.837
58.46000 1.221
58.48000 1.888
58.50000 3.603
58.52000 5.404
58.54000 2.753
58.56000 4.938
58.58000 5.307
58.60000 4.476
58.62000 7.174
58.64000 3.110
58.66000 0.978
58.68000 1.173
58.70000 -0.590
58.72000 -0.238
58.74000 2.570
58.76000 4.053
58.78000 0.034
58.80000 0.674
58.82000 4.940
58.84000 5.586
58.86000 4.451
58.88000 2.932
58.90000 4.747
58.92000 4.561
58.94000 8.041
58.96000 8.208
58.98000 5.524
59.00000 3.154
59.02000 4.271
59.04000 2.767
59.06000 2.329
59.08000 1.654
59.10000 6.328
59.12000 3.744
59.14000 5.213
59.16000 6.010
59.18000 7.206
59.20000 5.581
59.22000 4.757
59.24000 7.790
59.26000 10.210
59.28000 5.363
59.30000 4.822
59.32000 7.473
59.34000 4.257
59.36000 4.638
59.38000 7.667
59.40000 6.886
59.42000 4.676
59.44000 -2.267
59.46000 -1.345
59.48000 4.251
59.50000 7.330
59.52000 5.590
59.54000 8.444
59.56000 6.715
59.58000 6.820
59.60000 6.862
59.62000 6.592
59.64000 7.156
59.66000 6.766
59.68000 5.084
59.70000 3.401
59.72000 4.974
59.74000 4.668
59.76000 1.537
59.78000 0.451
59.80000 5.992
59.82000 5.236
59.84000 4.727
59.86000 2.349
59.88000 1.915
59.90000 2.624
59.92000 2.989
59.94000 2.353
59.96000 0.542
59.98000 1.146
60.00000 1.335
60.02000 2.609
60.04000 3.093
60.06000 5.975
60.08000 3.031
60.10000 0.361
60.12000 1.362
60.14000 3.596
60.16000 8.769
60.18000 5.245
60.20000 4.548
60.22000 3.212
60.24000 5.024
60.26000 6.314
60.28000 3.909
60.30000 4.783
60.32000 2.359
60.34000 2.430
60.36000 2.350
60.38000 2.694
60.40000 -2.274
60.42000 -0.047
60.44000 3.183
60.46000 6.187
60.48000 4.147
60.50000 1.318
60.52000 3.279
60.54000 3.318
60.56000 6.592
60.58000 0.851
60.60000 0.458
60.62000 2.387
60.64000 4.441
60.66000 4.435
60.68000 3.593
60.70000 5.094
60.72000 4.173
60.74000 0.551
60.76000 1.821
60.78000 1.940
60.80000 0.943
60.82000 2.576
60.84000 2.816
60.86000 2.429
60.88000 2.839
60.90000 0.061
60.92000 -1.291
60.94000 -0.105
60.96000 3.478
60.98000 5.499
61.00000 2.493
61.02000 5.927
61.04000 5.708
61.06000 5.049
61.08000 5.339
61.10000 2.784
61.12000 1.796
61.14000 1.052
61.16000 2.039
61.18000 2.315
61.20000 2.239
61.22000 2.334
61.24000 0.919
61.26000 0.401
61.28000 2.683
61.30000 3.839
61.32000 0.199
61.34000 -1.646
61.36000 2.254
61.38000 1.325
61.40000 2.144
61.42000 4.868
61.44000 2.017
61.46000 5.345
61.48000 6.751
61.50000 4.461
61.52000 2.911
61.54000 1.595
61.56000 1.622
61.58000 0.745
61.60000 -2.254
61.62000 -0.988
61.64000 1.971
61.66000 2.037
61.68000 3.094
61.70000 8.289
61.72000 2.752
61.74000 1.002
61.76000 0.842
61.78000 3.003
61.80000 0.447
61.82000 1.675
61.84000 -0.017
61.86000 1.103
61.88000 -1.325
61.90000 1.128
61.92000 -1.761
61.94000 0.460
61.96000 -0.379
61.98000 1.120
62.00000 1.000
62.02000 0.725
62.04000 3.581
62.06000 5.336
62.08000 1.155
62.10000 -1.303
62.12000 -1.574
62.14000 2.017
62.16000 4.093
62.18000 1.276
62.20000 -0.294
62.22000 -1.519
62.24000 -1.585
62.26000 -1.579
62.28000 0.053
62.30000 1.998
62.32000 2.437
62.34000 1.589
62.36000 -1.082
62.38000 -1.590
62.40000 -1.148
62.42000 -0.309
62.44000 2.366
62.46000 3.131
62.48000 1.434
62.50000 -0.637
62.52000 -0.475
62.54000 -1.225
62.56000 0.447
62.58000 -0.640
62.60000 1.319
62.62000 1.263
62.64000 0.748
62.66000 1.784
62.68000 1.711
62.70000 2.271
62.72000 1.673
62.74000 2.524
62.76000 1.490
62.78000 0.734
62.80000 -0.682
62.82000 -0.392
62.84000 -0.287
62.86000 2.438
62.88000 -0.635
62.90000 2.529
62.92000 3.779
62.94000 4.459
62.96000 1.146
62.98000 1.051
63.00000 1.066
63.02000 0.302
63.04000 -0.610
63.06000 1.199
63.08000 1.035
63.10000 2.974
63.12000 2.142
63.14000 0.735
63.16000 0.139
63.18000 1.706
63.20000 0.845
63.22000 -0.723
63.24000 2.068
63.26000 5.216
63.28000 3.005
63.30000 1.768
63.32000 2.601
63.34000 1.373
63.36000 1.838
63.38000 1.935
63.40000 1.979
63.42000 -0.147
63.44000 0.067
63.46000 2.869
63.48000 3.718
63.50000 4.053
63.52000 2.805
63.54000 -1.262
63.56000 3.132
63.58000 2.279
63.60000 -2.223
63.62000 -0.980
63.64000 2.987
63.66000 3.389
63.68000 3.189
63.70000 1.535
63.72000 -0.792
63.74000 0.938
63.76000 2.008
63.78000 4.925
63.80000 4.356
63.82000 0.170
63.84000 3.554
63.86000 1.470
63.88000 -0.065
63.90000 0.839
63.92000 4.456
63.94000 2.930
63.96000 2.228
63.98000 3.383
64.00000 4.862
64.02000 5.520
64.04000 1.436
64.06000 -0.466
64.08000 -1.331
64.10000 -1.794
64.12000 -0.636
64.14000 1.689
64.16000 2.344
64.18000 3.877
64.20000 2.904
64.22000 2.226
64.24000 3.691
64.26000 -0.679
64.28000 1.736
64.30000 0.375
64.32000 -1.156
64.34000 4.578
64.36000 6.766
64.38000 5.249
64.40000 0.005
64.42000 -0.343
64.44000 -1.080
64.46000 0.367
64.48000 -1.334
64.50000 0.775
64.52000 0.805
64.54000 3.748
64.56000 1.644
64.58000 -2.003
64.60000 0.192
64.62000 -0.774
64.64000 2.236
64.66000 2.307
64.68000 -1.485
64.70000 2.998
64.72000 5.485
64.74000 3.424
64.76000 4.387
64.78000 3.969
64.80000 3.877
64.82000 2.603
64.84000 3.725
64.86000 2.934
64.88000 0.624
64.90000 0.627
64.92000 2.110
64.94000 2.841
64.96000 2.019
64.98000 1.103
65.00000 1.441
65.02000 3.401
65.04000 2.983
65.06000 1.866
65.08000 0.930
65.10000 -0.293
65.12000 -2.274
65.14000 -1.279
65.16000 2.999
65.18000 4.521
65.20000 1.020
65.22000 0.367
65.24000 0.257
65.26000 3.917
65.28000 4.118
65.30000 1.263
65.32000 -1.304
65.34000 2.425
65.36000 0.942
65.38000 -1.030
65.40000 -1.540
65.42000 -1.132
65.44000 -0.179
65.46000 -0.894
65.48000 -0.274
65.50000 3.136
65.52000 0.733
65.54000 -2.035
65.56000 -1.430
65.58000 -0.297
65.60000 -0.411
65.62000 -0.915
65.64000 -0.723
65.66000 0.884
65.68000 1.076
65.70000 0.949
65.72000 1.163
65.74000 1.603
65.76000 1.593
65.78000 3.117
65.80000 -0.515
65.82000 -1.020
65.84000 2.120
65.86000 2.187
65.88000 -1.441
65.90000 -1.400
65.92000 0.971
65.94000 0.617
65.96000 -1.355
65.98000 -2.310
66.00000 1.772
66.02000 3.835
66.04000 4.387
66.06000 0.317
66.08000 0.268
66.10000 2.931
66.12000 0.267
66.14000 2.237
66.16000 -0.493
66.18000 -2.317
66.20000 -0.372
66.22000 0.033
66.24000 -1.296
66.26000 -1.205
66.28000 0.081
66.30000 2.431
66.32000 0.645
66.34000 1.337
66.36000 3.746
66.38000 -1.221
66.40000 -0.714
66.42000 1.049
66.44000 0.173
66.46000 1.603
66.48000 0.061
66.50000 -1.161
66.52000 -2.268
66.54000 -0.046
66.56000 -0.339
66.58000 0.340
66.60000 -1.698
66.62000 -1.964
66.64000 0.841
66.66000 3.469
66.68000 1.850
66.70000 2.074
66.72000 3.373
66.74000 0.694
66.76000 3.468
66.78000 3.492
66.80000 0.851
66.82000 2.642
66.84000 3.289
66.86000 0.929
66.88000 -1.311
66.90000 2.197
66.92000 5.071
66.94000 3.526
66.96000 3.579
66.98000 1.799
67.00000 4.501
67.02000 5.454
67.04000 4.828
67.06000 6.225
67.08000 5.934
67.10000 6.459
67.12000 5.418
67.14000 6.004
67.16000 8.367
67.18000 8.753
67.20000 9.083
67.22000 5.696
67.24000 2.432
67.26000 4.997
67.28000 7.596
67.30000 8.189
67.32000 7.351
67.34000 6.242
67.36000 6.262
67.38000 7.282
67.40000 9.631
67.42000 10.797
67.44000 10.418
67.46000 11.492
67.48000 11.953
67.50000 12.407
67.52000 10.457
67.54000 11.663
67.56000 11.320
67.58000 10.041
67.60000 9.485
67.62000 8.967
67.64000 9.918
67.66000 9.902
67.68000 13.265
67.70000 15.754
67.72000 12.988
67.74000 12.746
67.76000 14.273
67.78000 14.029
67.80000 14.493
67.82000 13.048
67.84000 13.270
67.86000 12.795
67.88000 12.937
67.90000 11.199
67.92000 11.584
67.94000 11.956
67.96000 12.262
67.98000 13.948
68.00000 9.338
68.02000 6.704
68.04000 3.571
68.06000 6.683
68.08000 11.538
68.10000 7.656
68.12000 8.409
68.14000 10.571
68.16000 10.802
68.18000 8.306
68.20000 6.910
68.22000 6.689
68.24000 6.480
68.26000 6.445
68.28000 6.909
68.30000 6.361
68.32000 7.763
68.34000 5.449
68.36000 3.016
68.38000 3.779
68.40000 4.260
68.42000 2.521
68.44000 1.663
68.46000 3.263
68.48000 2.271
68.50000 0.966
68.52000 0.722
68.54000 1.877
68.56000 -0.407
68.58000 1.699
68.60000 1.429
68.62000 -0.352
68.64000 -1.237
68.66000 1.431
68.68000 0.712
68.70000 1.229
68.72000 4.020
68.74000 2.069
68.76000 -0.137
68.78000 1.944
68.80000 2.405
68.82000 -0.552
68.84000 -2.256
68.86000 -0.110
68.88000 3.954
68.90000 1.551
68.92000 4.247
68.94000 0.981
68.96000 -0.057
68.98000 1.618
69.00000 2.614
69.02000 4.644
69.04000 2.577
69.06000 -0.855
69.08000 -0.246
69.10000 -0.069
69.12000 0.656
69.14000 -0.977
69.16000 0.373
69.18000 3.211
69.20000 1.345
69.22000 -0.470
69.24000 2.973
69.26000 0.201
69.28000 -2.018
69.30000 3.507
69.32000 -0.471
69.34000 -1.331
69.36000 -1.032
69.38000 0.760
69.40000 0.766
69.42000 2.195
69.44000 2.603
69.46000 0.888
69.48000 0.175
69.50000 1.223
69.52000 -0.171
69.54000 -0.274
69.56000 0.000
69.58000 -2.195
69.60000 1.291
69.62000 2.332
69.64000 0.592
69.66000 2.079
69.68000 4.797
69.70000 6.016
69.72000 3.085
69.74000 0.856
69.76000 1.644
69.78000 1.862
69.80000 -2.182
69.82000 -0.375
69.84000 3.149
69.86000 2.833
69.88000 0.811
69.90000 -2.019
69.92000 -1.927
69.94000 1.651
69.96000 5.834
69.98000 3.329
70.00000 5.850
70.02000 5.422
70.04000 1.596
70.06000 1.658
70.08000 1.394
70.10000 -0.579
70.12000 0.576
70.14000 2.084
70.16000 2.483
70.18000 1.718
70.20000 0.589
70.22000 2.296
70.24000 0.717
70.26000 -1.357
70.28000 -2.178
70.30000 -0.980
70.32000 1.342
70.34000 -0.970
70.36000 2.049
70.38000 4.868
70.40000 4.390
70.42000 4.753
70.44000 1.194
70.46000 -0.695
70.48000 -0.363
70.50000 2.584
70.52000 1.948
70.54000 2.828
70.56000 1.472
70.58000 1.033
70.60000 2.221
70.62000 1.712
70.64000 2.771
70.66000 -0.579
70.68000 -1.543
70.70000 1.750
70.72000 2.761
70.74000 0.689
70.76000 -0.093
70.78000 0.093
70.80000 -2.179
70.82000 0.914
70.84000 1.119
70.86000 -0.241
70.88000 1.196
70.90000 4.151
70.92000 2.022
70.94000 2.796
70.96000 3.069
70.98000 1.994
71.00000 0.768
71.02000 2.869
71.04000 4.443
71.06000 2.868
71.08000 -0.185
71.10000 1.106
71.12000 -2.032
71.14000 -0.153
71.16000 3.120
71.18000 0.105
71.20000 0.949
71.22000 3.164
71.24000 2.935
71.26000 2.025
71.28000 0.759
71.30000 3.149
71.32000 2.796
71.34000 3.024
71.36000 0.122
71.38000 1.892
71.40000 5.003
71.42000 1.117
71.44000 -1.655
71.46000 -2.151
71.48000 2.794
71.50000 -0.275
71.52000 -0.283
71.54000 1.831
71.56000 3.009
71.58000 2.084
71.60000 1.241
71.62000 4.043
71.64000 3.490
71.66000 0.290
71.68000 -1.008
71.70000 0.850
71.72000 3.730
71.74000 4.222
71.76000 2.291
71.78000 3.820
71.80000 2.866
71.82000 3.781
71.84000 2.024
71.86000 3.671
71.88000 -1.288
71.90000 2.935
71.92000 4.818
71.94000 6.665
71.96000 5.280
71.98000 2.787
72.00000 -0.432
72.02000 -1.071
72.04000 -2.120
72.06000 -0.693
72.08000 -1.059
72.10000 -1.678
72.12000 1.150
72.14000 1.870
72.16000 1.936
72.18000 2.639
72.20000 -0.380
72.22000 2.268
72.24000 5.513
72.26000 -0.317
72.28000 -2.107
72.30000 0.776
72.32000 2.121
72.34000 7.073
72.36000 7.389
72.38000 4.041
72.40000 1.704
72.42000 0.983
72.44000 -0.830
72.46000 1.572
72.48000 2.270
72.50000 2.146
72.52000 2.538
72.54000 0.439
72.56000 7.815
72.58000 4.773
72.60000 2.664
72.62000 1.613
72.64000 -0.324
72.66000 0.472
72.68000 3.932
72.70000 3.242
72.72000 1.732
72.74000 1.773
72.76000 4.135
72.78000 3.720
72.80000 2.218
72.82000 -2.103
72.84000 1.444
72.86000 5.042
72.88000 1.833
72.90000 1.094
72.92000 3.994
72.94000 3.937
72.96000 4.925
72.98000 3.083
73.00000 2.630
73.02000 0.032
73.04000 0.622
73.06000 0.031
73.08000 -0.706
73.10000 1.994
73.12000 2.656
73.14000 -0.081
73.16000 4.391
73.18000 4.427
73.20000 3.057
73.22000 2.278
73.24000 4.920
73.26000 2.372
73.28000 4.083
73.30000 3.348
73.32000 0.303
73.34000 0.996
73.36000 1.659
73.38000 -0.778
73.40000 0.375
73.42000 1.627
73.44000 -0.705
73.46000 -0.529
73.48000 4.159
73.50000 6.254
73.52000 2.250
73.54000 4.053
73.56000 4.908
73.58000 2.682
73.60000 1.624
73.62000 0.450
73.64000 0.066
73.66000 -0.657
73.68000 2.557
73.70000 -1.135
73.72000 1.898
73.74000 1.741
73.76000 -0.137
73.78000 1.086
73.80000 1.886
73.82000 4.452
73.84000 2.289
73.86000 -0.954
73.88000 -2.091
73.90000 -1.313
73.92000 2.131
73.94000 1.593
73.96000 3.600
73.98000 4.053
74.00000 4.387
74.02000 -1.712
74.04000 -1.156
74.06000 1.254
74.08000 0.670
74.10000 2.796
74.12000 2.772
74.14000 3.019
74.16000 -0.512
74.18000 -1.122
74.20000 -0.424
74.22000 -0.866
74.24000 1.341
74.26000 1.508
74.28000 1.339
74.30000 1.783
74.32000 2.952
74.34000 1.701
74.36000 2.226
74.38000 -1.253
74.40000 0.445
74.42000 1.128
74.44000 6.141
74.46000 4.833
74.48000 2.981
74.50000 2.015
74.52000 0.851
74.54000 3.616
74.56000 2.798
74.58000 -2.090
74.60000 -0.515
74.62000 1.143
74.64000 1.071
74.66000 0.805
74.68000 3.066
74.70000 0.106
74.72000 4.045
74.74000 4.033
74.76000 -0.588
74.78000 -0.994
74.80000 2.554
74.82000 1.268
74.84000 2.084
74.86000 -1.154
74.88000 -0.223
74.90000 0.142
74.92000 1.164
74.94000 1.672
74.96000 3.101
74.98000 3.135
75.00000 4.539
75.02000 3.842
75.04000 3.274
75.06000 0.902
75.08000 7.208
75.10000 6.742
75.12000 4.714
75.14000 4.081
75.16000 5.767
75.18000 2.933
75.20000 3.624
75.22000 2.813
75.24000 1.432
75.26000 -0.075
75.28000 -2.070
75.30000 3.328
75.32000 3.837
75.34000 4.022
75.36000 5.806
75.38000 7.377
75.40000 4.013
75.42000 1.975
75.44000 3.334
75.46000 3.604
75.48000 3.365
75.50000 -0.768
75.52000 -0.575
75.54000 2.163
75.56000 -1.454
75.58000 -0.053
75.60000 1.779
75.62000 5.509
75.64000 2.168
75.66000 4.208
75.68000 0.458
75.70000 2.706
75.72000 2.711
75.74000 4.211
75.76000 1.408
75.78000 1.006
75.80000 0.777
75.82000 1.699
75.84000 1.241
75.86000 2.357
75.88000 4.624
75.90000 2.693
75.92000 3.609
75.94000 5.057
75.96000 0.236
75.98000 0.675
76.00000 1.738
76.02000 4.086
76.04000 2.364
76.06000 6.082
76.08000 4.113
76.10000 0.106
76.12000 -1.485
76.14000 1.122
76.16000 2.520
76.18000 6.187
76.20000 3.492
76.22000 5.132
76.24000 3.214
76.26000 3.025
76.28000 5.278
76.30000 -2.100
76.32000 1.453
76.34000 0.245
76.36000 3.725
76.38000 3.292
76.40000 0.815
76.42000 -0.163
76.44000 2.237
76.46000 4.361
76.48000 2.138
76.50000 1.865
76.52000 -0.093
76.54000 0.643
76.56000 0.715
76.58000 -1.346
76.60000 -1.133
76.62000 -1.562
76.64000 1.272
76.66000 0.720
76.68000 1.662
76.70000 -0.237
76.72000 3.784
76.74000 4.784
76.76000 2.287
76.78000 1.955
76.80000 2.361
76.82000 2.059
76.84000 3.267
76.86000 3.807
76.88000 2.838
76.90000 2.134
76.92000 -0.249
76.94000 2.874
76.96000 0.801
76.98000 1.834
77.00000 5.172
77.02000 4.896
77.04000 2.318
77.06000 1.435
77.08000 0.238
77.10000 -1.518
77.12000 -1.123
77.14000 2.859
77.16000 5.617
77.18000 4.537
77.20000 2.580
77.22000 4.771
77.24000 7.685
77.26000 6.127
77.28000 3.610
77.30000 1.882
77.32000 2.661
77.34000 2.446
77.36000 1.165
77.38000 0.690
77.40000 4.670
77.42000 3.989
77.44000 4.182
77.46000 3.656
77.48000 5.189
77.50000 4.587
77.52000 3.338
77.54000 2.327
77.56000 1.741
77.58000 3.371
77.60000 6.831
77.62000 5.005
77.64000 6.275
77.66000 6.737
77.68000 9.890
77.70000 10.046
77.72000 0.902
77.74000 -2.093
77.76000 2.092
77.78000 6.457
77.80000 4.755
77.82000 3.439
77.84000 0.171
77.86000 2.808
77.88000 6.056
77.90000 6.926
77.92000 7.673
77.94000 2.553
77.96000 0.533
77.98000 0.085
78.00000 -1.031
78.02000 4.649
78.04000 2.944
78.06000 0.928
78.08000 -0.845
78.10000 1.000
78.12000 2.027
78.14000 -0.469
78.16000 -0.635
78.18000 3.184
78.20000 2.957
78.22000 5.285
78.24000 2.751
78.26000 1.100
78.28000 3.936
78.30000 2.310
78.32000 -0.799
78.34000 -0.388
78.36000 5.302
78.38000 4.604
78.40000 1.905
78.42000 1.204
78.44000 -2.156
78.46000 0.365
78.48000 4.045
78.50000 2.469
78.52000 5.795
78.54000 6.595
78.56000 2.396
78.58000 3.049
78.60000 4.265
78.62000 5.128
78.64000 1.622
78.66000 4.135
78.68000 3.677
78.70000 6.908
78.72000 6.520
78.74000 6.961
78.76000 3.790
78.78000 5.317
78.80000 5.908
78.82000 5.339
78.84000 4.869
78.86000 3.478
78.88000 2.288
78.90000 7.688
78.92000 6.680
78.94000 2.539
78.96000 4.190
78.98000 1.600
79.00000 0.726
79.02000 1.617
79.04000 -1.399
79.06000 -1.544
79.08000 3.046
79.10000 1.293
79.12000 1.248
79.14000 3.534
79.16000 6.471
79.18000 3.887
79.20000 3.729
79.22000 2.831
79.24000 2.403
79.26000 0.037
79.28000 1.309
79.30000 0.141
79.32000 3.287
79.34000 2.401
79.36000 2.352
79.38000 1.002
79.40000 1.815
79.42000 2.568
79.44000 -2.179
79.46000 -1.457
79.48000 -1.138
79.50000 0.181
79.52000 2.932
79.54000 4.011
79.56000 1.831
79.58000 5.102
79.60000 1.494
79.62000 3.735
79.64000 5.070
79.66000 5.776
79.68000 2.981
79.70000 2.446
79.72000 3.505
79.74000 2.966
79.76000 1.339
79.78000 1.828
79.80000 -0.036
79.82000 0.802
79.84000 1.551
79.86000 -2.242
79.88000 1.002
79.90000 3.860
79.92000 3.522
79.94000 4.753
79.96000 2.039
79.98000 4.943
80.00000 5.565
80.02000 2.378
80.04000 1.403
80.06000 7.486
80.08000 4.514
80.10000 1.627
80.12000 2.761
80.14000 2.023
80.16000 3.212
80.18000 2.867
80.20000 2.878
80.22000 4.354
80.24000 7.571
80.26000 2.642
80.28000 6.230
80.30000 4.209
80.32000 2.569
80.34000 4.282
80.36000 4.736
80.38000 1.432
80.40000 3.339
80.42000 5.483
80.44000 5.443
80.46000 0.397
80.48000 2.235
80.50000 4.640
80.52000 5.361
80.54000 4.859
80.56000 10.028
80.58000 7.217
80.60000 9.079
80.62000 7.519
80.64000 5.193
80.66000 5.445
80.68000 8.042
80.70000 7.768
80.72000 5.911
80.74000 10.952
80.76000 10.524
80.78000 6.688
80.80000 8.698
80.82000 8.098
80.84000 7.718
80.86000 8.887
80.88000 9.615
80.90000 14.719
80.92000 12.573
80.94000 12.998
80.96000 13.743
80.98000 14.441
81.00000 15.596
81.02000 17.681
81.04000 16.980
81.06000 20.878
81.08000 25.822
81.10000 20.000
81.12000 17.747
81.14000 19.636
81.16000 23.448
81.18000 20.980
81.20000 21.092
81.22000 25.077
81.24000 21.066
81.26000 24.152
81.28000 23.389
81.30000 26.406
81.32000 28.720
81.34000 28.794
81.36000 30.433
81.38000 25.526
81.40000 24.130
81.42000 30.480
81.44000 28.578
81.46000 31.684
81.48000 33.438
81.50000 34.413
81.52000 35.683
81.54000 37.016
81.56000 34.628
81.58000 31.219
81.60000 27.946
81.62000 28.038
81.64000 33.483
81.66000 33.407
81.68000 36.595
81.70000 40.043
81.72000 39.568
81.74000 37.081
81.76000 36.122
81.78000 29.886
81.80000 28.837
81.82000 28.654
81.84000 30.126
81.86000 29.159
81.88000 31.890
81.90000 33.160
81.92000 26.286
81.94000 25.522
81.96000 25.312
81.98000 26.124
82.00000 22.566
82.02000 17.146
82.04000 22.276
82.06000 22.483
82.08000 27.238
82.10000 24.612
82.12000 23.398
82.14000 28.132
82.16000 23.202
82.18000 20.652
82.20000 18.323
82.22000 18.411
82.24000 17.033
82.26000 19.219
82.28000 13.931
82.30000 11.797
82.32000 14.149
82.34000 13.758
82.36000 9.651
82.38000 11.542
82.40000 12.383
82.42000 12.624
82.44000 14.858
82.46000 9.195
82.48000 7.994
82.50000 8.649
82.52000 8.408
82.54000 8.094
82.56000 7.261
82.58000 8.918
82.60000 10.141
82.62000 7.623
82.64000 7.718
82.66000 4.681
82.68000 5.523
82.70000 3.242
82.72000 3.477
82.74000 5.189
82.76000 4.819
82.78000 0.435
82.80000 1.069
82.82000 2.773
82.84000 -0.161
82.86000 2.117
82.88000 1.999
82.90000 0.963
82.92000 0.236
82.94000 2.138
82.96000 -2.296
82.98000 -2.354
83.00000 0.325
83.02000 4.213
83.04000 4.189
83.06000 1.214
83.08000 0.041
83.10000 2.568
83.12000 0.782
83.14000 0.102
83.16000 -1.613
83.18000 1.663
83.20000 -1.000
83.22000 -1.638
83.24000 0.116
83.26000 -0.130
83.28000 1.988
83.30000 1.388
83.32000 -0.070
83.34000 0.395
83.36000 -1.209
83.38000 0.037
83.40000 1.281
83.42000 -0.053
83.44000 1.943
83.46000 3.086
83.48000 4.230
83.50000 1.860
83.52000 -2.297
83.54000 1.320
83.56000 3.625
83.58000 0.323
83.60000 0.440
83.62000 1.980
83.64000 2.530
83.66000 2.736
83.68000 -1.182
83.70000 -1.543
83.72000 0.227
83.74000 -0.890
83.76000 0.230
83.78000 -1.638
83.80000 0.136
83.82000 2.397
83.84000 -0.718
83.86000 0.056
83.88000 1.437
83.90000 1.287
83.92000 -0.329
83.94000 -1.412
83.96000 -1.244
83.98000 2.274
84.00000 4.228
84.02000 2.324
84.04000 0.258
84.06000 -0.831
84.08000 2.811
84.10000 -2.306
84.12000 -2.049
84.14000 -1.813
84.16000 -1.887
84.18000 2.059
84.20000 0.623
84.22000 2.826
84.24000 3.540
84.26000 2.039
84.28000 2.134
84.30000 4.199
84.32000 1.673
84.34000 1.677
84.36000 1.588
84.38000 1.658
84.40000 4.006
84.42000 1.806
84.44000 3.269
84.46000 7.111
84.48000 6.264
84.50000 2.351
84.52000 5.308
84.54000 5.189
84.56000 4.672
84.58000 5.008
84.60000 3.030
84.62000 6.803
84.64000 9.713
84.66000 8.137
84.68000 10.600
84.70000 11.600
84.72000 5.763
84.74000 7.982
84.76000 8.574
84.78000 11.825
84.80000 11.023
84.82000 9.324
84.84000 9.827
84.86000 12.054
84.88000 14.080
84.90000 12.855
84.92000 13.002
84.94000 14.437
84.96000 16.615
84.98000 14.757
85.00000 15.715
85.02000 16.326
85.04000 16.579
85.06000 17.951
85.08000 21.248
85.10000 21.445
85.12000 22.829
85.14000 23.002
85.16000 20.032
85.18000 29.313
85.20000 27.707
85.22000 30.443
85.24000 30.152
85.26000 31.612
85.28000 29.154
85.30000 31.233
85.32000 28.670
85.34000 29.459
85.36000 31.224
85.38000 29.075
85.40000 32.155
85.42000 33.083
85.44000 33.486
85.46000 33.229
85.48000 37.210
85.50000 37.229
85.52000 35.681
85.54000 39.396
85.56000 39.091
85.58000 35.615
85.60000 34.543
85.62000 38.091
85.64000 39.067
85.66000 36.933
85.68000 36.763
85.70000 35.375
85.72000 37.352
85.74000 38.916
85.76000 33.902
85.78000 40.859
85.80000 39.373
85.82000 33.400
85.84000 29.971
85.86000 31.985
85.88000 36.593
85.90000 30.350
85.92000 30.293
85.94000 34.375
85.96000 33.192
85.98000 30.807
86.00000 30.730
86.02000 28.735
86.04000 34.277
86.06000 32.752
86.08000 36.269
86.10000 31.595
86.12000 27.479
86.14000 25.015
86.16000 23.080
86.18000 23.578
86.20000 21.173
86.22000 19.790
86.24000 19.082
86.26000 21.816
86.28000 17.000
86.30000 13.394
86.32000 16.711
86.34000 16.884
86.36000 20.718
86.38000 18.979
86.40000 15.088
86.42000 16.253
86.44000 15.621
86.46000 12.506
86.48000 10.620
86.50000 11.807
86.52000 9.638
86.54000 8.694
86.56000 8.300
86.58000 13.337
86.60000 9.822
86.62000 7.003
86.64000 8.217
86.66000 11.449
86.68000 11.321
86.70000 11.118
86.72000 10.915
86.74000 10.338
86.76000 7.821
86.78000 6.349
86.80000 1.389
86.82000 -2.111
86.84000 3.114
86.86000 5.698
86.88000 3.849
86.90000 1.574
86.92000 8.659
86.94000 9.045
86.96000 4.133
86.98000 3.659
87.00000 3.061
87.02000 2.163
87.04000 4.502
87.06000 0.476
87.08000 2.144
87.10000 4.706
87.12000 5.618
87.14000 0.669
87.16000 2.604
87.18000 4.121
87.20000 1.502
87.22000 3.018
87.24000 -1.911
87.26000 -0.459
87.28000 1.467
87.30000 -0.283
87.32000 -0.178
87.34000 0.052
87.36000 0.357
87.38000 0.406
87.40000 -0.822
87.42000 -1.728
87.44000 3.034
87.46000 3.096
87.48000 -1.560
87.50000 1.313
87.52000 1.575
87.54000 -1.020
87.56000 -1.691
87.58000 0.433
87.60000 -2.069
87.62000 -0.545
87.64000 2.588
87.66000 1.331
87.68000 0.955
87.70000 1.963
87.72000 3.281
87.74000 -1.294
87.76000 1.682
87.78000 3.752
87.80000 2.839
87.82000 2.042
87.84000 4.271
87.86000 2.623
87.88000 2.366
87.90000 2.341
87.92000 -2.036
87.94000 1.238
87.96000 1.797
87.98000 -0.354
88.00000 2.939
88.02000 6.687
88.04000 3.814
88.06000 4.996
88.08000 -0.570
88.10000 -2.026
88.12000 1.497
88.14000 2.763
88.16000 0.236
88.18000 -1.263
88.20000 1.539
88.22000 4.561
88.24000 4.627
88.26000 4.009
88.28000 1.298
88.30000 -0.244
88.32000 5.664
88.34000 3.583
88.36000 1.527
88.38000 3.416
88.40000 3.068
88.42000 3.937
88.44000 5.453
88.46000 3.975
88.48000 1.182
88.50000 0.229
88.52000 0.670
88.54000 0.777
88.56000 0.164
88.58000 -1.625
88.60000 -0.557
88.62000 0.820
88.64000 -1.055
88.66000 0.222
88.68000 4.218
88.70000 5.077
88.72000 1.586
88.74000 2.248
88.76000 1.247
88.78000 3.785
88.80000 0.479
88.82000 2.263
88.84000 3.726
88.86000 1.650
88.88000 0.067
88.90000 -1.048
88.92000 1.801
88.94000 3.195
88.96000 1.018
88.98000 2.313
89.00000 -0.865
89.02000 -1.216
89.04000 2.713
89.06000 1.738
89.08000 3.486
89.10000 1.492
89.12000 1.200
89.14000 1.984
89.16000 -1.094
89.18000 -1.794
89.20000 0.092
89.22000 3.094
89.24000 4.276
89.26000 4.126
89.28000 3.892
89.30000 5.057
89.32000 -1.836
89.34000 -1.996
89.36000 -0.282
89.38000 0.326
89.40000 0.421
89.42000 1.552
89.44000 2.884
89.46000 4.628
89.48000 0.618
89.50000 -0.132
89.52000 1.591
89.54000 -0.905
89.56000 -0.634
89.58000 0.161
89.60000 6.004
89.62000 5.482
89.64000 3.714
89.66000 5.373
89.68000 1.898
89.70000 0.446
89.72000 0.302
89.74000 -1.962
89.76000 -0.285
89.78000 2.309
89.80000 0.564
89.82000 6.379
89.84000 8.249
89.86000 4.352
89.88000 -0.878
89.90000 1.089
89.92000 2.623
89.94000 2.236
89.96000 2.480
89.98000 0.985
90.00000 -0.509
90.02000 0.221
90.04000 0.403
90.06000 0.831
90.08000 4.633
90.10000 3.594
90.12000 2.809
90.14000 2.381
90.16000 0.899
90.18000 1.956
90.20000 -1.982
90.22000 0.176
90.24000 5.821
90.26000 4.473
90.28000 3.458
90.30000 3.870
90.32000 3.179
90.34000 3.153
90.36000 1.469
90.38000 2.373
90.40000 1.316
90.42000 2.177
90.44000 1.549
90.46000 6.029
90.48000 3.361
90.50000 3.777
90.52000 1.395
90.54000 4.007
90.56000 7.694
90.58000 7.706
90.60000 7.325
90.62000 1.382
90.64000 0.501
90.66000 1.308
90.68000 2.550
90.70000 -0.511
90.72000 1.193
90.74000 2.701
90.76000 2.016
90.78000 2.363
90.80000 7.712
90.82000 0.177
90.84000 1.745
90.86000 4.454
90.88000 3.702
90.90000 1.996
90.92000 0.994
90.94000 2.770
90.96000 5.016
90.98000 3.105
91.00000 -1.988
91.02000 -0.148
91.04000 2.911
91.06000 3.637
91.08000 2.335
91.10000 6.180
91.12000 4.680
91.14000 3.140
91.16000 2.439
91.18000 0.589
91.20000 0.653
91.22000 5.131
91.24000 3.341
91.26000 2.552
91.28000 2.380
91.30000 -0.366
91.32000 0.238
91.34000 3.591
91.36000 4.463
91.38000 4.544
91.40000 4.107
91.42000 3.535
91.44000 3.447
91.46000 0.547
91.48000 1.119
91.50000 3.375
91.52000 2.588
91.54000 5.566
91.56000 4.255
91.58000 2.048
91.60000 2.414
91.62000 3.384
91.64000 5.744
91.66000 2.204
91.68000 2.644
91.70000 2.609
91.72000 3.462
91.74000 4.551
91.76000 3.928
91.78000 5.188
91.80000 5.768
91.82000 0.478
91.84000 -1.979
91.86000 3.542
91.88000 3.319
91.90000 0.070
91.92000 -1.336
91.94000 -1.734
91.96000 -0.900
91.98000 2.811
92.00000 7.218
92.02000 4.758
92.04000 3.786
92.06000 5.703
92.08000 5.985
92.10000 4.379
92.12000 1.088
92.14000 1.957
92.16000 -0.209
92.18000 4.557
92.20000 6.616
92.22000 7.871
92.24000 5.572
92.26000 -0.095
92.28000 -0.301
92.30000 -0.828
92.32000 4.310
92.34000 3.808
92.36000 1.974
92.38000 5.189
92.40000 1.224
92.42000 4.243
92.44000 3.168
92.46000 2.492
92.48000 4.766
92.50000 4.001
92.52000 -1.958
92.54000 2.527
92.56000 1.244
92.58000 2.511
92.60000 4.670
92.62000 1.644
92.64000 1.255
92.66000 2.390
92.68000 4.665
92.70000 -0.176
92.72000 4.078
92.74000 5.334
92.76000 6.285
92.78000 4.818
92.80000 3.108
92.82000 2.196
92.84000 1.545
92.86000 4.759
92.88000 5.265
92.90000 5.236
92.92000 5.668
92.94000 5.922
92.96000 4.063
92.98000 -1.973
93.00000 -0.257
93.02000 3.148
93.04000 3.567
93.06000 4.703
93.08000 2.773
93.10000 7.915
93.12000 6.278
93.14000 4.254
93.16000 1.423
93.18000 1.857
93.20000 1.157
93.22000 2.588
93.24000 1.853
93.26000 3.133
93.28000 3.005
93.30000 0.048
93.32000 -0.317
93.34000 2.714
93.36000 4.192
93.38000 5.751
93.40000 4.027
93.42000 2.493
93.44000 0.542
93.46000 -1.462
93.48000 -0.759
93.50000 1.447
93.52000 4.055
93.54000 1.036
93.56000 3.400
93.58000 5.236
93.60000 3.892
93.62000 1.880
93.64000 1.554
93.66000 4.585
93.68000 6.377
93.70000 1.746
93.72000 -1.306
93.74000 0.575
93.76000 0.673
93.78000 2.284
93.80000 1.895
93.82000 -0.229
93.84000 3.140
93.86000 -0.757
93.88000 0.397
93.90000 -0.886
93.92000 -2.019
93.94000 -0.152
93.96000 1.847
93.98000 2.487
94.00000 6.779
94.02000 6.674
94.04000 -1.059
94.06000 3.161
94.08000 2.543
94.10000 1.497
94.12000 3.127
94.14000 3.039
94.16000 1.072
94.18000 0.404
94.20000 2.725
94.22000 1.843
94.24000 1.484
94.26000 3.473
94.28000 6.060
94.30000 5.410
94.32000 3.512
94.34000 3.433
94.36000 0.269
94.38000 4.020
94.40000 4.458
94.42000 3.300
94.44000 2.109
94.46000 -0.984
94.48000 -2.024
94.50000 -0.505
94.52000 4.446
94.54000 1.352
94.56000 0.993
94.58000 0.150
94.60000 4.758
94.62000 3.530
94.64000 4.207
94.66000 2.578
94.68000 4.754
94.70000 0.620
94.72000 5.843
94.74000 4.493
94.76000 1.098
94.78000 -0.320
94.80000 5.044
94.82000 4.126
94.84000 0.441
94.86000 -1.540
94.88000 -1.537
94.90000 -0.682
94.92000 0.841
94.94000 0.486
94.96000 5.263
94.98000 2.674
95.00000 -1.317
95.02000 0.821
95.04000 2.216
95.06000 3.079
95.08000 0.895
95.10000 0.813
95.12000 0.188
95.14000 1.439
95.16000 0.927
95.18000 -0.413
95.20000 1.486
95.22000 1.189
95.24000 -0.608
95.26000 -2.042
95.28000 1.260
95.30000 -1.499
95.32000 2.512
95.34000 -0.901
95.36000 1.526
95.38000 -0.503
95.40000 4.280
95.42000 5.800
95.44000 1.248
95.46000 3.569
95.48000 7.399
95.50000 2.124
95.52000 0.128
95.54000 1.889
95.56000 3.678
95.58000 5.583
95.60000 2.617
95.62000 3.382
95.64000 1.464
95.66000 3.547
95.68000 3.123
95.70000 5.845
95.72000 5.214
95.74000 4.398
95.76000 1.031
95.78000 -1.120
95.80000 -1.847
95.82000 -2.021
95.84000 0.934
95.86000 1.689
95.88000 1.624
95.90000 5.617
95.92000 4.423
95.94000 7.351
95.96000 7.835
95.98000 5.056
96.00000 6.611
96.02000 3.401
96.04000 0.391
96.06000 2.751
96.08000 4.699
96.10000 5.279
96.12000 0.672
96.14000 1.491
96.16000 0.392
96.18000 6.556
96.20000 4.854
96.22000 4.641
96.24000 2.352
96.26000 5.105
96.28000 5.194
96.30000 4.613
96.32000 0.316
96.34000 0.062
96.36000 2.283
96.38000 4.092
96.40000 3.357
96.42000 0.194
96.44000 -1.083
96.46000 1.786
96.48000 3.546
96.50000 2.641
96.52000 -1.999
96.54000 3.217
96.56000 4.030
96.58000 3.157
96.60000 0.848
96.62000 0.926
96.64000 2.498
96.66000 1.472
96.68000 1.611
96.70000 1.622
96.72000 3.090
96.74000 1.760
96.76000 5.221
96.78000 8.462
96.80000 -0.588
96.82000 -0.411
96.84000 2.055
96.86000 9.564
96.88000 10.126
96.90000 0.941
96.92000 -0.801
96.94000 3.041
96.96000 3.810
96.98000 2.770
97.00000 -0.313
97.02000 3.647
97.04000 5.170
97.06000 5.594
97.08000 7.684
97.10000 9.916
97.12000 7.271
97.14000 3.660
97.16000 0.773
97.18000 1.910
97.20000 3.472
97.22000 10.976
97.24000 6.206
97.26000 7.801
97.28000 1.891
97.30000 -0.079
97.32000 1.750
97.34000 0.956
97.36000 4.908
97.38000 4.047
97.40000 -1.933
97.42000 3.740
97.44000 4.672
97.46000 3.300
97.48000 3.809
97.50000 6.288
97.52000 5.594
97.54000 8.670
97.56000 8.451
97.58000 10.255
97.60000 10.115
97.62000 10.583
97.64000 8.161
97.66000 5.389
97.68000 1.236
97.70000 5.784
97.72000 8.987
97.74000 2.972
97.76000 0.858
97.78000 -1.648
97.80000 -1.846
97.82000 -0.303
97.84000 3.475
97.86000 7.258
97.88000 8.002
97.90000 4.417
97.92000 6.773
97.94000 -1.866
97.96000 1.550
97.98000 5.955
98.00000 8.093
98.02000 6.535
98.04000 7.099
98.06000 0.120
98.08000 -0.979
98.10000 -0.302
98.12000 5.194
98.14000 4.816
98.16000 7.517
98.18000 1.272
98.20000 1.380
98.22000 5.244
98.24000 7.315
98.26000 4.528
98.28000 0.713
98.30000 0.398
98.32000 0.245
98.34000 0.619
98.36000 0.812
98.38000 -1.291
98.40000 -0.217
98.42000 2.018
98.44000 5.615
98.46000 2.491
98.48000 3.563
98.50000 9.916
98.52000 12.370
98.54000 7.795
98.56000 10.475
98.58000 4.384
98.60000 5.619
98.62000 4.238
98.64000 5.573
98.66000 1.991
98.68000 6.037
98.70000 13.546
98.72000 3.150
98.74000 1.945
98.76000 3.099
98.78000 9.676
98.80000 7.328
98.82000 6.644
98.84000 2.131
98.86000 2.360
98.88000 1.496
98.90000 -0.461
98.92000 0.212
98.94000 1.596
98.96000 8.338
98.98000 8.587
99.00000 7.642
99.02000 4.129
99.04000 3.492
99.06000 7.604
99.08000 7.091
99.10000 3.270
99.12000 3.668
99.14000 6.359
99.16000 1.648
99.18000 5.681
99.20000 4.687
99.22000 -1.594
99.24000 5.758
99.26000 -1.963
99.28000 0.674
99.30000 1.611
99.32000 5.536
99.34000 5.211
99.36000 6.939
99.38000 8.069
99.40000 5.552
99.42000 0.728
99.44000 2.121
99.46000 6.542
99.48000 6.565
99.50000 8.181
99.52000 7.807
99.54000 8.712
99.56000 8.656
99.58000 -0.885
99.60000 2.072
99.62000 7.168
99.64000 8.936
99.66000 5.314
99.68000 11.777
99.70000 -5.190
99.72000 -0.287
99.74000 5.211
99.76000 9.164
99.78000 8.559
99.80000 1.163
99.82000 13.903
99.84000 9.251
99.86000 -5.654
99.88000 0.633
99.90000 -2.015
99.92000 4.555
99.94000 0.471
99.96000 -2.103
99.98000 0.000
