'Id: "0011388" Comment: "Integrate frame 0011388_Au-Ir-Rh_Rh-rich_XRD-Mapping-331-0000.gfrmwith cursor Wedge Cursor #5" Operator: "B?rgel" Anode: "Cu" Wavelength: "1.5406" Scantype: "2Theta (TwoTheta)" TimePerStep: "1" X: "9" Y: "40.5" Z: "5.95" 
10.00000 0.000
10.02000 7.844
10.04000 -0.443
10.06000 -4.220
10.08000 15.269
10.10000 30.359
10.12000 9.248
10.14000 8.060
10.16000 -0.236
10.18000 -4.215
10.20000 10.324
10.22000 10.611
10.24000 6.800
10.26000 -0.493
10.28000 1.750
10.30000 14.433
10.32000 23.455
10.34000 18.917
10.36000 4.907
10.38000 14.572
10.40000 20.080
10.42000 12.444
10.44000 22.493
10.46000 14.751
10.48000 26.259
10.50000 26.830
10.52000 17.645
10.54000 9.080
10.56000 12.276
10.58000 11.141
10.60000 18.693
10.62000 28.578
10.64000 21.817
10.66000 10.647
10.68000 12.111
10.70000 18.140
10.72000 16.409
10.74000 21.252
10.76000 12.564
10.78000 5.121
10.80000 4.022
10.82000 2.645
10.84000 11.579
10.86000 12.653
10.88000 16.504
10.90000 14.449
10.92000 11.036
10.94000 28.952
10.96000 27.462
10.98000 24.229
11.00000 21.774
11.02000 22.360
11.04000 6.105
11.06000 -4.321
11.08000 0.204
11.10000 4.674
11.12000 6.204
11.14000 7.256
11.16000 14.770
11.18000 27.510
11.20000 23.892
11.22000 24.231
11.24000 21.541
11.26000 11.746
11.28000 6.967
11.30000 16.699
11.32000 14.706
11.34000 14.392
11.36000 15.277
11.38000 18.594
11.40000 15.390
11.42000 8.125
11.44000 9.144
11.46000 15.070
11.48000 16.768
11.50000 14.570
11.52000 10.868
11.54000 16.234
11.56000 28.687
11.58000 9.059
11.60000 21.066
11.62000 29.190
11.64000 39.897
11.66000 29.059
11.68000 16.606
11.70000 16.439
11.72000 15.871
11.74000 14.398
11.76000 16.101
11.78000 8.126
11.80000 2.401
11.82000 10.954
11.84000 7.684
11.86000 6.973
11.88000 14.824
11.90000 16.372
11.92000 11.522
11.94000 22.312
11.96000 21.537
11.98000 14.410
12.00000 16.423
12.02000 18.309
12.04000 11.472
12.06000 9.295
12.08000 10.719
12.10000 19.743
12.12000 22.263
12.14000 28.103
12.16000 19.189
12.18000 9.613
12.20000 7.563
12.22000 9.170
12.24000 9.951
12.26000 15.280
12.28000 18.436
12.30000 2.528
12.32000 9.670
12.34000 7.679
12.36000 2.324
12.38000 6.332
12.40000 11.648
12.42000 9.179
12.44000 21.364
12.46000 24.694
12.48000 22.962
12.50000 13.024
12.52000 5.973
12.54000 13.282
12.56000 17.589
12.58000 15.701
12.60000 15.202
12.62000 20.120
12.64000 23.435
12.66000 9.336
12.68000 12.876
12.70000 20.918
12.72000 24.303
12.74000 16.582
12.76000 17.482
12.78000 8.311
12.80000 16.638
12.82000 31.963
12.84000 17.074
12.86000 7.299
12.88000 9.131
12.90000 8.180
12.92000 12.233
12.94000 7.164
12.96000 7.554
12.98000 8.357
13.00000 8.611
13.02000 16.796
13.04000 16.746
13.06000 6.135
13.08000 5.895
13.10000 8.415
13.12000 1.606
13.14000 10.568
13.16000 4.249
13.18000 4.297
13.20000 18.225
13.22000 14.159
13.24000 4.206
13.26000 4.882
13.28000 12.913
13.30000 16.594
13.32000 17.376
13.34000 13.138
13.36000 20.527
13.38000 25.046
13.40000 25.432
13.42000 12.616
13.44000 8.349
13.46000 9.361
13.48000 7.533
13.50000 7.516
13.52000 6.028
13.54000 11.528
13.56000 -1.774
13.58000 -2.610
13.60000 4.113
13.62000 9.840
13.64000 9.357
13.66000 3.281
13.68000 8.518
13.70000 9.172
13.72000 6.084
13.74000 13.703
13.76000 15.636
13.78000 12.810
13.80000 11.766
13.82000 9.354
13.84000 15.697
13.86000 22.785
13.88000 11.106
13.90000 6.255
13.92000 -4.517
13.94000 1.267
13.96000 4.402
13.98000 7.349
14.00000 6.887
14.02000 4.575
14.04000 12.910
14.06000 11.002
14.08000 -0.308
14.10000 11.469
14.12000 11.404
14.14000 8.198
14.16000 8.143
14.18000 10.237
14.20000 3.381
14.22000 -3.145
14.24000 6.110
14.26000 13.718
14.28000 0.060
14.30000 2.115
14.32000 6.852
14.34000 13.798
14.36000 6.302
14.38000 2.614
14.40000 4.788
14.42000 8.525
14.44000 15.680
14.46000 7.482
14.48000 0.973
14.50000 2.810
14.52000 7.206
14.54000 8.077
14.56000 5.113
14.58000 6.973
14.60000 8.992
14.62000 0.199
14.64000 2.571
14.66000 12.746
14.68000 11.356
14.70000 9.228
14.72000 5.381
14.74000 5.435
14.76000 0.962
14.78000 5.000
14.80000 8.533
14.82000 -0.041
14.84000 1.653
14.86000 5.220
14.88000 9.175
14.90000 10.004
14.92000 4.706
14.94000 -1.623
14.96000 10.054
14.98000 14.002
15.00000 13.936
15.02000 4.119
15.04000 -0.071
15.06000 1.902
15.08000 10.898
15.10000 12.130
15.12000 10.046
15.14000 5.336
15.16000 1.574
15.18000 1.552
15.20000 10.112
15.22000 6.154
15.24000 4.586
15.26000 0.546
15.28000 0.835
15.30000 -1.592
15.32000 5.634
15.34000 2.629
15.36000 2.413
15.38000 2.275
15.40000 3.971
15.42000 -0.129
15.44000 -0.471
15.46000 3.303
15.48000 1.490
15.50000 0.330
15.52000 9.532
15.54000 5.688
15.56000 11.671
15.58000 8.564
15.60000 1.797
15.62000 -0.350
15.64000 10.144
15.66000 8.614
15.68000 3.968
15.70000 4.268
15.72000 3.463
15.74000 -0.416
15.76000 3.616
15.78000 13.108
15.80000 7.099
15.82000 1.995
15.84000 3.143
15.86000 8.297
15.88000 10.601
15.90000 8.311
15.92000 8.770
15.94000 -2.653
15.96000 -3.724
15.98000 7.398
16.00000 10.068
16.02000 6.897
16.04000 1.592
16.06000 2.152
16.08000 -1.448
16.10000 2.564
16.12000 3.600
16.14000 6.224
16.16000 1.969
16.18000 -1.486
16.20000 -0.268
16.22000 15.528
16.24000 12.284
16.26000 5.808
16.28000 9.369
16.30000 9.860
16.32000 11.006
16.34000 17.695
16.36000 13.506
16.38000 7.221
16.40000 4.892
16.42000 7.710
16.44000 10.875
16.46000 14.976
16.48000 8.276
16.50000 5.805
16.52000 8.098
16.54000 9.159
16.56000 9.544
16.58000 11.051
16.60000 -0.686
16.62000 0.811
16.64000 9.567
16.66000 11.582
16.68000 9.852
16.70000 13.040
16.72000 22.113
16.74000 16.947
16.76000 1.962
16.78000 6.631
16.80000 8.686
16.82000 10.379
16.84000 10.252
16.86000 9.143
16.88000 11.287
16.90000 5.493
16.92000 4.096
16.94000 7.400
16.96000 4.193
16.98000 14.241
17.00000 13.880
17.02000 14.330
17.04000 20.836
17.06000 10.083
17.08000 7.639
17.10000 5.342
17.12000 4.982
17.14000 -1.394
17.16000 -4.376
17.18000 -0.152
17.20000 12.635
17.22000 14.252
17.24000 9.433
17.26000 14.573
17.28000 7.998
17.30000 6.027
17.32000 10.788
17.34000 9.663
17.36000 7.510
17.38000 6.981
17.40000 4.161
17.42000 -0.547
17.44000 9.294
17.46000 10.982
17.48000 4.286
17.50000 -0.398
17.52000 11.170
17.54000 13.649
17.56000 13.927
17.58000 8.196
17.60000 2.626
17.62000 -1.916
17.64000 2.292
17.66000 6.598
17.68000 11.541
17.70000 9.897
17.72000 5.588
17.74000 3.850
17.76000 5.206
17.78000 5.755
17.80000 5.410
17.82000 4.311
17.84000 4.316
17.86000 3.830
17.88000 1.369
17.90000 7.031
17.92000 6.244
17.94000 0.739
17.96000 4.024
17.98000 3.711
18.00000 2.175
18.02000 -2.028
18.04000 -2.166
18.06000 4.032
18.08000 8.142
18.10000 13.812
18.12000 11.309
18.14000 14.687
18.16000 10.543
18.18000 5.966
18.20000 2.252
18.22000 0.708
18.24000 0.318
18.26000 9.983
18.28000 1.888
18.30000 0.407
18.32000 -1.544
18.34000 -0.144
18.36000 2.982
18.38000 8.329
18.40000 6.812
18.42000 6.120
18.44000 5.745
18.46000 4.952
18.48000 0.508
18.50000 4.573
18.52000 5.379
18.54000 4.656
18.56000 3.918
18.58000 0.254
18.60000 -2.570
18.62000 2.604
18.64000 -1.205
18.66000 -1.723
18.68000 4.814
18.70000 6.445
18.72000 3.558
18.74000 3.734
18.76000 6.368
18.78000 2.605
18.80000 7.865
18.82000 10.067
18.84000 3.585
18.86000 -3.637
18.88000 -0.616
18.90000 6.793
18.92000 5.061
18.94000 0.803
18.96000 -3.267
18.98000 -0.490
19.00000 8.170
19.02000 3.811
19.04000 -0.783
19.06000 0.168
19.08000 2.510
19.10000 -2.952
19.12000 -2.280
19.14000 -3.849
19.16000 -4.326
19.18000 1.915
19.20000 5.088
19.22000 -0.159
19.24000 2.145
19.26000 3.049
19.28000 0.125
19.30000 0.206
19.32000 1.313
19.34000 1.243
19.36000 3.503
19.38000 4.611
19.40000 3.467
19.42000 8.065
19.44000 11.501
19.46000 9.893
19.48000 9.483
19.50000 7.259
19.52000 3.301
19.54000 7.972
19.56000 4.741
19.58000 0.863
19.60000 6.093
19.62000 0.555
19.64000 -0.250
19.66000 -0.670
19.68000 -3.959
19.70000 -0.760
19.72000 0.279
19.74000 4.814
19.76000 7.512
19.78000 6.545
19.80000 5.680
19.82000 5.045
19.84000 12.394
19.86000 9.726
19.88000 4.347
19.90000 1.536
19.92000 9.037
19.94000 14.019
19.96000 11.146
19.98000 5.389
20.00000 4.785
20.02000 6.545
20.04000 5.956
20.06000 2.452
20.08000 6.869
20.10000 11.673
20.12000 11.283
20.14000 3.985
20.16000 2.315
20.18000 0.014
20.20000 4.120
20.22000 5.005
20.24000 4.756
20.26000 0.398
20.28000 7.270
20.30000 8.815
20.32000 8.211
20.34000 4.968
20.36000 12.773
20.38000 6.992
20.40000 6.243
20.42000 3.124
20.44000 3.925
20.46000 14.355
20.48000 11.426
20.50000 7.126
20.52000 6.820
20.54000 7.074
20.56000 5.726
20.58000 7.651
20.60000 7.992
20.62000 8.376
20.64000 11.972
20.66000 6.685
20.68000 11.464
20.70000 4.367
20.72000 8.670
20.74000 9.830
20.76000 4.287
20.78000 -4.180
20.80000 7.353
20.82000 6.038
20.84000 10.960
20.86000 8.320
20.88000 7.444
20.90000 11.649
20.92000 14.438
20.94000 8.854
20.96000 1.870
20.98000 6.174
21.00000 9.419
21.02000 6.127
21.04000 6.371
21.06000 2.914
21.08000 3.600
21.10000 11.407
21.12000 4.675
21.14000 3.313
21.16000 2.955
21.18000 -0.522
21.20000 7.345
21.22000 7.551
21.24000 11.280
21.26000 6.923
21.28000 6.059
21.30000 4.369
21.32000 6.786
21.34000 1.233
21.36000 0.316
21.38000 4.402
21.40000 -0.106
21.42000 3.019
21.44000 5.765
21.46000 13.695
21.48000 7.688
21.50000 3.986
21.52000 0.174
21.54000 0.356
21.56000 0.668
21.58000 1.442
21.60000 1.398
21.62000 1.354
21.64000 0.370
21.66000 4.151
21.68000 3.162
21.70000 6.343
21.72000 2.911
21.74000 1.487
21.76000 3.314
21.78000 0.521
21.80000 3.677
21.82000 8.183
21.84000 -2.311
21.86000 -3.507
21.88000 3.142
21.90000 6.676
21.92000 5.395
21.94000 1.912
21.96000 -0.448
21.98000 4.528
22.00000 2.072
22.02000 -0.448
22.04000 -0.046
22.06000 3.786
22.08000 6.443
22.10000 2.699
22.12000 -1.049
22.14000 6.692
22.16000 11.906
22.18000 14.926
22.20000 7.286
22.22000 0.436
22.24000 0.374
22.26000 1.994
22.28000 2.589
22.30000 1.522
22.32000 -2.513
22.34000 1.404
22.36000 0.415
22.38000 3.368
22.40000 5.156
22.42000 -0.897
22.44000 5.267
22.46000 3.689
22.48000 2.787
22.50000 3.260
22.52000 3.592
22.54000 2.496
22.56000 0.067
22.58000 -0.735
22.60000 -3.840
22.62000 -3.353
22.64000 2.929
22.66000 1.915
22.68000 -1.813
22.70000 1.751
22.72000 5.320
22.74000 4.574
22.76000 3.989
22.78000 2.930
22.80000 6.194
22.82000 9.781
22.84000 1.545
22.86000 1.308
22.88000 0.104
22.90000 -1.044
22.92000 -1.807
22.94000 1.960
22.96000 8.568
22.98000 5.352
23.00000 3.907
23.02000 3.445
23.04000 -1.916
23.06000 -3.423
23.08000 1.459
23.10000 2.810
23.12000 -2.379
23.14000 1.528
23.16000 5.351
23.18000 2.390
23.20000 -0.153
23.22000 9.284
23.24000 6.383
23.26000 4.885
23.28000 0.114
23.30000 -3.803
23.32000 1.156
23.34000 3.865
23.36000 -1.661
23.38000 2.530
23.40000 6.342
23.42000 3.692
23.44000 4.119
23.46000 5.105
23.48000 -2.244
23.50000 -4.088
23.52000 -2.058
23.54000 3.901
23.56000 3.531
23.58000 -0.213
23.60000 4.839
23.62000 4.313
23.64000 10.947
23.66000 9.526
23.68000 8.680
23.70000 11.535
23.72000 12.240
23.74000 1.331
23.76000 0.434
23.78000 5.600
23.80000 5.456
23.82000 5.061
23.84000 7.787
23.86000 12.240
23.88000 7.879
23.90000 6.843
23.92000 4.198
23.94000 3.732
23.96000 9.237
23.98000 6.689
24.00000 3.978
24.02000 5.428
24.04000 3.947
24.06000 -2.860
24.08000 -1.321
24.10000 7.051
24.12000 6.305
24.14000 -2.524
24.16000 -4.045
24.18000 1.942
24.20000 8.077
24.22000 11.536
24.24000 8.280
24.26000 11.925
24.28000 10.198
24.30000 3.785
24.32000 4.774
24.34000 -2.265
24.36000 -1.555
24.38000 1.184
24.40000 3.409
24.42000 5.092
24.44000 4.814
24.46000 -3.260
24.48000 -0.172
24.50000 2.119
24.52000 4.622
24.54000 1.380
24.56000 5.739
24.58000 7.723
24.60000 4.451
24.62000 -0.396
24.64000 0.144
24.66000 1.402
24.68000 2.618
24.70000 3.935
24.72000 4.622
24.74000 4.241
24.76000 6.318
24.78000 1.616
24.80000 4.939
24.82000 5.793
24.84000 4.980
24.86000 3.658
24.88000 2.014
24.90000 2.785
24.92000 3.681
24.94000 -1.845
24.96000 -1.268
24.98000 4.286
25.00000 7.284
25.02000 1.494
25.04000 -0.756
25.06000 -1.383
25.08000 0.965
25.10000 3.710
25.12000 4.032
25.14000 5.784
25.16000 2.637
25.18000 2.397
25.20000 2.873
25.22000 1.833
25.24000 6.783
25.26000 0.532
25.28000 -4.001
25.30000 4.035
25.32000 6.549
25.34000 -0.130
25.36000 -3.657
25.38000 0.141
25.40000 4.967
25.42000 5.249
25.44000 3.888
25.46000 6.455
25.48000 4.488
25.50000 4.063
25.52000 4.449
25.54000 -0.250
25.56000 -0.552
25.58000 5.184
25.60000 -0.672
25.62000 3.203
25.64000 5.405
25.66000 -0.019
25.68000 1.319
25.70000 -0.027
25.72000 0.060
25.74000 3.940
25.76000 1.083
25.78000 0.011
25.80000 1.963
25.82000 6.334
25.84000 2.955
25.86000 -0.009
25.88000 -2.373
25.90000 -2.061
25.92000 -2.490
25.94000 1.078
25.96000 6.041
25.98000 1.637
26.00000 5.429
26.02000 8.646
26.04000 10.600
26.06000 6.543
26.08000 -1.901
26.10000 0.281
26.12000 0.323
26.14000 3.807
26.16000 7.876
26.18000 3.524
26.20000 9.679
26.22000 5.474
26.24000 2.224
26.26000 1.499
26.28000 4.241
26.30000 8.607
26.32000 4.824
26.34000 1.542
26.36000 0.367
26.38000 1.071
26.40000 1.874
26.42000 2.014
26.44000 1.770
26.46000 -3.916
26.48000 -3.506
26.50000 2.005
26.52000 4.988
26.54000 1.524
26.56000 2.035
26.58000 2.145
26.60000 6.721
26.62000 6.494
26.64000 0.833
26.66000 5.300
26.68000 3.887
26.70000 -1.228
26.72000 2.234
26.74000 2.542
26.76000 7.230
26.78000 5.503
26.80000 -2.134
26.82000 -3.347
26.84000 -1.761
26.86000 10.666
26.88000 12.398
26.90000 7.217
26.92000 2.163
26.94000 1.554
26.96000 1.499
26.98000 7.887
27.00000 8.926
27.02000 2.339
27.04000 8.584
27.06000 8.583
27.08000 6.203
27.10000 11.196
27.12000 6.147
27.14000 2.111
27.16000 0.214
27.18000 -1.198
27.20000 2.601
27.22000 4.393
27.24000 4.387
27.26000 5.660
27.28000 6.940
27.30000 3.690
27.32000 2.339
27.34000 1.641
27.36000 5.712
27.38000 4.915
27.40000 3.239
27.42000 7.411
27.44000 11.778
27.46000 11.489
27.48000 7.376
27.50000 4.306
27.52000 0.689
27.54000 -0.306
27.56000 4.892
27.58000 11.468
27.60000 9.978
27.62000 3.385
27.64000 3.395
27.66000 8.445
27.68000 4.152
27.70000 4.813
27.72000 3.346
27.74000 7.905
27.76000 7.690
27.78000 8.627
27.80000 7.253
27.82000 7.645
27.84000 4.980
27.86000 3.163
27.88000 2.776
27.90000 0.185
27.92000 -0.472
27.94000 -1.374
27.96000 1.255
27.98000 3.718
28.00000 4.416
28.02000 -0.753
28.04000 -3.342
28.06000 -3.827
28.08000 -1.646
28.10000 -1.613
28.12000 -1.716
28.14000 0.202
28.16000 4.625
28.18000 5.694
28.20000 6.115
28.22000 5.227
28.24000 9.007
28.26000 9.063
28.28000 6.471
28.30000 2.204
28.32000 -0.619
28.34000 4.237
28.36000 -0.500
28.38000 3.288
28.40000 4.303
28.42000 0.218
28.44000 -0.987
28.46000 1.187
28.48000 2.977
28.50000 4.227
28.52000 5.809
28.54000 4.730
28.56000 1.908
28.58000 4.869
28.60000 3.073
28.62000 5.767
28.64000 6.472
28.66000 10.138
28.68000 10.150
28.70000 5.874
28.72000 6.234
28.74000 9.066
28.76000 6.509
28.78000 -2.032
28.80000 5.178
28.82000 2.610
28.84000 2.486
28.86000 0.923
28.88000 0.820
28.90000 1.124
28.92000 1.796
28.94000 7.211
28.96000 4.394
28.98000 2.827
29.00000 3.926
29.02000 7.060
29.04000 3.045
29.06000 2.363
29.08000 6.217
29.10000 10.093
29.12000 10.167
29.14000 5.588
29.16000 0.192
29.18000 0.692
29.20000 2.934
29.22000 2.597
29.24000 -1.236
29.26000 -3.784
29.28000 -2.421
29.30000 -0.134
29.32000 6.222
29.34000 7.300
29.36000 4.734
29.38000 1.761
29.40000 3.845
29.42000 -2.701
29.44000 -1.514
29.46000 -2.143
29.48000 0.141
29.50000 4.245
29.52000 1.817
29.54000 -2.874
29.56000 1.702
29.58000 5.625
29.60000 9.350
29.62000 3.934
29.64000 1.375
29.66000 4.617
29.68000 1.664
29.70000 3.452
29.72000 1.518
29.74000 3.057
29.76000 8.192
29.78000 9.537
29.80000 3.935
29.82000 -0.298
29.84000 5.924
29.86000 1.009
29.88000 0.254
29.90000 2.728
29.92000 2.062
29.94000 1.203
29.96000 4.422
29.98000 3.933
30.00000 -0.380
30.02000 1.466
30.04000 -0.778
30.06000 1.331
30.08000 0.368
30.10000 2.666
30.12000 -1.325
30.14000 -3.731
30.16000 -1.626
30.18000 0.313
30.20000 2.475
30.22000 1.796
30.24000 4.225
30.26000 3.425
30.28000 -1.618
30.30000 -2.566
30.32000 -1.892
30.34000 3.156
30.36000 6.538
30.38000 5.140
30.40000 5.697
30.42000 3.392
30.44000 0.501
30.46000 -0.296
30.48000 -2.805
30.50000 -0.116
30.52000 2.492
30.54000 3.768
30.56000 0.964
30.58000 2.556
30.60000 6.134
30.62000 4.200
30.64000 0.211
30.66000 -0.656
30.68000 5.399
30.70000 4.962
30.72000 5.739
30.74000 -0.677
30.76000 -1.328
30.78000 4.369
30.80000 4.748
30.82000 3.815
30.84000 -2.082
30.86000 -0.496
30.88000 -2.496
30.90000 1.920
30.92000 3.587
30.94000 5.834
30.96000 4.479
30.98000 3.014
31.00000 -1.296
31.02000 -1.329
31.04000 -1.015
31.06000 4.376
31.08000 3.642
31.10000 3.538
31.12000 6.522
31.14000 2.126
31.16000 -0.340
31.18000 -0.113
31.20000 0.202
31.22000 1.383
31.24000 1.724
31.26000 4.986
31.28000 2.363
31.30000 0.771
31.32000 -3.348
31.34000 2.405
31.36000 6.627
31.38000 5.422
31.40000 1.915
31.42000 3.763
31.44000 5.204
31.46000 4.018
31.48000 3.441
31.50000 3.702
31.52000 -3.694
31.54000 1.636
31.56000 5.435
31.58000 3.147
31.60000 7.261
31.62000 9.030
31.64000 5.713
31.66000 5.120
31.68000 6.958
31.70000 2.399
31.72000 0.278
31.74000 2.700
31.76000 -1.968
31.78000 -0.563
31.80000 -2.174
31.82000 1.160
31.84000 0.512
31.86000 -2.719
31.88000 -1.601
31.90000 3.808
31.92000 1.645
31.94000 6.885
31.96000 3.049
31.98000 0.407
32.00000 4.829
32.02000 2.205
32.04000 -0.802
32.06000 3.564
32.08000 3.695
32.10000 -0.808
32.12000 -3.650
32.14000 -0.177
32.16000 3.147
32.18000 -1.069
32.20000 2.093
32.22000 3.048
32.24000 -0.654
32.26000 -2.748
32.28000 4.944
32.30000 8.927
32.32000 2.822
32.34000 -1.710
32.36000 -1.892
32.38000 -2.157
32.40000 0.534
32.42000 1.570
32.44000 3.412
32.46000 3.746
32.48000 2.755
32.50000 4.716
32.52000 8.512
32.54000 3.704
32.56000 2.000
32.58000 1.769
32.60000 -0.422
32.62000 -2.332
32.64000 -3.642
32.66000 0.440
32.68000 3.276
32.70000 5.646
32.72000 2.991
32.74000 2.336
32.76000 -2.689
32.78000 0.282
32.80000 3.239
32.82000 11.250
32.84000 6.994
32.86000 1.893
32.88000 1.732
32.90000 4.631
32.92000 2.787
32.94000 0.128
32.96000 -1.429
32.98000 0.233
33.00000 -2.652
33.02000 -1.339
33.04000 3.808
33.06000 0.034
33.08000 3.639
33.10000 4.315
33.12000 3.909
33.14000 1.496
33.16000 -0.179
33.18000 3.928
33.20000 8.190
33.22000 2.778
33.24000 -1.320
33.26000 1.664
33.28000 1.938
33.30000 2.906
33.32000 4.808
33.34000 2.544
33.36000 -3.660
33.38000 0.241
33.40000 5.090
33.42000 1.810
33.44000 2.711
33.46000 3.412
33.48000 4.613
33.50000 1.756
33.52000 2.407
33.54000 1.588
33.56000 -0.036
33.58000 3.301
33.60000 1.672
33.62000 2.720
33.64000 1.889
33.66000 1.504
33.68000 1.413
33.70000 -0.078
33.72000 0.781
33.74000 -1.006
33.76000 1.143
33.78000 5.740
33.80000 5.603
33.82000 2.884
33.84000 -0.143
33.86000 -2.653
33.88000 -0.650
33.90000 2.041
33.92000 5.439
33.94000 1.628
33.96000 1.973
33.98000 -0.580
34.00000 1.395
34.02000 1.101
34.04000 -1.870
34.06000 6.902
34.08000 8.956
34.10000 3.663
34.12000 1.545
34.14000 -1.890
34.16000 -1.803
34.18000 -2.251
34.20000 -1.811
34.22000 2.958
34.24000 3.015
34.26000 -0.232
34.28000 3.215
34.30000 3.659
34.32000 -0.758
34.34000 -0.069
34.36000 3.054
34.38000 0.974
34.40000 1.056
34.42000 3.598
34.44000 2.697
34.46000 -1.252
34.48000 -1.657
34.50000 -0.968
34.52000 -2.572
34.54000 -1.445
34.56000 6.276
34.58000 6.257
34.60000 2.302
34.62000 0.995
34.64000 1.974
34.66000 0.817
34.68000 -2.193
34.70000 -3.563
34.72000 -3.635
34.74000 -3.577
34.76000 -0.229
34.78000 2.536
34.80000 -0.533
34.82000 0.477
34.84000 2.109
34.86000 5.637
34.88000 4.151
34.90000 1.816
34.92000 -0.980
34.94000 -1.614
34.96000 2.534
34.98000 4.077
35.00000 5.899
35.02000 3.001
35.04000 2.262
35.06000 5.932
35.08000 9.685
35.10000 5.789
35.12000 5.923
35.14000 5.089
35.16000 3.828
35.18000 -1.050
35.20000 -2.094
35.22000 -1.547
35.24000 -3.600
35.26000 -1.595
35.28000 0.887
35.30000 1.497
35.32000 3.302
35.34000 1.712
35.36000 0.352
35.38000 0.766
35.40000 -1.092
35.42000 -3.601
35.44000 -2.633
35.46000 -1.507
35.48000 3.430
35.50000 4.295
35.52000 4.286
35.54000 6.036
35.56000 4.265
35.58000 0.552
35.60000 -1.817
35.62000 -0.863
35.64000 -0.951
35.66000 0.478
35.68000 -0.820
35.70000 5.567
35.72000 3.792
35.74000 2.913
35.76000 3.814
35.78000 -1.591
35.80000 0.188
35.82000 -1.249
35.84000 -0.271
35.86000 0.842
35.88000 0.250
35.90000 -2.960
35.92000 1.010
35.94000 -0.990
35.96000 3.365
35.98000 5.402
36.00000 1.689
36.02000 1.615
36.04000 3.608
36.06000 4.449
36.08000 -0.321
36.10000 -1.908
36.12000 -1.589
36.14000 -2.186
36.16000 1.004
36.18000 0.932
36.20000 1.289
36.22000 1.832
36.24000 2.647
36.26000 0.606
36.28000 -3.607
36.30000 -2.239
36.32000 3.707
36.34000 -0.512
36.36000 2.743
36.38000 1.544
36.40000 -0.924
36.42000 -2.637
36.44000 1.178
36.46000 1.947
36.48000 3.486
36.50000 4.614
36.52000 4.207
36.54000 4.586
36.56000 2.416
36.58000 -0.483
36.60000 3.897
36.62000 1.023
36.64000 2.530
36.66000 4.523
36.68000 -2.891
36.70000 -3.004
36.72000 -1.977
36.74000 -0.681
36.76000 0.700
36.78000 1.568
36.80000 -0.746
36.82000 1.747
36.84000 2.471
36.86000 4.223
36.88000 3.573
36.90000 2.823
36.92000 0.058
36.94000 -0.948
36.96000 -2.671
36.98000 -1.455
37.00000 3.541
37.02000 5.936
37.04000 1.205
37.06000 -3.708
37.08000 1.238
37.10000 -0.327
37.12000 0.083
37.14000 4.432
37.16000 5.855
37.18000 9.567
37.20000 3.660
37.22000 -3.183
37.24000 0.030
37.26000 2.189
37.28000 2.190
37.30000 -1.246
37.32000 1.413
37.34000 4.908
37.36000 3.050
37.38000 1.267
37.40000 1.545
37.42000 1.360
37.44000 -0.267
37.46000 2.638
37.48000 1.960
37.50000 5.069
37.52000 3.860
37.54000 2.900
37.56000 -0.298
37.58000 0.172
37.60000 -0.105
37.62000 2.555
37.64000 1.027
37.66000 4.392
37.68000 5.738
37.70000 6.069
37.72000 7.599
37.74000 3.026
37.76000 -2.351
37.78000 -0.809
37.80000 8.879
37.82000 13.887
37.84000 9.506
37.86000 4.273
37.88000 8.257
37.90000 7.684
37.92000 10.332
37.94000 12.047
37.96000 7.844
37.98000 11.410
38.00000 6.278
38.02000 4.631
38.04000 10.616
38.06000 11.290
38.08000 7.979
38.10000 11.518
38.12000 13.773
38.14000 13.240
38.16000 18.667
38.18000 15.036
38.20000 14.741
38.22000 16.924
38.24000 18.974
38.26000 17.482
38.28000 19.359
38.30000 19.560
38.32000 19.601
38.34000 23.341
38.36000 21.395
38.38000 20.992
38.40000 23.738
38.42000 21.417
38.44000 22.710
38.46000 28.320
38.48000 28.531
38.50000 23.985
38.52000 27.026
38.54000 27.550
38.56000 26.206
38.58000 31.368
38.60000 30.332
38.62000 31.066
38.64000 37.482
38.66000 39.222
38.68000 36.590
38.70000 35.688
38.72000 37.773
38.74000 40.910
38.76000 43.832
38.78000 43.776
38.80000 47.626
38.82000 49.324
38.84000 51.160
38.86000 53.775
38.88000 56.435
38.90000 60.403
38.92000 64.830
38.94000 68.064
38.96000 73.179
38.98000 71.316
39.00000 68.627
39.02000 72.551
39.04000 72.991
39.06000 70.294
39.08000 75.016
39.10000 83.836
39.12000 93.218
39.14000 88.425
39.16000 98.000
39.18000 100.066
39.20000 100.878
39.22000 103.883
39.24000 107.806
39.26000 117.172
39.28000 122.896
39.30000 127.968
39.32000 129.353
39.34000 141.077
39.36000 148.366
39.38000 154.365
39.40000 165.121
39.42000 171.853
39.44000 169.336
39.46000 180.027
39.48000 198.043
39.50000 207.280
39.52000 213.884
39.54000 223.154
39.56000 232.343
39.58000 245.308
39.60000 261.627
39.62000 276.715
39.64000 288.291
39.66000 295.416
39.68000 304.043
39.70000 324.325
39.72000 349.242
39.74000 370.168
39.76000 378.892
39.78000 385.299
39.80000 409.878
39.82000 436.488
39.84000 455.821
39.86000 473.154
39.88000 490.913
39.90000 504.094
39.92000 536.730
39.94000 555.769
39.96000 567.060
39.98000 589.454
40.00000 609.838
40.02000 627.147
40.04000 643.375
40.06000 660.731
40.08000 682.208
40.10000 697.236
40.12000 706.797
40.14000 733.083
40.16000 735.011
40.18000 748.820
40.20000 758.450
40.22000 761.282
40.24000 767.290
40.26000 760.729
40.28000 761.914
40.30000 753.763
40.32000 748.199
40.34000 752.728
40.36000 755.737
40.38000 735.298
40.40000 711.454
40.42000 696.645
40.44000 681.644
40.46000 669.645
40.48000 658.124
40.50000 627.863
40.52000 611.041
40.54000 596.905
40.56000 572.680
40.58000 550.866
40.60000 529.918
40.62000 510.291
40.64000 488.024
40.66000 453.645
40.68000 439.461
40.70000 414.632
40.72000 397.173
40.74000 384.611
40.76000 372.254
40.78000 351.624
40.80000 330.144
40.82000 306.893
40.84000 291.497
40.86000 283.203
40.88000 265.479
40.90000 247.137
40.92000 234.103
40.94000 225.486
40.96000 213.381
40.98000 204.188
41.00000 190.367
41.02000 175.541
41.04000 166.907
41.06000 152.959
41.08000 147.359
41.10000 145.722
41.12000 137.344
41.14000 131.646
41.16000 118.148
41.18000 116.047
41.20000 102.584
41.22000 93.858
41.24000 93.337
41.26000 91.506
41.28000 90.204
41.30000 83.146
41.32000 72.705
41.34000 69.324
41.36000 65.929
41.38000 64.544
41.40000 68.762
41.42000 62.241
41.44000 55.013
41.46000 51.120
41.48000 52.005
41.50000 49.893
41.52000 46.403
41.54000 41.011
41.56000 37.906
41.58000 32.594
41.60000 34.150
41.62000 35.913
41.64000 27.735
41.66000 28.096
41.68000 25.313
41.70000 24.728
41.72000 29.720
41.74000 26.463
41.76000 22.337
41.78000 20.532
41.80000 21.137
41.82000 16.991
41.84000 15.789
41.86000 13.627
41.88000 18.199
41.90000 16.448
41.92000 11.813
41.94000 14.845
41.96000 13.622
41.98000 11.722
42.00000 7.936
42.02000 8.707
42.04000 11.558
42.06000 14.734
42.08000 9.730
42.10000 5.616
42.12000 5.044
42.14000 4.330
42.16000 3.428
42.18000 6.893
42.20000 10.427
42.22000 10.510
42.24000 9.447
42.26000 7.710
42.28000 8.497
42.30000 6.766
42.32000 8.426
42.34000 7.218
42.36000 3.426
42.38000 2.586
42.40000 2.268
42.42000 5.231
42.44000 0.612
42.46000 2.634
42.48000 2.393
42.50000 4.588
42.52000 6.544
42.54000 0.881
42.56000 -0.373
42.58000 -3.688
42.60000 -0.486
42.62000 1.905
42.64000 7.502
42.66000 5.276
42.68000 1.060
42.70000 1.745
42.72000 -0.054
42.74000 -0.270
42.76000 2.461
42.78000 3.030
42.80000 1.668
42.82000 -3.127
42.84000 2.096
42.86000 8.643
42.88000 3.650
42.90000 -1.735
42.92000 -3.637
42.94000 -2.460
42.96000 0.792
42.98000 1.985
43.00000 3.078
43.02000 -0.559
43.04000 -0.760
43.06000 3.687
43.08000 -2.504
43.10000 -2.857
43.12000 0.275
43.14000 3.173
43.16000 1.428
43.18000 -1.412
43.20000 3.060
43.22000 2.787
43.24000 2.893
43.26000 6.338
43.28000 4.227
43.30000 6.305
43.32000 4.919
43.34000 4.066
43.36000 5.938
43.38000 4.007
43.40000 0.211
43.42000 -0.378
43.44000 1.628
43.46000 3.174
43.48000 2.668
43.50000 5.931
43.52000 0.967
43.54000 -0.288
43.56000 4.017
43.58000 9.662
43.60000 10.365
43.62000 5.058
43.64000 -3.544
43.66000 0.800
43.68000 0.761
43.70000 1.314
43.72000 0.211
43.74000 -3.017
43.76000 -0.881
43.78000 4.655
43.80000 4.731
43.82000 5.363
43.84000 1.648
43.86000 -1.534
43.88000 1.395
43.90000 4.349
43.92000 6.734
43.94000 9.819
43.96000 4.248
43.98000 0.400
44.00000 3.465
44.02000 3.214
44.04000 2.911
44.06000 -0.009
44.08000 -1.918
44.10000 0.984
44.12000 1.897
44.14000 0.166
44.16000 -1.188
44.18000 -0.648
44.20000 -0.348
44.22000 -0.635
44.24000 2.495
44.26000 -1.062
44.28000 -3.549
44.30000 8.180
44.32000 10.323
44.34000 3.304
44.36000 6.056
44.38000 7.800
44.40000 4.044
44.42000 0.426
44.44000 3.589
44.46000 2.629
44.48000 -0.469
44.50000 -2.744
44.52000 3.396
44.54000 7.417
44.56000 8.731
44.58000 1.910
44.60000 3.064
44.62000 2.726
44.64000 -1.315
44.66000 4.491
44.68000 2.907
44.70000 3.013
44.72000 7.038
44.74000 8.630
44.76000 6.625
44.78000 7.548
44.80000 4.811
44.82000 2.485
44.84000 3.832
44.86000 9.568
44.88000 7.103
44.90000 8.914
44.92000 9.784
44.94000 8.066
44.96000 7.100
44.98000 6.608
45.00000 6.226
45.02000 6.396
45.04000 6.504
45.06000 8.268
45.08000 3.974
45.10000 0.156
45.12000 6.198
45.14000 10.620
45.16000 10.890
45.18000 8.825
45.20000 7.963
45.22000 16.079
45.24000 14.214
45.26000 14.203
45.28000 9.915
45.30000 17.317
45.32000 13.494
45.34000 9.133
45.36000 8.800
45.38000 10.081
45.40000 15.115
45.42000 13.713
45.44000 13.501
45.46000 13.834
45.48000 18.562
45.50000 20.651
45.52000 23.163
45.54000 22.074
45.56000 17.200
45.58000 22.963
45.60000 22.440
45.62000 20.182
45.64000 21.379
45.66000 28.427
45.68000 26.221
45.70000 28.782
45.72000 27.027
45.74000 29.764
45.76000 27.967
45.78000 28.345
45.80000 29.413
45.82000 28.229
45.84000 29.240
45.86000 26.420
45.88000 24.953
45.90000 37.412
45.92000 42.441
45.94000 42.840
45.96000 41.373
45.98000 42.206
46.00000 46.420
46.02000 49.196
46.04000 50.177
46.06000 43.350
46.08000 41.326
46.10000 45.698
46.12000 47.416
46.14000 48.228
46.16000 53.981
46.18000 50.104
46.20000 53.192
46.22000 51.036
46.24000 55.187
46.26000 59.826
46.28000 59.352
46.30000 60.664
46.32000 61.372
46.34000 61.317
46.36000 60.603
46.38000 65.532
46.40000 67.441
46.42000 66.363
46.44000 63.199
46.46000 66.540
46.48000 71.475
46.50000 69.055
46.52000 73.086
46.54000 73.343
46.56000 78.778
46.58000 80.144
46.60000 75.414
46.62000 79.245
46.64000 83.745
46.66000 83.551
46.68000 85.749
46.70000 76.923
46.72000 80.471
46.74000 83.247
46.76000 81.273
46.78000 78.965
46.80000 83.803
46.82000 82.153
46.84000 81.528
46.86000 84.756
46.88000 81.679
46.90000 84.193
46.92000 87.830
46.94000 89.608
46.96000 86.451
46.98000 80.103
47.00000 75.707
47.02000 78.086
47.04000 73.558
47.06000 80.315
47.08000 80.653
47.10000 80.615
47.12000 83.144
47.14000 72.018
47.16000 72.410
47.18000 74.958
47.20000 73.911
47.22000 71.226
47.24000 66.248
47.26000 66.938
47.28000 64.906
47.30000 65.066
47.32000 61.737
47.34000 52.533
47.36000 55.055
47.38000 52.188
47.40000 55.808
47.42000 63.497
47.44000 52.788
47.46000 49.750
47.48000 41.045
47.50000 40.639
47.52000 40.781
47.54000 41.919
47.56000 35.327
47.58000 31.406
47.60000 36.088
47.62000 44.486
47.64000 36.323
47.66000 28.838
47.68000 34.240
47.70000 38.739
47.72000 35.499
47.74000 34.008
47.76000 29.564
47.78000 26.788
47.80000 24.264
47.82000 23.895
47.84000 20.182
47.86000 20.999
47.88000 18.247
47.90000 15.278
47.92000 18.925
47.94000 20.204
47.96000 16.351
47.98000 9.846
48.00000 14.575
48.02000 16.909
48.04000 12.693
48.06000 14.195
48.08000 12.632
48.10000 13.163
48.12000 9.560
48.14000 14.462
48.16000 8.442
48.18000 7.726
48.20000 4.709
48.22000 1.431
48.24000 3.811
48.26000 8.493
48.28000 6.096
48.30000 5.017
48.32000 -1.974
48.34000 1.947
48.36000 4.191
48.38000 8.857
48.40000 9.955
48.42000 4.516
48.44000 5.916
48.46000 3.814
48.48000 5.798
48.50000 3.462
48.52000 2.425
48.54000 -1.346
48.56000 -0.838
48.58000 -0.985
48.60000 -2.051
48.62000 0.391
48.64000 0.983
48.66000 1.716
48.68000 2.970
48.70000 10.341
48.72000 6.667
48.74000 2.055
48.76000 0.381
48.78000 -0.651
48.80000 -0.664
48.82000 -1.972
48.84000 5.726
48.86000 8.122
48.88000 5.149
48.90000 8.530
48.92000 6.635
48.94000 3.566
48.96000 5.880
48.98000 4.134
49.00000 5.014
49.02000 -2.340
49.04000 -2.473
49.06000 0.368
49.08000 6.483
49.10000 7.570
49.12000 4.559
49.14000 1.307
49.16000 5.508
49.18000 3.620
49.20000 -0.649
49.22000 -3.076
49.24000 6.177
49.26000 11.863
49.28000 11.518
49.30000 2.182
49.32000 3.040
49.34000 1.966
49.36000 5.409
49.38000 1.434
49.40000 -3.127
49.42000 -1.198
49.44000 4.372
49.46000 4.887
49.48000 4.495
49.50000 9.073
49.52000 7.287
49.54000 7.697
49.56000 4.600
49.58000 4.427
49.60000 -0.822
49.62000 5.142
49.64000 5.879
49.66000 2.958
49.68000 6.025
49.70000 0.411
49.72000 4.975
49.74000 6.701
49.76000 7.835
49.78000 3.946
49.80000 1.499
49.82000 4.950
49.84000 3.819
49.86000 2.211
49.88000 1.749
49.90000 2.464
49.92000 -2.936
49.94000 -0.546
49.96000 0.391
49.98000 5.208
50.00000 11.015
50.02000 7.234
50.04000 4.628
50.06000 5.222
50.08000 3.179
50.10000 7.400
50.12000 9.084
50.14000 6.276
50.16000 5.262
50.18000 5.840
50.20000 9.804
50.22000 5.364
50.24000 3.234
50.26000 5.935
50.28000 1.566
50.30000 -1.029
50.32000 4.926
50.34000 7.291
50.36000 5.791
50.38000 3.972
50.40000 2.771
50.42000 0.367
50.44000 3.173
50.46000 3.911
50.48000 1.029
50.50000 10.857
50.52000 9.844
50.54000 7.117
50.56000 6.091
50.58000 4.632
50.60000 8.419
50.62000 0.702
50.64000 -2.364
50.66000 -0.611
50.68000 2.348
50.70000 8.765
50.72000 6.788
50.74000 8.695
50.76000 5.113
50.78000 4.596
50.80000 1.391
50.82000 1.148
50.84000 2.230
50.86000 6.031
50.88000 1.187
50.90000 0.318
50.92000 2.872
50.94000 4.819
50.96000 8.215
50.98000 6.181
51.00000 5.310
51.02000 3.078
51.04000 1.202
51.06000 -0.710
51.08000 3.409
51.10000 7.599
51.12000 2.884
51.14000 -2.470
51.16000 2.779
51.18000 4.567
51.20000 4.337
51.22000 5.845
51.24000 0.428
51.26000 -0.827
51.28000 0.077
51.30000 0.133
51.32000 4.290
51.34000 -0.546
51.36000 -3.023
51.38000 -2.391
51.40000 2.064
51.42000 6.833
51.44000 9.968
51.46000 8.096
51.48000 6.010
51.50000 2.331
51.52000 -2.876
51.54000 4.834
51.56000 2.885
51.58000 3.568
51.60000 6.225
51.62000 0.040
51.64000 0.579
51.66000 0.949
51.68000 2.276
51.70000 0.817
51.72000 1.209
51.74000 0.478
51.76000 6.178
51.78000 9.239
51.80000 7.767
51.82000 7.976
51.84000 7.471
51.86000 7.590
51.88000 2.325
51.90000 -3.019
51.92000 4.536
51.94000 5.551
51.96000 -0.033
51.98000 4.651
52.00000 8.995
52.02000 6.055
52.04000 5.203
52.06000 2.110
52.08000 7.143
52.10000 5.529
52.12000 5.616
52.14000 5.014
52.16000 2.479
52.18000 2.862
52.20000 2.874
52.22000 3.901
52.24000 -1.330
52.26000 -3.008
52.28000 -0.876
52.30000 4.144
52.32000 -0.443
52.34000 4.119
52.36000 3.502
52.38000 4.172
52.40000 2.312
52.42000 1.932
52.44000 4.683
52.46000 6.223
52.48000 0.390
52.50000 2.806
52.52000 6.199
52.54000 -0.629
52.56000 -0.470
52.58000 -2.314
52.60000 4.315
52.62000 5.184
52.64000 5.364
52.66000 0.770
52.68000 1.914
52.70000 10.854
52.72000 1.372
52.74000 1.502
52.76000 1.804
52.78000 -1.295
52.80000 -0.886
52.82000 4.295
52.84000 3.141
52.86000 4.310
52.88000 7.619
52.90000 12.618
52.92000 7.757
52.94000 1.635
52.96000 2.860
52.98000 5.713
53.00000 6.280
53.02000 3.156
53.04000 1.079
53.06000 7.420
53.08000 1.938
53.10000 5.761
53.12000 5.478
53.14000 0.718
53.16000 1.401
53.18000 0.118
53.20000 4.361
53.22000 2.382
53.24000 -1.976
53.26000 -2.715
53.28000 -1.288
53.30000 0.951
53.32000 -2.917
53.34000 -2.256
53.36000 3.260
53.38000 3.629
53.40000 4.049
53.42000 3.067
53.44000 -2.543
53.46000 2.015
53.48000 8.199
53.50000 4.302
53.52000 2.777
53.54000 6.183
53.56000 3.796
53.58000 -2.965
53.60000 -2.110
53.62000 0.539
53.64000 -0.335
53.66000 2.205
53.68000 7.011
53.70000 4.460
53.72000 4.990
53.74000 2.457
53.76000 5.631
53.78000 3.531
53.80000 -0.820
53.82000 -0.323
53.84000 2.537
53.86000 0.623
53.88000 3.088
53.90000 -0.913
53.92000 -1.913
53.94000 2.312
53.96000 1.764
53.98000 3.970
54.00000 2.508
54.02000 2.688
54.04000 -2.176
54.06000 0.556
54.08000 4.412
54.10000 2.038
54.12000 -0.159
54.14000 4.517
54.16000 3.840
54.18000 1.707
54.20000 -2.015
54.22000 -2.852
54.24000 1.527
54.26000 0.298
54.28000 4.830
54.30000 4.887
54.32000 0.722
54.34000 1.257
54.36000 7.905
54.38000 6.627
54.40000 1.582
54.42000 -2.302
54.44000 -1.693
54.46000 -1.472
54.48000 0.770
54.50000 2.562
54.52000 3.364
54.54000 5.135
54.56000 4.681
54.58000 2.439
54.60000 7.297
54.62000 3.135
54.64000 -0.078
54.66000 -1.406
54.68000 -1.148
54.70000 3.081
54.72000 2.968
54.74000 4.251
54.76000 -2.255
54.78000 -0.957
54.80000 4.573
54.82000 2.219
54.84000 3.174
54.86000 7.001
54.88000 7.741
54.90000 0.891
54.92000 -1.049
54.94000 5.005
54.96000 3.335
54.98000 -2.600
55.00000 2.861
55.02000 1.523
55.04000 2.439
55.06000 6.343
55.08000 5.879
55.10000 4.061
55.12000 1.750
55.14000 5.346
55.16000 3.505
55.18000 -2.230
55.20000 0.056
55.22000 -1.960
55.24000 -0.703
55.26000 1.951
55.28000 2.632
55.30000 3.450
55.32000 9.465
55.34000 7.274
55.36000 3.370
55.38000 2.160
55.40000 8.165
55.42000 3.969
55.44000 8.341
55.46000 3.924
55.48000 -0.408
55.50000 4.994
55.52000 3.728
55.54000 0.089
55.56000 2.489
55.58000 1.121
55.60000 2.996
55.62000 2.836
55.64000 5.740
55.66000 3.043
55.68000 2.734
55.70000 -0.245
55.72000 0.900
55.74000 5.831
55.76000 1.674
55.78000 3.580
55.80000 7.817
55.82000 3.481
55.84000 6.573
55.86000 7.086
55.88000 8.510
55.90000 9.922
55.92000 6.342
55.94000 7.117
55.96000 7.330
55.98000 8.095
56.00000 7.789
56.02000 3.785
56.04000 -2.841
56.06000 5.112
56.08000 5.873
56.10000 7.716
56.12000 10.135
56.14000 8.051
56.16000 6.380
56.18000 8.852
56.20000 5.898
56.22000 5.901
56.24000 9.522
56.26000 9.754
56.28000 4.884
56.30000 3.033
56.32000 4.837
56.34000 6.670
56.36000 5.410
56.38000 4.587
56.40000 6.067
56.42000 11.065
56.44000 10.141
56.46000 10.343
56.48000 2.781
56.50000 -1.101
56.52000 3.322
56.54000 1.416
56.56000 -2.847
56.58000 -0.219
56.60000 -1.022
56.62000 4.640
56.64000 7.844
56.66000 9.450
56.68000 11.992
56.70000 11.872
56.72000 4.998
56.74000 -1.139
56.76000 2.105
56.78000 5.937
56.80000 10.886
56.82000 5.948
56.84000 5.853
56.86000 6.073
56.88000 4.924
56.90000 3.850
56.92000 5.412
56.94000 5.134
56.96000 3.229
56.98000 1.850
57.00000 2.213
57.02000 0.926
57.04000 3.485
57.06000 1.695
57.08000 0.860
57.10000 0.983
57.12000 -1.596
57.14000 2.042
57.16000 1.793
57.18000 2.390
57.20000 0.849
57.22000 1.265
57.24000 3.419
57.26000 -2.857
57.28000 -1.167
57.30000 3.245
57.32000 3.655
57.34000 5.357
57.36000 2.484
57.38000 3.019
57.40000 2.986
57.42000 3.769
57.44000 1.878
57.46000 3.252
57.48000 4.653
57.50000 8.629
57.52000 10.733
57.54000 6.689
57.56000 6.170
57.58000 7.972
57.60000 2.182
57.62000 -1.239
57.64000 0.703
57.66000 0.205
57.68000 2.266
57.70000 0.352
57.72000 0.771
57.74000 3.672
57.76000 3.749
57.78000 4.003
57.80000 0.380
57.82000 -1.236
57.84000 -2.555
57.86000 0.889
57.88000 5.284
57.90000 3.348
57.92000 1.647
57.94000 1.444
57.96000 0.480
57.98000 3.926
58.00000 8.638
58.02000 2.888
58.04000 6.218
58.06000 -0.300
58.08000 3.732
58.10000 6.644
58.12000 3.930
58.14000 3.092
58.16000 7.019
58.18000 5.406
58.20000 6.054
58.22000 6.694
58.24000 8.769
58.26000 3.527
58.28000 1.137
58.30000 4.835
58.32000 8.655
58.34000 8.191
58.36000 5.342
58.38000 3.546
58.40000 7.182
58.42000 5.617
58.44000 6.626
58.46000 8.982
58.48000 5.203
58.50000 3.283
58.52000 0.226
58.54000 -2.791
58.56000 -0.121
58.58000 8.990
58.60000 7.532
58.62000 3.498
58.64000 -1.772
58.66000 -1.857
58.68000 -2.596
58.70000 2.827
58.72000 0.546
58.74000 1.557
58.76000 2.634
58.78000 2.262
58.80000 3.852
58.82000 1.858
58.84000 3.215
58.86000 6.934
58.88000 5.118
58.90000 5.029
58.92000 7.948
58.94000 5.282
58.96000 5.744
58.98000 5.292
59.00000 2.696
59.02000 4.258
59.04000 4.292
59.06000 1.872
59.08000 4.083
59.10000 5.408
59.12000 2.813
59.14000 0.347
59.16000 8.118
59.18000 4.253
59.20000 0.120
59.22000 3.333
59.24000 7.439
59.26000 0.275
59.28000 -0.095
59.30000 2.775
59.32000 4.309
59.34000 1.078
59.36000 -2.164
59.38000 0.889
59.40000 4.573
59.42000 4.670
59.44000 7.710
59.46000 8.351
59.48000 3.050
59.50000 1.710
59.52000 7.710
59.54000 10.703
59.56000 3.663
59.58000 -2.738
59.60000 -0.703
59.62000 3.002
59.64000 4.429
59.66000 -0.714
59.68000 1.809
59.70000 3.816
59.72000 6.517
59.74000 7.282
59.76000 7.846
59.78000 9.212
59.80000 -0.380
59.82000 -2.196
59.84000 0.939
59.86000 4.010
59.88000 0.286
59.90000 6.484
59.92000 10.277
59.94000 9.346
59.96000 5.599
59.98000 6.931
60.00000 7.413
60.02000 8.351
60.04000 5.199
60.06000 1.881
60.08000 2.835
60.10000 4.158
60.12000 6.020
60.14000 8.022
60.16000 -0.759
60.18000 2.785
60.20000 5.793
60.22000 4.884
60.24000 6.559
60.26000 5.716
60.28000 4.023
60.30000 4.217
60.32000 3.602
60.34000 9.580
60.36000 6.403
60.38000 8.333
60.40000 3.981
60.42000 3.788
60.44000 1.838
60.46000 -2.722
60.48000 -1.484
60.50000 1.080
60.52000 3.640
60.54000 2.508
60.56000 6.971
60.58000 1.361
60.60000 1.678
60.62000 -0.114
60.64000 2.012
60.66000 1.574
60.68000 3.562
60.70000 7.277
60.72000 6.337
60.74000 1.010
60.76000 2.563
60.78000 2.271
60.80000 2.605
60.82000 2.670
60.84000 0.693
60.86000 1.059
60.88000 3.715
60.90000 2.809
60.92000 1.094
60.94000 2.354
60.96000 3.754
60.98000 3.900
61.00000 6.217
61.02000 4.143
61.04000 2.323
61.06000 1.328
61.08000 3.093
61.10000 4.363
61.12000 0.655
61.14000 4.626
61.16000 6.187
61.18000 6.494
61.20000 3.184
61.22000 0.239
61.24000 1.383
61.26000 0.297
61.28000 0.306
61.30000 1.781
61.32000 2.769
61.34000 5.575
61.36000 4.786
61.38000 5.377
61.40000 5.603
61.42000 6.454
61.44000 0.772
61.46000 0.512
61.48000 4.435
61.50000 4.889
61.52000 2.575
61.54000 3.920
61.56000 3.030
61.58000 5.461
61.60000 6.902
61.62000 4.113
61.64000 2.796
61.66000 3.173
61.68000 5.297
61.70000 5.171
61.72000 1.582
61.74000 1.106
61.76000 -0.943
61.78000 2.854
61.80000 0.293
61.82000 5.689
61.84000 3.175
61.86000 3.414
61.88000 3.833
61.90000 4.749
61.92000 6.753
61.94000 6.959
61.96000 4.867
61.98000 5.436
62.00000 3.896
62.02000 1.031
62.04000 0.541
62.06000 0.618
62.08000 1.656
62.10000 -0.182
62.12000 1.121
62.14000 3.361
62.16000 3.505
62.18000 3.507
62.20000 5.548
62.22000 1.093
62.24000 -2.676
62.26000 -0.468
62.28000 5.554
62.30000 8.649
62.32000 3.413
62.34000 6.687
62.36000 5.025
62.38000 0.351
62.40000 2.314
62.42000 7.053
62.44000 7.830
62.46000 5.927
62.48000 10.024
62.50000 9.137
62.52000 5.578
62.54000 7.223
62.56000 2.177
62.58000 -0.112
62.60000 -0.825
62.62000 3.784
62.64000 3.137
62.66000 7.028
62.68000 4.835
62.70000 1.774
62.72000 3.854
62.74000 2.242
62.76000 4.042
62.78000 1.704
62.80000 2.056
62.82000 3.747
62.84000 2.893
62.86000 2.278
62.88000 1.779
62.90000 5.142
62.92000 5.304
62.94000 1.580
62.96000 0.050
62.98000 1.807
63.00000 2.683
63.02000 2.359
63.04000 3.356
63.06000 3.265
63.08000 0.541
63.10000 -2.678
63.12000 -0.021
63.14000 1.241
63.16000 0.770
63.18000 -1.034
63.20000 -0.560
63.22000 -0.283
63.24000 1.720
63.26000 1.325
63.28000 1.529
63.30000 2.963
63.32000 3.933
63.34000 2.796
63.36000 -0.396
63.38000 0.792
63.40000 -0.140
63.42000 2.627
63.44000 3.118
63.46000 -0.501
63.48000 -2.693
63.50000 3.419
63.52000 3.964
63.54000 -0.873
63.56000 4.217
63.58000 3.981
63.60000 5.722
63.62000 3.339
63.64000 5.564
63.66000 2.866
63.68000 -0.436
63.70000 4.137
63.72000 4.850
63.74000 2.541
63.76000 0.121
63.78000 -1.708
63.80000 1.452
63.82000 -0.981
63.84000 -2.006
63.86000 -1.187
63.88000 2.591
63.90000 2.286
63.92000 1.849
63.94000 2.985
63.96000 6.966
63.98000 6.641
64.00000 5.311
64.02000 2.862
64.04000 3.059
64.06000 -0.940
64.08000 1.676
64.10000 1.529
64.12000 3.941
64.14000 4.314
64.16000 0.518
64.18000 -0.273
64.20000 2.647
64.22000 1.266
64.24000 -0.226
64.26000 1.827
64.28000 2.355
64.30000 3.171
64.32000 -2.163
64.34000 1.014
64.36000 5.713
64.38000 5.499
64.40000 5.375
64.42000 4.302
64.44000 3.892
64.46000 4.810
64.48000 5.819
64.50000 1.112
64.52000 1.750
64.54000 5.125
64.56000 1.992
64.58000 5.726
64.60000 2.121
64.62000 3.043
64.64000 0.519
64.66000 0.118
64.68000 -2.681
64.70000 -0.744
64.72000 2.930
64.74000 2.949
64.76000 4.293
64.78000 3.448
64.80000 5.429
64.82000 5.351
64.84000 3.199
64.86000 4.358
64.88000 4.319
64.90000 2.192
64.92000 3.451
64.94000 6.631
64.96000 2.714
64.98000 2.861
65.00000 -1.348
65.02000 -1.804
65.04000 -0.033
65.06000 0.305
65.08000 2.938
65.10000 5.971
65.12000 3.077
65.14000 2.729
65.16000 0.801
65.18000 1.654
65.20000 0.878
65.22000 -1.343
65.24000 -1.786
65.26000 1.606
65.28000 -2.713
65.30000 2.007
65.32000 8.964
65.34000 4.657
65.36000 3.951
65.38000 6.179
65.40000 2.419
65.42000 3.848
65.44000 3.713
65.46000 4.605
65.48000 2.480
65.50000 -1.770
65.52000 -0.300
65.54000 1.542
65.56000 3.771
65.58000 8.649
65.60000 -0.345
65.62000 2.678
65.64000 3.446
65.66000 2.311
65.68000 1.756
65.70000 1.453
65.72000 1.881
65.74000 -2.750
65.76000 -2.539
65.78000 -1.664
65.80000 0.929
65.82000 2.848
65.84000 0.439
65.86000 2.146
65.88000 -0.078
65.90000 0.646
65.92000 2.626
65.94000 -1.624
65.96000 0.270
65.98000 1.480
66.00000 5.515
66.02000 3.780
66.04000 0.823
66.06000 3.455
66.08000 2.861
66.10000 2.586
66.12000 -0.106
66.14000 0.540
66.16000 2.794
66.18000 -0.432
66.20000 1.114
66.22000 1.857
66.24000 3.587
66.26000 3.305
66.28000 0.370
66.30000 2.590
66.32000 3.570
66.34000 3.630
66.36000 -1.170
66.38000 -2.780
66.40000 1.486
66.42000 0.981
66.44000 4.434
66.46000 3.761
66.48000 4.492
66.50000 4.168
66.52000 2.243
66.54000 -2.791
66.56000 -1.134
66.58000 1.700
66.60000 1.289
66.62000 2.456
66.64000 -0.129
66.66000 1.069
66.68000 3.866
66.70000 8.786
66.72000 1.197
66.74000 0.852
66.76000 3.002
66.78000 5.500
66.80000 6.861
66.82000 11.135
66.84000 6.657
66.86000 2.513
66.88000 6.828
66.90000 5.420
66.92000 3.143
66.94000 1.039
66.96000 2.285
66.98000 5.633
67.00000 6.761
67.02000 4.809
67.04000 6.528
67.06000 4.228
67.08000 3.467
67.10000 5.235
67.12000 7.251
67.14000 3.941
67.16000 8.215
67.18000 11.848
67.20000 15.449
67.22000 14.068
67.24000 6.696
67.26000 5.015
67.28000 9.851
67.30000 13.487
67.32000 11.119
67.34000 11.028
67.36000 12.368
67.38000 9.239
67.40000 9.090
67.42000 9.519
67.44000 7.142
67.46000 8.888
67.48000 11.305
67.50000 15.342
67.52000 11.578
67.54000 10.526
67.56000 8.792
67.58000 12.114
67.60000 16.216
67.62000 14.868
67.64000 15.390
67.66000 15.324
67.68000 16.856
67.70000 14.731
67.72000 17.699
67.74000 17.382
67.76000 18.369
67.78000 19.055
67.80000 18.960
67.82000 18.147
67.84000 22.473
67.86000 23.044
67.88000 22.384
67.90000 18.369
67.92000 19.915
67.94000 17.311
67.96000 18.957
67.98000 25.389
68.00000 28.071
68.02000 22.712
68.04000 21.889
68.06000 22.599
68.08000 21.566
68.10000 22.235
68.12000 20.308
68.14000 19.819
68.16000 22.070
68.18000 26.215
68.20000 23.851
68.22000 21.908
68.24000 21.735
68.26000 20.250
68.28000 23.798
68.30000 28.023
68.32000 24.881
68.34000 29.453
68.36000 26.682
68.38000 28.743
68.40000 29.117
68.42000 21.382
68.44000 24.615
68.46000 24.900
68.48000 19.953
68.50000 23.349
68.52000 25.855
68.54000 26.967
68.56000 25.234
68.58000 28.665
68.60000 29.111
68.62000 27.389
68.64000 22.527
68.66000 21.272
68.68000 23.838
68.70000 25.369
68.72000 25.017
68.74000 26.083
68.76000 25.365
68.78000 28.582
68.80000 28.602
68.82000 24.630
68.84000 22.730
68.86000 20.567
68.88000 16.219
68.90000 19.574
68.92000 17.165
68.94000 12.604
68.96000 12.874
68.98000 14.291
69.00000 15.130
69.02000 18.597
69.04000 19.181
69.06000 17.382
69.08000 17.987
69.10000 19.190
69.12000 15.974
69.14000 16.544
69.16000 12.188
69.18000 9.847
69.20000 14.920
69.22000 10.992
69.24000 8.811
69.26000 13.561
69.28000 15.941
69.30000 10.687
69.32000 9.864
69.34000 11.191
69.36000 9.440
69.38000 10.566
69.40000 8.218
69.42000 6.463
69.44000 4.146
69.46000 2.794
69.48000 5.101
69.50000 1.725
69.52000 3.180
69.54000 7.034
69.56000 0.693
69.58000 1.988
69.60000 4.539
69.62000 3.261
69.64000 4.938
69.66000 1.733
69.68000 1.054
69.70000 0.983
69.72000 4.351
69.74000 3.485
69.76000 3.842
69.78000 6.480
69.80000 1.166
69.82000 -2.713
69.84000 -1.479
69.86000 -1.272
69.88000 2.775
69.90000 2.659
69.92000 3.082
69.94000 2.467
69.96000 0.731
69.98000 1.446
70.00000 2.528
70.02000 1.106
70.04000 3.590
70.06000 5.062
70.08000 0.583
70.10000 0.542
70.12000 0.065
70.14000 4.306
70.16000 5.408
70.18000 5.954
70.20000 5.292
70.22000 4.066
70.24000 4.054
70.26000 -1.500
70.28000 -0.658
70.30000 2.609
70.32000 1.758
70.34000 -2.648
70.36000 -2.497
70.38000 0.191
70.40000 -1.622
70.42000 -0.798
70.44000 0.708
70.46000 2.789
70.48000 0.615
70.50000 1.871
70.52000 6.747
70.54000 1.458
70.56000 -1.991
70.58000 -0.950
70.60000 3.261
70.62000 2.269
70.64000 0.638
70.66000 1.808
70.68000 1.851
70.70000 4.022
70.72000 6.848
70.74000 4.298
70.76000 1.258
70.78000 -0.124
70.80000 -1.650
70.82000 0.460
70.84000 -2.069
70.86000 -0.673
70.88000 1.938
70.90000 4.152
70.92000 0.921
70.94000 -0.043
70.96000 1.604
70.98000 1.705
71.00000 -0.935
71.02000 1.936
71.04000 5.489
71.06000 5.784
71.08000 1.757
71.10000 -1.277
71.12000 0.893
71.14000 -2.589
71.16000 -0.532
71.18000 0.639
71.20000 2.222
71.22000 5.326
71.24000 7.544
71.26000 4.636
71.28000 0.778
71.30000 5.102
71.32000 5.083
71.34000 6.197
71.36000 -0.915
71.38000 -1.953
71.40000 5.608
71.42000 5.872
71.44000 1.966
71.46000 3.472
71.48000 2.102
71.50000 1.583
71.52000 0.322
71.54000 0.769
71.56000 4.504
71.58000 4.826
71.60000 2.462
71.62000 3.716
71.64000 3.165
71.66000 0.675
71.68000 -0.654
71.70000 0.934
71.72000 1.251
71.74000 5.599
71.76000 8.133
71.78000 2.716
71.80000 -1.825
71.82000 -0.757
71.84000 -2.568
71.86000 1.355
71.88000 0.700
71.90000 -0.914
71.92000 1.369
71.94000 -0.738
71.96000 1.311
71.98000 1.310
72.00000 5.959
72.02000 6.190
72.04000 2.708
72.06000 0.095
72.08000 -1.244
72.10000 1.496
72.12000 2.625
72.14000 2.151
72.16000 2.273
72.18000 3.611
72.20000 4.568
72.22000 4.788
72.24000 5.931
72.26000 7.229
72.28000 2.775
72.30000 3.291
72.32000 -2.541
72.34000 -2.053
72.36000 3.145
72.38000 1.421
72.40000 -1.413
72.42000 -1.730
72.44000 2.024
72.46000 -0.044
72.48000 1.703
72.50000 1.654
72.52000 -1.363
72.54000 0.228
72.56000 7.378
72.58000 4.438
72.60000 -0.267
72.62000 2.686
72.64000 1.312
72.66000 2.383
72.68000 2.826
72.70000 3.491
72.72000 6.951
72.74000 3.962
72.76000 2.862
72.78000 4.151
72.80000 2.652
72.82000 4.131
72.84000 -0.637
72.86000 -2.519
72.88000 2.047
72.90000 4.445
72.92000 1.642
72.94000 2.026
72.96000 -0.493
72.98000 4.641
73.00000 5.552
73.02000 1.646
73.04000 11.607
73.06000 8.171
73.08000 3.441
73.10000 -2.044
73.12000 -0.718
73.14000 0.609
73.16000 -1.268
73.18000 3.148
73.20000 4.787
73.22000 6.669
73.24000 3.197
73.26000 2.781
73.28000 0.798
73.30000 -0.255
73.32000 4.468
73.34000 4.502
73.36000 5.934
73.38000 4.729
73.40000 4.102
73.42000 4.156
73.44000 3.950
73.46000 3.829
73.48000 4.611
73.50000 3.510
73.52000 -2.488
73.54000 0.128
73.56000 -0.030
73.58000 7.408
73.60000 10.589
73.62000 3.793
73.64000 0.875
73.66000 -1.654
73.68000 5.088
73.70000 2.294
73.72000 3.420
73.74000 2.361
73.76000 3.095
73.78000 5.179
73.80000 1.047
73.82000 0.007
73.84000 2.402
73.86000 2.972
73.88000 2.494
73.90000 7.518
73.92000 4.403
73.94000 2.342
73.96000 -0.765
73.98000 -1.996
74.00000 -1.875
74.02000 -0.099
74.04000 4.288
74.06000 8.593
74.08000 8.820
74.10000 8.211
74.12000 3.541
74.14000 4.188
74.16000 3.339
74.18000 3.294
74.20000 2.803
74.22000 6.081
74.24000 5.790
74.26000 2.288
74.28000 3.969
74.30000 5.580
74.32000 5.862
74.34000 5.431
74.36000 3.654
74.38000 -1.193
74.40000 3.932
74.42000 6.748
74.44000 3.842
74.46000 5.180
74.48000 4.284
74.50000 3.022
74.52000 1.904
74.54000 2.829
74.56000 1.605
74.58000 -1.808
74.60000 -1.632
74.62000 6.744
74.64000 0.829
74.66000 -0.589
74.68000 2.013
74.70000 -1.661
74.72000 1.324
74.74000 -2.484
74.76000 1.910
74.78000 4.056
74.80000 1.666
74.82000 -1.672
74.84000 0.369
74.86000 2.845
74.88000 -0.344
74.90000 -0.964
74.92000 1.365
74.94000 7.296
74.96000 4.802
74.98000 2.429
75.00000 2.050
75.02000 3.167
75.04000 5.061
75.06000 4.173
75.08000 0.761
75.10000 -2.484
75.12000 -2.027
75.14000 2.016
75.16000 4.127
75.18000 5.486
75.20000 4.450
75.22000 3.797
75.24000 -0.736
75.26000 -1.950
75.28000 2.141
75.30000 1.666
75.32000 -1.242
75.34000 1.473
75.36000 6.403
75.38000 3.502
75.40000 1.370
75.42000 2.452
75.44000 3.511
75.46000 1.445
75.48000 -2.493
75.50000 -0.056
75.52000 2.817
75.54000 4.050
75.56000 5.134
75.58000 4.519
75.60000 4.735
75.62000 4.625
75.64000 6.452
75.66000 3.143
75.68000 5.144
75.70000 0.426
75.72000 1.457
75.74000 5.332
75.76000 4.836
75.78000 3.850
75.80000 3.369
75.82000 -0.891
75.84000 -0.652
75.86000 0.004
75.88000 -0.120
75.90000 4.848
75.92000 2.823
75.94000 3.807
75.96000 1.247
75.98000 1.866
76.00000 1.862
76.02000 -1.775
76.04000 3.311
76.06000 0.091
76.08000 0.080
76.10000 0.599
76.12000 3.676
76.14000 5.222
76.16000 4.802
76.18000 0.077
76.20000 0.619
76.22000 0.308
76.24000 1.295
76.26000 1.066
76.28000 4.280
76.30000 6.731
76.32000 7.104
76.34000 7.971
76.36000 0.270
76.38000 2.337
76.40000 6.152
76.42000 4.459
76.44000 4.777
76.46000 2.569
76.48000 1.638
76.50000 2.281
76.52000 2.019
76.54000 1.574
76.56000 5.187
76.58000 2.736
76.60000 1.580
76.62000 1.372
76.64000 -0.824
76.66000 -2.504
76.68000 -0.319
76.70000 3.077
76.72000 5.472
76.74000 3.735
76.76000 -2.501
76.78000 -1.761
76.80000 2.926
76.82000 1.537
76.84000 5.369
76.86000 7.537
76.88000 3.029
76.90000 -0.177
76.92000 2.816
76.94000 2.467
76.96000 3.130
76.98000 2.536
77.00000 0.692
77.02000 3.667
77.04000 1.572
77.06000 1.391
77.08000 3.696
77.10000 -1.171
77.12000 -1.288
77.14000 3.047
77.16000 7.796
77.18000 8.849
77.20000 5.985
77.22000 5.885
77.24000 6.824
77.26000 8.980
77.28000 2.877
77.30000 4.209
77.32000 3.492
77.34000 0.451
77.36000 5.288
77.38000 5.316
77.40000 5.757
77.42000 6.941
77.44000 3.136
77.46000 2.471
77.48000 8.638
77.50000 8.414
77.52000 4.247
77.54000 6.113
77.56000 7.115
77.58000 4.284
77.60000 4.440
77.62000 4.122
77.64000 4.854
77.66000 2.961
77.68000 6.038
77.70000 5.483
77.72000 3.683
77.74000 1.403
77.76000 6.875
77.78000 3.339
77.80000 2.908
77.82000 2.591
77.84000 6.963
77.86000 4.918
77.88000 -0.072
77.90000 -2.519
77.92000 3.861
77.94000 3.017
77.96000 -1.732
77.98000 1.755
78.00000 3.292
78.02000 5.219
78.04000 0.093
78.06000 0.418
78.08000 2.343
78.10000 3.060
78.12000 2.920
78.14000 3.868
78.16000 0.643
78.18000 -1.437
78.20000 0.955
78.22000 0.793
78.24000 1.653
78.26000 2.170
78.28000 0.553
78.30000 4.109
78.32000 6.716
78.34000 8.269
78.36000 1.465
78.38000 3.181
78.40000 2.259
78.42000 0.167
78.44000 5.636
78.46000 -0.432
78.48000 -0.015
78.50000 9.022
78.52000 6.674
78.54000 0.710
78.56000 -0.848
78.58000 2.089
78.60000 0.173
78.62000 -1.569
78.64000 3.893
78.66000 4.205
78.68000 1.890
78.70000 5.852
78.72000 5.789
78.74000 3.992
78.76000 -2.425
78.78000 -1.874
78.80000 -1.453
78.82000 4.524
78.84000 5.048
78.86000 4.444
78.88000 5.578
78.90000 2.095
78.92000 5.946
78.94000 6.122
78.96000 4.780
78.98000 3.439
79.00000 2.133
79.02000 5.069
79.04000 4.871
79.06000 1.618
79.08000 4.980
79.10000 8.153
79.12000 9.853
79.14000 5.098
79.16000 4.208
79.18000 3.925
79.20000 6.782
79.22000 5.848
79.24000 3.762
79.26000 4.081
79.28000 5.777
79.30000 4.373
79.32000 -2.549
79.34000 2.760
79.36000 7.007
79.38000 3.616
79.40000 7.172
79.42000 7.384
79.44000 1.585
79.46000 2.712
79.48000 -0.084
79.50000 -2.084
79.52000 0.237
79.54000 5.097
79.56000 4.310
79.58000 3.136
79.60000 3.653
79.62000 5.330
79.64000 3.687
79.66000 9.219
79.68000 4.108
79.70000 -1.019
79.72000 -0.226
79.74000 -0.261
79.76000 2.202
79.78000 4.802
79.80000 3.945
79.82000 2.684
79.84000 1.115
79.86000 0.516
79.88000 2.672
79.90000 -0.435
79.92000 -0.369
79.94000 4.551
79.96000 0.768
79.98000 5.289
80.00000 3.408
80.02000 4.617
80.04000 3.688
80.06000 3.313
80.08000 5.069
80.10000 7.934
80.12000 6.816
80.14000 6.816
80.16000 4.489
80.18000 4.485
80.20000 3.502
80.22000 -0.850
80.24000 7.565
80.26000 10.629
80.28000 8.887
80.30000 4.954
80.32000 2.852
80.34000 10.034
80.36000 2.889
80.38000 -0.459
80.40000 2.676
80.42000 -1.355
80.44000 1.524
80.46000 -2.680
80.48000 0.170
80.50000 0.634
80.52000 6.034
80.54000 1.998
80.56000 4.684
80.58000 5.354
80.60000 7.931
80.62000 8.214
80.64000 8.984
80.66000 1.423
80.68000 3.559
80.70000 0.900
80.72000 4.541
80.74000 2.300
80.76000 4.871
80.78000 6.851
80.80000 2.626
80.82000 0.259
80.84000 2.704
80.86000 1.631
80.88000 4.377
80.90000 6.444
80.92000 6.701
80.94000 9.149
80.96000 2.817
80.98000 3.129
81.00000 0.809
81.02000 1.473
81.04000 5.378
81.06000 9.638
81.08000 11.083
81.10000 10.030
81.12000 6.237
81.14000 5.889
81.16000 7.713
81.18000 3.224
81.20000 4.618
81.22000 4.391
81.24000 7.131
81.26000 9.931
81.28000 8.181
81.30000 9.563
81.32000 10.368
81.34000 8.457
81.36000 10.307
81.38000 13.839
81.40000 10.577
81.42000 8.673
81.44000 9.319
81.46000 7.803
81.48000 13.056
81.50000 13.887
81.52000 11.982
81.54000 12.505
81.56000 17.071
81.58000 15.380
81.60000 8.906
81.62000 13.184
81.64000 17.789
81.66000 15.346
81.68000 10.250
81.70000 8.697
81.72000 13.992
81.74000 18.177
81.76000 14.644
81.78000 15.712
81.80000 12.290
81.82000 16.035
81.84000 12.725
81.86000 9.709
81.88000 17.382
81.90000 16.408
81.92000 20.081
81.94000 18.098
81.96000 16.793
81.98000 19.793
82.00000 14.234
82.02000 20.223
82.04000 18.475
82.06000 22.129
82.08000 18.550
82.10000 20.370
82.12000 19.658
82.14000 25.135
82.16000 23.997
82.18000 16.223
82.20000 22.320
82.22000 21.798
82.24000 20.017
82.26000 22.789
82.28000 29.431
82.30000 29.696
82.32000 21.922
82.34000 26.472
82.36000 25.788
82.38000 26.090
82.40000 26.263
82.42000 21.497
82.44000 22.983
82.46000 21.216
82.48000 22.615
82.50000 26.480
82.52000 29.800
82.54000 30.211
82.56000 33.578
82.58000 28.401
82.60000 26.475
82.62000 22.490
82.64000 31.478
82.66000 28.794
82.68000 26.816
82.70000 32.567
82.72000 34.248
82.74000 32.843
82.76000 24.825
82.78000 22.450
82.80000 28.291
82.82000 28.175
82.84000 27.065
82.86000 26.701
82.88000 29.013
82.90000 30.969
82.92000 26.842
82.94000 25.161
82.96000 24.635
82.98000 28.241
83.00000 28.775
83.02000 28.569
83.04000 25.101
83.06000 25.952
83.08000 21.726
83.10000 19.696
83.12000 23.874
83.14000 20.813
83.16000 25.641
83.18000 18.700
83.20000 14.889
83.22000 26.785
83.24000 27.719
83.26000 26.954
83.28000 21.858
83.30000 16.760
83.32000 14.601
83.34000 15.875
83.36000 16.364
83.38000 16.595
83.40000 16.525
83.42000 15.274
83.44000 20.058
83.46000 21.938
83.48000 17.953
83.50000 15.423
83.52000 11.138
83.54000 12.269
83.56000 12.974
83.58000 15.343
83.60000 18.524
83.62000 14.048
83.64000 14.860
83.66000 14.817
83.68000 15.414
83.70000 12.879
83.72000 6.717
83.74000 9.183
83.76000 14.157
83.78000 13.003
83.80000 12.419
83.82000 13.305
83.84000 10.501
83.86000 7.329
83.88000 7.187
83.90000 8.541
83.92000 6.783
83.94000 5.654
83.96000 7.057
83.98000 7.902
84.00000 7.696
84.02000 5.765
84.04000 6.902
84.06000 6.794
84.08000 4.354
84.10000 2.353
84.12000 4.345
84.14000 5.717
84.16000 4.747
84.18000 3.344
84.20000 1.556
84.22000 1.958
84.24000 7.066
84.26000 3.504
84.28000 4.944
84.30000 2.705
84.32000 6.659
84.34000 6.616
84.36000 8.146
84.38000 7.845
84.40000 4.278
84.42000 4.255
84.44000 -0.216
84.46000 3.348
84.48000 3.616
84.50000 5.673
84.52000 6.068
84.54000 3.804
84.56000 1.673
84.58000 0.800
84.60000 -2.624
84.62000 4.674
84.64000 8.847
84.66000 7.184
84.68000 7.249
84.70000 2.873
84.72000 -0.375
84.74000 4.915
84.76000 -0.108
84.78000 1.617
84.80000 -0.581
84.82000 -1.718
84.84000 -1.094
84.86000 2.452
84.88000 4.751
84.90000 7.674
84.92000 3.839
84.94000 3.528
84.96000 1.910
84.98000 3.588
85.00000 5.039
85.02000 0.368
85.04000 0.545
85.06000 -0.666
85.08000 2.057
85.10000 9.631
85.12000 6.296
85.14000 3.468
85.16000 0.139
85.18000 -0.114
85.20000 1.208
85.22000 1.415
85.24000 5.028
85.26000 4.061
85.28000 5.562
85.30000 8.215
85.32000 5.806
85.34000 5.351
85.36000 10.272
85.38000 7.059
85.40000 8.114
85.42000 11.295
85.44000 7.371
85.46000 -0.338
85.48000 -2.652
85.50000 -0.084
85.52000 0.112
85.54000 -0.736
85.56000 4.548
85.58000 5.655
85.60000 2.432
85.62000 6.035
85.64000 7.121
85.66000 8.669
85.68000 2.278
85.70000 1.818
85.72000 3.754
85.74000 10.382
85.76000 11.870
85.78000 11.073
85.80000 15.321
85.82000 8.775
85.84000 7.051
85.86000 3.609
85.88000 0.808
85.90000 0.384
85.92000 3.944
85.94000 6.823
85.96000 6.733
85.98000 9.982
86.00000 8.870
86.02000 6.508
86.04000 7.926
86.06000 15.334
86.08000 12.840
86.10000 8.022
86.12000 8.655
86.14000 10.121
86.16000 12.701
86.18000 14.092
86.20000 7.253
86.22000 18.248
86.24000 20.176
86.26000 14.644
86.28000 17.431
86.30000 16.390
86.32000 24.524
86.34000 22.385
86.36000 17.615
86.38000 11.883
86.40000 12.323
86.42000 14.734
86.44000 19.917
86.46000 20.477
86.48000 21.615
86.50000 19.877
86.52000 24.669
86.54000 26.394
86.56000 24.479
86.58000 24.966
86.60000 22.175
86.62000 25.193
86.64000 28.699
86.66000 24.582
86.68000 26.979
86.70000 22.021
86.72000 25.508
86.74000 21.254
86.76000 25.769
86.78000 29.965
86.80000 31.194
86.82000 34.981
86.84000 30.655
86.86000 35.543
86.88000 30.059
86.90000 29.803
86.92000 33.937
86.94000 36.897
86.96000 37.616
86.98000 35.471
87.00000 33.378
87.02000 31.880
87.04000 36.332
87.06000 26.192
87.08000 33.014
87.10000 36.851
87.12000 33.926
87.14000 35.133
87.16000 34.173
87.18000 36.635
87.20000 38.283
87.22000 33.538
87.24000 30.181
87.26000 33.123
87.28000 35.189
87.30000 31.410
87.32000 36.861
87.34000 30.169
87.36000 30.383
87.38000 25.112
87.40000 25.904
87.42000 27.195
87.44000 24.881
87.46000 25.575
87.48000 26.469
87.50000 26.808
87.52000 24.212
87.54000 17.144
87.56000 21.669
87.58000 27.537
87.60000 30.146
87.62000 29.047
87.64000 17.656
87.66000 15.688
87.68000 18.615
87.70000 22.141
87.72000 18.327
87.74000 20.132
87.76000 24.111
87.78000 19.542
87.80000 14.231
87.82000 13.002
87.84000 16.286
87.86000 12.737
87.88000 14.035
87.90000 14.148
87.92000 10.103
87.94000 14.130
87.96000 15.274
87.98000 9.836
88.00000 12.584
88.02000 11.544
88.04000 7.140
88.06000 6.656
88.08000 9.174
88.10000 3.898
88.12000 7.750
88.14000 11.588
88.16000 4.887
88.18000 11.001
88.20000 5.640
88.22000 5.567
88.24000 7.556
88.26000 4.178
88.28000 5.768
88.30000 1.539
88.32000 6.532
88.34000 5.193
88.36000 -0.912
88.38000 -1.506
88.40000 6.456
88.42000 8.024
88.44000 3.875
88.46000 7.485
88.48000 15.578
88.50000 5.856
88.52000 0.988
88.54000 2.875
88.56000 2.587
88.58000 3.916
88.60000 5.999
88.62000 4.330
88.64000 0.644
88.66000 -0.563
88.68000 2.381
88.70000 4.208
88.72000 -0.614
88.74000 -0.949
88.76000 2.650
88.78000 6.080
88.80000 6.613
88.82000 2.898
88.84000 0.157
88.86000 3.281
88.88000 3.492
88.90000 -0.214
88.92000 6.355
88.94000 6.053
88.96000 3.182
88.98000 6.291
89.00000 9.252
89.02000 10.609
89.04000 8.920
89.06000 4.520
89.08000 1.314
89.10000 -2.438
89.12000 -0.935
89.14000 1.137
89.16000 -0.534
89.18000 0.458
89.20000 3.641
89.22000 6.261
89.24000 5.900
89.26000 5.706
89.28000 -0.526
89.30000 0.144
89.32000 3.858
89.34000 9.006
89.36000 7.623
89.38000 6.897
89.40000 9.452
89.42000 3.900
89.44000 4.520
89.46000 7.357
89.48000 3.427
89.50000 3.181
89.52000 6.878
89.54000 6.873
89.56000 12.211
89.58000 3.038
89.60000 -2.325
89.62000 2.314
89.64000 2.687
89.66000 -0.036
89.68000 -1.309
89.70000 4.272
89.72000 9.430
89.74000 6.889
89.76000 -2.382
89.78000 4.854
89.80000 5.122
89.82000 7.944
89.84000 1.226
89.86000 -0.115
89.88000 5.678
89.90000 6.218
89.92000 6.893
89.94000 4.497
89.96000 5.517
89.98000 8.926
90.00000 6.985
90.02000 -0.201
90.04000 -2.197
90.06000 3.377
90.08000 6.308
90.10000 4.062
90.12000 5.538
90.14000 9.914
90.16000 7.547
90.18000 3.747
90.20000 1.032
90.22000 4.245
90.24000 7.211
90.26000 11.370
90.28000 7.146
90.30000 4.874
90.32000 4.118
90.34000 3.504
90.36000 -0.124
90.38000 5.701
90.40000 3.972
90.42000 5.966
90.44000 4.864
90.46000 3.709
90.48000 -2.346
90.50000 -0.360
90.52000 3.707
90.54000 7.423
90.56000 6.593
90.58000 4.382
90.60000 3.132
90.62000 2.520
90.64000 4.901
90.66000 4.809
90.68000 3.057
90.70000 1.420
90.72000 -0.220
90.74000 0.284
90.76000 3.844
90.78000 7.379
90.80000 7.390
90.82000 7.082
90.84000 5.448
90.86000 3.076
90.88000 2.714
90.90000 5.717
90.92000 5.025
90.94000 1.803
90.96000 4.852
90.98000 7.947
91.00000 7.930
91.02000 2.823
91.04000 3.727
91.06000 1.744
91.08000 -2.353
91.10000 1.272
91.12000 1.495
91.14000 5.583
91.16000 6.094
91.18000 12.044
91.20000 7.348
91.22000 1.138
91.24000 4.576
91.26000 9.546
91.28000 7.985
91.30000 4.916
91.32000 4.344
91.34000 6.581
91.36000 5.775
91.38000 6.419
91.40000 5.019
91.42000 1.371
91.44000 2.556
91.46000 1.347
91.48000 3.711
91.50000 2.333
91.52000 3.622
91.54000 8.542
91.56000 8.391
91.58000 7.693
91.60000 8.975
91.62000 3.134
91.64000 5.126
91.66000 5.194
91.68000 1.696
91.70000 1.135
91.72000 -2.357
91.74000 3.750
91.76000 7.319
91.78000 6.370
91.80000 4.666
91.82000 2.328
91.84000 6.137
91.86000 7.411
91.88000 7.554
91.90000 2.845
91.92000 1.702
91.94000 3.375
91.96000 -0.086
91.98000 -0.818
92.00000 5.008
92.02000 2.961
92.04000 -0.186
92.06000 -1.573
92.08000 -0.085
92.10000 0.312
92.12000 4.614
92.14000 3.751
92.16000 4.937
92.18000 1.556
92.20000 0.229
92.22000 1.841
92.24000 4.588
92.26000 -0.007
92.28000 1.610
92.30000 8.675
92.32000 7.136
92.34000 1.685
92.36000 3.802
92.38000 9.117
92.40000 1.408
92.42000 1.806
92.44000 4.668
92.46000 1.311
92.48000 -0.642
92.50000 -0.579
92.52000 10.470
92.54000 8.194
92.56000 3.062
92.58000 2.831
92.60000 5.080
92.62000 3.119
92.64000 3.813
92.66000 2.617
92.68000 0.131
92.70000 3.151
92.72000 -0.654
92.74000 2.432
92.76000 5.377
92.78000 3.161
92.80000 0.912
92.82000 2.536
92.84000 4.350
92.86000 0.840
92.88000 -2.368
92.90000 1.938
92.92000 -1.770
92.94000 0.922
92.96000 5.195
92.98000 2.568
93.00000 1.779
93.02000 3.703
93.04000 4.411
93.06000 0.708
93.08000 2.786
93.10000 6.638
93.12000 6.316
93.14000 1.147
93.16000 3.406
93.18000 3.374
93.20000 4.956
93.22000 3.726
93.24000 1.994
93.26000 6.660
93.28000 5.716
93.30000 4.661
93.32000 0.865
93.34000 6.558
93.36000 13.165
93.38000 10.043
93.40000 3.334
93.42000 7.407
93.44000 5.354
93.46000 9.408
93.48000 6.677
93.50000 3.210
93.52000 -0.262
93.54000 5.041
93.56000 0.534
93.58000 0.522
93.60000 1.242
93.62000 6.755
93.64000 4.823
93.66000 4.184
93.68000 0.301
93.70000 -2.350
93.72000 0.681
93.74000 5.746
93.76000 2.610
93.78000 4.416
93.80000 2.358
93.82000 3.180
93.84000 3.783
93.86000 5.499
93.88000 6.054
93.90000 5.277
93.92000 7.246
93.94000 8.529
93.96000 1.560
93.98000 6.142
94.00000 7.928
94.02000 6.321
94.04000 1.908
94.06000 2.412
94.08000 7.947
94.10000 5.887
94.12000 8.182
94.14000 7.597
94.16000 7.855
94.18000 5.288
94.20000 6.903
94.22000 9.239
94.24000 15.238
94.26000 14.130
94.28000 6.545
94.30000 8.722
94.32000 8.294
94.34000 10.069
94.36000 7.717
94.38000 8.364
94.40000 4.403
94.42000 5.520
94.44000 3.568
94.46000 3.473
94.48000 3.918
94.50000 4.616
94.52000 7.902
94.54000 10.887
94.56000 10.418
94.58000 7.171
94.60000 13.474
94.62000 8.623
94.64000 4.599
94.66000 7.695
94.68000 6.389
94.70000 2.558
94.72000 -2.318
94.74000 -0.195
94.76000 7.208
94.78000 10.280
94.80000 9.097
94.82000 7.121
94.84000 5.264
94.86000 6.815
94.88000 4.255
94.90000 5.101
94.92000 8.171
94.94000 7.288
94.96000 9.009
94.98000 8.796
95.00000 6.262
95.02000 7.593
95.04000 6.761
95.06000 10.241
95.08000 6.568
95.10000 5.160
95.12000 5.027
95.14000 7.163
95.16000 2.473
95.18000 7.180
95.20000 1.694
95.22000 11.622
95.24000 8.008
95.26000 5.730
95.28000 8.900
95.30000 10.444
95.32000 3.077
95.34000 -1.102
95.36000 2.710
95.38000 7.648
95.40000 7.344
95.42000 4.681
95.44000 1.010
95.46000 -2.364
95.48000 1.737
95.50000 6.363
95.52000 7.210
95.54000 7.104
95.56000 5.978
95.58000 4.792
95.60000 -0.766
95.62000 4.332
95.64000 6.519
95.66000 3.991
95.68000 3.589
95.70000 8.892
95.72000 7.281
95.74000 9.867
95.76000 6.137
95.78000 4.179
95.80000 -0.309
95.82000 4.962
95.84000 -1.048
95.86000 2.439
95.88000 7.667
95.90000 5.309
95.92000 -0.252
95.94000 3.167
95.96000 8.142
95.98000 3.837
96.00000 9.062
96.02000 8.401
96.04000 7.756
96.06000 2.891
96.08000 1.839
96.10000 5.371
96.12000 2.417
96.14000 8.741
96.16000 9.063
96.18000 -0.358
96.20000 -1.755
96.22000 2.949
96.24000 3.942
96.26000 -1.808
96.28000 2.962
96.30000 12.662
96.32000 10.084
96.34000 1.483
96.36000 1.738
96.38000 3.939
96.40000 5.239
96.42000 6.746
96.44000 6.306
96.46000 6.118
96.48000 3.349
96.50000 1.684
96.52000 -2.367
96.54000 0.574
96.56000 7.640
96.58000 9.015
96.60000 9.949
96.62000 13.051
96.64000 11.867
96.66000 5.280
96.68000 7.348
96.70000 3.595
96.72000 2.698
96.74000 -1.349
96.76000 10.340
96.78000 7.959
96.80000 1.335
96.82000 1.710
96.84000 3.612
96.86000 6.568
96.88000 8.573
96.90000 4.925
96.92000 4.867
96.94000 -1.073
96.96000 2.606
96.98000 5.606
97.00000 2.986
97.02000 2.052
97.04000 6.411
97.06000 9.966
97.08000 6.497
97.10000 7.004
97.12000 10.002
97.14000 10.788
97.16000 4.686
97.18000 4.607
97.20000 9.412
97.22000 13.298
97.24000 8.908
97.26000 4.130
97.28000 8.092
97.30000 -2.345
97.32000 -2.022
97.34000 2.170
97.36000 5.714
97.38000 12.857
97.40000 11.327
97.42000 8.694
97.44000 10.862
97.46000 6.200
97.48000 0.474
97.50000 3.189
97.52000 8.174
97.54000 6.417
97.56000 6.997
97.58000 11.208
97.60000 1.746
97.62000 5.750
97.64000 5.517
97.66000 6.972
97.68000 9.238
97.70000 10.849
97.72000 9.240
97.74000 7.250
97.76000 8.088
97.78000 9.331
97.80000 6.787
97.82000 3.547
97.84000 4.427
97.86000 6.329
97.88000 8.676
97.90000 9.425
97.92000 9.388
97.94000 6.405
97.96000 8.431
97.98000 9.695
98.00000 4.661
98.02000 6.937
98.04000 4.611
98.06000 2.083
98.08000 0.215
98.10000 4.136
98.12000 9.760
98.14000 3.331
98.16000 7.235
98.18000 9.694
98.20000 4.770
98.22000 6.954
98.24000 1.985
98.26000 5.517
98.28000 9.586
98.30000 12.022
98.32000 10.581
98.34000 2.137
98.36000 6.722
98.38000 5.930
98.40000 4.259
98.42000 5.660
98.44000 8.353
98.46000 8.107
98.48000 7.598
98.50000 3.212
98.52000 4.942
98.54000 2.636
98.56000 9.700
98.58000 6.432
98.60000 10.072
98.62000 11.033
98.64000 12.222
98.66000 13.563
98.68000 8.705
98.70000 5.503
98.72000 2.814
98.74000 1.800
98.76000 -2.273
98.78000 1.385
98.80000 1.544
98.82000 5.178
98.84000 13.601
98.86000 10.819
98.88000 10.298
98.90000 11.827
98.92000 16.096
98.94000 6.877
98.96000 5.538
98.98000 8.865
99.00000 -0.376
99.02000 5.865
99.04000 -2.175
99.06000 13.847
99.08000 10.650
99.10000 8.221
99.12000 13.259
99.14000 4.872
99.16000 0.649
99.18000 1.153
99.20000 -2.312
99.22000 2.212
99.24000 3.518
99.26000 0.204
99.28000 4.267
99.30000 5.204
99.32000 5.026
99.34000 9.989
99.36000 16.126
99.38000 22.124
99.40000 11.937
99.42000 3.416
99.44000 5.829
99.46000 -1.815
99.48000 -2.348
99.50000 -2.189
99.52000 2.945
99.54000 -0.144
99.56000 2.669
99.58000 5.598
99.60000 19.122
99.62000 11.562
99.64000 5.189
99.66000 7.511
99.68000 4.322
99.70000 2.585
99.72000 11.313
99.74000 4.359
99.76000 -2.430
99.78000 -0.011
99.80000 9.376
99.82000 7.916
99.84000 4.562
99.86000 1.093
99.88000 7.415
99.90000 -2.477
99.92000 4.236
99.94000 17.335
99.96000 6.100
99.98000 0.000
