'Id: "0011388" Comment: "Integrate frame 0011388_Au-Ir-Rh_Rh-rich_XRD-Mapping-027-0000.gfrmwith cursor Wedge Cursor #5" Operator: "B?rgel" Anode: "Cu" Wavelength: "1.5406" Scantype: "2Theta (TwoTheta)" TimePerStep: "1" X: "-18" Y: "-31.5" Z: "5.95" 
10.00000 0.000
10.02000 -4.564
10.04000 8.811
10.06000 23.517
10.08000 8.872
10.10000 15.988
10.12000 13.033
10.14000 0.571
10.16000 -4.453
10.18000 0.745
10.20000 -2.400
10.22000 3.363
10.24000 12.361
10.26000 6.664
10.28000 6.615
10.30000 18.610
10.32000 11.502
10.34000 9.406
10.36000 10.810
10.38000 11.270
10.40000 -2.047
10.42000 -3.111
10.44000 6.994
10.46000 6.255
10.48000 18.123
10.50000 11.825
10.52000 6.390
10.54000 8.494
10.56000 5.206
10.58000 3.286
10.60000 9.726
10.62000 -2.979
10.64000 -3.969
10.66000 -1.200
10.68000 14.943
10.70000 3.536
10.72000 13.887
10.74000 21.757
10.76000 14.325
10.78000 9.684
10.80000 14.272
10.82000 17.746
10.84000 -1.716
10.86000 2.690
10.88000 -0.741
10.90000 4.005
10.92000 15.546
10.94000 27.288
10.96000 25.105
10.98000 4.806
11.00000 -0.208
11.02000 0.592
11.04000 3.292
11.06000 18.574
11.08000 11.457
11.10000 -4.455
11.12000 -1.877
11.14000 15.104
11.16000 17.317
11.18000 16.762
11.20000 18.247
11.22000 1.299
11.24000 5.365
11.26000 9.340
11.28000 14.236
11.30000 19.159
11.32000 13.851
11.34000 14.403
11.36000 11.846
11.38000 18.173
11.40000 20.728
11.42000 8.740
11.44000 7.288
11.46000 23.753
11.48000 24.409
11.50000 14.623
11.52000 4.273
11.54000 8.861
11.56000 8.287
11.58000 7.846
11.60000 12.759
11.62000 15.170
11.64000 19.568
11.66000 5.070
11.68000 -0.323
11.70000 1.480
11.72000 11.622
11.74000 11.185
11.76000 12.120
11.78000 9.445
11.80000 3.773
11.82000 8.100
11.84000 13.844
11.86000 14.616
11.88000 14.665
11.90000 17.255
11.92000 9.398
11.94000 11.334
11.96000 9.773
11.98000 4.389
12.00000 8.724
12.02000 9.307
12.04000 1.412
12.06000 -4.481
12.08000 10.046
12.10000 20.148
12.12000 19.354
12.14000 6.507
12.16000 16.977
12.18000 11.069
12.20000 16.382
12.22000 13.427
12.24000 2.566
12.26000 2.322
12.28000 -0.811
12.30000 -0.139
12.32000 2.431
12.34000 16.738
12.36000 21.982
12.38000 4.307
12.40000 11.645
12.42000 11.960
12.44000 15.012
12.46000 16.407
12.48000 10.119
12.50000 15.718
12.52000 12.946
12.54000 6.669
12.56000 7.816
12.58000 4.288
12.60000 10.497
12.62000 8.284
12.64000 -3.474
12.66000 18.181
12.68000 20.555
12.70000 6.658
12.72000 16.782
12.74000 15.890
12.76000 4.921
12.78000 -1.972
12.80000 4.528
12.82000 0.957
12.84000 11.293
12.86000 14.574
12.88000 16.308
12.90000 7.393
12.92000 5.525
12.94000 12.523
12.96000 6.986
12.98000 13.027
13.00000 5.646
13.02000 5.758
13.04000 10.874
13.06000 7.245
13.08000 9.954
13.10000 5.733
13.12000 9.538
13.14000 4.689
13.16000 -0.115
13.18000 7.856
13.20000 1.467
13.22000 3.446
13.24000 18.058
13.26000 1.149
13.28000 4.771
13.30000 -0.162
13.32000 -0.564
13.34000 1.575
13.36000 6.840
13.38000 14.359
13.40000 17.002
13.42000 9.331
13.44000 11.766
13.46000 9.002
13.48000 8.371
13.50000 8.647
13.52000 5.796
13.54000 16.752
13.56000 23.557
13.58000 8.217
13.60000 1.278
13.62000 6.690
13.64000 14.277
13.66000 13.358
13.68000 9.670
13.70000 11.996
13.72000 12.689
13.74000 14.279
13.76000 12.177
13.78000 15.879
13.80000 7.085
13.82000 8.062
13.84000 7.811
13.86000 9.020
13.88000 11.145
13.90000 7.696
13.92000 10.462
13.94000 12.646
13.96000 14.252
13.98000 4.228
14.00000 -4.461
14.02000 3.277
14.04000 12.351
14.06000 3.460
14.08000 8.320
14.10000 4.780
14.12000 3.423
14.14000 15.690
14.16000 8.457
14.18000 5.205
14.20000 9.343
14.22000 3.066
14.24000 9.654
14.26000 14.263
14.28000 12.488
14.30000 9.054
14.32000 11.492
14.34000 3.741
14.36000 6.527
14.38000 1.429
14.40000 2.933
14.42000 1.114
14.44000 11.518
14.46000 6.865
14.48000 4.839
14.50000 1.580
14.52000 2.089
14.54000 9.248
14.56000 6.701
14.58000 5.804
14.60000 8.286
14.62000 13.785
14.64000 15.196
14.66000 10.099
14.68000 6.592
14.70000 14.152
14.72000 11.167
14.74000 1.962
14.76000 5.395
14.78000 13.103
14.80000 5.329
14.82000 1.912
14.84000 11.873
14.86000 10.649
14.88000 9.808
14.90000 7.746
14.92000 11.563
14.94000 15.121
14.96000 11.635
14.98000 8.701
15.00000 13.351
15.02000 3.280
15.04000 5.483
15.06000 4.076
15.08000 -4.256
15.10000 -0.269
15.12000 8.782
15.14000 8.809
15.16000 -4.431
15.18000 -3.351
15.20000 15.423
15.22000 13.624
15.24000 4.426
15.26000 4.470
15.28000 1.718
15.30000 5.944
15.32000 9.345
15.34000 12.909
15.36000 12.496
15.38000 12.605
15.40000 6.101
15.42000 4.876
15.44000 3.073
15.46000 -4.418
15.48000 0.305
15.50000 10.622
15.52000 11.098
15.54000 8.650
15.56000 6.572
15.58000 7.302
15.60000 -0.533
15.62000 2.056
15.64000 10.633
15.66000 11.693
15.68000 5.594
15.70000 5.375
15.72000 1.008
15.74000 2.933
15.76000 6.607
15.78000 7.120
15.80000 13.672
15.82000 9.601
15.84000 9.160
15.86000 4.990
15.88000 3.162
15.90000 1.464
15.92000 8.650
15.94000 11.843
15.96000 9.012
15.98000 5.765
16.00000 0.763
16.02000 6.038
16.04000 5.507
16.06000 8.804
16.08000 13.512
16.10000 6.777
16.12000 7.556
16.14000 8.730
16.16000 9.393
16.18000 6.286
16.20000 3.591
16.22000 10.203
16.24000 10.026
16.26000 1.587
16.28000 3.798
16.30000 9.729
16.32000 10.474
16.34000 5.056
16.36000 3.275
16.38000 4.428
16.40000 2.187
16.42000 1.184
16.44000 5.809
16.46000 4.473
16.48000 8.231
16.50000 9.660
16.52000 12.675
16.54000 7.007
16.56000 12.222
16.58000 14.724
16.60000 3.374
16.62000 -4.378
16.64000 3.591
16.66000 3.720
16.68000 1.523
16.70000 7.183
16.72000 16.618
16.74000 7.875
16.76000 8.892
16.78000 9.000
16.80000 7.577
16.82000 3.304
16.84000 11.308
16.86000 13.905
16.88000 15.380
16.90000 17.081
16.92000 11.420
16.94000 2.949
16.96000 2.823
16.98000 4.830
17.00000 6.958
17.02000 8.801
17.04000 4.111
17.06000 4.746
17.08000 3.635
17.10000 4.042
17.12000 13.463
17.14000 11.582
17.16000 8.982
17.18000 6.728
17.20000 5.061
17.22000 4.627
17.24000 4.508
17.26000 11.059
17.28000 10.103
17.30000 7.928
17.32000 8.013
17.34000 9.758
17.36000 7.285
17.38000 7.431
17.40000 9.589
17.42000 7.175
17.44000 5.006
17.46000 2.532
17.48000 3.975
17.50000 1.598
17.52000 -0.560
17.54000 -0.156
17.56000 1.901
17.58000 0.568
17.60000 1.903
17.62000 5.416
17.64000 9.745
17.66000 2.873
17.68000 5.152
17.70000 12.066
17.72000 7.263
17.74000 6.371
17.76000 11.088
17.78000 5.609
17.80000 2.876
17.82000 -3.055
17.84000 -1.382
17.86000 4.493
17.88000 2.478
17.90000 2.806
17.92000 6.728
17.94000 8.563
17.96000 15.708
17.98000 16.243
18.00000 14.681
18.02000 10.955
18.04000 15.070
18.06000 15.100
18.08000 13.713
18.10000 6.164
18.12000 5.049
18.14000 2.085
18.16000 13.299
18.18000 18.346
18.20000 19.510
18.22000 10.823
18.24000 6.879
18.26000 16.015
18.28000 10.933
18.30000 11.895
18.32000 15.126
18.34000 10.556
18.36000 7.768
18.38000 9.677
18.40000 7.429
18.42000 -4.231
18.44000 4.702
18.46000 10.240
18.48000 14.252
18.50000 10.823
18.52000 7.109
18.54000 12.543
18.56000 17.605
18.58000 7.509
18.60000 5.173
18.62000 6.930
18.64000 7.546
18.66000 9.708
18.68000 12.757
18.70000 13.116
18.72000 10.691
18.74000 6.365
18.76000 8.227
18.78000 8.216
18.80000 11.016
18.82000 10.576
18.84000 10.419
18.86000 12.093
18.88000 12.049
18.90000 4.709
18.92000 0.505
18.94000 -1.626
18.96000 6.736
18.98000 10.704
19.00000 13.634
19.02000 9.820
19.04000 3.721
19.06000 -0.746
19.08000 4.658
19.10000 2.593
19.12000 0.669
19.14000 5.811
19.16000 4.489
19.18000 2.175
19.20000 6.453
19.22000 6.591
19.24000 3.587
19.26000 10.514
19.28000 11.758
19.30000 7.479
19.32000 0.102
19.34000 1.845
19.36000 2.464
19.38000 6.238
19.40000 3.884
19.42000 4.181
19.44000 8.201
19.46000 8.436
19.48000 -0.034
19.50000 3.475
19.52000 6.378
19.54000 4.054
19.56000 5.176
19.58000 1.361
19.60000 1.880
19.62000 12.076
19.64000 8.380
19.66000 8.785
19.68000 0.953
19.70000 -2.373
19.72000 4.685
19.74000 0.258
19.76000 0.392
19.78000 3.454
19.80000 4.035
19.82000 1.504
19.84000 4.243
19.86000 6.751
19.88000 2.336
19.90000 2.934
19.92000 0.313
19.94000 -4.181
19.96000 1.654
19.98000 6.235
20.00000 5.183
20.02000 1.592
20.04000 -2.739
20.06000 -4.175
20.08000 -0.704
20.10000 4.775
20.12000 6.301
20.14000 5.224
20.16000 5.796
20.18000 7.490
20.20000 4.076
20.22000 6.154
20.24000 6.085
20.26000 4.607
20.28000 -0.619
20.30000 0.378
20.32000 5.771
20.34000 3.744
20.36000 3.175
20.38000 3.534
20.40000 2.743
20.42000 0.154
20.44000 4.024
20.46000 5.673
20.48000 4.412
20.50000 5.945
20.52000 2.210
20.54000 2.948
20.56000 0.472
20.58000 -0.260
20.60000 0.833
20.62000 -1.850
20.64000 -0.834
20.66000 -2.910
20.68000 -3.604
20.70000 -4.153
20.72000 0.325
20.74000 0.059
20.76000 -1.563
20.78000 1.301
20.80000 5.040
20.82000 7.626
20.84000 8.024
20.86000 4.683
20.88000 0.952
20.90000 -4.144
20.92000 -2.276
20.94000 5.077
20.96000 6.448
20.98000 4.547
21.00000 1.287
21.02000 4.168
21.04000 1.353
21.06000 -1.185
21.08000 -1.842
21.10000 -0.632
21.12000 1.679
21.14000 2.011
21.16000 9.113
21.18000 9.784
21.20000 3.648
21.22000 -0.761
21.24000 3.411
21.26000 1.671
21.28000 -2.189
21.30000 -1.405
21.32000 -0.043
21.34000 -0.377
21.36000 -1.747
21.38000 -0.262
21.40000 8.865
21.42000 9.509
21.44000 -1.220
21.46000 1.435
21.48000 1.548
21.50000 0.900
21.52000 1.836
21.54000 3.456
21.56000 1.718
21.58000 -2.493
21.60000 1.851
21.62000 10.570
21.64000 9.106
21.66000 5.844
21.68000 2.109
21.70000 1.012
21.72000 4.220
21.74000 1.630
21.76000 6.220
21.78000 3.082
21.80000 -2.691
21.82000 0.949
21.84000 2.750
21.86000 7.831
21.88000 9.196
21.90000 5.715
21.92000 1.478
21.94000 4.507
21.96000 5.081
21.98000 7.234
22.00000 5.748
22.02000 0.979
22.04000 -0.735
22.06000 -2.533
22.08000 -4.084
22.10000 0.289
22.12000 -2.902
22.14000 4.243
22.16000 8.857
22.18000 1.514
22.20000 5.563
22.22000 1.069
22.24000 -0.747
22.26000 0.817
22.28000 1.510
22.30000 4.382
22.32000 1.012
22.34000 3.324
22.36000 1.750
22.38000 4.629
22.40000 6.900
22.42000 1.488
22.44000 0.738
22.46000 0.232
22.48000 4.363
22.50000 5.029
22.52000 7.746
22.54000 4.580
22.56000 0.371
22.58000 3.239
22.60000 4.368
22.62000 1.460
22.64000 2.875
22.66000 0.698
22.68000 3.424
22.70000 3.155
22.72000 6.024
22.74000 7.420
22.76000 4.744
22.78000 5.163
22.80000 0.080
22.82000 2.667
22.84000 6.513
22.86000 4.576
22.88000 0.967
22.90000 1.449
22.92000 4.193
22.94000 3.075
22.96000 3.493
22.98000 6.346
23.00000 5.281
23.02000 0.732
23.04000 4.341
23.06000 6.692
23.08000 2.869
23.10000 11.089
23.12000 7.784
23.14000 -1.507
23.16000 -1.896
23.18000 -0.332
23.20000 0.561
23.22000 4.363
23.24000 7.887
23.26000 7.652
23.28000 6.715
23.30000 13.282
23.32000 12.820
23.34000 6.384
23.36000 6.770
23.38000 11.113
23.40000 7.072
23.42000 2.276
23.44000 -1.092
23.46000 -3.974
23.48000 0.993
23.50000 1.234
23.52000 11.101
23.54000 3.085
23.56000 5.288
23.58000 5.997
23.60000 5.830
23.62000 3.651
23.64000 2.323
23.66000 7.841
23.68000 7.354
23.70000 1.142
23.72000 3.740
23.74000 6.542
23.76000 4.146
23.78000 2.823
23.80000 1.971
23.82000 -1.065
23.84000 2.363
23.86000 -0.293
23.88000 2.402
23.90000 4.343
23.92000 8.469
23.94000 6.017
23.96000 2.344
23.98000 1.687
24.00000 2.683
24.02000 3.189
24.04000 10.589
24.06000 13.406
24.08000 7.529
24.10000 0.724
24.12000 3.614
24.14000 -2.168
24.16000 -3.265
24.18000 3.400
24.20000 7.429
24.22000 2.378
24.24000 3.718
24.26000 3.716
24.28000 3.085
24.30000 8.806
24.32000 3.914
24.34000 1.831
24.36000 -0.056
24.38000 2.784
24.40000 2.214
24.42000 5.858
24.44000 4.506
24.46000 5.944
24.48000 4.781
24.50000 3.989
24.52000 0.608
24.54000 9.295
24.56000 7.596
24.58000 2.498
24.60000 0.884
24.62000 2.849
24.64000 7.222
24.66000 0.128
24.68000 4.080
24.70000 3.299
24.72000 2.165
24.74000 -0.813
24.76000 4.392
24.78000 4.231
24.80000 9.432
24.82000 10.598
24.84000 7.471
24.86000 4.929
24.88000 -3.200
24.90000 -3.916
24.92000 2.774
24.94000 1.961
24.96000 -0.024
24.98000 2.546
25.00000 0.909
25.02000 3.044
25.04000 -2.820
25.06000 -1.159
25.08000 1.503
25.10000 5.936
25.12000 4.444
25.14000 0.316
25.16000 0.637
25.18000 -0.802
25.20000 3.346
25.22000 3.227
25.24000 -1.128
25.26000 -1.902
25.28000 1.234
25.30000 0.064
25.32000 3.419
25.34000 2.105
25.36000 5.812
25.38000 2.550
25.40000 -0.573
25.42000 -3.696
25.44000 3.426
25.46000 9.352
25.48000 4.539
25.50000 4.061
25.52000 2.825
25.54000 1.390
25.56000 4.106
25.58000 2.227
25.60000 6.148
25.62000 7.288
25.64000 -1.696
25.66000 3.397
25.68000 4.770
25.70000 5.670
25.72000 4.854
25.74000 1.522
25.76000 -0.175
25.78000 2.658
25.80000 1.878
25.82000 4.796
25.84000 1.909
25.86000 -1.450
25.88000 2.404
25.90000 -0.288
25.92000 2.017
25.94000 -2.191
25.96000 6.377
25.98000 12.479
26.00000 9.031
26.02000 6.421
26.04000 5.667
26.06000 2.756
26.08000 -1.931
26.10000 1.989
26.12000 1.665
26.14000 2.120
26.16000 4.327
26.18000 6.083
26.20000 7.274
26.22000 9.334
26.24000 8.518
26.26000 1.924
26.28000 0.955
26.30000 4.810
26.32000 4.490
26.34000 4.981
26.36000 -0.617
26.38000 0.015
26.40000 0.705
26.42000 10.583
26.44000 5.575
26.46000 4.106
26.48000 7.773
26.50000 4.379
26.52000 1.190
26.54000 1.940
26.56000 0.351
26.58000 -3.810
26.60000 4.377
26.62000 6.987
26.64000 11.176
26.66000 4.824
26.68000 2.716
26.70000 2.632
26.72000 3.869
26.74000 6.827
26.76000 8.013
26.78000 5.245
26.80000 8.098
26.82000 11.361
26.84000 5.922
26.86000 0.272
26.88000 6.608
26.90000 4.917
26.92000 7.255
26.94000 8.982
26.96000 3.695
26.98000 4.329
27.00000 7.136
27.02000 9.295
27.04000 7.784
27.06000 6.910
27.08000 9.935
27.10000 8.393
27.12000 6.794
27.14000 6.199
27.16000 5.169
27.18000 1.781
27.20000 2.880
27.22000 3.929
27.24000 4.032
27.26000 6.722
27.28000 8.840
27.30000 7.542
27.32000 4.488
27.34000 3.175
27.36000 -1.468
27.38000 0.501
27.40000 4.911
27.42000 8.488
27.44000 9.443
27.46000 4.441
27.48000 3.944
27.50000 5.368
27.52000 8.679
27.54000 3.534
27.56000 1.035
27.58000 1.876
27.60000 2.923
27.62000 -0.836
27.64000 5.700
27.66000 4.577
27.68000 5.462
27.70000 4.566
27.72000 -1.967
27.74000 -0.248
27.76000 5.819
27.78000 3.868
27.80000 4.058
27.82000 6.073
27.84000 0.215
27.86000 -3.753
27.88000 -0.907
27.90000 -2.234
27.92000 0.495
27.94000 1.728
27.96000 0.606
27.98000 3.188
28.00000 -2.277
28.02000 -3.059
28.04000 2.144
28.06000 1.463
28.08000 2.138
28.10000 6.596
28.12000 3.416
28.14000 1.503
28.16000 2.197
28.18000 5.785
28.20000 5.638
28.22000 5.086
28.24000 5.327
28.26000 1.410
28.28000 1.236
28.30000 -0.522
28.32000 4.335
28.34000 4.409
28.36000 5.835
28.38000 3.215
28.40000 -1.124
28.42000 -0.842
28.44000 0.667
28.46000 0.870
28.48000 5.929
28.50000 8.209
28.52000 8.739
28.54000 4.514
28.56000 3.270
28.58000 8.170
28.60000 10.144
28.62000 8.161
28.64000 11.354
28.66000 6.526
28.68000 4.827
28.70000 4.065
28.72000 -0.321
28.74000 4.544
28.76000 6.583
28.78000 7.453
28.80000 4.547
28.82000 4.750
28.84000 5.086
28.86000 4.455
28.88000 6.250
28.90000 0.316
28.92000 -2.678
28.94000 1.623
28.96000 3.260
28.98000 2.680
29.00000 4.806
29.02000 7.174
29.04000 6.119
29.06000 4.922
29.08000 2.577
29.10000 2.266
29.12000 3.580
29.14000 5.328
29.16000 0.880
29.18000 -2.823
29.20000 5.292
29.22000 8.741
29.24000 1.607
29.26000 -0.382
29.28000 -3.672
29.30000 -0.009
29.32000 5.165
29.34000 0.995
29.36000 5.296
29.38000 5.432
29.40000 3.540
29.42000 1.107
29.44000 4.847
29.46000 3.492
29.48000 6.310
29.50000 6.880
29.52000 2.754
29.54000 7.787
29.56000 5.237
29.58000 7.333
29.60000 10.912
29.62000 7.342
29.64000 6.323
29.66000 6.196
29.68000 5.473
29.70000 3.740
29.72000 6.081
29.74000 6.543
29.76000 2.452
29.78000 -3.646
29.80000 -0.936
29.82000 5.580
29.84000 5.382
29.86000 6.356
29.88000 7.454
29.90000 4.261
29.92000 1.167
29.94000 8.133
29.96000 9.821
29.98000 5.078
30.00000 2.072
30.02000 1.742
30.04000 3.086
30.06000 5.981
30.08000 6.907
30.10000 7.011
30.12000 6.838
30.14000 -0.599
30.16000 0.720
30.18000 4.520
30.20000 2.133
30.22000 3.247
30.24000 2.721
30.26000 -1.813
30.28000 -0.682
30.30000 3.794
30.32000 -1.260
30.34000 -2.727
30.36000 1.397
30.38000 -0.271
30.40000 4.845
30.42000 7.083
30.44000 6.647
30.46000 2.444
30.48000 -0.210
30.50000 -3.386
30.52000 1.308
30.54000 2.017
30.56000 -0.464
30.58000 -2.292
30.60000 -0.476
30.62000 2.567
30.64000 5.454
30.66000 5.002
30.68000 4.608
30.70000 2.616
30.72000 -1.049
30.74000 3.106
30.76000 3.054
30.78000 6.758
30.80000 3.744
30.82000 0.713
30.84000 2.445
30.86000 -1.261
30.88000 -0.455
30.90000 4.379
30.92000 6.815
30.94000 4.303
30.96000 3.028
30.98000 1.970
31.00000 0.177
31.02000 3.407
31.04000 3.615
31.06000 4.432
31.08000 10.042
31.10000 0.874
31.12000 -2.986
31.14000 1.641
31.16000 5.398
31.18000 0.385
31.20000 0.930
31.22000 4.440
31.24000 0.971
31.26000 2.656
31.28000 3.066
31.30000 0.238
31.32000 3.389
31.34000 4.384
31.36000 -0.575
31.38000 1.805
31.40000 7.530
31.42000 3.060
31.44000 -2.445
31.46000 1.820
31.48000 3.891
31.50000 2.256
31.52000 -0.498
31.54000 8.101
31.56000 7.841
31.58000 3.375
31.60000 -0.268
31.62000 3.077
31.64000 3.002
31.66000 5.238
31.68000 2.274
31.70000 2.174
31.72000 3.459
31.74000 7.069
31.76000 4.932
31.78000 0.551
31.80000 6.599
31.82000 3.329
31.84000 4.842
31.86000 6.218
31.88000 5.745
31.90000 3.921
31.92000 6.143
31.94000 5.887
31.96000 1.044
31.98000 4.405
32.00000 5.516
32.02000 5.169
32.04000 6.248
32.06000 5.653
32.08000 4.469
32.10000 2.349
32.12000 7.022
32.14000 9.173
32.16000 6.836
32.18000 -2.518
32.20000 -3.546
32.22000 -2.362
32.24000 -2.059
32.26000 -1.016
32.28000 1.467
32.30000 4.169
32.32000 -0.009
32.34000 3.610
32.36000 6.960
32.38000 5.787
32.40000 5.982
32.42000 -1.710
32.44000 -1.607
32.46000 -0.051
32.48000 3.761
32.50000 6.682
32.52000 8.252
32.54000 6.510
32.56000 6.015
32.58000 5.225
32.60000 4.985
32.62000 2.530
32.64000 0.117
32.66000 1.466
32.68000 1.731
32.70000 2.329
32.72000 4.626
32.74000 4.104
32.76000 5.847
32.78000 4.075
32.80000 -0.301
32.82000 1.769
32.84000 1.222
32.86000 1.479
32.88000 7.088
32.90000 5.623
32.92000 2.445
32.94000 2.144
32.96000 4.299
32.98000 7.655
33.00000 5.254
33.02000 2.998
33.04000 0.544
33.06000 -0.569
33.08000 0.762
33.10000 -1.657
33.12000 3.195
33.14000 9.082
33.16000 9.155
33.18000 5.458
33.20000 10.725
33.22000 7.855
33.24000 2.093
33.26000 3.044
33.28000 1.232
33.30000 -3.510
33.32000 1.326
33.34000 1.376
33.36000 3.075
33.38000 7.037
33.40000 4.661
33.42000 -1.393
33.44000 -3.512
33.46000 0.245
33.48000 5.478
33.50000 2.721
33.52000 4.761
33.54000 2.267
33.56000 4.863
33.58000 0.471
33.60000 -2.720
33.62000 1.988
33.64000 4.156
33.66000 -0.488
33.68000 -2.762
33.70000 1.943
33.72000 3.847
33.74000 3.103
33.76000 -1.100
33.78000 2.980
33.80000 5.755
33.82000 4.085
33.84000 4.509
33.86000 4.315
33.88000 4.168
33.90000 3.058
33.92000 -1.395
33.94000 0.906
33.96000 3.572
33.98000 1.082
34.00000 2.468
34.02000 1.949
34.04000 3.912
34.06000 1.874
34.08000 -0.013
34.10000 1.565
34.12000 4.480
34.14000 1.468
34.16000 1.722
34.18000 4.003
34.20000 1.176
34.22000 0.297
34.24000 -3.513
34.26000 3.085
34.28000 6.197
34.30000 4.729
34.32000 2.294
34.34000 1.169
34.36000 3.255
34.38000 5.370
34.40000 0.332
34.42000 -0.896
34.44000 1.961
34.46000 4.317
34.48000 1.157
34.50000 -1.718
34.52000 -0.107
34.54000 0.911
34.56000 5.742
34.58000 4.536
34.60000 2.161
34.62000 2.421
34.64000 0.793
34.66000 2.715
34.68000 0.450
34.70000 -2.187
34.72000 1.304
34.74000 7.603
34.76000 7.193
34.78000 4.711
34.80000 3.902
34.82000 5.783
34.84000 4.507
34.86000 4.777
34.88000 3.373
34.90000 1.723
34.92000 -0.383
34.94000 -0.054
34.96000 2.275
34.98000 1.248
35.00000 5.897
35.02000 5.963
35.04000 2.307
35.06000 3.689
35.08000 6.669
35.10000 3.599
35.12000 3.668
35.14000 0.620
35.16000 -3.477
35.18000 0.723
35.20000 5.555
35.22000 2.413
35.24000 2.401
35.26000 2.388
35.28000 4.331
35.30000 3.919
35.32000 6.178
35.34000 7.406
35.36000 6.549
35.38000 3.778
35.40000 3.897
35.42000 10.616
35.44000 6.983
35.46000 -3.457
35.48000 4.004
35.50000 3.513
35.52000 1.934
35.54000 1.795
35.56000 -0.318
35.58000 -3.136
35.60000 -3.009
35.62000 1.138
35.64000 2.758
35.66000 5.894
35.68000 9.170
35.70000 4.257
35.72000 6.026
35.74000 4.141
35.76000 -0.008
35.78000 4.531
35.80000 7.721
35.82000 7.117
35.84000 4.329
35.86000 4.625
35.88000 3.263
35.90000 9.462
35.92000 9.185
35.94000 5.755
35.96000 5.157
35.98000 2.469
36.00000 0.663
36.02000 0.983
36.04000 2.805
36.06000 7.064
36.08000 1.170
36.10000 -3.424
36.12000 3.465
36.14000 8.127
36.16000 6.682
36.18000 2.449
36.20000 0.311
36.22000 1.691
36.24000 4.212
36.26000 7.997
36.28000 6.085
36.30000 1.080
36.32000 2.043
36.34000 4.412
36.36000 6.071
36.38000 9.959
36.40000 6.339
36.42000 3.077
36.44000 -0.508
36.46000 3.732
36.48000 8.730
36.50000 9.946
36.52000 4.980
36.54000 -1.757
36.56000 -1.127
36.58000 3.593
36.60000 4.358
36.62000 4.605
36.64000 3.131
36.66000 2.794
36.68000 -3.460
36.70000 2.058
36.72000 1.732
36.74000 -1.194
36.76000 0.233
36.78000 1.692
36.80000 0.541
36.82000 -1.393
36.84000 -2.453
36.86000 0.838
36.88000 3.125
36.90000 1.584
36.92000 -0.373
36.94000 -1.357
36.96000 0.319
36.98000 3.628
37.00000 1.335
37.02000 0.292
37.04000 3.650
37.06000 9.393
37.08000 7.349
37.10000 4.561
37.12000 -3.477
37.14000 -2.913
37.16000 0.523
37.18000 0.776
37.20000 1.893
37.22000 1.963
37.24000 5.234
37.26000 4.776
37.28000 2.204
37.30000 1.225
37.32000 -2.205
37.34000 -0.031
37.36000 1.657
37.38000 4.641
37.40000 -0.331
37.42000 -1.932
37.44000 2.125
37.46000 5.897
37.48000 1.483
37.50000 -2.082
37.52000 -1.808
37.54000 -2.388
37.56000 -1.716
37.58000 1.201
37.60000 1.230
37.62000 -0.244
37.64000 -1.412
37.66000 0.916
37.68000 4.536
37.70000 3.093
37.72000 0.774
37.74000 -3.547
37.76000 -2.906
37.78000 -1.195
37.80000 -1.396
37.82000 2.410
37.84000 5.217
37.86000 3.120
37.88000 1.220
37.90000 2.318
37.92000 1.823
37.94000 -1.702
37.96000 3.979
37.98000 6.531
38.00000 9.608
38.02000 6.322
38.04000 2.631
38.06000 5.653
38.08000 8.747
38.10000 6.216
38.12000 5.968
38.14000 7.891
38.16000 5.693
38.18000 6.794
38.20000 10.470
38.22000 10.525
38.24000 7.583
38.26000 7.918
38.28000 5.239
38.30000 9.072
38.32000 10.778
38.34000 13.221
38.36000 8.612
38.38000 3.557
38.40000 4.003
38.42000 9.788
38.44000 13.689
38.46000 15.721
38.48000 14.920
38.50000 11.517
38.52000 12.967
38.54000 16.526
38.56000 16.475
38.58000 17.866
38.60000 16.802
38.62000 13.378
38.64000 14.441
38.66000 15.646
38.68000 11.056
38.70000 12.754
38.72000 16.704
38.74000 14.204
38.76000 17.826
38.78000 14.292
38.80000 16.483
38.82000 22.380
38.84000 19.801
38.86000 21.253
38.88000 20.134
38.90000 21.250
38.92000 21.038
38.94000 15.437
38.96000 17.813
38.98000 22.510
39.00000 26.051
39.02000 20.828
39.04000 24.342
39.06000 22.816
39.08000 22.332
39.10000 26.272
39.12000 30.690
39.14000 29.429
39.16000 33.440
39.18000 29.716
39.20000 30.808
39.22000 34.300
39.24000 34.879
39.26000 34.029
39.28000 41.712
39.30000 41.924
39.32000 40.696
39.34000 41.974
39.36000 41.120
39.38000 38.222
39.40000 44.206
39.42000 53.553
39.44000 51.873
39.46000 55.938
39.48000 57.007
39.50000 63.629
39.52000 65.843
39.54000 62.799
39.56000 64.915
39.58000 66.600
39.60000 74.069
39.62000 73.668
39.64000 76.035
39.66000 79.148
39.68000 90.537
39.70000 101.016
39.72000 100.950
39.74000 101.242
39.76000 105.470
39.78000 109.762
39.80000 116.204
39.82000 118.742
39.84000 124.807
39.86000 138.755
39.88000 151.552
39.90000 156.327
39.92000 161.785
39.94000 167.332
39.96000 176.218
39.98000 189.577
40.00000 196.616
40.02000 203.301
40.04000 218.559
40.06000 231.368
40.08000 247.663
40.10000 261.461
40.12000 272.010
40.14000 282.266
40.16000 304.210
40.18000 322.999
40.20000 330.489
40.22000 341.949
40.24000 357.328
40.26000 386.956
40.28000 412.404
40.30000 418.537
40.32000 436.545
40.34000 451.455
40.36000 461.028
40.38000 483.203
40.40000 509.071
40.42000 520.886
40.44000 537.362
40.46000 556.346
40.48000 560.527
40.50000 569.324
40.52000 590.193
40.54000 582.535
40.56000 595.101
40.58000 599.751
40.60000 601.900
40.62000 608.551
40.64000 599.567
40.66000 600.076
40.68000 600.830
40.70000 593.404
40.72000 579.815
40.74000 575.506
40.76000 565.825
40.78000 558.534
40.80000 553.376
40.82000 536.008
40.84000 506.567
40.86000 490.244
40.88000 476.368
40.90000 446.587
40.92000 439.410
40.94000 431.370
40.96000 409.183
40.98000 384.063
41.00000 368.588
41.02000 347.726
41.04000 334.635
41.06000 320.626
41.08000 307.051
41.10000 284.069
41.12000 266.754
41.14000 254.962
41.16000 248.774
41.18000 239.056
41.20000 228.063
41.22000 207.757
41.24000 200.133
41.26000 191.017
41.28000 179.990
41.30000 171.917
41.32000 161.840
41.34000 153.346
41.36000 140.804
41.38000 135.779
41.40000 128.838
41.42000 121.922
41.44000 121.100
41.46000 112.654
41.48000 103.862
41.50000 94.962
41.52000 88.282
41.54000 85.176
41.56000 85.091
41.58000 82.071
41.60000 72.353
41.62000 65.031
41.64000 67.390
41.66000 70.002
41.68000 66.458
41.70000 59.306
41.72000 59.581
41.74000 54.666
41.76000 47.585
41.78000 41.642
41.80000 44.387
41.82000 42.979
41.84000 42.561
41.86000 38.329
41.88000 39.604
41.90000 38.269
41.92000 37.098
41.94000 29.775
41.96000 32.453
41.98000 30.066
42.00000 31.191
42.02000 31.123
42.04000 28.675
42.06000 26.797
42.08000 24.683
42.10000 19.836
42.12000 17.099
42.14000 21.756
42.16000 20.316
42.18000 14.918
42.20000 15.380
42.22000 17.599
42.24000 16.110
42.26000 13.768
42.28000 16.598
42.30000 15.091
42.32000 11.724
42.34000 11.640
42.36000 12.316
42.38000 13.068
42.40000 12.161
42.42000 6.764
42.44000 10.413
42.46000 13.323
42.48000 8.864
42.50000 8.886
42.52000 11.851
42.54000 7.847
42.56000 6.979
42.58000 5.495
42.60000 4.789
42.62000 4.871
42.64000 3.325
42.66000 6.515
42.68000 7.065
42.70000 4.243
42.72000 4.076
42.74000 6.859
42.76000 3.846
42.78000 1.597
42.80000 4.257
42.82000 3.290
42.84000 2.566
42.86000 2.852
42.88000 5.274
42.90000 6.157
42.92000 6.393
42.94000 2.543
42.96000 3.503
42.98000 3.216
43.00000 1.516
43.02000 4.450
43.04000 4.590
43.06000 1.085
43.08000 2.148
43.10000 4.910
43.12000 3.263
43.14000 4.302
43.16000 2.506
43.18000 1.631
43.20000 -2.346
43.22000 -2.128
43.24000 -2.690
43.26000 -1.802
43.28000 1.738
43.30000 0.745
43.32000 -0.638
43.34000 5.191
43.36000 -0.292
43.38000 0.022
43.40000 1.861
43.42000 2.078
43.44000 3.949
43.46000 1.487
43.48000 1.249
43.50000 0.117
43.52000 -0.386
43.54000 -0.178
43.56000 -0.818
43.58000 3.186
43.60000 2.316
43.62000 4.783
43.64000 5.449
43.66000 7.437
43.68000 5.107
43.70000 3.821
43.72000 -3.418
43.74000 -0.249
43.76000 2.336
43.78000 3.035
43.80000 4.008
43.82000 2.178
43.84000 2.263
43.86000 8.488
43.88000 6.673
43.90000 4.255
43.92000 5.088
43.94000 2.248
43.96000 3.517
43.98000 4.394
44.00000 3.858
44.02000 1.245
44.04000 5.247
44.06000 5.214
44.08000 2.074
44.10000 3.602
44.12000 3.474
44.14000 3.762
44.16000 2.482
44.18000 1.815
44.20000 1.501
44.22000 -0.703
44.24000 1.465
44.26000 2.140
44.28000 -1.248
44.30000 4.802
44.32000 5.833
44.34000 1.023
44.36000 2.244
44.38000 3.034
44.40000 1.581
44.42000 3.845
44.44000 5.938
44.46000 2.960
44.48000 1.697
44.50000 0.015
44.52000 1.970
44.54000 4.551
44.56000 -0.965
44.58000 4.095
44.60000 4.454
44.62000 1.123
44.64000 -3.345
44.66000 2.998
44.68000 7.633
44.70000 9.804
44.72000 9.244
44.74000 5.693
44.76000 3.600
44.78000 0.692
44.80000 -0.408
44.82000 1.804
44.84000 1.542
44.86000 0.682
44.88000 2.434
44.90000 1.679
44.92000 4.664
44.94000 4.086
44.96000 5.733
44.98000 4.935
45.00000 4.161
45.02000 6.483
45.04000 8.233
45.06000 4.595
45.08000 6.696
45.10000 9.653
45.12000 6.382
45.14000 5.475
45.16000 3.930
45.18000 4.069
45.20000 5.065
45.22000 3.113
45.24000 3.417
45.26000 0.946
45.28000 -0.657
45.30000 5.860
45.32000 7.888
45.34000 5.895
45.36000 2.722
45.38000 3.649
45.40000 4.717
45.42000 3.262
45.44000 6.608
45.46000 6.698
45.48000 11.518
45.50000 12.457
45.52000 7.404
45.54000 5.747
45.56000 8.739
45.58000 16.693
45.60000 12.480
45.62000 8.363
45.64000 9.264
45.66000 4.505
45.68000 12.061
45.70000 9.717
45.72000 13.541
45.74000 14.127
45.76000 14.653
45.78000 10.384
45.80000 16.422
45.82000 17.207
45.84000 15.082
45.86000 11.103
45.88000 8.757
45.90000 9.673
45.92000 9.210
45.94000 16.423
45.96000 17.292
45.98000 18.971
46.00000 22.332
46.02000 23.533
46.04000 20.064
46.06000 16.668
46.08000 20.028
46.10000 20.794
46.12000 16.817
46.14000 21.571
46.16000 25.993
46.18000 29.523
46.20000 27.280
46.22000 21.494
46.24000 29.599
46.26000 31.733
46.28000 29.596
46.30000 27.395
46.32000 27.798
46.34000 31.633
46.36000 36.760
46.38000 39.196
46.40000 40.133
46.42000 36.494
46.44000 34.311
46.46000 39.075
46.48000 41.470
46.50000 42.371
46.52000 43.547
46.54000 47.348
46.56000 47.999
46.58000 48.800
46.60000 46.520
46.62000 49.905
46.64000 51.976
46.66000 55.970
46.68000 57.527
46.70000 54.285
46.72000 57.329
46.74000 61.197
46.76000 57.506
46.78000 60.005
46.80000 69.700
46.82000 68.344
46.84000 69.336
46.86000 69.900
46.88000 68.184
46.90000 66.740
46.92000 71.802
46.94000 68.995
46.96000 70.890
46.98000 76.076
47.00000 76.480
47.02000 80.038
47.04000 79.248
47.06000 76.725
47.08000 75.356
47.10000 76.250
47.12000 80.379
47.14000 81.458
47.16000 84.035
47.18000 84.630
47.20000 88.987
47.22000 87.877
47.24000 87.033
47.26000 82.816
47.28000 75.889
47.30000 74.871
47.32000 74.356
47.34000 75.329
47.36000 75.613
47.38000 70.958
47.40000 73.383
47.42000 73.690
47.44000 74.276
47.46000 72.483
47.48000 77.344
47.50000 82.510
47.52000 78.424
47.54000 72.115
47.56000 73.803
47.58000 72.824
47.60000 72.342
47.62000 73.373
47.64000 68.970
47.66000 62.495
47.68000 64.729
47.70000 63.970
47.72000 61.992
47.74000 53.471
47.76000 46.480
47.78000 47.027
47.80000 45.912
47.82000 49.869
47.84000 47.645
47.86000 44.870
47.88000 39.726
47.90000 43.368
47.92000 39.781
47.94000 38.765
47.96000 38.267
47.98000 35.943
48.00000 32.602
48.02000 33.965
48.04000 31.821
48.06000 32.009
48.08000 34.242
48.10000 31.792
48.12000 20.884
48.14000 19.366
48.16000 23.651
48.18000 22.427
48.20000 22.776
48.22000 24.051
48.24000 18.188
48.26000 16.771
48.28000 18.899
48.30000 16.522
48.32000 15.536
48.34000 14.972
48.36000 18.234
48.38000 16.382
48.40000 12.664
48.42000 14.609
48.44000 16.998
48.46000 14.322
48.48000 13.281
48.50000 11.897
48.52000 13.009
48.54000 9.437
48.56000 9.635
48.58000 8.832
48.60000 12.237
48.62000 14.321
48.64000 12.889
48.66000 11.945
48.68000 7.572
48.70000 9.436
48.72000 8.432
48.74000 6.938
48.76000 8.572
48.78000 5.833
48.80000 5.550
48.82000 8.292
48.84000 5.294
48.86000 3.305
48.88000 6.085
48.90000 6.810
48.92000 8.126
48.94000 10.801
48.96000 11.440
48.98000 12.050
49.00000 8.786
49.02000 5.272
49.04000 1.245
49.06000 6.854
49.08000 1.892
49.10000 -2.423
49.12000 1.028
49.14000 5.206
49.16000 8.637
49.18000 7.443
49.20000 8.081
49.22000 2.353
49.24000 -1.186
49.26000 0.371
49.28000 2.353
49.30000 2.366
49.32000 7.860
49.34000 6.359
49.36000 4.569
49.38000 0.019
49.40000 0.721
49.42000 0.373
49.44000 -2.886
49.46000 3.720
49.48000 7.219
49.50000 6.563
49.52000 1.737
49.54000 4.703
49.56000 8.010
49.58000 2.908
49.60000 1.717
49.62000 4.112
49.64000 8.165
49.66000 8.919
49.68000 10.619
49.70000 5.313
49.72000 4.208
49.74000 5.869
49.76000 5.887
49.78000 4.458
49.80000 7.050
49.82000 7.042
49.84000 6.460
49.86000 7.165
49.88000 8.914
49.90000 12.471
49.92000 11.773
49.94000 7.679
49.96000 2.706
49.98000 -1.334
50.00000 5.993
50.02000 8.851
50.04000 8.458
50.06000 8.488
50.08000 6.561
50.10000 2.174
50.12000 5.348
50.14000 5.014
50.16000 4.147
50.18000 8.572
50.20000 12.197
50.22000 6.960
50.24000 2.797
50.26000 -2.831
50.28000 -0.253
50.30000 1.435
50.32000 2.668
50.34000 0.507
50.36000 3.569
50.38000 2.250
50.40000 5.329
50.42000 7.643
50.44000 5.006
50.46000 3.535
50.48000 2.949
50.50000 4.790
50.52000 7.284
50.54000 5.439
50.56000 -0.169
50.58000 5.235
50.60000 4.318
50.62000 1.210
50.64000 -0.603
50.66000 2.847
50.68000 2.730
50.70000 3.805
50.72000 4.187
50.74000 5.872
50.76000 4.483
50.78000 3.196
50.80000 3.499
50.82000 5.010
50.84000 1.299
50.86000 0.479
50.88000 1.949
50.90000 4.410
50.92000 7.112
50.94000 3.274
50.96000 -2.816
50.98000 1.990
51.00000 0.132
51.02000 -1.287
51.04000 4.100
51.06000 6.800
51.08000 3.437
51.10000 5.625
51.12000 5.190
51.14000 5.473
51.16000 -0.086
51.18000 2.312
51.20000 9.072
51.22000 5.628
51.24000 6.310
51.26000 5.998
51.28000 8.499
51.30000 6.971
51.32000 6.299
51.34000 5.313
51.36000 4.083
51.38000 3.031
51.40000 -2.800
51.42000 -2.518
51.44000 1.859
51.46000 2.948
51.48000 1.131
51.50000 2.439
51.52000 -1.978
51.54000 0.248
51.56000 -0.979
51.58000 3.531
51.60000 2.545
51.62000 1.180
51.64000 6.241
51.66000 7.163
51.68000 3.700
51.70000 3.045
51.72000 5.315
51.74000 7.013
51.76000 1.674
51.78000 7.302
51.80000 4.728
51.82000 2.011
51.84000 5.100
51.86000 12.069
51.88000 11.667
51.90000 7.536
51.92000 6.796
51.94000 8.157
51.96000 6.507
51.98000 8.556
52.00000 5.502
52.02000 5.942
52.04000 2.132
52.06000 1.470
52.08000 4.644
52.10000 5.609
52.12000 4.994
52.14000 -0.200
52.16000 0.125
52.18000 3.067
52.20000 1.260
52.22000 1.700
52.24000 4.395
52.26000 4.344
52.28000 1.084
52.30000 0.896
52.32000 9.332
52.34000 8.806
52.36000 1.435
52.38000 -0.073
52.40000 2.324
52.42000 4.032
52.44000 6.460
52.46000 5.315
52.48000 6.174
52.50000 2.383
52.52000 6.229
52.54000 5.060
52.56000 9.121
52.58000 6.820
52.60000 9.272
52.62000 7.335
52.64000 9.403
52.66000 7.001
52.68000 8.875
52.70000 9.365
52.72000 1.099
52.74000 -2.688
52.76000 2.521
52.78000 4.089
52.80000 3.176
52.82000 3.331
52.84000 2.992
52.86000 4.610
52.88000 4.054
52.90000 3.799
52.92000 6.799
52.94000 3.141
52.96000 6.847
52.98000 5.847
53.00000 5.569
53.02000 1.225
53.04000 4.750
53.06000 3.470
53.08000 3.409
53.10000 0.316
53.12000 2.417
53.14000 2.370
53.16000 5.547
53.18000 5.773
53.20000 -0.387
53.22000 1.716
53.24000 4.417
53.26000 6.910
53.28000 12.218
53.30000 5.513
53.32000 2.113
53.34000 5.101
53.36000 2.269
53.38000 -0.555
53.40000 3.350
53.42000 5.401
53.44000 -0.284
53.46000 0.492
53.48000 1.905
53.50000 2.683
53.52000 4.297
53.54000 2.227
53.56000 -0.456
53.58000 -1.450
53.60000 1.023
53.62000 2.892
53.64000 0.111
53.66000 2.330
53.68000 1.836
53.70000 -0.298
53.72000 -0.888
53.74000 1.271
53.76000 2.828
53.78000 2.353
53.80000 1.924
53.82000 0.119
53.84000 0.940
53.86000 3.166
53.88000 3.199
53.90000 2.164
53.92000 1.779
53.94000 3.005
53.96000 5.559
53.98000 3.117
54.00000 9.148
54.02000 6.929
54.04000 1.530
54.06000 1.728
54.08000 2.873
54.10000 7.039
54.12000 -0.067
54.14000 2.262
54.16000 2.381
54.18000 -0.608
54.20000 -2.126
54.22000 -0.935
54.24000 3.518
54.26000 5.170
54.28000 4.486
54.30000 4.484
54.32000 0.705
54.34000 -1.142
54.36000 1.382
54.38000 3.614
54.40000 4.473
54.42000 0.986
54.44000 -0.873
54.46000 0.311
54.48000 4.571
54.50000 3.376
54.52000 1.072
54.54000 5.786
54.56000 2.866
54.58000 0.379
54.60000 3.212
54.62000 1.972
54.64000 -2.718
54.66000 3.752
54.68000 5.770
54.70000 3.402
54.72000 -0.229
54.74000 2.924
54.76000 5.392
54.78000 2.241
54.80000 1.251
54.82000 0.636
54.84000 4.644
54.86000 4.795
54.88000 2.025
54.90000 0.110
54.92000 1.106
54.94000 -0.392
54.96000 -0.663
54.98000 -1.051
55.00000 1.816
55.02000 0.765
55.04000 1.755
55.06000 0.497
55.08000 1.615
55.10000 7.191
55.12000 2.280
55.14000 3.169
55.16000 0.912
55.18000 2.330
55.20000 -0.488
55.22000 2.263
55.24000 4.615
55.26000 0.828
55.28000 -0.194
55.30000 -1.184
55.32000 1.119
55.34000 0.560
55.36000 1.248
55.38000 4.727
55.40000 7.227
55.42000 5.602
55.44000 3.107
55.46000 1.163
55.48000 1.974
55.50000 6.172
55.52000 8.198
55.54000 0.303
55.56000 -2.666
55.58000 -1.164
55.60000 1.928
55.62000 2.754
55.64000 0.813
55.66000 4.348
55.68000 4.810
55.70000 3.916
55.72000 1.524
55.74000 2.051
55.76000 0.445
55.78000 0.255
55.80000 4.141
55.82000 5.645
55.84000 5.210
55.86000 3.240
55.88000 5.447
55.90000 2.940
55.92000 -2.665
55.94000 -2.537
55.96000 0.399
55.98000 3.082
56.00000 8.388
56.02000 2.322
56.04000 3.886
56.06000 5.342
56.08000 3.369
56.10000 1.548
56.12000 -0.156
56.14000 2.939
56.16000 1.954
56.18000 2.790
56.20000 0.465
56.22000 3.967
56.24000 5.869
56.26000 5.802
56.28000 9.622
56.30000 5.554
56.32000 -1.136
56.34000 -0.179
56.36000 0.371
56.38000 0.290
56.40000 -0.066
56.42000 0.945
56.44000 2.718
56.46000 2.466
56.48000 4.292
56.50000 -1.960
56.52000 -2.075
56.54000 4.287
56.56000 4.425
56.58000 0.020
56.60000 1.992
56.62000 -0.407
56.64000 2.685
56.66000 -0.371
56.68000 -1.083
56.70000 -0.911
56.72000 -0.212
56.74000 0.255
56.76000 1.396
56.78000 6.087
56.80000 4.421
56.82000 2.954
56.84000 0.423
56.86000 -2.093
56.88000 3.822
56.90000 7.496
56.92000 2.683
56.94000 -2.516
56.96000 4.095
56.98000 3.630
57.00000 0.102
57.02000 1.328
57.04000 3.069
57.06000 1.065
57.08000 -1.764
57.10000 1.040
57.12000 4.767
57.14000 6.840
57.16000 3.617
57.18000 1.808
57.20000 2.982
57.22000 -0.512
57.24000 0.402
57.26000 4.215
57.28000 4.525
57.30000 6.811
57.32000 3.868
57.34000 2.681
57.36000 4.006
57.38000 -1.256
57.40000 -0.763
57.42000 3.171
57.44000 -1.232
57.46000 3.268
57.48000 2.023
57.50000 7.489
57.52000 4.538
57.54000 1.366
57.56000 1.730
57.58000 4.349
57.60000 1.444
57.62000 -0.460
57.64000 3.998
57.66000 4.781
57.68000 3.351
57.70000 7.192
57.72000 3.690
57.74000 0.072
57.76000 -0.282
57.78000 1.571
57.80000 -2.271
57.82000 -2.589
57.84000 3.875
57.86000 4.862
57.88000 1.189
57.90000 -1.067
57.92000 0.112
57.94000 2.805
57.96000 4.136
57.98000 5.537
58.00000 4.873
58.02000 1.932
58.04000 2.378
58.06000 3.537
58.08000 7.224
58.10000 5.032
58.12000 0.751
58.14000 1.610
58.16000 1.130
58.18000 1.833
58.20000 4.304
58.22000 1.838
58.24000 -1.044
58.26000 -1.509
58.28000 -0.559
58.30000 0.390
58.32000 0.309
58.34000 2.559
58.36000 6.081
58.38000 4.043
58.40000 5.740
58.42000 6.289
58.44000 5.387
58.46000 0.887
58.48000 -1.084
58.50000 0.284
58.52000 3.404
58.54000 6.254
58.56000 8.829
58.58000 6.602
58.60000 2.876
58.62000 4.599
58.64000 1.403
58.66000 -0.205
58.68000 -2.060
58.70000 1.331
58.72000 -2.515
58.74000 1.533
58.76000 7.339
58.78000 8.125
58.80000 0.616
58.82000 4.770
58.84000 1.170
58.86000 3.801
58.88000 3.119
58.90000 2.395
58.92000 1.158
58.94000 0.724
58.96000 -0.078
58.98000 1.526
59.00000 5.129
59.02000 1.505
59.04000 1.542
59.06000 0.423
59.08000 3.423
59.10000 1.607
59.12000 4.020
59.14000 5.347
59.16000 5.132
59.18000 3.866
59.20000 3.307
59.22000 0.549
59.24000 -2.553
59.26000 -1.925
59.28000 3.632
59.30000 2.258
59.32000 1.898
59.34000 4.470
59.36000 1.552
59.38000 1.866
59.40000 2.479
59.42000 2.466
59.44000 7.378
59.46000 0.769
59.48000 2.979
59.50000 5.425
59.52000 -0.028
59.54000 1.019
59.56000 1.266
59.58000 -2.545
59.60000 2.086
59.62000 -0.808
59.64000 1.314
59.66000 1.803
59.68000 3.006
59.70000 6.425
59.72000 0.490
59.74000 1.588
59.76000 3.704
59.78000 -1.130
59.80000 -2.353
59.82000 3.038
59.84000 4.323
59.86000 2.431
59.88000 -2.169
59.90000 2.418
59.92000 8.011
59.94000 5.101
59.96000 -0.830
59.98000 -0.046
60.00000 4.616
60.02000 2.574
60.04000 -0.009
60.06000 0.404
60.08000 2.442
60.10000 3.822
60.12000 2.694
60.14000 -0.185
60.16000 -2.523
60.18000 -2.224
60.20000 1.104
60.22000 8.454
60.24000 8.170
60.26000 2.063
60.28000 2.444
60.30000 2.661
60.32000 2.642
60.34000 1.126
60.36000 -1.132
60.38000 1.706
60.40000 3.531
60.42000 -1.748
60.44000 -2.122
60.46000 2.320
60.48000 3.084
60.50000 2.773
60.52000 2.390
60.54000 3.378
60.56000 1.386
60.58000 4.951
60.60000 6.169
60.62000 4.891
60.64000 5.827
60.66000 4.057
60.68000 0.282
60.70000 0.524
60.72000 0.434
60.74000 1.463
60.76000 0.329
60.78000 4.186
60.80000 4.133
60.82000 6.351
60.84000 3.271
60.86000 2.130
60.88000 2.005
60.90000 2.257
60.92000 1.337
60.94000 6.152
60.96000 8.339
60.98000 5.236
61.00000 0.974
61.02000 -1.954
61.04000 -0.196
61.06000 2.548
61.08000 4.743
61.10000 6.294
61.12000 8.355
61.14000 7.588
61.16000 3.835
61.18000 -0.492
61.20000 -2.480
61.22000 -1.758
61.24000 2.072
61.26000 2.994
61.28000 4.513
61.30000 2.875
61.32000 3.211
61.34000 2.318
61.36000 1.378
61.38000 3.846
61.40000 9.434
61.42000 9.938
61.44000 3.605
61.46000 2.960
61.48000 3.050
61.50000 3.880
61.52000 1.659
61.54000 1.408
61.56000 3.329
61.58000 2.746
61.60000 2.113
61.62000 1.409
61.64000 -2.453
61.66000 1.494
61.68000 5.847
61.70000 7.181
61.72000 5.437
61.74000 2.476
61.76000 5.636
61.78000 2.074
61.80000 -1.296
61.82000 1.972
61.84000 2.226
61.86000 4.517
61.88000 3.553
61.90000 -2.438
61.92000 0.679
61.94000 0.575
61.96000 4.804
61.98000 4.826
62.00000 5.488
62.02000 5.854
62.04000 4.696
62.06000 2.801
62.08000 3.477
62.10000 5.008
62.12000 4.878
62.14000 8.608
62.16000 6.317
62.18000 6.211
62.20000 4.650
62.22000 2.050
62.24000 1.678
62.26000 2.072
62.28000 1.385
62.30000 2.404
62.32000 3.985
62.34000 1.877
62.36000 0.976
62.38000 4.159
62.40000 3.660
62.42000 3.833
62.44000 2.016
62.46000 4.227
62.48000 4.411
62.50000 7.184
62.52000 1.808
62.54000 -2.132
62.56000 -2.158
62.58000 1.958
62.60000 3.316
62.62000 1.812
62.64000 1.539
62.66000 2.804
62.68000 -0.222
62.70000 0.102
62.72000 -0.207
62.74000 0.329
62.76000 4.681
62.78000 0.720
62.80000 2.297
62.82000 -0.281
62.84000 -1.646
62.86000 0.916
62.88000 2.075
62.90000 1.885
62.92000 1.841
62.94000 -0.156
62.96000 -0.460
62.98000 5.502
63.00000 1.858
63.02000 0.565
63.04000 -2.480
63.06000 -1.298
63.08000 1.690
63.10000 -0.226
63.12000 -0.693
63.14000 2.481
63.16000 3.378
63.18000 5.093
63.20000 2.939
63.22000 1.335
63.24000 5.119
63.26000 2.035
63.28000 -0.304
63.30000 1.954
63.32000 3.629
63.34000 0.886
63.36000 -0.925
63.38000 -0.545
63.40000 1.150
63.42000 1.602
63.44000 0.900
63.46000 1.421
63.48000 4.526
63.50000 4.724
63.52000 0.480
63.54000 -1.905
63.56000 -0.553
63.58000 1.231
63.60000 2.561
63.62000 3.609
63.64000 2.116
63.66000 1.474
63.68000 -0.549
63.70000 0.867
63.72000 1.417
63.74000 3.338
63.76000 3.197
63.78000 0.675
63.80000 0.409
63.82000 4.013
63.84000 4.685
63.86000 0.270
63.88000 1.866
63.90000 2.494
63.92000 -1.081
63.94000 -1.798
63.96000 0.336
63.98000 3.153
64.00000 4.593
64.02000 3.033
64.04000 4.528
64.06000 1.206
64.08000 2.467
64.10000 2.354
64.12000 5.641
64.14000 4.539
64.16000 1.879
64.18000 1.183
64.20000 -2.470
64.22000 -1.160
64.24000 6.192
64.26000 0.079
64.28000 -0.628
64.30000 1.055
64.32000 -0.581
64.34000 2.073
64.36000 1.826
64.38000 3.158
64.40000 2.289
64.42000 3.387
64.44000 2.776
64.46000 7.314
64.48000 3.234
64.50000 0.483
64.52000 2.771
64.54000 5.461
64.56000 3.037
64.58000 4.757
64.60000 1.422
64.62000 -0.557
64.64000 -2.265
64.66000 -1.858
64.68000 -0.195
64.70000 -0.422
64.72000 -0.169
64.74000 -0.769
64.76000 0.812
64.78000 0.213
64.80000 -0.036
64.82000 -0.925
64.84000 0.212
64.86000 -0.409
64.88000 -0.704
64.90000 2.733
64.92000 2.477
64.94000 1.793
64.96000 -0.525
64.98000 0.320
65.00000 3.598
65.02000 4.130
65.04000 2.056
65.06000 4.445
65.08000 3.248
65.10000 3.070
65.12000 3.888
65.14000 1.666
65.16000 3.375
65.18000 3.254
65.20000 4.545
65.22000 5.050
65.24000 4.448
65.26000 2.022
65.28000 1.415
65.30000 1.401
65.32000 1.250
65.34000 3.949
65.36000 2.545
65.38000 -2.458
65.40000 -1.033
65.42000 1.562
65.44000 2.166
65.46000 0.155
65.48000 0.042
65.50000 3.640
65.52000 4.799
65.54000 3.865
65.56000 2.350
65.58000 -1.158
65.60000 0.111
65.62000 -0.065
65.64000 -2.213
65.66000 -1.250
65.68000 -0.013
65.70000 -0.316
65.72000 -0.733
65.74000 1.835
65.76000 2.404
65.78000 -0.129
65.80000 -0.510
65.82000 3.530
65.84000 4.840
65.86000 3.001
65.88000 1.672
65.90000 2.355
65.92000 -0.193
65.94000 -2.461
65.96000 0.460
65.98000 2.452
66.00000 2.001
66.02000 1.180
66.04000 4.884
66.06000 1.456
66.08000 0.447
66.10000 2.090
66.12000 0.404
66.14000 0.749
66.16000 5.281
66.18000 5.568
66.20000 1.764
66.22000 1.244
66.24000 0.489
66.26000 -2.471
66.28000 -0.588
66.30000 3.018
66.32000 6.293
66.34000 2.165
66.36000 0.444
66.38000 3.885
66.40000 2.717
66.42000 -0.690
66.44000 1.800
66.46000 3.846
66.48000 3.853
66.50000 2.835
66.52000 0.678
66.54000 0.213
66.56000 -0.687
66.58000 -2.487
66.60000 2.624
66.62000 0.934
66.64000 4.101
66.66000 0.148
66.68000 -0.616
66.70000 2.036
66.72000 2.682
66.74000 2.773
66.76000 2.524
66.78000 2.060
66.80000 2.216
66.82000 3.485
66.84000 2.244
66.86000 1.621
66.88000 4.304
66.90000 1.326
66.92000 -1.873
66.94000 1.762
66.96000 2.118
66.98000 3.563
67.00000 5.670
67.02000 2.082
67.04000 1.298
67.06000 6.477
67.08000 -0.175
67.10000 -0.362
67.12000 -2.506
67.14000 0.677
67.16000 1.116
67.18000 2.033
67.20000 -0.440
67.22000 -0.512
67.24000 1.955
67.26000 4.164
67.28000 5.720
67.30000 4.100
67.32000 3.634
67.34000 0.155
67.36000 0.521
67.38000 1.702
67.40000 1.882
67.42000 2.715
67.44000 2.446
67.46000 0.630
67.48000 0.339
67.50000 0.969
67.52000 2.470
67.54000 -2.528
67.56000 -1.668
67.58000 2.839
67.60000 3.457
67.62000 2.245
67.64000 2.289
67.66000 2.851
67.68000 5.215
67.70000 6.861
67.72000 3.378
67.74000 3.055
67.76000 1.646
67.78000 4.683
67.80000 0.608
67.82000 -0.163
67.84000 2.294
67.86000 4.645
67.88000 7.542
67.90000 5.431
67.92000 3.353
67.94000 3.734
67.96000 4.377
67.98000 6.463
68.00000 5.477
68.02000 5.609
68.04000 5.167
68.06000 7.004
68.08000 4.875
68.10000 6.884
68.12000 6.814
68.14000 5.707
68.16000 5.517
68.18000 8.104
68.20000 6.731
68.22000 5.782
68.24000 6.411
68.26000 4.329
68.28000 8.902
68.30000 9.640
68.32000 8.372
68.34000 5.685
68.36000 7.427
68.38000 9.140
68.40000 10.111
68.42000 7.951
68.44000 8.518
68.46000 11.270
68.48000 14.972
68.50000 17.680
68.52000 18.577
68.54000 17.878
68.56000 16.184
68.58000 15.343
68.60000 12.296
68.62000 13.660
68.64000 16.315
68.66000 16.321
68.68000 15.597
68.70000 19.438
68.72000 17.974
68.74000 18.324
68.76000 23.240
68.78000 19.251
68.80000 21.147
68.82000 23.798
68.84000 22.392
68.86000 17.687
68.88000 21.355
68.90000 25.422
68.92000 25.994
68.94000 21.661
68.96000 18.724
68.98000 20.621
69.00000 20.477
69.02000 20.313
69.04000 22.297
69.06000 19.669
69.08000 25.068
69.10000 25.335
69.12000 21.386
69.14000 20.239
69.16000 22.436
69.18000 22.876
69.20000 18.635
69.22000 17.963
69.24000 15.964
69.26000 20.843
69.28000 18.778
69.30000 18.538
69.32000 19.191
69.34000 17.145
69.36000 14.731
69.38000 14.681
69.40000 11.664
69.42000 12.694
69.44000 15.566
69.46000 17.485
69.48000 15.996
69.50000 15.906
69.52000 16.390
69.54000 9.087
69.56000 8.090
69.58000 11.177
69.60000 9.362
69.62000 12.140
69.64000 13.673
69.66000 12.286
69.68000 9.567
69.70000 7.416
69.72000 6.289
69.74000 6.579
69.76000 7.119
69.78000 9.153
69.80000 7.431
69.82000 4.500
69.84000 3.693
69.86000 4.310
69.88000 4.954
69.90000 3.765
69.92000 1.239
69.94000 4.611
69.96000 4.717
69.98000 1.007
70.00000 3.905
70.02000 5.884
70.04000 4.468
70.06000 4.046
70.08000 5.676
70.10000 3.495
70.12000 3.195
70.14000 0.101
70.16000 0.211
70.18000 1.190
70.20000 -0.453
70.22000 3.313
70.24000 -1.632
70.26000 0.604
70.28000 0.247
70.30000 -0.707
70.32000 0.134
70.34000 3.279
70.36000 1.101
70.38000 0.620
70.40000 2.957
70.42000 4.144
70.44000 2.514
70.46000 2.939
70.48000 1.979
70.50000 2.443
70.52000 -1.045
70.54000 5.981
70.56000 3.495
70.58000 1.039
70.60000 2.045
70.62000 5.595
70.64000 4.368
70.66000 3.886
70.68000 5.117
70.70000 2.579
70.72000 0.391
70.74000 -2.420
70.76000 1.759
70.78000 2.146
70.80000 2.720
70.82000 -0.496
70.84000 -0.470
70.86000 -0.881
70.88000 0.114
70.90000 0.041
70.92000 3.781
70.94000 2.578
70.96000 -0.725
70.98000 3.688
71.00000 3.208
71.02000 0.703
71.04000 1.952
71.06000 -2.399
71.08000 0.571
71.10000 1.000
71.12000 0.738
71.14000 5.066
71.16000 4.690
71.18000 3.582
71.20000 2.323
71.22000 -0.819
71.24000 0.281
71.26000 1.843
71.28000 2.978
71.30000 -0.918
71.32000 3.151
71.34000 4.410
71.36000 3.538
71.38000 3.226
71.40000 2.221
71.42000 4.652
71.44000 2.647
71.46000 0.339
71.48000 0.223
71.50000 1.045
71.52000 -0.353
71.54000 -2.362
71.56000 1.600
71.58000 2.392
71.60000 3.594
71.62000 2.351
71.64000 0.530
71.66000 -0.926
71.68000 1.309
71.70000 3.970
71.72000 4.902
71.74000 1.315
71.76000 -1.569
71.78000 -2.341
71.80000 4.202
71.82000 4.226
71.84000 5.609
71.86000 3.888
71.88000 3.073
71.90000 1.592
71.92000 3.906
71.94000 4.507
71.96000 3.159
71.98000 3.081
72.00000 4.050
72.02000 5.966
72.04000 3.469
72.06000 0.271
72.08000 -2.318
72.10000 0.153
72.12000 0.856
72.14000 -1.503
72.16000 4.255
72.18000 5.056
72.20000 6.390
72.22000 8.278
72.24000 6.429
72.26000 0.209
72.28000 2.060
72.30000 -0.899
72.32000 2.359
72.34000 2.832
72.36000 4.223
72.38000 1.615
72.40000 5.457
72.42000 4.776
72.44000 4.845
72.46000 -0.584
72.48000 0.766
72.50000 1.964
72.52000 -0.290
72.54000 2.927
72.56000 5.274
72.58000 5.332
72.60000 3.360
72.62000 4.751
72.64000 8.423
72.66000 1.951
72.68000 -0.067
72.70000 -2.319
72.72000 0.449
72.74000 0.077
72.76000 3.464
72.78000 6.223
72.80000 3.683
72.82000 2.136
72.84000 -1.346
72.86000 1.940
72.88000 2.052
72.90000 2.533
72.92000 1.468
72.94000 -1.941
72.96000 1.417
72.98000 0.780
73.00000 -1.220
73.02000 -1.519
73.04000 0.059
73.06000 0.783
73.08000 2.749
73.10000 5.245
73.12000 4.748
73.14000 3.616
73.16000 2.767
73.18000 3.734
73.20000 4.627
73.22000 0.690
73.24000 0.612
73.26000 8.375
73.28000 6.548
73.30000 0.957
73.32000 1.246
73.34000 0.810
73.36000 2.974
73.38000 2.818
73.40000 2.020
73.42000 0.823
73.44000 4.496
73.46000 3.528
73.48000 0.049
73.50000 5.018
73.52000 4.891
73.54000 2.324
73.56000 2.628
73.58000 5.822
73.60000 3.563
73.62000 -0.703
73.64000 0.511
73.66000 0.718
73.68000 3.084
73.70000 4.042
73.72000 4.316
73.74000 6.744
73.76000 10.135
73.78000 7.483
73.80000 1.112
73.82000 2.070
73.84000 4.496
73.86000 2.478
73.88000 -0.205
73.90000 2.106
73.92000 4.033
73.94000 -0.942
73.96000 -0.995
73.98000 1.634
74.00000 4.433
74.02000 6.597
74.04000 5.548
74.06000 7.191
74.08000 4.221
74.10000 4.226
74.12000 -0.535
74.14000 -2.235
74.16000 5.041
74.18000 9.456
74.20000 8.239
74.22000 1.084
74.24000 2.298
74.26000 10.429
74.28000 8.341
74.30000 6.150
74.32000 0.481
74.34000 -0.689
74.36000 -0.850
74.38000 2.027
74.40000 3.808
74.42000 5.332
74.44000 -2.031
74.46000 -1.278
74.48000 1.512
74.50000 6.961
74.52000 3.596
74.54000 3.523
74.56000 -1.339
74.58000 -0.424
74.60000 0.813
74.62000 0.055
74.64000 1.240
74.66000 0.523
74.68000 2.688
74.70000 -2.275
74.72000 -0.001
74.74000 3.852
74.76000 3.330
74.78000 -1.265
74.80000 1.843
74.82000 2.962
74.84000 4.148
74.86000 -0.044
74.88000 -1.103
74.90000 4.061
74.92000 3.467
74.94000 5.153
74.96000 2.210
74.98000 -0.685
75.00000 0.040
75.02000 3.723
75.04000 7.699
75.06000 4.870
75.08000 1.820
75.10000 3.777
75.12000 2.348
75.14000 0.605
75.16000 2.991
75.18000 1.620
75.20000 0.802
75.22000 -0.727
75.24000 3.049
75.26000 3.338
75.28000 -0.263
75.30000 5.336
75.32000 2.706
75.34000 -2.219
75.36000 -1.763
75.38000 -1.093
75.40000 -0.043
75.42000 3.723
75.44000 3.151
75.46000 0.554
75.48000 1.008
75.50000 -2.144
75.52000 4.961
75.54000 4.864
75.56000 4.382
75.58000 3.422
75.60000 1.487
75.62000 7.261
75.64000 3.667
75.66000 4.496
75.68000 7.737
75.70000 4.101
75.72000 4.501
75.74000 7.178
75.76000 0.872
75.78000 -1.719
75.80000 1.309
75.82000 2.528
75.84000 0.152
75.86000 4.380
75.88000 4.263
75.90000 3.536
75.92000 1.037
75.94000 4.968
75.96000 4.171
75.98000 3.331
76.00000 3.120
76.02000 -0.039
76.04000 1.029
76.06000 4.572
76.08000 4.762
76.10000 4.142
76.12000 1.981
76.14000 5.371
76.16000 4.793
76.18000 2.885
76.20000 6.872
76.22000 3.746
76.24000 -2.287
76.26000 -1.739
76.28000 2.934
76.30000 -1.398
76.32000 1.141
76.34000 5.606
76.36000 5.464
76.38000 -1.250
76.40000 -2.289
76.42000 -0.282
76.44000 -1.528
76.46000 4.634
76.48000 4.640
76.50000 2.651
76.52000 5.031
76.54000 4.887
76.56000 2.990
76.58000 4.188
76.60000 1.029
76.62000 0.466
76.64000 -0.844
76.66000 -2.291
76.68000 4.896
76.70000 2.292
76.72000 0.877
76.74000 1.762
76.76000 2.046
76.78000 2.493
76.80000 4.948
76.82000 -1.180
76.84000 0.785
76.86000 4.096
76.88000 0.583
76.90000 2.189
76.92000 2.440
76.94000 2.750
76.96000 2.261
76.98000 3.180
77.00000 1.836
77.02000 3.134
77.04000 2.259
77.06000 1.532
77.08000 1.080
77.10000 5.012
77.12000 6.668
77.14000 4.734
77.16000 7.186
77.18000 4.203
77.20000 0.842
77.22000 2.628
77.24000 1.865
77.26000 -0.657
77.28000 0.142
77.30000 2.001
77.32000 -0.099
77.34000 2.765
77.36000 2.654
77.38000 -0.785
77.40000 -1.051
77.42000 3.158
77.44000 4.680
77.46000 2.673
77.48000 0.100
77.50000 5.523
77.52000 7.487
77.54000 1.242
77.56000 -2.305
77.58000 -0.404
77.60000 2.829
77.62000 2.367
77.64000 3.301
77.66000 2.172
77.68000 5.839
77.70000 3.253
77.72000 0.490
77.74000 1.421
77.76000 5.044
77.78000 3.569
77.80000 6.974
77.82000 6.534
77.84000 5.224
77.86000 3.826
77.88000 3.340
77.90000 2.349
77.92000 1.309
77.94000 0.811
77.96000 -1.593
77.98000 -2.307
78.00000 -0.812
78.02000 1.715
78.04000 0.119
78.06000 3.811
78.08000 7.493
78.10000 4.863
78.12000 5.005
78.14000 2.243
78.16000 1.653
78.18000 0.106
78.20000 4.458
78.22000 2.989
78.24000 -0.413
78.26000 -0.075
78.28000 0.012
78.30000 3.325
78.32000 3.368
78.34000 1.008
78.36000 2.268
78.38000 -1.825
78.40000 0.936
78.42000 3.775
78.44000 2.566
78.46000 0.861
78.48000 -1.291
78.50000 1.548
78.52000 0.729
78.54000 2.576
78.56000 6.211
78.58000 7.376
78.60000 5.817
78.62000 7.703
78.64000 5.133
78.66000 2.018
78.68000 0.386
78.70000 3.020
78.72000 5.309
78.74000 2.904
78.76000 8.381
78.78000 8.999
78.80000 5.476
78.82000 3.626
78.84000 -0.802
78.86000 3.611
78.88000 1.860
78.90000 2.661
78.92000 6.590
78.94000 11.538
78.96000 7.062
78.98000 4.264
79.00000 8.904
79.02000 3.511
79.04000 -2.309
79.06000 2.544
79.08000 4.184
79.10000 3.893
79.12000 5.578
79.14000 3.295
79.16000 7.021
79.18000 6.297
79.20000 4.230
79.22000 2.313
79.24000 3.209
79.26000 2.186
79.28000 4.115
79.30000 -0.534
79.32000 0.840
79.34000 1.592
79.36000 4.243
79.38000 1.083
79.40000 2.913
79.42000 -2.311
79.44000 -0.812
79.46000 3.083
79.48000 -0.986
79.50000 0.915
79.52000 7.772
79.54000 3.787
79.56000 1.405
79.58000 -1.605
79.60000 2.027
79.62000 3.785
79.64000 0.114
79.66000 -0.423
79.68000 6.767
79.70000 5.329
79.72000 6.330
79.74000 4.932
79.76000 8.908
79.78000 6.277
79.80000 5.632
79.82000 1.598
79.84000 0.081
79.86000 -0.311
79.88000 3.180
79.90000 7.669
79.92000 6.292
79.94000 2.631
79.96000 -0.338
79.98000 4.380
80.00000 6.987
80.02000 5.567
80.04000 4.739
80.06000 3.481
80.08000 -0.308
80.10000 -2.364
80.12000 1.586
80.14000 2.463
80.16000 5.265
80.18000 3.557
80.20000 1.566
80.22000 0.791
80.24000 11.468
80.26000 9.074
80.28000 6.359
80.30000 3.845
80.32000 3.217
80.34000 1.473
80.36000 1.818
80.38000 -2.059
80.40000 4.306
80.42000 5.683
80.44000 2.449
80.46000 0.432
80.48000 1.479
80.50000 0.161
80.52000 -1.474
80.54000 5.171
80.56000 1.084
80.58000 -1.593
80.60000 0.893
80.62000 3.305
80.64000 1.481
80.66000 -1.863
80.68000 -0.804
80.70000 6.655
80.72000 2.004
80.74000 4.474
80.76000 3.840
80.78000 -0.255
80.80000 1.320
80.82000 0.460
80.84000 1.955
80.86000 -2.406
80.88000 0.612
80.90000 4.230
80.92000 2.067
80.94000 1.101
80.96000 3.151
80.98000 5.813
81.00000 4.692
81.02000 2.889
81.04000 6.254
81.06000 1.949
81.08000 1.232
81.10000 2.976
81.12000 5.624
81.14000 7.140
81.16000 1.669
81.18000 1.227
81.20000 0.400
81.22000 4.741
81.24000 2.271
81.26000 1.375
81.28000 4.135
81.30000 1.560
81.32000 4.206
81.34000 5.074
81.36000 4.082
81.38000 0.455
81.40000 -0.921
81.42000 -2.452
81.44000 -0.232
81.46000 -2.166
81.48000 0.598
81.50000 5.866
81.52000 7.332
81.54000 4.489
81.56000 3.207
81.58000 6.004
81.60000 1.504
81.62000 -0.963
81.64000 1.600
81.66000 6.503
81.68000 6.196
81.70000 3.061
81.72000 3.035
81.74000 4.839
81.76000 4.739
81.78000 4.052
81.80000 6.459
81.82000 8.173
81.84000 7.719
81.86000 6.465
81.88000 1.115
81.90000 2.027
81.92000 0.184
81.94000 1.444
81.96000 2.874
81.98000 3.458
82.00000 4.218
82.02000 6.296
82.04000 8.947
82.06000 4.272
82.08000 5.796
82.10000 9.821
82.12000 6.387
82.14000 4.325
82.16000 7.654
82.18000 6.972
82.20000 5.822
82.22000 6.606
82.24000 2.289
82.26000 2.735
82.28000 8.587
82.30000 9.025
82.32000 10.777
82.34000 11.937
82.36000 14.836
82.38000 13.390
82.40000 10.866
82.42000 14.336
82.44000 17.536
82.46000 20.919
82.48000 17.877
82.50000 13.655
82.52000 13.021
82.54000 15.443
82.56000 11.632
82.58000 11.794
82.60000 18.247
82.62000 15.977
82.64000 16.869
82.66000 19.657
82.68000 18.368
82.70000 17.301
82.72000 19.205
82.74000 21.508
82.76000 18.862
82.78000 23.876
82.80000 23.359
82.82000 18.868
82.84000 20.842
82.86000 19.478
82.88000 21.476
82.90000 20.731
82.92000 26.724
82.94000 27.587
82.96000 26.701
82.98000 24.065
83.00000 25.966
83.02000 25.274
83.04000 23.791
83.06000 23.868
83.08000 25.494
83.10000 21.008
83.12000 25.075
83.14000 29.813
83.16000 27.518
83.18000 21.495
83.20000 26.232
83.22000 25.616
83.24000 23.816
83.26000 26.495
83.28000 29.825
83.30000 33.468
83.32000 32.707
83.34000 32.065
83.36000 29.226
83.38000 29.363
83.40000 26.732
83.42000 29.374
83.44000 29.717
83.46000 26.772
83.48000 26.341
83.50000 26.375
83.52000 29.621
83.54000 23.036
83.56000 19.150
83.58000 25.623
83.60000 29.430
83.62000 28.322
83.64000 27.550
83.66000 27.186
83.68000 23.019
83.70000 18.575
83.72000 21.590
83.74000 23.342
83.76000 20.197
83.78000 20.702
83.80000 17.500
83.82000 12.480
83.84000 18.819
83.86000 18.508
83.88000 14.633
83.90000 15.942
83.92000 16.941
83.94000 16.509
83.96000 16.002
83.98000 13.998
84.00000 18.696
84.02000 15.519
84.04000 15.611
84.06000 12.718
84.08000 8.905
84.10000 11.445
84.12000 10.015
84.14000 9.069
84.16000 15.844
84.18000 15.411
84.20000 11.820
84.22000 11.613
84.24000 14.904
84.26000 8.662
84.28000 5.998
84.30000 8.910
84.32000 9.644
84.34000 4.845
84.36000 7.882
84.38000 8.079
84.40000 1.971
84.42000 3.042
84.44000 1.617
84.46000 3.458
84.48000 4.487
84.50000 8.096
84.52000 4.756
84.54000 0.810
84.56000 4.964
84.58000 9.733
84.60000 7.187
84.62000 1.975
84.64000 -1.529
84.66000 1.171
84.68000 0.491
84.70000 0.696
84.72000 0.949
84.74000 -0.809
84.76000 -1.587
84.78000 1.683
84.80000 2.429
84.82000 2.097
84.84000 4.292
84.86000 4.304
84.88000 1.219
84.90000 5.733
84.92000 3.524
84.94000 1.252
84.96000 0.732
84.98000 1.554
85.00000 4.081
85.02000 0.233
85.04000 0.642
85.06000 -0.520
85.08000 0.806
85.10000 -2.012
85.12000 0.663
85.14000 -0.703
85.16000 0.377
85.18000 0.504
85.20000 -0.248
85.22000 1.161
85.24000 -0.403
85.26000 4.023
85.28000 7.285
85.30000 5.307
85.32000 0.572
85.34000 -2.392
85.36000 -1.191
85.38000 5.005
85.40000 0.815
85.42000 1.202
85.44000 3.232
85.46000 7.879
85.48000 3.929
85.50000 1.842
85.52000 6.673
85.54000 -0.918
85.56000 1.418
85.58000 1.620
85.60000 -2.368
85.62000 -1.362
85.64000 1.206
85.66000 -0.342
85.68000 1.390
85.70000 5.121
85.72000 2.704
85.74000 3.581
85.76000 2.601
85.78000 -1.895
85.80000 -0.097
85.82000 2.917
85.84000 0.566
85.86000 0.948
85.88000 0.497
85.90000 1.947
85.92000 2.321
85.94000 -2.381
85.96000 -2.071
85.98000 1.603
86.00000 0.078
86.02000 -0.233
86.04000 0.087
86.06000 -1.933
86.08000 1.831
86.10000 7.181
86.12000 8.422
86.14000 6.472
86.16000 5.773
86.18000 1.352
86.20000 -1.021
86.22000 2.261
86.24000 1.610
86.26000 2.968
86.28000 6.193
86.30000 1.294
86.32000 -0.403
86.34000 0.656
86.36000 -2.395
86.38000 1.646
86.40000 3.313
86.42000 1.180
86.44000 -2.327
86.46000 5.118
86.48000 4.225
86.50000 3.466
86.52000 3.977
86.54000 4.318
86.56000 6.440
86.58000 4.301
86.60000 -2.039
86.62000 -2.128
86.64000 0.266
86.66000 1.878
86.68000 7.484
86.70000 9.898
86.72000 2.472
86.74000 -2.409
86.76000 1.574
86.78000 6.759
86.80000 8.951
86.82000 11.484
86.84000 9.575
86.86000 10.646
86.88000 11.311
86.90000 11.216
86.92000 6.506
86.94000 8.383
86.96000 11.307
86.98000 9.519
87.00000 15.073
87.02000 13.962
87.04000 11.698
87.06000 11.734
87.08000 12.637
87.10000 13.483
87.12000 13.576
87.14000 13.956
87.16000 12.323
87.18000 18.990
87.20000 17.771
87.22000 15.368
87.24000 14.063
87.26000 18.177
87.28000 19.490
87.30000 19.001
87.32000 16.452
87.34000 13.232
87.36000 22.198
87.38000 22.699
87.40000 23.580
87.42000 22.195
87.44000 20.652
87.46000 21.120
87.48000 23.569
87.50000 16.885
87.52000 22.088
87.54000 24.033
87.56000 28.571
87.58000 30.887
87.60000 26.331
87.62000 24.697
87.64000 27.342
87.66000 34.046
87.68000 23.890
87.70000 26.516
87.72000 33.960
87.74000 32.078
87.76000 28.477
87.78000 25.769
87.80000 26.333
87.82000 26.104
87.84000 20.178
87.86000 25.254
87.88000 25.951
87.90000 25.449
87.92000 26.008
87.94000 28.261
87.96000 24.370
87.98000 23.380
88.00000 20.150
88.02000 19.485
88.04000 23.998
88.06000 27.085
88.08000 27.748
88.10000 23.514
88.12000 27.291
88.14000 22.167
88.16000 22.626
88.18000 17.831
88.20000 20.983
88.22000 14.965
88.24000 15.850
88.26000 20.399
88.28000 22.787
88.30000 20.222
88.32000 17.860
88.34000 17.578
88.36000 12.815
88.38000 9.716
88.40000 13.689
88.42000 17.577
88.44000 14.937
88.46000 7.531
88.48000 9.267
88.50000 13.654
88.52000 13.319
88.54000 14.691
88.56000 14.561
88.58000 9.660
88.60000 15.563
88.62000 5.085
88.64000 4.736
88.66000 6.439
88.68000 7.520
88.70000 13.419
88.72000 13.063
88.74000 11.588
88.76000 6.172
88.78000 5.492
88.80000 7.005
88.82000 5.439
88.84000 4.979
88.86000 3.804
88.88000 6.703
88.90000 8.577
88.92000 3.414
88.94000 4.331
88.96000 6.503
88.98000 8.279
89.00000 10.037
89.02000 6.647
89.04000 6.656
89.06000 -1.863
89.08000 -1.694
89.10000 2.076
89.12000 2.239
89.14000 2.482
89.16000 3.630
89.18000 2.782
89.20000 1.588
89.22000 4.505
89.24000 5.351
89.26000 3.710
89.28000 2.203
89.30000 3.902
89.32000 8.049
89.34000 8.251
89.36000 10.839
89.38000 8.344
89.40000 3.525
89.42000 5.010
89.44000 2.617
89.46000 3.618
89.48000 -0.293
89.50000 0.915
89.52000 4.941
89.54000 1.708
89.56000 2.766
89.58000 1.365
89.60000 1.281
89.62000 1.089
89.64000 4.943
89.66000 4.770
89.68000 5.285
89.70000 2.860
89.72000 6.786
89.74000 7.504
89.76000 5.961
89.78000 0.448
89.80000 2.908
89.82000 4.822
89.84000 5.708
89.86000 10.312
89.88000 4.344
89.90000 -2.155
89.92000 -2.048
89.94000 -0.138
89.96000 2.131
89.98000 5.376
90.00000 5.632
90.02000 3.566
90.04000 2.397
90.06000 0.843
90.08000 -0.123
90.10000 2.770
90.12000 5.340
90.14000 0.721
90.16000 4.517
90.18000 4.524
90.20000 6.975
90.22000 4.105
90.24000 4.379
90.26000 5.618
90.28000 7.185
90.30000 4.312
90.32000 1.166
90.34000 5.083
90.36000 6.054
90.38000 1.843
90.40000 3.853
90.42000 5.796
90.44000 1.001
90.46000 1.918
90.48000 5.063
90.50000 3.225
90.52000 3.217
90.54000 1.859
90.56000 7.206
90.58000 8.668
90.60000 5.120
90.62000 -0.661
90.64000 1.776
90.66000 3.394
90.68000 0.817
90.70000 1.118
90.72000 5.158
90.74000 3.514
90.76000 7.927
90.78000 6.444
90.80000 6.091
90.82000 1.964
90.84000 0.740
90.86000 2.959
90.88000 1.832
90.90000 8.146
90.92000 1.462
90.94000 2.615
90.96000 3.266
90.98000 5.662
91.00000 4.636
91.02000 5.864
91.04000 2.800
91.06000 2.546
91.08000 4.299
91.10000 10.746
91.12000 10.150
91.14000 8.818
91.16000 8.966
91.18000 8.043
91.20000 8.344
91.22000 6.351
91.24000 2.517
91.26000 1.667
91.28000 2.823
91.30000 2.523
91.32000 2.038
91.34000 2.703
91.36000 2.740
91.38000 7.475
91.40000 9.792
91.42000 8.456
91.44000 8.356
91.46000 5.120
91.48000 7.209
91.50000 9.384
91.52000 5.497
91.54000 12.010
91.56000 8.602
91.58000 4.722
91.60000 -0.904
91.62000 5.466
91.64000 9.187
91.66000 7.221
91.68000 8.310
91.70000 8.589
91.72000 6.710
91.74000 5.157
91.76000 8.293
91.78000 5.186
91.80000 5.359
91.82000 10.172
91.84000 5.263
91.86000 6.979
91.88000 10.185
91.90000 6.381
91.92000 2.972
91.94000 5.263
91.96000 6.671
91.98000 7.416
92.00000 3.433
92.02000 2.939
92.04000 5.058
92.06000 -1.323
92.08000 -2.081
92.10000 2.293
92.12000 3.078
92.14000 6.366
92.16000 11.450
92.18000 9.168
92.20000 5.264
92.22000 5.569
92.24000 7.503
92.26000 9.179
92.28000 8.705
92.30000 10.140
92.32000 6.198
92.34000 5.289
92.36000 7.713
92.38000 7.500
92.40000 8.269
92.42000 4.953
92.44000 6.348
92.46000 6.921
92.48000 3.746
92.50000 4.366
92.52000 6.651
92.54000 6.676
92.56000 5.288
92.58000 4.880
92.60000 8.392
92.62000 6.054
92.64000 3.862
92.66000 3.882
92.68000 2.849
92.70000 4.068
92.72000 8.173
92.74000 7.797
92.76000 6.561
92.78000 4.826
92.80000 3.888
92.82000 2.669
92.84000 2.484
92.86000 3.731
92.88000 4.540
92.90000 4.097
92.92000 6.771
92.94000 8.131
92.96000 10.838
92.98000 10.705
93.00000 5.680
93.02000 2.021
93.04000 0.315
93.06000 2.492
93.08000 8.099
93.10000 6.602
93.12000 3.473
93.14000 5.367
93.16000 4.999
93.18000 -2.178
93.20000 -0.644
93.22000 4.809
93.24000 6.383
93.26000 2.750
93.28000 2.955
93.30000 2.435
93.32000 7.315
93.34000 9.759
93.36000 9.085
93.38000 7.542
93.40000 2.093
93.42000 0.077
93.44000 3.164
93.46000 7.837
93.48000 5.561
93.50000 8.282
93.52000 5.819
93.54000 2.928
93.56000 9.786
93.58000 10.055
93.60000 7.091
93.62000 4.667
93.64000 0.091
93.66000 4.570
93.68000 5.289
93.70000 5.051
93.72000 5.461
93.74000 5.602
93.76000 5.017
93.78000 2.769
93.80000 4.055
93.82000 -0.036
93.84000 3.271
93.86000 0.783
93.88000 -2.209
93.90000 -0.740
93.92000 -1.427
93.94000 -0.442
93.96000 -0.836
93.98000 -0.007
94.00000 3.045
94.02000 3.115
94.04000 2.030
94.06000 3.585
94.08000 2.118
94.10000 -1.308
94.12000 -1.381
94.14000 1.915
94.16000 4.356
94.18000 1.910
94.20000 -0.217
94.22000 1.985
94.24000 2.829
94.26000 2.281
94.28000 3.430
94.30000 5.013
94.32000 5.674
94.34000 3.182
94.36000 2.776
94.38000 4.477
94.40000 4.582
94.42000 4.024
94.44000 -0.640
94.46000 -2.246
94.48000 1.380
94.50000 -0.669
94.52000 0.370
94.54000 2.103
94.56000 0.100
94.58000 2.780
94.60000 0.827
94.62000 -0.434
94.64000 1.979
94.66000 4.887
94.68000 0.608
94.70000 1.385
94.72000 6.324
94.74000 5.790
94.76000 2.204
94.78000 3.820
94.80000 -0.260
94.82000 -1.480
94.84000 -1.034
94.86000 2.293
94.88000 2.816
94.90000 5.301
94.92000 4.953
94.94000 3.973
94.96000 1.472
94.98000 0.936
95.00000 8.514
95.02000 8.674
95.04000 3.900
95.06000 -1.598
95.08000 -0.546
95.10000 -1.963
95.12000 -0.399
95.14000 0.066
95.16000 2.166
95.18000 3.907
95.20000 6.051
95.22000 4.152
95.24000 3.831
95.26000 4.218
95.28000 2.427
95.30000 4.971
95.32000 4.640
95.34000 7.080
95.36000 7.219
95.38000 7.359
95.40000 3.154
95.42000 2.718
95.44000 0.060
95.46000 1.171
95.48000 3.805
95.50000 5.782
95.52000 4.259
95.54000 -0.556
95.56000 3.507
95.58000 4.762
95.60000 1.676
95.62000 2.411
95.64000 3.422
95.66000 0.805
95.68000 0.355
95.70000 2.182
95.72000 0.501
95.74000 4.591
95.76000 3.438
95.78000 0.009
95.80000 2.761
95.82000 1.018
95.84000 4.098
95.86000 5.729
95.88000 2.910
95.90000 0.418
95.92000 1.626
95.94000 2.633
95.96000 4.178
95.98000 6.617
96.00000 6.014
96.02000 8.310
96.04000 4.258
96.06000 0.703
96.08000 0.079
96.10000 -0.240
96.12000 -1.174
96.14000 0.174
96.16000 0.878
96.18000 3.220
96.20000 5.238
96.22000 -2.200
96.24000 -1.058
96.26000 -1.184
96.28000 0.355
96.30000 2.929
96.32000 0.316
96.34000 5.773
96.36000 10.766
96.38000 12.407
96.40000 8.433
96.42000 8.011
96.44000 3.347
96.46000 0.008
96.48000 0.602
96.50000 -2.177
96.52000 1.513
96.54000 6.703
96.56000 8.856
96.58000 8.774
96.60000 4.897
96.62000 1.196
96.64000 0.284
96.66000 -0.376
96.68000 -2.168
96.70000 -1.728
96.72000 3.523
96.74000 1.831
96.76000 9.316
96.78000 10.934
96.80000 8.495
96.82000 3.038
96.84000 3.025
96.86000 9.878
96.88000 8.430
96.90000 8.315
96.92000 1.918
96.94000 10.220
96.96000 3.724
96.98000 7.310
97.00000 9.095
97.02000 4.187
97.04000 3.416
97.06000 4.689
97.08000 8.255
97.10000 7.341
97.12000 4.011
97.14000 9.469
97.16000 6.429
97.18000 2.942
97.20000 0.371
97.22000 0.585
97.24000 7.258
97.26000 7.680
97.28000 5.282
97.30000 7.710
97.32000 1.846
97.34000 1.401
97.36000 6.543
97.38000 5.013
97.40000 6.661
97.42000 7.572
97.44000 -0.928
97.46000 5.551
97.48000 4.614
97.50000 -2.166
97.52000 3.272
97.54000 3.554
97.56000 1.554
97.58000 2.691
97.60000 2.229
97.62000 3.601
97.64000 4.078
97.66000 8.754
97.68000 1.772
97.70000 9.627
97.72000 14.577
97.74000 9.841
97.76000 4.395
97.78000 3.542
97.80000 0.347
97.82000 6.855
97.84000 10.956
97.86000 7.091
97.88000 8.038
97.90000 1.343
97.92000 6.853
97.94000 13.411
97.96000 8.976
97.98000 11.323
98.00000 9.129
98.02000 4.692
98.04000 5.551
98.06000 1.779
98.08000 -0.765
98.10000 1.587
98.12000 0.827
98.14000 5.709
98.16000 14.478
98.18000 13.717
98.20000 5.216
98.22000 2.454
98.24000 5.653
98.26000 4.319
98.28000 3.378
98.30000 2.257
98.32000 9.904
98.34000 6.020
98.36000 1.010
98.38000 5.201
98.40000 2.366
98.42000 0.121
98.44000 -2.113
98.46000 4.632
98.48000 10.883
98.50000 13.164
98.52000 9.735
98.54000 7.638
98.56000 3.210
98.58000 1.539
98.60000 1.065
98.62000 4.069
98.64000 4.622
98.66000 12.024
98.68000 3.513
98.70000 8.308
98.72000 1.644
98.74000 7.565
98.76000 7.796
98.78000 2.804
98.80000 5.309
98.82000 11.708
98.84000 16.183
98.86000 10.072
98.88000 11.679
98.90000 3.963
98.92000 0.852
98.94000 4.709
98.96000 6.299
98.98000 4.228
99.00000 5.265
99.02000 5.983
99.04000 2.149
99.06000 7.363
99.08000 2.015
99.10000 9.501
99.12000 12.590
99.14000 4.563
99.16000 7.972
99.18000 7.810
99.20000 6.678
99.22000 6.970
99.24000 7.008
99.26000 2.606
99.28000 9.413
99.30000 4.429
99.32000 11.924
99.34000 21.952
99.36000 10.819
99.38000 8.360
99.40000 11.050
99.42000 12.721
99.44000 14.542
99.46000 10.703
99.48000 6.905
99.50000 17.445
99.52000 14.048
99.54000 18.423
99.56000 11.113
99.58000 11.974
99.60000 6.048
99.62000 -3.265
99.64000 3.806
99.66000 2.847
99.68000 7.664
99.70000 2.707
99.72000 -2.096
99.74000 4.770
99.76000 9.358
99.78000 5.455
99.80000 2.912
99.82000 5.873
99.84000 11.744
99.86000 13.089
99.88000 4.161
99.90000 1.619
99.92000 3.112
99.94000 -2.265
99.96000 -2.315
99.98000 0.000
