'Id: "0011388" Comment: "Integrate frame 0011388_Au-Ir-Rh_Rh-rich_XRD-Mapping-073-0000.gfrmwith cursor Wedge Cursor #5" Operator: "B?rgel" Anode: "Cu" Wavelength: "1.5406" Scantype: "2Theta (TwoTheta)" TimePerStep: "1" X: "36" Y: "-22.5" Z: "5.95" 
10.00000 0.000
10.02000 -3.383
10.04000 1.274
10.06000 9.587
10.08000 11.900
10.10000 14.551
10.12000 13.145
10.14000 1.292
10.16000 -3.326
10.18000 10.894
10.20000 19.560
10.22000 13.810
10.24000 12.003
10.26000 13.869
10.28000 14.598
10.30000 16.483
10.32000 17.906
10.34000 25.896
10.36000 24.013
10.38000 16.704
10.40000 4.815
10.42000 17.108
10.44000 20.655
10.46000 19.336
10.48000 19.862
10.50000 22.561
10.52000 18.930
10.54000 18.299
10.56000 13.087
10.58000 10.864
10.60000 14.247
10.62000 21.344
10.64000 10.707
10.66000 17.206
10.68000 14.985
10.70000 12.508
10.72000 15.621
10.74000 22.566
10.76000 22.864
10.78000 22.924
10.80000 18.949
10.82000 24.846
10.84000 22.272
10.86000 15.974
10.88000 27.047
10.90000 35.433
10.92000 28.040
10.94000 26.604
10.96000 23.777
10.98000 26.916
11.00000 17.480
11.02000 21.487
11.04000 21.995
11.06000 22.583
11.08000 27.307
11.10000 22.111
11.12000 18.565
11.14000 23.098
11.16000 20.971
11.18000 22.874
11.20000 22.043
11.22000 26.365
11.24000 39.792
11.26000 33.953
11.28000 26.118
11.30000 38.508
11.32000 38.865
11.34000 25.298
11.36000 28.706
11.38000 34.664
11.40000 33.577
11.42000 44.036
11.44000 27.824
11.46000 20.461
11.48000 34.019
11.50000 29.344
11.52000 30.501
11.54000 40.478
11.56000 31.401
11.58000 36.941
11.60000 41.110
11.62000 41.367
11.64000 31.997
11.66000 31.213
11.68000 33.813
11.70000 29.898
11.72000 25.224
11.74000 31.843
11.76000 37.512
11.78000 34.867
11.80000 32.561
11.82000 31.080
11.84000 31.988
11.86000 35.285
11.88000 47.478
11.90000 41.944
11.92000 34.022
11.94000 37.526
11.96000 33.427
11.98000 35.350
12.00000 38.740
12.02000 25.608
12.04000 32.229
12.06000 39.212
12.08000 41.737
12.10000 44.973
12.12000 34.280
12.14000 40.428
12.16000 42.722
12.18000 45.377
12.20000 39.439
12.22000 27.901
12.24000 29.629
12.26000 34.785
12.28000 30.490
12.30000 34.334
12.32000 44.635
12.34000 42.067
12.36000 31.883
12.38000 24.053
12.40000 24.655
12.42000 33.218
12.44000 42.131
12.46000 41.740
12.48000 37.042
12.50000 39.473
12.52000 43.918
12.54000 46.859
12.56000 42.378
12.58000 33.479
12.60000 35.527
12.62000 44.784
12.64000 36.900
12.66000 29.982
12.68000 30.198
12.70000 37.303
12.72000 51.075
12.74000 39.461
12.76000 45.530
12.78000 49.014
12.80000 51.462
12.82000 42.239
12.84000 42.652
12.86000 37.921
12.88000 28.561
12.90000 23.155
12.92000 29.568
12.94000 35.508
12.96000 34.043
12.98000 40.347
13.00000 45.578
13.02000 49.210
13.04000 46.297
13.06000 39.031
13.08000 41.792
13.10000 41.483
13.12000 30.331
13.14000 30.918
13.16000 35.687
13.18000 32.251
13.20000 34.248
13.22000 32.091
13.24000 37.715
13.26000 36.706
13.28000 33.032
13.30000 31.155
13.32000 31.633
13.34000 31.066
13.36000 32.990
13.38000 28.256
13.40000 21.904
13.42000 34.323
13.44000 32.771
13.46000 34.505
13.48000 35.575
13.50000 37.716
13.52000 40.499
13.54000 34.188
13.56000 45.309
13.58000 46.140
13.60000 44.456
13.62000 35.081
13.64000 28.041
13.66000 31.066
13.68000 36.735
13.70000 26.341
13.72000 25.816
13.74000 25.073
13.76000 33.374
13.78000 34.443
13.80000 30.963
13.82000 33.174
13.84000 30.473
13.86000 32.619
13.88000 30.050
13.90000 37.382
13.92000 30.461
13.94000 31.352
13.96000 36.697
13.98000 36.234
14.00000 23.365
14.02000 24.452
14.04000 27.984
14.06000 36.606
14.08000 39.266
14.10000 36.115
14.12000 38.340
14.14000 36.815
14.16000 35.188
14.18000 22.539
14.20000 29.120
14.22000 38.191
14.24000 35.364
14.26000 35.548
14.28000 32.809
14.30000 32.864
14.32000 34.072
14.34000 36.225
14.36000 22.522
14.38000 13.807
14.40000 22.403
14.42000 37.170
14.44000 41.779
14.46000 47.207
14.48000 32.852
14.50000 24.592
14.52000 35.491
14.54000 31.147
14.56000 24.042
14.58000 27.708
14.60000 32.677
14.62000 24.824
14.64000 22.066
14.66000 22.350
14.68000 24.741
14.70000 22.099
14.72000 23.697
14.74000 28.489
14.76000 30.608
14.78000 27.512
14.80000 39.122
14.82000 37.451
14.84000 27.204
14.86000 21.849
14.88000 20.565
14.90000 22.218
14.92000 27.196
14.94000 24.871
14.96000 25.025
14.98000 29.979
15.00000 35.386
15.02000 26.580
15.04000 21.511
15.06000 12.785
15.08000 21.134
15.10000 23.292
15.12000 15.628
15.14000 16.446
15.16000 13.554
15.18000 22.620
15.20000 21.093
15.22000 17.643
15.24000 21.017
15.26000 19.933
15.28000 19.046
15.30000 23.245
15.32000 31.981
15.34000 31.674
15.36000 30.733
15.38000 27.695
15.40000 19.041
15.42000 29.317
15.44000 31.881
15.46000 34.356
15.48000 24.573
15.50000 23.269
15.52000 31.021
15.54000 23.959
15.56000 23.941
15.58000 21.712
15.60000 15.481
15.62000 17.088
15.64000 18.072
15.66000 24.081
15.68000 18.000
15.70000 19.388
15.72000 17.708
15.74000 15.339
15.76000 24.339
15.78000 23.213
15.80000 14.592
15.82000 8.365
15.84000 7.666
15.86000 7.491
15.88000 5.433
15.90000 12.159
15.92000 19.677
15.94000 17.208
15.96000 8.506
15.98000 11.110
16.00000 18.782
16.02000 19.222
16.04000 18.054
16.06000 17.476
16.08000 16.241
16.10000 18.885
16.12000 14.877
16.14000 18.437
16.16000 23.079
16.18000 19.851
16.20000 13.140
16.22000 5.791
16.24000 5.248
16.26000 20.774
16.28000 14.096
16.30000 13.784
16.32000 18.355
16.34000 19.182
16.36000 8.729
16.38000 9.828
16.40000 12.356
16.42000 11.948
16.44000 8.046
16.46000 7.864
16.48000 11.466
16.50000 17.090
16.52000 11.447
16.54000 9.530
16.56000 8.815
16.58000 6.779
16.60000 1.175
16.62000 8.435
16.64000 4.298
16.66000 8.410
16.68000 13.141
16.70000 9.290
16.72000 11.069
16.74000 17.725
16.76000 18.807
16.78000 19.361
16.80000 17.125
16.82000 10.325
16.84000 9.623
16.86000 16.596
16.88000 17.907
16.90000 8.984
16.92000 1.794
16.94000 10.587
16.96000 13.767
16.98000 12.311
17.00000 18.393
17.02000 8.911
17.04000 8.771
17.06000 8.568
17.08000 16.463
17.10000 20.930
17.12000 8.367
17.14000 7.097
17.16000 9.450
17.18000 6.175
17.20000 15.058
17.22000 16.943
17.24000 10.247
17.26000 6.658
17.28000 14.140
17.30000 18.123
17.32000 17.672
17.34000 11.183
17.36000 19.980
17.38000 15.784
17.40000 11.590
17.42000 13.388
17.44000 16.589
17.46000 15.282
17.48000 7.585
17.50000 9.201
17.52000 7.802
17.54000 15.465
17.56000 11.276
17.58000 8.217
17.60000 11.735
17.62000 6.633
17.64000 1.057
17.66000 8.639
17.68000 19.243
17.70000 8.221
17.72000 6.820
17.74000 11.962
17.76000 9.206
17.78000 9.546
17.80000 13.809
17.82000 13.021
17.84000 6.173
17.86000 8.374
17.88000 7.585
17.90000 15.933
17.92000 16.503
17.94000 10.773
17.96000 9.265
17.98000 11.716
18.00000 2.439
18.02000 4.681
18.04000 12.812
18.06000 13.410
18.08000 6.371
18.10000 6.830
18.12000 6.633
18.14000 6.992
18.16000 6.492
18.18000 1.150
18.20000 2.911
18.22000 0.254
18.24000 4.094
18.26000 16.320
18.28000 14.683
18.30000 4.890
18.32000 1.257
18.34000 -0.437
18.36000 3.395
18.38000 5.353
18.40000 4.932
18.42000 6.285
18.44000 3.715
18.46000 4.383
18.48000 8.322
18.50000 11.232
18.52000 10.299
18.54000 2.888
18.56000 7.648
18.58000 9.269
18.60000 3.610
18.62000 7.989
18.64000 6.681
18.66000 4.804
18.68000 3.401
18.70000 2.118
18.72000 2.213
18.74000 10.173
18.76000 7.621
18.78000 4.789
18.80000 7.954
18.82000 6.175
18.84000 4.326
18.86000 3.455
18.88000 3.428
18.90000 2.282
18.92000 -4.244
18.94000 1.660
18.96000 -2.480
18.98000 2.622
19.00000 10.894
19.02000 10.319
19.04000 6.617
19.06000 2.964
19.08000 5.330
19.10000 4.292
19.12000 8.462
19.14000 3.414
19.16000 -2.701
19.18000 3.540
19.20000 8.721
19.22000 5.771
19.24000 1.477
19.26000 0.337
19.28000 2.495
19.30000 8.761
19.32000 16.005
19.34000 16.749
19.36000 6.004
19.38000 -0.207
19.40000 6.219
19.42000 6.827
19.44000 9.012
19.46000 12.393
19.48000 6.617
19.50000 2.474
19.52000 8.216
19.54000 12.413
19.56000 5.713
19.58000 6.869
19.60000 6.192
19.62000 9.742
19.64000 11.799
19.66000 5.994
19.68000 5.634
19.70000 3.884
19.72000 4.400
19.74000 8.166
19.76000 3.166
19.78000 9.118
19.80000 8.381
19.82000 -1.390
19.84000 3.175
19.86000 6.850
19.88000 -0.843
19.90000 -2.945
19.92000 -1.664
19.94000 -0.427
19.96000 0.504
19.98000 -4.211
20.00000 7.130
20.02000 3.749
20.04000 1.984
20.06000 8.043
20.08000 8.109
20.10000 4.088
20.12000 1.964
20.14000 8.021
20.16000 5.907
20.18000 4.269
20.20000 9.280
20.22000 8.065
20.24000 6.665
20.26000 1.990
20.28000 -0.765
20.30000 2.718
20.32000 1.843
20.34000 0.469
20.36000 8.101
20.38000 8.144
20.40000 2.729
20.42000 0.187
20.44000 0.298
20.46000 2.282
20.48000 2.091
20.50000 -0.229
20.52000 4.142
20.54000 7.058
20.56000 6.713
20.58000 2.038
20.60000 -3.420
20.62000 3.292
20.64000 6.230
20.66000 3.789
20.68000 0.458
20.70000 0.523
20.72000 5.753
20.74000 5.341
20.76000 4.947
20.78000 5.680
20.80000 9.613
20.82000 8.985
20.84000 5.307
20.86000 -2.693
20.88000 -2.188
20.90000 4.485
20.92000 2.425
20.94000 -0.208
20.96000 1.650
20.98000 -1.692
21.00000 -1.216
21.02000 6.989
21.04000 3.558
21.06000 3.850
21.08000 1.201
21.10000 -4.163
21.12000 -2.512
21.14000 2.697
21.16000 8.100
21.18000 2.757
21.20000 -3.547
21.22000 1.251
21.24000 8.100
21.26000 11.980
21.28000 3.990
21.30000 3.420
21.32000 4.499
21.34000 -3.147
21.36000 6.922
21.38000 8.292
21.40000 3.662
21.42000 4.335
21.44000 9.890
21.46000 1.093
21.48000 -4.027
21.50000 5.059
21.52000 4.029
21.54000 7.309
21.56000 -0.028
21.58000 -0.435
21.60000 2.771
21.62000 6.148
21.64000 8.532
21.66000 4.601
21.68000 8.470
21.70000 4.222
21.72000 8.134
21.74000 -0.771
21.76000 -3.338
21.78000 2.517
21.80000 3.545
21.82000 3.340
21.84000 7.734
21.86000 4.683
21.88000 2.100
21.90000 -3.559
21.92000 -4.131
21.94000 2.266
21.96000 5.243
21.98000 6.273
22.00000 6.907
22.02000 1.053
22.04000 7.622
22.06000 1.313
22.08000 3.634
22.10000 6.841
22.12000 5.564
22.14000 5.531
22.16000 6.826
22.18000 1.582
22.20000 -0.423
22.22000 -2.807
22.24000 0.452
22.26000 5.746
22.28000 5.576
22.30000 0.891
22.32000 4.178
22.34000 5.123
22.36000 3.734
22.38000 5.896
22.40000 8.316
22.42000 3.030
22.44000 7.709
22.46000 6.771
22.48000 2.769
22.50000 -0.126
22.52000 1.285
22.54000 1.475
22.56000 4.606
22.58000 5.890
22.60000 0.367
22.62000 1.823
22.64000 2.494
22.66000 -2.465
22.68000 2.199
22.70000 7.508
22.72000 2.227
22.74000 -0.418
22.76000 7.408
22.78000 3.849
22.80000 6.246
22.82000 7.599
22.84000 4.599
22.86000 -1.600
22.88000 1.925
22.90000 5.051
22.92000 6.274
22.94000 1.097
22.96000 2.288
22.98000 -1.107
23.00000 -4.046
23.02000 2.700
23.04000 3.947
23.06000 3.862
23.08000 1.358
23.10000 5.809
23.12000 1.498
23.14000 -4.039
23.16000 3.356
23.18000 8.467
23.20000 9.924
23.22000 7.912
23.24000 3.060
23.26000 6.911
23.28000 6.644
23.30000 4.495
23.32000 1.280
23.34000 4.246
23.36000 5.943
23.38000 6.084
23.40000 5.795
23.42000 7.576
23.44000 7.745
23.46000 8.300
23.48000 7.657
23.50000 3.385
23.52000 5.706
23.54000 4.736
23.56000 3.761
23.58000 3.477
23.60000 7.117
23.62000 3.966
23.64000 1.567
23.66000 3.954
23.68000 0.907
23.70000 -0.167
23.72000 0.481
23.74000 0.137
23.76000 5.795
23.78000 9.401
23.80000 3.882
23.82000 5.421
23.84000 5.523
23.86000 1.321
23.88000 0.556
23.90000 2.569
23.92000 4.715
23.94000 6.665
23.96000 5.714
23.98000 8.640
24.00000 10.406
24.02000 7.575
24.04000 6.433
24.06000 0.357
24.08000 -1.954
24.10000 7.892
24.12000 4.757
24.14000 8.304
24.16000 14.033
24.18000 9.235
24.20000 -1.820
24.22000 -3.973
24.24000 3.058
24.26000 7.813
24.28000 9.415
24.30000 7.343
24.32000 3.102
24.34000 4.348
24.36000 -0.303
24.38000 4.234
24.40000 3.588
24.42000 3.782
24.44000 1.399
24.46000 3.283
24.48000 1.771
24.50000 5.272
24.52000 5.788
24.54000 3.287
24.56000 5.419
24.58000 1.302
24.60000 0.465
24.62000 2.034
24.64000 3.643
24.66000 5.300
24.68000 5.106
24.70000 2.050
24.72000 0.883
24.74000 8.770
24.76000 9.627
24.78000 8.204
24.80000 6.183
24.82000 4.699
24.84000 1.528
24.86000 8.253
24.88000 4.555
24.90000 4.270
24.92000 5.931
24.94000 4.488
24.96000 -3.924
24.98000 3.254
25.00000 7.557
25.02000 3.059
25.04000 4.151
25.06000 7.657
25.08000 7.116
25.10000 6.678
25.12000 12.177
25.14000 8.333
25.16000 5.973
25.18000 2.090
25.20000 0.286
25.22000 2.605
25.24000 3.240
25.26000 1.556
25.28000 2.843
25.30000 8.402
25.32000 6.806
25.34000 5.589
25.36000 10.719
25.38000 10.081
25.40000 4.272
25.42000 3.959
25.44000 6.541
25.46000 10.738
25.48000 7.347
25.50000 1.136
25.52000 1.589
25.54000 2.315
25.56000 3.741
25.58000 2.515
25.60000 3.168
25.62000 4.519
25.64000 4.276
25.66000 7.178
25.68000 5.461
25.70000 4.454
25.72000 3.970
25.74000 2.543
25.76000 5.809
25.78000 3.975
25.80000 1.033
25.82000 8.293
25.84000 6.571
25.86000 5.389
25.88000 7.008
25.90000 2.508
25.92000 -2.993
25.94000 1.256
25.96000 4.719
25.98000 1.924
26.00000 0.692
26.02000 1.332
26.04000 1.700
26.06000 4.826
26.08000 -1.720
26.10000 -0.937
26.12000 1.131
26.14000 1.300
26.16000 1.414
26.18000 4.529
26.20000 1.951
26.22000 -1.303
26.24000 3.797
26.26000 6.661
26.28000 6.322
26.30000 3.332
26.32000 0.139
26.34000 3.685
26.36000 1.571
26.38000 0.324
26.40000 4.795
26.42000 7.567
26.44000 4.860
26.46000 5.785
26.48000 5.118
26.50000 8.335
26.52000 9.939
26.54000 1.356
26.56000 7.380
26.58000 9.798
26.60000 4.246
26.62000 5.582
26.64000 5.842
26.66000 1.810
26.68000 -3.829
26.70000 6.179
26.72000 11.417
26.74000 1.237
26.76000 0.290
26.78000 1.652
26.80000 4.978
26.82000 10.934
26.84000 9.886
26.86000 4.879
26.88000 3.200
26.90000 -1.262
26.92000 1.030
26.94000 6.261
26.96000 0.788
26.98000 2.224
27.00000 5.655
27.02000 4.704
27.04000 -0.679
27.06000 1.900
27.08000 3.900
27.10000 6.040
27.12000 0.036
27.14000 3.887
27.16000 9.523
27.18000 10.072
27.20000 6.405
27.22000 1.345
27.24000 2.827
27.26000 7.154
27.28000 8.203
27.30000 7.655
27.32000 6.767
27.34000 2.229
27.36000 1.085
27.38000 -1.845
27.40000 -0.981
27.42000 0.115
27.44000 4.492
27.46000 3.492
27.48000 2.835
27.50000 -0.127
27.52000 0.407
27.54000 3.373
27.56000 5.934
27.58000 4.831
27.60000 2.337
27.62000 5.073
27.64000 1.893
27.66000 4.237
27.68000 2.522
27.70000 7.985
27.72000 6.527
27.74000 4.306
27.76000 0.433
27.78000 0.706
27.80000 4.455
27.82000 5.221
27.84000 1.412
27.86000 1.481
27.88000 5.437
27.90000 3.533
27.92000 3.800
27.94000 7.903
27.96000 4.751
27.98000 2.975
28.00000 1.479
28.02000 4.356
28.04000 2.992
28.06000 -1.095
28.08000 4.508
28.10000 10.326
28.12000 6.904
28.14000 6.944
28.16000 8.722
28.18000 3.795
28.20000 0.823
28.22000 3.784
28.24000 8.634
28.26000 4.187
28.28000 -2.207
28.30000 -2.689
28.32000 -3.753
28.34000 3.595
28.36000 2.915
28.38000 1.054
28.40000 2.065
28.42000 2.259
28.44000 5.479
28.46000 4.438
28.48000 4.804
28.50000 4.035
28.52000 4.803
28.54000 2.029
28.56000 6.186
28.58000 3.737
28.60000 5.342
28.62000 6.223
28.64000 6.426
28.66000 2.956
28.68000 6.525
28.70000 5.542
28.72000 2.155
28.74000 3.264
28.76000 0.824
28.78000 1.527
28.80000 2.466
28.82000 2.827
28.84000 -0.556
28.86000 3.987
28.88000 2.893
28.90000 6.153
28.92000 4.714
28.94000 7.048
28.96000 9.429
28.98000 5.186
29.00000 -0.286
29.02000 0.929
29.04000 1.586
29.06000 4.600
29.08000 3.234
29.10000 6.286
29.12000 4.961
29.14000 4.330
29.16000 2.319
29.18000 3.061
29.20000 5.055
29.22000 5.741
29.24000 1.981
29.26000 1.065
29.28000 4.949
29.30000 6.296
29.32000 5.065
29.34000 1.233
29.36000 6.625
29.38000 11.108
29.40000 3.123
29.42000 3.094
29.44000 5.466
29.46000 0.002
29.48000 -3.682
29.50000 -3.284
29.52000 -1.102
29.54000 -0.349
29.56000 0.243
29.58000 4.213
29.60000 7.142
29.62000 6.521
29.64000 4.627
29.66000 4.615
29.68000 5.024
29.70000 0.817
29.72000 2.852
29.74000 -2.608
29.76000 -2.101
29.78000 2.859
29.80000 6.616
29.82000 3.983
29.84000 4.726
29.86000 0.259
29.88000 5.769
29.90000 7.069
29.92000 1.923
29.94000 2.110
29.96000 6.012
29.98000 2.493
30.00000 4.943
30.02000 5.472
30.04000 6.519
30.06000 3.932
30.08000 2.523
30.10000 0.668
30.12000 0.949
30.14000 1.344
30.16000 0.246
30.18000 2.806
30.20000 6.369
30.22000 3.225
30.24000 0.632
30.26000 -1.323
30.28000 -1.519
30.30000 -1.578
30.32000 3.560
30.34000 1.707
30.36000 -0.261
30.38000 0.956
30.40000 2.678
30.42000 -2.591
30.44000 0.027
30.46000 -2.078
30.48000 3.095
30.50000 -0.658
30.52000 -3.668
30.54000 -0.183
30.56000 2.332
30.58000 3.796
30.60000 0.747
30.62000 1.011
30.64000 5.900
30.66000 7.888
30.68000 1.235
30.70000 -3.444
30.72000 -2.457
30.74000 5.551
30.76000 3.622
30.78000 2.400
30.80000 6.017
30.82000 6.020
30.84000 2.364
30.86000 5.031
30.88000 4.691
30.90000 -0.433
30.92000 -3.306
30.94000 -0.379
30.96000 3.784
30.98000 0.012
31.00000 1.614
31.02000 3.360
31.04000 4.210
31.06000 4.323
31.08000 -1.027
31.10000 -3.510
31.12000 0.971
31.14000 5.252
31.16000 3.034
31.18000 -0.291
31.20000 0.783
31.22000 3.491
31.24000 2.483
31.26000 -1.158
31.28000 -0.764
31.30000 5.180
31.32000 6.543
31.34000 1.847
31.36000 -0.317
31.38000 0.277
31.40000 0.528
31.42000 5.101
31.44000 1.283
31.46000 -0.865
31.48000 -2.251
31.50000 0.882
31.52000 -1.390
31.54000 -0.014
31.56000 2.189
31.58000 0.276
31.60000 0.398
31.62000 -1.708
31.64000 -0.145
31.66000 -1.292
31.68000 -2.267
31.70000 -3.614
31.72000 -2.027
31.74000 1.911
31.76000 -1.489
31.78000 3.439
31.80000 1.706
31.82000 2.114
31.84000 3.167
31.86000 5.796
31.88000 3.591
31.90000 -1.056
31.92000 -0.644
31.94000 2.064
31.96000 0.854
31.98000 2.597
32.00000 0.650
32.02000 0.352
32.04000 -0.366
32.06000 -1.301
32.08000 -3.095
32.10000 -1.363
32.12000 0.256
32.14000 0.648
32.16000 1.252
32.18000 -3.591
32.20000 3.067
32.22000 4.453
32.24000 0.409
32.26000 0.810
32.28000 4.288
32.30000 2.020
32.32000 5.928
32.34000 5.117
32.36000 5.787
32.38000 5.250
32.40000 5.647
32.42000 7.151
32.44000 5.363
32.46000 2.804
32.48000 4.905
32.50000 -2.329
32.52000 1.709
32.54000 0.763
32.56000 0.934
32.58000 1.215
32.60000 5.770
32.62000 4.506
32.64000 6.755
32.66000 6.250
32.68000 1.914
32.70000 3.179
32.72000 7.763
32.74000 9.023
32.76000 0.125
32.78000 -2.374
32.80000 0.003
32.82000 4.756
32.84000 5.308
32.86000 3.264
32.88000 2.665
32.90000 4.095
32.92000 3.183
32.94000 3.721
32.96000 11.085
32.98000 10.439
33.00000 3.200
33.02000 -3.542
33.04000 -0.062
33.06000 7.580
33.08000 6.673
33.10000 2.196
33.12000 2.856
33.14000 5.311
33.16000 0.142
33.18000 1.807
33.20000 5.402
33.22000 5.026
33.24000 5.656
33.26000 7.154
33.28000 4.488
33.30000 3.574
33.32000 5.684
33.34000 2.872
33.36000 -0.237
33.38000 3.743
33.40000 9.224
33.42000 5.604
33.44000 6.182
33.46000 7.917
33.48000 10.875
33.50000 4.221
33.52000 2.561
33.54000 5.162
33.56000 10.284
33.58000 9.493
33.60000 8.487
33.62000 7.413
33.64000 5.334
33.66000 5.727
33.68000 4.861
33.70000 0.344
33.72000 -1.125
33.74000 4.027
33.76000 8.501
33.78000 10.507
33.80000 8.238
33.82000 4.664
33.84000 2.599
33.86000 0.484
33.88000 3.203
33.90000 6.015
33.92000 4.098
33.94000 3.608
33.96000 3.742
33.98000 1.453
34.00000 1.726
34.02000 3.801
34.04000 -0.913
34.06000 0.318
34.08000 5.422
34.10000 1.913
34.12000 1.795
34.14000 10.115
34.16000 10.123
34.18000 9.742
34.20000 9.326
34.22000 2.877
34.24000 -1.617
34.26000 1.927
34.28000 3.110
34.30000 4.972
34.32000 3.199
34.34000 -0.010
34.36000 3.660
34.38000 3.672
34.40000 4.299
34.42000 2.826
34.44000 9.196
34.46000 7.590
34.48000 5.402
34.50000 1.584
34.52000 3.246
34.54000 5.144
34.56000 6.139
34.58000 4.079
34.60000 4.677
34.62000 7.148
34.64000 1.962
34.66000 5.327
34.68000 4.499
34.70000 3.290
34.72000 5.911
34.74000 8.025
34.76000 7.876
34.78000 6.917
34.80000 3.403
34.82000 2.704
34.84000 0.765
34.86000 -3.491
34.88000 0.962
34.90000 4.213
34.92000 7.817
34.94000 1.873
34.96000 1.279
34.98000 2.590
35.00000 1.657
35.02000 0.532
35.04000 -0.807
35.06000 -3.482
35.08000 1.286
35.10000 4.876
35.12000 8.650
35.14000 9.692
35.16000 10.614
35.18000 6.263
35.20000 5.457
35.22000 6.492
35.24000 4.129
35.26000 5.685
35.28000 5.276
35.30000 1.432
35.32000 0.434
35.34000 2.059
35.36000 2.208
35.38000 4.608
35.40000 5.871
35.42000 4.004
35.44000 3.218
35.46000 4.091
35.48000 2.619
35.50000 -1.272
35.52000 1.845
35.54000 4.111
35.56000 5.401
35.58000 5.540
35.60000 6.222
35.62000 2.976
35.64000 4.597
35.66000 5.144
35.68000 1.000
35.70000 -0.060
35.72000 -3.482
35.74000 -1.629
35.76000 1.369
35.78000 1.655
35.80000 2.463
35.82000 3.843
35.84000 0.649
35.86000 3.333
35.88000 7.380
35.90000 7.081
35.92000 2.317
35.94000 1.489
35.96000 1.684
35.98000 4.215
36.00000 3.213
36.02000 4.824
36.04000 2.866
36.06000 -1.739
36.08000 -0.803
36.10000 -0.571
36.12000 -0.607
36.14000 -1.005
36.16000 3.742
36.18000 10.147
36.20000 6.477
36.22000 1.467
36.24000 2.998
36.26000 1.409
36.28000 -1.121
36.30000 -1.679
36.32000 -0.631
36.34000 -2.895
36.36000 2.129
36.38000 1.194
36.40000 -2.907
36.42000 -3.484
36.44000 -0.426
36.46000 3.390
36.48000 5.614
36.50000 6.813
36.52000 7.342
36.54000 3.465
36.56000 3.041
36.58000 7.811
36.60000 5.468
36.62000 4.606
36.64000 2.219
36.66000 0.040
36.68000 2.498
36.70000 1.486
36.72000 -2.468
36.74000 -3.407
36.76000 2.094
36.78000 2.439
36.80000 5.507
36.82000 5.176
36.84000 2.880
36.86000 5.402
36.88000 5.362
36.90000 2.138
36.92000 5.944
36.94000 9.866
36.96000 1.016
36.98000 -0.296
37.00000 -0.185
37.02000 -1.053
37.04000 1.209
37.06000 1.779
37.08000 -3.508
37.10000 -0.088
37.12000 3.025
37.14000 -0.893
37.16000 2.682
37.18000 1.551
37.20000 -3.202
37.22000 0.740
37.24000 -2.845
37.26000 -1.864
37.28000 0.141
37.30000 1.835
37.32000 5.079
37.34000 4.212
37.36000 2.944
37.38000 1.868
37.40000 3.952
37.42000 5.022
37.44000 3.775
37.46000 0.774
37.48000 1.032
37.50000 2.864
37.52000 -2.187
37.54000 -0.481
37.56000 -0.651
37.58000 -1.636
37.60000 5.293
37.62000 3.798
37.64000 -0.034
37.66000 -3.547
37.68000 -0.371
37.70000 3.817
37.72000 2.473
37.74000 2.441
37.76000 -0.497
37.78000 7.495
37.80000 6.762
37.82000 4.063
37.84000 5.341
37.86000 6.079
37.88000 5.342
37.90000 -1.584
37.92000 -2.257
37.94000 0.499
37.96000 5.220
37.98000 6.822
38.00000 2.969
38.02000 2.614
38.04000 2.632
38.06000 2.681
38.08000 4.966
38.10000 10.890
38.12000 8.803
38.14000 3.571
38.16000 6.447
38.18000 9.037
38.20000 11.723
38.22000 11.531
38.24000 13.601
38.26000 10.961
38.28000 6.886
38.30000 13.064
38.32000 17.301
38.34000 14.883
38.36000 14.774
38.38000 19.313
38.40000 11.654
38.42000 12.657
38.44000 13.097
38.46000 12.753
38.48000 14.430
38.50000 14.915
38.52000 11.710
38.54000 9.850
38.56000 14.996
38.58000 15.351
38.60000 14.790
38.62000 15.983
38.64000 19.835
38.66000 16.665
38.68000 16.317
38.70000 17.214
38.72000 19.932
38.74000 20.053
38.76000 19.253
38.78000 17.813
38.80000 21.777
38.82000 21.151
38.84000 20.663
38.86000 21.700
38.88000 21.783
38.90000 19.653
38.92000 21.683
38.94000 21.933
38.96000 22.971
38.98000 21.641
39.00000 26.857
39.02000 26.885
39.04000 24.777
39.06000 23.446
39.08000 24.723
39.10000 28.497
39.12000 27.621
39.14000 30.791
39.16000 23.747
39.18000 22.329
39.20000 29.700
39.22000 30.287
39.24000 35.329
39.26000 36.891
39.28000 40.981
39.30000 38.758
39.32000 37.797
39.34000 32.803
39.36000 35.635
39.38000 40.090
39.40000 36.442
39.42000 40.044
39.44000 45.998
39.46000 47.428
39.48000 47.827
39.50000 49.085
39.52000 49.594
39.54000 47.538
39.56000 51.311
39.58000 54.371
39.60000 60.971
39.62000 65.940
39.64000 65.148
39.66000 77.050
39.68000 77.963
39.70000 80.924
39.72000 77.377
39.74000 76.481
39.76000 84.514
39.78000 96.670
39.80000 98.836
39.82000 101.475
39.84000 105.928
39.86000 112.694
39.88000 117.595
39.90000 119.523
39.92000 129.780
39.94000 132.400
39.96000 139.308
39.98000 144.478
40.00000 154.878
40.02000 160.749
40.04000 163.110
40.06000 176.455
40.08000 185.959
40.10000 186.886
40.12000 190.023
40.14000 209.039
40.16000 221.095
40.18000 226.007
40.20000 237.893
40.22000 249.684
40.24000 266.816
40.26000 280.422
40.28000 291.821
40.30000 304.985
40.32000 317.146
40.34000 326.475
40.36000 340.110
40.38000 356.037
40.40000 370.493
40.42000 377.399
40.44000 395.126
40.46000 415.962
40.48000 426.006
40.50000 441.870
40.52000 461.460
40.54000 470.143
40.56000 488.405
40.58000 506.032
40.60000 515.381
40.62000 531.461
40.64000 546.927
40.66000 565.534
40.68000 572.733
40.70000 558.984
40.72000 565.977
40.74000 569.228
40.76000 585.508
40.78000 591.319
40.80000 598.504
40.82000 593.622
40.84000 588.949
40.86000 587.163
40.88000 573.685
40.90000 574.694
40.92000 567.248
40.94000 559.728
40.96000 547.674
40.98000 547.442
41.00000 534.831
41.02000 519.145
41.04000 504.451
41.06000 488.986
41.08000 472.633
41.10000 451.822
41.12000 433.510
41.14000 418.367
41.16000 416.743
41.18000 398.236
41.20000 375.703
41.22000 365.158
41.24000 344.317
41.26000 329.863
41.28000 318.936
41.30000 304.919
41.32000 292.812
41.34000 276.723
41.36000 261.021
41.38000 246.930
41.40000 235.708
41.42000 226.565
41.44000 216.706
41.46000 199.490
41.48000 190.377
41.50000 181.524
41.52000 176.135
41.54000 166.214
41.56000 152.462
41.58000 148.087
41.60000 143.763
41.62000 136.169
41.64000 130.514
41.66000 123.515
41.68000 115.761
41.70000 109.836
41.72000 103.857
41.74000 98.737
41.76000 95.218
41.78000 92.486
41.80000 87.528
41.82000 84.903
41.84000 77.457
41.86000 73.384
41.88000 69.305
41.90000 64.796
41.92000 59.952
41.94000 57.091
41.96000 50.344
41.98000 46.594
42.00000 47.839
42.02000 50.492
42.04000 46.523
42.06000 41.843
42.08000 38.123
42.10000 38.762
42.12000 39.292
42.14000 34.751
42.16000 33.499
42.18000 33.969
42.20000 34.691
42.22000 31.780
42.24000 31.865
42.26000 30.721
42.28000 28.988
42.30000 22.930
42.32000 22.823
42.34000 20.516
42.36000 25.069
42.38000 20.834
42.40000 22.607
42.42000 19.326
42.44000 19.836
42.46000 15.024
42.48000 13.289
42.50000 13.784
42.52000 11.070
42.54000 12.559
42.56000 18.574
42.58000 22.589
42.60000 17.381
42.62000 10.927
42.64000 9.431
42.66000 8.860
42.68000 10.207
42.70000 13.429
42.72000 10.257
42.74000 11.543
42.76000 12.641
42.78000 11.739
42.80000 10.484
42.82000 7.634
42.84000 9.453
42.86000 9.217
42.88000 0.728
42.90000 1.619
42.92000 8.987
42.94000 6.531
42.96000 5.222
42.98000 5.703
43.00000 6.158
43.02000 4.646
43.04000 7.432
43.06000 8.251
43.08000 3.911
43.10000 2.590
43.12000 3.442
43.14000 3.120
43.16000 5.016
43.18000 4.285
43.20000 1.637
43.22000 2.872
43.24000 7.052
43.26000 6.127
43.28000 3.385
43.30000 2.751
43.32000 0.706
43.34000 0.110
43.36000 -3.557
43.38000 -1.553
43.40000 3.508
43.42000 2.162
43.44000 2.059
43.46000 2.976
43.48000 1.057
43.50000 3.707
43.52000 -1.196
43.54000 -2.922
43.56000 0.289
43.58000 5.005
43.60000 4.397
43.62000 0.329
43.64000 3.485
43.66000 3.092
43.68000 6.330
43.70000 4.554
43.72000 3.000
43.74000 0.441
43.76000 0.799
43.78000 1.843
43.80000 2.770
43.82000 1.388
43.84000 -1.122
43.86000 -3.504
43.88000 0.689
43.90000 2.018
43.92000 1.776
43.94000 -0.023
43.96000 2.304
43.98000 4.955
44.00000 3.447
44.02000 -0.045
44.04000 -1.749
44.06000 -1.006
44.08000 1.409
44.10000 3.457
44.12000 0.466
44.14000 -2.284
44.16000 1.501
44.18000 -2.716
44.20000 -3.497
44.22000 4.858
44.24000 6.480
44.26000 3.999
44.28000 5.169
44.30000 4.419
44.32000 0.483
44.34000 1.800
44.36000 4.747
44.38000 2.298
44.40000 4.692
44.42000 4.524
44.44000 -1.094
44.46000 0.853
44.48000 -3.258
44.50000 0.704
44.52000 4.217
44.54000 6.102
44.56000 4.620
44.58000 0.527
44.60000 3.258
44.62000 0.723
44.64000 -3.128
44.66000 -3.069
44.68000 -3.126
44.70000 -2.628
44.72000 1.079
44.74000 3.721
44.76000 2.364
44.78000 -0.064
44.80000 -0.495
44.82000 -0.344
44.84000 -2.148
44.86000 -2.553
44.88000 -2.215
44.90000 -3.467
44.92000 -0.347
44.94000 1.035
44.96000 -1.806
44.98000 1.850
45.00000 0.904
45.02000 4.822
45.04000 4.239
45.06000 7.179
45.08000 6.581
45.10000 5.090
45.12000 5.600
45.14000 0.632
45.16000 -3.472
45.18000 -0.800
45.20000 3.646
45.22000 3.288
45.24000 2.288
45.26000 -3.415
45.28000 -1.630
45.30000 1.007
45.32000 4.591
45.34000 4.186
45.36000 6.382
45.38000 4.508
45.40000 9.538
45.42000 7.275
45.44000 4.889
45.46000 3.828
45.48000 -0.439
45.50000 3.613
45.52000 4.626
45.54000 0.838
45.56000 13.725
45.58000 9.000
45.60000 7.329
45.62000 5.219
45.64000 10.394
45.66000 3.632
45.68000 4.807
45.70000 8.379
45.72000 7.974
45.74000 5.322
45.76000 2.261
45.78000 7.987
45.80000 3.866
45.82000 0.731
45.84000 4.933
45.86000 7.084
45.88000 10.011
45.90000 14.779
45.92000 8.949
45.94000 7.304
45.96000 14.801
45.98000 11.819
46.00000 12.763
46.02000 13.634
46.04000 12.935
46.06000 14.856
46.08000 16.590
46.10000 13.924
46.12000 13.598
46.14000 18.188
46.16000 18.882
46.18000 14.009
46.20000 16.955
46.22000 17.467
46.24000 15.932
46.26000 15.858
46.28000 15.335
46.30000 15.907
46.32000 16.976
46.34000 15.007
46.36000 21.263
46.38000 24.829
46.40000 19.995
46.42000 28.600
46.44000 28.492
46.46000 26.123
46.48000 28.648
46.50000 30.141
46.52000 25.660
46.54000 22.722
46.56000 31.242
46.58000 36.431
46.60000 34.295
46.62000 34.250
46.64000 33.202
46.66000 37.024
46.68000 40.341
46.70000 39.651
46.72000 40.265
46.74000 39.360
46.76000 37.172
46.78000 42.576
46.80000 39.822
46.82000 41.827
46.84000 43.788
46.86000 46.138
46.88000 50.144
46.90000 49.127
46.92000 52.236
46.94000 49.548
46.96000 51.816
46.98000 52.159
47.00000 49.517
47.02000 42.687
47.04000 47.815
47.06000 56.746
47.08000 59.035
47.10000 54.971
47.12000 54.166
47.14000 64.643
47.16000 61.788
47.18000 58.784
47.20000 55.950
47.22000 57.949
47.24000 59.635
47.26000 63.920
47.28000 58.756
47.30000 53.179
47.32000 56.588
47.34000 61.269
47.36000 60.280
47.38000 65.616
47.40000 68.119
47.42000 62.260
47.44000 63.905
47.46000 66.618
47.48000 68.646
47.50000 65.697
47.52000 58.907
47.54000 55.875
47.56000 56.469
47.58000 54.845
47.60000 59.107
47.62000 53.967
47.64000 50.489
47.66000 52.529
47.68000 51.606
47.70000 52.342
47.72000 56.959
47.74000 58.199
47.76000 49.690
47.78000 49.115
47.80000 47.909
47.82000 45.031
47.84000 44.141
47.86000 49.983
47.88000 51.160
47.90000 47.614
47.92000 35.955
47.94000 37.447
47.96000 39.418
47.98000 31.034
48.00000 33.945
48.02000 37.368
48.04000 28.036
48.06000 29.196
48.08000 29.875
48.10000 30.531
48.12000 28.171
48.14000 25.872
48.16000 25.459
48.18000 24.613
48.20000 25.344
48.22000 22.553
48.24000 27.245
48.26000 20.980
48.28000 17.021
48.30000 19.347
48.32000 21.254
48.34000 19.171
48.36000 17.615
48.38000 17.611
48.40000 13.092
48.42000 13.493
48.44000 19.133
48.46000 11.747
48.48000 12.688
48.50000 12.668
48.52000 16.581
48.54000 15.586
48.56000 8.395
48.58000 8.503
48.60000 10.606
48.62000 11.536
48.64000 10.692
48.66000 6.242
48.68000 7.497
48.70000 8.169
48.72000 5.429
48.74000 1.660
48.76000 7.480
48.78000 6.172
48.80000 7.104
48.82000 4.854
48.84000 1.341
48.86000 -1.245
48.88000 3.670
48.90000 4.020
48.92000 2.280
48.94000 8.223
48.96000 5.280
48.98000 4.609
49.00000 7.815
49.02000 6.348
49.04000 9.443
49.06000 8.991
49.08000 10.946
49.10000 11.245
49.12000 6.796
49.14000 -2.784
49.16000 -3.122
49.18000 2.001
49.20000 9.452
49.22000 10.606
49.24000 4.245
49.26000 7.969
49.28000 6.781
49.30000 9.010
49.32000 1.993
49.34000 5.492
49.36000 9.190
49.38000 6.310
49.40000 6.044
49.42000 3.609
49.44000 4.444
49.46000 6.575
49.48000 7.830
49.50000 -0.764
49.52000 -0.374
49.54000 5.506
49.56000 3.569
49.58000 0.125
49.60000 1.139
49.62000 0.397
49.64000 5.090
49.66000 4.545
49.68000 6.714
49.70000 1.007
49.72000 -0.290
49.74000 2.830
49.76000 0.462
49.78000 5.220
49.80000 7.058
49.82000 7.902
49.84000 6.781
49.86000 1.979
49.88000 -0.448
49.90000 -1.058
49.92000 1.871
49.94000 2.717
49.96000 5.427
49.98000 0.472
50.00000 0.851
50.02000 9.789
50.04000 8.341
50.06000 5.822
50.08000 2.529
50.10000 3.037
50.12000 9.746
50.14000 10.306
50.16000 5.959
50.18000 5.539
50.20000 7.633
50.22000 1.266
50.24000 -3.003
50.26000 -0.522
50.28000 7.426
50.30000 2.323
50.32000 1.988
50.34000 1.256
50.36000 2.301
50.38000 0.270
50.40000 5.670
50.42000 5.692
50.44000 7.001
50.46000 7.655
50.48000 9.213
50.50000 7.304
50.52000 3.395
50.54000 10.903
50.56000 11.515
50.58000 6.247
50.60000 5.720
50.62000 4.017
50.64000 4.417
50.66000 8.744
50.68000 1.491
50.70000 -1.555
50.72000 0.248
50.74000 2.917
50.76000 4.999
50.78000 2.598
50.80000 2.147
50.82000 2.010
50.84000 4.540
50.86000 -2.777
50.88000 -2.993
50.90000 -2.215
50.92000 -0.591
50.94000 2.731
50.96000 4.989
50.98000 4.488
51.00000 -0.030
51.02000 -0.129
51.04000 1.602
51.06000 6.412
51.08000 3.820
51.10000 4.242
51.12000 0.842
51.14000 -1.183
51.16000 -2.130
51.18000 1.652
51.20000 2.025
51.22000 -1.534
51.24000 -0.577
51.26000 -0.658
51.28000 0.059
51.30000 3.607
51.32000 2.776
51.34000 1.086
51.36000 1.415
51.38000 3.419
51.40000 2.882
51.42000 1.259
51.44000 0.392
51.46000 5.778
51.48000 4.259
51.50000 0.746
51.52000 2.836
51.54000 4.098
51.56000 2.984
51.58000 2.929
51.60000 3.373
51.62000 2.174
51.64000 4.544
51.66000 4.885
51.68000 -0.813
51.70000 -2.528
51.72000 -1.142
51.74000 1.265
51.76000 2.279
51.78000 4.206
51.80000 3.680
51.82000 5.830
51.84000 4.970
51.86000 4.213
51.88000 3.720
51.90000 1.053
51.92000 0.479
51.94000 3.370
51.96000 1.221
51.98000 -0.347
52.00000 3.193
52.02000 5.604
52.04000 3.706
52.06000 -2.575
52.08000 -2.935
52.10000 0.307
52.12000 3.032
52.14000 3.458
52.16000 2.290
52.18000 3.594
52.20000 4.288
52.22000 3.562
52.24000 5.954
52.26000 4.536
52.28000 0.026
52.30000 -0.227
52.32000 2.289
52.34000 2.488
52.36000 -2.551
52.38000 0.106
52.40000 3.838
52.42000 4.062
52.44000 0.849
52.46000 -1.969
52.48000 -2.900
52.50000 -0.574
52.52000 0.005
52.54000 1.623
52.56000 1.661
52.58000 5.676
52.60000 0.176
52.62000 3.683
52.64000 1.161
52.66000 -2.892
52.68000 -0.142
52.70000 1.859
52.72000 5.168
52.74000 9.156
52.76000 9.109
52.78000 4.572
52.80000 5.996
52.82000 9.028
52.84000 1.661
52.86000 3.931
52.88000 -0.506
52.90000 1.822
52.92000 5.381
52.94000 2.906
52.96000 0.557
52.98000 4.352
53.00000 6.543
53.02000 -0.870
53.04000 -0.465
53.06000 2.830
53.08000 2.208
53.10000 1.550
53.12000 0.949
53.14000 4.056
53.16000 6.644
53.18000 2.372
53.20000 5.003
53.22000 4.555
53.24000 5.693
53.26000 5.305
53.28000 3.535
53.30000 4.969
53.32000 8.397
53.34000 3.766
53.36000 7.402
53.38000 8.298
53.40000 5.718
53.42000 5.798
53.44000 3.281
53.46000 4.935
53.48000 4.933
53.50000 1.083
53.52000 6.139
53.54000 6.613
53.56000 5.696
53.58000 3.736
53.60000 4.618
53.62000 3.097
53.64000 4.323
53.66000 5.458
53.68000 7.266
53.70000 2.347
53.72000 3.790
53.74000 3.250
53.76000 4.537
53.78000 5.918
53.80000 8.492
53.82000 10.075
53.84000 5.433
53.86000 7.909
53.88000 11.831
53.90000 8.717
53.92000 0.071
53.94000 -2.804
53.96000 1.511
53.98000 7.976
54.00000 6.554
54.02000 1.513
54.04000 4.363
54.06000 8.743
54.08000 8.584
54.10000 7.890
54.12000 12.942
54.14000 12.221
54.16000 6.254
54.18000 -0.378
54.20000 3.560
54.22000 5.348
54.24000 4.406
54.26000 8.082
54.28000 4.786
54.30000 2.712
54.32000 3.640
54.34000 2.566
54.36000 2.792
54.38000 1.879
54.40000 1.576
54.42000 3.484
54.44000 0.544
54.46000 -2.815
54.48000 1.967
54.50000 4.781
54.52000 4.559
54.54000 4.176
54.56000 5.633
54.58000 5.055
54.60000 5.134
54.62000 1.750
54.64000 3.905
54.66000 2.852
54.68000 3.039
54.70000 0.296
54.72000 -0.917
54.74000 2.023
54.76000 5.255
54.78000 3.965
54.80000 4.930
54.82000 7.296
54.84000 3.100
54.86000 2.342
54.88000 4.003
54.90000 7.967
54.92000 5.793
54.94000 6.252
54.96000 4.149
54.98000 5.899
55.00000 4.870
55.02000 3.121
55.04000 -1.414
55.06000 3.188
55.08000 7.874
55.10000 0.511
55.12000 1.660
55.14000 1.925
55.16000 2.674
55.18000 1.040
55.20000 6.079
55.22000 1.902
55.24000 2.504
55.26000 -1.007
55.28000 0.650
55.30000 6.880
55.32000 3.729
55.34000 1.641
55.36000 1.621
55.38000 3.591
55.40000 2.052
55.42000 1.584
55.44000 -1.758
55.46000 2.248
55.48000 2.284
55.50000 2.485
55.52000 -0.629
55.54000 -1.239
55.56000 4.685
55.58000 3.295
55.60000 3.629
55.62000 8.825
55.64000 5.633
55.66000 3.242
55.68000 4.471
55.70000 2.878
55.72000 5.014
55.74000 3.862
55.76000 -2.301
55.78000 0.373
55.80000 -1.030
55.82000 2.226
55.84000 3.384
55.86000 0.715
55.88000 0.413
55.90000 1.724
55.92000 -0.674
55.94000 1.598
55.96000 0.841
55.98000 3.109
56.00000 1.027
56.02000 -0.854
56.04000 -1.714
56.06000 -1.024
56.08000 3.678
56.10000 2.061
56.12000 1.921
56.14000 -2.193
56.16000 2.341
56.18000 -2.799
56.20000 0.172
56.22000 2.741
56.24000 2.569
56.26000 3.285
56.28000 3.653
56.30000 3.424
56.32000 3.114
56.34000 3.758
56.36000 3.768
56.38000 2.364
56.40000 2.407
56.42000 0.454
56.44000 1.521
56.46000 2.219
56.48000 1.934
56.50000 0.564
56.52000 10.020
56.54000 9.093
56.56000 3.936
56.58000 5.086
56.60000 4.119
56.62000 0.005
56.64000 -1.995
56.66000 4.530
56.68000 0.554
56.70000 -2.397
56.72000 -0.328
56.74000 1.797
56.76000 2.195
56.78000 2.438
56.80000 0.724
56.82000 2.226
56.84000 2.059
56.86000 1.934
56.88000 3.584
56.90000 6.215
56.92000 1.754
56.94000 -2.755
56.96000 3.540
56.98000 5.677
57.00000 -1.252
57.02000 -1.523
57.04000 -2.244
57.06000 4.504
57.08000 4.934
57.10000 1.175
57.12000 -0.014
57.14000 1.265
57.16000 -0.271
57.18000 2.114
57.20000 3.313
57.22000 5.659
57.24000 1.174
57.26000 2.665
57.28000 4.917
57.30000 5.010
57.32000 4.246
57.34000 10.379
57.36000 7.681
57.38000 4.900
57.40000 4.502
57.42000 4.467
57.44000 0.562
57.46000 -0.597
57.48000 0.602
57.50000 1.650
57.52000 -2.737
57.54000 4.133
57.56000 5.371
57.58000 2.120
57.60000 0.717
57.62000 1.226
57.64000 1.757
57.66000 4.659
57.68000 7.607
57.70000 6.098
57.72000 5.782
57.74000 5.637
57.76000 1.374
57.78000 4.310
57.80000 3.299
57.82000 8.269
57.84000 10.092
57.86000 4.595
57.88000 4.033
57.90000 6.006
57.92000 5.167
57.94000 4.289
57.96000 0.593
57.98000 -1.900
58.00000 0.858
58.02000 3.578
58.04000 5.592
58.06000 4.689
58.08000 1.530
58.10000 -1.967
58.12000 -2.731
58.14000 -2.069
58.16000 -0.561
58.18000 -1.064
58.20000 -2.703
58.22000 -2.030
58.24000 0.024
58.26000 6.288
58.28000 2.072
58.30000 2.724
58.32000 4.083
58.34000 2.228
58.36000 0.483
58.38000 -1.427
58.40000 0.483
58.42000 5.321
58.44000 1.352
58.46000 4.628
58.48000 3.910
58.50000 5.973
58.52000 6.532
58.54000 1.824
58.56000 3.423
58.58000 1.249
58.60000 2.088
58.62000 3.430
58.64000 4.420
58.66000 1.364
58.68000 0.231
58.70000 6.494
58.72000 5.927
58.74000 6.077
58.76000 2.052
58.78000 -1.250
58.80000 2.292
58.82000 1.271
58.84000 6.487
58.86000 8.651
58.88000 0.879
58.90000 -1.061
58.92000 0.880
58.94000 2.914
58.96000 1.285
58.98000 2.986
59.00000 6.464
59.02000 5.614
59.04000 3.098
59.06000 1.948
59.08000 5.146
59.10000 3.429
59.12000 2.346
59.14000 4.956
59.16000 5.776
59.18000 8.008
59.20000 8.603
59.22000 8.448
59.24000 3.523
59.26000 2.660
59.28000 3.427
59.30000 4.841
59.32000 6.372
59.34000 2.080
59.36000 3.705
59.38000 5.199
59.40000 10.993
59.42000 9.381
59.44000 6.464
59.46000 3.745
59.48000 3.756
59.50000 1.712
59.52000 -0.338
59.54000 4.298
59.56000 2.985
59.58000 -0.059
59.60000 1.819
59.62000 2.615
59.64000 4.534
59.66000 0.536
59.68000 -2.627
59.70000 -2.121
59.72000 1.044
59.74000 3.382
59.76000 5.235
59.78000 4.484
59.80000 5.478
59.82000 7.083
59.84000 7.160
59.86000 7.539
59.88000 7.799
59.90000 6.620
59.92000 5.611
59.94000 4.801
59.96000 5.662
59.98000 5.379
60.00000 3.532
60.02000 1.715
60.04000 4.827
60.06000 3.833
60.08000 6.321
60.10000 2.457
60.12000 4.530
60.14000 4.878
60.16000 6.638
60.18000 6.278
60.20000 6.301
60.22000 7.130
60.24000 6.970
60.26000 3.903
60.28000 0.619
60.30000 2.482
60.32000 5.464
60.34000 6.911
60.36000 3.180
60.38000 6.006
60.40000 4.775
60.42000 3.735
60.44000 1.801
60.46000 1.304
60.48000 -1.000
60.50000 -1.742
60.52000 -0.601
60.54000 4.612
60.56000 3.375
60.58000 7.107
60.60000 6.784
60.62000 4.061
60.64000 2.885
60.66000 4.950
60.68000 1.945
60.70000 -2.652
60.72000 -2.325
60.74000 -1.857
60.76000 3.138
60.78000 3.199
60.80000 -2.015
60.82000 -0.674
60.84000 -0.233
60.86000 3.835
60.88000 8.615
60.90000 5.873
60.92000 0.526
60.94000 1.057
60.96000 5.581
60.98000 3.082
61.00000 -0.193
61.02000 -1.648
61.04000 -1.702
61.06000 2.956
61.08000 1.145
61.10000 2.024
61.12000 2.969
61.14000 5.635
61.16000 3.179
61.18000 1.852
61.20000 -0.257
61.22000 1.330
61.24000 2.454
61.26000 1.299
61.28000 3.856
61.30000 2.421
61.32000 -0.763
61.34000 3.643
61.36000 6.173
61.38000 -0.104
61.40000 0.717
61.42000 -1.164
61.44000 -0.877
61.46000 1.376
61.48000 1.932
61.50000 4.047
61.52000 2.150
61.54000 3.284
61.56000 4.131
61.58000 3.102
61.60000 -0.194
61.62000 0.646
61.64000 2.587
61.66000 4.053
61.68000 1.649
61.70000 0.191
61.72000 5.531
61.74000 -2.617
61.76000 -0.732
61.78000 -0.822
61.80000 0.972
61.82000 0.272
61.84000 -1.884
61.86000 -0.575
61.88000 0.586
61.90000 -2.220
61.92000 -1.488
61.94000 0.353
61.96000 -2.609
61.98000 2.904
62.00000 1.927
62.02000 1.487
62.04000 1.981
62.06000 1.926
62.08000 -2.482
62.10000 -0.799
62.12000 -0.824
62.14000 2.660
62.16000 5.129
62.18000 2.193
62.20000 1.678
62.22000 2.679
62.24000 -0.712
62.26000 -1.440
62.28000 0.499
62.30000 1.564
62.32000 7.378
62.34000 4.189
62.36000 4.798
62.38000 5.859
62.40000 0.745
62.42000 2.431
62.44000 4.013
62.46000 2.945
62.48000 1.074
62.50000 3.067
62.52000 0.801
62.54000 1.755
62.56000 3.086
62.58000 4.621
62.60000 6.802
62.62000 2.432
62.64000 -2.603
62.66000 1.846
62.68000 2.946
62.70000 4.334
62.72000 2.756
62.74000 1.442
62.76000 3.832
62.78000 3.147
62.80000 0.222
62.82000 0.482
62.84000 -1.814
62.86000 -0.247
62.88000 5.830
62.90000 6.798
62.92000 4.422
62.94000 2.476
62.96000 2.020
62.98000 3.921
63.00000 2.148
63.02000 -2.592
63.04000 0.686
63.06000 0.930
63.08000 -0.389
63.10000 1.611
63.12000 4.165
63.14000 7.052
63.16000 5.067
63.18000 -0.213
63.20000 4.518
63.22000 6.066
63.24000 6.150
63.26000 3.244
63.28000 -1.344
63.30000 2.868
63.32000 0.695
63.34000 2.867
63.36000 1.679
63.38000 1.812
63.40000 0.810
63.42000 1.244
63.44000 3.391
63.46000 2.758
63.48000 5.521
63.50000 2.412
63.52000 2.215
63.54000 4.678
63.56000 2.109
63.58000 -2.568
63.60000 -0.809
63.62000 -0.321
63.64000 -1.238
63.66000 2.707
63.68000 6.468
63.70000 5.028
63.72000 2.175
63.74000 3.569
63.76000 3.294
63.78000 2.698
63.80000 2.040
63.82000 7.374
63.84000 0.686
63.86000 0.575
63.88000 5.187
63.90000 6.749
63.92000 0.752
63.94000 0.386
63.96000 1.634
63.98000 3.046
64.00000 0.734
64.02000 -0.799
64.04000 -1.207
64.06000 1.135
64.08000 -1.009
64.10000 -0.158
64.12000 1.827
64.14000 5.908
64.16000 8.339
64.18000 2.981
64.20000 0.162
64.22000 0.848
64.24000 0.767
64.26000 -2.083
64.28000 -2.379
64.30000 -0.250
64.32000 1.827
64.34000 3.219
64.36000 0.843
64.38000 -0.708
64.40000 -1.987
64.42000 -0.776
64.44000 0.927
64.46000 0.167
64.48000 -0.552
64.50000 1.422
64.52000 6.261
64.54000 2.270
64.56000 0.642
64.58000 3.041
64.60000 -1.276
64.62000 -2.605
64.64000 -0.828
64.66000 -1.456
64.68000 0.664
64.70000 4.033
64.72000 8.841
64.74000 8.409
64.76000 5.369
64.78000 2.191
64.80000 -0.939
64.82000 3.790
64.84000 1.987
64.86000 2.493
64.88000 5.063
64.90000 5.258
64.92000 2.796
64.94000 0.849
64.96000 1.491
64.98000 -1.267
65.00000 0.343
65.02000 3.522
65.04000 -1.136
65.06000 -0.915
65.08000 0.731
65.10000 0.783
65.12000 -2.615
65.14000 -1.546
65.16000 0.156
65.18000 -1.659
65.20000 1.385
65.22000 2.517
65.24000 1.558
65.26000 1.940
65.28000 2.120
65.30000 -0.153
65.32000 -1.684
65.34000 -0.759
65.36000 -0.832
65.38000 1.158
65.40000 3.065
65.42000 2.706
65.44000 1.181
65.46000 1.762
65.48000 1.697
65.50000 -0.005
65.52000 4.464
65.54000 2.960
65.56000 5.592
65.58000 5.776
65.60000 5.014
65.62000 4.380
65.64000 2.327
65.66000 4.537
65.68000 0.397
65.70000 0.216
65.72000 1.493
65.74000 3.227
65.76000 3.211
65.78000 2.641
65.80000 5.667
65.82000 6.430
65.84000 4.098
65.86000 -1.288
65.88000 -2.602
65.90000 -0.565
65.92000 0.291
65.94000 -1.107
65.96000 0.715
65.98000 -0.028
66.00000 1.827
66.02000 3.395
66.04000 2.368
66.06000 1.866
66.08000 -1.040
66.10000 0.329
66.12000 2.354
66.14000 3.778
66.16000 5.251
66.18000 -0.525
66.20000 1.365
66.22000 -2.256
66.24000 -1.321
66.26000 3.695
66.28000 4.009
66.30000 2.948
66.32000 2.881
66.34000 3.734
66.36000 -0.130
66.38000 0.975
66.40000 0.562
66.42000 0.930
66.44000 2.688
66.46000 4.255
66.48000 3.241
66.50000 -2.590
66.52000 -0.819
66.54000 3.667
66.56000 3.558
66.58000 0.373
66.60000 1.971
66.62000 -2.144
66.64000 1.740
66.66000 5.025
66.68000 6.605
66.70000 5.210
66.72000 2.803
66.74000 0.996
66.76000 -2.581
66.78000 1.019
66.80000 4.530
66.82000 1.319
66.84000 0.572
66.86000 3.870
66.88000 7.095
66.90000 5.086
66.92000 -0.059
66.94000 4.274
66.96000 2.889
66.98000 2.293
67.00000 2.548
67.02000 1.715
67.04000 0.611
67.06000 1.494
67.08000 3.155
67.10000 -0.435
67.12000 -0.802
67.14000 0.829
67.16000 3.321
67.18000 5.004
67.20000 4.258
67.22000 2.482
67.24000 2.633
67.26000 -0.449
67.28000 -0.770
67.30000 2.693
67.32000 -1.194
67.34000 -0.335
67.36000 -0.329
67.38000 -0.395
67.40000 2.451
67.42000 3.577
67.44000 4.518
67.46000 5.287
67.48000 -0.049
67.50000 1.837
67.52000 -1.786
67.54000 -1.345
67.56000 -1.848
67.58000 1.241
67.60000 1.276
67.62000 0.497
67.64000 1.912
67.66000 1.187
67.68000 0.282
67.70000 0.793
67.72000 -0.442
67.74000 0.784
67.76000 1.018
67.78000 1.539
67.80000 0.106
67.82000 1.380
67.84000 5.197
67.86000 0.976
67.88000 -0.165
67.90000 2.954
67.92000 5.553
67.94000 3.655
67.96000 -0.062
67.98000 -1.594
68.00000 1.376
68.02000 2.794
68.04000 -0.160
68.06000 -2.684
68.08000 1.869
68.10000 1.731
68.12000 1.486
68.14000 1.830
68.16000 2.418
68.18000 2.745
68.20000 6.876
68.22000 4.459
68.24000 2.857
68.26000 6.097
68.28000 4.358
68.30000 6.219
68.32000 5.669
68.34000 5.216
68.36000 7.872
68.38000 3.835
68.40000 4.763
68.42000 5.603
68.44000 4.691
68.46000 5.075
68.48000 6.518
68.50000 9.295
68.52000 11.038
68.54000 11.534
68.56000 10.749
68.58000 13.794
68.60000 10.912
68.62000 13.378
68.64000 10.632
68.66000 10.527
68.68000 12.508
68.70000 13.592
68.72000 16.221
68.74000 11.333
68.76000 12.646
68.78000 13.062
68.80000 13.361
68.82000 17.522
68.84000 18.746
68.86000 13.143
68.88000 17.196
68.90000 17.164
68.92000 16.675
68.94000 20.543
68.96000 17.771
68.98000 18.132
69.00000 20.803
69.02000 20.631
69.04000 21.497
69.06000 23.728
69.08000 25.006
69.10000 19.863
69.12000 23.831
69.14000 23.358
69.16000 23.170
69.18000 22.475
69.20000 20.907
69.22000 21.108
69.24000 21.940
69.26000 19.630
69.28000 23.206
69.30000 25.355
69.32000 24.639
69.34000 24.711
69.36000 23.314
69.38000 21.035
69.40000 20.661
69.42000 23.962
69.44000 22.675
69.46000 26.189
69.48000 28.802
69.50000 22.761
69.52000 19.233
69.54000 20.041
69.56000 22.722
69.58000 27.084
69.60000 23.657
69.62000 21.809
69.64000 20.767
69.66000 20.260
69.68000 20.611
69.70000 15.934
69.72000 14.500
69.74000 15.145
69.76000 14.765
69.78000 14.695
69.80000 20.882
69.82000 14.826
69.84000 9.237
69.86000 12.701
69.88000 12.387
69.90000 10.899
69.92000 11.545
69.94000 10.887
69.96000 11.136
69.98000 8.491
70.00000 9.100
70.02000 10.475
70.04000 10.984
70.06000 2.856
70.08000 3.795
70.10000 6.753
70.12000 6.736
70.14000 8.098
70.16000 6.844
70.18000 4.471
70.20000 8.101
70.22000 4.843
70.24000 2.313
70.26000 5.846
70.28000 3.067
70.30000 4.612
70.32000 5.336
70.34000 3.911
70.36000 3.953
70.38000 3.386
70.40000 4.798
70.42000 4.341
70.44000 6.572
70.46000 2.089
70.48000 0.871
70.50000 0.490
70.52000 3.580
70.54000 4.778
70.56000 2.668
70.58000 0.046
70.60000 4.615
70.62000 3.178
70.64000 6.583
70.66000 5.553
70.68000 -1.548
70.70000 -2.589
70.72000 0.389
70.74000 1.638
70.76000 6.267
70.78000 5.589
70.80000 3.355
70.82000 0.182
70.84000 6.093
70.86000 8.448
70.88000 5.939
70.90000 3.551
70.92000 3.436
70.94000 0.258
70.96000 -1.471
70.98000 1.012
71.00000 2.285
71.02000 -0.251
71.04000 0.315
71.06000 -0.266
71.08000 1.785
71.10000 4.550
71.12000 -0.980
71.14000 -2.535
71.16000 2.512
71.18000 3.376
71.20000 1.319
71.22000 -0.318
71.24000 0.759
71.26000 -0.263
71.28000 -1.879
71.30000 3.903
71.32000 7.982
71.34000 4.994
71.36000 1.197
71.38000 0.833
71.40000 2.353
71.42000 2.456
71.44000 1.828
71.46000 2.942
71.48000 2.037
71.50000 2.967
71.52000 0.698
71.54000 -0.944
71.56000 4.490
71.58000 1.537
71.60000 2.664
71.62000 5.303
71.64000 3.271
71.66000 0.520
71.68000 3.603
71.70000 3.824
71.72000 -1.235
71.74000 -1.867
71.76000 0.401
71.78000 2.680
71.80000 2.569
71.82000 1.041
71.84000 0.232
71.86000 -1.098
71.88000 2.256
71.90000 3.419
71.92000 3.117
71.94000 -0.390
71.96000 -0.193
71.98000 9.019
72.00000 6.666
72.02000 2.156
72.04000 -1.299
72.06000 -1.103
72.08000 2.342
72.10000 3.639
72.12000 4.928
72.14000 0.245
72.16000 0.390
72.18000 0.653
72.20000 0.680
72.22000 -0.120
72.24000 -0.190
72.26000 3.227
72.28000 1.615
72.30000 -1.615
72.32000 -2.398
72.34000 -1.814
72.36000 1.673
72.38000 4.360
72.40000 4.813
72.42000 5.847
72.44000 3.175
72.46000 3.869
72.48000 6.086
72.50000 6.608
72.52000 3.722
72.54000 4.768
72.56000 7.051
72.58000 7.483
72.60000 3.792
72.62000 2.991
72.64000 0.839
72.66000 -0.132
72.68000 2.861
72.70000 3.387
72.72000 6.591
72.74000 4.683
72.76000 1.585
72.78000 5.989
72.80000 2.940
72.82000 -2.396
72.84000 0.021
72.86000 0.222
72.88000 0.160
72.90000 2.103
72.92000 5.904
72.94000 4.160
72.96000 2.569
72.98000 3.629
73.00000 5.970
73.02000 4.805
73.04000 -0.020
73.06000 1.219
73.08000 6.115
73.10000 6.987
73.12000 -0.161
73.14000 2.861
73.16000 8.774
73.18000 2.081
73.20000 -2.014
73.22000 1.098
73.24000 2.019
73.26000 0.366
73.28000 -2.345
73.30000 0.528
73.32000 -1.198
73.34000 -2.383
73.36000 4.375
73.38000 8.000
73.40000 6.155
73.42000 2.741
73.44000 4.832
73.46000 12.333
73.48000 5.439
73.50000 0.700
73.52000 1.080
73.54000 2.500
73.56000 1.674
73.58000 2.647
73.60000 3.196
73.62000 7.767
73.64000 9.997
73.66000 7.918
73.68000 4.875
73.70000 1.514
73.72000 2.384
73.74000 5.119
73.76000 3.388
73.78000 4.037
73.80000 4.685
73.82000 4.516
73.84000 -0.756
73.86000 0.521
73.88000 4.342
73.90000 6.806
73.92000 9.730
73.94000 4.847
73.96000 5.949
73.98000 1.882
74.00000 3.006
74.02000 5.217
74.04000 2.320
74.06000 4.949
74.08000 4.759
74.10000 0.502
74.12000 0.794
74.14000 2.300
74.16000 2.716
74.18000 2.695
74.20000 3.761
74.22000 4.205
74.24000 5.618
74.26000 3.479
74.28000 0.623
74.30000 -2.362
74.32000 1.735
74.34000 5.645
74.36000 7.166
74.38000 8.373
74.40000 6.912
74.42000 2.450
74.44000 3.702
74.46000 3.945
74.48000 7.829
74.50000 6.913
74.52000 5.359
74.54000 4.489
74.56000 4.212
74.58000 2.620
74.60000 -0.199
74.62000 2.251
74.64000 5.773
74.66000 6.566
74.68000 4.265
74.70000 10.339
74.72000 6.167
74.74000 4.748
74.76000 5.164
74.78000 9.599
74.80000 6.873
74.82000 9.035
74.84000 10.421
74.86000 8.140
74.88000 7.119
74.90000 7.294
74.92000 12.885
74.94000 7.860
74.96000 1.293
74.98000 3.964
75.00000 10.534
75.02000 6.602
75.04000 2.086
75.06000 0.819
75.08000 10.378
75.10000 3.867
75.12000 2.163
75.14000 0.580
75.16000 1.633
75.18000 3.739
75.20000 6.954
75.22000 9.187
75.24000 8.217
75.26000 3.716
75.28000 3.336
75.30000 3.871
75.32000 -2.326
75.34000 3.453
75.36000 5.611
75.38000 9.073
75.40000 10.008
75.42000 9.498
75.44000 4.847
75.46000 5.820
75.48000 4.478
75.50000 7.292
75.52000 9.615
75.54000 8.318
75.56000 6.741
75.58000 8.458
75.60000 5.399
75.62000 3.032
75.64000 0.797
75.66000 2.052
75.68000 8.002
75.70000 9.437
75.72000 3.421
75.74000 2.632
75.76000 7.055
75.78000 7.227
75.80000 3.654
75.82000 3.176
75.84000 4.298
75.86000 2.210
75.88000 7.157
75.90000 9.293
75.92000 9.518
75.94000 8.170
75.96000 5.960
75.98000 5.339
76.00000 3.612
76.02000 -0.271
76.04000 2.688
76.06000 -0.061
76.08000 5.662
76.10000 10.634
76.12000 5.238
76.14000 2.069
76.16000 3.194
76.18000 5.398
76.20000 5.105
76.22000 2.197
76.24000 3.865
76.26000 5.189
76.28000 6.444
76.30000 2.955
76.32000 3.456
76.34000 1.381
76.36000 0.560
76.38000 3.416
76.40000 3.620
76.42000 5.678
76.44000 3.496
76.46000 5.407
76.48000 1.828
76.50000 2.610
76.52000 1.946
76.54000 -1.007
76.56000 1.080
76.58000 2.119
76.60000 2.665
76.62000 7.474
76.64000 7.178
76.66000 5.318
76.68000 2.501
76.70000 -1.533
76.72000 -2.398
76.74000 -1.917
76.76000 6.229
76.78000 3.992
76.80000 6.301
76.82000 5.814
76.84000 8.335
76.86000 2.078
76.88000 2.526
76.90000 3.202
76.92000 0.575
76.94000 4.017
76.96000 4.078
76.98000 3.972
77.00000 2.288
77.02000 5.776
77.04000 5.227
77.06000 4.120
77.08000 5.114
77.10000 3.967
77.12000 2.481
77.14000 3.603
77.16000 3.145
77.18000 2.327
77.20000 3.588
77.22000 2.363
77.24000 -2.414
77.26000 1.756
77.28000 1.328
77.30000 0.563
77.32000 3.832
77.34000 1.549
77.36000 1.354
77.38000 -0.261
77.40000 3.487
77.42000 1.078
77.44000 3.736
77.46000 0.769
77.48000 3.070
77.50000 5.448
77.52000 3.276
77.54000 5.622
77.56000 2.558
77.58000 1.058
77.60000 2.731
77.62000 1.258
77.64000 -2.414
77.66000 1.271
77.68000 0.990
77.70000 1.795
77.72000 -0.112
77.74000 0.368
77.76000 1.069
77.78000 4.170
77.80000 6.184
77.82000 2.582
77.84000 1.620
77.86000 0.498
77.88000 -2.256
77.90000 1.164
77.92000 2.431
77.94000 1.057
77.96000 1.982
77.98000 0.633
78.00000 0.378
78.02000 1.176
78.04000 4.574
78.06000 2.034
78.08000 6.296
78.10000 5.827
78.12000 5.738
78.14000 1.138
78.16000 3.466
78.18000 2.171
78.20000 -0.400
78.22000 -1.103
78.24000 -0.059
78.26000 0.953
78.28000 3.034
78.30000 2.118
78.32000 1.842
78.34000 -2.424
78.36000 -0.902
78.38000 2.424
78.40000 4.403
78.42000 0.004
78.44000 -1.058
78.46000 -0.559
78.48000 5.424
78.50000 1.772
78.52000 2.842
78.54000 6.257
78.56000 2.272
78.58000 0.654
78.60000 5.059
78.62000 6.553
78.64000 5.116
78.66000 2.539
78.68000 2.212
78.70000 6.739
78.72000 2.669
78.74000 1.684
78.76000 1.645
78.78000 1.149
78.80000 2.051
78.82000 -0.098
78.84000 -1.046
78.86000 1.837
78.88000 3.868
78.90000 1.296
78.92000 5.661
78.94000 3.213
78.96000 6.440
78.98000 6.154
79.00000 8.427
79.02000 -1.276
79.04000 -2.416
79.06000 7.232
79.08000 8.455
79.10000 6.808
79.12000 3.865
79.14000 0.490
79.16000 2.290
79.18000 -0.574
79.20000 -0.784
79.22000 3.422
79.24000 3.775
79.26000 7.176
79.28000 9.198
79.30000 5.511
79.32000 1.848
79.34000 3.542
79.36000 5.010
79.38000 4.371
79.40000 2.114
79.42000 0.987
79.44000 -0.909
79.46000 6.825
79.48000 9.960
79.50000 0.697
79.52000 -2.425
79.54000 -1.888
79.56000 -2.282
79.58000 4.352
79.60000 10.211
79.62000 3.614
79.64000 -0.044
79.66000 -1.792
79.68000 6.099
79.70000 6.914
79.72000 5.260
79.74000 5.240
79.76000 3.167
79.78000 3.915
79.80000 1.831
79.82000 -0.468
79.84000 2.499
79.86000 2.332
79.88000 -0.676
79.90000 4.200
79.92000 3.519
79.94000 -1.348
79.96000 1.037
79.98000 2.620
80.00000 2.464
80.02000 4.854
80.04000 4.583
80.06000 1.270
80.08000 -0.501
80.10000 1.218
80.12000 -0.063
80.14000 -0.958
80.16000 -1.830
80.18000 0.483
80.20000 -2.465
80.22000 -2.240
80.24000 4.795
80.26000 4.510
80.28000 0.791
80.30000 -2.370
80.32000 0.141
80.34000 -0.724
80.36000 1.486
80.38000 0.588
80.40000 4.070
80.42000 6.830
80.44000 3.770
80.46000 1.865
80.48000 1.999
80.50000 6.542
80.52000 7.615
80.54000 4.363
80.56000 -2.487
80.58000 -1.685
80.60000 -1.955
80.62000 0.582
80.64000 3.754
80.66000 0.761
80.68000 -1.147
80.70000 1.601
80.72000 -0.731
80.74000 -0.707
80.76000 1.090
80.78000 1.458
80.80000 2.014
80.82000 2.620
80.84000 -0.325
80.86000 6.429
80.88000 6.784
80.90000 5.976
80.92000 3.757
80.94000 4.673
80.96000 6.620
80.98000 4.359
81.00000 3.423
81.02000 3.701
81.04000 4.913
81.06000 3.036
81.08000 1.817
81.10000 1.037
81.12000 2.758
81.14000 1.279
81.16000 -1.278
81.18000 1.737
81.20000 2.666
81.22000 3.895
81.24000 6.598
81.26000 6.357
81.28000 6.732
81.30000 3.264
81.32000 4.238
81.34000 5.533
81.36000 3.513
81.38000 -0.016
81.40000 3.538
81.42000 9.174
81.44000 1.329
81.46000 -2.523
81.48000 0.519
81.50000 -0.419
81.52000 -0.301
81.54000 -0.753
81.56000 -2.527
81.58000 -0.173
81.60000 3.579
81.62000 10.095
81.64000 7.435
81.66000 2.410
81.68000 -0.397
81.70000 -1.604
81.72000 1.612
81.74000 1.493
81.76000 3.842
81.78000 5.560
81.80000 8.508
81.82000 11.410
81.84000 5.493
81.86000 4.084
81.88000 0.282
81.90000 2.376
81.92000 0.694
81.94000 0.291
81.96000 -0.646
81.98000 -0.099
82.00000 3.861
82.02000 4.169
82.04000 7.388
82.06000 6.398
82.08000 8.063
82.10000 5.420
82.12000 3.797
82.14000 6.529
82.16000 5.458
82.18000 0.142
82.20000 6.388
82.22000 8.988
82.24000 5.079
82.26000 2.676
82.28000 8.455
82.30000 8.216
82.32000 6.533
82.34000 8.297
82.36000 6.017
82.38000 5.273
82.40000 2.996
82.42000 4.518
82.44000 11.674
82.46000 5.665
82.48000 6.380
82.50000 5.853
82.52000 5.014
82.54000 8.480
82.56000 1.647
82.58000 2.290
82.60000 4.380
82.62000 6.562
82.64000 8.814
82.66000 10.814
82.68000 11.538
82.70000 9.981
82.72000 11.839
82.74000 6.322
82.76000 1.737
82.78000 10.733
82.80000 11.639
82.82000 12.257
82.84000 10.473
82.86000 10.160
82.88000 15.512
82.90000 13.358
82.92000 12.369
82.94000 13.048
82.96000 11.028
82.98000 12.956
83.00000 13.935
83.02000 7.411
83.04000 13.685
83.06000 15.114
83.08000 14.587
83.10000 11.804
83.12000 8.332
83.14000 14.019
83.16000 17.358
83.18000 16.764
83.20000 13.881
83.22000 20.932
83.24000 18.378
83.26000 20.806
83.28000 21.545
83.30000 23.272
83.32000 20.191
83.34000 20.204
83.36000 16.752
83.38000 17.364
83.40000 18.004
83.42000 19.353
83.44000 18.950
83.46000 17.393
83.48000 15.644
83.50000 15.842
83.52000 19.939
83.54000 25.019
83.56000 27.825
83.58000 28.872
83.60000 23.677
83.62000 22.036
83.64000 22.083
83.66000 25.432
83.68000 28.033
83.70000 23.260
83.72000 22.010
83.74000 23.974
83.76000 28.162
83.78000 21.898
83.80000 25.226
83.82000 28.465
83.84000 26.064
83.86000 17.425
83.88000 16.914
83.90000 18.184
83.92000 19.691
83.94000 15.342
83.96000 13.170
83.98000 22.807
84.00000 23.152
84.02000 22.322
84.04000 22.093
84.06000 19.246
84.08000 22.986
84.10000 20.827
84.12000 18.058
84.14000 15.797
84.16000 22.185
84.18000 20.356
84.20000 22.330
84.22000 20.323
84.24000 24.882
84.26000 18.831
84.28000 20.999
84.30000 18.938
84.32000 17.391
84.34000 17.574
84.36000 14.028
84.38000 6.710
84.40000 6.883
84.42000 17.817
84.44000 22.732
84.46000 16.253
84.48000 9.478
84.50000 8.995
84.52000 11.873
84.54000 14.512
84.56000 15.291
84.58000 14.127
84.60000 9.951
84.62000 13.556
84.64000 15.386
84.66000 6.322
84.68000 8.212
84.70000 10.092
84.72000 9.576
84.74000 7.847
84.76000 9.376
84.78000 9.787
84.80000 10.332
84.82000 10.910
84.84000 3.821
84.86000 2.247
84.88000 3.572
84.90000 1.652
84.92000 2.990
84.94000 7.363
84.96000 5.361
84.98000 8.248
85.00000 6.533
85.02000 9.674
85.04000 5.813
85.06000 3.396
85.08000 4.360
85.10000 5.049
85.12000 6.728
85.14000 6.716
85.16000 9.404
85.18000 1.289
85.20000 7.036
85.22000 7.518
85.24000 0.439
85.26000 0.711
85.28000 4.326
85.30000 6.736
85.32000 4.951
85.34000 4.153
85.36000 -0.207
85.38000 1.914
85.40000 10.567
85.42000 8.868
85.44000 2.078
85.46000 -0.791
85.48000 4.724
85.50000 3.140
85.52000 3.963
85.54000 4.000
85.56000 2.572
85.58000 -0.105
85.60000 -2.485
85.62000 -0.726
85.64000 5.247
85.66000 4.926
85.68000 0.921
85.70000 1.774
85.72000 6.686
85.74000 0.924
85.76000 3.559
85.78000 3.268
85.80000 3.608
85.82000 5.102
85.84000 4.955
85.86000 4.852
85.88000 3.201
85.90000 0.834
85.92000 -0.451
85.94000 -0.256
85.96000 -1.881
85.98000 -0.448
86.00000 -0.308
86.02000 3.290
86.04000 5.923
86.06000 3.470
86.08000 -0.233
86.10000 3.956
86.12000 6.525
86.14000 6.664
86.16000 4.907
86.18000 2.886
86.20000 3.875
86.22000 2.668
86.24000 2.444
86.26000 6.535
86.28000 5.090
86.30000 1.646
86.32000 1.546
86.34000 8.206
86.36000 8.208
86.38000 3.112
86.40000 4.317
86.42000 2.557
86.44000 2.554
86.46000 5.566
86.48000 2.504
86.50000 4.542
86.52000 7.665
86.54000 5.801
86.56000 6.696
86.58000 4.337
86.60000 4.620
86.62000 2.581
86.64000 -2.438
86.66000 1.417
86.68000 2.859
86.70000 7.122
86.72000 4.331
86.74000 4.564
86.76000 5.512
86.78000 4.584
86.80000 5.535
86.82000 6.174
86.84000 8.157
86.86000 11.873
86.88000 8.371
86.90000 5.417
86.92000 11.920
86.94000 10.281
86.96000 10.261
86.98000 6.811
87.00000 3.400
87.02000 4.871
87.04000 10.180
87.06000 14.030
87.08000 6.132
87.10000 8.416
87.12000 8.121
87.14000 6.961
87.16000 4.968
87.18000 4.912
87.20000 10.155
87.22000 10.918
87.24000 10.924
87.26000 12.701
87.28000 11.005
87.30000 10.619
87.32000 10.442
87.34000 14.442
87.36000 12.380
87.38000 11.709
87.40000 8.560
87.42000 12.782
87.44000 11.969
87.46000 14.616
87.48000 11.275
87.50000 14.219
87.52000 20.241
87.54000 18.273
87.56000 12.772
87.58000 11.887
87.60000 14.492
87.62000 11.041
87.64000 13.232
87.66000 12.387
87.68000 7.998
87.70000 12.909
87.72000 14.907
87.74000 15.543
87.76000 19.881
87.78000 16.857
87.80000 15.016
87.82000 16.085
87.84000 17.189
87.86000 17.836
87.88000 14.395
87.90000 15.110
87.92000 18.959
87.94000 16.815
87.96000 14.842
87.98000 19.721
88.00000 19.387
88.02000 18.504
88.04000 19.090
88.06000 15.553
88.08000 22.684
88.10000 13.953
88.12000 18.991
88.14000 18.968
88.16000 18.874
88.18000 23.093
88.20000 29.982
88.22000 17.985
88.24000 23.163
88.26000 29.625
88.28000 29.736
88.30000 26.399
88.32000 22.839
88.34000 22.297
88.36000 23.116
88.38000 21.041
88.40000 17.003
88.42000 23.280
88.44000 21.711
88.46000 24.648
88.48000 25.893
88.50000 27.276
88.52000 26.865
88.54000 24.342
88.56000 24.957
88.58000 26.648
88.60000 24.147
88.62000 21.394
88.64000 22.452
88.66000 20.780
88.68000 17.860
88.70000 17.859
88.72000 18.360
88.74000 17.097
88.76000 22.249
88.78000 22.443
88.80000 21.796
88.82000 21.053
88.84000 19.403
88.86000 21.713
88.88000 14.789
88.90000 9.191
88.92000 16.149
88.94000 15.257
88.96000 13.833
88.98000 15.803
89.00000 18.038
89.02000 16.406
89.04000 12.041
89.06000 13.052
89.08000 13.816
89.10000 10.617
89.12000 -0.285
89.14000 2.927
89.16000 4.782
89.18000 10.376
89.20000 17.015
89.22000 12.736
89.24000 10.134
89.26000 6.591
89.28000 12.952
89.30000 9.073
89.32000 9.928
89.34000 8.779
89.36000 12.730
89.38000 11.120
89.40000 4.737
89.42000 3.872
89.44000 5.963
89.46000 3.332
89.48000 -2.461
89.50000 3.410
89.52000 11.317
89.54000 7.836
89.56000 0.561
89.58000 7.505
89.60000 2.431
89.62000 2.600
89.64000 2.427
89.66000 4.958
89.68000 1.877
89.70000 1.532
89.72000 0.788
89.74000 2.828
89.76000 -1.424
89.78000 0.711
89.80000 2.931
89.82000 1.087
89.84000 4.953
89.86000 6.298
89.88000 1.116
89.90000 2.165
89.92000 7.674
89.94000 7.290
89.96000 0.756
89.98000 0.136
90.00000 2.803
90.02000 0.267
90.04000 -2.186
90.06000 2.813
90.08000 7.575
90.10000 4.742
90.12000 -2.391
90.14000 -0.473
90.16000 1.158
90.18000 0.992
90.20000 1.269
90.22000 0.155
90.24000 -1.419
90.26000 0.168
90.28000 1.982
90.30000 3.133
90.32000 4.140
90.34000 7.879
90.36000 7.508
90.38000 8.569
90.40000 3.255
90.42000 0.406
90.44000 0.712
90.46000 2.447
90.48000 1.729
90.50000 4.092
90.52000 5.035
90.54000 3.479
90.56000 2.201
90.58000 5.003
90.60000 1.420
90.62000 -0.817
90.64000 -1.725
90.66000 -2.317
90.68000 4.178
90.70000 1.688
90.72000 2.824
90.74000 6.397
90.76000 11.549
90.78000 3.431
90.80000 3.610
90.82000 -2.296
90.84000 1.400
90.86000 6.524
90.88000 5.803
90.90000 2.241
90.92000 3.651
90.94000 2.371
90.96000 1.333
90.98000 2.375
91.00000 3.767
91.02000 4.571
91.04000 4.829
91.06000 1.378
91.08000 4.254
91.10000 5.649
91.12000 3.640
91.14000 4.829
91.16000 7.069
91.18000 5.630
91.20000 8.981
91.22000 3.608
91.24000 7.276
91.26000 3.629
91.28000 3.330
91.30000 9.115
91.32000 6.394
91.34000 4.646
91.36000 3.992
91.38000 7.635
91.40000 8.673
91.42000 6.987
91.44000 8.163
91.46000 3.839
91.48000 5.854
91.50000 6.093
91.52000 6.629
91.54000 6.165
91.56000 4.177
91.58000 4.852
91.60000 3.037
91.62000 5.087
91.64000 5.832
91.66000 4.594
91.68000 5.726
91.70000 6.139
91.72000 2.531
91.74000 0.671
91.76000 -2.272
91.78000 4.006
91.80000 -1.091
91.82000 -1.987
91.84000 8.405
91.86000 6.889
91.88000 5.329
91.90000 4.007
91.92000 8.032
91.94000 4.710
91.96000 6.849
91.98000 3.284
92.00000 2.592
92.02000 5.265
92.04000 7.378
92.06000 7.651
92.08000 3.242
92.10000 2.303
92.12000 3.846
92.14000 6.367
92.16000 1.487
92.18000 -2.273
92.20000 6.773
92.22000 4.907
92.24000 3.152
92.26000 1.819
92.28000 3.139
92.30000 6.687
92.32000 8.514
92.34000 7.874
92.36000 2.742
92.38000 3.745
92.40000 4.214
92.42000 6.328
92.44000 7.045
92.46000 3.506
92.48000 1.932
92.50000 6.139
92.52000 4.116
92.54000 5.137
92.56000 2.123
92.58000 4.420
92.60000 1.525
92.62000 1.582
92.64000 0.130
92.66000 6.670
92.68000 12.687
92.70000 8.623
92.72000 5.893
92.74000 6.376
92.76000 6.838
92.78000 5.028
92.80000 3.264
92.82000 4.148
92.84000 -1.118
92.86000 1.130
92.88000 1.101
92.90000 5.829
92.92000 4.357
92.94000 4.797
92.96000 6.549
92.98000 3.103
93.00000 2.533
93.02000 6.307
93.04000 6.009
93.06000 6.754
93.08000 9.885
93.10000 11.594
93.12000 7.462
93.14000 4.599
93.16000 2.326
93.18000 2.323
93.20000 -2.250
93.22000 -0.602
93.24000 2.810
93.26000 2.321
93.28000 2.512
93.30000 2.141
93.32000 4.378
93.34000 7.895
93.36000 6.145
93.38000 -0.456
93.40000 -0.113
93.42000 2.391
93.44000 6.342
93.46000 7.257
93.48000 10.093
93.50000 4.765
93.52000 5.994
93.54000 7.761
93.56000 5.946
93.58000 5.840
93.60000 2.908
93.62000 2.992
93.64000 11.769
93.66000 10.080
93.68000 3.420
93.70000 9.560
93.72000 9.754
93.74000 1.742
93.76000 6.245
93.78000 8.600
93.80000 3.068
93.82000 3.890
93.84000 1.868
93.86000 3.260
93.88000 0.818
93.90000 -2.234
93.92000 0.137
93.94000 1.644
93.96000 6.540
93.98000 7.053
94.00000 5.472
94.02000 5.621
94.04000 2.289
94.06000 1.251
94.08000 3.872
94.10000 6.562
94.12000 8.173
94.14000 6.783
94.16000 6.633
94.18000 1.486
94.20000 9.014
94.22000 14.705
94.24000 9.047
94.26000 5.022
94.28000 7.139
94.30000 11.584
94.32000 6.892
94.34000 3.966
94.36000 6.813
94.38000 6.272
94.40000 5.915
94.42000 0.797
94.44000 -0.453
94.46000 -1.677
94.48000 3.312
94.50000 7.130
94.52000 3.321
94.54000 0.534
94.56000 4.549
94.58000 0.251
94.60000 0.248
94.62000 1.407
94.64000 4.965
94.66000 7.246
94.68000 6.105
94.70000 5.120
94.72000 5.045
94.74000 5.809
94.76000 8.477
94.78000 2.053
94.80000 1.183
94.82000 4.478
94.84000 0.058
94.86000 -0.462
94.88000 5.939
94.90000 5.513
94.92000 3.563
94.94000 4.149
94.96000 5.358
94.98000 3.426
95.00000 -1.222
95.02000 3.307
95.04000 2.175
95.06000 -0.662
95.08000 3.764
95.10000 6.882
95.12000 8.207
95.14000 1.043
95.16000 1.186
95.18000 7.820
95.20000 6.891
95.22000 4.805
95.24000 4.783
95.26000 2.273
95.28000 4.600
95.30000 10.284
95.32000 11.325
95.34000 11.160
95.36000 4.245
95.38000 3.050
95.40000 -1.453
95.42000 1.807
95.44000 5.302
95.46000 5.211
95.48000 3.545
95.50000 5.106
95.52000 5.257
95.54000 1.397
95.56000 4.869
95.58000 6.346
95.60000 12.054
95.62000 8.097
95.64000 -2.288
95.66000 -1.615
95.68000 3.247
95.70000 10.747
95.72000 10.298
95.74000 7.027
95.76000 1.046
95.78000 2.478
95.80000 11.954
95.82000 7.854
95.84000 -0.844
95.86000 -2.028
95.88000 1.318
95.90000 5.288
95.92000 7.358
95.94000 3.489
95.96000 3.192
95.98000 4.926
96.00000 10.915
96.02000 7.598
96.04000 2.880
96.06000 2.689
96.08000 1.009
96.10000 -2.201
96.12000 -1.906
96.14000 2.709
96.16000 7.184
96.18000 2.365
96.20000 -2.094
96.22000 0.072
96.24000 4.575
96.26000 11.167
96.28000 9.072
96.30000 6.816
96.32000 8.750
96.34000 7.926
96.36000 3.153
96.38000 5.293
96.40000 5.596
96.42000 0.659
96.44000 1.786
96.46000 1.379
96.48000 1.540
96.50000 2.841
96.52000 4.698
96.54000 9.232
96.56000 7.839
96.58000 0.519
96.60000 2.165
96.62000 -2.145
96.64000 5.483
96.66000 3.494
96.68000 4.667
96.70000 6.469
96.72000 10.289
96.74000 6.019
96.76000 5.719
96.78000 6.507
96.80000 7.704
96.82000 8.718
96.84000 3.376
96.86000 0.084
96.88000 3.406
96.90000 2.786
96.92000 7.765
96.94000 6.456
96.96000 3.837
96.98000 -2.281
97.00000 1.609
97.02000 8.526
97.04000 14.409
97.06000 2.643
97.08000 2.043
97.10000 4.899
97.12000 4.853
97.14000 8.600
97.16000 7.341
97.18000 6.909
97.20000 7.342
97.22000 8.867
97.24000 13.331
97.26000 11.477
97.28000 7.435
97.30000 5.384
97.32000 3.801
97.34000 -0.925
97.36000 3.780
97.38000 10.432
97.40000 5.250
97.42000 6.737
97.44000 9.668
97.46000 1.174
97.48000 1.476
97.50000 8.745
97.52000 9.909
97.54000 9.680
97.56000 9.076
97.58000 7.397
97.60000 1.997
97.62000 5.281
97.64000 6.509
97.66000 4.226
97.68000 10.101
97.70000 11.025
97.72000 7.210
97.74000 1.496
97.76000 -2.220
97.78000 3.270
97.80000 4.938
97.82000 3.626
97.84000 5.534
97.86000 12.923
97.88000 7.791
97.90000 4.893
97.92000 15.731
97.94000 9.395
97.96000 10.078
97.98000 6.670
98.00000 9.358
98.02000 7.085
98.04000 11.325
98.06000 6.864
98.08000 6.516
98.10000 8.262
98.12000 7.809
98.14000 12.311
98.16000 16.851
98.18000 12.398
98.20000 9.830
98.22000 1.105
98.24000 -2.196
98.26000 -1.287
98.28000 3.137
98.30000 8.049
98.32000 4.101
98.34000 9.798
98.36000 14.343
98.38000 1.768
98.40000 6.699
98.42000 11.059
98.44000 8.431
98.46000 11.459
98.48000 4.079
98.50000 9.169
98.52000 8.060
98.54000 8.133
98.56000 11.360
98.58000 4.254
98.60000 2.143
98.62000 5.560
98.64000 11.127
98.66000 16.726
98.68000 5.901
98.70000 3.473
98.72000 0.090
98.74000 7.572
98.76000 11.914
98.78000 11.394
98.80000 8.671
98.82000 7.912
98.84000 7.948
98.86000 12.321
98.88000 5.913
98.90000 6.402
98.92000 14.650
98.94000 16.293
98.96000 7.688
98.98000 -6.259
99.00000 3.472
99.02000 18.292
99.04000 12.880
99.06000 3.483
99.08000 2.823
99.10000 9.969
99.12000 5.418
99.14000 14.061
99.16000 9.757
99.18000 4.020
99.20000 7.386
99.22000 7.105
99.24000 9.760
99.26000 0.306
99.28000 2.446
99.30000 -0.743
99.32000 7.812
99.34000 11.302
99.36000 3.250
99.38000 3.829
99.40000 14.721
99.42000 7.124
99.44000 3.570
99.46000 5.252
99.48000 9.494
99.50000 5.334
99.52000 6.816
99.54000 6.071
99.56000 5.609
99.58000 11.267
99.60000 7.120
99.62000 -2.309
99.64000 3.699
99.66000 10.320
99.68000 13.424
99.70000 11.641
99.72000 6.519
99.74000 3.491
99.76000 12.396
99.78000 6.648
99.80000 2.516
99.82000 8.014
99.84000 14.334
99.86000 8.541
99.88000 6.499
99.90000 0.739
99.92000 5.520
99.94000 8.962
99.96000 5.399
99.98000 0.000
