'Id: "0011387" Comment: "Integrate frame 0011387_Au-Ir-Rh_Rh-rich_XRD-Mapping-107-0000.gfrmwith cursor Wedge Cursor #5" Operator: "B?rgel" Anode: "Cu" Wavelength: "1.5406" Scantype: "2Theta (TwoTheta)" TimePerStep: "1" X: "13.5" Y: "-13.5" Z: "5.95" 
10.00000 0.000
10.02000 0.733
10.04000 -4.053
10.06000 -3.438
10.08000 -3.979
10.10000 0.617
10.12000 -1.349
10.14000 0.838
10.16000 14.545
10.18000 -2.232
10.20000 -3.944
10.22000 1.346
10.24000 6.285
10.26000 9.202
10.28000 16.177
10.30000 14.774
10.32000 8.642
10.34000 11.722
10.36000 34.923
10.38000 28.864
10.40000 6.684
10.42000 -6.625
10.44000 11.749
10.46000 1.794
10.48000 6.779
10.50000 7.723
10.52000 16.113
10.54000 25.183
10.56000 29.985
10.58000 17.007
10.60000 18.600
10.62000 13.356
10.64000 1.000
10.66000 6.790
10.68000 8.832
10.70000 20.458
10.72000 25.585
10.74000 15.849
10.76000 16.680
10.78000 24.635
10.80000 12.966
10.82000 -3.973
10.84000 -3.237
10.86000 10.050
10.88000 18.785
10.90000 24.619
10.92000 26.690
10.94000 28.388
10.96000 25.539
10.98000 5.608
11.00000 24.540
11.02000 18.523
11.04000 0.807
11.06000 4.309
11.08000 18.849
11.10000 22.500
11.12000 21.718
11.14000 8.150
11.16000 8.283
11.18000 5.148
11.20000 24.700
11.22000 21.208
11.24000 11.540
11.26000 15.263
11.28000 17.936
11.30000 18.313
11.32000 22.092
11.34000 19.364
11.36000 15.160
11.38000 22.636
11.40000 19.249
11.42000 21.108
11.44000 25.070
11.46000 7.556
11.48000 9.626
11.50000 7.260
11.52000 19.634
11.54000 31.305
11.56000 21.727
11.58000 16.380
11.60000 23.499
11.62000 16.576
11.64000 16.783
11.66000 21.040
11.68000 22.035
11.70000 15.269
11.72000 21.429
11.74000 25.410
11.76000 33.402
11.78000 27.567
11.80000 17.087
11.82000 15.455
11.84000 20.422
11.86000 24.315
11.88000 29.121
11.90000 22.787
11.92000 25.757
11.94000 19.955
11.96000 23.596
11.98000 20.644
12.00000 19.074
12.02000 19.022
12.04000 27.367
12.06000 18.752
12.08000 11.906
12.10000 13.046
12.12000 10.434
12.14000 23.610
12.16000 29.124
12.18000 24.382
12.20000 12.519
12.22000 6.807
12.24000 6.870
12.26000 16.372
12.28000 26.296
12.30000 30.857
12.32000 25.808
12.34000 26.278
12.36000 22.459
12.38000 15.344
12.40000 21.438
12.42000 18.724
12.44000 18.903
12.46000 25.894
12.48000 19.056
12.50000 15.685
12.52000 16.036
12.54000 19.726
12.56000 20.212
12.58000 23.072
12.60000 16.982
12.62000 24.051
12.64000 21.888
12.66000 22.207
12.68000 27.234
12.70000 21.705
12.72000 11.809
12.74000 15.894
12.76000 16.294
12.78000 16.521
12.80000 23.369
12.82000 20.092
12.84000 16.038
12.86000 8.164
12.88000 12.901
12.90000 13.850
12.92000 16.409
12.94000 6.216
12.96000 10.227
12.98000 22.111
13.00000 12.043
13.02000 23.645
13.04000 17.449
13.06000 17.455
13.08000 17.232
13.10000 8.318
13.12000 11.829
13.14000 14.866
13.16000 12.743
13.18000 13.657
13.20000 18.508
13.22000 23.902
13.24000 19.562
13.26000 12.215
13.28000 15.523
13.30000 26.827
13.32000 22.296
13.34000 23.926
13.36000 18.817
13.38000 23.060
13.40000 22.653
13.42000 20.291
13.44000 17.972
13.46000 17.696
13.48000 16.822
13.50000 20.076
13.52000 17.773
13.54000 10.771
13.56000 22.068
13.58000 26.849
13.60000 22.863
13.62000 15.310
13.64000 7.715
13.66000 10.389
13.68000 14.660
13.70000 23.333
13.72000 29.778
13.74000 26.547
13.76000 14.705
13.78000 12.372
13.80000 15.027
13.82000 13.063
13.84000 20.112
13.86000 8.211
13.88000 8.973
13.90000 18.190
13.92000 20.362
13.94000 16.619
13.96000 15.969
13.98000 12.087
14.00000 7.595
14.02000 11.091
14.04000 17.718
14.06000 23.411
14.08000 22.081
14.10000 16.581
14.12000 12.866
14.14000 11.625
14.16000 10.384
14.18000 11.232
14.20000 13.460
14.22000 19.039
14.24000 14.372
14.26000 10.126
14.28000 10.692
14.30000 17.993
14.32000 20.936
14.34000 11.572
14.36000 12.918
14.38000 16.634
14.40000 13.606
14.42000 15.975
14.44000 24.775
14.46000 21.658
14.48000 21.344
14.50000 13.070
14.52000 11.091
14.54000 18.119
14.56000 26.826
14.58000 23.261
14.60000 12.302
14.62000 14.829
14.64000 17.903
14.66000 8.028
14.68000 11.309
14.70000 8.803
14.72000 9.860
14.74000 13.404
14.76000 16.446
14.78000 10.069
14.80000 3.385
14.82000 6.546
14.84000 7.160
14.86000 14.600
14.88000 11.949
14.90000 8.620
14.92000 17.035
14.94000 17.787
14.96000 5.326
14.98000 11.880
15.00000 25.827
15.02000 20.416
15.04000 13.309
15.06000 10.614
15.08000 15.942
15.10000 8.737
15.12000 7.877
15.14000 15.626
15.16000 21.805
15.18000 13.899
15.20000 12.949
15.22000 13.836
15.24000 4.793
15.26000 5.877
15.28000 5.770
15.30000 -4.379
15.32000 8.782
15.34000 10.524
15.36000 1.211
15.38000 11.963
15.40000 7.277
15.42000 8.544
15.44000 11.495
15.46000 10.941
15.48000 14.954
15.50000 13.543
15.52000 16.954
15.54000 13.181
15.56000 5.143
15.58000 5.813
15.60000 -0.431
15.62000 3.463
15.64000 4.138
15.66000 2.348
15.68000 9.852
15.70000 6.425
15.72000 4.959
15.74000 4.637
15.76000 -1.018
15.78000 4.350
15.80000 6.583
15.82000 -0.366
15.84000 4.378
15.86000 6.335
15.88000 10.249
15.90000 6.441
15.92000 3.232
15.94000 14.862
15.96000 12.157
15.98000 12.922
16.00000 6.809
16.02000 2.520
16.04000 9.191
16.06000 10.274
16.08000 4.495
16.10000 11.605
16.12000 20.473
16.14000 10.555
16.16000 7.850
16.18000 2.397
16.20000 5.903
16.22000 0.621
16.24000 10.279
16.26000 11.480
16.28000 4.974
16.30000 4.015
16.32000 1.652
16.34000 0.008
16.36000 4.097
16.38000 10.493
16.40000 11.670
16.42000 5.174
16.44000 5.953
16.46000 0.550
16.48000 7.630
16.50000 21.076
16.52000 11.908
16.54000 10.067
16.56000 0.869
16.58000 1.004
16.60000 1.927
16.62000 -2.335
16.64000 -0.553
16.66000 4.908
16.68000 9.685
16.70000 7.908
16.72000 6.304
16.74000 -0.011
16.76000 0.524
16.78000 2.151
16.80000 -0.490
16.82000 1.773
16.84000 9.560
16.86000 6.073
16.88000 7.574
16.90000 3.653
16.92000 -0.115
16.94000 7.053
16.96000 7.470
16.98000 6.243
17.00000 4.006
17.02000 4.640
17.04000 -0.388
17.06000 -2.579
17.08000 3.268
17.10000 2.634
17.12000 5.999
17.14000 5.179
17.16000 8.356
17.18000 2.660
17.20000 -1.504
17.22000 9.788
17.24000 18.604
17.26000 13.649
17.28000 8.031
17.30000 0.336
17.32000 2.177
17.34000 1.922
17.36000 3.692
17.38000 5.329
17.40000 0.887
17.42000 1.973
17.44000 7.515
17.46000 8.922
17.48000 8.160
17.50000 6.885
17.52000 5.096
17.54000 6.735
17.56000 5.640
17.58000 10.937
17.60000 11.870
17.62000 8.032
17.64000 4.116
17.66000 8.395
17.68000 3.858
17.70000 2.311
17.72000 8.568
17.74000 10.283
17.76000 0.121
17.78000 -3.844
17.80000 -3.741
17.82000 0.291
17.84000 0.767
17.86000 -2.244
17.88000 5.335
17.90000 5.122
17.92000 0.298
17.94000 4.029
17.96000 -0.091
17.98000 -1.674
18.00000 2.357
18.02000 4.753
18.04000 7.888
18.06000 5.013
18.08000 0.136
18.10000 7.226
18.12000 10.335
18.14000 7.886
18.16000 5.392
18.18000 6.918
18.20000 9.373
18.22000 12.128
18.24000 8.744
18.26000 3.181
18.28000 3.846
18.30000 2.060
18.32000 3.283
18.34000 7.858
18.36000 11.069
18.38000 3.931
18.40000 7.649
18.42000 6.066
18.44000 1.488
18.46000 3.165
18.48000 4.626
18.50000 4.500
18.52000 -4.265
18.54000 2.663
18.56000 7.888
18.58000 17.426
18.60000 15.785
18.62000 12.934
18.64000 2.318
18.66000 -0.178
18.68000 5.819
18.70000 8.640
18.72000 9.477
18.74000 11.016
18.76000 3.582
18.78000 5.376
18.80000 5.736
18.82000 -1.255
18.84000 -0.815
18.86000 5.628
18.88000 7.673
18.90000 4.438
18.92000 5.149
18.94000 9.678
18.96000 14.613
18.98000 8.901
19.00000 2.436
19.02000 9.440
19.04000 16.056
19.06000 11.516
19.08000 16.762
19.10000 9.393
19.12000 3.902
19.14000 5.494
19.16000 10.392
19.18000 12.000
19.20000 9.348
19.22000 14.657
19.24000 13.550
19.26000 17.128
19.28000 13.302
19.30000 13.508
19.32000 14.996
19.34000 8.866
19.36000 6.025
19.38000 0.384
19.40000 -4.177
19.42000 2.112
19.44000 12.595
19.46000 16.873
19.48000 5.508
19.50000 10.508
19.52000 12.075
19.54000 9.417
19.56000 4.417
19.58000 3.812
19.60000 4.756
19.62000 13.554
19.64000 17.342
19.66000 6.730
19.68000 3.517
19.70000 11.923
19.72000 16.888
19.74000 10.903
19.76000 6.721
19.78000 2.965
19.80000 2.451
19.82000 6.223
19.84000 9.767
19.86000 7.410
19.88000 2.083
19.90000 5.803
19.92000 7.456
19.94000 2.338
19.96000 6.305
19.98000 3.616
20.00000 4.745
20.02000 7.715
20.04000 9.498
20.06000 8.479
20.08000 4.711
20.10000 4.835
20.12000 5.640
20.14000 7.389
20.16000 4.389
20.18000 4.595
20.20000 3.486
20.22000 -0.778
20.24000 4.706
20.26000 5.896
20.28000 2.356
20.30000 5.642
20.32000 -0.906
20.34000 4.111
20.36000 9.682
20.38000 10.710
20.40000 5.253
20.42000 1.872
20.44000 8.456
20.46000 3.388
20.48000 8.803
20.50000 1.246
20.52000 5.144
20.54000 9.713
20.56000 5.445
20.58000 10.838
20.60000 14.679
20.62000 4.595
20.64000 2.097
20.66000 -2.101
20.68000 -0.011
20.70000 -0.153
20.72000 1.765
20.74000 8.880
20.76000 11.120
20.78000 11.898
20.80000 3.505
20.82000 2.604
20.84000 1.534
20.86000 -4.147
20.88000 -0.752
20.90000 1.810
20.92000 3.838
20.94000 9.183
20.96000 6.504
20.98000 8.777
21.00000 0.096
21.02000 -3.603
21.04000 -0.925
21.06000 0.994
21.08000 2.769
21.10000 2.788
21.12000 4.372
21.14000 2.931
21.16000 7.786
21.18000 6.228
21.20000 5.779
21.22000 6.836
21.24000 7.902
21.26000 5.668
21.28000 8.861
21.30000 3.506
21.32000 8.327
21.34000 6.698
21.36000 7.265
21.38000 5.236
21.40000 6.573
21.42000 5.778
21.44000 7.306
21.46000 2.487
21.48000 2.639
21.50000 5.897
21.52000 5.463
21.54000 8.727
21.56000 7.759
21.58000 5.339
21.60000 5.804
21.62000 8.910
21.64000 6.558
21.66000 6.182
21.68000 2.365
21.70000 -0.523
21.72000 0.082
21.74000 7.536
21.76000 16.358
21.78000 12.406
21.80000 3.509
21.82000 4.717
21.84000 6.969
21.86000 2.471
21.88000 3.749
21.90000 -4.082
21.92000 -1.425
21.94000 1.437
21.96000 5.318
21.98000 6.267
22.00000 2.055
22.02000 4.272
22.04000 -0.055
22.06000 -4.074
22.08000 -3.107
22.10000 -0.444
22.12000 6.633
22.14000 11.055
22.16000 7.516
22.18000 -0.288
22.20000 2.168
22.22000 1.598
22.24000 4.457
22.26000 7.018
22.28000 11.760
22.30000 1.540
22.32000 -0.864
22.34000 -0.990
22.36000 2.655
22.38000 2.977
22.40000 4.543
22.42000 1.830
22.44000 1.744
22.46000 0.962
22.48000 -1.342
22.50000 -0.271
22.52000 1.967
22.54000 8.905
22.56000 6.458
22.58000 2.383
22.60000 4.953
22.62000 4.237
22.64000 5.384
22.66000 1.439
22.68000 -4.060
22.70000 0.061
22.72000 5.749
22.74000 5.693
22.76000 -2.060
22.78000 -2.604
22.80000 6.193
22.82000 7.280
22.84000 4.374
22.86000 5.767
22.88000 6.510
22.90000 4.314
22.92000 -0.613
22.94000 -0.973
22.96000 5.092
22.98000 2.206
23.00000 6.073
23.02000 1.010
23.04000 2.143
23.06000 3.256
23.08000 4.031
23.10000 2.587
23.12000 4.239
23.14000 4.254
23.16000 -0.543
23.18000 0.962
23.20000 2.895
23.22000 4.308
23.24000 3.912
23.26000 3.029
23.28000 6.906
23.30000 8.785
23.32000 2.973
23.34000 0.133
23.36000 4.433
23.38000 4.536
23.40000 -1.348
23.42000 4.267
23.44000 3.439
23.46000 10.997
23.48000 5.468
23.50000 1.279
23.52000 2.482
23.54000 2.493
23.56000 1.558
23.58000 -1.171
23.60000 6.054
23.62000 12.286
23.64000 9.182
23.66000 8.028
23.68000 2.284
23.70000 5.240
23.72000 2.231
23.74000 2.854
23.76000 10.963
23.78000 7.268
23.80000 4.103
23.82000 -2.381
23.84000 -2.727
23.86000 1.948
23.88000 2.818
23.90000 5.298
23.92000 -1.088
23.94000 -3.974
23.96000 2.383
23.98000 6.010
24.00000 8.299
24.02000 4.754
24.04000 1.305
24.06000 4.480
24.08000 10.188
24.10000 2.317
24.12000 -2.202
24.14000 5.409
24.16000 11.370
24.18000 11.263
24.20000 5.658
24.22000 4.624
24.24000 0.381
24.26000 0.551
24.28000 -1.118
24.30000 -2.861
24.32000 2.608
24.34000 0.060
24.36000 -1.503
24.38000 8.111
24.40000 8.525
24.42000 11.603
24.44000 2.160
24.46000 1.574
24.48000 7.454
24.50000 6.284
24.52000 3.010
24.54000 -0.359
24.56000 -0.243
24.58000 6.513
24.60000 5.381
24.62000 15.149
24.64000 11.931
24.66000 8.206
24.68000 5.724
24.70000 3.808
24.72000 2.951
24.74000 3.794
24.76000 6.579
24.78000 1.965
24.80000 3.460
24.82000 6.131
24.84000 0.045
24.86000 -3.918
24.88000 -0.662
24.90000 4.232
24.92000 3.673
24.94000 0.167
24.96000 5.824
24.98000 7.299
25.00000 2.230
25.02000 -1.009
25.04000 0.533
25.06000 3.611
25.08000 1.887
25.10000 3.663
25.12000 8.837
25.14000 6.479
25.16000 3.047
25.18000 3.920
25.20000 3.817
25.22000 4.975
25.24000 8.932
25.26000 9.637
25.28000 5.845
25.30000 4.761
25.32000 5.906
25.34000 1.910
25.36000 1.154
25.38000 2.039
25.40000 3.681
25.42000 -3.356
25.44000 5.742
25.46000 5.486
25.48000 7.702
25.50000 8.758
25.52000 9.227
25.54000 5.242
25.56000 4.414
25.58000 -0.486
25.60000 0.574
25.62000 0.146
25.64000 -0.067
25.66000 -1.928
25.68000 1.363
25.70000 0.689
25.72000 2.799
25.74000 5.695
25.76000 6.809
25.78000 7.647
25.80000 4.706
25.82000 4.465
25.84000 -3.366
25.86000 0.652
25.88000 2.474
25.90000 4.242
25.92000 0.659
25.94000 -3.477
25.96000 0.682
25.98000 -2.716
26.00000 -1.681
26.02000 -0.551
26.04000 3.940
26.06000 5.658
26.08000 7.924
26.10000 6.203
26.12000 3.233
26.14000 3.183
26.16000 3.851
26.18000 2.556
26.20000 4.363
26.22000 3.264
26.24000 4.054
26.26000 -2.040
26.28000 0.734
26.30000 8.884
26.32000 0.606
26.34000 1.939
26.36000 -0.030
26.38000 5.680
26.40000 4.929
26.42000 3.448
26.44000 7.713
26.46000 5.977
26.48000 5.638
26.50000 7.075
26.52000 3.732
26.54000 2.253
26.56000 8.143
26.58000 5.016
26.60000 7.443
26.62000 7.728
26.64000 3.129
26.66000 3.825
26.68000 2.122
26.70000 2.729
26.72000 4.846
26.74000 4.617
26.76000 9.790
26.78000 6.120
26.80000 8.367
26.82000 11.374
26.84000 5.950
26.86000 0.135
26.88000 1.132
26.90000 4.938
26.92000 6.597
26.94000 8.085
26.96000 5.441
26.98000 4.868
27.00000 8.639
27.02000 11.666
27.04000 6.042
27.06000 -3.764
27.08000 2.345
27.10000 0.997
27.12000 1.138
27.14000 7.712
27.16000 8.455
27.18000 2.985
27.20000 6.454
27.22000 7.135
27.24000 6.616
27.26000 4.324
27.28000 1.303
27.30000 4.398
27.32000 7.210
27.34000 3.861
27.36000 6.480
27.38000 7.007
27.40000 4.168
27.42000 1.702
27.44000 7.304
27.46000 2.349
27.48000 5.435
27.50000 7.880
27.52000 8.996
27.54000 10.559
27.56000 8.049
27.58000 4.355
27.60000 3.614
27.62000 6.882
27.64000 7.259
27.66000 6.476
27.68000 7.237
27.70000 3.107
27.72000 -0.258
27.74000 2.902
27.76000 7.775
27.78000 10.869
27.80000 11.063
27.82000 8.367
27.84000 5.424
27.86000 8.315
27.88000 8.499
27.90000 1.381
27.92000 4.772
27.94000 4.059
27.96000 0.908
27.98000 1.819
28.00000 0.585
28.02000 5.741
28.04000 5.351
28.06000 5.010
28.08000 1.799
28.10000 0.608
28.12000 2.053
28.14000 6.813
28.16000 7.516
28.18000 3.155
28.20000 2.727
28.22000 8.437
28.24000 5.471
28.26000 -0.579
28.28000 -3.724
28.30000 -1.113
28.32000 0.929
28.34000 2.813
28.36000 4.661
28.38000 3.195
28.40000 2.203
28.42000 5.638
28.44000 5.009
28.46000 1.332
28.48000 0.216
28.50000 2.935
28.52000 6.171
28.54000 6.437
28.56000 6.972
28.58000 7.808
28.60000 1.291
28.62000 2.608
28.64000 0.064
28.66000 1.229
28.68000 0.385
28.70000 6.231
28.72000 3.323
28.74000 -1.798
28.76000 1.226
28.78000 0.858
28.80000 4.866
28.82000 3.007
28.84000 1.600
28.86000 2.465
28.88000 1.961
28.90000 3.088
28.92000 3.484
28.94000 1.999
28.96000 4.446
28.98000 7.075
29.00000 6.827
29.02000 5.156
29.04000 2.362
29.06000 5.012
29.08000 4.038
29.10000 -0.327
29.12000 -2.884
29.14000 -1.489
29.16000 -0.319
29.18000 1.167
29.20000 0.120
29.22000 -2.435
29.24000 -1.319
29.26000 -0.423
29.28000 1.891
29.30000 0.827
29.32000 4.000
29.34000 2.439
29.36000 -2.165
29.38000 -1.471
29.40000 -0.588
29.42000 -1.417
29.44000 0.545
29.46000 -2.976
29.48000 4.117
29.50000 0.859
29.52000 2.248
29.54000 5.526
29.56000 -0.204
29.58000 1.348
29.60000 8.381
29.62000 1.711
29.64000 1.717
29.66000 4.656
29.68000 -1.554
29.70000 -1.468
29.72000 -0.471
29.74000 1.290
29.76000 4.074
29.78000 1.293
29.80000 0.734
29.82000 0.352
29.84000 0.528
29.86000 3.739
29.88000 5.721
29.90000 1.502
29.92000 3.051
29.94000 0.782
29.96000 0.169
29.98000 2.644
30.00000 2.475
30.02000 2.030
30.04000 4.703
30.06000 0.705
30.08000 -1.008
30.10000 1.661
30.12000 0.623
30.14000 1.174
30.16000 6.267
30.18000 4.886
30.20000 3.461
30.22000 3.454
30.24000 1.302
30.26000 -0.339
30.28000 0.202
30.30000 -0.818
30.32000 4.500
30.34000 4.548
30.36000 2.853
30.38000 4.468
30.40000 3.356
30.42000 0.913
30.44000 0.817
30.46000 3.411
30.48000 5.746
30.50000 2.061
30.52000 0.075
30.54000 2.253
30.56000 3.954
30.58000 7.683
30.60000 -0.534
30.62000 -3.619
30.64000 -0.390
30.66000 7.402
30.68000 5.365
30.70000 3.929
30.72000 5.948
30.74000 2.234
30.76000 5.011
30.78000 4.290
30.80000 1.211
30.82000 -3.295
30.84000 -0.496
30.86000 -0.009
30.88000 -1.974
30.90000 -0.400
30.92000 0.851
30.94000 6.145
30.96000 5.457
30.98000 4.833
31.00000 7.270
31.02000 1.838
31.04000 -2.027
31.06000 0.969
31.08000 2.602
31.10000 -1.300
31.12000 3.285
31.14000 2.625
31.16000 0.415
31.18000 -0.936
31.20000 -2.650
31.22000 2.245
31.24000 4.363
31.26000 6.946
31.28000 3.142
31.30000 1.195
31.32000 4.925
31.34000 1.224
31.36000 0.677
31.38000 0.892
31.40000 1.212
31.42000 2.399
31.44000 5.257
31.46000 2.873
31.48000 -0.922
31.50000 -1.079
31.52000 0.488
31.54000 1.299
31.56000 0.005
31.58000 -0.583
31.60000 -0.192
31.62000 2.820
31.64000 7.902
31.66000 5.735
31.68000 3.759
31.70000 0.348
31.72000 -3.367
31.74000 -1.060
31.76000 1.620
31.78000 2.104
31.80000 6.824
31.82000 -0.923
31.84000 -3.589
31.86000 1.637
31.88000 2.568
31.90000 2.992
31.92000 -1.545
31.94000 4.772
31.96000 6.093
31.98000 4.266
32.00000 0.426
32.02000 1.593
32.04000 0.336
32.06000 3.763
32.08000 2.136
32.10000 3.488
32.12000 5.687
32.14000 4.089
32.16000 4.340
32.18000 0.458
32.20000 0.056
32.22000 -0.498
32.24000 0.803
32.26000 0.267
32.28000 -2.645
32.30000 -3.558
32.32000 -0.080
32.34000 0.245
32.36000 -0.171
32.38000 1.539
32.40000 3.016
32.42000 5.592
32.44000 5.132
32.46000 5.533
32.48000 3.171
32.50000 0.535
32.52000 -0.231
32.54000 1.171
32.56000 2.921
32.58000 8.851
32.60000 5.648
32.62000 3.659
32.64000 1.326
32.66000 0.819
32.68000 -2.337
32.70000 2.587
32.72000 7.728
32.74000 3.275
32.76000 -2.343
32.78000 1.833
32.80000 -0.195
32.82000 1.982
32.84000 4.057
32.86000 -2.605
32.88000 -2.592
32.90000 -0.160
32.92000 1.991
32.94000 4.246
32.96000 2.379
32.98000 3.984
33.00000 2.217
33.02000 -0.146
33.04000 2.344
33.06000 -2.296
33.08000 -0.018
33.10000 2.041
33.12000 5.124
33.14000 3.938
33.16000 1.738
33.18000 -1.427
33.20000 -0.111
33.22000 0.987
33.24000 5.425
33.26000 8.440
33.28000 4.386
33.30000 3.168
33.32000 6.628
33.34000 4.133
33.36000 -1.044
33.38000 -3.540
33.40000 1.179
33.42000 0.937
33.44000 -0.713
33.46000 3.134
33.48000 3.437
33.50000 3.239
33.52000 0.661
33.54000 2.921
33.56000 3.255
33.58000 4.730
33.60000 4.927
33.62000 4.762
33.64000 4.545
33.66000 3.895
33.68000 1.803
33.70000 4.224
33.72000 4.193
33.74000 0.080
33.76000 -3.063
33.78000 -0.133
33.80000 -0.256
33.82000 3.766
33.84000 2.779
33.86000 4.258
33.88000 -0.860
33.90000 2.627
33.92000 3.740
33.94000 1.710
33.96000 1.302
33.98000 5.637
34.00000 5.412
34.02000 9.372
34.04000 4.572
34.06000 2.486
34.08000 1.604
34.10000 6.849
34.12000 0.918
34.14000 -0.645
34.16000 2.872
34.18000 4.907
34.20000 1.919
34.22000 1.304
34.24000 -0.355
34.26000 -0.224
34.28000 1.369
34.30000 4.905
34.32000 4.386
34.34000 1.437
34.36000 3.406
34.38000 2.853
34.40000 1.305
34.42000 2.984
34.44000 0.115
34.46000 1.239
34.48000 0.970
34.50000 -0.804
34.52000 6.282
34.54000 4.275
34.56000 1.349
34.58000 -0.736
34.60000 -3.279
34.62000 0.720
34.64000 2.668
34.66000 4.686
34.68000 3.125
34.70000 2.666
34.72000 1.600
34.74000 1.757
34.76000 0.170
34.78000 2.479
34.80000 3.097
34.82000 4.150
34.84000 3.826
34.86000 3.993
34.88000 2.133
34.90000 0.647
34.92000 1.352
34.94000 1.183
34.96000 -0.215
34.98000 -3.479
35.00000 2.090
35.02000 5.413
35.04000 4.349
35.06000 8.531
35.08000 7.592
35.10000 3.234
35.12000 5.784
35.14000 6.567
35.16000 5.071
35.18000 -0.522
35.20000 -0.313
35.22000 2.098
35.24000 2.084
35.26000 3.517
35.28000 7.849
35.30000 3.736
35.32000 1.838
35.34000 -0.212
35.36000 1.798
35.38000 1.435
35.40000 -1.500
35.42000 -0.432
35.44000 -3.487
35.46000 -0.647
35.48000 0.018
35.50000 -1.512
35.52000 3.337
35.54000 5.461
35.56000 1.580
35.58000 -0.076
35.60000 4.859
35.62000 5.896
35.64000 5.039
35.66000 1.500
35.68000 1.382
35.70000 0.586
35.72000 3.842
35.74000 5.229
35.76000 5.111
35.78000 4.092
35.80000 3.024
35.82000 5.951
35.84000 3.338
35.86000 2.320
35.88000 6.266
35.90000 3.258
35.92000 -1.599
35.94000 -0.727
35.96000 4.756
35.98000 3.778
36.00000 0.683
36.02000 0.533
36.04000 0.480
36.06000 3.256
36.08000 2.333
36.10000 3.579
36.12000 3.893
36.14000 1.204
36.16000 6.982
36.18000 4.177
36.20000 -1.101
36.22000 0.884
36.24000 0.154
36.26000 3.269
36.28000 4.016
36.30000 5.627
36.32000 -1.468
36.34000 -3.472
36.36000 -3.472
36.38000 0.241
36.40000 2.642
36.42000 5.008
36.44000 -0.989
36.46000 -0.886
36.48000 3.250
36.50000 3.591
36.52000 3.109
36.54000 3.149
36.56000 -1.668
36.58000 2.550
36.60000 0.999
36.62000 1.370
36.64000 -1.989
36.66000 0.310
36.68000 4.044
36.70000 0.312
36.72000 1.939
36.74000 0.189
36.76000 -0.417
36.78000 0.076
36.80000 -1.640
36.82000 -0.735
36.84000 1.803
36.86000 1.453
36.88000 -1.382
36.90000 -3.509
36.92000 1.330
36.94000 4.879
36.96000 2.819
36.98000 -1.057
37.00000 -2.382
37.02000 0.703
37.04000 3.006
37.06000 6.669
37.08000 2.476
37.10000 2.767
37.12000 2.187
37.14000 -1.495
37.16000 -0.908
37.18000 -0.814
37.20000 -0.911
37.22000 -3.526
37.24000 1.793
37.26000 3.100
37.28000 1.579
37.30000 -1.622
37.32000 -3.417
37.34000 -2.282
37.36000 0.457
37.38000 0.372
37.40000 -0.679
37.42000 -2.430
37.44000 -1.556
37.46000 -2.946
37.48000 -1.672
37.50000 2.004
37.52000 -2.033
37.54000 -2.143
37.56000 -1.502
37.58000 0.318
37.60000 2.838
37.62000 2.890
37.64000 1.223
37.66000 0.823
37.68000 2.448
37.70000 1.157
37.72000 2.612
37.74000 0.828
37.76000 -3.573
37.78000 -2.964
37.80000 0.687
37.82000 1.609
37.84000 3.636
37.86000 4.957
37.88000 3.682
37.90000 0.596
37.92000 3.212
37.94000 5.912
37.96000 3.693
37.98000 0.951
38.00000 0.522
38.02000 4.378
38.04000 5.428
38.06000 4.381
38.08000 8.281
38.10000 8.841
38.12000 11.331
38.14000 8.199
38.16000 8.590
38.18000 13.581
38.20000 11.866
38.22000 9.947
38.24000 4.690
38.26000 5.980
38.28000 10.892
38.30000 13.811
38.32000 13.763
38.34000 15.005
38.36000 13.132
38.38000 13.185
38.40000 15.277
38.42000 16.182
38.44000 14.431
38.46000 13.152
38.48000 9.993
38.50000 10.981
38.52000 12.755
38.54000 17.180
38.56000 17.419
38.58000 15.996
38.60000 18.244
38.62000 15.556
38.64000 15.060
38.66000 19.236
38.68000 19.068
38.70000 24.840
38.72000 24.896
38.74000 19.897
38.76000 13.553
38.78000 18.045
38.80000 24.377
38.82000 25.012
38.84000 26.854
38.86000 25.980
38.88000 23.585
38.90000 20.801
38.92000 26.534
38.94000 29.675
38.96000 24.572
38.98000 33.363
39.00000 33.756
39.02000 32.802
39.04000 35.343
39.06000 36.374
39.08000 30.678
39.10000 31.547
39.12000 35.283
39.14000 37.015
39.16000 36.471
39.18000 39.388
39.20000 42.846
39.22000 45.939
39.24000 45.755
39.26000 48.141
39.28000 45.145
39.30000 42.904
39.32000 47.657
39.34000 53.150
39.36000 57.888
39.38000 61.748
39.40000 60.349
39.42000 63.101
39.44000 67.604
39.46000 75.187
39.48000 73.699
39.50000 79.061
39.52000 78.303
39.54000 78.080
39.56000 86.409
39.58000 91.831
39.60000 96.866
39.62000 100.754
39.64000 106.326
39.66000 103.955
39.68000 112.611
39.70000 122.572
39.72000 133.875
39.74000 142.580
39.76000 151.498
39.78000 154.081
39.80000 154.881
39.82000 163.775
39.84000 179.438
39.86000 191.580
39.88000 205.446
39.90000 215.024
39.92000 224.879
39.94000 246.718
39.96000 264.841
39.98000 279.005
40.00000 293.860
40.02000 315.700
40.04000 336.500
40.06000 356.198
40.08000 383.946
40.10000 405.862
40.12000 422.401
40.14000 452.074
40.16000 476.893
40.18000 505.529
40.20000 529.955
40.22000 552.287
40.24000 584.376
40.26000 616.001
40.28000 633.789
40.30000 662.298
40.32000 689.563
40.34000 721.364
40.36000 731.581
40.38000 751.148
40.40000 778.323
40.42000 794.659
40.44000 805.577
40.46000 810.973
40.48000 812.092
40.50000 798.419
40.52000 804.576
40.54000 798.719
40.56000 801.931
40.58000 798.828
40.60000 773.263
40.62000 763.594
40.64000 752.999
40.66000 730.267
40.68000 701.523
40.70000 684.179
40.72000 664.810
40.74000 644.523
40.76000 627.782
40.78000 590.388
40.80000 573.393
40.82000 548.297
40.84000 520.562
40.86000 499.960
40.88000 475.911
40.90000 456.485
40.92000 440.747
40.94000 408.165
40.96000 389.636
40.98000 377.344
41.00000 360.634
41.02000 336.608
41.04000 314.441
41.06000 296.340
41.08000 281.385
41.10000 268.264
41.12000 257.373
41.14000 244.894
41.16000 224.335
41.18000 209.549
41.20000 197.848
41.22000 191.210
41.24000 183.126
41.26000 173.613
41.28000 162.577
41.30000 151.789
41.32000 141.025
41.34000 136.324
41.36000 132.121
41.38000 123.198
41.40000 113.964
41.42000 107.907
41.44000 99.876
41.46000 99.377
41.48000 97.169
41.50000 88.162
41.52000 82.871
41.54000 81.262
41.56000 76.682
41.58000 75.750
41.60000 72.697
41.62000 68.038
41.64000 67.286
41.66000 66.101
41.68000 62.985
41.70000 59.266
41.72000 52.879
41.74000 46.939
41.76000 46.701
41.78000 43.196
41.80000 42.407
41.82000 40.087
41.84000 45.033
41.86000 42.311
41.88000 35.715
41.90000 33.554
41.92000 34.959
41.94000 36.058
41.96000 28.926
41.98000 26.676
42.00000 27.529
42.02000 24.331
42.04000 21.051
42.06000 26.133
42.08000 24.016
42.10000 23.414
42.12000 17.534
42.14000 19.299
42.16000 21.136
42.18000 20.698
42.20000 19.148
42.22000 20.190
42.24000 13.271
42.26000 15.368
42.28000 12.315
42.30000 11.013
42.32000 9.453
42.34000 13.891
42.36000 11.426
42.38000 11.697
42.40000 11.506
42.42000 9.150
42.44000 6.559
42.46000 10.382
42.48000 10.168
42.50000 10.547
42.52000 7.023
42.54000 5.637
42.56000 4.842
42.58000 0.897
42.60000 1.216
42.62000 1.862
42.64000 3.772
42.66000 7.829
42.68000 8.163
42.70000 6.173
42.72000 5.698
42.74000 6.704
42.76000 8.124
42.78000 3.208
42.80000 3.636
42.82000 6.298
42.84000 5.830
42.86000 6.372
42.88000 1.898
42.90000 2.000
42.92000 -0.275
42.94000 0.867
42.96000 1.644
42.98000 0.155
43.00000 0.199
43.02000 -0.134
43.04000 1.686
43.06000 0.767
43.08000 0.333
43.10000 -1.310
43.12000 -2.237
43.14000 -0.790
43.16000 2.844
43.18000 3.020
43.20000 2.077
43.22000 -2.833
43.24000 -1.668
43.26000 1.145
43.28000 2.605
43.30000 0.842
43.32000 -0.867
43.34000 0.916
43.36000 2.990
43.38000 3.107
43.40000 -0.291
43.42000 -0.639
43.44000 4.516
43.46000 9.033
43.48000 4.688
43.50000 1.526
43.52000 0.534
43.54000 0.470
43.56000 -0.774
43.58000 -2.170
43.60000 -2.656
43.62000 -2.277
43.64000 -2.260
43.66000 5.920
43.68000 5.878
43.70000 2.442
43.72000 1.714
43.74000 5.441
43.76000 1.615
43.78000 -3.353
43.80000 0.464
43.82000 1.651
43.84000 0.865
43.86000 -0.227
43.88000 2.543
43.90000 0.824
43.92000 4.292
43.94000 0.672
43.96000 -1.835
43.98000 -0.402
44.00000 -0.496
44.02000 -1.741
44.04000 -1.198
44.06000 -1.623
44.08000 3.015
44.10000 2.314
44.12000 4.956
44.14000 0.499
44.16000 3.594
44.18000 1.600
44.20000 2.575
44.22000 -0.206
44.24000 -1.596
44.26000 2.735
44.28000 -0.948
44.30000 -1.740
44.32000 1.674
44.34000 1.437
44.36000 -0.046
44.38000 -1.320
44.40000 2.211
44.42000 4.357
44.44000 3.341
44.46000 1.855
44.48000 0.778
44.50000 -1.945
44.52000 -3.303
44.54000 3.990
44.56000 5.509
44.58000 0.344
44.60000 0.628
44.62000 -1.337
44.64000 -2.360
44.66000 1.607
44.68000 2.075
44.70000 1.727
44.72000 2.667
44.74000 1.116
44.76000 -1.281
44.78000 2.544
44.80000 2.221
44.82000 0.323
44.84000 -0.781
44.86000 -3.100
44.88000 -0.288
44.90000 -1.682
44.92000 -3.293
44.94000 0.599
44.96000 -1.400
44.98000 2.984
45.00000 2.182
45.02000 -1.626
45.04000 2.327
45.06000 2.960
45.08000 4.659
45.10000 -1.082
45.12000 -2.895
45.14000 -3.286
45.16000 -3.001
45.18000 -1.672
45.20000 -0.210
45.22000 2.868
45.24000 0.962
45.26000 1.743
45.28000 2.670
45.30000 3.644
45.32000 3.150
45.34000 1.888
45.36000 2.887
45.38000 5.463
45.40000 1.282
45.42000 3.554
45.44000 4.906
45.46000 -0.136
45.48000 0.296
45.50000 3.932
45.52000 7.983
45.54000 2.686
45.56000 6.815
45.58000 9.301
45.60000 3.980
45.62000 5.846
45.64000 7.293
45.66000 4.137
45.68000 4.328
45.70000 3.671
45.72000 4.427
45.74000 7.482
45.76000 7.978
45.78000 7.401
45.80000 9.977
45.82000 10.030
45.84000 10.022
45.86000 15.401
45.88000 17.943
45.90000 17.196
45.92000 16.814
45.94000 18.010
45.96000 18.980
45.98000 16.744
46.00000 17.199
46.02000 19.262
46.04000 19.822
46.06000 19.237
46.08000 18.882
46.10000 24.154
46.12000 26.086
46.14000 24.588
46.16000 24.499
46.18000 30.229
46.20000 37.350
46.22000 35.908
46.24000 33.619
46.26000 33.437
46.28000 30.118
46.30000 29.724
46.32000 36.002
46.34000 35.520
46.36000 39.882
46.38000 42.685
46.40000 44.571
46.42000 50.933
46.44000 50.987
46.46000 47.646
46.48000 52.048
46.50000 58.259
46.52000 62.847
46.54000 64.046
46.56000 67.676
46.58000 67.547
46.60000 67.613
46.62000 68.040
46.64000 67.650
46.66000 65.728
46.68000 75.700
46.70000 83.020
46.72000 84.819
46.74000 89.953
46.76000 91.349
46.78000 98.986
46.80000 104.265
46.82000 106.267
46.84000 99.848
46.86000 99.773
46.88000 100.072
46.90000 109.364
46.92000 112.101
46.94000 116.424
46.96000 122.755
46.98000 122.083
47.00000 119.723
47.02000 118.801
47.04000 122.595
47.06000 123.354
47.08000 121.074
47.10000 124.592
47.12000 122.709
47.14000 123.974
47.16000 120.665
47.18000 124.123
47.20000 119.814
47.22000 124.653
47.24000 125.711
47.26000 117.041
47.28000 111.415
47.30000 114.625
47.32000 114.050
47.34000 107.298
47.36000 102.497
47.38000 104.557
47.40000 106.996
47.42000 105.455
47.44000 101.861
47.46000 90.672
47.48000 88.623
47.50000 85.858
47.52000 82.700
47.54000 76.283
47.56000 77.027
47.58000 72.805
47.60000 69.834
47.62000 64.980
47.64000 62.028
47.66000 64.991
47.68000 59.098
47.70000 58.713
47.72000 64.617
47.74000 57.743
47.76000 54.131
47.78000 53.602
47.80000 47.749
47.82000 49.140
47.84000 46.143
47.86000 39.879
47.88000 39.130
47.90000 39.277
47.92000 41.126
47.94000 27.895
47.96000 27.338
47.98000 28.346
48.00000 28.349
48.02000 25.321
48.04000 27.568
48.06000 26.269
48.08000 26.996
48.10000 20.536
48.12000 21.366
48.14000 19.434
48.16000 17.057
48.18000 15.211
48.20000 14.936
48.22000 13.805
48.24000 10.855
48.26000 7.437
48.28000 7.273
48.30000 8.344
48.32000 13.673
48.34000 9.423
48.36000 7.658
48.38000 8.905
48.40000 5.438
48.42000 7.481
48.44000 8.033
48.46000 4.122
48.48000 4.515
48.50000 8.424
48.52000 5.746
48.54000 2.986
48.56000 4.995
48.58000 4.214
48.60000 4.553
48.62000 7.935
48.64000 4.560
48.66000 7.594
48.68000 10.018
48.70000 4.958
48.72000 1.552
48.74000 1.350
48.76000 -1.002
48.78000 0.481
48.80000 3.043
48.82000 3.360
48.84000 5.715
48.86000 4.350
48.88000 4.124
48.90000 2.108
48.92000 8.796
48.94000 7.722
48.96000 3.347
48.98000 -0.142
49.00000 0.753
49.02000 3.267
49.04000 1.230
49.06000 3.343
49.08000 4.925
49.10000 -0.339
49.12000 2.198
49.14000 7.465
49.16000 9.284
49.18000 7.763
49.20000 -1.075
49.22000 -2.771
49.24000 -0.226
49.26000 6.660
49.28000 8.721
49.30000 1.370
49.32000 4.000
49.34000 3.339
49.36000 5.240
49.38000 4.543
49.40000 1.581
49.42000 2.372
49.44000 3.932
49.46000 7.755
49.48000 3.514
49.50000 2.019
49.52000 0.722
49.54000 4.570
49.56000 8.267
49.58000 4.350
49.60000 2.449
49.62000 6.232
49.64000 5.959
49.66000 3.250
49.68000 0.242
49.70000 0.310
49.72000 6.332
49.74000 9.098
49.76000 0.586
49.78000 1.792
49.80000 -0.194
49.82000 5.003
49.84000 4.591
49.86000 3.691
49.88000 0.883
49.90000 0.305
49.92000 2.229
49.94000 1.886
49.96000 5.465
49.98000 3.569
50.00000 2.742
50.02000 2.741
50.04000 6.148
50.06000 3.126
50.08000 3.120
50.10000 -2.105
50.12000 0.710
50.14000 4.841
50.16000 7.271
50.18000 6.008
50.20000 5.999
50.22000 4.047
50.24000 2.930
50.26000 3.075
50.28000 5.404
50.30000 6.335
50.32000 8.164
50.34000 8.287
50.36000 4.966
50.38000 2.564
50.40000 1.989
50.42000 2.881
50.44000 7.189
50.46000 4.269
50.48000 0.616
50.50000 -2.632
50.52000 -2.576
50.54000 2.157
50.56000 5.920
50.58000 3.372
50.60000 4.428
50.62000 2.129
50.64000 0.783
50.66000 4.068
50.68000 7.120
50.70000 1.233
50.72000 -0.160
50.74000 3.359
50.76000 1.232
50.78000 -0.867
50.80000 -0.159
50.82000 0.362
50.84000 1.371
50.86000 3.293
50.88000 6.660
50.90000 5.787
50.92000 4.965
50.94000 2.824
50.96000 7.429
50.98000 5.182
51.00000 -0.008
51.02000 0.518
51.04000 2.545
51.06000 4.631
51.08000 6.033
51.10000 3.292
51.12000 -1.001
51.14000 -0.428
51.16000 1.343
51.18000 1.563
51.20000 2.146
51.22000 3.708
51.24000 3.374
51.26000 4.118
51.28000 4.773
51.30000 2.253
51.32000 -0.069
51.34000 6.317
51.36000 5.193
51.38000 0.182
51.40000 -0.838
51.42000 -0.692
51.44000 -2.512
51.46000 0.422
51.48000 0.682
51.50000 -1.634
51.52000 1.451
51.54000 4.806
51.56000 3.946
51.58000 1.870
51.60000 4.982
51.62000 5.547
51.64000 3.318
51.66000 1.367
51.68000 1.379
51.70000 -1.001
51.72000 2.459
51.74000 2.706
51.76000 4.065
51.78000 6.229
51.80000 4.700
51.82000 6.000
51.84000 1.563
51.86000 0.533
51.88000 -0.452
51.90000 1.056
51.92000 2.179
51.94000 2.449
51.96000 -2.590
51.98000 -1.345
52.00000 1.988
52.02000 -0.452
52.04000 2.949
52.06000 1.615
52.08000 3.998
52.10000 6.650
52.12000 1.755
52.14000 2.777
52.16000 1.404
52.18000 1.308
52.20000 0.137
52.22000 0.716
52.24000 1.852
52.26000 2.738
52.28000 3.213
52.30000 1.595
52.32000 4.860
52.34000 2.576
52.36000 5.392
52.38000 2.811
52.40000 7.073
52.42000 8.257
52.44000 4.256
52.46000 3.870
52.48000 4.429
52.50000 6.552
52.52000 3.171
52.54000 4.301
52.56000 5.700
52.58000 4.625
52.60000 -0.834
52.62000 -0.623
52.64000 1.590
52.66000 3.415
52.68000 -1.424
52.70000 -2.308
52.72000 -1.695
52.74000 0.877
52.76000 2.373
52.78000 2.380
52.80000 2.468
52.82000 5.316
52.84000 5.445
52.86000 8.053
52.88000 4.521
52.90000 0.189
52.92000 0.569
52.94000 -2.547
52.96000 0.172
52.98000 2.974
53.00000 2.351
53.02000 3.304
53.04000 4.020
53.06000 6.024
53.08000 6.398
53.10000 2.165
53.12000 1.476
53.14000 4.455
53.16000 3.044
53.18000 2.039
53.20000 3.441
53.22000 3.538
53.24000 -0.091
53.26000 1.468
53.28000 -2.531
53.30000 1.600
53.32000 2.451
53.34000 5.695
53.36000 5.077
53.38000 3.682
53.40000 5.499
53.42000 4.285
53.44000 3.322
53.46000 2.705
53.48000 2.361
53.50000 1.935
53.52000 3.110
53.54000 3.066
53.56000 4.654
53.58000 2.759
53.60000 -0.760
53.62000 1.901
53.64000 2.477
53.66000 -0.348
53.68000 -0.987
53.70000 -0.574
53.72000 1.724
53.74000 0.727
53.76000 -2.524
53.78000 0.236
53.80000 6.009
53.82000 2.899
53.84000 4.590
53.86000 3.163
53.88000 4.470
53.90000 0.432
53.92000 4.776
53.94000 4.725
53.96000 1.336
53.98000 2.209
54.00000 3.848
54.02000 1.045
54.04000 2.442
54.06000 2.016
54.08000 0.368
54.10000 5.889
54.12000 1.470
54.14000 3.121
54.16000 2.494
54.18000 4.965
54.20000 2.545
54.22000 0.447
54.24000 0.406
54.26000 -2.364
54.28000 0.203
54.30000 -0.013
54.32000 2.764
54.34000 1.841
54.36000 -0.996
54.38000 0.156
54.40000 1.503
54.42000 2.894
54.44000 3.429
54.46000 2.717
54.48000 1.127
54.50000 1.274
54.52000 -1.813
54.54000 0.199
54.56000 3.260
54.58000 3.524
54.60000 1.076
54.62000 -2.521
54.64000 3.097
54.66000 4.106
54.68000 0.245
54.70000 -2.074
54.72000 0.275
54.74000 0.525
54.76000 0.956
54.78000 3.350
54.80000 1.163
54.82000 2.535
54.84000 1.017
54.86000 -2.291
54.88000 -1.142
54.90000 1.443
54.92000 1.363
54.94000 1.104
54.96000 -0.115
54.98000 5.547
55.00000 6.262
55.02000 3.788
55.04000 6.437
55.06000 3.120
55.08000 -2.514
55.10000 -1.471
55.12000 0.368
55.14000 1.992
55.16000 -1.210
55.18000 -1.810
55.20000 -1.745
55.22000 -1.782
55.24000 -0.145
55.26000 1.412
55.28000 1.265
55.30000 2.540
55.32000 3.128
55.34000 2.538
55.36000 1.701
55.38000 1.368
55.40000 0.939
55.42000 0.285
55.44000 -0.625
55.46000 3.238
55.48000 4.256
55.50000 1.243
55.52000 -1.676
55.54000 4.123
55.56000 6.072
55.58000 1.466
55.60000 0.662
55.62000 -2.026
55.64000 -0.945
55.66000 0.545
55.68000 -0.458
55.70000 -1.400
55.72000 -0.644
55.74000 2.889
55.76000 3.397
55.78000 3.337
55.80000 2.837
55.82000 0.935
55.84000 4.821
55.86000 5.367
55.88000 6.412
55.90000 9.774
55.92000 7.028
55.94000 0.027
55.96000 -2.487
55.98000 -1.381
56.00000 1.630
56.02000 1.582
56.04000 1.421
56.06000 1.316
56.08000 0.435
56.10000 3.120
56.12000 3.251
56.14000 3.190
56.16000 6.079
56.18000 3.327
56.20000 3.291
56.22000 4.613
56.24000 1.814
56.26000 3.566
56.28000 3.336
56.30000 3.477
56.32000 4.735
56.34000 6.939
56.36000 3.129
56.38000 0.745
56.40000 2.275
56.42000 1.624
56.44000 2.507
56.46000 0.697
56.48000 2.716
56.50000 2.876
56.52000 -2.454
56.54000 1.049
56.56000 5.400
56.58000 2.964
56.60000 2.092
56.62000 2.185
56.64000 0.987
56.66000 2.962
56.68000 1.514
56.70000 0.902
56.72000 0.470
56.74000 1.093
56.76000 -0.162
56.78000 -0.678
56.80000 0.337
56.82000 1.390
56.84000 2.237
56.86000 3.589
56.88000 6.541
56.90000 5.143
56.92000 4.543
56.94000 5.782
56.96000 4.415
56.98000 3.786
57.00000 -1.466
57.02000 -1.773
57.04000 2.632
57.06000 2.113
57.08000 -0.535
57.10000 -0.911
57.12000 -0.611
57.14000 1.211
57.16000 -0.344
57.18000 -0.616
57.20000 4.262
57.22000 0.809
57.24000 2.033
57.26000 4.082
57.28000 4.245
57.30000 0.927
57.32000 -0.290
57.34000 0.961
57.36000 5.956
57.38000 2.429
57.40000 -0.539
57.42000 -1.856
57.44000 -0.378
57.46000 -2.055
57.48000 -2.448
57.50000 1.045
57.52000 5.483
57.54000 3.686
57.56000 3.060
57.58000 1.365
57.60000 0.484
57.62000 -0.970
57.64000 -0.765
57.66000 -1.736
57.68000 3.225
57.70000 4.192
57.72000 0.051
57.74000 2.865
57.76000 2.689
57.78000 1.586
57.80000 -0.029
57.82000 -0.029
57.84000 -0.798
57.86000 -1.337
57.88000 2.462
57.90000 0.380
57.92000 -0.970
57.94000 -1.623
57.96000 2.763
57.98000 4.710
58.00000 -0.155
58.02000 1.317
58.04000 3.333
58.06000 2.715
58.08000 3.135
58.10000 1.653
58.12000 0.188
58.14000 1.980
58.16000 -0.685
58.18000 2.880
58.20000 2.489
58.22000 3.087
58.24000 2.249
58.26000 2.899
58.28000 4.025
58.30000 6.447
58.32000 4.651
58.34000 0.994
58.36000 -0.663
58.38000 -0.179
58.40000 1.771
58.42000 1.899
58.44000 5.915
58.46000 4.304
58.48000 -0.661
58.50000 -2.407
58.52000 2.111
58.54000 2.676
58.56000 -0.252
58.58000 3.181
58.60000 2.437
58.62000 -1.068
58.64000 0.044
58.66000 -1.221
58.68000 -2.396
58.70000 -1.322
58.72000 0.958
58.74000 1.232
58.76000 2.734
58.78000 3.041
58.80000 1.339
58.82000 3.190
58.84000 1.485
58.86000 0.791
58.88000 -0.174
58.90000 0.661
58.92000 -0.382
58.94000 -0.870
58.96000 0.001
58.98000 0.754
59.00000 0.213
59.02000 -0.427
59.04000 2.558
59.06000 0.683
59.08000 0.831
59.10000 1.861
59.12000 1.939
59.14000 3.887
59.16000 -1.898
59.18000 -1.976
59.20000 3.438
59.22000 1.948
59.24000 0.810
59.26000 -0.153
59.28000 0.612
59.30000 0.084
59.32000 2.556
59.34000 2.654
59.36000 4.915
59.38000 4.062
59.40000 2.514
59.42000 3.473
59.44000 1.116
59.46000 0.877
59.48000 0.355
59.50000 0.314
59.52000 3.808
59.54000 1.842
59.56000 -0.339
59.58000 3.705
59.60000 5.552
59.62000 1.931
59.64000 2.233
59.66000 2.414
59.68000 5.221
59.70000 6.977
59.72000 3.429
59.74000 2.496
59.76000 4.119
59.78000 6.794
59.80000 5.588
59.82000 1.810
59.84000 2.919
59.86000 3.348
59.88000 -2.347
59.90000 -1.264
59.92000 2.540
59.94000 3.071
59.96000 2.735
59.98000 1.561
60.00000 3.313
60.02000 0.176
60.04000 1.103
60.06000 1.912
60.08000 0.686
60.10000 2.707
60.12000 2.007
60.14000 -1.097
60.16000 -0.557
60.18000 4.435
60.20000 3.735
60.22000 4.512
60.24000 5.981
60.26000 3.683
60.28000 1.381
60.30000 0.443
60.32000 2.920
60.34000 0.821
60.36000 1.984
60.38000 0.983
60.40000 3.889
60.42000 5.152
60.44000 9.847
60.46000 4.176
60.48000 2.836
60.50000 3.497
60.52000 3.502
60.54000 1.741
60.56000 1.148
60.58000 6.904
60.60000 7.906
60.62000 3.007
60.64000 0.486
60.66000 2.741
60.68000 4.002
60.70000 0.092
60.72000 -0.510
60.74000 5.596
60.76000 4.332
60.78000 0.494
60.80000 1.257
60.82000 4.357
60.84000 1.543
60.86000 1.118
60.88000 -2.039
60.90000 -2.122
60.92000 3.283
60.94000 4.471
60.96000 1.386
60.98000 0.557
61.00000 2.261
61.02000 4.018
61.04000 1.397
61.06000 -2.302
61.08000 -1.526
61.10000 2.925
61.12000 0.473
61.14000 -0.746
61.16000 2.799
61.18000 4.812
61.20000 4.525
61.22000 7.487
61.24000 5.914
61.26000 4.288
61.28000 6.172
61.30000 7.269
61.32000 2.950
61.34000 1.955
61.36000 -0.924
61.38000 -2.303
61.40000 -0.161
61.42000 0.013
61.44000 0.919
61.46000 3.957
61.48000 4.927
61.50000 4.422
61.52000 -2.032
61.54000 -0.499
61.56000 1.544
61.58000 1.073
61.60000 2.163
61.62000 5.810
61.64000 -0.552
61.66000 0.097
61.68000 -1.390
61.70000 -0.173
61.72000 2.427
61.74000 4.106
61.76000 0.499
61.78000 -0.487
61.80000 -0.411
61.82000 2.790
61.84000 4.468
61.86000 1.405
61.88000 -0.010
61.90000 -0.339
61.92000 0.618
61.94000 0.189
61.96000 2.454
61.98000 0.613
62.00000 -1.076
62.02000 -0.242
62.04000 2.742
62.06000 1.739
62.08000 -0.086
62.10000 0.772
62.12000 1.360
62.14000 -1.020
62.16000 -1.720
62.18000 -2.321
62.20000 1.977
62.22000 0.393
62.24000 -0.913
62.26000 1.713
62.28000 -1.622
62.30000 -0.997
62.32000 0.444
62.34000 -0.916
62.36000 1.044
62.38000 4.190
62.40000 3.688
62.42000 1.584
62.44000 -0.309
62.46000 0.592
62.48000 1.705
62.50000 -0.567
62.52000 -0.454
62.54000 1.754
62.56000 1.591
62.58000 3.179
62.60000 3.613
62.62000 1.996
62.64000 -0.674
62.66000 -0.015
62.68000 3.734
62.70000 2.252
62.72000 -1.239
62.74000 -2.039
62.76000 2.705
62.78000 4.607
62.80000 3.744
62.82000 3.438
62.84000 -2.296
62.86000 -2.261
62.88000 -1.404
62.90000 1.646
62.92000 -0.292
62.94000 -0.808
62.96000 1.238
62.98000 3.260
63.00000 1.316
63.02000 0.360
63.04000 -0.200
63.06000 -0.924
63.08000 2.047
63.10000 1.043
63.12000 0.784
63.14000 2.408
63.16000 1.491
63.18000 1.217
63.20000 2.566
63.22000 0.668
63.24000 2.476
63.26000 1.922
63.28000 -0.653
63.30000 -0.048
63.32000 1.660
63.34000 1.778
63.36000 -0.473
63.38000 2.014
63.40000 1.254
63.42000 0.962
63.44000 3.309
63.46000 1.464
63.48000 0.088
63.50000 -0.593
63.52000 3.156
63.54000 2.843
63.56000 2.269
63.58000 -1.751
63.60000 -0.812
63.62000 2.672
63.64000 0.226
63.66000 -1.208
63.68000 -2.065
63.70000 -2.279
63.72000 -0.773
63.74000 2.188
63.76000 2.057
63.78000 -1.172
63.80000 0.672
63.82000 0.594
63.84000 3.799
63.86000 1.876
63.88000 0.489
63.90000 -0.360
63.92000 -0.494
63.94000 -1.951
63.96000 -1.114
63.98000 -1.256
64.00000 0.727
64.02000 3.692
64.04000 3.820
64.06000 0.099
64.08000 -2.266
64.10000 -0.924
64.12000 -0.279
64.14000 0.785
64.16000 1.089
64.18000 3.089
64.20000 7.186
64.22000 6.279
64.24000 3.215
64.26000 3.289
64.28000 4.547
64.30000 1.299
64.32000 -0.565
64.34000 2.079
64.36000 -2.256
64.38000 1.762
64.40000 4.233
64.42000 1.096
64.44000 -0.528
64.46000 0.803
64.48000 2.883
64.50000 3.283
64.52000 3.389
64.54000 0.305
64.56000 -0.897
64.58000 1.998
64.60000 1.569
64.62000 1.968
64.64000 1.307
64.66000 2.759
64.68000 1.568
64.70000 0.672
64.72000 0.583
64.74000 0.402
64.76000 -1.527
64.78000 0.787
64.80000 4.641
64.82000 1.595
64.84000 0.279
64.86000 2.598
64.88000 1.931
64.90000 0.887
64.92000 0.858
64.94000 0.333
64.96000 1.746
64.98000 3.760
65.00000 2.404
65.02000 2.609
65.04000 1.923
65.06000 0.073
65.08000 3.122
65.10000 5.279
65.12000 3.104
65.14000 1.416
65.16000 2.344
65.18000 -1.194
65.20000 -1.557
65.22000 5.455
65.24000 5.807
65.26000 4.713
65.28000 1.496
65.30000 2.009
65.32000 5.655
65.34000 0.612
65.36000 1.478
65.38000 -0.557
65.40000 1.579
65.42000 3.335
65.44000 2.874
65.46000 4.042
65.48000 1.708
65.50000 -1.143
65.52000 2.549
65.54000 4.576
65.56000 7.648
65.58000 2.743
65.60000 0.910
65.62000 -0.657
65.64000 -2.205
65.66000 1.371
65.68000 2.264
65.70000 2.474
65.72000 1.445
65.74000 1.756
65.76000 3.256
65.78000 2.646
65.80000 5.044
65.82000 0.547
65.84000 1.248
65.86000 4.574
65.88000 4.439
65.90000 0.355
65.92000 1.510
65.94000 4.488
65.96000 0.703
65.98000 -0.710
66.00000 1.913
66.02000 3.617
66.04000 -0.496
66.06000 0.065
66.08000 3.006
66.10000 0.998
66.12000 -1.734
66.14000 1.142
66.16000 2.554
66.18000 2.868
66.20000 2.371
66.22000 0.548
66.24000 2.717
66.26000 5.124
66.28000 4.360
66.30000 0.639
66.32000 0.890
66.34000 1.707
66.36000 -2.235
66.38000 -0.653
66.40000 -0.168
66.42000 1.797
66.44000 -0.566
66.46000 0.905
66.48000 1.142
66.50000 2.022
66.52000 -0.200
66.54000 -0.477
66.56000 -0.700
66.58000 0.133
66.60000 0.629
66.62000 -0.246
66.64000 2.327
66.66000 0.891
66.68000 2.448
66.70000 1.149
66.72000 -1.229
66.74000 2.242
66.76000 2.496
66.78000 0.263
66.80000 1.911
66.82000 2.024
66.84000 -1.334
66.86000 -0.420
66.88000 2.705
66.90000 2.764
66.92000 1.373
66.94000 -1.110
66.96000 0.091
66.98000 -0.234
67.00000 0.578
67.02000 1.274
67.04000 4.098
67.06000 0.848
67.08000 -0.750
67.10000 -2.230
67.12000 0.537
67.14000 1.878
67.16000 1.296
67.18000 2.512
67.20000 1.446
67.22000 -0.500
67.24000 -1.807
67.26000 0.185
67.28000 2.603
67.30000 3.206
67.32000 2.724
67.34000 0.676
67.36000 -0.338
67.38000 3.473
67.40000 4.159
67.42000 4.762
67.44000 6.408
67.46000 5.456
67.48000 4.491
67.50000 3.408
67.52000 2.176
67.54000 1.636
67.56000 2.570
67.58000 1.184
67.60000 -1.326
67.62000 -1.624
67.64000 0.017
67.66000 -0.775
67.68000 -0.436
67.70000 2.605
67.72000 2.492
67.74000 2.221
67.76000 3.863
67.78000 4.590
67.80000 3.439
67.82000 3.334
67.84000 3.364
67.86000 2.833
67.88000 3.511
67.90000 7.540
67.92000 4.251
67.94000 2.023
67.96000 1.364
67.98000 -0.069
68.00000 2.162
68.02000 7.189
68.04000 4.781
68.06000 4.520
68.08000 6.664
68.10000 6.137
68.12000 5.916
68.14000 9.310
68.16000 9.164
68.18000 10.952
68.20000 10.673
68.22000 8.735
68.24000 10.910
68.26000 13.082
68.28000 10.767
68.30000 9.884
68.32000 11.861
68.34000 11.403
68.36000 10.393
68.38000 13.908
68.40000 17.122
68.42000 16.640
68.44000 15.872
68.46000 17.797
68.48000 18.610
68.50000 17.650
68.52000 18.574
68.54000 18.574
68.56000 16.706
68.58000 18.129
68.60000 18.941
68.62000 20.292
68.64000 26.249
68.66000 22.856
68.68000 23.384
68.70000 24.455
68.72000 25.865
68.74000 25.846
68.76000 26.237
68.78000 29.659
68.80000 29.019
68.82000 26.995
68.84000 28.915
68.86000 27.775
68.88000 27.563
68.90000 30.731
68.92000 30.452
68.94000 27.068
68.96000 23.662
68.98000 26.071
69.00000 30.111
69.02000 29.668
69.04000 26.379
69.06000 30.065
69.08000 29.246
69.10000 26.873
69.12000 24.728
69.14000 21.686
69.16000 19.333
69.18000 18.701
69.20000 23.557
69.22000 24.191
69.24000 19.058
69.26000 20.999
69.28000 18.154
69.30000 18.066
69.32000 18.474
69.34000 19.211
69.36000 16.116
69.38000 14.205
69.40000 12.401
69.42000 12.765
69.44000 14.008
69.46000 11.547
69.48000 10.444
69.50000 11.909
69.52000 12.137
69.54000 12.627
69.56000 12.356
69.58000 11.895
69.60000 9.264
69.62000 8.645
69.64000 9.573
69.66000 10.544
69.68000 9.063
69.70000 6.163
69.72000 8.882
69.74000 6.800
69.76000 5.476
69.78000 5.251
69.80000 4.856
69.82000 6.631
69.84000 5.005
69.86000 5.420
69.88000 8.003
69.90000 2.723
69.92000 5.228
69.94000 2.499
69.96000 3.081
69.98000 4.155
70.00000 2.759
70.02000 1.325
70.04000 3.276
70.06000 2.514
70.08000 -1.031
70.10000 -0.915
70.12000 -0.359
70.14000 -0.624
70.16000 -1.104
70.18000 -1.802
70.20000 0.648
70.22000 2.878
70.24000 3.285
70.26000 1.000
70.28000 -0.119
70.30000 -2.146
70.32000 0.631
70.34000 1.091
70.36000 1.802
70.38000 1.427
70.40000 0.799
70.42000 0.679
70.44000 2.345
70.46000 2.269
70.48000 0.185
70.50000 0.119
70.52000 2.299
70.54000 -0.961
70.56000 0.301
70.58000 1.331
70.60000 1.193
70.62000 0.039
70.64000 0.390
70.66000 1.030
70.68000 0.223
70.70000 -2.124
70.72000 -1.702
70.74000 0.097
70.76000 -1.043
70.78000 2.376
70.80000 -0.082
70.82000 1.036
70.84000 1.793
70.86000 0.781
70.88000 4.215
70.90000 0.786
70.92000 -0.062
70.94000 -0.389
70.96000 -1.407
70.98000 0.513
71.00000 2.424
71.02000 3.069
71.04000 2.026
71.06000 -2.097
71.08000 -1.749
71.10000 1.801
71.12000 0.919
71.14000 -1.214
71.16000 -1.908
71.18000 -1.199
71.20000 1.994
71.22000 1.649
71.24000 -0.056
71.26000 -0.413
71.28000 -0.832
71.30000 -0.804
71.32000 -1.195
71.34000 0.433
71.36000 2.561
71.38000 2.023
71.40000 2.162
71.42000 1.307
71.44000 2.290
71.46000 2.553
71.48000 1.149
71.50000 1.761
71.52000 2.362
71.54000 -1.559
71.56000 -2.044
71.58000 -0.053
71.60000 2.742
71.62000 2.997
71.64000 0.705
71.66000 0.243
71.68000 0.969
71.70000 0.209
71.72000 0.008
71.74000 2.787
71.76000 2.912
71.78000 -1.704
71.80000 1.437
71.82000 1.472
71.84000 3.688
71.86000 6.200
71.88000 1.035
71.90000 2.948
71.92000 1.314
71.94000 -1.942
71.96000 0.143
71.98000 2.299
72.00000 4.805
72.02000 6.112
72.04000 2.112
72.06000 -1.975
72.08000 -0.242
72.10000 -0.255
72.12000 0.398
72.14000 -0.077
72.16000 -0.737
72.18000 -0.370
72.20000 2.081
72.22000 4.212
72.24000 3.873
72.26000 2.142
72.28000 0.580
72.30000 0.249
72.32000 3.063
72.34000 3.515
72.36000 2.151
72.38000 4.200
72.40000 3.489
72.42000 2.840
72.44000 1.987
72.46000 2.187
72.48000 0.992
72.50000 1.740
72.52000 3.934
72.54000 4.261
72.56000 4.607
72.58000 -0.615
72.60000 0.968
72.62000 0.264
72.64000 2.953
72.66000 3.376
72.68000 2.796
72.70000 4.802
72.72000 2.804
72.74000 3.036
72.76000 3.276
72.78000 1.275
72.80000 -1.168
72.82000 -1.969
72.84000 -1.338
72.86000 1.065
72.88000 1.488
72.90000 1.667
72.92000 1.330
72.94000 0.276
72.96000 0.292
72.98000 2.888
73.00000 0.798
73.02000 2.287
73.04000 0.780
73.06000 2.660
73.08000 1.000
73.10000 -0.595
73.12000 0.815
73.14000 1.648
73.16000 1.937
73.18000 2.656
73.20000 1.901
73.22000 -0.443
73.24000 1.906
73.26000 0.635
73.28000 4.069
73.30000 0.957
73.32000 -0.512
73.34000 -0.196
73.36000 0.870
73.38000 2.503
73.40000 0.000
73.42000 -0.393
73.44000 1.153
73.46000 2.759
73.48000 2.567
73.50000 2.004
73.52000 0.176
73.54000 2.390
73.56000 5.033
73.58000 4.602
73.60000 3.468
73.62000 1.392
73.64000 3.644
73.66000 3.183
73.68000 2.847
73.70000 -0.821
73.72000 0.600
73.74000 -0.287
73.76000 0.721
73.78000 2.087
73.80000 2.095
73.82000 4.417
73.84000 3.220
73.86000 4.072
73.88000 3.912
73.90000 4.933
73.92000 5.161
73.94000 1.391
73.96000 -1.930
73.98000 0.507
74.00000 3.075
74.02000 0.385
74.04000 -0.351
74.06000 0.603
74.08000 1.534
74.10000 -0.706
74.12000 -0.866
74.14000 4.670
74.16000 4.298
74.18000 3.271
74.20000 2.090
74.22000 0.474
74.24000 -0.361
74.26000 0.228
74.28000 0.381
74.30000 0.622
74.32000 0.912
74.34000 1.366
74.36000 2.282
74.38000 2.627
74.40000 3.085
74.42000 1.337
74.44000 0.602
74.46000 1.387
74.48000 0.770
74.50000 0.733
74.52000 4.264
74.54000 0.149
74.56000 0.833
74.58000 0.510
74.60000 -1.953
74.62000 -1.054
74.64000 1.384
74.66000 1.547
74.68000 -1.796
74.70000 -1.008
74.72000 1.694
74.74000 1.503
74.76000 3.083
74.78000 3.152
74.80000 5.608
74.82000 3.173
74.84000 0.338
74.86000 -0.255
74.88000 -0.036
74.90000 2.423
74.92000 2.299
74.94000 -0.465
74.96000 0.494
74.98000 1.264
75.00000 0.706
75.02000 -0.991
75.04000 -1.543
75.06000 -0.067
75.08000 0.127
75.10000 0.563
75.12000 3.040
75.14000 2.044
75.16000 3.606
75.18000 3.258
75.20000 1.699
75.22000 0.986
75.24000 0.615
75.26000 -0.065
75.28000 -0.231
75.30000 0.499
75.32000 0.357
75.34000 1.929
75.36000 3.748
75.38000 3.574
75.40000 2.603
75.42000 0.914
75.44000 -1.950
75.46000 0.780
75.48000 0.956
75.50000 -0.957
75.52000 -1.948
75.54000 -1.167
75.56000 -1.445
75.58000 0.658
75.60000 1.257
75.62000 0.912
75.64000 2.524
75.66000 -0.676
75.68000 0.784
75.70000 2.509
75.72000 5.265
75.74000 2.831
75.76000 0.583
75.78000 0.920
75.80000 1.025
75.82000 0.256
75.84000 -1.942
75.86000 -0.809
75.88000 0.544
75.90000 2.277
75.92000 1.777
75.94000 1.053
75.96000 1.330
75.98000 4.268
76.00000 2.256
76.02000 3.313
76.04000 5.073
76.06000 2.086
76.08000 2.184
76.10000 3.308
76.12000 2.503
76.14000 4.465
76.16000 2.460
76.18000 1.406
76.20000 -1.694
76.22000 -1.270
76.24000 1.247
76.26000 1.822
76.28000 4.091
76.30000 3.338
76.32000 3.645
76.34000 1.790
76.36000 2.264
76.38000 2.386
76.40000 2.078
76.42000 2.175
76.44000 1.011
76.46000 -0.511
76.48000 -0.169
76.50000 1.977
76.52000 2.569
76.54000 -0.029
76.56000 1.824
76.58000 4.336
76.60000 2.518
76.62000 1.382
76.64000 -0.581
76.66000 -1.482
76.68000 0.529
76.70000 -1.964
76.72000 -1.157
76.74000 -0.753
76.76000 2.099
76.78000 4.310
76.80000 1.628
76.82000 -0.099
76.84000 -0.430
76.86000 3.917
76.88000 4.748
76.90000 1.331
76.92000 0.217
76.94000 1.012
76.96000 -0.039
76.98000 2.514
77.00000 3.712
77.02000 1.046
77.04000 1.644
77.06000 1.614
77.08000 2.920
77.10000 3.181
77.12000 2.246
77.14000 5.625
77.16000 4.671
77.18000 1.299
77.20000 0.269
77.22000 1.458
77.24000 2.652
77.26000 0.018
77.28000 1.368
77.30000 2.840
77.32000 5.742
77.34000 1.622
77.36000 1.252
77.38000 2.435
77.40000 0.768
77.42000 1.184
77.44000 -0.223
77.46000 1.781
77.48000 2.370
77.50000 4.043
77.52000 2.718
77.54000 0.331
77.56000 -1.164
77.58000 -0.415
77.60000 2.311
77.62000 -1.932
77.64000 0.139
77.66000 0.265
77.68000 0.045
77.70000 4.554
77.72000 5.408
77.74000 1.613
77.76000 3.085
77.78000 1.100
77.80000 4.966
77.82000 5.034
77.84000 4.411
77.86000 4.781
77.88000 4.509
77.90000 1.318
77.92000 1.835
77.94000 4.470
77.96000 2.806
77.98000 2.712
78.00000 1.411
78.02000 0.843
78.04000 1.900
78.06000 -0.225
78.08000 1.899
78.10000 1.413
78.12000 4.749
78.14000 5.519
78.16000 6.621
78.18000 1.271
78.20000 1.637
78.22000 4.237
78.24000 6.493
78.26000 3.168
78.28000 1.790
78.30000 2.036
78.32000 1.684
78.34000 2.940
78.36000 2.869
78.38000 3.921
78.40000 1.311
78.42000 -0.758
78.44000 0.191
78.46000 -0.100
78.48000 2.038
78.50000 1.075
78.52000 2.923
78.54000 2.118
78.56000 0.367
78.58000 2.447
78.60000 5.371
78.62000 5.518
78.64000 2.442
78.66000 3.408
78.68000 3.855
78.70000 0.241
78.72000 -1.390
78.74000 1.931
78.76000 3.840
78.78000 -1.067
78.80000 -1.975
78.82000 0.517
78.84000 1.229
78.86000 2.299
78.88000 1.102
78.90000 0.042
78.92000 1.580
78.94000 0.104
78.96000 1.901
78.98000 0.937
79.00000 0.878
79.02000 -1.989
79.04000 0.399
79.06000 1.313
79.08000 0.051
79.10000 2.193
79.12000 2.605
79.14000 2.381
79.16000 0.625
79.18000 2.211
79.20000 3.308
79.22000 2.980
79.24000 0.298
79.26000 -0.712
79.28000 1.413
79.30000 1.797
79.32000 2.666
79.34000 3.411
79.36000 6.076
79.38000 1.697
79.40000 0.237
79.42000 2.249
79.44000 0.429
79.46000 0.641
79.48000 0.926
79.50000 1.434
79.52000 1.575
79.54000 0.376
79.56000 3.009
79.58000 -1.162
79.60000 0.456
79.62000 3.856
79.64000 2.486
79.66000 3.183
79.68000 3.706
79.70000 5.707
79.72000 3.882
79.74000 1.909
79.76000 1.367
79.78000 0.169
79.80000 1.421
79.82000 -0.667
79.84000 0.739
79.86000 -0.263
79.88000 1.187
79.90000 0.553
79.92000 2.269
79.94000 2.221
79.96000 -1.668
79.98000 -2.007
80.00000 0.395
80.02000 1.771
80.04000 0.271
80.06000 -0.477
80.08000 0.544
80.10000 -0.581
80.12000 1.161
80.14000 0.340
80.16000 0.262
80.18000 1.729
80.20000 1.108
80.22000 2.319
80.24000 0.121
80.26000 -1.096
80.28000 3.761
80.30000 0.313
80.32000 -0.370
80.34000 3.599
80.36000 3.534
80.38000 3.368
80.40000 3.447
80.42000 1.849
80.44000 0.071
80.46000 -0.242
80.48000 2.640
80.50000 2.597
80.52000 -0.675
80.54000 -0.461
80.56000 -0.127
80.58000 0.598
80.60000 1.071
80.62000 1.386
80.64000 2.210
80.66000 0.091
80.68000 0.798
80.70000 -0.936
80.72000 0.765
80.74000 2.806
80.76000 1.939
80.78000 3.826
80.80000 -0.182
80.82000 -0.087
80.84000 1.860
80.86000 -0.631
80.88000 1.747
80.90000 2.697
80.92000 2.771
80.94000 2.735
80.96000 1.998
80.98000 0.192
81.00000 0.502
81.02000 1.986
81.04000 3.202
81.06000 4.025
81.08000 2.016
81.10000 -2.059
81.12000 0.738
81.14000 1.832
81.16000 2.020
81.18000 2.513
81.20000 3.426
81.22000 2.587
81.24000 4.361
81.26000 4.291
81.28000 3.864
81.30000 0.826
81.32000 1.202
81.34000 2.239
81.36000 0.568
81.38000 -2.106
81.40000 -1.544
81.42000 2.292
81.44000 2.832
81.46000 -0.983
81.48000 1.061
81.50000 4.480
81.52000 3.225
81.54000 2.297
81.56000 3.201
81.58000 0.563
81.60000 -0.253
81.62000 1.808
81.64000 -0.176
81.66000 1.682
81.68000 -0.592
81.70000 2.315
81.72000 2.098
81.74000 -2.095
81.76000 -0.757
81.78000 0.113
81.80000 1.246
81.82000 3.353
81.84000 2.354
81.86000 2.665
81.88000 1.922
81.90000 1.721
81.92000 -0.179
81.94000 1.245
81.96000 -0.058
81.98000 3.065
82.00000 5.171
82.02000 6.331
82.04000 4.824
82.06000 1.883
82.08000 6.703
82.10000 5.058
82.12000 4.709
82.14000 5.352
82.16000 5.491
82.18000 8.492
82.20000 11.757
82.22000 9.481
82.24000 10.783
82.26000 11.887
82.28000 10.120
82.30000 8.776
82.32000 10.235
82.34000 12.370
82.36000 12.136
82.38000 10.151
82.40000 8.604
82.42000 10.844
82.44000 7.461
82.46000 9.533
82.48000 12.328
82.50000 12.874
82.52000 12.745
82.54000 16.503
82.56000 16.291
82.58000 18.807
82.60000 19.766
82.62000 23.330
82.64000 21.169
82.66000 23.148
82.68000 24.236
82.70000 21.819
82.72000 21.956
82.74000 24.216
82.76000 27.499
82.78000 29.584
82.80000 27.751
82.82000 28.482
82.84000 31.827
82.86000 32.332
82.88000 33.392
82.90000 34.230
82.92000 31.993
82.94000 31.993
82.96000 35.350
82.98000 34.710
83.00000 36.030
83.02000 37.343
83.04000 34.751
83.06000 35.471
83.08000 36.014
83.10000 38.322
83.12000 33.796
83.14000 30.559
83.16000 36.474
83.18000 35.244
83.20000 39.053
83.22000 39.774
83.24000 45.533
83.26000 46.539
83.28000 39.464
83.30000 34.356
83.32000 36.727
83.34000 40.974
83.36000 36.576
83.38000 34.841
83.40000 30.816
83.42000 27.671
83.44000 29.693
83.46000 29.590
83.48000 30.027
83.50000 27.764
83.52000 22.495
83.54000 26.775
83.56000 25.491
83.58000 24.740
83.60000 21.861
83.62000 24.526
83.64000 23.932
83.66000 21.075
83.68000 24.473
83.70000 24.933
83.72000 19.145
83.74000 19.333
83.76000 14.908
83.78000 16.540
83.80000 16.383
83.82000 17.320
83.84000 16.714
83.86000 16.151
83.88000 16.146
83.90000 11.885
83.92000 10.101
83.94000 9.952
83.96000 11.700
83.98000 12.309
84.00000 12.428
84.02000 11.271
84.04000 9.860
84.06000 10.829
84.08000 10.924
84.10000 6.831
84.12000 6.272
84.14000 5.739
84.16000 6.284
84.18000 6.299
84.20000 6.629
84.22000 5.479
84.24000 5.447
84.26000 3.627
84.28000 5.184
84.30000 3.697
84.32000 1.732
84.34000 -0.315
84.36000 3.666
84.38000 0.359
84.40000 0.262
84.42000 3.253
84.44000 1.796
84.46000 0.663
84.48000 -0.971
84.50000 -0.597
84.52000 -0.696
84.54000 -0.123
84.56000 -0.321
84.58000 -0.029
84.60000 -0.517
84.62000 -2.130
84.64000 -1.649
84.66000 5.508
84.68000 4.215
84.70000 1.170
84.72000 0.912
84.74000 -0.414
84.76000 -1.865
84.78000 0.115
84.80000 -0.854
84.82000 -0.130
84.84000 0.381
84.86000 2.690
84.88000 0.964
84.90000 -1.567
84.92000 -1.463
84.94000 1.550
84.96000 -0.314
84.98000 0.608
85.00000 1.843
85.02000 3.412
85.04000 1.332
85.06000 -0.567
85.08000 0.797
85.10000 0.517
85.12000 1.758
85.14000 -0.270
85.16000 -0.353
85.18000 -0.452
85.20000 0.508
85.22000 1.300
85.24000 5.217
85.26000 3.691
85.28000 4.661
85.30000 2.742
85.32000 0.486
85.34000 1.795
85.36000 3.547
85.38000 2.149
85.40000 1.556
85.42000 0.401
85.44000 0.833
85.46000 -0.566
85.48000 -0.435
85.50000 -0.351
85.52000 -1.996
85.54000 -1.451
85.56000 2.586
85.58000 2.660
85.60000 0.024
85.62000 -1.780
85.64000 2.534
85.66000 7.312
85.68000 6.130
85.70000 3.246
85.72000 8.040
85.74000 9.237
85.76000 4.287
85.78000 4.358
85.80000 7.455
85.82000 5.533
85.84000 3.664
85.86000 2.676
85.88000 0.462
85.90000 -1.943
85.92000 2.880
85.94000 7.048
85.96000 7.530
85.98000 7.196
86.00000 7.131
86.02000 6.429
86.04000 3.405
86.06000 6.787
86.08000 9.017
86.10000 6.318
86.12000 5.815
86.14000 7.597
86.16000 4.665
86.18000 3.540
86.20000 4.784
86.22000 5.540
86.24000 4.151
86.26000 3.699
86.28000 4.354
86.30000 1.871
86.32000 -0.285
86.34000 3.421
86.36000 6.254
86.38000 4.915
86.40000 7.686
86.42000 7.332
86.44000 4.054
86.46000 2.820
86.48000 3.731
86.50000 5.224
86.52000 4.648
86.54000 4.525
86.56000 5.027
86.58000 5.357
86.60000 2.414
86.62000 4.525
86.64000 3.436
86.66000 1.273
86.68000 4.983
86.70000 7.534
86.72000 5.763
86.74000 10.150
86.76000 7.446
86.78000 8.594
86.80000 9.798
86.82000 8.387
86.84000 6.191
86.86000 5.039
86.88000 4.292
86.90000 4.795
86.92000 8.347
86.94000 8.694
86.96000 10.645
86.98000 10.755
87.00000 9.878
87.02000 6.997
87.04000 6.615
87.06000 5.169
87.08000 11.159
87.10000 12.122
87.12000 10.232
87.14000 11.693
87.16000 13.322
87.18000 16.630
87.20000 15.994
87.22000 14.007
87.24000 12.860
87.26000 13.023
87.28000 18.227
87.30000 18.457
87.32000 17.128
87.34000 19.158
87.36000 19.752
87.38000 18.866
87.40000 20.667
87.42000 20.583
87.44000 20.389
87.46000 23.692
87.48000 20.487
87.50000 24.710
87.52000 25.788
87.54000 19.670
87.56000 22.693
87.58000 23.777
87.60000 22.806
87.62000 24.383
87.64000 22.401
87.66000 24.953
87.68000 25.757
87.70000 27.558
87.72000 23.225
87.74000 19.701
87.76000 19.085
87.78000 22.061
87.80000 22.307
87.82000 20.140
87.84000 16.671
87.86000 21.658
87.88000 22.957
87.90000 20.645
87.92000 20.073
87.94000 19.981
87.96000 16.615
87.98000 14.198
88.00000 15.100
88.02000 15.959
88.04000 17.055
88.06000 16.681
88.08000 18.925
88.10000 17.227
88.12000 12.006
88.14000 8.278
88.16000 7.627
88.18000 10.091
88.20000 9.592
88.22000 9.193
88.24000 10.692
88.26000 8.286
88.28000 8.479
88.30000 9.989
88.32000 9.361
88.34000 6.201
88.36000 7.952
88.38000 4.703
88.40000 5.948
88.42000 6.669
88.44000 8.858
88.46000 6.678
88.48000 7.088
88.50000 10.505
88.52000 11.601
88.54000 5.779
88.56000 4.476
88.58000 4.547
88.60000 5.088
88.62000 6.695
88.64000 5.718
88.66000 3.300
88.68000 5.877
88.70000 5.851
88.72000 5.311
88.74000 4.435
88.76000 2.026
88.78000 0.337
88.80000 4.252
88.82000 1.288
88.84000 1.568
88.86000 2.441
88.88000 3.667
88.90000 3.650
88.92000 1.795
88.94000 -0.400
88.96000 -0.007
88.98000 2.367
89.00000 3.369
89.02000 1.025
89.04000 -1.952
89.06000 -0.740
89.08000 2.615
89.10000 -1.283
89.12000 0.666
89.14000 1.534
89.16000 3.410
89.18000 2.543
89.20000 2.886
89.22000 2.125
89.24000 1.829
89.26000 1.989
89.28000 1.096
89.30000 -0.460
89.32000 0.989
89.34000 2.034
89.36000 3.384
89.38000 2.437
89.40000 1.645
89.42000 1.300
89.44000 2.039
89.46000 1.882
89.48000 0.578
89.50000 0.356
89.52000 -1.867
89.54000 0.248
89.56000 3.519
89.58000 0.840
89.60000 1.702
89.62000 2.563
89.64000 -1.898
89.66000 1.105
89.68000 -0.723
89.70000 1.056
89.72000 2.161
89.74000 1.422
89.76000 -0.831
89.78000 2.963
89.80000 2.936
89.82000 3.429
89.84000 0.115
89.86000 1.529
89.88000 0.745
89.90000 -0.398
89.92000 -0.323
89.94000 0.026
89.96000 0.532
89.98000 -0.483
90.00000 -0.425
90.02000 1.639
90.04000 2.405
90.06000 2.772
90.08000 3.007
90.10000 3.214
90.12000 5.533
90.14000 1.133
90.16000 2.732
90.18000 1.934
90.20000 -1.556
90.22000 0.458
90.24000 0.530
90.26000 0.390
90.28000 -1.097
90.30000 1.710
90.32000 3.540
90.34000 0.863
90.36000 1.223
90.38000 2.616
90.40000 1.021
90.42000 3.693
90.44000 2.011
90.46000 2.327
90.48000 2.760
90.50000 3.684
90.52000 1.823
90.54000 1.893
90.56000 0.212
90.58000 3.141
90.60000 5.725
90.62000 4.813
90.64000 2.948
90.66000 4.159
90.68000 3.388
90.70000 5.191
90.72000 5.169
90.74000 4.672
90.76000 3.701
90.78000 4.868
90.80000 3.073
90.82000 2.461
90.84000 3.014
90.86000 3.672
90.88000 5.784
90.90000 4.933
90.92000 4.086
90.94000 2.303
90.96000 5.016
90.98000 3.429
91.00000 -0.781
91.02000 -1.771
91.04000 1.175
91.06000 5.258
91.08000 3.705
91.10000 3.500
91.12000 1.047
91.14000 0.694
91.16000 4.705
91.18000 4.420
91.20000 3.796
91.22000 4.636
91.24000 3.000
91.26000 2.508
91.28000 4.384
91.30000 2.197
91.32000 2.478
91.34000 3.014
91.36000 2.887
91.38000 2.307
91.40000 3.188
91.42000 4.122
91.44000 3.570
91.46000 5.243
91.48000 4.675
91.50000 1.511
91.52000 0.539
91.54000 3.488
91.56000 1.326
91.58000 3.097
91.60000 4.662
91.62000 6.076
91.64000 2.408
91.66000 0.863
91.68000 2.627
91.70000 5.339
91.72000 4.503
91.74000 -0.117
91.76000 3.147
91.78000 2.927
91.80000 3.287
91.82000 1.361
91.84000 0.986
91.86000 3.514
91.88000 2.415
91.90000 3.382
91.92000 4.029
91.94000 2.255
91.96000 0.365
91.98000 0.495
92.00000 0.754
92.02000 4.605
92.04000 4.212
92.06000 1.768
92.08000 1.338
92.10000 2.661
92.12000 4.850
92.14000 3.416
92.16000 3.852
92.18000 3.770
92.20000 4.125
92.22000 -0.135
92.24000 0.961
92.26000 2.355
92.28000 1.056
92.30000 -1.831
92.32000 1.631
92.34000 3.413
92.36000 4.696
92.38000 3.203
92.40000 3.789
92.42000 4.173
92.44000 2.306
92.46000 3.315
92.48000 3.323
92.50000 3.476
92.52000 1.764
92.54000 1.406
92.56000 2.284
92.58000 4.559
92.60000 4.987
92.62000 6.019
92.64000 3.340
92.66000 3.108
92.68000 -0.272
92.70000 -0.051
92.72000 -1.331
92.74000 1.476
92.76000 3.590
92.78000 4.340
92.80000 2.058
92.82000 1.036
92.84000 1.291
92.86000 3.756
92.88000 2.452
92.90000 0.768
92.92000 0.009
92.94000 0.838
92.96000 2.890
92.98000 1.856
93.00000 4.195
93.02000 4.656
93.04000 2.808
93.06000 1.662
93.08000 5.300
93.10000 4.531
93.12000 -1.562
93.14000 -1.811
93.16000 0.064
93.18000 2.313
93.20000 6.128
93.22000 6.432
93.24000 4.246
93.26000 5.137
93.28000 1.734
93.30000 2.618
93.32000 4.184
93.34000 1.291
93.36000 4.389
93.38000 5.682
93.40000 0.101
93.42000 0.747
93.44000 0.462
93.46000 -0.184
93.48000 -0.498
93.50000 2.392
93.52000 3.093
93.54000 1.072
93.56000 2.767
93.58000 5.016
93.60000 5.195
93.62000 2.049
93.64000 0.218
93.66000 0.254
93.68000 1.919
93.70000 3.102
93.72000 0.935
93.74000 2.361
93.76000 2.738
93.78000 1.927
93.80000 1.594
93.82000 -1.786
93.84000 -1.274
93.86000 0.315
93.88000 0.047
93.90000 0.979
93.92000 5.053
93.94000 2.712
93.96000 1.087
93.98000 4.575
94.00000 0.803
94.02000 -0.878
94.04000 2.083
94.06000 1.919
94.08000 1.937
94.10000 -1.860
94.12000 -0.406
94.14000 1.415
94.16000 0.603
94.18000 2.056
94.20000 -0.994
94.22000 1.799
94.24000 5.464
94.26000 4.674
94.28000 2.598
94.30000 3.822
94.32000 1.891
94.34000 5.336
94.36000 0.820
94.38000 -0.955
94.40000 2.834
94.42000 2.543
94.44000 -0.189
94.46000 -0.427
94.48000 2.114
94.50000 2.674
94.52000 0.837
94.54000 3.080
94.56000 3.020
94.58000 3.937
94.60000 0.298
94.62000 1.720
94.64000 2.856
94.66000 3.300
94.68000 0.289
94.70000 0.492
94.72000 3.243
94.74000 2.844
94.76000 0.242
94.78000 1.522
94.80000 -1.015
94.82000 3.008
94.84000 4.230
94.86000 2.412
94.88000 1.807
94.90000 1.399
94.92000 -0.101
94.94000 -1.470
94.96000 2.299
94.98000 2.391
95.00000 1.186
95.02000 -1.385
95.04000 0.162
95.06000 -0.486
95.08000 1.583
95.10000 4.249
95.12000 0.341
95.14000 -1.855
95.16000 -0.275
95.18000 2.522
95.20000 8.052
95.22000 5.642
95.24000 5.955
95.26000 0.557
95.28000 -0.473
95.30000 5.462
95.32000 3.615
95.34000 3.395
95.36000 1.571
95.38000 3.153
95.40000 1.285
95.42000 2.946
95.44000 2.915
95.46000 2.971
95.48000 3.699
95.50000 4.769
95.52000 2.245
95.54000 2.594
95.56000 6.242
95.58000 3.366
95.60000 3.235
95.62000 3.222
95.64000 3.142
95.66000 0.900
95.68000 4.767
95.70000 2.471
95.72000 1.237
95.74000 1.820
95.76000 2.034
95.78000 3.458
95.80000 4.966
95.82000 4.532
95.84000 4.266
95.86000 8.847
95.88000 6.768
95.90000 -0.561
95.92000 -1.747
95.94000 2.058
95.96000 4.784
95.98000 2.787
96.00000 1.478
96.02000 -0.157
96.04000 3.122
96.06000 2.874
96.08000 -1.611
96.10000 2.295
96.12000 -1.841
96.14000 0.661
96.16000 4.625
96.18000 5.204
96.20000 2.475
96.22000 8.636
96.24000 9.439
96.26000 4.892
96.28000 3.555
96.30000 1.473
96.32000 -0.450
96.34000 1.626
96.36000 1.426
96.38000 4.749
96.40000 7.210
96.42000 4.834
96.44000 3.242
96.46000 0.841
96.48000 2.197
96.50000 0.717
96.52000 2.793
96.54000 4.486
96.56000 2.036
96.58000 6.172
96.60000 6.943
96.62000 4.694
96.64000 3.746
96.66000 1.416
96.68000 0.889
96.70000 5.423
96.72000 6.552
96.74000 4.347
96.76000 4.228
96.78000 6.378
96.80000 7.636
96.82000 6.465
96.84000 8.217
96.86000 5.536
96.88000 0.733
96.90000 1.970
96.92000 0.101
96.94000 3.338
96.96000 5.440
96.98000 1.679
97.00000 1.749
97.02000 -0.815
97.04000 2.118
97.06000 5.419
97.08000 1.692
97.10000 -0.932
97.12000 0.012
97.14000 4.659
97.16000 2.925
97.18000 0.232
97.20000 1.330
97.22000 6.165
97.24000 8.874
97.26000 3.974
97.28000 2.817
97.30000 2.791
97.32000 -0.813
97.34000 1.984
97.36000 2.914
97.38000 3.548
97.40000 9.065
97.42000 4.885
97.44000 0.472
97.46000 2.147
97.48000 -1.306
97.50000 1.361
97.52000 5.230
97.54000 6.468
97.56000 8.090
97.58000 4.771
97.60000 1.357
97.62000 0.245
97.64000 -1.810
97.66000 2.475
97.68000 5.857
97.70000 10.907
97.72000 7.671
97.74000 1.974
97.76000 2.339
97.78000 -1.803
97.80000 -0.154
97.82000 -0.167
97.84000 2.739
97.86000 2.386
97.88000 2.363
97.90000 8.469
97.92000 5.500
97.94000 0.755
97.96000 0.699
97.98000 1.809
98.00000 7.197
98.02000 1.063
98.04000 2.444
98.06000 5.708
98.08000 8.380
98.10000 5.842
98.12000 1.544
98.14000 0.296
98.16000 1.018
98.18000 4.520
98.20000 4.168
98.22000 1.184
98.24000 0.983
98.26000 4.946
98.28000 -1.624
98.30000 3.032
98.32000 4.525
98.34000 0.720
98.36000 1.079
98.38000 2.065
98.40000 1.843
98.42000 5.141
98.44000 2.001
98.46000 5.972
98.48000 5.486
98.50000 2.728
98.52000 0.947
98.54000 3.748
98.56000 3.458
98.58000 6.136
98.60000 3.980
98.62000 3.073
98.64000 4.052
98.66000 5.007
98.68000 6.226
98.70000 5.753
98.72000 5.230
98.74000 4.266
98.76000 1.885
98.78000 6.586
98.80000 3.619
98.82000 0.677
98.84000 4.572
98.86000 8.402
98.88000 4.701
98.90000 -0.662
98.92000 1.368
98.94000 1.033
98.96000 1.368
98.98000 1.669
99.00000 -1.823
99.02000 4.580
99.04000 1.716
99.06000 2.603
99.08000 4.183
99.10000 4.522
99.12000 6.442
99.14000 0.850
99.16000 -0.130
99.18000 0.786
99.20000 2.193
99.22000 -1.839
99.24000 2.956
99.26000 0.616
99.28000 5.071
99.30000 7.160
99.32000 0.490
99.34000 0.033
99.36000 -1.229
99.38000 -0.685
99.40000 1.114
99.42000 4.803
99.44000 3.200
99.46000 8.453
99.48000 3.855
99.50000 -1.857
99.52000 -0.503
99.54000 4.566
99.56000 8.321
99.58000 10.075
99.60000 9.732
99.62000 -2.592
99.64000 0.793
99.66000 1.648
99.68000 -1.435
99.70000 8.872
99.72000 2.908
99.74000 -1.121
99.76000 2.032
99.78000 -0.319
99.80000 6.069
99.82000 3.810
99.84000 13.771
99.86000 7.627
99.88000 -0.392
99.90000 -1.920
99.92000 -1.929
99.94000 1.279
99.96000 5.485
99.98000 0.000
