'Id: "0011387" Comment: "Integrate frame 0011387_Au-Ir-Rh_Rh-rich_XRD-Mapping-264-0000.gfrmwith cursor Wedge Cursor #5" Operator: "B?rgel" Anode: "Cu" Wavelength: "1.5406" Scantype: "2Theta (TwoTheta)" TimePerStep: "1" X: "-22.5" Y: "22.5" Z: "5.95" 
10.00000 0.000
10.02000 3.138
10.04000 8.811
10.06000 20.744
10.08000 17.580
10.10000 13.645
10.12000 23.450
10.14000 27.196
10.16000 22.915
10.18000 6.178
10.20000 -4.351
10.22000 2.241
10.24000 7.068
10.26000 13.308
10.28000 23.999
10.30000 23.997
10.32000 44.749
10.34000 26.329
10.36000 22.895
10.38000 24.417
10.40000 10.689
10.42000 -1.312
10.44000 13.329
10.46000 28.343
10.48000 28.497
10.50000 25.189
10.52000 21.348
10.54000 20.777
10.56000 12.434
10.58000 23.184
10.60000 15.392
10.62000 29.243
10.64000 22.182
10.66000 10.991
10.68000 10.510
10.70000 13.312
10.72000 4.991
10.74000 8.607
10.76000 17.677
10.78000 23.569
10.80000 19.710
10.82000 12.740
10.84000 11.610
10.86000 9.940
10.88000 9.028
10.90000 14.967
10.92000 13.246
10.94000 19.374
10.96000 6.851
10.98000 22.786
11.00000 24.526
11.02000 15.585
11.04000 17.928
11.06000 33.334
11.08000 29.173
11.10000 25.463
11.12000 9.266
11.14000 7.574
11.16000 8.254
11.18000 6.253
11.20000 8.525
11.22000 5.828
11.24000 6.509
11.26000 -0.706
11.28000 10.218
11.30000 17.622
11.32000 6.526
11.34000 13.798
11.36000 16.904
11.38000 5.684
11.40000 11.788
11.42000 1.905
11.44000 8.597
11.46000 8.395
11.48000 6.213
11.50000 5.211
11.52000 8.901
11.54000 -4.475
11.56000 7.673
11.58000 11.020
11.60000 10.894
11.62000 15.457
11.64000 10.161
11.66000 3.928
11.68000 5.935
11.70000 5.387
11.72000 3.027
11.74000 4.818
11.76000 4.703
11.78000 14.488
11.80000 7.846
11.82000 16.682
11.84000 24.110
11.86000 15.309
11.88000 9.351
11.90000 10.797
11.92000 8.665
11.94000 -0.812
11.96000 5.779
11.98000 8.950
12.00000 15.112
12.02000 11.683
12.04000 15.062
12.06000 9.263
12.08000 8.927
12.10000 17.404
12.12000 5.945
12.14000 8.601
12.16000 15.428
12.18000 27.240
12.20000 13.798
12.22000 9.887
12.24000 3.651
12.26000 1.364
12.28000 4.838
12.30000 6.658
12.32000 1.515
12.34000 7.565
12.36000 6.663
12.38000 6.517
12.40000 14.677
12.42000 17.156
12.44000 5.716
12.46000 3.949
12.48000 8.936
12.50000 1.251
12.52000 2.703
12.54000 2.773
12.56000 19.098
12.58000 5.414
12.60000 12.962
12.62000 17.843
12.64000 4.502
12.66000 6.853
12.68000 4.906
12.70000 4.709
12.72000 0.948
12.74000 3.022
12.76000 6.908
12.78000 13.745
12.80000 19.416
12.82000 7.419
12.84000 11.851
12.86000 14.384
12.88000 10.293
12.90000 -0.031
12.92000 1.815
12.94000 6.648
12.96000 9.965
12.98000 2.948
13.00000 7.050
13.02000 6.589
13.04000 1.602
13.06000 10.303
13.08000 16.385
13.10000 8.474
13.12000 6.768
13.14000 5.895
13.16000 9.407
13.18000 9.730
13.20000 6.270
13.22000 3.658
13.24000 2.502
13.26000 2.855
13.28000 15.841
13.30000 18.748
13.32000 9.822
13.34000 3.792
13.36000 -3.342
13.38000 7.937
13.40000 17.246
13.42000 11.538
13.44000 4.883
13.46000 4.202
13.48000 0.924
13.50000 3.749
13.52000 6.363
13.54000 7.958
13.56000 9.958
13.58000 7.714
13.60000 5.918
13.62000 14.066
13.64000 10.666
13.66000 16.293
13.68000 9.212
13.70000 6.219
13.72000 10.966
13.74000 9.111
13.76000 10.549
13.78000 5.337
13.80000 5.726
13.82000 11.080
13.84000 8.153
13.86000 4.554
13.88000 5.300
13.90000 6.451
13.92000 7.866
13.94000 11.381
13.96000 7.029
13.98000 3.070
14.00000 9.047
14.02000 11.415
14.04000 7.210
14.06000 1.403
14.08000 5.636
14.10000 1.137
14.12000 2.818
14.14000 4.064
14.16000 0.880
14.18000 -4.511
14.20000 -2.013
14.22000 8.441
14.24000 11.328
14.26000 13.115
14.28000 9.231
14.30000 5.164
14.32000 6.291
14.34000 10.120
14.36000 9.769
14.38000 -2.145
14.40000 -1.090
14.42000 5.855
14.44000 10.197
14.46000 12.867
14.48000 7.119
14.50000 7.284
14.52000 11.243
14.54000 -3.917
14.56000 0.304
14.58000 6.150
14.60000 11.816
14.62000 8.414
14.64000 3.522
14.66000 4.560
14.68000 4.180
14.70000 2.633
14.72000 7.338
14.74000 1.501
14.76000 0.897
14.78000 0.090
14.80000 7.435
14.82000 15.062
14.84000 11.164
14.86000 11.741
14.88000 17.954
14.90000 23.150
14.92000 17.215
14.94000 13.158
14.96000 13.373
14.98000 -4.488
15.00000 -3.231
15.02000 10.335
15.04000 9.641
15.06000 5.370
15.08000 -0.689
15.10000 -3.839
15.12000 8.281
15.14000 11.414
15.16000 3.846
15.18000 4.728
15.20000 12.769
15.22000 8.398
15.24000 6.729
15.26000 -1.100
15.28000 6.809
15.30000 17.961
15.32000 7.928
15.34000 5.360
15.36000 11.051
15.38000 12.550
15.40000 9.385
15.42000 -0.924
15.44000 3.162
15.46000 7.854
15.48000 10.320
15.50000 14.237
15.52000 21.477
15.54000 10.117
15.56000 14.285
15.58000 11.461
15.60000 7.020
15.62000 11.872
15.64000 9.420
15.66000 9.820
15.68000 10.039
15.70000 5.344
15.72000 6.625
15.74000 -2.669
15.76000 3.705
15.78000 2.398
15.80000 0.268
15.82000 2.155
15.84000 0.158
15.86000 0.136
15.88000 -1.540
15.90000 5.128
15.92000 4.776
15.94000 1.266
15.96000 -1.968
15.98000 2.694
16.00000 4.826
16.02000 8.232
16.04000 7.873
16.06000 5.057
16.08000 4.701
16.10000 2.951
16.12000 7.005
16.14000 1.190
16.16000 -1.234
16.18000 -4.438
16.20000 6.304
16.22000 8.884
16.24000 10.848
16.26000 4.606
16.28000 -3.705
16.30000 0.867
16.32000 5.581
16.34000 11.100
16.36000 4.219
16.38000 7.678
16.40000 5.962
16.42000 2.501
16.44000 2.793
16.46000 9.692
16.48000 17.719
16.50000 9.316
16.52000 2.360
16.54000 5.150
16.56000 5.841
16.58000 7.984
16.60000 2.046
16.62000 -2.969
16.64000 -3.442
16.66000 -0.977
16.68000 2.059
16.70000 12.981
16.72000 13.116
16.74000 15.195
16.76000 9.474
16.78000 5.076
16.80000 3.008
16.82000 -4.314
16.84000 6.953
16.86000 12.782
16.88000 7.774
16.90000 -3.561
16.92000 -0.035
16.94000 8.752
16.96000 -1.526
16.98000 -1.922
17.00000 6.580
17.02000 4.729
17.04000 5.332
17.06000 0.558
17.08000 -4.420
17.10000 -1.341
17.12000 0.267
17.14000 0.087
17.16000 2.247
17.18000 6.013
17.20000 8.610
17.22000 1.044
17.24000 3.155
17.26000 10.773
17.28000 6.425
17.30000 7.190
17.32000 8.884
17.34000 2.630
17.36000 1.509
17.38000 -0.028
17.40000 7.447
17.42000 12.418
17.44000 9.414
17.46000 7.085
17.48000 2.302
17.50000 -0.515
17.52000 1.793
17.54000 -0.320
17.56000 -4.399
17.58000 -0.575
17.60000 4.786
17.62000 5.664
17.64000 1.861
17.66000 7.896
17.68000 5.521
17.70000 8.582
17.72000 7.864
17.74000 7.149
17.76000 12.476
17.78000 8.496
17.80000 1.247
17.82000 -2.042
17.84000 7.906
17.86000 10.885
17.88000 7.626
17.90000 3.691
17.92000 -0.315
17.94000 2.616
17.96000 3.809
17.98000 -1.605
18.00000 2.248
18.02000 5.738
18.04000 7.294
18.06000 2.902
18.08000 5.938
18.10000 -1.260
18.12000 -3.417
18.14000 1.877
18.16000 1.450
18.18000 6.574
18.20000 3.724
18.22000 8.746
18.24000 10.167
18.26000 3.685
18.28000 0.083
18.30000 -2.429
18.32000 -4.349
18.34000 -1.738
18.36000 -0.983
18.38000 -1.086
18.40000 7.412
18.42000 9.187
18.44000 -0.513
18.46000 3.008
18.48000 4.893
18.50000 -0.322
18.52000 2.663
18.54000 -2.106
18.56000 -2.333
18.58000 2.214
18.60000 2.824
18.62000 8.683
18.64000 5.888
18.66000 0.188
18.68000 8.359
18.70000 5.646
18.72000 6.347
18.74000 4.479
18.76000 5.377
18.78000 12.617
18.80000 8.662
18.82000 10.682
18.84000 5.385
18.86000 2.404
18.88000 2.741
18.90000 3.542
18.92000 6.352
18.94000 -0.429
18.96000 -4.188
18.98000 -4.286
19.00000 -2.833
19.02000 3.090
19.04000 7.075
19.06000 0.348
19.08000 5.503
19.10000 5.765
19.12000 -0.063
19.14000 -3.177
19.16000 1.117
19.18000 11.578
19.20000 7.712
19.22000 3.153
19.24000 5.520
19.26000 4.643
19.28000 -0.121
19.30000 3.319
19.32000 3.157
19.34000 -0.474
19.36000 0.916
19.38000 4.723
19.40000 2.818
19.42000 6.046
19.44000 7.499
19.46000 4.791
19.48000 0.947
19.50000 -0.454
19.52000 3.430
19.54000 0.824
19.56000 -0.252
19.58000 3.955
19.60000 -1.778
19.62000 0.143
19.64000 0.241
19.66000 1.295
19.68000 6.708
19.70000 5.458
19.72000 -2.778
19.74000 1.905
19.76000 6.705
19.78000 6.878
19.80000 4.681
19.82000 0.646
19.84000 2.474
19.86000 0.479
19.88000 4.598
19.90000 2.888
19.92000 2.055
19.94000 -1.819
19.96000 1.020
19.98000 1.942
20.00000 2.621
20.02000 2.523
20.04000 -3.162
20.06000 1.100
20.08000 4.428
20.10000 7.262
20.12000 6.400
20.14000 2.720
20.16000 2.539
20.18000 -0.356
20.20000 1.328
20.22000 -1.736
20.24000 -2.497
20.26000 3.310
20.28000 1.287
20.30000 -1.165
20.32000 1.195
20.34000 4.225
20.36000 3.080
20.38000 -0.485
20.40000 0.640
20.42000 -3.188
20.44000 7.391
20.46000 8.446
20.48000 6.745
20.50000 0.493
20.52000 1.355
20.54000 2.746
20.56000 8.092
20.58000 7.837
20.60000 4.075
20.62000 4.751
20.64000 3.759
20.66000 5.913
20.68000 8.603
20.70000 3.163
20.72000 3.689
20.74000 -0.017
20.76000 1.545
20.78000 4.493
20.80000 0.571
20.82000 3.452
20.84000 4.618
20.86000 4.225
20.88000 3.918
20.90000 4.197
20.92000 5.457
20.94000 2.856
20.96000 2.451
20.98000 -1.982
21.00000 -4.175
21.02000 7.854
21.04000 6.591
21.06000 4.158
21.08000 6.888
21.10000 1.764
21.12000 5.416
21.14000 6.940
21.16000 3.812
21.18000 7.381
21.20000 -2.562
21.22000 4.766
21.24000 8.762
21.26000 1.506
21.28000 -4.121
21.30000 4.370
21.32000 5.385
21.34000 -1.272
21.36000 3.623
21.38000 7.440
21.40000 9.174
21.42000 3.790
21.44000 2.993
21.46000 6.551
21.48000 6.934
21.50000 11.595
21.52000 7.307
21.54000 2.391
21.56000 1.187
21.58000 0.160
21.60000 1.030
21.62000 4.071
21.64000 -1.261
21.66000 -0.434
21.68000 -3.638
21.70000 -4.144
21.72000 3.083
21.74000 5.959
21.76000 9.119
21.78000 4.518
21.80000 7.203
21.82000 2.617
21.84000 -2.148
21.86000 6.030
21.88000 6.923
21.90000 5.189
21.92000 1.329
21.94000 -3.058
21.96000 -1.452
21.98000 5.821
22.00000 -1.527
22.02000 -1.336
22.04000 -1.405
22.06000 5.892
22.08000 9.741
22.10000 5.611
22.12000 4.317
22.14000 5.643
22.16000 2.352
22.18000 6.320
22.20000 6.647
22.22000 4.141
22.24000 7.588
22.26000 3.757
22.28000 8.215
22.30000 3.937
22.32000 6.740
22.34000 -1.046
22.36000 -4.111
22.38000 -3.672
22.40000 2.299
22.42000 4.216
22.44000 8.117
22.46000 9.972
22.48000 5.319
22.50000 2.121
22.52000 0.743
22.54000 3.678
22.56000 7.351
22.58000 9.980
22.60000 9.158
22.62000 3.217
22.64000 6.552
22.66000 4.320
22.68000 11.723
22.70000 4.537
22.72000 0.773
22.74000 0.448
22.76000 3.987
22.78000 2.524
22.80000 2.871
22.82000 0.548
22.84000 2.179
22.86000 0.328
22.88000 4.282
22.90000 8.222
22.92000 1.077
22.94000 -2.274
22.96000 1.953
22.98000 4.160
23.00000 0.063
23.02000 0.077
23.04000 2.625
23.06000 -0.409
23.08000 4.665
23.10000 8.187
23.12000 12.192
23.14000 9.474
23.16000 8.668
23.18000 6.308
23.20000 4.513
23.22000 8.715
23.24000 12.594
23.26000 14.765
23.28000 7.488
23.30000 8.878
23.32000 10.482
23.34000 2.258
23.36000 8.919
23.38000 9.211
23.40000 11.059
23.42000 7.586
23.44000 -1.532
23.46000 -0.539
23.48000 3.719
23.50000 1.969
23.52000 3.928
23.54000 7.250
23.56000 8.288
23.58000 7.274
23.60000 5.794
23.62000 6.723
23.64000 8.621
23.66000 5.486
23.68000 6.506
23.70000 9.783
23.72000 10.103
23.74000 4.074
23.76000 3.795
23.78000 3.489
23.80000 1.544
23.82000 6.506
23.84000 5.796
23.86000 2.025
23.88000 6.737
23.90000 2.452
23.92000 -3.995
23.94000 4.589
23.96000 5.825
23.98000 2.243
24.00000 3.691
24.02000 8.921
24.04000 11.812
24.06000 6.923
24.08000 6.088
24.10000 3.524
24.12000 2.443
24.14000 9.500
24.16000 10.286
24.18000 2.911
24.20000 2.151
24.22000 8.664
24.24000 11.262
24.26000 7.991
24.28000 8.674
24.30000 6.568
24.32000 7.500
24.34000 9.566
24.36000 5.851
24.38000 2.006
24.40000 5.992
24.42000 9.472
24.44000 7.233
24.46000 4.578
24.48000 8.402
24.50000 2.813
24.52000 0.892
24.54000 2.653
24.56000 1.070
24.58000 7.629
24.60000 6.021
24.62000 4.144
24.64000 3.727
24.66000 0.285
24.68000 -0.054
24.70000 1.376
24.72000 2.444
24.74000 1.213
24.76000 1.125
24.78000 7.790
24.80000 5.971
24.82000 6.686
24.84000 10.055
24.86000 7.605
24.88000 3.850
24.90000 0.903
24.92000 -0.444
24.94000 0.191
24.96000 -2.731
24.98000 7.399
25.00000 8.235
25.02000 10.584
25.04000 3.471
25.06000 -1.107
25.08000 4.605
25.10000 12.145
25.12000 9.091
25.14000 8.960
25.16000 -1.413
25.18000 -3.919
25.20000 2.330
25.22000 4.561
25.24000 1.399
25.26000 0.126
25.28000 6.375
25.30000 1.970
25.32000 1.993
25.34000 9.066
25.36000 5.898
25.38000 2.346
25.40000 0.325
25.42000 2.655
25.44000 6.071
25.46000 4.345
25.48000 1.871
25.50000 3.700
25.52000 3.774
25.54000 5.755
25.56000 5.342
25.58000 8.467
25.60000 6.744
25.62000 2.787
25.64000 7.007
25.66000 10.242
25.68000 9.369
25.70000 7.319
25.72000 8.000
25.74000 7.357
25.76000 13.724
25.78000 11.421
25.80000 0.666
25.82000 1.587
25.84000 2.480
25.86000 6.213
25.88000 3.006
25.90000 4.131
25.92000 3.862
25.94000 -0.197
25.96000 -2.118
25.98000 -2.152
26.00000 1.701
26.02000 3.664
26.04000 3.309
26.06000 2.275
26.08000 4.100
26.10000 4.209
26.12000 10.009
26.14000 6.608
26.16000 1.290
26.18000 1.137
26.20000 4.021
26.22000 2.258
26.24000 6.412
26.26000 11.358
26.28000 10.600
26.30000 7.332
26.32000 6.511
26.34000 8.425
26.36000 5.845
26.38000 3.210
26.40000 -3.854
26.42000 -0.748
26.44000 2.468
26.46000 0.946
26.48000 -3.427
26.50000 3.787
26.52000 8.142
26.54000 5.696
26.56000 4.220
26.58000 2.222
26.60000 6.513
26.62000 8.875
26.64000 7.643
26.66000 8.401
26.68000 7.615
26.70000 7.339
26.72000 2.183
26.74000 2.549
26.76000 2.422
26.78000 4.026
26.80000 6.339
26.82000 8.938
26.84000 7.456
26.86000 3.159
26.88000 3.178
26.90000 2.784
26.92000 4.366
26.94000 4.354
26.96000 9.847
26.98000 8.957
27.00000 7.073
27.02000 5.121
27.04000 2.073
27.06000 3.251
27.08000 6.800
27.10000 5.340
27.12000 4.489
27.14000 3.399
27.16000 2.637
27.18000 -3.829
27.20000 0.138
27.22000 2.733
27.24000 1.638
27.26000 6.376
27.28000 6.445
27.30000 4.046
27.32000 2.899
27.34000 3.259
27.36000 -0.290
27.38000 -2.468
27.40000 4.411
27.42000 5.447
27.44000 3.088
27.46000 7.878
27.48000 10.039
27.50000 11.029
27.52000 3.988
27.54000 -2.651
27.56000 1.313
27.58000 2.593
27.60000 5.638
27.62000 8.010
27.64000 5.613
27.66000 4.082
27.68000 -1.330
27.70000 2.717
27.72000 4.055
27.74000 4.398
27.76000 2.665
27.78000 5.787
27.80000 4.477
27.82000 3.594
27.84000 4.508
27.86000 0.619
27.88000 1.900
27.90000 3.251
27.92000 4.087
27.94000 7.403
27.96000 1.960
27.98000 1.612
28.00000 6.314
28.02000 3.105
28.04000 0.590
28.06000 -2.244
28.08000 1.268
28.10000 1.777
28.12000 -0.016
28.14000 -0.963
28.16000 -1.839
28.18000 -1.448
28.20000 0.122
28.22000 -2.997
28.24000 -2.981
28.26000 -3.152
28.28000 2.746
28.30000 6.734
28.32000 9.004
28.34000 9.850
28.36000 4.715
28.38000 -0.175
28.40000 -0.273
28.42000 2.359
28.44000 0.904
28.46000 1.030
28.48000 -0.335
28.50000 -3.783
28.52000 0.506
28.54000 3.108
28.56000 1.794
28.58000 3.207
28.60000 2.971
28.62000 4.716
28.64000 3.626
28.66000 -0.445
28.68000 -1.036
28.70000 1.369
28.72000 -0.245
28.74000 -0.275
28.76000 3.540
28.78000 3.536
28.80000 -0.851
28.82000 -2.294
28.84000 4.368
28.86000 7.687
28.88000 5.264
28.90000 1.602
28.92000 5.261
28.94000 1.934
28.96000 3.311
28.98000 7.233
29.00000 5.420
29.02000 3.107
29.04000 4.641
29.06000 4.848
29.08000 3.830
29.10000 4.587
29.12000 4.081
29.14000 3.690
29.16000 0.434
29.18000 0.180
29.20000 4.250
29.22000 3.677
29.24000 5.139
29.26000 3.056
29.28000 1.700
29.30000 0.384
29.32000 3.807
29.34000 3.043
29.36000 4.739
29.38000 4.991
29.40000 1.806
29.42000 -2.672
29.44000 0.490
29.46000 1.455
29.48000 -3.741
29.50000 -3.571
29.52000 0.313
29.54000 4.383
29.56000 1.698
29.58000 1.139
29.60000 5.558
29.62000 9.752
29.64000 2.237
29.66000 -0.261
29.68000 4.932
29.70000 4.991
29.72000 2.927
29.74000 1.428
29.76000 -0.036
29.78000 -1.358
29.80000 2.200
29.82000 2.916
29.84000 3.506
29.86000 0.826
29.88000 -3.713
29.90000 -0.856
29.92000 -3.032
29.94000 -1.720
29.96000 2.776
29.98000 1.194
30.00000 -2.118
30.02000 3.707
30.04000 1.438
30.06000 -0.708
30.08000 1.664
30.10000 3.278
30.12000 2.817
30.14000 9.370
30.16000 6.122
30.18000 5.191
30.20000 3.674
30.22000 1.265
30.24000 -2.026
30.26000 0.474
30.28000 1.955
30.30000 -0.610
30.32000 0.776
30.34000 -0.381
30.36000 0.043
30.38000 4.223
30.40000 6.470
30.42000 5.182
30.44000 2.710
30.46000 3.766
30.48000 5.189
30.50000 1.855
30.52000 3.461
30.54000 7.170
30.56000 8.638
30.58000 12.510
30.60000 4.301
30.62000 6.846
30.64000 5.324
30.66000 -3.649
30.68000 -0.909
30.70000 1.175
30.72000 -0.085
30.74000 3.663
30.76000 3.870
30.78000 4.287
30.80000 8.213
30.82000 8.259
30.84000 1.965
30.86000 4.445
30.88000 5.479
30.90000 7.227
30.92000 2.365
30.94000 -0.823
30.96000 -0.296
30.98000 2.638
31.00000 2.379
31.02000 -1.567
31.04000 2.103
31.06000 6.563
31.08000 3.162
31.10000 -2.015
31.12000 0.783
31.14000 4.365
31.16000 5.803
31.18000 8.666
31.20000 4.574
31.22000 1.285
31.24000 3.841
31.26000 0.014
31.28000 2.751
31.30000 1.390
31.32000 0.215
31.34000 2.268
31.36000 5.201
31.38000 4.813
31.40000 4.501
31.42000 7.587
31.44000 5.053
31.46000 1.249
31.48000 2.143
31.50000 4.429
31.52000 1.233
31.54000 1.962
31.56000 5.116
31.58000 8.530
31.60000 5.287
31.62000 1.842
31.64000 5.802
31.66000 11.339
31.68000 10.059
31.70000 5.638
31.72000 4.195
31.74000 5.807
31.76000 2.648
31.78000 1.308
31.80000 2.674
31.82000 5.274
31.84000 4.330
31.86000 4.182
31.88000 3.766
31.90000 4.003
31.92000 4.224
31.94000 4.574
31.96000 0.752
31.98000 -3.588
32.00000 -0.415
32.02000 -0.078
32.04000 3.980
32.06000 9.952
32.08000 5.712
32.10000 2.629
32.12000 3.262
32.14000 10.797
32.16000 8.008
32.18000 4.081
32.20000 5.353
32.22000 3.784
32.24000 0.707
32.26000 4.591
32.28000 9.760
32.30000 9.410
32.32000 7.265
32.34000 3.145
32.36000 0.773
32.38000 -2.912
32.40000 -3.579
32.42000 4.763
32.44000 7.273
32.46000 3.643
32.48000 2.901
32.50000 6.188
32.52000 0.523
32.54000 0.249
32.56000 2.176
32.58000 4.018
32.60000 0.926
32.62000 3.418
32.64000 1.397
32.66000 -0.080
32.68000 0.254
32.70000 2.658
32.72000 8.070
32.74000 4.588
32.76000 1.179
32.78000 -0.047
32.80000 2.760
32.82000 1.858
32.84000 -0.758
32.86000 -3.575
32.88000 0.454
32.90000 5.386
32.92000 1.883
32.94000 1.356
32.96000 2.696
32.98000 2.642
33.00000 1.055
33.02000 2.732
33.04000 4.249
33.06000 6.272
33.08000 4.629
33.10000 5.324
33.12000 -0.044
33.14000 -2.580
33.16000 3.039
33.18000 2.996
33.20000 0.337
33.22000 -1.628
33.24000 4.238
33.26000 8.803
33.28000 1.094
33.30000 5.223
33.32000 8.659
33.34000 6.590
33.36000 -3.182
33.38000 -1.186
33.40000 1.883
33.42000 1.225
33.44000 0.215
33.46000 -3.340
33.48000 -1.675
33.50000 0.731
33.52000 5.209
33.54000 1.444
33.56000 6.005
33.58000 6.594
33.60000 2.812
33.62000 3.519
33.64000 4.195
33.66000 4.195
33.68000 -1.229
33.70000 -2.204
33.72000 0.269
33.74000 -1.384
33.76000 -2.250
33.78000 -2.935
33.80000 2.169
33.82000 3.727
33.84000 5.731
33.86000 4.948
33.88000 -0.660
33.90000 -0.896
33.92000 3.634
33.94000 6.256
33.96000 2.740
33.98000 3.336
34.00000 4.255
34.02000 2.048
34.04000 -0.368
34.06000 2.768
34.08000 6.872
34.10000 4.883
34.12000 5.523
34.14000 4.129
34.16000 0.292
34.18000 2.002
34.20000 1.589
34.22000 -0.551
34.24000 0.163
34.26000 5.556
34.28000 6.325
34.30000 0.476
34.32000 1.391
34.34000 3.016
34.36000 5.754
34.38000 5.532
34.40000 5.552
34.42000 5.642
34.44000 5.022
34.46000 4.320
34.48000 6.028
34.50000 14.230
34.52000 11.193
34.54000 0.099
34.56000 -2.378
34.58000 -3.539
34.60000 0.844
34.62000 3.859
34.64000 -1.104
34.66000 0.761
34.68000 0.862
34.70000 3.952
34.72000 6.037
34.74000 4.606
34.76000 5.368
34.78000 0.938
34.80000 -0.017
34.82000 2.587
34.84000 -0.297
34.86000 6.865
34.88000 4.292
34.90000 6.196
34.92000 8.272
34.94000 2.042
34.96000 1.376
34.98000 1.975
35.00000 5.422
35.02000 0.484
35.04000 4.754
35.06000 4.833
35.08000 3.616
35.10000 5.789
35.12000 1.803
35.14000 -2.090
35.16000 1.755
35.18000 -1.093
35.20000 -0.288
35.22000 3.574
35.24000 1.286
35.26000 -0.165
35.28000 -1.614
35.30000 0.437
35.32000 4.036
35.34000 3.758
35.36000 4.254
35.38000 5.807
35.40000 5.873
35.42000 0.695
35.44000 -3.545
35.46000 2.176
35.48000 3.850
35.50000 2.248
35.52000 0.894
35.54000 0.747
35.56000 0.673
35.58000 4.088
35.60000 4.899
35.62000 4.588
35.64000 6.992
35.66000 8.882
35.68000 8.547
35.70000 4.153
35.72000 -0.152
35.74000 -0.221
35.76000 1.709
35.78000 1.701
35.80000 -0.201
35.82000 0.665
35.84000 5.289
35.86000 6.327
35.88000 3.530
35.90000 4.246
35.92000 0.619
35.94000 0.409
35.96000 1.552
35.98000 1.594
36.00000 1.274
36.02000 -2.386
36.04000 -1.320
36.06000 2.770
36.08000 4.419
36.10000 1.816
36.12000 0.829
36.14000 0.407
36.16000 5.301
36.18000 3.869
36.20000 -3.560
36.22000 1.529
36.24000 5.096
36.26000 1.771
36.28000 0.090
36.30000 3.500
36.32000 8.701
36.34000 8.863
36.36000 4.017
36.38000 1.483
36.40000 3.482
36.42000 1.435
36.44000 -1.155
36.46000 -0.961
36.48000 1.157
36.50000 2.225
36.52000 -1.251
36.54000 -2.178
36.56000 -0.014
36.58000 3.503
36.60000 4.510
36.62000 -0.529
36.64000 -2.552
36.66000 -0.717
36.68000 0.608
36.70000 1.790
36.72000 0.343
36.74000 4.550
36.76000 -2.297
36.78000 -1.750
36.80000 5.452
36.82000 4.435
36.84000 0.816
36.86000 1.347
36.88000 2.206
36.90000 3.295
36.92000 -3.612
36.94000 -1.051
36.96000 3.773
36.98000 0.725
37.00000 -2.055
37.02000 4.429
37.04000 4.903
37.06000 0.920
37.08000 -2.817
37.10000 1.673
37.12000 1.537
37.14000 -3.331
37.16000 -3.569
37.18000 2.602
37.20000 7.798
37.22000 4.129
37.24000 3.813
37.26000 3.711
37.28000 -1.636
37.30000 -3.651
37.32000 0.680
37.34000 1.422
37.36000 1.577
37.38000 1.585
37.40000 5.421
37.42000 7.882
37.44000 7.300
37.46000 1.238
37.48000 2.495
37.50000 6.643
37.52000 1.129
37.54000 0.253
37.56000 4.858
37.58000 5.447
37.60000 3.740
37.62000 -0.370
37.64000 4.644
37.66000 6.308
37.68000 10.089
37.70000 9.541
37.72000 5.142
37.74000 3.798
37.76000 3.045
37.78000 12.272
37.80000 10.390
37.82000 9.255
37.84000 8.714
37.86000 9.045
37.88000 5.998
37.90000 8.260
37.92000 6.262
37.94000 10.522
37.96000 13.236
37.98000 13.271
38.00000 13.074
38.02000 11.799
38.04000 16.361
38.06000 14.500
38.08000 14.474
38.10000 21.314
38.12000 20.739
38.14000 19.264
38.16000 16.548
38.18000 19.717
38.20000 25.669
38.22000 24.906
38.24000 21.209
38.26000 20.998
38.28000 23.557
38.30000 26.984
38.32000 28.617
38.34000 26.615
38.36000 26.631
38.38000 33.040
38.40000 33.274
38.42000 27.844
38.44000 24.563
38.46000 28.800
38.48000 34.679
38.50000 34.684
38.52000 38.959
38.54000 41.182
38.56000 35.911
38.58000 35.666
38.60000 38.394
38.62000 43.010
38.64000 44.980
38.66000 42.125
38.68000 46.125
38.70000 47.755
38.72000 50.371
38.74000 52.370
38.76000 55.598
38.78000 60.904
38.80000 62.221
38.82000 61.609
38.84000 62.034
38.86000 64.469
38.88000 70.929
38.90000 73.916
38.92000 77.906
38.94000 79.714
38.96000 81.541
38.98000 85.377
39.00000 91.006
39.02000 94.768
39.04000 99.082
39.06000 100.261
39.08000 103.264
39.10000 107.591
39.12000 111.709
39.14000 113.608
39.16000 117.122
39.18000 119.378
39.20000 129.369
39.22000 143.100
39.24000 151.892
39.26000 151.070
39.28000 152.248
39.30000 165.592
39.32000 173.412
39.34000 177.901
39.36000 185.165
39.38000 199.925
39.40000 211.744
39.42000 221.251
39.44000 230.566
39.46000 244.311
39.48000 249.905
39.50000 269.257
39.52000 285.367
39.54000 294.635
39.56000 310.458
39.58000 331.270
39.60000 349.730
39.62000 363.871
39.64000 381.320
39.66000 405.586
39.68000 421.224
39.70000 445.417
39.72000 473.520
39.74000 492.396
39.76000 510.147
39.78000 527.506
39.80000 549.291
39.82000 574.632
39.84000 601.212
39.86000 623.414
39.88000 644.855
39.90000 664.676
39.92000 679.225
39.94000 704.360
39.96000 711.958
39.98000 725.214
40.00000 743.117
40.02000 762.021
40.04000 773.112
40.06000 779.859
40.08000 787.389
40.10000 784.008
40.12000 777.568
40.14000 782.623
40.16000 768.873
40.18000 755.473
40.20000 750.016
40.22000 739.020
40.24000 735.458
40.26000 720.521
40.28000 693.710
40.30000 667.639
40.32000 642.341
40.34000 625.163
40.36000 614.317
40.38000 595.506
40.40000 580.066
40.42000 556.682
40.44000 534.063
40.46000 516.375
40.48000 483.580
40.50000 456.670
40.52000 439.872
40.54000 419.322
40.56000 395.820
40.58000 376.390
40.60000 368.300
40.62000 343.765
40.64000 324.162
40.66000 297.912
40.68000 286.312
40.70000 272.991
40.72000 253.291
40.74000 242.293
40.76000 237.386
40.78000 225.365
40.80000 210.835
40.82000 200.818
40.84000 187.495
40.86000 177.940
40.88000 162.240
40.90000 154.140
40.92000 149.499
40.94000 143.649
40.96000 128.744
40.98000 122.972
41.00000 116.692
41.02000 108.746
41.04000 107.985
41.06000 100.287
41.08000 92.508
41.10000 89.634
41.12000 80.679
41.14000 77.535
41.16000 78.008
41.18000 73.372
41.20000 71.723
41.22000 62.472
41.24000 59.036
41.26000 53.989
41.28000 53.166
41.30000 53.111
41.32000 49.824
41.34000 46.638
41.36000 44.126
41.38000 46.460
41.40000 39.914
41.42000 40.439
41.44000 37.915
41.46000 31.830
41.48000 35.614
41.50000 34.534
41.52000 29.903
41.54000 30.770
41.56000 26.153
41.58000 29.357
41.60000 26.961
41.62000 26.007
41.64000 25.236
41.66000 21.442
41.68000 21.381
41.70000 20.940
41.72000 25.901
41.74000 24.277
41.76000 20.777
41.78000 18.035
41.80000 18.961
41.82000 22.901
41.84000 17.061
41.86000 12.082
41.88000 11.560
41.90000 14.479
41.92000 11.579
41.94000 9.224
41.96000 7.358
41.98000 8.855
42.00000 10.807
42.02000 10.818
42.04000 11.211
42.06000 9.476
42.08000 9.712
42.10000 8.963
42.12000 10.870
42.14000 11.750
42.16000 6.720
42.18000 4.161
42.20000 8.902
42.22000 8.530
42.24000 5.831
42.26000 5.871
42.28000 7.630
42.30000 7.084
42.32000 3.093
42.34000 4.686
42.36000 6.257
42.38000 8.799
42.40000 8.518
42.42000 5.915
42.44000 5.389
42.46000 3.497
42.48000 8.252
42.50000 5.208
42.52000 4.273
42.54000 5.562
42.56000 7.570
42.58000 6.375
42.60000 7.866
42.62000 1.831
42.64000 -3.452
42.66000 -2.313
42.68000 4.108
42.70000 7.044
42.72000 1.971
42.74000 -1.474
42.76000 0.137
42.78000 -1.818
42.80000 2.300
42.82000 4.973
42.84000 4.532
42.86000 3.175
42.88000 2.720
42.90000 1.399
42.92000 0.482
42.94000 2.406
42.96000 1.892
42.98000 0.269
43.00000 3.376
43.02000 4.819
43.04000 0.993
43.06000 -0.884
43.08000 -0.962
43.10000 -0.316
43.12000 0.428
43.14000 2.936
43.16000 3.570
43.18000 0.685
43.20000 -0.536
43.22000 -1.875
43.24000 -2.191
43.26000 -0.664
43.28000 -0.017
43.30000 -0.726
43.32000 0.030
43.34000 0.255
43.36000 -3.338
43.38000 0.591
43.40000 -1.158
43.42000 0.751
43.44000 0.738
43.46000 -1.306
43.48000 -1.442
43.50000 -2.177
43.52000 -1.084
43.54000 1.895
43.56000 2.839
43.58000 1.928
43.60000 -0.933
43.62000 1.038
43.64000 0.576
43.66000 -0.565
43.68000 1.279
43.70000 -0.093
43.72000 -2.141
43.74000 -2.201
43.76000 -3.368
43.78000 -2.639
43.80000 0.639
43.82000 0.507
43.84000 -0.911
43.86000 0.131
43.88000 2.955
43.90000 0.854
43.92000 1.826
43.94000 6.665
43.96000 5.262
43.98000 2.469
44.00000 -0.416
44.02000 -1.860
44.04000 -3.346
44.06000 -0.942
44.08000 3.384
44.10000 0.810
44.12000 3.397
44.14000 2.087
44.16000 1.038
44.18000 -0.145
44.20000 1.739
44.22000 4.106
44.24000 3.327
44.26000 -0.351
44.28000 1.768
44.30000 1.127
44.32000 -0.283
44.34000 3.649
44.36000 -2.104
44.38000 -3.358
44.40000 -2.395
44.42000 -1.826
44.44000 0.180
44.46000 2.180
44.48000 -0.456
44.50000 -0.137
44.52000 4.243
44.54000 5.962
44.56000 3.118
44.58000 1.256
44.60000 0.607
44.62000 1.445
44.64000 3.486
44.66000 -2.675
44.68000 -1.655
44.70000 1.473
44.72000 -2.312
44.74000 -1.125
44.76000 -2.291
44.78000 -0.224
44.80000 0.318
44.82000 1.692
44.84000 -1.751
44.86000 1.631
44.88000 6.168
44.90000 4.872
44.92000 1.151
44.94000 4.208
44.96000 2.275
44.98000 4.287
45.00000 6.334
45.02000 10.368
45.04000 9.430
45.06000 9.996
45.08000 8.030
45.10000 7.630
45.12000 10.822
45.14000 8.888
45.16000 8.869
45.18000 9.220
45.20000 12.407
45.22000 9.635
45.24000 7.574
45.26000 6.320
45.28000 13.512
45.30000 13.445
45.32000 8.847
45.34000 14.534
45.36000 17.044
45.38000 11.771
45.40000 17.154
45.42000 25.057
45.44000 26.007
45.46000 21.301
45.48000 18.880
45.50000 19.226
45.52000 20.961
45.54000 24.483
45.56000 28.036
45.58000 27.625
45.60000 28.085
45.62000 32.296
45.64000 30.759
45.66000 31.409
45.68000 31.564
45.70000 29.378
45.72000 28.836
45.74000 34.247
45.76000 30.920
45.78000 33.556
45.80000 36.726
45.82000 41.182
45.84000 47.252
45.86000 47.531
45.88000 44.082
45.90000 51.355
45.92000 50.880
45.94000 48.230
45.96000 52.623
45.98000 56.340
46.00000 61.351
46.02000 60.828
46.04000 62.242
46.06000 60.601
46.08000 64.048
46.10000 65.605
46.12000 68.521
46.14000 68.261
46.16000 74.458
46.18000 75.466
46.20000 74.873
46.22000 82.692
46.24000 83.974
46.26000 82.307
46.28000 85.593
46.30000 87.475
46.32000 91.494
46.34000 94.036
46.36000 94.930
46.38000 100.883
46.40000 104.676
46.42000 105.534
46.44000 113.268
46.46000 118.733
46.48000 118.847
46.50000 114.889
46.52000 121.361
46.54000 113.227
46.56000 120.040
46.58000 125.529
46.60000 125.845
46.62000 125.271
46.64000 123.627
46.66000 128.328
46.68000 128.422
46.70000 137.811
46.72000 139.338
46.74000 133.110
46.76000 132.780
46.78000 139.566
46.80000 137.824
46.82000 132.878
46.84000 135.536
46.86000 133.513
46.88000 130.520
46.90000 130.169
46.92000 124.862
46.94000 126.353
46.96000 123.554
46.98000 120.395
47.00000 125.939
47.02000 122.251
47.04000 117.256
47.06000 109.929
47.08000 107.340
47.10000 107.908
47.12000 105.275
47.14000 102.096
47.16000 96.589
47.18000 97.495
47.20000 97.695
47.22000 92.833
47.24000 86.677
47.26000 81.096
47.28000 75.326
47.30000 73.079
47.32000 73.831
47.34000 67.425
47.36000 63.951
47.38000 62.202
47.40000 63.370
47.42000 57.411
47.44000 57.153
47.46000 51.307
47.48000 49.300
47.50000 49.672
47.52000 45.845
47.54000 43.488
47.56000 40.429
47.58000 36.349
47.60000 35.596
47.62000 32.104
47.64000 35.392
47.66000 34.951
47.68000 28.212
47.70000 26.922
47.72000 25.553
47.74000 26.540
47.76000 23.920
47.78000 15.958
47.80000 17.369
47.82000 16.805
47.84000 13.175
47.86000 9.473
47.88000 9.767
47.90000 12.723
47.92000 11.586
47.94000 16.660
47.96000 13.820
47.98000 9.869
48.00000 9.203
48.02000 10.115
48.04000 12.389
48.06000 8.078
48.08000 7.718
48.10000 5.116
48.12000 0.460
48.14000 6.739
48.16000 7.878
48.18000 5.464
48.20000 2.917
48.22000 4.842
48.24000 7.780
48.26000 5.426
48.28000 5.053
48.30000 4.142
48.32000 -3.018
48.34000 -2.397
48.36000 1.929
48.38000 2.671
48.40000 1.113
48.42000 1.889
48.44000 3.065
48.46000 2.428
48.48000 2.046
48.50000 3.444
48.52000 4.808
48.54000 2.753
48.56000 4.545
48.58000 2.747
48.60000 2.088
48.62000 0.622
48.64000 0.822
48.66000 -1.646
48.68000 0.460
48.70000 3.314
48.72000 5.524
48.74000 3.533
48.76000 1.405
48.78000 0.661
48.80000 3.901
48.82000 4.492
48.84000 2.312
48.86000 2.783
48.88000 4.217
48.90000 3.566
48.92000 9.220
48.94000 9.530
48.96000 4.541
48.98000 2.269
49.00000 -1.556
49.02000 -2.849
49.04000 1.430
49.06000 0.624
49.08000 -1.292
49.10000 -1.726
49.12000 -2.834
49.14000 -2.061
49.16000 2.075
49.18000 1.307
49.20000 -0.382
49.22000 -1.406
49.24000 0.314
49.26000 -1.197
49.28000 1.897
49.30000 7.316
49.32000 4.551
49.34000 4.476
49.36000 5.846
49.38000 3.926
49.40000 -0.568
49.42000 -2.373
49.44000 2.563
49.46000 5.914
49.48000 2.837
49.50000 -1.217
49.52000 -1.441
49.54000 -2.814
49.56000 1.135
49.58000 -0.386
49.60000 0.217
49.62000 -0.946
49.64000 4.675
49.66000 4.356
49.68000 4.004
49.70000 3.979
49.72000 2.471
49.74000 2.170
49.76000 3.139
49.78000 3.597
49.80000 1.613
49.82000 0.399
49.84000 3.524
49.86000 -0.026
49.88000 0.293
49.90000 1.708
49.92000 1.560
49.94000 -1.831
49.96000 -1.589
49.98000 0.664
50.00000 3.946
50.02000 2.535
50.04000 0.467
50.06000 0.337
50.08000 0.151
50.10000 0.087
50.12000 2.246
50.14000 1.196
50.16000 -1.381
50.18000 2.130
50.20000 2.876
50.22000 5.911
50.24000 6.665
50.26000 8.429
50.28000 2.855
50.30000 -1.553
50.32000 -1.802
50.34000 -2.388
50.36000 -1.155
50.38000 0.444
50.40000 -0.795
50.42000 -0.633
50.44000 -0.506
50.46000 -1.051
50.48000 -2.729
50.50000 2.587
50.52000 4.625
50.54000 3.815
50.56000 6.335
50.58000 5.782
50.60000 3.116
50.62000 0.039
50.64000 1.812
50.66000 1.886
50.68000 0.981
50.70000 -1.108
50.72000 -1.343
50.74000 3.212
50.76000 2.901
50.78000 2.936
50.80000 3.569
50.82000 3.893
50.84000 2.372
50.86000 2.968
50.88000 3.130
50.90000 3.382
50.92000 4.572
50.94000 6.124
50.96000 2.910
50.98000 -2.304
51.00000 -1.353
51.02000 4.547
51.04000 6.559
51.06000 2.459
51.08000 -1.689
51.10000 -2.702
51.12000 1.195
51.14000 4.845
51.16000 4.067
51.18000 1.280
51.20000 2.993
51.22000 1.770
51.24000 3.213
51.26000 1.343
51.28000 1.812
51.30000 5.057
51.32000 0.478
51.34000 0.091
51.36000 -1.474
51.38000 0.154
51.40000 -1.218
51.42000 0.166
51.44000 3.794
51.46000 3.279
51.48000 3.504
51.50000 1.179
51.52000 0.263
51.54000 -0.225
51.56000 1.868
51.58000 0.769
51.60000 1.614
51.62000 1.261
51.64000 -1.214
51.66000 -0.154
51.68000 5.111
51.70000 5.046
51.72000 7.057
51.74000 3.410
51.76000 -0.926
51.78000 -0.127
51.80000 1.745
51.82000 1.433
51.84000 1.516
51.86000 0.324
51.88000 -0.840
51.90000 1.696
51.92000 2.223
51.94000 -0.475
51.96000 -1.215
51.98000 0.570
52.00000 -1.884
52.02000 -2.666
52.04000 3.193
52.06000 3.345
52.08000 1.485
52.10000 1.142
52.12000 -0.332
52.14000 -1.056
52.16000 1.056
52.18000 1.345
52.20000 3.036
52.22000 5.288
52.24000 2.801
52.26000 1.654
52.28000 4.277
52.30000 3.867
52.32000 4.330
52.34000 6.953
52.36000 4.605
52.38000 4.888
52.40000 2.642
52.42000 3.996
52.44000 2.488
52.46000 2.838
52.48000 3.471
52.50000 1.395
52.52000 1.190
52.54000 4.555
52.56000 6.108
52.58000 7.975
52.60000 5.006
52.62000 2.115
52.64000 1.442
52.66000 -2.522
52.68000 -2.608
52.70000 5.854
52.72000 5.587
52.74000 3.620
52.76000 5.208
52.78000 2.334
52.80000 1.226
52.82000 2.032
52.84000 3.172
52.86000 3.860
52.88000 5.116
52.90000 4.334
52.92000 5.847
52.94000 4.541
52.96000 -0.058
52.98000 1.563
53.00000 1.044
53.02000 -1.178
53.04000 6.128
53.06000 4.719
53.08000 0.552
53.10000 1.943
53.12000 2.621
53.14000 2.881
53.16000 8.255
53.18000 3.135
53.20000 -0.071
53.22000 -1.439
53.24000 1.520
53.26000 0.869
53.28000 0.597
53.30000 0.950
53.32000 3.195
53.34000 2.011
53.36000 0.248
53.38000 -0.745
53.40000 1.484
53.42000 3.407
53.44000 2.453
53.46000 4.424
53.48000 0.926
53.50000 2.729
53.52000 3.427
53.54000 2.349
53.56000 3.409
53.58000 -2.615
53.60000 1.549
53.62000 4.512
53.64000 2.049
53.66000 1.642
53.68000 3.608
53.70000 4.680
53.72000 2.372
53.74000 4.458
53.76000 5.062
53.78000 5.347
53.80000 1.185
53.82000 2.168
53.84000 0.351
53.86000 1.942
53.88000 0.225
53.90000 2.385
53.92000 2.004
53.94000 1.811
53.96000 -0.578
53.98000 2.553
54.00000 0.501
54.02000 -0.197
54.04000 0.378
54.06000 0.194
54.08000 -1.125
54.10000 2.863
54.12000 5.523
54.14000 2.650
54.16000 1.345
54.18000 1.033
54.20000 0.461
54.22000 1.317
54.24000 1.608
54.26000 3.408
54.28000 4.396
54.30000 2.010
54.32000 3.200
54.34000 0.843
54.36000 4.459
54.38000 7.186
54.40000 5.748
54.42000 5.283
54.44000 8.817
54.46000 4.187
54.48000 -1.622
54.50000 -2.568
54.52000 -0.572
54.54000 2.786
54.56000 3.965
54.58000 5.499
54.60000 7.310
54.62000 4.224
54.64000 2.867
54.66000 5.062
54.68000 3.637
54.70000 4.628
54.72000 2.068
54.74000 -0.399
54.76000 0.055
54.78000 2.760
54.80000 5.523
54.82000 2.632
54.84000 4.014
54.86000 0.899
54.88000 0.002
54.90000 1.490
54.92000 3.157
54.94000 3.754
54.96000 6.411
54.98000 3.222
55.00000 0.728
55.02000 0.412
55.04000 3.419
55.06000 2.654
55.08000 4.307
55.10000 6.552
55.12000 0.835
55.14000 -1.941
55.16000 2.037
55.18000 2.527
55.20000 1.141
55.22000 3.125
55.24000 3.132
55.26000 3.131
55.28000 1.092
55.30000 3.842
55.32000 -1.801
55.34000 -2.479
55.36000 4.238
55.38000 5.381
55.40000 1.180
55.42000 -1.794
55.44000 3.119
55.46000 4.489
55.48000 2.087
55.50000 0.154
55.52000 -2.549
55.54000 3.321
55.56000 2.812
55.58000 2.404
55.60000 4.869
55.62000 1.687
55.64000 3.927
55.66000 5.258
55.68000 2.556
55.70000 3.691
55.72000 -0.580
55.74000 2.558
55.76000 2.823
55.78000 2.041
55.80000 0.856
55.82000 0.857
55.84000 -0.158
55.86000 2.173
55.88000 0.209
55.90000 -1.770
55.92000 4.442
55.94000 3.791
55.96000 7.331
55.98000 4.112
56.00000 3.905
56.02000 1.234
56.04000 2.204
56.06000 3.322
56.08000 3.759
56.10000 2.851
56.12000 3.087
56.14000 3.936
56.16000 1.933
56.18000 1.152
56.20000 0.161
56.22000 1.089
56.24000 4.617
56.26000 1.819
56.28000 2.720
56.30000 4.147
56.32000 3.525
56.34000 2.157
56.36000 -2.507
56.38000 0.695
56.40000 1.250
56.42000 1.651
56.44000 4.401
56.46000 2.884
56.48000 -0.131
56.50000 3.906
56.52000 0.155
56.54000 3.329
56.56000 -0.015
56.58000 -0.334
56.60000 4.462
56.62000 5.387
56.64000 2.147
56.66000 0.441
56.68000 2.538
56.70000 1.720
56.72000 6.330
56.74000 8.201
56.76000 7.330
56.78000 -0.145
56.80000 1.712
56.82000 2.095
56.84000 4.515
56.86000 0.972
56.88000 2.245
56.90000 6.134
56.92000 4.304
56.94000 1.952
56.96000 -0.738
56.98000 -2.499
57.00000 -1.277
57.02000 2.552
57.04000 2.278
57.06000 3.432
57.08000 3.082
57.10000 2.919
57.12000 1.814
57.14000 2.861
57.16000 1.200
57.18000 -0.797
57.20000 2.700
57.22000 6.626
57.24000 5.452
57.26000 0.125
57.28000 0.261
57.30000 -0.323
57.32000 2.992
57.34000 5.555
57.36000 2.496
57.38000 0.763
57.40000 5.315
57.42000 2.908
57.44000 4.671
57.46000 5.456
57.48000 1.446
57.50000 5.398
57.52000 5.900
57.54000 5.639
57.56000 3.939
57.58000 4.705
57.60000 6.766
57.62000 6.232
57.64000 8.033
57.66000 5.942
57.68000 4.749
57.70000 5.009
57.72000 4.432
57.74000 3.003
57.76000 3.497
57.78000 0.700
57.80000 0.752
57.82000 -2.443
57.84000 4.132
57.86000 6.724
57.88000 6.182
57.90000 2.331
57.92000 1.596
57.94000 -2.116
57.96000 3.539
57.98000 5.093
58.00000 -0.047
58.02000 -0.559
58.04000 0.396
58.06000 3.227
58.08000 2.361
58.10000 1.278
58.12000 3.715
58.14000 4.104
58.16000 3.786
58.18000 2.673
58.20000 2.437
58.22000 5.249
58.24000 8.736
58.26000 8.217
58.28000 3.950
58.30000 -0.159
58.32000 -0.651
58.34000 -1.729
58.36000 -1.191
58.38000 2.673
58.40000 5.112
58.42000 3.263
58.44000 1.215
58.46000 1.797
58.48000 1.834
58.50000 4.497
58.52000 7.921
58.54000 5.975
58.56000 -0.499
58.58000 -0.759
58.60000 4.990
58.62000 4.635
58.64000 1.031
58.66000 2.188
58.68000 1.330
58.70000 4.778
58.72000 4.593
58.74000 1.916
58.76000 1.547
58.78000 5.612
58.80000 3.774
58.82000 2.979
58.84000 4.375
58.86000 2.441
58.88000 1.803
58.90000 5.333
58.92000 2.106
58.94000 1.638
58.96000 5.431
58.98000 3.777
59.00000 3.353
59.02000 2.024
59.04000 6.343
59.06000 9.032
59.08000 5.172
59.10000 3.849
59.12000 -0.785
59.14000 -2.215
59.16000 1.876
59.18000 -2.321
59.20000 -1.536
59.22000 -0.261
59.24000 0.494
59.26000 3.210
59.28000 3.296
59.30000 7.432
59.32000 8.360
59.34000 7.077
59.36000 6.974
59.38000 5.110
59.40000 4.589
59.42000 4.082
59.44000 3.087
59.46000 2.203
59.48000 -2.408
59.50000 2.093
59.52000 6.050
59.54000 4.449
59.56000 2.909
59.58000 5.099
59.60000 2.917
59.62000 2.024
59.64000 1.370
59.66000 2.415
59.68000 1.399
59.70000 -1.019
59.72000 0.700
59.74000 0.536
59.76000 2.683
59.78000 3.575
59.80000 3.808
59.82000 1.901
59.84000 0.682
59.86000 0.965
59.88000 -0.699
59.90000 2.764
59.92000 2.475
59.94000 1.121
59.96000 2.659
59.98000 -2.128
60.00000 -1.590
60.02000 0.101
60.04000 -0.608
60.06000 0.933
60.08000 3.986
60.10000 2.088
60.12000 0.023
60.14000 -2.168
60.16000 -1.611
60.18000 4.452
60.20000 4.325
60.22000 1.307
60.24000 -2.215
60.26000 -0.615
60.28000 0.316
60.30000 1.546
60.32000 0.358
60.34000 0.187
60.36000 1.779
60.38000 -0.657
60.40000 -0.056
60.42000 -1.400
60.44000 -2.152
60.46000 -2.431
60.48000 -1.117
60.50000 3.041
60.52000 3.957
60.54000 4.991
60.56000 3.172
60.58000 1.453
60.60000 2.304
60.62000 0.960
60.64000 0.416
60.66000 -1.991
60.68000 -1.801
60.70000 0.352
60.72000 -0.365
60.74000 0.675
60.76000 -0.730
60.78000 -1.275
60.80000 0.356
60.82000 0.544
60.84000 1.318
60.86000 0.507
60.88000 3.506
60.90000 3.029
60.92000 -1.006
60.94000 -1.280
60.96000 -2.418
60.98000 0.452
61.00000 0.341
61.02000 -0.639
61.04000 -1.350
61.06000 -1.437
61.08000 0.306
61.10000 3.586
61.12000 1.736
61.14000 -1.056
61.16000 -1.114
61.18000 -1.591
61.20000 1.420
61.22000 2.910
61.24000 1.413
61.26000 0.232
61.28000 1.258
61.30000 1.413
61.32000 3.618
61.34000 0.837
61.36000 3.583
61.38000 4.100
61.40000 3.620
61.42000 3.299
61.44000 5.138
61.46000 4.201
61.48000 6.689
61.50000 4.959
61.52000 1.989
61.54000 1.555
61.56000 0.760
61.58000 2.204
61.60000 2.490
61.62000 2.595
61.64000 -0.335
61.66000 -2.384
61.68000 0.637
61.70000 -0.242
61.72000 1.220
61.74000 4.379
61.76000 4.328
61.78000 -0.248
61.80000 3.289
61.82000 3.304
61.84000 2.496
61.86000 2.689
61.88000 4.452
61.90000 0.893
61.92000 1.985
61.94000 0.312
61.96000 1.540
61.98000 3.232
62.00000 2.311
62.02000 -1.369
62.04000 -1.202
62.06000 3.287
62.08000 -0.298
62.10000 0.354
62.12000 0.700
62.14000 -1.378
62.16000 1.041
62.18000 -0.335
62.20000 0.322
62.22000 2.698
62.24000 3.674
62.26000 1.090
62.28000 4.506
62.30000 3.950
62.32000 0.793
62.34000 4.872
62.36000 2.173
62.38000 4.091
62.40000 3.102
62.42000 3.446
62.44000 0.768
62.46000 -0.412
62.48000 -1.726
62.50000 0.583
62.52000 0.298
62.54000 0.414
62.56000 3.974
62.58000 5.024
62.60000 1.896
62.62000 -1.670
62.64000 -0.466
62.66000 2.595
62.68000 3.307
62.70000 3.610
62.72000 7.243
62.74000 2.508
62.76000 2.492
62.78000 4.336
62.80000 2.413
62.82000 1.379
62.84000 0.633
62.86000 2.357
62.88000 5.316
62.90000 3.311
62.92000 2.945
62.94000 2.965
62.96000 1.867
62.98000 1.810
63.00000 4.007
63.02000 3.751
63.04000 -2.353
63.06000 -0.861
63.08000 2.050
63.10000 0.098
63.12000 0.187
63.14000 1.486
63.16000 3.526
63.18000 3.884
63.20000 1.375
63.22000 1.890
63.24000 1.967
63.26000 4.218
63.28000 5.512
63.30000 3.303
63.32000 4.690
63.34000 1.265
63.36000 0.696
63.38000 1.810
63.40000 3.211
63.42000 -0.087
63.44000 0.042
63.46000 2.350
63.48000 1.067
63.50000 -0.093
63.52000 2.793
63.54000 1.417
63.56000 1.411
63.58000 -2.355
63.60000 0.837
63.62000 6.669
63.64000 2.309
63.66000 4.242
63.68000 2.067
63.70000 0.720
63.72000 3.621
63.74000 1.519
63.76000 -0.378
63.78000 1.938
63.80000 4.363
63.82000 5.027
63.84000 3.293
63.86000 2.211
63.88000 5.705
63.90000 6.559
63.92000 6.049
63.94000 2.296
63.96000 2.740
63.98000 0.713
64.00000 0.939
64.02000 1.768
64.04000 0.847
64.06000 1.014
64.08000 2.682
64.10000 4.338
64.12000 2.415
64.14000 3.236
64.16000 3.254
64.18000 3.692
64.20000 0.914
64.22000 -0.884
64.24000 -2.369
64.26000 0.798
64.28000 3.045
64.30000 4.252
64.32000 5.146
64.34000 0.247
64.36000 -2.375
64.38000 -0.631
64.40000 1.800
64.42000 0.144
64.44000 1.896
64.46000 0.112
64.48000 -1.417
64.50000 -0.698
64.52000 1.931
64.54000 0.075
64.56000 2.086
64.58000 -0.609
64.60000 2.268
64.62000 0.635
64.64000 3.707
64.66000 4.380
64.68000 2.151
64.70000 1.622
64.72000 -2.313
64.74000 1.940
64.76000 1.227
64.78000 -1.070
64.80000 0.817
64.82000 1.690
64.84000 0.496
64.86000 2.473
64.88000 0.237
64.90000 3.130
64.92000 4.439
64.94000 0.729
64.96000 4.298
64.98000 5.979
65.00000 4.146
65.02000 2.997
65.04000 4.208
65.06000 3.539
65.08000 1.382
65.10000 0.229
65.12000 -0.039
65.14000 1.793
65.16000 0.453
65.18000 2.550
65.20000 2.265
65.22000 2.128
65.24000 0.876
65.26000 1.553
65.28000 2.226
65.30000 1.441
65.32000 -2.402
65.34000 3.719
65.36000 3.318
65.38000 3.063
65.40000 1.678
65.42000 2.866
65.44000 1.835
65.46000 -0.028
65.48000 -1.473
65.50000 -1.473
65.52000 2.302
65.54000 4.659
65.56000 2.745
65.58000 -0.619
65.60000 0.581
65.62000 0.642
65.64000 2.914
65.66000 4.389
65.68000 2.165
65.70000 2.294
65.72000 1.219
65.74000 -0.523
65.76000 3.314
65.78000 3.445
65.80000 2.910
65.82000 0.650
65.84000 1.126
65.86000 1.012
65.88000 0.927
65.90000 -2.445
65.92000 0.960
65.94000 -0.212
65.96000 -0.050
65.98000 0.264
66.00000 -0.774
66.02000 1.550
66.04000 2.181
66.06000 -1.069
66.08000 3.082
66.10000 3.100
66.12000 -0.268
66.14000 -0.693
66.16000 -0.013
66.18000 -1.873
66.20000 -1.950
66.22000 -2.287
66.24000 -1.676
66.26000 -2.077
66.28000 2.296
66.30000 1.040
66.32000 0.703
66.34000 1.764
66.36000 -1.974
66.38000 2.008
66.40000 0.897
66.42000 1.204
66.44000 1.041
66.46000 1.779
66.48000 0.344
66.50000 0.108
66.52000 2.590
66.54000 2.544
66.56000 4.762
66.58000 0.860
66.60000 -0.902
66.62000 -1.065
66.64000 0.439
66.66000 3.415
66.68000 2.547
66.70000 2.380
66.72000 0.507
66.74000 2.099
66.76000 -0.969
66.78000 0.127
66.80000 -0.145
66.82000 -1.178
66.84000 0.548
66.86000 0.207
66.88000 -0.329
66.90000 -1.518
66.92000 1.097
66.94000 3.635
66.96000 1.951
66.98000 -0.533
67.00000 1.266
67.02000 0.050
67.04000 2.713
67.06000 5.194
67.08000 4.692
67.10000 3.468
67.12000 6.757
67.14000 6.408
67.16000 6.563
67.18000 8.478
67.20000 7.152
67.22000 2.861
67.24000 4.643
67.26000 7.107
67.28000 6.166
67.30000 7.874
67.32000 5.924
67.34000 10.116
67.36000 12.325
67.38000 10.217
67.40000 10.843
67.42000 10.668
67.44000 9.521
67.46000 12.468
67.48000 14.895
67.50000 12.654
67.52000 10.073
67.54000 9.705
67.56000 12.066
67.58000 9.852
67.60000 9.692
67.62000 13.431
67.64000 12.960
67.66000 13.373
67.68000 14.328
67.70000 18.115
67.72000 16.298
67.74000 13.626
67.76000 13.253
67.78000 14.299
67.80000 21.051
67.82000 22.257
67.84000 23.076
67.86000 20.983
67.88000 23.300
67.90000 22.125
67.92000 17.351
67.94000 20.845
67.96000 22.786
67.98000 22.077
68.00000 22.119
68.02000 21.074
68.04000 22.284
68.06000 24.307
68.08000 24.341
68.10000 22.898
68.12000 22.605
68.14000 20.449
68.16000 27.095
68.18000 28.272
68.20000 27.654
68.22000 23.473
68.24000 25.002
68.26000 28.568
68.28000 28.772
68.30000 26.998
68.32000 30.096
68.34000 31.509
68.36000 26.100
68.38000 25.562
68.40000 23.973
68.42000 22.944
68.44000 26.298
68.46000 24.487
68.48000 27.856
68.50000 27.670
68.52000 28.137
68.54000 27.392
68.56000 22.750
68.58000 21.968
68.60000 22.072
68.62000 22.264
68.64000 18.598
68.66000 15.568
68.68000 16.678
68.70000 20.771
68.72000 22.678
68.74000 19.777
68.76000 21.363
68.78000 20.799
68.80000 18.705
68.82000 15.443
68.84000 13.163
68.86000 13.146
68.88000 12.668
68.90000 14.823
68.92000 16.209
68.94000 12.776
68.96000 14.045
68.98000 12.184
69.00000 13.562
69.02000 11.729
69.04000 9.465
69.06000 5.941
69.08000 6.603
69.10000 5.249
69.12000 6.029
69.14000 8.280
69.16000 8.303
69.18000 3.519
69.20000 3.818
69.22000 6.353
69.24000 5.168
69.26000 5.758
69.28000 7.481
69.30000 1.940
69.32000 1.406
69.34000 3.265
69.36000 4.467
69.38000 6.211
69.40000 8.981
69.42000 6.032
69.44000 2.236
69.46000 1.440
69.48000 -0.252
69.50000 0.896
69.52000 3.251
69.54000 6.242
69.56000 3.659
69.58000 2.252
69.60000 5.616
69.62000 3.109
69.64000 -1.656
69.66000 -2.053
69.68000 1.549
69.70000 -0.118
69.72000 -2.064
69.74000 -1.083
69.76000 -1.414
69.78000 2.893
69.80000 0.303
69.82000 1.991
69.84000 1.602
69.86000 -0.019
69.88000 2.355
69.90000 2.155
69.92000 3.123
69.94000 4.209
69.96000 1.009
69.98000 -0.965
70.00000 -0.025
70.02000 -2.228
70.04000 -2.334
70.06000 -0.281
70.08000 2.230
70.10000 6.295
70.12000 4.212
70.14000 1.059
70.16000 -1.566
70.18000 2.710
70.20000 1.894
70.22000 1.660
70.24000 2.209
70.26000 2.418
70.28000 1.166
70.30000 1.667
70.32000 2.897
70.34000 1.219
70.36000 -0.312
70.38000 1.417
70.40000 0.040
70.42000 3.969
70.44000 4.270
70.46000 1.333
70.48000 0.648
70.50000 0.186
70.52000 2.835
70.54000 2.347
70.56000 1.352
70.58000 4.728
70.60000 8.359
70.62000 6.732
70.64000 6.050
70.66000 1.840
70.68000 2.023
70.70000 3.761
70.72000 4.436
70.74000 0.445
70.76000 0.540
70.78000 1.439
70.80000 5.022
70.82000 4.062
70.84000 4.455
70.86000 2.722
70.88000 0.770
70.90000 -2.260
70.92000 0.170
70.94000 1.435
70.96000 1.717
70.98000 1.842
71.00000 1.670
71.02000 0.866
71.04000 2.438
71.06000 3.239
71.08000 -0.158
71.10000 2.415
71.12000 6.790
71.14000 3.936
71.16000 0.219
71.18000 1.333
71.20000 1.297
71.22000 2.823
71.24000 1.349
71.26000 -1.626
71.28000 -2.253
71.30000 2.413
71.32000 3.888
71.34000 4.127
71.36000 4.153
71.38000 2.175
71.40000 2.089
71.42000 0.289
71.44000 0.027
71.46000 3.654
71.48000 4.734
71.50000 4.774
71.52000 2.807
71.54000 1.767
71.56000 1.889
71.58000 -0.152
71.60000 0.179
71.62000 -0.190
71.64000 4.395
71.66000 3.243
71.68000 2.549
71.70000 2.264
71.72000 1.969
71.74000 0.878
71.76000 -0.292
71.78000 -0.833
71.80000 -0.617
71.82000 1.774
71.84000 5.042
71.86000 4.023
71.88000 0.330
71.90000 -0.593
71.92000 2.036
71.94000 -2.240
71.96000 0.891
71.98000 4.314
72.00000 3.331
72.02000 2.518
72.04000 4.285
72.06000 1.832
72.08000 3.583
72.10000 0.517
72.12000 2.534
72.14000 4.715
72.16000 2.430
72.18000 3.028
72.20000 2.608
72.22000 5.162
72.24000 3.220
72.26000 0.160
72.28000 0.863
72.30000 4.112
72.32000 5.927
72.34000 4.661
72.36000 4.988
72.38000 3.454
72.40000 3.323
72.42000 5.489
72.44000 5.438
72.46000 3.490
72.48000 -2.211
72.50000 -1.039
72.52000 -1.358
72.54000 0.155
72.56000 -0.338
72.58000 -0.532
72.60000 0.785
72.62000 1.752
72.64000 2.670
72.66000 4.979
72.68000 4.397
72.70000 6.346
72.72000 7.713
72.74000 3.686
72.76000 0.656
72.78000 -0.954
72.80000 1.157
72.82000 2.038
72.84000 0.677
72.86000 0.547
72.88000 3.827
72.90000 2.291
72.92000 2.654
72.94000 5.233
72.96000 4.830
72.98000 3.308
73.00000 3.512
73.02000 4.789
73.04000 3.726
73.06000 2.909
73.08000 1.391
73.10000 -2.199
73.12000 0.931
73.14000 -0.565
73.16000 0.742
73.18000 0.520
73.20000 4.043
73.22000 1.035
73.24000 0.961
73.26000 5.228
73.28000 4.641
73.30000 1.571
73.32000 -2.160
73.34000 0.353
73.36000 1.922
73.38000 1.086
73.40000 3.564
73.42000 5.618
73.44000 6.371
73.46000 2.130
73.48000 -0.216
73.50000 0.485
73.52000 1.552
73.54000 0.188
73.56000 3.045
73.58000 2.347
73.60000 1.004
73.62000 3.796
73.64000 1.693
73.66000 2.536
73.68000 3.449
73.70000 3.589
73.72000 3.763
73.74000 2.411
73.76000 4.729
73.78000 10.058
73.80000 8.241
73.82000 9.178
73.84000 5.925
73.86000 2.719
73.88000 1.232
73.90000 2.477
73.92000 2.918
73.94000 4.201
73.96000 3.992
73.98000 3.686
74.00000 3.366
74.02000 -0.791
74.04000 -2.170
74.06000 -1.705
74.08000 1.943
74.10000 4.424
74.12000 2.230
74.14000 3.321
74.16000 3.027
74.18000 1.565
74.20000 2.765
74.22000 5.498
74.24000 5.539
74.26000 2.219
74.28000 3.155
74.30000 7.579
74.32000 4.240
74.34000 4.591
74.36000 4.793
74.38000 0.165
74.40000 0.386
74.42000 3.699
74.44000 5.246
74.46000 3.774
74.48000 2.792
74.50000 4.911
74.52000 2.599
74.54000 2.221
74.56000 3.632
74.58000 4.002
74.60000 3.776
74.62000 4.652
74.64000 2.159
74.66000 -2.172
74.68000 -0.984
74.70000 2.053
74.72000 0.845
74.74000 1.713
74.76000 0.187
74.78000 3.294
74.80000 2.476
74.82000 -1.037
74.84000 1.007
74.86000 1.151
74.88000 2.382
74.90000 2.928
74.92000 1.349
74.94000 3.402
74.96000 4.262
74.98000 3.615
75.00000 2.806
75.02000 4.169
75.04000 3.539
75.06000 1.545
75.08000 3.159
75.10000 -1.254
75.12000 3.699
75.14000 7.013
75.16000 5.667
75.18000 2.796
75.20000 1.852
75.22000 1.175
75.24000 2.990
75.26000 2.088
75.28000 -0.086
75.30000 3.605
75.32000 2.044
75.34000 0.344
75.36000 -0.945
75.38000 1.369
75.40000 4.425
75.42000 2.047
75.44000 0.871
75.46000 -2.188
75.48000 1.812
75.50000 6.593
75.52000 4.114
75.54000 3.956
75.56000 -0.062
75.58000 0.162
75.60000 4.009
75.62000 1.569
75.64000 2.222
75.66000 2.841
75.68000 1.808
75.70000 0.349
75.72000 1.592
75.74000 3.819
75.76000 3.113
75.78000 4.121
75.80000 0.480
75.82000 4.387
75.84000 4.444
75.86000 1.486
75.88000 -2.203
75.90000 -1.202
75.92000 1.708
75.94000 0.438
75.96000 0.266
75.98000 2.914
76.00000 0.888
76.02000 0.975
76.04000 2.583
76.06000 2.833
76.08000 1.563
76.10000 -1.956
76.12000 0.765
76.14000 2.472
76.16000 1.853
76.18000 -0.152
76.20000 1.901
76.22000 0.663
76.24000 -0.105
76.26000 2.252
76.28000 5.172
76.30000 4.608
76.32000 4.989
76.34000 1.994
76.36000 1.620
76.38000 1.720
76.40000 1.017
76.42000 3.878
76.44000 2.556
76.46000 0.823
76.48000 3.631
76.50000 6.628
76.52000 2.087
76.54000 2.537
76.56000 3.321
76.58000 1.761
76.60000 2.804
76.62000 2.335
76.64000 2.990
76.66000 1.850
76.68000 1.743
76.70000 0.983
76.72000 0.124
76.74000 0.643
76.76000 0.671
76.78000 3.302
76.80000 -0.769
76.82000 -0.487
76.84000 5.122
76.86000 1.938
76.88000 -2.224
76.90000 1.797
76.92000 0.280
76.94000 0.692
76.96000 7.889
76.98000 6.576
77.00000 6.398
77.02000 2.155
77.04000 2.589
77.06000 3.559
77.08000 4.180
77.10000 3.940
77.12000 5.379
77.14000 0.521
77.16000 1.204
77.18000 4.510
77.20000 0.819
77.22000 4.190
77.24000 5.746
77.26000 1.659
77.28000 0.533
77.30000 4.169
77.32000 -0.561
77.34000 0.613
77.36000 -2.208
77.38000 -0.697
77.40000 4.440
77.42000 3.159
77.44000 6.233
77.46000 10.021
77.48000 5.108
77.50000 5.832
77.52000 3.028
77.54000 -1.181
77.56000 0.913
77.58000 -0.621
77.60000 -1.521
77.62000 2.291
77.64000 2.210
77.66000 1.689
77.68000 4.989
77.70000 3.325
77.72000 5.278
77.74000 5.610
77.76000 4.376
77.78000 2.622
77.80000 2.355
77.82000 -1.791
77.84000 1.341
77.86000 4.495
77.88000 3.129
77.90000 3.318
77.92000 3.363
77.94000 2.262
77.96000 3.075
77.98000 3.062
78.00000 2.282
78.02000 2.358
78.04000 3.057
78.06000 5.499
78.08000 2.019
78.10000 5.680
78.12000 2.580
78.14000 2.455
78.16000 0.734
78.18000 5.653
78.20000 8.742
78.22000 2.316
78.24000 0.023
78.26000 3.177
78.28000 2.100
78.30000 0.592
78.32000 1.502
78.34000 6.209
78.36000 3.868
78.38000 4.076
78.40000 7.169
78.42000 2.540
78.44000 -0.784
78.46000 1.678
78.48000 0.925
78.50000 -0.557
78.52000 0.820
78.54000 3.654
78.56000 3.001
78.58000 0.820
78.60000 -2.234
78.62000 0.309
78.64000 5.470
78.66000 4.086
78.68000 3.300
78.70000 4.196
78.72000 3.622
78.74000 6.157
78.76000 4.378
78.78000 4.797
78.80000 7.247
78.82000 5.110
78.84000 4.540
78.86000 3.587
78.88000 2.795
78.90000 2.630
78.92000 -0.186
78.94000 -2.220
78.96000 0.597
78.98000 3.267
79.00000 1.147
79.02000 3.337
79.04000 2.605
79.06000 6.536
79.08000 9.799
79.10000 7.811
79.12000 4.111
79.14000 2.472
79.16000 4.507
79.18000 4.938
79.20000 5.499
79.22000 6.076
79.24000 6.408
79.26000 4.724
79.28000 2.135
79.30000 1.458
79.32000 -0.563
79.34000 1.452
79.36000 6.505
79.38000 7.633
79.40000 4.372
79.42000 6.507
79.44000 6.270
79.46000 -0.173
79.48000 0.814
79.50000 0.951
79.52000 2.515
79.54000 4.897
79.56000 6.457
79.58000 4.864
79.60000 0.341
79.62000 3.790
79.64000 2.720
79.66000 1.372
79.68000 1.133
79.70000 0.761
79.72000 1.864
79.74000 2.736
79.76000 -0.469
79.78000 2.672
79.80000 5.403
79.82000 6.671
79.84000 4.203
79.86000 3.287
79.88000 6.197
79.90000 4.037
79.92000 4.161
79.94000 0.371
79.96000 2.464
79.98000 2.549
80.00000 4.813
80.02000 5.693
80.04000 1.933
80.06000 1.145
80.08000 2.289
80.10000 -1.914
80.12000 1.401
80.14000 3.123
80.16000 4.214
80.18000 3.640
80.20000 -1.495
80.22000 -2.343
80.24000 1.935
80.26000 4.546
80.28000 2.906
80.30000 2.898
80.32000 2.487
80.34000 6.574
80.36000 6.548
80.38000 4.290
80.40000 3.715
80.42000 6.760
80.44000 7.282
80.46000 6.669
80.48000 4.934
80.50000 8.752
80.52000 5.328
80.54000 -1.177
80.56000 2.842
80.58000 2.208
80.60000 1.355
80.62000 2.345
80.64000 -1.677
80.66000 -0.564
80.68000 -1.749
80.70000 1.916
80.72000 5.071
80.74000 1.345
80.76000 7.581
80.78000 9.711
80.80000 6.891
80.82000 7.581
80.84000 8.515
80.86000 9.752
80.88000 9.491
80.90000 6.337
80.92000 5.529
80.94000 2.711
80.96000 5.279
80.98000 10.213
81.00000 8.699
81.02000 6.970
81.04000 9.623
81.06000 8.700
81.08000 10.003
81.10000 9.474
81.12000 9.857
81.14000 11.168
81.16000 13.322
81.18000 12.686
81.20000 12.457
81.22000 8.644
81.24000 7.817
81.26000 6.317
81.28000 9.753
81.30000 10.288
81.32000 12.429
81.34000 12.617
81.36000 12.294
81.38000 14.454
81.40000 11.760
81.42000 14.896
81.44000 15.555
81.46000 14.888
81.48000 13.610
81.50000 14.059
81.52000 17.934
81.54000 17.647
81.56000 19.662
81.58000 18.631
81.60000 19.232
81.62000 18.387
81.64000 18.139
81.66000 18.230
81.68000 20.093
81.70000 24.258
81.72000 25.313
81.74000 21.909
81.76000 22.160
81.78000 21.819
81.80000 22.615
81.82000 24.580
81.84000 22.014
81.86000 25.534
81.88000 28.980
81.90000 26.283
81.92000 24.056
81.94000 25.556
81.96000 27.656
81.98000 27.588
82.00000 32.260
82.02000 31.480
82.04000 29.708
82.06000 30.081
82.08000 28.844
82.10000 27.021
82.12000 25.922
82.14000 28.442
82.16000 34.105
82.18000 31.232
82.20000 29.447
82.22000 30.441
82.24000 32.335
82.26000 34.059
82.28000 38.881
82.30000 40.031
82.32000 42.871
82.34000 38.481
82.36000 35.309
82.38000 37.207
82.40000 35.067
82.42000 37.352
82.44000 35.773
82.46000 31.742
82.48000 30.963
82.50000 28.674
82.52000 34.599
82.54000 32.856
82.56000 35.360
82.58000 35.788
82.60000 31.760
82.62000 38.475
82.64000 33.905
82.66000 33.086
82.68000 32.238
82.70000 30.947
82.72000 24.964
82.74000 26.040
82.76000 29.449
82.78000 30.384
82.80000 28.895
82.82000 24.517
82.84000 23.390
82.86000 29.398
82.88000 26.226
82.90000 19.476
82.92000 20.514
82.94000 22.029
82.96000 22.445
82.98000 22.751
83.00000 17.249
83.02000 18.279
83.04000 19.212
83.06000 12.305
83.08000 15.106
83.10000 16.629
83.12000 16.205
83.14000 20.023
83.16000 11.708
83.18000 12.881
83.20000 12.837
83.22000 13.658
83.24000 13.311
83.26000 14.333
83.28000 11.554
83.30000 12.654
83.32000 10.877
83.34000 8.493
83.36000 6.950
83.38000 7.692
83.40000 12.058
83.42000 13.833
83.44000 11.429
83.46000 11.222
83.48000 10.501
83.50000 6.069
83.52000 3.281
83.54000 5.310
83.56000 11.370
83.58000 5.464
83.60000 6.633
83.62000 7.408
83.64000 5.238
83.66000 8.257
83.68000 10.351
83.70000 5.186
83.72000 5.927
83.74000 3.579
83.76000 5.260
83.78000 2.268
83.80000 0.264
83.82000 1.059
83.84000 5.815
83.86000 4.455
83.88000 -2.126
83.90000 -2.405
83.92000 -0.758
83.94000 -0.873
83.96000 3.745
83.98000 2.533
84.00000 3.292
84.02000 1.159
84.04000 -1.011
84.06000 0.842
84.08000 3.268
84.10000 2.113
84.12000 1.945
84.14000 2.631
84.16000 3.780
84.18000 4.207
84.20000 1.498
84.22000 0.277
84.24000 -1.226
84.26000 1.503
84.28000 5.643
84.30000 1.995
84.32000 0.843
84.34000 0.864
84.36000 0.265
84.38000 2.151
84.40000 4.503
84.42000 2.541
84.44000 -1.066
84.46000 1.336
84.48000 4.923
84.50000 2.086
84.52000 3.043
84.54000 5.383
84.56000 2.423
84.58000 1.162
84.60000 -0.581
84.62000 0.933
84.64000 3.298
84.66000 3.114
84.68000 -2.318
84.70000 -1.530
84.72000 0.769
84.74000 3.740
84.76000 2.336
84.78000 0.269
84.80000 2.554
84.82000 5.300
84.84000 4.917
84.86000 3.485
84.88000 3.891
84.90000 0.854
84.92000 2.892
84.94000 4.494
84.96000 0.807
84.98000 -0.114
85.00000 0.680
85.02000 1.181
85.04000 1.640
85.06000 -1.963
85.08000 0.412
85.10000 5.108
85.12000 4.370
85.14000 2.049
85.16000 0.920
85.18000 2.121
85.20000 -0.335
85.22000 2.029
85.24000 0.707
85.26000 0.331
85.28000 -0.934
85.30000 -0.014
85.32000 2.598
85.34000 3.407
85.36000 3.910
85.38000 6.061
85.40000 2.212
85.42000 7.995
85.44000 2.675
85.46000 1.154
85.48000 5.372
85.50000 3.235
85.52000 3.844
85.54000 2.195
85.56000 5.468
85.58000 3.475
85.60000 6.223
85.62000 8.998
85.64000 10.034
85.66000 11.169
85.68000 9.900
85.70000 9.115
85.72000 6.935
85.74000 8.239
85.76000 8.850
85.78000 4.456
85.80000 4.756
85.82000 7.124
85.84000 9.144
85.86000 8.819
85.88000 10.241
85.90000 11.951
85.92000 11.456
85.94000 12.096
85.96000 12.361
85.98000 10.670
86.00000 11.771
86.02000 14.581
86.04000 14.510
86.06000 13.250
86.08000 16.081
86.10000 14.044
86.12000 13.369
86.14000 12.818
86.16000 15.408
86.18000 18.969
86.20000 18.132
86.22000 20.209
86.24000 16.570
86.26000 16.877
86.28000 17.009
86.30000 17.376
86.32000 23.958
86.34000 24.974
86.36000 23.161
86.38000 23.867
86.40000 32.166
86.42000 29.618
86.44000 24.971
86.46000 25.514
86.48000 27.764
86.50000 28.174
86.52000 24.789
86.54000 18.909
86.56000 24.106
86.58000 24.728
86.60000 26.041
86.62000 24.053
86.64000 19.063
86.66000 23.483
86.68000 21.271
86.70000 23.725
86.72000 23.307
86.74000 21.977
86.76000 18.772
86.78000 22.366
86.80000 21.374
86.82000 18.644
86.84000 16.511
86.86000 19.515
86.88000 24.555
86.90000 25.818
86.92000 18.686
86.94000 17.876
86.96000 19.082
86.98000 18.490
87.00000 15.653
87.02000 16.829
87.04000 14.305
87.06000 16.091
87.08000 17.478
87.10000 15.930
87.12000 22.689
87.14000 21.938
87.16000 18.172
87.18000 16.013
87.20000 14.304
87.22000 16.348
87.24000 14.470
87.26000 9.035
87.28000 7.693
87.30000 8.708
87.32000 6.777
87.34000 9.695
87.36000 9.444
87.38000 8.468
87.40000 6.624
87.42000 9.628
87.44000 8.090
87.46000 11.432
87.48000 8.432
87.50000 9.158
87.52000 4.649
87.54000 7.036
87.56000 8.776
87.58000 8.646
87.60000 7.436
87.62000 6.037
87.64000 2.159
87.66000 6.363
87.68000 7.428
87.70000 8.782
87.72000 7.474
87.74000 6.705
87.76000 3.860
87.78000 4.215
87.80000 8.832
87.82000 9.585
87.84000 7.184
87.86000 3.128
87.88000 3.311
87.90000 -0.134
87.92000 2.146
87.94000 4.564
87.96000 2.275
87.98000 3.837
88.00000 4.612
88.02000 2.516
88.04000 1.906
88.06000 1.772
88.08000 5.606
88.10000 3.634
88.12000 9.033
88.14000 2.790
88.16000 1.268
88.18000 0.765
88.20000 -2.144
88.22000 4.422
88.24000 4.322
88.26000 5.565
88.28000 4.362
88.30000 2.470
88.32000 3.938
88.34000 1.739
88.36000 4.361
88.38000 5.600
88.40000 10.559
88.42000 7.388
88.44000 3.138
88.46000 3.450
88.48000 3.222
88.50000 2.497
88.52000 0.704
88.54000 2.264
88.56000 2.742
88.58000 5.127
88.60000 4.626
88.62000 2.233
88.64000 2.471
88.66000 0.608
88.68000 -0.295
88.70000 1.054
88.72000 0.381
88.74000 -1.901
88.76000 -1.123
88.78000 3.073
88.80000 3.352
88.82000 3.695
88.84000 3.039
88.86000 5.907
88.88000 2.216
88.90000 2.527
88.92000 2.288
88.94000 3.687
88.96000 2.779
88.98000 5.415
89.00000 3.610
89.02000 3.259
89.04000 0.021
89.06000 2.012
89.08000 4.489
89.10000 1.961
89.12000 2.806
89.14000 1.839
89.16000 4.901
89.18000 2.686
89.20000 2.982
89.22000 1.132
89.24000 -0.435
89.26000 1.949
89.28000 3.790
89.30000 4.403
89.32000 1.832
89.34000 4.167
89.36000 0.153
89.38000 -2.088
89.40000 1.296
89.42000 4.462
89.44000 2.650
89.46000 6.358
89.48000 3.856
89.50000 -0.369
89.52000 0.341
89.54000 1.552
89.56000 3.389
89.58000 -0.721
89.60000 -0.870
89.62000 5.396
89.64000 1.936
89.66000 0.177
89.68000 4.591
89.70000 6.378
89.72000 2.635
89.74000 0.785
89.76000 3.641
89.78000 5.123
89.80000 0.912
89.82000 2.662
89.84000 2.462
89.86000 0.457
89.88000 2.322
89.90000 2.033
89.92000 2.271
89.94000 1.330
89.96000 4.036
89.98000 5.592
90.00000 4.103
90.02000 1.707
90.04000 -0.818
90.06000 1.452
90.08000 -0.067
90.10000 1.190
90.12000 4.818
90.14000 1.910
90.16000 1.874
90.18000 -1.772
90.20000 3.351
90.22000 1.022
90.24000 1.937
90.26000 3.175
90.28000 4.703
90.30000 5.281
90.32000 3.347
90.34000 6.060
90.36000 5.413
90.38000 1.915
90.40000 7.425
90.42000 6.616
90.44000 3.301
90.46000 0.654
90.48000 -2.045
90.50000 -1.191
90.52000 2.656
90.54000 3.423
90.56000 3.427
90.58000 2.100
90.60000 6.007
90.62000 6.089
90.64000 5.351
90.66000 7.454
90.68000 6.136
90.70000 6.447
90.72000 7.950
90.74000 6.828
90.76000 2.808
90.78000 3.685
90.80000 1.500
90.82000 2.075
90.84000 0.128
90.86000 1.841
90.88000 4.024
90.90000 6.168
90.92000 6.985
90.94000 9.014
90.96000 8.887
90.98000 6.073
91.00000 5.036
91.02000 4.681
91.04000 4.413
91.06000 8.564
91.08000 7.474
91.10000 4.499
91.12000 3.247
91.14000 6.439
91.16000 3.569
91.18000 2.167
91.20000 -2.014
91.22000 1.359
91.24000 3.011
91.26000 0.177
91.28000 -2.010
91.30000 6.608
91.32000 8.879
91.34000 3.660
91.36000 1.950
91.38000 9.844
91.40000 12.061
91.42000 6.894
91.44000 4.928
91.46000 3.845
91.48000 5.622
91.50000 4.869
91.52000 4.365
91.54000 6.459
91.56000 4.539
91.58000 2.754
91.60000 2.089
91.62000 3.279
91.64000 3.046
91.66000 6.638
91.68000 10.335
91.70000 2.368
91.72000 -0.553
91.74000 2.384
91.76000 8.369
91.78000 5.776
91.80000 4.432
91.82000 4.827
91.84000 6.888
91.86000 6.867
91.88000 4.814
91.90000 2.282
91.92000 7.306
91.94000 9.400
91.96000 3.738
91.98000 1.381
92.00000 3.493
92.02000 5.673
92.04000 6.083
92.06000 6.675
92.08000 2.430
92.10000 6.264
92.12000 0.858
92.14000 2.197
92.16000 7.362
92.18000 4.002
92.20000 1.209
92.22000 5.496
92.24000 3.893
92.26000 2.892
92.28000 1.334
92.30000 6.048
92.32000 6.802
92.34000 5.564
92.36000 6.042
92.38000 4.834
92.40000 4.236
92.42000 6.439
92.44000 7.527
92.46000 7.006
92.48000 3.775
92.50000 4.566
92.52000 2.848
92.54000 2.071
92.56000 3.363
92.58000 6.475
92.60000 2.235
92.62000 1.780
92.64000 4.747
92.66000 7.698
92.68000 4.451
92.70000 1.988
92.72000 1.691
92.74000 7.080
92.76000 9.393
92.78000 9.881
92.80000 5.508
92.82000 4.799
92.84000 5.156
92.86000 4.344
92.88000 6.565
92.90000 7.325
92.92000 7.656
92.94000 5.138
92.96000 5.736
92.98000 4.974
93.00000 1.180
93.02000 -1.985
93.04000 6.843
93.06000 6.110
93.08000 5.882
93.10000 6.697
93.12000 7.045
93.14000 6.493
93.16000 4.832
93.18000 2.090
93.20000 1.975
93.22000 6.243
93.24000 4.978
93.26000 4.900
93.28000 4.835
93.30000 6.808
93.32000 5.088
93.34000 0.892
93.36000 1.701
93.38000 2.052
93.40000 0.915
93.42000 6.030
93.44000 5.439
93.46000 6.505
93.48000 6.468
93.50000 8.150
93.52000 2.421
93.54000 5.075
93.56000 9.404
93.58000 6.118
93.60000 5.920
93.62000 8.919
93.64000 7.975
93.66000 2.483
93.68000 5.834
93.70000 3.741
93.72000 3.911
93.74000 4.243
93.76000 4.382
93.78000 4.013
93.80000 8.012
93.82000 14.895
93.84000 9.614
93.86000 10.220
93.88000 8.199
93.90000 8.443
93.92000 10.491
93.94000 7.026
93.96000 4.042
93.98000 2.811
94.00000 7.117
94.02000 7.176
94.04000 3.504
94.06000 2.242
94.08000 5.417
94.10000 1.239
94.12000 -2.046
94.14000 0.616
94.16000 5.328
94.18000 6.744
94.20000 1.210
94.22000 1.508
94.24000 3.046
94.26000 5.231
94.28000 4.889
94.30000 5.456
94.32000 2.666
94.34000 5.094
94.36000 7.936
94.38000 9.251
94.40000 5.501
94.42000 2.763
94.44000 3.876
94.46000 1.052
94.48000 0.484
94.50000 5.185
94.52000 2.107
94.54000 0.891
94.56000 -0.339
94.58000 -0.925
94.60000 2.087
94.62000 4.332
94.64000 5.827
94.66000 6.282
94.68000 3.598
94.70000 4.704
94.72000 6.317
94.74000 3.445
94.76000 6.942
94.78000 9.560
94.80000 9.295
94.82000 7.089
94.84000 3.991
94.86000 1.341
94.88000 1.195
94.90000 1.203
94.92000 1.738
94.94000 -0.085
94.96000 0.829
94.98000 2.748
95.00000 3.758
95.02000 5.832
95.04000 5.633
95.06000 3.822
95.08000 4.566
95.10000 5.411
95.12000 0.440
95.14000 3.764
95.16000 2.857
95.18000 1.887
95.20000 -2.097
95.22000 3.530
95.24000 3.900
95.26000 1.441
95.28000 6.585
95.30000 1.839
95.32000 1.523
95.34000 4.026
95.36000 6.789
95.38000 5.041
95.40000 1.547
95.42000 -1.960
95.44000 0.207
95.46000 3.750
95.48000 3.347
95.50000 0.162
95.52000 0.960
95.54000 4.960
95.56000 6.000
95.58000 3.144
95.60000 4.010
95.62000 2.635
95.64000 3.796
95.66000 4.425
95.68000 4.305
95.70000 5.797
95.72000 4.654
95.74000 0.415
95.76000 3.719
95.78000 4.824
95.80000 -0.292
95.82000 1.895
95.84000 2.230
95.86000 2.718
95.88000 5.788
95.90000 0.816
95.92000 -0.593
95.94000 2.448
95.96000 7.691
95.98000 8.625
96.00000 10.974
96.02000 7.270
96.04000 4.552
96.06000 4.609
96.08000 3.606
96.10000 3.784
96.12000 1.003
96.14000 2.642
96.16000 5.854
96.18000 4.792
96.20000 3.107
96.22000 0.050
96.24000 0.134
96.26000 1.314
96.28000 -1.146
96.30000 -2.096
96.32000 1.212
96.34000 -1.049
96.36000 5.011
96.38000 4.619
96.40000 3.142
96.42000 4.048
96.44000 3.493
96.46000 4.815
96.48000 4.923
96.50000 7.240
96.52000 3.891
96.54000 2.861
96.56000 4.059
96.58000 5.013
96.60000 4.177
96.62000 1.149
96.64000 -2.015
96.66000 -1.380
96.68000 1.665
96.70000 3.829
96.72000 3.733
96.74000 6.488
96.76000 6.534
96.78000 4.149
96.80000 4.115
96.82000 0.237
96.84000 3.031
96.86000 5.047
96.88000 5.347
96.90000 4.112
96.92000 6.269
96.94000 10.331
96.96000 2.059
96.98000 1.501
97.00000 0.627
97.02000 6.630
97.04000 3.637
97.06000 0.883
97.08000 7.368
97.10000 8.684
97.12000 2.408
97.14000 0.389
97.16000 2.734
97.18000 6.348
97.20000 2.652
97.22000 3.545
97.24000 -0.956
97.26000 2.265
97.28000 4.335
97.30000 4.820
97.32000 8.594
97.34000 5.718
97.36000 4.429
97.38000 4.465
97.40000 5.287
97.42000 4.801
97.44000 5.314
97.46000 2.193
97.48000 5.263
97.50000 2.858
97.52000 4.212
97.54000 5.878
97.56000 6.302
97.58000 2.527
97.60000 -2.050
97.62000 6.582
97.64000 1.338
97.66000 2.821
97.68000 4.396
97.70000 2.436
97.72000 4.271
97.74000 6.117
97.76000 5.011
97.78000 2.442
97.80000 3.224
97.82000 3.238
97.84000 8.607
97.86000 10.927
97.88000 6.872
97.90000 5.721
97.92000 3.187
97.94000 4.879
97.96000 6.753
97.98000 6.296
98.00000 5.808
98.02000 5.169
98.04000 4.780
98.06000 3.722
98.08000 5.613
98.10000 7.814
98.12000 1.947
98.14000 8.419
98.16000 8.249
98.18000 11.956
98.20000 11.475
98.22000 6.184
98.24000 -0.922
98.26000 2.653
98.28000 1.175
98.30000 5.396
98.32000 8.292
98.34000 9.728
98.36000 8.659
98.38000 3.990
98.40000 1.894
98.42000 -2.032
98.44000 4.511
98.46000 5.016
98.48000 12.071
98.50000 14.962
98.52000 9.582
98.54000 7.205
98.56000 6.107
98.58000 6.251
98.60000 6.638
98.62000 6.066
98.64000 6.622
98.66000 3.273
98.68000 4.978
98.70000 9.397
98.72000 2.664
98.74000 3.668
98.76000 0.843
98.78000 4.357
98.80000 4.051
98.82000 -0.005
98.84000 0.570
98.86000 3.124
98.88000 -2.010
98.90000 3.478
98.92000 5.966
98.94000 5.395
98.96000 11.567
98.98000 8.629
99.00000 5.306
99.02000 4.799
99.04000 9.192
99.06000 5.959
99.08000 6.321
99.10000 7.523
99.12000 4.035
99.14000 4.798
99.16000 0.904
99.18000 1.250
99.20000 3.775
99.22000 6.635
99.24000 2.923
99.26000 0.758
99.28000 2.755
99.30000 5.050
99.32000 1.991
99.34000 3.621
99.36000 3.762
99.38000 -2.060
99.40000 2.480
99.42000 3.404
99.44000 2.622
99.46000 0.268
99.48000 4.600
99.50000 4.183
99.52000 7.248
99.54000 6.268
99.56000 7.062
99.58000 3.057
99.60000 4.673
99.62000 3.873
99.64000 5.142
99.66000 2.963
99.68000 3.383
99.70000 2.979
99.72000 1.823
99.74000 -2.094
99.76000 8.062
99.78000 2.115
99.80000 8.055
99.82000 4.714
99.84000 3.124
99.86000 -1.513
99.88000 0.807
99.90000 2.866
99.92000 6.605
99.94000 1.246
99.96000 -2.212
99.98000 0.000
