'Id: "0011387" Comment: "Integrate frame 0011387_Au-Ir-Rh_Rh-rich_XRD-Mapping-171-0000.gfrmwith cursor Wedge Cursor #5" Operator: "B?rgel" Anode: "Cu" Wavelength: "1.5406" Scantype: "2Theta (TwoTheta)" TimePerStep: "1" X: "18" Y: "0" Z: "5.95" 
10.00000 0.000
10.02000 22.469
10.04000 15.981
10.06000 6.837
10.08000 10.826
10.10000 23.393
10.12000 28.208
10.14000 26.190
10.16000 30.554
10.18000 9.793
10.20000 11.807
10.22000 17.346
10.24000 2.854
10.26000 9.695
10.28000 15.926
10.30000 12.330
10.32000 2.860
10.34000 5.339
10.36000 2.865
10.38000 13.085
10.40000 21.551
10.42000 9.492
10.44000 20.094
10.46000 21.412
10.48000 18.718
10.50000 11.994
10.52000 8.830
10.54000 2.484
10.56000 7.312
10.58000 8.464
10.60000 12.606
10.62000 23.503
10.64000 28.719
10.66000 14.433
10.68000 7.924
10.70000 2.697
10.72000 7.173
10.74000 16.377
10.76000 18.538
10.78000 10.309
10.80000 21.429
10.82000 19.474
10.84000 21.219
10.86000 16.001
10.88000 20.460
10.90000 15.431
10.92000 11.548
10.94000 12.371
10.96000 21.550
10.98000 16.684
11.00000 13.079
11.02000 8.928
11.04000 8.343
11.06000 7.329
11.08000 16.646
11.10000 15.632
11.12000 31.583
11.14000 29.542
11.16000 16.991
11.18000 13.335
11.20000 21.259
11.22000 22.189
11.24000 9.337
11.26000 10.703
11.28000 12.255
11.30000 19.817
11.32000 22.906
11.34000 19.870
11.36000 19.646
11.38000 19.474
11.40000 7.523
11.42000 9.893
11.44000 19.609
11.46000 23.548
11.48000 23.166
11.50000 8.806
11.52000 7.566
11.54000 20.910
11.56000 21.767
11.58000 36.973
11.60000 30.740
11.62000 14.643
11.64000 9.820
11.66000 15.445
11.68000 22.836
11.70000 27.554
11.72000 10.265
11.74000 6.517
11.76000 20.333
11.78000 28.064
11.80000 22.094
11.82000 13.800
11.84000 14.378
11.86000 23.048
11.88000 12.425
11.90000 20.595
11.92000 21.297
11.94000 6.684
11.96000 5.611
11.98000 17.853
12.00000 28.445
12.02000 25.911
12.04000 24.462
12.06000 22.767
12.08000 24.358
12.10000 23.583
12.12000 14.228
12.14000 14.353
12.16000 21.351
12.18000 15.121
12.20000 15.392
12.22000 18.052
12.24000 16.217
12.26000 31.591
12.28000 29.300
12.30000 28.279
12.32000 26.465
12.34000 31.006
12.36000 19.396
12.38000 12.150
12.40000 21.332
12.42000 42.174
12.44000 32.569
12.46000 27.140
12.48000 29.703
12.50000 18.737
12.52000 16.663
12.54000 19.432
12.56000 23.534
12.58000 27.054
12.60000 16.681
12.62000 22.822
12.64000 28.041
12.66000 24.149
12.68000 24.349
12.70000 31.355
12.72000 25.033
12.74000 19.909
12.76000 24.565
12.78000 29.739
12.80000 27.959
12.82000 19.580
12.84000 22.177
12.86000 15.603
12.88000 9.752
12.90000 11.481
12.92000 24.540
12.94000 26.509
12.96000 27.931
12.98000 25.558
13.00000 25.936
13.02000 18.234
13.04000 24.576
13.06000 27.775
13.08000 20.993
13.10000 18.932
13.12000 19.817
13.14000 20.130
13.16000 21.599
13.18000 23.374
13.20000 30.171
13.22000 22.701
13.24000 18.718
13.26000 15.093
13.28000 14.649
13.30000 23.996
13.32000 31.841
13.34000 24.227
13.36000 21.447
13.38000 24.675
13.40000 20.086
13.42000 13.531
13.44000 24.457
13.46000 26.308
13.48000 14.664
13.50000 9.867
13.52000 13.768
13.54000 9.647
13.56000 5.253
13.58000 13.131
13.60000 8.512
13.62000 17.456
13.64000 18.908
13.66000 19.650
13.68000 18.495
13.70000 11.239
13.72000 14.571
13.74000 22.347
13.76000 23.409
13.78000 13.293
13.80000 19.298
13.82000 26.963
13.84000 20.361
13.86000 15.187
13.88000 20.345
13.90000 20.246
13.92000 15.011
13.94000 12.346
13.96000 8.734
13.98000 8.361
14.00000 19.964
14.02000 29.776
14.04000 28.695
14.06000 23.869
14.08000 16.653
14.10000 20.384
14.12000 13.764
14.14000 15.688
14.16000 14.915
14.18000 16.450
14.20000 14.878
14.22000 16.698
14.24000 17.171
14.26000 18.396
14.28000 15.677
14.30000 20.235
14.32000 15.283
14.34000 5.069
14.36000 2.285
14.38000 13.366
14.40000 13.655
14.42000 15.962
14.44000 11.133
14.46000 7.755
14.48000 4.558
14.50000 5.567
14.52000 -0.388
14.54000 10.316
14.56000 12.693
14.58000 10.041
14.60000 10.558
14.62000 20.530
14.64000 14.809
14.66000 7.875
14.68000 0.399
14.70000 10.488
14.72000 11.599
14.74000 11.367
14.76000 9.354
14.78000 15.081
14.80000 14.546
14.82000 12.869
14.84000 9.903
14.86000 8.486
14.88000 6.050
14.90000 7.109
14.92000 11.192
14.94000 12.404
14.96000 5.514
14.98000 6.773
15.00000 6.809
15.02000 9.247
15.04000 9.793
15.06000 6.372
15.08000 10.492
15.10000 16.212
15.12000 8.710
15.14000 8.292
15.16000 12.022
15.18000 15.853
15.20000 12.269
15.22000 6.318
15.24000 8.936
15.26000 13.036
15.28000 8.348
15.30000 1.137
15.32000 7.362
15.34000 11.016
15.36000 6.203
15.38000 8.073
15.40000 9.727
15.42000 8.795
15.44000 6.677
15.46000 1.597
15.48000 7.807
15.50000 14.723
15.52000 14.112
15.54000 17.377
15.56000 15.331
15.58000 15.315
15.60000 15.513
15.62000 20.411
15.64000 14.062
15.66000 7.106
15.68000 0.386
15.70000 -1.982
15.72000 4.543
15.74000 8.202
15.76000 4.957
15.78000 1.165
15.80000 7.904
15.82000 11.912
15.84000 8.217
15.86000 3.916
15.88000 6.516
15.90000 8.248
15.92000 15.191
15.94000 9.122
15.96000 4.975
15.98000 13.976
16.00000 10.847
16.02000 8.285
16.04000 5.051
16.06000 6.453
16.08000 14.235
16.10000 12.113
16.12000 10.832
16.14000 -2.084
16.16000 -0.633
16.18000 7.593
16.20000 6.434
16.22000 6.529
16.24000 2.463
16.26000 5.628
16.28000 14.108
16.30000 6.847
16.32000 0.726
16.34000 -2.671
16.36000 -4.395
16.38000 4.101
16.40000 13.770
16.42000 6.087
16.44000 3.115
16.46000 7.755
16.48000 -0.243
16.50000 -0.702
16.52000 2.972
16.54000 2.912
16.56000 11.901
16.58000 10.655
16.60000 5.348
16.62000 3.306
16.64000 7.078
16.66000 9.148
16.68000 9.103
16.70000 10.661
16.72000 3.517
16.74000 2.822
16.76000 5.517
16.78000 12.957
16.80000 6.596
16.82000 9.425
16.84000 10.935
16.86000 9.200
16.88000 10.187
16.90000 6.878
16.92000 3.493
16.94000 5.323
16.96000 3.221
16.98000 4.020
17.00000 10.335
17.02000 4.701
17.04000 14.233
17.06000 4.008
17.08000 2.674
17.10000 11.085
17.12000 8.532
17.14000 11.661
17.16000 14.868
17.18000 11.458
17.20000 8.858
17.22000 12.825
17.24000 9.970
17.26000 16.054
17.28000 19.957
17.30000 12.040
17.32000 4.551
17.34000 10.317
17.36000 8.733
17.38000 4.392
17.40000 8.206
17.42000 13.180
17.44000 7.362
17.46000 8.828
17.48000 3.379
17.50000 5.212
17.52000 6.590
17.54000 2.633
17.56000 6.713
17.58000 7.035
17.60000 4.790
17.62000 3.071
17.64000 4.584
17.66000 12.538
17.68000 4.744
17.70000 -0.363
17.72000 -4.330
17.74000 -0.130
17.76000 5.859
17.78000 -1.380
17.80000 0.246
17.82000 2.762
17.84000 9.113
17.86000 5.894
17.88000 -0.876
17.90000 -0.550
17.92000 0.911
17.94000 11.226
17.96000 14.497
17.98000 4.347
18.00000 1.570
18.02000 2.657
18.04000 -3.789
18.06000 0.907
18.08000 1.140
18.10000 4.058
18.12000 4.370
18.14000 0.884
18.16000 4.381
18.18000 5.619
18.20000 7.333
18.22000 4.086
18.24000 0.718
18.26000 3.646
18.28000 6.653
18.30000 3.354
18.32000 2.513
18.34000 6.164
18.36000 5.607
18.38000 9.387
18.40000 -0.504
18.42000 -1.710
18.44000 4.525
18.46000 5.898
18.48000 -2.406
18.50000 7.109
18.52000 9.194
18.54000 5.481
18.56000 7.842
18.58000 3.506
18.60000 -0.868
18.62000 -4.072
18.64000 -0.034
18.66000 1.348
18.68000 2.886
18.70000 4.284
18.72000 8.763
18.74000 5.660
18.76000 5.314
18.78000 4.363
18.80000 1.818
18.82000 -0.228
18.84000 -3.213
18.86000 7.551
18.88000 5.863
18.90000 0.106
18.92000 5.911
18.94000 5.080
18.96000 4.291
18.98000 -4.298
19.00000 -2.788
19.02000 2.899
19.04000 4.141
19.06000 6.824
19.08000 3.583
19.10000 1.497
19.12000 -4.245
19.14000 -3.626
19.16000 4.946
19.18000 11.466
19.20000 4.609
19.22000 4.132
19.24000 0.093
19.26000 0.007
19.28000 -1.325
19.30000 1.776
19.32000 7.628
19.34000 5.616
19.36000 -2.385
19.38000 4.081
19.40000 3.114
19.42000 -0.886
19.44000 -1.601
19.46000 -0.354
19.48000 0.335
19.50000 -3.431
19.52000 -3.348
19.54000 -0.911
19.56000 2.632
19.58000 5.724
19.60000 1.724
19.62000 -4.264
19.64000 3.492
19.66000 7.347
19.68000 -2.521
19.70000 -3.690
19.72000 -1.063
19.74000 1.036
19.76000 5.016
19.78000 8.334
19.80000 3.678
19.82000 2.521
19.84000 -4.250
19.86000 0.576
19.88000 3.229
19.90000 8.791
19.92000 1.501
19.94000 0.033
19.96000 2.131
19.98000 1.333
20.00000 0.644
20.02000 -1.465
20.04000 2.662
20.06000 -0.998
20.08000 3.110
20.10000 1.316
20.12000 7.977
20.14000 2.035
20.16000 3.028
20.18000 2.931
20.20000 4.364
20.22000 -0.920
20.24000 -4.220
20.26000 1.135
20.28000 4.671
20.30000 4.632
20.32000 4.490
20.34000 6.127
20.36000 6.021
20.38000 0.275
20.40000 4.323
20.42000 0.543
20.44000 4.934
20.46000 4.127
20.48000 0.991
20.50000 1.073
20.52000 3.454
20.54000 -1.268
20.56000 -1.871
20.58000 1.484
20.60000 8.779
20.62000 12.270
20.64000 12.816
20.66000 10.349
20.68000 5.344
20.70000 3.573
20.72000 1.464
20.74000 10.637
20.76000 8.589
20.78000 -1.352
20.80000 3.379
20.82000 -0.153
20.84000 4.953
20.86000 11.582
20.88000 4.232
20.90000 3.409
20.92000 0.922
20.94000 -4.160
20.96000 -2.444
20.98000 -0.493
21.00000 2.239
21.02000 6.144
21.04000 5.700
21.06000 2.321
21.08000 5.326
21.10000 0.258
21.12000 0.948
21.14000 12.730
21.16000 8.781
21.18000 5.381
21.20000 2.489
21.22000 2.837
21.24000 6.651
21.26000 5.464
21.28000 6.528
21.30000 10.556
21.32000 8.291
21.34000 5.165
21.36000 6.690
21.38000 11.929
21.40000 7.321
21.42000 5.908
21.44000 12.083
21.46000 15.003
21.48000 7.861
21.50000 5.346
21.52000 -2.701
21.54000 3.580
21.56000 7.403
21.58000 2.694
21.60000 4.179
21.62000 6.737
21.64000 12.366
21.66000 7.889
21.68000 7.117
21.70000 3.858
21.72000 -0.301
21.74000 1.678
21.76000 2.156
21.78000 1.010
21.80000 0.113
21.82000 6.404
21.84000 7.029
21.86000 8.316
21.88000 9.492
21.90000 13.205
21.92000 3.466
21.94000 -1.077
21.96000 2.118
21.98000 8.521
22.00000 11.069
22.02000 11.185
22.04000 6.487
22.06000 7.674
22.08000 9.716
22.10000 9.236
22.12000 12.340
22.14000 9.171
22.16000 4.445
22.18000 3.840
22.20000 6.587
22.22000 -1.008
22.24000 -4.061
22.26000 0.805
22.28000 0.794
22.30000 7.594
22.32000 9.648
22.34000 8.153
22.36000 8.307
22.38000 6.160
22.40000 5.634
22.42000 8.302
22.44000 -1.144
22.46000 2.575
22.48000 4.016
22.50000 3.273
22.52000 3.617
22.54000 7.944
22.56000 12.484
22.58000 5.821
22.60000 4.199
22.62000 8.952
22.64000 5.439
22.66000 1.195
22.68000 1.374
22.70000 1.622
22.72000 5.695
22.74000 7.078
22.76000 5.494
22.78000 4.603
22.80000 7.366
22.82000 9.943
22.84000 2.713
22.86000 4.389
22.88000 7.074
22.90000 5.935
22.92000 4.149
22.94000 1.376
22.96000 0.473
22.98000 5.279
23.00000 7.347
23.02000 9.321
23.04000 0.968
23.06000 2.001
23.08000 6.678
23.10000 2.933
23.12000 1.238
23.14000 1.407
23.16000 8.825
23.18000 6.276
23.20000 4.229
23.22000 -4.048
23.24000 0.284
23.26000 9.179
23.28000 2.132
23.30000 3.263
23.32000 0.382
23.34000 3.178
23.36000 0.351
23.38000 0.326
23.40000 3.116
23.42000 3.143
23.44000 4.006
23.46000 0.183
23.48000 -0.689
23.50000 0.758
23.52000 0.309
23.54000 -2.111
23.56000 2.755
23.58000 4.610
23.60000 0.009
23.62000 -2.512
23.64000 1.553
23.66000 8.021
23.68000 5.680
23.70000 4.273
23.72000 2.469
23.74000 3.005
23.76000 7.779
23.78000 1.112
23.80000 4.345
23.82000 8.672
23.84000 3.805
23.86000 4.857
23.88000 6.403
23.90000 0.819
23.92000 -2.869
23.94000 4.846
23.96000 2.089
23.98000 -0.128
24.00000 1.116
24.02000 -1.833
24.04000 2.951
24.06000 8.846
24.08000 3.988
24.10000 0.495
24.12000 4.412
24.14000 5.557
24.16000 0.895
24.18000 -3.727
24.20000 2.083
24.22000 3.930
24.24000 3.674
24.26000 0.791
24.28000 0.221
24.30000 -0.744
24.32000 -1.632
24.34000 0.456
24.36000 6.541
24.38000 1.797
24.40000 1.007
24.42000 5.027
24.44000 2.789
24.46000 5.377
24.48000 2.018
24.50000 3.930
24.52000 10.349
24.54000 2.262
24.56000 -2.646
24.58000 -0.126
24.60000 1.093
24.62000 -2.742
24.64000 -3.989
24.66000 -1.399
24.68000 0.551
24.70000 6.853
24.72000 3.423
24.74000 -1.864
24.76000 -0.099
24.78000 -0.394
24.80000 -2.048
24.82000 -0.967
24.84000 1.163
24.86000 0.127
24.88000 1.889
24.90000 -0.180
24.92000 0.275
24.94000 -1.006
24.96000 -0.571
24.98000 0.553
25.00000 -3.289
25.02000 -2.787
25.04000 -3.963
25.06000 0.218
25.08000 1.523
25.10000 2.533
25.12000 -1.486
25.14000 3.316
25.16000 8.811
25.18000 7.102
25.20000 6.373
25.22000 -0.682
25.24000 -0.347
25.26000 -0.807
25.28000 6.509
25.30000 4.039
25.32000 -0.977
25.34000 2.554
25.36000 6.473
25.38000 4.840
25.40000 0.800
25.42000 -1.890
25.44000 -2.580
25.46000 -3.130
25.48000 1.785
25.50000 1.580
25.52000 3.688
25.54000 3.522
25.56000 5.650
25.58000 -0.002
25.60000 -0.131
25.62000 3.369
25.64000 6.361
25.66000 6.772
25.68000 4.967
25.70000 -1.629
25.72000 -3.303
25.74000 -2.667
25.76000 -0.356
25.78000 2.586
25.80000 2.527
25.82000 -1.061
25.84000 3.737
25.86000 5.963
25.88000 6.023
25.90000 2.433
25.92000 9.283
25.94000 9.036
25.96000 2.479
25.98000 6.743
26.00000 4.191
26.02000 0.183
26.04000 -3.874
26.06000 -0.289
26.08000 6.861
26.10000 9.409
26.12000 7.346
26.14000 2.225
26.16000 -1.020
26.18000 0.553
26.20000 3.660
26.22000 9.893
26.24000 4.341
26.26000 -0.525
26.28000 7.081
26.30000 3.147
26.32000 6.662
26.34000 15.174
26.36000 8.520
26.38000 -0.229
26.40000 -0.826
26.42000 -3.845
26.44000 3.445
26.46000 4.313
26.48000 4.251
26.50000 5.507
26.52000 2.658
26.54000 3.807
26.56000 0.681
26.58000 6.604
26.60000 9.024
26.62000 5.261
26.64000 6.790
26.66000 5.858
26.68000 5.321
26.70000 11.376
26.72000 4.110
26.74000 0.230
26.76000 1.742
26.78000 2.972
26.80000 1.941
26.82000 2.751
26.84000 5.435
26.86000 3.123
26.88000 5.479
26.90000 3.884
26.92000 4.142
26.94000 6.877
26.96000 10.505
26.98000 6.937
27.00000 4.691
27.02000 0.488
27.04000 4.892
27.06000 5.165
27.08000 3.417
27.10000 0.010
27.12000 5.254
27.14000 10.712
27.16000 5.507
27.18000 4.138
27.20000 3.875
27.22000 3.477
27.24000 3.565
27.26000 0.490
27.28000 1.256
27.30000 2.563
27.32000 -0.476
27.34000 1.138
27.36000 -0.990
27.38000 3.793
27.40000 9.053
27.42000 5.211
27.44000 4.634
27.46000 11.462
27.48000 11.872
27.50000 7.918
27.52000 3.616
27.54000 1.200
27.56000 4.121
27.58000 7.943
27.60000 10.446
27.62000 10.140
27.64000 3.066
27.66000 -0.780
27.68000 -1.291
27.70000 0.313
27.72000 4.875
27.74000 12.648
27.76000 7.724
27.78000 2.055
27.80000 11.187
27.82000 10.788
27.84000 3.317
27.86000 9.267
27.88000 12.656
27.90000 9.996
27.92000 4.343
27.94000 0.478
27.96000 -3.750
27.98000 0.011
28.00000 7.034
28.02000 8.928
28.04000 6.253
28.06000 4.985
28.08000 8.654
28.10000 4.132
28.12000 8.062
28.14000 7.107
28.16000 7.878
28.18000 5.665
28.20000 4.611
28.22000 4.258
28.24000 4.532
28.26000 0.206
28.28000 1.423
28.30000 7.253
28.32000 6.088
28.34000 4.468
28.36000 2.335
28.38000 6.867
28.40000 2.959
28.42000 -0.371
28.44000 3.016
28.46000 7.159
28.48000 5.240
28.50000 13.165
28.52000 11.802
28.54000 6.715
28.56000 3.024
28.58000 6.029
28.60000 5.015
28.62000 -1.672
28.64000 5.502
28.66000 3.444
28.68000 5.323
28.70000 4.406
28.72000 -1.091
28.74000 3.244
28.76000 -2.584
28.78000 -3.301
28.80000 -3.017
28.82000 0.197
28.84000 5.622
28.86000 5.286
28.88000 -0.153
28.90000 -0.959
28.92000 -0.732
28.94000 -3.728
28.96000 2.408
28.98000 2.435
29.00000 -0.413
29.02000 6.830
29.04000 2.950
29.06000 4.292
29.08000 4.530
29.10000 2.490
29.12000 1.767
29.14000 0.165
29.16000 3.108
29.18000 0.642
29.20000 4.803
29.22000 -0.170
29.24000 3.826
29.26000 2.768
29.28000 -1.441
29.30000 2.108
29.32000 3.776
29.34000 6.813
29.36000 3.794
29.38000 3.605
29.40000 3.670
29.42000 5.271
29.44000 1.457
29.46000 2.838
29.48000 0.921
29.50000 -0.676
29.52000 2.902
29.54000 5.975
29.56000 8.132
29.58000 4.603
29.60000 5.028
29.62000 1.733
29.64000 4.775
29.66000 5.185
29.68000 3.708
29.70000 3.890
29.72000 1.122
29.74000 2.505
29.76000 1.382
29.78000 1.091
29.80000 3.711
29.82000 3.376
29.84000 5.756
29.86000 7.626
29.88000 2.911
29.90000 3.391
29.92000 0.947
29.94000 1.635
29.96000 4.774
29.98000 6.261
30.00000 6.411
30.02000 5.121
30.04000 1.250
30.06000 2.418
30.08000 0.023
30.10000 4.862
30.12000 4.784
30.14000 1.039
30.16000 4.014
30.18000 4.967
30.20000 2.111
30.22000 0.638
30.24000 -1.848
30.26000 1.014
30.28000 1.269
30.30000 -2.332
30.32000 7.712
30.34000 11.042
30.36000 9.751
30.38000 6.631
30.40000 4.469
30.42000 -1.963
30.44000 -3.643
30.46000 3.517
30.48000 6.326
30.50000 1.668
30.52000 5.959
30.54000 12.087
30.56000 8.414
30.58000 2.940
30.60000 1.522
30.62000 3.795
30.64000 6.153
30.66000 4.117
30.68000 3.628
30.70000 7.193
30.72000 6.024
30.74000 5.629
30.76000 6.578
30.78000 4.818
30.80000 0.601
30.82000 0.737
30.84000 5.774
30.86000 1.792
30.88000 -1.644
30.90000 2.412
30.92000 -0.191
30.94000 4.911
30.96000 -1.080
30.98000 -1.563
31.00000 -0.644
31.02000 -0.011
31.04000 4.353
31.06000 5.428
31.08000 0.485
31.10000 -1.941
31.12000 6.372
31.14000 6.740
31.16000 0.542
31.18000 3.641
31.20000 2.187
31.22000 3.635
31.24000 2.160
31.26000 2.528
31.28000 0.940
31.30000 -0.265
31.32000 -3.628
31.34000 1.367
31.36000 0.877
31.38000 2.644
31.40000 4.860
31.42000 7.132
31.44000 2.944
31.46000 -1.405
31.48000 -1.751
31.50000 0.283
31.52000 4.749
31.54000 4.667
31.56000 3.409
31.58000 0.514
31.60000 -1.571
31.62000 -0.392
31.64000 2.992
31.66000 3.645
31.68000 1.531
31.70000 4.316
31.72000 3.711
31.74000 0.809
31.76000 5.292
31.78000 5.087
31.80000 5.589
31.82000 5.216
31.84000 2.464
31.86000 1.695
31.88000 1.251
31.90000 2.709
31.92000 1.012
31.94000 1.785
31.96000 -1.666
31.98000 -0.265
32.00000 3.733
32.02000 -0.487
32.04000 -2.410
32.06000 -2.833
32.08000 1.180
32.10000 0.254
32.12000 -3.591
32.14000 -1.425
32.16000 3.505
32.18000 5.432
32.20000 3.392
32.22000 0.144
32.24000 -0.275
32.26000 0.568
32.28000 1.573
32.30000 -0.506
32.32000 -2.977
32.34000 -0.853
32.36000 3.292
32.38000 1.692
32.40000 1.437
32.42000 1.358
32.44000 -0.101
32.46000 1.384
32.48000 -0.177
32.50000 5.631
32.52000 8.365
32.54000 3.249
32.56000 4.781
32.58000 -1.632
32.60000 -3.562
32.62000 2.280
32.64000 2.485
32.66000 3.888
32.68000 4.195
32.70000 0.513
32.72000 1.689
32.74000 0.375
32.76000 2.076
32.78000 5.149
32.80000 4.438
32.82000 6.655
32.84000 6.089
32.86000 2.159
32.88000 1.185
32.90000 3.227
32.92000 0.317
32.94000 3.383
32.96000 2.638
32.98000 1.209
33.00000 -1.571
33.02000 0.414
33.04000 -1.131
33.06000 4.854
33.08000 4.986
33.10000 5.047
33.12000 4.603
33.14000 2.872
33.16000 2.774
33.18000 4.268
33.20000 5.567
33.22000 0.896
33.24000 -3.562
33.26000 -2.167
33.28000 -2.650
33.30000 4.935
33.32000 10.811
33.34000 9.208
33.36000 4.213
33.38000 1.711
33.40000 3.660
33.42000 4.300
33.44000 1.188
33.46000 6.058
33.48000 5.852
33.50000 2.749
33.52000 4.708
33.54000 0.877
33.56000 5.122
33.58000 6.343
33.60000 5.031
33.62000 6.786
33.64000 4.935
33.66000 -0.225
33.68000 -2.865
33.70000 -1.765
33.72000 2.033
33.74000 6.243
33.76000 3.704
33.78000 -0.393
33.80000 2.315
33.82000 4.435
33.84000 1.847
33.86000 2.397
33.88000 5.418
33.90000 1.437
33.92000 2.064
33.94000 3.156
33.96000 1.169
33.98000 -0.244
34.00000 4.845
34.02000 2.657
34.04000 0.341
34.06000 3.060
34.08000 3.220
34.10000 1.293
34.12000 3.110
34.14000 -1.551
34.16000 4.187
34.18000 8.107
34.20000 6.048
34.22000 1.998
34.24000 1.197
34.26000 5.093
34.28000 3.906
34.30000 1.118
34.32000 1.737
34.34000 -0.147
34.36000 3.240
34.38000 4.874
34.40000 -3.353
34.42000 -2.626
34.44000 -1.962
34.46000 2.013
34.48000 3.965
34.50000 5.098
34.52000 2.096
34.54000 2.447
34.56000 7.227
34.58000 2.063
34.60000 -0.405
34.62000 -3.096
34.64000 -0.640
34.66000 2.101
34.68000 3.277
34.70000 5.642
34.72000 5.123
34.74000 4.358
34.76000 2.661
34.78000 4.386
34.80000 4.637
34.82000 1.899
34.84000 3.228
34.86000 1.088
34.88000 1.774
34.90000 -0.908
34.92000 1.777
34.94000 -1.960
34.96000 -3.485
34.98000 -1.643
35.00000 4.897
35.02000 8.603
35.04000 5.834
35.06000 7.262
35.08000 5.633
35.10000 6.490
35.12000 1.830
35.14000 1.710
35.16000 2.555
35.18000 7.317
35.20000 3.926
35.22000 4.093
35.24000 4.696
35.26000 3.307
35.28000 2.796
35.30000 4.235
35.32000 -0.124
35.34000 4.330
35.36000 3.848
35.38000 4.353
35.40000 0.976
35.42000 2.051
35.44000 5.743
35.46000 6.721
35.48000 5.643
35.50000 2.202
35.52000 3.319
35.54000 4.591
35.56000 5.271
35.58000 7.467
35.60000 6.555
35.62000 5.276
35.64000 3.527
35.66000 8.993
35.68000 4.538
35.70000 1.673
35.72000 5.690
35.74000 8.260
35.76000 6.490
35.78000 4.775
35.80000 5.023
35.82000 2.662
35.84000 -1.402
35.86000 -3.480
35.88000 -0.347
35.90000 -2.375
35.92000 0.536
35.94000 0.368
35.96000 3.266
35.98000 2.607
36.00000 4.542
36.02000 2.303
36.04000 0.967
36.06000 3.348
36.08000 7.340
36.10000 4.349
36.12000 2.210
36.14000 2.134
36.16000 6.084
36.18000 8.022
36.20000 -1.590
36.22000 -2.941
36.24000 0.006
36.26000 1.798
36.28000 1.456
36.30000 -0.599
36.32000 -0.380
36.34000 0.286
36.36000 -1.186
36.38000 0.381
36.40000 0.280
36.42000 -2.532
36.44000 -0.097
36.46000 2.587
36.48000 0.454
36.50000 -3.513
36.52000 -1.471
36.54000 4.559
36.56000 3.955
36.58000 0.448
36.60000 -3.078
36.62000 2.601
36.64000 1.593
36.66000 2.649
36.68000 -1.359
36.70000 0.790
36.72000 2.818
36.74000 -0.662
36.76000 -2.597
36.78000 -0.223
36.80000 0.360
36.82000 -2.546
36.84000 2.153
36.86000 4.129
36.88000 -2.497
36.90000 -2.908
36.92000 1.209
36.94000 1.660
36.96000 -1.022
36.98000 -0.457
37.00000 2.122
37.02000 0.477
37.04000 -3.530
37.06000 4.469
37.08000 6.485
37.10000 3.475
37.12000 3.557
37.14000 1.333
37.16000 1.074
37.18000 -1.346
37.20000 -0.152
37.22000 3.558
37.24000 4.445
37.26000 3.856
37.28000 2.300
37.30000 3.909
37.32000 2.252
37.34000 -0.546
37.36000 4.046
37.38000 6.239
37.40000 1.795
37.42000 5.353
37.44000 3.286
37.46000 0.793
37.48000 -0.728
37.50000 -3.551
37.52000 3.427
37.54000 5.704
37.56000 3.417
37.58000 4.330
37.60000 5.555
37.62000 4.262
37.64000 5.358
37.66000 3.262
37.68000 6.123
37.70000 6.437
37.72000 8.177
37.74000 8.146
37.76000 4.617
37.78000 4.315
37.80000 2.785
37.82000 5.782
37.84000 6.924
37.86000 7.086
37.88000 5.040
37.90000 3.886
37.92000 4.876
37.94000 10.204
37.96000 10.310
37.98000 7.046
38.00000 10.473
38.02000 12.598
38.04000 6.721
38.06000 2.266
38.08000 3.284
38.10000 7.944
38.12000 11.170
38.14000 12.231
38.16000 14.357
38.18000 15.217
38.20000 18.893
38.22000 13.002
38.24000 13.524
38.26000 16.367
38.28000 11.555
38.30000 14.952
38.32000 18.327
38.34000 18.751
38.36000 19.029
38.38000 16.722
38.40000 19.218
38.42000 16.935
38.44000 13.463
38.46000 15.226
38.48000 15.065
38.50000 17.542
38.52000 18.069
38.54000 19.301
38.56000 21.629
38.58000 22.986
38.60000 16.646
38.62000 15.172
38.64000 19.223
38.66000 23.025
38.68000 23.961
38.70000 26.272
38.72000 30.431
38.74000 26.863
38.76000 23.333
38.78000 26.052
38.80000 24.655
38.82000 26.023
38.84000 29.665
38.86000 29.435
38.88000 22.973
38.90000 27.483
38.92000 33.176
38.94000 31.884
38.96000 29.481
38.98000 27.391
39.00000 28.065
39.02000 33.761
39.04000 38.440
39.06000 40.040
39.08000 39.747
39.10000 40.288
39.12000 43.735
39.14000 45.538
39.16000 46.104
39.18000 45.065
39.20000 44.674
39.22000 52.330
39.24000 55.133
39.26000 61.654
39.28000 59.326
39.30000 61.096
39.32000 59.267
39.34000 65.588
39.36000 64.033
39.38000 69.639
39.40000 66.646
39.42000 68.068
39.44000 77.101
39.46000 81.252
39.48000 85.339
39.50000 90.214
39.52000 89.603
39.54000 100.604
39.56000 105.823
39.58000 107.072
39.60000 112.922
39.62000 124.887
39.64000 124.807
39.66000 129.851
39.68000 141.684
39.70000 145.549
39.72000 158.133
39.74000 171.079
39.76000 174.877
39.78000 185.503
39.80000 202.937
39.82000 206.825
39.84000 218.478
39.86000 230.781
39.88000 247.602
39.90000 256.141
39.92000 270.716
39.94000 283.835
39.96000 299.026
39.98000 316.674
40.00000 334.461
40.02000 357.456
40.04000 378.788
40.06000 400.834
40.08000 423.309
40.10000 433.586
40.12000 453.984
40.14000 484.497
40.16000 501.669
40.18000 525.490
40.20000 545.232
40.22000 559.745
40.24000 577.211
40.26000 596.879
40.28000 615.055
40.30000 625.264
40.32000 637.327
40.34000 651.460
40.36000 662.244
40.38000 667.241
40.40000 671.165
40.42000 667.302
40.44000 664.939
40.46000 670.799
40.48000 663.512
40.50000 656.553
40.52000 646.730
40.54000 638.805
40.56000 629.283
40.58000 614.181
40.60000 603.042
40.62000 587.072
40.64000 567.797
40.66000 551.500
40.68000 520.335
40.70000 500.287
40.72000 486.104
40.74000 477.252
40.76000 456.154
40.78000 438.881
40.80000 412.683
40.82000 391.854
40.84000 380.562
40.86000 369.449
40.88000 350.471
40.90000 331.162
40.92000 311.607
40.94000 293.193
40.96000 279.988
40.98000 271.198
41.00000 255.034
41.02000 239.896
41.04000 223.538
41.06000 210.690
41.08000 204.744
41.10000 204.089
41.12000 193.676
41.14000 180.848
41.16000 167.431
41.18000 154.293
41.20000 145.684
41.22000 141.585
41.24000 138.443
41.26000 130.544
41.28000 117.836
41.30000 118.857
41.32000 112.497
41.34000 103.154
41.36000 96.897
41.38000 93.630
41.40000 87.762
41.42000 85.870
41.44000 84.800
41.46000 78.103
41.48000 71.745
41.50000 68.242
41.52000 67.164
41.54000 64.350
41.56000 58.623
41.58000 56.561
41.60000 59.739
41.62000 54.581
41.64000 49.037
41.66000 50.075
41.68000 49.635
41.70000 43.659
41.72000 38.589
41.74000 40.472
41.76000 38.163
41.78000 30.737
41.80000 35.931
41.82000 36.645
41.84000 35.728
41.86000 33.322
41.88000 28.341
41.90000 27.038
41.92000 24.193
41.94000 20.211
41.96000 20.260
41.98000 24.131
42.00000 22.818
42.02000 19.031
42.04000 19.632
42.06000 15.874
42.08000 17.473
42.10000 13.719
42.12000 14.442
42.14000 18.011
42.16000 15.272
42.18000 11.227
42.20000 13.307
42.22000 16.615
42.24000 16.572
42.26000 19.260
42.28000 19.403
42.30000 14.305
42.32000 10.681
42.34000 10.579
42.36000 12.089
42.38000 8.992
42.40000 10.068
42.42000 6.724
42.44000 6.530
42.46000 6.359
42.48000 7.339
42.50000 6.379
42.52000 8.927
42.54000 8.151
42.56000 7.235
42.58000 8.928
42.60000 4.652
42.62000 6.368
42.64000 6.463
42.66000 4.570
42.68000 10.605
42.70000 11.266
42.72000 6.002
42.74000 6.149
42.76000 4.555
42.78000 4.492
42.80000 3.507
42.82000 2.248
42.84000 3.621
42.86000 4.602
42.88000 4.354
42.90000 0.449
42.92000 1.572
42.94000 4.546
42.96000 1.671
42.98000 -0.230
43.00000 0.458
43.02000 0.411
43.04000 2.205
43.06000 6.879
43.08000 3.967
43.10000 6.894
43.12000 4.325
43.14000 -2.370
43.16000 -3.444
43.18000 0.640
43.20000 2.887
43.22000 4.088
43.24000 3.865
43.26000 1.730
43.28000 -2.258
43.30000 -2.782
43.32000 -3.425
43.34000 3.681
43.36000 6.371
43.38000 2.259
43.40000 0.044
43.42000 3.743
43.44000 5.483
43.46000 3.768
43.48000 -0.184
43.50000 -2.018
43.52000 -0.748
43.54000 0.196
43.56000 1.172
43.58000 2.475
43.60000 3.897
43.62000 5.501
43.64000 8.346
43.66000 8.927
43.68000 6.539
43.70000 4.713
43.72000 -0.873
43.74000 1.718
43.76000 1.981
43.78000 2.004
43.80000 2.666
43.82000 -3.382
43.84000 2.568
43.86000 4.536
43.88000 1.676
43.90000 1.499
43.92000 4.158
43.94000 2.703
43.96000 3.890
43.98000 3.184
44.00000 0.786
44.02000 -0.256
44.04000 1.894
44.06000 1.353
44.08000 2.919
44.10000 5.436
44.12000 3.046
44.14000 1.620
44.16000 1.253
44.18000 2.404
44.20000 -0.012
44.22000 -1.915
44.24000 -1.043
44.26000 -1.364
44.28000 0.846
44.30000 -3.355
44.32000 -1.090
44.34000 -0.665
44.36000 -1.106
44.38000 1.595
44.40000 2.917
44.42000 0.244
44.44000 4.714
44.46000 2.982
44.48000 0.051
44.50000 1.492
44.52000 -0.257
44.54000 -2.055
44.56000 1.160
44.58000 2.340
44.60000 -2.993
44.62000 -3.085
44.64000 -1.970
44.66000 -2.955
44.68000 -2.314
44.70000 -2.780
44.72000 1.829
44.74000 1.325
44.76000 1.282
44.78000 0.262
44.80000 1.555
44.82000 0.874
44.84000 -2.955
44.86000 -1.986
44.88000 -0.468
44.90000 -0.985
44.92000 1.833
44.94000 -0.065
44.96000 -1.113
44.98000 1.221
45.00000 -0.056
45.02000 -0.715
45.04000 4.810
45.06000 4.042
45.08000 0.490
45.10000 3.749
45.12000 -0.179
45.14000 4.639
45.16000 1.139
45.18000 1.296
45.20000 0.868
45.22000 -3.341
45.24000 -3.326
45.26000 4.199
45.28000 3.592
45.30000 4.237
45.32000 3.609
45.34000 5.241
45.36000 4.436
45.38000 11.948
45.40000 7.229
45.42000 4.796
45.44000 9.168
45.46000 8.668
45.48000 3.264
45.50000 0.576
45.52000 4.034
45.54000 11.111
45.56000 8.441
45.58000 5.192
45.60000 8.718
45.62000 13.287
45.64000 13.155
45.66000 9.342
45.68000 11.075
45.70000 18.789
45.72000 16.391
45.74000 11.770
45.76000 15.041
45.78000 16.701
45.80000 18.303
45.82000 16.115
45.84000 12.771
45.86000 15.164
45.88000 23.426
45.90000 21.243
45.92000 21.267
45.94000 20.510
45.96000 23.923
45.98000 19.127
46.00000 20.290
46.02000 21.163
46.04000 25.758
46.06000 28.095
46.08000 32.833
46.10000 36.306
46.12000 31.060
46.14000 33.140
46.16000 37.373
46.18000 38.849
46.20000 38.039
46.22000 42.433
46.24000 41.655
46.26000 41.467
46.28000 39.561
46.30000 43.610
46.32000 43.590
46.34000 51.260
46.36000 52.638
46.38000 58.734
46.40000 55.917
46.42000 55.824
46.44000 55.794
46.46000 59.456
46.48000 65.253
46.50000 69.231
46.52000 71.629
46.54000 68.921
46.56000 74.510
46.58000 70.651
46.60000 73.288
46.62000 74.613
46.64000 78.689
46.66000 76.852
46.68000 82.445
46.70000 87.717
46.72000 88.690
46.74000 90.545
46.76000 97.845
46.78000 103.973
46.80000 100.678
46.82000 101.652
46.84000 107.882
46.86000 103.336
46.88000 101.129
46.90000 104.281
46.92000 110.371
46.94000 112.310
46.96000 110.596
46.98000 111.594
47.00000 110.487
47.02000 110.866
47.04000 113.894
47.06000 115.630
47.08000 114.716
47.10000 120.858
47.12000 121.076
47.14000 115.886
47.16000 113.007
47.18000 111.726
47.20000 110.802
47.22000 108.194
47.24000 106.723
47.26000 107.951
47.28000 107.009
47.30000 102.906
47.32000 93.225
47.34000 92.176
47.36000 92.190
47.38000 90.418
47.40000 91.394
47.42000 87.441
47.44000 86.910
47.46000 85.258
47.48000 78.972
47.50000 84.146
47.52000 80.669
47.54000 75.684
47.56000 75.698
47.58000 70.069
47.60000 71.828
47.62000 65.410
47.64000 63.199
47.66000 58.560
47.68000 53.325
47.70000 52.972
47.72000 49.948
47.74000 47.481
47.76000 44.676
47.78000 41.492
47.80000 37.051
47.82000 36.326
47.84000 36.612
47.86000 33.799
47.88000 28.554
47.90000 33.012
47.92000 33.498
47.94000 29.263
47.96000 27.094
47.98000 24.573
48.00000 27.108
48.02000 26.359
48.04000 25.946
48.06000 21.010
48.08000 14.713
48.10000 11.817
48.12000 16.029
48.14000 14.903
48.16000 14.084
48.18000 11.139
48.20000 11.697
48.22000 14.414
48.24000 14.024
48.26000 13.271
48.28000 11.762
48.30000 10.168
48.32000 10.810
48.34000 13.510
48.36000 10.439
48.38000 14.596
48.40000 12.815
48.42000 9.366
48.44000 4.080
48.46000 3.157
48.48000 6.386
48.50000 1.805
48.52000 2.681
48.54000 2.182
48.56000 3.811
48.58000 3.517
48.60000 3.868
48.62000 3.736
48.64000 5.578
48.66000 8.781
48.68000 3.630
48.70000 3.201
48.72000 1.338
48.74000 1.947
48.76000 1.040
48.78000 6.657
48.80000 6.861
48.82000 1.302
48.84000 2.021
48.86000 10.459
48.88000 6.215
48.90000 3.032
48.92000 2.992
48.94000 4.120
48.96000 4.564
48.98000 7.652
49.00000 6.752
49.02000 -2.916
49.04000 -0.322
49.06000 2.979
49.08000 6.527
49.10000 2.413
49.12000 -2.901
49.14000 2.115
49.16000 6.192
49.18000 4.417
49.20000 1.719
49.22000 0.680
49.24000 3.196
49.26000 4.326
49.28000 1.360
49.30000 -0.047
49.32000 -0.279
49.34000 -0.783
49.36000 -1.172
49.38000 2.024
49.40000 3.368
49.42000 3.590
49.44000 -2.014
49.46000 0.861
49.48000 3.852
49.50000 1.213
49.52000 2.590
49.54000 4.840
49.56000 -1.121
49.58000 2.163
49.60000 5.303
49.62000 2.789
49.64000 1.631
49.66000 7.788
49.68000 8.301
49.70000 7.732
49.72000 5.072
49.74000 3.617
49.76000 2.358
49.78000 3.035
49.80000 0.749
49.82000 0.308
49.84000 -0.714
49.86000 -1.848
49.88000 1.687
49.90000 6.795
49.92000 4.319
49.94000 2.219
49.96000 0.580
49.98000 0.203
50.00000 0.601
50.02000 1.404
50.04000 -2.761
50.06000 -0.444
50.08000 4.506
50.10000 5.491
50.12000 -1.064
50.14000 -0.381
50.16000 2.919
50.18000 7.101
50.20000 8.715
50.22000 4.066
50.24000 4.396
50.26000 3.498
50.28000 -0.332
50.30000 1.550
50.32000 -0.368
50.34000 3.552
50.36000 5.752
50.38000 2.008
50.40000 0.987
50.42000 5.022
50.44000 -2.731
50.46000 2.817
50.48000 3.809
50.50000 0.633
50.52000 0.208
50.54000 1.282
50.56000 4.759
50.58000 3.270
50.60000 5.304
50.62000 3.247
50.64000 4.003
50.66000 5.715
50.68000 5.922
50.70000 8.015
50.72000 3.299
50.74000 1.820
50.76000 1.808
50.78000 9.100
50.80000 9.337
50.82000 5.149
50.84000 2.647
50.86000 3.570
50.88000 7.382
50.90000 4.791
50.92000 4.614
50.94000 4.311
50.96000 9.544
50.98000 6.926
51.00000 4.079
51.02000 7.597
51.04000 11.604
51.06000 6.006
51.08000 5.324
51.10000 2.285
51.12000 -2.670
51.14000 4.278
51.16000 6.208
51.18000 3.945
51.20000 0.898
51.22000 1.850
51.24000 4.980
51.26000 6.992
51.28000 9.610
51.30000 6.674
51.32000 4.866
51.34000 2.528
51.36000 4.048
51.38000 5.951
51.40000 7.129
51.42000 11.841
51.44000 6.789
51.46000 0.015
51.48000 2.272
51.50000 0.124
51.52000 1.564
51.54000 6.299
51.56000 2.331
51.58000 1.773
51.60000 6.814
51.62000 9.568
51.64000 2.755
51.66000 3.566
51.68000 3.880
51.70000 5.807
51.72000 -0.464
51.74000 -0.382
51.76000 2.395
51.78000 8.567
51.80000 8.752
51.82000 9.103
51.84000 3.125
51.86000 3.010
51.88000 3.451
51.90000 6.322
51.92000 5.066
51.94000 4.918
51.96000 3.197
51.98000 -0.290
52.00000 2.656
52.02000 5.250
52.04000 4.404
52.06000 7.314
52.08000 7.408
52.10000 5.250
52.12000 2.429
52.14000 5.110
52.16000 4.896
52.18000 -0.194
52.20000 3.433
52.22000 3.762
52.24000 4.833
52.26000 3.983
52.28000 -2.652
52.30000 0.281
52.32000 4.358
52.34000 6.450
52.36000 4.515
52.38000 0.741
52.40000 2.515
52.42000 5.077
52.44000 2.618
52.46000 5.629
52.48000 5.488
52.50000 6.820
52.52000 5.982
52.54000 4.085
52.56000 3.211
52.58000 2.392
52.60000 5.084
52.62000 5.187
52.64000 5.610
52.66000 4.054
52.68000 3.212
52.70000 3.701
52.72000 1.144
52.74000 3.595
52.76000 7.316
52.78000 0.147
52.80000 -0.607
52.82000 6.387
52.84000 7.750
52.86000 3.702
52.88000 0.556
52.90000 1.929
52.92000 0.108
52.94000 3.317
52.96000 4.624
52.98000 4.309
53.00000 1.851
53.02000 3.049
53.04000 2.110
53.06000 4.810
53.08000 4.804
53.10000 3.513
53.12000 4.645
53.14000 6.172
53.16000 6.008
53.18000 3.807
53.20000 2.403
53.22000 4.258
53.24000 3.205
53.26000 1.563
53.28000 3.342
53.30000 -0.799
53.32000 0.498
53.34000 0.483
53.36000 -0.415
53.38000 3.121
53.40000 2.419
53.42000 2.348
53.44000 2.314
53.46000 2.254
53.48000 1.712
53.50000 1.850
53.52000 4.198
53.54000 2.343
53.56000 4.577
53.58000 5.905
53.60000 2.942
53.62000 3.468
53.64000 5.671
53.66000 2.146
53.68000 5.192
53.70000 6.342
53.72000 0.955
53.74000 -2.582
53.76000 -0.720
53.78000 5.646
53.80000 9.261
53.82000 2.770
53.84000 2.530
53.86000 -0.727
53.88000 0.701
53.90000 1.444
53.92000 0.442
53.94000 4.514
53.96000 3.585
53.98000 5.478
54.00000 6.289
54.02000 -1.973
54.04000 -2.308
54.06000 -0.857
54.08000 2.033
54.10000 -0.368
54.12000 0.798
54.14000 2.215
54.16000 2.741
54.18000 5.778
54.20000 2.556
54.22000 -1.350
54.24000 0.797
54.26000 6.189
54.28000 3.786
54.30000 0.860
54.32000 0.424
54.34000 5.972
54.36000 5.483
54.38000 1.532
54.40000 -1.284
54.42000 3.337
54.44000 4.459
54.46000 1.815
54.48000 0.962
54.50000 -1.971
54.52000 1.172
54.54000 1.982
54.56000 0.463
54.58000 0.257
54.60000 -0.008
54.62000 2.222
54.64000 3.980
54.66000 1.293
54.68000 1.869
54.70000 4.624
54.72000 2.329
54.74000 2.274
54.76000 2.672
54.78000 1.296
54.80000 2.591
54.82000 -1.168
54.84000 0.114
54.86000 -1.855
54.88000 -1.652
54.90000 -2.321
54.92000 -0.430
54.94000 0.317
54.96000 0.152
54.98000 1.971
55.00000 4.337
55.02000 0.732
55.04000 0.973
55.06000 2.870
55.08000 3.762
55.10000 0.665
55.12000 -1.533
55.14000 3.031
55.16000 -0.903
55.18000 -0.706
55.20000 2.637
55.22000 4.145
55.24000 -0.194
55.26000 0.904
55.28000 -2.586
55.30000 2.175
55.32000 4.197
55.34000 2.042
55.36000 0.408
55.38000 -1.183
55.40000 1.539
55.42000 6.442
55.44000 4.275
55.46000 4.333
55.48000 -0.792
55.50000 0.976
55.52000 0.804
55.54000 0.851
55.56000 0.760
55.58000 0.584
55.60000 1.832
55.62000 3.024
55.64000 2.278
55.66000 2.471
55.68000 3.572
55.70000 6.891
55.72000 2.302
55.74000 0.105
55.76000 -0.169
55.78000 -0.011
55.80000 -0.762
55.82000 1.042
55.84000 0.500
55.86000 3.071
55.88000 0.589
55.90000 0.502
55.92000 2.592
55.94000 5.282
55.96000 4.195
55.98000 0.417
56.00000 -0.796
56.02000 2.746
56.04000 1.446
56.06000 -1.260
56.08000 -1.742
56.10000 -0.877
56.12000 -1.459
56.14000 1.086
56.16000 1.310
56.18000 1.798
56.20000 1.196
56.22000 1.011
56.24000 0.018
56.26000 2.626
56.28000 2.584
56.30000 3.149
56.32000 -0.419
56.34000 -0.983
56.36000 -2.355
56.38000 1.570
56.40000 -0.378
56.42000 0.744
56.44000 -0.460
56.46000 0.617
56.48000 -0.096
56.50000 2.539
56.52000 3.790
56.54000 5.065
56.56000 6.285
56.58000 3.538
56.60000 0.196
56.62000 0.358
56.64000 1.792
56.66000 2.226
56.68000 5.735
56.70000 5.587
56.72000 3.390
56.74000 2.341
56.76000 3.519
56.78000 5.153
56.80000 4.153
56.82000 3.731
56.84000 7.427
56.86000 5.997
56.88000 7.418
56.90000 2.388
56.92000 2.186
56.94000 -2.527
56.96000 5.075
56.98000 5.595
57.00000 1.636
57.02000 3.763
57.04000 4.433
57.06000 5.682
57.08000 4.229
57.10000 3.399
57.12000 3.493
57.14000 3.691
57.16000 4.134
57.18000 5.417
57.20000 8.117
57.22000 1.180
57.24000 0.688
57.26000 6.161
57.28000 6.310
57.30000 2.203
57.32000 -1.481
57.34000 -2.494
57.36000 1.187
57.38000 4.852
57.40000 3.119
57.42000 1.907
57.44000 3.780
57.46000 2.700
57.48000 0.731
57.50000 0.721
57.52000 -0.405
57.54000 1.166
57.56000 1.676
57.58000 1.654
57.60000 2.230
57.62000 1.300
57.64000 1.765
57.66000 6.396
57.68000 5.674
57.70000 7.063
57.72000 3.353
57.74000 1.739
57.76000 0.883
57.78000 6.744
57.80000 5.643
57.82000 7.031
57.84000 6.228
57.86000 4.176
57.88000 5.568
57.90000 6.837
57.92000 3.116
57.94000 -0.156
57.96000 4.118
57.98000 0.245
58.00000 2.875
58.02000 6.542
58.04000 4.845
58.06000 6.161
58.08000 2.102
58.10000 8.555
58.12000 5.293
58.14000 3.577
58.16000 2.975
58.18000 2.473
58.20000 2.180
58.22000 2.222
58.24000 1.917
58.26000 4.443
58.28000 6.409
58.30000 2.724
58.32000 3.761
58.34000 2.642
58.36000 2.077
58.38000 4.417
58.40000 2.645
58.42000 2.246
58.44000 1.252
58.46000 3.779
58.48000 2.051
58.50000 1.748
58.52000 0.092
58.54000 0.055
58.56000 3.603
58.58000 3.997
58.60000 0.006
58.62000 -0.349
58.64000 2.052
58.66000 1.403
58.68000 5.104
58.70000 3.125
58.72000 1.641
58.74000 1.496
58.76000 4.339
58.78000 2.350
58.80000 1.985
58.82000 10.186
58.84000 8.796
58.86000 5.756
58.88000 3.113
58.90000 -0.801
58.92000 -2.436
58.94000 0.260
58.96000 1.297
58.98000 0.189
59.00000 3.610
59.02000 6.268
59.04000 7.780
59.06000 4.768
59.08000 2.777
59.10000 5.368
59.12000 6.914
59.14000 8.021
59.16000 2.119
59.18000 0.208
59.20000 6.332
59.22000 7.586
59.24000 2.404
59.26000 -0.274
59.28000 3.970
59.30000 5.179
59.32000 3.617
59.34000 2.544
59.36000 -1.269
59.38000 4.048
59.40000 3.131
59.42000 3.419
59.44000 5.213
59.46000 4.064
59.48000 2.836
59.50000 2.436
59.52000 2.276
59.54000 1.146
59.56000 1.219
59.58000 2.572
59.60000 0.692
59.62000 1.089
59.64000 0.529
59.66000 2.948
59.68000 4.527
59.70000 3.064
59.72000 6.327
59.74000 5.594
59.76000 2.936
59.78000 4.464
59.80000 6.761
59.82000 3.969
59.84000 1.378
59.86000 -2.414
59.88000 -0.836
59.90000 1.973
59.92000 6.700
59.94000 6.164
59.96000 5.770
59.98000 3.085
60.00000 1.132
60.02000 0.243
60.04000 1.355
60.06000 3.711
60.08000 3.857
60.10000 1.849
60.12000 2.591
60.14000 3.710
60.16000 -1.298
60.18000 0.085
60.20000 6.243
60.22000 4.627
60.24000 0.862
60.26000 5.488
60.28000 5.139
60.30000 3.780
60.32000 -0.193
60.34000 -1.739
60.36000 -1.600
60.38000 0.184
60.40000 1.951
60.42000 1.946
60.44000 4.802
60.46000 3.812
60.48000 0.840
60.50000 -2.238
60.52000 -2.398
60.54000 2.189
60.56000 1.093
60.58000 1.332
60.60000 7.115
60.62000 6.407
60.64000 3.999
60.66000 1.207
60.68000 5.022
60.70000 4.240
60.72000 1.329
60.74000 -0.366
60.76000 1.336
60.78000 2.912
60.80000 5.019
60.82000 2.136
60.84000 1.373
60.86000 2.224
60.88000 5.620
60.90000 7.861
60.92000 5.470
60.94000 2.831
60.96000 0.882
60.98000 -2.169
61.00000 -0.209
61.02000 1.343
61.04000 -1.228
61.06000 2.697
61.08000 0.294
61.10000 -0.281
61.12000 3.224
61.14000 3.097
61.16000 2.938
61.18000 1.957
61.20000 -0.023
61.22000 -1.129
61.24000 -1.406
61.26000 -1.235
61.28000 0.526
61.30000 4.291
61.32000 5.271
61.34000 4.654
61.36000 2.233
61.38000 3.013
61.40000 0.426
61.42000 1.218
61.44000 -0.067
61.46000 -0.974
61.48000 -1.599
61.50000 0.267
61.52000 0.328
61.54000 2.226
61.56000 1.271
61.58000 2.663
61.60000 1.784
61.62000 1.362
61.64000 4.370
61.66000 3.650
61.68000 3.575
61.70000 1.794
61.72000 2.041
61.74000 0.991
61.76000 2.741
61.78000 5.565
61.80000 5.932
61.82000 6.817
61.84000 3.112
61.86000 3.558
61.88000 3.799
61.90000 2.495
61.92000 2.276
61.94000 2.580
61.96000 2.324
61.98000 -2.356
62.00000 3.718
62.02000 2.783
62.04000 1.789
62.06000 -0.686
62.08000 4.042
62.10000 4.234
62.12000 -0.124
62.14000 4.952
62.16000 7.706
62.18000 2.759
62.20000 0.858
62.22000 2.304
62.24000 1.191
62.26000 0.304
62.28000 -0.531
62.30000 1.583
62.32000 1.931
62.34000 2.216
62.36000 0.391
62.38000 2.963
62.40000 0.699
62.42000 1.105
62.44000 2.868
62.46000 3.965
62.48000 0.538
62.50000 0.862
62.52000 0.784
62.54000 4.130
62.56000 1.862
62.58000 -0.974
62.60000 0.194
62.62000 5.837
62.64000 4.476
62.66000 0.942
62.68000 0.486
62.70000 0.560
62.72000 -1.001
62.74000 -0.797
62.76000 1.364
62.78000 3.528
62.80000 4.408
62.82000 1.801
62.84000 0.686
62.86000 -1.006
62.88000 3.458
62.90000 4.915
62.92000 1.854
62.94000 1.996
62.96000 0.817
62.98000 -2.378
63.00000 -0.342
63.02000 1.678
63.04000 1.161
63.06000 5.267
63.08000 3.518
63.10000 -1.205
63.12000 0.835
63.14000 2.416
63.16000 5.228
63.18000 6.367
63.20000 0.837
63.22000 1.350
63.24000 0.851
63.26000 -1.173
63.28000 1.746
63.30000 -1.350
63.32000 -0.223
63.34000 0.307
63.36000 0.869
63.38000 -1.834
63.40000 2.685
63.42000 2.694
63.44000 -0.371
63.46000 0.536
63.48000 0.829
63.50000 0.386
63.52000 0.919
63.54000 1.432
63.56000 0.836
63.58000 5.311
63.60000 5.841
63.62000 5.095
63.64000 0.288
63.66000 -1.930
63.68000 -2.379
63.70000 -1.696
63.72000 0.914
63.74000 0.086
63.76000 -0.108
63.78000 1.399
63.80000 0.560
63.82000 2.306
63.84000 1.250
63.86000 0.951
63.88000 2.817
63.90000 0.593
63.92000 1.036
63.94000 1.186
63.96000 0.190
63.98000 1.308
64.00000 4.819
64.02000 5.072
64.04000 2.988
64.06000 0.960
64.08000 0.360
64.10000 -1.900
64.12000 -1.165
64.14000 3.265
64.16000 2.067
64.18000 2.827
64.20000 3.684
64.22000 2.262
64.24000 -0.969
64.26000 -2.392
64.28000 -0.926
64.30000 0.881
64.32000 2.182
64.34000 1.578
64.36000 -0.930
64.38000 -1.583
64.40000 1.126
64.42000 1.898
64.44000 2.085
64.46000 -0.903
64.48000 1.210
64.50000 2.373
64.52000 -0.785
64.54000 -2.141
64.56000 -1.411
64.58000 1.921
64.60000 1.187
64.62000 -2.387
64.64000 -1.242
64.66000 -1.070
64.68000 -0.829
64.70000 -0.646
64.72000 1.239
64.74000 1.853
64.76000 1.736
64.78000 0.859
64.80000 -0.787
64.82000 0.874
64.84000 3.843
64.86000 1.214
64.88000 0.813
64.90000 -0.552
64.92000 -1.867
64.94000 0.152
64.96000 4.299
64.98000 5.097
65.00000 2.333
65.02000 2.520
65.04000 4.431
65.06000 1.667
65.08000 1.264
65.10000 0.135
65.12000 -0.575
65.14000 0.944
65.16000 -0.451
65.18000 2.664
65.20000 0.214
65.22000 0.315
65.24000 2.713
65.26000 5.244
65.28000 2.815
65.30000 3.380
65.32000 2.674
65.34000 3.446
65.36000 3.962
65.38000 0.372
65.40000 0.380
65.42000 2.131
65.44000 2.236
65.46000 -0.970
65.48000 -2.381
65.50000 0.459
65.52000 1.944
65.54000 3.332
65.56000 3.198
65.58000 2.478
65.60000 1.699
65.62000 1.629
65.64000 3.429
65.66000 1.918
65.68000 2.137
65.70000 3.127
65.72000 -0.354
65.74000 1.432
65.76000 7.523
65.78000 6.745
65.80000 3.813
65.82000 2.645
65.84000 2.728
65.86000 3.357
65.88000 4.305
65.90000 2.599
65.92000 3.450
65.94000 3.436
65.96000 3.203
65.98000 2.172
66.00000 2.166
66.02000 0.859
66.04000 1.706
66.06000 4.310
66.08000 1.437
66.10000 1.996
66.12000 2.639
66.14000 -0.721
66.16000 -1.091
66.18000 -1.169
66.20000 -1.239
66.22000 1.206
66.24000 2.117
66.26000 1.776
66.28000 1.723
66.30000 2.393
66.32000 -0.418
66.34000 0.360
66.36000 1.472
66.38000 2.152
66.40000 2.503
66.42000 3.608
66.44000 4.263
66.46000 4.277
66.48000 3.374
66.50000 1.870
66.52000 0.114
66.54000 -2.390
66.56000 1.539
66.58000 1.182
66.60000 0.520
66.62000 0.253
66.64000 2.184
66.66000 0.354
66.68000 3.956
66.70000 1.937
66.72000 0.547
66.74000 -1.148
66.76000 -0.539
66.78000 1.687
66.80000 2.402
66.82000 0.640
66.84000 -1.543
66.86000 -0.769
66.88000 0.358
66.90000 1.956
66.92000 4.535
66.94000 4.159
66.96000 5.829
66.98000 3.764
67.00000 1.094
67.02000 0.178
67.04000 0.729
67.06000 -1.424
67.08000 0.806
67.10000 3.085
67.12000 5.437
67.14000 3.636
67.16000 3.484
67.18000 3.865
67.20000 1.470
67.22000 3.244
67.24000 2.244
67.26000 1.952
67.28000 2.034
67.30000 -0.047
67.32000 2.204
67.34000 0.916
67.36000 1.665
67.38000 1.871
67.40000 -0.420
67.42000 1.237
67.44000 7.305
67.46000 6.585
67.48000 3.851
67.50000 5.937
67.52000 -0.199
67.54000 2.276
67.56000 4.423
67.58000 2.871
67.60000 4.433
67.62000 6.428
67.64000 3.822
67.66000 4.931
67.68000 4.834
67.70000 4.473
67.72000 4.842
67.74000 3.412
67.76000 5.980
67.78000 7.479
67.80000 7.559
67.82000 5.755
67.84000 8.036
67.86000 7.324
67.88000 8.508
67.90000 6.730
67.92000 8.965
67.94000 9.406
67.96000 7.170
67.98000 7.149
68.00000 7.515
68.02000 8.989
68.04000 11.796
68.06000 10.368
68.08000 13.821
68.10000 15.156
68.12000 15.642
68.14000 13.267
68.16000 12.926
68.18000 12.630
68.20000 14.543
68.22000 21.139
68.24000 20.247
68.26000 19.087
68.28000 21.953
68.30000 18.720
68.32000 22.949
68.34000 21.724
68.36000 20.035
68.38000 21.438
68.40000 24.646
68.42000 23.985
68.44000 24.953
68.46000 29.473
68.48000 26.961
68.50000 29.441
68.52000 30.046
68.54000 26.390
68.56000 24.869
68.58000 29.024
68.60000 30.968
68.62000 26.967
68.64000 26.472
68.66000 27.467
68.68000 29.764
68.70000 32.670
68.72000 31.028
68.74000 30.343
68.76000 30.274
68.78000 30.362
68.80000 32.666
68.82000 32.848
68.84000 28.877
68.86000 28.742
68.88000 30.162
68.90000 31.298
68.92000 29.389
68.94000 30.961
68.96000 26.634
68.98000 25.687
69.00000 25.533
69.02000 24.623
69.04000 24.128
69.06000 27.550
69.08000 25.548
69.10000 23.773
69.12000 26.082
69.14000 23.890
69.16000 19.658
69.18000 20.768
69.20000 19.851
69.22000 18.924
69.24000 19.985
69.26000 15.405
69.28000 15.338
69.30000 13.780
69.32000 14.149
69.34000 18.691
69.36000 18.795
69.38000 13.564
69.40000 13.673
69.42000 13.692
69.44000 15.297
69.46000 11.256
69.48000 8.606
69.50000 9.431
69.52000 13.119
69.54000 11.869
69.56000 11.944
69.58000 8.198
69.60000 10.212
69.62000 11.792
69.64000 10.359
69.66000 9.034
69.68000 11.294
69.70000 10.032
69.72000 8.277
69.74000 8.114
69.76000 2.989
69.78000 5.311
69.80000 10.017
69.82000 9.077
69.84000 8.534
69.86000 7.216
69.88000 1.536
69.90000 3.640
69.92000 5.269
69.94000 2.433
69.96000 5.433
69.98000 4.710
70.00000 1.841
70.02000 2.365
70.04000 3.589
70.06000 2.478
70.08000 2.263
70.10000 3.403
70.12000 1.569
70.14000 3.056
70.16000 3.649
70.18000 5.994
70.20000 0.075
70.22000 -2.363
70.24000 0.733
70.26000 1.546
70.28000 2.645
70.30000 3.269
70.32000 0.924
70.34000 2.415
70.36000 4.585
70.38000 5.615
70.40000 2.003
70.42000 2.429
70.44000 1.493
70.46000 -0.874
70.48000 -0.813
70.50000 1.014
70.52000 0.286
70.54000 -1.283
70.56000 4.213
70.58000 4.565
70.60000 1.374
70.62000 -1.322
70.64000 0.363
70.66000 1.394
70.68000 1.444
70.70000 2.804
70.72000 1.125
70.74000 1.085
70.76000 -2.072
70.78000 -0.790
70.80000 -0.668
70.82000 4.144
70.84000 4.381
70.86000 5.188
70.88000 2.784
70.90000 -2.314
70.92000 -0.861
70.94000 -0.826
70.96000 0.109
70.98000 3.774
71.00000 3.199
71.02000 4.810
71.04000 5.335
71.06000 7.636
71.08000 8.467
71.10000 3.653
71.12000 0.972
71.14000 1.061
71.16000 -0.444
71.18000 1.847
71.20000 4.951
71.22000 4.431
71.24000 5.109
71.26000 3.370
71.28000 3.296
71.30000 4.403
71.32000 3.790
71.34000 -0.342
71.36000 -0.013
71.38000 0.397
71.40000 -0.206
71.42000 -0.237
71.44000 0.807
71.46000 2.008
71.48000 3.201
71.50000 6.357
71.52000 5.511
71.54000 4.398
71.56000 4.629
71.58000 5.502
71.60000 4.079
71.62000 6.148
71.64000 9.017
71.66000 4.593
71.68000 1.718
71.70000 4.279
71.72000 2.276
71.74000 2.256
71.76000 1.857
71.78000 2.893
71.80000 5.006
71.82000 5.676
71.84000 -2.010
71.86000 -2.239
71.88000 1.693
71.90000 0.850
71.92000 0.635
71.94000 3.437
71.96000 2.885
71.98000 2.983
72.00000 4.549
72.02000 1.352
72.04000 2.270
72.06000 1.525
72.08000 3.016
72.10000 5.060
72.12000 5.967
72.14000 0.308
72.16000 3.377
72.18000 -1.355
72.20000 -1.162
72.22000 -0.580
72.24000 -1.424
72.26000 -0.984
72.28000 1.067
72.30000 -0.025
72.32000 -1.141
72.34000 -1.586
72.36000 4.927
72.38000 5.459
72.40000 2.707
72.42000 1.179
72.44000 -1.868
72.46000 -0.193
72.48000 7.820
72.50000 7.495
72.52000 3.506
72.54000 2.551
72.56000 5.448
72.58000 4.609
72.60000 2.618
72.62000 0.766
72.64000 -1.294
72.66000 0.729
72.68000 -1.432
72.70000 -1.313
72.72000 -1.481
72.74000 -0.568
72.76000 1.006
72.78000 -1.193
72.80000 -2.235
72.82000 1.155
72.84000 2.944
72.86000 4.651
72.88000 6.460
72.90000 3.106
72.92000 3.266
72.94000 3.140
72.96000 4.026
72.98000 2.839
73.00000 0.798
73.02000 1.207
73.04000 0.714
73.06000 2.170
73.08000 0.663
73.10000 0.838
73.12000 0.515
73.14000 1.266
73.16000 1.403
73.18000 1.610
73.20000 0.225
73.22000 3.577
73.24000 2.570
73.26000 -1.824
73.28000 1.063
73.30000 4.659
73.32000 5.205
73.34000 3.929
73.36000 2.590
73.38000 2.482
73.40000 0.736
73.42000 1.605
73.44000 3.937
73.46000 7.061
73.48000 5.419
73.50000 1.737
73.52000 -0.266
73.54000 5.100
73.56000 8.071
73.58000 6.607
73.60000 4.005
73.62000 1.966
73.64000 0.228
73.66000 0.586
73.68000 6.547
73.70000 3.157
73.72000 1.390
73.74000 1.029
73.76000 -2.199
73.78000 -0.748
73.80000 1.690
73.82000 2.830
73.84000 2.216
73.86000 1.928
73.88000 0.720
73.90000 -1.001
73.92000 2.492
73.94000 5.106
73.96000 0.470
73.98000 1.001
74.00000 2.498
74.02000 7.215
74.04000 3.874
74.06000 1.658
74.08000 3.376
74.10000 0.978
74.12000 3.227
74.14000 0.499
74.16000 -2.017
74.18000 -2.000
74.20000 -1.473
74.22000 2.695
74.24000 3.908
74.26000 2.379
74.28000 2.835
74.30000 5.928
74.32000 3.425
74.34000 -1.980
74.36000 2.904
74.38000 6.943
74.40000 3.647
74.42000 3.063
74.44000 6.196
74.46000 3.064
74.48000 4.191
74.50000 3.193
74.52000 5.526
74.54000 4.403
74.56000 1.852
74.58000 1.018
74.60000 1.703
74.62000 5.196
74.64000 3.695
74.66000 1.077
74.68000 2.075
74.70000 3.621
74.72000 1.397
74.74000 4.341
74.76000 5.112
74.78000 1.586
74.80000 3.826
74.82000 6.559
74.84000 2.550
74.86000 -0.325
74.88000 -2.180
74.90000 4.829
74.92000 4.863
74.94000 1.663
74.96000 -0.318
74.98000 -2.002
75.00000 1.649
75.02000 2.798
75.04000 0.853
75.06000 0.787
75.08000 2.073
75.10000 3.959
75.12000 4.674
75.14000 3.906
75.16000 4.036
75.18000 2.759
75.20000 0.623
75.22000 0.278
75.24000 -1.474
75.26000 3.674
75.28000 1.557
75.30000 -0.368
75.32000 1.043
75.34000 1.183
75.36000 2.675
75.38000 4.086
75.40000 5.004
75.42000 4.493
75.44000 0.632
75.46000 -0.738
75.48000 0.954
75.50000 0.877
75.52000 3.563
75.54000 4.237
75.56000 1.645
75.58000 5.269
75.60000 4.365
75.62000 5.217
75.64000 6.377
75.66000 0.613
75.68000 -2.207
75.70000 4.777
75.72000 4.173
75.74000 5.045
75.76000 2.616
75.78000 5.820
75.80000 6.503
75.82000 5.900
75.84000 2.804
75.86000 1.265
75.88000 5.284
75.90000 5.142
75.92000 4.975
75.94000 5.270
75.96000 1.971
75.98000 2.706
76.00000 2.382
76.02000 0.400
76.04000 1.629
76.06000 0.922
76.08000 3.424
76.10000 1.734
76.12000 1.468
76.14000 0.394
76.16000 -0.254
76.18000 3.364
76.20000 1.828
76.22000 1.193
76.24000 1.499
76.26000 3.478
76.28000 4.581
76.30000 0.073
76.32000 1.937
76.34000 6.404
76.36000 6.441
76.38000 3.069
76.40000 -1.513
76.42000 1.687
76.44000 -0.874
76.46000 3.161
76.48000 3.894
76.50000 1.941
76.52000 -0.699
76.54000 1.151
76.56000 0.212
76.58000 1.459
76.60000 3.347
76.62000 1.840
76.64000 1.168
76.66000 -0.666
76.68000 2.679
76.70000 2.076
76.72000 0.373
76.74000 -2.221
76.76000 1.301
76.78000 5.621
76.80000 4.944
76.82000 7.611
76.84000 4.718
76.86000 2.737
76.88000 1.437
76.90000 0.035
76.92000 4.475
76.94000 4.361
76.96000 -0.697
76.98000 -0.161
77.00000 2.811
77.02000 5.357
77.04000 2.827
77.06000 2.303
77.08000 -0.001
77.10000 0.645
77.12000 3.406
77.14000 0.625
77.16000 0.418
77.18000 -0.237
77.20000 0.405
77.22000 2.470
77.24000 0.718
77.26000 -0.426
77.28000 4.358
77.30000 1.564
77.32000 -1.341
77.34000 -0.770
77.36000 -1.140
77.38000 1.535
77.40000 0.915
77.42000 1.519
77.44000 -1.961
77.46000 -0.030
77.48000 4.535
77.50000 2.209
77.52000 3.239
77.54000 8.172
77.56000 7.009
77.58000 5.717
77.60000 3.029
77.62000 -1.672
77.64000 -0.067
77.66000 1.960
77.68000 0.559
77.70000 4.338
77.72000 1.575
77.74000 -1.836
77.76000 -2.227
77.78000 1.579
77.80000 6.502
77.82000 1.466
77.84000 5.532
77.86000 3.212
77.88000 0.044
77.90000 0.757
77.92000 1.624
77.94000 -1.493
77.96000 -1.023
77.98000 -1.178
78.00000 -0.263
78.02000 2.646
78.04000 4.088
78.06000 3.544
78.08000 3.485
78.10000 6.406
78.12000 3.856
78.14000 1.902
78.16000 3.847
78.18000 1.734
78.20000 4.801
78.22000 5.223
78.24000 4.409
78.26000 2.111
78.28000 3.927
78.30000 3.200
78.32000 0.981
78.34000 2.123
78.36000 3.386
78.38000 4.031
78.40000 1.539
78.42000 1.407
78.44000 4.803
78.46000 4.293
78.48000 1.499
78.50000 -2.230
78.52000 -0.102
78.54000 1.365
78.56000 2.308
78.58000 1.138
78.60000 -2.229
78.62000 1.840
78.64000 6.649
78.66000 2.465
78.68000 0.200
78.70000 -0.609
78.72000 2.194
78.74000 1.477
78.76000 -1.264
78.78000 2.153
78.80000 0.861
78.82000 -1.562
78.84000 1.219
78.86000 3.540
78.88000 4.779
78.90000 2.945
78.92000 1.573
78.94000 0.077
78.96000 -0.460
78.98000 0.166
79.00000 1.732
79.02000 -2.245
79.04000 -0.249
79.06000 2.862
79.08000 2.116
79.10000 -0.027
79.12000 0.843
79.14000 2.403
79.16000 2.072
79.18000 0.026
79.20000 1.785
79.22000 6.454
79.24000 4.636
79.26000 -0.246
79.28000 0.181
79.30000 1.791
79.32000 1.079
79.34000 -0.232
79.36000 0.534
79.38000 -1.022
79.40000 1.706
79.42000 2.831
79.44000 -0.512
79.46000 2.757
79.48000 2.222
79.50000 2.239
79.52000 3.908
79.54000 1.980
79.56000 1.937
79.58000 4.355
79.60000 2.661
79.62000 2.157
79.64000 -0.300
79.66000 3.098
79.68000 1.868
79.70000 -0.563
79.72000 -2.273
79.74000 0.798
79.76000 3.018
79.78000 5.486
79.80000 4.900
79.82000 4.936
79.84000 5.534
79.86000 5.705
79.88000 3.211
79.90000 0.327
79.92000 -0.179
79.94000 4.931
79.96000 5.465
79.98000 3.266
80.00000 2.045
80.02000 0.379
80.04000 -1.717
80.06000 -2.275
80.08000 0.419
80.10000 5.253
80.12000 3.086
80.14000 -0.026
80.16000 2.646
80.18000 2.121
80.20000 0.021
80.22000 -0.920
80.24000 0.306
80.26000 1.542
80.28000 0.835
80.30000 2.614
80.32000 0.249
80.34000 -1.525
80.36000 2.342
80.38000 4.884
80.40000 2.855
80.42000 2.450
80.44000 -0.379
80.46000 -0.795
80.48000 2.371
80.50000 -0.440
80.52000 2.038
80.54000 -0.855
80.56000 -0.271
80.58000 1.701
80.60000 0.726
80.62000 1.972
80.64000 1.838
80.66000 1.561
80.68000 2.264
80.70000 4.305
80.72000 1.576
80.74000 -0.210
80.76000 3.673
80.78000 4.647
80.80000 1.830
80.82000 0.519
80.84000 -2.377
80.86000 0.468
80.88000 0.048
80.90000 1.513
80.92000 1.140
80.94000 1.560
80.96000 1.205
80.98000 0.331
81.00000 1.771
81.02000 -1.504
81.04000 -1.444
81.06000 -1.839
81.08000 2.792
81.10000 4.840
81.12000 2.733
81.14000 3.102
81.16000 1.111
81.18000 0.668
81.20000 -2.407
81.22000 2.247
81.24000 4.217
81.26000 1.730
81.28000 3.156
81.30000 4.265
81.32000 -1.537
81.34000 -1.115
81.36000 1.353
81.38000 -0.647
81.40000 1.207
81.42000 0.897
81.44000 5.131
81.46000 6.681
81.48000 1.132
81.50000 1.245
81.52000 3.524
81.54000 4.264
81.56000 2.493
81.58000 0.770
81.60000 3.855
81.62000 2.151
81.64000 -0.605
81.66000 1.993
81.68000 4.322
81.70000 7.140
81.72000 7.852
81.74000 4.887
81.76000 6.292
81.78000 7.873
81.80000 9.019
81.82000 5.901
81.84000 6.200
81.86000 12.406
81.88000 10.233
81.90000 10.650
81.92000 10.610
81.94000 9.948
81.96000 9.877
81.98000 13.846
82.00000 20.324
82.02000 15.855
82.04000 10.378
82.06000 10.574
82.08000 9.942
82.10000 12.136
82.12000 10.613
82.14000 6.650
82.16000 12.380
82.18000 12.485
82.20000 12.024
82.22000 15.056
82.24000 15.800
82.26000 15.889
82.28000 17.496
82.30000 16.262
82.32000 18.010
82.34000 20.721
82.36000 24.609
82.38000 25.237
82.40000 22.284
82.42000 20.279
82.44000 17.557
82.46000 23.746
82.48000 26.488
82.50000 21.584
82.52000 18.045
82.54000 24.328
82.56000 27.080
82.58000 26.111
82.60000 26.626
82.62000 27.390
82.64000 28.725
82.66000 32.458
82.68000 32.979
82.70000 36.344
82.72000 31.397
82.74000 28.399
82.76000 30.317
82.78000 36.292
82.80000 40.239
82.82000 32.185
82.84000 34.955
82.86000 32.703
82.88000 36.113
82.90000 38.812
82.92000 37.874
82.94000 42.881
82.96000 37.178
82.98000 41.923
83.00000 48.453
83.02000 45.578
83.04000 39.472
83.06000 42.868
83.08000 43.561
83.10000 39.825
83.12000 37.319
83.14000 34.466
83.16000 36.601
83.18000 41.224
83.20000 39.973
83.22000 40.450
83.24000 37.223
83.26000 36.418
83.28000 36.558
83.30000 31.554
83.32000 29.115
83.34000 29.411
83.36000 35.974
83.38000 34.838
83.40000 28.848
83.42000 27.995
83.44000 24.494
83.46000 30.201
83.48000 29.573
83.50000 30.483
83.52000 28.538
83.54000 27.986
83.56000 27.567
83.58000 27.976
83.60000 24.698
83.62000 19.595
83.64000 23.647
83.66000 21.393
83.68000 26.787
83.70000 25.596
83.72000 24.469
83.74000 19.906
83.76000 21.962
83.78000 21.744
83.80000 21.056
83.82000 19.953
83.84000 17.630
83.86000 14.258
83.88000 16.125
83.90000 14.861
83.92000 13.537
83.94000 13.722
83.96000 12.379
83.98000 12.513
84.00000 15.753
84.02000 15.556
84.04000 13.809
84.06000 12.208
84.08000 9.365
84.10000 10.704
84.12000 9.284
84.14000 6.780
84.16000 6.153
84.18000 8.546
84.20000 6.921
84.22000 3.087
84.24000 6.342
84.26000 8.088
84.28000 7.282
84.30000 2.292
84.32000 -2.367
84.34000 0.288
84.36000 2.521
84.38000 7.576
84.40000 8.442
84.42000 7.207
84.44000 2.665
84.46000 5.899
84.48000 6.586
84.50000 3.581
84.52000 5.482
84.54000 4.327
84.56000 6.519
84.58000 2.968
84.60000 -1.621
84.62000 -1.300
84.64000 1.762
84.66000 1.882
84.68000 0.834
84.70000 6.137
84.72000 5.696
84.74000 5.778
84.76000 2.455
84.78000 1.080
84.80000 2.754
84.82000 4.100
84.84000 1.275
84.86000 -1.663
84.88000 -2.320
84.90000 -1.594
84.92000 -0.168
84.94000 3.847
84.96000 6.601
84.98000 4.446
85.00000 0.535
85.02000 3.563
85.04000 0.469
85.06000 -2.302
85.08000 2.772
85.10000 3.659
85.12000 0.675
85.14000 1.880
85.16000 1.507
85.18000 1.595
85.20000 7.715
85.22000 5.316
85.24000 2.778
85.26000 1.086
85.28000 -0.059
85.30000 0.437
85.32000 1.776
85.34000 2.034
85.36000 -0.696
85.38000 1.059
85.40000 1.978
85.42000 1.187
85.44000 -2.283
85.46000 0.216
85.48000 -1.976
85.50000 0.434
85.52000 1.875
85.54000 0.746
85.56000 -0.983
85.58000 2.869
85.60000 3.913
85.62000 2.376
85.64000 -0.614
85.66000 0.173
85.68000 0.082
85.70000 -0.479
85.72000 3.403
85.74000 4.095
85.76000 2.564
85.78000 3.288
85.80000 7.403
85.82000 2.140
85.84000 5.703
85.86000 6.133
85.88000 1.884
85.90000 0.135
85.92000 0.511
85.94000 3.582
85.96000 0.780
85.98000 -2.286
86.00000 2.234
86.02000 3.193
86.04000 6.144
86.06000 5.822
86.08000 3.223
86.10000 2.251
86.12000 2.840
86.14000 2.665
86.16000 4.747
86.18000 4.348
86.20000 1.844
86.22000 3.736
86.24000 3.931
86.26000 7.642
86.28000 6.372
86.30000 2.436
86.32000 4.548
86.34000 6.158
86.36000 7.347
86.38000 3.740
86.40000 -0.868
86.42000 5.892
86.44000 6.220
86.46000 1.223
86.48000 -1.077
86.50000 -0.319
86.52000 1.214
86.54000 9.520
86.56000 11.238
86.58000 5.587
86.60000 2.778
86.62000 5.635
86.64000 11.021
86.66000 9.326
86.68000 5.082
86.70000 9.170
86.72000 10.190
86.74000 8.328
86.76000 4.938
86.78000 5.257
86.80000 7.736
86.82000 12.377
86.84000 13.093
86.86000 8.124
86.88000 7.626
86.90000 14.873
86.92000 14.048
86.94000 10.882
86.96000 8.665
86.98000 8.879
87.00000 10.845
87.02000 9.256
87.04000 9.934
87.06000 12.608
87.08000 10.410
87.10000 15.477
87.12000 22.274
87.14000 19.115
87.16000 16.745
87.18000 15.821
87.20000 16.028
87.22000 15.742
87.24000 19.637
87.26000 19.855
87.28000 17.410
87.30000 23.733
87.32000 22.084
87.34000 21.873
87.36000 17.054
87.38000 20.845
87.40000 18.813
87.42000 18.350
87.44000 21.028
87.46000 20.024
87.48000 23.164
87.50000 24.124
87.52000 21.533
87.54000 22.894
87.56000 21.750
87.58000 21.089
87.60000 18.817
87.62000 20.175
87.64000 18.625
87.66000 20.322
87.68000 20.990
87.70000 21.092
87.72000 20.023
87.74000 18.820
87.76000 12.797
87.78000 10.156
87.80000 13.310
87.82000 13.795
87.84000 11.544
87.86000 10.155
87.88000 10.994
87.90000 11.738
87.92000 13.468
87.94000 12.645
87.96000 7.980
87.98000 7.148
88.00000 6.967
88.02000 9.097
88.04000 9.630
88.06000 12.890
88.08000 15.762
88.10000 10.499
88.12000 14.584
88.14000 15.708
88.16000 13.463
88.18000 10.686
88.20000 6.971
88.22000 6.619
88.24000 6.180
88.26000 3.148
88.28000 3.482
88.30000 2.513
88.32000 2.887
88.34000 2.439
88.36000 3.414
88.38000 3.200
88.40000 1.056
88.42000 3.356
88.44000 3.463
88.46000 5.581
88.48000 6.371
88.50000 3.300
88.52000 4.290
88.54000 5.992
88.56000 4.447
88.58000 6.278
88.60000 1.985
88.62000 3.042
88.64000 4.628
88.66000 7.420
88.68000 3.633
88.70000 -1.366
88.72000 -0.907
88.74000 -2.221
88.76000 0.589
88.78000 -0.749
88.80000 -1.635
88.82000 -1.568
88.84000 0.194
88.86000 0.903
88.88000 -0.283
88.90000 -0.593
88.92000 5.905
88.94000 4.798
88.96000 3.597
88.98000 1.282
89.00000 4.881
89.02000 6.205
89.04000 4.987
89.06000 3.482
89.08000 2.549
89.10000 1.857
89.12000 -1.021
89.14000 0.032
89.16000 -2.170
89.18000 -1.023
89.20000 2.690
89.22000 1.046
89.24000 0.139
89.26000 1.934
89.28000 0.244
89.30000 0.108
89.32000 1.131
89.34000 -0.117
89.36000 2.382
89.38000 1.473
89.40000 1.966
89.42000 -0.648
89.44000 -1.982
89.46000 1.420
89.48000 5.684
89.50000 5.261
89.52000 4.096
89.54000 3.907
89.56000 6.741
89.58000 2.778
89.60000 4.423
89.62000 5.353
89.64000 2.768
89.66000 1.939
89.68000 3.598
89.70000 3.094
89.72000 4.709
89.74000 6.874
89.76000 3.987
89.78000 6.508
89.80000 4.644
89.82000 1.486
89.84000 3.983
89.86000 -0.225
89.88000 3.783
89.90000 9.629
89.92000 6.099
89.94000 3.107
89.96000 2.387
89.98000 3.695
90.00000 4.974
90.02000 2.510
90.04000 0.730
90.06000 4.900
90.08000 4.332
90.10000 5.457
90.12000 -2.055
90.14000 -2.056
90.16000 5.796
90.18000 7.899
90.20000 6.811
90.22000 5.021
90.24000 0.867
90.26000 1.262
90.28000 0.868
90.30000 4.833
90.32000 8.943
90.34000 4.042
90.36000 -2.065
90.38000 5.847
90.40000 6.663
90.42000 6.028
90.44000 6.521
90.46000 3.737
90.48000 1.692
90.50000 -0.515
90.52000 1.459
90.54000 3.517
90.56000 1.810
90.58000 2.642
90.60000 2.381
90.62000 2.182
90.64000 0.849
90.66000 2.818
90.68000 7.877
90.70000 9.038
90.72000 4.102
90.74000 2.751
90.76000 6.230
90.78000 5.649
90.80000 1.384
90.82000 1.702
90.84000 5.296
90.86000 4.289
90.88000 4.602
90.90000 1.155
90.92000 1.462
90.94000 4.191
90.96000 0.919
90.98000 6.705
91.00000 5.157
91.02000 6.196
91.04000 7.041
91.06000 5.000
91.08000 3.365
91.10000 4.843
91.12000 7.328
91.14000 8.692
91.16000 5.213
91.18000 -0.810
91.20000 3.093
91.22000 0.948
91.24000 1.306
91.26000 1.206
91.28000 -2.075
91.30000 -1.686
91.32000 -2.078
91.34000 0.839
91.36000 2.064
91.38000 3.809
91.40000 1.082
91.42000 3.606
91.44000 3.233
91.46000 2.465
91.48000 5.837
91.50000 2.225
91.52000 3.514
91.54000 2.330
91.56000 3.349
91.58000 2.484
91.60000 6.791
91.62000 6.251
91.64000 3.244
91.66000 -0.849
91.68000 0.266
91.70000 2.025
91.72000 3.561
91.74000 0.699
91.76000 -0.641
91.78000 2.838
91.80000 3.313
91.82000 3.528
91.84000 3.566
91.86000 2.945
91.88000 3.627
91.90000 6.075
91.92000 2.803
91.94000 -2.000
91.96000 2.645
91.98000 5.238
92.00000 5.128
92.02000 4.831
92.04000 2.300
92.06000 0.097
92.08000 -0.643
92.10000 2.717
92.12000 2.773
92.14000 0.056
92.16000 -1.907
92.18000 0.787
92.20000 1.026
92.22000 4.091
92.24000 7.449
92.26000 4.827
92.28000 5.558
92.30000 1.653
92.32000 -0.243
92.34000 1.814
92.36000 4.620
92.38000 3.878
92.40000 3.746
92.42000 3.110
92.44000 3.942
92.46000 3.462
92.48000 2.223
92.50000 4.694
92.52000 3.575
92.54000 3.364
92.56000 9.829
92.58000 0.577
92.60000 -0.115
92.62000 1.610
92.64000 2.341
92.66000 4.989
92.68000 1.907
92.70000 2.301
92.72000 0.445
92.74000 -1.120
92.76000 -2.099
92.78000 -1.131
92.80000 1.033
92.82000 0.541
92.84000 3.177
92.86000 4.690
92.88000 3.712
92.90000 2.288
92.92000 3.211
92.94000 5.634
92.96000 3.143
92.98000 1.729
93.00000 3.350
93.02000 0.579
93.04000 2.609
93.06000 4.615
93.08000 5.667
93.10000 2.745
93.12000 -1.141
93.14000 1.419
93.16000 3.190
93.18000 5.025
93.20000 2.995
93.22000 1.263
93.24000 5.728
93.26000 7.846
93.28000 4.224
93.30000 3.760
93.32000 6.562
93.34000 6.757
93.36000 7.773
93.38000 4.187
93.40000 2.048
93.42000 4.225
93.44000 -2.110
93.46000 -1.166
93.48000 -1.589
93.50000 1.996
93.52000 2.472
93.54000 1.196
93.56000 2.634
93.58000 1.816
93.60000 4.281
93.62000 6.098
93.64000 6.767
93.66000 3.838
93.68000 0.416
93.70000 3.959
93.72000 3.542
93.74000 2.397
93.76000 6.125
93.78000 7.215
93.80000 5.600
93.82000 0.610
93.84000 0.932
93.86000 -2.116
93.88000 0.881
93.90000 -0.239
93.92000 1.754
93.94000 1.837
93.96000 8.475
93.98000 5.552
94.00000 3.097
94.02000 2.531
94.04000 1.016
94.06000 5.122
94.08000 4.161
94.10000 2.643
94.12000 -0.837
94.14000 0.632
94.16000 4.691
94.18000 6.923
94.20000 6.610
94.22000 5.637
94.24000 2.250
94.26000 0.580
94.28000 2.669
94.30000 0.838
94.32000 -2.091
94.34000 -2.116
94.36000 1.685
94.38000 1.322
94.40000 4.405
94.42000 -1.335
94.44000 0.327
94.46000 2.663
94.48000 2.425
94.50000 4.269
94.52000 5.042
94.54000 2.754
94.56000 1.181
94.58000 2.668
94.60000 2.448
94.62000 2.698
94.64000 -0.524
94.66000 -1.321
94.68000 1.648
94.70000 1.457
94.72000 -1.369
94.74000 1.462
94.76000 2.481
94.78000 2.915
94.80000 2.812
94.82000 8.910
94.84000 2.410
94.86000 0.051
94.88000 6.870
94.90000 3.372
94.92000 1.999
94.94000 -0.455
94.96000 2.650
94.98000 4.816
95.00000 6.605
95.02000 5.846
95.04000 3.381
95.06000 3.130
95.08000 2.272
95.10000 0.680
95.12000 0.810
95.14000 4.071
95.16000 7.255
95.18000 5.586
95.20000 3.070
95.22000 -2.115
95.24000 0.217
95.26000 2.592
95.28000 5.691
95.30000 7.177
95.32000 3.709
95.34000 1.770
95.36000 3.745
95.38000 1.977
95.40000 1.740
95.42000 5.755
95.44000 7.791
95.46000 4.755
95.48000 1.513
95.50000 3.407
95.52000 1.331
95.54000 3.216
95.56000 5.272
95.58000 4.807
95.60000 3.158
95.62000 3.746
95.64000 0.495
95.66000 0.152
95.68000 1.859
95.70000 5.926
95.72000 7.350
95.74000 5.093
95.76000 1.045
95.78000 5.657
95.80000 3.764
95.82000 0.165
95.84000 -0.103
95.86000 2.158
95.88000 5.530
95.90000 3.553
95.92000 6.640
95.94000 3.433
95.96000 0.344
95.98000 -2.104
96.00000 0.830
96.02000 2.302
96.04000 -0.839
96.06000 4.591
96.08000 4.776
96.10000 6.119
96.12000 4.419
96.14000 3.969
96.16000 1.710
96.18000 2.425
96.20000 2.969
96.22000 6.311
96.24000 4.995
96.26000 4.328
96.28000 4.719
96.30000 6.904
96.32000 4.293
96.34000 -1.116
96.36000 2.462
96.38000 6.077
96.40000 3.039
96.42000 2.610
96.44000 4.892
96.46000 3.741
96.48000 5.934
96.50000 2.450
96.52000 5.685
96.54000 3.983
96.56000 1.503
96.58000 1.673
96.60000 5.974
96.62000 6.321
96.64000 4.590
96.66000 2.619
96.68000 3.369
96.70000 7.282
96.72000 8.462
96.74000 8.569
96.76000 5.076
96.78000 2.371
96.80000 0.124
96.82000 3.837
96.84000 4.284
96.86000 2.604
96.88000 3.358
96.90000 3.383
96.92000 0.297
96.94000 -2.083
96.96000 -1.374
96.98000 2.659
97.00000 2.698
97.02000 4.233
97.04000 6.888
97.06000 4.109
97.08000 2.987
97.10000 7.309
97.12000 6.689
97.14000 5.665
97.16000 5.620
97.18000 5.433
97.20000 4.604
97.22000 4.236
97.24000 6.780
97.26000 6.338
97.28000 6.859
97.30000 1.712
97.32000 1.632
97.34000 2.263
97.36000 2.368
97.38000 9.190
97.40000 13.070
97.42000 6.007
97.44000 3.435
97.46000 2.603
97.48000 2.391
97.50000 5.041
97.52000 5.497
97.54000 3.842
97.56000 4.497
97.58000 4.659
97.60000 1.589
97.62000 1.082
97.64000 3.513
97.66000 -1.128
97.68000 3.985
97.70000 4.070
97.72000 3.034
97.74000 4.729
97.76000 7.662
97.78000 6.658
97.80000 5.085
97.82000 4.441
97.84000 11.907
97.86000 11.442
97.88000 10.996
97.90000 10.370
97.92000 4.660
97.94000 2.104
97.96000 2.525
97.98000 0.397
98.00000 8.128
98.02000 11.700
98.04000 16.962
98.06000 7.587
98.08000 -0.379
98.10000 7.790
98.12000 11.636
98.14000 12.528
98.16000 7.181
98.18000 8.677
98.20000 4.394
98.22000 5.726
98.24000 8.458
98.26000 8.675
98.28000 9.846
98.30000 8.069
98.32000 9.652
98.34000 12.950
98.36000 8.720
98.38000 6.502
98.40000 8.270
98.42000 6.860
98.44000 8.895
98.46000 12.323
98.48000 13.353
98.50000 11.428
98.52000 13.374
98.54000 4.287
98.56000 -1.924
98.58000 2.434
98.60000 3.816
98.62000 7.029
98.64000 12.726
98.66000 8.746
98.68000 3.737
98.70000 5.626
98.72000 7.548
98.74000 2.742
98.76000 6.847
98.78000 9.731
98.80000 5.970
98.82000 9.048
98.84000 11.358
98.86000 8.976
98.88000 10.058
98.90000 9.722
98.92000 12.849
98.94000 14.524
98.96000 14.981
98.98000 1.824
99.00000 1.924
99.02000 8.316
99.04000 6.222
99.06000 5.987
99.08000 7.821
99.10000 7.413
99.12000 8.323
99.14000 12.282
99.16000 4.570
99.18000 4.422
99.20000 2.717
99.22000 13.666
99.24000 16.341
99.26000 9.451
99.28000 9.967
99.30000 12.543
99.32000 10.950
99.34000 10.187
99.36000 10.560
99.38000 11.978
99.40000 8.110
99.42000 1.576
99.44000 9.252
99.46000 17.244
99.48000 9.920
99.50000 11.436
99.52000 14.167
99.54000 13.177
99.56000 11.079
99.58000 13.741
99.60000 8.002
99.62000 11.563
99.64000 10.621
99.66000 8.077
99.68000 3.501
99.70000 10.861
99.72000 9.887
99.74000 11.141
99.76000 11.559
99.78000 7.615
99.80000 9.682
99.82000 5.675
99.84000 10.656
99.86000 7.341
99.88000 6.256
99.90000 1.881
99.92000 -2.009
99.94000 -2.142
99.96000 -2.320
99.98000 0.000
