'Id: "0011388" Comment: "Integrate frame 0011388_Au-Ir-Rh_Rh-rich_XRD-Mapping-072-0000.gfrmwith cursor Wedge Cursor #5" Operator: "B?rgel" Anode: "Cu" Wavelength: "1.5406" Scantype: "2Theta (TwoTheta)" TimePerStep: "1" X: "31.5" Y: "-22.5" Z: "5.95" 
10.00000 0.000
10.02000 3.054
10.04000 -3.569
10.06000 3.407
10.08000 -3.535
10.10000 -2.013
10.12000 2.882
10.14000 -0.719
10.16000 14.503
10.18000 22.547
10.20000 2.134
10.22000 -0.436
10.24000 12.739
10.26000 13.879
10.28000 17.061
10.30000 5.071
10.32000 6.337
10.34000 7.341
10.36000 7.936
10.38000 11.459
10.40000 13.340
10.42000 7.315
10.44000 -0.191
10.46000 9.919
10.48000 7.123
10.50000 9.395
10.52000 10.118
10.54000 10.874
10.56000 13.899
10.58000 17.431
10.60000 13.161
10.62000 5.905
10.64000 10.532
10.66000 7.134
10.68000 2.940
10.70000 10.760
10.72000 13.671
10.74000 20.578
10.76000 21.321
10.78000 14.900
10.80000 6.547
10.82000 16.021
10.84000 25.044
10.86000 24.930
10.88000 25.834
10.90000 19.378
10.92000 11.552
10.94000 24.546
10.96000 32.919
10.98000 20.647
11.00000 23.357
11.02000 20.423
11.04000 32.049
11.06000 34.717
11.08000 22.687
11.10000 28.607
11.12000 29.087
11.14000 27.866
11.16000 24.256
11.18000 18.194
11.20000 27.325
11.22000 30.928
11.24000 23.745
11.26000 28.474
11.28000 20.930
11.30000 13.903
11.32000 7.369
11.34000 17.245
11.36000 21.391
11.38000 16.693
11.40000 21.524
11.42000 33.191
11.44000 21.951
11.46000 20.683
11.48000 15.756
11.50000 21.748
11.52000 13.408
11.54000 9.725
11.56000 12.422
11.58000 18.404
11.60000 13.892
11.62000 20.604
11.64000 15.798
11.66000 18.587
11.68000 12.897
11.70000 19.114
11.72000 25.355
11.74000 30.636
11.76000 30.579
11.78000 20.480
11.80000 21.848
11.82000 27.021
11.84000 22.695
11.86000 21.049
11.88000 35.410
11.90000 44.099
11.92000 39.570
11.94000 30.285
11.96000 25.861
11.98000 27.879
12.00000 24.890
12.02000 31.124
12.04000 33.476
12.06000 31.547
12.08000 23.978
12.10000 22.916
12.12000 17.772
12.14000 16.264
12.16000 28.458
12.18000 25.965
12.20000 18.982
12.22000 18.231
12.24000 30.145
12.26000 35.150
12.28000 30.811
12.30000 16.868
12.32000 16.656
12.34000 23.269
12.36000 17.017
12.38000 14.137
12.40000 28.556
12.42000 30.260
12.44000 28.973
12.46000 24.444
12.48000 24.921
12.50000 28.568
12.52000 29.780
12.54000 33.170
12.56000 21.474
12.58000 24.739
12.60000 34.220
12.62000 38.281
12.64000 27.774
12.66000 22.362
12.68000 31.506
12.70000 26.112
12.72000 32.808
12.74000 29.896
12.76000 27.263
12.78000 20.109
12.80000 19.321
12.82000 17.719
12.84000 31.930
12.86000 27.059
12.88000 24.209
12.90000 16.955
12.92000 26.721
12.94000 29.971
12.96000 28.633
12.98000 22.415
13.00000 25.129
13.02000 38.265
13.04000 47.859
13.06000 37.945
13.08000 23.891
13.10000 18.056
13.12000 22.295
13.14000 27.355
13.16000 30.110
13.18000 27.511
13.20000 28.969
13.22000 34.124
13.24000 36.738
13.26000 29.342
13.28000 23.650
13.30000 21.866
13.32000 25.936
13.34000 26.960
13.36000 19.973
13.38000 21.157
13.40000 18.203
13.42000 23.829
13.44000 30.446
13.46000 20.574
13.48000 15.941
13.50000 26.404
13.52000 30.443
13.54000 28.626
13.56000 28.214
13.58000 27.642
13.60000 25.275
13.62000 30.089
13.64000 33.906
13.66000 30.553
13.68000 25.903
13.70000 21.803
13.72000 14.717
13.74000 21.827
13.76000 29.343
13.78000 25.877
13.80000 22.384
13.82000 15.799
13.84000 21.868
13.86000 26.944
13.88000 21.238
13.90000 20.446
13.92000 20.134
13.94000 17.453
13.96000 19.322
13.98000 18.550
14.00000 23.547
14.02000 19.776
14.04000 18.482
14.06000 22.781
14.08000 18.159
14.10000 10.648
14.12000 16.403
14.14000 13.195
14.16000 9.003
14.18000 17.552
14.20000 16.940
14.22000 12.535
14.24000 22.595
14.26000 26.678
14.28000 22.178
14.30000 20.549
14.32000 20.721
14.34000 14.181
14.36000 17.540
14.38000 19.694
14.40000 25.361
14.42000 22.433
14.44000 18.028
14.46000 23.390
14.48000 28.506
14.50000 20.421
14.52000 17.719
14.54000 20.584
14.56000 29.285
14.58000 24.465
14.60000 13.296
14.62000 15.220
14.64000 22.586
14.66000 18.056
14.68000 23.368
14.70000 16.244
14.72000 14.961
14.74000 22.712
14.76000 15.140
14.78000 12.907
14.80000 9.391
14.82000 9.447
14.84000 11.857
14.86000 17.486
14.88000 20.099
14.90000 13.507
14.92000 7.648
14.94000 6.016
14.96000 18.629
14.98000 19.926
15.00000 17.099
15.02000 15.623
15.04000 24.436
15.06000 18.180
15.08000 10.937
15.10000 4.482
15.12000 7.166
15.14000 5.638
15.16000 7.406
15.18000 10.026
15.20000 14.652
15.22000 10.140
15.24000 3.701
15.26000 1.214
15.28000 8.732
15.30000 11.321
15.32000 14.943
15.34000 12.328
15.36000 16.791
15.38000 7.645
15.40000 9.651
15.42000 9.234
15.44000 10.505
15.46000 17.059
15.48000 15.003
15.50000 12.986
15.52000 13.060
15.54000 8.760
15.56000 3.289
15.58000 6.587
15.60000 20.988
15.62000 11.566
15.64000 5.847
15.66000 13.122
15.68000 11.065
15.70000 19.196
15.72000 21.096
15.74000 17.441
15.76000 13.643
15.78000 15.521
15.80000 12.607
15.82000 6.263
15.84000 15.978
15.86000 19.287
15.88000 18.197
15.90000 20.008
15.92000 15.447
15.94000 14.184
15.96000 10.473
15.98000 10.237
16.00000 9.835
16.02000 9.869
16.04000 8.286
16.06000 5.140
16.08000 8.820
16.10000 14.586
16.12000 10.349
16.14000 11.115
16.16000 14.976
16.18000 14.379
16.20000 16.482
16.22000 17.079
16.24000 11.938
16.26000 5.408
16.28000 6.560
16.30000 8.900
16.32000 5.444
16.34000 -3.385
16.36000 3.618
16.38000 -1.619
16.40000 0.849
16.42000 -0.832
16.44000 -4.378
16.46000 1.095
16.48000 8.895
16.50000 5.214
16.52000 7.784
16.54000 13.145
16.56000 12.499
16.58000 12.788
16.60000 5.732
16.62000 7.655
16.64000 12.623
16.66000 8.513
16.68000 15.379
16.70000 11.050
16.72000 13.428
16.74000 9.864
16.76000 7.559
16.78000 15.756
16.80000 12.889
16.82000 5.424
16.84000 6.579
16.86000 11.592
16.88000 6.260
16.90000 4.677
16.92000 9.262
16.94000 18.441
16.96000 11.956
16.98000 10.394
17.00000 11.065
17.02000 -1.638
17.04000 2.975
17.06000 13.838
17.08000 11.997
17.10000 8.409
17.12000 4.158
17.14000 2.757
17.16000 1.213
17.18000 6.190
17.20000 5.461
17.22000 8.951
17.24000 10.485
17.26000 5.044
17.28000 0.143
17.30000 0.614
17.32000 2.623
17.34000 1.501
17.36000 1.380
17.38000 5.580
17.40000 8.667
17.42000 7.836
17.44000 6.981
17.46000 7.946
17.48000 10.965
17.50000 7.780
17.52000 4.863
17.54000 2.699
17.56000 6.788
17.58000 8.657
17.60000 7.541
17.62000 2.761
17.64000 4.351
17.66000 7.790
17.68000 7.740
17.70000 7.283
17.72000 6.683
17.74000 9.101
17.76000 8.240
17.78000 6.942
17.80000 6.934
17.82000 8.193
17.84000 1.881
17.86000 4.068
17.88000 10.595
17.90000 3.922
17.92000 -0.781
17.94000 6.001
17.96000 17.241
17.98000 5.347
18.00000 4.855
18.02000 6.358
18.04000 1.555
18.06000 3.027
18.08000 -4.332
18.10000 3.538
18.12000 6.853
18.14000 6.241
18.16000 3.104
18.18000 4.771
18.20000 4.292
18.22000 4.514
18.24000 -0.573
18.26000 2.084
18.28000 4.029
18.30000 -0.588
18.32000 10.027
18.34000 9.947
18.36000 8.161
18.38000 4.869
18.40000 0.352
18.42000 9.346
18.44000 4.655
18.46000 1.726
18.48000 1.505
18.50000 3.831
18.52000 0.991
18.54000 5.277
18.56000 5.944
18.58000 -0.149
18.60000 -4.297
18.62000 -0.407
18.64000 -1.128
18.66000 -0.850
18.68000 2.683
18.70000 1.603
18.72000 1.647
18.74000 1.295
18.76000 2.468
18.78000 6.377
18.80000 4.413
18.82000 2.300
18.84000 6.886
18.86000 8.513
18.88000 7.590
18.90000 1.298
18.92000 1.205
18.94000 10.826
18.96000 4.587
18.98000 2.431
19.00000 -0.896
19.02000 1.083
19.04000 5.841
19.06000 5.205
19.08000 8.154
19.10000 1.303
19.12000 3.201
19.14000 -3.752
19.16000 -3.261
19.18000 7.889
19.20000 7.658
19.22000 6.578
19.24000 3.378
19.26000 -0.788
19.28000 8.310
19.30000 6.067
19.32000 5.977
19.34000 3.642
19.36000 6.164
19.38000 -1.967
19.40000 10.053
19.42000 16.465
19.44000 9.769
19.46000 5.455
19.48000 3.192
19.50000 2.124
19.52000 2.788
19.54000 8.248
19.56000 8.549
19.58000 2.331
19.60000 5.353
19.62000 7.366
19.64000 6.646
19.66000 5.504
19.68000 11.969
19.70000 5.366
19.72000 -0.717
19.74000 3.448
19.76000 -1.646
19.78000 -1.142
19.80000 3.326
19.82000 -4.197
19.84000 -1.522
19.86000 2.383
19.88000 11.615
19.90000 15.076
19.92000 12.486
19.94000 9.387
19.96000 4.841
19.98000 -1.393
20.00000 0.721
20.02000 3.193
20.04000 3.128
20.06000 7.404
20.08000 6.276
20.10000 5.244
20.12000 3.493
20.14000 1.607
20.16000 -0.708
20.18000 1.113
20.20000 5.621
20.22000 2.647
20.24000 3.411
20.26000 7.873
20.28000 6.296
20.30000 5.739
20.32000 4.702
20.34000 6.067
20.36000 7.888
20.38000 -0.005
20.40000 0.353
20.42000 7.611
20.44000 11.359
20.46000 12.785
20.48000 6.409
20.50000 9.536
20.52000 10.823
20.54000 7.091
20.56000 7.121
20.58000 11.616
20.60000 11.267
20.62000 12.859
20.64000 10.209
20.66000 4.288
20.68000 0.965
20.70000 8.522
20.72000 5.980
20.74000 1.648
20.76000 1.941
20.78000 2.165
20.80000 6.957
20.82000 2.618
20.84000 6.445
20.86000 15.160
20.88000 11.357
20.90000 0.936
20.92000 -0.943
20.94000 -0.060
20.96000 4.681
20.98000 2.960
21.00000 -4.130
21.02000 7.083
21.04000 15.928
21.06000 15.500
21.08000 7.119
21.10000 1.259
21.12000 7.760
21.14000 7.456
21.16000 2.751
21.18000 2.207
21.20000 0.351
21.22000 0.907
21.24000 9.797
21.26000 9.430
21.28000 4.805
21.30000 5.580
21.32000 4.796
21.34000 2.923
21.36000 0.704
21.38000 1.249
21.40000 1.565
21.42000 8.819
21.44000 8.890
21.46000 5.744
21.48000 5.525
21.50000 7.773
21.52000 14.265
21.54000 5.787
21.56000 5.537
21.58000 7.183
21.60000 11.565
21.62000 7.108
21.64000 2.721
21.66000 7.153
21.68000 7.832
21.70000 5.123
21.72000 0.647
21.74000 5.801
21.76000 5.762
21.78000 4.700
21.80000 3.394
21.82000 3.508
21.84000 7.987
21.86000 5.760
21.88000 5.672
21.90000 12.081
21.92000 18.186
21.94000 13.244
21.96000 11.291
21.98000 11.273
22.00000 9.364
22.02000 1.097
22.04000 -0.105
22.06000 4.541
22.08000 1.901
22.10000 -0.937
22.12000 6.253
22.14000 6.364
22.16000 3.626
22.18000 5.083
22.20000 3.663
22.22000 1.660
22.24000 3.821
22.26000 7.309
22.28000 4.538
22.30000 1.925
22.32000 1.965
22.34000 -3.049
22.36000 0.695
22.38000 -3.909
22.40000 -0.791
22.42000 0.445
22.44000 6.794
22.46000 3.444
22.48000 0.436
22.50000 7.378
22.52000 6.111
22.54000 -0.760
22.56000 2.763
22.58000 1.561
22.60000 -1.505
22.62000 1.649
22.64000 1.810
22.66000 -2.680
22.68000 2.510
22.70000 4.477
22.72000 2.274
22.74000 3.775
22.76000 4.666
22.78000 -2.003
22.80000 4.933
22.82000 -0.125
22.84000 3.979
22.86000 5.161
22.88000 7.611
22.90000 -2.204
22.92000 -3.335
22.94000 0.002
22.96000 4.919
22.98000 7.129
23.00000 8.880
23.02000 4.669
23.04000 0.165
23.06000 4.652
23.08000 9.432
23.10000 6.720
23.12000 1.277
23.14000 2.274
23.16000 -0.044
23.18000 4.053
23.20000 1.874
23.22000 -4.037
23.24000 0.595
23.26000 10.790
23.28000 10.620
23.30000 3.910
23.32000 4.267
23.34000 2.618
23.36000 8.043
23.38000 8.904
23.40000 5.270
23.42000 4.138
23.44000 -0.433
23.46000 -0.560
23.48000 -3.320
23.50000 -3.422
23.52000 4.894
23.54000 3.347
23.56000 10.253
23.58000 13.391
23.60000 10.337
23.62000 4.402
23.64000 0.954
23.66000 4.631
23.68000 4.835
23.70000 2.174
23.72000 2.772
23.74000 5.302
23.76000 4.311
23.78000 0.906
23.80000 -1.331
23.82000 1.989
23.84000 6.153
23.86000 6.516
23.88000 6.362
23.90000 2.729
23.92000 2.004
23.94000 2.754
23.96000 2.501
23.98000 5.883
24.00000 3.360
24.02000 3.165
24.04000 -0.678
24.06000 1.687
24.08000 1.656
24.10000 -3.076
24.12000 -3.981
24.14000 8.325
24.16000 9.194
24.18000 4.332
24.20000 4.465
24.22000 5.196
24.24000 4.213
24.26000 4.131
24.28000 4.088
24.30000 -1.405
24.32000 -2.267
24.34000 -2.066
24.36000 4.427
24.38000 7.779
24.40000 5.312
24.42000 2.253
24.44000 4.588
24.46000 0.650
24.48000 0.755
24.50000 2.944
24.52000 0.186
24.54000 4.614
24.56000 0.917
24.58000 -2.464
24.60000 0.429
24.62000 2.024
24.64000 5.142
24.66000 5.914
24.68000 2.068
24.70000 2.335
24.72000 5.752
24.74000 4.672
24.76000 0.360
24.78000 0.364
24.80000 -0.667
24.82000 -1.714
24.84000 -1.978
24.86000 2.247
24.88000 0.738
24.90000 1.823
24.92000 5.048
24.94000 2.005
24.96000 1.840
24.98000 -0.914
25.00000 -2.137
25.02000 2.343
25.04000 5.847
25.06000 6.314
25.08000 4.151
25.10000 3.580
25.12000 -1.298
25.14000 -3.598
25.16000 1.544
25.18000 -1.959
25.20000 -1.073
25.22000 6.911
25.24000 5.768
25.26000 5.770
25.28000 5.355
25.30000 2.361
25.32000 1.783
25.34000 4.157
25.36000 5.158
25.38000 3.007
25.40000 -0.676
25.42000 2.769
25.44000 3.514
25.46000 4.610
25.48000 3.917
25.50000 -1.065
25.52000 -3.007
25.54000 1.312
25.56000 -1.937
25.58000 0.876
25.60000 2.727
25.62000 4.775
25.64000 0.287
25.66000 0.904
25.68000 3.909
25.70000 8.414
25.72000 7.565
25.74000 -1.727
25.76000 -2.702
25.78000 2.241
25.80000 6.733
25.82000 0.242
25.84000 -3.909
25.86000 0.017
25.88000 0.044
25.90000 -1.556
25.92000 1.981
25.94000 0.580
25.96000 0.037
25.98000 4.299
26.00000 5.513
26.02000 6.101
26.04000 7.764
26.06000 8.886
26.08000 8.557
26.10000 5.174
26.12000 -1.078
26.14000 -1.447
26.16000 1.494
26.18000 1.945
26.20000 2.972
26.22000 2.335
26.24000 1.437
26.26000 -3.090
26.28000 2.523
26.30000 5.763
26.32000 5.832
26.34000 3.009
26.36000 -3.144
26.38000 -0.782
26.40000 -1.033
26.42000 1.264
26.44000 5.624
26.46000 1.428
26.48000 -0.539
26.50000 -2.684
26.52000 -2.564
26.54000 1.221
26.56000 0.847
26.58000 1.897
26.60000 1.372
26.62000 2.121
26.64000 1.173
26.66000 0.826
26.68000 0.409
26.70000 2.254
26.72000 5.228
26.74000 2.698
26.76000 1.537
26.78000 -1.654
26.80000 3.001
26.82000 2.313
26.84000 0.800
26.86000 3.437
26.88000 5.331
26.90000 2.296
26.92000 1.312
26.94000 4.321
26.96000 3.438
26.98000 1.342
27.00000 1.868
27.02000 5.284
27.04000 6.817
27.06000 0.689
27.08000 -1.478
27.10000 -0.931
27.12000 2.418
27.14000 0.554
27.16000 3.282
27.18000 2.482
27.20000 4.938
27.22000 0.073
27.24000 1.546
27.26000 6.468
27.28000 2.702
27.30000 -1.064
27.32000 -3.831
27.34000 -1.486
27.36000 3.226
27.38000 -1.450
27.40000 -1.142
27.42000 2.187
27.44000 6.149
27.46000 8.442
27.48000 5.520
27.50000 1.934
27.52000 3.906
27.54000 3.578
27.56000 3.669
27.58000 3.796
27.60000 0.088
27.62000 0.753
27.64000 3.513
27.66000 8.929
27.68000 10.150
27.70000 0.599
27.72000 1.116
27.74000 2.503
27.76000 3.568
27.78000 2.514
27.80000 3.504
27.82000 1.014
27.84000 1.442
27.86000 3.770
27.88000 4.824
27.90000 -2.417
27.92000 -2.221
27.94000 0.367
27.96000 -0.019
27.98000 1.078
28.00000 3.177
28.02000 5.249
28.04000 4.934
28.06000 4.151
28.08000 2.691
28.10000 4.254
28.12000 4.561
28.14000 -0.362
28.16000 3.231
28.18000 4.666
28.20000 7.501
28.22000 4.069
28.24000 1.443
28.26000 -0.579
28.28000 -3.174
28.30000 1.053
28.32000 2.909
28.34000 -0.783
28.36000 -0.873
28.38000 -1.099
28.40000 -2.961
28.42000 2.853
28.44000 -1.481
28.46000 -3.771
28.48000 -1.056
28.50000 1.081
28.52000 7.812
28.54000 8.191
28.56000 5.588
28.58000 6.579
28.60000 0.312
28.62000 -0.028
28.64000 3.147
28.66000 5.532
28.68000 -0.007
28.70000 3.146
28.72000 1.412
28.74000 -2.153
28.76000 -1.823
28.78000 -0.026
28.80000 -1.444
28.82000 -3.422
28.84000 -0.222
28.86000 1.528
28.88000 0.305
28.90000 2.569
28.92000 3.504
28.94000 -1.980
28.96000 -3.246
28.98000 0.500
29.00000 -3.746
29.02000 -1.261
29.04000 3.984
29.06000 7.368
29.08000 6.817
29.10000 2.153
29.12000 2.444
29.14000 -0.886
29.16000 0.034
29.18000 2.132
29.20000 4.846
29.22000 0.920
29.24000 -0.775
29.26000 1.962
29.28000 0.712
29.30000 -0.791
29.32000 -3.706
29.34000 0.864
29.36000 -2.107
29.38000 -1.132
29.40000 -2.603
29.42000 0.209
29.44000 4.878
29.46000 1.941
29.48000 -0.472
29.50000 2.994
29.52000 2.529
29.54000 4.045
29.56000 2.907
29.58000 5.577
29.60000 2.162
29.62000 3.992
29.64000 -0.074
29.66000 3.614
29.68000 -2.690
29.70000 -1.328
29.72000 1.756
29.74000 -0.453
29.76000 -3.711
29.78000 -0.464
29.80000 0.135
29.82000 3.000
29.84000 1.376
29.86000 -0.699
29.88000 2.243
29.90000 4.753
29.92000 7.068
29.94000 6.594
29.96000 5.407
29.98000 0.966
30.00000 -2.157
30.02000 0.049
30.04000 5.688
30.06000 9.390
30.08000 5.244
30.10000 4.283
30.12000 5.122
30.14000 2.529
30.16000 2.414
30.18000 -3.680
30.20000 -2.095
30.22000 1.838
30.24000 0.253
30.26000 3.961
30.28000 6.377
30.30000 3.822
30.32000 0.827
30.34000 -1.407
30.36000 2.989
30.38000 0.462
30.40000 -1.601
30.42000 4.424
30.44000 5.826
30.46000 0.523
30.48000 1.126
30.50000 4.861
30.52000 0.676
30.54000 -0.470
30.56000 0.574
30.58000 2.068
30.60000 5.021
30.62000 5.400
30.64000 5.770
30.66000 -2.899
30.68000 -0.866
30.70000 4.258
30.72000 5.028
30.74000 1.764
30.76000 3.259
30.78000 2.466
30.80000 -2.886
30.82000 -2.362
30.84000 1.100
30.86000 5.196
30.88000 0.431
30.90000 -0.765
30.92000 1.304
30.94000 0.982
30.96000 -0.241
30.98000 3.314
31.00000 2.953
31.02000 3.159
31.04000 1.352
31.06000 7.883
31.08000 8.055
31.10000 4.599
31.12000 6.903
31.14000 4.992
31.16000 5.008
31.18000 4.442
31.20000 -0.794
31.22000 -1.296
31.24000 3.021
31.26000 3.501
31.28000 2.899
31.30000 -0.357
31.32000 -3.611
31.34000 -1.547
31.36000 -0.082
31.38000 2.900
31.40000 2.425
31.42000 0.623
31.44000 1.655
31.46000 2.201
31.48000 1.746
31.50000 3.755
31.52000 8.493
31.54000 5.939
31.56000 2.556
31.58000 -2.045
31.60000 0.070
31.62000 4.078
31.64000 7.950
31.66000 4.064
31.68000 3.956
31.70000 5.498
31.72000 3.391
31.74000 0.789
31.76000 5.488
31.78000 3.407
31.80000 2.719
31.82000 0.889
31.84000 0.807
31.86000 4.175
31.88000 2.487
31.90000 7.135
31.92000 1.356
31.94000 0.381
31.96000 3.800
31.98000 5.459
32.00000 8.002
32.02000 5.426
32.04000 1.415
32.06000 -3.587
32.08000 1.905
32.10000 3.156
32.12000 3.428
32.14000 2.764
32.16000 2.185
32.18000 3.374
32.20000 -0.623
32.22000 -3.281
32.24000 -0.236
32.26000 0.569
32.28000 1.554
32.30000 -0.959
32.32000 -1.601
32.34000 4.334
32.36000 7.899
32.38000 3.980
32.40000 -0.358
32.42000 -1.823
32.44000 -2.364
32.46000 3.786
32.48000 7.116
32.50000 -0.943
32.52000 -0.591
32.54000 0.664
32.56000 -0.895
32.58000 4.777
32.60000 4.922
32.62000 4.729
32.64000 5.845
32.66000 1.242
32.68000 0.087
32.70000 0.091
32.72000 1.504
32.74000 4.827
32.76000 6.291
32.78000 11.183
32.80000 14.309
32.82000 9.605
32.84000 -1.780
32.86000 0.700
32.88000 3.103
32.90000 4.560
32.92000 2.759
32.94000 -1.019
32.96000 -3.565
32.98000 2.104
33.00000 3.920
33.02000 4.739
33.04000 3.544
33.06000 5.604
33.08000 8.499
33.10000 6.592
33.12000 -2.581
33.14000 0.007
33.16000 5.360
33.18000 5.143
33.20000 7.728
33.22000 2.860
33.24000 2.793
33.26000 10.705
33.28000 14.674
33.30000 7.314
33.32000 1.485
33.34000 0.902
33.36000 1.204
33.38000 -3.562
33.40000 -1.983
33.42000 -0.710
33.44000 3.986
33.46000 4.209
33.48000 6.734
33.50000 5.678
33.52000 2.473
33.54000 7.258
33.56000 6.557
33.58000 2.280
33.60000 4.464
33.62000 4.218
33.64000 -0.608
33.66000 -3.205
33.68000 -1.397
33.70000 0.069
33.72000 2.207
33.74000 4.742
33.76000 7.040
33.78000 4.362
33.80000 5.126
33.82000 0.393
33.84000 1.966
33.86000 6.353
33.88000 6.071
33.90000 5.919
33.92000 2.007
33.94000 -3.260
33.96000 -3.064
33.98000 -1.383
34.00000 1.993
34.02000 5.286
34.04000 6.774
34.06000 3.144
34.08000 -1.616
34.10000 0.644
34.12000 2.908
34.14000 1.237
34.16000 2.019
34.18000 3.322
34.20000 5.324
34.22000 7.851
34.24000 5.784
34.26000 3.035
34.28000 1.609
34.30000 1.143
34.32000 5.544
34.34000 6.629
34.36000 3.979
34.38000 3.232
34.40000 3.969
34.42000 4.489
34.44000 0.337
34.46000 -1.386
34.48000 0.052
34.50000 -2.152
34.52000 0.167
34.54000 -1.054
34.56000 0.113
34.58000 -2.073
34.60000 -0.935
34.62000 -1.336
34.64000 -2.166
34.66000 1.846
34.68000 -0.015
34.70000 -3.372
34.72000 -0.739
34.74000 1.663
34.76000 0.708
34.78000 -0.211
34.80000 -0.216
34.82000 -2.606
34.84000 3.008
34.86000 3.099
34.88000 3.277
34.90000 0.263
34.92000 -2.045
34.94000 -1.421
34.96000 -1.586
34.98000 0.390
35.00000 2.696
35.02000 -1.048
35.04000 0.571
35.06000 6.092
35.08000 3.710
35.10000 5.965
35.12000 0.099
35.14000 -0.457
35.16000 0.083
35.18000 -0.182
35.20000 5.976
35.22000 4.559
35.24000 5.170
35.26000 2.400
35.28000 -3.486
35.30000 -0.374
35.32000 3.788
35.34000 3.787
35.36000 5.495
35.38000 3.939
35.40000 2.755
35.42000 4.960
35.44000 7.853
35.46000 4.203
35.48000 -0.244
35.50000 5.071
35.52000 1.027
35.54000 -0.282
35.56000 -1.019
35.58000 -3.243
35.60000 0.006
35.62000 3.300
35.64000 0.195
35.66000 2.976
35.68000 -1.081
35.70000 -0.206
35.72000 3.058
35.74000 1.922
35.76000 4.198
35.78000 2.482
35.80000 2.880
35.82000 1.428
35.84000 -0.140
35.86000 1.684
35.88000 2.817
35.90000 1.924
35.92000 -0.571
35.94000 -2.314
35.96000 0.960
35.98000 1.765
36.00000 3.495
36.02000 3.694
36.04000 1.730
36.06000 2.858
36.08000 0.430
36.10000 -0.267
36.12000 3.038
36.14000 3.579
36.16000 4.292
36.18000 2.098
36.20000 -0.470
36.22000 3.268
36.24000 1.553
36.26000 1.041
36.28000 0.583
36.30000 -2.299
36.32000 0.079
36.34000 1.440
36.36000 1.220
36.38000 0.756
36.40000 6.347
36.42000 1.836
36.44000 0.895
36.46000 0.554
36.48000 0.047
36.50000 1.901
36.52000 1.460
36.54000 -0.488
36.56000 -2.936
36.58000 0.111
36.60000 5.396
36.62000 5.737
36.64000 7.299
36.66000 3.816
36.68000 3.530
36.70000 1.715
36.72000 -1.990
36.74000 -3.513
36.76000 3.359
36.78000 3.605
36.80000 4.048
36.82000 7.553
36.84000 -0.714
36.86000 -3.511
36.88000 0.694
36.90000 -0.058
36.92000 1.202
36.94000 -2.030
36.96000 -1.701
36.98000 -1.133
37.00000 0.084
37.02000 1.323
37.04000 -0.587
37.06000 -2.311
37.08000 -1.503
37.10000 -1.326
37.12000 2.162
37.14000 4.605
37.16000 2.721
37.18000 -1.274
37.20000 -3.541
37.22000 -1.787
37.24000 4.123
37.26000 3.502
37.28000 -0.695
37.30000 -2.231
37.32000 -1.466
37.34000 -2.683
37.36000 -2.100
37.38000 -3.561
37.40000 -2.180
37.42000 1.826
37.44000 -1.450
37.46000 -1.737
37.48000 1.066
37.50000 -1.588
37.52000 -3.580
37.54000 -2.344
37.56000 -1.690
37.58000 -0.433
37.60000 -1.300
37.62000 0.650
37.64000 1.181
37.66000 -0.324
37.68000 0.937
37.70000 2.440
37.72000 -3.605
37.74000 -0.047
37.76000 -0.414
37.78000 -0.810
37.80000 -0.200
37.82000 4.400
37.84000 7.240
37.86000 2.187
37.88000 1.298
37.90000 -0.323
37.92000 -0.166
37.94000 3.255
37.96000 1.549
37.98000 0.924
38.00000 4.181
38.02000 2.329
38.04000 0.474
38.06000 2.244
38.08000 4.975
38.10000 1.689
38.12000 4.747
38.14000 7.494
38.16000 6.493
38.18000 6.026
38.20000 3.162
38.22000 0.698
38.24000 2.302
38.26000 2.089
38.28000 4.938
38.30000 6.930
38.32000 7.509
38.34000 6.878
38.36000 7.941
38.38000 5.047
38.40000 8.395
38.42000 8.871
38.44000 11.503
38.46000 10.826
38.48000 10.333
38.50000 9.488
38.52000 18.340
38.54000 13.741
38.56000 13.586
38.58000 9.193
38.60000 11.489
38.62000 12.633
38.64000 11.571
38.66000 10.262
38.68000 11.472
38.70000 17.460
38.72000 19.087
38.74000 15.794
38.76000 19.532
38.78000 19.394
38.80000 13.859
38.82000 12.270
38.84000 14.947
38.86000 19.076
38.88000 21.464
38.90000 16.389
38.92000 18.667
38.94000 25.346
38.96000 24.693
38.98000 21.414
39.00000 15.260
39.02000 21.523
39.04000 22.329
39.06000 23.530
39.08000 25.017
39.10000 26.513
39.12000 25.373
39.14000 22.632
39.16000 24.788
39.18000 26.067
39.20000 25.222
39.22000 29.926
39.24000 33.544
39.26000 32.783
39.28000 34.063
39.30000 36.071
39.32000 40.256
39.34000 41.461
39.36000 41.125
39.38000 47.286
39.40000 42.106
39.42000 46.377
39.44000 48.589
39.46000 51.730
39.48000 52.732
39.50000 48.734
39.52000 49.176
39.54000 58.958
39.56000 63.671
39.58000 65.794
39.60000 64.054
39.62000 65.648
39.64000 66.567
39.66000 69.692
39.68000 73.795
39.70000 80.899
39.72000 80.521
39.74000 82.472
39.76000 84.097
39.78000 91.234
39.80000 97.825
39.82000 101.441
39.84000 108.635
39.86000 113.025
39.88000 117.025
39.90000 122.629
39.92000 122.372
39.94000 132.965
39.96000 141.029
39.98000 142.260
40.00000 145.886
40.02000 158.726
40.04000 172.807
40.06000 181.805
40.08000 189.321
40.10000 192.331
40.12000 202.631
40.14000 211.150
40.16000 220.445
40.18000 228.156
40.20000 239.336
40.22000 256.560
40.24000 271.860
40.26000 281.900
40.28000 300.231
40.30000 310.657
40.32000 316.569
40.34000 329.184
40.36000 346.866
40.38000 359.456
40.40000 376.426
40.42000 394.449
40.44000 413.194
40.46000 427.173
40.48000 437.826
40.50000 441.956
40.52000 462.915
40.54000 477.852
40.56000 483.624
40.58000 498.063
40.60000 530.202
40.62000 544.349
40.64000 537.826
40.66000 547.209
40.68000 561.823
40.70000 567.620
40.72000 571.418
40.74000 572.239
40.76000 572.900
40.78000 575.339
40.80000 577.200
40.82000 575.269
40.84000 574.199
40.86000 560.700
40.88000 553.944
40.90000 545.338
40.92000 538.953
40.94000 536.190
40.96000 527.080
40.98000 518.316
41.00000 497.346
41.02000 478.879
41.04000 465.504
41.06000 448.044
41.08000 437.553
41.10000 422.852
41.12000 405.625
41.14000 388.851
41.16000 369.790
41.18000 361.253
41.20000 352.930
41.22000 337.594
41.24000 320.836
41.26000 312.730
41.28000 296.605
41.30000 279.171
41.32000 263.672
41.34000 252.491
41.36000 241.314
41.38000 223.012
41.40000 218.876
41.42000 209.513
41.44000 200.234
41.46000 188.265
41.48000 173.876
41.50000 160.845
41.52000 157.696
41.54000 144.745
41.56000 137.304
41.58000 134.284
41.60000 124.855
41.62000 121.876
41.64000 120.461
41.66000 115.020
41.68000 104.695
41.70000 100.816
41.72000 90.652
41.74000 91.068
41.76000 82.397
41.78000 84.715
41.80000 77.059
41.82000 68.505
41.84000 70.818
41.86000 69.011
41.88000 65.122
41.90000 63.768
41.92000 60.531
41.94000 59.790
41.96000 53.517
41.98000 50.774
42.00000 46.562
42.02000 46.535
42.04000 37.926
42.06000 39.852
42.08000 37.176
42.10000 35.293
42.12000 34.146
42.14000 32.121
42.16000 30.057
42.18000 25.727
42.20000 29.696
42.22000 27.697
42.24000 26.613
42.26000 24.679
42.28000 23.534
42.30000 24.732
42.32000 24.208
42.34000 22.327
42.36000 21.319
42.38000 19.156
42.40000 16.731
42.42000 15.977
42.44000 12.554
42.46000 13.706
42.48000 14.421
42.50000 14.511
42.52000 14.970
42.54000 11.132
42.56000 13.065
42.58000 10.143
42.60000 7.542
42.62000 6.313
42.64000 5.319
42.66000 13.162
42.68000 13.331
42.70000 11.699
42.72000 11.145
42.74000 10.774
42.76000 8.243
42.78000 4.180
42.80000 6.870
42.82000 7.900
42.84000 4.895
42.86000 7.573
42.88000 8.059
42.90000 7.810
42.92000 9.091
42.94000 11.342
42.96000 9.420
42.98000 1.243
43.00000 2.742
43.02000 0.899
43.04000 1.026
43.06000 6.024
43.08000 5.252
43.10000 -1.223
43.12000 -0.569
43.14000 -1.602
43.16000 0.118
43.18000 6.029
43.20000 3.910
43.22000 4.968
43.24000 4.969
43.26000 9.045
43.28000 4.793
43.30000 -3.559
43.32000 -2.902
43.34000 0.399
43.36000 2.756
43.38000 2.300
43.40000 -1.905
43.42000 -1.337
43.44000 -1.670
43.46000 0.800
43.48000 -0.514
43.50000 3.073
43.52000 1.569
43.54000 2.826
43.56000 -3.024
43.58000 -2.907
43.60000 -3.488
43.62000 -0.320
43.64000 3.216
43.66000 1.359
43.68000 1.207
43.70000 -0.564
43.72000 1.697
43.74000 -0.875
43.76000 0.693
43.78000 -0.515
43.80000 -3.190
43.82000 -2.367
43.84000 -0.771
43.86000 -3.006
43.88000 -0.664
43.90000 -3.064
43.92000 0.194
43.94000 0.240
43.96000 -0.584
43.98000 -2.457
44.00000 2.264
44.02000 3.647
44.04000 1.296
44.06000 -2.768
44.08000 0.950
44.10000 1.665
44.12000 1.537
44.14000 1.557
44.16000 -0.961
44.18000 0.393
44.20000 -2.845
44.22000 -0.964
44.24000 -1.716
44.26000 0.252
44.28000 2.683
44.30000 -3.474
44.32000 -2.284
44.34000 3.209
44.36000 2.273
44.38000 0.646
44.40000 1.919
44.42000 5.526
44.44000 3.528
44.46000 0.129
44.48000 2.233
44.50000 1.811
44.52000 -2.673
44.54000 -2.562
44.56000 -0.302
44.58000 0.476
44.60000 -3.463
44.62000 0.737
44.64000 4.009
44.66000 4.016
44.68000 4.452
44.70000 2.885
44.72000 -0.430
44.74000 3.499
44.76000 3.164
44.78000 0.934
44.80000 -2.587
44.82000 -3.456
44.84000 -3.387
44.86000 0.544
44.88000 2.859
44.90000 2.916
44.92000 0.016
44.94000 3.115
44.96000 8.574
44.98000 5.429
45.00000 8.261
45.02000 6.445
45.04000 2.597
45.06000 3.541
45.08000 8.526
45.10000 4.950
45.12000 -1.695
45.14000 -1.378
45.16000 1.461
45.18000 4.680
45.20000 0.610
45.22000 0.847
45.24000 0.075
45.26000 0.011
45.28000 2.993
45.30000 5.281
45.32000 6.876
45.34000 5.071
45.36000 2.330
45.38000 -1.756
45.40000 -1.292
45.42000 0.429
45.44000 1.380
45.46000 3.180
45.48000 4.401
45.50000 2.381
45.52000 4.743
45.54000 2.603
45.56000 1.900
45.58000 2.437
45.60000 2.812
45.62000 10.381
45.64000 10.373
45.66000 5.503
45.68000 8.104
45.70000 11.357
45.72000 9.848
45.74000 9.271
45.76000 9.678
45.78000 10.859
45.80000 16.566
45.82000 6.793
45.84000 6.189
45.86000 6.320
45.88000 8.068
45.90000 8.148
45.92000 9.504
45.94000 11.264
45.96000 14.013
45.98000 9.454
46.00000 9.400
46.02000 11.516
46.04000 18.407
46.06000 14.809
46.08000 12.742
46.10000 15.777
46.12000 21.279
46.14000 22.915
46.16000 17.847
46.18000 17.638
46.20000 14.938
46.22000 19.647
46.24000 25.022
46.26000 19.857
46.28000 20.528
46.30000 15.822
46.32000 18.509
46.34000 20.601
46.36000 20.717
46.38000 28.031
46.40000 25.588
46.42000 21.404
46.44000 23.379
46.46000 26.062
46.48000 30.303
46.50000 33.843
46.52000 28.394
46.54000 29.349
46.56000 35.800
46.58000 38.137
46.60000 41.127
46.62000 40.988
46.64000 38.532
46.66000 33.752
46.68000 38.956
46.70000 42.782
46.72000 41.102
46.74000 40.362
46.76000 42.924
46.78000 41.316
46.80000 41.400
46.82000 50.155
46.84000 55.893
46.86000 50.622
46.88000 51.261
46.90000 44.877
46.92000 48.419
46.94000 56.866
46.96000 58.266
46.98000 59.544
47.00000 54.748
47.02000 55.710
47.04000 54.427
47.06000 57.341
47.08000 62.587
47.10000 58.725
47.12000 60.611
47.14000 59.279
47.16000 63.399
47.18000 61.679
47.20000 60.662
47.22000 62.772
47.24000 65.715
47.26000 68.038
47.28000 64.003
47.30000 60.379
47.32000 61.197
47.34000 57.246
47.36000 61.939
47.38000 63.108
47.40000 58.525
47.42000 52.067
47.44000 50.613
47.46000 58.444
47.48000 63.684
47.50000 50.443
47.52000 51.811
47.54000 52.382
47.56000 57.816
47.58000 64.983
47.60000 63.766
47.62000 54.389
47.64000 51.183
47.66000 52.311
47.68000 51.394
47.70000 52.270
47.72000 46.029
47.74000 47.663
47.76000 49.333
47.78000 41.713
47.80000 37.976
47.82000 46.754
47.84000 45.469
47.86000 41.223
47.88000 43.503
47.90000 43.937
47.92000 39.750
47.94000 35.365
47.96000 39.831
47.98000 35.235
48.00000 33.959
48.02000 27.011
48.04000 28.227
48.06000 29.196
48.08000 28.425
48.10000 32.658
48.12000 30.314
48.14000 29.396
48.16000 27.760
48.18000 30.109
48.20000 30.394
48.22000 21.829
48.24000 22.582
48.26000 22.764
48.28000 19.508
48.30000 21.503
48.32000 23.160
48.34000 24.555
48.36000 20.644
48.38000 16.209
48.40000 14.288
48.42000 13.953
48.44000 11.797
48.46000 11.419
48.48000 13.600
48.50000 16.162
48.52000 15.819
48.54000 15.340
48.56000 15.811
48.58000 10.277
48.60000 16.438
48.62000 15.820
48.64000 15.108
48.66000 13.643
48.68000 12.764
48.70000 9.321
48.72000 5.488
48.74000 5.780
48.76000 7.889
48.78000 6.444
48.80000 9.634
48.82000 12.816
48.84000 12.294
48.86000 7.869
48.88000 9.471
48.90000 17.571
48.92000 12.924
48.94000 2.206
48.96000 0.137
48.98000 12.160
49.00000 13.065
49.02000 9.079
49.04000 11.083
49.06000 10.759
49.08000 10.618
49.10000 9.661
49.12000 7.279
49.14000 4.222
49.16000 4.433
49.18000 7.715
49.20000 6.424
49.22000 8.247
49.24000 8.284
49.26000 9.744
49.28000 7.450
49.30000 2.088
49.32000 -3.047
49.34000 3.840
49.36000 9.803
49.38000 11.510
49.40000 2.943
49.42000 -2.992
49.44000 -2.800
49.46000 0.167
49.48000 3.399
49.50000 3.752
49.52000 6.326
49.54000 11.717
49.56000 12.018
49.58000 8.346
49.60000 4.959
49.62000 4.504
49.64000 5.325
49.66000 9.370
49.68000 11.306
49.70000 4.670
49.72000 8.820
49.74000 4.809
49.76000 4.103
49.78000 9.221
49.80000 2.753
49.82000 8.128
49.84000 10.423
49.86000 7.040
49.88000 5.795
49.90000 4.735
49.92000 0.505
49.94000 5.195
49.96000 1.277
49.98000 2.028
50.00000 -0.128
50.02000 -2.550
50.04000 1.594
50.06000 -0.966
50.08000 -2.057
50.10000 -3.030
50.12000 3.455
50.14000 4.359
50.16000 8.119
50.18000 7.991
50.20000 5.267
50.22000 4.409
50.24000 4.910
50.26000 3.367
50.28000 5.172
50.30000 4.514
50.32000 2.897
50.34000 4.236
50.36000 4.924
50.38000 4.308
50.40000 2.967
50.42000 4.699
50.44000 1.206
50.46000 -0.500
50.48000 4.773
50.50000 5.289
50.52000 1.539
50.54000 -0.233
50.56000 -1.448
50.58000 -1.229
50.60000 1.794
50.62000 3.464
50.64000 3.930
50.66000 0.210
50.68000 1.290
50.70000 0.673
50.72000 0.094
50.74000 0.028
50.76000 0.328
50.78000 6.352
50.80000 4.028
50.82000 3.303
50.84000 5.175
50.86000 2.886
50.88000 2.541
50.90000 4.014
50.92000 0.088
50.94000 2.856
50.96000 2.396
50.98000 0.086
51.00000 1.251
51.02000 4.019
51.04000 0.316
51.06000 0.852
51.08000 2.499
51.10000 3.470
51.12000 -1.586
51.14000 1.776
51.16000 1.967
51.18000 0.116
51.20000 -0.878
51.22000 4.392
51.24000 1.584
51.26000 -2.949
51.28000 -0.169
51.30000 6.515
51.32000 1.033
51.34000 4.811
51.36000 3.872
51.38000 3.897
51.40000 0.459
51.42000 1.901
51.44000 2.499
51.46000 3.027
51.48000 4.722
51.50000 2.488
51.52000 4.161
51.54000 3.429
51.56000 0.775
51.58000 1.918
51.60000 2.119
51.62000 -0.995
51.64000 2.021
51.66000 9.710
51.68000 0.068
51.70000 4.413
51.72000 3.911
51.74000 1.873
51.76000 -0.135
51.78000 -2.303
51.80000 -2.798
51.82000 -0.921
51.84000 3.353
51.86000 4.411
51.88000 0.621
51.90000 -0.913
51.92000 1.922
51.94000 7.486
51.96000 3.673
51.98000 3.149
52.00000 0.548
52.02000 4.542
52.04000 1.368
52.06000 3.864
52.08000 0.618
52.10000 2.548
52.12000 0.251
52.14000 1.832
52.16000 1.183
52.18000 9.145
52.20000 7.950
52.22000 4.895
52.24000 1.609
52.26000 1.987
52.28000 2.530
52.30000 -2.889
52.32000 -0.919
52.34000 8.110
52.36000 11.197
52.38000 5.786
52.40000 3.681
52.42000 3.569
52.44000 1.647
52.46000 0.817
52.48000 4.926
52.50000 10.812
52.52000 0.568
52.54000 1.308
52.56000 -1.348
52.58000 0.037
52.60000 0.272
52.62000 0.328
52.64000 3.069
52.66000 4.300
52.68000 3.430
52.70000 1.779
52.72000 -0.070
52.74000 0.387
52.76000 4.589
52.78000 4.695
52.80000 4.083
52.82000 5.592
52.84000 6.227
52.86000 1.951
52.88000 -2.388
52.90000 3.459
52.92000 1.245
52.94000 -2.529
52.96000 0.567
52.98000 3.688
53.00000 0.491
53.02000 -1.596
53.04000 -0.349
53.06000 5.595
53.08000 7.753
53.10000 6.679
53.12000 4.990
53.14000 6.811
53.16000 5.091
53.18000 0.386
53.20000 -1.880
53.22000 -0.378
53.24000 -1.160
53.26000 2.369
53.28000 6.307
53.30000 4.742
53.32000 2.147
53.34000 -0.141
53.36000 2.267
53.38000 -1.351
53.40000 -0.419
53.42000 4.510
53.44000 1.255
53.46000 1.136
53.48000 3.820
53.50000 4.789
53.52000 6.546
53.54000 4.751
53.56000 3.608
53.58000 4.388
53.60000 6.376
53.62000 3.174
53.64000 2.313
53.66000 8.246
53.68000 3.382
53.70000 0.622
53.72000 -1.986
53.74000 -2.852
53.76000 0.888
53.78000 7.481
53.80000 5.572
53.82000 6.833
53.84000 11.824
53.86000 10.565
53.88000 5.858
53.90000 2.518
53.92000 -0.722
53.94000 -0.150
53.96000 2.034
53.98000 0.882
54.00000 5.431
54.02000 5.878
54.04000 4.367
54.06000 -0.677
54.08000 -2.285
54.10000 2.672
54.12000 4.488
54.14000 5.472
54.16000 6.689
54.18000 2.931
54.20000 5.468
54.22000 5.991
54.24000 7.956
54.26000 5.905
54.28000 2.383
54.30000 -1.391
54.32000 2.899
54.34000 6.477
54.36000 7.209
54.38000 5.460
54.40000 2.285
54.42000 6.212
54.44000 6.688
54.46000 8.067
54.48000 4.409
54.50000 5.367
54.52000 9.490
54.54000 6.083
54.56000 0.326
54.58000 0.013
54.60000 2.655
54.62000 6.890
54.64000 11.513
54.66000 5.896
54.68000 -0.111
54.70000 4.811
54.72000 5.031
54.74000 5.188
54.76000 0.609
54.78000 3.673
54.80000 0.163
54.82000 0.000
54.84000 -2.828
54.86000 -2.286
54.88000 0.850
54.90000 -0.083
54.92000 -2.307
54.94000 -0.095
54.96000 0.917
54.98000 3.803
55.00000 10.379
55.02000 9.222
55.04000 7.623
55.06000 -0.557
55.08000 -2.594
55.10000 0.651
55.12000 1.623
55.14000 4.436
55.16000 5.445
55.18000 4.135
55.20000 3.026
55.22000 0.682
55.24000 2.215
55.26000 5.151
55.28000 6.009
55.30000 2.955
55.32000 2.383
55.34000 3.896
55.36000 2.228
55.38000 1.962
55.40000 -1.473
55.42000 -1.642
55.44000 -2.775
55.46000 1.208
55.48000 4.141
55.50000 0.963
55.52000 2.197
55.54000 3.391
55.56000 0.678
55.58000 6.193
55.60000 7.631
55.62000 4.313
55.64000 -1.139
55.66000 -0.095
55.68000 3.257
55.70000 -1.601
55.72000 0.724
55.74000 4.066
55.76000 4.468
55.78000 5.623
55.80000 3.508
55.82000 5.829
55.84000 -2.165
55.86000 -1.635
55.88000 2.398
55.90000 -2.442
55.92000 -0.644
55.94000 -2.185
55.96000 2.172
55.98000 5.452
56.00000 5.186
56.02000 3.806
56.04000 1.694
56.06000 3.882
56.08000 4.110
56.10000 -1.542
56.12000 3.444
56.14000 1.446
56.16000 1.483
56.18000 3.121
56.20000 2.295
56.22000 5.930
56.24000 3.264
56.26000 1.200
56.28000 1.889
56.30000 0.411
56.32000 -1.620
56.34000 -1.763
56.36000 -0.105
56.38000 -0.209
56.40000 5.623
56.42000 4.049
56.44000 0.738
56.46000 1.982
56.48000 3.403
56.50000 4.593
56.52000 1.387
56.54000 0.608
56.56000 2.263
56.58000 3.312
56.60000 1.642
56.62000 0.683
56.64000 0.224
56.66000 -1.745
56.68000 -1.313
56.70000 -0.517
56.72000 -1.564
56.74000 0.108
56.76000 1.341
56.78000 6.139
56.80000 10.204
56.82000 10.852
56.84000 9.610
56.86000 9.559
56.88000 6.385
56.90000 7.222
56.92000 8.451
56.94000 6.738
56.96000 -2.531
56.98000 -1.976
57.00000 -2.739
57.02000 3.999
57.04000 5.403
57.06000 3.647
57.08000 5.426
57.10000 1.931
57.12000 4.339
57.14000 5.621
57.16000 6.362
57.18000 5.133
57.20000 6.072
57.22000 4.573
57.24000 5.936
57.26000 6.849
57.28000 3.595
57.30000 4.845
57.32000 5.953
57.34000 3.064
57.36000 3.896
57.38000 5.867
57.40000 7.841
57.42000 4.517
57.44000 1.185
57.46000 -2.718
57.48000 -0.628
57.50000 0.893
57.52000 3.785
57.54000 2.323
57.56000 6.247
57.58000 8.069
57.60000 9.496
57.62000 5.101
57.64000 -0.044
57.66000 -1.409
57.68000 -0.429
57.70000 0.636
57.72000 6.046
57.74000 4.830
57.76000 1.272
57.78000 3.684
57.80000 1.132
57.82000 0.020
57.84000 -0.096
57.86000 1.340
57.88000 3.265
57.90000 6.478
57.92000 3.352
57.94000 0.911
57.96000 2.319
57.98000 2.266
58.00000 3.488
58.02000 2.764
58.04000 1.409
58.06000 0.680
58.08000 3.797
58.10000 6.039
58.12000 4.501
58.14000 0.988
58.16000 -0.055
58.18000 3.511
58.20000 5.038
58.22000 3.239
58.24000 2.346
58.26000 3.185
58.28000 5.925
58.30000 5.605
58.32000 2.078
58.34000 4.333
58.36000 1.513
58.38000 0.719
58.40000 3.491
58.42000 2.273
58.44000 5.629
58.46000 5.686
58.48000 3.202
58.50000 2.686
58.52000 2.322
58.54000 2.474
58.56000 5.311
58.58000 1.869
58.60000 -1.589
58.62000 1.125
58.64000 -1.365
58.66000 -1.145
58.68000 -1.376
58.70000 4.899
58.72000 4.117
58.74000 -2.317
58.76000 2.180
58.78000 2.140
58.80000 0.997
58.82000 1.462
58.84000 3.277
58.86000 0.809
58.88000 2.627
58.90000 4.247
58.92000 4.615
58.94000 1.378
58.96000 -0.914
58.98000 -1.274
59.00000 1.996
59.02000 4.778
59.04000 5.018
59.06000 3.001
59.08000 4.087
59.10000 7.915
59.12000 6.171
59.14000 -2.177
59.16000 1.504
59.18000 1.938
59.20000 -1.937
59.22000 0.504
59.24000 1.804
59.26000 4.301
59.28000 1.409
59.30000 -1.274
59.32000 -2.368
59.34000 -1.778
59.36000 0.933
59.38000 5.753
59.40000 3.717
59.42000 2.589
59.44000 1.557
59.46000 0.890
59.48000 -1.607
59.50000 0.687
59.52000 4.248
59.54000 3.548
59.56000 1.114
59.58000 6.049
59.60000 7.524
59.62000 5.830
59.64000 8.403
59.66000 3.045
59.68000 2.445
59.70000 4.465
59.72000 6.086
59.74000 2.613
59.76000 -2.672
59.78000 4.304
59.80000 4.432
59.82000 2.465
59.84000 3.398
59.86000 1.325
59.88000 5.112
59.90000 3.179
59.92000 6.855
59.94000 9.479
59.96000 6.815
59.98000 3.968
60.00000 0.307
60.02000 -0.661
60.04000 -1.680
60.06000 -0.419
60.08000 3.663
60.10000 7.841
60.12000 4.072
60.14000 0.790
60.16000 0.362
60.18000 -1.421
60.20000 3.554
60.22000 3.787
60.24000 9.129
60.26000 5.449
60.28000 -1.444
60.30000 -1.733
60.32000 -0.656
60.34000 4.300
60.36000 4.694
60.38000 3.281
60.40000 4.455
60.42000 8.099
60.44000 6.675
60.46000 4.684
60.48000 5.895
60.50000 3.567
60.52000 6.392
60.54000 2.707
60.56000 6.626
60.58000 1.730
60.60000 2.029
60.62000 7.849
60.64000 4.029
60.66000 5.162
60.68000 6.305
60.70000 7.213
60.72000 8.030
60.74000 7.997
60.76000 4.765
60.78000 -2.580
60.80000 2.049
60.82000 5.450
60.84000 2.684
60.86000 4.175
60.88000 4.146
60.90000 4.806
60.92000 8.632
60.94000 6.495
60.96000 4.838
60.98000 6.929
61.00000 4.741
61.02000 0.467
61.04000 1.526
61.06000 2.244
61.08000 4.339
61.10000 0.193
61.12000 1.769
61.14000 1.813
61.16000 -1.126
61.18000 2.347
61.20000 4.251
61.22000 5.006
61.24000 7.067
61.26000 5.030
61.28000 0.743
61.30000 2.469
61.32000 1.084
61.34000 2.713
61.36000 5.487
61.38000 8.584
61.40000 3.803
61.42000 3.024
61.44000 1.315
61.46000 0.614
61.48000 3.983
61.50000 7.864
61.52000 2.245
61.54000 4.044
61.56000 3.245
61.58000 5.861
61.60000 5.620
61.62000 2.009
61.64000 1.470
61.66000 1.866
61.68000 -0.501
61.70000 -1.603
61.72000 0.785
61.74000 -2.270
61.76000 -0.609
61.78000 2.224
61.80000 0.025
61.82000 1.275
61.84000 4.302
61.86000 2.100
61.88000 -1.365
61.90000 -0.497
61.92000 1.916
61.94000 2.576
61.96000 1.317
61.98000 0.189
62.00000 3.709
62.02000 3.711
62.04000 6.853
62.06000 6.303
62.08000 6.250
62.10000 3.213
62.12000 4.309
62.14000 7.438
62.16000 3.860
62.18000 2.743
62.20000 0.033
62.22000 -2.590
62.24000 0.058
62.26000 4.089
62.28000 1.036
62.30000 6.758
62.32000 2.976
62.34000 1.383
62.36000 3.077
62.38000 1.533
62.40000 1.412
62.42000 1.829
62.44000 10.279
62.46000 8.578
62.48000 7.649
62.50000 5.420
62.52000 3.379
62.54000 2.936
62.56000 6.493
62.58000 6.109
62.60000 0.532
62.62000 0.339
62.64000 0.563
62.66000 4.526
62.68000 3.649
62.70000 2.608
62.72000 0.199
62.74000 3.286
62.76000 5.450
62.78000 4.651
62.80000 -0.209
62.82000 -1.361
62.84000 1.903
62.86000 2.913
62.88000 4.036
62.90000 -0.588
62.92000 0.354
62.94000 2.088
62.96000 2.118
62.98000 0.381
63.00000 3.695
63.02000 3.666
63.04000 0.425
63.06000 3.592
63.08000 3.270
63.10000 6.402
63.12000 2.536
63.14000 -0.922
63.16000 5.832
63.18000 6.034
63.20000 0.555
63.22000 -1.081
63.24000 1.368
63.26000 -2.564
63.28000 -0.624
63.30000 2.576
63.32000 3.307
63.34000 1.724
63.36000 3.476
63.38000 6.084
63.40000 5.615
63.42000 1.005
63.44000 -1.191
63.46000 2.580
63.48000 1.594
63.50000 0.491
63.52000 2.223
63.54000 0.592
63.56000 -2.543
63.58000 3.036
63.60000 7.480
63.62000 2.350
63.64000 5.750
63.66000 5.738
63.68000 2.920
63.70000 7.574
63.72000 6.913
63.74000 2.349
63.76000 2.831
63.78000 2.214
63.80000 3.813
63.82000 1.314
63.84000 5.447
63.86000 2.260
63.88000 2.387
63.90000 0.176
63.92000 0.815
63.94000 -0.738
63.96000 4.494
63.98000 4.672
64.00000 -0.611
64.02000 2.928
64.04000 4.598
64.06000 1.382
64.08000 2.117
64.10000 0.004
64.12000 3.095
64.14000 7.550
64.16000 1.637
64.18000 2.876
64.20000 2.254
64.22000 2.395
64.24000 4.580
64.26000 4.005
64.28000 2.609
64.30000 0.753
64.32000 -2.524
64.34000 -0.635
64.36000 -0.663
64.38000 2.806
64.40000 5.896
64.42000 8.265
64.44000 2.062
64.46000 -1.668
64.48000 -2.518
64.50000 6.098
64.52000 6.686
64.54000 4.268
64.56000 3.528
64.58000 2.495
64.60000 4.921
64.62000 0.551
64.64000 0.136
64.66000 3.933
64.68000 2.031
64.70000 4.176
64.72000 1.525
64.74000 1.057
64.76000 0.534
64.78000 -1.960
64.80000 2.280
64.82000 4.468
64.84000 5.469
64.86000 3.978
64.88000 3.314
64.90000 0.760
64.92000 3.148
64.94000 4.085
64.96000 5.522
64.98000 2.932
65.00000 -0.765
65.02000 1.566
65.04000 3.089
65.06000 3.208
65.08000 1.741
65.10000 4.005
65.12000 4.871
65.14000 2.685
65.16000 1.678
65.18000 7.264
65.20000 6.176
65.22000 1.614
65.24000 3.231
65.26000 4.192
65.28000 -0.369
65.30000 -2.536
65.32000 -0.200
65.34000 3.045
65.36000 4.058
65.38000 0.480
65.40000 0.156
65.42000 2.505
65.44000 -0.720
65.46000 -1.285
65.48000 4.372
65.50000 7.565
65.52000 5.687
65.54000 2.805
65.56000 1.978
65.58000 1.188
65.60000 -1.200
65.62000 3.338
65.64000 1.710
65.66000 1.961
65.68000 2.623
65.70000 -0.982
65.72000 -0.781
65.74000 -0.009
65.76000 -1.830
65.78000 -2.525
65.80000 -2.000
65.82000 1.866
65.84000 2.243
65.86000 3.834
65.88000 5.590
65.90000 5.351
65.92000 2.792
65.94000 2.030
65.96000 -1.597
65.98000 -1.159
66.00000 0.631
66.02000 3.420
66.04000 3.426
66.06000 2.146
66.08000 4.798
66.10000 5.703
66.12000 4.924
66.14000 3.325
66.16000 -1.470
66.18000 1.295
66.20000 1.430
66.22000 3.668
66.24000 1.898
66.26000 4.453
66.28000 2.415
66.30000 -0.971
66.32000 1.340
66.34000 3.123
66.36000 2.803
66.38000 -2.528
66.40000 0.026
66.42000 1.330
66.44000 0.691
66.46000 2.918
66.48000 4.262
66.50000 4.765
66.52000 5.156
66.54000 2.430
66.56000 2.806
66.58000 1.364
66.60000 0.967
66.62000 -2.529
66.64000 -1.307
66.66000 -0.158
66.68000 1.342
66.70000 0.198
66.72000 -1.160
66.74000 -2.216
66.76000 -0.236
66.78000 -1.917
66.80000 -0.492
66.82000 2.952
66.84000 3.141
66.86000 2.367
66.88000 0.676
66.90000 1.289
66.92000 0.919
66.94000 0.347
66.96000 -1.779
66.98000 -1.694
67.00000 1.300
67.02000 0.175
67.04000 0.830
67.06000 1.006
67.08000 0.195
67.10000 -0.774
67.12000 -0.583
67.14000 -2.537
67.16000 -0.359
67.18000 0.372
67.20000 0.573
67.22000 2.167
67.24000 2.372
67.26000 2.861
67.28000 2.340
67.30000 1.881
67.32000 2.055
67.34000 0.478
67.36000 2.202
67.38000 3.637
67.40000 3.065
67.42000 1.062
67.44000 -2.539
67.46000 2.289
67.48000 0.188
67.50000 0.637
67.52000 0.042
67.54000 -1.650
67.56000 -1.593
67.58000 0.602
67.60000 -0.417
67.62000 -2.543
67.64000 -1.595
67.66000 2.093
67.68000 2.863
67.70000 3.768
67.72000 2.427
67.74000 -0.273
67.76000 -1.012
67.78000 -0.780
67.80000 0.316
67.82000 1.260
67.84000 1.243
67.86000 -0.178
67.88000 -0.290
67.90000 2.693
67.92000 3.235
67.94000 1.451
67.96000 -0.715
67.98000 2.030
68.00000 4.059
68.02000 4.612
68.04000 6.084
68.06000 4.107
68.08000 1.437
68.10000 2.617
68.12000 2.573
68.14000 5.379
68.16000 4.535
68.18000 2.177
68.20000 2.450
68.22000 5.191
68.24000 4.446
68.26000 5.961
68.28000 2.610
68.30000 3.468
68.32000 5.601
68.34000 4.983
68.36000 4.296
68.38000 7.058
68.40000 8.416
68.42000 7.021
68.44000 9.043
68.46000 6.821
68.48000 5.995
68.50000 9.025
68.52000 9.605
68.54000 9.575
68.56000 8.175
68.58000 6.718
68.60000 10.475
68.62000 12.511
68.64000 12.466
68.66000 8.965
68.68000 4.638
68.70000 11.131
68.72000 13.729
68.74000 13.530
68.76000 11.846
68.78000 13.901
68.80000 13.790
68.82000 11.611
68.84000 11.846
68.86000 15.852
68.88000 20.131
68.90000 18.371
68.92000 21.174
68.94000 18.831
68.96000 13.663
68.98000 17.348
69.00000 17.225
69.02000 14.906
69.04000 17.799
69.06000 21.663
69.08000 17.522
69.10000 19.160
69.12000 20.524
69.14000 23.843
69.16000 25.984
69.18000 24.596
69.20000 24.143
69.22000 26.629
69.24000 19.209
69.26000 15.137
69.28000 21.201
69.30000 21.698
69.32000 19.783
69.34000 17.490
69.36000 22.094
69.38000 25.312
69.40000 26.846
69.42000 22.197
69.44000 22.528
69.46000 18.563
69.48000 13.916
69.50000 17.624
69.52000 19.950
69.54000 19.434
69.56000 15.737
69.58000 13.012
69.60000 15.086
69.62000 15.892
69.64000 15.252
69.66000 13.833
69.68000 12.473
69.70000 12.802
69.72000 14.143
69.74000 13.255
69.76000 12.282
69.78000 10.616
69.80000 11.203
69.82000 9.894
69.84000 10.657
69.86000 7.832
69.88000 6.809
69.90000 8.563
69.92000 4.125
69.94000 8.180
69.96000 11.144
69.98000 8.289
70.00000 8.116
70.02000 7.283
70.04000 6.838
70.06000 6.897
70.08000 5.057
70.10000 5.438
70.12000 5.740
70.14000 8.308
70.16000 5.153
70.18000 5.003
70.20000 3.945
70.22000 1.439
70.24000 1.463
70.26000 2.019
70.28000 1.919
70.30000 5.313
70.32000 4.027
70.34000 2.342
70.36000 4.256
70.38000 7.913
70.40000 3.853
70.42000 1.284
70.44000 0.323
70.46000 1.037
70.48000 4.250
70.50000 4.941
70.52000 2.724
70.54000 3.017
70.56000 5.088
70.58000 3.699
70.60000 2.158
70.62000 0.615
70.64000 2.122
70.66000 -2.408
70.68000 -1.024
70.70000 2.542
70.72000 4.000
70.74000 5.928
70.76000 1.077
70.78000 -1.375
70.80000 5.001
70.82000 3.352
70.84000 3.525
70.86000 3.750
70.88000 1.525
70.90000 0.430
70.92000 0.810
70.94000 0.992
70.96000 1.198
70.98000 1.274
71.00000 0.130
71.02000 4.083
71.04000 1.871
71.06000 3.695
71.08000 3.316
71.10000 0.920
71.12000 1.023
71.14000 2.918
71.16000 -2.352
71.18000 -0.027
71.20000 4.539
71.22000 3.909
71.24000 -0.269
71.26000 2.281
71.28000 1.155
71.30000 -0.541
71.32000 -0.766
71.34000 0.884
71.36000 -2.339
71.38000 -1.669
71.40000 2.842
71.42000 3.968
71.44000 2.840
71.46000 2.660
71.48000 3.285
71.50000 2.437
71.52000 0.684
71.54000 0.736
71.56000 -0.240
71.58000 2.114
71.60000 1.599
71.62000 -0.586
71.64000 -0.535
71.66000 -0.465
71.68000 -0.593
71.70000 -0.817
71.72000 -0.252
71.74000 0.455
71.76000 0.143
71.78000 1.647
71.80000 -0.087
71.82000 2.674
71.84000 3.505
71.86000 -0.076
71.88000 0.598
71.90000 0.383
71.92000 -0.131
71.94000 0.859
71.96000 -2.170
71.98000 -0.838
72.00000 3.014
72.02000 4.315
72.04000 3.553
72.06000 1.172
72.08000 -0.715
72.10000 0.565
72.12000 -1.128
72.14000 -1.659
72.16000 0.398
72.18000 -1.519
72.20000 -2.276
72.22000 1.447
72.24000 0.762
72.26000 0.309
72.28000 -0.979
72.30000 -0.718
72.32000 1.850
72.34000 -0.468
72.36000 1.336
72.38000 5.481
72.40000 5.092
72.42000 9.543
72.44000 2.936
72.46000 2.417
72.48000 5.692
72.50000 5.766
72.52000 4.011
72.54000 3.906
72.56000 1.843
72.58000 -2.238
72.60000 1.868
72.62000 1.666
72.64000 1.842
72.66000 3.296
72.68000 4.120
72.70000 6.885
72.72000 6.875
72.74000 6.306
72.76000 6.552
72.78000 0.865
72.80000 -1.655
72.82000 0.029
72.84000 0.165
72.86000 3.844
72.88000 2.915
72.90000 1.939
72.92000 -2.234
72.94000 -0.648
72.96000 -2.125
72.98000 -0.506
73.00000 0.209
73.02000 -0.810
73.04000 -1.304
73.06000 1.790
73.08000 2.465
73.10000 5.742
73.12000 1.957
73.14000 1.346
73.16000 -0.311
73.18000 1.014
73.20000 0.982
73.22000 0.833
73.24000 1.150
73.26000 3.121
73.28000 0.288
73.30000 -0.212
73.32000 2.928
73.34000 2.633
73.36000 0.092
73.38000 0.175
73.40000 -2.215
73.42000 2.297
73.44000 5.814
73.46000 5.186
73.48000 -0.629
73.50000 0.729
73.52000 -0.076
73.54000 -1.319
73.56000 1.452
73.58000 3.826
73.60000 2.358
73.62000 5.214
73.64000 3.177
73.66000 3.086
73.68000 5.153
73.70000 7.813
73.72000 5.810
73.74000 2.380
73.76000 -2.202
73.78000 -0.270
73.80000 -1.500
73.82000 0.426
73.84000 -0.184
73.86000 3.136
73.88000 2.858
73.90000 4.885
73.92000 2.527
73.94000 0.595
73.96000 3.177
73.98000 5.286
74.00000 3.365
74.02000 5.174
74.04000 3.210
74.06000 5.062
74.08000 3.558
74.10000 1.218
74.12000 2.563
74.14000 1.928
74.16000 2.786
74.18000 1.995
74.20000 2.503
74.22000 2.067
74.24000 0.370
74.26000 2.488
74.28000 3.494
74.30000 4.195
74.32000 0.996
74.34000 2.082
74.36000 2.548
74.38000 -0.975
74.40000 1.470
74.42000 4.724
74.44000 2.602
74.46000 -0.918
74.48000 -2.030
74.50000 2.185
74.52000 4.940
74.54000 2.496
74.56000 2.673
74.58000 3.673
74.60000 0.943
74.62000 0.393
74.64000 1.367
74.66000 3.574
74.68000 4.296
74.70000 3.050
74.72000 3.130
74.74000 0.375
74.76000 0.242
74.78000 2.898
74.80000 3.600
74.82000 1.573
74.84000 -1.008
74.86000 3.056
74.88000 3.531
74.90000 0.564
74.92000 -1.393
74.94000 2.126
74.96000 2.613
74.98000 -0.895
75.00000 5.085
75.02000 1.854
75.04000 -0.323
75.06000 -1.657
75.08000 0.824
75.10000 -0.602
75.12000 -1.039
75.14000 2.561
75.16000 1.391
75.18000 0.865
75.20000 0.992
75.22000 4.751
75.24000 6.105
75.26000 3.139
75.28000 3.378
75.30000 1.056
75.32000 -2.203
75.34000 3.850
75.36000 3.092
75.38000 1.914
75.40000 1.212
75.42000 0.851
75.44000 1.902
75.46000 -0.522
75.48000 -2.044
75.50000 -2.196
75.52000 -0.223
75.54000 0.544
75.56000 4.438
75.58000 8.160
75.60000 6.284
75.62000 -1.971
75.64000 -0.359
75.66000 0.387
75.68000 4.055
75.70000 4.113
75.72000 5.688
75.74000 2.233
75.76000 -1.015
75.78000 2.702
75.80000 3.612
75.82000 1.358
75.84000 0.099
75.86000 0.261
75.88000 2.917
75.90000 2.860
75.92000 3.309
75.94000 1.437
75.96000 -1.875
75.98000 -2.119
76.00000 -0.390
76.02000 -2.193
76.04000 -0.721
76.06000 4.491
76.08000 -1.882
76.10000 -0.553
76.12000 1.642
76.14000 0.698
76.16000 0.898
76.18000 3.056
76.20000 4.437
76.22000 1.957
76.24000 3.586
76.26000 2.882
76.28000 1.871
76.30000 6.743
76.32000 2.025
76.34000 -2.189
76.36000 0.843
76.38000 4.571
76.40000 5.452
76.42000 3.929
76.44000 4.473
76.46000 2.616
76.48000 6.481
76.50000 4.431
76.52000 0.799
76.54000 0.775
76.56000 4.212
76.58000 2.610
76.60000 2.631
76.62000 0.429
76.64000 2.252
76.66000 8.088
76.68000 5.677
76.70000 1.002
76.72000 4.136
76.74000 2.307
76.76000 1.201
76.78000 1.640
76.80000 2.003
76.82000 2.369
76.84000 2.684
76.86000 3.997
76.88000 4.425
76.90000 5.663
76.92000 2.722
76.94000 -2.157
76.96000 -2.205
76.98000 3.663
77.00000 1.291
77.02000 1.108
77.04000 -0.128
77.06000 2.776
77.08000 3.755
77.10000 1.140
77.12000 1.002
77.14000 3.491
77.16000 1.902
77.18000 2.940
77.20000 1.831
77.22000 2.387
77.24000 4.673
77.26000 3.500
77.28000 2.095
77.30000 0.367
77.32000 0.428
77.34000 5.188
77.36000 4.874
77.38000 5.440
77.40000 2.561
77.42000 0.889
77.44000 -0.013
77.46000 2.522
77.48000 3.568
77.50000 0.722
77.52000 0.002
77.54000 2.687
77.56000 4.138
77.58000 1.667
77.60000 1.271
77.62000 2.078
77.64000 3.617
77.66000 2.076
77.68000 4.304
77.70000 7.770
77.72000 5.597
77.74000 2.542
77.76000 3.173
77.78000 0.629
77.80000 3.865
77.82000 1.192
77.84000 -0.062
77.86000 2.135
77.88000 2.873
77.90000 3.243
77.92000 4.993
77.94000 -0.265
77.96000 0.927
77.98000 -2.216
78.00000 -0.384
78.02000 0.898
78.04000 3.774
78.06000 2.055
78.08000 6.719
78.10000 5.478
78.12000 0.623
78.14000 0.573
78.16000 0.427
78.18000 2.004
78.20000 5.674
78.22000 4.367
78.24000 0.537
78.26000 -1.026
78.28000 -1.617
78.30000 1.373
78.32000 4.442
78.34000 4.732
78.36000 -0.338
78.38000 1.100
78.40000 4.374
78.42000 -0.494
78.44000 1.801
78.46000 1.011
78.48000 1.267
78.50000 2.844
78.52000 0.343
78.54000 2.015
78.56000 1.910
78.58000 3.573
78.60000 4.531
78.62000 2.559
78.64000 1.475
78.66000 2.846
78.68000 3.679
78.70000 1.099
78.72000 -0.818
78.74000 2.888
78.76000 6.533
78.78000 9.138
78.80000 2.528
78.82000 0.771
78.84000 -2.228
78.86000 -0.831
78.88000 3.078
78.90000 4.535
78.92000 1.760
78.94000 5.488
78.96000 4.501
78.98000 4.772
79.00000 1.567
79.02000 -2.233
79.04000 -1.565
79.06000 1.098
79.08000 2.030
79.10000 3.531
79.12000 1.700
79.14000 0.085
79.16000 2.164
79.18000 -0.837
79.20000 -1.780
79.22000 0.873
79.24000 4.875
79.26000 -2.239
79.28000 -1.125
79.30000 4.139
79.32000 5.626
79.34000 4.004
79.36000 0.278
79.38000 2.611
79.40000 2.645
79.42000 3.268
79.44000 -0.159
79.46000 0.995
79.48000 1.228
79.50000 1.215
79.52000 3.099
79.54000 -0.011
79.56000 1.447
79.58000 1.388
79.60000 3.360
79.62000 1.125
79.64000 0.453
79.66000 2.648
79.68000 4.502
79.70000 0.928
79.72000 2.780
79.74000 6.318
79.76000 4.382
79.78000 3.012
79.80000 4.045
79.82000 3.592
79.84000 0.619
79.86000 -0.733
79.88000 1.451
79.90000 0.806
79.92000 0.401
79.94000 3.577
79.96000 2.640
79.98000 1.904
80.00000 3.619
80.02000 2.388
80.04000 1.478
80.06000 -0.703
80.08000 1.317
80.10000 1.772
80.12000 0.458
80.14000 2.844
80.16000 1.555
80.18000 1.807
80.20000 2.236
80.22000 2.267
80.24000 0.387
80.26000 -1.358
80.28000 -2.251
80.30000 0.193
80.32000 4.104
80.34000 6.914
80.36000 6.594
80.38000 4.868
80.40000 5.492
80.42000 1.434
80.44000 4.919
80.46000 6.104
80.48000 -0.847
80.50000 -1.371
80.52000 0.043
80.54000 6.253
80.56000 6.981
80.58000 6.360
80.60000 5.802
80.62000 4.140
80.64000 0.821
80.66000 0.212
80.68000 -2.246
80.70000 3.595
80.72000 8.468
80.74000 7.741
80.76000 5.795
80.78000 -0.699
80.80000 -0.553
80.82000 -1.828
80.84000 0.093
80.86000 4.186
80.88000 2.585
80.90000 2.016
80.92000 4.927
80.94000 1.145
80.96000 -0.934
80.98000 1.481
81.00000 2.231
81.02000 3.201
81.04000 3.615
81.06000 3.863
81.08000 3.025
81.10000 5.729
81.12000 2.290
81.14000 5.579
81.16000 5.559
81.18000 2.746
81.20000 -1.724
81.22000 -1.481
81.24000 2.060
81.26000 -0.400
81.28000 0.728
81.30000 1.961
81.32000 5.695
81.34000 7.809
81.36000 4.749
81.38000 0.370
81.40000 0.744
81.42000 0.744
81.44000 0.007
81.46000 2.208
81.48000 4.992
81.50000 2.222
81.52000 4.480
81.54000 2.171
81.56000 0.492
81.58000 2.305
81.60000 3.742
81.62000 0.772
81.64000 -2.112
81.66000 -2.331
81.68000 -0.855
81.70000 4.422
81.72000 1.846
81.74000 -0.006
81.76000 -1.805
81.78000 0.495
81.80000 2.034
81.82000 2.767
81.84000 0.920
81.86000 1.173
81.88000 1.205
81.90000 2.425
81.92000 2.161
81.94000 5.354
81.96000 7.860
81.98000 1.710
82.00000 1.188
82.02000 1.915
82.04000 2.186
82.06000 6.427
82.08000 7.141
82.10000 8.130
82.12000 4.620
82.14000 1.911
82.16000 1.502
82.18000 1.994
82.20000 0.119
82.22000 -1.029
82.24000 0.622
82.26000 0.434
82.28000 0.500
82.30000 2.937
82.32000 2.062
82.34000 4.280
82.36000 5.949
82.38000 5.543
82.40000 0.399
82.42000 0.305
82.44000 6.024
82.46000 4.508
82.48000 2.063
82.50000 4.521
82.52000 6.450
82.54000 9.615
82.56000 9.451
82.58000 5.900
82.60000 8.303
82.62000 10.329
82.64000 8.328
82.66000 5.102
82.68000 6.683
82.70000 7.165
82.72000 6.549
82.74000 8.464
82.76000 6.317
82.78000 10.140
82.80000 9.600
82.82000 9.790
82.84000 11.096
82.86000 9.943
82.88000 10.229
82.90000 11.997
82.92000 12.965
82.94000 12.814
82.96000 13.558
82.98000 16.005
83.00000 8.408
83.02000 14.585
83.04000 19.621
83.06000 13.494
83.08000 11.917
83.10000 8.484
83.12000 13.214
83.14000 14.954
83.16000 15.375
83.18000 12.391
83.20000 12.997
83.22000 16.345
83.24000 11.736
83.26000 10.626
83.28000 12.972
83.30000 17.132
83.32000 18.959
83.34000 26.110
83.36000 24.738
83.38000 26.388
83.40000 24.072
83.42000 20.893
83.44000 21.526
83.46000 17.574
83.48000 17.720
83.50000 20.521
83.52000 20.040
83.54000 21.984
83.56000 20.764
83.58000 21.784
83.60000 20.343
83.62000 22.083
83.64000 22.477
83.66000 16.281
83.68000 17.758
83.70000 17.473
83.72000 18.175
83.74000 20.337
83.76000 17.244
83.78000 16.367
83.80000 21.310
83.82000 24.831
83.84000 22.736
83.86000 21.923
83.88000 22.805
83.90000 23.230
83.92000 20.731
83.94000 14.190
83.96000 13.388
83.98000 18.726
84.00000 20.136
84.02000 16.003
84.04000 15.605
84.06000 17.252
84.08000 21.749
84.10000 19.430
84.12000 23.303
84.14000 18.087
84.16000 15.132
84.18000 16.013
84.20000 15.983
84.22000 13.898
84.24000 14.412
84.26000 14.133
84.28000 14.134
84.30000 14.178
84.32000 14.040
84.34000 15.296
84.36000 12.630
84.38000 10.467
84.40000 8.421
84.42000 12.740
84.44000 13.637
84.46000 12.150
84.48000 10.805
84.50000 8.365
84.52000 7.667
84.54000 12.007
84.56000 14.615
84.58000 17.288
84.60000 14.435
84.62000 11.383
84.64000 6.615
84.66000 7.670
84.68000 13.851
84.70000 11.791
84.72000 9.086
84.74000 8.408
84.76000 5.938
84.78000 6.555
84.80000 7.724
84.82000 6.676
84.84000 9.982
84.86000 7.869
84.88000 8.946
84.90000 6.417
84.92000 10.373
84.94000 4.393
84.96000 4.400
84.98000 7.983
85.00000 10.845
85.02000 5.115
85.04000 5.471
85.06000 8.471
85.08000 9.192
85.10000 4.321
85.12000 -2.286
85.14000 3.043
85.16000 8.120
85.18000 7.661
85.20000 5.645
85.22000 6.277
85.24000 2.202
85.26000 4.269
85.28000 2.376
85.30000 -2.011
85.32000 0.407
85.34000 0.792
85.36000 0.573
85.38000 0.436
85.40000 3.202
85.42000 2.830
85.44000 -1.271
85.46000 1.504
85.48000 3.771
85.50000 1.697
85.52000 0.363
85.54000 4.609
85.56000 3.499
85.58000 3.735
85.60000 5.114
85.62000 6.376
85.64000 3.245
85.66000 2.367
85.68000 5.729
85.70000 7.095
85.72000 5.236
85.74000 7.197
85.76000 8.959
85.78000 0.147
85.80000 -2.221
85.82000 5.061
85.84000 5.616
85.86000 4.716
85.88000 2.950
85.90000 3.220
85.92000 0.835
85.94000 3.872
85.96000 8.412
85.98000 3.524
86.00000 -0.237
86.02000 1.140
86.04000 2.780
86.06000 8.815
86.08000 2.334
86.10000 5.459
86.12000 4.972
86.14000 3.668
86.16000 5.623
86.18000 5.005
86.20000 4.522
86.22000 3.025
86.24000 1.366
86.26000 4.742
86.28000 6.317
86.30000 4.882
86.32000 4.509
86.34000 4.080
86.36000 4.094
86.38000 1.559
86.40000 2.593
86.42000 1.538
86.44000 2.644
86.46000 1.594
86.48000 3.207
86.50000 6.569
86.52000 3.822
86.54000 0.580
86.56000 -2.270
86.58000 -0.677
86.60000 2.121
86.62000 -0.771
86.64000 1.594
86.66000 5.393
86.68000 3.381
86.70000 2.657
86.72000 1.005
86.74000 2.077
86.76000 1.795
86.78000 5.037
86.80000 8.066
86.82000 2.666
86.84000 -1.911
86.86000 0.514
86.88000 5.282
86.90000 2.151
86.92000 1.094
86.94000 0.906
86.96000 3.043
86.98000 3.491
87.00000 3.305
87.02000 4.935
87.04000 -0.359
87.06000 1.985
87.08000 5.874
87.10000 5.305
87.12000 6.083
87.14000 1.942
87.16000 3.083
87.18000 6.196
87.20000 4.972
87.22000 9.937
87.24000 6.760
87.26000 5.188
87.28000 7.296
87.30000 3.292
87.32000 8.369
87.34000 7.201
87.36000 3.504
87.38000 4.748
87.40000 7.947
87.42000 9.439
87.44000 7.637
87.46000 8.349
87.48000 8.060
87.50000 8.184
87.52000 8.325
87.54000 6.406
87.56000 7.893
87.58000 7.568
87.60000 5.635
87.62000 11.293
87.64000 11.662
87.66000 15.448
87.68000 10.472
87.70000 8.036
87.72000 9.429
87.74000 11.013
87.76000 10.176
87.78000 12.695
87.80000 14.617
87.82000 15.618
87.84000 16.269
87.86000 17.354
87.88000 14.543
87.90000 11.849
87.92000 15.016
87.94000 16.358
87.96000 16.351
87.98000 18.615
88.00000 16.230
88.02000 15.393
88.04000 16.988
88.06000 15.320
88.08000 15.761
88.10000 16.702
88.12000 18.667
88.14000 16.347
88.16000 16.988
88.18000 16.737
88.20000 25.241
88.22000 19.904
88.24000 18.439
88.26000 19.332
88.28000 18.897
88.30000 20.107
88.32000 19.096
88.34000 18.484
88.36000 18.036
88.38000 19.481
88.40000 17.744
88.42000 17.973
88.44000 19.495
88.46000 17.605
88.48000 15.211
88.50000 13.687
88.52000 15.856
88.54000 13.089
88.56000 10.999
88.58000 11.269
88.60000 17.821
88.62000 16.864
88.64000 15.037
88.66000 13.945
88.68000 16.564
88.70000 15.295
88.72000 19.065
88.74000 14.512
88.76000 16.185
88.78000 14.759
88.80000 14.903
88.82000 14.262
88.84000 10.245
88.86000 10.061
88.88000 12.675
88.90000 19.058
88.92000 17.150
88.94000 10.915
88.96000 9.141
88.98000 10.154
89.00000 8.651
89.02000 3.404
89.04000 5.572
89.06000 7.495
89.08000 10.516
89.10000 8.365
89.12000 3.080
89.14000 4.835
89.16000 6.969
89.18000 7.973
89.20000 6.126
89.22000 5.846
89.24000 5.416
89.26000 3.421
89.28000 5.373
89.30000 3.086
89.32000 4.081
89.34000 1.997
89.36000 6.053
89.38000 6.575
89.40000 6.935
89.42000 5.324
89.44000 6.081
89.46000 3.499
89.48000 4.149
89.50000 3.039
89.52000 5.508
89.54000 5.260
89.56000 3.166
89.58000 9.311
89.60000 7.275
89.62000 3.300
89.64000 4.863
89.66000 3.531
89.68000 0.581
89.70000 2.065
89.72000 4.895
89.74000 6.530
89.76000 2.027
89.78000 4.195
89.80000 0.839
89.82000 4.425
89.84000 1.815
89.86000 -0.048
89.88000 2.204
89.90000 -1.373
89.92000 1.639
89.94000 8.223
89.96000 8.114
89.98000 1.969
90.00000 -2.178
90.02000 0.549
90.04000 4.613
90.06000 3.670
90.08000 0.477
90.10000 3.708
90.12000 4.399
90.14000 5.247
90.16000 2.026
90.18000 4.574
90.20000 4.116
90.22000 2.460
90.24000 5.094
90.26000 6.118
90.28000 3.457
90.30000 0.268
90.32000 4.984
90.34000 4.642
90.36000 5.649
90.38000 4.238
90.40000 1.513
90.42000 2.218
90.44000 -0.024
90.46000 0.865
90.48000 1.417
90.50000 -0.887
90.52000 -1.824
90.54000 0.609
90.56000 -0.435
90.58000 -1.286
90.60000 1.344
90.62000 1.019
90.64000 0.807
90.66000 1.600
90.68000 -0.725
90.70000 1.170
90.72000 1.992
90.74000 1.132
90.76000 0.082
90.78000 0.333
90.80000 0.381
90.82000 5.738
90.84000 4.637
90.86000 1.183
90.88000 2.007
90.90000 -0.007
90.92000 3.762
90.94000 4.985
90.96000 2.244
90.98000 3.309
91.00000 3.553
91.02000 1.150
91.04000 -2.123
91.06000 0.524
91.08000 -1.280
91.10000 -0.067
91.12000 3.732
91.14000 6.473
91.16000 4.994
91.18000 6.067
91.20000 2.885
91.22000 -1.476
91.24000 -0.683
91.26000 -1.076
91.28000 3.606
91.30000 2.303
91.32000 0.716
91.34000 1.000
91.36000 -2.104
91.38000 0.255
91.40000 2.039
91.42000 2.484
91.44000 1.346
91.46000 3.101
91.48000 1.563
91.50000 2.839
91.52000 -2.104
91.54000 0.206
91.56000 3.382
91.58000 3.525
91.60000 2.968
91.62000 1.371
91.64000 -1.314
91.66000 0.302
91.68000 2.060
91.70000 2.999
91.72000 4.796
91.74000 9.105
91.76000 4.342
91.78000 4.634
91.80000 1.018
91.82000 5.857
91.84000 7.410
91.86000 6.187
91.88000 -1.683
91.90000 -0.055
91.92000 0.033
91.94000 0.618
91.96000 0.944
91.98000 1.768
92.00000 4.827
92.02000 7.141
92.04000 4.261
92.06000 1.133
92.08000 -1.204
92.10000 2.723
92.12000 5.813
92.14000 3.906
92.16000 5.498
92.18000 6.871
92.20000 2.636
92.22000 1.953
92.24000 -0.706
92.26000 1.258
92.28000 0.436
92.30000 2.379
92.32000 2.609
92.34000 3.633
92.36000 5.888
92.38000 4.628
92.40000 7.622
92.42000 4.610
92.44000 0.941
92.46000 -0.458
92.48000 5.520
92.50000 3.033
92.52000 3.811
92.54000 5.987
92.56000 7.537
92.58000 6.319
92.60000 1.168
92.62000 -2.062
92.64000 0.695
92.66000 2.350
92.68000 2.515
92.70000 0.132
92.72000 0.751
92.74000 6.131
92.76000 5.386
92.78000 5.697
92.80000 7.139
92.82000 6.875
92.84000 3.626
92.86000 4.356
92.88000 5.146
92.90000 2.388
92.92000 3.022
92.94000 5.431
92.96000 4.380
92.98000 4.193
93.00000 3.328
93.02000 2.590
93.04000 6.008
93.06000 8.203
93.08000 4.307
93.10000 10.076
93.12000 6.959
93.14000 1.902
93.16000 1.402
93.18000 3.634
93.20000 5.775
93.22000 0.914
93.24000 0.399
93.26000 5.512
93.28000 5.961
93.30000 5.096
93.32000 1.181
93.34000 2.722
93.36000 2.972
93.38000 5.130
93.40000 5.873
93.42000 5.098
93.44000 5.273
93.46000 8.645
93.48000 4.402
93.50000 2.523
93.52000 1.155
93.54000 0.830
93.56000 2.712
93.58000 1.843
93.60000 2.990
93.62000 -0.209
93.64000 -2.076
93.66000 -1.115
93.68000 1.005
93.70000 4.820
93.72000 8.709
93.74000 6.109
93.76000 3.393
93.78000 1.459
93.80000 3.777
93.82000 -0.878
93.84000 2.151
93.86000 4.431
93.88000 4.897
93.90000 1.551
93.92000 -2.070
93.94000 -0.193
93.96000 4.845
93.98000 7.961
94.00000 6.349
94.02000 6.623
94.04000 3.346
94.06000 4.917
94.08000 7.054
94.10000 4.130
94.12000 1.564
94.14000 4.386
94.16000 4.167
94.18000 2.831
94.20000 4.307
94.22000 2.125
94.24000 0.306
94.26000 5.633
94.28000 8.143
94.30000 3.497
94.32000 1.889
94.34000 2.823
94.36000 6.261
94.38000 3.528
94.40000 2.753
94.42000 5.650
94.44000 7.356
94.46000 6.368
94.48000 0.729
94.50000 1.823
94.52000 2.204
94.54000 4.078
94.56000 4.011
94.58000 3.809
94.60000 3.235
94.62000 6.407
94.64000 4.676
94.66000 7.543
94.68000 7.581
94.70000 7.663
94.72000 7.702
94.74000 4.820
94.76000 6.651
94.78000 7.480
94.80000 1.009
94.82000 6.816
94.84000 9.664
94.86000 9.237
94.88000 3.787
94.90000 -1.158
94.92000 0.899
94.94000 4.082
94.96000 2.976
94.98000 4.472
95.00000 7.544
95.02000 8.151
95.04000 8.077
95.06000 0.013
95.08000 3.829
95.10000 5.712
95.12000 4.194
95.14000 3.978
95.16000 1.086
95.18000 -1.533
95.20000 0.763
95.22000 4.958
95.24000 6.639
95.26000 6.254
95.28000 4.077
95.30000 1.206
95.32000 2.822
95.34000 3.534
95.36000 3.428
95.38000 0.240
95.40000 1.356
95.42000 4.995
95.44000 4.966
95.46000 4.553
95.48000 2.749
95.50000 6.166
95.52000 5.791
95.54000 5.156
95.56000 5.562
95.58000 7.115
95.60000 11.150
95.62000 6.906
95.64000 2.506
95.66000 4.452
95.68000 4.131
95.70000 4.884
95.72000 1.309
95.74000 6.167
95.76000 8.854
95.78000 8.592
95.80000 5.190
95.82000 9.462
95.84000 8.668
95.86000 3.969
95.88000 8.651
95.90000 7.513
95.92000 7.831
95.94000 4.985
95.96000 1.682
95.98000 -0.181
96.00000 5.073
96.02000 6.339
96.04000 3.392
96.06000 2.721
96.08000 3.133
96.10000 3.569
96.12000 9.999
96.14000 13.525
96.16000 10.730
96.18000 9.348
96.20000 9.582
96.22000 5.578
96.24000 3.246
96.26000 1.715
96.28000 -2.020
96.30000 6.550
96.32000 11.218
96.34000 7.064
96.36000 11.521
96.38000 6.891
96.40000 2.814
96.42000 6.979
96.44000 7.136
96.46000 5.624
96.48000 4.370
96.50000 4.276
96.52000 9.043
96.54000 6.517
96.56000 5.040
96.58000 10.979
96.60000 7.758
96.62000 3.213
96.64000 7.016
96.66000 11.389
96.68000 9.772
96.70000 9.547
96.72000 5.327
96.74000 4.133
96.76000 5.835
96.78000 5.201
96.80000 3.347
96.82000 3.440
96.84000 3.664
96.86000 2.437
96.88000 5.699
96.90000 9.563
96.92000 11.664
96.94000 10.227
96.96000 4.441
96.98000 8.012
97.00000 8.124
97.02000 9.153
97.04000 1.682
97.06000 1.512
97.08000 0.456
97.10000 0.582
97.12000 0.344
97.14000 -0.138
97.16000 7.799
97.18000 11.759
97.20000 5.122
97.22000 8.059
97.24000 9.398
97.26000 3.540
97.28000 6.324
97.30000 3.861
97.32000 3.412
97.34000 2.179
97.36000 -1.741
97.38000 2.656
97.40000 8.310
97.42000 8.299
97.44000 5.599
97.46000 2.226
97.48000 1.275
97.50000 7.387
97.52000 6.704
97.54000 8.624
97.56000 9.312
97.58000 1.689
97.60000 0.245
97.62000 0.905
97.64000 7.562
97.66000 13.453
97.68000 7.006
97.70000 8.028
97.72000 4.732
97.74000 2.079
97.76000 4.379
97.78000 3.954
97.80000 7.256
97.82000 3.361
97.84000 0.375
97.86000 0.617
97.88000 5.739
97.90000 3.715
97.92000 4.371
97.94000 9.919
97.96000 11.531
97.98000 6.563
98.00000 5.965
98.02000 7.392
98.04000 9.955
98.06000 7.623
98.08000 2.026
98.10000 5.290
98.12000 6.825
98.14000 7.077
98.16000 10.289
98.18000 7.794
98.20000 5.726
98.22000 4.706
98.24000 5.052
98.26000 0.488
98.28000 3.258
98.30000 0.061
98.32000 -2.006
98.34000 7.376
98.36000 7.940
98.38000 5.194
98.40000 4.620
98.42000 3.383
98.44000 6.443
98.46000 6.904
98.48000 1.673
98.50000 4.379
98.52000 5.012
98.54000 1.904
98.56000 3.904
98.58000 1.550
98.60000 4.447
98.62000 6.611
98.64000 5.533
98.66000 3.520
98.68000 0.361
98.70000 3.113
98.72000 4.092
98.74000 3.322
98.76000 7.507
98.78000 5.095
98.80000 14.824
98.82000 8.694
98.84000 8.108
98.86000 5.641
98.88000 10.007
98.90000 1.863
98.92000 1.809
98.94000 7.194
98.96000 3.588
98.98000 10.937
99.00000 9.418
99.02000 4.525
99.04000 0.040
99.06000 5.834
99.08000 6.955
99.10000 6.545
99.12000 5.052
99.14000 2.770
99.16000 -2.051
99.18000 1.424
99.20000 0.082
99.22000 -1.506
99.24000 3.808
99.26000 7.129
99.28000 7.943
99.30000 9.317
99.32000 10.932
99.34000 10.802
99.36000 8.371
99.38000 6.370
99.40000 5.471
99.42000 8.953
99.44000 5.895
99.46000 5.042
99.48000 3.710
99.50000 4.239
99.52000 -0.632
99.54000 0.375
99.56000 2.522
99.58000 3.187
99.60000 9.724
99.62000 4.115
99.64000 4.133
99.66000 0.798
99.68000 4.782
99.70000 -4.610
99.72000 5.590
99.74000 6.599
99.76000 6.229
99.78000 6.690
99.80000 0.190
99.82000 -0.692
99.84000 5.805
99.86000 4.562
99.88000 0.012
99.90000 5.700
99.92000 1.904
99.94000 -1.998
99.96000 -2.152
99.98000 0.000
