'Id: "0011387" Comment: "Integrate frame 0011387_Au-Ir-Rh_Rh-rich_XRD-Mapping-285-0000.gfrmwith cursor Wedge Cursor #5" Operator: "B?rgel" Anode: "Cu" Wavelength: "1.5406" Scantype: "2Theta (TwoTheta)" TimePerStep: "1" X: "-9" Y: "27" Z: "5.95" 
10.00000 0.000
10.02000 -0.108
10.04000 -4.451
10.06000 8.983
10.08000 16.023
10.10000 8.991
10.12000 -3.816
10.14000 10.111
10.16000 11.779
10.18000 2.093
10.20000 -4.431
10.22000 2.200
10.24000 14.800
10.26000 23.867
10.28000 12.082
10.30000 10.546
10.32000 19.644
10.34000 4.970
10.36000 -4.413
10.38000 4.484
10.40000 7.615
10.42000 13.926
10.44000 20.296
10.46000 18.228
10.48000 19.670
10.50000 10.980
10.52000 6.169
10.54000 21.033
10.56000 15.827
10.58000 12.137
10.60000 16.322
10.62000 11.763
10.64000 -4.409
10.66000 6.660
10.68000 11.648
10.70000 18.506
10.72000 15.666
10.74000 15.386
10.76000 13.524
10.78000 8.362
10.80000 10.025
10.82000 11.931
10.84000 23.008
10.86000 13.916
10.88000 7.366
10.90000 10.029
10.92000 8.198
10.94000 14.810
10.96000 21.955
10.98000 17.749
11.00000 11.197
11.02000 6.542
11.04000 6.132
11.06000 10.237
11.08000 17.406
11.10000 20.362
11.12000 8.179
11.14000 -4.399
11.16000 6.253
11.18000 10.916
11.20000 14.732
11.22000 23.805
11.24000 28.136
11.26000 20.338
11.28000 17.141
11.30000 7.640
11.32000 4.642
11.34000 18.695
11.36000 19.440
11.38000 28.469
11.40000 17.676
11.42000 16.608
11.44000 -4.394
11.46000 -0.821
11.48000 12.741
11.50000 14.144
11.52000 22.590
11.54000 8.141
11.56000 9.133
11.58000 16.148
11.60000 14.860
11.62000 17.712
11.64000 5.679
11.66000 2.269
11.68000 5.458
11.70000 12.449
11.72000 14.919
11.74000 16.759
11.76000 3.874
11.78000 -0.510
11.80000 9.839
11.82000 13.472
11.84000 14.277
11.86000 10.331
11.88000 4.286
11.90000 17.963
11.92000 13.170
11.94000 13.101
11.96000 14.169
11.98000 16.362
12.00000 6.977
12.02000 8.471
12.04000 10.754
12.06000 5.675
12.08000 16.898
12.10000 27.591
12.12000 15.796
12.14000 16.085
12.16000 18.084
12.18000 14.008
12.20000 7.968
12.22000 4.564
12.24000 11.594
12.26000 19.535
12.28000 23.484
12.30000 13.860
12.32000 9.329
12.34000 -4.432
12.36000 2.365
12.38000 19.603
12.40000 19.330
12.42000 18.170
12.44000 24.781
12.46000 17.909
12.48000 24.610
12.50000 13.548
12.52000 5.731
12.54000 2.663
12.56000 7.297
12.58000 10.322
12.60000 15.740
12.62000 13.265
12.64000 15.394
12.66000 18.728
12.68000 12.101
12.70000 18.323
12.72000 17.396
12.74000 10.680
12.76000 16.492
12.78000 11.413
12.80000 11.291
12.82000 11.411
12.84000 17.572
12.86000 18.209
12.88000 13.840
12.90000 16.729
12.92000 16.571
12.94000 8.547
12.96000 13.037
12.98000 17.608
13.00000 20.998
13.02000 15.905
13.04000 20.024
13.06000 26.954
13.08000 13.616
13.10000 6.782
13.12000 5.142
13.14000 18.492
13.16000 8.153
13.18000 7.430
13.20000 7.764
13.22000 21.421
13.24000 21.426
13.26000 13.955
13.28000 12.757
13.30000 15.400
13.32000 19.630
13.34000 9.099
13.36000 -2.940
13.38000 4.747
13.40000 17.918
13.42000 21.673
13.44000 8.516
13.46000 3.478
13.48000 0.137
13.50000 2.398
13.52000 15.925
13.54000 20.166
13.56000 11.811
13.58000 10.450
13.60000 10.065
13.62000 8.722
13.64000 4.087
13.66000 14.158
13.68000 14.997
13.70000 17.664
13.72000 20.303
13.74000 26.095
13.76000 18.270
13.78000 -1.327
13.80000 6.378
13.82000 11.606
13.84000 9.091
13.86000 4.128
13.88000 1.963
13.90000 1.445
13.92000 -3.708
13.94000 1.226
13.96000 2.540
13.98000 4.008
14.00000 7.584
14.02000 6.024
14.04000 6.442
14.06000 10.201
14.08000 15.105
14.10000 22.483
14.12000 21.756
14.14000 13.796
14.16000 15.750
14.18000 4.831
14.20000 -3.491
14.22000 0.609
14.24000 -1.969
14.26000 0.186
14.28000 4.870
14.30000 5.801
14.32000 12.397
14.34000 9.725
14.36000 6.531
14.38000 0.142
14.40000 2.754
14.42000 16.793
14.44000 10.080
14.46000 9.169
14.48000 11.506
14.50000 2.845
14.52000 1.299
14.54000 3.733
14.56000 -0.186
14.58000 -1.777
14.60000 10.101
14.62000 10.833
14.64000 13.600
14.66000 9.445
14.68000 -4.490
14.70000 4.022
14.72000 11.166
14.74000 7.605
14.76000 1.053
14.78000 5.462
14.80000 -3.882
14.82000 3.098
14.84000 8.644
14.86000 0.125
14.88000 4.270
14.90000 3.501
14.92000 11.172
14.94000 3.041
14.96000 3.307
14.98000 10.839
15.00000 14.485
15.02000 8.241
15.04000 4.087
15.06000 8.362
15.08000 9.635
15.10000 0.516
15.12000 11.087
15.14000 7.800
15.16000 4.055
15.18000 11.091
15.20000 11.489
15.22000 13.110
15.24000 16.432
15.26000 16.247
15.28000 15.350
15.30000 12.332
15.32000 8.866
15.34000 0.494
15.36000 3.676
15.38000 13.473
15.40000 14.657
15.42000 14.819
15.44000 9.414
15.46000 12.700
15.48000 13.772
15.50000 13.045
15.52000 10.040
15.54000 4.834
15.56000 -4.473
15.58000 -0.693
15.60000 2.833
15.62000 2.731
15.64000 9.051
15.66000 10.269
15.68000 10.140
15.70000 15.284
15.72000 10.975
15.74000 8.428
15.76000 3.616
15.78000 -1.266
15.80000 1.229
15.82000 6.237
15.84000 9.148
15.86000 9.498
15.88000 7.572
15.90000 8.651
15.92000 7.536
15.94000 6.093
15.96000 0.711
15.98000 5.211
16.00000 13.239
16.02000 15.418
16.04000 9.441
16.06000 1.701
16.08000 4.060
16.10000 1.582
16.12000 11.640
16.14000 19.662
16.16000 11.754
16.18000 5.808
16.20000 -0.406
16.22000 2.373
16.24000 8.393
16.26000 13.190
16.28000 9.238
16.30000 3.876
16.32000 5.612
16.34000 7.719
16.36000 14.687
16.38000 13.053
16.40000 14.546
16.42000 14.283
16.44000 7.319
16.46000 10.829
16.48000 11.846
16.50000 11.370
16.52000 5.002
16.54000 9.216
16.56000 7.846
16.58000 6.901
16.60000 6.892
16.62000 6.912
16.64000 1.396
16.66000 2.967
16.68000 1.252
16.70000 11.711
16.72000 5.349
16.74000 5.091
16.76000 10.438
16.78000 10.236
16.80000 9.031
16.82000 8.563
16.84000 10.628
16.86000 18.294
16.88000 8.751
16.90000 7.531
16.92000 8.483
16.94000 4.775
16.96000 9.472
16.98000 10.421
17.00000 2.221
17.02000 8.088
17.04000 10.993
17.06000 7.264
17.08000 -0.972
17.10000 -4.385
17.12000 6.373
17.14000 14.760
17.16000 13.747
17.18000 5.141
17.20000 -0.872
17.22000 4.106
17.24000 8.478
17.26000 3.037
17.28000 6.971
17.30000 7.510
17.32000 8.263
17.34000 12.949
17.36000 14.476
17.38000 10.711
17.40000 12.507
17.42000 15.648
17.44000 10.861
17.46000 4.221
17.48000 0.273
17.50000 7.124
17.52000 7.661
17.54000 10.250
17.56000 6.584
17.58000 -0.320
17.60000 5.600
17.62000 10.566
17.64000 6.502
17.66000 6.064
17.68000 11.208
17.70000 11.686
17.72000 11.344
17.74000 12.266
17.76000 11.692
17.78000 4.987
17.80000 5.222
17.82000 5.951
17.84000 0.410
17.86000 4.456
17.88000 -0.135
17.90000 1.695
17.92000 6.987
17.94000 7.916
17.96000 3.000
17.98000 3.898
18.00000 5.017
18.02000 8.484
18.04000 5.338
18.06000 9.381
18.08000 9.657
18.10000 8.180
18.12000 6.833
18.14000 12.889
18.16000 12.347
18.18000 -1.437
18.20000 3.830
18.22000 9.010
18.24000 2.985
18.26000 5.792
18.28000 7.466
18.30000 5.152
18.32000 7.006
18.34000 7.897
18.36000 5.011
18.38000 5.207
18.40000 12.548
18.42000 13.560
18.44000 15.022
18.46000 7.132
18.48000 2.245
18.50000 5.181
18.52000 4.698
18.54000 -4.310
18.56000 2.660
18.58000 9.580
18.60000 8.251
18.62000 3.307
18.64000 0.184
18.66000 7.504
18.68000 16.897
18.70000 12.824
18.72000 2.202
18.74000 -2.762
18.76000 4.326
18.78000 3.138
18.80000 10.220
18.82000 3.656
18.84000 7.665
18.86000 12.168
18.88000 9.414
18.90000 5.559
18.92000 5.125
18.94000 8.150
18.96000 10.249
18.98000 10.325
19.00000 14.912
19.02000 9.716
19.04000 6.004
19.06000 10.137
19.08000 4.272
19.10000 1.953
19.12000 5.119
19.14000 10.750
19.16000 7.976
19.18000 5.652
19.20000 11.787
19.22000 10.374
19.24000 9.793
19.26000 1.317
19.28000 3.740
19.30000 4.071
19.32000 3.073
19.34000 1.638
19.36000 4.254
19.38000 2.933
19.40000 1.765
19.42000 4.849
19.44000 13.096
19.46000 14.252
19.48000 6.885
19.50000 2.424
19.52000 -0.222
19.54000 8.876
19.56000 13.250
19.58000 4.518
19.60000 -4.221
19.62000 4.177
19.64000 11.787
19.66000 9.600
19.68000 9.460
19.70000 9.977
19.72000 6.511
19.74000 5.168
19.76000 10.780
19.78000 16.260
19.80000 19.001
19.82000 12.053
19.84000 0.259
19.86000 -0.261
19.88000 -0.426
19.90000 1.915
19.92000 6.333
19.94000 6.576
19.96000 7.694
19.98000 -3.060
20.00000 1.854
20.02000 14.476
20.04000 6.664
20.06000 11.449
20.08000 16.186
20.10000 9.542
20.12000 0.678
20.14000 0.961
20.16000 9.464
20.18000 7.474
20.20000 2.595
20.22000 4.077
20.24000 12.834
20.26000 8.860
20.28000 6.412
20.30000 3.010
20.32000 4.476
20.34000 6.528
20.36000 2.718
20.38000 3.213
20.40000 3.629
20.42000 5.609
20.44000 4.658
20.46000 5.421
20.48000 4.490
20.50000 3.348
20.52000 1.134
20.54000 0.993
20.56000 -0.175
20.58000 4.352
20.60000 6.972
20.62000 0.919
20.64000 -3.040
20.66000 -4.202
20.68000 -0.494
20.70000 4.771
20.72000 1.951
20.74000 2.894
20.76000 1.774
20.78000 -0.879
20.80000 3.329
20.82000 10.208
20.84000 10.301
20.86000 10.526
20.88000 11.506
20.90000 6.814
20.92000 1.454
20.94000 4.759
20.96000 4.381
20.98000 -0.409
21.00000 2.092
21.02000 7.580
21.04000 5.403
21.06000 0.842
21.08000 3.124
21.10000 1.458
21.12000 3.516
21.14000 1.563
21.16000 1.258
21.18000 4.666
21.20000 -3.374
21.22000 -3.171
21.24000 1.617
21.26000 -1.714
21.28000 -2.627
21.30000 1.995
21.32000 10.830
21.34000 10.450
21.36000 5.959
21.38000 -2.737
21.40000 1.523
21.42000 11.146
21.44000 8.032
21.46000 5.231
21.48000 2.719
21.50000 6.462
21.52000 12.454
21.54000 2.236
21.56000 1.950
21.58000 6.769
21.60000 8.959
21.62000 -0.091
21.64000 -0.119
21.66000 -0.408
21.68000 5.561
21.70000 6.814
21.72000 8.414
21.74000 4.109
21.76000 2.536
21.78000 5.862
21.80000 6.192
21.82000 9.275
21.84000 4.567
21.86000 3.283
21.88000 1.223
21.90000 3.833
21.92000 2.871
21.94000 7.474
21.96000 0.066
21.98000 -4.128
22.00000 1.738
22.02000 7.328
22.04000 5.491
22.06000 11.089
22.08000 8.070
22.10000 3.801
22.12000 8.964
22.14000 3.550
22.16000 -0.301
22.18000 -1.356
22.20000 -2.382
22.22000 5.065
22.24000 4.244
22.26000 6.299
22.28000 0.983
22.30000 -1.795
22.32000 -0.231
22.34000 0.860
22.36000 -0.089
22.38000 -1.939
22.40000 1.813
22.42000 8.488
22.44000 7.718
22.46000 5.943
22.48000 4.909
22.50000 2.523
22.52000 3.518
22.54000 7.160
22.56000 7.568
22.58000 3.386
22.60000 0.530
22.62000 9.519
22.64000 6.082
22.66000 0.031
22.68000 0.028
22.70000 4.311
22.72000 2.266
22.74000 6.708
22.76000 4.388
22.78000 4.761
22.80000 1.029
22.82000 2.506
22.84000 6.995
22.86000 8.729
22.88000 7.333
22.90000 6.371
22.92000 5.399
22.94000 2.897
22.96000 1.963
22.98000 -0.345
23.00000 3.087
23.02000 10.623
23.04000 5.881
23.06000 5.647
23.08000 6.466
23.10000 6.268
23.12000 -0.393
23.14000 1.182
23.16000 4.007
23.18000 5.597
23.20000 5.681
23.22000 2.587
23.24000 4.919
23.26000 7.274
23.28000 9.583
23.30000 4.112
23.32000 1.180
23.34000 -0.870
23.36000 -4.055
23.38000 4.452
23.40000 10.462
23.42000 7.172
23.44000 2.165
23.46000 1.772
23.48000 1.320
23.50000 7.115
23.52000 10.578
23.54000 5.256
23.56000 6.542
23.58000 4.842
23.60000 6.126
23.62000 2.921
23.64000 2.403
23.66000 1.934
23.68000 2.509
23.70000 6.902
23.72000 2.028
23.74000 -0.179
23.76000 -3.119
23.78000 7.620
23.80000 9.970
23.82000 7.295
23.84000 2.491
23.86000 -0.886
23.88000 -3.122
23.90000 5.156
23.92000 3.717
23.94000 5.718
23.96000 4.546
23.98000 3.104
24.00000 2.852
24.02000 2.105
24.04000 0.674
24.06000 6.032
24.08000 4.882
24.10000 2.317
24.12000 -1.941
24.14000 2.487
24.16000 0.872
24.18000 -1.348
24.20000 -0.401
24.22000 3.385
24.24000 0.271
24.26000 1.085
24.28000 -2.562
24.30000 -0.256
24.32000 4.319
24.34000 3.878
24.36000 1.407
24.38000 2.368
24.40000 2.101
24.42000 2.485
24.44000 1.676
24.46000 -3.991
24.48000 0.003
24.50000 4.270
24.52000 2.660
24.54000 0.500
24.56000 3.834
24.58000 -0.017
24.60000 -0.810
24.62000 5.118
24.64000 10.564
24.66000 -0.373
24.68000 3.068
24.70000 8.103
24.72000 4.000
24.74000 -0.541
24.76000 0.648
24.78000 -1.207
24.80000 7.768
24.82000 9.198
24.84000 4.728
24.86000 7.165
24.88000 6.767
24.90000 1.584
24.92000 5.163
24.94000 4.341
24.96000 6.264
24.98000 5.995
25.00000 11.729
25.02000 5.996
25.04000 3.792
25.06000 3.379
25.08000 0.566
25.10000 -2.535
25.12000 -2.795
25.14000 6.998
25.16000 5.024
25.18000 8.066
25.20000 0.546
25.22000 6.961
25.24000 3.743
25.26000 2.498
25.28000 0.828
25.30000 5.700
25.32000 1.937
25.34000 -3.243
25.36000 -2.051
25.38000 0.020
25.40000 -1.448
25.42000 -0.371
25.44000 0.901
25.46000 2.270
25.48000 3.445
25.50000 -2.443
25.52000 -0.372
25.54000 1.120
25.56000 -0.480
25.58000 -2.981
25.60000 -1.364
25.62000 -2.188
25.64000 -1.813
25.66000 -0.281
25.68000 3.706
25.70000 0.350
25.72000 0.850
25.74000 -3.949
25.76000 2.620
25.78000 1.005
25.80000 -1.858
25.82000 1.585
25.84000 -1.210
25.86000 -1.061
25.88000 -0.024
25.90000 5.319
25.92000 7.825
25.94000 1.286
25.96000 -0.014
25.98000 4.150
26.00000 4.855
26.02000 -2.047
26.04000 -1.453
26.06000 2.509
26.08000 1.789
26.10000 -0.173
26.12000 5.442
26.14000 6.469
26.16000 4.739
26.18000 3.655
26.20000 3.476
26.22000 3.716
26.24000 -0.693
26.26000 -2.612
26.28000 0.992
26.30000 1.842
26.32000 0.704
26.34000 1.684
26.36000 1.589
26.38000 -1.744
26.40000 -3.791
26.42000 -0.009
26.44000 2.063
26.46000 7.548
26.48000 0.801
26.50000 -1.879
26.52000 1.324
26.54000 -1.631
26.56000 0.075
26.58000 3.444
26.60000 1.652
26.62000 0.406
26.64000 -0.949
26.66000 -1.637
26.68000 -1.497
26.70000 -1.366
26.72000 1.649
26.74000 6.301
26.76000 6.857
26.78000 6.362
26.80000 0.648
26.82000 -0.994
26.84000 6.238
26.86000 6.647
26.88000 4.786
26.90000 2.584
26.92000 0.105
26.94000 3.171
26.96000 5.163
26.98000 5.116
27.00000 3.670
27.02000 9.405
27.04000 8.576
27.06000 2.643
27.08000 2.938
27.10000 5.401
27.12000 6.490
27.14000 4.132
27.16000 4.227
27.18000 -1.309
27.20000 -3.817
27.22000 2.434
27.24000 0.675
27.26000 2.589
27.28000 6.613
27.30000 7.946
27.32000 2.656
27.34000 8.531
27.36000 9.536
27.38000 8.973
27.40000 5.508
27.42000 1.046
27.44000 1.866
27.46000 -0.015
27.48000 1.932
27.50000 4.097
27.52000 4.480
27.54000 7.325
27.56000 6.602
27.58000 6.626
27.60000 9.380
27.62000 10.321
27.64000 2.760
27.66000 -0.082
27.68000 4.910
27.70000 5.625
27.72000 7.443
27.74000 8.634
27.76000 0.533
27.78000 -0.635
27.80000 1.142
27.82000 1.868
27.84000 -1.263
27.86000 4.612
27.88000 8.261
27.90000 6.243
27.92000 4.890
27.94000 8.078
27.96000 8.668
27.98000 9.071
28.00000 7.745
28.02000 4.967
28.04000 3.137
28.06000 -2.006
28.08000 0.887
28.10000 2.227
28.12000 0.588
28.14000 2.067
28.16000 -2.400
28.18000 -0.846
28.20000 -3.797
28.22000 -2.511
28.24000 -2.511
28.26000 5.365
28.28000 4.125
28.30000 0.413
28.32000 1.834
28.34000 3.719
28.36000 5.490
28.38000 4.945
28.40000 5.072
28.42000 7.683
28.44000 6.260
28.46000 4.715
28.48000 4.254
28.50000 3.577
28.52000 6.109
28.54000 6.317
28.56000 -0.339
28.58000 2.394
28.60000 1.578
28.62000 0.886
28.64000 0.059
28.66000 1.561
28.68000 1.282
28.70000 1.308
28.72000 5.405
28.74000 0.540
28.76000 -0.265
28.78000 3.632
28.80000 3.242
28.82000 1.823
28.84000 0.635
28.86000 2.082
28.88000 1.947
28.90000 1.536
28.92000 -0.597
28.94000 0.127
28.96000 2.771
28.98000 -2.169
29.00000 -1.614
29.02000 2.092
29.04000 4.776
29.06000 4.018
29.08000 3.895
29.10000 1.617
29.12000 6.668
29.14000 1.736
29.16000 -1.651
29.18000 4.477
29.20000 4.727
29.22000 2.912
29.24000 1.584
29.26000 6.108
29.28000 7.266
29.30000 3.096
29.32000 3.961
29.34000 0.841
29.36000 8.257
29.38000 1.331
29.40000 0.804
29.42000 8.009
29.44000 1.738
29.46000 -3.017
29.48000 -2.578
29.50000 2.216
29.52000 7.333
29.54000 5.914
29.56000 8.209
29.58000 7.753
29.60000 6.565
29.62000 7.184
29.64000 0.865
29.66000 4.539
29.68000 10.198
29.70000 5.711
29.72000 3.569
29.74000 0.090
29.76000 -1.571
29.78000 -1.623
29.80000 -3.693
29.82000 4.167
29.84000 5.279
29.86000 5.677
29.88000 10.788
29.90000 12.131
29.92000 8.938
29.94000 8.892
29.96000 7.048
29.98000 5.832
30.00000 4.617
30.02000 4.918
30.04000 5.784
30.06000 4.216
30.08000 1.352
30.10000 1.446
30.12000 2.912
30.14000 7.298
30.16000 10.217
30.18000 9.510
30.20000 4.533
30.22000 5.726
30.24000 10.734
30.26000 9.746
30.28000 7.552
30.30000 2.165
30.32000 1.510
30.34000 2.379
30.36000 -1.515
30.38000 0.650
30.40000 4.279
30.42000 1.283
30.44000 6.725
30.46000 5.484
30.48000 -0.252
30.50000 -2.601
30.52000 0.675
30.54000 1.700
30.56000 1.318
30.58000 -3.492
30.60000 1.171
30.62000 1.041
30.64000 -3.664
30.66000 -1.643
30.68000 3.830
30.70000 3.077
30.72000 2.408
30.74000 3.138
30.76000 6.596
30.78000 1.750
30.80000 -0.063
30.82000 1.379
30.84000 3.171
30.86000 -0.150
30.88000 -2.940
30.90000 1.075
30.92000 -1.993
30.94000 7.214
30.96000 3.855
30.98000 -3.651
31.00000 0.725
31.02000 3.815
31.04000 6.557
31.06000 4.416
31.08000 -2.280
31.10000 -2.042
31.12000 2.458
31.14000 4.852
31.16000 2.439
31.18000 1.441
31.20000 7.648
31.22000 5.401
31.24000 2.368
31.26000 -0.722
31.28000 -1.183
31.30000 0.575
31.32000 -1.714
31.34000 3.312
31.36000 10.227
31.38000 6.363
31.40000 0.253
31.42000 2.694
31.44000 6.840
31.46000 4.412
31.48000 4.137
31.50000 4.120
31.52000 3.413
31.54000 7.410
31.56000 4.925
31.58000 3.436
31.60000 2.387
31.62000 0.873
31.64000 1.203
31.66000 0.514
31.68000 3.459
31.70000 4.291
31.72000 4.513
31.74000 4.872
31.76000 4.316
31.78000 4.036
31.80000 0.252
31.82000 3.180
31.84000 7.998
31.86000 3.009
31.88000 -3.625
31.90000 -1.557
31.92000 1.674
31.94000 -1.134
31.96000 1.469
31.98000 9.617
32.00000 5.965
32.02000 5.475
32.04000 5.360
32.06000 7.101
32.08000 7.952
32.10000 5.482
32.12000 5.362
32.14000 1.931
32.16000 0.189
32.18000 3.217
32.20000 1.478
32.22000 -1.591
32.24000 -0.812
32.26000 0.658
32.28000 0.158
32.30000 3.749
32.32000 2.422
32.34000 4.509
32.36000 4.204
32.38000 1.562
32.40000 5.072
32.42000 2.771
32.44000 -2.060
32.46000 -0.386
32.48000 3.377
32.50000 4.730
32.52000 9.958
32.54000 4.430
32.56000 1.219
32.58000 4.792
32.60000 2.623
32.62000 1.946
32.64000 1.063
32.66000 6.081
32.68000 0.169
32.70000 -3.591
32.72000 -1.617
32.74000 5.976
32.76000 1.214
32.78000 1.715
32.80000 8.806
32.82000 4.221
32.84000 2.015
32.86000 1.741
32.88000 4.572
32.90000 6.028
32.92000 -2.475
32.94000 -1.869
32.96000 -1.204
32.98000 1.822
33.00000 1.549
33.02000 3.924
33.04000 8.734
33.06000 10.383
33.08000 8.657
33.10000 5.673
33.12000 7.090
33.14000 5.213
33.16000 4.443
33.18000 6.716
33.20000 10.847
33.22000 8.756
33.24000 3.696
33.26000 5.814
33.28000 4.400
33.30000 4.517
33.32000 4.383
33.34000 1.070
33.36000 3.813
33.38000 7.519
33.40000 1.828
33.42000 -3.554
33.44000 1.761
33.46000 1.073
33.48000 5.560
33.50000 7.208
33.52000 4.456
33.54000 7.989
33.56000 11.419
33.58000 8.432
33.60000 6.224
33.62000 5.207
33.64000 7.386
33.66000 6.981
33.68000 6.719
33.70000 8.637
33.72000 7.107
33.74000 5.386
33.76000 5.590
33.78000 3.176
33.80000 3.420
33.82000 2.351
33.84000 5.402
33.86000 7.207
33.88000 2.740
33.90000 4.136
33.92000 3.557
33.94000 9.438
33.96000 5.251
33.98000 9.732
34.00000 10.380
34.02000 2.360
34.04000 4.070
34.06000 9.742
34.08000 7.605
34.10000 2.541
34.12000 3.296
34.14000 2.031
34.16000 4.453
34.18000 5.050
34.20000 6.445
34.22000 6.132
34.24000 4.466
34.26000 7.118
34.28000 5.288
34.30000 3.700
34.32000 5.185
34.34000 2.758
34.36000 4.402
34.38000 2.652
34.40000 -3.557
34.42000 0.693
34.44000 1.866
34.46000 2.440
34.48000 2.748
34.50000 2.589
34.52000 -0.959
34.54000 3.010
34.56000 4.037
34.58000 4.800
34.60000 4.837
34.62000 0.814
34.64000 1.768
34.66000 3.857
34.68000 6.059
34.70000 8.350
34.72000 7.129
34.74000 5.541
34.76000 3.941
34.78000 1.150
34.80000 4.966
34.82000 3.487
34.84000 3.713
34.86000 -3.548
34.88000 -1.736
34.90000 3.687
34.92000 0.167
34.94000 1.757
34.96000 2.607
34.98000 5.315
35.00000 8.727
35.02000 1.446
35.04000 -3.248
35.06000 2.329
35.08000 4.197
35.10000 7.212
35.12000 7.332
35.14000 6.335
35.16000 3.801
35.18000 3.691
35.20000 0.933
35.22000 3.300
35.24000 5.074
35.26000 5.221
35.28000 6.764
35.30000 3.223
35.32000 1.031
35.34000 3.891
35.36000 6.054
35.38000 0.690
35.40000 -0.141
35.42000 4.910
35.44000 1.584
35.46000 -1.834
35.48000 4.400
35.50000 2.472
35.52000 2.210
35.54000 -0.141
35.56000 3.025
35.58000 4.664
35.60000 4.833
35.62000 4.714
35.64000 4.015
35.66000 3.552
35.68000 2.464
35.70000 -3.511
35.72000 0.904
35.74000 5.086
35.76000 5.845
35.78000 11.220
35.80000 7.960
35.82000 8.586
35.84000 9.410
35.86000 5.603
35.88000 4.989
35.90000 6.573
35.92000 2.875
35.94000 8.778
35.96000 2.484
35.98000 -3.533
36.00000 0.787
36.02000 1.096
36.04000 7.471
36.06000 7.573
36.08000 0.670
36.10000 6.754
36.12000 13.125
36.14000 4.388
36.16000 -0.044
36.18000 1.827
36.20000 4.010
36.22000 6.242
36.24000 5.508
36.26000 3.733
36.28000 1.959
36.30000 0.002
36.32000 3.596
36.34000 8.467
36.36000 7.872
36.38000 6.455
36.40000 1.922
36.42000 2.747
36.44000 0.173
36.46000 -0.989
36.48000 3.970
36.50000 -0.628
36.52000 -1.447
36.54000 3.159
36.56000 4.308
36.58000 2.313
36.60000 -2.511
36.62000 -2.798
36.64000 -2.954
36.66000 -2.841
36.68000 -3.471
36.70000 0.278
36.72000 6.479
36.74000 2.437
36.76000 -2.735
36.78000 -0.612
36.80000 1.998
36.82000 2.859
36.84000 3.643
36.86000 1.021
36.88000 0.431
36.90000 -3.014
36.92000 -0.670
36.94000 -0.120
36.96000 5.915
36.98000 4.618
37.00000 2.532
37.02000 0.400
37.04000 2.348
37.06000 -0.260
37.08000 3.254
37.10000 5.460
37.12000 6.923
37.14000 2.151
37.16000 -0.820
37.18000 -1.470
37.20000 -0.303
37.22000 -3.637
37.24000 -3.447
37.26000 3.869
37.28000 3.317
37.30000 2.211
37.32000 -0.152
37.34000 -1.917
37.36000 -0.217
37.38000 2.561
37.40000 2.452
37.42000 -0.677
37.44000 -0.547
37.46000 1.571
37.48000 -1.974
37.50000 4.759
37.52000 5.763
37.54000 7.491
37.56000 7.919
37.58000 6.128
37.60000 5.215
37.62000 3.582
37.64000 4.861
37.66000 5.215
37.68000 6.172
37.70000 4.482
37.72000 7.171
37.74000 8.161
37.76000 10.342
37.78000 11.242
37.80000 12.236
37.82000 10.198
37.84000 9.557
37.86000 6.651
37.88000 6.588
37.90000 12.526
37.92000 13.300
37.94000 15.100
37.96000 12.206
37.98000 8.953
38.00000 13.384
38.02000 16.353
38.04000 13.336
38.06000 14.634
38.08000 16.054
38.10000 13.365
38.12000 15.638
38.14000 17.134
38.16000 17.974
38.18000 14.135
38.20000 15.658
38.22000 16.836
38.24000 16.483
38.26000 20.463
38.28000 22.364
38.30000 24.013
38.32000 24.675
38.34000 23.164
38.36000 26.738
38.38000 30.901
38.40000 28.124
38.42000 23.342
38.44000 24.530
38.46000 27.823
38.48000 29.984
38.50000 36.267
38.52000 37.900
38.54000 35.876
38.56000 32.554
38.58000 36.537
38.60000 36.842
38.62000 33.933
38.64000 39.299
38.66000 48.653
38.68000 50.333
38.70000 43.441
38.72000 46.543
38.74000 50.371
38.76000 54.782
38.78000 55.872
38.80000 56.625
38.82000 60.479
38.84000 61.129
38.86000 67.601
38.88000 67.631
38.90000 66.712
38.92000 70.025
38.94000 72.075
38.96000 77.276
38.98000 77.838
39.00000 86.896
39.02000 95.300
39.04000 95.397
39.06000 99.803
39.08000 105.247
39.10000 108.076
39.12000 107.467
39.14000 123.866
39.16000 129.514
39.18000 136.149
39.20000 136.254
39.22000 140.136
39.24000 154.932
39.26000 159.798
39.28000 170.596
39.30000 173.211
39.32000 178.324
39.34000 186.557
39.36000 195.639
39.38000 203.323
39.40000 214.597
39.42000 227.599
39.44000 239.634
39.46000 255.955
39.48000 270.147
39.50000 275.878
39.52000 289.887
39.54000 302.697
39.56000 312.780
39.58000 335.577
39.60000 359.984
39.62000 365.366
39.64000 376.129
39.66000 398.255
39.68000 433.353
39.70000 455.273
39.72000 468.498
39.74000 489.515
39.76000 512.046
39.78000 528.042
39.80000 545.626
39.82000 568.873
39.84000 577.088
39.86000 600.142
39.88000 625.505
39.90000 645.726
39.92000 655.190
39.94000 668.662
39.96000 674.845
39.98000 686.500
40.00000 691.084
40.02000 696.904
40.04000 709.043
40.06000 713.293
40.08000 708.050
40.10000 702.255
40.12000 701.418
40.14000 691.774
40.16000 681.523
40.18000 670.107
40.20000 659.517
40.22000 647.461
40.24000 626.977
40.26000 614.519
40.28000 600.343
40.30000 583.445
40.32000 559.749
40.34000 531.734
40.36000 517.913
40.38000 501.787
40.40000 487.499
40.42000 471.549
40.44000 458.608
40.46000 431.016
40.48000 409.745
40.50000 379.953
40.52000 365.072
40.54000 349.415
40.56000 333.860
40.58000 316.535
40.60000 295.815
40.62000 273.098
40.64000 263.559
40.66000 258.488
40.68000 245.055
40.70000 228.980
40.72000 217.381
40.74000 205.338
40.76000 195.053
40.78000 177.210
40.80000 166.243
40.82000 161.171
40.84000 150.091
40.86000 137.541
40.88000 139.198
40.90000 135.209
40.92000 120.305
40.94000 109.920
40.96000 106.362
40.98000 104.536
41.00000 98.743
41.02000 91.094
41.04000 82.292
41.06000 75.066
41.08000 78.288
41.10000 73.066
41.12000 68.477
41.14000 64.563
41.16000 61.076
41.18000 57.485
41.20000 51.549
41.22000 53.279
41.24000 51.102
41.26000 51.865
41.28000 48.349
41.30000 48.156
41.32000 43.175
41.34000 37.212
41.36000 35.280
41.38000 31.029
41.40000 30.229
41.42000 28.764
41.44000 24.435
41.46000 24.761
41.48000 25.381
41.50000 21.296
41.52000 21.717
41.54000 20.426
41.56000 21.233
41.58000 19.678
41.60000 13.711
41.62000 11.668
41.64000 11.806
41.66000 12.939
41.68000 13.047
41.70000 15.346
41.72000 15.308
41.74000 10.362
41.76000 10.261
41.78000 9.040
41.80000 4.607
41.82000 8.190
41.84000 9.329
41.86000 8.694
41.88000 7.816
41.90000 3.568
41.92000 6.908
41.94000 7.602
41.96000 5.888
41.98000 9.528
42.00000 5.781
42.02000 3.427
42.04000 5.650
42.06000 1.759
42.08000 0.440
42.10000 -0.100
42.12000 3.310
42.14000 4.082
42.16000 1.517
42.18000 -1.225
42.20000 -1.095
42.22000 -1.133
42.24000 2.483
42.26000 2.319
42.28000 1.036
42.30000 0.514
42.32000 1.253
42.34000 1.984
42.36000 -1.451
42.38000 0.102
42.40000 -1.546
42.42000 0.016
42.44000 1.729
42.46000 3.275
42.48000 1.674
42.50000 3.461
42.52000 0.471
42.54000 -2.780
42.56000 -0.707
42.58000 0.535
42.60000 -0.390
42.62000 1.080
42.64000 -1.965
42.66000 -2.623
42.68000 -0.739
42.70000 0.579
42.72000 1.160
42.74000 2.822
42.76000 2.770
42.78000 -0.562
42.80000 0.132
42.82000 0.331
42.84000 1.596
42.86000 -0.378
42.88000 -1.471
42.90000 -0.486
42.92000 -0.650
42.94000 2.074
42.96000 -1.390
42.98000 -2.755
43.00000 -0.419
43.02000 2.110
43.04000 3.335
43.06000 0.695
43.08000 3.782
43.10000 0.737
43.12000 -0.824
43.14000 -3.001
43.16000 0.057
43.18000 -0.488
43.20000 -2.225
43.22000 -3.393
43.24000 -1.996
43.26000 1.044
43.28000 3.484
43.30000 3.005
43.32000 6.412
43.34000 5.934
43.36000 2.026
43.38000 0.333
43.40000 -2.523
43.42000 -1.520
43.44000 1.845
43.46000 2.096
43.48000 2.251
43.50000 -0.429
43.52000 2.111
43.54000 3.666
43.56000 2.853
43.58000 1.115
43.60000 -1.049
43.62000 -3.334
43.64000 -1.401
43.66000 1.509
43.68000 5.910
43.70000 8.516
43.72000 6.042
43.74000 3.188
43.76000 1.967
43.78000 4.274
43.80000 3.188
43.82000 2.937
43.84000 3.588
43.86000 4.064
43.88000 5.691
43.90000 6.768
43.92000 6.540
43.94000 2.616
43.96000 -1.184
43.98000 0.809
44.00000 2.308
44.02000 3.832
44.04000 2.980
44.06000 -2.918
44.08000 -2.010
44.10000 -1.343
44.12000 2.327
44.14000 0.236
44.16000 0.202
44.18000 -1.896
44.20000 -1.800
44.22000 -0.191
44.24000 0.983
44.26000 2.515
44.28000 1.494
44.30000 2.176
44.32000 3.985
44.34000 -0.384
44.36000 0.212
44.38000 -1.761
44.40000 -2.815
44.42000 2.597
44.44000 2.032
44.46000 0.329
44.48000 2.959
44.50000 3.906
44.52000 2.137
44.54000 2.418
44.56000 2.584
44.58000 1.659
44.60000 -0.430
44.62000 1.719
44.64000 -0.955
44.66000 3.085
44.68000 0.244
44.70000 2.061
44.72000 1.489
44.74000 1.432
44.76000 0.308
44.78000 2.144
44.80000 0.192
44.82000 6.629
44.84000 6.348
44.86000 6.289
44.88000 8.085
44.90000 6.179
44.92000 4.265
44.94000 7.075
44.96000 2.616
44.98000 6.573
45.00000 8.661
45.02000 7.216
45.04000 5.890
45.06000 11.229
45.08000 11.306
45.10000 6.192
45.12000 5.572
45.14000 8.195
45.16000 6.389
45.18000 9.971
45.20000 12.698
45.22000 13.398
45.24000 13.833
45.26000 12.043
45.28000 13.785
45.30000 14.823
45.32000 12.653
45.34000 14.899
45.36000 17.132
45.38000 16.416
45.40000 19.255
45.42000 24.690
45.44000 22.141
45.46000 18.783
45.48000 21.734
45.50000 22.748
45.52000 20.151
45.54000 21.228
45.56000 20.777
45.58000 20.459
45.60000 24.192
45.62000 27.867
45.64000 29.460
45.66000 29.777
45.68000 28.522
45.70000 31.509
45.72000 34.667
45.74000 35.015
45.76000 31.253
45.78000 33.743
45.80000 43.224
45.82000 49.200
45.84000 43.386
45.86000 48.181
45.88000 48.993
45.90000 48.660
45.92000 45.592
45.94000 41.602
45.96000 48.536
45.98000 56.937
46.00000 58.125
46.02000 56.343
46.04000 57.876
46.06000 60.714
46.08000 57.824
46.10000 56.834
46.12000 61.985
46.14000 68.466
46.16000 69.172
46.18000 75.958
46.20000 78.909
46.22000 83.674
46.24000 83.918
46.26000 83.804
46.28000 86.812
46.30000 97.307
46.32000 100.307
46.34000 93.719
46.36000 89.061
46.38000 97.258
46.40000 103.142
46.42000 103.144
46.44000 108.055
46.46000 118.782
46.48000 112.327
46.50000 108.804
46.52000 109.855
46.54000 114.502
46.56000 117.849
46.58000 117.087
46.60000 123.565
46.62000 131.242
46.64000 126.475
46.66000 127.360
46.68000 125.709
46.70000 123.596
46.72000 119.098
46.74000 123.777
46.76000 124.617
46.78000 117.489
46.80000 119.415
46.82000 129.735
46.84000 122.585
46.86000 120.805
46.88000 120.998
46.90000 119.258
46.92000 112.082
46.94000 109.706
46.96000 112.797
46.98000 109.648
47.00000 107.458
47.02000 106.979
47.04000 107.288
47.06000 105.131
47.08000 96.699
47.10000 95.396
47.12000 95.084
47.14000 97.642
47.16000 87.307
47.18000 81.659
47.20000 83.163
47.22000 71.226
47.24000 72.421
47.26000 78.677
47.28000 75.335
47.30000 74.425
47.32000 67.656
47.34000 63.759
47.36000 61.499
47.38000 55.326
47.40000 52.425
47.42000 52.328
47.44000 43.609
47.46000 45.993
47.48000 47.391
47.50000 42.114
47.52000 39.573
47.54000 38.831
47.56000 40.404
47.58000 39.930
47.60000 38.573
47.62000 34.272
47.64000 31.173
47.66000 25.773
47.68000 25.719
47.70000 27.713
47.72000 29.739
47.74000 22.945
47.76000 15.967
47.78000 19.674
47.80000 23.983
47.82000 16.148
47.84000 18.375
47.86000 20.730
47.88000 17.240
47.90000 18.001
47.92000 14.943
47.94000 14.459
47.96000 10.899
47.98000 12.929
48.00000 19.473
48.02000 13.878
48.04000 7.306
48.06000 5.127
48.08000 7.834
48.10000 8.209
48.12000 6.342
48.14000 8.940
48.16000 5.221
48.18000 3.850
48.20000 5.842
48.22000 5.028
48.24000 3.547
48.26000 7.757
48.28000 5.767
48.30000 2.400
48.32000 6.020
48.34000 3.246
48.36000 4.074
48.38000 1.369
48.40000 2.000
48.42000 8.727
48.44000 10.169
48.46000 1.510
48.48000 -1.086
48.50000 1.792
48.52000 -0.621
48.54000 -2.946
48.56000 0.676
48.58000 2.914
48.60000 4.342
48.62000 7.154
48.64000 3.192
48.66000 -1.020
48.68000 -1.032
48.70000 -1.520
48.72000 0.689
48.74000 -0.304
48.76000 -1.155
48.78000 2.957
48.80000 1.765
48.82000 -0.524
48.84000 -0.352
48.86000 -0.328
48.88000 -2.645
48.90000 2.996
48.92000 2.953
48.94000 1.507
48.96000 1.287
48.98000 -1.637
49.00000 4.016
49.02000 2.576
49.04000 -0.803
49.06000 5.628
49.08000 5.346
49.10000 6.301
49.12000 5.380
49.14000 4.338
49.16000 2.530
49.18000 -0.420
49.20000 6.323
49.22000 7.449
49.24000 7.159
49.26000 3.643
49.28000 3.179
49.30000 2.456
49.32000 4.719
49.34000 1.052
49.36000 -1.077
49.38000 -2.802
49.40000 0.533
49.42000 2.934
49.44000 2.422
49.46000 0.113
49.48000 1.269
49.50000 4.649
49.52000 6.472
49.54000 2.048
49.56000 2.806
49.58000 0.737
49.60000 3.956
49.62000 4.087
49.64000 9.035
49.66000 10.448
49.68000 5.917
49.70000 3.957
49.72000 2.224
49.74000 4.388
49.76000 -0.404
49.78000 6.070
49.80000 8.556
49.82000 4.703
49.84000 5.265
49.86000 6.962
49.88000 2.829
49.90000 1.850
49.92000 4.460
49.94000 4.798
49.96000 1.675
49.98000 3.768
50.00000 3.175
50.02000 3.432
50.04000 7.029
50.06000 4.632
50.08000 2.762
50.10000 7.651
50.12000 7.915
50.14000 7.569
50.16000 2.970
50.18000 2.936
50.20000 5.640
50.22000 3.862
50.24000 4.643
50.26000 3.398
50.28000 4.699
50.30000 8.260
50.32000 9.398
50.34000 5.285
50.36000 11.302
50.38000 11.001
50.40000 2.310
50.42000 -2.682
50.44000 1.880
50.46000 0.876
50.48000 2.199
50.50000 8.024
50.52000 8.445
50.54000 1.141
50.56000 1.157
50.58000 1.994
50.60000 7.496
50.62000 7.622
50.64000 3.824
50.66000 3.828
50.68000 5.067
50.70000 3.203
50.72000 1.814
50.74000 1.811
50.76000 0.918
50.78000 4.028
50.80000 6.846
50.82000 4.185
50.84000 3.584
50.86000 3.161
50.88000 8.782
50.90000 5.450
50.92000 5.525
50.94000 1.576
50.96000 1.626
50.98000 5.352
51.00000 2.381
51.02000 3.963
51.04000 5.846
51.06000 3.102
51.08000 3.778
51.10000 3.482
51.12000 5.309
51.14000 4.297
51.16000 4.733
51.18000 5.850
51.20000 3.940
51.22000 3.224
51.24000 4.204
51.26000 3.919
51.28000 4.200
51.30000 5.314
51.32000 8.007
51.34000 5.262
51.36000 5.397
51.38000 8.362
51.40000 6.337
51.42000 6.191
51.44000 2.708
51.46000 -0.616
51.48000 1.713
51.50000 -0.337
51.52000 3.886
51.54000 7.336
51.56000 -1.283
51.58000 -0.458
51.60000 2.468
51.62000 2.848
51.64000 3.221
51.66000 1.901
51.68000 7.090
51.70000 4.306
51.72000 4.214
51.74000 5.043
51.76000 2.233
51.78000 -2.670
51.80000 2.089
51.82000 8.449
51.84000 7.551
51.86000 3.792
51.88000 3.380
51.90000 0.850
51.92000 6.444
51.94000 7.271
51.96000 4.568
51.98000 4.869
52.00000 3.139
52.02000 0.379
52.04000 -2.660
52.06000 -2.324
52.08000 4.267
52.10000 5.367
52.12000 2.801
52.14000 6.149
52.16000 5.854
52.18000 2.601
52.20000 4.126
52.22000 4.111
52.24000 2.071
52.26000 1.039
52.28000 1.382
52.30000 1.044
52.32000 0.543
52.34000 5.197
52.36000 3.544
52.38000 3.470
52.40000 1.343
52.42000 3.398
52.44000 1.795
52.46000 1.221
52.48000 1.425
52.50000 3.595
52.52000 3.077
52.54000 0.791
52.56000 5.400
52.58000 7.889
52.60000 4.064
52.62000 4.219
52.64000 2.821
52.66000 1.521
52.68000 2.330
52.70000 0.667
52.72000 -0.641
52.74000 1.871
52.76000 7.532
52.78000 5.986
52.80000 6.336
52.82000 3.592
52.84000 1.124
52.86000 0.547
52.88000 -0.080
52.90000 1.380
52.92000 2.173
52.94000 3.280
52.96000 2.391
52.98000 4.986
53.00000 4.785
53.02000 5.438
53.04000 3.371
53.06000 0.279
53.08000 1.383
53.10000 0.469
53.12000 3.961
53.14000 7.083
53.16000 3.883
53.18000 3.801
53.20000 1.264
53.22000 -2.622
53.24000 3.445
53.26000 6.205
53.28000 2.356
53.30000 1.185
53.32000 0.263
53.34000 0.908
53.36000 2.278
53.38000 4.527
53.40000 6.510
53.42000 6.479
53.44000 4.581
53.46000 2.566
53.48000 -0.559
53.50000 3.657
53.52000 5.860
53.54000 5.922
53.56000 3.850
53.58000 2.466
53.60000 -1.456
53.62000 1.096
53.64000 7.143
53.66000 7.231
53.68000 5.030
53.70000 3.662
53.72000 -1.230
53.74000 -0.724
53.76000 3.506
53.78000 5.947
53.80000 3.274
53.82000 0.321
53.84000 -0.345
53.86000 1.872
53.88000 4.602
53.90000 2.637
53.92000 0.949
53.94000 4.078
53.96000 3.161
53.98000 5.216
54.00000 5.660
54.02000 3.175
54.04000 1.586
54.06000 1.061
54.08000 -1.984
54.10000 -0.842
54.12000 0.923
54.14000 1.030
54.16000 1.974
54.18000 3.558
54.20000 1.194
54.22000 6.885
54.24000 2.348
54.26000 -1.284
54.28000 1.243
54.30000 -1.518
54.32000 -0.630
54.34000 3.205
54.36000 3.541
54.38000 -2.373
54.40000 1.189
54.42000 4.454
54.44000 3.997
54.46000 2.355
54.48000 2.703
54.50000 4.351
54.52000 4.113
54.54000 3.769
54.56000 4.300
54.58000 6.098
54.60000 3.658
54.62000 0.714
54.64000 3.132
54.66000 0.247
54.68000 2.191
54.70000 3.051
54.72000 3.669
54.74000 -2.571
54.76000 -2.247
54.78000 0.204
54.80000 3.722
54.82000 5.871
54.84000 6.291
54.86000 7.961
54.88000 7.032
54.90000 7.149
54.92000 3.636
54.94000 3.294
54.96000 5.809
54.98000 -0.081
55.00000 -2.396
55.02000 1.196
55.04000 5.849
55.06000 5.340
55.08000 5.202
55.10000 5.408
55.12000 4.560
55.14000 0.746
55.16000 0.102
55.18000 3.622
55.20000 0.886
55.22000 2.909
55.24000 0.482
55.26000 -2.555
55.28000 -0.013
55.30000 5.602
55.32000 6.022
55.34000 4.342
55.36000 2.927
55.38000 2.685
55.40000 -0.506
55.42000 -1.018
55.44000 1.192
55.46000 4.255
55.48000 -1.368
55.50000 1.159
55.52000 3.450
55.54000 2.110
55.56000 3.383
55.58000 6.832
55.60000 4.859
55.62000 4.550
55.64000 5.994
55.66000 6.326
55.68000 1.435
55.70000 -0.131
55.72000 -1.877
55.74000 1.012
55.76000 1.884
55.78000 4.129
55.80000 3.940
55.82000 -1.393
55.84000 0.413
55.86000 -0.007
55.88000 0.639
55.90000 -0.895
55.92000 -2.324
55.94000 -1.464
55.96000 -1.833
55.98000 -0.139
56.00000 2.202
56.02000 3.378
56.04000 3.952
56.06000 0.940
56.08000 2.564
56.10000 1.911
56.12000 3.610
56.14000 -0.705
56.16000 -0.303
56.18000 -0.991
56.20000 -0.876
56.22000 0.733
56.24000 4.647
56.26000 -1.202
56.28000 -0.240
56.30000 4.127
56.32000 3.486
56.34000 2.154
56.36000 -1.596
56.38000 -0.442
56.40000 -0.420
56.42000 -2.551
56.44000 -0.868
56.46000 0.843
56.48000 0.225
56.50000 0.568
56.52000 2.235
56.54000 -1.165
56.56000 -0.212
56.58000 2.821
56.60000 4.977
56.62000 2.749
56.64000 5.045
56.66000 6.313
56.68000 -2.549
56.70000 0.612
56.72000 5.107
56.74000 2.005
56.76000 0.487
56.78000 2.499
56.80000 0.746
56.82000 1.264
56.84000 4.267
56.86000 5.698
56.88000 2.841
56.90000 2.468
56.92000 1.666
56.94000 -1.746
56.96000 0.180
56.98000 1.500
57.00000 2.614
57.02000 2.776
57.04000 1.724
57.06000 5.308
57.08000 -0.089
57.10000 0.116
57.12000 3.285
57.14000 3.704
57.16000 0.660
57.18000 1.329
57.20000 -0.281
57.22000 4.275
57.24000 3.588
57.26000 0.423
57.28000 3.148
57.30000 0.902
57.32000 0.716
57.34000 1.490
57.36000 1.473
57.38000 2.078
57.40000 -0.824
57.42000 5.758
57.44000 11.056
57.46000 8.453
57.48000 2.365
57.50000 2.451
57.52000 1.426
57.54000 2.775
57.56000 2.777
57.58000 2.189
57.60000 3.969
57.62000 4.776
57.64000 3.691
57.66000 3.879
57.68000 2.706
57.70000 3.180
57.72000 2.670
57.74000 -2.495
57.76000 -0.620
57.78000 2.213
57.80000 3.534
57.82000 2.677
57.84000 0.974
57.86000 3.502
57.88000 3.855
57.90000 5.176
57.92000 -0.660
57.94000 0.992
57.96000 1.325
57.98000 2.809
58.00000 5.979
58.02000 0.958
58.04000 1.027
58.06000 -1.303
58.08000 -0.511
58.10000 -0.464
58.12000 2.135
58.14000 4.148
58.16000 3.417
58.18000 -0.375
58.20000 -2.410
58.22000 -1.684
58.24000 0.272
58.26000 -2.233
58.28000 -0.927
58.30000 2.558
58.32000 0.633
58.34000 1.450
58.36000 0.979
58.38000 -0.711
58.40000 -1.411
58.42000 1.480
58.44000 3.800
58.46000 -0.196
58.48000 1.974
58.50000 -2.102
58.52000 -1.225
58.54000 0.557
58.56000 0.760
58.58000 -1.683
58.60000 5.024
58.62000 3.664
58.64000 3.145
58.66000 4.963
58.68000 2.013
58.70000 0.226
58.72000 2.129
58.74000 -0.922
58.76000 2.625
58.78000 -1.442
58.80000 -2.450
58.82000 2.397
58.84000 3.644
58.86000 0.603
58.88000 0.546
58.90000 6.317
58.92000 4.535
58.94000 3.261
58.96000 3.299
58.98000 2.121
59.00000 1.899
59.02000 0.653
59.04000 0.435
59.06000 1.524
59.08000 -0.629
59.10000 1.896
59.12000 1.365
59.14000 2.289
59.16000 4.574
59.18000 3.832
59.20000 3.652
59.22000 1.250
59.24000 2.106
59.26000 2.651
59.28000 2.409
59.30000 0.248
59.32000 2.037
59.34000 -0.753
59.36000 -1.269
59.38000 -2.461
59.40000 0.351
59.42000 2.357
59.44000 1.234
59.46000 0.954
59.48000 1.042
59.50000 0.770
59.52000 -1.283
59.54000 -2.453
59.56000 3.106
59.58000 3.758
59.60000 7.911
59.62000 5.939
59.64000 2.438
59.66000 2.965
59.68000 3.983
59.70000 3.209
59.72000 1.894
59.74000 0.032
59.76000 3.816
59.78000 6.036
59.80000 0.668
59.82000 0.976
59.84000 2.057
59.86000 2.298
59.88000 2.340
59.90000 -1.569
59.92000 -0.752
59.94000 1.924
59.96000 -1.885
59.98000 -0.030
60.00000 1.355
60.02000 2.973
60.04000 5.098
60.06000 2.157
60.08000 2.720
60.10000 3.007
60.12000 1.075
60.14000 3.163
60.16000 3.426
60.18000 2.533
60.20000 1.551
60.22000 2.385
60.24000 2.032
60.26000 -1.218
60.28000 1.014
60.30000 3.908
60.32000 0.998
60.34000 0.885
60.36000 1.868
60.38000 -0.270
60.40000 0.930
60.42000 5.619
60.44000 2.465
60.46000 -2.418
60.48000 -1.110
60.50000 0.240
60.52000 0.375
60.54000 1.531
60.56000 1.358
60.58000 6.086
60.60000 2.986
60.62000 5.480
60.64000 1.226
60.66000 0.028
60.68000 2.645
60.70000 0.659
60.72000 2.465
60.74000 3.076
60.76000 3.660
60.78000 3.033
60.80000 3.155
60.82000 1.584
60.84000 3.194
60.86000 3.572
60.88000 0.609
60.90000 0.302
60.92000 3.766
60.94000 6.254
60.96000 2.822
60.98000 -0.275
61.00000 -2.390
61.02000 -0.021
61.04000 0.774
61.06000 -0.692
61.08000 3.741
61.10000 4.402
61.12000 3.025
61.14000 5.276
61.16000 4.407
61.18000 3.312
61.20000 2.315
61.22000 0.637
61.24000 3.019
61.26000 4.990
61.28000 -0.423
61.30000 0.849
61.32000 3.350
61.34000 4.885
61.36000 4.903
61.38000 5.147
61.40000 5.982
61.42000 3.937
61.44000 9.063
61.46000 7.519
61.48000 3.003
61.50000 5.229
61.52000 4.649
61.54000 3.353
61.56000 1.602
61.58000 2.662
61.60000 4.425
61.62000 6.433
61.64000 3.412
61.66000 3.071
61.68000 4.774
61.70000 -2.377
61.72000 0.743
61.74000 3.762
61.76000 6.140
61.78000 2.568
61.80000 0.490
61.82000 2.190
61.84000 4.595
61.86000 5.504
61.88000 4.107
61.90000 6.047
61.92000 5.175
61.94000 2.411
61.96000 2.834
61.98000 2.428
62.00000 2.917
62.02000 4.313
62.04000 4.845
62.06000 2.269
62.08000 3.154
62.10000 3.250
62.12000 3.591
62.14000 2.569
62.16000 -2.108
62.18000 2.001
62.20000 5.288
62.22000 6.584
62.24000 4.729
62.26000 2.054
62.28000 3.022
62.30000 4.614
62.32000 8.261
62.34000 6.213
62.36000 1.302
62.38000 4.060
62.40000 -2.332
62.42000 2.861
62.44000 6.262
62.46000 6.120
62.48000 4.109
62.50000 4.293
62.52000 4.536
62.54000 5.113
62.56000 2.276
62.58000 0.776
62.60000 1.482
62.62000 3.463
62.64000 2.658
62.66000 2.559
62.68000 2.448
62.70000 5.479
62.72000 4.312
62.74000 2.909
62.76000 3.087
62.78000 1.503
62.80000 2.681
62.82000 1.829
62.84000 1.550
62.86000 3.109
62.88000 4.087
62.90000 3.623
62.92000 1.695
62.94000 4.471
62.96000 4.621
62.98000 4.913
63.00000 3.704
63.02000 7.361
63.04000 4.663
63.06000 2.740
63.08000 3.828
63.10000 3.905
63.12000 1.008
63.14000 5.503
63.16000 2.720
63.18000 2.646
63.20000 1.619
63.22000 0.925
63.24000 0.777
63.26000 -0.845
63.28000 3.775
63.30000 1.770
63.32000 1.041
63.34000 5.382
63.36000 3.269
63.38000 5.787
63.40000 6.822
63.42000 5.419
63.44000 0.964
63.46000 1.337
63.48000 1.764
63.50000 1.123
63.52000 0.733
63.54000 2.565
63.56000 2.328
63.58000 -0.845
63.60000 -2.368
63.62000 -0.861
63.64000 0.389
63.66000 -2.091
63.68000 1.227
63.70000 2.601
63.72000 4.538
63.74000 3.353
63.76000 3.797
63.78000 3.514
63.80000 2.971
63.82000 5.218
63.84000 2.342
63.86000 4.455
63.88000 0.365
63.90000 2.783
63.92000 5.849
63.94000 6.483
63.96000 2.611
63.98000 -0.134
64.00000 -0.058
64.02000 4.287
64.04000 4.651
64.06000 1.030
64.08000 -0.995
64.10000 -0.636
64.12000 -1.159
64.14000 -1.714
64.16000 -1.989
64.18000 0.558
64.20000 3.706
64.22000 1.950
64.24000 4.720
64.26000 -1.059
64.28000 -2.381
64.30000 3.406
64.32000 6.971
64.34000 4.191
64.36000 2.508
64.38000 4.115
64.40000 2.819
64.42000 3.760
64.44000 1.199
64.46000 1.967
64.48000 5.717
64.50000 1.216
64.52000 -0.975
64.54000 1.491
64.56000 -0.213
64.58000 3.910
64.60000 7.168
64.62000 3.773
64.64000 2.443
64.66000 2.257
64.68000 0.219
64.70000 1.444
64.72000 2.664
64.74000 3.574
64.76000 0.873
64.78000 -0.010
64.80000 1.943
64.82000 4.515
64.84000 5.413
64.86000 1.908
64.88000 1.259
64.90000 0.494
64.92000 4.178
64.94000 5.812
64.96000 1.636
64.98000 1.274
65.00000 1.482
65.02000 -0.709
65.04000 1.375
65.06000 1.891
65.08000 3.257
65.10000 4.742
65.12000 6.020
65.14000 0.439
65.16000 3.690
65.18000 4.093
65.20000 3.582
65.22000 3.928
65.24000 2.395
65.26000 -1.115
65.28000 0.673
65.30000 2.964
65.32000 1.720
65.34000 0.256
65.36000 1.650
65.38000 2.335
65.40000 2.074
65.42000 2.659
65.44000 2.470
65.46000 0.896
65.48000 2.251
65.50000 5.062
65.52000 0.405
65.54000 -2.396
65.56000 2.639
65.58000 2.450
65.60000 -0.757
65.62000 -0.361
65.64000 0.899
65.66000 0.249
65.68000 -1.108
65.70000 1.565
65.72000 4.206
65.74000 4.725
65.76000 0.852
65.78000 1.066
65.80000 -2.072
65.82000 -1.039
65.84000 0.379
65.86000 -0.542
65.88000 -1.160
65.90000 -1.863
65.92000 -0.512
65.94000 3.615
65.96000 3.599
65.98000 1.177
66.00000 0.610
66.02000 -0.264
66.04000 -1.003
66.06000 1.603
66.08000 1.843
66.10000 0.818
66.12000 0.828
66.14000 -0.484
66.16000 -2.485
66.18000 1.116
66.20000 1.718
66.22000 0.477
66.24000 1.899
66.26000 0.062
66.28000 -1.320
66.30000 -0.867
66.32000 -0.888
66.34000 -1.963
66.36000 -1.509
66.38000 -0.779
66.40000 -0.871
66.42000 0.946
66.44000 -0.756
66.46000 -0.226
66.48000 2.927
66.50000 2.384
66.52000 1.599
66.54000 1.372
66.56000 0.193
66.58000 2.133
66.60000 2.637
66.62000 0.533
66.64000 1.446
66.66000 3.500
66.68000 2.934
66.70000 0.656
66.72000 -1.366
66.74000 -2.176
66.76000 1.719
66.78000 3.732
66.80000 5.227
66.82000 3.632
66.84000 1.006
66.86000 -0.561
66.88000 -2.083
66.90000 -2.373
66.92000 1.348
66.94000 0.169
66.96000 1.605
66.98000 6.807
67.00000 5.546
67.02000 3.732
67.04000 3.947
67.06000 5.238
67.08000 1.097
67.10000 -1.037
67.12000 1.902
67.14000 7.065
67.16000 8.593
67.18000 7.179
67.20000 6.571
67.22000 6.259
67.24000 5.849
67.26000 10.634
67.28000 13.483
67.30000 8.837
67.32000 7.941
67.34000 10.932
67.36000 7.925
67.38000 7.594
67.40000 11.281
67.42000 13.928
67.44000 10.022
67.46000 10.559
67.48000 10.439
67.50000 8.339
67.52000 6.891
67.54000 6.500
67.56000 9.772
67.58000 12.816
67.60000 13.419
67.62000 15.220
67.64000 13.706
67.66000 12.456
67.68000 13.078
67.70000 13.463
67.72000 14.702
67.74000 15.730
67.76000 14.268
67.78000 15.667
67.80000 18.629
67.82000 17.817
67.84000 19.557
67.86000 23.236
67.88000 22.055
67.90000 18.552
67.92000 21.045
67.94000 20.963
67.96000 16.467
67.98000 15.186
68.00000 20.433
68.02000 23.043
68.04000 20.050
68.06000 21.690
68.08000 18.797
68.10000 17.607
68.12000 23.603
68.14000 22.256
68.16000 21.369
68.18000 22.864
68.20000 21.110
68.22000 22.835
68.24000 22.739
68.26000 22.566
68.28000 22.388
68.30000 20.754
68.32000 23.096
68.34000 25.558
68.36000 23.682
68.38000 23.574
68.40000 22.006
68.42000 20.438
68.44000 20.433
68.46000 21.040
68.48000 20.413
68.50000 22.812
68.52000 24.395
68.54000 22.290
68.56000 18.355
68.58000 13.107
68.60000 12.907
68.62000 20.969
68.64000 17.665
68.66000 14.265
68.68000 13.877
68.70000 12.898
68.72000 13.844
68.74000 15.538
68.76000 12.696
68.78000 7.195
68.80000 7.841
68.82000 9.284
68.84000 10.014
68.86000 9.118
68.88000 6.772
68.90000 6.504
68.92000 6.343
68.94000 5.870
68.96000 3.821
68.98000 5.046
69.00000 8.809
69.02000 8.463
69.04000 11.293
69.06000 10.369
69.08000 8.572
69.10000 7.396
69.12000 6.170
69.14000 6.888
69.16000 5.662
69.18000 4.942
69.20000 2.528
69.22000 1.920
69.24000 -0.905
69.26000 -0.062
69.28000 -0.489
69.30000 0.821
69.32000 2.966
69.34000 1.565
69.36000 1.049
69.38000 2.119
69.40000 0.268
69.42000 -2.109
69.44000 0.716
69.46000 -0.354
69.48000 -0.247
69.50000 0.003
69.52000 -0.112
69.54000 1.531
69.56000 -0.261
69.58000 1.226
69.60000 4.336
69.62000 5.009
69.64000 0.747
69.66000 0.815
69.68000 -0.532
69.70000 -0.659
69.72000 3.384
69.74000 3.266
69.76000 -0.999
69.78000 -0.264
69.80000 -1.480
69.82000 -1.759
69.84000 -2.416
69.86000 -2.293
69.88000 1.376
69.90000 -0.353
69.92000 1.328
69.94000 -0.052
69.96000 1.051
69.98000 3.459
70.00000 1.850
70.02000 2.082
70.04000 -0.304
70.06000 0.082
70.08000 1.412
70.10000 1.881
70.12000 -0.066
70.14000 0.023
70.16000 -1.194
70.18000 -0.770
70.20000 1.221
70.22000 -2.362
70.24000 1.145
70.26000 2.047
70.28000 0.191
70.30000 -0.190
70.32000 1.743
70.34000 -1.059
70.36000 0.597
70.38000 1.896
70.40000 6.768
70.42000 3.913
70.44000 -0.380
70.46000 1.652
70.48000 1.852
70.50000 3.262
70.52000 1.427
70.54000 1.697
70.56000 -2.322
70.58000 0.565
70.60000 2.774
70.62000 4.582
70.64000 0.886
70.66000 -1.496
70.68000 1.008
70.70000 2.155
70.72000 3.102
70.74000 2.536
70.76000 1.593
70.78000 2.916
70.80000 1.871
70.82000 0.880
70.84000 1.411
70.86000 0.147
70.88000 -1.627
70.90000 -0.330
70.92000 0.881
70.94000 3.905
70.96000 -0.922
70.98000 0.758
71.00000 0.169
71.02000 -1.560
71.04000 3.938
71.06000 2.664
71.08000 1.984
71.10000 1.972
71.12000 -0.947
71.14000 2.914
71.16000 2.944
71.18000 2.595
71.20000 0.080
71.22000 -2.276
71.24000 -1.727
71.26000 -0.749
71.28000 -1.468
71.30000 2.408
71.32000 5.355
71.34000 1.007
71.36000 3.697
71.38000 5.136
71.40000 4.037
71.42000 2.746
71.44000 1.849
71.46000 0.195
71.48000 3.073
71.50000 2.261
71.52000 3.248
71.54000 1.136
71.56000 3.061
71.58000 -0.837
71.60000 -0.881
71.62000 -2.263
71.64000 1.893
71.66000 1.596
71.68000 -0.399
71.70000 0.791
71.72000 3.720
71.74000 3.484
71.76000 2.338
71.78000 3.603
71.80000 4.286
71.82000 3.553
71.84000 3.994
71.86000 2.808
71.88000 0.000
71.90000 2.451
71.92000 -0.765
71.94000 -1.155
71.96000 0.060
71.98000 0.281
72.00000 -0.405
72.02000 3.663
72.04000 2.301
72.06000 0.862
72.08000 -0.582
72.10000 -0.085
72.12000 -2.259
72.14000 -1.536
72.16000 3.398
72.18000 5.138
72.20000 1.543
72.22000 3.312
72.24000 3.035
72.26000 2.450
72.28000 1.009
72.30000 0.021
72.32000 1.330
72.34000 0.303
72.36000 -1.715
72.38000 -0.686
72.40000 1.938
72.42000 4.933
72.44000 0.673
72.46000 -2.256
72.48000 -0.968
72.50000 -0.145
72.52000 -1.471
72.54000 2.602
72.56000 5.558
72.58000 4.533
72.60000 5.678
72.62000 4.615
72.64000 3.315
72.66000 2.009
72.68000 4.607
72.70000 6.292
72.72000 4.630
72.74000 4.296
72.76000 6.121
72.78000 3.420
72.80000 0.078
72.82000 0.880
72.84000 0.515
72.86000 2.031
72.88000 6.070
72.90000 1.205
72.92000 -0.587
72.94000 3.328
72.96000 7.222
72.98000 3.586
73.00000 -0.081
73.02000 -2.230
73.04000 -1.172
73.06000 -0.549
73.08000 3.346
73.10000 4.004
73.12000 2.850
73.14000 1.768
73.16000 0.667
73.18000 1.527
73.20000 2.856
73.22000 3.715
73.24000 0.561
73.26000 0.216
73.28000 0.139
73.30000 1.929
73.32000 1.289
73.34000 -2.065
73.36000 1.443
73.38000 1.258
73.40000 1.021
73.42000 3.170
73.44000 4.414
73.46000 2.450
73.48000 0.517
73.50000 -0.657
73.52000 0.397
73.54000 0.816
73.56000 1.645
73.58000 2.865
73.60000 0.719
73.62000 1.560
73.64000 1.179
73.66000 1.578
73.68000 1.454
73.70000 0.823
73.72000 0.678
73.74000 -0.430
73.76000 -0.574
73.78000 1.243
73.80000 2.844
73.82000 5.578
73.84000 0.857
73.86000 -0.877
73.88000 1.900
73.90000 -0.990
73.92000 0.699
73.94000 1.195
73.96000 6.571
73.98000 8.539
74.00000 3.836
74.02000 3.840
74.04000 2.665
74.06000 1.470
74.08000 3.930
74.10000 4.080
74.12000 1.055
74.14000 1.073
74.16000 5.664
74.18000 3.650
74.20000 2.552
74.22000 0.672
74.24000 1.703
74.26000 2.105
74.28000 4.690
74.30000 5.376
74.32000 8.308
74.34000 0.253
74.36000 -1.072
74.38000 -0.339
74.40000 4.444
74.42000 5.669
74.44000 6.242
74.46000 8.324
74.48000 9.767
74.50000 2.774
74.52000 -2.143
74.54000 2.258
74.56000 4.393
74.58000 6.387
74.60000 5.739
74.62000 8.043
74.64000 13.520
74.66000 11.921
74.68000 3.411
74.70000 4.027
74.72000 6.035
74.74000 7.774
74.76000 3.195
74.78000 4.190
74.80000 6.885
74.82000 5.351
74.84000 0.742
74.86000 -0.398
74.88000 4.230
74.90000 3.405
74.92000 5.377
74.94000 5.547
74.96000 6.563
74.98000 5.488
75.00000 2.241
75.02000 2.236
75.04000 0.874
75.06000 -0.259
75.08000 -1.552
75.10000 1.860
75.12000 6.089
75.14000 6.271
75.16000 6.395
75.18000 3.999
75.20000 3.845
75.22000 1.643
75.24000 1.436
75.26000 2.685
75.28000 3.509
75.30000 4.957
75.32000 3.621
75.34000 1.237
75.36000 1.793
75.38000 2.422
75.40000 1.846
75.42000 4.430
75.44000 3.464
75.46000 2.960
75.48000 2.788
75.50000 2.395
75.52000 -0.010
75.54000 4.312
75.56000 5.720
75.58000 3.703
75.60000 1.420
75.62000 3.626
75.64000 2.526
75.66000 2.941
75.68000 3.855
75.70000 2.971
75.72000 5.185
75.74000 4.468
75.76000 2.602
75.78000 1.702
75.80000 2.355
75.82000 -0.302
75.84000 -1.368
75.86000 0.079
75.88000 2.045
75.90000 3.382
75.92000 7.147
75.94000 10.653
75.96000 5.202
75.98000 3.685
76.00000 0.290
76.02000 3.428
76.04000 6.213
76.06000 6.289
76.08000 5.267
76.10000 2.750
76.12000 5.419
76.14000 2.660
76.16000 -1.132
76.18000 -2.201
76.20000 -0.791
76.22000 2.320
76.24000 2.505
76.26000 1.229
76.28000 2.659
76.30000 1.888
76.32000 3.452
76.34000 4.094
76.36000 7.885
76.38000 6.409
76.40000 0.981
76.42000 1.348
76.44000 1.375
76.46000 1.870
76.48000 3.676
76.50000 2.545
76.52000 2.288
76.54000 0.139
76.56000 2.448
76.58000 5.612
76.60000 0.919
76.62000 4.718
76.64000 5.933
76.66000 1.797
76.68000 -0.443
76.70000 -0.586
76.72000 -1.960
76.74000 1.280
76.76000 0.799
76.78000 3.904
76.80000 3.501
76.82000 2.155
76.84000 4.160
76.86000 4.075
76.88000 2.782
76.90000 2.052
76.92000 -2.237
76.94000 -0.487
76.96000 6.149
76.98000 6.181
77.00000 -1.577
77.02000 2.453
77.04000 9.231
77.06000 4.083
77.08000 6.267
77.10000 2.564
77.12000 2.356
77.14000 0.426
77.16000 -1.546
77.18000 0.330
77.20000 4.136
77.22000 0.999
77.24000 0.705
77.26000 2.862
77.28000 3.415
77.30000 3.177
77.32000 3.136
77.34000 4.227
77.36000 4.902
77.38000 2.733
77.40000 -0.217
77.42000 2.276
77.44000 1.647
77.46000 -0.757
77.48000 2.838
77.50000 1.859
77.52000 -0.243
77.54000 3.719
77.56000 1.955
77.58000 0.219
77.60000 -1.799
77.62000 -1.221
77.64000 4.898
77.66000 5.573
77.68000 2.123
77.70000 2.935
77.72000 1.111
77.74000 2.101
77.76000 3.372
77.78000 -0.266
77.80000 4.121
77.82000 -0.044
77.84000 -2.262
77.86000 -1.979
77.88000 -1.513
77.90000 2.551
77.92000 0.026
77.94000 -0.625
77.96000 -0.068
77.98000 -2.262
78.00000 0.309
78.02000 -0.655
78.04000 1.332
78.06000 2.091
78.08000 6.637
78.10000 7.147
78.12000 5.401
78.14000 1.783
78.16000 3.306
78.18000 4.466
78.20000 6.396
78.22000 5.149
78.24000 4.632
78.26000 2.336
78.28000 -2.266
78.30000 -1.642
78.32000 3.650
78.34000 4.819
78.36000 1.719
78.38000 6.150
78.40000 4.486
78.42000 -0.531
78.44000 -2.270
78.46000 0.181
78.48000 1.073
78.50000 5.268
78.52000 7.843
78.54000 4.632
78.56000 5.201
78.58000 6.443
78.60000 5.020
78.62000 1.693
78.64000 -0.993
78.66000 0.888
78.68000 1.459
78.70000 2.654
78.72000 3.947
78.74000 1.624
78.76000 3.405
78.78000 7.375
78.80000 5.359
78.82000 0.223
78.84000 1.428
78.86000 -0.915
78.88000 2.154
78.90000 2.234
78.92000 2.827
78.94000 3.764
78.96000 6.176
78.98000 0.915
79.00000 0.136
79.02000 -0.106
79.04000 1.178
79.06000 -1.515
79.08000 -2.288
79.10000 1.191
79.12000 4.054
79.14000 2.605
79.16000 6.015
79.18000 5.695
79.20000 6.486
79.22000 1.469
79.24000 -0.217
79.26000 3.800
79.28000 4.483
79.30000 4.662
79.32000 3.815
79.34000 1.679
79.36000 2.663
79.38000 2.780
79.40000 0.053
79.42000 -0.958
79.44000 3.555
79.46000 0.668
79.48000 -2.230
79.50000 3.150
79.52000 2.421
79.54000 0.448
79.56000 -1.645
79.58000 1.938
79.60000 0.889
79.62000 3.610
79.64000 1.687
79.66000 0.522
79.68000 -1.931
79.70000 0.905
79.72000 -0.694
79.74000 1.473
79.76000 1.049
79.78000 2.310
79.80000 0.651
79.82000 -0.095
79.84000 -2.143
79.86000 0.144
79.88000 1.586
79.90000 1.282
79.92000 -0.347
79.94000 2.769
79.96000 -1.213
79.98000 3.594
80.00000 3.736
80.02000 1.232
80.04000 1.040
80.06000 0.935
80.08000 4.834
80.10000 2.094
80.12000 -1.101
80.14000 -2.186
80.16000 2.729
80.18000 -1.244
80.20000 -0.662
80.22000 -0.316
80.24000 -0.269
80.26000 0.230
80.28000 -1.577
80.30000 -2.439
80.32000 -1.173
80.34000 3.647
80.36000 -0.738
80.38000 3.877
80.40000 6.152
80.42000 8.115
80.44000 5.708
80.46000 4.118
80.48000 1.750
80.50000 -1.133
80.52000 0.346
80.54000 0.483
80.56000 0.321
80.58000 -2.467
80.60000 -2.086
80.62000 0.360
80.64000 -0.779
80.66000 0.183
80.68000 0.444
80.70000 1.245
80.72000 3.011
80.74000 1.129
80.76000 1.618
80.78000 4.625
80.80000 4.844
80.82000 3.345
80.84000 2.120
80.86000 4.054
80.88000 4.439
80.90000 4.434
80.92000 5.296
80.94000 0.873
80.96000 4.620
80.98000 4.652
81.00000 6.101
81.02000 1.941
81.04000 1.990
81.06000 3.478
81.08000 7.053
81.10000 5.336
81.12000 9.019
81.14000 4.628
81.16000 2.020
81.18000 3.672
81.20000 5.235
81.22000 5.536
81.24000 6.482
81.26000 10.737
81.28000 14.083
81.30000 12.660
81.32000 10.367
81.34000 10.239
81.36000 9.605
81.38000 8.417
81.40000 9.071
81.42000 10.714
81.44000 15.504
81.46000 7.484
81.48000 9.477
81.50000 12.048
81.52000 13.942
81.54000 16.825
81.56000 13.700
81.58000 12.898
81.60000 14.312
81.62000 14.137
81.64000 17.720
81.66000 14.085
81.68000 11.029
81.70000 14.865
81.72000 15.827
81.74000 17.453
81.76000 18.973
81.78000 20.892
81.80000 23.884
81.82000 22.301
81.84000 20.726
81.86000 28.555
81.88000 28.549
81.90000 26.261
81.92000 23.095
81.94000 24.468
81.96000 28.878
81.98000 32.644
82.00000 31.664
82.02000 24.051
82.04000 23.387
82.06000 29.751
82.08000 26.343
82.10000 30.101
82.12000 30.994
82.14000 29.397
82.16000 30.258
82.18000 28.481
82.20000 28.946
82.22000 33.169
82.24000 35.020
82.26000 36.248
82.28000 39.625
82.30000 36.527
82.32000 31.424
82.34000 32.458
82.36000 30.975
82.38000 29.842
82.40000 22.951
82.42000 25.242
82.44000 30.571
82.46000 28.783
82.48000 28.389
82.50000 27.966
82.52000 27.454
82.54000 29.965
82.56000 27.090
82.58000 21.581
82.60000 28.097
82.62000 32.201
82.64000 30.280
82.66000 25.876
82.68000 23.281
82.70000 25.265
82.72000 23.235
82.74000 18.956
82.76000 18.919
82.78000 19.712
82.80000 17.848
82.82000 20.610
82.84000 25.467
82.86000 23.679
82.88000 24.724
82.90000 23.906
82.92000 16.510
82.94000 12.433
82.96000 18.627
82.98000 19.110
83.00000 20.581
83.02000 17.744
83.04000 14.316
83.06000 14.502
83.08000 14.880
83.10000 12.851
83.12000 9.955
83.14000 10.818
83.16000 9.178
83.18000 16.018
83.20000 11.722
83.22000 7.452
83.24000 7.195
83.26000 9.208
83.28000 13.251
83.30000 7.080
83.32000 6.428
83.34000 12.188
83.36000 8.825
83.38000 5.466
83.40000 6.574
83.42000 7.587
83.44000 7.035
83.46000 6.321
83.48000 9.258
83.50000 6.217
83.52000 4.614
83.54000 6.190
83.56000 7.949
83.58000 7.417
83.60000 6.491
83.62000 4.369
83.64000 6.139
83.66000 3.589
83.68000 3.595
83.70000 4.733
83.72000 2.530
83.74000 2.585
83.76000 4.292
83.78000 4.813
83.80000 4.592
83.82000 3.463
83.84000 0.846
83.86000 -0.850
83.88000 -1.289
83.90000 -2.265
83.92000 -1.160
83.94000 2.517
83.96000 5.269
83.98000 4.399
84.00000 1.308
84.02000 1.808
84.04000 1.967
84.06000 1.243
84.08000 0.408
84.10000 0.486
84.12000 1.362
84.14000 5.444
84.16000 2.072
84.18000 -2.367
84.20000 1.558
84.22000 4.157
84.24000 4.121
84.26000 3.527
84.28000 3.980
84.30000 2.357
84.32000 0.674
84.34000 7.996
84.36000 5.488
84.38000 3.154
84.40000 0.702
84.42000 1.656
84.44000 -0.311
84.46000 -2.355
84.48000 -1.993
84.50000 1.410
84.52000 3.117
84.54000 1.458
84.56000 0.797
84.58000 -0.451
84.60000 1.885
84.62000 0.972
84.64000 1.079
84.66000 0.190
84.68000 -0.430
84.70000 3.615
84.72000 2.703
84.74000 3.872
84.76000 6.044
84.78000 0.759
84.80000 1.209
84.82000 5.933
84.84000 2.453
84.86000 -2.070
84.88000 3.144
84.90000 2.707
84.92000 4.407
84.94000 4.511
84.96000 4.491
84.98000 3.892
85.00000 3.010
85.02000 2.284
85.04000 1.868
85.06000 2.396
85.08000 1.367
85.10000 -0.234
85.12000 -2.333
85.14000 0.627
85.16000 0.081
85.18000 0.295
85.20000 -2.038
85.22000 0.739
85.24000 2.596
85.26000 3.056
85.28000 2.334
85.30000 4.133
85.32000 0.644
85.34000 3.765
85.36000 5.404
85.38000 6.091
85.40000 2.112
85.42000 2.861
85.44000 4.201
85.46000 5.598
85.48000 5.998
85.50000 6.122
85.52000 3.332
85.54000 6.312
85.56000 6.715
85.58000 7.308
85.60000 2.775
85.62000 3.726
85.64000 6.268
85.66000 4.840
85.68000 7.252
85.70000 9.488
85.72000 9.054
85.74000 7.421
85.76000 9.472
85.78000 15.118
85.80000 11.245
85.82000 11.399
85.84000 15.420
85.86000 13.111
85.88000 8.448
85.90000 11.294
85.92000 12.885
85.94000 14.968
85.96000 17.714
85.98000 11.281
86.00000 13.090
86.02000 15.545
86.04000 14.838
86.06000 16.099
86.08000 18.517
86.10000 19.610
86.12000 20.045
86.14000 19.827
86.16000 17.106
86.18000 16.508
86.20000 17.845
86.22000 17.726
86.24000 21.183
86.26000 24.638
86.28000 21.559
86.30000 20.001
86.32000 17.774
86.34000 18.377
86.36000 17.340
86.38000 18.131
86.40000 24.835
86.42000 25.725
86.44000 22.212
86.46000 21.987
86.48000 22.993
86.50000 25.422
86.52000 26.130
86.54000 23.016
86.56000 22.635
86.58000 27.103
86.60000 22.948
86.62000 18.930
86.64000 22.279
86.66000 23.248
86.68000 22.445
86.70000 22.489
86.72000 20.362
86.74000 23.744
86.76000 19.630
86.78000 21.821
86.80000 20.720
86.82000 24.689
86.84000 25.771
86.86000 17.654
86.88000 15.984
86.90000 16.213
86.92000 16.254
86.94000 21.416
86.96000 19.874
86.98000 14.761
87.00000 9.687
87.02000 10.861
87.04000 13.423
87.06000 16.675
87.08000 13.140
87.10000 14.079
87.12000 10.855
87.14000 10.183
87.16000 8.305
87.18000 6.741
87.20000 5.289
87.22000 7.992
87.24000 15.261
87.26000 10.098
87.28000 9.618
87.30000 14.067
87.32000 13.911
87.34000 9.379
87.36000 6.134
87.38000 7.694
87.40000 11.378
87.42000 8.941
87.44000 7.567
87.46000 6.855
87.48000 6.413
87.50000 7.097
87.52000 2.978
87.54000 6.399
87.56000 6.661
87.58000 5.311
87.60000 2.192
87.62000 3.739
87.64000 4.385
87.66000 5.757
87.68000 5.590
87.70000 1.978
87.72000 2.694
87.74000 3.952
87.76000 4.757
87.78000 0.376
87.80000 -2.226
87.82000 1.060
87.84000 0.422
87.86000 3.479
87.88000 4.175
87.90000 8.291
87.92000 9.225
87.94000 2.640
87.96000 2.455
87.98000 0.542
88.00000 1.705
88.02000 5.405
88.04000 3.397
88.06000 4.098
88.08000 0.321
88.10000 0.121
88.12000 0.488
88.14000 -0.401
88.16000 2.413
88.18000 1.755
88.20000 2.466
88.22000 4.307
88.24000 1.975
88.26000 2.641
88.28000 3.328
88.30000 6.006
88.32000 3.046
88.34000 -0.182
88.36000 0.841
88.38000 3.761
88.40000 4.207
88.42000 2.888
88.44000 -2.157
88.46000 -1.827
88.48000 -0.177
88.50000 0.317
88.52000 2.232
88.54000 -1.765
88.56000 0.042
88.58000 2.584
88.60000 3.884
88.62000 -0.009
88.64000 1.841
88.66000 3.484
88.68000 0.007
88.70000 1.119
88.72000 1.956
88.74000 1.374
88.76000 0.214
88.78000 -2.149
88.80000 0.540
88.82000 0.977
88.84000 1.780
88.86000 -0.255
88.88000 0.728
88.90000 1.894
88.92000 1.753
88.94000 3.018
88.96000 9.211
88.98000 5.022
89.00000 0.248
89.02000 0.233
89.04000 1.924
89.06000 1.090
89.08000 2.291
89.10000 0.334
89.12000 0.754
89.14000 3.655
89.16000 -1.303
89.18000 0.786
89.20000 0.780
89.22000 0.580
89.24000 1.281
89.26000 3.766
89.28000 3.457
89.30000 1.055
89.32000 -0.595
89.34000 -2.121
89.36000 1.399
89.38000 0.682
89.40000 -0.597
89.42000 3.186
89.44000 2.258
89.46000 1.886
89.48000 1.733
89.50000 2.026
89.52000 2.089
89.54000 2.787
89.56000 5.091
89.58000 2.314
89.60000 3.126
89.62000 0.215
89.64000 2.265
89.66000 -0.847
89.68000 2.803
89.70000 3.455
89.72000 -0.121
89.74000 -0.598
89.76000 -0.273
89.78000 0.349
89.80000 0.537
89.82000 3.835
89.84000 4.249
89.86000 1.408
89.88000 4.541
89.90000 1.710
89.92000 2.103
89.94000 0.963
89.96000 0.892
89.98000 0.716
90.00000 3.582
90.02000 4.747
90.04000 0.240
90.06000 1.202
90.08000 2.360
90.10000 6.142
90.12000 0.196
90.14000 -1.344
90.16000 -0.280
90.18000 -0.830
90.20000 -2.112
90.22000 3.455
90.24000 -0.301
90.26000 2.302
90.28000 6.025
90.30000 3.764
90.32000 1.636
90.34000 0.814
90.36000 2.154
90.38000 3.537
90.40000 2.450
90.42000 3.032
90.44000 2.047
90.46000 -0.962
90.48000 0.534
90.50000 1.152
90.52000 -1.567
90.54000 -2.096
90.56000 1.341
90.58000 1.786
90.60000 1.990
90.62000 2.930
90.64000 5.453
90.66000 2.357
90.68000 2.061
90.70000 2.345
90.72000 7.677
90.74000 4.448
90.76000 2.718
90.78000 2.761
90.80000 6.687
90.82000 3.306
90.84000 2.677
90.86000 5.595
90.88000 3.891
90.90000 1.521
90.92000 -2.071
90.94000 -1.437
90.96000 -2.069
90.98000 -1.669
91.00000 2.006
91.02000 5.480
91.04000 5.945
91.06000 2.924
91.08000 1.455
91.10000 2.364
91.12000 4.225
91.14000 5.391
91.16000 2.642
91.18000 4.376
91.20000 4.977
91.22000 1.930
91.24000 -0.771
91.26000 2.871
91.28000 4.739
91.30000 6.035
91.32000 5.882
91.34000 3.657
91.36000 3.641
91.38000 1.618
91.40000 -0.098
91.42000 7.186
91.44000 2.387
91.46000 1.698
91.48000 7.324
91.50000 6.735
91.52000 1.845
91.54000 1.600
91.56000 6.753
91.58000 4.000
91.60000 2.223
91.62000 -0.354
91.64000 1.513
91.66000 9.209
91.68000 9.470
91.70000 4.701
91.72000 2.535
91.74000 3.784
91.76000 1.687
91.78000 -2.041
91.80000 3.061
91.82000 4.440
91.84000 9.071
91.86000 4.682
91.88000 3.276
91.90000 8.114
91.92000 12.277
91.94000 5.573
91.96000 1.829
91.98000 1.262
92.00000 4.002
92.02000 3.891
92.04000 3.806
92.06000 5.952
92.08000 6.685
92.10000 3.210
92.12000 7.563
92.14000 10.131
92.16000 10.777
92.18000 7.041
92.20000 8.755
92.22000 8.022
92.24000 3.779
92.26000 1.065
92.28000 2.862
92.30000 7.145
92.32000 6.021
92.34000 6.446
92.36000 10.039
92.38000 2.584
92.40000 5.272
92.42000 5.427
92.44000 9.615
92.46000 11.031
92.48000 10.858
92.50000 5.224
92.52000 -1.997
92.54000 2.499
92.56000 5.005
92.58000 10.071
92.60000 6.361
92.62000 2.365
92.64000 4.011
92.66000 2.740
92.68000 3.073
92.70000 8.103
92.72000 10.796
92.74000 6.285
92.76000 6.284
92.78000 3.117
92.80000 1.342
92.82000 4.742
92.84000 0.722
92.86000 1.915
92.88000 4.446
92.90000 3.815
92.92000 6.108
92.94000 6.615
92.96000 5.457
92.98000 6.966
93.00000 3.466
93.02000 3.517
93.04000 3.171
93.06000 4.990
93.08000 7.173
93.10000 6.409
93.12000 3.009
93.14000 4.038
93.16000 2.478
93.18000 -0.554
93.20000 7.160
93.22000 7.315
93.24000 7.119
93.26000 5.304
93.28000 5.777
93.30000 5.924
93.32000 7.415
93.34000 7.958
93.36000 10.608
93.38000 6.271
93.40000 3.858
93.42000 4.815
93.44000 2.390
93.46000 6.690
93.48000 2.559
93.50000 2.921
93.52000 1.674
93.54000 3.588
93.56000 3.276
93.58000 1.850
93.60000 4.549
93.62000 8.745
93.64000 7.754
93.66000 4.758
93.68000 2.486
93.70000 3.332
93.72000 2.231
93.74000 -1.436
93.76000 1.451
93.78000 2.437
93.80000 7.957
93.82000 6.550
93.84000 4.629
93.86000 2.951
93.88000 0.046
93.90000 -0.055
93.92000 3.340
93.94000 1.299
93.96000 1.768
93.98000 4.422
94.00000 3.359
94.02000 1.885
94.04000 0.587
94.06000 -0.096
94.08000 0.733
94.10000 7.559
94.12000 5.702
94.14000 2.959
94.16000 -2.101
94.18000 -0.090
94.20000 0.359
94.22000 1.394
94.24000 1.314
94.26000 2.496
94.28000 4.863
94.30000 4.606
94.32000 4.235
94.34000 2.539
94.36000 6.672
94.38000 4.521
94.40000 4.506
94.42000 3.759
94.44000 4.140
94.46000 4.592
94.48000 3.547
94.50000 3.120
94.52000 3.386
94.54000 5.758
94.56000 7.181
94.58000 5.521
94.60000 0.585
94.62000 2.554
94.64000 3.923
94.66000 1.729
94.68000 2.949
94.70000 1.363
94.72000 -0.790
94.74000 3.288
94.76000 5.750
94.78000 2.675
94.80000 0.122
94.82000 0.689
94.84000 3.997
94.86000 -2.109
94.88000 2.730
94.90000 1.800
94.92000 0.853
94.94000 1.098
94.96000 1.936
94.98000 3.996
95.00000 3.368
95.02000 3.942
95.04000 2.179
95.06000 5.761
95.08000 1.916
95.10000 0.167
95.12000 -0.260
95.14000 5.917
95.16000 6.048
95.18000 2.446
95.20000 1.137
95.22000 6.728
95.24000 3.325
95.26000 3.142
95.28000 7.241
95.30000 10.248
95.32000 3.819
95.34000 1.963
95.36000 2.782
95.38000 3.867
95.40000 6.692
95.42000 7.700
95.44000 5.104
95.46000 3.193
95.48000 3.412
95.50000 2.532
95.52000 -1.224
95.54000 0.245
95.56000 1.557
95.58000 2.348
95.60000 5.887
95.62000 5.969
95.64000 5.837
95.66000 3.950
95.68000 7.911
95.70000 5.473
95.72000 0.333
95.74000 -2.086
95.76000 0.389
95.78000 -0.024
95.80000 6.910
95.82000 8.295
95.84000 9.760
95.86000 9.735
95.88000 6.196
95.90000 1.264
95.92000 2.422
95.94000 2.558
95.96000 4.980
95.98000 2.958
96.00000 -0.190
96.02000 3.847
96.04000 4.330
96.06000 1.920
96.08000 1.184
96.10000 5.390
96.12000 9.430
96.14000 10.272
96.16000 7.659
96.18000 5.792
96.20000 11.521
96.22000 1.189
96.24000 0.142
96.26000 6.317
96.28000 7.298
96.30000 8.164
96.32000 7.908
96.34000 2.110
96.36000 5.090
96.38000 7.938
96.40000 6.044
96.42000 7.287
96.44000 6.811
96.46000 3.300
96.48000 4.119
96.50000 3.088
96.52000 8.496
96.54000 6.221
96.56000 3.723
96.58000 3.134
96.60000 6.461
96.62000 8.519
96.64000 4.918
96.66000 0.393
96.68000 2.018
96.70000 1.962
96.72000 1.650
96.74000 1.223
96.76000 5.714
96.78000 8.223
96.80000 5.093
96.82000 3.594
96.84000 -0.611
96.86000 1.350
96.88000 7.027
96.90000 5.751
96.92000 5.625
96.94000 7.081
96.96000 4.355
96.98000 6.079
97.00000 8.800
97.02000 10.359
97.04000 13.497
97.06000 11.579
97.08000 3.082
97.10000 -2.026
97.12000 4.061
97.14000 9.682
97.16000 10.865
97.18000 10.860
97.20000 8.691
97.22000 4.183
97.24000 4.811
97.26000 4.666
97.28000 2.371
97.30000 3.054
97.32000 8.616
97.34000 6.708
97.36000 7.641
97.38000 8.737
97.40000 4.104
97.42000 5.264
97.44000 5.659
97.46000 10.396
97.48000 6.346
97.50000 7.769
97.52000 3.538
97.54000 5.730
97.56000 13.135
97.58000 8.177
97.60000 5.044
97.62000 8.083
97.64000 9.565
97.66000 7.716
97.68000 6.484
97.70000 15.144
97.72000 9.621
97.74000 6.854
97.76000 7.891
97.78000 15.671
97.80000 15.296
97.82000 6.871
97.84000 9.265
97.86000 9.031
97.88000 3.130
97.90000 8.302
97.92000 10.343
97.94000 5.320
97.96000 10.414
97.98000 11.602
98.00000 12.193
98.02000 9.355
98.04000 9.607
98.06000 5.229
98.08000 6.821
98.10000 9.835
98.12000 4.927
98.14000 4.185
98.16000 4.824
98.18000 -1.981
98.20000 3.707
98.22000 7.660
98.24000 5.056
98.26000 0.233
98.28000 4.532
98.30000 3.893
98.32000 6.888
98.34000 9.509
98.36000 4.080
98.38000 6.991
98.40000 5.347
98.42000 2.383
98.44000 8.882
98.46000 12.824
98.48000 5.739
98.50000 8.160
98.52000 10.914
98.54000 8.513
98.56000 8.023
98.58000 4.885
98.60000 2.337
98.62000 3.149
98.64000 9.613
98.66000 10.512
98.68000 7.913
98.70000 4.656
98.72000 2.834
98.74000 4.225
98.76000 0.761
98.78000 4.874
98.80000 9.600
98.82000 6.337
98.84000 3.307
98.86000 0.723
98.88000 4.925
98.90000 -0.442
98.92000 1.295
98.94000 0.747
98.96000 3.729
98.98000 5.150
99.00000 2.818
99.02000 5.372
99.04000 1.635
99.06000 -1.918
99.08000 -2.025
99.10000 3.161
99.12000 9.196
99.14000 -2.480
99.16000 5.703
99.18000 9.769
99.20000 10.108
99.22000 4.584
99.24000 9.436
99.26000 8.586
99.28000 6.023
99.30000 5.922
99.32000 1.980
99.34000 3.937
99.36000 6.650
99.38000 10.664
99.40000 9.669
99.42000 7.637
99.44000 7.341
99.46000 3.532
99.48000 11.104
99.50000 6.880
99.52000 9.086
99.54000 2.716
99.56000 4.311
99.58000 -0.190
99.60000 0.828
99.62000 9.247
99.64000 15.925
99.66000 8.225
99.68000 1.749
99.70000 0.177
99.72000 1.450
99.74000 6.121
99.76000 5.602
99.78000 3.281
99.80000 1.767
99.82000 0.325
99.84000 2.160
99.86000 4.690
99.88000 -2.141
99.90000 4.416
99.92000 8.414
99.94000 14.183
99.96000 8.256
99.98000 0.000
