'Id: "0011389" Comment: "Integrate frame 0011389_Au-Ir-Rh_Au-Rich_XRD_Mapping-026-0000.gfrmwith cursor Wedge Cursor #5" Operator: "B?rgel" Anode: "Cu" Wavelength: "1.5406" Scantype: "2Theta (TwoTheta)" TimePerStep: "1" X: "-22.5" Y: "-31.5" Z: "5.95" 
10.00000 0.000
10.02000 4.433
10.04000 2.145
10.06000 10.082
10.08000 1.639
10.10000 1.476
10.12000 8.313
10.14000 14.302
10.16000 5.235
10.18000 7.693
10.20000 11.555
10.22000 13.436
10.24000 10.995
10.26000 16.172
10.28000 27.869
10.30000 19.460
10.32000 14.662
10.34000 9.546
10.36000 1.945
10.38000 9.105
10.40000 -4.369
10.42000 1.072
10.44000 16.606
10.46000 27.358
10.48000 21.909
10.50000 25.284
10.52000 23.631
10.54000 9.683
10.56000 18.049
10.58000 34.200
10.60000 27.444
10.62000 21.453
10.64000 17.074
10.66000 28.537
10.68000 22.737
10.70000 17.454
10.72000 13.731
10.74000 14.245
10.76000 17.713
10.78000 23.277
10.80000 15.836
10.82000 13.058
10.84000 17.460
10.86000 21.180
10.88000 17.463
10.90000 7.814
10.92000 4.186
10.94000 16.297
10.96000 27.534
10.98000 34.261
11.00000 24.086
11.02000 19.233
11.04000 2.798
11.06000 -0.298
11.08000 14.540
11.10000 29.853
11.12000 17.051
11.14000 7.501
11.16000 16.238
11.18000 18.857
11.20000 7.476
11.22000 15.315
11.24000 14.366
11.26000 13.713
11.28000 16.956
11.30000 20.748
11.32000 24.444
11.34000 6.820
11.36000 1.665
11.38000 9.213
11.40000 18.835
11.42000 14.589
11.44000 16.576
11.46000 15.242
11.48000 12.968
11.50000 18.372
11.52000 16.173
11.54000 5.820
11.56000 -0.566
11.58000 11.634
11.60000 18.014
11.62000 18.296
11.64000 19.154
11.66000 2.211
11.68000 0.887
11.70000 7.043
11.72000 12.663
11.74000 12.552
11.76000 13.544
11.78000 12.865
11.80000 9.574
11.82000 7.802
11.84000 5.137
11.86000 8.761
11.88000 9.715
11.90000 6.385
11.92000 15.023
11.94000 9.226
11.96000 17.179
11.98000 20.748
12.00000 15.157
12.02000 4.421
12.04000 6.809
12.06000 19.772
12.08000 5.355
12.10000 14.686
12.12000 27.938
12.14000 31.029
12.16000 12.843
12.18000 3.658
12.20000 6.403
12.22000 11.348
12.24000 15.432
12.26000 16.773
12.28000 19.012
12.30000 14.690
12.32000 24.102
12.34000 27.349
12.36000 13.508
12.38000 9.884
12.40000 12.677
12.42000 1.714
12.44000 11.521
12.46000 8.210
12.48000 5.022
12.50000 13.639
12.52000 15.161
12.54000 6.105
12.56000 3.815
12.58000 13.586
12.60000 12.841
12.62000 2.408
12.64000 4.371
12.66000 0.848
12.68000 5.059
12.70000 7.518
12.72000 9.584
12.74000 6.293
12.76000 -4.481
12.78000 4.902
12.80000 19.895
12.82000 16.516
12.84000 5.585
12.86000 3.008
12.88000 0.288
12.90000 4.941
12.92000 8.652
12.94000 9.359
12.96000 10.228
12.98000 9.466
13.00000 3.866
13.02000 6.222
13.04000 10.994
13.06000 7.033
13.08000 6.288
13.10000 9.436
13.12000 12.541
13.14000 10.079
13.16000 17.196
13.18000 11.446
13.20000 7.027
13.22000 10.749
13.24000 13.248
13.26000 7.827
13.28000 6.549
13.30000 15.440
13.32000 10.355
13.34000 9.718
13.36000 5.953
13.38000 3.797
13.40000 -1.573
13.42000 -0.819
13.44000 15.443
13.46000 10.683
13.48000 6.089
13.50000 15.999
13.52000 10.459
13.54000 13.934
13.56000 15.562
13.58000 13.257
13.60000 8.828
13.62000 10.396
13.64000 8.050
13.66000 -2.993
13.68000 2.173
13.70000 -0.747
13.72000 -1.344
13.74000 5.511
13.76000 -0.310
13.78000 15.017
13.80000 21.660
13.82000 12.254
13.84000 10.984
13.86000 9.059
13.88000 8.833
13.90000 8.950
13.92000 11.414
13.94000 16.954
13.96000 5.393
13.98000 8.798
14.00000 10.298
14.02000 6.021
14.04000 22.585
14.06000 9.858
14.08000 1.021
14.10000 15.577
14.12000 18.495
14.14000 5.760
14.16000 6.575
14.18000 10.803
14.20000 3.443
14.22000 -2.643
14.24000 14.937
14.26000 12.287
14.28000 3.185
14.30000 -4.483
14.32000 4.786
14.34000 18.708
14.36000 15.666
14.38000 9.576
14.40000 4.132
14.42000 0.080
14.44000 3.995
14.46000 -3.174
14.48000 -2.163
14.50000 4.504
14.52000 9.834
14.54000 -0.741
14.56000 0.412
14.58000 7.043
14.60000 8.074
14.62000 7.299
14.64000 9.319
14.66000 7.232
14.68000 7.635
14.70000 -4.470
14.72000 2.438
14.74000 3.872
14.76000 -1.071
14.78000 10.374
14.80000 6.769
14.82000 -0.080
14.84000 2.348
14.86000 -0.398
14.88000 -1.491
14.90000 -1.280
14.92000 3.533
14.94000 9.022
14.96000 11.189
14.98000 8.530
15.00000 8.720
15.02000 3.797
15.04000 0.414
15.06000 -2.404
15.08000 3.548
15.10000 0.798
15.12000 0.295
15.14000 5.658
15.16000 10.646
15.18000 9.485
15.20000 12.210
15.22000 -1.944
15.24000 4.078
15.26000 5.179
15.28000 4.259
15.30000 2.590
15.32000 5.014
15.34000 6.813
15.36000 9.137
15.38000 8.632
15.40000 7.245
15.42000 -2.640
15.44000 0.097
15.46000 5.318
15.48000 10.739
15.50000 10.941
15.52000 12.525
15.54000 8.864
15.56000 -0.883
15.58000 -1.106
15.60000 4.489
15.62000 9.409
15.64000 6.866
15.66000 15.173
15.68000 17.208
15.70000 5.266
15.72000 5.834
15.74000 14.306
15.76000 13.698
15.78000 7.193
15.80000 5.190
15.82000 6.171
15.84000 4.335
15.86000 2.080
15.88000 4.678
15.90000 6.274
15.92000 -1.762
15.94000 -2.012
15.96000 2.257
15.98000 4.206
16.00000 1.906
16.02000 7.148
16.04000 12.289
16.06000 8.345
16.08000 1.517
16.10000 0.308
16.12000 7.515
16.14000 13.481
16.16000 7.118
16.18000 0.920
16.20000 -2.807
16.22000 3.030
16.24000 2.872
16.26000 9.997
16.28000 9.048
16.30000 -2.812
16.32000 -4.397
16.34000 1.253
16.36000 4.816
16.38000 0.972
16.40000 0.277
16.42000 9.386
16.44000 2.185
16.46000 3.498
16.48000 4.476
16.50000 3.079
16.52000 2.280
16.54000 8.686
16.56000 5.852
16.58000 4.406
16.60000 6.857
16.62000 8.239
16.64000 8.742
16.66000 1.712
16.68000 -2.203
16.70000 0.131
16.72000 11.471
16.74000 5.087
16.76000 2.103
16.78000 4.731
16.80000 11.083
16.82000 7.672
16.84000 7.247
16.86000 17.806
16.88000 16.743
16.90000 13.832
16.92000 6.897
16.94000 2.718
16.96000 -1.430
16.98000 5.069
17.00000 14.576
17.02000 9.324
17.04000 10.810
17.06000 11.727
17.08000 9.311
17.10000 7.762
17.12000 6.242
17.14000 5.948
17.16000 -0.520
17.18000 3.676
17.20000 7.137
17.22000 5.342
17.24000 2.101
17.26000 4.630
17.28000 7.055
17.30000 16.560
17.32000 11.011
17.34000 5.071
17.36000 4.272
17.38000 0.416
17.40000 0.252
17.42000 7.625
17.44000 15.451
17.46000 20.799
17.48000 10.943
17.50000 8.459
17.52000 15.761
17.54000 13.823
17.56000 -2.820
17.58000 2.359
17.60000 12.121
17.62000 7.734
17.64000 6.750
17.66000 10.228
17.68000 16.673
17.70000 14.669
17.72000 15.795
17.74000 14.319
17.76000 11.642
17.78000 9.256
17.80000 10.021
17.82000 4.997
17.84000 16.175
17.86000 19.309
17.88000 13.844
17.90000 12.302
17.92000 12.507
17.94000 8.509
17.96000 10.100
17.98000 7.763
18.00000 6.003
18.02000 5.121
18.04000 -1.971
18.06000 1.210
18.08000 6.162
18.10000 5.730
18.12000 5.763
18.14000 12.349
18.16000 10.450
18.18000 12.603
18.20000 14.007
18.22000 13.561
18.24000 9.983
18.26000 8.708
18.28000 16.965
18.30000 23.435
18.32000 11.286
18.34000 0.512
18.36000 3.031
18.38000 9.424
18.40000 4.954
18.42000 -4.188
18.44000 7.554
18.46000 21.074
18.48000 14.424
18.50000 14.098
18.52000 11.156
18.54000 8.708
18.56000 9.647
18.58000 8.139
18.60000 12.260
18.62000 6.383
18.64000 5.964
18.66000 16.098
18.68000 14.309
18.70000 15.046
18.72000 6.620
18.74000 15.315
18.76000 13.736
18.78000 7.089
18.80000 7.793
18.82000 12.832
18.84000 14.576
18.86000 14.530
18.88000 16.777
18.90000 12.131
18.92000 11.057
18.94000 13.003
18.96000 4.975
18.98000 3.683
19.00000 8.416
19.02000 5.378
19.04000 6.169
19.06000 9.986
19.08000 11.211
19.10000 8.462
19.12000 2.692
19.14000 1.279
19.16000 7.725
19.18000 11.070
19.20000 13.600
19.22000 7.595
19.24000 4.375
19.26000 1.927
19.28000 5.078
19.30000 7.433
19.32000 11.507
19.34000 9.883
19.36000 12.552
19.38000 14.149
19.40000 10.838
19.42000 2.653
19.44000 0.190
19.46000 5.100
19.48000 7.313
19.50000 10.820
19.52000 7.058
19.54000 7.020
19.56000 5.883
19.58000 9.272
19.60000 2.414
19.62000 5.489
19.64000 6.078
19.66000 8.892
19.68000 2.802
19.70000 6.254
19.72000 4.581
19.74000 6.533
19.76000 8.965
19.78000 9.747
19.80000 9.803
19.82000 0.778
19.84000 2.366
19.86000 -0.770
19.88000 -1.130
19.90000 4.815
19.92000 8.019
19.94000 2.960
19.96000 5.491
19.98000 6.292
20.00000 5.099
20.02000 8.995
20.04000 3.583
20.06000 4.868
20.08000 8.113
20.10000 6.910
20.12000 -4.150
20.14000 -2.503
20.16000 6.481
20.18000 11.822
20.20000 7.289
20.22000 6.490
20.24000 5.150
20.26000 8.411
20.28000 4.087
20.30000 2.949
20.32000 -0.098
20.34000 0.345
20.36000 3.806
20.38000 3.548
20.40000 3.825
20.42000 7.929
20.44000 11.723
20.46000 4.671
20.48000 1.412
20.50000 8.275
20.52000 13.795
20.54000 7.399
20.56000 5.842
20.58000 4.816
20.60000 3.104
20.62000 8.621
20.64000 9.574
20.66000 11.207
20.68000 4.337
20.70000 -1.590
20.72000 -4.117
20.74000 -1.821
20.76000 6.454
20.78000 16.248
20.80000 13.168
20.82000 9.674
20.84000 8.750
20.86000 12.857
20.88000 14.243
20.90000 8.674
20.92000 7.468
20.94000 7.961
20.96000 8.998
20.98000 3.568
21.00000 3.491
21.02000 7.482
21.04000 13.253
21.06000 10.398
21.08000 5.426
21.10000 3.299
21.12000 9.049
21.14000 10.344
21.16000 9.687
21.18000 14.558
21.20000 3.848
21.22000 5.017
21.24000 6.288
21.26000 9.556
21.28000 3.632
21.30000 -4.076
21.32000 2.566
21.34000 5.835
21.36000 5.294
21.38000 13.082
21.40000 16.342
21.42000 6.376
21.44000 2.761
21.46000 6.276
21.48000 4.404
21.50000 3.128
21.52000 6.460
21.54000 6.846
21.56000 4.445
21.58000 1.838
21.60000 2.485
21.62000 0.038
21.64000 0.660
21.66000 3.369
21.68000 7.010
21.70000 7.050
21.72000 4.710
21.74000 2.849
21.76000 3.935
21.78000 2.369
21.80000 -1.552
21.82000 -0.548
21.84000 0.182
21.86000 0.934
21.88000 -0.068
21.90000 5.768
21.92000 8.769
21.94000 -1.979
21.96000 -2.374
21.98000 2.963
22.00000 7.354
22.02000 5.786
22.04000 4.327
22.06000 7.303
22.08000 7.537
22.10000 5.356
22.12000 3.415
22.14000 10.362
22.16000 10.732
22.18000 6.136
22.20000 6.275
22.22000 7.128
22.24000 4.490
22.26000 4.482
22.28000 6.987
22.30000 6.273
22.32000 9.886
22.34000 8.769
22.36000 9.322
22.38000 3.353
22.40000 4.469
22.42000 3.155
22.44000 5.764
22.46000 -0.130
22.48000 -4.034
22.50000 -0.260
22.52000 5.009
22.54000 -0.323
22.56000 5.475
22.58000 4.967
22.60000 5.289
22.62000 4.906
22.64000 2.401
22.66000 3.961
22.68000 2.702
22.70000 2.046
22.72000 3.747
22.74000 2.300
22.76000 4.159
22.78000 1.704
22.80000 1.078
22.82000 2.223
22.84000 8.158
22.86000 6.801
22.88000 5.609
22.90000 6.257
22.92000 -2.234
22.94000 -2.079
22.96000 2.887
22.98000 3.312
23.00000 0.229
23.02000 4.458
23.04000 4.151
23.06000 -1.144
23.08000 5.801
23.10000 1.205
23.12000 0.454
23.14000 3.704
23.16000 5.046
23.18000 10.179
23.20000 2.434
23.22000 -2.414
23.24000 0.766
23.26000 7.308
23.28000 3.751
23.30000 4.315
23.32000 5.203
23.34000 3.583
23.36000 2.593
23.38000 4.875
23.40000 6.483
23.42000 6.606
23.44000 3.597
23.46000 0.750
23.48000 3.817
23.50000 0.115
23.52000 -0.904
23.54000 3.726
23.56000 1.159
23.58000 -3.994
23.60000 -3.731
23.62000 1.042
23.64000 1.136
23.66000 -0.257
23.68000 2.091
23.70000 4.147
23.72000 3.101
23.74000 8.714
23.76000 8.828
23.78000 1.597
23.80000 -2.254
23.82000 0.330
23.84000 -3.730
23.86000 2.972
23.88000 4.811
23.90000 4.371
23.92000 3.218
23.94000 0.176
23.96000 3.972
23.98000 6.813
24.00000 3.533
24.02000 3.159
24.04000 0.971
24.06000 6.146
24.08000 3.406
24.10000 -0.050
24.12000 1.932
24.14000 2.423
24.16000 6.404
24.18000 8.263
24.20000 6.709
24.22000 6.437
24.24000 5.185
24.26000 -1.099
24.28000 -1.844
24.30000 1.493
24.32000 1.876
24.34000 4.288
24.36000 3.685
24.38000 1.824
24.40000 1.308
24.42000 1.754
24.44000 5.665
24.46000 1.174
24.48000 -0.372
24.50000 4.854
24.52000 2.643
24.54000 -0.850
24.56000 -2.081
24.58000 3.999
24.60000 1.910
24.62000 -1.157
24.64000 3.001
24.66000 7.080
24.68000 4.098
24.70000 -3.932
24.72000 -0.061
24.74000 -0.429
24.76000 4.473
24.78000 0.273
24.80000 -1.649
24.82000 2.767
24.84000 1.501
24.86000 0.811
24.88000 6.889
24.90000 5.634
24.92000 0.562
24.94000 -2.309
24.96000 3.910
24.98000 5.514
25.00000 4.093
25.02000 3.050
25.04000 3.448
25.06000 -0.057
25.08000 -2.916
25.10000 -0.068
25.12000 1.036
25.14000 -1.409
25.16000 -0.424
25.18000 1.280
25.20000 -2.944
25.22000 -2.700
25.24000 0.215
25.26000 5.390
25.28000 2.152
25.30000 2.345
25.32000 0.800
25.34000 3.771
25.36000 4.456
25.38000 3.417
25.40000 -3.900
25.42000 2.971
25.44000 6.055
25.46000 7.008
25.48000 3.272
25.50000 0.082
25.52000 -0.237
25.54000 3.755
25.56000 0.894
25.58000 0.794
25.60000 8.247
25.62000 4.766
25.64000 2.469
25.66000 -1.501
25.68000 -1.449
25.70000 -2.611
25.72000 -1.129
25.74000 5.186
25.76000 3.813
25.78000 -1.680
25.80000 -3.515
25.82000 -2.582
25.84000 2.251
25.86000 2.063
25.88000 0.214
25.90000 -2.388
25.92000 -3.876
25.94000 -1.497
25.96000 -2.527
25.98000 -3.489
26.00000 1.477
26.02000 2.742
26.04000 5.421
26.06000 5.031
26.08000 -0.147
26.10000 4.379
26.12000 1.255
26.14000 -0.089
26.16000 -2.360
26.18000 -3.106
26.20000 -3.688
26.22000 -2.502
26.24000 1.213
26.26000 0.773
26.28000 3.913
26.30000 0.408
26.32000 2.285
26.34000 1.334
26.36000 2.523
26.38000 3.279
26.40000 4.588
26.42000 2.537
26.44000 2.854
26.46000 1.037
26.48000 -1.016
26.50000 1.853
26.52000 4.834
26.54000 1.919
26.56000 3.986
26.58000 4.114
26.60000 -1.757
26.62000 -3.847
26.64000 -3.528
26.66000 0.293
26.68000 0.232
26.70000 3.725
26.72000 6.221
26.74000 0.235
26.76000 -2.434
26.78000 2.164
26.80000 1.401
26.82000 -2.715
26.84000 -3.140
26.86000 -2.179
26.88000 -3.454
26.90000 -2.606
26.92000 -0.309
26.94000 3.012
26.96000 3.573
26.98000 2.021
27.00000 3.326
27.02000 7.211
27.04000 9.276
27.06000 5.207
27.08000 2.301
27.10000 -0.147
27.12000 -3.346
27.14000 -3.297
27.16000 1.150
27.18000 2.977
27.20000 5.685
27.22000 8.526
27.24000 3.905
27.26000 1.893
27.28000 2.125
27.30000 -0.484
27.32000 0.932
27.34000 4.731
27.36000 -0.459
27.38000 0.135
27.40000 -0.694
27.42000 -2.758
27.44000 0.245
27.46000 -1.404
27.48000 -1.177
27.50000 0.774
27.52000 5.838
27.54000 7.668
27.56000 1.720
27.58000 1.878
27.60000 -0.515
27.62000 2.195
27.64000 7.519
27.66000 6.093
27.68000 8.294
27.70000 5.117
27.72000 6.671
27.74000 6.696
27.76000 9.303
27.78000 1.265
27.80000 0.395
27.82000 -1.449
27.84000 2.166
27.86000 4.926
27.88000 -0.565
27.90000 -0.322
27.92000 -0.777
27.94000 0.820
27.96000 3.904
27.98000 7.144
28.00000 0.896
28.02000 -0.834
28.04000 -1.440
28.06000 0.916
28.08000 4.148
28.10000 6.212
28.12000 0.065
28.14000 -3.747
28.16000 -0.255
28.18000 8.260
28.20000 9.477
28.22000 7.728
28.24000 6.992
28.26000 1.407
28.28000 2.110
28.30000 5.008
28.32000 5.617
28.34000 6.515
28.36000 0.433
28.38000 0.074
28.40000 1.131
28.42000 10.236
28.44000 4.166
28.46000 2.362
28.48000 2.458
28.50000 2.812
28.52000 4.466
28.54000 3.564
28.56000 6.112
28.58000 4.531
28.60000 3.462
28.62000 2.624
28.64000 7.056
28.66000 2.418
28.68000 -3.350
28.70000 4.813
28.72000 8.591
28.74000 3.647
28.76000 5.346
28.78000 3.133
28.80000 1.567
28.82000 4.337
28.84000 3.614
28.86000 4.055
28.88000 1.054
28.90000 0.288
28.92000 5.328
28.94000 0.135
28.96000 -3.027
28.98000 -1.758
29.00000 2.499
29.02000 9.286
29.04000 7.365
29.06000 -1.431
29.08000 0.677
29.10000 1.760
29.12000 3.478
29.14000 -1.683
29.16000 -2.980
29.18000 -1.048
29.20000 -2.149
29.22000 3.001
29.24000 3.391
29.26000 5.314
29.28000 4.397
29.30000 7.780
29.32000 8.748
29.34000 6.953
29.36000 6.029
29.38000 7.678
29.40000 8.817
29.42000 6.963
29.44000 4.876
29.46000 0.840
29.48000 2.249
29.50000 1.208
29.52000 4.970
29.54000 10.030
29.56000 4.036
29.58000 5.817
29.60000 5.737
29.62000 0.182
29.64000 7.075
29.66000 4.810
29.68000 0.579
29.70000 1.989
29.72000 5.893
29.74000 7.362
29.76000 6.134
29.78000 7.805
29.80000 6.274
29.82000 4.990
29.84000 4.191
29.86000 6.088
29.88000 7.240
29.90000 6.270
29.92000 4.002
29.94000 0.557
29.96000 0.253
29.98000 2.733
30.00000 3.510
30.02000 4.850
30.04000 1.345
30.06000 -3.600
30.08000 2.853
30.10000 3.229
30.12000 5.554
30.14000 9.123
30.16000 9.263
30.18000 5.402
30.20000 5.609
30.22000 4.297
30.24000 6.918
30.26000 7.987
30.28000 2.685
30.30000 6.186
30.32000 10.668
30.34000 8.146
30.36000 4.064
30.38000 4.869
30.40000 9.630
30.42000 8.565
30.44000 3.893
30.46000 5.208
30.48000 4.089
30.50000 0.773
30.52000 0.838
30.54000 5.495
30.56000 3.336
30.58000 3.327
30.60000 1.146
30.62000 3.313
30.64000 9.647
30.66000 3.200
30.68000 2.636
30.70000 5.158
30.72000 7.842
30.74000 7.823
30.76000 4.677
30.78000 6.537
30.80000 6.192
30.82000 1.607
30.84000 0.479
30.86000 0.501
30.88000 3.658
30.90000 8.161
30.92000 8.238
30.94000 6.757
30.96000 11.425
30.98000 7.077
31.00000 7.205
31.02000 4.266
31.04000 4.827
31.06000 1.712
31.08000 4.986
31.10000 8.299
31.12000 5.508
31.14000 5.599
31.16000 5.054
31.18000 3.758
31.20000 1.096
31.22000 6.104
31.24000 9.332
31.26000 6.695
31.28000 1.990
31.30000 3.290
31.32000 2.594
31.34000 1.337
31.36000 3.756
31.38000 3.027
31.40000 2.644
31.42000 0.648
31.44000 1.715
31.46000 0.291
31.48000 4.246
31.50000 6.063
31.52000 0.625
31.54000 1.612
31.56000 7.510
31.58000 1.154
31.60000 -3.566
31.62000 -0.553
31.64000 5.040
31.66000 5.927
31.68000 -0.338
31.70000 0.766
31.72000 6.208
31.74000 7.465
31.76000 3.302
31.78000 3.855
31.80000 7.299
31.82000 4.260
31.84000 0.711
31.86000 -0.222
31.88000 3.986
31.90000 4.796
31.92000 3.776
31.94000 8.139
31.96000 6.009
31.98000 -0.777
32.00000 1.388
32.02000 0.031
32.04000 2.167
32.06000 3.120
32.08000 3.818
32.10000 6.447
32.12000 6.908
32.14000 6.161
32.16000 4.241
32.18000 -1.021
32.20000 -0.097
32.22000 5.724
32.24000 5.522
32.26000 5.890
32.28000 6.590
32.30000 0.256
32.32000 -1.640
32.34000 3.707
32.36000 6.195
32.38000 4.455
32.40000 0.106
32.42000 0.899
32.44000 -0.523
32.46000 4.528
32.48000 2.891
32.50000 0.658
32.52000 2.115
32.54000 6.343
32.56000 4.393
32.58000 3.238
32.60000 6.293
32.62000 6.850
32.64000 4.321
32.66000 4.634
32.68000 3.658
32.70000 4.608
32.72000 8.753
32.74000 9.400
32.76000 10.327
32.78000 2.525
32.80000 -0.016
32.82000 3.313
32.84000 1.829
32.86000 -3.509
32.88000 2.812
32.90000 2.659
32.92000 5.496
32.94000 3.656
32.96000 6.125
32.98000 8.092
33.00000 5.983
33.02000 5.719
33.04000 3.409
33.06000 3.417
33.08000 7.855
33.10000 2.879
33.12000 5.231
33.14000 6.909
33.16000 9.215
33.18000 8.314
33.20000 10.175
33.22000 7.933
33.24000 5.759
33.26000 6.782
33.28000 8.879
33.30000 6.241
33.32000 6.929
33.34000 9.620
33.36000 7.370
33.38000 0.470
33.40000 -2.388
33.42000 6.476
33.44000 7.946
33.46000 1.430
33.48000 3.590
33.50000 5.354
33.52000 7.057
33.54000 5.558
33.56000 6.618
33.58000 3.371
33.60000 -1.355
33.62000 -0.957
33.64000 6.286
33.66000 4.509
33.68000 -1.063
33.70000 3.875
33.72000 4.558
33.74000 1.785
33.76000 5.213
33.78000 1.477
33.80000 3.567
33.82000 2.627
33.84000 3.910
33.86000 5.850
33.88000 2.879
33.90000 5.072
33.92000 4.369
33.94000 2.955
33.96000 -0.479
33.98000 1.550
34.00000 2.964
34.02000 5.217
34.04000 6.527
34.06000 5.226
34.08000 5.941
34.10000 4.018
34.12000 0.955
34.14000 4.039
34.16000 2.051
34.18000 5.890
34.20000 7.029
34.22000 5.708
34.24000 10.091
34.26000 7.951
34.28000 9.423
34.30000 4.468
34.32000 3.076
34.34000 2.277
34.36000 -0.187
34.38000 4.354
34.40000 3.885
34.42000 4.622
34.44000 6.292
34.46000 5.569
34.48000 7.320
34.50000 1.070
34.52000 6.096
34.54000 4.943
34.56000 2.010
34.58000 8.339
34.60000 4.437
34.62000 1.666
34.64000 1.170
34.66000 2.966
34.68000 3.763
34.70000 3.643
34.72000 2.247
34.74000 2.583
34.76000 2.236
34.78000 4.787
34.80000 2.664
34.82000 -0.472
34.84000 -3.496
34.86000 2.721
34.88000 10.650
34.90000 11.041
34.92000 5.939
34.94000 4.136
34.96000 -1.458
34.98000 1.908
35.00000 4.236
35.02000 0.751
35.04000 0.728
35.06000 1.609
35.08000 2.726
35.10000 2.179
35.12000 -3.491
35.14000 -2.887
35.16000 3.944
35.18000 6.583
35.20000 6.190
35.22000 8.675
35.24000 5.788
35.26000 2.714
35.28000 1.593
35.30000 4.697
35.32000 1.450
35.34000 1.934
35.36000 2.495
35.38000 2.687
35.40000 1.645
35.42000 2.450
35.44000 1.547
35.46000 2.584
35.48000 -2.180
35.50000 -2.681
35.52000 1.206
35.54000 4.204
35.56000 4.070
35.58000 2.583
35.60000 1.820
35.62000 3.596
35.64000 1.891
35.66000 2.520
35.68000 2.709
35.70000 3.941
35.72000 1.691
35.74000 4.018
35.76000 5.718
35.78000 6.560
35.80000 3.071
35.82000 -3.489
35.84000 4.407
35.86000 3.110
35.88000 -1.260
35.90000 4.046
35.92000 3.939
35.94000 2.131
35.96000 3.277
35.98000 5.247
36.00000 7.881
36.02000 9.715
36.04000 9.314
36.06000 5.972
36.08000 -0.086
36.10000 2.206
36.12000 6.129
36.14000 2.918
36.16000 5.558
36.18000 6.135
36.20000 3.553
36.22000 -0.724
36.24000 -1.375
36.26000 -3.137
36.28000 6.110
36.30000 12.295
36.32000 6.696
36.34000 1.714
36.36000 0.584
36.38000 0.149
36.40000 1.788
36.42000 -1.846
36.44000 0.604
36.46000 0.331
36.48000 1.133
36.50000 3.620
36.52000 0.732
36.54000 -3.545
36.56000 -2.286
36.58000 4.968
36.60000 5.905
36.62000 6.465
36.64000 4.404
36.66000 2.770
36.68000 2.521
36.70000 -0.473
36.72000 -1.150
36.74000 -0.640
36.76000 7.368
36.78000 1.920
36.80000 0.869
36.82000 6.061
36.84000 3.658
36.86000 -0.150
36.88000 -0.375
36.90000 -1.556
36.92000 -3.579
36.94000 -2.594
36.96000 2.847
36.98000 3.053
37.00000 1.142
37.02000 5.848
37.04000 1.082
37.06000 -0.383
37.08000 0.208
37.10000 0.060
37.12000 0.446
37.14000 3.567
37.16000 3.093
37.18000 4.975
37.20000 3.436
37.22000 -0.754
37.24000 -0.410
37.26000 0.763
37.28000 6.691
37.30000 2.847
37.32000 2.224
37.34000 5.321
37.36000 2.154
37.38000 4.320
37.40000 4.070
37.42000 1.164
37.44000 2.469
37.46000 7.706
37.48000 1.865
37.50000 3.359
37.52000 0.480
37.54000 3.224
37.56000 11.614
37.58000 9.480
37.60000 8.117
37.62000 14.028
37.64000 12.980
37.66000 10.070
37.68000 7.311
37.70000 6.139
37.72000 12.763
37.74000 10.561
37.76000 4.756
37.78000 6.168
37.80000 12.704
37.82000 11.906
37.84000 14.624
37.86000 17.005
37.88000 10.118
37.90000 13.737
37.92000 13.004
37.94000 15.478
37.96000 14.979
37.98000 16.037
38.00000 14.868
38.02000 16.865
38.04000 18.750
38.06000 15.047
38.08000 18.277
38.10000 18.015
38.12000 19.824
38.14000 21.015
38.16000 23.364
38.18000 25.577
38.20000 25.272
38.22000 31.156
38.24000 32.403
38.26000 31.862
38.28000 30.480
38.30000 26.936
38.32000 29.092
38.34000 32.965
38.36000 37.134
38.38000 31.910
38.40000 35.427
38.42000 34.927
38.44000 35.717
38.46000 38.613
38.48000 39.679
38.50000 43.493
38.52000 42.999
38.54000 42.550
38.56000 45.522
38.58000 44.066
38.60000 50.382
38.62000 52.566
38.64000 52.793
38.66000 54.392
38.68000 59.809
38.70000 60.520
38.72000 68.382
38.74000 69.016
38.76000 71.905
38.78000 71.084
38.80000 77.220
38.82000 80.132
38.84000 82.914
38.86000 89.929
38.88000 96.083
38.90000 96.905
38.92000 104.637
38.94000 103.273
38.96000 106.001
38.98000 119.424
39.00000 126.732
39.02000 128.124
39.04000 135.424
39.06000 150.272
39.08000 154.846
39.10000 165.655
39.12000 168.047
39.14000 177.768
39.16000 190.146
39.18000 201.386
39.20000 214.533
39.22000 227.930
39.24000 236.474
39.26000 248.154
39.28000 271.230
39.30000 292.612
39.32000 305.357
39.34000 323.860
39.36000 340.951
39.38000 365.717
39.40000 390.234
39.42000 418.587
39.44000 437.972
39.46000 450.797
39.48000 469.672
39.50000 504.425
39.52000 535.574
39.54000 562.611
39.56000 589.515
39.58000 620.931
39.60000 643.412
39.62000 655.855
39.64000 682.726
39.66000 694.841
39.68000 717.276
39.70000 740.597
39.72000 751.735
39.74000 748.632
39.76000 768.496
39.78000 771.248
39.80000 778.436
39.82000 771.316
39.84000 770.654
39.86000 766.332
39.88000 763.350
39.90000 752.330
39.92000 734.016
39.94000 723.707
39.96000 706.554
39.98000 689.727
40.00000 663.965
40.02000 644.947
40.04000 624.860
40.06000 600.952
40.08000 579.280
40.10000 554.538
40.12000 521.451
40.14000 497.029
40.16000 472.463
40.18000 441.335
40.20000 422.857
40.22000 403.136
40.24000 378.230
40.26000 350.885
40.28000 325.567
40.30000 301.522
40.32000 279.559
40.34000 270.396
40.36000 257.377
40.38000 239.359
40.40000 226.369
40.42000 217.220
40.44000 193.989
40.46000 180.621
40.48000 171.643
40.50000 166.824
40.52000 152.487
40.54000 136.513
40.56000 126.733
40.58000 118.145
40.60000 116.282
40.62000 111.096
40.64000 100.957
40.66000 93.140
40.68000 88.479
40.70000 86.636
40.72000 79.238
40.74000 75.882
40.76000 74.271
40.78000 67.546
40.80000 63.691
40.82000 64.103
40.84000 57.306
40.86000 55.303
40.88000 50.762
40.90000 48.122
40.92000 41.930
40.94000 42.489
40.96000 38.415
40.98000 36.736
41.00000 34.741
41.02000 36.851
41.04000 32.441
41.06000 28.808
41.08000 30.901
41.10000 30.342
41.12000 28.946
41.14000 29.821
41.16000 29.147
41.18000 23.899
41.20000 24.886
41.22000 20.055
41.24000 18.867
41.26000 18.220
41.28000 16.228
41.30000 16.138
41.32000 21.353
41.34000 22.356
41.36000 14.277
41.38000 9.718
41.40000 11.644
41.42000 11.998
41.44000 13.103
41.46000 7.608
41.48000 8.164
41.50000 13.430
41.52000 12.194
41.54000 8.866
41.56000 13.973
41.58000 9.690
41.60000 7.407
41.62000 5.324
41.64000 2.934
41.66000 3.222
41.68000 9.562
41.70000 11.763
41.72000 5.375
41.74000 7.024
41.76000 8.736
41.78000 5.227
41.80000 3.698
41.82000 3.119
41.84000 5.930
41.86000 3.769
41.88000 2.566
41.90000 4.261
41.92000 5.383
41.94000 6.507
41.96000 1.013
41.98000 2.875
42.00000 3.704
42.02000 6.478
42.04000 5.307
42.06000 3.481
42.08000 -2.597
42.10000 0.968
42.12000 4.685
42.14000 0.049
42.16000 -2.305
42.18000 -0.381
42.20000 4.845
42.22000 0.360
42.24000 1.184
42.26000 -1.334
42.28000 -1.795
42.30000 -1.569
42.32000 3.510
42.34000 1.693
42.36000 1.153
42.38000 -3.378
42.40000 -2.267
42.42000 0.486
42.44000 1.511
42.46000 -0.026
42.48000 2.773
42.50000 0.885
42.52000 1.056
42.54000 1.707
42.56000 1.766
42.58000 0.932
42.60000 -2.431
42.62000 0.007
42.64000 -0.168
42.66000 3.256
42.68000 3.285
42.70000 1.169
42.72000 0.921
42.74000 1.967
42.76000 4.357
42.78000 -0.775
42.80000 -0.290
42.82000 -0.718
42.84000 -0.385
42.86000 0.364
42.88000 1.311
42.90000 -1.066
42.92000 -2.128
42.94000 1.886
42.96000 5.112
42.98000 0.223
43.00000 -0.508
43.02000 -0.763
43.04000 -1.956
43.06000 -2.699
43.08000 -3.260
43.10000 -0.450
43.12000 -0.095
43.14000 4.298
43.16000 5.321
43.18000 0.998
43.20000 -1.018
43.22000 -3.247
43.24000 1.425
43.26000 5.123
43.28000 3.355
43.30000 3.509
43.32000 0.026
43.34000 0.442
43.36000 -0.969
43.38000 0.643
43.40000 0.763
43.42000 3.042
43.44000 0.226
43.46000 -2.163
43.48000 -1.752
43.50000 2.720
43.52000 -0.968
43.54000 -1.479
43.56000 2.109
43.58000 3.747
43.60000 0.062
43.62000 -2.335
43.64000 1.018
43.66000 -0.830
43.68000 -0.179
43.70000 -0.121
43.72000 3.019
43.74000 2.376
43.76000 1.046
43.78000 2.200
43.80000 -2.843
43.82000 -0.577
43.84000 1.517
43.86000 -2.770
43.88000 -0.458
43.90000 1.105
43.92000 2.581
43.94000 0.686
43.96000 0.725
43.98000 0.985
44.00000 -3.183
44.02000 -2.932
44.04000 0.232
44.06000 1.030
44.08000 2.215
44.10000 -0.734
44.12000 3.700
44.14000 0.731
44.16000 -2.031
44.18000 -0.818
44.20000 5.276
44.22000 3.426
44.24000 0.549
44.26000 -3.176
44.28000 -1.017
44.30000 -1.861
44.32000 1.990
44.34000 3.787
44.36000 1.983
44.38000 2.466
44.40000 3.447
44.42000 1.751
44.44000 1.621
44.46000 -0.333
44.48000 2.652
44.50000 3.544
44.52000 3.267
44.54000 0.750
44.56000 1.075
44.58000 3.874
44.60000 2.128
44.62000 0.784
44.64000 2.769
44.66000 0.543
44.68000 -2.008
44.70000 -1.555
44.72000 -0.017
44.74000 0.925
44.76000 3.535
44.78000 5.301
44.80000 3.319
44.82000 1.329
44.84000 2.711
44.86000 3.238
44.88000 -0.669
44.90000 -1.221
44.92000 -0.239
44.94000 3.451
44.96000 1.384
44.98000 -1.450
45.00000 5.690
45.02000 6.778
45.04000 8.970
45.06000 3.761
45.08000 4.677
45.10000 7.862
45.12000 10.623
45.14000 10.162
45.16000 3.256
45.18000 3.889
45.20000 4.192
45.22000 3.700
45.24000 5.161
45.26000 8.360
45.28000 12.983
45.30000 16.832
45.32000 13.039
45.34000 6.914
45.36000 4.371
45.38000 10.650
45.40000 9.904
45.42000 11.846
45.44000 9.246
45.46000 8.245
45.48000 12.954
45.50000 11.997
45.52000 11.372
45.54000 15.698
45.56000 19.638
45.58000 20.448
45.60000 18.328
45.62000 16.672
45.64000 20.365
45.66000 22.389
45.68000 24.508
45.70000 21.809
45.72000 23.775
45.74000 25.069
45.76000 26.516
45.78000 26.887
45.80000 31.782
45.82000 35.274
45.84000 31.981
45.86000 30.479
45.88000 37.437
45.90000 40.162
45.92000 42.652
45.94000 47.832
45.96000 45.422
45.98000 40.927
46.00000 43.230
46.02000 43.729
46.04000 45.538
46.06000 43.323
46.08000 46.440
46.10000 52.469
46.12000 54.753
46.14000 56.118
46.16000 61.154
46.18000 63.256
46.20000 64.824
46.22000 67.450
46.24000 68.657
46.26000 66.799
46.28000 70.034
46.30000 73.836
46.32000 77.635
46.34000 78.486
46.36000 80.764
46.38000 81.866
46.40000 85.146
46.42000 80.957
46.44000 76.858
46.46000 82.435
46.48000 83.157
46.50000 81.125
46.52000 84.846
46.54000 86.039
46.56000 82.770
46.58000 88.221
46.60000 85.210
46.62000 83.174
46.64000 81.623
46.66000 75.710
46.68000 77.050
46.70000 77.826
46.72000 68.885
46.74000 67.823
46.76000 67.970
46.78000 74.382
46.80000 72.569
46.82000 67.622
46.84000 63.050
46.86000 53.692
46.88000 54.689
46.90000 52.303
46.92000 52.132
46.94000 51.574
46.96000 52.130
46.98000 45.970
47.00000 41.378
47.02000 41.899
47.04000 39.729
47.06000 33.442
47.08000 32.027
47.10000 31.790
47.12000 28.270
47.14000 27.696
47.16000 30.204
47.18000 28.999
47.20000 27.243
47.22000 23.777
47.24000 18.935
47.26000 20.391
47.28000 14.057
47.30000 12.031
47.32000 8.949
47.34000 10.886
47.36000 12.097
47.38000 15.194
47.40000 16.781
47.42000 11.835
47.44000 10.830
47.46000 8.483
47.48000 6.405
47.50000 3.861
47.52000 5.524
47.54000 6.315
47.56000 4.438
47.58000 0.278
47.60000 2.856
47.62000 5.286
47.64000 6.718
47.66000 3.204
47.68000 3.704
47.70000 5.514
47.72000 3.717
47.74000 3.090
47.76000 3.572
47.78000 4.214
47.80000 5.275
47.82000 4.955
47.84000 6.942
47.86000 7.469
47.88000 2.612
47.90000 0.299
47.92000 1.613
47.94000 2.471
47.96000 3.616
47.98000 1.069
48.00000 -0.110
48.02000 -2.775
48.04000 0.755
48.06000 4.711
48.08000 3.981
48.10000 -1.332
48.12000 -1.421
48.14000 4.871
48.16000 3.825
48.18000 2.007
48.20000 -0.760
48.22000 -0.921
48.24000 -0.528
48.26000 2.853
48.28000 3.657
48.30000 0.177
48.32000 2.033
48.34000 -0.229
48.36000 0.244
48.38000 -0.189
48.40000 -1.330
48.42000 -0.458
48.44000 2.037
48.46000 4.082
48.48000 6.863
48.50000 6.527
48.52000 2.656
48.54000 -1.087
48.56000 0.891
48.58000 -0.297
48.60000 1.082
48.62000 1.006
48.64000 1.721
48.66000 3.320
48.68000 2.583
48.70000 -1.854
48.72000 1.652
48.74000 2.096
48.76000 0.938
48.78000 4.134
48.80000 5.455
48.82000 4.162
48.84000 2.360
48.86000 2.958
48.88000 5.013
48.90000 3.961
48.92000 4.407
48.94000 4.334
48.96000 6.524
48.98000 3.379
49.00000 7.282
49.02000 3.639
49.04000 4.484
49.06000 8.972
49.08000 8.811
49.10000 5.229
49.12000 2.949
49.14000 -2.621
49.16000 -0.945
49.18000 4.851
49.20000 4.532
49.22000 0.069
49.24000 1.032
49.26000 2.612
49.28000 3.668
49.30000 1.391
49.32000 2.430
49.34000 5.579
49.36000 7.215
49.38000 7.589
49.40000 5.940
49.42000 7.293
49.44000 4.032
49.46000 2.814
49.48000 3.926
49.50000 5.838
49.52000 5.173
49.54000 5.777
49.56000 5.527
49.58000 1.953
49.60000 1.953
49.62000 2.755
49.64000 1.743
49.66000 4.220
49.68000 3.938
49.70000 4.860
49.72000 3.989
49.74000 0.762
49.76000 0.786
49.78000 0.517
49.80000 1.604
49.82000 2.341
49.84000 2.358
49.86000 -1.014
49.88000 -2.624
49.90000 -1.468
49.92000 -0.007
49.94000 -2.456
49.96000 -1.567
49.98000 2.575
50.00000 2.128
50.02000 -0.077
50.04000 2.513
50.06000 1.105
50.08000 0.055
50.10000 3.856
50.12000 4.308
50.14000 3.193
50.16000 2.331
50.18000 2.714
50.20000 2.714
50.22000 3.222
50.24000 1.802
50.26000 3.639
50.28000 6.523
50.30000 2.857
50.32000 0.761
50.34000 1.438
50.36000 3.862
50.38000 4.562
50.40000 2.445
50.42000 7.528
50.44000 5.513
50.46000 0.402
50.48000 1.280
50.50000 -1.630
50.52000 0.405
50.54000 -1.082
50.56000 -0.718
50.58000 -1.363
50.60000 -1.188
50.62000 0.550
50.64000 0.398
50.66000 0.260
50.68000 2.837
50.70000 2.018
50.72000 -1.885
50.74000 0.237
50.76000 2.388
50.78000 6.098
50.80000 2.185
50.82000 -2.586
50.84000 -0.035
50.86000 1.681
50.88000 -0.070
50.90000 3.001
50.92000 2.838
50.94000 2.015
50.96000 1.539
50.98000 -1.609
51.00000 -1.424
51.02000 0.345
51.04000 -1.197
51.06000 -1.533
51.08000 1.225
51.10000 4.591
51.12000 -0.554
51.14000 0.041
51.16000 3.937
51.18000 2.169
51.20000 -0.639
51.22000 -2.579
51.24000 0.965
51.26000 1.109
51.28000 0.703
51.30000 -2.093
51.32000 0.783
51.34000 4.354
51.36000 1.286
51.38000 -0.884
51.40000 0.857
51.42000 1.530
51.44000 -0.398
51.46000 1.541
51.48000 -0.019
51.50000 1.514
51.52000 3.158
51.54000 2.016
51.56000 -0.540
51.58000 0.369
51.60000 5.411
51.62000 1.737
51.64000 3.592
51.66000 3.507
51.68000 5.980
51.70000 1.828
51.72000 0.121
51.74000 3.637
51.76000 0.553
51.78000 -1.310
51.80000 0.379
51.82000 1.035
51.84000 0.861
51.86000 -1.203
51.88000 -1.086
51.90000 0.300
51.92000 -0.590
51.94000 0.538
51.96000 2.062
51.98000 2.329
52.00000 2.257
52.02000 -1.348
52.04000 0.490
52.06000 2.006
52.08000 -0.767
52.10000 1.413
52.12000 2.374
52.14000 -0.168
52.16000 -0.015
52.18000 0.066
52.20000 -0.494
52.22000 -0.170
52.24000 0.589
52.26000 0.218
52.28000 2.277
52.30000 0.508
52.32000 -2.517
52.34000 3.294
52.36000 2.921
52.38000 6.193
52.40000 3.698
52.42000 5.028
52.44000 4.829
52.46000 5.176
52.48000 5.189
52.50000 4.455
52.52000 1.418
52.54000 2.989
52.56000 5.873
52.58000 6.890
52.60000 3.086
52.62000 1.813
52.64000 2.292
52.66000 0.763
52.68000 2.365
52.70000 1.094
52.72000 -0.034
52.74000 1.718
52.76000 5.564
52.78000 4.817
52.80000 2.929
52.82000 0.937
52.84000 5.286
52.86000 3.619
52.88000 -1.176
52.90000 0.629
52.92000 2.572
52.94000 0.939
52.96000 -1.062
52.98000 1.787
53.00000 4.688
53.02000 5.468
53.04000 3.030
53.06000 -2.495
53.08000 2.804
53.10000 2.399
53.12000 -0.305
53.14000 1.638
53.16000 3.778
53.18000 -0.724
53.20000 1.119
53.22000 -1.291
53.24000 0.660
53.26000 -0.791
53.28000 1.231
53.30000 2.635
53.32000 7.788
53.34000 4.474
53.36000 3.716
53.38000 0.464
53.40000 3.967
53.42000 6.089
53.44000 3.233
53.46000 2.790
53.48000 2.656
53.50000 2.192
53.52000 2.420
53.54000 0.107
53.56000 -1.608
53.58000 0.165
53.60000 3.639
53.62000 -2.302
53.64000 2.996
53.66000 4.234
53.68000 5.633
53.70000 3.952
53.72000 -2.481
53.74000 -0.094
53.76000 3.207
53.78000 4.580
53.80000 2.579
53.82000 6.240
53.84000 2.584
53.86000 2.088
53.88000 1.325
53.90000 1.900
53.92000 2.845
53.94000 2.730
53.96000 0.973
53.98000 3.017
54.00000 2.851
54.02000 4.585
54.04000 2.528
54.06000 5.077
54.08000 2.094
54.10000 3.658
54.12000 6.273
54.14000 6.645
54.16000 2.513
54.18000 3.562
54.20000 4.272
54.22000 1.364
54.24000 1.112
54.26000 3.490
54.28000 7.998
54.30000 2.153
54.32000 -2.457
54.34000 -0.992
54.36000 1.278
54.38000 0.621
54.40000 1.210
54.42000 4.200
54.44000 3.964
54.46000 3.653
54.48000 1.411
54.50000 0.144
54.52000 -0.383
54.54000 -0.228
54.56000 0.483
54.58000 5.355
54.60000 5.216
54.62000 2.255
54.64000 0.909
54.66000 2.258
54.68000 2.539
54.70000 2.087
54.72000 0.946
54.74000 -1.737
54.76000 -1.396
54.78000 1.286
54.80000 5.205
54.82000 2.213
54.84000 3.100
54.86000 3.481
54.88000 0.417
54.90000 -0.906
54.92000 3.097
54.94000 3.546
54.96000 4.301
54.98000 4.049
55.00000 2.986
55.02000 2.227
55.04000 2.454
55.06000 5.552
55.08000 4.975
55.10000 -0.051
55.12000 -1.120
55.14000 1.001
55.16000 1.114
55.18000 2.752
55.20000 0.474
55.22000 1.474
55.24000 5.696
55.26000 4.389
55.28000 1.929
55.30000 4.423
55.32000 3.692
55.34000 1.354
55.36000 0.503
55.38000 3.592
55.40000 -0.073
55.42000 -2.432
55.44000 0.568
55.46000 3.422
55.48000 2.702
55.50000 1.997
55.52000 0.574
55.54000 3.797
55.56000 7.381
55.58000 5.934
55.60000 1.988
55.62000 3.581
55.64000 1.688
55.66000 6.342
55.68000 3.938
55.70000 1.375
55.72000 -0.828
55.74000 4.222
55.76000 3.975
55.78000 0.898
55.80000 1.225
55.82000 2.160
55.84000 3.658
55.86000 3.077
55.88000 4.800
55.90000 1.921
55.92000 -2.432
55.94000 -0.986
55.96000 0.355
55.98000 3.199
56.00000 0.523
56.02000 1.987
56.04000 0.902
56.06000 -0.812
56.08000 -1.752
56.10000 -0.816
56.12000 0.735
56.14000 -1.303
56.16000 2.250
56.18000 3.825
56.20000 4.198
56.22000 1.457
56.24000 1.725
56.26000 0.367
56.28000 0.264
56.30000 -2.288
56.32000 -1.588
56.34000 1.910
56.36000 1.525
56.38000 2.640
56.40000 1.788
56.42000 3.246
56.44000 4.178
56.46000 1.448
56.48000 1.591
56.50000 1.902
56.52000 5.109
56.54000 7.826
56.56000 5.696
56.58000 3.182
56.60000 4.184
56.62000 0.393
56.64000 -0.157
56.66000 2.797
56.68000 2.273
56.70000 2.140
56.72000 4.998
56.74000 -1.055
56.76000 -2.389
56.78000 2.357
56.80000 4.224
56.82000 7.328
56.84000 4.586
56.86000 2.995
56.88000 -0.679
56.90000 2.425
56.92000 0.167
56.94000 -0.701
56.96000 5.772
56.98000 7.678
57.00000 3.278
57.02000 0.723
57.04000 1.917
57.06000 0.480
57.08000 0.181
57.10000 0.397
57.12000 0.254
57.14000 3.486
57.16000 3.608
57.18000 3.449
57.20000 3.928
57.22000 2.020
57.24000 2.456
57.26000 1.556
57.28000 -0.349
57.30000 1.509
57.32000 4.618
57.34000 1.903
57.36000 0.309
57.38000 -0.259
57.40000 -0.535
57.42000 1.987
57.44000 2.174
57.46000 1.222
57.48000 0.778
57.50000 3.491
57.52000 5.575
57.54000 5.124
57.56000 3.699
57.58000 1.393
57.60000 -1.375
57.62000 0.317
57.64000 2.769
57.66000 -0.262
57.68000 -0.802
57.70000 -1.142
57.72000 2.302
57.74000 2.986
57.76000 0.643
57.78000 4.858
57.80000 3.655
57.82000 4.127
57.84000 -0.371
57.86000 -1.521
57.88000 0.145
57.90000 3.729
57.92000 2.602
57.94000 1.702
57.96000 2.830
57.98000 3.010
58.00000 6.414
58.02000 4.966
58.04000 2.909
58.06000 -2.362
58.08000 2.120
58.10000 1.165
58.12000 1.796
58.14000 -0.412
58.16000 0.013
58.18000 0.813
58.20000 2.667
58.22000 0.822
58.24000 1.091
58.26000 0.641
58.28000 0.253
58.30000 1.198
58.32000 4.215
58.34000 2.293
58.36000 3.334
58.38000 3.045
58.40000 4.312
58.42000 4.067
58.44000 4.480
58.46000 2.647
58.48000 2.737
58.50000 3.452
58.52000 0.877
58.54000 -2.332
58.56000 -1.021
58.58000 2.453
58.60000 2.061
58.62000 2.290
58.64000 3.529
58.66000 -1.204
58.68000 1.092
58.70000 1.489
58.72000 0.241
58.74000 3.691
58.76000 3.930
58.78000 3.465
58.80000 2.351
58.82000 0.993
58.84000 1.961
58.86000 2.260
58.88000 3.438
58.90000 2.138
58.92000 1.775
58.94000 6.501
58.96000 1.454
58.98000 2.032
59.00000 0.365
59.02000 5.351
59.04000 3.240
59.06000 0.169
59.08000 -2.250
59.10000 1.123
59.12000 4.442
59.14000 4.064
59.16000 4.511
59.18000 2.831
59.20000 0.788
59.22000 6.107
59.24000 5.026
59.26000 1.672
59.28000 3.971
59.30000 6.230
59.32000 2.598
59.34000 -0.945
59.36000 -1.494
59.38000 -0.949
59.40000 3.864
59.42000 5.467
59.44000 4.978
59.46000 3.072
59.48000 1.731
59.50000 0.463
59.52000 0.601
59.54000 -0.570
59.56000 -2.330
59.58000 3.374
59.60000 4.958
59.62000 4.291
59.64000 3.583
59.66000 2.189
59.68000 3.210
59.70000 2.173
59.72000 2.918
59.74000 -1.288
59.76000 0.419
59.78000 0.752
59.80000 -1.155
59.82000 0.763
59.84000 1.794
59.86000 3.313
59.88000 1.973
59.90000 -1.845
59.92000 -1.944
59.94000 -1.030
59.96000 -1.084
59.98000 -0.822
60.00000 0.184
60.02000 -1.582
60.04000 0.733
60.06000 -1.256
60.08000 0.005
60.10000 0.578
60.12000 1.000
60.14000 -1.506
60.16000 -0.268
60.18000 2.904
60.20000 2.392
60.22000 0.917
60.24000 0.482
60.26000 2.824
60.28000 0.923
60.30000 -0.766
60.32000 -0.473
60.34000 0.741
60.36000 0.118
60.38000 2.966
60.40000 4.498
60.42000 3.283
60.44000 2.446
60.46000 -0.616
60.48000 1.333
60.50000 -0.353
60.52000 1.465
60.54000 0.096
60.56000 -0.423
60.58000 -1.623
60.60000 -2.322
60.62000 -1.958
60.64000 0.631
60.66000 2.886
60.68000 0.942
60.70000 -0.108
60.72000 -0.602
60.74000 0.283
60.76000 1.083
60.78000 3.497
60.80000 1.014
60.82000 1.654
60.84000 3.021
60.86000 0.909
60.88000 2.177
60.90000 0.718
60.92000 -0.873
60.94000 -0.832
60.96000 -0.112
60.98000 1.937
61.00000 4.782
61.02000 1.876
61.04000 6.985
61.06000 3.424
61.08000 -0.059
61.10000 4.509
61.12000 2.253
61.14000 -0.782
61.16000 0.461
61.18000 0.134
61.20000 0.675
61.22000 0.154
61.24000 -0.933
61.26000 1.027
61.28000 2.420
61.30000 6.258
61.32000 2.550
61.34000 0.648
61.36000 -0.845
61.38000 -0.278
61.40000 0.770
61.42000 -1.472
61.44000 0.883
61.46000 3.427
61.48000 4.054
61.50000 1.428
61.52000 1.170
61.54000 -2.261
61.56000 -0.363
61.58000 2.788
61.60000 1.574
61.62000 1.028
61.64000 0.396
61.66000 0.089
61.68000 1.517
61.70000 3.561
61.72000 2.031
61.74000 0.752
61.76000 3.767
61.78000 2.362
61.80000 3.163
61.82000 5.128
61.84000 5.175
61.86000 3.701
61.88000 2.190
61.90000 1.715
61.92000 1.178
61.94000 -0.522
61.96000 -0.437
61.98000 -2.256
62.00000 0.472
62.02000 2.663
62.04000 0.511
62.06000 1.011
62.08000 1.120
62.10000 1.812
62.12000 2.027
62.14000 0.564
62.16000 2.349
62.18000 0.793
62.20000 4.144
62.22000 3.330
62.24000 1.636
62.26000 2.070
62.28000 4.591
62.30000 3.997
62.32000 0.836
62.34000 -2.253
62.36000 -1.612
62.38000 2.484
62.40000 3.483
62.42000 2.697
62.44000 4.253
62.46000 5.894
62.48000 5.141
62.50000 1.223
62.52000 2.502
62.54000 2.154
62.56000 -1.489
62.58000 1.147
62.60000 1.746
62.62000 0.439
62.64000 0.718
62.66000 1.450
62.68000 2.028
62.70000 0.982
62.72000 -0.705
62.74000 0.170
62.76000 0.839
62.78000 2.652
62.80000 2.175
62.82000 1.631
62.84000 1.789
62.86000 3.337
62.88000 1.846
62.90000 1.569
62.92000 1.524
62.94000 1.179
62.96000 3.711
62.98000 2.571
63.00000 -0.376
63.02000 -1.938
63.04000 0.722
63.06000 2.803
63.08000 1.364
63.10000 0.814
63.12000 0.624
63.14000 1.983
63.16000 0.621
63.18000 1.764
63.20000 -0.590
63.22000 0.163
63.24000 0.731
63.26000 1.015
63.28000 1.825
63.30000 1.442
63.32000 1.772
63.34000 3.004
63.36000 2.498
63.38000 0.295
63.40000 2.137
63.42000 2.119
63.44000 -0.461
63.46000 0.400
63.48000 0.294
63.50000 3.179
63.52000 2.589
63.54000 -0.886
63.56000 -2.246
63.58000 1.080
63.60000 2.862
63.62000 4.116
63.64000 -0.065
63.66000 -1.484
63.68000 0.703
63.70000 3.559
63.72000 2.174
63.74000 3.755
63.76000 3.324
63.78000 4.093
63.80000 6.897
63.82000 5.965
63.84000 0.394
63.86000 1.391
63.88000 1.968
63.90000 1.203
63.92000 -1.015
63.94000 0.454
63.96000 4.209
63.98000 2.836
64.00000 1.773
64.02000 1.257
64.04000 2.743
64.06000 3.031
64.08000 3.325
64.10000 3.053
64.12000 4.612
64.14000 3.064
64.16000 0.690
64.18000 1.480
64.20000 2.672
64.22000 1.106
64.24000 0.023
64.26000 4.251
64.28000 0.631
64.30000 -2.261
64.32000 -1.745
64.34000 -0.591
64.36000 -0.682
64.38000 -1.520
64.40000 -2.080
64.42000 1.653
64.44000 0.714
64.46000 -0.971
64.48000 -0.061
64.50000 2.902
64.52000 1.587
64.54000 0.064
64.56000 1.521
64.58000 1.427
64.60000 2.236
64.62000 2.604
64.64000 2.463
64.66000 0.870
64.68000 -0.580
64.70000 -2.261
64.72000 -1.104
64.74000 -1.247
64.76000 -1.286
64.78000 2.343
64.80000 1.055
64.82000 1.586
64.84000 1.052
64.86000 0.259
64.88000 2.909
64.90000 1.920
64.92000 -2.265
64.94000 -2.191
64.96000 -1.320
64.98000 0.140
65.00000 2.193
65.02000 0.524
65.04000 1.061
65.06000 0.709
65.08000 0.901
65.10000 1.681
65.12000 1.334
65.14000 1.355
65.16000 -0.413
65.18000 -1.206
65.20000 0.275
65.22000 2.146
65.24000 1.113
65.26000 0.869
65.28000 -2.269
65.30000 0.814
65.32000 3.232
65.34000 0.378
65.36000 0.072
65.38000 0.464
65.40000 0.548
65.42000 1.432
65.44000 0.714
65.46000 -0.934
65.48000 0.859
65.50000 -1.487
65.52000 -1.289
65.54000 -0.725
65.56000 -0.243
65.58000 -2.215
65.60000 0.884
65.62000 0.800
65.64000 0.198
65.66000 0.084
65.68000 -1.214
65.70000 1.413
65.72000 -0.762
65.74000 -2.274
65.76000 -0.016
65.78000 1.875
65.80000 0.523
65.82000 -1.404
65.84000 1.083
65.86000 -1.338
65.88000 0.724
65.90000 -0.061
65.92000 0.753
65.94000 1.847
65.96000 2.001
65.98000 -0.923
66.00000 -0.864
66.02000 0.091
66.04000 1.901
66.06000 2.075
66.08000 -0.414
66.10000 -1.630
66.12000 -1.427
66.14000 -0.365
66.16000 1.268
66.18000 2.014
66.20000 2.430
66.22000 -0.746
66.24000 0.158
66.26000 -2.309
66.28000 -2.121
66.30000 -0.671
66.32000 -1.937
66.34000 0.777
66.36000 4.421
66.38000 3.141
66.40000 2.501
66.42000 -1.789
66.44000 -1.555
66.46000 2.804
66.48000 2.852
66.50000 2.680
66.52000 0.714
66.54000 -1.756
66.56000 -2.328
66.58000 -0.504
66.60000 -1.068
66.62000 0.004
66.64000 1.254
66.66000 -0.065
66.68000 -1.504
66.70000 -1.386
66.72000 1.552
66.74000 4.001
66.76000 0.027
66.78000 1.360
66.80000 1.349
66.82000 2.061
66.84000 -0.577
66.86000 0.215
66.88000 2.728
66.90000 0.883
66.92000 3.222
66.94000 2.971
66.96000 2.594
66.98000 2.675
67.00000 4.384
67.02000 3.653
67.04000 4.621
67.06000 6.004
67.08000 3.246
67.10000 5.306
67.12000 5.402
67.14000 5.732
67.16000 3.841
67.18000 5.765
67.20000 4.236
67.22000 3.669
67.24000 6.051
67.26000 8.151
67.28000 8.324
67.30000 7.231
67.32000 5.968
67.34000 6.448
67.36000 5.452
67.38000 8.629
67.40000 7.702
67.42000 7.102
67.44000 8.794
67.46000 10.051
67.48000 12.168
67.50000 11.044
67.52000 9.168
67.54000 12.748
67.56000 13.335
67.58000 11.579
67.60000 8.776
67.62000 10.624
67.64000 13.270
67.66000 12.513
67.68000 12.911
67.70000 13.710
67.72000 12.915
67.74000 15.737
67.76000 16.330
67.78000 16.641
67.80000 14.772
67.82000 13.840
67.84000 13.957
67.86000 16.666
67.88000 16.454
67.90000 13.178
67.92000 12.910
67.94000 12.614
67.96000 13.486
67.98000 13.746
68.00000 14.848
68.02000 10.625
68.04000 13.514
68.06000 12.520
68.08000 10.030
68.10000 8.704
68.12000 8.130
68.14000 7.208
68.16000 8.577
68.18000 12.475
68.20000 9.205
68.22000 9.235
68.24000 8.273
68.26000 5.273
68.28000 3.676
68.30000 5.083
68.32000 4.457
68.34000 4.892
68.36000 5.959
68.38000 7.809
68.40000 2.940
68.42000 -0.100
68.44000 1.413
68.46000 4.736
68.48000 3.982
68.50000 5.230
68.52000 2.688
68.54000 1.116
68.56000 1.516
68.58000 -2.194
68.60000 -1.663
68.62000 2.075
68.64000 -0.482
68.66000 -0.747
68.68000 1.074
68.70000 2.717
68.72000 2.060
68.74000 -0.391
68.76000 1.045
68.78000 -0.476
68.80000 -0.779
68.82000 -0.354
68.84000 1.324
68.86000 2.523
68.88000 1.118
68.90000 1.227
68.92000 0.848
68.94000 1.952
68.96000 0.172
68.98000 0.661
69.00000 -1.115
69.02000 -0.360
69.04000 2.234
69.06000 2.520
69.08000 -0.304
69.10000 -0.334
69.12000 1.291
69.14000 0.132
69.16000 -1.371
69.18000 1.390
69.20000 0.418
69.22000 -1.247
69.24000 -2.218
69.26000 -1.916
69.28000 0.332
69.30000 0.295
69.32000 -0.235
69.34000 0.910
69.36000 0.180
69.38000 -0.214
69.40000 0.012
69.42000 0.626
69.44000 0.917
69.46000 0.405
69.48000 1.334
69.50000 3.239
69.52000 3.665
69.54000 4.230
69.56000 4.376
69.58000 2.513
69.60000 2.982
69.62000 4.147
69.64000 0.445
69.66000 -2.167
69.68000 -0.175
69.70000 -0.463
69.72000 0.059
69.74000 2.774
69.76000 2.999
69.78000 2.041
69.80000 4.482
69.82000 3.005
69.84000 1.657
69.86000 5.609
69.88000 5.789
69.90000 2.445
69.92000 -0.332
69.94000 4.381
69.96000 6.764
69.98000 5.098
70.00000 -0.001
70.02000 -1.873
70.04000 -1.698
70.06000 -1.040
70.08000 1.236
70.10000 1.424
70.12000 -0.391
70.14000 0.106
70.16000 -0.628
70.18000 -0.409
70.20000 0.627
70.22000 -0.119
70.24000 0.306
70.26000 -1.556
70.28000 -0.354
70.30000 1.818
70.32000 3.265
70.34000 2.327
70.36000 1.856
70.38000 0.219
70.40000 -0.379
70.42000 1.001
70.44000 2.356
70.46000 0.695
70.48000 -0.569
70.50000 0.049
70.52000 -0.216
70.54000 0.718
70.56000 -1.227
70.58000 -0.393
70.60000 0.137
70.62000 -0.081
70.64000 -0.694
70.66000 1.694
70.68000 -0.301
70.70000 -0.969
70.72000 1.702
70.74000 -0.882
70.76000 -1.450
70.78000 -1.623
70.80000 -0.086
70.82000 -0.967
70.84000 -1.494
70.86000 1.141
70.88000 0.671
70.90000 0.791
70.92000 1.344
70.94000 -0.084
70.96000 1.995
70.98000 1.596
71.00000 0.855
71.02000 1.385
71.04000 -1.501
71.06000 -2.155
71.08000 2.356
71.10000 2.400
71.12000 0.720
71.14000 3.305
71.16000 4.708
71.18000 2.459
71.20000 1.751
71.22000 -0.572
71.24000 -0.277
71.26000 1.745
71.28000 0.974
71.30000 -0.703
71.32000 -2.140
71.34000 -1.013
71.36000 -0.033
71.38000 -0.629
71.40000 1.473
71.42000 3.015
71.44000 2.819
71.46000 -0.893
71.48000 3.837
71.50000 3.807
71.52000 3.356
71.54000 0.935
71.56000 1.853
71.58000 1.670
71.60000 2.727
71.62000 -1.789
71.64000 2.434
71.66000 5.132
71.68000 1.365
71.70000 1.982
71.72000 3.375
71.74000 4.291
71.76000 5.690
71.78000 6.884
71.80000 5.372
71.82000 7.410
71.84000 4.214
71.86000 -0.336
71.88000 -2.104
71.90000 1.446
71.92000 3.680
71.94000 2.745
71.96000 -0.545
71.98000 1.554
72.00000 3.835
72.02000 4.337
72.04000 5.234
72.06000 1.388
72.08000 -0.965
72.10000 0.524
72.12000 3.353
72.14000 1.341
72.16000 0.082
72.18000 0.532
72.20000 0.422
72.22000 -0.260
72.24000 1.351
72.26000 3.347
72.28000 -0.028
72.30000 -0.927
72.32000 0.425
72.34000 -0.962
72.36000 4.212
72.38000 5.773
72.40000 4.402
72.42000 2.490
72.44000 0.130
72.46000 1.088
72.48000 2.789
72.50000 2.667
72.52000 2.473
72.54000 3.227
72.56000 3.030
72.58000 2.696
72.60000 3.244
72.62000 1.959
72.64000 0.322
72.66000 2.257
72.68000 2.323
72.70000 0.090
72.72000 -1.276
72.74000 1.117
72.76000 2.280
72.78000 -0.049
72.80000 -2.094
72.82000 -0.674
72.84000 2.086
72.86000 1.085
72.88000 0.773
72.90000 1.469
72.92000 6.548
72.94000 3.295
72.96000 0.725
72.98000 1.672
73.00000 1.025
73.02000 0.554
73.04000 0.827
73.06000 2.604
73.08000 1.304
73.10000 2.570
73.12000 5.042
73.14000 0.997
73.16000 -0.450
73.18000 1.091
73.20000 5.032
73.22000 3.441
73.24000 1.354
73.26000 -0.275
73.28000 -0.726
73.30000 -0.459
73.32000 0.053
73.34000 3.602
73.36000 2.239
73.38000 2.030
73.40000 3.234
73.42000 4.360
73.44000 2.772
73.46000 1.579
73.48000 3.677
73.50000 1.872
73.52000 3.688
73.54000 6.030
73.56000 2.522
73.58000 1.912
73.60000 -0.721
73.62000 3.635
73.64000 3.687
73.66000 2.267
73.68000 4.267
73.70000 3.700
73.72000 2.490
73.74000 2.771
73.76000 3.000
73.78000 5.165
73.80000 3.749
73.82000 5.064
73.84000 4.020
73.86000 0.995
73.88000 1.720
73.90000 4.937
73.92000 4.706
73.94000 6.608
73.96000 6.772
73.98000 7.633
74.00000 9.291
74.02000 5.209
74.04000 1.785
74.06000 2.830
74.08000 6.992
74.10000 4.294
74.12000 2.120
74.14000 4.534
74.16000 6.902
74.18000 7.035
74.20000 3.706
74.22000 4.087
74.24000 4.490
74.26000 5.275
74.28000 5.744
74.30000 4.009
74.32000 0.532
74.34000 -0.585
74.36000 -1.988
74.38000 2.154
74.40000 5.023
74.42000 5.205
74.44000 3.962
74.46000 4.191
74.48000 3.792
74.50000 5.579
74.52000 6.661
74.54000 6.458
74.56000 6.689
74.58000 8.093
74.60000 6.913
74.62000 6.750
74.64000 2.210
74.66000 2.094
74.68000 4.636
74.70000 9.746
74.72000 7.489
74.74000 6.381
74.76000 7.706
74.78000 7.064
74.80000 9.776
74.82000 8.074
74.84000 5.376
74.86000 4.218
74.88000 4.772
74.90000 2.696
74.92000 3.522
74.94000 5.472
74.96000 6.206
74.98000 4.348
75.00000 6.112
75.02000 6.434
75.04000 5.171
75.06000 6.510
75.08000 2.680
75.10000 4.322
75.12000 5.156
75.14000 6.140
75.16000 7.575
75.18000 8.603
75.20000 5.773
75.22000 4.832
75.24000 5.521
75.26000 6.712
75.28000 7.430
75.30000 1.875
75.32000 -1.992
75.34000 2.624
75.36000 3.576
75.38000 3.587
75.40000 7.499
75.42000 8.194
75.44000 4.505
75.46000 5.437
75.48000 6.671
75.50000 5.173
75.52000 1.701
75.54000 6.344
75.56000 8.532
75.58000 5.091
75.60000 6.662
75.62000 4.099
75.64000 -0.358
75.66000 1.759
75.68000 4.021
75.70000 2.399
75.72000 6.161
75.74000 5.292
75.76000 1.188
75.78000 4.851
75.80000 5.902
75.82000 1.998
75.84000 2.230
75.86000 2.184
75.88000 1.635
75.90000 3.199
75.92000 5.662
75.94000 3.570
75.96000 2.490
75.98000 6.673
76.00000 6.229
76.02000 4.261
76.04000 1.771
76.06000 2.403
76.08000 4.193
76.10000 1.261
76.12000 0.026
76.14000 0.512
76.16000 3.010
76.18000 5.754
76.20000 2.826
76.22000 2.696
76.24000 1.935
76.26000 4.575
76.28000 6.522
76.30000 5.560
76.32000 1.216
76.34000 -1.368
76.36000 0.773
76.38000 2.132
76.40000 0.690
76.42000 0.845
76.44000 0.383
76.46000 2.172
76.48000 4.177
76.50000 -1.045
76.52000 -1.723
76.54000 0.855
76.56000 1.746
76.58000 3.657
76.60000 0.964
76.62000 0.899
76.64000 -0.074
76.66000 2.938
76.68000 4.019
76.70000 1.435
76.72000 2.093
76.74000 -0.203
76.76000 0.427
76.78000 2.900
76.80000 1.793
76.82000 5.633
76.84000 6.560
76.86000 7.087
76.88000 5.874
76.90000 2.869
76.92000 3.594
76.94000 4.041
76.96000 3.675
76.98000 1.859
77.00000 0.849
77.02000 -1.341
77.04000 0.519
77.06000 4.331
77.08000 0.823
77.10000 1.364
77.12000 0.276
77.14000 2.902
77.16000 2.741
77.18000 1.314
77.20000 3.645
77.22000 2.047
77.24000 -2.090
77.26000 -1.277
77.28000 0.163
77.30000 3.115
77.32000 5.588
77.34000 4.027
77.36000 2.266
77.38000 3.670
77.40000 0.297
77.42000 2.621
77.44000 2.478
77.46000 2.985
77.48000 0.835
77.50000 -2.104
77.52000 0.831
77.54000 3.547
77.56000 6.076
77.58000 1.868
77.60000 -1.874
77.62000 -1.237
77.64000 -0.086
77.66000 3.278
77.68000 3.608
77.70000 5.265
77.72000 4.161
77.74000 3.308
77.76000 3.295
77.78000 0.278
77.80000 -0.741
77.82000 2.040
77.84000 1.819
77.86000 4.110
77.88000 1.653
77.90000 0.318
77.92000 4.713
77.94000 6.090
77.96000 1.276
77.98000 -2.122
78.00000 1.084
78.02000 3.648
78.04000 2.995
78.06000 0.668
78.08000 0.116
78.10000 2.362
78.12000 4.708
78.14000 1.152
78.16000 1.652
78.18000 4.046
78.20000 1.116
78.22000 2.756
78.24000 3.206
78.26000 3.414
78.28000 2.771
78.30000 2.339
78.32000 2.727
78.34000 -0.080
78.36000 3.941
78.38000 6.833
78.40000 6.914
78.42000 3.901
78.44000 0.424
78.46000 0.415
78.48000 1.817
78.50000 1.822
78.52000 1.333
78.54000 3.003
78.56000 7.423
78.58000 7.637
78.60000 4.541
78.62000 3.154
78.64000 4.990
78.66000 1.002
78.68000 2.000
78.70000 1.076
78.72000 4.022
78.74000 2.214
78.76000 0.592
78.78000 -2.133
78.80000 -1.760
78.82000 4.739
78.84000 2.441
78.86000 3.484
78.88000 6.321
78.90000 3.842
78.92000 1.619
78.94000 2.891
78.96000 4.206
78.98000 4.447
79.00000 6.944
79.02000 5.688
79.04000 5.376
79.06000 1.720
79.08000 -0.344
79.10000 -0.386
79.12000 -0.241
79.14000 1.336
79.16000 0.317
79.18000 6.122
79.20000 -1.376
79.22000 -2.180
79.24000 -1.358
79.26000 2.417
79.28000 3.053
79.30000 3.282
79.32000 3.463
79.34000 1.344
79.36000 2.703
79.38000 0.265
79.40000 -1.171
79.42000 1.799
79.44000 1.819
79.46000 1.481
79.48000 -1.733
79.50000 -1.903
79.52000 -1.783
79.54000 -0.235
79.56000 2.590
79.58000 3.673
79.60000 5.866
79.62000 4.051
79.64000 0.974
79.66000 -1.252
79.68000 -2.229
79.70000 -1.749
79.72000 2.512
79.74000 1.477
79.76000 2.287
79.78000 -0.047
79.80000 0.688
79.82000 0.477
79.84000 2.548
79.86000 4.170
79.88000 3.553
79.90000 2.850
79.92000 3.095
79.94000 4.715
79.96000 2.814
79.98000 2.595
80.00000 2.631
80.02000 4.227
80.04000 6.440
80.06000 3.573
80.08000 -0.924
80.10000 -0.245
80.12000 0.880
80.14000 1.085
80.16000 3.628
80.18000 -0.235
80.20000 -2.287
80.22000 1.883
80.24000 0.480
80.26000 -0.329
80.28000 3.717
80.30000 -0.110
80.32000 1.666
80.34000 3.682
80.36000 3.225
80.38000 2.641
80.40000 5.593
80.42000 3.996
80.44000 3.921
80.46000 5.687
80.48000 4.489
80.50000 4.063
80.52000 4.848
80.54000 7.275
80.56000 4.196
80.58000 2.011
80.60000 3.622
80.62000 4.736
80.64000 4.459
80.66000 6.616
80.68000 8.012
80.70000 4.214
80.72000 2.414
80.74000 5.221
80.76000 8.766
80.78000 13.194
80.80000 9.561
80.82000 7.556
80.84000 9.753
80.86000 9.066
80.88000 11.457
80.90000 14.100
80.92000 16.179
80.94000 18.560
80.96000 15.086
80.98000 14.724
81.00000 11.650
81.02000 16.271
81.04000 16.068
81.06000 11.254
81.08000 21.114
81.10000 17.372
81.12000 16.291
81.14000 15.430
81.16000 19.527
81.18000 19.621
81.20000 24.920
81.22000 22.046
81.24000 20.794
81.26000 20.701
81.28000 21.701
81.30000 24.740
81.32000 25.693
81.34000 23.637
81.36000 22.323
81.38000 27.208
81.40000 33.435
81.42000 29.094
81.44000 26.449
81.46000 26.297
81.48000 24.663
81.50000 26.480
81.52000 29.032
81.54000 27.690
81.56000 30.404
81.58000 31.139
81.60000 34.005
81.62000 32.580
81.64000 27.315
81.66000 27.929
81.68000 30.056
81.70000 33.438
81.72000 34.106
81.74000 28.869
81.76000 31.783
81.78000 30.817
81.80000 28.854
81.82000 34.346
81.84000 31.516
81.86000 33.166
81.88000 34.986
81.90000 28.786
81.92000 29.965
81.94000 28.805
81.96000 29.169
81.98000 28.114
82.00000 27.494
82.02000 28.733
82.04000 28.437
82.06000 27.182
82.08000 25.436
82.10000 27.306
82.12000 26.603
82.14000 25.421
82.16000 21.845
82.18000 24.548
82.20000 25.411
82.22000 19.525
82.24000 17.563
82.26000 18.239
82.28000 18.338
82.30000 17.076
82.32000 12.509
82.34000 13.347
82.36000 10.537
82.38000 10.156
82.40000 17.575
82.42000 17.126
82.44000 13.296
82.46000 13.208
82.48000 11.684
82.50000 10.697
82.52000 10.137
82.54000 6.218
82.56000 9.677
82.58000 10.206
82.60000 8.773
82.62000 7.475
82.64000 6.920
82.66000 5.497
82.68000 1.256
82.70000 -1.050
82.72000 1.565
82.74000 3.494
82.76000 4.259
82.78000 4.433
82.80000 4.423
82.82000 5.856
82.84000 2.909
82.86000 1.485
82.88000 1.229
82.90000 -1.382
82.92000 0.413
82.94000 3.515
82.96000 5.534
82.98000 7.312
83.00000 5.398
83.02000 2.432
83.04000 1.998
83.06000 -1.624
83.08000 -2.323
83.10000 2.845
83.12000 0.839
83.14000 -1.855
83.16000 0.236
83.18000 7.411
83.20000 2.835
83.22000 2.746
83.24000 2.171
83.26000 -1.043
83.28000 0.013
83.30000 0.203
83.32000 -0.151
83.34000 1.209
83.36000 2.560
83.38000 -1.087
83.40000 -1.581
83.42000 -2.127
83.44000 -0.457
83.46000 1.074
83.48000 0.644
83.50000 3.492
83.52000 0.796
83.54000 -1.126
83.56000 4.329
83.58000 5.075
83.60000 3.398
83.62000 0.767
83.64000 2.260
83.66000 0.646
83.68000 -0.041
83.70000 2.813
83.72000 3.747
83.74000 3.315
83.76000 6.480
83.78000 2.216
83.80000 -1.212
83.82000 -1.274
83.84000 -2.236
83.86000 1.684
83.88000 1.948
83.90000 4.978
83.92000 3.710
83.94000 -1.703
83.96000 1.570
83.98000 3.188
84.00000 5.539
84.02000 5.682
84.04000 3.303
84.06000 2.529
84.08000 4.106
84.10000 4.680
84.12000 3.728
84.14000 2.760
84.16000 2.621
84.18000 3.763
84.20000 1.076
84.22000 2.760
84.24000 2.316
84.26000 0.166
84.28000 1.721
84.30000 2.730
84.32000 1.330
84.34000 2.243
84.36000 4.085
84.38000 0.933
84.40000 4.640
84.42000 5.726
84.44000 4.826
84.46000 4.404
84.48000 3.701
84.50000 0.427
84.52000 1.515
84.54000 5.382
84.56000 4.386
84.58000 3.148
84.60000 3.652
84.62000 4.838
84.64000 5.349
84.66000 7.639
84.68000 8.975
84.70000 9.155
84.72000 9.407
84.74000 10.828
84.76000 6.728
84.78000 5.691
84.80000 10.654
84.82000 11.807
84.84000 10.780
84.86000 10.413
84.88000 9.929
84.90000 8.920
84.92000 8.941
84.94000 13.664
84.96000 16.547
84.98000 18.870
85.00000 14.771
85.02000 12.592
85.04000 18.214
85.06000 15.252
85.08000 17.932
85.10000 22.074
85.12000 20.653
85.14000 16.244
85.16000 24.288
85.18000 22.104
85.20000 19.445
85.22000 20.669
85.24000 21.285
85.26000 21.713
85.28000 19.673
85.30000 24.375
85.32000 26.829
85.34000 30.573
85.36000 29.637
85.38000 26.575
85.40000 24.528
85.42000 30.228
85.44000 31.654
85.46000 31.167
85.48000 28.862
85.50000 29.157
85.52000 26.663
85.54000 26.468
85.56000 29.616
85.58000 29.340
85.60000 29.057
85.62000 30.562
85.64000 35.190
85.66000 33.365
85.68000 33.233
85.70000 32.491
85.72000 34.131
85.74000 34.001
85.76000 34.133
85.78000 34.435
85.80000 31.993
85.82000 25.546
85.84000 24.294
85.86000 27.723
85.88000 29.053
85.90000 26.926
85.92000 26.467
85.94000 26.360
85.96000 28.685
85.98000 31.573
86.00000 28.367
86.02000 30.170
86.04000 28.185
86.06000 26.833
86.08000 26.235
86.10000 22.666
86.12000 24.035
86.14000 22.970
86.16000 21.088
86.18000 20.796
86.20000 21.632
86.22000 19.999
86.24000 22.017
86.26000 21.618
86.28000 19.641
86.30000 17.105
86.32000 15.417
86.34000 11.884
86.36000 10.591
86.38000 10.675
86.40000 11.436
86.42000 11.403
86.44000 10.168
86.46000 7.651
86.48000 8.598
86.50000 8.274
86.52000 10.463
86.54000 6.216
86.56000 4.159
86.58000 6.067
86.60000 7.525
86.62000 8.502
86.64000 6.570
86.66000 5.153
86.68000 5.734
86.70000 6.927
86.72000 8.921
86.74000 7.492
86.76000 3.601
86.78000 3.597
86.80000 5.267
86.82000 2.967
86.84000 1.258
86.86000 2.766
86.88000 7.395
86.90000 8.354
86.92000 6.481
86.94000 0.643
86.96000 -1.020
86.98000 2.643
87.00000 0.733
87.02000 1.314
87.04000 2.222
87.06000 5.004
87.08000 2.129
87.10000 4.634
87.12000 1.819
87.14000 -2.121
87.16000 -1.217
87.18000 2.330
87.20000 0.993
87.22000 1.713
87.24000 3.208
87.26000 0.941
87.28000 -0.143
87.30000 0.362
87.32000 4.386
87.34000 2.571
87.36000 -1.002
87.38000 -2.076
87.40000 -0.370
87.42000 0.761
87.44000 3.555
87.46000 3.993
87.48000 2.530
87.50000 3.034
87.52000 -0.338
87.54000 -0.663
87.56000 -0.402
87.58000 2.462
87.60000 4.893
87.62000 1.926
87.64000 0.216
87.66000 2.884
87.68000 1.297
87.70000 0.595
87.72000 0.734
87.74000 1.056
87.76000 3.315
87.78000 0.833
87.80000 1.206
87.82000 3.977
87.84000 3.274
87.86000 2.942
87.88000 3.398
87.90000 2.039
87.92000 -2.002
87.94000 -1.506
87.96000 5.566
87.98000 3.966
88.00000 2.431
88.02000 3.958
88.04000 3.285
88.06000 2.526
88.08000 0.418
88.10000 3.041
88.12000 5.605
88.14000 2.526
88.16000 0.012
88.18000 1.838
88.20000 2.620
88.22000 1.035
88.24000 3.318
88.26000 4.971
88.28000 2.885
88.30000 2.272
88.32000 1.156
88.34000 0.197
88.36000 1.731
88.38000 1.976
88.40000 4.595
88.42000 1.871
88.44000 -1.368
88.46000 0.241
88.48000 0.104
88.50000 1.762
88.52000 2.888
88.54000 1.614
88.56000 0.754
88.58000 3.129
88.60000 0.551
88.62000 -1.961
88.64000 -1.011
88.66000 2.601
88.68000 3.545
88.70000 6.569
88.72000 6.250
88.74000 0.598
88.76000 0.375
88.78000 -0.832
88.80000 2.814
88.82000 6.761
88.84000 4.770
88.86000 -0.143
88.88000 3.493
88.90000 6.376
88.92000 6.847
88.94000 3.593
88.96000 -1.553
88.98000 0.435
89.00000 2.635
89.02000 3.710
89.04000 4.964
89.06000 3.405
89.08000 5.024
89.10000 5.162
89.12000 4.854
89.14000 2.037
89.16000 1.713
89.18000 -0.519
89.20000 2.387
89.22000 2.403
89.24000 -1.981
89.26000 -1.724
89.28000 0.215
89.30000 0.595
89.32000 4.606
89.34000 3.665
89.36000 2.465
89.38000 3.794
89.40000 1.057
89.42000 4.307
89.44000 3.531
89.46000 0.445
89.48000 -0.619
89.50000 -0.019
89.52000 2.990
89.54000 0.673
89.56000 0.631
89.58000 1.098
89.60000 3.437
89.62000 0.009
89.64000 -0.367
89.66000 1.443
89.68000 0.119
89.70000 1.644
89.72000 3.553
89.74000 2.098
89.76000 -1.984
89.78000 1.386
89.80000 0.640
89.82000 -0.825
89.84000 0.901
89.86000 2.676
89.88000 2.049
89.90000 3.533
89.92000 0.312
89.94000 -1.987
89.96000 -1.209
89.98000 0.177
90.00000 0.726
90.02000 1.128
90.04000 0.520
90.06000 -0.707
90.08000 2.623
90.10000 2.793
90.12000 1.882
90.14000 1.027
90.16000 1.961
90.18000 2.088
90.20000 4.422
90.22000 9.513
90.24000 4.867
90.26000 4.078
90.28000 0.388
90.30000 1.191
90.32000 1.354
90.34000 2.040
90.36000 2.824
90.38000 1.635
90.40000 3.641
90.42000 6.646
90.44000 1.280
90.46000 0.592
90.48000 -1.850
90.50000 -1.610
90.52000 2.505
90.54000 4.822
90.56000 4.045
90.58000 2.911
90.60000 1.098
90.62000 4.660
90.64000 0.124
90.66000 -0.300
90.68000 -0.090
90.70000 2.352
90.72000 0.704
90.74000 1.642
90.76000 1.906
90.78000 3.785
90.80000 6.396
90.82000 1.504
90.84000 0.520
90.86000 0.750
90.88000 3.494
90.90000 3.695
90.92000 2.951
90.94000 3.633
90.96000 3.625
90.98000 6.814
91.00000 4.884
91.02000 -1.086
91.04000 -1.952
91.06000 3.317
91.08000 3.118
91.10000 4.282
91.12000 4.761
91.14000 3.844
91.16000 0.933
91.18000 1.816
91.20000 6.249
91.22000 10.345
91.24000 3.559
91.26000 1.988
91.28000 2.975
91.30000 3.823
91.32000 4.388
91.34000 6.063
91.36000 0.345
91.38000 1.670
91.40000 3.915
91.42000 0.659
91.44000 -1.840
91.46000 -0.127
91.48000 2.773
91.50000 7.361
91.52000 7.419
91.54000 9.507
91.56000 6.984
91.58000 2.784
91.60000 -1.942
91.62000 2.663
91.64000 3.441
91.66000 2.387
91.68000 2.105
91.70000 3.127
91.72000 10.325
91.74000 3.008
91.76000 3.756
91.78000 6.250
91.80000 6.050
91.82000 3.224
91.84000 1.911
91.86000 4.408
91.88000 6.633
91.90000 4.856
91.92000 3.643
91.94000 3.982
91.96000 2.899
91.98000 2.710
92.00000 1.372
92.02000 -0.334
92.04000 -1.784
92.06000 0.722
92.08000 5.121
92.10000 4.492
92.12000 3.441
92.14000 0.544
92.16000 0.030
92.18000 0.360
92.20000 1.335
92.22000 6.557
92.24000 4.484
92.26000 1.657
92.28000 1.073
92.30000 1.373
92.32000 1.892
92.34000 4.301
92.36000 3.104
92.38000 -1.391
92.40000 4.055
92.42000 1.632
92.44000 1.013
92.46000 7.342
92.48000 9.360
92.50000 3.598
92.52000 2.836
92.54000 3.106
92.56000 0.665
92.58000 -1.595
92.60000 -0.422
92.62000 2.838
92.64000 2.458
92.66000 1.929
92.68000 4.359
92.70000 4.107
92.72000 2.638
92.74000 0.578
92.76000 4.476
92.78000 1.517
92.80000 2.407
92.82000 1.021
92.84000 2.337
92.86000 4.336
92.88000 1.520
92.90000 1.911
92.92000 6.804
92.94000 6.797
92.96000 9.298
92.98000 3.048
93.00000 3.501
93.02000 3.202
93.04000 4.473
93.06000 8.255
93.08000 8.755
93.10000 3.243
93.12000 -1.933
93.14000 0.364
93.16000 5.234
93.18000 5.465
93.20000 4.203
93.22000 5.668
93.24000 5.419
93.26000 4.699
93.28000 6.758
93.30000 9.206
93.32000 9.791
93.34000 6.293
93.36000 3.505
93.38000 2.061
93.40000 0.625
93.42000 5.712
93.44000 8.909
93.46000 5.882
93.48000 3.798
93.50000 2.965
93.52000 2.728
93.54000 2.147
93.56000 4.140
93.58000 1.738
93.60000 2.368
93.62000 6.775
93.64000 6.214
93.66000 6.733
93.68000 2.762
93.70000 1.593
93.72000 -1.949
93.74000 -0.394
93.76000 0.764
93.78000 4.059
93.80000 2.188
93.82000 0.088
93.84000 1.294
93.86000 -0.933
93.88000 4.758
93.90000 5.768
93.92000 4.923
93.94000 8.734
93.96000 8.687
93.98000 9.530
94.00000 8.996
94.02000 4.408
94.04000 4.532
94.06000 6.292
94.08000 2.956
94.10000 5.137
94.12000 5.533
94.14000 4.002
94.16000 0.540
94.18000 -1.968
94.20000 1.701
94.22000 5.441
94.24000 0.443
94.26000 0.266
94.28000 5.947
94.30000 6.759
94.32000 3.116
94.34000 6.494
94.36000 4.646
94.38000 2.793
94.40000 3.357
94.42000 4.241
94.44000 2.280
94.46000 5.743
94.48000 5.969
94.50000 3.303
94.52000 -0.106
94.54000 1.090
94.56000 4.367
94.58000 7.850
94.60000 3.797
94.62000 0.086
94.64000 2.049
94.66000 0.186
94.68000 1.494
94.70000 5.122
94.72000 2.740
94.74000 0.939
94.76000 1.951
94.78000 3.284
94.80000 3.424
94.82000 1.905
94.84000 6.122
94.86000 9.468
94.88000 7.304
94.90000 3.520
94.92000 0.072
94.94000 -1.166
94.96000 1.295
94.98000 0.973
95.00000 1.039
95.02000 1.227
95.04000 3.831
95.06000 2.615
95.08000 2.756
95.10000 4.084
95.12000 0.736
95.14000 8.197
95.16000 8.846
95.18000 4.742
95.20000 5.312
95.22000 4.458
95.24000 3.578
95.26000 2.056
95.28000 0.745
95.30000 1.835
95.32000 4.042
95.34000 3.877
95.36000 0.111
95.38000 1.928
95.40000 2.496
95.42000 0.402
95.44000 1.971
95.46000 3.212
95.48000 6.258
95.50000 5.894
95.52000 2.109
95.54000 6.574
95.56000 6.924
95.58000 4.948
95.60000 4.018
95.62000 5.281
95.64000 7.790
95.66000 4.326
95.68000 7.828
95.70000 3.613
95.72000 4.678
95.74000 6.167
95.76000 6.071
95.78000 0.934
95.80000 -1.951
95.82000 2.881
95.84000 6.027
95.86000 5.023
95.88000 -0.031
95.90000 3.307
95.92000 4.374
95.94000 0.855
95.96000 4.016
95.98000 7.205
96.00000 2.186
96.02000 5.106
96.04000 1.955
96.06000 2.574
96.08000 7.955
96.10000 2.435
96.12000 -1.958
96.14000 1.787
96.16000 4.807
96.18000 2.206
96.20000 5.332
96.22000 4.140
96.24000 2.007
96.26000 0.212
96.28000 4.155
96.30000 7.813
96.32000 5.617
96.34000 -1.419
96.36000 0.899
96.38000 4.223
96.40000 4.685
96.42000 6.816
96.44000 5.848
96.46000 5.851
96.48000 5.064
96.50000 5.392
96.52000 4.047
96.54000 5.516
96.56000 2.246
96.58000 5.925
96.60000 4.115
96.62000 1.185
96.64000 4.254
96.66000 4.885
96.68000 4.600
96.70000 9.265
96.72000 9.350
96.74000 8.090
96.76000 5.865
96.78000 5.178
96.80000 2.875
96.82000 2.479
96.84000 4.650
96.86000 4.893
96.88000 6.494
96.90000 0.933
96.92000 -0.093
96.94000 2.692
96.96000 4.569
96.98000 3.854
97.00000 0.582
97.02000 1.727
97.04000 5.280
97.06000 3.071
97.08000 1.015
97.10000 0.367
97.12000 1.340
97.14000 4.462
97.16000 4.413
97.18000 5.322
97.20000 8.229
97.22000 4.048
97.24000 4.790
97.26000 7.135
97.28000 3.518
97.30000 9.456
97.32000 9.057
97.34000 5.063
97.36000 4.954
97.38000 8.942
97.40000 2.322
97.42000 1.992
97.44000 1.143
97.46000 1.671
97.48000 -0.063
97.50000 -1.990
97.52000 -0.726
97.54000 2.732
97.56000 1.751
97.58000 3.142
97.60000 0.672
97.62000 1.545
97.64000 -1.768
97.66000 1.730
97.68000 5.162
97.70000 7.807
97.72000 2.696
97.74000 5.319
97.76000 8.319
97.78000 10.192
97.80000 4.029
97.82000 2.086
97.84000 2.851
97.86000 0.185
97.88000 2.339
97.90000 3.064
97.92000 6.569
97.94000 4.027
97.96000 1.439
97.98000 0.743
98.00000 0.557
98.02000 -1.070
98.04000 4.382
98.06000 1.425
98.08000 0.466
98.10000 0.989
98.12000 1.401
98.14000 3.455
98.16000 4.348
98.18000 3.814
98.20000 1.012
98.22000 2.689
98.24000 7.253
98.26000 8.781
98.28000 6.389
98.30000 6.352
98.32000 -1.942
98.34000 2.770
98.36000 6.303
98.38000 7.805
98.40000 4.974
98.42000 5.071
98.44000 5.008
98.46000 6.302
98.48000 3.145
98.50000 0.610
98.52000 8.250
98.54000 4.267
98.56000 0.558
98.58000 -1.920
98.60000 1.658
98.62000 3.348
98.64000 2.311
98.66000 7.837
98.68000 4.267
98.70000 3.769
98.72000 5.606
98.74000 6.040
98.76000 3.418
98.78000 5.125
98.80000 1.193
98.82000 9.607
98.84000 3.527
98.86000 0.187
98.88000 6.503
98.90000 3.777
98.92000 3.727
98.94000 10.767
98.96000 9.288
98.98000 4.735
99.00000 3.913
99.02000 4.771
99.04000 5.525
99.06000 -4.073
99.08000 4.665
99.10000 5.604
99.12000 2.469
99.14000 1.939
99.16000 -1.087
99.18000 6.174
99.20000 5.302
99.22000 4.233
99.24000 -1.089
99.26000 4.152
99.28000 6.990
99.30000 4.996
99.32000 2.141
99.34000 3.359
99.36000 3.804
99.38000 2.513
99.40000 2.917
99.42000 1.442
99.44000 2.259
99.46000 -1.348
99.48000 5.155
99.50000 4.783
99.52000 1.161
99.54000 2.651
99.56000 6.646
99.58000 1.785
99.60000 -1.123
99.62000 4.243
99.64000 4.695
99.66000 3.497
99.68000 4.925
99.70000 7.637
99.72000 9.310
99.74000 5.504
99.76000 9.048
99.78000 14.327
99.80000 6.389
99.82000 4.059
99.84000 6.873
99.86000 1.528
99.88000 -2.176
99.90000 8.558
99.92000 4.204
99.94000 9.430
99.96000 13.340
99.98000 0.000
