'Id: "0011389" Comment: "Integrate frame 0011389_Au-Ir-Rh_Au-Rich_XRD_Mapping-048-0000.gfrmwith cursor Wedge Cursor #5" Operator: "B?rgel" Anode: "Cu" Wavelength: "1.5406" Scantype: "2Theta (TwoTheta)" TimePerStep: "1" X: "4.5" Y: "-27" Z: "5.95" 
10.00000 0.000
10.02000 -4.213
10.04000 1.485
10.06000 7.670
10.08000 0.166
10.10000 -1.227
10.12000 2.551
10.14000 10.199
10.16000 -2.552
10.18000 -4.150
10.20000 5.189
10.22000 12.296
10.24000 -4.133
10.26000 4.491
10.28000 10.140
10.30000 5.417
10.32000 22.573
10.34000 20.134
10.36000 22.438
10.38000 16.618
10.40000 12.194
10.42000 16.570
10.44000 21.373
10.46000 23.438
10.48000 25.239
10.50000 20.875
10.52000 9.634
10.54000 14.289
10.56000 6.277
10.58000 17.152
10.60000 5.842
10.62000 2.653
10.64000 9.579
10.66000 12.879
10.68000 4.895
10.70000 19.613
10.72000 24.395
10.74000 15.183
10.76000 12.798
10.78000 15.076
10.80000 22.190
10.82000 19.103
10.84000 19.592
10.86000 24.601
10.88000 28.854
10.90000 18.999
10.92000 21.158
10.94000 16.032
10.96000 8.322
10.98000 3.547
11.00000 7.397
11.02000 -4.214
11.04000 8.496
11.06000 8.078
11.08000 16.049
11.10000 32.602
11.12000 18.814
11.14000 7.392
11.16000 22.363
11.18000 22.434
11.20000 23.692
11.22000 16.735
11.24000 17.015
11.26000 10.754
11.28000 5.045
11.30000 10.476
11.32000 13.828
11.34000 21.825
11.36000 25.594
11.38000 32.122
11.40000 33.847
11.42000 20.277
11.44000 16.892
11.46000 27.052
11.48000 17.041
11.50000 15.503
11.52000 18.992
11.54000 4.556
11.56000 13.314
11.58000 9.130
11.60000 23.250
11.62000 25.116
11.64000 17.087
11.66000 11.922
11.68000 5.838
11.70000 18.491
11.72000 31.038
11.74000 15.889
11.76000 10.758
11.78000 6.138
11.80000 3.949
11.82000 12.975
11.84000 17.865
11.86000 21.938
11.88000 24.831
11.90000 26.031
11.92000 24.904
11.94000 14.701
11.96000 19.923
11.98000 16.102
12.00000 21.160
12.02000 7.773
12.04000 5.264
12.06000 14.836
12.08000 10.038
12.10000 12.002
12.12000 21.210
12.14000 21.926
12.16000 18.798
12.18000 11.891
12.20000 10.479
12.22000 9.976
12.24000 16.106
12.26000 8.607
12.28000 12.575
12.30000 4.469
12.32000 5.010
12.34000 5.522
12.36000 10.670
12.38000 8.728
12.40000 11.076
12.42000 11.811
12.44000 19.310
12.46000 17.381
12.48000 19.991
12.50000 18.198
12.52000 16.566
12.54000 18.312
12.56000 14.615
12.58000 10.050
12.60000 17.860
12.62000 16.535
12.64000 12.230
12.66000 13.178
12.68000 18.149
12.70000 27.961
12.72000 22.678
12.74000 21.719
12.76000 16.083
12.78000 14.241
12.80000 22.194
12.82000 15.500
12.84000 16.834
12.86000 18.185
12.88000 18.253
12.90000 11.844
12.92000 10.368
12.94000 26.424
12.96000 27.706
12.98000 17.715
13.00000 15.745
13.02000 14.475
13.04000 10.225
13.06000 17.307
13.08000 11.936
13.10000 17.158
13.12000 23.613
13.14000 12.674
13.16000 21.179
13.18000 20.532
13.20000 21.182
13.22000 31.022
13.24000 17.504
13.26000 11.733
13.28000 6.609
13.30000 8.334
13.32000 12.676
13.34000 15.236
13.36000 20.215
13.38000 18.266
13.40000 15.614
13.42000 8.497
13.44000 7.518
13.46000 14.205
13.48000 27.091
13.50000 19.759
13.52000 12.888
13.54000 14.401
13.56000 10.934
13.58000 11.513
13.60000 12.826
13.62000 16.549
13.64000 9.789
13.66000 7.992
13.68000 6.162
13.70000 12.190
13.72000 7.214
13.74000 7.183
13.76000 15.830
13.78000 8.836
13.80000 8.649
13.82000 7.848
13.84000 7.498
13.86000 15.402
13.88000 15.865
13.90000 9.223
13.92000 14.151
13.94000 11.204
13.96000 6.412
13.98000 13.180
14.00000 11.257
14.02000 17.287
14.04000 15.479
14.06000 12.487
14.08000 16.754
14.10000 8.267
14.12000 3.277
14.14000 14.530
14.16000 17.138
14.18000 4.898
14.20000 13.949
14.22000 24.967
14.24000 23.238
14.26000 18.083
14.28000 12.567
14.30000 12.283
14.32000 16.317
14.34000 10.356
14.36000 12.258
14.38000 8.706
14.40000 9.502
14.42000 17.047
14.44000 16.679
14.46000 12.366
14.48000 11.446
14.50000 16.964
14.52000 18.515
14.54000 15.300
14.56000 19.465
14.58000 18.515
14.60000 23.188
14.62000 20.641
14.64000 23.105
14.66000 26.415
14.68000 18.174
14.70000 20.500
14.72000 24.657
14.74000 22.470
14.76000 17.220
14.78000 8.396
14.80000 10.261
14.82000 20.571
14.84000 3.716
14.86000 9.034
14.88000 14.541
14.90000 16.155
14.92000 19.073
14.94000 8.210
14.96000 1.976
14.98000 5.240
15.00000 0.782
15.02000 5.558
15.04000 9.152
15.06000 18.343
15.08000 13.305
15.10000 8.619
15.12000 10.183
15.14000 2.717
15.16000 9.571
15.18000 14.622
15.20000 10.494
15.22000 10.996
15.24000 18.245
15.26000 20.177
15.28000 12.387
15.30000 4.814
15.32000 10.822
15.34000 10.861
15.36000 9.407
15.38000 24.499
15.40000 28.167
15.42000 12.678
15.44000 13.925
15.46000 6.576
15.48000 14.004
15.50000 12.568
15.52000 11.305
15.54000 15.606
15.56000 11.693
15.58000 6.664
15.60000 20.808
15.62000 20.960
15.64000 11.341
15.66000 10.972
15.68000 16.715
15.70000 6.504
15.72000 17.889
15.74000 16.142
15.76000 7.168
15.78000 11.690
15.80000 16.664
15.82000 14.412
15.84000 17.447
15.86000 20.732
15.88000 22.101
15.90000 8.113
15.92000 12.622
15.94000 7.333
15.96000 3.530
15.98000 8.651
16.00000 12.672
16.02000 10.582
16.04000 8.039
16.06000 9.828
16.08000 12.610
16.10000 14.805
16.12000 10.206
16.14000 11.870
16.16000 16.692
16.18000 14.207
16.20000 10.943
16.22000 16.199
16.24000 11.240
16.26000 6.774
16.28000 12.405
16.30000 18.136
16.32000 15.047
16.34000 10.932
16.36000 14.505
16.38000 20.419
16.40000 17.869
16.42000 13.539
16.44000 8.977
16.46000 13.820
16.48000 21.851
16.50000 21.205
16.52000 25.404
16.54000 28.417
16.56000 16.287
16.58000 15.469
16.60000 13.312
16.62000 12.989
16.64000 15.597
16.66000 14.943
16.68000 9.094
16.70000 -4.271
16.72000 10.623
16.74000 25.439
16.76000 28.814
16.78000 14.881
16.80000 18.079
16.82000 19.272
16.84000 12.549
16.86000 15.022
16.88000 16.555
16.90000 14.351
16.92000 8.174
16.94000 9.326
16.96000 13.938
16.98000 16.303
17.00000 16.266
17.02000 20.337
17.04000 9.501
17.06000 4.521
17.08000 16.704
17.10000 15.367
17.12000 11.181
17.14000 13.633
17.16000 11.721
17.18000 18.138
17.20000 21.191
17.22000 20.522
17.24000 18.674
17.26000 15.616
17.28000 14.888
17.30000 17.943
17.32000 10.959
17.34000 10.220
17.36000 9.589
17.38000 14.974
17.40000 13.241
17.42000 4.716
17.44000 9.680
17.46000 7.988
17.48000 5.600
17.50000 10.647
17.52000 20.422
17.54000 18.119
17.56000 15.319
17.58000 12.668
17.60000 11.106
17.62000 10.776
17.64000 13.325
17.66000 15.742
17.68000 10.560
17.70000 -1.265
17.72000 3.623
17.74000 11.374
17.76000 14.487
17.78000 13.052
17.80000 3.343
17.82000 8.411
17.84000 11.752
17.86000 5.177
17.88000 4.830
17.90000 3.502
17.92000 3.066
17.94000 4.577
17.96000 1.324
17.98000 2.922
18.00000 14.460
18.02000 14.900
18.04000 4.275
18.06000 0.752
18.08000 2.627
18.10000 -1.103
18.12000 2.157
18.14000 8.235
18.16000 6.053
18.18000 0.813
18.20000 7.914
18.22000 12.712
18.24000 13.158
18.26000 10.831
18.28000 14.344
18.30000 12.038
18.32000 15.436
18.34000 10.046
18.36000 7.729
18.38000 9.961
18.40000 13.478
18.42000 13.977
18.44000 8.158
18.46000 7.906
18.48000 8.038
18.50000 4.853
18.52000 5.283
18.54000 3.825
18.56000 7.423
18.58000 2.028
18.60000 -1.066
18.62000 -2.672
18.64000 1.479
18.66000 3.043
18.68000 0.457
18.70000 -2.860
18.72000 4.486
18.74000 0.445
18.76000 0.498
18.78000 2.187
18.80000 7.300
18.82000 5.754
18.84000 7.778
18.86000 11.851
18.88000 13.956
18.90000 5.241
18.92000 0.019
18.94000 0.478
18.96000 -0.519
18.98000 4.137
19.00000 5.164
19.02000 0.906
19.04000 4.956
19.06000 4.593
19.08000 -0.385
19.10000 3.447
19.12000 0.032
19.14000 7.665
19.16000 7.616
19.18000 11.599
19.20000 5.709
19.22000 5.874
19.24000 4.039
19.26000 1.626
19.28000 -2.360
19.30000 -2.080
19.32000 4.514
19.34000 9.962
19.36000 6.987
19.38000 0.790
19.40000 -4.240
19.42000 0.178
19.44000 9.240
19.46000 10.142
19.48000 9.048
19.50000 6.782
19.52000 3.390
19.54000 2.097
19.56000 9.024
19.58000 1.657
19.60000 3.716
19.62000 4.396
19.64000 3.626
19.66000 3.430
19.68000 6.409
19.70000 8.639
19.72000 7.150
19.74000 3.663
19.76000 6.669
19.78000 1.669
19.80000 3.914
19.82000 6.612
19.84000 8.919
19.86000 6.948
19.88000 7.387
19.90000 11.783
19.92000 10.710
19.94000 8.419
19.96000 9.733
19.98000 1.625
20.00000 4.691
20.02000 3.595
20.04000 0.832
20.06000 1.794
20.08000 0.153
20.10000 1.537
20.12000 -0.671
20.14000 4.938
20.16000 14.852
20.18000 10.224
20.20000 3.482
20.22000 10.514
20.24000 8.221
20.26000 9.980
20.28000 12.805
20.30000 11.980
20.32000 5.729
20.34000 -1.883
20.36000 1.210
20.38000 3.445
20.40000 5.125
20.42000 6.311
20.44000 8.331
20.46000 7.725
20.48000 12.383
20.50000 12.643
20.52000 4.268
20.54000 -4.136
20.56000 4.599
20.58000 17.872
20.60000 9.980
20.62000 6.585
20.64000 5.105
20.66000 5.943
20.68000 14.227
20.70000 6.383
20.72000 6.206
20.74000 10.195
20.76000 11.085
20.78000 14.168
20.80000 14.139
20.82000 15.383
20.84000 14.369
20.86000 12.105
20.88000 10.662
20.90000 -0.063
20.92000 -0.203
20.94000 12.821
20.96000 13.133
20.98000 10.331
21.00000 7.303
21.02000 4.544
21.04000 1.065
21.06000 -0.307
21.08000 9.083
21.10000 10.502
21.12000 10.743
21.14000 7.808
21.16000 11.373
21.18000 8.262
21.20000 2.605
21.22000 0.688
21.24000 -2.070
21.26000 4.038
21.28000 5.568
21.30000 0.499
21.32000 0.504
21.34000 2.145
21.36000 1.895
21.38000 1.554
21.40000 6.549
21.42000 7.729
21.44000 12.401
21.46000 7.365
21.48000 8.438
21.50000 10.749
21.52000 6.517
21.54000 2.357
21.56000 6.059
21.58000 2.108
21.60000 3.579
21.62000 2.131
21.64000 1.596
21.66000 1.946
21.68000 2.685
21.70000 2.850
21.72000 8.551
21.74000 7.121
21.76000 -2.503
21.78000 0.088
21.80000 -2.409
21.82000 -0.918
21.84000 3.606
21.86000 1.444
21.88000 -4.119
21.90000 4.055
21.92000 3.186
21.94000 1.099
21.96000 2.828
21.98000 6.318
22.00000 6.357
22.02000 9.539
22.04000 6.916
22.06000 2.839
22.08000 -0.494
22.10000 1.402
22.12000 1.366
22.14000 1.459
22.16000 0.989
22.18000 2.290
22.20000 2.067
22.22000 1.545
22.24000 3.165
22.26000 8.252
22.28000 6.739
22.30000 1.116
22.32000 1.280
22.34000 1.693
22.36000 4.697
22.38000 2.391
22.40000 7.785
22.42000 3.738
22.44000 2.844
22.46000 -0.201
22.48000 2.809
22.50000 1.668
22.52000 1.393
22.54000 2.892
22.56000 -0.518
22.58000 3.086
22.60000 -1.698
22.62000 -0.197
22.64000 -0.177
22.66000 3.688
22.68000 0.843
22.70000 0.633
22.72000 2.186
22.74000 0.078
22.76000 -3.998
22.78000 -2.606
22.80000 2.068
22.82000 5.789
22.84000 2.236
22.86000 2.688
22.88000 2.613
22.90000 0.883
22.92000 2.912
22.94000 -3.828
22.96000 -3.188
22.98000 -1.012
23.00000 0.298
23.02000 -1.040
23.04000 4.527
23.06000 6.360
23.08000 3.169
23.10000 1.373
23.12000 5.834
23.14000 0.126
23.16000 2.063
23.18000 8.780
23.20000 10.376
23.22000 10.284
23.24000 5.447
23.26000 7.180
23.28000 2.373
23.30000 -0.889
23.32000 0.606
23.34000 1.617
23.36000 3.668
23.38000 -0.412
23.40000 5.210
23.42000 4.844
23.44000 3.298
23.46000 3.241
23.48000 2.068
23.50000 -3.795
23.52000 1.679
23.54000 -0.588
23.56000 0.882
23.58000 3.634
23.60000 5.019
23.62000 -0.041
23.64000 4.429
23.66000 9.843
23.68000 10.614
23.70000 9.690
23.72000 10.599
23.74000 3.585
23.76000 -2.965
23.78000 1.077
23.80000 4.026
23.82000 -1.337
23.84000 -0.714
23.86000 4.856
23.88000 -1.798
23.90000 -3.991
23.92000 1.069
23.94000 4.899
23.96000 6.438
23.98000 5.828
24.00000 4.339
24.02000 8.388
24.04000 8.555
24.06000 2.462
24.08000 1.657
24.10000 2.612
24.12000 0.887
24.14000 0.617
24.16000 -0.168
24.18000 -0.444
24.20000 2.963
24.22000 0.069
24.24000 -1.544
24.26000 0.417
24.28000 -0.009
24.30000 2.484
24.32000 2.640
24.34000 2.985
24.36000 6.219
24.38000 6.963
24.40000 2.819
24.42000 1.026
24.44000 -0.106
24.46000 7.102
24.48000 7.145
24.50000 5.796
24.52000 7.627
24.54000 13.408
24.56000 12.202
24.58000 9.518
24.60000 3.607
24.62000 -0.648
24.64000 -0.912
24.66000 -1.096
24.68000 -3.920
24.70000 3.218
24.72000 8.041
24.74000 10.068
24.76000 6.443
24.78000 3.122
24.80000 4.679
24.82000 2.747
24.84000 5.123
24.86000 8.376
24.88000 4.863
24.90000 6.584
24.92000 3.591
24.94000 4.530
24.96000 9.066
24.98000 9.735
25.00000 6.539
25.02000 6.192
25.04000 10.741
25.06000 5.397
25.08000 4.969
25.10000 8.167
25.12000 10.292
25.14000 7.117
25.16000 -1.058
25.18000 -3.912
25.20000 -3.200
25.22000 2.520
25.24000 8.239
25.26000 1.665
25.28000 4.590
25.30000 5.213
25.32000 3.655
25.34000 2.590
25.36000 7.700
25.38000 5.734
25.40000 3.149
25.42000 3.806
25.44000 -0.042
25.46000 -0.906
25.48000 2.274
25.50000 7.168
25.52000 6.776
25.54000 7.788
25.56000 11.583
25.58000 3.603
25.60000 2.405
25.62000 9.331
25.64000 7.261
25.66000 3.455
25.68000 4.092
25.70000 4.921
25.72000 6.809
25.74000 3.675
25.76000 7.637
25.78000 8.453
25.80000 8.610
25.82000 2.211
25.84000 -1.095
25.86000 -3.886
25.88000 2.539
25.90000 2.439
25.92000 -0.382
25.94000 2.826
25.96000 2.893
25.98000 2.969
26.00000 3.723
26.02000 5.772
26.04000 9.923
26.06000 7.553
26.08000 8.201
26.10000 7.476
26.12000 7.676
26.14000 1.813
26.16000 0.324
26.18000 4.323
26.20000 8.540
26.22000 2.226
26.24000 5.177
26.26000 4.876
26.28000 3.641
26.30000 1.882
26.32000 -3.862
26.34000 2.987
26.36000 3.602
26.38000 1.661
26.40000 1.111
26.42000 3.069
26.44000 -0.823
26.46000 1.274
26.48000 7.324
26.50000 8.533
26.52000 7.738
26.54000 2.962
26.56000 4.763
26.58000 0.924
26.60000 1.424
26.62000 2.266
26.64000 -2.702
26.66000 0.192
26.68000 -0.843
26.70000 -0.765
26.72000 1.800
26.74000 1.700
26.76000 2.189
26.78000 1.686
26.80000 4.913
26.82000 4.602
26.84000 3.819
26.86000 0.997
26.88000 -1.647
26.90000 0.294
26.92000 -2.553
26.94000 -0.962
26.96000 0.682
26.98000 3.780
27.00000 2.115
27.02000 0.572
27.04000 -0.518
27.06000 -0.613
27.08000 -0.256
27.10000 -0.476
27.12000 2.668
27.14000 3.261
27.16000 3.932
27.18000 -1.620
27.20000 -3.846
27.22000 1.486
27.24000 -1.244
27.26000 3.107
27.28000 6.333
27.30000 1.158
27.32000 -0.539
27.34000 2.508
27.36000 3.312
27.38000 2.977
27.40000 4.260
27.42000 1.412
27.44000 1.670
27.46000 6.053
27.48000 2.392
27.50000 0.864
27.52000 1.495
27.54000 1.121
27.56000 4.323
27.58000 -3.255
27.60000 -3.051
27.62000 -0.052
27.64000 0.914
27.66000 0.709
27.68000 -0.067
27.70000 -3.205
27.72000 -2.902
27.74000 -1.173
27.76000 -0.894
27.78000 -3.662
27.80000 0.307
27.82000 2.727
27.84000 -1.182
27.86000 0.245
27.88000 -2.179
27.90000 -2.238
27.92000 -1.796
27.94000 -2.907
27.96000 1.830
27.98000 5.668
28.00000 7.699
28.02000 7.243
28.04000 4.699
28.06000 2.258
28.08000 2.655
28.10000 -2.911
28.12000 -3.804
28.14000 0.496
28.16000 8.822
28.18000 5.055
28.20000 8.706
28.22000 0.898
28.24000 -3.796
28.26000 -0.295
28.28000 -2.299
28.30000 -1.076
28.32000 0.726
28.34000 1.137
28.36000 0.262
28.38000 -1.303
28.40000 0.101
28.42000 0.705
28.44000 -0.277
28.46000 -3.786
28.48000 -0.770
28.50000 -1.241
28.52000 -0.265
28.54000 3.395
28.56000 -1.238
28.58000 -1.605
28.60000 -2.256
28.62000 -2.221
28.64000 2.233
28.66000 2.181
28.68000 -0.718
28.70000 -1.672
28.72000 -3.717
28.74000 -0.638
28.76000 2.958
28.78000 -2.117
28.80000 -3.371
28.82000 -0.876
28.84000 -2.970
28.86000 -3.763
28.88000 -0.191
28.90000 2.727
28.92000 -2.044
28.94000 -0.137
28.96000 -2.095
28.98000 2.451
29.00000 3.799
29.02000 0.066
29.04000 -2.799
29.06000 -0.106
29.08000 1.466
29.10000 1.785
29.12000 2.658
29.14000 3.143
29.16000 4.851
29.18000 7.382
29.20000 4.651
29.22000 3.256
29.24000 3.448
29.26000 -3.740
29.28000 -0.192
29.30000 2.428
29.32000 0.701
29.34000 4.102
29.36000 1.907
29.38000 3.105
29.40000 0.618
29.42000 2.350
29.44000 7.719
29.46000 2.400
29.48000 -3.133
29.50000 -1.622
29.52000 -0.002
29.54000 1.128
29.56000 0.289
29.58000 1.986
29.60000 2.799
29.62000 1.943
29.64000 -1.825
29.66000 -0.564
29.68000 -0.796
29.70000 0.536
29.72000 2.490
29.74000 1.028
29.76000 0.484
29.78000 4.916
29.80000 4.032
29.82000 0.788
29.84000 -2.549
29.86000 -0.649
29.88000 -3.521
29.90000 0.099
29.92000 1.928
29.94000 0.544
29.96000 7.337
29.98000 7.821
30.00000 2.496
30.02000 3.237
30.04000 2.624
30.06000 -1.267
30.08000 -2.358
30.10000 -3.712
30.12000 -0.458
30.14000 -3.315
30.16000 1.656
30.18000 0.275
30.20000 3.344
30.22000 4.084
30.24000 1.699
30.26000 1.294
30.28000 -2.299
30.30000 -2.102
30.32000 0.366
30.34000 2.365
30.36000 1.057
30.38000 -3.697
30.40000 2.075
30.42000 2.027
30.44000 1.194
30.46000 5.684
30.48000 5.966
30.50000 1.076
30.52000 3.452
30.54000 2.188
30.56000 -1.960
30.58000 2.288
30.60000 1.801
30.62000 1.310
30.64000 -1.946
30.66000 0.049
30.68000 0.373
30.70000 -1.396
30.72000 -1.344
30.74000 -1.060
30.76000 -3.088
30.78000 0.481
30.80000 -0.906
30.82000 1.055
30.84000 2.965
30.86000 -0.324
30.88000 0.632
30.90000 1.428
30.92000 1.945
30.94000 2.554
30.96000 0.868
30.98000 -3.541
31.00000 -2.779
31.02000 2.711
31.04000 4.206
31.06000 2.262
31.08000 -2.941
31.10000 -1.264
31.12000 -2.875
31.14000 0.689
31.16000 0.235
31.18000 4.127
31.20000 3.741
31.22000 -0.927
31.24000 3.556
31.26000 -2.050
31.28000 -2.463
31.30000 -1.806
31.32000 -3.446
31.34000 1.140
31.36000 1.498
31.38000 0.798
31.40000 3.931
31.42000 2.917
31.44000 5.870
31.46000 0.980
31.48000 -3.643
31.50000 -0.657
31.52000 1.068
31.54000 2.457
31.56000 -2.488
31.58000 1.383
31.60000 2.726
31.62000 -1.720
31.64000 -0.884
31.66000 3.215
31.68000 2.559
31.70000 3.951
31.72000 3.810
31.74000 9.495
31.76000 7.829
31.78000 2.204
31.80000 -0.867
31.82000 -2.097
31.84000 2.881
31.86000 -2.478
31.88000 -3.328
31.90000 0.220
31.92000 2.419
31.94000 2.019
31.96000 0.488
31.98000 1.775
32.00000 0.509
32.02000 4.844
32.04000 2.547
32.06000 5.581
32.08000 6.007
32.10000 2.888
32.12000 -1.932
32.14000 -1.690
32.16000 0.052
32.18000 -2.255
32.20000 -2.874
32.22000 1.749
32.24000 -0.952
32.26000 -0.503
32.28000 -1.489
32.30000 -1.970
32.32000 -1.399
32.34000 1.914
32.36000 3.691
32.38000 1.659
32.40000 -3.603
32.42000 -1.582
32.44000 1.746
32.46000 4.467
32.48000 -0.676
32.50000 2.276
32.52000 1.292
32.54000 0.288
32.56000 2.714
32.58000 4.356
32.60000 0.648
32.62000 1.938
32.64000 4.851
32.66000 5.494
32.68000 0.729
32.70000 0.934
32.72000 -0.409
32.74000 -3.594
32.76000 -1.971
32.78000 4.265
32.80000 2.985
32.82000 1.756
32.84000 0.810
32.86000 -3.253
32.88000 2.726
32.90000 4.189
32.92000 3.554
32.94000 2.612
32.96000 7.411
32.98000 2.738
33.00000 0.677
33.02000 1.090
33.04000 0.442
33.06000 0.289
33.08000 0.754
33.10000 -0.967
33.12000 -1.899
33.14000 7.104
33.16000 5.329
33.18000 3.764
33.20000 -0.451
33.22000 -2.658
33.24000 0.772
33.26000 3.828
33.28000 4.612
33.30000 11.036
33.32000 8.970
33.34000 1.464
33.36000 5.143
33.38000 4.705
33.40000 4.700
33.42000 5.018
33.44000 5.175
33.46000 -1.092
33.48000 -3.562
33.50000 3.995
33.52000 5.001
33.54000 5.291
33.56000 7.713
33.58000 11.947
33.60000 8.961
33.62000 8.780
33.64000 3.569
33.66000 5.167
33.68000 -0.588
33.70000 -2.201
33.72000 5.254
33.74000 5.359
33.76000 2.996
33.78000 4.075
33.80000 4.265
33.82000 5.350
33.84000 2.666
33.86000 1.850
33.88000 1.740
33.90000 6.493
33.92000 11.951
33.94000 8.019
33.96000 3.174
33.98000 3.207
34.00000 7.973
34.02000 5.682
34.04000 4.226
34.06000 4.616
34.08000 6.173
34.10000 8.806
34.12000 5.332
34.14000 1.353
34.16000 1.662
34.18000 6.348
34.20000 6.870
34.22000 3.227
34.24000 3.442
34.26000 2.136
34.28000 4.007
34.30000 5.257
34.32000 4.063
34.34000 5.101
34.36000 4.750
34.38000 5.984
34.40000 6.574
34.42000 7.505
34.44000 10.643
34.46000 9.585
34.48000 6.579
34.50000 3.141
34.52000 3.032
34.54000 -3.543
34.56000 -2.737
34.58000 2.200
34.60000 6.507
34.62000 7.750
34.64000 5.726
34.66000 6.074
34.68000 1.140
34.70000 -0.085
34.72000 4.249
34.74000 2.122
34.76000 5.835
34.78000 1.617
34.80000 3.476
34.82000 5.641
34.84000 3.096
34.86000 -0.487
34.88000 2.187
34.90000 6.712
34.92000 4.015
34.94000 2.209
34.96000 4.134
34.98000 0.442
35.00000 0.747
35.02000 3.824
35.04000 3.023
35.06000 -0.353
35.08000 -2.874
35.10000 -2.317
35.12000 2.605
35.14000 1.078
35.16000 0.075
35.18000 6.997
35.20000 5.429
35.22000 3.291
35.24000 0.138
35.26000 0.585
35.28000 2.642
35.30000 -0.023
35.32000 1.567
35.34000 -0.012
35.36000 0.959
35.38000 1.571
35.40000 0.026
35.42000 3.448
35.44000 1.661
35.46000 5.696
35.48000 3.049
35.50000 0.819
35.52000 3.255
35.54000 1.140
35.56000 1.208
35.58000 1.896
35.60000 -2.701
35.62000 -2.686
35.64000 6.617
35.66000 11.876
35.68000 6.514
35.70000 6.103
35.72000 12.137
35.74000 10.699
35.76000 3.974
35.78000 3.923
35.80000 4.839
35.82000 3.247
35.84000 -0.802
35.86000 -3.517
35.88000 0.687
35.90000 5.136
35.92000 3.880
35.94000 -1.576
35.96000 1.225
35.98000 -3.515
36.00000 1.086
36.02000 5.103
36.04000 10.893
36.06000 8.167
36.08000 5.246
36.10000 2.120
36.12000 -0.623
36.14000 -3.157
36.16000 -0.383
36.18000 2.916
36.20000 5.405
36.22000 4.494
36.24000 1.244
36.26000 -1.073
36.28000 -0.931
36.30000 5.088
36.32000 3.558
36.34000 3.396
36.36000 1.779
36.38000 1.370
36.40000 3.137
36.42000 2.079
36.44000 3.294
36.46000 2.240
36.48000 1.227
36.50000 1.748
36.52000 0.582
36.54000 -1.510
36.56000 8.516
36.58000 6.660
36.60000 -1.375
36.62000 2.047
36.64000 1.389
36.66000 -1.032
36.68000 -1.961
36.70000 -0.844
36.72000 0.070
36.74000 1.614
36.76000 2.162
36.78000 0.835
36.80000 2.790
36.82000 1.097
36.84000 2.192
36.86000 4.678
36.88000 3.399
36.90000 -0.468
36.92000 1.190
36.94000 -0.013
36.96000 -1.077
36.98000 -1.029
37.00000 -0.832
37.02000 0.602
37.04000 3.658
37.06000 4.076
37.08000 2.299
37.10000 3.491
37.12000 0.199
37.14000 -0.050
37.16000 2.363
37.18000 1.905
37.20000 -2.541
37.22000 -3.345
37.24000 4.516
37.26000 1.711
37.28000 3.395
37.30000 -2.793
37.32000 -2.607
37.34000 2.696
37.36000 2.300
37.38000 0.817
37.40000 3.672
37.42000 8.873
37.44000 4.016
37.46000 6.360
37.48000 10.235
37.50000 7.587
37.52000 4.326
37.54000 9.109
37.56000 8.533
37.58000 8.925
37.60000 5.327
37.62000 4.679
37.64000 5.387
37.66000 6.890
37.68000 9.722
37.70000 8.949
37.72000 4.856
37.74000 10.294
37.76000 11.987
37.78000 10.831
37.80000 9.896
37.82000 7.899
37.84000 12.277
37.86000 11.822
37.88000 14.243
37.90000 15.336
37.92000 14.623
37.94000 16.471
37.96000 16.426
37.98000 12.586
38.00000 17.250
38.02000 22.528
38.04000 20.228
38.06000 17.691
38.08000 16.688
38.10000 17.826
38.12000 19.357
38.14000 18.151
38.16000 21.690
38.18000 15.398
38.20000 18.641
38.22000 19.968
38.24000 19.874
38.26000 23.496
38.28000 26.435
38.30000 27.629
38.32000 27.662
38.34000 30.031
38.36000 28.260
38.38000 33.601
38.40000 35.016
38.42000 33.040
38.44000 35.218
38.46000 35.335
38.48000 37.554
38.50000 41.092
38.52000 39.299
38.54000 41.764
38.56000 44.707
38.58000 48.661
38.60000 51.712
38.62000 50.110
38.64000 55.440
38.66000 55.144
38.68000 56.342
38.70000 59.636
38.72000 64.217
38.74000 68.849
38.76000 70.749
38.78000 71.204
38.80000 74.460
38.82000 82.884
38.84000 86.136
38.86000 89.981
38.88000 90.760
38.90000 94.118
38.92000 100.174
38.94000 102.637
38.96000 107.148
38.98000 111.765
39.00000 119.954
39.02000 123.813
39.04000 124.121
39.06000 133.275
39.08000 144.080
39.10000 151.952
39.12000 155.037
39.14000 167.375
39.16000 181.469
39.18000 186.431
39.20000 199.242
39.22000 211.371
39.24000 226.369
39.26000 233.422
39.28000 260.222
39.30000 269.197
39.32000 288.980
39.34000 303.886
39.36000 316.154
39.38000 338.521
39.40000 362.775
39.42000 380.678
39.44000 398.594
39.46000 420.674
39.48000 446.669
39.50000 460.773
39.52000 481.479
39.54000 511.415
39.56000 530.086
39.58000 545.295
39.60000 578.937
39.62000 605.189
39.64000 618.696
39.66000 625.193
39.68000 642.959
39.70000 667.382
39.72000 680.171
39.74000 697.725
39.76000 714.272
39.78000 712.562
39.80000 720.885
39.82000 715.824
39.84000 712.823
39.86000 716.619
39.88000 715.053
39.90000 702.586
39.92000 688.526
39.94000 674.485
39.96000 659.767
39.98000 642.153
40.00000 628.115
40.02000 602.300
40.04000 587.083
40.06000 573.902
40.08000 550.689
40.10000 522.193
40.12000 504.512
40.14000 483.026
40.16000 461.889
40.18000 432.287
40.20000 408.268
40.22000 385.865
40.24000 370.298
40.26000 347.700
40.28000 319.015
40.30000 303.468
40.32000 286.454
40.34000 267.508
40.36000 252.797
40.38000 239.828
40.40000 219.955
40.42000 201.236
40.44000 195.358
40.46000 189.484
40.48000 180.503
40.50000 161.601
40.52000 144.313
40.54000 132.912
40.56000 126.136
40.58000 124.240
40.60000 115.746
40.62000 100.686
40.64000 98.328
40.66000 93.986
40.68000 88.420
40.70000 85.105
40.72000 76.946
40.74000 71.316
40.76000 73.403
40.78000 64.345
40.80000 61.679
40.82000 65.758
40.84000 58.419
40.86000 52.791
40.88000 47.557
40.90000 44.889
40.92000 42.743
40.94000 39.908
40.96000 36.204
40.98000 38.516
41.00000 44.112
41.02000 39.573
41.04000 34.812
41.06000 31.826
41.08000 29.440
41.10000 30.581
41.12000 25.623
41.14000 22.428
41.16000 24.370
41.18000 25.844
41.20000 21.521
41.22000 16.847
41.24000 17.514
41.26000 17.883
41.28000 18.926
41.30000 17.452
41.32000 17.595
41.34000 21.008
41.36000 18.391
41.38000 17.790
41.40000 13.290
41.42000 12.683
41.44000 13.562
41.46000 14.670
41.48000 12.853
41.50000 9.596
41.52000 10.609
41.54000 12.106
41.56000 12.591
41.58000 10.892
41.60000 10.461
41.62000 8.026
41.64000 5.139
41.66000 7.406
41.68000 6.459
41.70000 7.350
41.72000 8.246
41.74000 8.449
41.76000 5.623
41.78000 4.253
41.80000 5.225
41.82000 5.031
41.84000 7.486
41.86000 7.158
41.88000 5.230
41.90000 3.074
41.92000 2.430
41.94000 4.699
41.96000 6.276
41.98000 -0.400
42.00000 1.453
42.02000 -0.420
42.04000 -1.132
42.06000 0.122
42.08000 0.697
42.10000 2.083
42.12000 0.376
42.14000 -3.398
42.16000 -1.752
42.18000 3.110
42.20000 1.732
42.22000 -1.172
42.24000 -2.733
42.26000 -1.562
42.28000 1.521
42.30000 3.176
42.32000 2.139
42.34000 2.169
42.36000 2.018
42.38000 4.550
42.40000 5.359
42.42000 1.333
42.44000 -3.356
42.46000 0.358
42.48000 1.167
42.50000 2.564
42.52000 1.503
42.54000 -1.987
42.56000 -0.187
42.58000 2.836
42.60000 2.847
42.62000 1.887
42.64000 -1.073
42.66000 -3.202
42.68000 -0.109
42.70000 -2.412
42.72000 -1.188
42.74000 -1.652
42.76000 -0.926
42.78000 -0.182
42.80000 -0.407
42.82000 -2.839
42.84000 -1.719
42.86000 -0.186
42.88000 0.062
42.90000 -3.001
42.92000 -2.601
42.94000 2.681
42.96000 0.712
42.98000 -0.880
43.00000 2.385
43.02000 2.389
43.04000 0.594
43.06000 -3.278
43.08000 -2.049
43.10000 0.755
43.12000 3.845
43.14000 -0.316
43.16000 -1.524
43.18000 -3.029
43.20000 0.044
43.22000 0.413
43.24000 2.859
43.26000 6.176
43.28000 0.145
43.30000 -1.051
43.32000 0.685
43.34000 -1.474
43.36000 -0.574
43.38000 0.544
43.40000 -0.052
43.42000 -1.731
43.44000 -2.515
43.46000 0.198
43.48000 0.040
43.50000 0.085
43.52000 -0.690
43.54000 2.141
43.56000 0.649
43.58000 0.995
43.60000 1.179
43.62000 2.166
43.64000 0.086
43.66000 0.583
43.68000 3.935
43.70000 6.833
43.72000 5.006
43.74000 3.517
43.76000 -3.176
43.78000 -1.651
43.80000 1.794
43.82000 4.494
43.84000 3.186
43.86000 -0.328
43.88000 0.916
43.90000 0.171
43.92000 2.216
43.94000 -0.333
43.96000 -0.979
43.98000 -0.717
44.00000 0.759
44.02000 -0.789
44.04000 -2.686
44.06000 -3.175
44.08000 -0.626
44.10000 2.432
44.12000 4.476
44.14000 1.597
44.16000 5.564
44.18000 7.366
44.20000 4.002
44.22000 4.030
44.24000 2.041
44.26000 1.614
44.28000 0.846
44.30000 -1.015
44.32000 3.608
44.34000 3.307
44.36000 1.205
44.38000 0.421
44.40000 0.637
44.42000 -1.444
44.44000 1.417
44.46000 2.875
44.48000 2.978
44.50000 -0.754
44.52000 0.053
44.54000 1.596
44.56000 -1.949
44.58000 -0.794
44.60000 3.226
44.62000 2.975
44.64000 2.272
44.66000 2.096
44.68000 1.926
44.70000 3.737
44.72000 0.899
44.74000 2.225
44.76000 1.777
44.78000 -3.059
44.80000 -3.162
44.82000 -2.346
44.84000 4.852
44.86000 3.895
44.88000 2.385
44.90000 3.392
44.92000 1.682
44.94000 0.668
44.96000 0.862
44.98000 3.922
45.00000 6.209
45.02000 6.020
45.04000 5.203
45.06000 1.638
45.08000 5.172
45.10000 4.578
45.12000 2.589
45.14000 2.345
45.16000 1.756
45.18000 4.854
45.20000 1.674
45.22000 2.106
45.24000 6.922
45.26000 5.920
45.28000 6.958
45.30000 8.865
45.32000 7.033
45.34000 2.592
45.36000 8.727
45.38000 14.704
45.40000 14.193
45.42000 9.540
45.44000 9.521
45.46000 8.742
45.48000 11.915
45.50000 12.645
45.52000 9.794
45.54000 9.940
45.56000 15.092
45.58000 19.274
45.60000 18.358
45.62000 16.002
45.64000 16.310
45.66000 15.688
45.68000 19.706
45.70000 21.856
45.72000 24.178
45.74000 24.154
45.76000 22.737
45.78000 26.337
45.80000 31.166
45.82000 30.610
45.84000 26.653
45.86000 29.869
45.88000 37.452
45.90000 36.695
45.92000 34.288
45.94000 34.928
45.96000 35.116
45.98000 37.525
46.00000 45.018
46.02000 47.544
46.04000 47.117
46.06000 43.451
46.08000 42.727
46.10000 46.973
46.12000 53.078
46.14000 51.675
46.16000 54.270
46.18000 55.932
46.20000 60.340
46.22000 60.925
46.24000 61.756
46.26000 60.567
46.28000 60.401
46.30000 59.010
46.32000 61.103
46.34000 66.293
46.36000 73.194
46.38000 70.525
46.40000 65.746
46.42000 66.954
46.44000 70.095
46.46000 74.335
46.48000 75.700
46.50000 75.909
46.52000 70.848
46.54000 71.721
46.56000 70.580
46.58000 72.110
46.60000 72.144
46.62000 63.279
46.64000 67.661
46.66000 67.359
46.68000 67.146
46.70000 69.239
46.72000 67.046
46.74000 67.332
46.76000 67.857
46.78000 63.819
46.80000 58.236
46.82000 55.368
46.84000 58.991
46.86000 61.223
46.88000 55.344
46.90000 55.689
46.92000 54.714
46.94000 51.864
46.96000 49.203
46.98000 43.960
47.00000 40.990
47.02000 33.710
47.04000 30.991
47.06000 33.525
47.08000 34.860
47.10000 34.836
47.12000 31.669
47.14000 27.987
47.16000 27.893
47.18000 24.202
47.20000 22.896
47.22000 26.274
47.24000 18.243
47.26000 18.980
47.28000 19.805
47.30000 18.174
47.32000 13.170
47.34000 14.756
47.36000 13.322
47.38000 12.906
47.40000 16.185
47.42000 14.198
47.44000 15.213
47.46000 12.271
47.48000 11.684
47.50000 13.083
47.52000 7.709
47.54000 9.598
47.56000 6.675
47.58000 4.901
47.60000 6.280
47.62000 8.295
47.64000 8.939
47.66000 3.065
47.68000 6.945
47.70000 3.519
47.72000 5.904
47.74000 4.746
47.76000 6.700
47.78000 4.401
47.80000 2.295
47.82000 0.490
47.84000 0.048
47.86000 -1.171
47.88000 2.359
47.90000 -2.081
47.92000 -2.855
47.94000 2.242
47.96000 2.438
47.98000 -0.353
48.00000 0.920
48.02000 3.651
48.04000 2.352
48.06000 -0.740
48.08000 3.419
48.10000 2.561
48.12000 3.181
48.14000 1.834
48.16000 2.222
48.18000 0.120
48.20000 -1.356
48.22000 0.012
48.24000 0.501
48.26000 1.488
48.28000 3.698
48.30000 5.832
48.32000 0.443
48.34000 3.751
48.36000 3.284
48.38000 2.770
48.40000 3.682
48.42000 4.561
48.44000 4.010
48.46000 4.301
48.48000 3.027
48.50000 0.641
48.52000 -2.391
48.54000 -0.295
48.56000 -0.990
48.58000 0.717
48.60000 2.004
48.62000 -0.543
48.64000 -2.690
48.66000 3.315
48.68000 -0.126
48.70000 -1.599
48.72000 -1.462
48.74000 4.032
48.76000 1.846
48.78000 3.275
48.80000 3.769
48.82000 0.619
48.84000 5.404
48.86000 8.444
48.88000 5.580
48.90000 2.755
48.92000 0.088
48.94000 -0.457
48.96000 2.600
48.98000 6.370
49.00000 9.686
49.02000 4.073
49.04000 0.896
49.06000 7.300
49.08000 13.877
49.10000 10.961
49.12000 3.264
49.14000 -2.087
49.16000 -2.657
49.18000 0.828
49.20000 2.729
49.22000 3.413
49.24000 2.340
49.26000 -2.083
49.28000 -0.640
49.30000 2.400
49.32000 3.407
49.34000 2.953
49.36000 5.782
49.38000 4.118
49.40000 4.557
49.42000 3.541
49.44000 1.732
49.46000 3.234
49.48000 1.395
49.50000 -0.589
49.52000 3.105
49.54000 2.365
49.56000 5.046
49.58000 7.535
49.60000 3.159
49.62000 1.632
49.64000 2.602
49.66000 7.141
49.68000 4.141
49.70000 6.012
49.72000 2.289
49.74000 1.870
49.76000 -1.205
49.78000 1.968
49.80000 5.461
49.82000 8.237
49.84000 8.551
49.86000 6.011
49.88000 6.918
49.90000 7.186
49.92000 5.731
49.94000 1.483
49.96000 5.023
49.98000 9.444
50.00000 7.596
50.02000 5.897
50.04000 3.818
50.06000 8.007
50.08000 3.363
50.10000 1.036
50.12000 1.275
50.14000 2.970
50.16000 3.654
50.18000 3.016
50.20000 3.923
50.22000 1.914
50.24000 3.264
50.26000 4.691
50.28000 6.404
50.30000 10.183
50.32000 8.164
50.34000 3.831
50.36000 -2.554
50.38000 0.334
50.40000 4.071
50.42000 7.001
50.44000 4.918
50.46000 10.661
50.48000 4.442
50.50000 -0.133
50.52000 1.976
50.54000 4.706
50.56000 6.540
50.58000 3.679
50.60000 3.945
50.62000 6.145
50.64000 8.286
50.66000 7.746
50.68000 1.728
50.70000 4.276
50.72000 2.170
50.74000 1.664
50.76000 5.050
50.78000 4.256
50.80000 5.640
50.82000 6.207
50.84000 1.915
50.86000 2.122
50.88000 3.850
50.90000 -1.179
50.92000 1.143
50.94000 2.108
50.96000 3.180
50.98000 4.008
51.00000 6.956
51.02000 4.943
51.04000 3.843
51.06000 4.898
51.08000 5.631
51.10000 4.430
51.12000 2.668
51.14000 3.110
51.16000 1.549
51.18000 -0.054
51.20000 4.278
51.22000 5.502
51.24000 2.557
51.26000 4.738
51.28000 5.359
51.30000 6.523
51.32000 1.473
51.34000 1.360
51.36000 2.080
51.38000 3.434
51.40000 3.335
51.42000 -0.320
51.44000 0.330
51.46000 4.653
51.48000 4.492
51.50000 -0.431
51.52000 3.142
51.54000 3.845
51.56000 3.413
51.58000 3.802
51.60000 2.167
51.62000 2.096
51.64000 0.546
51.66000 1.984
51.68000 5.078
51.70000 1.524
51.72000 -2.550
51.74000 -2.263
51.76000 0.009
51.78000 -0.414
51.80000 1.825
51.82000 6.642
51.84000 4.979
51.86000 2.970
51.88000 1.315
51.90000 1.205
51.92000 2.880
51.94000 1.455
51.96000 3.846
51.98000 6.231
52.00000 3.553
52.02000 -0.353
52.04000 2.410
52.06000 5.149
52.08000 5.771
52.10000 4.520
52.12000 6.780
52.14000 5.782
52.16000 5.539
52.18000 5.159
52.20000 3.583
52.22000 2.594
52.24000 1.335
52.26000 2.068
52.28000 1.225
52.30000 3.148
52.32000 4.088
52.34000 6.370
52.36000 4.245
52.38000 1.540
52.40000 3.925
52.42000 0.362
52.44000 -0.745
52.46000 0.400
52.48000 2.347
52.50000 0.842
52.52000 4.258
52.54000 5.383
52.56000 1.192
52.58000 2.459
52.60000 4.061
52.62000 3.795
52.64000 1.819
52.66000 3.957
52.68000 3.483
52.70000 0.746
52.72000 -2.514
52.74000 2.729
52.76000 7.513
52.78000 3.372
52.80000 0.521
52.82000 0.168
52.84000 0.178
52.86000 1.269
52.88000 5.305
52.90000 2.564
52.92000 1.472
52.94000 3.180
52.96000 3.247
52.98000 0.653
53.00000 0.877
53.02000 2.658
53.04000 3.042
53.06000 0.588
53.08000 2.430
53.10000 6.066
53.12000 4.488
53.14000 1.368
53.16000 4.825
53.18000 1.413
53.20000 4.189
53.22000 4.132
53.24000 6.349
53.26000 3.497
53.28000 1.597
53.30000 -0.552
53.32000 0.128
53.34000 2.962
53.36000 4.004
53.38000 2.324
53.40000 3.678
53.42000 2.750
53.44000 1.077
53.46000 2.249
53.48000 4.892
53.50000 4.475
53.52000 3.013
53.54000 2.701
53.56000 0.058
53.58000 -1.203
53.60000 -2.522
53.62000 -1.316
53.64000 -0.432
53.66000 -0.099
53.68000 0.090
53.70000 1.830
53.72000 -1.012
53.74000 -2.367
53.76000 -2.114
53.78000 3.633
53.80000 4.022
53.82000 2.886
53.84000 2.075
53.86000 1.127
53.88000 6.021
53.90000 4.748
53.92000 0.094
53.94000 2.361
53.96000 0.841
53.98000 0.767
54.00000 2.952
54.02000 -1.431
54.04000 -0.544
54.06000 -1.967
54.08000 -2.018
54.10000 -1.247
54.12000 -0.920
54.14000 0.404
54.16000 -0.319
54.18000 -2.506
54.20000 1.869
54.22000 4.796
54.24000 1.898
54.26000 3.658
54.28000 0.913
54.30000 0.512
54.32000 2.190
54.34000 0.272
54.36000 2.985
54.38000 2.060
54.40000 -0.162
54.42000 -2.068
54.44000 -0.473
54.46000 -0.326
54.48000 -2.496
54.50000 -1.603
54.52000 0.781
54.54000 2.250
54.56000 1.350
54.58000 3.732
54.60000 7.238
54.62000 8.341
54.64000 3.646
54.66000 0.991
54.68000 1.849
54.70000 0.587
54.72000 -1.499
54.74000 1.937
54.76000 0.400
54.78000 4.398
54.80000 5.014
54.82000 1.959
54.84000 1.877
54.86000 1.404
54.88000 3.179
54.90000 -2.255
54.92000 0.385
54.94000 5.418
54.96000 3.602
54.98000 4.170
55.00000 4.365
55.02000 0.729
55.04000 -1.350
55.06000 1.098
55.08000 8.939
55.10000 3.289
55.12000 -2.008
55.14000 1.597
55.16000 3.056
55.18000 1.178
55.20000 0.944
55.22000 0.988
55.24000 1.779
55.26000 -1.418
55.28000 -0.418
55.30000 1.542
55.32000 0.521
55.34000 -0.938
55.36000 0.158
55.38000 0.517
55.40000 -0.945
55.42000 -0.418
55.44000 0.145
55.46000 -2.481
55.48000 0.479
55.50000 3.772
55.52000 3.240
55.54000 0.390
55.56000 -1.995
55.58000 3.772
55.60000 2.344
55.62000 2.581
55.64000 1.255
55.66000 4.701
55.68000 4.948
55.70000 3.747
55.72000 0.337
55.74000 0.314
55.76000 0.606
55.78000 -0.844
55.80000 -0.205
55.82000 2.393
55.84000 2.439
55.86000 0.983
55.88000 4.206
55.90000 3.761
55.92000 -0.145
55.94000 -1.683
55.96000 2.991
55.98000 6.398
56.00000 3.991
56.02000 1.424
56.04000 -1.882
56.06000 2.351
56.08000 4.147
56.10000 2.802
56.12000 0.800
56.14000 0.867
56.16000 3.038
56.18000 1.477
56.20000 3.207
56.22000 3.100
56.24000 1.590
56.26000 2.219
56.28000 -1.189
56.30000 5.923
56.32000 4.394
56.34000 4.061
56.36000 1.634
56.38000 1.776
56.40000 2.985
56.42000 1.917
56.44000 2.642
56.46000 3.276
56.48000 2.772
56.50000 -0.110
56.52000 -2.416
56.54000 4.763
56.56000 5.812
56.58000 3.354
56.60000 2.838
56.62000 0.883
56.64000 3.326
56.66000 3.789
56.68000 1.837
56.70000 4.632
56.72000 1.349
56.74000 0.388
56.76000 -1.722
56.78000 -1.902
56.80000 0.891
56.82000 1.639
56.84000 4.776
56.86000 5.073
56.88000 5.019
56.90000 5.829
56.92000 4.263
56.94000 4.284
56.96000 1.314
56.98000 -1.172
57.00000 3.064
57.02000 2.764
57.04000 1.597
57.06000 5.043
57.08000 7.253
57.10000 1.709
57.12000 2.443
57.14000 3.534
57.16000 5.578
57.18000 5.661
57.20000 6.447
57.22000 4.228
57.24000 2.130
57.26000 2.044
57.28000 -1.227
57.30000 -1.660
57.32000 -2.388
57.34000 1.025
57.36000 4.138
57.38000 -1.007
57.40000 -0.059
57.42000 2.746
57.44000 1.163
57.46000 0.234
57.48000 0.794
57.50000 1.185
57.52000 4.421
57.54000 7.279
57.56000 6.426
57.58000 2.968
57.60000 0.698
57.62000 3.585
57.64000 3.787
57.66000 2.186
57.68000 0.954
57.70000 3.498
57.72000 1.197
57.74000 2.615
57.76000 2.547
57.78000 3.237
57.80000 4.165
57.82000 2.180
57.84000 4.363
57.86000 7.585
57.88000 5.488
57.90000 4.890
57.92000 2.934
57.94000 -2.365
57.96000 -0.595
57.98000 4.949
58.00000 3.796
58.02000 3.252
58.04000 4.842
58.06000 1.633
58.08000 4.605
58.10000 3.689
58.12000 4.524
58.14000 2.374
58.16000 -0.998
58.18000 1.428
58.20000 4.268
58.22000 1.502
58.24000 2.610
58.26000 4.625
58.28000 6.089
58.30000 2.396
58.32000 0.871
58.34000 0.231
58.36000 1.650
58.38000 0.565
58.40000 1.525
58.42000 5.879
58.44000 4.169
58.46000 3.732
58.48000 2.534
58.50000 0.300
58.52000 1.284
58.54000 4.464
58.56000 3.358
58.58000 3.285
58.60000 4.874
58.62000 5.608
58.64000 2.842
58.66000 -0.843
58.68000 0.287
58.70000 5.661
58.72000 4.245
58.74000 4.968
58.76000 1.960
58.78000 1.375
58.80000 1.646
58.82000 2.770
58.84000 4.939
58.86000 3.554
58.88000 3.165
58.90000 4.990
58.92000 4.437
58.94000 4.301
58.96000 1.113
58.98000 0.633
59.00000 1.574
59.02000 2.505
59.04000 -0.528
59.06000 -2.332
59.08000 2.149
59.10000 2.379
59.12000 3.274
59.14000 5.330
59.16000 1.854
59.18000 3.683
59.20000 8.595
59.22000 5.344
59.24000 0.949
59.26000 1.423
59.28000 3.196
59.30000 3.101
59.32000 2.272
59.34000 3.888
59.36000 1.520
59.38000 0.632
59.40000 2.382
59.42000 2.822
59.44000 4.378
59.46000 4.227
59.48000 3.733
59.50000 5.772
59.52000 1.613
59.54000 5.437
59.56000 8.571
59.58000 6.380
59.60000 1.323
59.62000 1.641
59.64000 2.300
59.66000 -1.816
59.68000 -1.187
59.70000 1.042
59.72000 2.625
59.74000 2.624
59.76000 1.001
59.78000 3.133
59.80000 2.422
59.82000 0.856
59.84000 3.369
59.86000 5.074
59.88000 5.940
59.90000 1.725
59.92000 2.481
59.94000 3.151
59.96000 2.527
59.98000 1.435
60.00000 2.474
60.02000 -0.119
60.04000 -0.049
60.06000 1.536
60.08000 2.583
60.10000 3.653
60.12000 1.958
60.14000 4.375
60.16000 4.936
60.18000 2.350
60.20000 3.413
60.22000 4.475
60.24000 4.242
60.26000 5.949
60.28000 2.655
60.30000 2.610
60.32000 0.322
60.34000 2.286
60.36000 1.507
60.38000 -0.720
60.40000 2.988
60.42000 1.251
60.44000 3.599
60.46000 2.399
60.48000 -2.284
60.50000 -1.298
60.52000 3.505
60.54000 2.529
60.56000 1.405
60.58000 1.128
60.60000 1.958
60.62000 1.057
60.64000 0.450
60.66000 1.474
60.68000 2.754
60.70000 1.002
60.72000 3.120
60.74000 4.991
60.76000 2.173
60.78000 3.659
60.80000 5.853
60.82000 7.188
60.84000 4.393
60.86000 2.244
60.88000 4.001
60.90000 3.443
60.92000 1.239
60.94000 4.250
60.96000 4.046
60.98000 4.094
61.00000 2.693
61.02000 2.503
61.04000 4.696
61.06000 3.799
61.08000 1.475
61.10000 0.158
61.12000 5.624
61.14000 7.103
61.16000 0.562
61.18000 0.998
61.20000 1.923
61.22000 0.591
61.24000 2.212
61.26000 2.181
61.28000 4.111
61.30000 3.948
61.32000 7.488
61.34000 2.925
61.36000 4.716
61.38000 1.903
61.40000 -0.690
61.42000 0.113
61.44000 2.500
61.46000 3.713
61.48000 3.501
61.50000 -0.887
61.52000 -2.250
61.54000 -1.364
61.56000 -1.352
61.58000 -0.515
61.60000 2.296
61.62000 2.616
61.64000 3.604
61.66000 2.985
61.68000 1.185
61.70000 0.392
61.72000 1.841
61.74000 1.929
61.76000 1.250
61.78000 3.902
61.80000 2.201
61.82000 2.871
61.84000 2.683
61.86000 3.613
61.88000 3.294
61.90000 1.052
61.92000 0.972
61.94000 4.238
61.96000 6.661
61.98000 5.286
62.00000 3.915
62.02000 4.729
62.04000 6.876
62.06000 5.760
62.08000 4.398
62.10000 3.325
62.12000 2.647
62.14000 3.019
62.16000 0.808
62.18000 1.278
62.20000 0.977
62.22000 1.238
62.24000 0.220
62.26000 1.707
62.28000 0.439
62.30000 3.530
62.32000 5.108
62.34000 2.272
62.36000 3.065
62.38000 1.267
62.40000 4.159
62.42000 7.146
62.44000 7.620
62.46000 3.929
62.48000 2.568
62.50000 2.100
62.52000 2.035
62.54000 2.672
62.56000 1.872
62.58000 1.186
62.60000 1.312
62.62000 1.768
62.64000 2.307
62.66000 -2.239
62.68000 -0.228
62.70000 2.733
62.72000 3.953
62.74000 1.751
62.76000 1.641
62.78000 1.293
62.80000 1.422
62.82000 1.295
62.84000 1.659
62.86000 1.671
62.88000 2.482
62.90000 3.045
62.92000 2.740
62.94000 2.297
62.96000 3.518
62.98000 3.479
63.00000 5.037
63.02000 5.223
63.04000 4.453
63.06000 -1.080
63.08000 -2.236
63.10000 -1.721
63.12000 -1.132
63.14000 1.749
63.16000 2.329
63.18000 1.190
63.20000 5.331
63.22000 1.480
63.24000 1.427
63.26000 1.600
63.28000 4.215
63.30000 3.717
63.32000 3.480
63.34000 3.416
63.36000 2.530
63.38000 4.385
63.40000 4.567
63.42000 4.992
63.44000 7.518
63.46000 4.557
63.48000 2.068
63.50000 -0.673
63.52000 -0.984
63.54000 -2.223
63.56000 -1.413
63.58000 1.678
63.60000 1.526
63.62000 2.428
63.64000 4.098
63.66000 5.018
63.68000 1.921
63.70000 0.631
63.72000 2.267
63.74000 0.618
63.76000 -0.999
63.78000 1.032
63.80000 3.083
63.82000 2.371
63.84000 3.806
63.86000 1.119
63.88000 2.465
63.90000 2.504
63.92000 3.780
63.94000 2.869
63.96000 2.088
63.98000 3.959
64.00000 3.110
64.02000 1.166
64.04000 3.066
64.06000 2.436
64.08000 6.966
64.10000 1.785
64.12000 -1.126
64.14000 2.798
64.16000 2.965
64.18000 1.429
64.20000 3.793
64.22000 3.848
64.24000 1.901
64.26000 -1.356
64.28000 -0.867
64.30000 1.886
64.32000 -0.324
64.34000 -0.609
64.36000 0.684
64.38000 0.927
64.40000 1.632
64.42000 2.125
64.44000 2.656
64.46000 3.653
64.48000 1.020
64.50000 1.696
64.52000 -1.860
64.54000 1.408
64.56000 2.927
64.58000 -0.846
64.60000 1.040
64.62000 2.018
64.64000 1.225
64.66000 3.541
64.68000 3.405
64.70000 1.869
64.72000 5.818
64.74000 0.944
64.76000 1.405
64.78000 1.808
64.80000 0.605
64.82000 1.593
64.84000 2.580
64.86000 2.520
64.88000 -1.151
64.90000 0.872
64.92000 -0.736
64.94000 -0.048
64.96000 2.130
64.98000 4.724
65.00000 3.525
65.02000 -1.086
65.04000 0.214
65.06000 1.768
65.08000 0.486
65.10000 0.531
65.12000 2.071
65.14000 1.224
65.16000 0.831
65.18000 3.244
65.20000 2.953
65.22000 3.938
65.24000 4.596
65.26000 2.803
65.28000 2.801
65.30000 1.700
65.32000 1.132
65.34000 3.082
65.36000 1.979
65.38000 2.515
65.40000 3.340
65.42000 3.367
65.44000 5.141
65.46000 3.776
65.48000 2.935
65.50000 4.376
65.52000 3.698
65.54000 1.118
65.56000 2.680
65.58000 4.920
65.60000 2.940
65.62000 3.002
65.64000 5.425
65.66000 4.491
65.68000 2.983
65.70000 -0.166
65.72000 -2.186
65.74000 0.260
65.76000 1.766
65.78000 3.974
65.80000 4.856
65.82000 5.622
65.84000 2.710
65.86000 0.383
65.88000 2.451
65.90000 3.144
65.92000 3.652
65.94000 3.217
65.96000 3.835
65.98000 3.719
66.00000 5.653
66.02000 4.286
66.04000 2.654
66.06000 -1.637
66.08000 -0.080
66.10000 3.336
66.12000 6.371
66.14000 3.720
66.16000 2.244
66.18000 1.739
66.20000 1.754
66.22000 2.983
66.24000 3.212
66.26000 4.761
66.28000 5.523
66.30000 3.016
66.32000 2.110
66.34000 1.035
66.36000 0.878
66.38000 1.384
66.40000 2.232
66.42000 0.771
66.44000 -0.310
66.46000 1.595
66.48000 1.315
66.50000 0.018
66.52000 1.715
66.54000 1.981
66.56000 3.497
66.58000 2.577
66.60000 2.569
66.62000 1.733
66.64000 2.177
66.66000 3.568
66.68000 1.834
66.70000 0.532
66.72000 2.288
66.74000 4.661
66.76000 5.217
66.78000 4.012
66.80000 4.217
66.82000 2.802
66.84000 4.503
66.86000 5.757
66.88000 6.124
66.90000 3.172
66.92000 3.318
66.94000 4.128
66.96000 2.588
66.98000 0.611
67.00000 3.436
67.02000 3.354
67.04000 4.562
67.06000 4.788
67.08000 4.049
67.10000 4.803
67.12000 3.407
67.14000 3.831
67.16000 5.538
67.18000 7.680
67.20000 8.641
67.22000 12.505
67.24000 11.772
67.26000 12.417
67.28000 11.454
67.30000 10.717
67.32000 6.443
67.34000 8.785
67.36000 10.399
67.38000 10.334
67.40000 10.414
67.42000 9.377
67.44000 8.669
67.46000 8.842
67.48000 8.830
67.50000 9.673
67.52000 8.435
67.54000 10.524
67.56000 12.261
67.58000 12.910
67.60000 13.179
67.62000 15.524
67.64000 16.867
67.66000 14.420
67.68000 14.916
67.70000 14.802
67.72000 15.203
67.74000 12.074
67.76000 16.076
67.78000 15.871
67.80000 14.651
67.82000 12.774
67.84000 13.257
67.86000 14.498
67.88000 18.227
67.90000 17.266
67.92000 13.964
67.94000 13.713
67.96000 13.397
67.98000 14.151
68.00000 13.479
68.02000 13.522
68.04000 14.147
68.06000 10.317
68.08000 10.109
68.10000 9.225
68.12000 8.575
68.14000 10.126
68.16000 8.315
68.18000 11.127
68.20000 8.997
68.22000 5.430
68.24000 7.900
68.26000 7.241
68.28000 7.893
68.30000 4.734
68.32000 3.953
68.34000 2.698
68.36000 3.158
68.38000 3.958
68.40000 6.316
68.42000 6.057
68.44000 3.095
68.46000 3.626
68.48000 6.005
68.50000 4.046
68.52000 2.720
68.54000 5.491
68.56000 5.508
68.58000 3.124
68.60000 0.002
68.62000 0.395
68.64000 3.572
68.66000 0.904
68.68000 0.417
68.70000 3.461
68.72000 1.666
68.74000 -1.628
68.76000 0.008
68.78000 1.239
68.80000 0.409
68.82000 2.042
68.84000 0.615
68.86000 0.957
68.88000 1.928
68.90000 0.803
68.92000 1.027
68.94000 2.100
68.96000 -0.129
68.98000 -0.753
69.00000 0.434
69.02000 2.966
69.04000 1.823
69.06000 1.845
69.08000 2.066
69.10000 -1.078
69.12000 1.648
69.14000 2.546
69.16000 0.498
69.18000 0.049
69.20000 -0.815
69.22000 -0.839
69.24000 0.275
69.26000 2.430
69.28000 2.550
69.30000 -0.225
69.32000 -1.450
69.34000 1.386
69.36000 1.220
69.38000 0.543
69.40000 2.107
69.42000 5.410
69.44000 3.966
69.46000 2.525
69.48000 -0.461
69.50000 0.129
69.52000 2.983
69.54000 3.410
69.56000 3.784
69.58000 1.106
69.60000 0.502
69.62000 1.391
69.64000 -2.008
69.66000 -2.044
69.68000 -1.162
69.70000 3.270
69.72000 3.684
69.74000 0.636
69.76000 1.252
69.78000 1.641
69.80000 1.908
69.82000 1.790
69.84000 2.904
69.86000 2.047
69.88000 1.693
69.90000 2.906
69.92000 2.563
69.94000 1.764
69.96000 1.204
69.98000 2.131
70.00000 1.963
70.02000 2.836
70.04000 5.696
70.06000 1.344
70.08000 1.372
70.10000 5.116
70.12000 4.873
70.14000 1.972
70.16000 1.459
70.18000 2.138
70.20000 2.349
70.22000 4.402
70.24000 2.361
70.26000 0.582
70.28000 1.022
70.30000 2.275
70.32000 2.944
70.34000 1.272
70.36000 -0.703
70.38000 -0.960
70.40000 0.033
70.42000 0.523
70.44000 1.604
70.46000 0.871
70.48000 1.628
70.50000 3.618
70.52000 2.985
70.54000 -0.139
70.56000 -1.090
70.58000 2.472
70.60000 3.686
70.62000 3.730
70.64000 1.128
70.66000 3.171
70.68000 1.780
70.70000 2.821
70.72000 4.191
70.74000 1.310
70.76000 0.660
70.78000 3.782
70.80000 4.628
70.82000 0.418
70.84000 -2.033
70.86000 -0.102
70.88000 2.735
70.90000 1.742
70.92000 2.078
70.94000 3.249
70.96000 2.273
70.98000 1.376
71.00000 2.781
71.02000 2.260
71.04000 -0.042
71.06000 1.579
71.08000 1.132
71.10000 1.899
71.12000 4.874
71.14000 3.302
71.16000 0.176
71.18000 1.090
71.20000 0.241
71.22000 3.261
71.24000 1.411
71.26000 1.490
71.28000 0.702
71.30000 0.185
71.32000 -0.586
71.34000 1.292
71.36000 -1.638
71.38000 0.099
71.40000 4.352
71.42000 0.440
71.44000 -0.359
71.46000 2.625
71.48000 2.079
71.50000 0.818
71.52000 -1.039
71.54000 -1.161
71.56000 -2.003
71.58000 0.660
71.60000 2.833
71.62000 1.782
71.64000 1.144
71.66000 2.655
71.68000 2.664
71.70000 2.495
71.72000 1.126
71.74000 1.991
71.76000 -0.781
71.78000 0.081
71.80000 0.813
71.82000 1.851
71.84000 2.633
71.86000 3.286
71.88000 3.726
71.90000 2.231
71.92000 3.487
71.94000 2.780
71.96000 2.390
71.98000 2.051
72.00000 2.604
72.02000 7.152
72.04000 3.288
72.06000 3.951
72.08000 2.932
72.10000 -1.961
72.12000 2.118
72.14000 4.499
72.16000 5.934
72.18000 1.653
72.20000 -0.691
72.22000 -0.649
72.24000 1.808
72.26000 2.723
72.28000 5.156
72.30000 3.970
72.32000 1.871
72.34000 2.107
72.36000 0.542
72.38000 1.416
72.40000 2.554
72.42000 1.792
72.44000 -1.007
72.46000 -1.971
72.48000 1.555
72.50000 3.541
72.52000 2.706
72.54000 0.650
72.56000 -1.974
72.58000 0.218
72.60000 0.486
72.62000 -0.277
72.64000 3.070
72.66000 2.761
72.68000 2.671
72.70000 2.255
72.72000 2.005
72.74000 1.026
72.76000 0.172
72.78000 0.996
72.80000 1.576
72.82000 -0.202
72.84000 1.427
72.86000 0.998
72.88000 1.762
72.90000 1.566
72.92000 -0.356
72.94000 0.326
72.96000 0.837
72.98000 -0.674
73.00000 1.239
73.02000 1.685
73.04000 1.507
73.06000 -0.544
73.08000 -0.524
73.10000 0.646
73.12000 -0.400
73.14000 -0.744
73.16000 -1.840
73.18000 -0.873
73.20000 -1.722
73.22000 -0.599
73.24000 2.488
73.26000 -1.166
73.28000 0.920
73.30000 0.217
73.32000 -0.183
73.34000 -0.178
73.36000 2.278
73.38000 1.282
73.40000 0.084
73.42000 0.158
73.44000 0.536
73.46000 0.973
73.48000 -0.085
73.50000 0.144
73.52000 3.121
73.54000 -0.667
73.56000 -1.958
73.58000 0.881
73.60000 2.236
73.62000 1.906
73.64000 -0.585
73.66000 -0.039
73.68000 2.037
73.70000 2.306
73.72000 -0.670
73.74000 0.181
73.76000 4.536
73.78000 6.301
73.80000 3.777
73.82000 3.652
73.84000 1.404
73.86000 -0.534
73.88000 0.328
73.90000 2.860
73.92000 -0.142
73.94000 0.168
73.96000 1.074
73.98000 2.550
74.00000 2.325
74.02000 1.834
74.04000 0.473
74.06000 0.746
74.08000 1.610
74.10000 2.811
74.12000 2.299
74.14000 1.635
74.16000 2.015
74.18000 0.768
74.20000 -1.950
74.22000 0.125
74.24000 2.117
74.26000 0.348
74.28000 -1.236
74.30000 1.060
74.32000 0.355
74.34000 1.771
74.36000 2.614
74.38000 -0.227
74.40000 0.101
74.42000 -0.334
74.44000 1.538
74.46000 1.036
74.48000 -0.378
74.50000 -0.639
74.52000 1.947
74.54000 2.359
74.56000 0.084
74.58000 -0.832
74.60000 -1.028
74.62000 1.799
74.64000 2.629
74.66000 2.916
74.68000 2.541
74.70000 3.796
74.72000 0.215
74.74000 -0.001
74.76000 1.033
74.78000 4.052
74.80000 3.075
74.82000 3.740
74.84000 -0.297
74.86000 -1.316
74.88000 2.593
74.90000 2.182
74.92000 -0.274
74.94000 2.079
74.96000 1.249
74.98000 2.012
75.00000 5.657
75.02000 4.145
75.04000 6.891
75.06000 1.974
75.08000 -1.896
75.10000 3.005
75.12000 8.391
75.14000 4.874
75.16000 1.751
75.18000 -0.071
75.20000 0.296
75.22000 1.407
75.24000 1.421
75.26000 5.092
75.28000 3.491
75.30000 2.179
75.32000 0.290
75.34000 -0.060
75.36000 1.440
75.38000 0.177
75.40000 1.229
75.42000 0.415
75.44000 0.054
75.46000 -0.890
75.48000 -1.927
75.50000 1.128
75.52000 2.420
75.54000 1.060
75.56000 2.962
75.58000 5.562
75.60000 4.370
75.62000 3.170
75.64000 4.309
75.66000 5.007
75.68000 2.391
75.70000 3.149
75.72000 2.249
75.74000 -0.127
75.76000 0.828
75.78000 1.912
75.80000 0.575
75.82000 2.729
75.84000 3.521
75.86000 0.106
75.88000 -1.279
75.90000 2.366
75.92000 1.646
75.94000 2.397
75.96000 4.120
75.98000 2.163
76.00000 -0.827
76.02000 0.021
76.04000 -1.429
76.06000 0.991
76.08000 -0.874
76.10000 -1.070
76.12000 -1.441
76.14000 2.368
76.16000 4.137
76.18000 3.420
76.20000 0.272
76.22000 -0.165
76.24000 3.764
76.26000 0.787
76.28000 0.266
76.30000 1.530
76.32000 2.679
76.34000 1.350
76.36000 -1.940
76.38000 0.498
76.40000 0.780
76.42000 4.124
76.44000 0.412
76.46000 2.515
76.48000 1.074
76.50000 -0.934
76.52000 -1.953
76.54000 -0.300
76.56000 1.219
76.58000 2.300
76.60000 2.146
76.62000 1.224
76.64000 0.676
76.66000 3.479
76.68000 3.783
76.70000 3.187
76.72000 1.300
76.74000 2.568
76.76000 1.432
76.78000 2.389
76.80000 0.905
76.82000 -0.494
76.84000 -0.321
76.86000 -1.244
76.88000 -1.276
76.90000 2.508
76.92000 1.257
76.94000 2.391
76.96000 2.040
76.98000 1.746
77.00000 -0.707
77.02000 -1.710
77.04000 1.045
77.06000 4.328
77.08000 -0.081
77.10000 0.078
77.12000 2.894
77.14000 3.314
77.16000 2.042
77.18000 -0.573
77.20000 0.101
77.22000 1.690
77.24000 0.556
77.26000 -1.987
77.28000 -0.478
77.30000 0.105
77.32000 -0.317
77.34000 -0.006
77.36000 2.994
77.38000 2.247
77.40000 3.613
77.42000 2.723
77.44000 0.805
77.46000 2.727
77.48000 1.255
77.50000 -0.161
77.52000 -0.136
77.54000 1.207
77.56000 -1.991
77.58000 -0.838
77.60000 -0.324
77.62000 -1.029
77.64000 0.896
77.66000 0.177
77.68000 0.016
77.70000 0.256
77.72000 2.487
77.74000 1.927
77.76000 0.045
77.78000 0.184
77.80000 0.995
77.82000 1.031
77.84000 0.160
77.86000 -1.261
77.88000 0.449
77.90000 -0.434
77.92000 1.491
77.94000 2.813
77.96000 -1.229
77.98000 0.248
78.00000 4.141
78.02000 3.959
78.04000 2.296
78.06000 1.023
78.08000 -0.289
78.10000 2.186
78.12000 3.315
78.14000 -1.978
78.16000 -1.252
78.18000 0.713
78.20000 -0.253
78.22000 3.384
78.24000 4.161
78.26000 2.278
78.28000 0.736
78.30000 0.340
78.32000 -0.383
78.34000 -0.128
78.36000 0.462
78.38000 1.930
78.40000 4.388
78.42000 2.135
78.44000 0.846
78.46000 -0.749
78.48000 -1.583
78.50000 3.454
78.52000 2.313
78.54000 0.179
78.56000 0.118
78.58000 -0.748
78.60000 1.537
78.62000 -1.691
78.64000 1.046
78.66000 1.091
78.68000 -0.340
78.70000 3.539
78.72000 3.789
78.74000 2.570
78.76000 5.138
78.78000 2.830
78.80000 1.880
78.82000 0.160
78.84000 2.817
78.86000 1.507
78.88000 -0.007
78.90000 -0.448
78.92000 1.157
78.94000 -1.429
78.96000 0.173
78.98000 0.991
79.00000 0.297
79.02000 2.755
79.04000 1.021
79.06000 2.773
79.08000 1.416
79.10000 -2.009
79.12000 -1.463
79.14000 1.444
79.16000 3.767
79.18000 1.553
79.20000 4.035
79.22000 2.041
79.24000 -1.861
79.26000 -1.108
79.28000 -1.069
79.30000 -0.972
79.32000 0.074
79.34000 2.699
79.36000 2.464
79.38000 -1.580
79.40000 -1.737
79.42000 -0.221
79.44000 0.435
79.46000 0.038
79.48000 0.460
79.50000 0.331
79.52000 4.461
79.54000 2.857
79.56000 2.534
79.58000 0.161
79.60000 1.710
79.62000 0.570
79.64000 0.013
79.66000 -1.677
79.68000 -0.090
79.70000 2.296
79.72000 3.938
79.74000 3.256
79.76000 0.746
79.78000 0.544
79.80000 0.309
79.82000 0.957
79.84000 1.520
79.86000 2.111
79.88000 -2.066
79.90000 0.381
79.92000 0.247
79.94000 1.190
79.96000 2.347
79.98000 1.514
80.00000 1.416
80.02000 2.113
80.04000 -1.140
80.06000 -1.002
80.08000 0.640
80.10000 -2.086
80.12000 1.314
80.14000 3.743
80.16000 0.808
80.18000 -0.565
80.20000 -1.216
80.22000 0.948
80.24000 2.021
80.26000 0.462
80.28000 0.398
80.30000 1.896
80.32000 0.340
80.34000 1.989
80.36000 0.399
80.38000 -1.283
80.40000 2.241
80.42000 6.324
80.44000 7.083
80.46000 4.317
80.48000 2.483
80.50000 0.780
80.52000 2.774
80.54000 3.754
80.56000 6.843
80.58000 4.529
80.60000 4.767
80.62000 3.434
80.64000 3.708
80.66000 2.427
80.68000 3.137
80.70000 7.556
80.72000 3.648
80.74000 4.293
80.76000 4.084
80.78000 5.123
80.80000 6.077
80.82000 5.850
80.84000 6.482
80.86000 5.423
80.88000 6.461
80.90000 8.598
80.92000 7.980
80.94000 8.614
80.96000 11.013
80.98000 7.670
81.00000 6.801
81.02000 10.841
81.04000 8.860
81.06000 11.426
81.08000 11.977
81.10000 8.079
81.12000 10.816
81.14000 10.002
81.16000 9.644
81.18000 15.884
81.20000 16.814
81.22000 17.552
81.24000 19.671
81.26000 20.902
81.28000 18.048
81.30000 19.862
81.32000 22.139
81.34000 19.405
81.36000 19.931
81.38000 20.531
81.40000 21.614
81.42000 21.027
81.44000 20.055
81.46000 18.224
81.48000 17.542
81.50000 17.682
81.52000 20.742
81.54000 24.266
81.56000 21.194
81.58000 22.358
81.60000 19.193
81.62000 19.890
81.64000 18.429
81.66000 21.116
81.68000 25.895
81.70000 28.876
81.72000 22.720
81.74000 22.030
81.76000 19.590
81.78000 21.146
81.80000 25.806
81.82000 26.969
81.84000 24.017
81.86000 23.879
81.88000 25.764
81.90000 26.520
81.92000 25.307
81.94000 20.991
81.96000 22.074
81.98000 22.991
82.00000 21.706
82.02000 17.876
82.04000 20.003
82.06000 20.131
82.08000 19.560
82.10000 21.450
82.12000 21.380
82.14000 20.002
82.16000 18.050
82.18000 20.529
82.20000 22.676
82.22000 18.765
82.24000 14.021
82.26000 14.549
82.28000 14.758
82.30000 9.837
82.32000 8.939
82.34000 7.376
82.36000 8.511
82.38000 15.686
82.40000 16.085
82.42000 13.039
82.44000 8.367
82.46000 12.003
82.48000 12.085
82.50000 11.712
82.52000 9.915
82.54000 12.081
82.56000 11.723
82.58000 8.841
82.60000 7.958
82.62000 9.648
82.64000 11.401
82.66000 9.327
82.68000 5.525
82.70000 7.034
82.72000 7.552
82.74000 6.667
82.76000 4.865
82.78000 3.619
82.80000 2.812
82.82000 5.231
82.84000 5.386
82.86000 7.974
82.88000 4.336
82.90000 0.356
82.92000 1.565
82.94000 4.646
82.96000 4.345
82.98000 4.226
83.00000 2.503
83.02000 4.229
83.04000 3.772
83.06000 0.083
83.08000 2.913
83.10000 3.494
83.12000 3.072
83.14000 -0.069
83.16000 0.278
83.18000 2.971
83.20000 0.728
83.22000 4.081
83.24000 4.165
83.26000 0.710
83.28000 -1.049
83.30000 -2.088
83.32000 -1.705
83.34000 3.426
83.36000 4.107
83.38000 3.618
83.40000 0.114
83.42000 -2.095
83.44000 -2.011
83.46000 -0.245
83.48000 -0.868
83.50000 -0.535
83.52000 0.347
83.54000 0.174
83.56000 0.352
83.58000 1.528
83.60000 -0.911
83.62000 -0.435
83.64000 0.698
83.66000 1.562
83.68000 1.767
83.70000 -0.429
83.72000 -1.570
83.74000 0.428
83.76000 -0.434
83.78000 1.409
83.80000 0.771
83.82000 1.672
83.84000 -1.938
83.86000 -0.141
83.88000 0.606
83.90000 1.271
83.92000 -0.579
83.94000 -1.772
83.96000 -1.337
83.98000 0.259
84.00000 0.108
84.02000 2.407
84.04000 0.502
84.06000 0.655
84.08000 2.864
84.10000 1.631
84.12000 1.503
84.14000 -0.956
84.16000 1.853
84.18000 -0.071
84.20000 -2.083
84.22000 -0.785
84.24000 -0.046
84.26000 0.441
84.28000 3.216
84.30000 3.838
84.32000 0.202
84.34000 0.426
84.36000 0.044
84.38000 0.424
84.40000 1.141
84.42000 1.232
84.44000 1.162
84.46000 2.887
84.48000 2.928
84.50000 0.789
84.52000 0.230
84.54000 -0.394
84.56000 -2.114
84.58000 -1.605
84.60000 0.235
84.62000 0.955
84.64000 1.176
84.66000 0.244
84.68000 4.215
84.70000 6.711
84.72000 3.113
84.74000 2.703
84.76000 6.365
84.78000 3.798
84.80000 4.372
84.82000 5.610
84.84000 2.866
84.86000 6.286
84.88000 7.545
84.90000 6.266
84.92000 6.633
84.94000 6.098
84.96000 9.288
84.98000 7.384
85.00000 5.369
85.02000 4.405
85.04000 6.614
85.06000 7.711
85.08000 8.756
85.10000 8.740
85.12000 8.886
85.14000 7.025
85.16000 8.977
85.18000 9.176
85.20000 8.664
85.22000 12.661
85.24000 13.202
85.26000 13.843
85.28000 17.343
85.30000 18.850
85.32000 16.459
85.34000 16.156
85.36000 10.406
85.38000 9.355
85.40000 11.829
85.42000 15.659
85.44000 14.954
85.46000 15.300
85.48000 17.107
85.50000 13.234
85.52000 13.571
85.54000 15.858
85.56000 17.670
85.58000 20.019
85.60000 19.467
85.62000 19.339
85.64000 18.279
85.66000 15.884
85.68000 20.550
85.70000 23.057
85.72000 18.302
85.74000 18.354
85.76000 20.321
85.78000 23.475
85.80000 17.236
85.82000 16.722
85.84000 21.422
85.86000 23.490
85.88000 20.905
85.90000 20.124
85.92000 17.409
85.94000 16.985
85.96000 16.440
85.98000 21.108
86.00000 21.838
86.02000 23.758
86.04000 20.943
86.06000 18.469
86.08000 16.166
86.10000 14.752
86.12000 16.273
86.14000 17.070
86.16000 16.810
86.18000 14.411
86.20000 15.243
86.22000 15.650
86.24000 19.733
86.26000 16.281
86.28000 13.876
86.30000 14.491
86.32000 12.785
86.34000 14.245
86.36000 11.755
86.38000 13.722
86.40000 7.416
86.42000 6.530
86.44000 12.305
86.46000 11.599
86.48000 5.138
86.50000 7.657
86.52000 7.464
86.54000 7.217
86.56000 5.294
86.58000 3.700
86.60000 3.171
86.62000 3.266
86.64000 3.363
86.66000 6.950
86.68000 8.880
86.70000 6.806
86.72000 4.507
86.74000 3.959
86.76000 4.741
86.78000 4.415
86.80000 1.273
86.82000 1.602
86.84000 1.143
86.86000 -1.998
86.88000 2.020
86.90000 2.174
86.92000 2.524
86.94000 3.356
86.96000 3.017
86.98000 1.385
87.00000 3.828
87.02000 3.239
87.04000 2.316
87.06000 5.533
87.08000 2.991
87.10000 -0.082
87.12000 -1.518
87.14000 0.433
87.16000 3.466
87.18000 1.524
87.20000 3.730
87.22000 1.942
87.24000 2.916
87.26000 4.905
87.28000 -0.316
87.30000 0.033
87.32000 1.854
87.34000 -0.753
87.36000 -1.031
87.38000 2.016
87.40000 2.392
87.42000 1.264
87.44000 2.834
87.46000 1.137
87.48000 0.718
87.50000 -1.904
87.52000 1.406
87.54000 3.806
87.56000 0.367
87.58000 0.720
87.60000 2.883
87.62000 2.932
87.64000 2.657
87.66000 4.260
87.68000 4.627
87.70000 -0.187
87.72000 0.354
87.74000 0.239
87.76000 -0.569
87.78000 2.312
87.80000 -1.668
87.82000 -0.606
87.84000 0.809
87.86000 -0.457
87.88000 -1.277
87.90000 0.128
87.92000 1.762
87.94000 0.987
87.96000 0.888
87.98000 0.094
88.00000 -1.867
88.02000 -0.160
88.04000 2.476
88.06000 1.115
88.08000 0.459
88.10000 2.869
88.12000 0.397
88.14000 1.891
88.16000 2.717
88.18000 3.215
88.20000 2.389
88.22000 0.933
88.24000 1.542
88.26000 0.441
88.28000 -0.618
88.30000 -0.655
88.32000 2.702
88.34000 3.307
88.36000 3.708
88.38000 1.604
88.40000 1.777
88.42000 2.678
88.44000 1.482
88.46000 3.918
88.48000 3.695
88.50000 0.198
88.52000 0.799
88.54000 -1.110
88.56000 -0.597
88.58000 0.946
88.60000 1.420
88.62000 1.459
88.64000 1.163
88.66000 4.270
88.68000 1.253
88.70000 0.306
88.72000 1.830
88.74000 4.000
88.76000 2.846
88.78000 3.176
88.80000 2.951
88.82000 4.862
88.84000 4.222
88.86000 -1.816
88.88000 2.698
88.90000 3.660
88.92000 1.117
88.94000 2.347
88.96000 2.377
88.98000 0.513
89.00000 3.341
89.02000 5.735
89.04000 1.461
89.06000 2.994
89.08000 4.688
89.10000 2.857
89.12000 0.019
89.14000 -0.184
89.16000 0.944
89.18000 1.747
89.20000 1.839
89.22000 1.675
89.24000 1.443
89.26000 1.539
89.28000 0.642
89.30000 1.827
89.32000 -1.815
89.34000 -0.904
89.36000 1.835
89.38000 2.799
89.40000 2.267
89.42000 2.487
89.44000 1.771
89.46000 0.665
89.48000 -0.652
89.50000 1.136
89.52000 3.937
89.54000 2.718
89.56000 1.829
89.58000 1.318
89.60000 2.457
89.62000 3.041
89.64000 1.858
89.66000 2.873
89.68000 2.727
89.70000 -0.173
89.72000 -1.834
89.74000 -0.189
89.76000 1.951
89.78000 2.051
89.80000 0.752
89.82000 1.316
89.84000 3.512
89.86000 -0.628
89.88000 3.057
89.90000 2.074
89.92000 1.432
89.94000 0.576
89.96000 0.624
89.98000 0.505
90.00000 -0.740
90.02000 -0.609
90.04000 0.683
90.06000 -0.308
90.08000 0.194
90.10000 3.057
90.12000 2.369
90.14000 -1.590
90.16000 -0.126
90.18000 0.882
90.20000 0.299
90.22000 1.006
90.24000 0.367
90.26000 4.479
90.28000 3.448
90.30000 1.586
90.32000 0.880
90.34000 1.126
90.36000 -0.769
90.38000 0.082
90.40000 0.000
90.42000 3.688
90.44000 1.658
90.46000 1.128
90.48000 -1.093
90.50000 -1.721
90.52000 1.728
90.54000 5.646
90.56000 5.211
90.58000 1.198
90.60000 -1.254
90.62000 -0.859
90.64000 1.605
90.66000 1.594
90.68000 -0.900
90.70000 -0.331
90.72000 -0.976
90.74000 1.418
90.76000 2.891
90.78000 3.074
90.80000 1.089
90.82000 0.054
90.84000 -1.787
90.86000 1.259
90.88000 1.764
90.90000 1.477
90.92000 3.323
90.94000 3.408
90.96000 -1.439
90.98000 2.738
91.00000 1.223
91.02000 1.076
91.04000 1.575
91.06000 3.340
91.08000 1.437
91.10000 1.346
91.12000 3.081
91.14000 1.869
91.16000 0.803
91.18000 -1.588
91.20000 -1.345
91.22000 0.493
91.24000 1.007
91.26000 1.556
91.28000 -0.744
91.30000 1.217
91.32000 2.515
91.34000 1.315
91.36000 3.277
91.38000 3.658
91.40000 1.651
91.42000 -1.801
91.44000 -0.004
91.46000 3.158
91.48000 4.168
91.50000 4.079
91.52000 5.484
91.54000 1.253
91.56000 -0.082
91.58000 0.760
91.60000 2.941
91.62000 2.407
91.64000 3.101
91.66000 4.895
91.68000 3.303
91.70000 3.803
91.72000 4.270
91.74000 3.559
91.76000 1.416
91.78000 -0.185
91.80000 2.514
91.82000 3.225
91.84000 3.287
91.86000 2.171
91.88000 0.748
91.90000 0.587
91.92000 -0.963
91.94000 -1.656
91.96000 0.474
91.98000 0.964
92.00000 0.276
92.02000 2.325
92.04000 2.681
92.06000 3.017
92.08000 2.966
92.10000 1.858
92.12000 0.759
92.14000 0.336
92.16000 -0.216
92.18000 0.864
92.20000 3.086
92.22000 -0.153
92.24000 -1.143
92.26000 -1.832
92.28000 -0.241
92.30000 0.738
92.32000 -1.831
92.34000 0.919
92.36000 2.473
92.38000 2.592
92.40000 2.325
92.42000 -0.568
92.44000 1.759
92.46000 3.582
92.48000 2.372
92.50000 -1.401
92.52000 0.115
92.54000 3.776
92.56000 4.631
92.58000 2.284
92.60000 1.479
92.62000 1.091
92.64000 2.742
92.66000 4.486
92.68000 3.527
92.70000 4.842
92.72000 7.593
92.74000 3.245
92.76000 1.393
92.78000 2.826
92.80000 2.756
92.82000 1.033
92.84000 3.351
92.86000 8.060
92.88000 2.822
92.90000 0.058
92.92000 -0.156
92.94000 0.458
92.96000 1.379
92.98000 -1.379
93.00000 -1.820
93.02000 1.521
93.04000 2.558
93.06000 3.291
93.08000 4.580
93.10000 4.618
93.12000 5.626
93.14000 5.333
93.16000 3.862
93.18000 1.690
93.20000 1.853
93.22000 -1.825
93.24000 -0.038
93.26000 1.076
93.28000 2.330
93.30000 2.615
93.32000 2.888
93.34000 4.117
93.36000 5.585
93.38000 2.901
93.40000 3.512
93.42000 3.816
93.44000 3.423
93.46000 2.694
93.48000 0.878
93.50000 1.287
93.52000 0.263
93.54000 -0.387
93.56000 3.442
93.58000 2.118
93.60000 3.231
93.62000 4.121
93.64000 1.751
93.66000 -1.081
93.68000 0.492
93.70000 -0.095
93.72000 -0.187
93.74000 3.056
93.76000 3.207
93.78000 -0.909
93.80000 -0.595
93.82000 -0.007
93.84000 -1.125
93.86000 -1.849
93.88000 -0.022
93.90000 4.000
93.92000 1.283
93.94000 2.466
93.96000 3.408
93.98000 1.953
94.00000 1.920
94.02000 3.561
94.04000 1.467
94.06000 4.593
94.08000 2.182
94.10000 3.749
94.12000 0.800
94.14000 -0.722
94.16000 -0.411
94.18000 -0.265
94.20000 1.738
94.22000 6.324
94.24000 7.242
94.26000 3.497
94.28000 -0.192
94.30000 0.404
94.32000 2.550
94.34000 1.742
94.36000 1.245
94.38000 -1.183
94.40000 3.356
94.42000 3.161
94.44000 3.780
94.46000 1.505
94.48000 2.689
94.50000 3.098
94.52000 3.710
94.54000 0.413
94.56000 1.286
94.58000 2.218
94.60000 1.504
94.62000 -1.841
94.64000 2.488
94.66000 3.690
94.68000 4.899
94.70000 3.918
94.72000 0.794
94.74000 3.676
94.76000 3.573
94.78000 2.264
94.80000 4.156
94.82000 4.523
94.84000 7.420
94.86000 3.799
94.88000 2.665
94.90000 3.699
94.92000 4.851
94.94000 1.998
94.96000 4.116
94.98000 4.528
95.00000 1.904
95.02000 0.956
95.04000 -1.320
95.06000 3.363
95.08000 1.190
95.10000 -0.386
95.12000 -0.305
95.14000 -0.766
95.16000 -0.390
95.18000 1.759
95.20000 -0.289
95.22000 0.828
95.24000 4.520
95.26000 4.610
95.28000 1.479
95.30000 3.244
95.32000 2.316
95.34000 0.046
95.36000 2.140
95.38000 4.156
95.40000 3.012
95.42000 1.681
95.44000 3.744
95.46000 2.364
95.48000 -0.222
95.50000 -1.835
95.52000 1.312
95.54000 5.191
95.56000 1.407
95.58000 1.376
95.60000 -1.542
95.62000 1.185
95.64000 5.442
95.66000 8.150
95.68000 7.763
95.70000 3.024
95.72000 1.674
95.74000 5.896
95.76000 5.221
95.78000 1.424
95.80000 0.848
95.82000 1.554
95.84000 3.620
95.86000 6.235
95.88000 5.837
95.90000 4.407
95.92000 -1.833
95.94000 1.741
95.96000 -0.079
95.98000 1.620
96.00000 7.560
96.02000 7.286
96.04000 4.729
96.06000 1.454
96.08000 1.606
96.10000 3.782
96.12000 6.189
96.14000 3.988
96.16000 2.642
96.18000 4.643
96.20000 8.334
96.22000 7.060
96.24000 6.459
96.26000 10.087
96.28000 6.920
96.30000 1.717
96.32000 -0.220
96.34000 2.107
96.36000 5.075
96.38000 5.268
96.40000 0.780
96.42000 2.664
96.44000 2.813
96.46000 2.834
96.48000 4.196
96.50000 6.052
96.52000 1.335
96.54000 4.795
96.56000 7.530
96.58000 7.022
96.60000 7.108
96.62000 2.633
96.64000 2.131
96.66000 5.513
96.68000 4.302
96.70000 7.316
96.72000 7.745
96.74000 4.136
96.76000 2.073
96.78000 4.956
96.80000 0.972
96.82000 -1.800
96.84000 -0.228
96.86000 5.519
96.88000 9.672
96.90000 4.193
96.92000 3.049
96.94000 3.036
96.96000 5.764
96.98000 6.023
97.00000 -1.784
97.02000 -1.270
97.04000 -0.815
97.06000 3.434
97.08000 4.231
97.10000 3.689
97.12000 0.474
97.14000 2.757
97.16000 7.552
97.18000 5.898
97.20000 2.974
97.22000 3.261
97.24000 0.399
97.26000 0.948
97.28000 5.600
97.30000 5.468
97.32000 3.042
97.34000 1.200
97.36000 2.527
97.38000 3.595
97.40000 4.732
97.42000 4.128
97.44000 0.331
97.46000 2.756
97.48000 3.885
97.50000 5.882
97.52000 4.438
97.54000 7.167
97.56000 5.462
97.58000 5.250
97.60000 4.250
97.62000 2.778
97.64000 2.688
97.66000 5.357
97.68000 5.188
97.70000 8.321
97.72000 3.370
97.74000 1.047
97.76000 5.753
97.78000 1.287
97.80000 5.049
97.82000 3.814
97.84000 1.720
97.86000 2.991
97.88000 1.905
97.90000 0.376
97.92000 1.379
97.94000 6.019
97.96000 2.196
97.98000 3.910
98.00000 6.353
98.02000 6.156
98.04000 2.088
98.06000 1.495
98.08000 2.374
98.10000 1.758
98.12000 -0.668
98.14000 1.793
98.16000 4.245
98.18000 7.751
98.20000 2.911
98.22000 2.744
98.24000 0.125
98.26000 0.183
98.28000 4.553
98.30000 2.656
98.32000 4.209
98.34000 4.144
98.36000 -0.433
98.38000 3.443
98.40000 3.507
98.42000 -0.411
98.44000 -1.796
98.46000 2.595
98.48000 11.063
98.50000 6.525
98.52000 4.230
98.54000 3.408
98.56000 3.614
98.58000 0.643
98.60000 1.650
98.62000 4.611
98.64000 2.765
98.66000 3.846
98.68000 2.405
98.70000 1.214
98.72000 9.754
98.74000 2.280
98.76000 3.623
98.78000 3.261
98.80000 5.340
98.82000 3.382
98.84000 0.463
98.86000 -1.765
98.88000 0.316
98.90000 0.376
98.92000 0.842
98.94000 0.721
98.96000 6.163
98.98000 10.038
99.00000 6.261
99.02000 6.168
99.04000 7.307
99.06000 0.712
99.08000 3.546
99.10000 5.065
99.12000 0.013
99.14000 0.523
99.16000 3.563
99.18000 5.177
99.20000 7.963
99.22000 0.988
99.24000 3.195
99.26000 9.683
99.28000 7.794
99.30000 3.217
99.32000 3.342
99.34000 1.683
99.36000 -0.850
99.38000 4.498
99.40000 8.426
99.42000 4.535
99.44000 5.636
99.46000 6.149
99.48000 3.477
99.50000 0.480
99.52000 5.476
99.54000 11.493
99.56000 5.199
99.58000 -1.769
99.60000 -0.498
99.62000 0.405
99.64000 9.081
99.66000 5.735
99.68000 9.051
99.70000 12.989
99.72000 7.537
99.74000 4.011
99.76000 1.618
99.78000 1.184
99.80000 3.885
99.82000 3.401
99.84000 -0.234
99.86000 -1.811
99.88000 -1.324
99.90000 1.277
99.92000 5.925
99.94000 2.446
99.96000 -0.224
99.98000 0.000
