'Id: "0011388" Comment: "Integrate frame 0011388_Au-Ir-Rh_Rh-rich_XRD-Mapping-023-0000.gfrmwith cursor Wedge Cursor #5" Operator: "B?rgel" Anode: "Cu" Wavelength: "1.5406" Scantype: "2Theta (TwoTheta)" TimePerStep: "1" X: "27" Y: "-36" Z: "5.95" 
10.00000 0.000
10.02000 12.973
10.04000 -3.880
10.06000 -0.572
10.08000 0.539
10.10000 13.841
10.12000 11.481
10.14000 2.084
10.16000 11.974
10.18000 23.142
10.20000 12.983
10.22000 3.425
10.24000 -2.046
10.26000 -3.073
10.28000 13.326
10.30000 19.034
10.32000 8.494
10.34000 15.702
10.36000 20.648
10.38000 8.501
10.40000 7.671
10.42000 10.874
10.44000 18.421
10.46000 13.805
10.48000 6.236
10.50000 3.009
10.52000 4.217
10.54000 8.160
10.56000 8.952
10.58000 9.900
10.60000 12.855
10.62000 -4.415
10.64000 6.495
10.66000 13.186
10.68000 15.778
10.70000 7.042
10.72000 10.855
10.74000 6.592
10.76000 1.169
10.78000 5.400
10.80000 6.503
10.82000 7.044
10.84000 9.933
10.86000 -3.961
10.88000 -2.083
10.90000 2.609
10.92000 11.766
10.94000 14.408
10.96000 15.528
10.98000 24.138
11.00000 20.600
11.02000 22.927
11.04000 26.004
11.06000 11.778
11.08000 7.376
11.10000 6.852
11.12000 11.045
11.14000 9.141
11.16000 10.421
11.18000 18.300
11.20000 20.070
11.22000 12.740
11.24000 22.778
11.26000 21.837
11.28000 26.645
11.30000 18.921
11.32000 13.778
11.34000 14.732
11.36000 16.078
11.38000 24.540
11.40000 20.319
11.42000 4.700
11.44000 9.846
11.46000 18.684
11.48000 21.929
11.50000 22.287
11.52000 26.196
11.54000 24.901
11.56000 21.422
11.58000 13.170
11.60000 15.511
11.62000 16.854
11.64000 7.082
11.66000 15.912
11.68000 23.145
11.70000 29.624
11.72000 26.956
11.74000 30.623
11.76000 32.357
11.78000 25.431
11.80000 24.699
11.82000 21.252
11.84000 20.430
11.86000 20.953
11.88000 25.605
11.90000 12.636
11.92000 6.245
11.94000 25.617
11.96000 29.077
11.98000 22.663
12.00000 22.321
12.02000 21.729
12.04000 22.695
12.06000 27.548
12.08000 26.153
12.10000 23.990
12.12000 24.827
12.14000 20.922
12.16000 14.735
12.18000 12.445
12.20000 20.960
12.22000 20.450
12.24000 24.360
12.26000 19.933
12.28000 21.604
12.30000 24.988
12.32000 12.695
12.34000 9.805
12.36000 6.485
12.38000 16.278
12.40000 24.361
12.42000 30.450
12.44000 27.088
12.46000 22.175
12.48000 26.805
12.50000 24.382
12.52000 23.238
12.54000 22.059
12.56000 23.365
12.58000 27.830
12.60000 20.454
12.62000 17.577
12.64000 21.424
12.66000 19.367
12.68000 21.331
12.70000 14.229
12.72000 15.325
12.74000 16.749
12.76000 18.558
12.78000 25.312
12.80000 16.696
12.82000 8.163
12.84000 18.400
12.86000 21.202
12.88000 22.537
12.90000 23.670
12.92000 14.225
12.94000 28.792
12.96000 23.214
12.98000 16.244
13.00000 25.928
13.02000 30.692
13.04000 24.594
13.06000 14.794
13.08000 15.040
13.10000 18.776
13.12000 16.863
13.14000 27.489
13.16000 28.683
13.18000 14.389
13.20000 14.623
13.22000 18.337
13.24000 16.659
13.26000 17.149
13.28000 34.429
13.30000 30.034
13.32000 14.826
13.34000 17.656
13.36000 16.881
13.38000 20.859
13.40000 38.531
13.42000 39.352
13.44000 35.028
13.46000 22.000
13.48000 19.548
13.50000 30.176
13.52000 15.552
13.54000 12.740
13.56000 9.081
13.58000 19.112
13.60000 18.360
13.62000 20.633
13.64000 15.764
13.66000 18.626
13.68000 23.065
13.70000 21.137
13.72000 22.211
13.74000 18.536
13.76000 13.312
13.78000 17.260
13.80000 22.944
13.82000 18.294
13.84000 15.390
13.86000 8.655
13.88000 13.889
13.90000 10.714
13.92000 12.671
13.94000 16.251
13.96000 19.027
13.98000 29.607
14.00000 16.608
14.02000 15.571
14.04000 23.866
14.06000 22.668
14.08000 19.085
14.10000 25.263
14.12000 19.671
14.14000 13.650
14.16000 5.509
14.18000 20.656
14.20000 20.120
14.22000 22.048
14.24000 24.969
14.26000 19.423
14.28000 15.131
14.30000 21.843
14.32000 24.373
14.34000 21.875
14.36000 18.654
14.38000 18.817
14.40000 16.706
14.42000 20.775
14.44000 18.999
14.46000 19.378
14.48000 14.630
14.50000 21.510
14.52000 26.672
14.54000 17.489
14.56000 16.690
14.58000 16.802
14.60000 23.383
14.62000 17.201
14.64000 15.381
14.66000 18.652
14.68000 10.792
14.70000 7.440
14.72000 14.032
14.74000 16.710
14.76000 12.447
14.78000 14.990
14.80000 19.226
14.82000 21.063
14.84000 21.763
14.86000 9.084
14.88000 8.801
14.90000 14.292
14.92000 16.636
14.94000 15.769
14.96000 21.476
14.98000 21.049
15.00000 14.005
15.02000 18.565
15.04000 21.805
15.06000 18.476
15.08000 15.692
15.10000 19.494
15.12000 16.238
15.14000 14.959
15.16000 16.590
15.18000 13.001
15.20000 16.748
15.22000 18.172
15.24000 11.982
15.26000 7.468
15.28000 11.204
15.30000 16.021
15.32000 18.690
15.34000 12.641
15.36000 6.423
15.38000 18.094
15.40000 11.372
15.42000 12.338
15.44000 9.220
15.46000 13.667
15.48000 10.469
15.50000 23.415
15.52000 27.591
15.54000 23.508
15.56000 11.615
15.58000 8.424
15.60000 1.336
15.62000 6.507
15.64000 13.135
15.66000 11.668
15.68000 15.540
15.70000 4.132
15.72000 2.996
15.74000 14.492
15.76000 13.559
15.78000 7.759
15.80000 6.808
15.82000 7.774
15.84000 11.892
15.86000 -2.561
15.88000 5.349
15.90000 14.486
15.92000 15.767
15.94000 13.347
15.96000 6.072
15.98000 7.788
16.00000 14.398
16.02000 8.813
16.04000 10.166
16.06000 13.176
16.08000 4.287
16.10000 7.720
16.12000 6.314
16.14000 2.098
16.16000 5.625
16.18000 12.704
16.20000 12.357
16.22000 13.547
16.24000 8.170
16.26000 -0.278
16.28000 6.306
16.30000 6.178
16.32000 10.938
16.34000 15.135
16.36000 8.703
16.38000 7.940
16.40000 17.073
16.42000 17.402
16.44000 9.114
16.46000 5.947
16.48000 5.381
16.50000 5.463
16.52000 5.327
16.54000 8.981
16.56000 8.043
16.58000 11.722
16.60000 19.256
16.62000 15.920
16.64000 17.974
16.66000 13.546
16.68000 -0.431
16.70000 -0.304
16.72000 7.654
16.74000 8.626
16.76000 -0.831
16.78000 -4.340
16.80000 -2.025
16.82000 3.596
16.84000 5.784
16.86000 9.059
16.88000 17.625
16.90000 15.553
16.92000 16.479
16.94000 16.772
16.96000 13.071
16.98000 18.634
17.00000 12.948
17.02000 8.553
17.04000 9.063
17.06000 10.109
17.08000 17.584
17.10000 9.302
17.12000 10.124
17.14000 12.401
17.16000 10.461
17.18000 7.536
17.20000 6.887
17.22000 6.892
17.24000 7.665
17.26000 10.699
17.28000 2.457
17.30000 -0.842
17.32000 -0.117
17.34000 -0.910
17.36000 2.769
17.38000 7.754
17.40000 9.950
17.42000 14.887
17.44000 10.564
17.46000 -0.169
17.48000 5.417
17.50000 6.242
17.52000 4.733
17.54000 13.803
17.56000 19.471
17.58000 10.550
17.60000 11.252
17.62000 7.756
17.64000 1.185
17.66000 6.947
17.68000 11.862
17.70000 3.987
17.72000 3.980
17.74000 3.096
17.76000 -1.003
17.78000 -0.383
17.80000 2.558
17.82000 8.578
17.84000 2.741
17.86000 5.465
17.88000 11.157
17.90000 5.141
17.92000 0.388
17.94000 1.622
17.96000 2.636
17.98000 3.882
18.00000 2.483
18.02000 -0.805
18.04000 4.382
18.06000 4.330
18.08000 2.085
18.10000 1.452
18.12000 6.874
18.14000 14.773
18.16000 12.858
18.18000 19.034
18.20000 15.662
18.22000 3.914
18.24000 -3.313
18.26000 0.543
18.28000 7.096
18.30000 8.773
18.32000 3.891
18.34000 8.062
18.36000 6.436
18.38000 1.328
18.40000 3.809
18.42000 7.619
18.44000 4.841
18.46000 5.365
18.48000 5.523
18.50000 2.274
18.52000 0.726
18.54000 3.184
18.56000 1.622
18.58000 4.879
18.60000 9.072
18.62000 13.248
18.64000 5.063
18.66000 1.686
18.68000 3.991
18.70000 7.490
18.72000 6.818
18.74000 5.823
18.76000 5.024
18.78000 -4.241
18.80000 3.062
18.82000 10.243
18.84000 10.017
18.86000 2.048
18.88000 6.220
18.90000 3.439
18.92000 5.131
18.94000 9.235
18.96000 8.561
18.98000 4.427
19.00000 -0.941
19.02000 -2.174
19.04000 3.238
19.06000 6.481
19.08000 5.289
19.10000 5.512
19.12000 9.745
19.14000 9.843
19.16000 8.245
19.18000 7.749
19.20000 -0.073
19.22000 1.644
19.24000 10.380
19.26000 4.906
19.28000 4.318
19.30000 2.729
19.32000 5.680
19.34000 7.076
19.36000 6.896
19.38000 12.401
19.40000 11.221
19.42000 12.516
19.44000 5.332
19.46000 7.242
19.48000 7.797
19.50000 6.046
19.52000 5.657
19.54000 9.033
19.56000 10.060
19.58000 8.404
19.60000 11.686
19.62000 14.426
19.64000 14.296
19.66000 7.046
19.68000 2.819
19.70000 4.007
19.72000 6.021
19.74000 7.333
19.76000 5.037
19.78000 8.053
19.80000 4.104
19.82000 2.309
19.84000 7.320
19.86000 8.716
19.88000 10.577
19.90000 4.811
19.92000 5.257
19.94000 3.340
19.96000 -0.397
19.98000 3.619
20.00000 -3.042
20.02000 -4.163
20.04000 2.261
20.06000 6.064
20.08000 4.681
20.10000 2.961
20.12000 10.267
20.14000 13.754
20.16000 13.240
20.18000 5.731
20.20000 9.193
20.22000 8.097
20.24000 3.362
20.26000 7.443
20.28000 11.663
20.30000 10.372
20.32000 12.371
20.34000 15.780
20.36000 12.098
20.38000 2.474
20.40000 -1.204
20.42000 4.420
20.44000 11.068
20.46000 13.707
20.48000 11.227
20.50000 15.683
20.52000 8.462
20.54000 6.236
20.56000 14.663
20.58000 7.211
20.60000 7.645
20.62000 5.666
20.64000 5.066
20.66000 8.287
20.68000 7.734
20.70000 10.108
20.72000 9.200
20.74000 0.653
20.76000 -2.429
20.78000 2.191
20.80000 7.490
20.82000 6.455
20.84000 1.455
20.86000 1.344
20.88000 5.956
20.90000 4.442
20.92000 6.284
20.94000 5.014
20.96000 0.487
20.98000 -0.613
21.00000 4.409
21.02000 4.991
21.04000 5.885
21.06000 2.305
21.08000 1.096
21.10000 7.634
21.12000 8.392
21.14000 2.379
21.16000 0.106
21.18000 -4.090
21.20000 -2.631
21.22000 5.822
21.24000 3.189
21.26000 5.674
21.28000 7.673
21.30000 6.439
21.32000 3.871
21.34000 4.579
21.36000 9.426
21.38000 9.037
21.40000 13.136
21.42000 10.019
21.44000 2.825
21.46000 4.547
21.48000 -0.288
21.50000 -0.596
21.52000 -0.713
21.54000 -3.939
21.56000 1.491
21.58000 2.565
21.60000 4.797
21.62000 6.437
21.64000 3.301
21.66000 8.893
21.68000 4.271
21.70000 -1.481
21.72000 0.238
21.74000 2.741
21.76000 9.893
21.78000 8.799
21.80000 -0.075
21.82000 5.038
21.84000 9.817
21.86000 9.544
21.88000 2.930
21.90000 0.841
21.92000 2.295
21.94000 5.638
21.96000 -0.338
21.98000 0.668
22.00000 4.285
22.02000 1.554
22.04000 6.942
22.06000 4.643
22.08000 4.693
22.10000 4.668
22.12000 7.311
22.14000 1.850
22.16000 5.706
22.18000 9.963
22.20000 9.276
22.22000 5.344
22.24000 6.042
22.26000 5.128
22.28000 3.215
22.30000 -2.470
22.32000 3.244
22.34000 6.392
22.36000 11.834
22.38000 1.596
22.40000 0.635
22.42000 7.746
22.44000 9.985
22.46000 6.644
22.48000 3.289
22.50000 5.449
22.52000 2.841
22.54000 4.248
22.56000 9.693
22.58000 17.492
22.60000 11.100
22.62000 4.547
22.64000 7.894
22.66000 12.236
22.68000 10.177
22.70000 3.641
22.72000 -0.553
22.74000 -1.173
22.76000 3.272
22.78000 6.803
22.80000 5.498
22.82000 10.299
22.84000 10.634
22.86000 5.893
22.88000 8.957
22.90000 7.436
22.92000 4.943
22.94000 3.082
22.96000 4.862
22.98000 3.804
23.00000 7.621
23.02000 4.258
23.04000 1.026
23.06000 6.809
23.08000 8.043
23.10000 6.465
23.12000 4.847
23.14000 3.953
23.16000 1.256
23.18000 3.731
23.20000 8.968
23.22000 8.094
23.24000 7.785
23.26000 12.693
23.28000 11.237
23.30000 8.333
23.32000 8.966
23.34000 9.934
23.36000 5.402
23.38000 2.730
23.40000 4.894
23.42000 7.411
23.44000 8.460
23.46000 3.915
23.48000 5.170
23.50000 6.973
23.52000 5.031
23.54000 -3.962
23.56000 -3.375
23.58000 4.169
23.60000 7.126
23.62000 7.925
23.64000 13.907
23.66000 14.174
23.68000 12.485
23.70000 11.159
23.72000 7.100
23.74000 7.004
23.76000 8.196
23.78000 10.088
23.80000 2.756
23.82000 4.159
23.84000 3.631
23.86000 9.153
23.88000 6.900
23.90000 5.391
23.92000 -1.292
23.94000 0.968
23.96000 8.452
23.98000 2.715
24.00000 0.886
24.02000 4.132
24.04000 6.947
24.06000 4.154
24.08000 5.979
24.10000 7.140
24.12000 5.112
24.14000 0.997
24.16000 2.291
24.18000 0.516
24.20000 6.767
24.22000 7.695
24.24000 -0.526
24.26000 -1.204
24.28000 7.048
24.30000 11.907
24.32000 7.722
24.34000 5.274
24.36000 3.394
24.38000 2.049
24.40000 2.666
24.42000 6.212
24.44000 2.701
24.46000 0.218
24.48000 4.341
24.50000 11.841
24.52000 9.194
24.54000 4.089
24.56000 6.455
24.58000 4.298
24.60000 7.598
24.62000 10.407
24.64000 2.729
24.66000 1.009
24.68000 1.071
24.70000 3.532
24.72000 3.131
24.74000 2.043
24.76000 1.375
24.78000 -1.464
24.80000 3.013
24.82000 7.819
24.84000 10.422
24.86000 8.145
24.88000 4.567
24.90000 2.571
24.92000 6.380
24.94000 4.400
24.96000 3.697
24.98000 4.327
25.00000 6.465
25.02000 7.986
25.04000 5.142
25.06000 0.641
25.08000 1.126
25.10000 -2.286
25.12000 -3.918
25.14000 -0.910
25.16000 4.288
25.18000 5.010
25.20000 -2.206
25.22000 3.615
25.24000 7.782
25.26000 9.955
25.28000 3.573
25.30000 4.905
25.32000 2.354
25.34000 0.176
25.36000 -1.621
25.38000 2.663
25.40000 1.095
25.42000 2.313
25.44000 -0.766
25.46000 1.840
25.48000 2.965
25.50000 5.110
25.52000 4.878
25.54000 3.956
25.56000 0.241
25.58000 -1.170
25.60000 0.286
25.62000 -0.228
25.64000 -2.355
25.66000 -0.498
25.68000 1.793
25.70000 0.208
25.72000 1.729
25.74000 0.388
25.76000 4.625
25.78000 7.376
25.80000 4.280
25.82000 -2.560
25.84000 -3.711
25.86000 4.097
25.88000 6.946
25.90000 1.716
25.92000 -1.388
25.94000 0.293
25.96000 1.388
25.98000 4.071
26.00000 2.836
26.02000 5.711
26.04000 1.148
26.06000 0.725
26.08000 0.256
26.10000 1.185
26.12000 4.421
26.14000 4.541
26.16000 4.614
26.18000 4.433
26.20000 4.344
26.22000 3.065
26.24000 4.955
26.26000 6.753
26.28000 3.242
26.30000 4.255
26.32000 9.968
26.34000 7.295
26.36000 3.072
26.38000 -0.148
26.40000 7.026
26.42000 11.740
26.44000 8.987
26.46000 0.663
26.48000 3.013
26.50000 7.124
26.52000 4.062
26.54000 0.078
26.56000 6.547
26.58000 1.790
26.60000 1.729
26.62000 0.053
26.64000 0.824
26.66000 -3.832
26.68000 -2.734
26.70000 -0.011
26.72000 3.174
26.74000 1.784
26.76000 1.312
26.78000 1.181
26.80000 1.134
26.82000 2.951
26.84000 0.943
26.86000 -0.506
26.88000 1.929
26.90000 -0.462
26.92000 0.573
26.94000 4.280
26.96000 1.184
26.98000 4.338
27.00000 5.496
27.02000 5.023
27.04000 1.965
27.06000 6.775
27.08000 6.349
27.10000 3.764
27.12000 3.867
27.14000 0.031
27.16000 -3.783
27.18000 1.505
27.20000 7.192
27.22000 7.143
27.24000 1.268
27.26000 0.480
27.28000 2.888
27.30000 6.592
27.32000 5.097
27.34000 5.222
27.36000 5.169
27.38000 4.600
27.40000 1.070
27.42000 -1.509
27.44000 5.815
27.46000 9.083
27.48000 2.061
27.50000 4.285
27.52000 2.053
27.54000 4.835
27.56000 3.749
27.58000 0.077
27.60000 1.281
27.62000 3.644
27.64000 5.578
27.66000 5.944
27.68000 2.947
27.70000 5.267
27.72000 7.889
27.74000 8.170
27.76000 9.992
27.78000 11.436
27.80000 3.209
27.82000 -3.553
27.84000 1.245
27.86000 3.208
27.88000 0.950
27.90000 2.888
27.92000 2.729
27.94000 -2.403
27.96000 -3.762
27.98000 3.521
28.00000 4.265
28.02000 6.454
28.04000 2.458
28.06000 1.934
28.08000 6.544
28.10000 6.531
28.12000 6.445
28.14000 6.714
28.16000 3.985
28.18000 1.816
28.20000 -0.415
28.22000 2.925
28.24000 1.566
28.26000 -2.578
28.28000 3.387
28.30000 4.801
28.32000 3.545
28.34000 4.597
28.36000 0.718
28.38000 -1.410
28.40000 -2.734
28.42000 2.269
28.44000 2.225
28.46000 6.782
28.48000 0.862
28.50000 3.330
28.52000 2.400
28.54000 7.469
28.56000 6.074
28.58000 1.592
28.60000 2.667
28.62000 3.112
28.64000 3.911
28.66000 2.423
28.68000 -2.369
28.70000 2.525
28.72000 1.343
28.74000 -2.386
28.76000 -2.741
28.78000 1.438
28.80000 4.474
28.82000 1.213
28.84000 -0.225
28.86000 4.804
28.88000 1.339
28.90000 1.703
28.92000 2.911
28.94000 0.535
28.96000 3.198
28.98000 2.894
29.00000 0.784
29.02000 -1.056
29.04000 0.054
29.06000 0.539
29.08000 6.263
29.10000 2.732
29.12000 -2.688
29.14000 3.045
29.16000 3.424
29.18000 1.931
29.20000 -0.344
29.22000 3.297
29.24000 6.388
29.26000 5.113
29.28000 2.960
29.30000 -1.942
29.32000 -3.252
29.34000 1.068
29.36000 -1.209
29.38000 -3.704
29.40000 1.217
29.42000 0.460
29.44000 -0.268
29.46000 2.956
29.48000 1.977
29.50000 4.023
29.52000 3.915
29.54000 -1.665
29.56000 -2.446
29.58000 -0.504
29.60000 -0.590
29.62000 1.588
29.64000 6.502
29.66000 2.856
29.68000 2.942
29.70000 3.195
29.72000 4.836
29.74000 2.827
29.76000 -0.661
29.78000 -3.684
29.80000 1.746
29.82000 2.864
29.84000 3.851
29.86000 3.242
29.88000 7.632
29.90000 3.496
29.92000 -0.537
29.94000 2.622
29.96000 -0.050
29.98000 0.408
30.00000 5.915
30.02000 3.603
30.04000 0.801
30.06000 0.603
30.08000 -0.620
30.10000 0.472
30.12000 3.392
30.14000 3.405
30.16000 3.424
30.18000 -1.730
30.20000 -1.832
30.22000 0.875
30.24000 -0.300
30.26000 -0.084
30.28000 4.400
30.30000 5.689
30.32000 4.182
30.34000 1.321
30.36000 -3.662
30.38000 0.790
30.40000 1.590
30.42000 1.577
30.44000 2.176
30.46000 1.093
30.48000 3.160
30.50000 -1.896
30.52000 1.316
30.54000 2.046
30.56000 2.128
30.58000 2.522
30.60000 4.694
30.62000 3.840
30.64000 0.393
30.66000 -2.714
30.68000 -2.195
30.70000 0.723
30.72000 3.381
30.74000 1.437
30.76000 1.477
30.78000 1.262
30.80000 2.163
30.82000 -0.435
30.84000 3.924
30.86000 8.413
30.88000 7.883
30.90000 4.992
30.92000 2.181
30.94000 -0.243
30.96000 8.782
30.98000 4.934
31.00000 -2.922
31.02000 -2.919
31.04000 -3.539
31.06000 -0.812
31.08000 4.298
31.10000 2.752
31.12000 2.090
31.14000 2.340
31.16000 1.597
31.18000 1.074
31.20000 1.773
31.22000 1.049
31.24000 3.231
31.26000 -2.512
31.28000 0.150
31.30000 2.704
31.32000 -0.639
31.34000 -3.607
31.36000 -3.134
31.38000 0.079
31.40000 3.066
31.42000 5.465
31.44000 1.059
31.46000 -0.398
31.48000 -3.603
31.50000 0.470
31.52000 0.538
31.54000 1.443
31.56000 2.159
31.58000 4.312
31.60000 4.769
31.62000 3.985
31.64000 -0.473
31.66000 -3.061
31.68000 -0.708
31.70000 0.619
31.72000 4.961
31.74000 1.141
31.76000 -1.270
31.78000 4.191
31.80000 3.585
31.82000 2.034
31.84000 2.013
31.86000 0.777
31.88000 1.657
31.90000 -3.119
31.92000 2.761
31.94000 1.888
31.96000 4.971
31.98000 4.906
32.00000 2.167
32.02000 4.324
32.04000 3.996
32.06000 -1.435
32.08000 -2.952
32.10000 -3.580
32.12000 0.118
32.14000 3.079
32.16000 4.811
32.18000 3.383
32.20000 1.478
32.22000 -1.986
32.24000 4.811
32.26000 7.821
32.28000 4.441
32.30000 -0.267
32.32000 1.496
32.34000 4.531
32.36000 3.684
32.38000 0.095
32.40000 0.333
32.42000 1.819
32.44000 0.948
32.46000 0.536
32.48000 -0.861
32.50000 1.368
32.52000 0.093
32.54000 2.360
32.56000 1.595
32.58000 1.319
32.60000 -0.167
32.62000 -3.217
32.64000 -0.530
32.66000 8.162
32.68000 6.064
32.70000 3.595
32.72000 1.049
32.74000 -3.548
32.76000 0.544
32.78000 3.284
32.80000 1.516
32.82000 0.628
32.84000 3.824
32.86000 2.067
32.88000 1.593
32.90000 5.828
32.92000 -0.522
32.94000 2.252
32.96000 4.572
32.98000 6.207
33.00000 3.671
33.02000 -0.150
33.04000 -1.289
33.06000 -0.726
33.08000 -3.546
33.10000 0.980
33.12000 5.084
33.14000 2.001
33.16000 -1.655
33.18000 2.063
33.20000 4.420
33.22000 4.870
33.24000 3.529
33.26000 4.192
33.28000 7.127
33.30000 4.470
33.32000 6.788
33.34000 8.266
33.36000 4.053
33.38000 0.148
33.40000 0.337
33.42000 5.755
33.44000 7.133
33.46000 7.587
33.48000 6.446
33.50000 2.516
33.52000 0.653
33.54000 4.077
33.56000 4.811
33.58000 0.771
33.60000 3.941
33.62000 5.481
33.64000 7.250
33.66000 7.394
33.68000 1.552
33.70000 4.938
33.72000 2.699
33.74000 2.886
33.76000 3.111
33.78000 1.752
33.80000 4.695
33.82000 2.207
33.84000 3.836
33.86000 7.284
33.88000 -1.206
33.90000 -0.049
33.92000 0.568
33.94000 -0.403
33.96000 3.199
33.98000 5.491
34.00000 6.116
34.02000 9.162
34.04000 11.677
34.06000 6.503
34.08000 3.573
34.10000 6.770
34.12000 7.335
34.14000 4.148
34.16000 -0.038
34.18000 2.692
34.20000 1.730
34.22000 -2.055
34.24000 -0.925
34.26000 4.490
34.28000 4.894
34.30000 0.117
34.32000 -3.510
34.34000 -0.815
34.36000 2.275
34.38000 4.178
34.40000 0.769
34.42000 -2.459
34.44000 0.496
34.46000 3.562
34.48000 6.089
34.50000 4.530
34.52000 5.930
34.54000 0.440
34.56000 3.802
34.58000 3.613
34.60000 4.964
34.62000 6.034
34.64000 2.630
34.66000 3.697
34.68000 3.263
34.70000 0.877
34.72000 2.619
34.74000 2.494
34.76000 2.138
34.78000 -1.933
34.80000 1.133
34.82000 2.455
34.84000 0.528
34.86000 -1.343
34.88000 -0.223
34.90000 0.591
34.92000 1.797
34.94000 3.251
34.96000 -1.934
34.98000 3.736
35.00000 7.009
35.02000 4.213
35.04000 9.031
35.06000 0.379
35.08000 0.394
35.10000 -3.490
35.12000 2.028
35.14000 7.851
35.16000 4.527
35.18000 2.608
35.20000 0.284
35.22000 0.287
35.24000 3.149
35.26000 1.816
35.28000 -1.659
35.30000 -2.398
35.32000 1.637
35.34000 -0.557
35.36000 -2.240
35.38000 -2.754
35.40000 -1.437
35.42000 -0.340
35.44000 4.141
35.46000 4.738
35.48000 0.366
35.50000 1.467
35.52000 -0.477
35.54000 2.205
35.56000 3.987
35.58000 1.839
35.60000 4.265
35.62000 0.022
35.64000 2.329
35.66000 1.753
35.68000 -0.773
35.70000 1.377
35.72000 2.843
35.74000 4.162
35.76000 1.865
35.78000 -1.657
35.80000 0.650
35.82000 -1.836
35.84000 2.513
35.86000 -0.630
35.88000 0.718
35.90000 1.203
35.92000 4.630
35.94000 4.485
35.96000 -2.014
35.98000 -3.472
36.00000 -0.002
36.02000 1.704
36.04000 4.437
36.06000 4.118
36.08000 1.832
36.10000 5.292
36.12000 0.856
36.14000 -0.713
36.16000 2.787
36.18000 0.895
36.20000 5.362
36.22000 0.909
36.24000 -1.703
36.26000 1.090
36.28000 1.205
36.30000 -1.281
36.32000 -1.488
36.34000 1.919
36.36000 -0.347
36.38000 -1.177
36.40000 0.710
36.42000 1.299
36.44000 0.446
36.46000 -0.642
36.48000 -2.571
36.50000 0.836
36.52000 1.521
36.54000 3.716
36.56000 0.791
36.58000 3.171
36.60000 1.825
36.62000 1.201
36.64000 2.195
36.66000 3.484
36.68000 -0.095
36.70000 -2.705
36.72000 0.302
36.74000 4.144
36.76000 -3.467
36.78000 -3.259
36.80000 2.056
36.82000 -3.470
36.84000 0.747
36.86000 7.022
36.88000 8.876
36.90000 5.261
36.92000 3.732
36.94000 2.157
36.96000 3.231
36.98000 0.969
37.00000 1.309
37.02000 3.362
37.04000 0.561
37.06000 1.140
37.08000 1.145
37.10000 2.318
37.12000 3.828
37.14000 1.725
37.16000 2.243
37.18000 0.480
37.20000 1.057
37.22000 -2.098
37.24000 -1.169
37.26000 4.595
37.28000 2.005
37.30000 1.380
37.32000 1.227
37.34000 2.324
37.36000 2.472
37.38000 0.366
37.40000 1.614
37.42000 3.140
37.44000 2.690
37.46000 3.280
37.48000 3.944
37.50000 4.859
37.52000 1.057
37.54000 3.621
37.56000 -2.056
37.58000 -3.515
37.60000 -1.007
37.62000 2.399
37.64000 1.534
37.66000 -0.995
37.68000 1.432
37.70000 -2.447
37.72000 -1.544
37.74000 2.012
37.76000 0.419
37.78000 3.235
37.80000 3.068
37.82000 4.927
37.84000 5.956
37.86000 4.855
37.88000 7.521
37.90000 2.663
37.92000 3.118
37.94000 8.252
37.96000 7.878
37.98000 -3.558
38.00000 2.136
38.02000 6.436
38.04000 6.809
38.06000 8.678
38.08000 14.171
38.10000 11.269
38.12000 6.876
38.14000 9.235
38.16000 4.281
38.18000 2.189
38.20000 5.802
38.22000 7.521
38.24000 5.780
38.26000 8.100
38.28000 12.186
38.30000 11.633
38.32000 8.673
38.34000 17.217
38.36000 16.501
38.38000 13.272
38.40000 10.369
38.42000 8.754
38.44000 8.436
38.46000 13.104
38.48000 16.251
38.50000 15.751
38.52000 12.779
38.54000 12.389
38.56000 11.200
38.58000 12.763
38.60000 12.803
38.62000 15.416
38.64000 22.377
38.66000 18.529
38.68000 14.496
38.70000 16.880
38.72000 22.822
38.74000 16.170
38.76000 14.954
38.78000 14.664
38.80000 15.012
38.82000 17.560
38.84000 15.631
38.86000 18.617
38.88000 21.945
38.90000 20.059
38.92000 22.922
38.94000 20.532
38.96000 20.890
38.98000 16.545
39.00000 19.711
39.02000 20.979
39.04000 22.053
39.06000 24.146
39.08000 26.753
39.10000 25.824
39.12000 26.369
39.14000 26.428
39.16000 26.359
39.18000 26.558
39.20000 29.422
39.22000 32.255
39.24000 29.764
39.26000 30.263
39.28000 33.207
39.30000 35.043
39.32000 38.336
39.34000 35.357
39.36000 40.173
39.38000 38.082
39.40000 38.673
39.42000 42.745
39.44000 42.730
39.46000 49.702
39.48000 48.662
39.50000 49.200
39.52000 54.928
39.54000 54.297
39.56000 56.199
39.58000 59.851
39.60000 61.031
39.62000 60.145
39.64000 63.927
39.66000 64.908
39.68000 67.561
39.70000 73.135
39.72000 73.343
39.74000 78.330
39.76000 84.507
39.78000 85.286
39.80000 87.560
39.82000 93.747
39.84000 98.334
39.86000 101.149
39.88000 114.789
39.90000 115.249
39.92000 122.908
39.94000 130.181
39.96000 131.754
39.98000 140.192
40.00000 144.509
40.02000 148.687
40.04000 157.174
40.06000 167.464
40.08000 172.952
40.10000 183.681
40.12000 191.397
40.14000 200.047
40.16000 210.641
40.18000 216.232
40.20000 233.559
40.22000 239.259
40.24000 250.476
40.26000 264.470
40.28000 272.452
40.30000 284.363
40.32000 292.685
40.34000 299.116
40.36000 317.294
40.38000 331.245
40.40000 354.147
40.42000 367.819
40.44000 386.693
40.46000 407.590
40.48000 417.635
40.50000 424.540
40.52000 439.228
40.54000 452.507
40.56000 465.885
40.58000 476.888
40.60000 479.338
40.62000 498.804
40.64000 514.845
40.66000 524.113
40.68000 534.636
40.70000 544.127
40.72000 547.349
40.74000 552.611
40.76000 553.580
40.78000 553.948
40.80000 551.520
40.82000 544.083
40.84000 539.350
40.86000 537.032
40.88000 533.191
40.90000 533.711
40.92000 525.696
40.94000 520.551
40.96000 513.897
40.98000 495.170
41.00000 485.586
41.02000 473.721
41.04000 457.601
41.06000 445.903
41.08000 434.885
41.10000 424.732
41.12000 400.726
41.14000 385.014
41.16000 364.511
41.18000 351.235
41.20000 345.940
41.22000 324.591
41.24000 308.065
41.26000 300.889
41.28000 282.910
41.30000 261.771
41.32000 255.948
41.34000 251.996
41.36000 234.719
41.38000 222.671
41.40000 206.177
41.42000 196.760
41.44000 188.294
41.46000 178.088
41.48000 172.978
41.50000 162.540
41.52000 153.703
41.54000 148.940
41.56000 137.495
41.58000 126.498
41.60000 119.909
41.62000 117.571
41.64000 121.190
41.66000 111.095
41.68000 101.100
41.70000 96.774
41.72000 88.278
41.74000 84.528
41.76000 81.135
41.78000 80.715
41.80000 75.589
41.82000 73.399
41.84000 70.731
41.86000 63.066
41.88000 56.937
41.90000 62.466
41.92000 60.777
41.94000 57.141
41.96000 57.022
41.98000 51.968
42.00000 45.765
42.02000 43.743
42.04000 46.728
42.06000 43.527
42.08000 40.518
42.10000 35.885
42.12000 35.404
42.14000 35.161
42.16000 28.150
42.18000 24.825
42.20000 25.259
42.22000 24.889
42.24000 28.835
42.26000 26.006
42.28000 26.142
42.30000 23.183
42.32000 19.069
42.34000 17.602
42.36000 18.630
42.38000 19.677
42.40000 21.169
42.42000 19.647
42.44000 11.537
42.46000 7.078
42.48000 7.189
42.50000 12.018
42.52000 15.399
42.54000 8.336
42.56000 8.249
42.58000 7.645
42.60000 6.523
42.62000 9.631
42.64000 10.117
42.66000 10.783
42.68000 12.334
42.70000 8.634
42.72000 8.086
42.74000 3.782
42.76000 1.616
42.78000 2.853
42.80000 3.405
42.82000 7.954
42.84000 2.276
42.86000 3.983
42.88000 9.441
42.90000 5.898
42.92000 6.444
42.94000 5.274
42.96000 7.124
42.98000 1.605
43.00000 -0.729
43.02000 2.517
43.04000 3.066
43.06000 4.720
43.08000 3.890
43.10000 -1.222
43.12000 2.588
43.14000 0.849
43.16000 3.603
43.18000 1.565
43.20000 6.003
43.22000 4.490
43.24000 -1.705
43.26000 -3.548
43.28000 -1.255
43.30000 0.514
43.32000 4.635
43.34000 6.517
43.36000 4.567
43.38000 0.259
43.40000 1.690
43.42000 3.362
43.44000 1.543
43.46000 -1.523
43.48000 3.658
43.50000 1.895
43.52000 0.266
43.54000 1.472
43.56000 1.761
43.58000 3.775
43.60000 3.641
43.62000 6.108
43.64000 2.170
43.66000 -1.416
43.68000 0.038
43.70000 1.286
43.72000 1.126
43.74000 0.479
43.76000 1.458
43.78000 -0.105
43.80000 -0.185
43.82000 -1.920
43.84000 -3.231
43.86000 -0.098
43.88000 2.383
43.90000 1.391
43.92000 1.334
43.94000 -0.763
43.96000 -3.452
43.98000 -1.644
44.00000 1.655
44.02000 1.484
44.04000 0.480
44.06000 -0.497
44.08000 -2.555
44.10000 2.430
44.12000 0.652
44.14000 -2.285
44.16000 -3.433
44.18000 -2.771
44.20000 0.058
44.22000 4.086
44.24000 4.673
44.26000 1.750
44.28000 0.891
44.30000 2.812
44.32000 5.865
44.34000 2.218
44.36000 3.076
44.38000 -1.625
44.40000 -3.169
44.42000 -3.417
44.44000 -2.727
44.46000 0.736
44.48000 8.166
44.50000 8.567
44.52000 2.380
44.54000 3.132
44.56000 2.221
44.58000 0.983
44.60000 2.576
44.62000 4.367
44.64000 3.010
44.66000 0.345
44.68000 -2.908
44.70000 0.394
44.72000 1.289
44.74000 3.027
44.76000 6.161
44.78000 3.070
44.80000 5.497
44.82000 3.829
44.84000 -3.275
44.86000 -3.400
44.88000 4.484
44.90000 4.559
44.92000 3.810
44.94000 4.228
44.96000 3.043
44.98000 0.629
45.00000 0.635
45.02000 -1.107
45.04000 1.397
45.06000 0.094
45.08000 5.130
45.10000 9.662
45.12000 6.539
45.14000 -3.386
45.16000 -1.326
45.18000 9.151
45.20000 9.195
45.22000 4.273
45.24000 3.737
45.26000 4.699
45.28000 4.619
45.30000 6.591
45.32000 6.750
45.34000 8.343
45.36000 4.100
45.38000 1.750
45.40000 6.368
45.42000 4.300
45.44000 5.113
45.46000 3.108
45.48000 1.740
45.50000 1.811
45.52000 5.852
45.54000 7.799
45.56000 5.288
45.58000 9.016
45.60000 9.947
45.62000 7.594
45.64000 9.122
45.66000 5.329
45.68000 2.889
45.70000 6.684
45.72000 1.556
45.74000 5.911
45.76000 6.217
45.78000 8.004
45.80000 1.321
45.82000 0.724
45.84000 4.148
45.86000 7.268
45.88000 5.335
45.90000 2.557
45.92000 12.962
45.94000 16.895
45.96000 13.812
45.98000 17.926
46.00000 14.109
46.02000 11.056
46.04000 7.044
46.06000 8.221
46.08000 13.832
46.10000 13.293
46.12000 13.231
46.14000 14.943
46.16000 16.628
46.18000 16.152
46.20000 13.366
46.22000 15.156
46.24000 17.341
46.26000 17.970
46.28000 22.938
46.30000 19.970
46.32000 26.867
46.34000 21.479
46.36000 22.731
46.38000 20.183
46.40000 25.857
46.42000 25.160
46.44000 23.096
46.46000 27.766
46.48000 25.668
46.50000 18.274
46.52000 24.490
46.54000 26.816
46.56000 29.436
46.58000 31.510
46.60000 35.031
46.62000 32.910
46.64000 25.677
46.66000 26.756
46.68000 27.037
46.70000 29.746
46.72000 34.622
46.74000 38.413
46.76000 37.754
46.78000 36.357
46.80000 33.888
46.82000 33.314
46.84000 32.032
46.86000 33.861
46.88000 39.418
46.90000 43.775
46.92000 38.337
46.94000 44.812
46.96000 45.731
46.98000 50.408
47.00000 51.106
47.02000 44.347
47.04000 43.541
47.06000 46.225
47.08000 47.223
47.10000 41.327
47.12000 42.383
47.14000 47.544
47.16000 52.172
47.18000 50.325
47.20000 47.831
47.22000 49.943
47.24000 47.215
47.26000 56.493
47.28000 58.747
47.30000 52.005
47.32000 51.877
47.34000 55.710
47.36000 51.483
47.38000 49.744
47.40000 50.297
47.42000 47.117
47.44000 44.558
47.46000 49.631
47.48000 49.843
47.50000 51.416
47.52000 47.642
47.54000 53.274
47.56000 56.923
47.58000 53.013
47.60000 49.772
47.62000 45.993
47.64000 44.165
47.66000 43.377
47.68000 40.177
47.70000 38.084
47.72000 38.314
47.74000 43.114
47.76000 43.202
47.78000 38.107
47.80000 32.471
47.82000 36.305
47.84000 42.545
47.86000 38.022
47.88000 34.385
47.90000 35.802
47.92000 35.478
47.94000 33.900
47.96000 34.597
47.98000 35.518
48.00000 29.058
48.02000 28.884
48.04000 26.235
48.06000 20.237
48.08000 24.817
48.10000 27.434
48.12000 32.142
48.14000 28.363
48.16000 23.383
48.18000 18.929
48.20000 19.373
48.22000 14.850
48.24000 11.460
48.26000 10.957
48.28000 15.651
48.30000 8.523
48.32000 1.470
48.34000 3.348
48.36000 11.156
48.38000 12.449
48.40000 8.527
48.42000 7.244
48.44000 5.399
48.46000 10.670
48.48000 13.549
48.50000 10.238
48.52000 10.270
48.54000 12.106
48.56000 13.280
48.58000 15.765
48.60000 13.722
48.62000 6.808
48.64000 5.678
48.66000 4.941
48.68000 8.526
48.70000 10.551
48.72000 8.015
48.74000 5.062
48.76000 7.738
48.78000 8.056
48.80000 12.311
48.82000 11.644
48.84000 9.818
48.86000 1.387
48.88000 6.676
48.90000 5.131
48.92000 6.897
48.94000 2.358
48.96000 0.735
48.98000 -0.575
49.00000 -1.849
49.02000 0.521
49.04000 2.204
49.06000 -0.490
49.08000 0.994
49.10000 1.613
49.12000 1.829
49.14000 0.785
49.16000 -1.492
49.18000 3.143
49.20000 5.123
49.22000 1.492
49.24000 0.956
49.26000 1.241
49.28000 2.731
49.30000 4.367
49.32000 0.542
49.34000 0.921
49.36000 0.848
49.38000 -0.181
49.40000 -0.942
49.42000 1.460
49.44000 -0.863
49.46000 -2.325
49.48000 0.566
49.50000 4.163
49.52000 1.406
49.54000 5.490
49.56000 6.743
49.58000 3.953
49.60000 0.726
49.62000 4.299
49.64000 0.055
49.66000 -2.974
49.68000 1.204
49.70000 7.822
49.72000 4.832
49.74000 3.375
49.76000 4.557
49.78000 4.153
49.80000 6.424
49.82000 4.511
49.84000 3.273
49.86000 4.133
49.88000 12.683
49.90000 9.729
49.92000 6.593
49.94000 0.054
49.96000 1.466
49.98000 3.211
50.00000 8.523
50.02000 9.010
50.04000 3.708
50.06000 1.448
50.08000 2.042
50.10000 -2.918
50.12000 1.022
50.14000 8.619
50.16000 1.877
50.18000 -2.486
50.20000 -0.484
50.22000 -2.842
50.24000 1.003
50.26000 6.782
50.28000 7.689
50.30000 5.671
50.32000 4.685
50.34000 12.871
50.36000 11.394
50.38000 3.668
50.40000 0.794
50.42000 0.510
50.44000 0.912
50.46000 -0.704
50.48000 3.595
50.50000 9.258
50.52000 9.080
50.54000 7.880
50.56000 3.924
50.58000 -2.876
50.60000 -0.173
50.62000 3.972
50.64000 7.449
50.66000 6.923
50.68000 0.495
50.70000 5.464
50.72000 5.172
50.74000 5.689
50.76000 4.973
50.78000 8.581
50.80000 11.545
50.82000 2.233
50.84000 1.353
50.86000 4.003
50.88000 3.080
50.90000 3.502
50.92000 7.060
50.94000 5.668
50.96000 9.030
50.98000 8.584
51.00000 7.719
51.02000 1.701
51.04000 1.763
51.06000 2.234
51.08000 8.135
51.10000 3.364
51.12000 0.848
51.14000 -2.863
51.16000 1.932
51.18000 6.318
51.20000 9.583
51.22000 3.946
51.24000 5.534
51.26000 1.635
51.28000 4.083
51.30000 2.610
51.32000 5.140
51.34000 2.683
51.36000 3.052
51.38000 7.057
51.40000 4.074
51.42000 1.889
51.44000 8.637
51.46000 8.836
51.48000 5.857
51.50000 6.679
51.52000 7.858
51.54000 4.989
51.56000 10.360
51.58000 9.408
51.60000 4.102
51.62000 1.032
51.64000 3.061
51.66000 2.106
51.68000 3.558
51.70000 3.211
51.72000 4.391
51.74000 5.674
51.76000 1.375
51.78000 2.279
51.80000 4.228
51.82000 -1.296
51.84000 0.614
51.86000 2.654
51.88000 2.110
51.90000 0.006
51.92000 5.678
51.94000 4.932
51.96000 6.644
51.98000 2.105
52.00000 2.650
52.02000 0.808
52.04000 1.380
52.06000 0.112
52.08000 2.649
52.10000 5.446
52.12000 6.379
52.14000 3.638
52.16000 4.087
52.18000 6.551
52.20000 6.217
52.22000 1.324
52.24000 4.598
52.26000 8.300
52.28000 1.137
52.30000 -2.840
52.32000 3.184
52.34000 8.262
52.36000 5.107
52.38000 7.476
52.40000 4.084
52.42000 2.392
52.44000 5.794
52.46000 1.174
52.48000 1.750
52.50000 4.696
52.52000 4.222
52.54000 5.180
52.56000 5.284
52.58000 5.543
52.60000 1.833
52.62000 -1.088
52.64000 1.838
52.66000 1.796
52.68000 2.662
52.70000 3.961
52.72000 1.915
52.74000 2.443
52.76000 3.107
52.78000 6.515
52.80000 7.245
52.82000 1.564
52.84000 2.529
52.86000 -0.365
52.88000 0.155
52.90000 3.941
52.92000 4.253
52.94000 2.930
52.96000 4.811
52.98000 3.292
53.00000 4.172
53.02000 3.513
53.04000 -0.189
53.06000 3.016
53.08000 3.453
53.10000 4.876
53.12000 6.527
53.14000 1.989
53.16000 -0.004
53.18000 0.712
53.20000 5.004
53.22000 5.533
53.24000 1.918
53.26000 0.347
53.28000 3.360
53.30000 0.989
53.32000 3.316
53.34000 -1.508
53.36000 -2.802
53.38000 -1.754
53.40000 0.814
53.42000 4.102
53.44000 7.294
53.46000 4.195
53.48000 5.280
53.50000 5.114
53.52000 2.581
53.54000 1.619
53.56000 5.606
53.58000 4.267
53.60000 6.060
53.62000 0.260
53.64000 1.313
53.66000 2.096
53.68000 5.002
53.70000 8.166
53.72000 5.023
53.74000 5.762
53.76000 3.086
53.78000 8.931
53.80000 5.691
53.82000 7.965
53.84000 3.670
53.86000 3.888
53.88000 7.604
53.90000 0.676
53.92000 -2.756
53.94000 3.227
53.96000 6.578
53.98000 4.790
54.00000 7.958
54.02000 2.698
54.04000 -1.069
54.06000 2.223
54.08000 4.244
54.10000 9.816
54.12000 6.200
54.14000 6.488
54.16000 5.983
54.18000 4.555
54.20000 -0.280
54.22000 4.283
54.24000 0.881
54.26000 0.927
54.28000 -0.154
54.30000 3.055
54.32000 4.505
54.34000 3.555
54.36000 4.103
54.38000 3.100
54.40000 0.594
54.42000 1.402
54.44000 2.626
54.46000 1.431
54.48000 -0.607
54.50000 1.774
54.52000 5.626
54.54000 4.278
54.56000 2.963
54.58000 4.784
54.60000 3.264
54.62000 -1.418
54.64000 1.714
54.66000 5.461
54.68000 8.410
54.70000 2.328
54.72000 -1.533
54.74000 1.402
54.76000 2.874
54.78000 1.690
54.80000 0.458
54.82000 1.332
54.84000 3.190
54.86000 -0.362
54.88000 -1.361
54.90000 0.427
54.92000 0.075
54.94000 1.272
54.96000 0.126
54.98000 4.137
55.00000 -0.321
55.02000 0.422
55.04000 1.695
55.06000 3.325
55.08000 1.935
55.10000 1.377
55.12000 3.697
55.14000 6.487
55.16000 6.581
55.18000 4.952
55.20000 6.531
55.22000 6.546
55.24000 5.993
55.26000 3.630
55.28000 3.731
55.30000 7.593
55.32000 5.835
55.34000 4.662
55.36000 2.603
55.38000 0.191
55.40000 5.266
55.42000 6.014
55.44000 1.839
55.46000 1.720
55.48000 5.071
55.50000 5.125
55.52000 3.488
55.54000 2.979
55.56000 4.947
55.58000 1.903
55.60000 2.983
55.62000 0.292
55.64000 -1.856
55.66000 3.300
55.68000 4.020
55.70000 3.902
55.72000 3.029
55.74000 2.864
55.76000 8.755
55.78000 5.046
55.80000 5.712
55.82000 6.605
55.84000 7.346
55.86000 4.221
55.88000 2.889
55.90000 1.692
55.92000 9.128
55.94000 8.528
55.96000 6.207
55.98000 5.604
56.00000 2.248
56.02000 7.043
56.04000 5.613
56.06000 6.698
56.08000 4.406
56.10000 2.894
56.12000 -1.200
56.14000 -2.695
56.16000 4.081
56.18000 5.719
56.20000 4.992
56.22000 5.490
56.24000 4.301
56.26000 0.687
56.28000 2.762
56.30000 5.150
56.32000 3.451
56.34000 2.637
56.36000 1.471
56.38000 3.030
56.40000 4.158
56.42000 5.438
56.44000 3.759
56.46000 3.031
56.48000 3.940
56.50000 0.864
56.52000 -2.696
56.54000 3.889
56.56000 4.180
56.58000 -0.904
56.60000 4.359
56.62000 8.140
56.64000 9.664
56.66000 4.184
56.68000 -1.652
56.70000 2.251
56.72000 7.043
56.74000 5.183
56.76000 8.416
56.78000 10.087
56.80000 8.504
56.82000 3.744
56.84000 1.215
56.86000 -1.043
56.88000 1.986
56.90000 7.035
56.92000 2.318
56.94000 -0.521
56.96000 5.151
56.98000 5.136
57.00000 0.004
57.02000 2.469
57.04000 3.255
57.06000 2.908
57.08000 1.707
57.10000 -1.314
57.12000 0.477
57.14000 1.759
57.16000 6.023
57.18000 4.096
57.20000 3.257
57.22000 3.934
57.24000 4.220
57.26000 6.994
57.28000 4.721
57.30000 3.320
57.32000 0.125
57.34000 1.714
57.36000 1.696
57.38000 2.164
57.40000 4.581
57.42000 4.935
57.44000 4.949
57.46000 2.662
57.48000 0.603
57.50000 3.487
57.52000 3.758
57.54000 5.846
57.56000 3.417
57.58000 5.428
57.60000 4.702
57.62000 1.675
57.64000 2.656
57.66000 8.033
57.68000 4.905
57.70000 3.830
57.72000 3.783
57.74000 2.909
57.76000 2.396
57.78000 4.583
57.80000 3.798
57.82000 2.356
57.84000 5.740
57.86000 6.633
57.88000 3.634
57.90000 -0.727
57.92000 -1.635
57.94000 -1.158
57.96000 1.693
57.98000 0.868
58.00000 2.033
58.02000 4.800
58.04000 4.897
58.06000 10.593
58.08000 1.553
58.10000 -2.655
58.12000 -0.773
58.14000 4.225
58.16000 5.021
58.18000 4.055
58.20000 0.531
58.22000 -0.106
58.24000 -1.538
58.26000 -1.790
58.28000 2.006
58.30000 7.070
58.32000 9.074
58.34000 2.423
58.36000 3.157
58.38000 4.422
58.40000 4.205
58.42000 1.630
58.44000 -2.494
58.46000 1.302
58.48000 9.307
58.50000 6.547
58.52000 5.174
58.54000 3.474
58.56000 6.622
58.58000 5.695
58.60000 5.737
58.62000 4.060
58.64000 0.203
58.66000 -0.796
58.68000 0.398
58.70000 5.412
58.72000 8.802
58.74000 6.443
58.76000 5.024
58.78000 5.778
58.80000 4.249
58.82000 0.686
58.84000 -0.875
58.86000 -0.991
58.88000 0.142
58.90000 3.924
58.92000 6.255
58.94000 5.232
58.96000 1.879
58.98000 4.228
59.00000 8.013
59.02000 0.245
59.04000 0.260
59.06000 5.656
59.08000 2.722
59.10000 3.477
59.12000 4.797
59.14000 -1.271
59.16000 0.127
59.18000 3.107
59.20000 3.581
59.22000 1.599
59.24000 -0.379
59.26000 -0.529
59.28000 -0.579
59.30000 3.042
59.32000 4.888
59.34000 3.721
59.36000 4.385
59.38000 7.023
59.40000 9.181
59.42000 7.519
59.44000 3.231
59.46000 2.866
59.48000 8.232
59.50000 5.989
59.52000 5.942
59.54000 10.050
59.56000 6.999
59.58000 3.149
59.60000 3.504
59.62000 4.897
59.64000 5.596
59.66000 -2.580
59.68000 1.173
59.70000 5.579
59.72000 8.382
59.74000 2.014
59.76000 1.627
59.78000 4.529
59.80000 4.283
59.82000 4.735
59.84000 1.878
59.86000 2.553
59.88000 0.955
59.90000 2.073
59.92000 -1.432
59.94000 -1.477
59.96000 0.097
59.98000 -0.369
60.00000 0.802
60.02000 2.366
60.04000 3.547
60.06000 2.329
60.08000 4.182
60.10000 1.651
60.12000 2.707
60.14000 4.229
60.16000 2.532
60.18000 1.940
60.20000 7.025
60.22000 4.677
60.24000 3.649
60.26000 3.092
60.28000 0.635
60.30000 0.552
60.32000 2.369
60.34000 -1.170
60.36000 1.546
60.38000 3.123
60.40000 2.923
60.42000 2.830
60.44000 3.438
60.46000 2.878
60.48000 1.785
60.50000 2.962
60.52000 1.757
60.54000 1.562
60.56000 5.126
60.58000 6.470
60.60000 3.573
60.62000 -1.046
60.64000 -1.520
60.66000 1.284
60.68000 -0.875
60.70000 4.402
60.72000 4.024
60.74000 0.107
60.76000 1.196
60.78000 2.293
60.80000 1.742
60.82000 1.420
60.84000 -1.458
60.86000 -2.222
60.88000 0.728
60.90000 1.435
60.92000 1.710
60.94000 1.208
60.96000 1.340
60.98000 -0.269
61.00000 0.711
61.02000 3.473
61.04000 4.031
61.06000 0.399
61.08000 -2.592
61.10000 3.435
61.12000 5.396
61.14000 -0.710
61.16000 -0.531
61.18000 -0.701
61.20000 0.658
61.22000 1.205
61.24000 3.374
61.26000 3.586
61.28000 3.110
61.30000 -1.652
61.32000 2.919
61.34000 12.187
61.36000 7.427
61.38000 -1.076
61.40000 -1.862
61.42000 -0.866
61.44000 -1.210
61.46000 3.028
61.48000 2.189
61.50000 4.137
61.52000 -1.790
61.54000 1.402
61.56000 3.294
61.58000 2.058
61.60000 0.979
61.62000 0.821
61.64000 -2.565
61.66000 3.186
61.68000 2.772
61.70000 0.807
61.72000 2.303
61.74000 1.995
61.76000 -0.076
61.78000 1.758
61.80000 0.647
61.82000 5.121
61.84000 7.252
61.86000 4.019
61.88000 2.054
61.90000 3.550
61.92000 4.302
61.94000 3.668
61.96000 2.694
61.98000 2.640
62.00000 3.046
62.02000 -0.150
62.04000 -0.577
62.06000 1.676
62.08000 -1.035
62.10000 -0.037
62.12000 -1.135
62.14000 0.508
62.16000 2.789
62.18000 0.381
62.20000 0.030
62.22000 5.017
62.24000 4.875
62.26000 2.123
62.28000 3.056
62.30000 2.365
62.32000 3.578
62.34000 5.475
62.36000 4.537
62.38000 5.361
62.40000 3.885
62.42000 4.488
62.44000 0.685
62.46000 0.937
62.48000 -0.005
62.50000 0.389
62.52000 -0.686
62.54000 0.206
62.56000 0.684
62.58000 1.641
62.60000 5.498
62.62000 2.863
62.64000 4.834
62.66000 5.667
62.68000 6.161
62.70000 7.680
62.72000 9.183
62.74000 4.312
62.76000 6.584
62.78000 3.369
62.80000 3.449
62.82000 5.613
62.84000 5.467
62.86000 6.686
62.88000 6.010
62.90000 0.992
62.92000 3.083
62.94000 5.237
62.96000 5.492
62.98000 6.811
63.00000 3.570
63.02000 -2.461
63.04000 2.950
63.06000 4.830
63.08000 0.845
63.10000 1.172
63.12000 6.577
63.14000 7.101
63.16000 6.246
63.18000 3.290
63.20000 3.233
63.22000 4.367
63.24000 3.174
63.26000 2.714
63.28000 6.427
63.30000 9.322
63.32000 8.635
63.34000 4.740
63.36000 1.710
63.38000 4.341
63.40000 4.814
63.42000 5.663
63.44000 4.696
63.46000 6.454
63.48000 6.797
63.50000 2.675
63.52000 1.878
63.54000 1.911
63.56000 5.076
63.58000 3.720
63.60000 2.131
63.62000 4.937
63.64000 3.094
63.66000 4.670
63.68000 5.328
63.70000 3.276
63.72000 5.178
63.74000 4.042
63.76000 4.322
63.78000 4.073
63.80000 -0.838
63.82000 2.078
63.84000 1.494
63.86000 2.384
63.88000 5.836
63.90000 1.397
63.92000 -1.429
63.94000 0.552
63.96000 0.704
63.98000 0.160
64.00000 -0.529
64.02000 1.611
64.04000 2.323
64.06000 2.825
64.08000 1.676
64.10000 4.405
64.12000 5.483
64.14000 -0.495
64.16000 -1.555
64.18000 -0.389
64.20000 3.960
64.22000 3.342
64.24000 -0.911
64.26000 -0.580
64.28000 0.544
64.30000 0.463
64.32000 2.089
64.34000 3.657
64.36000 0.846
64.38000 1.966
64.40000 2.251
64.42000 -2.094
64.44000 -2.480
64.46000 -2.098
64.48000 0.280
64.50000 1.851
64.52000 0.963
64.54000 2.042
64.56000 -0.721
64.58000 0.693
64.60000 1.009
64.62000 0.872
64.64000 -0.475
64.66000 1.118
64.68000 0.905
64.70000 0.618
64.72000 3.808
64.74000 3.198
64.76000 2.034
64.78000 -0.427
64.80000 -0.359
64.82000 2.187
64.84000 6.023
64.86000 4.165
64.88000 0.781
64.90000 1.679
64.92000 2.543
64.94000 3.256
64.96000 1.287
64.98000 0.660
65.00000 0.123
65.02000 2.344
65.04000 0.714
65.06000 -0.159
65.08000 -0.034
65.10000 2.413
65.12000 3.921
65.14000 2.693
65.16000 3.069
65.18000 5.726
65.20000 1.941
65.22000 0.501
65.24000 1.746
65.26000 2.692
65.28000 -0.175
65.30000 0.009
65.32000 3.136
65.34000 3.415
65.36000 1.099
65.38000 4.966
65.40000 2.692
65.42000 3.805
65.44000 4.777
65.46000 7.961
65.48000 4.815
65.50000 2.340
65.52000 0.962
65.54000 0.165
65.56000 1.977
65.58000 2.274
65.60000 2.652
65.62000 5.274
65.64000 1.955
65.66000 -2.498
65.68000 -0.761
65.70000 0.856
65.72000 5.136
65.74000 4.567
65.76000 4.262
65.78000 3.522
65.80000 -1.511
65.82000 0.497
65.84000 2.194
65.86000 5.377
65.88000 6.462
65.90000 2.392
65.92000 3.227
65.94000 4.509
65.96000 2.808
65.98000 3.893
66.00000 5.188
66.02000 5.147
66.04000 5.887
66.06000 1.879
66.08000 -0.129
66.10000 -0.089
66.12000 1.846
66.14000 -0.267
66.16000 3.924
66.18000 6.176
66.20000 4.360
66.22000 3.244
66.24000 2.684
66.26000 3.150
66.28000 2.951
66.30000 5.507
66.32000 6.284
66.34000 0.553
66.36000 1.983
66.38000 1.933
66.40000 1.202
66.42000 1.122
66.44000 0.735
66.46000 1.491
66.48000 2.526
66.50000 0.689
66.52000 0.306
66.54000 1.258
66.56000 -0.917
66.58000 0.338
66.60000 2.313
66.62000 3.579
66.64000 0.673
66.66000 0.605
66.68000 3.872
66.70000 5.152
66.72000 1.679
66.74000 3.658
66.76000 2.627
66.78000 1.951
66.80000 1.967
66.82000 0.789
66.84000 -1.098
66.86000 1.013
66.88000 0.751
66.90000 1.095
66.92000 2.563
66.94000 3.785
66.96000 1.555
66.98000 2.056
67.00000 5.375
67.02000 3.668
67.04000 2.933
67.06000 0.334
67.08000 1.987
67.10000 -2.561
67.12000 -0.313
67.14000 4.296
67.16000 7.110
67.18000 3.308
67.20000 4.271
67.22000 4.360
67.24000 0.110
67.26000 0.939
67.28000 4.606
67.30000 4.487
67.32000 -0.929
67.34000 3.724
67.36000 3.184
67.38000 2.794
67.40000 0.633
67.42000 -1.832
67.44000 -2.576
67.46000 -0.883
67.48000 1.812
67.50000 3.208
67.52000 1.023
67.54000 1.502
67.56000 2.182
67.58000 3.913
67.60000 2.577
67.62000 2.975
67.64000 -0.224
67.66000 -1.767
67.68000 0.239
67.70000 4.241
67.72000 6.093
67.74000 5.868
67.76000 6.398
67.78000 0.898
67.80000 0.480
67.82000 -0.892
67.84000 1.098
67.86000 3.781
67.88000 3.915
67.90000 6.058
67.92000 6.141
67.94000 5.458
67.96000 4.809
67.98000 1.538
68.00000 1.242
68.02000 1.054
68.04000 5.234
68.06000 5.211
68.08000 2.059
68.10000 -0.848
68.12000 0.475
68.14000 4.048
68.16000 5.135
68.18000 6.912
68.20000 6.955
68.22000 6.257
68.24000 5.014
68.26000 3.586
68.28000 5.715
68.30000 1.886
68.32000 5.013
68.34000 6.824
68.36000 7.707
68.38000 3.794
68.40000 6.043
68.42000 12.379
68.44000 7.997
68.46000 10.403
68.48000 12.173
68.50000 12.216
68.52000 9.841
68.54000 9.394
68.56000 5.806
68.58000 4.654
68.60000 6.560
68.62000 6.208
68.64000 7.723
68.66000 9.015
68.68000 9.133
68.70000 11.061
68.72000 14.655
68.74000 14.062
68.76000 13.963
68.78000 9.262
68.80000 10.887
68.82000 13.443
68.84000 15.949
68.86000 16.084
68.88000 15.092
68.90000 18.043
68.92000 16.872
68.94000 14.945
68.96000 13.266
68.98000 13.886
69.00000 17.156
69.02000 16.402
69.04000 18.835
69.06000 20.588
69.08000 19.648
69.10000 18.011
69.12000 18.891
69.14000 22.570
69.16000 19.855
69.18000 16.741
69.20000 18.877
69.22000 18.560
69.24000 20.568
69.26000 23.164
69.28000 22.949
69.30000 21.033
69.32000 17.266
69.34000 21.162
69.36000 20.106
69.38000 17.843
69.40000 16.992
69.42000 20.606
69.44000 21.722
69.46000 21.158
69.48000 21.092
69.50000 15.117
69.52000 15.181
69.54000 16.803
69.56000 11.921
69.58000 13.897
69.60000 15.637
69.62000 16.879
69.64000 11.899
69.66000 12.884
69.68000 11.522
69.70000 11.580
69.72000 13.112
69.74000 12.669
69.76000 8.661
69.78000 10.392
69.80000 10.920
69.82000 5.178
69.84000 7.170
69.86000 8.548
69.88000 9.286
69.90000 8.989
69.92000 3.653
69.94000 6.225
69.96000 9.059
69.98000 9.927
70.00000 10.726
70.02000 5.961
70.04000 0.788
70.06000 -0.348
70.08000 5.647
70.10000 6.084
70.12000 7.844
70.14000 9.009
70.16000 1.948
70.18000 4.018
70.20000 4.211
70.22000 1.155
70.24000 2.877
70.26000 5.513
70.28000 4.586
70.30000 1.848
70.32000 2.976
70.34000 1.529
70.36000 -0.830
70.38000 0.717
70.40000 4.235
70.42000 2.583
70.44000 2.744
70.46000 4.899
70.48000 1.658
70.50000 -0.393
70.52000 2.048
70.54000 4.662
70.56000 2.283
70.58000 5.753
70.60000 5.216
70.62000 1.078
70.64000 0.272
70.66000 3.795
70.68000 3.964
70.70000 0.966
70.72000 0.548
70.74000 3.311
70.76000 4.927
70.78000 1.337
70.80000 1.282
70.82000 0.116
70.84000 0.114
70.86000 2.513
70.88000 0.973
70.90000 2.279
70.92000 -2.021
70.94000 -2.047
70.96000 -2.483
70.98000 -0.517
71.00000 2.747
71.02000 5.229
71.04000 -0.758
71.06000 0.325
71.08000 0.761
71.10000 4.408
71.12000 5.848
71.14000 3.438
71.16000 2.919
71.18000 3.196
71.20000 4.858
71.22000 0.988
71.24000 4.813
71.26000 2.355
71.28000 0.724
71.30000 -0.886
71.32000 1.371
71.34000 1.103
71.36000 -1.101
71.38000 5.523
71.40000 7.885
71.42000 4.575
71.44000 1.279
71.46000 3.154
71.48000 4.356
71.50000 3.601
71.52000 3.039
71.54000 2.997
71.56000 1.972
71.58000 -0.631
71.60000 -2.412
71.62000 1.739
71.64000 3.033
71.66000 -0.524
71.68000 0.426
71.70000 1.920
71.72000 5.331
71.74000 0.346
71.76000 4.312
71.78000 4.597
71.80000 -1.082
71.82000 2.205
71.84000 -1.724
71.86000 -1.986
71.88000 -0.143
71.90000 -0.189
71.92000 -0.053
71.94000 0.313
71.96000 4.881
71.98000 2.676
72.00000 -1.482
72.02000 1.158
72.04000 2.426
72.06000 2.813
72.08000 -0.385
72.10000 0.126
72.12000 -0.043
72.14000 7.093
72.16000 6.417
72.18000 4.034
72.20000 2.800
72.22000 8.423
72.24000 3.628
72.26000 1.111
72.28000 -1.466
72.30000 -1.522
72.32000 -1.700
72.34000 0.121
72.36000 -1.349
72.38000 -1.708
72.40000 -0.068
72.42000 -0.514
72.44000 -1.196
72.46000 1.526
72.48000 4.060
72.50000 0.701
72.52000 1.865
72.54000 0.573
72.56000 0.413
72.58000 -2.360
72.60000 -1.161
72.62000 1.356
72.64000 2.814
72.66000 -0.268
72.68000 2.764
72.70000 3.281
72.72000 1.428
72.74000 2.839
72.76000 8.658
72.78000 5.454
72.80000 4.333
72.82000 5.002
72.84000 1.017
72.86000 1.528
72.88000 -0.547
72.90000 3.397
72.92000 5.302
72.94000 0.525
72.96000 -1.601
72.98000 1.233
73.00000 11.237
73.02000 6.418
73.04000 6.328
73.06000 3.872
73.08000 3.479
73.10000 -0.407
73.12000 3.453
73.14000 2.914
73.16000 -1.259
73.18000 0.064
73.20000 0.368
73.22000 2.456
73.24000 3.582
73.26000 3.170
73.28000 5.007
73.30000 3.097
73.32000 1.325
73.34000 5.569
73.36000 1.833
73.38000 0.478
73.40000 -0.377
73.42000 1.139
73.44000 -1.838
73.46000 -0.639
73.48000 -1.941
73.50000 0.561
73.52000 -1.144
73.54000 0.977
73.56000 5.863
73.58000 2.976
73.60000 2.207
73.62000 0.614
73.64000 0.312
73.66000 3.491
73.68000 0.225
73.70000 1.244
73.72000 3.666
73.74000 4.508
73.76000 5.680
73.78000 4.652
73.80000 5.125
73.82000 -1.067
73.84000 2.061
73.86000 0.440
73.88000 -0.331
73.90000 1.875
73.92000 -2.342
73.94000 2.757
73.96000 -0.614
73.98000 -0.949
74.00000 4.381
74.02000 4.263
74.04000 1.244
74.06000 1.525
74.08000 0.227
74.10000 0.977
74.12000 -0.701
74.14000 0.749
74.16000 3.056
74.18000 -0.318
74.20000 -0.992
74.22000 2.172
74.24000 1.491
74.26000 1.390
74.28000 3.385
74.30000 5.338
74.32000 3.388
74.34000 1.786
74.36000 2.221
74.38000 0.060
74.40000 0.156
74.42000 0.404
74.44000 1.031
74.46000 4.649
74.48000 0.636
74.50000 2.471
74.52000 4.042
74.54000 3.457
74.56000 3.141
74.58000 4.791
74.60000 -0.208
74.62000 -0.934
74.64000 2.334
74.66000 4.662
74.68000 6.599
74.70000 2.545
74.72000 1.598
74.74000 0.295
74.76000 -1.206
74.78000 2.090
74.80000 1.686
74.82000 2.826
74.84000 -0.818
74.86000 4.168
74.88000 7.060
74.90000 1.550
74.92000 5.171
74.94000 9.008
74.96000 4.004
74.98000 2.678
75.00000 1.995
75.02000 1.576
75.04000 5.246
75.06000 6.849
75.08000 7.499
75.10000 6.118
75.12000 5.919
75.14000 7.558
75.16000 10.314
75.18000 9.301
75.20000 4.379
75.22000 1.035
75.24000 1.290
75.26000 6.911
75.28000 6.564
75.30000 10.615
75.32000 8.161
75.34000 2.231
75.36000 4.733
75.38000 8.241
75.40000 6.825
75.42000 6.784
75.44000 8.597
75.46000 1.624
75.48000 2.532
75.50000 -2.253
75.52000 3.781
75.54000 7.020
75.56000 8.406
75.58000 5.428
75.60000 5.753
75.62000 0.634
75.64000 2.248
75.66000 6.838
75.68000 7.609
75.70000 6.229
75.72000 2.530
75.74000 5.618
75.76000 5.496
75.78000 5.790
75.80000 3.925
75.82000 5.012
75.84000 1.234
75.86000 4.709
75.88000 7.136
75.90000 4.502
75.92000 0.738
75.94000 0.041
75.96000 4.845
75.98000 3.787
76.00000 4.443
76.02000 8.181
76.04000 5.509
76.06000 1.539
76.08000 -0.572
76.10000 1.251
76.12000 4.788
76.14000 8.027
76.16000 7.382
76.18000 4.533
76.20000 4.759
76.22000 8.582
76.24000 9.249
76.26000 1.189
76.28000 4.272
76.30000 4.107
76.32000 -1.210
76.34000 -2.304
76.36000 -1.099
76.38000 6.955
76.40000 9.721
76.42000 6.216
76.44000 5.760
76.46000 9.147
76.48000 9.244
76.50000 7.950
76.52000 0.802
76.54000 1.256
76.56000 2.832
76.58000 2.218
76.60000 3.508
76.62000 2.399
76.64000 0.667
76.66000 4.956
76.68000 0.844
76.70000 1.390
76.72000 -1.136
76.74000 2.290
76.76000 1.870
76.78000 -2.322
76.80000 3.796
76.82000 5.651
76.84000 5.520
76.86000 4.729
76.88000 4.426
76.90000 0.984
76.92000 2.382
76.94000 4.348
76.96000 4.312
76.98000 3.828
77.00000 9.858
77.02000 9.715
77.04000 5.226
77.06000 4.017
77.08000 2.791
77.10000 6.074
77.12000 5.296
77.14000 5.484
77.16000 4.740
77.18000 6.088
77.20000 4.037
77.22000 1.640
77.24000 3.137
77.26000 2.750
77.28000 1.404
77.30000 -2.329
77.32000 -2.073
77.34000 4.893
77.36000 9.222
77.38000 8.591
77.40000 8.529
77.42000 7.771
77.44000 4.880
77.46000 3.138
77.48000 3.300
77.50000 4.625
77.52000 3.769
77.54000 0.511
77.56000 2.938
77.58000 3.136
77.60000 5.080
77.62000 6.728
77.64000 6.289
77.66000 6.764
77.68000 3.022
77.70000 2.593
77.72000 1.291
77.74000 -0.717
77.76000 -2.019
77.78000 0.564
77.80000 -0.006
77.82000 1.198
77.84000 4.002
77.86000 8.170
77.88000 6.824
77.90000 9.319
77.92000 5.264
77.94000 3.066
77.96000 4.500
77.98000 4.089
78.00000 3.355
78.02000 0.206
78.04000 -2.361
78.06000 0.393
78.08000 5.869
78.10000 3.632
78.12000 2.564
78.14000 5.042
78.16000 3.295
78.18000 -0.018
78.20000 4.242
78.22000 5.073
78.24000 7.495
78.26000 3.285
78.28000 4.107
78.30000 3.453
78.32000 -1.311
78.34000 0.854
78.36000 3.447
78.38000 2.953
78.40000 1.526
78.42000 0.357
78.44000 3.036
78.46000 2.112
78.48000 1.875
78.50000 5.102
78.52000 0.259
78.54000 0.607
78.56000 3.335
78.58000 3.057
78.60000 0.765
78.62000 1.190
78.64000 -1.334
78.66000 2.727
78.68000 4.275
78.70000 3.678
78.72000 4.832
78.74000 0.505
78.76000 1.149
78.78000 -1.683
78.80000 -0.939
78.82000 3.752
78.84000 0.694
78.86000 3.209
78.88000 2.638
78.90000 3.990
78.92000 0.357
78.94000 0.035
78.96000 0.308
78.98000 -0.929
79.00000 0.478
79.02000 3.792
79.04000 2.282
79.06000 2.882
79.08000 0.929
79.10000 1.175
79.12000 2.936
79.14000 3.343
79.16000 2.056
79.18000 4.824
79.20000 4.304
79.22000 1.859
79.24000 3.117
79.26000 2.674
79.28000 2.604
79.30000 -0.075
79.32000 -2.398
79.34000 4.838
79.36000 4.857
79.38000 4.155
79.40000 4.823
79.42000 4.188
79.44000 1.010
79.46000 0.111
79.48000 -1.432
79.50000 2.369
79.52000 2.260
79.54000 3.271
79.56000 0.553
79.58000 2.967
79.60000 0.917
79.62000 -0.166
79.64000 0.620
79.66000 0.840
79.68000 2.983
79.70000 3.307
79.72000 -0.281
79.74000 2.979
79.76000 6.551
79.78000 2.353
79.80000 -1.327
79.82000 0.722
79.84000 5.823
79.86000 2.962
79.88000 -0.024
79.90000 2.306
79.92000 2.687
79.94000 3.723
79.96000 0.231
79.98000 -2.127
80.00000 -1.078
80.02000 -0.578
80.04000 -2.426
80.06000 -0.709
80.08000 -1.650
80.10000 -1.891
80.12000 4.805
80.14000 8.405
80.16000 5.273
80.18000 2.481
80.20000 4.001
80.22000 7.017
80.24000 5.806
80.26000 3.732
80.28000 6.244
80.30000 3.662
80.32000 0.835
80.34000 0.985
80.36000 5.022
80.38000 4.533
80.40000 -1.225
80.42000 0.558
80.44000 -2.021
80.46000 0.176
80.48000 1.161
80.50000 0.679
80.52000 -0.741
80.54000 4.562
80.56000 6.011
80.58000 5.908
80.60000 4.400
80.62000 4.404
80.64000 6.695
80.66000 4.314
80.68000 -0.068
80.70000 3.760
80.72000 3.916
80.74000 4.327
80.76000 5.376
80.78000 4.225
80.80000 1.918
80.82000 0.776
80.84000 6.574
80.86000 5.776
80.88000 -2.425
80.90000 1.123
80.92000 1.520
80.94000 2.328
80.96000 -0.117
80.98000 0.852
81.00000 3.452
81.02000 1.915
81.04000 4.258
81.06000 9.761
81.08000 2.605
81.10000 0.953
81.12000 6.168
81.14000 7.854
81.16000 6.162
81.18000 5.315
81.20000 2.526
81.22000 0.623
81.24000 3.111
81.26000 -2.430
81.28000 -2.431
81.30000 3.610
81.32000 2.718
81.34000 5.428
81.36000 4.079
81.38000 1.392
81.40000 5.508
81.42000 4.004
81.44000 4.626
81.46000 -0.460
81.48000 -0.498
81.50000 -0.728
81.52000 6.367
81.54000 7.909
81.56000 6.211
81.58000 1.822
81.60000 2.252
81.62000 3.820
81.64000 5.745
81.66000 4.968
81.68000 5.549
81.70000 4.318
81.72000 5.909
81.74000 5.682
81.76000 7.980
81.78000 5.693
81.80000 8.841
81.82000 8.141
81.84000 3.964
81.86000 5.961
81.88000 4.989
81.90000 2.355
81.92000 -0.084
81.94000 0.459
81.96000 4.028
81.98000 5.769
82.00000 3.434
82.02000 2.385
82.04000 1.865
82.06000 1.315
82.08000 1.658
82.10000 1.267
82.12000 3.780
82.14000 3.593
82.16000 3.393
82.18000 0.995
82.20000 0.084
82.22000 5.946
82.24000 6.321
82.26000 1.397
82.28000 3.105
82.30000 3.100
82.32000 -0.170
82.34000 -0.029
82.36000 1.670
82.38000 4.754
82.40000 4.973
82.42000 6.344
82.44000 12.106
82.46000 10.113
82.48000 12.312
82.50000 9.202
82.52000 3.926
82.54000 7.598
82.56000 4.457
82.58000 3.910
82.60000 6.928
82.62000 11.282
82.64000 9.754
82.66000 12.880
82.68000 6.492
82.70000 6.530
82.72000 8.118
82.74000 10.225
82.76000 5.106
82.78000 5.956
82.80000 2.849
82.82000 2.317
82.84000 7.099
82.86000 9.874
82.88000 14.411
82.90000 13.814
82.92000 13.218
82.94000 7.962
82.96000 12.092
82.98000 11.376
83.00000 14.876
83.02000 13.670
83.04000 15.880
83.06000 13.518
83.08000 9.317
83.10000 10.525
83.12000 16.050
83.14000 16.117
83.16000 11.594
83.18000 15.701
83.20000 20.488
83.22000 15.474
83.24000 13.215
83.26000 12.135
83.28000 16.939
83.30000 17.494
83.32000 23.683
83.34000 22.150
83.36000 23.621
83.38000 24.005
83.40000 23.747
83.42000 22.064
83.44000 21.497
83.46000 19.498
83.48000 20.144
83.50000 18.323
83.52000 19.325
83.54000 20.797
83.56000 23.072
83.58000 18.727
83.60000 13.303
83.62000 19.514
83.64000 26.909
83.66000 28.303
83.68000 30.707
83.70000 27.640
83.72000 20.525
83.74000 18.281
83.76000 14.543
83.78000 15.053
83.80000 21.528
83.82000 24.118
83.84000 19.985
83.86000 13.095
83.88000 17.117
83.90000 19.293
83.92000 20.544
83.94000 19.652
83.96000 22.091
83.98000 20.501
84.00000 19.726
84.02000 18.373
84.04000 15.590
84.06000 18.130
84.08000 19.891
84.10000 20.582
84.12000 20.333
84.14000 18.116
84.16000 13.157
84.18000 10.589
84.20000 15.975
84.22000 22.487
84.24000 19.898
84.26000 13.593
84.28000 12.035
84.30000 14.606
84.32000 17.704
84.34000 13.150
84.36000 11.596
84.38000 14.487
84.40000 13.338
84.42000 10.815
84.44000 15.204
84.46000 9.792
84.48000 11.097
84.50000 6.398
84.52000 8.522
84.54000 6.075
84.56000 6.488
84.58000 8.296
84.60000 4.653
84.62000 8.363
84.64000 12.845
84.66000 17.920
84.68000 14.903
84.70000 9.533
84.72000 15.138
84.74000 12.429
84.76000 5.248
84.78000 3.722
84.80000 6.105
84.82000 8.041
84.84000 6.892
84.86000 12.744
84.88000 11.342
84.90000 6.592
84.92000 8.367
84.94000 7.271
84.96000 3.112
84.98000 6.955
85.00000 6.987
85.02000 5.244
85.04000 1.803
85.06000 4.444
85.08000 -0.555
85.10000 0.899
85.12000 3.743
85.14000 4.064
85.16000 6.118
85.18000 5.777
85.20000 5.175
85.22000 5.310
85.24000 0.773
85.26000 3.163
85.28000 4.975
85.30000 5.217
85.32000 5.725
85.34000 6.037
85.36000 7.564
85.38000 3.776
85.40000 -0.075
85.42000 -2.431
85.44000 -1.220
85.46000 -0.316
85.48000 5.176
85.50000 5.097
85.52000 5.290
85.54000 -0.255
85.56000 -1.970
85.58000 2.336
85.60000 7.465
85.62000 5.818
85.64000 7.616
85.66000 3.655
85.68000 -0.198
85.70000 -0.049
85.72000 4.217
85.74000 8.747
85.76000 8.776
85.78000 4.554
85.80000 4.409
85.82000 2.048
85.84000 -1.829
85.86000 -2.403
85.88000 3.667
85.90000 -1.452
85.92000 -0.382
85.94000 3.532
85.96000 6.514
85.98000 4.978
86.00000 4.173
86.02000 1.015
86.04000 0.187
86.06000 -0.120
86.08000 3.670
86.10000 4.970
86.12000 0.044
86.14000 0.418
86.16000 -0.324
86.18000 -0.142
86.20000 4.963
86.22000 5.898
86.24000 1.810
86.26000 -0.680
86.28000 -0.889
86.30000 -2.383
86.32000 0.942
86.34000 5.223
86.36000 4.774
86.38000 3.648
86.40000 2.937
86.42000 3.572
86.44000 8.096
86.46000 5.212
86.48000 4.437
86.50000 8.425
86.52000 2.016
86.54000 3.747
86.56000 8.789
86.58000 6.618
86.60000 4.397
86.62000 2.412
86.64000 2.076
86.66000 3.788
86.68000 1.929
86.70000 5.698
86.72000 2.801
86.74000 -2.403
86.76000 2.374
86.78000 7.684
86.80000 7.722
86.82000 9.649
86.84000 3.235
86.86000 8.045
86.88000 11.018
86.90000 5.814
86.92000 3.665
86.94000 6.831
86.96000 6.811
86.98000 7.196
87.00000 3.156
87.02000 2.444
87.04000 9.242
87.06000 4.403
87.08000 6.063
87.10000 7.456
87.12000 3.879
87.14000 5.634
87.16000 5.992
87.18000 7.417
87.20000 12.253
87.22000 13.657
87.24000 7.189
87.26000 6.536
87.28000 9.931
87.30000 10.722
87.32000 7.555
87.34000 7.169
87.36000 11.869
87.38000 13.119
87.40000 13.607
87.42000 14.230
87.44000 9.357
87.46000 7.000
87.48000 12.068
87.50000 8.779
87.52000 5.202
87.54000 9.999
87.56000 10.512
87.58000 20.265
87.60000 18.258
87.62000 17.743
87.64000 15.222
87.66000 14.504
87.68000 14.783
87.70000 11.539
87.72000 18.026
87.74000 24.091
87.76000 22.929
87.78000 19.950
87.80000 15.414
87.82000 18.180
87.84000 20.903
87.86000 18.128
87.88000 18.139
87.90000 20.954
87.92000 20.285
87.94000 18.666
87.96000 20.434
87.98000 19.715
88.00000 26.188
88.02000 25.877
88.04000 18.913
88.06000 20.655
88.08000 25.215
88.10000 28.133
88.12000 27.285
88.14000 32.400
88.16000 30.201
88.18000 24.588
88.20000 18.858
88.22000 25.456
88.24000 26.716
88.26000 28.009
88.28000 16.909
88.30000 14.740
88.32000 23.854
88.34000 30.162
88.36000 33.171
88.38000 26.550
88.40000 21.107
88.42000 22.454
88.44000 25.840
88.46000 20.898
88.48000 26.014
88.50000 23.580
88.52000 24.870
88.54000 24.055
88.56000 20.702
88.58000 26.478
88.60000 22.640
88.62000 19.684
88.64000 23.649
88.66000 22.101
88.68000 24.378
88.70000 21.791
88.72000 20.629
88.74000 17.415
88.76000 16.640
88.78000 17.944
88.80000 15.096
88.82000 11.094
88.84000 12.897
88.86000 8.620
88.88000 13.930
88.90000 18.342
88.92000 13.477
88.94000 13.381
88.96000 11.165
88.98000 9.662
89.00000 11.749
89.02000 13.217
89.04000 11.386
89.06000 10.694
89.08000 7.177
89.10000 6.567
89.12000 9.548
89.14000 10.454
89.16000 11.006
89.18000 9.685
89.20000 6.367
89.22000 3.517
89.24000 5.979
89.26000 3.863
89.28000 7.078
89.30000 5.008
89.32000 3.502
89.34000 10.796
89.36000 9.915
89.38000 4.904
89.40000 6.830
89.42000 6.573
89.44000 5.188
89.46000 4.544
89.48000 10.256
89.50000 4.704
89.52000 2.033
89.54000 0.727
89.56000 6.950
89.58000 6.964
89.60000 6.748
89.62000 5.927
89.64000 5.384
89.66000 2.170
89.68000 -0.299
89.70000 0.654
89.72000 2.426
89.74000 5.162
89.76000 7.007
89.78000 7.444
89.80000 5.445
89.82000 -0.992
89.84000 -2.325
89.86000 3.145
89.88000 4.704
89.90000 4.081
89.92000 5.352
89.94000 2.890
89.96000 3.845
89.98000 3.689
90.00000 2.324
90.02000 2.177
90.04000 2.455
90.06000 6.744
90.08000 11.747
90.10000 10.151
90.12000 3.315
90.14000 3.175
90.16000 4.996
90.18000 5.461
90.20000 2.099
90.22000 1.555
90.24000 2.376
90.26000 4.315
90.28000 3.218
90.30000 1.707
90.32000 4.335
90.34000 0.177
90.36000 -2.249
90.38000 5.073
90.40000 1.064
90.42000 4.151
90.44000 0.290
90.46000 0.296
90.48000 1.966
90.50000 4.083
90.52000 2.246
90.54000 3.637
90.56000 2.003
90.58000 -0.194
90.60000 -1.062
90.62000 -0.303
90.64000 3.505
90.66000 4.311
90.68000 8.615
90.70000 6.079
90.72000 5.444
90.74000 -0.670
90.76000 0.061
90.78000 5.076
90.80000 4.042
90.82000 3.555
90.84000 0.693
90.86000 5.321
90.88000 6.118
90.90000 2.446
90.92000 2.202
90.94000 1.807
90.96000 1.933
90.98000 3.893
91.00000 3.442
91.02000 3.170
91.04000 -0.486
91.06000 -0.339
91.08000 -1.300
91.10000 -0.838
91.12000 0.596
91.14000 1.505
91.16000 3.810
91.18000 4.601
91.20000 0.651
91.22000 -1.720
91.24000 -2.270
91.26000 0.377
91.28000 0.756
91.30000 1.814
91.32000 4.460
91.34000 2.968
91.36000 1.452
91.38000 0.820
91.40000 -1.748
91.42000 -1.248
91.44000 3.357
91.46000 3.044
91.48000 6.000
91.50000 3.658
91.52000 2.014
91.54000 2.890
91.56000 0.944
91.58000 1.393
91.60000 -1.329
91.62000 2.684
91.64000 3.030
91.66000 0.154
91.68000 -1.021
91.70000 0.473
91.72000 2.080
91.74000 2.782
91.76000 2.105
91.78000 -0.587
91.80000 5.065
91.82000 5.143
91.84000 4.036
91.86000 1.208
91.88000 1.896
91.90000 7.404
91.92000 6.703
91.94000 8.682
91.96000 3.060
91.98000 5.447
92.00000 -0.013
92.02000 -2.259
92.04000 2.619
92.06000 2.221
92.08000 1.297
92.10000 3.646
92.12000 0.465
92.14000 0.633
92.16000 5.049
92.18000 2.437
92.20000 -1.085
92.22000 0.682
92.24000 1.968
92.26000 -1.465
92.28000 4.016
92.30000 2.977
92.32000 0.918
92.34000 0.920
92.36000 1.152
92.38000 3.675
92.40000 3.070
92.42000 -0.274
92.44000 0.665
92.46000 0.343
92.48000 1.352
92.50000 0.607
92.52000 5.549
92.54000 1.178
92.56000 -2.258
92.58000 0.394
92.60000 5.318
92.62000 0.340
92.64000 -1.627
92.66000 1.208
92.68000 3.711
92.70000 4.537
92.72000 2.358
92.74000 4.981
92.76000 5.956
92.78000 2.227
92.80000 1.486
92.82000 -0.524
92.84000 5.998
92.86000 3.182
92.88000 5.271
92.90000 5.967
92.92000 5.920
92.94000 2.791
92.96000 3.476
92.98000 0.979
93.00000 -2.094
93.02000 0.125
93.04000 4.109
93.06000 3.022
93.08000 1.311
93.10000 3.479
93.12000 4.838
93.14000 1.596
93.16000 4.380
93.18000 1.493
93.20000 1.960
93.22000 1.209
93.24000 1.090
93.26000 0.613
93.28000 5.010
93.30000 2.663
93.32000 4.638
93.34000 6.476
93.36000 -0.469
93.38000 1.255
93.40000 2.730
93.42000 4.124
93.44000 2.238
93.46000 1.041
93.48000 4.885
93.50000 4.016
93.52000 3.874
93.54000 4.486
93.56000 1.840
93.58000 3.907
93.60000 3.318
93.62000 2.334
93.64000 -1.773
93.66000 -0.048
93.68000 0.492
93.70000 5.278
93.72000 2.298
93.74000 -0.779
93.76000 0.803
93.78000 0.988
93.80000 -2.130
93.82000 -2.252
93.84000 0.239
93.86000 2.267
93.88000 4.825
93.90000 1.420
93.92000 8.131
93.94000 8.454
93.96000 1.108
93.98000 0.988
94.00000 1.130
94.02000 1.982
94.04000 3.725
94.06000 6.960
94.08000 7.393
94.10000 1.339
94.12000 2.043
94.14000 5.410
94.16000 7.619
94.18000 7.433
94.20000 5.673
94.22000 -1.521
94.24000 -1.615
94.26000 0.994
94.28000 2.590
94.30000 1.657
94.32000 -2.257
94.34000 -0.944
94.36000 2.511
94.38000 3.649
94.40000 3.182
94.42000 2.644
94.44000 1.993
94.46000 -1.722
94.48000 1.169
94.50000 8.431
94.52000 6.839
94.54000 3.477
94.56000 0.502
94.58000 5.954
94.60000 8.803
94.62000 4.913
94.64000 0.550
94.66000 8.032
94.68000 8.431
94.70000 8.499
94.72000 2.775
94.74000 2.713
94.76000 5.279
94.78000 2.824
94.80000 1.245
94.82000 0.000
94.84000 2.882
94.86000 1.990
94.88000 2.539
94.90000 3.784
94.92000 10.272
94.94000 9.998
94.96000 3.039
94.98000 1.712
95.00000 3.858
95.02000 1.062
95.04000 -0.136
95.06000 -0.579
95.08000 5.072
95.10000 2.386
95.12000 0.041
95.14000 6.639
95.16000 9.336
95.18000 6.888
95.20000 4.172
95.22000 3.111
95.24000 1.419
95.26000 -2.240
95.28000 0.803
95.30000 5.792
95.32000 3.261
95.34000 4.763
95.36000 5.994
95.38000 6.022
95.40000 8.681
95.42000 4.223
95.44000 3.263
95.46000 6.817
95.48000 5.268
95.50000 6.457
95.52000 4.967
95.54000 3.780
95.56000 1.225
95.58000 -0.568
95.60000 -1.705
95.62000 -0.069
95.64000 9.159
95.66000 7.762
95.68000 9.544
95.70000 11.341
95.72000 6.044
95.74000 9.738
95.76000 9.406
95.78000 8.189
95.80000 4.072
95.82000 0.707
95.84000 3.524
95.86000 4.841
95.88000 4.913
95.90000 1.746
95.92000 2.452
95.94000 5.473
95.96000 2.325
95.98000 3.027
96.00000 2.700
96.02000 4.545
96.04000 -1.223
96.06000 0.753
96.08000 1.310
96.10000 9.659
96.12000 12.910
96.14000 5.206
96.16000 4.034
96.18000 6.592
96.20000 9.859
96.22000 5.387
96.24000 0.976
96.26000 1.653
96.28000 6.240
96.30000 6.899
96.32000 8.579
96.34000 6.806
96.36000 4.845
96.38000 1.352
96.40000 2.137
96.42000 3.934
96.44000 5.506
96.46000 -2.237
96.48000 1.666
96.50000 5.598
96.52000 6.298
96.54000 5.791
96.56000 10.914
96.58000 16.936
96.60000 13.535
96.62000 6.272
96.64000 3.195
96.66000 11.773
96.68000 8.236
96.70000 7.616
96.72000 11.097
96.74000 15.636
96.76000 9.951
96.78000 9.561
96.80000 3.647
96.82000 4.759
96.84000 3.280
96.86000 6.401
96.88000 6.203
96.90000 5.102
96.92000 1.873
96.94000 6.679
96.96000 4.886
96.98000 9.218
97.00000 7.050
97.02000 9.839
97.04000 13.978
97.06000 16.124
97.08000 9.682
97.10000 -0.253
97.12000 -0.969
97.14000 7.605
97.16000 1.030
97.18000 5.854
97.20000 8.303
97.22000 10.040
97.24000 4.890
97.26000 7.846
97.28000 5.894
97.30000 5.460
97.32000 3.771
97.34000 4.701
97.36000 4.120
97.38000 3.419
97.40000 7.420
97.42000 8.240
97.44000 7.262
97.46000 5.490
97.48000 1.344
97.50000 7.244
97.52000 1.106
97.54000 3.075
97.56000 8.344
97.58000 4.939
97.60000 5.712
97.62000 8.715
97.64000 2.822
97.66000 5.545
97.68000 8.321
97.70000 7.810
97.72000 0.097
97.74000 0.015
97.76000 3.358
97.78000 2.532
97.80000 1.593
97.82000 6.649
97.84000 14.048
97.86000 13.084
97.88000 4.206
97.90000 6.637
97.92000 12.014
97.94000 12.643
97.96000 6.239
97.98000 9.878
98.00000 14.797
98.02000 10.371
98.04000 3.941
98.06000 11.478
98.08000 11.122
98.10000 8.589
98.12000 13.010
98.14000 7.291
98.16000 6.619
98.18000 4.131
98.20000 5.464
98.22000 10.683
98.24000 11.648
98.26000 6.229
98.28000 3.658
98.30000 7.093
98.32000 10.716
98.34000 6.089
98.36000 7.998
98.38000 11.509
98.40000 12.944
98.42000 12.991
98.44000 9.628
98.46000 9.305
98.48000 5.760
98.50000 8.492
98.52000 11.600
98.54000 13.147
98.56000 11.844
98.58000 6.143
98.60000 2.976
98.62000 3.169
98.64000 14.875
98.66000 2.617
98.68000 -3.191
98.70000 7.754
98.72000 4.146
98.74000 6.317
98.76000 6.660
98.78000 9.097
98.80000 12.599
98.82000 5.937
98.84000 11.188
98.86000 13.983
98.88000 14.887
98.90000 10.985
98.92000 13.225
98.94000 9.380
98.96000 9.734
98.98000 5.765
99.00000 6.033
99.02000 -0.677
99.04000 8.898
99.06000 11.271
99.08000 5.978
99.10000 6.357
99.12000 4.534
99.14000 -2.137
99.16000 4.384
99.18000 2.912
99.20000 7.599
99.22000 10.345
99.24000 8.501
99.26000 -0.568
99.28000 12.211
99.30000 15.544
99.32000 18.160
99.34000 4.371
99.36000 3.709
99.38000 6.745
99.40000 1.432
99.42000 3.213
99.44000 11.346
99.46000 14.654
99.48000 19.350
99.50000 4.407
99.52000 5.278
99.54000 9.335
99.56000 5.159
99.58000 1.493
99.60000 5.919
99.62000 7.534
99.64000 1.680
99.66000 8.225
99.68000 8.413
99.70000 2.644
99.72000 2.617
99.74000 -2.258
99.76000 2.517
99.78000 4.606
99.80000 5.597
99.82000 15.578
99.84000 12.044
99.86000 2.727
99.88000 1.423
99.90000 2.632
99.92000 -2.322
99.94000 -1.788
99.96000 -2.501
99.98000 0.000
