'Id: "0011387" Comment: "Integrate frame 0011387_Au-Ir-Rh_Rh-rich_XRD-Mapping-200-0000.gfrmwith cursor Wedge Cursor #5" Operator: "B?rgel" Anode: "Cu" Wavelength: "1.5406" Scantype: "2Theta (TwoTheta)" TimePerStep: "1" X: "-40.5" Y: "9" Z: "5.95" 
10.00000 0.000
10.02000 -4.499
10.04000 -4.463
10.06000 17.998
10.08000 34.364
10.10000 20.990
10.12000 26.824
10.14000 9.375
10.16000 -0.309
10.18000 8.730
10.20000 -0.281
10.22000 10.337
10.24000 16.134
10.26000 19.920
10.28000 14.973
10.30000 8.571
10.32000 9.562
10.34000 -4.098
10.36000 12.361
10.38000 8.231
10.40000 9.020
10.42000 26.602
10.44000 17.285
10.46000 14.494
10.48000 12.889
10.50000 25.093
10.52000 10.094
10.54000 17.129
10.56000 25.980
10.58000 22.509
10.60000 6.091
10.62000 14.550
10.64000 17.566
10.66000 17.254
10.68000 25.408
10.70000 14.157
10.72000 -0.321
10.74000 1.986
10.76000 20.296
10.78000 41.712
10.80000 46.401
10.82000 21.718
10.84000 22.811
10.86000 21.273
10.88000 6.607
10.90000 21.292
10.92000 23.270
10.94000 10.881
10.96000 5.401
10.98000 13.119
11.00000 15.217
11.02000 16.636
11.04000 27.586
11.06000 26.945
11.08000 35.430
11.10000 20.642
11.12000 5.482
11.14000 -1.307
11.16000 7.036
11.18000 15.209
11.20000 4.400
11.22000 -4.507
11.24000 11.244
11.26000 21.853
11.28000 25.027
11.30000 10.659
11.32000 6.300
11.34000 7.017
11.36000 10.757
11.38000 13.782
11.40000 16.587
11.42000 21.247
11.44000 12.387
11.46000 -1.119
11.48000 4.703
11.50000 15.239
11.52000 15.687
11.54000 20.605
11.56000 14.155
11.58000 8.260
11.60000 6.982
11.62000 6.884
11.64000 8.342
11.66000 1.961
11.68000 8.043
11.70000 9.587
11.72000 9.563
11.74000 14.491
11.76000 18.167
11.78000 9.302
11.80000 -2.337
11.82000 -1.376
11.84000 5.198
11.86000 11.854
11.88000 14.458
11.90000 11.768
11.92000 9.823
11.94000 3.640
11.96000 1.209
11.98000 4.975
12.00000 13.885
12.02000 12.637
12.04000 12.489
12.06000 -0.013
12.08000 -0.985
12.10000 0.804
12.12000 3.305
12.14000 4.685
12.16000 0.314
12.18000 6.209
12.20000 5.476
12.22000 7.252
12.24000 13.754
12.26000 3.347
12.28000 2.242
12.30000 5.489
12.32000 4.716
12.34000 0.910
12.36000 16.584
12.38000 7.656
12.40000 12.088
12.42000 14.726
12.44000 11.912
12.46000 10.852
12.48000 10.467
12.50000 3.963
12.52000 3.287
12.54000 7.437
12.56000 9.187
12.58000 15.985
12.60000 14.524
12.62000 0.206
12.64000 13.657
12.66000 20.972
12.68000 12.585
12.70000 11.565
12.72000 17.631
12.74000 15.242
12.76000 14.687
12.78000 14.248
12.80000 11.393
12.82000 5.409
12.84000 -1.511
12.86000 2.510
12.88000 5.214
12.90000 6.221
12.92000 11.342
12.94000 8.067
12.96000 15.148
12.98000 17.984
13.00000 7.246
13.02000 10.225
13.04000 4.246
13.06000 1.486
13.08000 -2.177
13.10000 2.647
13.12000 15.788
13.14000 13.979
13.16000 12.000
13.18000 12.322
13.20000 12.484
13.22000 7.450
13.24000 9.850
13.26000 8.630
13.28000 5.800
13.30000 6.764
13.32000 15.292
13.34000 8.722
13.36000 9.498
13.38000 7.007
13.40000 13.008
13.42000 17.125
13.44000 6.657
13.46000 2.193
13.48000 4.130
13.50000 2.130
13.52000 2.987
13.54000 7.483
13.56000 8.289
13.58000 5.960
13.60000 4.686
13.62000 5.147
13.64000 2.560
13.66000 3.235
13.68000 8.078
13.70000 10.159
13.72000 11.752
13.74000 11.754
13.76000 11.865
13.78000 11.793
13.80000 11.230
13.82000 6.233
13.84000 5.573
13.86000 12.086
13.88000 14.129
13.90000 12.452
13.92000 2.796
13.94000 7.510
13.96000 18.593
13.98000 10.454
14.00000 15.356
14.02000 18.482
14.04000 19.958
14.06000 -2.825
14.08000 -0.545
14.10000 8.794
14.12000 17.104
14.14000 10.210
14.16000 13.032
14.18000 13.691
14.20000 19.533
14.22000 24.260
14.24000 21.700
14.26000 12.213
14.28000 9.768
14.30000 7.014
14.32000 -4.448
14.34000 -4.028
14.36000 -1.009
14.38000 -2.095
14.40000 6.134
14.42000 14.135
14.44000 12.190
14.46000 8.220
14.48000 7.618
14.50000 6.176
14.52000 3.333
14.54000 10.972
14.56000 14.066
14.58000 5.847
14.60000 4.405
14.62000 11.925
14.64000 10.116
14.66000 3.331
14.68000 6.561
14.70000 5.294
14.72000 4.621
14.74000 8.568
14.76000 10.742
14.78000 5.666
14.80000 14.354
14.82000 18.643
14.84000 9.909
14.86000 2.070
14.88000 7.595
14.90000 17.628
14.92000 16.593
14.94000 10.073
14.96000 14.281
14.98000 18.324
15.00000 10.059
15.02000 13.380
15.04000 8.736
15.06000 -0.962
15.08000 -0.879
15.10000 2.132
15.12000 8.095
15.14000 18.185
15.16000 11.635
15.18000 13.825
15.20000 11.102
15.22000 9.132
15.24000 -0.267
15.26000 2.623
15.28000 6.885
15.30000 2.315
15.32000 3.224
15.34000 6.145
15.36000 8.513
15.38000 16.862
15.40000 12.398
15.42000 17.875
15.44000 12.115
15.46000 6.650
15.48000 7.435
15.50000 9.110
15.52000 12.268
15.54000 18.741
15.56000 9.246
15.58000 -0.670
15.60000 4.920
15.62000 9.316
15.64000 -1.218
15.66000 -1.074
15.68000 2.515
15.70000 6.858
15.72000 8.519
15.74000 9.909
15.76000 9.075
15.78000 6.641
15.80000 9.007
15.82000 11.657
15.84000 10.045
15.86000 13.702
15.88000 15.394
15.90000 17.809
15.92000 11.525
15.94000 -1.481
15.96000 2.255
15.98000 9.201
16.00000 5.942
16.02000 13.381
16.04000 16.131
16.06000 10.353
16.08000 1.136
16.10000 5.878
16.12000 13.747
16.14000 5.372
16.16000 12.046
16.18000 16.465
16.20000 16.665
16.22000 14.503
16.24000 17.574
16.26000 10.922
16.28000 -4.380
16.30000 6.148
16.32000 11.349
16.34000 9.966
16.36000 12.516
16.38000 10.217
16.40000 11.728
16.42000 14.027
16.44000 3.998
16.46000 10.172
16.48000 7.658
16.50000 2.040
16.52000 4.924
16.54000 -1.522
16.56000 1.514
16.58000 16.340
16.60000 9.655
16.62000 1.824
16.64000 -1.452
16.66000 3.280
16.68000 2.477
16.70000 1.926
16.72000 2.291
16.74000 3.776
16.76000 9.160
16.78000 10.611
16.80000 9.084
16.82000 7.848
16.84000 8.634
16.86000 6.241
16.88000 16.862
16.90000 10.964
16.92000 4.872
16.94000 11.465
16.96000 8.862
16.98000 4.944
17.00000 3.411
17.02000 4.423
17.04000 10.833
17.06000 4.859
17.08000 5.427
17.10000 6.125
17.12000 8.813
17.14000 6.826
17.16000 15.138
17.18000 14.516
17.20000 5.522
17.22000 7.770
17.24000 14.096
17.26000 15.412
17.28000 9.462
17.30000 12.123
17.32000 14.656
17.34000 8.428
17.36000 6.978
17.38000 7.450
17.40000 6.685
17.42000 10.352
17.44000 7.252
17.46000 3.369
17.48000 8.152
17.50000 3.775
17.52000 0.663
17.54000 -2.072
17.56000 1.704
17.58000 5.004
17.60000 16.567
17.62000 13.635
17.64000 5.882
17.66000 13.302
17.68000 4.775
17.70000 4.535
17.72000 9.041
17.74000 10.244
17.76000 10.255
17.78000 8.454
17.80000 8.426
17.82000 4.809
17.84000 10.504
17.86000 9.396
17.88000 11.353
17.90000 4.827
17.92000 4.414
17.94000 11.341
17.96000 11.080
17.98000 11.473
18.00000 6.989
18.02000 6.358
18.04000 10.250
18.06000 9.303
18.08000 11.561
18.10000 14.925
18.12000 13.974
18.14000 8.887
18.16000 7.118
18.18000 8.820
18.20000 8.757
18.22000 9.867
18.24000 13.307
18.26000 9.815
18.28000 6.543
18.30000 7.178
18.32000 -4.252
18.34000 4.950
18.36000 16.000
18.38000 14.221
18.40000 10.021
18.42000 10.580
18.44000 5.737
18.46000 8.480
18.48000 7.681
18.50000 14.194
18.52000 14.614
18.54000 7.177
18.56000 0.799
18.58000 -0.042
18.60000 3.396
18.62000 3.722
18.64000 8.918
18.66000 11.292
18.68000 12.316
18.70000 6.067
18.72000 5.338
18.74000 -1.408
18.76000 0.969
18.78000 9.243
18.80000 8.139
18.82000 4.867
18.84000 5.539
18.86000 7.780
18.88000 4.950
18.90000 10.970
18.92000 4.539
18.94000 5.465
18.96000 0.150
18.98000 2.304
19.00000 -1.662
19.02000 -2.114
19.04000 -3.449
19.06000 7.007
19.08000 13.196
19.10000 16.301
19.12000 7.502
19.14000 9.999
19.16000 10.958
19.18000 4.933
19.20000 2.577
19.22000 2.652
19.24000 6.363
19.26000 1.447
19.28000 5.431
19.30000 8.798
19.32000 1.417
19.34000 -2.262
19.36000 6.262
19.38000 5.862
19.40000 4.577
19.42000 5.457
19.44000 3.112
19.46000 -0.727
19.48000 2.305
19.50000 7.696
19.52000 1.918
19.54000 2.001
19.56000 3.548
19.58000 0.203
19.60000 -1.087
19.62000 1.187
19.64000 -0.018
19.66000 2.352
19.68000 8.739
19.70000 7.620
19.72000 7.389
19.74000 6.632
19.76000 5.866
19.78000 10.046
19.80000 3.910
19.82000 -2.873
19.84000 -0.965
19.86000 -0.048
19.88000 7.154
19.90000 10.940
19.92000 3.882
19.94000 0.217
19.96000 3.664
19.98000 1.234
20.00000 2.077
20.02000 4.838
20.04000 9.409
20.06000 10.388
20.08000 4.305
20.10000 1.681
20.12000 7.471
20.14000 -2.739
20.16000 -0.442
20.18000 5.941
20.20000 -3.235
20.22000 -0.898
20.24000 7.321
20.26000 6.826
20.28000 1.725
20.30000 4.710
20.32000 0.849
20.34000 11.574
20.36000 15.668
20.38000 4.290
20.40000 -4.188
20.42000 3.019
20.44000 11.436
20.46000 14.289
20.48000 6.021
20.50000 0.165
20.52000 3.961
20.54000 8.275
20.56000 8.194
20.58000 1.888
20.60000 2.229
20.62000 2.922
20.64000 6.937
20.66000 2.629
20.68000 -3.251
20.70000 3.410
20.72000 4.224
20.74000 0.956
20.76000 1.189
20.78000 1.490
20.80000 7.940
20.82000 13.105
20.84000 0.595
20.86000 -0.709
20.88000 0.894
20.90000 -2.209
20.92000 4.232
20.94000 5.518
20.96000 1.700
20.98000 -4.162
21.00000 6.159
21.02000 5.875
21.04000 1.867
21.06000 2.712
21.08000 5.721
21.10000 4.547
21.12000 3.836
21.14000 5.986
21.16000 4.969
21.18000 -2.868
21.20000 -4.157
21.22000 -2.408
21.24000 3.604
21.26000 4.606
21.28000 2.470
21.30000 2.933
21.32000 1.127
21.34000 -0.118
21.36000 4.382
21.38000 8.775
21.40000 6.181
21.42000 3.918
21.44000 5.023
21.46000 1.298
21.48000 3.977
21.50000 2.269
21.52000 1.562
21.54000 1.479
21.56000 3.030
21.58000 6.218
21.60000 1.140
21.62000 5.276
21.64000 4.667
21.66000 0.193
21.68000 4.296
21.70000 4.954
21.72000 3.537
21.74000 2.572
21.76000 -0.045
21.78000 -1.777
21.80000 -0.521
21.82000 1.912
21.84000 -0.176
21.86000 6.992
21.88000 2.810
21.90000 -0.002
21.92000 -1.795
21.94000 1.264
21.96000 4.971
21.98000 6.402
22.00000 -1.812
22.02000 -0.311
22.04000 2.131
22.06000 3.512
22.08000 0.180
22.10000 -3.068
22.12000 0.447
22.14000 -0.495
22.16000 -0.614
22.18000 4.140
22.20000 5.854
22.22000 5.462
22.24000 0.316
22.26000 0.333
22.28000 -2.469
22.30000 1.466
22.32000 3.914
22.34000 5.369
22.36000 11.021
22.38000 12.391
22.40000 7.406
22.42000 3.145
22.44000 3.789
22.46000 5.921
22.48000 3.447
22.50000 4.103
22.52000 1.357
22.54000 4.888
22.56000 6.583
22.58000 5.115
22.60000 9.059
22.62000 6.759
22.64000 1.523
22.66000 -0.545
22.68000 -4.034
22.70000 -0.652
22.72000 2.982
22.74000 5.890
22.76000 11.634
22.78000 12.155
22.80000 8.498
22.82000 3.801
22.84000 -2.938
22.86000 3.460
22.88000 8.301
22.90000 5.765
22.92000 4.726
22.94000 2.779
22.96000 0.412
22.98000 -1.241
23.00000 -4.043
23.02000 0.351
23.04000 6.507
23.06000 8.233
23.08000 3.797
23.10000 0.042
23.12000 -0.024
23.14000 3.167
23.16000 2.410
23.18000 0.674
23.20000 -0.414
23.22000 8.291
23.24000 7.476
23.26000 7.567
23.28000 8.431
23.30000 6.435
23.32000 0.082
23.34000 -1.947
23.36000 4.341
23.38000 5.072
23.40000 6.887
23.42000 3.885
23.44000 -0.537
23.46000 2.352
23.48000 3.044
23.50000 4.803
23.52000 3.553
23.54000 3.856
23.56000 0.026
23.58000 2.007
23.60000 10.339
23.62000 10.329
23.64000 5.136
23.66000 1.730
23.68000 3.598
23.70000 3.427
23.72000 -1.095
23.74000 -4.014
23.76000 -1.613
23.78000 0.326
23.80000 6.808
23.82000 4.744
23.84000 3.759
23.86000 6.270
23.88000 11.535
23.90000 7.532
23.92000 2.664
23.94000 5.429
23.96000 2.242
23.98000 1.627
24.00000 1.608
24.02000 2.882
24.04000 7.948
24.06000 13.607
24.08000 8.513
24.10000 4.957
24.12000 6.493
24.14000 8.457
24.16000 7.800
24.18000 -1.925
24.20000 1.503
24.22000 -1.694
24.24000 1.840
24.26000 2.732
24.28000 7.096
24.30000 6.756
24.32000 4.713
24.34000 10.537
24.36000 8.172
24.38000 6.774
24.40000 5.781
24.42000 7.460
24.44000 7.034
24.46000 3.959
24.48000 6.456
24.50000 3.197
24.52000 1.101
24.54000 2.304
24.56000 5.644
24.58000 7.907
24.60000 4.609
24.62000 2.506
24.64000 7.093
24.66000 6.609
24.68000 8.930
24.70000 9.131
24.72000 10.370
24.74000 10.789
24.76000 4.503
24.78000 6.571
24.80000 2.652
24.82000 7.285
24.84000 6.940
24.86000 3.371
24.88000 5.207
24.90000 3.242
24.92000 6.730
24.94000 6.855
24.96000 4.804
24.98000 3.155
25.00000 5.357
25.02000 10.454
25.04000 6.997
25.06000 -1.146
25.08000 3.251
25.10000 4.455
25.12000 5.699
25.14000 4.874
25.16000 6.503
25.18000 5.172
25.20000 -3.881
25.22000 1.743
25.24000 11.803
25.26000 12.597
25.28000 12.105
25.30000 14.059
25.32000 7.813
25.34000 6.753
25.36000 10.102
25.38000 8.144
25.40000 9.313
25.42000 5.677
25.44000 5.286
25.46000 5.291
25.48000 3.664
25.50000 7.660
25.52000 7.423
25.54000 -2.467
25.56000 -1.093
25.58000 1.513
25.60000 3.221
25.62000 1.820
25.64000 -2.499
25.66000 1.427
25.68000 5.962
25.70000 4.811
25.72000 5.892
25.74000 2.009
25.76000 3.377
25.78000 4.863
25.80000 2.051
25.82000 2.550
25.84000 5.857
25.86000 8.037
25.88000 1.676
25.90000 2.613
25.92000 6.476
25.94000 8.204
25.96000 10.913
25.98000 6.407
26.00000 7.654
26.02000 2.119
26.04000 1.217
26.06000 1.921
26.08000 -3.888
26.10000 -2.886
26.12000 1.455
26.14000 3.559
26.16000 6.602
26.18000 3.518
26.20000 1.451
26.22000 3.935
26.24000 4.389
26.26000 7.104
26.28000 9.358
26.30000 7.469
26.32000 3.957
26.34000 -0.094
26.36000 -2.025
26.38000 0.322
26.40000 5.216
26.42000 0.062
26.44000 1.021
26.46000 1.577
26.48000 3.021
26.50000 4.827
26.52000 8.011
26.54000 5.636
26.56000 7.477
26.58000 2.175
26.60000 0.230
26.62000 -2.628
26.64000 1.491
26.66000 -0.779
26.68000 -1.009
26.70000 -1.509
26.72000 -1.853
26.74000 4.359
26.76000 3.561
26.78000 -2.824
26.80000 -0.267
26.82000 0.299
26.84000 -3.379
26.86000 -1.042
26.88000 5.246
26.90000 4.294
26.92000 1.194
26.94000 -2.134
26.96000 -3.861
26.98000 1.608
27.00000 3.512
27.02000 -2.981
27.04000 1.125
27.06000 -0.410
27.08000 -0.667
27.10000 2.369
27.12000 5.099
27.14000 2.008
27.16000 -1.386
27.18000 -1.009
27.20000 2.146
27.22000 6.382
27.24000 0.903
27.26000 -1.333
27.28000 1.364
27.30000 6.064
27.32000 3.629
27.34000 -2.668
27.36000 1.223
27.38000 -1.505
27.40000 1.264
27.42000 -2.192
27.44000 1.379
27.46000 0.536
27.48000 5.386
27.50000 4.535
27.52000 -0.586
27.54000 -1.029
27.56000 1.422
27.58000 1.633
27.60000 0.156
27.62000 0.875
27.64000 -0.120
27.66000 2.046
27.68000 4.749
27.70000 4.061
27.72000 3.752
27.74000 3.765
27.76000 4.846
27.78000 3.015
27.80000 2.514
27.82000 4.938
27.84000 3.841
27.86000 5.502
27.88000 2.777
27.90000 3.229
27.92000 3.124
27.94000 3.066
27.96000 5.157
27.98000 6.117
28.00000 5.000
28.02000 0.282
28.04000 -2.606
28.06000 -3.778
28.08000 4.394
28.10000 1.380
28.12000 2.553
28.14000 1.527
28.16000 1.739
28.18000 6.017
28.20000 1.008
28.22000 4.213
28.24000 7.636
28.26000 5.845
28.28000 2.312
28.30000 -0.220
28.32000 1.248
28.34000 4.235
28.36000 -3.377
28.38000 -2.725
28.40000 0.189
28.42000 8.689
28.44000 5.186
28.46000 -0.645
28.48000 -1.798
28.50000 5.877
28.52000 0.484
28.54000 -1.345
28.56000 -3.747
28.58000 1.482
28.60000 3.325
28.62000 3.957
28.64000 3.546
28.66000 1.744
28.68000 0.992
28.70000 4.944
28.72000 1.876
28.74000 2.236
28.76000 5.077
28.78000 3.838
28.80000 -0.738
28.82000 3.198
28.84000 2.759
28.86000 -1.006
28.88000 2.117
28.90000 3.931
28.92000 1.055
28.94000 -2.024
28.96000 2.981
28.98000 3.773
29.00000 6.793
29.02000 9.036
29.04000 3.731
29.06000 5.096
29.08000 5.405
29.10000 3.269
29.12000 2.303
29.14000 2.824
29.16000 6.758
29.18000 10.097
29.20000 4.472
29.22000 -1.139
29.24000 2.998
29.26000 3.701
29.28000 3.189
29.30000 -0.381
29.32000 4.812
29.34000 3.812
29.36000 3.674
29.38000 6.675
29.40000 10.374
29.42000 8.405
29.44000 6.197
29.46000 2.428
29.48000 -2.235
29.50000 -0.953
29.52000 0.466
29.54000 4.107
29.56000 4.861
29.58000 2.089
29.60000 2.922
29.62000 2.826
29.64000 3.515
29.66000 4.162
29.68000 5.216
29.70000 0.251
29.72000 4.909
29.74000 8.946
29.76000 8.547
29.78000 4.911
29.80000 5.309
29.82000 2.970
29.84000 0.552
29.86000 2.310
29.88000 5.449
29.90000 1.330
29.92000 -0.682
29.94000 1.210
29.96000 7.033
29.98000 4.162
30.00000 3.016
30.02000 0.960
30.04000 2.219
30.06000 5.580
30.08000 6.608
30.10000 9.158
30.12000 6.438
30.14000 3.639
30.16000 1.386
30.18000 4.613
30.20000 4.447
30.22000 10.735
30.24000 8.407
30.26000 2.669
30.28000 2.419
30.30000 1.518
30.32000 0.215
30.34000 4.948
30.36000 2.785
30.38000 6.331
30.40000 8.915
30.42000 10.357
30.44000 11.557
30.46000 4.483
30.48000 -3.609
30.50000 -0.580
30.52000 0.917
30.54000 3.402
30.56000 3.575
30.58000 3.839
30.60000 7.109
30.62000 4.070
30.64000 2.394
30.66000 3.598
30.68000 2.587
30.70000 3.375
30.72000 0.377
30.74000 7.368
30.76000 6.971
30.78000 3.750
30.80000 4.721
30.82000 4.233
30.84000 6.340
30.86000 3.576
30.88000 5.080
30.90000 4.360
30.92000 2.890
30.94000 4.539
30.96000 6.473
30.98000 1.664
31.00000 0.507
31.02000 4.365
31.04000 4.663
31.06000 4.440
31.08000 1.416
31.10000 -0.233
31.12000 2.465
31.14000 2.296
31.16000 -0.496
31.18000 2.200
31.20000 5.183
31.22000 0.892
31.24000 -2.565
31.26000 -0.616
31.28000 -0.375
31.30000 1.657
31.32000 1.693
31.34000 -1.186
31.36000 -1.786
31.38000 2.657
31.40000 0.961
31.42000 7.008
31.44000 2.686
31.46000 2.390
31.48000 4.808
31.50000 5.833
31.52000 5.128
31.54000 -0.152
31.56000 -0.123
31.58000 3.933
31.60000 3.208
31.62000 8.872
31.64000 -2.975
31.66000 -2.210
31.68000 1.158
31.70000 5.105
31.72000 6.747
31.74000 5.847
31.76000 1.270
31.78000 4.350
31.80000 7.751
31.82000 7.819
31.84000 2.380
31.86000 2.401
31.88000 4.621
31.90000 4.686
31.92000 0.038
31.94000 -0.153
31.96000 3.442
31.98000 1.625
32.00000 4.799
32.02000 0.811
32.04000 0.651
32.06000 -1.171
32.08000 0.262
32.10000 2.229
32.12000 -0.566
32.14000 1.133
32.16000 1.927
32.18000 3.449
32.20000 6.482
32.22000 6.112
32.24000 5.220
32.26000 4.656
32.28000 2.284
32.30000 6.141
32.32000 3.210
32.34000 4.773
32.36000 6.366
32.38000 4.229
32.40000 2.113
32.42000 2.833
32.44000 0.611
32.46000 -0.145
32.48000 1.746
32.50000 3.210
32.52000 1.813
32.54000 8.681
32.56000 9.155
32.58000 8.243
32.60000 9.742
32.62000 8.373
32.64000 4.606
32.66000 3.522
32.68000 1.042
32.70000 -3.536
32.72000 -1.992
32.74000 3.020
32.76000 2.255
32.78000 2.673
32.80000 4.371
32.82000 1.757
32.84000 6.265
32.86000 7.101
32.88000 4.462
32.90000 6.565
32.92000 4.673
32.94000 0.732
32.96000 2.993
32.98000 8.140
33.00000 2.277
33.02000 -3.003
33.04000 -0.997
33.06000 3.463
33.08000 6.722
33.10000 4.814
33.12000 1.376
33.14000 1.576
33.16000 3.067
33.18000 1.042
33.20000 2.644
33.22000 -0.168
33.24000 2.076
33.26000 6.102
33.28000 7.668
33.30000 1.363
33.32000 -2.777
33.34000 -1.009
33.36000 -0.135
33.38000 2.738
33.40000 6.902
33.42000 2.093
33.44000 -0.313
33.46000 2.944
33.48000 7.516
33.50000 8.711
33.52000 0.717
33.54000 -3.552
33.56000 0.425
33.58000 4.496
33.60000 3.784
33.62000 0.733
33.64000 0.350
33.66000 0.316
33.68000 1.680
33.70000 0.838
33.72000 4.497
33.74000 2.034
33.76000 3.093
33.78000 3.231
33.80000 1.353
33.82000 4.697
33.84000 -0.357
33.86000 2.582
33.88000 4.097
33.90000 6.023
33.92000 6.293
33.94000 6.255
33.96000 5.844
33.98000 7.619
34.00000 0.330
34.02000 0.912
34.04000 2.400
34.06000 3.686
34.08000 -1.451
34.10000 1.156
34.12000 6.392
34.14000 4.627
34.16000 1.915
34.18000 1.779
34.20000 -0.169
34.22000 2.645
34.24000 -1.700
34.26000 0.302
34.28000 4.968
34.30000 7.486
34.32000 3.070
34.34000 1.701
34.36000 2.621
34.38000 5.781
34.40000 1.829
34.42000 1.856
34.44000 1.540
34.46000 0.368
34.48000 -0.361
34.50000 -0.741
34.52000 3.781
34.54000 2.532
34.56000 -1.172
34.58000 2.071
34.60000 5.136
34.62000 -1.276
34.64000 -2.858
34.66000 3.855
34.68000 5.580
34.70000 5.271
34.72000 3.411
34.74000 0.911
34.76000 4.727
34.78000 8.963
34.80000 0.454
34.82000 1.763
34.84000 5.535
34.86000 0.815
34.88000 3.953
34.90000 1.003
34.92000 2.151
34.94000 4.514
34.96000 4.172
34.98000 4.514
35.00000 9.048
35.02000 12.051
35.04000 3.159
35.06000 2.009
35.08000 0.194
35.10000 -1.963
35.12000 3.909
35.14000 3.035
35.16000 1.090
35.18000 3.223
35.20000 1.641
35.22000 3.319
35.24000 4.682
35.26000 8.128
35.28000 6.862
35.30000 -3.455
35.32000 1.299
35.34000 4.841
35.36000 4.732
35.38000 5.632
35.40000 7.145
35.42000 8.484
35.44000 7.163
35.46000 -0.192
35.48000 -2.479
35.50000 6.114
35.52000 5.956
35.54000 4.033
35.56000 4.322
35.58000 3.182
35.60000 2.349
35.62000 2.177
35.64000 1.903
35.66000 6.769
35.68000 6.985
35.70000 5.469
35.72000 5.384
35.74000 4.156
35.76000 5.753
35.78000 5.364
35.80000 0.388
35.82000 -2.600
35.84000 -1.640
35.86000 -0.479
35.88000 3.506
35.90000 -0.319
35.92000 -0.329
35.94000 -0.562
35.96000 3.049
35.98000 4.740
36.00000 0.287
36.02000 -0.234
36.04000 4.793
36.06000 3.953
36.08000 3.005
36.10000 0.317
36.12000 -0.751
36.14000 2.295
36.16000 5.306
36.18000 6.980
36.20000 2.454
36.22000 -2.710
36.24000 -1.931
36.26000 2.106
36.28000 7.407
36.30000 3.821
36.32000 -0.343
36.34000 3.310
36.36000 6.785
36.38000 2.292
36.40000 -0.944
36.42000 2.678
36.44000 2.525
36.46000 3.543
36.48000 4.551
36.50000 4.055
36.52000 -3.524
36.54000 -0.308
36.56000 2.020
36.58000 4.166
36.60000 2.987
36.62000 -0.918
36.64000 -2.006
36.66000 3.100
36.68000 -0.913
36.70000 2.953
36.72000 3.100
36.74000 -0.163
36.76000 -2.176
36.78000 -2.622
36.80000 -0.366
36.82000 3.908
36.84000 -0.035
36.86000 -0.932
36.88000 -0.568
36.90000 -2.163
36.92000 -1.688
36.94000 -0.830
36.96000 0.871
36.98000 0.299
37.00000 0.478
37.02000 0.179
37.04000 2.188
37.06000 1.864
37.08000 -2.576
37.10000 -1.106
37.12000 4.570
37.14000 0.718
37.16000 2.687
37.18000 0.666
37.20000 0.183
37.22000 1.609
37.24000 1.121
37.26000 0.709
37.28000 -0.951
37.30000 -2.064
37.32000 1.446
37.34000 1.294
37.36000 -3.574
37.38000 1.122
37.40000 -0.667
37.42000 2.432
37.44000 2.332
37.46000 5.864
37.48000 6.311
37.50000 8.881
37.52000 2.561
37.54000 -0.405
37.56000 1.951
37.58000 4.360
37.60000 4.125
37.62000 4.789
37.64000 5.576
37.66000 8.003
37.68000 8.939
37.70000 11.367
37.72000 13.854
37.74000 6.555
37.76000 7.413
37.78000 7.094
37.80000 12.963
37.82000 10.480
37.84000 10.117
37.86000 7.691
37.88000 8.904
37.90000 7.710
37.92000 8.768
37.94000 9.091
37.96000 4.244
37.98000 1.729
38.00000 5.574
38.02000 6.773
38.04000 13.431
38.06000 14.099
38.08000 15.787
38.10000 15.280
38.12000 10.425
38.14000 11.809
38.16000 17.394
38.18000 17.105
38.20000 20.425
38.22000 16.088
38.24000 12.146
38.26000 16.377
38.28000 14.585
38.30000 19.786
38.32000 24.915
38.34000 23.863
38.36000 22.378
38.38000 24.962
38.40000 24.725
38.42000 19.558
38.44000 21.324
38.46000 22.576
38.48000 21.644
38.50000 23.742
38.52000 26.327
38.54000 26.599
38.56000 27.410
38.58000 27.232
38.60000 27.676
38.62000 28.607
38.64000 28.628
38.66000 29.018
38.68000 30.446
38.70000 39.989
38.72000 39.842
38.74000 39.723
38.76000 36.723
38.78000 35.047
38.80000 39.180
38.82000 41.745
38.84000 40.585
38.86000 47.123
38.88000 48.717
38.90000 44.280
38.92000 53.983
38.94000 54.961
38.96000 60.041
38.98000 58.969
39.00000 59.771
39.02000 64.124
39.04000 61.317
39.06000 65.174
39.08000 66.779
39.10000 71.544
39.12000 74.666
39.14000 85.027
39.16000 83.656
39.18000 83.094
39.20000 88.785
39.22000 91.894
39.24000 91.668
39.26000 97.188
39.28000 105.152
39.30000 108.988
39.32000 113.780
39.34000 118.641
39.36000 122.788
39.38000 128.080
39.40000 130.851
39.42000 140.556
39.44000 149.797
39.46000 152.334
39.48000 163.854
39.50000 180.327
39.52000 181.633
39.54000 186.117
39.56000 201.169
39.58000 215.505
39.60000 227.965
39.62000 234.617
39.64000 249.501
39.66000 263.186
39.68000 284.176
39.70000 302.914
39.72000 315.531
39.74000 330.436
39.76000 344.955
39.78000 371.494
39.80000 390.580
39.82000 414.728
39.84000 439.064
39.86000 461.290
39.88000 492.154
39.90000 526.017
39.92000 547.785
39.94000 574.393
39.96000 611.343
39.98000 633.475
40.00000 670.222
40.02000 704.295
40.04000 739.195
40.06000 774.326
40.08000 805.831
40.10000 823.633
40.12000 843.367
40.14000 861.807
40.16000 882.364
40.18000 898.382
40.20000 919.187
40.22000 929.246
40.24000 927.270
40.26000 924.088
40.28000 931.056
40.30000 921.061
40.32000 924.147
40.34000 918.246
40.36000 904.562
40.38000 888.298
40.40000 869.768
40.42000 844.068
40.44000 834.500
40.46000 822.958
40.48000 796.924
40.50000 761.358
40.52000 726.682
40.54000 706.549
40.56000 676.515
40.58000 650.885
40.60000 623.362
40.62000 600.213
40.64000 578.976
40.66000 544.423
40.68000 514.672
40.70000 499.123
40.72000 475.667
40.74000 438.881
40.76000 416.097
40.78000 402.894
40.80000 376.889
40.82000 347.424
40.84000 329.209
40.86000 320.156
40.88000 299.486
40.90000 277.740
40.92000 270.975
40.94000 257.512
40.96000 240.500
40.98000 226.873
41.00000 211.537
41.02000 201.003
41.04000 186.820
41.06000 173.730
41.08000 168.176
41.10000 161.688
41.12000 150.957
41.14000 143.811
41.16000 135.184
41.18000 126.448
41.20000 121.021
41.22000 117.817
41.24000 109.643
41.26000 99.097
41.28000 100.536
41.30000 93.962
41.32000 85.762
41.34000 81.218
41.36000 77.918
41.38000 73.159
41.40000 68.299
41.42000 67.527
41.44000 60.770
41.46000 60.669
41.48000 62.226
41.50000 55.546
41.52000 50.363
41.54000 50.824
41.56000 51.139
41.58000 44.562
41.60000 42.338
41.62000 43.678
41.64000 44.174
41.66000 42.310
41.68000 36.184
41.70000 31.667
41.72000 29.051
41.74000 32.526
41.76000 34.269
41.78000 30.307
41.80000 28.394
41.82000 28.050
41.84000 32.085
41.86000 28.851
41.88000 27.584
41.90000 26.718
41.92000 23.920
41.94000 19.400
41.96000 15.102
41.98000 16.875
42.00000 20.037
42.02000 17.927
42.04000 12.452
42.06000 12.603
42.08000 15.223
42.10000 13.776
42.12000 13.159
42.14000 13.334
42.16000 13.125
42.18000 11.679
42.20000 13.215
42.22000 7.015
42.24000 5.799
42.26000 10.345
42.28000 10.393
42.30000 10.926
42.32000 10.605
42.34000 8.412
42.36000 7.671
42.38000 3.484
42.40000 3.280
42.42000 3.983
42.44000 7.069
42.46000 7.138
42.48000 6.628
42.50000 10.519
42.52000 5.788
42.54000 3.550
42.56000 5.305
42.58000 7.332
42.60000 8.530
42.62000 9.420
42.64000 7.520
42.66000 4.419
42.68000 1.292
42.70000 0.487
42.72000 5.200
42.74000 6.756
42.76000 8.262
42.78000 3.201
42.80000 4.932
42.82000 5.147
42.84000 1.567
42.86000 0.752
42.88000 4.928
42.90000 4.889
42.92000 5.113
42.94000 2.257
42.96000 5.969
42.98000 5.070
43.00000 -0.382
43.02000 2.201
43.04000 5.603
43.06000 8.162
43.08000 8.247
43.10000 4.767
43.12000 4.275
43.14000 8.516
43.16000 9.253
43.18000 6.969
43.20000 3.613
43.22000 0.881
43.24000 1.555
43.26000 6.522
43.28000 5.929
43.30000 6.675
43.32000 5.433
43.34000 2.023
43.36000 3.770
43.38000 1.720
43.40000 -3.341
43.42000 -0.040
43.44000 7.267
43.46000 3.459
43.48000 5.024
43.50000 6.339
43.52000 5.738
43.54000 4.311
43.56000 2.742
43.58000 2.909
43.60000 2.804
43.62000 6.507
43.64000 7.948
43.66000 4.845
43.68000 2.830
43.70000 1.847
43.72000 0.974
43.74000 -0.278
43.76000 3.176
43.78000 5.371
43.80000 1.475
43.82000 1.901
43.84000 3.594
43.86000 3.555
43.88000 0.672
43.90000 -1.583
43.92000 -0.403
43.94000 -0.016
43.96000 0.552
43.98000 -0.777
44.00000 2.019
44.02000 1.457
44.04000 1.705
44.06000 1.671
44.08000 6.278
44.10000 2.549
44.12000 0.945
44.14000 1.807
44.16000 1.767
44.18000 2.229
44.20000 4.148
44.22000 4.804
44.24000 6.951
44.26000 6.154
44.28000 3.886
44.30000 1.209
44.32000 3.072
44.34000 -0.052
44.36000 -0.654
44.38000 2.147
44.40000 5.581
44.42000 6.357
44.44000 2.692
44.46000 2.164
44.48000 3.233
44.50000 -2.626
44.52000 -3.308
44.54000 -0.781
44.56000 0.990
44.58000 3.708
44.60000 2.091
44.62000 3.178
44.64000 2.864
44.66000 4.375
44.68000 1.030
44.70000 2.585
44.72000 5.990
44.74000 7.361
44.76000 5.415
44.78000 2.281
44.80000 4.584
44.82000 1.359
44.84000 0.377
44.86000 -0.981
44.88000 2.163
44.90000 4.028
44.92000 5.193
44.94000 5.752
44.96000 6.572
44.98000 3.260
45.00000 6.068
45.02000 8.438
45.04000 3.284
45.06000 6.217
45.08000 4.581
45.10000 2.360
45.12000 3.175
45.14000 6.416
45.16000 8.616
45.18000 8.359
45.20000 8.269
45.22000 8.574
45.24000 14.225
45.26000 10.423
45.28000 6.446
45.30000 7.625
45.32000 9.167
45.34000 8.289
45.36000 10.811
45.38000 11.738
45.40000 13.048
45.42000 12.855
45.44000 12.964
45.46000 10.441
45.48000 17.084
45.50000 14.099
45.52000 16.117
45.54000 12.447
45.56000 15.211
45.58000 18.669
45.60000 20.406
45.62000 20.171
45.64000 19.797
45.66000 22.753
45.68000 23.153
45.70000 18.866
45.72000 18.592
45.74000 25.203
45.76000 32.007
45.78000 38.271
45.80000 32.889
45.82000 34.478
45.84000 30.030
45.86000 37.257
45.88000 39.092
45.90000 36.719
45.92000 36.029
45.94000 45.601
45.96000 46.372
45.98000 46.287
46.00000 51.250
46.02000 52.510
46.04000 49.036
46.06000 48.494
46.08000 52.628
46.10000 57.016
46.12000 57.871
46.14000 63.229
46.16000 68.930
46.18000 64.281
46.20000 65.241
46.22000 76.285
46.24000 78.545
46.26000 85.052
46.28000 80.150
46.30000 84.642
46.32000 89.116
46.34000 94.047
46.36000 91.015
46.38000 93.169
46.40000 99.416
46.42000 108.739
46.44000 110.869
46.46000 114.632
46.48000 124.458
46.50000 125.001
46.52000 128.880
46.54000 126.184
46.56000 133.216
46.58000 139.022
46.60000 135.143
46.62000 137.950
46.64000 143.820
46.66000 151.543
46.68000 149.862
46.70000 157.285
46.72000 164.497
46.74000 171.376
46.76000 165.816
46.78000 167.116
46.80000 176.562
46.82000 179.734
46.84000 179.260
46.86000 178.067
46.88000 186.489
46.90000 180.091
46.92000 180.145
46.94000 185.727
46.96000 178.813
46.98000 171.744
47.00000 174.915
47.02000 177.724
47.04000 176.153
47.06000 166.613
47.08000 167.759
47.10000 162.981
47.12000 155.986
47.14000 154.586
47.16000 148.203
47.18000 150.257
47.20000 150.308
47.22000 145.260
47.24000 133.494
47.26000 123.657
47.28000 120.177
47.30000 114.330
47.32000 109.428
47.34000 105.651
47.36000 102.091
47.38000 95.787
47.40000 93.678
47.42000 91.174
47.44000 90.037
47.46000 80.948
47.48000 73.462
47.50000 70.594
47.52000 74.777
47.54000 75.228
47.56000 66.632
47.58000 61.461
47.60000 56.405
47.62000 55.388
47.64000 48.776
47.66000 50.059
47.68000 45.344
47.70000 41.530
47.72000 44.773
47.74000 42.860
47.76000 38.138
47.78000 34.210
47.80000 38.381
47.82000 31.597
47.84000 31.785
47.86000 28.551
47.88000 26.857
47.90000 24.366
47.92000 22.666
47.94000 20.200
47.96000 19.440
47.98000 21.803
48.00000 15.042
48.02000 19.493
48.04000 18.456
48.06000 13.280
48.08000 14.722
48.10000 17.629
48.12000 16.460
48.14000 11.462
48.16000 5.876
48.18000 6.789
48.20000 7.846
48.22000 7.983
48.24000 6.744
48.26000 2.103
48.28000 6.849
48.30000 6.744
48.32000 5.683
48.34000 5.300
48.36000 2.827
48.38000 2.527
48.40000 4.580
48.42000 6.901
48.44000 5.350
48.46000 1.979
48.48000 1.564
48.50000 5.162
48.52000 9.310
48.54000 5.982
48.56000 4.302
48.58000 6.670
48.60000 6.739
48.62000 0.126
48.64000 4.166
48.66000 0.253
48.68000 0.456
48.70000 0.692
48.72000 4.051
48.74000 1.420
48.76000 0.001
48.78000 1.848
48.80000 4.869
48.82000 3.216
48.84000 5.170
48.86000 4.820
48.88000 2.424
48.90000 2.342
48.92000 -0.375
48.94000 3.038
48.96000 2.460
48.98000 1.505
49.00000 4.131
49.02000 3.818
49.04000 9.052
49.06000 10.211
49.08000 7.734
49.10000 5.040
49.12000 5.132
49.14000 3.629
49.16000 3.590
49.18000 5.128
49.20000 5.477
49.22000 2.086
49.24000 -2.742
49.26000 -0.646
49.28000 1.717
49.30000 -2.226
49.32000 3.023
49.34000 3.666
49.36000 7.384
49.38000 8.971
49.40000 0.491
49.42000 2.260
49.44000 4.538
49.46000 1.975
49.48000 4.816
49.50000 2.305
49.52000 5.945
49.54000 5.217
49.56000 4.807
49.58000 0.955
49.60000 -1.562
49.62000 2.568
49.64000 4.044
49.66000 2.321
49.68000 -2.181
49.70000 1.007
49.72000 0.892
49.74000 2.310
49.76000 2.681
49.78000 5.595
49.80000 3.815
49.82000 1.662
49.84000 5.425
49.86000 4.014
49.88000 3.813
49.90000 2.984
49.92000 0.118
49.94000 -1.262
49.96000 3.528
49.98000 2.891
50.00000 0.843
50.02000 -0.520
50.04000 -0.084
50.06000 3.430
50.08000 2.398
50.10000 1.979
50.12000 4.206
50.14000 3.808
50.16000 4.786
50.18000 3.841
50.20000 5.796
50.22000 2.865
50.24000 -2.695
50.26000 1.007
50.28000 0.935
50.30000 2.525
50.32000 5.820
50.34000 -0.060
50.36000 -2.684
50.38000 -2.360
50.40000 4.396
50.42000 0.927
50.44000 1.111
50.46000 1.400
50.48000 1.797
50.50000 1.220
50.52000 3.454
50.54000 3.205
50.56000 2.280
50.58000 2.407
50.60000 4.555
50.62000 3.405
50.64000 2.522
50.66000 2.893
50.68000 0.596
50.70000 1.712
50.72000 4.772
50.74000 2.654
50.76000 1.958
50.78000 2.894
50.80000 3.114
50.82000 1.903
50.84000 4.808
50.86000 5.138
50.88000 4.307
50.90000 4.654
50.92000 2.078
50.94000 1.028
50.96000 -0.161
50.98000 -1.399
51.00000 -2.617
51.02000 -1.265
51.04000 -1.359
51.06000 -1.803
51.08000 1.375
51.10000 6.282
51.12000 6.892
51.14000 6.856
51.16000 5.136
51.18000 4.902
51.20000 3.749
51.22000 3.912
51.24000 4.497
51.26000 -0.473
51.28000 4.780
51.30000 4.013
51.32000 4.549
51.34000 7.840
51.36000 4.313
51.38000 1.172
51.40000 1.722
51.42000 1.624
51.44000 2.416
51.46000 6.025
51.48000 3.278
51.50000 3.210
51.52000 0.473
51.54000 -1.288
51.56000 2.536
51.58000 3.600
51.60000 2.458
51.62000 2.847
51.64000 3.324
51.66000 3.672
51.68000 -0.344
51.70000 -2.600
51.72000 1.320
51.74000 3.139
51.76000 2.910
51.78000 1.896
51.80000 4.088
51.82000 4.004
51.84000 3.050
51.86000 5.239
51.88000 5.898
51.90000 5.243
51.92000 3.549
51.94000 4.800
51.96000 3.313
51.98000 4.421
52.00000 3.623
52.02000 4.215
52.04000 4.651
52.06000 3.969
52.08000 1.359
52.10000 3.000
52.12000 4.530
52.14000 5.158
52.16000 3.637
52.18000 2.606
52.20000 5.166
52.22000 3.008
52.24000 2.021
52.26000 3.617
52.28000 2.174
52.30000 4.966
52.32000 2.314
52.34000 2.743
52.36000 0.865
52.38000 -2.454
52.40000 -1.841
52.42000 2.867
52.44000 3.182
52.46000 3.470
52.48000 1.044
52.50000 1.349
52.52000 5.303
52.54000 5.873
52.56000 3.036
52.58000 1.220
52.60000 2.430
52.62000 4.869
52.64000 2.934
52.66000 -0.091
52.68000 4.146
52.70000 7.186
52.72000 5.318
52.74000 4.262
52.76000 2.768
52.78000 6.748
52.80000 2.800
52.82000 1.417
52.84000 6.392
52.86000 6.346
52.88000 2.945
52.90000 6.799
52.92000 7.745
52.94000 9.056
52.96000 5.982
52.98000 7.505
53.00000 5.164
53.02000 1.297
53.04000 2.897
53.06000 3.072
53.08000 2.256
53.10000 5.121
53.12000 5.467
53.14000 6.709
53.16000 3.545
53.18000 1.733
53.20000 -2.477
53.22000 5.706
53.24000 8.725
53.26000 7.344
53.28000 8.721
53.30000 3.040
53.32000 7.882
53.34000 5.587
53.36000 3.430
53.38000 6.281
53.40000 6.361
53.42000 2.585
53.44000 5.533
53.46000 6.302
53.48000 4.762
53.50000 6.718
53.52000 6.543
53.54000 5.660
53.56000 5.825
53.58000 4.681
53.60000 5.087
53.62000 3.558
53.64000 3.270
53.66000 0.873
53.68000 5.891
53.70000 4.748
53.72000 2.769
53.74000 3.313
53.76000 4.072
53.78000 -0.909
53.80000 0.228
53.82000 3.093
53.84000 -1.848
53.86000 -0.139
53.88000 8.017
53.90000 5.225
53.92000 1.399
53.94000 -1.508
53.96000 -0.809
53.98000 0.277
54.00000 -1.459
54.02000 -0.455
54.04000 -0.654
54.06000 3.825
54.08000 2.178
54.10000 3.576
54.12000 3.846
54.14000 4.435
54.16000 1.712
54.18000 3.381
54.20000 4.777
54.22000 -0.474
54.24000 5.030
54.26000 5.420
54.28000 4.768
54.30000 5.357
54.32000 0.198
54.34000 1.581
54.36000 5.493
54.38000 2.423
54.40000 0.610
54.42000 -0.137
54.44000 -2.483
54.46000 2.260
54.48000 -0.395
54.50000 1.886
54.52000 3.757
54.54000 1.697
54.56000 -2.514
54.58000 -0.605
54.60000 0.469
54.62000 6.478
54.64000 7.654
54.66000 3.244
54.68000 1.156
54.70000 4.059
54.72000 7.329
54.74000 4.048
54.76000 0.882
54.78000 3.614
54.80000 5.080
54.82000 -0.169
54.84000 0.846
54.86000 5.515
54.88000 3.295
54.90000 1.888
54.92000 2.765
54.94000 4.669
54.96000 3.342
54.98000 2.817
55.00000 5.097
55.02000 3.919
55.04000 1.464
55.06000 -2.370
55.08000 1.283
55.10000 1.526
55.12000 -0.970
55.14000 -1.955
55.16000 2.738
55.18000 3.818
55.20000 5.023
55.22000 5.479
55.24000 1.262
55.26000 -1.606
55.28000 -0.044
55.30000 1.666
55.32000 1.958
55.34000 5.159
55.36000 4.292
55.38000 3.934
55.40000 3.455
55.42000 4.304
55.44000 1.089
55.46000 3.344
55.48000 1.369
55.50000 -1.640
55.52000 0.684
55.54000 1.720
55.56000 0.076
55.58000 2.467
55.60000 -0.379
55.62000 -0.548
55.64000 -0.897
55.66000 -0.732
55.68000 3.107
55.70000 2.493
55.72000 1.371
55.74000 2.191
55.76000 -0.655
55.78000 -0.906
55.80000 2.891
55.82000 1.237
55.84000 -0.022
55.86000 1.195
55.88000 2.809
55.90000 0.327
55.92000 1.918
55.94000 2.369
55.96000 3.721
55.98000 7.539
56.00000 3.730
56.02000 3.086
56.04000 0.469
56.06000 -2.491
56.08000 -0.368
56.10000 -1.861
56.12000 -0.452
56.14000 0.687
56.16000 1.695
56.18000 1.949
56.20000 1.832
56.22000 2.494
56.24000 5.366
56.26000 -0.076
56.28000 1.694
56.30000 4.410
56.32000 0.637
56.34000 -2.022
56.36000 -0.055
56.38000 1.909
56.40000 1.749
56.42000 5.312
56.44000 5.187
56.46000 2.021
56.48000 0.614
56.50000 2.273
56.52000 1.128
56.54000 -1.254
56.56000 0.500
56.58000 -0.953
56.60000 4.849
56.62000 2.345
56.64000 4.161
56.66000 2.605
56.68000 -2.449
56.70000 0.048
56.72000 2.177
56.74000 -0.323
56.76000 3.590
56.78000 3.240
56.80000 1.127
56.82000 0.559
56.84000 0.993
56.86000 -1.185
56.88000 4.175
56.90000 2.282
56.92000 -0.747
56.94000 4.102
56.96000 4.711
56.98000 3.040
57.00000 -0.406
57.02000 -1.749
57.04000 0.948
57.06000 0.064
57.08000 -1.640
57.10000 0.240
57.12000 4.424
57.14000 3.252
57.16000 -2.228
57.18000 1.679
57.20000 3.575
57.22000 -0.226
57.24000 -1.049
57.26000 2.327
57.28000 3.576
57.30000 4.522
57.32000 -0.248
57.34000 -0.984
57.36000 -1.924
57.38000 2.680
57.40000 5.159
57.42000 3.738
57.44000 1.682
57.46000 -1.437
57.48000 0.691
57.50000 3.419
57.52000 3.879
57.54000 2.457
57.56000 -0.115
57.58000 0.300
57.60000 1.584
57.62000 5.791
57.64000 5.773
57.66000 2.807
57.68000 2.484
57.70000 1.190
57.72000 1.833
57.74000 2.977
57.76000 3.099
57.78000 2.508
57.80000 4.850
57.82000 2.342
57.84000 5.463
57.86000 0.078
57.88000 1.652
57.90000 4.862
57.92000 2.760
57.94000 -2.219
57.96000 -2.406
57.98000 -0.635
58.00000 3.054
58.02000 3.672
58.04000 5.393
58.06000 4.655
58.08000 3.782
58.10000 1.630
58.12000 6.046
58.14000 9.133
58.16000 7.995
58.18000 4.561
58.20000 3.135
58.22000 5.354
58.24000 4.993
58.26000 1.900
58.28000 2.577
58.30000 1.475
58.32000 2.290
58.34000 0.512
58.36000 1.088
58.38000 -1.530
58.40000 -0.311
58.42000 1.315
58.44000 5.595
58.46000 5.262
58.48000 3.587
58.50000 1.480
58.52000 3.956
58.54000 6.657
58.56000 4.610
58.58000 -0.176
58.60000 1.538
58.62000 1.672
58.64000 -0.071
58.66000 1.176
58.68000 5.847
58.70000 3.910
58.72000 2.656
58.74000 -1.850
58.76000 -1.110
58.78000 1.472
58.80000 1.293
58.82000 -1.012
58.84000 2.730
58.86000 6.128
58.88000 1.235
58.90000 0.944
58.92000 -2.360
58.94000 0.641
58.96000 2.583
58.98000 3.028
59.00000 3.166
59.02000 4.356
59.04000 2.117
59.06000 2.176
59.08000 2.290
59.10000 1.726
59.12000 2.449
59.14000 4.920
59.16000 4.464
59.18000 1.688
59.20000 3.360
59.22000 -0.108
59.24000 0.248
59.26000 2.769
59.28000 4.736
59.30000 6.224
59.32000 8.015
59.34000 9.562
59.36000 8.428
59.38000 6.411
59.40000 4.504
59.42000 3.696
59.44000 5.017
59.46000 0.783
59.48000 3.181
59.50000 6.054
59.52000 2.832
59.54000 3.424
59.56000 5.121
59.58000 6.365
59.60000 5.219
59.62000 2.573
59.64000 2.034
59.66000 4.406
59.68000 2.041
59.70000 3.924
59.72000 0.578
59.74000 3.258
59.76000 5.712
59.78000 6.363
59.80000 10.539
59.82000 6.840
59.84000 1.555
59.86000 -2.315
59.88000 1.845
59.90000 3.960
59.92000 0.781
59.94000 -0.047
59.96000 -0.592
59.98000 1.417
60.00000 1.034
60.02000 1.208
60.04000 3.136
60.06000 7.193
60.08000 6.442
60.10000 4.967
60.12000 0.185
60.14000 1.554
60.16000 1.247
60.18000 1.020
60.20000 3.221
60.22000 2.576
60.24000 3.343
60.26000 4.303
60.28000 4.725
60.30000 6.646
60.32000 4.857
60.34000 4.538
60.36000 3.322
60.38000 2.204
60.40000 3.721
60.42000 4.642
60.44000 5.135
60.46000 6.771
60.48000 6.112
60.50000 6.579
60.52000 3.253
60.54000 2.638
60.56000 1.361
60.58000 -1.215
60.60000 -2.323
60.62000 1.580
60.64000 4.669
60.66000 4.591
60.68000 7.759
60.70000 5.553
60.72000 1.312
60.74000 4.904
60.76000 4.027
60.78000 1.105
60.80000 2.121
60.82000 4.000
60.84000 3.485
60.86000 0.956
60.88000 1.982
60.90000 3.154
60.92000 3.257
60.94000 5.591
60.96000 4.602
60.98000 3.335
61.00000 1.722
61.02000 0.550
61.04000 0.361
61.06000 2.323
61.08000 0.654
61.10000 0.730
61.12000 3.591
61.14000 3.373
61.16000 -2.330
61.18000 -2.085
61.20000 0.304
61.22000 0.681
61.24000 0.136
61.26000 3.616
61.28000 5.048
61.30000 2.766
61.32000 1.868
61.34000 4.182
61.36000 1.017
61.38000 -1.403
61.40000 4.153
61.42000 1.724
61.44000 1.412
61.46000 0.901
61.48000 0.187
61.50000 1.667
61.52000 3.949
61.54000 2.128
61.56000 0.256
61.58000 -0.573
61.60000 -1.343
61.62000 -0.709
61.64000 1.637
61.66000 0.288
61.68000 0.013
61.70000 -1.562
61.72000 -1.812
61.74000 1.759
61.76000 -0.316
61.78000 0.378
61.80000 1.392
61.82000 3.368
61.84000 1.694
61.86000 4.162
61.88000 4.969
61.90000 1.312
61.92000 0.622
61.94000 4.264
61.96000 3.263
61.98000 1.411
62.00000 2.635
62.02000 0.384
62.04000 4.337
62.06000 2.258
62.08000 2.343
62.10000 3.331
62.12000 0.754
62.14000 4.256
62.16000 0.946
62.18000 -1.308
62.20000 -2.300
62.22000 1.910
62.24000 4.507
62.26000 5.742
62.28000 4.239
62.30000 1.780
62.32000 2.702
62.34000 -0.351
62.36000 2.562
62.38000 3.615
62.40000 4.691
62.42000 -0.074
62.44000 0.875
62.46000 0.911
62.48000 -2.238
62.50000 1.562
62.52000 4.086
62.54000 2.809
62.56000 1.206
62.58000 2.289
62.60000 1.905
62.62000 -0.693
62.64000 -1.050
62.66000 -1.548
62.68000 3.208
62.70000 4.033
62.72000 6.352
62.74000 6.434
62.76000 1.336
62.78000 0.519
62.80000 2.828
62.82000 4.185
62.84000 3.214
62.86000 4.479
62.88000 4.468
62.90000 1.894
62.92000 4.073
62.94000 -0.381
62.96000 -1.134
62.98000 -2.301
63.00000 2.982
63.02000 2.065
63.04000 2.370
63.06000 -0.464
63.08000 -0.154
63.10000 1.251
63.12000 2.291
63.14000 0.534
63.16000 -1.188
63.18000 -0.046
63.20000 1.533
63.22000 1.762
63.24000 4.736
63.26000 3.860
63.28000 1.738
63.30000 1.202
63.32000 2.265
63.34000 3.043
63.36000 -0.225
63.38000 3.610
63.40000 6.182
63.42000 3.914
63.44000 4.555
63.46000 4.436
63.48000 0.952
63.50000 -2.289
63.52000 1.028
63.54000 1.476
63.56000 2.049
63.58000 2.632
63.60000 2.072
63.62000 2.842
63.64000 1.658
63.66000 2.601
63.68000 6.360
63.70000 5.439
63.72000 5.341
63.74000 2.110
63.76000 1.892
63.78000 3.737
63.80000 3.096
63.82000 0.774
63.84000 2.662
63.86000 1.662
63.88000 -0.679
63.90000 0.351
63.92000 1.435
63.94000 -0.969
63.96000 0.018
63.98000 -1.099
64.00000 1.432
64.02000 -0.132
64.04000 -1.260
64.06000 2.703
64.08000 4.694
64.10000 2.743
64.12000 -0.847
64.14000 -2.299
64.16000 -0.227
64.18000 1.027
64.20000 1.912
64.22000 3.324
64.24000 -0.823
64.26000 -1.772
64.28000 2.484
64.30000 3.423
64.32000 -1.212
64.34000 -1.391
64.36000 3.290
64.38000 5.546
64.40000 7.699
64.42000 5.520
64.44000 1.516
64.46000 2.117
64.48000 2.479
64.50000 3.207
64.52000 2.366
64.54000 2.641
64.56000 5.173
64.58000 2.110
64.60000 -0.054
64.62000 -2.297
64.64000 -0.985
64.66000 2.392
64.68000 3.440
64.70000 3.710
64.72000 2.000
64.74000 2.681
64.76000 2.551
64.78000 4.538
64.80000 3.288
64.82000 4.039
64.84000 3.409
64.86000 4.541
64.88000 0.814
64.90000 -0.502
64.92000 -2.290
64.94000 1.674
64.96000 2.359
64.98000 1.693
65.00000 4.006
65.02000 3.199
65.04000 1.103
65.06000 0.711
65.08000 1.496
65.10000 2.549
65.12000 -0.476
65.14000 2.193
65.16000 3.149
65.18000 0.199
65.20000 -0.961
65.22000 1.603
65.24000 1.450
65.26000 2.813
65.28000 2.113
65.30000 2.944
65.32000 3.605
65.34000 1.265
65.36000 2.081
65.38000 -1.627
65.40000 -1.407
65.42000 1.607
65.44000 3.003
65.46000 0.898
65.48000 1.287
65.50000 1.293
65.52000 1.552
65.54000 0.599
65.56000 -1.347
65.58000 -0.187
65.60000 4.119
65.62000 1.641
65.64000 -1.009
65.66000 -1.794
65.68000 0.715
65.70000 0.260
65.72000 1.829
65.74000 1.270
65.76000 -0.910
65.78000 -0.582
65.80000 2.334
65.82000 7.776
65.84000 2.823
65.86000 2.883
65.88000 2.635
65.90000 -1.428
65.92000 0.465
65.94000 3.738
65.96000 2.261
65.98000 1.268
66.00000 -1.864
66.02000 -2.330
66.04000 1.305
66.06000 4.586
66.08000 3.318
66.10000 3.966
66.12000 0.188
66.14000 -1.115
66.16000 4.178
66.18000 2.576
66.20000 0.357
66.22000 -0.023
66.24000 2.763
66.26000 0.380
66.28000 0.606
66.30000 1.503
66.32000 3.055
66.34000 2.889
66.36000 0.972
66.38000 -2.351
66.40000 2.396
66.42000 2.009
66.44000 1.117
66.46000 3.639
66.48000 2.286
66.50000 0.722
66.52000 1.813
66.54000 2.555
66.56000 1.910
66.58000 2.560
66.60000 2.035
66.62000 2.123
66.64000 -0.685
66.66000 -0.117
66.68000 -0.874
66.70000 -1.137
66.72000 0.877
66.74000 2.603
66.76000 0.203
66.78000 2.188
66.80000 0.170
66.82000 0.960
66.84000 0.486
66.86000 1.601
66.88000 1.691
66.90000 -0.873
66.92000 -0.035
66.94000 0.501
66.96000 1.749
66.98000 3.882
67.00000 1.688
67.02000 1.751
67.04000 2.816
67.06000 1.742
67.08000 -2.411
67.10000 -2.253
67.12000 1.579
67.14000 2.543
67.16000 2.548
67.18000 4.452
67.20000 2.090
67.22000 0.535
67.24000 1.602
67.26000 2.010
67.28000 3.843
67.30000 4.712
67.32000 1.885
67.34000 3.585
67.36000 0.540
67.38000 2.903
67.40000 4.807
67.42000 6.656
67.44000 3.693
67.46000 3.235
67.48000 3.215
67.50000 1.288
67.52000 4.750
67.54000 4.106
67.56000 6.352
67.58000 7.354
67.60000 5.319
67.62000 5.629
67.64000 4.787
67.66000 6.009
67.68000 11.132
67.70000 14.571
67.72000 13.948
67.74000 12.547
67.76000 11.223
67.78000 11.516
67.80000 9.973
67.82000 7.852
67.84000 7.224
67.86000 10.978
67.88000 11.833
67.90000 8.648
67.92000 9.228
67.94000 12.868
67.96000 16.140
67.98000 18.580
68.00000 18.390
68.02000 14.758
68.04000 17.944
68.06000 14.839
68.08000 18.292
68.10000 23.065
68.12000 21.205
68.14000 19.074
68.16000 21.191
68.18000 23.285
68.20000 23.075
68.22000 20.603
68.24000 19.699
68.26000 23.936
68.28000 28.139
68.30000 23.213
68.32000 20.663
68.34000 25.768
68.36000 25.985
68.38000 27.072
68.40000 26.941
68.42000 26.509
68.44000 30.395
68.46000 31.147
68.48000 32.284
68.50000 28.420
68.52000 25.598
68.54000 22.323
68.56000 25.840
68.58000 29.655
68.60000 32.130
68.62000 33.692
68.64000 33.402
68.66000 30.134
68.68000 28.434
68.70000 29.948
68.72000 29.851
68.74000 29.979
68.76000 28.798
68.78000 26.932
68.80000 28.295
68.82000 28.043
68.84000 25.461
68.86000 21.136
68.88000 23.560
68.90000 24.373
68.92000 22.088
68.94000 22.685
68.96000 22.289
68.98000 17.311
69.00000 16.322
69.02000 15.672
69.04000 14.610
69.06000 14.217
69.08000 16.790
69.10000 16.665
69.12000 12.677
69.14000 11.970
69.16000 10.500
69.18000 12.041
69.20000 9.997
69.22000 10.421
69.24000 10.111
69.26000 9.925
69.28000 7.039
69.30000 10.195
69.32000 9.778
69.34000 9.579
69.36000 5.547
69.38000 6.548
69.40000 6.850
69.42000 2.260
69.44000 -0.903
69.46000 -1.009
69.48000 1.661
69.50000 6.257
69.52000 5.945
69.54000 7.535
69.56000 4.884
69.58000 0.518
69.60000 1.432
69.62000 1.820
69.64000 6.525
69.66000 6.152
69.68000 1.068
69.70000 0.207
69.72000 0.467
69.74000 0.993
69.76000 1.587
69.78000 -1.097
69.80000 -0.095
69.82000 2.052
69.84000 0.804
69.86000 1.816
69.88000 0.506
69.90000 0.002
69.92000 -2.077
69.94000 -0.633
69.96000 2.040
69.98000 2.654
70.00000 0.778
70.02000 -1.217
70.04000 -2.319
70.06000 -0.568
70.08000 2.099
70.10000 1.135
70.12000 0.166
70.14000 -1.664
70.16000 1.520
70.18000 1.234
70.20000 -1.718
70.22000 -0.065
70.24000 2.010
70.26000 2.219
70.28000 1.674
70.30000 1.293
70.32000 2.263
70.34000 2.809
70.36000 3.827
70.38000 0.283
70.40000 -1.519
70.42000 2.792
70.44000 3.901
70.46000 -0.098
70.48000 1.766
70.50000 5.109
70.52000 4.512
70.54000 7.041
70.56000 3.480
70.58000 1.836
70.60000 -2.243
70.62000 -0.023
70.64000 1.431
70.66000 1.684
70.68000 0.367
70.70000 2.815
70.72000 3.677
70.74000 3.347
70.76000 -0.947
70.78000 0.238
70.80000 0.218
70.82000 4.945
70.84000 2.813
70.86000 -0.196
70.88000 -1.029
70.90000 -1.615
70.92000 -0.928
70.94000 -1.891
70.96000 -0.316
70.98000 1.904
71.00000 -1.492
71.02000 -2.238
71.04000 -2.092
71.06000 0.021
71.08000 0.686
71.10000 1.136
71.12000 -1.247
71.14000 -1.135
71.16000 -1.780
71.18000 2.307
71.20000 3.442
71.22000 2.095
71.24000 2.548
71.26000 -0.050
71.28000 1.118
71.30000 -0.855
71.32000 3.540
71.34000 2.707
71.36000 1.046
71.38000 0.450
71.40000 3.093
71.42000 0.388
71.44000 -2.224
71.46000 -1.774
71.48000 0.988
71.50000 3.060
71.52000 1.589
71.54000 2.676
71.56000 3.411
71.58000 1.426
71.60000 0.995
71.62000 -1.898
71.64000 2.561
71.66000 4.199
71.68000 -0.174
71.70000 -0.375
71.72000 1.988
71.74000 2.301
71.76000 1.329
71.78000 3.011
71.80000 -1.239
71.82000 1.062
71.84000 0.649
71.86000 0.089
71.88000 -0.721
71.90000 -2.163
71.92000 2.334
71.94000 0.328
71.96000 2.137
71.98000 -0.254
72.00000 -1.540
72.02000 1.167
72.04000 5.048
72.06000 3.864
72.08000 1.564
72.10000 1.874
72.12000 -0.883
72.14000 -0.446
72.16000 3.403
72.18000 0.320
72.20000 -2.169
72.22000 0.188
72.24000 3.397
72.26000 3.329
72.28000 3.595
72.30000 0.851
72.32000 2.727
72.34000 0.683
72.36000 0.226
72.38000 1.550
72.40000 0.082
72.42000 0.583
72.44000 3.555
72.46000 1.672
72.48000 3.066
72.50000 1.392
72.52000 -0.230
72.54000 -0.318
72.56000 2.102
72.58000 2.832
72.60000 1.716
72.62000 3.204
72.64000 3.198
72.66000 2.943
72.68000 2.756
72.70000 4.773
72.72000 3.579
72.74000 4.351
72.76000 3.169
72.78000 4.652
72.80000 3.827
72.82000 4.658
72.84000 2.365
72.86000 3.896
72.88000 2.322
72.90000 -0.531
72.92000 -2.116
72.94000 0.118
72.96000 2.416
72.98000 2.714
73.00000 2.069
73.02000 0.637
73.04000 2.184
73.06000 5.816
73.08000 3.718
73.10000 0.511
73.12000 0.675
73.14000 2.167
73.16000 2.242
73.18000 5.322
73.20000 4.027
73.22000 3.191
73.24000 3.349
73.26000 2.664
73.28000 0.281
73.30000 2.092
73.32000 1.896
73.34000 4.140
73.36000 4.331
73.38000 4.171
73.40000 4.245
73.42000 8.214
73.44000 6.114
73.46000 3.786
73.48000 2.927
73.50000 0.510
73.52000 -0.738
73.54000 -0.267
73.56000 2.053
73.58000 -0.110
73.60000 -0.253
73.62000 6.257
73.64000 2.731
73.66000 -0.010
73.68000 2.799
73.70000 0.173
73.72000 -2.144
73.74000 -0.939
73.76000 3.062
73.78000 2.174
73.80000 1.786
73.82000 2.967
73.84000 4.833
73.86000 5.556
73.88000 3.393
73.90000 0.384
73.92000 1.194
73.94000 0.471
73.96000 0.414
73.98000 0.542
74.00000 -2.073
74.02000 0.483
74.04000 2.630
74.06000 0.142
74.08000 2.283
74.10000 3.647
74.12000 5.094
74.14000 5.003
74.16000 8.194
74.18000 5.244
74.20000 -1.549
74.22000 2.875
74.24000 7.665
74.26000 4.649
74.28000 3.053
74.30000 3.307
74.32000 0.315
74.34000 1.046
74.36000 2.309
74.38000 1.592
74.40000 0.852
74.42000 -0.991
74.44000 -1.835
74.46000 0.611
74.48000 4.936
74.50000 2.719
74.52000 5.158
74.54000 4.059
74.56000 3.196
74.58000 2.392
74.60000 3.798
74.62000 3.700
74.64000 -0.391
74.66000 -0.958
74.68000 3.219
74.70000 1.008
74.72000 3.008
74.74000 1.308
74.76000 2.873
74.78000 3.614
74.80000 5.114
74.82000 2.612
74.84000 -0.902
74.86000 -1.959
74.88000 1.032
74.90000 -1.793
74.92000 -1.145
74.94000 -1.454
74.96000 0.478
74.98000 3.569
75.00000 2.550
75.02000 1.996
75.04000 0.620
75.06000 3.188
75.08000 3.684
75.10000 5.754
75.12000 -2.122
75.14000 0.858
75.16000 6.125
75.18000 3.003
75.20000 4.310
75.22000 1.617
75.24000 4.184
75.26000 4.468
75.28000 1.154
75.30000 -0.610
75.32000 -2.075
75.34000 1.602
75.36000 3.179
75.38000 4.048
75.40000 0.516
75.42000 2.062
75.44000 1.638
75.46000 -2.081
75.48000 0.001
75.50000 -2.146
75.52000 1.190
75.54000 -0.514
75.56000 0.195
75.58000 0.116
75.60000 0.930
75.62000 1.654
75.64000 7.209
75.66000 3.912
75.68000 0.821
75.70000 0.241
75.72000 1.749
75.74000 3.989
75.76000 1.788
75.78000 3.137
75.80000 1.311
75.82000 -0.467
75.84000 2.280
75.86000 5.167
75.88000 0.392
75.90000 0.743
75.92000 2.036
75.94000 1.208
75.96000 -2.165
75.98000 -0.700
76.00000 -1.604
76.02000 -0.242
76.04000 2.288
76.06000 4.846
76.08000 2.768
76.10000 -1.751
76.12000 -0.912
76.14000 3.736
76.16000 6.155
76.18000 5.771
76.20000 3.039
76.22000 1.616
76.24000 5.271
76.26000 0.832
76.28000 1.962
76.30000 1.579
76.32000 -1.268
76.34000 2.960
76.36000 4.725
76.38000 2.461
76.40000 0.115
76.42000 3.820
76.44000 3.866
76.46000 2.369
76.48000 2.839
76.50000 3.037
76.52000 2.187
76.54000 2.173
76.56000 2.397
76.58000 2.325
76.60000 1.111
76.62000 -0.590
76.64000 3.166
76.66000 6.279
76.68000 1.677
76.70000 -0.228
76.72000 0.179
76.74000 1.892
76.76000 2.301
76.78000 1.595
76.80000 4.121
76.82000 4.000
76.84000 -0.422
76.86000 2.227
76.88000 5.134
76.90000 1.993
76.92000 4.021
76.94000 -1.062
76.96000 0.418
76.98000 0.648
77.00000 3.486
77.02000 1.087
77.04000 0.703
77.06000 -2.131
77.08000 -0.681
77.10000 1.976
77.12000 2.566
77.14000 4.155
77.16000 2.700
77.18000 0.792
77.20000 0.931
77.22000 0.679
77.24000 1.797
77.26000 4.951
77.28000 2.869
77.30000 6.527
77.32000 7.307
77.34000 2.338
77.36000 -1.109
77.38000 -0.018
77.40000 2.557
77.42000 1.056
77.44000 1.786
77.46000 -0.739
77.48000 1.538
77.50000 4.271
77.52000 0.825
77.54000 3.683
77.56000 3.527
77.58000 3.133
77.60000 6.377
77.62000 3.206
77.64000 -0.910
77.66000 -0.250
77.68000 1.266
77.70000 1.110
77.72000 -2.117
77.74000 -0.947
77.76000 -0.976
77.78000 0.367
77.80000 0.889
77.82000 -0.113
77.84000 0.202
77.86000 -0.542
77.88000 0.172
77.90000 -0.250
77.92000 -0.914
77.94000 1.319
77.96000 2.741
77.98000 1.211
78.00000 0.798
78.02000 0.590
78.04000 4.894
78.06000 1.987
78.08000 3.398
78.10000 1.858
78.12000 -0.239
78.14000 4.189
78.16000 4.651
78.18000 2.875
78.20000 -0.643
78.22000 1.884
78.24000 3.186
78.26000 0.038
78.28000 -0.382
78.30000 2.795
78.32000 2.617
78.34000 1.723
78.36000 0.627
78.38000 3.889
78.40000 5.014
78.42000 1.883
78.44000 3.350
78.46000 0.068
78.48000 0.496
78.50000 2.795
78.52000 -1.724
78.54000 1.377
78.56000 0.678
78.58000 -0.024
78.60000 -0.489
78.62000 1.261
78.64000 4.523
78.66000 -1.111
78.68000 -0.060
78.70000 0.558
78.72000 1.136
78.74000 -2.043
78.76000 -0.185
78.78000 -2.187
78.80000 0.583
78.82000 0.118
78.84000 0.440
78.86000 1.364
78.88000 3.896
78.90000 3.386
78.92000 4.919
78.94000 4.989
78.96000 3.639
78.98000 2.012
79.00000 -2.182
79.02000 1.047
79.04000 2.565
79.06000 3.192
79.08000 0.349
79.10000 1.083
79.12000 -1.321
79.14000 0.982
79.16000 3.191
79.18000 3.109
79.20000 2.623
79.22000 3.708
79.24000 1.229
79.26000 1.354
79.28000 4.039
79.30000 6.447
79.32000 5.241
79.34000 -0.510
79.36000 1.663
79.38000 4.226
79.40000 3.039
79.42000 5.785
79.44000 3.791
79.46000 -1.464
79.48000 -2.167
79.50000 2.511
79.52000 1.879
79.54000 1.297
79.56000 0.437
79.58000 1.747
79.60000 0.573
79.62000 -2.176
79.64000 5.305
79.66000 6.436
79.68000 6.701
79.70000 4.770
79.72000 5.084
79.74000 6.190
79.76000 3.617
79.78000 3.373
79.80000 3.905
79.82000 2.701
79.84000 2.879
79.86000 3.775
79.88000 7.039
79.90000 4.235
79.92000 2.281
79.94000 0.128
79.96000 1.366
79.98000 0.021
80.00000 0.849
80.02000 3.267
80.04000 2.264
80.06000 0.940
80.08000 3.066
80.10000 4.111
80.12000 2.662
80.14000 6.775
80.16000 5.823
80.18000 5.087
80.20000 4.058
80.22000 -0.470
80.24000 2.961
80.26000 0.472
80.28000 2.185
80.30000 2.204
80.32000 2.963
80.34000 3.899
80.36000 1.605
80.38000 -2.265
80.40000 -1.505
80.42000 -0.022
80.44000 0.111
80.46000 0.236
80.48000 0.517
80.50000 2.852
80.52000 2.581
80.54000 2.692
80.56000 2.566
80.58000 0.059
80.60000 1.681
80.62000 2.831
80.64000 3.687
80.66000 1.636
80.68000 3.143
80.70000 2.908
80.72000 3.647
80.74000 2.214
80.76000 3.888
80.78000 3.516
80.80000 4.654
80.82000 3.504
80.84000 3.028
80.86000 -0.021
80.88000 -0.469
80.90000 5.098
80.92000 0.121
80.94000 3.243
80.96000 4.269
80.98000 -0.976
81.00000 1.080
81.02000 4.474
81.04000 2.898
81.06000 2.258
81.08000 0.825
81.10000 4.645
81.12000 6.135
81.14000 4.078
81.16000 4.013
81.18000 1.087
81.20000 0.128
81.22000 0.819
81.24000 4.572
81.26000 4.267
81.28000 3.532
81.30000 7.277
81.32000 1.025
81.34000 1.423
81.36000 3.453
81.38000 6.160
81.40000 6.631
81.42000 8.829
81.44000 11.145
81.46000 8.770
81.48000 9.132
81.50000 12.067
81.52000 7.767
81.54000 11.667
81.56000 13.990
81.58000 14.067
81.60000 11.392
81.62000 12.352
81.64000 12.522
81.66000 15.115
81.68000 13.795
81.70000 14.913
81.72000 12.789
81.74000 16.917
81.76000 14.938
81.78000 19.202
81.80000 19.270
81.82000 19.378
81.84000 15.050
81.86000 16.662
81.88000 18.441
81.90000 16.634
81.92000 18.641
81.94000 19.363
81.96000 19.594
81.98000 16.909
82.00000 21.803
82.02000 27.234
82.04000 27.042
82.06000 26.364
82.08000 24.312
82.10000 24.383
82.12000 28.691
82.14000 26.442
82.16000 28.162
82.18000 28.764
82.20000 28.174
82.22000 31.477
82.24000 33.887
82.26000 31.413
82.28000 36.726
82.30000 36.470
82.32000 35.365
82.34000 31.606
82.36000 38.267
82.38000 41.421
82.40000 38.464
82.42000 45.933
82.44000 41.363
82.46000 42.171
82.48000 42.482
82.50000 38.219
82.52000 33.532
82.54000 36.211
82.56000 42.048
82.58000 44.812
82.60000 41.615
82.62000 41.360
82.64000 44.693
82.66000 49.648
82.68000 49.669
82.70000 42.669
82.72000 46.155
82.74000 48.203
82.76000 45.831
82.78000 46.841
82.80000 44.390
82.82000 42.748
82.84000 42.864
82.86000 45.831
82.88000 42.944
82.90000 39.074
82.92000 37.734
82.94000 41.530
82.96000 42.291
82.98000 40.364
83.00000 35.376
83.02000 32.912
83.04000 32.881
83.06000 36.091
83.08000 30.122
83.10000 27.202
83.12000 29.595
83.14000 34.062
83.16000 33.696
83.18000 32.117
83.20000 26.873
83.22000 23.698
83.24000 28.529
83.26000 25.821
83.28000 25.551
83.30000 22.061
83.32000 22.261
83.34000 23.398
83.36000 17.791
83.38000 13.961
83.40000 16.968
83.42000 17.935
83.44000 17.433
83.46000 16.086
83.48000 13.144
83.50000 15.800
83.52000 16.211
83.54000 16.743
83.56000 16.869
83.58000 15.551
83.60000 14.911
83.62000 14.870
83.64000 13.385
83.66000 13.936
83.68000 10.662
83.70000 11.114
83.72000 7.901
83.74000 9.242
83.76000 8.293
83.78000 9.515
83.80000 8.714
83.82000 7.866
83.84000 11.521
83.86000 10.421
83.88000 7.700
83.90000 6.303
83.92000 6.249
83.94000 7.391
83.96000 8.941
83.98000 4.375
84.00000 3.801
84.02000 3.827
84.04000 3.462
84.06000 2.147
84.08000 3.297
84.10000 3.418
84.12000 -0.460
84.14000 1.412
84.16000 6.019
84.18000 7.182
84.20000 7.326
84.22000 7.532
84.24000 2.143
84.26000 0.534
84.28000 -2.294
84.30000 4.097
84.32000 1.554
84.34000 2.151
84.36000 8.082
84.38000 4.217
84.40000 0.027
84.42000 2.348
84.44000 0.333
84.46000 2.938
84.48000 0.412
84.50000 -0.446
84.52000 5.334
84.54000 4.845
84.56000 -0.064
84.58000 0.987
84.60000 3.444
84.62000 2.451
84.64000 -0.626
84.66000 -2.284
84.68000 1.623
84.70000 3.586
84.72000 1.192
84.74000 1.470
84.76000 1.808
84.78000 -0.777
84.80000 0.656
84.82000 -1.132
84.84000 2.988
84.86000 3.206
84.88000 3.199
84.90000 -0.182
84.92000 2.519
84.94000 6.238
84.96000 6.868
84.98000 0.024
85.00000 -1.100
85.02000 0.622
85.04000 2.395
85.06000 4.621
85.08000 2.602
85.10000 1.350
85.12000 0.052
85.14000 0.995
85.16000 -2.009
85.18000 -1.088
85.20000 2.234
85.22000 4.123
85.24000 4.263
85.26000 0.523
85.28000 -2.258
85.30000 2.963
85.32000 1.811
85.34000 -0.818
85.36000 -0.338
85.38000 0.763
85.40000 2.197
85.42000 1.045
85.44000 4.014
85.46000 8.236
85.48000 3.716
85.50000 1.797
85.52000 -0.924
85.54000 1.832
85.56000 0.042
85.58000 4.180
85.60000 4.018
85.62000 1.818
85.64000 2.441
85.66000 1.636
85.68000 0.131
85.70000 3.999
85.72000 4.607
85.74000 4.183
85.76000 4.886
85.78000 4.246
85.80000 1.940
85.82000 -0.223
85.84000 4.767
85.86000 9.000
85.88000 5.874
85.90000 -0.654
85.92000 4.146
85.94000 3.585
85.96000 3.650
85.98000 2.287
86.00000 1.682
86.02000 5.457
86.04000 7.020
86.06000 9.277
86.08000 11.256
86.10000 12.064
86.12000 9.160
86.14000 5.031
86.16000 2.503
86.18000 5.007
86.20000 6.638
86.22000 5.881
86.24000 15.516
86.26000 13.608
86.28000 7.825
86.30000 12.500
86.32000 12.925
86.34000 11.486
86.36000 10.285
86.38000 11.881
86.40000 12.981
86.42000 17.848
86.44000 16.809
86.46000 14.162
86.48000 15.246
86.50000 18.189
86.52000 17.726
86.54000 18.326
86.56000 20.435
86.58000 22.638
86.60000 23.106
86.62000 23.641
86.64000 25.203
86.66000 27.017
86.68000 26.218
86.70000 29.861
86.72000 29.330
86.74000 23.712
86.76000 24.530
86.78000 26.947
86.80000 30.712
86.82000 31.279
86.84000 32.270
86.86000 28.518
86.88000 28.061
86.90000 30.299
86.92000 29.044
86.94000 31.702
86.96000 34.540
86.98000 32.211
87.00000 32.133
87.02000 33.802
87.04000 31.880
87.06000 33.180
87.08000 29.273
87.10000 27.281
87.12000 26.620
87.14000 29.569
87.16000 30.321
87.18000 29.278
87.20000 28.480
87.22000 29.326
87.24000 27.749
87.26000 29.132
87.28000 25.885
87.30000 21.312
87.32000 22.543
87.34000 24.875
87.36000 22.668
87.38000 23.296
87.40000 26.755
87.42000 21.073
87.44000 24.065
87.46000 24.363
87.48000 18.357
87.50000 20.221
87.52000 22.126
87.54000 17.412
87.56000 20.862
87.58000 15.672
87.60000 14.026
87.62000 16.310
87.64000 15.977
87.66000 12.003
87.68000 10.474
87.70000 12.464
87.72000 13.135
87.74000 13.152
87.76000 13.856
87.78000 12.876
87.80000 11.016
87.82000 8.973
87.84000 6.641
87.86000 7.029
87.88000 8.986
87.90000 4.755
87.92000 4.341
87.94000 5.269
87.96000 5.560
87.98000 7.537
88.00000 8.183
88.02000 7.558
88.04000 5.507
88.06000 6.367
88.08000 2.944
88.10000 5.615
88.12000 3.194
88.14000 4.250
88.16000 3.695
88.18000 6.382
88.20000 3.662
88.22000 -0.045
88.24000 1.173
88.26000 3.199
88.28000 2.063
88.30000 -0.900
88.32000 2.638
88.34000 2.604
88.36000 2.669
88.38000 0.347
88.40000 0.354
88.42000 -0.696
88.44000 -0.310
88.46000 2.106
88.48000 2.452
88.50000 1.033
88.52000 3.175
88.54000 2.812
88.56000 3.645
88.58000 2.731
88.60000 0.649
88.62000 1.294
88.64000 4.740
88.66000 3.458
88.68000 1.239
88.70000 0.895
88.72000 -0.293
88.74000 0.423
88.76000 -2.113
88.78000 -2.059
88.80000 3.553
88.82000 0.029
88.84000 1.865
88.86000 2.041
88.88000 1.901
88.90000 2.594
88.92000 0.171
88.94000 -0.089
88.96000 2.493
88.98000 3.054
89.00000 1.824
89.02000 1.559
89.04000 3.308
89.06000 3.833
89.08000 3.929
89.10000 4.976
89.12000 7.137
89.14000 4.974
89.16000 0.718
89.18000 4.982
89.20000 5.048
89.22000 3.116
89.24000 2.013
89.26000 -1.919
89.28000 -0.110
89.30000 3.214
89.32000 2.531
89.34000 4.451
89.36000 2.990
89.38000 2.409
89.40000 6.054
89.42000 5.382
89.44000 6.346
89.46000 7.307
89.48000 5.308
89.50000 3.248
89.52000 -0.090
89.54000 -1.961
89.56000 3.208
89.58000 3.894
89.60000 5.414
89.62000 4.557
89.64000 5.373
89.66000 4.951
89.68000 3.217
89.70000 5.140
89.72000 5.249
89.74000 5.010
89.76000 5.277
89.78000 4.024
89.80000 -1.976
89.82000 -0.113
89.84000 6.080
89.86000 5.674
89.88000 3.703
89.90000 4.314
89.92000 3.485
89.94000 3.224
89.96000 5.847
89.98000 8.173
90.00000 6.016
90.02000 3.935
90.04000 3.317
90.06000 3.709
90.08000 5.536
90.10000 4.199
90.12000 5.025
90.14000 6.165
90.16000 3.912
90.18000 -0.246
90.20000 0.166
90.22000 1.194
90.24000 2.463
90.26000 3.512
90.28000 2.812
90.30000 2.042
90.32000 2.643
90.34000 2.308
90.36000 2.255
90.38000 2.337
90.40000 2.523
90.42000 4.234
90.44000 2.951
90.46000 3.498
90.48000 4.258
90.50000 5.373
90.52000 4.477
90.54000 4.309
90.56000 3.040
90.58000 1.432
90.60000 0.223
90.62000 -0.141
90.64000 1.022
90.66000 3.169
90.68000 -0.025
90.70000 4.440
90.72000 4.824
90.74000 2.573
90.76000 -0.925
90.78000 0.592
90.80000 2.901
90.82000 0.888
90.84000 1.934
90.86000 5.177
90.88000 2.617
90.90000 3.164
90.92000 2.958
90.94000 4.587
90.96000 4.943
90.98000 -0.616
91.00000 -0.082
91.02000 1.926
91.04000 0.398
91.06000 0.895
91.08000 0.834
91.10000 4.099
91.12000 4.501
91.14000 3.671
91.16000 1.866
91.18000 1.804
91.20000 1.030
91.22000 0.307
91.24000 -1.672
91.26000 1.491
91.28000 5.548
91.30000 5.159
91.32000 6.215
91.34000 5.424
91.36000 2.364
91.38000 1.808
91.40000 -0.732
91.42000 -2.023
91.44000 0.906
91.46000 2.046
91.48000 1.253
91.50000 4.800
91.52000 3.799
91.54000 4.676
91.56000 4.005
91.58000 5.301
91.60000 5.348
91.62000 4.291
91.64000 4.975
91.66000 9.043
91.68000 7.724
91.70000 3.900
91.72000 8.667
91.74000 5.431
91.76000 4.482
91.78000 1.159
91.80000 3.675
91.82000 7.530
91.84000 1.833
91.86000 5.292
91.88000 5.261
91.90000 5.406
91.92000 5.093
91.94000 3.748
91.96000 4.278
91.98000 6.467
92.00000 5.456
92.02000 8.344
92.04000 8.911
92.06000 5.536
92.08000 4.799
92.10000 3.142
92.12000 -1.960
92.14000 3.312
92.16000 4.609
92.18000 8.699
92.20000 6.845
92.22000 3.430
92.24000 2.507
92.26000 3.891
92.28000 4.808
92.30000 4.820
92.32000 6.655
92.34000 4.620
92.36000 0.949
92.38000 2.736
92.40000 6.385
92.42000 5.414
92.44000 0.576
92.46000 1.667
92.48000 2.763
92.50000 5.902
92.52000 6.621
92.54000 2.085
92.56000 5.991
92.58000 1.381
92.60000 -1.092
92.62000 1.345
92.64000 1.765
92.66000 -1.990
92.68000 0.169
92.70000 0.036
92.72000 2.034
92.74000 4.108
92.76000 5.002
92.78000 5.989
92.80000 2.356
92.82000 3.799
92.84000 6.559
92.86000 6.473
92.88000 4.460
92.90000 5.800
92.92000 2.804
92.94000 5.052
92.96000 5.232
92.98000 2.397
93.00000 0.070
93.02000 1.912
93.04000 -0.877
93.06000 0.231
93.08000 8.273
93.10000 10.078
93.12000 6.716
93.14000 5.119
93.16000 4.711
93.18000 4.991
93.20000 11.719
93.22000 9.267
93.24000 6.448
93.26000 4.488
93.28000 6.679
93.30000 9.547
93.32000 8.801
93.34000 8.390
93.36000 10.802
93.38000 2.995
93.40000 -0.475
93.42000 -1.414
93.44000 3.655
93.46000 4.904
93.48000 4.245
93.50000 1.530
93.52000 3.264
93.54000 2.791
93.56000 3.089
93.58000 3.592
93.60000 -0.679
93.62000 3.969
93.64000 7.839
93.66000 7.199
93.68000 4.428
93.70000 5.058
93.72000 0.086
93.74000 2.148
93.76000 1.475
93.78000 -0.828
93.80000 4.382
93.82000 4.735
93.84000 2.255
93.86000 4.721
93.88000 -0.419
93.90000 -1.249
93.92000 2.556
93.94000 5.825
93.96000 5.833
93.98000 3.244
94.00000 3.705
94.02000 6.328
94.04000 7.843
94.06000 6.874
94.08000 5.584
94.10000 2.758
94.12000 -2.009
94.14000 4.313
94.16000 2.888
94.18000 1.513
94.20000 2.630
94.22000 3.187
94.24000 1.365
94.26000 1.089
94.28000 4.738
94.30000 8.347
94.32000 4.091
94.34000 1.631
94.36000 0.799
94.38000 -0.431
94.40000 -0.308
94.42000 3.780
94.44000 3.944
94.46000 2.624
94.48000 1.728
94.50000 -0.944
94.52000 2.808
94.54000 0.849
94.56000 0.832
94.58000 2.686
94.60000 4.219
94.62000 4.189
94.64000 2.764
94.66000 1.837
94.68000 -0.384
94.70000 0.369
94.72000 2.243
94.74000 1.218
94.76000 0.531
94.78000 0.033
94.80000 2.546
94.82000 2.482
94.84000 3.390
94.86000 4.017
94.88000 1.310
94.90000 5.076
94.92000 2.441
94.94000 0.944
94.96000 1.765
94.98000 3.938
95.00000 2.524
95.02000 -0.412
95.04000 -2.063
95.06000 1.617
95.08000 4.038
95.10000 3.984
95.12000 3.680
95.14000 2.088
95.16000 2.599
95.18000 6.077
95.20000 3.737
95.22000 1.568
95.24000 -1.043
95.26000 3.318
95.28000 3.046
95.30000 3.829
95.32000 0.168
95.34000 0.881
95.36000 -0.373
95.38000 2.978
95.40000 5.981
95.42000 3.644
95.44000 0.497
95.46000 2.737
95.48000 8.180
95.50000 7.228
95.52000 4.930
95.54000 5.247
95.56000 3.105
95.58000 0.957
95.60000 2.754
95.62000 3.562
95.64000 3.743
95.66000 -0.127
95.68000 4.376
95.70000 6.134
95.72000 -2.055
95.74000 -1.132
95.76000 1.372
95.78000 -1.366
95.80000 2.771
95.82000 8.134
95.84000 4.611
95.86000 1.917
95.88000 -0.589
95.90000 3.685
95.92000 4.224
95.94000 3.489
95.96000 1.483
95.98000 2.044
96.00000 3.214
96.02000 1.189
96.04000 2.529
96.06000 5.947
96.08000 5.036
96.10000 2.374
96.12000 2.273
96.14000 -1.485
96.16000 3.830
96.18000 3.157
96.20000 0.917
96.22000 -1.412
96.24000 1.849
96.26000 1.457
96.28000 -1.579
96.30000 1.074
96.32000 6.823
96.34000 1.460
96.36000 5.593
96.38000 7.077
96.40000 5.529
96.42000 0.876
96.44000 2.733
96.46000 3.330
96.48000 3.335
96.50000 1.916
96.52000 1.507
96.54000 -0.009
96.56000 0.746
96.58000 4.446
96.60000 8.475
96.62000 7.811
96.64000 7.422
96.66000 8.080
96.68000 4.906
96.70000 6.386
96.72000 1.788
96.74000 1.923
96.76000 0.717
96.78000 0.530
96.80000 -2.023
96.82000 -1.961
96.84000 1.930
96.86000 2.230
96.88000 4.645
96.90000 3.092
96.92000 5.762
96.94000 2.218
96.96000 4.585
96.98000 6.058
97.00000 4.388
97.02000 4.205
97.04000 8.665
97.06000 11.396
97.08000 7.529
97.10000 2.045
97.12000 3.629
97.14000 7.945
97.16000 5.747
97.18000 2.979
97.20000 3.240
97.22000 0.073
97.24000 3.979
97.26000 2.551
97.28000 4.036
97.30000 3.722
97.32000 3.424
97.34000 4.653
97.36000 3.343
97.38000 2.613
97.40000 5.300
97.42000 0.098
97.44000 0.632
97.46000 1.911
97.48000 1.707
97.50000 1.371
97.52000 5.853
97.54000 10.523
97.56000 4.239
97.58000 0.364
97.60000 2.634
97.62000 2.816
97.64000 5.541
97.66000 3.791
97.68000 -0.817
97.70000 0.344
97.72000 -1.018
97.74000 -0.605
97.76000 1.081
97.78000 2.013
97.80000 2.419
97.82000 3.231
97.84000 3.996
97.86000 6.264
97.88000 9.540
97.90000 3.275
97.92000 8.592
97.94000 8.235
97.96000 1.398
97.98000 3.606
98.00000 1.013
98.02000 2.801
98.04000 1.952
98.06000 3.330
98.08000 6.229
98.10000 4.539
98.12000 5.119
98.14000 5.415
98.16000 6.137
98.18000 8.564
98.20000 5.120
98.22000 4.330
98.24000 0.603
98.26000 -1.965
98.28000 2.719
98.30000 9.635
98.32000 11.994
98.34000 9.408
98.36000 3.604
98.38000 3.267
98.40000 3.342
98.42000 7.635
98.44000 -0.683
98.46000 3.922
98.48000 2.236
98.50000 1.220
98.52000 8.498
98.54000 6.233
98.56000 10.268
98.58000 6.936
98.60000 4.356
98.62000 3.335
98.64000 9.615
98.66000 8.938
98.68000 1.551
98.70000 2.169
98.72000 9.059
98.74000 8.734
98.76000 -1.759
98.78000 -0.358
98.80000 1.974
98.82000 9.862
98.84000 3.392
98.86000 3.853
98.88000 9.353
98.90000 8.827
98.92000 8.149
98.94000 5.606
98.96000 4.708
98.98000 7.074
99.00000 5.144
99.02000 3.321
99.04000 6.165
99.06000 9.962
99.08000 14.779
99.10000 8.371
99.12000 6.510
99.14000 12.069
99.16000 12.349
99.18000 7.245
99.20000 10.966
99.22000 18.109
99.24000 10.155
99.26000 9.044
99.28000 6.176
99.30000 14.837
99.32000 13.802
99.34000 6.305
99.36000 5.107
99.38000 -1.824
99.40000 2.396
99.42000 3.689
99.44000 6.364
99.46000 4.582
99.48000 14.939
99.50000 11.210
99.52000 14.206
99.54000 12.797
99.56000 12.670
99.58000 16.857
99.60000 16.712
99.62000 6.494
99.64000 4.253
99.66000 3.709
99.68000 14.107
99.70000 8.018
99.72000 9.223
99.74000 6.514
99.76000 6.457
99.78000 8.506
99.80000 6.464
99.82000 6.794
99.84000 -3.419
99.86000 3.201
99.88000 14.755
99.90000 6.428
99.92000 0.891
99.94000 9.137
99.96000 4.869
99.98000 0.000
