'Id: "0011388" Comment: "Integrate frame 0011388_Au-Ir-Rh_Rh-rich_XRD-Mapping-025-0000.gfrmwith cursor Wedge Cursor #5" Operator: "B?rgel" Anode: "Cu" Wavelength: "1.5406" Scantype: "2Theta (TwoTheta)" TimePerStep: "1" X: "-27" Y: "-31.5" Z: "5.95" 
10.00000 0.000
10.02000 -4.773
10.04000 -4.703
10.06000 19.712
10.08000 13.135
10.10000 9.587
10.12000 22.960
10.14000 12.914
10.16000 6.274
10.18000 6.844
10.20000 11.618
10.22000 15.355
10.24000 -3.303
10.26000 -4.481
10.28000 2.662
10.30000 25.028
10.32000 17.282
10.34000 19.606
10.36000 27.809
10.38000 9.707
10.40000 14.863
10.42000 32.759
10.44000 22.055
10.46000 12.652
10.48000 16.035
10.50000 11.422
10.52000 8.995
10.54000 27.666
10.56000 34.710
10.58000 28.048
10.60000 7.415
10.62000 5.194
10.64000 5.808
10.66000 14.256
10.68000 17.267
10.70000 0.006
10.72000 4.832
10.74000 11.834
10.76000 24.512
10.78000 23.455
10.80000 5.641
10.82000 1.852
10.84000 9.109
10.86000 9.575
10.88000 9.263
10.90000 5.092
10.92000 12.796
10.94000 13.818
10.96000 11.773
10.98000 2.248
11.00000 7.491
11.02000 21.009
11.04000 17.416
11.06000 12.938
11.08000 13.946
11.10000 0.524
11.12000 3.971
11.14000 24.124
11.16000 13.230
11.18000 11.632
11.20000 12.166
11.22000 10.835
11.24000 11.798
11.26000 7.439
11.28000 0.359
11.30000 14.685
11.32000 23.598
11.34000 4.273
11.36000 11.077
11.38000 17.021
11.40000 15.885
11.42000 8.625
11.44000 16.165
11.46000 11.466
11.48000 7.130
11.50000 2.054
11.52000 0.777
11.54000 15.883
11.56000 22.625
11.58000 32.539
11.60000 12.735
11.62000 6.363
11.64000 5.726
11.66000 7.164
11.68000 10.343
11.70000 10.064
11.72000 19.091
11.74000 17.304
11.76000 10.418
11.78000 7.651
11.80000 5.227
11.82000 -2.802
11.84000 -1.229
11.86000 -1.054
11.88000 4.917
11.90000 9.167
11.92000 20.634
11.94000 12.954
11.96000 11.959
11.98000 12.859
12.00000 7.598
12.02000 3.641
12.04000 1.949
12.06000 10.933
12.08000 9.988
12.10000 2.804
12.12000 3.092
12.14000 -3.604
12.16000 -4.487
12.18000 2.989
12.20000 12.509
12.22000 12.519
12.24000 12.500
12.26000 10.841
12.28000 14.196
12.30000 16.178
12.32000 9.620
12.34000 -2.573
12.36000 3.339
12.38000 9.040
12.40000 9.028
12.42000 14.900
12.44000 21.699
12.46000 13.631
12.48000 0.279
12.50000 -4.071
12.52000 13.780
12.54000 23.051
12.56000 14.890
12.58000 11.519
12.60000 -0.916
12.62000 3.056
12.64000 2.429
12.66000 16.373
12.68000 9.289
12.70000 0.708
12.72000 1.810
12.74000 7.312
12.76000 6.422
12.78000 6.306
12.80000 5.513
12.82000 -0.749
12.84000 15.140
12.86000 18.792
12.88000 9.786
12.90000 9.116
12.92000 0.938
12.94000 -0.610
12.96000 3.755
12.98000 5.748
13.00000 5.365
13.02000 4.666
13.04000 3.277
13.06000 13.179
13.08000 11.159
13.10000 2.218
13.12000 -0.873
13.14000 5.957
13.16000 8.814
13.18000 15.936
13.20000 12.135
13.22000 10.901
13.24000 7.144
13.26000 6.889
13.28000 12.384
13.30000 6.167
13.32000 8.071
13.34000 14.242
13.36000 8.585
13.38000 -2.746
13.40000 7.632
13.42000 14.922
13.44000 14.426
13.46000 -0.949
13.48000 1.962
13.50000 1.231
13.52000 1.308
13.54000 3.561
13.56000 8.561
13.58000 10.366
13.60000 8.658
13.62000 6.743
13.64000 10.606
13.66000 13.398
13.68000 5.841
13.70000 2.334
13.72000 2.602
13.74000 9.202
13.76000 15.752
13.78000 8.875
13.80000 11.636
13.82000 3.722
13.84000 8.075
13.86000 5.724
13.88000 2.662
13.90000 5.816
13.92000 13.750
13.94000 10.583
13.96000 16.171
13.98000 13.002
14.00000 8.433
14.02000 5.432
14.04000 14.617
14.06000 5.264
14.08000 10.194
14.10000 11.733
14.12000 12.110
14.14000 13.522
14.16000 11.064
14.18000 15.116
14.20000 14.613
14.22000 13.659
14.24000 12.274
14.26000 18.900
14.28000 17.074
14.30000 11.740
14.32000 9.969
14.34000 12.953
14.36000 17.507
14.38000 15.246
14.40000 8.960
14.42000 16.681
14.44000 10.398
14.46000 -0.442
14.48000 -4.445
14.50000 7.309
14.52000 1.366
14.54000 3.247
14.56000 6.648
14.58000 14.840
14.60000 12.132
14.62000 1.966
14.64000 1.047
14.66000 14.392
14.68000 11.778
14.70000 3.166
14.72000 3.505
14.74000 2.282
14.76000 6.414
14.78000 0.190
14.80000 3.290
14.82000 11.293
14.84000 11.919
14.86000 11.351
14.88000 7.165
14.90000 3.942
14.92000 8.244
14.94000 2.875
14.96000 6.852
14.98000 7.134
15.00000 2.875
15.02000 8.214
15.04000 5.737
15.06000 4.630
15.08000 7.282
15.10000 7.614
15.12000 5.514
15.14000 9.577
15.16000 18.217
15.18000 6.526
15.20000 5.136
15.22000 1.245
15.24000 3.771
15.26000 1.861
15.28000 7.805
15.30000 -0.210
15.32000 -1.235
15.34000 1.742
15.36000 8.085
15.38000 13.012
15.40000 3.538
15.42000 -4.427
15.44000 5.294
15.46000 5.121
15.48000 -0.965
15.50000 -0.225
15.52000 9.960
15.54000 12.454
15.56000 10.643
15.58000 19.420
15.60000 18.665
15.62000 16.099
15.64000 3.033
15.66000 3.186
15.68000 9.413
15.70000 8.960
15.72000 8.140
15.74000 9.970
15.76000 0.158
15.78000 4.315
15.80000 1.666
15.82000 -3.139
15.84000 4.026
15.86000 10.209
15.88000 13.634
15.90000 9.245
15.92000 0.906
15.94000 3.558
15.96000 3.323
15.98000 4.008
16.00000 5.547
16.02000 2.178
16.04000 3.335
16.06000 12.322
16.08000 10.166
16.10000 6.721
16.12000 1.257
16.14000 2.936
16.16000 2.655
16.18000 1.357
16.20000 7.459
16.22000 6.043
16.24000 5.119
16.26000 4.072
16.28000 1.376
16.30000 4.251
16.32000 1.869
16.34000 5.471
16.36000 13.862
16.38000 9.077
16.40000 8.492
16.42000 1.850
16.44000 6.143
16.46000 5.585
16.48000 2.573
16.50000 9.024
16.52000 9.486
16.54000 -3.506
16.56000 0.339
16.58000 2.568
16.60000 -3.429
16.62000 -1.085
16.64000 1.716
16.66000 11.637
16.68000 6.345
16.70000 3.935
16.72000 11.118
16.74000 12.871
16.76000 2.861
16.78000 5.776
16.80000 11.201
16.82000 11.584
16.84000 13.465
16.86000 17.111
16.88000 13.441
16.90000 9.738
16.92000 6.884
16.94000 6.318
16.96000 2.813
16.98000 4.497
17.00000 0.350
17.02000 10.114
17.04000 17.819
17.06000 17.130
17.08000 16.881
17.10000 8.981
17.12000 13.400
17.14000 10.083
17.16000 6.785
17.18000 7.174
17.20000 2.904
17.22000 10.505
17.24000 7.390
17.26000 9.760
17.28000 7.202
17.30000 9.059
17.32000 3.896
17.34000 -0.387
17.36000 2.013
17.38000 6.419
17.40000 7.690
17.42000 8.971
17.44000 10.225
17.46000 4.900
17.48000 2.963
17.50000 7.752
17.52000 12.809
17.54000 21.108
17.56000 15.966
17.58000 14.034
17.60000 16.172
17.62000 0.682
17.64000 2.354
17.66000 3.432
17.68000 10.395
17.70000 6.201
17.72000 3.572
17.74000 5.003
17.76000 8.926
17.78000 7.372
17.80000 14.741
17.82000 11.113
17.84000 9.604
17.86000 12.554
17.88000 11.510
17.90000 6.486
17.92000 0.640
17.94000 -4.275
17.96000 -0.959
17.98000 1.566
18.00000 6.108
18.02000 7.464
18.04000 -0.862
18.06000 5.324
18.08000 9.763
18.10000 10.808
18.12000 10.963
18.14000 16.872
18.16000 9.776
18.18000 9.480
18.20000 11.085
18.22000 12.965
18.24000 4.432
18.26000 1.511
18.28000 -0.302
18.30000 0.814
18.32000 10.312
18.34000 8.119
18.36000 -1.641
18.38000 1.200
18.40000 7.720
18.42000 4.745
18.44000 1.146
18.46000 4.121
18.48000 5.364
18.50000 5.495
18.52000 0.157
18.54000 0.794
18.56000 7.008
18.58000 8.344
18.60000 2.796
18.62000 6.182
18.64000 4.526
18.66000 3.089
18.68000 3.391
18.70000 6.560
18.72000 10.430
18.74000 9.661
18.76000 2.262
18.78000 9.895
18.80000 5.157
18.82000 4.337
18.84000 9.836
18.86000 7.209
18.88000 8.104
18.90000 10.865
18.92000 12.859
18.94000 18.812
18.96000 2.595
18.98000 5.217
19.00000 10.225
19.02000 4.227
19.04000 3.664
19.06000 0.311
19.08000 4.142
19.10000 2.011
19.12000 0.820
19.14000 -1.850
19.16000 6.893
19.18000 11.669
19.20000 7.735
19.22000 3.110
19.24000 1.163
19.26000 3.650
19.28000 8.930
19.30000 8.913
19.32000 6.561
19.34000 3.033
19.36000 3.338
19.38000 1.344
19.40000 -2.897
19.42000 -4.219
19.44000 -0.762
19.46000 4.062
19.48000 8.856
19.50000 0.081
19.52000 1.722
19.54000 3.580
19.56000 1.337
19.58000 1.277
19.60000 5.172
19.62000 8.177
19.64000 6.156
19.66000 3.277
19.68000 1.793
19.70000 8.346
19.72000 6.946
19.74000 4.647
19.76000 -2.678
19.78000 -2.624
19.80000 2.651
19.82000 5.810
19.84000 6.571
19.86000 0.580
19.88000 4.035
19.90000 5.169
19.92000 9.754
19.94000 7.054
19.96000 5.661
19.98000 10.506
20.00000 5.943
20.02000 -0.117
20.04000 1.923
20.06000 2.466
20.08000 -0.247
20.10000 1.248
20.12000 0.649
20.14000 -1.106
20.16000 2.072
20.18000 6.559
20.20000 13.375
20.22000 9.878
20.24000 3.883
20.26000 7.299
20.28000 5.787
20.30000 1.170
20.32000 1.774
20.34000 -4.171
20.36000 -1.964
20.38000 3.162
20.40000 -1.055
20.42000 4.674
20.44000 10.034
20.46000 2.508
20.48000 -0.673
20.50000 2.318
20.52000 -0.075
20.54000 2.697
20.56000 5.255
20.58000 4.114
20.60000 2.774
20.62000 4.469
20.64000 2.791
20.66000 6.390
20.68000 5.426
20.70000 -0.707
20.72000 4.685
20.74000 1.230
20.76000 -2.018
20.78000 4.579
20.80000 5.025
20.82000 -4.102
20.84000 -2.486
20.86000 1.957
20.88000 7.310
20.90000 7.706
20.92000 1.567
20.94000 -2.207
20.96000 3.439
20.98000 5.938
21.00000 3.962
21.02000 7.042
21.04000 5.304
21.06000 3.302
21.08000 1.253
21.10000 1.839
21.12000 0.565
21.14000 -0.565
21.16000 0.718
21.18000 6.449
21.20000 0.375
21.22000 -0.782
21.24000 -2.858
21.26000 -0.282
21.28000 -3.337
21.30000 -1.588
21.32000 6.253
21.34000 0.529
21.36000 0.623
21.38000 3.422
21.40000 6.393
21.42000 2.720
21.44000 -0.642
21.46000 4.399
21.48000 6.740
21.50000 5.507
21.52000 5.454
21.54000 5.427
21.56000 3.437
21.58000 8.696
21.60000 7.882
21.62000 2.301
21.64000 4.719
21.66000 2.182
21.68000 6.132
21.70000 5.524
21.72000 10.706
21.74000 10.340
21.76000 7.797
21.78000 4.624
21.80000 4.920
21.82000 3.000
21.84000 7.854
21.86000 10.014
21.88000 12.332
21.90000 10.836
21.92000 9.858
21.94000 9.316
21.96000 7.669
21.98000 13.667
22.00000 10.965
22.02000 6.329
22.04000 6.956
22.06000 -4.040
22.08000 1.463
22.10000 7.637
22.12000 8.236
22.14000 4.698
22.16000 5.741
22.18000 7.793
22.20000 11.876
22.22000 7.682
22.24000 0.752
22.26000 2.330
22.28000 7.209
22.30000 7.152
22.32000 6.600
22.34000 5.606
22.36000 1.651
22.38000 4.217
22.40000 3.720
22.42000 8.955
22.44000 12.105
22.46000 9.198
22.48000 4.896
22.50000 4.240
22.52000 10.109
22.54000 8.254
22.56000 7.786
22.58000 6.241
22.60000 6.493
22.62000 5.171
22.64000 1.074
22.66000 5.323
22.68000 4.102
22.70000 6.953
22.72000 7.051
22.74000 8.287
22.76000 8.312
22.78000 5.346
22.80000 8.098
22.82000 8.173
22.84000 4.660
22.86000 3.437
22.88000 7.375
22.90000 3.359
22.92000 2.690
22.94000 1.155
22.96000 5.304
22.98000 7.317
23.00000 11.700
23.02000 8.820
23.04000 8.278
23.06000 5.220
23.08000 9.669
23.10000 2.623
23.12000 -3.988
23.14000 -2.235
23.16000 1.399
23.18000 12.631
23.20000 11.755
23.22000 8.451
23.24000 12.653
23.26000 11.621
23.28000 6.815
23.30000 3.693
23.32000 4.420
23.34000 3.609
23.36000 8.989
23.38000 2.879
23.40000 1.974
23.42000 7.951
23.44000 10.004
23.46000 -0.051
23.48000 -1.225
23.50000 5.151
23.52000 5.870
23.54000 8.249
23.56000 7.266
23.58000 7.593
23.60000 3.719
23.62000 0.804
23.64000 2.887
23.66000 9.684
23.68000 12.493
23.70000 11.675
23.72000 5.852
23.74000 6.382
23.76000 4.996
23.78000 4.823
23.80000 7.210
23.82000 11.066
23.84000 10.229
23.86000 -0.214
23.88000 -0.978
23.90000 1.264
23.92000 -1.254
23.94000 0.423
23.96000 2.780
23.98000 4.282
24.00000 2.582
24.02000 12.218
24.04000 6.600
24.06000 0.755
24.08000 1.362
24.10000 -3.951
24.12000 -0.327
24.14000 10.230
24.16000 14.235
24.18000 9.435
24.20000 3.560
24.22000 4.226
24.24000 4.003
24.26000 7.188
24.28000 7.318
24.30000 5.319
24.32000 1.940
24.34000 -3.939
24.36000 1.804
24.38000 7.420
24.40000 8.841
24.42000 4.647
24.44000 3.239
24.46000 8.794
24.48000 6.450
24.50000 2.807
24.52000 2.561
24.54000 1.094
24.56000 4.277
24.58000 7.278
24.60000 7.425
24.62000 4.613
24.64000 6.922
24.66000 4.536
24.68000 -3.924
24.70000 5.004
24.72000 3.968
24.74000 1.928
24.76000 0.348
24.78000 4.075
24.80000 1.602
24.82000 -1.045
24.84000 -0.080
24.86000 -0.099
24.88000 2.035
24.90000 7.960
24.92000 5.400
24.94000 0.799
24.96000 3.850
24.98000 -0.997
25.00000 0.600
25.02000 3.828
25.04000 3.292
25.06000 1.605
25.08000 2.865
25.10000 6.028
25.12000 -3.901
25.14000 0.889
25.16000 6.183
25.18000 9.137
25.20000 5.789
25.22000 5.298
25.24000 6.856
25.26000 1.491
25.28000 1.313
25.30000 4.515
25.32000 4.532
25.34000 4.866
25.36000 -1.133
25.38000 -3.804
25.40000 -1.015
25.42000 1.250
25.44000 1.062
25.46000 0.516
25.48000 0.471
25.50000 0.307
25.52000 -0.907
25.54000 -3.881
25.56000 1.364
25.58000 4.767
25.60000 5.570
25.62000 3.322
25.64000 5.281
25.66000 9.732
25.68000 4.148
25.70000 2.135
25.72000 3.166
25.74000 7.428
25.76000 11.645
25.78000 12.401
25.80000 5.882
25.82000 2.696
25.84000 -3.867
25.86000 -2.159
25.88000 0.690
25.90000 3.496
25.92000 5.318
25.94000 7.281
25.96000 6.098
25.98000 3.189
26.00000 2.630
26.02000 -0.273
26.04000 -1.438
26.06000 0.792
26.08000 3.752
26.10000 5.692
26.12000 -0.726
26.14000 2.364
26.16000 1.945
26.18000 7.526
26.20000 4.132
26.22000 2.307
26.24000 2.567
26.26000 -1.874
26.28000 3.437
26.30000 1.805
26.32000 2.013
26.34000 2.511
26.36000 0.837
26.38000 -0.820
26.40000 1.196
26.42000 7.027
26.44000 3.639
26.46000 5.909
26.48000 10.450
26.50000 7.444
26.52000 5.942
26.54000 7.328
26.56000 4.358
26.58000 6.177
26.60000 5.300
26.62000 6.730
26.64000 1.986
26.66000 1.222
26.68000 0.805
26.70000 3.717
26.72000 8.697
26.74000 8.028
26.76000 4.257
26.78000 2.812
26.80000 -1.595
26.82000 -2.740
26.84000 1.269
26.86000 3.357
26.88000 2.992
26.90000 0.258
26.92000 -0.673
26.94000 -3.801
26.96000 -2.877
26.98000 3.013
27.00000 5.849
27.02000 1.197
27.04000 -1.695
27.06000 2.421
27.08000 6.281
27.10000 1.373
27.12000 -2.150
27.14000 1.551
27.16000 4.567
27.18000 5.565
27.20000 1.868
27.22000 3.890
27.24000 8.982
27.26000 5.764
27.28000 2.799
27.30000 3.411
27.32000 3.317
27.34000 2.530
27.36000 4.505
27.38000 7.256
27.40000 6.944
27.42000 5.318
27.44000 3.811
27.46000 4.757
27.48000 3.798
27.50000 0.669
27.52000 1.231
27.54000 4.523
27.56000 4.554
27.58000 2.896
27.60000 2.003
27.62000 1.185
27.64000 6.247
27.66000 8.792
27.68000 8.413
27.70000 7.303
27.72000 -1.291
27.74000 1.672
27.76000 5.705
27.78000 6.910
27.80000 3.493
27.82000 2.172
27.84000 5.901
27.86000 6.973
27.88000 -0.393
27.90000 0.980
27.92000 1.156
27.94000 0.732
27.96000 5.167
27.98000 1.785
28.00000 2.648
28.02000 3.912
28.04000 0.294
28.06000 8.988
28.08000 8.082
28.10000 -0.988
28.12000 -3.749
28.14000 -1.400
28.16000 5.229
28.18000 8.837
28.20000 4.188
28.22000 7.055
28.24000 4.347
28.26000 2.160
28.28000 5.999
28.30000 7.671
28.32000 4.651
28.34000 6.977
28.36000 4.871
28.38000 0.276
28.40000 -3.736
28.42000 2.680
28.44000 6.971
28.46000 5.783
28.48000 3.639
28.50000 1.000
28.52000 -2.387
28.54000 -0.349
28.56000 4.023
28.58000 4.202
28.60000 3.126
28.62000 2.431
28.64000 2.773
28.66000 0.334
28.68000 -1.756
28.70000 -1.360
28.72000 -1.612
28.74000 -1.875
28.76000 -0.540
28.78000 1.746
28.80000 3.736
28.82000 1.257
28.84000 0.469
28.86000 2.607
28.88000 7.325
28.90000 3.286
28.92000 -2.256
28.94000 1.977
28.96000 4.673
28.98000 3.981
29.00000 0.685
29.02000 3.536
29.04000 7.766
29.06000 4.292
29.08000 -3.617
29.10000 -2.337
29.12000 7.056
29.14000 8.316
29.16000 2.449
29.18000 4.242
29.20000 1.770
29.22000 5.049
29.24000 7.033
29.26000 5.983
29.28000 4.055
29.30000 4.463
29.32000 0.389
29.34000 -1.002
29.36000 3.132
29.38000 5.376
29.40000 4.784
29.42000 1.943
29.44000 3.334
29.46000 1.254
29.48000 -0.150
29.50000 2.397
29.52000 1.431
29.54000 2.397
29.56000 1.365
29.58000 4.490
29.60000 2.491
29.62000 -1.948
29.64000 1.225
29.66000 3.832
29.68000 6.273
29.70000 8.828
29.72000 7.123
29.74000 4.265
29.76000 6.060
29.78000 4.257
29.80000 8.104
29.82000 6.188
29.84000 7.671
29.86000 3.968
29.88000 3.648
29.90000 10.595
29.92000 11.945
29.94000 10.053
29.96000 2.682
29.98000 -2.089
30.00000 -3.635
30.02000 0.034
30.04000 2.106
30.06000 6.682
30.08000 9.776
30.10000 8.484
30.12000 3.327
30.14000 -0.065
30.16000 1.600
30.18000 1.982
30.20000 1.445
30.22000 -1.376
30.24000 -0.723
30.26000 7.396
30.28000 7.895
30.30000 6.912
30.32000 4.904
30.34000 2.928
30.36000 1.662
30.38000 5.969
30.40000 1.166
30.42000 1.516
30.44000 2.404
30.46000 8.194
30.48000 7.347
30.50000 4.554
30.52000 -1.495
30.54000 0.890
30.56000 -2.182
30.58000 3.068
30.60000 5.102
30.62000 4.191
30.64000 5.100
30.66000 7.404
30.68000 3.368
30.70000 0.147
30.72000 -2.790
30.74000 3.908
30.76000 0.690
30.78000 -0.268
30.80000 -3.608
30.82000 1.441
30.84000 7.654
30.86000 8.539
30.88000 4.246
30.90000 6.240
30.92000 6.437
30.94000 5.446
30.96000 2.304
30.98000 2.008
31.00000 1.907
31.02000 5.093
31.04000 4.202
31.06000 8.893
31.08000 6.568
31.10000 -1.047
31.12000 0.334
31.14000 -0.208
31.16000 -1.757
31.18000 5.585
31.20000 5.250
31.22000 0.659
31.24000 6.983
31.26000 4.866
31.28000 1.272
31.30000 -3.582
31.32000 0.108
31.34000 5.234
31.36000 2.588
31.38000 8.375
31.40000 7.113
31.42000 5.591
31.44000 2.921
31.46000 2.682
31.48000 4.071
31.50000 3.914
31.52000 3.557
31.54000 2.971
31.56000 0.177
31.58000 2.452
31.60000 -0.607
31.62000 0.621
31.64000 2.568
31.66000 2.885
31.68000 2.436
31.70000 1.884
31.72000 2.844
31.74000 3.722
31.76000 2.846
31.78000 3.676
31.80000 3.850
31.82000 0.941
31.84000 2.469
31.86000 3.264
31.88000 -0.364
31.90000 -0.638
31.92000 -3.584
31.94000 -0.981
31.96000 3.869
31.98000 3.603
32.00000 0.544
32.02000 -0.024
32.04000 2.498
32.06000 -1.499
32.08000 -1.561
32.10000 0.953
32.12000 0.736
32.14000 5.036
32.16000 6.474
32.18000 4.413
32.20000 4.467
32.22000 -0.980
32.24000 1.414
32.26000 2.202
32.28000 4.731
32.30000 4.253
32.32000 1.564
32.34000 -1.579
32.36000 2.982
32.38000 4.866
32.40000 0.300
32.42000 2.974
32.44000 -0.248
32.46000 2.367
32.48000 3.242
32.50000 -0.632
32.52000 1.476
32.54000 5.870
32.56000 2.345
32.58000 -0.251
32.60000 -1.840
32.62000 -3.566
32.64000 -0.635
32.66000 0.882
32.68000 -2.763
32.70000 3.279
32.72000 1.490
32.74000 0.086
32.76000 -0.841
32.78000 1.890
32.80000 1.363
32.82000 5.149
32.84000 1.928
32.86000 -2.285
32.88000 -0.798
32.90000 1.026
32.92000 3.048
32.94000 3.068
32.96000 0.788
32.98000 -0.956
33.00000 2.230
33.02000 0.374
33.04000 0.382
33.06000 -0.279
33.08000 1.269
33.10000 0.683
33.12000 3.985
33.14000 5.048
33.16000 0.113
33.18000 2.760
33.20000 -0.520
33.22000 0.514
33.24000 1.788
33.26000 -0.291
33.28000 -1.878
33.30000 -3.556
33.32000 -2.793
33.34000 -2.788
33.36000 -1.859
33.38000 -0.558
33.40000 -0.734
33.42000 0.957
33.44000 5.446
33.46000 5.666
33.48000 2.563
33.50000 1.431
33.52000 2.046
33.54000 1.729
33.56000 2.289
33.58000 4.983
33.60000 4.260
33.62000 -1.295
33.64000 -0.628
33.66000 6.065
33.68000 4.243
33.70000 2.075
33.72000 -1.025
33.74000 1.587
33.76000 3.881
33.78000 4.807
33.80000 1.349
33.82000 -1.629
33.84000 6.091
33.86000 8.158
33.88000 0.208
33.90000 -1.159
33.92000 1.321
33.94000 1.365
33.96000 -1.925
33.98000 -1.701
34.00000 -2.010
34.02000 0.689
34.04000 1.831
34.06000 4.574
34.08000 0.311
34.10000 -0.308
34.12000 0.774
34.14000 5.449
34.16000 2.918
34.18000 2.558
34.20000 1.544
34.22000 4.039
34.24000 0.054
34.26000 2.317
34.28000 7.771
34.30000 4.381
34.32000 3.285
34.34000 4.328
34.36000 0.466
34.38000 -0.313
34.40000 1.942
34.42000 -1.609
34.44000 4.460
34.46000 5.364
34.48000 4.326
34.50000 4.504
34.52000 5.219
34.54000 4.136
34.56000 1.221
34.58000 0.847
34.60000 0.712
34.62000 -2.388
34.64000 4.671
34.66000 8.450
34.68000 4.776
34.70000 -0.108
34.72000 0.468
34.74000 5.652
34.76000 7.263
34.78000 5.081
34.80000 -0.113
34.82000 -3.453
34.84000 0.168
34.86000 1.587
34.88000 0.159
34.90000 5.227
34.92000 6.125
34.94000 8.898
34.96000 6.651
34.98000 5.121
35.00000 2.174
35.02000 6.422
35.04000 4.574
35.06000 -1.364
35.08000 -1.244
35.10000 0.634
35.12000 3.841
35.14000 9.904
35.16000 2.758
35.18000 0.441
35.20000 5.258
35.22000 3.451
35.24000 -0.923
35.26000 2.680
35.28000 5.326
35.30000 6.776
35.32000 6.799
35.34000 10.496
35.36000 7.643
35.38000 9.490
35.40000 7.138
35.42000 2.412
35.44000 -0.667
35.46000 -3.431
35.48000 -0.045
35.50000 0.527
35.52000 3.004
35.54000 -0.802
35.56000 2.058
35.58000 0.564
35.60000 1.554
35.62000 5.128
35.64000 5.275
35.66000 4.224
35.68000 2.883
35.70000 1.337
35.72000 0.308
35.74000 -2.098
35.76000 -1.239
35.78000 2.928
35.80000 3.034
35.82000 6.677
35.84000 5.133
35.86000 5.775
35.88000 3.363
35.90000 0.194
35.92000 0.847
35.94000 1.666
35.96000 3.651
35.98000 3.368
36.00000 4.345
36.02000 2.846
36.04000 0.529
36.06000 2.949
36.08000 1.538
36.10000 2.648
36.12000 4.308
36.14000 2.354
36.16000 0.826
36.18000 -1.135
36.20000 1.812
36.22000 0.993
36.24000 -0.982
36.26000 -0.460
36.28000 1.098
36.30000 1.618
36.32000 0.285
36.34000 0.292
36.36000 2.320
36.38000 0.454
36.40000 -3.476
36.42000 -0.180
36.44000 -0.591
36.46000 1.697
36.48000 3.210
36.50000 2.720
36.52000 -3.309
36.54000 5.513
36.56000 2.348
36.58000 -2.347
36.60000 0.831
36.62000 7.351
36.64000 1.977
36.66000 2.461
36.68000 3.776
36.70000 4.920
36.72000 2.134
36.74000 1.935
36.76000 3.430
36.78000 2.336
36.80000 0.242
36.82000 0.587
36.84000 6.132
36.86000 7.051
36.88000 4.031
36.90000 -0.939
36.92000 2.535
36.94000 4.505
36.96000 3.096
36.98000 4.643
37.00000 2.427
37.02000 2.641
37.04000 6.801
37.06000 6.494
37.08000 0.355
37.10000 -3.488
37.12000 0.793
37.14000 -0.735
37.16000 -1.299
37.18000 -1.512
37.20000 0.327
37.22000 1.715
37.24000 -1.447
37.26000 -3.426
37.28000 0.767
37.30000 -1.767
37.32000 -0.851
37.34000 5.343
37.36000 2.192
37.38000 0.027
37.40000 -2.795
37.42000 -0.057
37.44000 2.834
37.46000 -0.815
37.48000 0.166
37.50000 1.205
37.52000 -0.731
37.54000 1.238
37.56000 0.847
37.58000 0.427
37.60000 2.631
37.62000 -0.152
37.64000 1.513
37.66000 -0.276
37.68000 -3.568
37.70000 0.020
37.72000 2.856
37.74000 5.778
37.76000 4.903
37.78000 0.475
37.80000 -2.806
37.82000 -3.345
37.84000 2.033
37.86000 1.209
37.88000 1.997
37.90000 3.784
37.92000 2.985
37.94000 1.787
37.96000 -1.811
37.98000 3.804
38.00000 3.090
38.02000 -0.271
38.04000 0.266
38.06000 4.141
38.08000 4.969
38.10000 4.205
38.12000 2.734
38.14000 5.001
38.16000 3.735
38.18000 7.036
38.20000 9.726
38.22000 9.259
38.24000 7.471
38.26000 7.024
38.28000 4.613
38.30000 6.977
38.32000 8.112
38.34000 3.004
38.36000 4.058
38.38000 10.323
38.40000 5.803
38.42000 4.172
38.44000 7.999
38.46000 6.532
38.48000 9.824
38.50000 15.857
38.52000 11.179
38.54000 12.936
38.56000 12.618
38.58000 17.635
38.60000 16.813
38.62000 10.641
38.64000 14.383
38.66000 10.792
38.68000 12.128
38.70000 14.912
38.72000 16.570
38.74000 17.764
38.76000 17.018
38.78000 15.525
38.80000 15.935
38.82000 18.137
38.84000 16.953
38.86000 17.961
38.88000 20.740
38.90000 15.666
38.92000 18.362
38.94000 15.505
38.96000 18.091
38.98000 20.853
39.00000 22.431
39.02000 23.492
39.04000 26.979
39.06000 23.653
39.08000 24.332
39.10000 25.189
39.12000 25.952
39.14000 24.267
39.16000 33.018
39.18000 36.919
39.20000 32.179
39.22000 31.563
39.24000 35.318
39.26000 34.325
39.28000 37.356
39.30000 37.388
39.32000 38.169
39.34000 39.174
39.36000 47.663
39.38000 47.895
39.40000 41.692
39.42000 49.033
39.44000 51.280
39.46000 57.043
39.48000 58.588
39.50000 53.238
39.52000 58.916
39.54000 65.103
39.56000 70.237
39.58000 74.354
39.60000 75.279
39.62000 72.811
39.64000 78.304
39.66000 81.075
39.68000 85.792
39.70000 91.093
39.72000 94.537
39.74000 102.078
39.76000 109.361
39.78000 117.501
39.80000 121.828
39.82000 127.736
39.84000 129.306
39.86000 133.661
39.88000 152.170
39.90000 159.109
39.92000 164.690
39.94000 169.421
39.96000 182.801
39.98000 196.250
40.00000 205.003
40.02000 216.170
40.04000 231.783
40.06000 241.449
40.08000 255.404
40.10000 265.685
40.12000 278.714
40.14000 291.784
40.16000 310.345
40.18000 326.635
40.20000 347.291
40.22000 367.018
40.24000 382.537
40.26000 406.083
40.28000 425.670
40.30000 437.704
40.32000 455.411
40.34000 473.968
40.36000 489.551
40.38000 516.107
40.40000 535.260
40.42000 550.736
40.44000 561.004
40.46000 574.990
40.48000 583.531
40.50000 597.647
40.52000 609.274
40.54000 615.961
40.56000 616.599
40.58000 617.248
40.60000 631.825
40.62000 634.470
40.64000 631.159
40.66000 615.501
40.68000 612.676
40.70000 606.033
40.72000 595.267
40.74000 592.403
40.76000 572.232
40.78000 564.028
40.80000 548.011
40.82000 526.504
40.84000 505.164
40.86000 482.125
40.88000 468.388
40.90000 450.689
40.92000 431.036
40.94000 404.763
40.96000 390.219
40.98000 379.249
41.00000 363.252
41.02000 341.154
41.04000 328.968
41.06000 314.273
41.08000 292.435
41.10000 275.884
41.12000 262.758
41.14000 249.177
41.16000 239.002
41.18000 222.825
41.20000 209.395
41.22000 200.089
41.24000 186.136
41.26000 173.621
41.28000 169.000
41.30000 159.785
41.32000 154.977
41.34000 143.536
41.36000 131.919
41.38000 119.052
41.40000 116.546
41.42000 113.095
41.44000 107.768
41.46000 101.733
41.48000 93.780
41.50000 87.133
41.52000 84.392
41.54000 84.555
41.56000 81.864
41.58000 75.983
41.60000 73.697
41.62000 61.248
41.64000 58.787
41.66000 54.734
41.68000 52.129
41.70000 47.621
41.72000 50.152
41.74000 48.208
41.76000 43.792
41.78000 45.083
41.80000 46.486
41.82000 46.261
41.84000 40.784
41.86000 39.025
41.88000 36.015
41.90000 32.009
41.92000 29.413
41.94000 33.609
41.96000 33.874
41.98000 30.652
42.00000 26.285
42.02000 28.873
42.04000 23.331
42.06000 20.680
42.08000 17.955
42.10000 18.220
42.12000 17.619
42.14000 17.501
42.16000 16.115
42.18000 12.808
42.20000 15.308
42.22000 13.261
42.24000 13.243
42.26000 11.199
42.28000 14.157
42.30000 17.072
42.32000 15.289
42.34000 14.230
42.36000 14.003
42.38000 11.366
42.40000 8.715
42.42000 8.937
42.44000 7.593
42.46000 6.531
42.48000 11.459
42.50000 12.590
42.52000 7.946
42.54000 8.042
42.56000 5.518
42.58000 4.940
42.60000 10.724
42.62000 8.140
42.64000 2.471
42.66000 2.364
42.68000 1.850
42.70000 -0.709
42.72000 3.182
42.74000 5.147
42.76000 1.934
42.78000 -3.562
42.80000 -2.252
42.82000 2.368
42.84000 2.893
42.86000 1.067
42.88000 4.100
42.90000 5.164
42.92000 0.853
42.94000 -0.072
42.96000 4.007
42.98000 4.459
43.00000 -0.832
43.02000 1.208
43.04000 2.327
43.06000 1.639
43.08000 0.661
43.10000 0.841
43.12000 4.357
43.14000 1.541
43.16000 -1.328
43.18000 -2.416
43.20000 1.617
43.22000 0.751
43.24000 1.777
43.26000 0.128
43.28000 -0.274
43.30000 -2.913
43.32000 -0.002
43.34000 0.884
43.36000 0.600
43.38000 1.436
43.40000 2.347
43.42000 -3.470
43.44000 1.392
43.46000 1.307
43.48000 0.202
43.50000 2.421
43.52000 1.744
43.54000 1.632
43.56000 -1.308
43.58000 -3.445
43.60000 1.121
43.62000 -0.238
43.64000 1.891
43.66000 1.304
43.68000 -1.300
43.70000 0.082
43.72000 2.503
43.74000 -0.437
43.76000 1.730
43.78000 2.105
43.80000 -1.108
43.82000 -0.185
43.84000 1.752
43.86000 3.955
43.88000 3.085
43.90000 -2.578
43.92000 2.306
43.94000 2.198
43.96000 1.351
43.98000 -1.048
44.00000 -3.040
44.02000 -0.100
44.04000 0.812
44.06000 -2.883
44.08000 -0.967
44.10000 2.755
44.12000 0.726
44.14000 0.265
44.16000 4.257
44.18000 4.464
44.20000 0.810
44.22000 -3.208
44.24000 -0.085
44.26000 3.340
44.28000 4.938
44.30000 2.956
44.32000 0.879
44.34000 -0.196
44.36000 1.269
44.38000 -0.447
44.40000 0.101
44.42000 -3.365
44.44000 -1.087
44.46000 -1.504
44.48000 -0.847
44.50000 4.895
44.52000 4.103
44.54000 4.075
44.56000 -1.207
44.58000 0.477
44.60000 2.144
44.62000 -1.846
44.64000 -3.234
44.66000 -0.431
44.68000 0.249
44.70000 0.008
44.72000 3.712
44.74000 5.783
44.76000 4.380
44.78000 2.575
44.80000 1.296
44.82000 0.959
44.84000 -1.334
44.86000 -0.820
44.88000 -0.455
44.90000 0.650
44.92000 2.017
44.94000 0.677
44.96000 -0.225
44.98000 2.685
45.00000 -0.639
45.02000 2.179
45.04000 1.503
45.06000 2.593
45.08000 2.303
45.10000 1.057
45.12000 4.587
45.14000 3.813
45.16000 4.615
45.18000 1.070
45.20000 -2.126
45.22000 0.559
45.24000 0.898
45.26000 3.219
45.28000 7.022
45.30000 2.707
45.32000 3.483
45.34000 2.796
45.36000 1.603
45.38000 2.049
45.40000 3.075
45.42000 0.477
45.44000 3.535
45.46000 4.768
45.48000 2.519
45.50000 4.127
45.52000 9.417
45.54000 4.163
45.56000 3.924
45.58000 4.798
45.60000 3.163
45.62000 7.653
45.64000 5.906
45.66000 1.677
45.68000 5.462
45.70000 3.892
45.72000 2.460
45.74000 9.317
45.76000 8.181
45.78000 10.331
45.80000 16.050
45.82000 11.104
45.84000 7.310
45.86000 10.096
45.88000 11.579
45.90000 8.838
45.92000 9.263
45.94000 11.208
45.96000 12.516
45.98000 12.974
46.00000 14.077
46.02000 16.111
46.04000 15.438
46.06000 14.903
46.08000 18.106
46.10000 18.106
46.12000 16.770
46.14000 12.764
46.16000 10.422
46.18000 17.994
46.20000 21.180
46.22000 24.271
46.24000 25.239
46.26000 25.729
46.28000 25.084
46.30000 31.418
46.32000 29.184
46.34000 27.455
46.36000 37.678
46.38000 34.700
46.40000 30.879
46.42000 38.329
46.44000 41.468
46.46000 33.461
46.48000 38.807
46.50000 42.188
46.52000 40.575
46.54000 35.526
46.56000 39.820
46.58000 39.843
46.60000 40.369
46.62000 46.995
46.64000 43.542
46.66000 46.874
46.68000 47.891
46.70000 56.206
46.72000 57.893
46.74000 62.384
46.76000 59.790
46.78000 57.117
46.80000 59.699
46.82000 59.529
46.84000 64.547
46.86000 67.539
46.88000 70.143
46.90000 64.257
46.92000 69.620
46.94000 80.387
46.96000 75.685
46.98000 72.725
47.00000 76.312
47.02000 73.677
47.04000 74.383
47.06000 72.167
47.08000 75.001
47.10000 80.926
47.12000 83.408
47.14000 78.836
47.16000 78.144
47.18000 76.223
47.20000 75.249
47.22000 80.773
47.24000 73.674
47.26000 77.912
47.28000 73.452
47.30000 79.451
47.32000 81.770
47.34000 76.906
47.36000 77.536
47.38000 76.635
47.40000 69.318
47.42000 70.004
47.44000 71.794
47.46000 71.085
47.48000 70.167
47.50000 71.288
47.52000 73.241
47.54000 70.073
47.56000 66.627
47.58000 59.442
47.60000 60.456
47.62000 63.182
47.64000 62.367
47.66000 56.270
47.68000 51.919
47.70000 55.120
47.72000 53.249
47.74000 49.544
47.76000 52.532
47.78000 45.370
47.80000 47.185
47.82000 45.470
47.84000 48.021
47.86000 39.431
47.88000 44.528
47.90000 39.952
47.92000 35.048
47.94000 31.398
47.96000 30.106
47.98000 35.020
48.00000 36.853
48.02000 30.225
48.04000 28.016
48.06000 25.589
48.08000 21.768
48.10000 22.203
48.12000 24.870
48.14000 24.794
48.16000 21.744
48.18000 22.927
48.20000 27.614
48.22000 18.962
48.24000 16.100
48.26000 16.275
48.28000 15.601
48.30000 10.999
48.32000 12.716
48.34000 17.947
48.36000 16.700
48.38000 17.181
48.40000 7.070
48.42000 9.631
48.44000 10.565
48.46000 4.432
48.48000 6.236
48.50000 7.688
48.52000 10.335
48.54000 7.986
48.56000 4.142
48.58000 -0.062
48.60000 0.072
48.62000 0.322
48.64000 -0.618
48.66000 7.029
48.68000 3.513
48.70000 1.093
48.72000 0.128
48.74000 0.830
48.76000 4.627
48.78000 2.222
48.80000 6.516
48.82000 6.103
48.84000 2.715
48.86000 3.608
48.88000 2.853
48.90000 -0.922
48.92000 1.663
48.94000 6.206
48.96000 5.317
48.98000 0.651
49.00000 1.246
49.02000 5.982
49.04000 1.568
49.06000 -3.008
49.08000 3.194
49.10000 10.772
49.12000 3.375
49.14000 -0.559
49.16000 1.891
49.18000 1.465
49.20000 1.272
49.22000 1.370
49.24000 0.463
49.26000 2.429
49.28000 1.775
49.30000 3.800
49.32000 1.141
49.34000 -0.407
49.36000 -2.462
49.38000 -0.999
49.40000 4.234
49.42000 1.118
49.44000 0.473
49.46000 -2.941
49.48000 -0.847
49.50000 2.091
49.52000 0.776
49.54000 0.922
49.56000 2.224
49.58000 1.980
49.60000 8.503
49.62000 5.671
49.64000 2.224
49.66000 4.040
49.68000 5.795
49.70000 6.241
49.72000 1.939
49.74000 1.465
49.76000 4.042
49.78000 1.105
49.80000 1.169
49.82000 5.520
49.84000 3.331
49.86000 1.525
49.88000 -2.129
49.90000 0.107
49.92000 3.927
49.94000 4.765
49.96000 1.329
49.98000 1.555
50.00000 -0.175
50.02000 -2.880
50.04000 1.404
50.06000 3.797
50.08000 1.209
50.10000 6.448
50.12000 7.580
50.14000 1.469
50.16000 -1.238
50.18000 -0.027
50.20000 2.331
50.22000 0.546
50.24000 1.183
50.26000 3.758
50.28000 4.656
50.30000 2.694
50.32000 -1.693
50.34000 0.109
50.36000 0.084
50.38000 -0.349
50.40000 -1.169
50.42000 1.451
50.44000 5.659
50.46000 0.471
50.48000 1.172
50.50000 0.325
50.52000 0.809
50.54000 2.522
50.56000 5.491
50.58000 5.836
50.60000 6.406
50.62000 4.520
50.64000 0.917
50.66000 0.083
50.68000 1.523
50.70000 0.672
50.72000 2.269
50.74000 1.514
50.76000 0.339
50.78000 4.353
50.80000 7.707
50.82000 7.675
50.84000 1.093
50.86000 3.377
50.88000 5.602
50.90000 7.403
50.92000 6.099
50.94000 4.744
50.96000 5.168
50.98000 1.836
51.00000 2.163
51.02000 5.340
51.04000 2.532
51.06000 3.623
51.08000 1.720
51.10000 -2.000
51.12000 2.520
51.14000 11.023
51.16000 7.499
51.18000 2.741
51.20000 -1.404
51.22000 1.794
51.24000 6.458
51.26000 5.053
51.28000 -2.769
51.30000 0.008
51.32000 -0.484
51.34000 6.433
51.36000 5.832
51.38000 6.836
51.40000 4.720
51.42000 4.657
51.44000 6.963
51.46000 6.421
51.48000 2.466
51.50000 7.608
51.52000 11.374
51.54000 8.185
51.56000 2.204
51.58000 -1.229
51.60000 4.061
51.62000 8.118
51.64000 13.183
51.66000 8.038
51.68000 4.155
51.70000 4.868
51.72000 7.073
51.74000 8.956
51.76000 3.568
51.78000 1.930
51.80000 4.132
51.82000 1.932
51.84000 1.475
51.86000 4.075
51.88000 2.677
51.90000 3.572
51.92000 1.044
51.94000 0.103
51.96000 1.290
51.98000 -0.020
52.00000 1.734
52.02000 0.805
52.04000 5.768
52.06000 6.716
52.08000 7.758
52.10000 2.155
52.12000 1.542
52.14000 2.386
52.16000 -1.043
52.18000 0.250
52.20000 0.958
52.22000 4.785
52.24000 5.954
52.26000 2.933
52.28000 0.881
52.30000 6.298
52.32000 4.262
52.34000 3.190
52.36000 6.888
52.38000 4.103
52.40000 1.474
52.42000 -0.788
52.44000 4.972
52.46000 5.310
52.48000 -1.362
52.50000 -0.033
52.52000 -0.861
52.54000 4.909
52.56000 7.545
52.58000 0.725
52.60000 1.993
52.62000 1.051
52.64000 6.047
52.66000 0.526
52.68000 2.460
52.70000 4.432
52.72000 7.013
52.74000 1.850
52.76000 -0.546
52.78000 3.420
52.80000 6.024
52.82000 8.734
52.84000 6.260
52.86000 3.317
52.88000 2.507
52.90000 4.003
52.92000 6.979
52.94000 7.619
52.96000 8.444
52.98000 6.032
53.00000 3.440
53.02000 10.411
53.04000 7.196
53.06000 1.315
53.08000 4.340
53.10000 5.587
53.12000 0.462
53.14000 -0.467
53.16000 3.153
53.18000 10.028
53.20000 6.902
53.22000 7.086
53.24000 3.078
53.26000 -2.689
53.28000 2.930
53.30000 7.175
53.32000 5.460
53.34000 4.807
53.36000 7.732
53.38000 5.999
53.40000 2.954
53.42000 2.017
53.44000 1.217
53.46000 0.891
53.48000 4.466
53.50000 5.611
53.52000 6.175
53.54000 6.944
53.56000 6.993
53.58000 4.231
53.60000 1.826
53.62000 3.618
53.64000 3.001
53.66000 4.211
53.68000 4.557
53.70000 2.938
53.72000 3.122
53.74000 9.367
53.76000 9.793
53.78000 10.213
53.80000 9.576
53.82000 5.933
53.84000 4.702
53.86000 1.595
53.88000 -1.455
53.90000 3.202
53.92000 1.125
53.94000 -0.124
53.96000 2.132
53.98000 -1.462
54.00000 0.130
54.02000 -1.589
54.04000 4.540
54.06000 4.607
54.08000 2.584
54.10000 3.312
54.12000 -0.349
54.14000 0.805
54.16000 0.769
54.18000 3.973
54.20000 -0.318
54.22000 0.083
54.24000 2.462
54.26000 3.870
54.28000 4.864
54.30000 2.243
54.32000 0.573
54.34000 4.292
54.36000 4.306
54.38000 5.873
54.40000 5.551
54.42000 2.632
54.44000 0.754
54.46000 0.498
54.48000 2.063
54.50000 -1.281
54.52000 2.580
54.54000 3.053
54.56000 0.720
54.58000 -2.700
54.60000 -0.485
54.62000 -2.245
54.64000 2.289
54.66000 6.111
54.68000 5.159
54.70000 4.530
54.72000 6.443
54.74000 5.314
54.76000 5.587
54.78000 2.930
54.80000 2.056
54.82000 1.946
54.84000 7.258
54.86000 3.955
54.88000 -1.194
54.90000 2.056
54.92000 2.928
54.94000 -0.553
54.96000 -1.688
54.98000 4.004
55.00000 5.162
55.02000 0.155
55.04000 -1.485
55.06000 1.587
55.08000 -1.955
55.10000 -2.438
55.12000 -1.355
55.14000 -1.284
55.16000 1.965
55.18000 2.039
55.20000 0.513
55.22000 0.086
55.24000 -0.741
55.26000 0.848
55.28000 4.043
55.30000 5.401
55.32000 3.827
55.34000 2.946
55.36000 3.554
55.38000 2.673
55.40000 3.318
55.42000 3.301
55.44000 -0.431
55.46000 -2.651
55.48000 2.799
55.50000 1.990
55.52000 -0.245
55.54000 -2.106
55.56000 -2.654
55.58000 0.792
55.60000 3.881
55.62000 3.147
55.64000 0.323
55.66000 4.315
55.68000 4.057
55.70000 3.477
55.72000 3.151
55.74000 6.610
55.76000 3.482
55.78000 3.155
55.80000 4.972
55.82000 1.224
55.84000 1.306
55.86000 3.758
55.88000 2.352
55.90000 1.866
55.92000 4.503
55.94000 6.193
55.96000 3.642
55.98000 1.318
56.00000 3.218
56.02000 6.716
56.04000 4.547
56.06000 3.543
56.08000 2.387
56.10000 1.941
56.12000 1.207
56.14000 -0.824
56.16000 -1.829
56.18000 -0.745
56.20000 3.983
56.22000 2.456
56.24000 0.209
56.26000 2.367
56.28000 9.402
56.30000 5.423
56.32000 1.697
56.34000 -1.881
56.36000 -1.046
56.38000 0.799
56.40000 0.575
56.42000 3.394
56.44000 3.654
56.46000 3.846
56.48000 0.096
56.50000 3.340
56.52000 7.605
56.54000 7.183
56.56000 1.951
56.58000 4.872
56.60000 6.019
56.62000 4.003
56.64000 3.081
56.66000 -1.700
56.68000 1.448
56.70000 2.515
56.72000 2.976
56.74000 -1.115
56.76000 0.827
56.78000 1.129
56.80000 0.817
56.82000 2.427
56.84000 2.801
56.86000 4.081
56.88000 7.403
56.90000 3.781
56.92000 -0.638
56.94000 -1.317
56.96000 -0.369
56.98000 0.351
57.00000 0.176
57.02000 2.791
57.04000 1.582
57.06000 -0.739
57.08000 0.869
57.10000 2.236
57.12000 1.770
57.14000 0.641
57.16000 -0.457
57.18000 -2.109
57.20000 -2.102
57.22000 -2.329
57.24000 3.365
57.26000 3.941
57.28000 1.712
57.30000 -1.534
57.32000 2.756
57.34000 0.935
57.36000 3.705
57.38000 0.266
57.40000 -0.126
57.42000 2.906
57.44000 4.091
57.46000 2.809
57.48000 0.468
57.50000 1.167
57.52000 0.345
57.54000 0.053
57.56000 8.530
57.58000 6.387
57.60000 0.853
57.62000 -2.538
57.64000 2.656
57.66000 1.948
57.68000 3.156
57.70000 4.769
57.72000 3.727
57.74000 5.159
57.76000 8.191
57.78000 6.575
57.80000 5.017
57.82000 5.663
57.84000 7.724
57.86000 9.786
57.88000 5.102
57.90000 1.624
57.92000 2.082
57.94000 8.161
57.96000 3.440
57.98000 0.826
58.00000 -2.550
58.02000 2.348
58.04000 2.739
58.06000 4.668
58.08000 4.765
58.10000 6.475
58.12000 5.799
58.14000 5.154
58.16000 4.038
58.18000 3.607
58.20000 0.432
58.22000 4.130
58.24000 0.262
58.26000 0.061
58.28000 0.150
58.30000 0.730
58.32000 2.051
58.34000 2.245
58.36000 6.568
58.38000 6.567
58.40000 4.266
58.42000 1.737
58.44000 5.241
58.46000 -0.579
58.48000 1.734
58.50000 -0.888
58.52000 -1.264
58.54000 1.506
58.56000 3.502
58.58000 5.659
58.60000 4.988
58.62000 -0.413
58.64000 1.521
58.66000 2.594
58.68000 3.848
58.70000 5.167
58.72000 5.850
58.74000 5.648
58.76000 2.803
58.78000 3.013
58.80000 0.853
58.82000 2.525
58.84000 4.669
58.86000 7.421
58.88000 3.842
58.90000 3.017
58.92000 -1.044
58.94000 1.016
58.96000 2.878
58.98000 4.276
59.00000 4.247
59.02000 1.976
59.04000 2.089
59.06000 0.737
59.08000 0.838
59.10000 1.244
59.12000 0.842
59.14000 1.745
59.16000 -0.567
59.18000 -0.441
59.20000 0.274
59.22000 5.629
59.24000 3.204
59.26000 -0.313
59.28000 0.881
59.30000 -1.716
59.32000 1.035
59.34000 -2.523
59.36000 0.016
59.38000 2.774
59.40000 2.529
59.42000 2.441
59.44000 2.998
59.46000 4.788
59.48000 6.278
59.50000 3.705
59.52000 -0.218
59.54000 -0.501
59.56000 4.885
59.58000 8.655
59.60000 5.827
59.62000 4.073
59.64000 0.376
59.66000 -0.821
59.68000 3.566
59.70000 4.229
59.72000 3.044
59.74000 6.503
59.76000 6.337
59.78000 -0.078
59.80000 2.050
59.82000 2.761
59.84000 3.579
59.86000 2.122
59.88000 3.817
59.90000 2.017
59.92000 0.342
59.94000 0.420
59.96000 5.059
59.98000 1.001
60.00000 -1.163
60.02000 -0.860
60.04000 0.982
60.06000 2.743
60.08000 4.611
60.10000 2.962
60.12000 0.747
60.14000 1.947
60.16000 2.254
60.18000 4.244
60.20000 1.809
60.22000 1.441
60.24000 -0.043
60.26000 -1.250
60.28000 0.902
60.30000 1.303
60.32000 -0.802
60.34000 -1.829
60.36000 -0.281
60.38000 1.622
60.40000 0.536
60.42000 0.439
60.44000 1.839
60.46000 0.462
60.48000 2.048
60.50000 4.409
60.52000 1.012
60.54000 -0.410
60.56000 0.890
60.58000 0.680
60.60000 5.501
60.62000 0.724
60.64000 4.123
60.66000 2.034
60.68000 -0.447
60.70000 -0.353
60.72000 1.202
60.74000 0.788
60.76000 -0.555
60.78000 -1.831
60.80000 2.396
60.82000 2.117
60.84000 2.380
60.86000 5.714
60.88000 3.879
60.90000 4.119
60.92000 1.147
60.94000 -1.305
60.96000 0.534
60.98000 2.620
61.00000 3.900
61.02000 2.406
61.04000 5.659
61.06000 5.460
61.08000 1.709
61.10000 -2.481
61.12000 -2.269
61.14000 2.211
61.16000 1.350
61.18000 1.565
61.20000 -1.051
61.22000 0.263
61.24000 4.945
61.26000 4.884
61.28000 0.873
61.30000 3.542
61.32000 4.306
61.34000 4.313
61.36000 2.763
61.38000 1.820
61.40000 1.457
61.42000 -0.359
61.44000 -1.292
61.46000 4.395
61.48000 3.972
61.50000 4.060
61.52000 0.345
61.54000 2.032
61.56000 3.789
61.58000 3.148
61.60000 2.705
61.62000 1.807
61.64000 5.204
61.66000 5.058
61.68000 3.166
61.70000 0.475
61.72000 -0.510
61.74000 6.057
61.76000 3.234
61.78000 3.488
61.80000 5.078
61.82000 0.830
61.84000 3.549
61.86000 5.565
61.88000 5.802
61.90000 2.761
61.92000 5.756
61.94000 6.208
61.96000 4.253
61.98000 5.091
62.00000 3.467
62.02000 0.134
62.04000 -2.459
62.06000 0.411
62.08000 2.037
62.10000 1.909
62.12000 3.473
62.14000 2.515
62.16000 0.648
62.18000 0.537
62.20000 2.645
62.22000 5.604
62.24000 1.762
62.26000 -0.337
62.28000 1.905
62.30000 2.578
62.32000 2.093
62.34000 4.561
62.36000 5.487
62.38000 2.242
62.40000 -2.457
62.42000 0.130
62.44000 2.954
62.46000 -0.319
62.48000 2.568
62.50000 2.621
62.52000 -0.298
62.54000 0.980
62.56000 4.305
62.58000 3.426
62.60000 3.401
62.62000 5.213
62.64000 6.433
62.66000 4.550
62.68000 3.964
62.70000 -0.273
62.72000 -1.848
62.74000 0.350
62.76000 0.756
62.78000 1.778
62.80000 1.470
62.82000 3.961
62.84000 1.186
62.86000 1.243
62.88000 0.874
62.90000 -0.553
62.92000 2.141
62.94000 1.799
62.96000 3.003
62.98000 4.295
63.00000 6.216
63.02000 3.220
63.04000 -1.019
63.06000 0.373
63.08000 0.872
63.10000 2.822
63.12000 2.232
63.14000 1.938
63.16000 -1.977
63.18000 1.160
63.20000 2.445
63.22000 3.626
63.24000 -2.138
63.26000 -2.464
63.28000 -1.795
63.30000 -1.675
63.32000 1.489
63.34000 1.231
63.36000 0.881
63.38000 1.326
63.40000 0.080
63.42000 -0.550
63.44000 0.266
63.46000 -1.928
63.48000 -0.339
63.50000 2.680
63.52000 2.476
63.54000 0.800
63.56000 -2.029
63.58000 -2.468
63.60000 3.926
63.62000 1.442
63.64000 -1.448
63.66000 -0.960
63.68000 0.733
63.70000 2.663
63.72000 2.575
63.74000 0.718
63.76000 1.039
63.78000 1.958
63.80000 2.311
63.82000 -0.332
63.84000 0.475
63.86000 1.986
63.88000 3.289
63.90000 2.387
63.92000 4.201
63.94000 1.966
63.96000 2.256
63.98000 1.926
64.00000 2.566
64.02000 4.202
64.04000 1.273
64.06000 1.390
64.08000 -0.123
64.10000 1.812
64.12000 1.391
64.14000 1.096
64.16000 3.066
64.18000 3.873
64.20000 0.411
64.22000 1.169
64.24000 1.756
64.26000 1.732
64.28000 0.664
64.30000 2.092
64.32000 1.923
64.34000 0.758
64.36000 2.366
64.38000 2.455
64.40000 1.530
64.42000 3.844
64.44000 4.318
64.46000 -0.060
64.48000 -1.338
64.50000 2.559
64.52000 0.461
64.54000 2.296
64.56000 1.630
64.58000 0.126
64.60000 -0.260
64.62000 -1.249
64.64000 1.560
64.66000 3.625
64.68000 3.456
64.70000 7.660
64.72000 9.545
64.74000 3.721
64.76000 2.898
64.78000 3.418
64.80000 3.578
64.82000 0.166
64.84000 -2.424
64.86000 2.526
64.88000 6.806
64.90000 4.789
64.92000 3.111
64.94000 4.831
64.96000 2.750
64.98000 5.035
65.00000 3.396
65.02000 0.660
65.04000 -0.603
65.06000 0.270
65.08000 1.764
65.10000 3.654
65.12000 4.141
65.14000 2.976
65.16000 2.588
65.18000 2.338
65.20000 4.200
65.22000 3.097
65.24000 2.572
65.26000 4.367
65.28000 5.562
65.30000 5.164
65.32000 0.904
65.34000 1.723
65.36000 2.730
65.38000 0.168
65.40000 0.860
65.42000 2.901
65.44000 5.262
65.46000 2.864
65.48000 4.568
65.50000 1.845
65.52000 2.127
65.54000 2.821
65.56000 1.511
65.58000 -1.125
65.60000 -2.457
65.62000 -0.755
65.64000 -0.759
65.66000 1.948
65.68000 3.226
65.70000 1.977
65.72000 -1.113
65.74000 0.958
65.76000 1.937
65.78000 2.318
65.80000 3.835
65.82000 0.294
65.84000 2.019
65.86000 -0.723
65.88000 -1.973
65.90000 1.687
65.92000 2.234
65.94000 -0.109
65.96000 4.072
65.98000 5.659
66.00000 3.393
66.02000 -0.775
66.04000 -1.634
66.06000 2.876
66.08000 6.773
66.10000 4.568
66.12000 3.834
66.14000 2.581
66.16000 0.656
66.18000 -1.238
66.20000 -2.487
66.22000 -1.795
66.24000 0.029
66.26000 -0.554
66.28000 -1.110
66.30000 0.665
66.32000 -0.995
66.34000 -1.990
66.36000 -0.813
66.38000 1.471
66.40000 2.716
66.42000 3.715
66.44000 0.610
66.46000 0.228
66.48000 -0.803
66.50000 -1.209
66.52000 0.194
66.54000 0.547
66.56000 0.989
66.58000 1.124
66.60000 3.143
66.62000 2.405
66.64000 -0.404
66.66000 0.182
66.68000 1.052
66.70000 -1.763
66.72000 -2.297
66.74000 -2.306
66.76000 -1.685
66.78000 1.621
66.80000 1.089
66.82000 -0.599
66.84000 1.589
66.86000 -1.082
66.88000 -1.213
66.90000 -2.517
66.92000 -0.931
66.94000 -2.293
66.96000 0.635
66.98000 1.594
67.00000 3.340
67.02000 0.791
67.04000 -2.307
67.06000 -0.760
67.08000 -1.442
67.10000 -1.617
67.12000 -0.459
67.14000 0.547
67.16000 2.848
67.18000 3.946
67.20000 2.746
67.22000 1.234
67.24000 -0.178
67.26000 2.251
67.28000 1.523
67.30000 -2.270
67.32000 -0.754
67.34000 -1.916
67.36000 -2.536
67.38000 0.566
67.40000 2.599
67.42000 -0.779
67.44000 1.701
67.46000 -0.017
67.48000 -0.237
67.50000 1.578
67.52000 1.662
67.54000 0.451
67.56000 0.582
67.58000 -1.785
67.60000 -0.445
67.62000 -0.176
67.64000 1.083
67.66000 -0.375
67.68000 0.407
67.70000 4.218
67.72000 3.541
67.74000 -0.087
67.76000 -2.546
67.78000 1.865
67.80000 2.764
67.82000 1.848
67.84000 0.444
67.86000 -0.905
67.88000 -2.049
67.90000 -0.745
67.92000 3.991
67.94000 5.971
67.96000 4.733
67.98000 3.277
68.00000 3.587
68.02000 4.448
68.04000 3.493
68.06000 2.354
68.08000 2.497
68.10000 2.618
68.12000 4.882
68.14000 1.775
68.16000 1.387
68.18000 6.474
68.20000 7.339
68.22000 8.531
68.24000 5.617
68.26000 6.088
68.28000 7.247
68.30000 8.663
68.32000 12.003
68.34000 8.842
68.36000 12.525
68.38000 12.789
68.40000 9.556
68.42000 8.930
68.44000 10.085
68.46000 12.194
68.48000 14.917
68.50000 13.887
68.52000 14.110
68.54000 13.377
68.56000 17.286
68.58000 17.231
68.60000 15.375
68.62000 15.746
68.64000 16.395
68.66000 16.380
68.68000 15.132
68.70000 18.245
68.72000 22.312
68.74000 20.389
68.76000 23.103
68.78000 23.785
68.80000 22.493
68.82000 25.631
68.84000 21.245
68.86000 21.002
68.88000 21.314
68.90000 23.041
68.92000 21.732
68.94000 22.730
68.96000 22.529
68.98000 22.660
69.00000 21.759
69.02000 21.635
69.04000 23.087
69.06000 20.000
69.08000 20.414
69.10000 16.955
69.12000 18.013
69.14000 20.921
69.16000 19.725
69.18000 18.605
69.20000 16.084
69.22000 18.583
69.24000 21.198
69.26000 19.790
69.28000 15.585
69.30000 12.730
69.32000 13.730
69.34000 15.795
69.36000 15.856
69.38000 13.203
69.40000 14.049
69.42000 13.304
69.44000 16.525
69.46000 13.470
69.48000 9.861
69.50000 11.458
69.52000 9.558
69.54000 12.090
69.56000 11.618
69.58000 10.696
69.60000 12.221
69.62000 11.596
69.64000 11.107
69.66000 10.585
69.68000 7.517
69.70000 7.036
69.72000 6.606
69.74000 6.003
69.76000 7.308
69.78000 5.984
69.80000 2.593
69.82000 1.372
69.84000 2.758
69.86000 3.913
69.88000 4.425
69.90000 2.515
69.92000 4.140
69.94000 3.855
69.96000 4.212
69.98000 7.924
70.00000 7.393
70.02000 7.030
70.04000 5.530
70.06000 0.896
70.08000 3.313
70.10000 3.693
70.12000 6.341
70.14000 8.969
70.16000 3.092
70.18000 0.732
70.20000 4.875
70.22000 6.275
70.24000 0.334
70.26000 -1.622
70.28000 -2.129
70.30000 -1.857
70.32000 -2.440
70.34000 -2.227
70.36000 -0.546
70.38000 1.629
70.40000 0.829
70.42000 1.801
70.44000 3.325
70.46000 2.359
70.48000 2.423
70.50000 -0.379
70.52000 4.501
70.54000 2.530
70.56000 1.889
70.58000 1.216
70.60000 1.124
70.62000 3.817
70.64000 5.520
70.66000 -0.205
70.68000 2.334
70.70000 2.026
70.72000 3.813
70.74000 0.032
70.76000 1.831
70.78000 -0.154
70.80000 2.366
70.82000 2.166
70.84000 1.812
70.86000 1.401
70.88000 1.607
70.90000 2.413
70.92000 3.657
70.94000 4.813
70.96000 4.993
70.98000 2.656
71.00000 4.216
71.02000 5.147
71.04000 3.427
71.06000 -2.348
71.08000 -0.870
71.10000 5.502
71.12000 2.446
71.14000 0.862
71.16000 0.211
71.18000 -0.256
71.20000 2.363
71.22000 3.943
71.24000 4.019
71.26000 4.128
71.28000 5.211
71.30000 6.277
71.32000 4.738
71.34000 4.425
71.36000 5.307
71.38000 1.779
71.40000 3.774
71.42000 3.543
71.44000 3.832
71.46000 5.001
71.48000 2.197
71.50000 3.802
71.52000 0.577
71.54000 -0.283
71.56000 -0.394
71.58000 -1.786
71.60000 1.084
71.62000 4.531
71.64000 9.359
71.66000 3.555
71.68000 1.307
71.70000 3.846
71.72000 2.487
71.74000 0.024
71.76000 2.806
71.78000 5.248
71.80000 4.943
71.82000 2.500
71.84000 -1.467
71.86000 1.916
71.88000 2.546
71.90000 3.263
71.92000 1.619
71.94000 0.954
71.96000 0.194
71.98000 0.112
72.00000 3.274
72.02000 4.024
72.04000 3.283
72.06000 2.339
72.08000 7.836
72.10000 3.170
72.12000 0.540
72.14000 -0.373
72.16000 0.169
72.18000 3.561
72.20000 3.954
72.22000 1.957
72.24000 4.450
72.26000 5.378
72.28000 0.361
72.30000 1.567
72.32000 3.389
72.34000 2.839
72.36000 5.937
72.38000 5.326
72.40000 5.326
72.42000 -0.522
72.44000 -2.280
72.46000 -0.791
72.48000 2.343
72.50000 3.302
72.52000 0.845
72.54000 2.614
72.56000 5.206
72.58000 6.515
72.60000 4.328
72.62000 0.937
72.64000 0.258
72.66000 1.287
72.68000 6.279
72.70000 8.081
72.72000 2.378
72.74000 5.165
72.76000 8.135
72.78000 7.467
72.80000 6.949
72.82000 2.245
72.84000 2.923
72.86000 4.124
72.88000 3.265
72.90000 3.743
72.92000 7.886
72.94000 9.666
72.96000 5.890
72.98000 7.954
73.00000 7.728
73.02000 7.347
73.04000 6.626
73.06000 7.556
73.08000 8.950
73.10000 5.896
73.12000 4.322
73.14000 -2.210
73.16000 4.034
73.18000 5.894
73.20000 1.597
73.22000 5.175
73.24000 5.852
73.26000 3.720
73.28000 7.535
73.30000 6.342
73.32000 4.091
73.34000 2.252
73.36000 5.579
73.38000 5.559
73.40000 -2.127
73.42000 -0.116
73.44000 4.952
73.46000 2.705
73.48000 3.256
73.50000 6.294
73.52000 2.383
73.54000 -0.424
73.56000 -1.646
73.58000 0.484
73.60000 1.030
73.62000 4.007
73.64000 5.793
73.66000 5.258
73.68000 1.962
73.70000 0.897
73.72000 6.619
73.74000 3.450
73.76000 4.584
73.78000 7.203
73.80000 8.365
73.82000 4.312
73.84000 7.487
73.86000 6.750
73.88000 8.539
73.90000 7.209
73.92000 3.581
73.94000 4.312
73.96000 3.013
73.98000 1.681
74.00000 5.287
74.02000 1.774
74.04000 2.198
74.06000 -1.154
74.08000 3.525
74.10000 9.823
74.12000 4.707
74.14000 0.663
74.16000 0.366
74.18000 4.140
74.20000 8.012
74.22000 1.957
74.24000 -0.183
74.26000 1.718
74.28000 2.583
74.30000 5.351
74.32000 1.271
74.34000 0.173
74.36000 2.656
74.38000 4.165
74.40000 4.869
74.42000 1.828
74.44000 2.885
74.46000 6.160
74.48000 5.289
74.50000 0.260
74.52000 1.025
74.54000 7.888
74.56000 5.971
74.58000 2.638
74.60000 1.712
74.62000 2.064
74.64000 2.454
74.66000 0.860
74.68000 1.205
74.70000 3.968
74.72000 3.115
74.74000 4.953
74.76000 -0.201
74.78000 3.549
74.80000 5.526
74.82000 4.037
74.84000 3.237
74.86000 1.843
74.88000 2.669
74.90000 -0.246
74.92000 -2.254
74.94000 -0.574
74.96000 0.378
74.98000 1.597
75.00000 2.911
75.02000 2.937
75.04000 4.527
75.06000 3.292
75.08000 8.386
75.10000 6.889
75.12000 -0.863
75.14000 4.584
75.16000 2.265
75.18000 -1.088
75.20000 2.903
75.22000 2.262
75.24000 1.319
75.26000 1.077
75.28000 -2.266
75.30000 1.307
75.32000 2.161
75.34000 0.915
75.36000 -0.093
75.38000 -1.237
75.40000 -0.765
75.42000 2.289
75.44000 2.316
75.46000 6.227
75.48000 -0.034
75.50000 1.766
75.52000 3.394
75.54000 3.357
75.56000 0.999
75.58000 2.245
75.60000 3.924
75.62000 3.445
75.64000 2.165
75.66000 3.338
75.68000 0.326
75.70000 0.676
75.72000 5.684
75.74000 4.202
75.76000 0.021
75.78000 0.587
75.80000 -2.156
75.82000 -1.878
75.84000 1.217
75.86000 1.602
75.88000 0.585
75.90000 1.218
75.92000 1.649
75.94000 -0.764
75.96000 -0.897
75.98000 2.550
76.00000 2.843
76.02000 -0.163
76.04000 2.160
76.06000 -0.746
76.08000 -0.255
76.10000 3.988
76.12000 1.982
76.14000 1.217
76.16000 1.226
76.18000 0.732
76.20000 1.060
76.22000 2.069
76.24000 5.224
76.26000 0.619
76.28000 0.387
76.30000 2.869
76.32000 -0.211
76.34000 2.692
76.36000 -0.056
76.38000 1.182
76.40000 -0.280
76.42000 -0.863
76.44000 -0.457
76.46000 0.381
76.48000 4.447
76.50000 4.862
76.52000 3.220
76.54000 1.457
76.56000 0.133
76.58000 1.663
76.60000 3.675
76.62000 3.411
76.64000 3.264
76.66000 4.379
76.68000 3.606
76.70000 5.185
76.72000 5.226
76.74000 2.742
76.76000 -0.223
76.78000 0.537
76.80000 2.482
76.82000 6.011
76.84000 7.594
76.86000 0.880
76.88000 2.232
76.90000 1.138
76.92000 -0.690
76.94000 2.651
76.96000 3.489
76.98000 3.473
77.00000 7.542
77.02000 8.344
77.04000 2.981
77.06000 5.595
77.08000 1.768
77.10000 -0.725
77.12000 -0.248
77.14000 5.096
77.16000 6.440
77.18000 5.697
77.20000 4.162
77.22000 1.971
77.24000 4.808
77.26000 5.757
77.28000 5.907
77.30000 2.187
77.32000 5.160
77.34000 4.286
77.36000 6.425
77.38000 2.652
77.40000 3.457
77.42000 4.885
77.44000 -2.244
77.46000 -0.039
77.48000 1.933
77.50000 7.469
77.52000 5.267
77.54000 4.928
77.56000 4.068
77.58000 2.156
77.60000 3.983
77.62000 2.009
77.64000 2.734
77.66000 4.597
77.68000 4.309
77.70000 2.835
77.72000 4.961
77.74000 5.757
77.76000 2.922
77.78000 5.696
77.80000 2.622
77.82000 0.410
77.84000 5.151
77.86000 2.117
77.88000 1.265
77.90000 2.041
77.92000 2.593
77.94000 3.376
77.96000 7.789
77.98000 6.643
78.00000 5.321
78.02000 2.407
78.04000 3.111
78.06000 2.308
78.08000 0.903
78.10000 5.674
78.12000 4.273
78.14000 1.881
78.16000 1.957
78.18000 1.009
78.20000 0.547
78.22000 -2.296
78.24000 6.148
78.26000 2.132
78.28000 0.819
78.30000 1.101
78.32000 1.399
78.34000 6.169
78.36000 5.405
78.38000 0.813
78.40000 1.792
78.42000 4.614
78.44000 10.480
78.46000 8.184
78.48000 1.538
78.50000 4.996
78.52000 6.314
78.54000 6.523
78.56000 8.324
78.58000 3.317
78.60000 -0.345
78.62000 0.655
78.64000 2.189
78.66000 0.193
78.68000 5.060
78.70000 5.170
78.72000 2.717
78.74000 7.664
78.76000 5.716
78.78000 2.502
78.80000 3.255
78.82000 1.297
78.84000 -2.325
78.86000 1.084
78.88000 3.537
78.90000 3.016
78.92000 3.090
78.94000 2.376
78.96000 3.896
78.98000 0.498
79.00000 3.369
79.02000 3.417
79.04000 0.544
79.06000 -0.607
79.08000 2.770
79.10000 2.621
79.12000 3.784
79.14000 5.159
79.16000 7.593
79.18000 5.861
79.20000 7.608
79.22000 1.317
79.24000 -1.640
79.26000 0.925
79.28000 -0.856
79.30000 -2.336
79.32000 -1.008
79.34000 1.421
79.36000 7.574
79.38000 3.718
79.40000 2.812
79.42000 3.143
79.44000 3.022
79.46000 1.066
79.48000 3.585
79.50000 3.808
79.52000 2.000
79.54000 -2.340
79.56000 -0.671
79.58000 5.724
79.60000 6.450
79.62000 3.425
79.64000 2.351
79.66000 0.246
79.68000 2.804
79.70000 5.528
79.72000 1.748
79.74000 4.677
79.76000 9.932
79.78000 7.383
79.80000 2.755
79.82000 4.542
79.84000 4.293
79.86000 4.265
79.88000 4.432
79.90000 6.046
79.92000 5.521
79.94000 2.938
79.96000 3.265
79.98000 2.922
80.00000 5.654
80.02000 0.247
80.04000 -1.034
80.06000 -0.651
80.08000 0.404
80.10000 3.162
80.12000 4.786
80.14000 1.768
80.16000 2.827
80.18000 1.002
80.20000 1.395
80.22000 1.384
80.24000 5.634
80.26000 2.255
80.28000 3.162
80.30000 1.271
80.32000 -2.340
80.34000 2.024
80.36000 5.150
80.38000 4.866
80.40000 2.853
80.42000 -1.067
80.44000 4.844
80.46000 2.068
80.48000 2.981
80.50000 -0.693
80.52000 -0.430
80.54000 3.017
80.56000 1.363
80.58000 0.684
80.60000 -1.746
80.62000 -1.644
80.64000 -2.287
80.66000 1.380
80.68000 1.152
80.70000 2.087
80.72000 2.041
80.74000 1.547
80.76000 1.947
80.78000 1.470
80.80000 3.529
80.82000 5.658
80.84000 3.606
80.86000 4.614
80.88000 2.271
80.90000 0.243
80.92000 1.790
80.94000 0.789
80.96000 1.255
80.98000 0.140
81.00000 -2.019
81.02000 -0.559
81.04000 3.629
81.06000 4.791
81.08000 1.433
81.10000 -0.324
81.12000 -1.114
81.14000 1.835
81.16000 3.143
81.18000 2.184
81.20000 5.842
81.22000 8.734
81.24000 4.932
81.26000 3.931
81.28000 3.079
81.30000 0.954
81.32000 0.382
81.34000 4.096
81.36000 3.067
81.38000 0.835
81.40000 -0.751
81.42000 -2.428
81.44000 -0.253
81.46000 5.638
81.48000 4.717
81.50000 0.935
81.52000 -2.433
81.54000 3.085
81.56000 4.573
81.58000 6.587
81.60000 3.472
81.62000 7.812
81.64000 9.289
81.66000 7.435
81.68000 5.392
81.70000 2.791
81.72000 2.804
81.74000 6.742
81.76000 5.937
81.78000 1.613
81.80000 0.042
81.82000 2.279
81.84000 8.179
81.86000 7.384
81.88000 1.786
81.90000 3.340
81.92000 4.554
81.94000 8.412
81.96000 8.352
81.98000 6.274
82.00000 6.722
82.02000 8.845
82.04000 7.373
82.06000 11.304
82.08000 12.104
82.10000 6.629
82.12000 6.666
82.14000 5.793
82.16000 10.259
82.18000 9.782
82.20000 11.127
82.22000 11.678
82.24000 13.717
82.26000 13.753
82.28000 12.172
82.30000 13.574
82.32000 13.246
82.34000 15.503
82.36000 12.764
82.38000 9.342
82.40000 10.038
82.42000 12.578
82.44000 14.055
82.46000 17.020
82.48000 21.265
82.50000 15.373
82.52000 13.317
82.54000 13.602
82.56000 18.788
82.58000 16.453
82.60000 13.680
82.62000 20.185
82.64000 22.304
82.66000 24.747
82.68000 20.631
82.70000 17.895
82.72000 19.676
82.74000 23.377
82.76000 24.733
82.78000 20.983
82.80000 21.590
82.82000 29.539
82.84000 30.328
82.86000 26.861
82.88000 25.910
82.90000 23.680
82.92000 27.470
82.94000 33.618
82.96000 33.511
82.98000 32.896
83.00000 29.048
83.02000 26.341
83.04000 29.110
83.06000 31.147
83.08000 35.347
83.10000 39.329
83.12000 32.454
83.14000 30.115
83.16000 27.706
83.18000 30.329
83.20000 29.562
83.22000 32.563
83.24000 38.444
83.26000 38.507
83.28000 39.940
83.30000 32.734
83.32000 38.632
83.34000 32.962
83.36000 34.381
83.38000 35.298
83.40000 32.267
83.42000 27.845
83.44000 27.370
83.46000 32.263
83.48000 30.191
83.50000 29.408
83.52000 27.799
83.54000 27.857
83.56000 32.200
83.58000 30.286
83.60000 31.585
83.62000 27.865
83.64000 26.585
83.66000 26.276
83.68000 24.422
83.70000 25.126
83.72000 25.868
83.74000 20.485
83.76000 19.272
83.78000 17.251
83.80000 15.637
83.82000 18.730
83.84000 22.567
83.86000 21.885
83.88000 22.678
83.90000 19.000
83.92000 15.127
83.94000 16.807
83.96000 14.244
83.98000 15.305
84.00000 15.176
84.02000 19.197
84.04000 21.245
84.06000 18.729
84.08000 14.194
84.10000 12.646
84.12000 7.638
84.14000 10.648
84.16000 10.518
84.18000 7.620
84.20000 10.281
84.22000 7.902
84.24000 9.421
84.26000 7.954
84.28000 10.714
84.30000 13.116
84.32000 13.768
84.34000 11.064
84.36000 9.773
84.38000 9.091
84.40000 9.146
84.42000 6.455
84.44000 3.306
84.46000 4.327
84.48000 3.080
84.50000 2.316
84.52000 5.726
84.54000 6.800
84.56000 2.422
84.58000 5.351
84.60000 1.637
84.62000 2.224
84.64000 5.160
84.66000 4.540
84.68000 9.178
84.70000 6.016
84.72000 0.735
84.74000 0.335
84.76000 3.438
84.78000 1.577
84.80000 0.623
84.82000 0.792
84.84000 3.392
84.86000 4.999
84.88000 8.686
84.90000 5.119
84.92000 1.692
84.94000 0.359
84.96000 1.068
84.98000 0.178
85.00000 1.840
85.02000 -2.400
85.04000 -2.009
85.06000 2.314
85.08000 4.629
85.10000 2.433
85.12000 0.124
85.14000 3.079
85.16000 1.158
85.18000 1.932
85.20000 2.422
85.22000 1.548
85.24000 2.313
85.26000 1.842
85.28000 1.267
85.30000 1.839
85.32000 4.121
85.34000 6.755
85.36000 5.169
85.38000 0.465
85.40000 -1.829
85.42000 -2.362
85.44000 0.060
85.46000 1.625
85.48000 3.697
85.50000 0.361
85.52000 0.800
85.54000 0.774
85.56000 0.225
85.58000 -0.317
85.60000 0.138
85.62000 -2.350
85.64000 -0.494
85.66000 -0.375
85.68000 0.086
85.70000 -0.678
85.72000 1.101
85.74000 2.187
85.76000 5.949
85.78000 5.651
85.80000 4.011
85.82000 0.977
85.84000 -1.861
85.86000 -1.895
85.88000 1.050
85.90000 2.995
85.92000 3.640
85.94000 -0.070
85.96000 2.487
85.98000 0.651
86.00000 -2.285
86.02000 -0.759
86.04000 0.469
86.06000 5.074
86.08000 3.179
86.10000 0.475
86.12000 0.807
86.14000 -0.515
86.16000 2.846
86.18000 4.260
86.20000 -1.834
86.22000 -1.994
86.24000 1.377
86.26000 2.039
86.28000 -1.989
86.30000 -0.549
86.32000 5.099
86.34000 0.584
86.36000 -2.408
86.38000 2.010
86.40000 2.765
86.42000 3.139
86.44000 3.447
86.46000 7.159
86.48000 3.361
86.50000 1.237
86.52000 -0.465
86.54000 0.190
86.56000 4.706
86.58000 3.234
86.60000 0.339
86.62000 0.951
86.64000 0.094
86.66000 1.395
86.68000 -0.458
86.70000 -1.831
86.72000 3.992
86.74000 5.358
86.76000 1.232
86.78000 -1.961
86.80000 2.795
86.82000 1.553
86.84000 4.581
86.86000 7.639
86.88000 7.381
86.90000 7.494
86.92000 8.275
86.94000 7.926
86.96000 11.746
86.98000 9.832
87.00000 8.302
87.02000 14.766
87.04000 16.969
87.06000 13.427
87.08000 16.320
87.10000 16.662
87.12000 22.754
87.14000 21.306
87.16000 19.824
87.18000 21.897
87.20000 22.765
87.22000 21.473
87.24000 21.196
87.26000 22.837
87.28000 20.829
87.30000 25.530
87.32000 21.860
87.34000 17.748
87.36000 19.333
87.38000 22.057
87.40000 24.063
87.42000 24.941
87.44000 29.315
87.46000 27.821
87.48000 26.335
87.50000 25.040
87.52000 28.585
87.54000 26.222
87.56000 27.985
87.58000 27.678
87.60000 28.990
87.62000 29.067
87.64000 28.658
87.66000 29.667
87.68000 31.670
87.70000 24.441
87.72000 21.513
87.74000 27.816
87.76000 29.184
87.78000 25.958
87.80000 25.623
87.82000 25.724
87.84000 24.096
87.86000 28.804
87.88000 25.164
87.90000 24.814
87.92000 21.133
87.94000 23.674
87.96000 23.414
87.98000 23.725
88.00000 26.011
88.02000 21.438
88.04000 23.154
88.06000 24.373
88.08000 21.212
88.10000 20.366
88.12000 17.767
88.14000 28.383
88.16000 24.696
88.18000 16.501
88.20000 14.504
88.22000 18.323
88.24000 18.439
88.26000 15.062
88.28000 9.746
88.30000 9.484
88.32000 12.807
88.34000 14.304
88.36000 15.114
88.38000 11.733
88.40000 9.749
88.42000 10.785
88.44000 11.431
88.46000 9.727
88.48000 9.914
88.50000 9.932
88.52000 9.199
88.54000 8.750
88.56000 13.578
88.58000 16.239
88.60000 7.592
88.62000 7.943
88.64000 9.088
88.66000 7.575
88.68000 11.434
88.70000 8.995
88.72000 5.643
88.74000 6.110
88.76000 3.336
88.78000 4.728
88.80000 6.386
88.82000 5.219
88.84000 6.767
88.86000 7.120
88.88000 2.740
88.90000 6.501
88.92000 2.368
88.94000 -0.062
88.96000 3.497
88.98000 4.462
89.00000 0.393
89.02000 1.680
89.04000 1.539
89.06000 0.868
89.08000 7.529
89.10000 6.595
89.12000 3.756
89.14000 3.893
89.16000 1.514
89.18000 -2.206
89.20000 -2.011
89.22000 -0.262
89.24000 4.359
89.26000 3.892
89.28000 1.810
89.30000 4.436
89.32000 2.669
89.34000 2.895
89.36000 3.894
89.38000 3.104
89.40000 2.343
89.42000 4.581
89.44000 1.614
89.46000 0.661
89.48000 1.507
89.50000 2.296
89.52000 0.357
89.54000 -0.632
89.56000 0.273
89.58000 1.890
89.60000 0.509
89.62000 2.214
89.64000 -2.193
89.66000 3.476
89.68000 2.287
89.70000 -0.027
89.72000 -0.797
89.74000 6.749
89.76000 7.541
89.78000 4.148
89.80000 -0.094
89.82000 3.750
89.84000 2.865
89.86000 2.040
89.88000 0.970
89.90000 0.309
89.92000 0.678
89.94000 -0.834
89.96000 -0.419
89.98000 0.843
90.00000 -0.324
90.02000 -1.349
90.04000 -0.679
90.06000 -0.535
90.08000 0.031
90.10000 7.151
90.12000 0.144
90.14000 0.640
90.16000 2.685
90.18000 -2.157
90.20000 1.903
90.22000 2.491
90.24000 2.259
90.26000 2.280
90.28000 2.823
90.30000 2.960
90.32000 4.807
90.34000 4.864
90.36000 4.558
90.38000 1.577
90.40000 -0.045
90.42000 2.270
90.44000 2.863
90.46000 0.447
90.48000 4.938
90.50000 2.051
90.52000 0.572
90.54000 3.832
90.56000 -0.975
90.58000 1.653
90.60000 0.039
90.62000 3.286
90.64000 8.025
90.66000 3.731
90.68000 -0.249
90.70000 -2.175
90.72000 2.911
90.74000 1.587
90.76000 3.924
90.78000 3.621
90.80000 2.506
90.82000 2.282
90.84000 -0.365
90.86000 2.972
90.88000 4.141
90.90000 6.340
90.92000 7.762
90.94000 4.432
90.96000 -2.144
90.98000 -0.753
91.00000 -0.367
91.02000 4.219
91.04000 1.944
91.06000 2.033
91.08000 0.930
91.10000 3.652
91.12000 5.259
91.14000 3.931
91.16000 3.944
91.18000 -2.175
91.20000 -0.028
91.22000 1.843
91.24000 -0.104
91.26000 5.292
91.28000 3.376
91.30000 4.202
91.32000 1.941
91.34000 0.214
91.36000 3.914
91.38000 5.222
91.40000 8.398
91.42000 7.939
91.44000 3.525
91.46000 5.679
91.48000 4.929
91.50000 3.781
91.52000 1.329
91.54000 4.894
91.56000 0.952
91.58000 -0.819
91.60000 -0.948
91.62000 -1.795
91.64000 -0.813
91.66000 1.208
91.68000 3.092
91.70000 4.256
91.72000 5.691
91.74000 1.034
91.76000 0.165
91.78000 5.253
91.80000 4.263
91.82000 0.583
91.84000 2.609
91.86000 4.264
91.88000 2.894
91.90000 1.053
91.92000 -1.209
91.94000 0.487
91.96000 1.915
91.98000 -1.298
92.00000 2.955
92.02000 4.158
92.04000 3.896
92.06000 7.102
92.08000 2.753
92.10000 -1.938
92.12000 -1.760
92.14000 -0.479
92.16000 -1.464
92.18000 -0.943
92.20000 0.417
92.22000 -1.037
92.24000 3.506
92.26000 0.056
92.28000 0.266
92.30000 5.194
92.32000 2.782
92.34000 2.824
92.36000 3.718
92.38000 5.351
92.40000 4.680
92.42000 3.990
92.44000 4.704
92.46000 2.929
92.48000 -1.230
92.50000 7.001
92.52000 6.565
92.54000 1.499
92.56000 -2.157
92.58000 0.717
92.60000 -0.648
92.62000 1.959
92.64000 -0.615
92.66000 1.960
92.68000 4.346
92.70000 1.412
92.72000 3.022
92.74000 8.071
92.76000 6.940
92.78000 6.655
92.80000 5.321
92.82000 1.859
92.84000 0.848
92.86000 5.450
92.88000 1.667
92.90000 0.902
92.92000 0.726
92.94000 -0.570
92.96000 0.626
92.98000 4.735
93.00000 9.368
93.02000 2.237
93.04000 1.414
93.06000 5.659
93.08000 3.098
93.10000 0.978
93.12000 -0.758
93.14000 -0.640
93.16000 3.444
93.18000 3.182
93.20000 0.920
93.22000 3.615
93.24000 1.798
93.26000 0.820
93.28000 0.226
93.30000 0.970
93.32000 3.747
93.34000 1.552
93.36000 0.982
93.38000 -0.539
93.40000 1.364
93.42000 -2.213
93.44000 -1.116
93.46000 0.350
93.48000 3.226
93.50000 2.900
93.52000 -0.217
93.54000 1.048
93.56000 -1.957
93.58000 1.308
93.60000 -1.663
93.62000 4.974
93.64000 5.594
93.66000 4.665
93.68000 3.202
93.70000 1.244
93.72000 4.517
93.74000 4.598
93.76000 2.184
93.78000 2.904
93.80000 3.898
93.82000 0.506
93.84000 0.125
93.86000 2.690
93.88000 3.675
93.90000 0.803
93.92000 0.106
93.94000 2.296
93.96000 4.716
93.98000 1.098
94.00000 -1.066
94.02000 1.748
94.04000 -0.063
94.06000 -1.991
94.08000 2.138
94.10000 5.758
94.12000 8.877
94.14000 7.317
94.16000 4.415
94.18000 3.014
94.20000 -1.238
94.22000 2.054
94.24000 1.180
94.26000 -0.538
94.28000 5.140
94.30000 2.512
94.32000 1.783
94.34000 -2.221
94.36000 -1.555
94.38000 -0.264
94.40000 1.285
94.42000 3.546
94.44000 0.402
94.46000 0.715
94.48000 3.518
94.50000 4.287
94.52000 1.657
94.54000 3.323
94.56000 0.802
94.58000 -0.151
94.60000 0.419
94.62000 1.014
94.64000 4.809
94.66000 6.945
94.68000 5.891
94.70000 -0.561
94.72000 -0.734
94.74000 0.795
94.76000 1.555
94.78000 3.223
94.80000 3.621
94.82000 2.132
94.84000 1.144
94.86000 -0.033
94.88000 3.682
94.90000 1.057
94.92000 2.044
94.94000 6.185
94.96000 6.378
94.98000 3.982
95.00000 6.107
95.02000 5.805
95.04000 1.065
95.06000 -2.180
95.08000 0.829
95.10000 3.033
95.12000 5.202
95.14000 8.439
95.16000 7.940
95.18000 0.492
95.20000 8.718
95.22000 2.167
95.24000 0.460
95.26000 4.757
95.28000 9.052
95.30000 2.181
95.32000 5.318
95.34000 6.620
95.36000 8.358
95.38000 3.139
95.40000 2.818
95.42000 5.149
95.44000 4.213
95.46000 0.107
95.48000 4.697
95.50000 4.238
95.52000 5.246
95.54000 5.806
95.56000 6.676
95.58000 4.720
95.60000 9.045
95.62000 7.423
95.64000 11.097
95.66000 8.762
95.68000 5.842
95.70000 1.162
95.72000 7.030
95.74000 11.221
95.76000 6.856
95.78000 6.526
95.80000 8.651
95.82000 8.371
95.84000 4.541
95.86000 5.658
95.88000 3.374
95.90000 6.969
95.92000 8.204
95.94000 8.528
95.96000 9.173
95.98000 4.998
96.00000 9.237
96.02000 8.034
96.04000 6.277
96.06000 10.664
96.08000 10.064
96.10000 -0.309
96.12000 -2.115
96.14000 1.514
96.16000 9.242
96.18000 12.762
96.20000 4.467
96.22000 3.906
96.24000 6.696
96.26000 12.434
96.28000 10.847
96.30000 10.071
96.32000 14.729
96.34000 13.267
96.36000 10.297
96.38000 10.298
96.40000 -0.716
96.42000 -0.688
96.44000 4.525
96.46000 4.107
96.48000 6.356
96.50000 6.114
96.52000 5.737
96.54000 3.498
96.56000 4.763
96.58000 3.638
96.60000 4.694
96.62000 6.092
96.64000 6.673
96.66000 6.088
96.68000 6.735
96.70000 10.210
96.72000 3.057
96.74000 -2.139
96.76000 3.286
96.78000 6.484
96.80000 0.357
96.82000 10.426
96.84000 7.407
96.86000 5.473
96.88000 6.340
96.90000 2.773
96.92000 5.718
96.94000 12.716
96.96000 9.030
96.98000 3.738
97.00000 4.955
97.02000 5.813
97.04000 4.427
97.06000 6.791
97.08000 4.414
97.10000 3.232
97.12000 4.533
97.14000 2.690
97.16000 3.234
97.18000 8.611
97.20000 11.005
97.22000 8.174
97.24000 5.710
97.26000 10.509
97.28000 3.771
97.30000 2.546
97.32000 4.666
97.34000 6.960
97.36000 7.346
97.38000 2.994
97.40000 2.827
97.42000 1.570
97.44000 3.789
97.46000 6.022
97.48000 6.027
97.50000 1.095
97.52000 -0.353
97.54000 3.734
97.56000 7.756
97.58000 6.648
97.60000 8.429
97.62000 1.871
97.64000 2.421
97.66000 9.575
97.68000 4.079
97.70000 8.904
97.72000 7.519
97.74000 3.597
97.76000 1.052
97.78000 6.527
97.80000 3.046
97.82000 2.541
97.84000 3.051
97.86000 4.435
97.88000 0.504
97.90000 0.398
97.92000 3.987
97.94000 6.154
97.96000 3.403
97.98000 6.067
98.00000 11.234
98.02000 6.153
98.04000 7.644
98.06000 6.278
98.08000 6.358
98.10000 5.385
98.12000 5.310
98.14000 1.249
98.16000 1.127
98.18000 0.555
98.20000 2.696
98.22000 8.907
98.24000 -1.130
98.26000 0.456
98.28000 -1.735
98.30000 1.076
98.32000 11.333
98.34000 14.728
98.36000 7.113
98.38000 8.589
98.40000 2.050
98.42000 2.749
98.44000 2.123
98.46000 5.670
98.48000 11.933
98.50000 7.095
98.52000 4.372
98.54000 3.080
98.56000 0.487
98.58000 -0.325
98.60000 -2.125
98.62000 8.652
98.64000 5.580
98.66000 11.347
98.68000 7.294
98.70000 3.458
98.72000 6.023
98.74000 5.003
98.76000 6.370
98.78000 5.272
98.80000 4.252
98.82000 3.782
98.84000 8.600
98.86000 10.074
98.88000 12.266
98.90000 8.950
98.92000 11.025
98.94000 4.991
98.96000 9.637
98.98000 2.598
99.00000 4.194
99.02000 9.531
99.04000 3.357
99.06000 6.248
99.08000 7.354
99.10000 8.525
99.12000 1.386
99.14000 4.473
99.16000 8.810
99.18000 12.430
99.20000 6.274
99.22000 3.814
99.24000 3.168
99.26000 2.661
99.28000 8.910
99.30000 19.980
99.32000 13.644
99.34000 8.466
99.36000 6.576
99.38000 -2.542
99.40000 3.531
99.42000 4.775
99.44000 7.704
99.46000 16.458
99.48000 7.425
99.50000 3.127
99.52000 7.311
99.54000 11.449
99.56000 10.221
99.58000 15.152
99.60000 19.358
99.62000 11.900
99.64000 11.060
99.66000 8.954
99.68000 -0.311
99.70000 3.632
99.72000 5.548
99.74000 -2.151
99.76000 0.808
99.78000 3.540
99.80000 9.067
99.82000 20.849
99.84000 12.950
99.86000 6.240
99.88000 7.712
99.90000 6.286
99.92000 3.435
99.94000 -2.490
99.96000 4.650
99.98000 0.000
