'Id: "0011387" Comment: "Integrate frame 0011387_Au-Ir-Rh_Rh-rich_XRD-Mapping-139-0000.gfrmwith cursor Wedge Cursor #5" Operator: "B?rgel" Anode: "Cu" Wavelength: "1.5406" Scantype: "2Theta (TwoTheta)" TimePerStep: "1" X: "-31.5" Y: "-4.5" Z: "5.95" 
10.00000 0.000
10.02000 -4.629
10.04000 -4.531
10.06000 -1.751
10.08000 4.592
10.10000 10.743
10.12000 26.238
10.14000 20.982
10.16000 0.812
10.18000 -4.439
10.20000 1.104
10.22000 14.630
10.24000 20.518
10.26000 12.879
10.28000 19.513
10.30000 19.470
10.32000 10.570
10.34000 10.895
10.36000 12.472
10.38000 7.714
10.40000 13.376
10.42000 15.260
10.44000 8.826
10.46000 6.916
10.48000 4.295
10.50000 14.679
10.52000 20.983
10.54000 7.392
10.56000 7.192
10.58000 9.784
10.60000 25.411
10.62000 28.446
10.64000 14.279
10.66000 -4.752
10.68000 14.385
10.70000 29.003
10.72000 25.824
10.74000 23.940
10.76000 13.064
10.78000 20.982
10.80000 21.568
10.82000 20.924
10.84000 4.210
10.86000 0.599
10.88000 2.665
10.90000 6.120
10.92000 18.175
10.94000 18.083
10.96000 13.330
10.98000 12.837
11.00000 11.898
11.02000 8.871
11.04000 19.414
11.06000 20.946
11.08000 20.136
11.10000 31.569
11.12000 14.234
11.14000 7.249
11.16000 -4.365
11.18000 9.545
11.20000 24.052
11.22000 25.960
11.24000 23.907
11.26000 25.424
11.28000 12.467
11.30000 24.008
11.32000 19.398
11.34000 17.455
11.36000 17.730
11.38000 14.265
11.40000 12.459
11.42000 12.261
11.44000 7.720
11.46000 6.463
11.48000 11.334
11.50000 6.254
11.52000 13.876
11.54000 16.993
11.56000 30.350
11.58000 26.585
11.60000 23.370
11.62000 14.160
11.64000 17.205
11.66000 9.262
11.68000 10.804
11.70000 14.518
11.72000 20.470
11.74000 18.515
11.76000 21.372
11.78000 13.140
11.80000 6.186
11.82000 17.536
11.84000 11.958
11.86000 24.136
11.88000 13.427
11.90000 6.652
11.92000 6.767
11.94000 13.629
11.96000 15.748
11.98000 16.151
12.00000 4.812
12.02000 6.294
12.04000 9.527
12.06000 13.087
12.08000 14.753
12.10000 18.307
12.12000 10.021
12.14000 7.385
12.16000 10.838
12.18000 5.828
12.20000 7.384
12.22000 13.408
12.24000 12.728
12.26000 12.233
12.28000 18.482
12.30000 16.144
12.32000 13.392
12.34000 7.901
12.36000 -0.638
12.38000 6.635
12.40000 14.318
12.42000 10.211
12.44000 8.820
12.46000 6.918
12.48000 14.990
12.50000 9.295
12.52000 9.945
12.54000 17.613
12.56000 28.780
12.58000 23.118
12.60000 19.106
12.62000 14.099
12.64000 14.915
12.66000 4.973
12.68000 6.412
12.70000 12.825
12.72000 16.427
12.74000 7.287
12.76000 11.766
12.78000 17.446
12.80000 10.832
12.82000 14.801
12.84000 14.054
12.86000 10.937
12.88000 9.262
12.90000 16.524
12.92000 17.913
12.94000 14.102
12.96000 1.953
12.98000 2.818
13.00000 -1.099
13.02000 5.278
13.04000 7.756
13.06000 10.689
13.08000 10.672
13.10000 19.908
13.12000 17.494
13.14000 10.482
13.16000 13.935
13.18000 4.799
13.20000 9.573
13.22000 10.387
13.24000 8.902
13.26000 12.917
13.28000 14.531
13.30000 16.053
13.32000 10.254
13.34000 2.095
13.36000 -0.683
13.38000 5.693
13.40000 9.322
13.42000 15.215
13.44000 24.468
13.46000 13.729
13.48000 -1.626
13.50000 0.904
13.52000 2.756
13.54000 8.688
13.56000 12.423
13.58000 1.247
13.60000 8.989
13.62000 12.445
13.64000 12.915
13.66000 5.646
13.68000 6.317
13.70000 7.941
13.72000 6.583
13.74000 7.726
13.76000 9.282
13.78000 17.384
13.80000 9.253
13.82000 8.716
13.84000 10.554
13.86000 12.144
13.88000 10.985
13.90000 10.189
13.92000 9.491
13.94000 14.705
13.96000 14.410
13.98000 11.380
14.00000 2.387
14.02000 -0.836
14.04000 1.629
14.06000 7.588
14.08000 14.344
14.10000 5.578
14.12000 -0.448
14.14000 -3.975
14.16000 -2.569
14.18000 13.557
14.20000 8.842
14.22000 12.137
14.24000 18.389
14.26000 21.574
14.28000 12.554
14.30000 3.017
14.32000 -1.463
14.34000 1.735
14.36000 6.856
14.38000 8.312
14.40000 1.890
14.42000 0.203
14.44000 15.091
14.46000 10.801
14.48000 -0.326
14.50000 1.933
14.52000 8.103
14.54000 1.977
14.56000 2.800
14.58000 4.670
14.60000 7.500
14.62000 8.780
14.64000 15.259
14.66000 13.519
14.68000 6.707
14.70000 9.117
14.72000 9.650
14.74000 16.279
14.76000 15.308
14.78000 20.890
14.80000 14.738
14.82000 7.108
14.84000 2.275
14.86000 8.014
14.88000 8.130
14.90000 10.321
14.92000 6.650
14.94000 7.809
14.96000 15.673
14.98000 12.448
15.00000 -0.869
15.02000 -4.432
15.04000 -0.364
15.06000 2.303
15.08000 1.143
15.10000 -1.743
15.12000 -0.356
15.14000 4.461
15.16000 3.670
15.18000 8.292
15.20000 16.276
15.22000 12.811
15.24000 2.329
15.26000 12.243
15.28000 9.185
15.30000 1.359
15.32000 2.531
15.34000 7.014
15.36000 12.494
15.38000 11.885
15.40000 14.860
15.42000 4.603
15.44000 2.929
15.46000 5.032
15.48000 6.108
15.50000 16.902
15.52000 8.389
15.54000 7.668
15.56000 5.815
15.58000 1.521
15.60000 -2.322
15.62000 -4.436
15.64000 1.134
15.66000 1.546
15.68000 2.518
15.70000 1.467
15.72000 9.240
15.74000 7.552
15.76000 8.694
15.78000 13.899
15.80000 6.424
15.82000 7.503
15.84000 9.608
15.86000 11.894
15.88000 7.481
15.90000 4.224
15.92000 -0.662
15.94000 8.148
15.96000 9.660
15.98000 12.124
16.00000 11.185
16.02000 3.822
16.04000 7.821
16.06000 3.378
16.08000 0.067
16.10000 0.094
16.12000 8.119
16.14000 6.404
16.16000 3.309
16.18000 -2.675
16.20000 -4.396
16.22000 2.658
16.24000 11.240
16.26000 5.196
16.28000 -2.779
16.30000 -1.963
16.32000 1.264
16.34000 8.320
16.36000 7.867
16.38000 0.010
16.40000 1.534
16.42000 -4.419
16.44000 -1.655
16.46000 2.212
16.48000 6.985
16.50000 10.371
16.52000 5.001
16.54000 10.319
16.56000 8.093
16.58000 6.457
16.60000 10.678
16.62000 2.963
16.64000 2.554
16.66000 -0.778
16.68000 -2.997
16.70000 1.861
16.72000 -0.474
16.74000 -3.312
16.76000 0.846
16.78000 4.525
16.80000 5.028
16.82000 2.989
16.84000 1.725
16.86000 4.859
16.88000 1.447
16.90000 7.472
16.92000 4.336
16.94000 4.485
16.96000 2.745
16.98000 5.882
17.00000 1.737
17.02000 1.285
17.04000 0.983
17.06000 -0.191
17.08000 3.375
17.10000 -1.227
17.12000 1.184
17.14000 7.149
17.16000 6.679
17.18000 5.312
17.20000 7.224
17.22000 7.884
17.24000 11.155
17.26000 12.489
17.28000 7.374
17.30000 6.653
17.32000 9.801
17.34000 10.663
17.36000 4.986
17.38000 -1.830
17.40000 1.756
17.42000 8.551
17.44000 8.444
17.46000 9.654
17.48000 2.721
17.50000 -3.271
17.52000 0.531
17.54000 9.162
17.56000 5.612
17.58000 -2.329
17.60000 -4.339
17.62000 -0.071
17.64000 -0.804
17.66000 1.419
17.68000 2.059
17.70000 4.160
17.72000 8.529
17.74000 4.269
17.76000 3.901
17.78000 2.166
17.80000 0.759
17.82000 -0.385
17.84000 14.330
17.86000 11.353
17.88000 7.817
17.90000 3.001
17.92000 4.216
17.94000 6.953
17.96000 2.734
17.98000 8.267
18.00000 12.870
18.02000 4.041
18.04000 2.775
18.06000 4.783
18.08000 8.542
18.10000 4.371
18.12000 1.704
18.14000 -0.580
18.16000 1.636
18.18000 0.310
18.20000 2.138
18.22000 6.746
18.24000 2.861
18.26000 10.696
18.28000 15.174
18.30000 6.900
18.32000 6.416
18.34000 7.538
18.36000 9.214
18.38000 9.017
18.40000 6.490
18.42000 9.682
18.44000 13.342
18.46000 11.529
18.48000 6.661
18.50000 -4.270
18.52000 -2.264
18.54000 1.370
18.56000 -1.230
18.58000 2.501
18.60000 7.759
18.62000 3.552
18.64000 0.342
18.66000 1.850
18.68000 6.766
18.70000 5.541
18.72000 7.202
18.74000 2.520
18.76000 0.289
18.78000 0.027
18.80000 2.461
18.82000 12.018
18.84000 5.710
18.86000 10.332
18.88000 10.337
18.90000 5.810
18.92000 1.645
18.94000 5.187
18.96000 7.916
18.98000 8.642
19.00000 1.641
19.02000 1.820
19.04000 6.382
19.06000 0.192
19.08000 -0.035
19.10000 1.293
19.12000 10.121
19.14000 5.741
19.16000 3.941
19.18000 8.448
19.20000 11.061
19.22000 8.350
19.24000 2.237
19.26000 0.753
19.28000 0.313
19.30000 5.950
19.32000 7.517
19.34000 -3.824
19.36000 -4.223
19.38000 3.609
19.40000 3.370
19.42000 9.343
19.44000 13.029
19.46000 8.068
19.48000 -2.756
19.50000 -3.933
19.52000 3.551
19.54000 0.358
19.56000 1.432
19.58000 -1.088
19.60000 6.735
19.62000 4.470
19.64000 1.709
19.66000 5.636
19.68000 -3.555
19.70000 -3.404
19.72000 -1.490
19.74000 6.271
19.76000 6.408
19.78000 4.316
19.80000 3.501
19.82000 2.074
19.84000 1.961
19.86000 0.849
19.88000 3.240
19.90000 5.293
19.92000 9.193
19.94000 10.893
19.96000 6.807
19.98000 10.015
20.00000 6.681
20.02000 11.526
20.04000 10.863
20.06000 10.845
20.08000 6.842
20.10000 5.429
20.12000 11.934
20.14000 15.664
20.16000 3.593
20.18000 6.138
20.20000 5.606
20.22000 1.511
20.24000 5.589
20.26000 8.744
20.28000 7.185
20.30000 5.614
20.32000 0.132
20.34000 -0.909
20.36000 -3.466
20.38000 2.088
20.40000 2.872
20.42000 2.594
20.44000 3.581
20.46000 4.139
20.48000 3.976
20.50000 8.056
20.52000 7.780
20.54000 5.894
20.56000 4.890
20.58000 10.105
20.60000 8.165
20.62000 5.880
20.64000 5.411
20.66000 5.558
20.68000 3.428
20.70000 4.304
20.72000 7.423
20.74000 5.279
20.76000 3.564
20.78000 0.849
20.80000 -0.961
20.82000 1.768
20.84000 8.183
20.86000 11.530
20.88000 11.470
20.90000 4.001
20.92000 0.284
20.94000 -4.121
20.96000 1.013
20.98000 1.395
21.00000 0.083
21.02000 10.493
21.04000 14.738
21.06000 4.530
21.08000 2.256
21.10000 3.959
21.12000 4.159
21.14000 0.817
21.16000 2.797
21.18000 5.224
21.20000 11.077
21.22000 12.214
21.24000 6.357
21.26000 2.305
21.28000 0.009
21.30000 0.293
21.32000 1.038
21.34000 2.251
21.36000 1.960
21.38000 1.966
21.40000 2.690
21.42000 4.775
21.44000 8.637
21.46000 6.164
21.48000 8.695
21.50000 11.178
21.52000 4.656
21.54000 -0.493
21.56000 -1.625
21.58000 0.880
21.60000 -0.915
21.62000 -2.069
21.64000 4.385
21.66000 9.541
21.68000 10.145
21.70000 1.970
21.72000 0.092
21.74000 4.614
21.76000 10.024
21.78000 3.884
21.80000 1.570
21.82000 -4.090
21.84000 -1.391
21.86000 1.221
21.88000 3.565
21.90000 3.213
21.92000 4.050
21.94000 5.481
21.96000 7.338
21.98000 8.684
22.00000 2.404
22.02000 6.185
22.04000 1.742
22.06000 -3.193
22.08000 1.006
22.10000 1.236
22.12000 5.662
22.14000 7.194
22.16000 7.404
22.18000 8.384
22.20000 0.928
22.22000 4.255
22.24000 3.192
22.26000 0.896
22.28000 -2.516
22.30000 -2.699
22.32000 -0.775
22.34000 -2.789
22.36000 -2.449
22.38000 -2.714
22.40000 6.692
22.42000 8.473
22.44000 4.864
22.46000 2.400
22.48000 2.969
22.50000 8.526
22.52000 8.629
22.54000 4.593
22.56000 9.212
22.58000 10.700
22.60000 9.097
22.62000 5.056
22.64000 5.262
22.66000 6.546
22.68000 1.873
22.70000 0.946
22.72000 6.937
22.74000 1.676
22.76000 -1.129
22.78000 -0.065
22.80000 0.920
22.82000 7.587
22.84000 8.547
22.86000 4.581
22.88000 7.239
22.90000 7.181
22.92000 5.131
22.94000 -1.517
22.96000 3.592
22.98000 10.924
23.00000 7.965
23.02000 3.323
23.04000 2.971
23.06000 4.919
23.08000 3.634
23.10000 8.799
23.12000 11.682
23.14000 0.498
23.16000 0.217
23.18000 -1.756
23.20000 -4.013
23.22000 5.311
23.24000 7.776
23.26000 9.753
23.28000 8.263
23.30000 3.915
23.32000 0.691
23.34000 3.492
23.36000 4.074
23.38000 3.224
23.40000 -0.024
23.42000 3.690
23.44000 6.591
23.46000 8.224
23.48000 7.705
23.50000 3.074
23.52000 0.061
23.54000 5.171
23.56000 2.678
23.58000 5.172
23.60000 8.014
23.62000 7.090
23.64000 7.184
23.66000 4.745
23.68000 5.640
23.70000 6.499
23.72000 4.115
23.74000 -0.075
23.76000 1.992
23.78000 2.324
23.80000 -3.003
23.82000 -1.403
23.84000 4.595
23.86000 -3.317
23.88000 0.933
23.90000 -2.495
23.92000 -1.336
23.94000 8.428
23.96000 1.813
23.98000 -3.184
24.00000 -3.495
24.02000 2.704
24.04000 7.738
24.06000 3.578
24.08000 -2.286
24.10000 0.058
24.12000 -3.970
24.14000 0.593
24.16000 12.914
24.18000 7.361
24.20000 1.062
24.22000 -0.862
24.24000 1.196
24.26000 -1.287
24.28000 -2.544
24.30000 2.573
24.32000 8.426
24.34000 6.983
24.36000 3.271
24.38000 2.847
24.40000 3.064
24.42000 2.382
24.44000 2.163
24.46000 7.219
24.48000 8.516
24.50000 2.541
24.52000 0.987
24.54000 -1.144
24.56000 1.712
24.58000 0.469
24.60000 0.501
24.62000 4.495
24.64000 3.110
24.66000 3.084
24.68000 4.823
24.70000 3.866
24.72000 1.457
24.74000 7.421
24.76000 6.023
24.78000 4.831
24.80000 5.196
24.82000 5.489
24.84000 1.386
24.86000 -1.786
24.88000 -2.511
24.90000 2.302
24.92000 2.494
24.94000 4.237
24.96000 1.227
24.98000 0.176
25.00000 0.001
25.02000 -0.922
25.04000 -2.486
25.06000 0.044
25.08000 0.821
25.10000 1.110
25.12000 -0.267
25.14000 -2.252
25.16000 0.011
25.18000 1.701
25.20000 1.257
25.22000 3.736
25.24000 4.041
25.26000 2.190
25.28000 -2.090
25.30000 0.589
25.32000 7.648
25.34000 -1.281
25.36000 -3.914
25.38000 0.685
25.40000 2.958
25.42000 0.234
25.44000 0.957
25.46000 1.975
25.48000 -3.563
25.50000 2.806
25.52000 6.108
25.54000 3.205
25.56000 5.480
25.58000 3.474
25.60000 -3.894
25.62000 -1.460
25.64000 10.861
25.66000 4.019
25.68000 5.000
25.70000 6.128
25.72000 8.593
25.74000 1.614
25.76000 4.953
25.78000 13.045
25.80000 11.733
25.82000 7.937
25.84000 3.909
25.86000 10.502
25.88000 0.727
25.90000 -0.333
25.92000 0.844
25.94000 -0.473
25.96000 4.891
25.98000 4.049
26.00000 0.872
26.02000 6.091
26.04000 3.778
26.06000 5.063
26.08000 4.493
26.10000 0.664
26.12000 4.338
26.14000 5.173
26.16000 1.744
26.18000 2.471
26.20000 3.713
26.22000 -1.532
26.24000 -3.849
26.26000 4.515
26.28000 8.255
26.30000 4.602
26.32000 7.814
26.34000 5.534
26.36000 6.830
26.38000 7.494
26.40000 3.310
26.42000 3.466
26.44000 2.313
26.46000 0.728
26.48000 6.020
26.50000 10.346
26.52000 9.019
26.54000 8.207
26.56000 6.924
26.58000 6.648
26.60000 4.940
26.62000 -2.784
26.64000 4.210
26.66000 6.542
26.68000 4.397
26.70000 7.856
26.72000 2.536
26.74000 5.271
26.76000 2.171
26.78000 -2.266
26.80000 -1.849
26.82000 2.754
26.84000 0.717
26.86000 -3.097
26.88000 -1.727
26.90000 1.731
26.92000 -1.151
26.94000 1.446
26.96000 7.196
26.98000 4.600
27.00000 5.654
27.02000 4.184
27.04000 4.689
27.06000 3.268
27.08000 1.021
27.10000 1.394
27.12000 0.355
27.14000 5.342
27.16000 7.833
27.18000 0.037
27.20000 -2.187
27.22000 3.551
27.24000 0.822
27.26000 -0.939
27.28000 -1.710
27.30000 -0.431
27.32000 7.464
27.34000 15.551
27.36000 6.737
27.38000 -0.194
27.40000 0.973
27.42000 2.862
27.44000 1.731
27.46000 3.061
27.48000 4.190
27.50000 0.127
27.52000 1.046
27.54000 2.664
27.56000 -2.058
27.58000 -3.784
27.60000 0.807
27.62000 3.173
27.64000 0.052
27.66000 3.734
27.68000 7.858
27.70000 6.890
27.72000 3.191
27.74000 1.473
27.76000 1.464
27.78000 0.118
27.80000 2.139
27.82000 1.289
27.84000 1.277
27.86000 4.874
27.88000 5.340
27.90000 2.914
27.92000 -0.464
27.94000 -3.753
27.96000 -0.180
27.98000 2.870
28.00000 2.863
28.02000 -0.117
28.04000 0.367
28.06000 3.202
28.08000 0.482
28.10000 -0.679
28.12000 -0.658
28.14000 3.172
28.16000 1.564
28.18000 3.969
28.20000 4.806
28.22000 9.462
28.24000 5.749
28.26000 1.254
28.28000 -1.927
28.30000 1.197
28.32000 2.044
28.34000 1.875
28.36000 1.218
28.38000 6.616
28.40000 7.516
28.42000 3.381
28.44000 6.190
28.46000 4.674
28.48000 2.404
28.50000 10.570
28.52000 15.446
28.54000 5.709
28.56000 4.078
28.58000 3.740
28.60000 4.867
28.62000 6.804
28.64000 11.739
28.66000 6.426
28.68000 5.952
28.70000 9.311
28.72000 6.307
28.74000 10.546
28.76000 10.558
28.78000 8.239
28.80000 8.305
28.82000 7.636
28.84000 7.664
28.86000 3.226
28.88000 5.496
28.90000 9.225
28.92000 2.422
28.94000 3.488
28.96000 2.661
28.98000 4.096
29.00000 -0.527
29.02000 -3.689
29.04000 -3.606
29.06000 1.434
29.08000 7.345
29.10000 4.181
29.12000 4.164
29.14000 4.865
29.16000 5.727
29.18000 7.156
29.20000 4.264
29.22000 1.576
29.24000 2.187
29.26000 4.040
29.28000 0.893
29.30000 -0.280
29.32000 0.828
29.34000 3.315
29.36000 4.174
29.38000 3.769
29.40000 5.308
29.42000 -0.167
29.44000 0.626
29.46000 -0.483
29.48000 2.269
29.50000 9.154
29.52000 7.928
29.54000 3.088
29.56000 1.398
29.58000 2.636
29.60000 4.600
29.62000 6.993
29.64000 4.011
29.66000 -0.238
29.68000 -0.978
29.70000 5.784
29.72000 9.211
29.74000 12.873
29.76000 0.654
29.78000 -0.025
29.80000 5.397
29.82000 6.103
29.84000 5.452
29.86000 6.591
29.88000 0.493
29.90000 0.440
29.92000 -0.534
29.94000 0.884
29.96000 1.298
29.98000 1.603
30.00000 3.172
30.02000 7.117
30.04000 6.096
30.06000 5.296
30.08000 5.080
30.10000 4.201
30.12000 0.031
30.14000 -2.182
30.16000 0.806
30.18000 -1.603
30.20000 2.945
30.22000 3.504
30.24000 2.516
30.26000 2.980
30.28000 3.281
30.30000 -0.850
30.32000 2.800
30.34000 5.719
30.36000 5.418
30.38000 8.665
30.40000 4.013
30.42000 1.405
30.44000 2.801
30.46000 -0.195
30.48000 -3.603
30.50000 3.842
30.52000 13.094
30.54000 13.569
30.56000 8.785
30.58000 8.612
30.60000 4.231
30.62000 2.537
30.64000 6.514
30.66000 7.421
30.68000 3.394
30.70000 3.907
30.72000 5.182
30.74000 8.879
30.76000 5.062
30.78000 1.113
30.80000 0.284
30.82000 -0.259
30.84000 1.188
30.86000 6.827
30.88000 5.860
30.90000 1.835
30.92000 5.510
30.94000 2.212
30.96000 5.859
30.98000 9.437
31.00000 4.392
31.02000 7.227
31.04000 6.751
31.06000 6.142
31.08000 5.390
31.10000 3.769
31.12000 3.265
31.14000 3.812
31.16000 4.678
31.18000 7.135
31.20000 4.636
31.22000 1.136
31.24000 -0.301
31.26000 0.842
31.28000 4.500
31.30000 4.329
31.32000 5.613
31.34000 -1.540
31.36000 0.875
31.38000 4.402
31.40000 0.744
31.42000 -0.068
31.44000 0.525
31.46000 3.195
31.48000 4.183
31.50000 2.517
31.52000 5.429
31.54000 2.685
31.56000 5.751
31.58000 8.233
31.60000 7.882
31.62000 2.933
31.64000 0.482
31.66000 -3.585
31.68000 -3.086
31.70000 2.239
31.72000 5.546
31.74000 6.578
31.76000 3.612
31.78000 2.591
31.80000 0.419
31.82000 1.539
31.84000 -1.432
31.86000 -1.896
31.88000 2.268
31.90000 0.333
31.92000 1.930
31.94000 7.680
31.96000 4.037
31.98000 5.060
32.00000 0.267
32.02000 2.507
32.04000 4.167
32.06000 1.057
32.08000 -1.014
32.10000 2.231
32.12000 4.236
32.14000 0.079
32.16000 -0.773
32.18000 1.672
32.20000 3.528
32.22000 2.933
32.24000 7.292
32.26000 3.638
32.28000 -1.847
32.30000 2.514
32.32000 6.893
32.34000 2.360
32.36000 -0.019
32.38000 -3.552
32.40000 0.501
32.42000 4.193
32.44000 8.788
32.46000 6.965
32.48000 6.243
32.50000 4.062
32.52000 -2.304
32.54000 -3.550
32.56000 -0.217
32.58000 2.762
32.60000 3.261
32.62000 0.678
32.64000 -0.875
32.66000 4.234
32.68000 5.321
32.70000 5.806
32.72000 6.935
32.74000 1.416
32.76000 1.886
32.78000 0.723
32.80000 -1.230
32.82000 3.418
32.84000 6.140
32.86000 0.703
32.88000 -3.543
32.90000 4.087
32.92000 1.941
32.94000 -2.315
32.96000 -2.347
32.98000 1.485
33.00000 4.187
33.02000 6.886
33.04000 5.300
33.06000 5.422
33.08000 -0.773
33.10000 -3.040
33.12000 0.865
33.14000 5.438
33.16000 2.860
33.18000 0.845
33.20000 3.085
33.22000 4.488
33.24000 -0.747
33.26000 5.231
33.28000 7.603
33.30000 3.029
33.32000 4.240
33.34000 6.615
33.36000 7.105
33.38000 4.344
33.40000 0.511
33.42000 2.600
33.44000 0.643
33.46000 4.418
33.48000 5.710
33.50000 1.863
33.52000 -3.534
33.54000 0.738
33.56000 -1.213
33.58000 6.155
33.60000 8.506
33.62000 5.453
33.64000 0.392
33.66000 -1.917
33.68000 0.957
33.70000 6.335
33.72000 0.979
33.74000 0.864
33.76000 -3.526
33.78000 1.943
33.80000 3.306
33.82000 6.694
33.84000 1.475
33.86000 3.935
33.88000 2.081
33.90000 4.540
33.92000 6.523
33.94000 3.311
33.96000 6.424
33.98000 3.267
34.00000 1.116
34.02000 1.204
34.04000 7.389
34.06000 4.395
34.08000 1.447
34.10000 2.037
34.12000 1.608
34.14000 4.078
34.16000 2.567
34.18000 5.002
34.20000 2.830
34.22000 1.415
34.24000 -0.995
34.26000 -1.893
34.28000 4.265
34.30000 1.606
34.32000 1.854
34.34000 5.183
34.36000 7.816
34.38000 0.861
34.40000 0.929
34.42000 -2.561
34.44000 -0.954
34.46000 -0.816
34.48000 3.609
34.50000 5.651
34.52000 0.468
34.54000 -2.733
34.56000 -0.802
34.58000 2.176
34.60000 2.303
34.62000 1.127
34.64000 -0.618
34.66000 -0.214
34.68000 -1.965
34.70000 0.458
34.72000 -0.327
34.74000 1.164
34.76000 0.217
34.78000 -0.259
34.80000 1.412
34.82000 -2.356
34.84000 -3.497
34.86000 -0.328
34.88000 -2.042
34.90000 0.160
34.92000 2.588
34.94000 -0.537
34.96000 -0.671
34.98000 0.046
35.00000 2.227
35.02000 1.323
35.04000 6.081
35.06000 0.351
35.08000 1.617
35.10000 1.873
35.12000 2.674
35.14000 5.576
35.16000 1.573
35.18000 -0.839
35.20000 -0.845
35.22000 -2.938
35.24000 -3.472
35.26000 -3.075
35.28000 1.912
35.30000 4.671
35.32000 2.002
35.34000 2.750
35.36000 3.778
35.38000 3.857
35.40000 2.770
35.42000 7.453
35.44000 7.493
35.46000 4.291
35.48000 6.390
35.50000 2.575
35.52000 2.175
35.54000 0.982
35.56000 1.490
35.58000 -2.662
35.60000 -3.477
35.62000 -0.678
35.64000 -2.551
35.66000 2.362
35.68000 6.610
35.70000 6.702
35.72000 8.688
35.74000 8.166
35.76000 5.971
35.78000 4.343
35.80000 6.109
35.82000 0.888
35.84000 2.346
35.86000 5.585
35.88000 -1.230
35.90000 0.637
35.92000 2.455
35.94000 3.555
35.96000 -0.151
35.98000 -2.445
36.00000 -2.419
36.02000 -1.158
36.04000 3.751
36.06000 1.106
36.08000 2.648
36.10000 -1.042
36.12000 -1.672
36.14000 1.786
36.16000 0.104
36.18000 -2.544
36.20000 -0.094
36.22000 -0.803
36.24000 -1.387
36.26000 -3.498
36.28000 2.171
36.30000 6.216
36.32000 2.041
36.34000 0.243
36.36000 2.217
36.38000 4.004
36.40000 4.954
36.42000 0.812
36.44000 -2.013
36.46000 -3.300
36.48000 1.479
36.50000 3.265
36.52000 2.066
36.54000 0.918
36.56000 -0.833
36.58000 4.481
36.60000 3.806
36.62000 1.635
36.64000 7.795
36.66000 0.854
36.68000 -2.492
36.70000 0.725
36.72000 4.254
36.74000 1.152
36.76000 -0.283
36.78000 3.909
36.80000 0.277
36.82000 -2.070
36.84000 2.042
36.86000 0.144
36.88000 1.485
36.90000 0.212
36.92000 1.599
36.94000 2.496
36.96000 5.165
36.98000 -0.266
37.00000 0.760
37.02000 -3.509
37.04000 3.805
37.06000 2.556
37.08000 5.535
37.10000 6.857
37.12000 2.944
37.14000 1.420
37.16000 6.726
37.18000 4.625
37.20000 3.936
37.22000 4.303
37.24000 7.187
37.26000 3.537
37.28000 3.222
37.30000 -3.518
37.32000 -0.657
37.34000 3.943
37.36000 2.912
37.38000 1.442
37.40000 5.343
37.42000 10.250
37.44000 1.100
37.46000 0.004
37.48000 3.614
37.50000 2.622
37.52000 -0.190
37.54000 0.544
37.56000 0.467
37.58000 5.392
37.60000 3.048
37.62000 4.159
37.64000 1.651
37.66000 1.040
37.68000 -0.126
37.70000 3.887
37.72000 5.359
37.74000 3.696
37.76000 4.596
37.78000 6.617
37.80000 8.926
37.82000 7.799
37.84000 2.153
37.86000 2.287
37.88000 2.269
37.90000 2.435
37.92000 4.895
37.94000 6.438
37.96000 5.840
37.98000 8.014
38.00000 7.351
38.02000 3.630
38.04000 9.754
38.06000 15.675
38.08000 9.583
38.10000 12.102
38.12000 9.850
38.14000 8.808
38.16000 8.444
38.18000 10.169
38.20000 10.075
38.22000 10.293
38.24000 11.350
38.26000 17.084
38.28000 14.413
38.30000 12.488
38.32000 15.493
38.34000 19.173
38.36000 20.235
38.38000 19.900
38.40000 19.099
38.42000 15.580
38.44000 17.294
38.46000 23.807
38.48000 20.946
38.50000 21.089
38.52000 22.538
38.54000 25.707
38.56000 24.973
38.58000 23.947
38.60000 19.666
38.62000 25.650
38.64000 23.446
38.66000 14.469
38.68000 16.700
38.70000 26.193
38.72000 26.829
38.74000 25.917
38.76000 23.807
38.78000 28.615
38.80000 25.742
38.82000 25.349
38.84000 29.289
38.86000 33.086
38.88000 31.723
38.90000 32.971
38.92000 33.612
38.94000 39.819
38.96000 39.067
38.98000 42.186
39.00000 41.088
39.02000 39.676
39.04000 43.044
39.06000 43.815
39.08000 43.576
39.10000 47.210
39.12000 49.630
39.14000 50.680
39.16000 51.955
39.18000 53.704
39.20000 56.553
39.22000 62.906
39.24000 64.367
39.26000 64.698
39.28000 68.221
39.30000 68.836
39.32000 69.380
39.34000 79.635
39.36000 80.957
39.38000 78.164
39.40000 84.657
39.42000 89.724
39.44000 96.013
39.46000 103.124
39.48000 104.062
39.50000 108.966
39.52000 115.211
39.54000 122.096
39.56000 129.307
39.58000 137.682
39.60000 143.732
39.62000 156.265
39.64000 168.046
39.66000 171.754
39.68000 175.165
39.70000 195.261
39.72000 209.313
39.74000 213.205
39.76000 224.300
39.78000 238.632
39.80000 255.235
39.82000 275.315
39.84000 291.764
39.86000 312.005
39.88000 329.775
39.90000 359.413
39.92000 386.216
39.94000 410.803
39.96000 434.863
39.98000 466.464
40.00000 500.769
40.02000 531.846
40.04000 562.835
40.06000 599.411
40.08000 631.826
40.10000 665.793
40.12000 708.657
40.14000 747.551
40.16000 781.833
40.18000 815.418
40.20000 848.529
40.22000 880.719
40.24000 915.401
40.26000 938.057
40.28000 963.383
40.30000 985.796
40.32000 992.734
40.34000 1006.313
40.36000 1024.224
40.38000 1041.712
40.40000 1040.786
40.42000 1034.783
40.44000 1040.117
40.46000 1036.154
40.48000 1018.104
40.50000 992.809
40.52000 974.470
40.54000 959.961
40.56000 937.926
40.58000 914.500
40.60000 882.484
40.62000 866.193
40.64000 834.093
40.66000 811.908
40.68000 773.495
40.70000 733.481
40.72000 703.666
40.74000 666.748
40.76000 640.280
40.78000 614.158
40.80000 584.936
40.82000 549.601
40.84000 520.154
40.86000 492.494
40.88000 473.960
40.90000 442.782
40.92000 410.304
40.94000 386.546
40.96000 367.272
40.98000 346.006
41.00000 335.684
41.02000 316.646
41.04000 295.209
41.06000 275.505
41.08000 259.241
41.10000 248.426
41.12000 242.949
41.14000 225.709
41.16000 207.556
41.18000 195.392
41.20000 191.404
41.22000 182.606
41.24000 169.691
41.26000 153.936
41.28000 143.894
41.30000 136.914
41.32000 134.094
41.34000 132.271
41.36000 123.259
41.38000 113.850
41.40000 104.283
41.42000 97.602
41.44000 99.055
41.46000 92.453
41.48000 90.040
41.50000 87.567
41.52000 77.062
41.54000 78.198
41.56000 71.574
41.58000 64.467
41.60000 68.128
41.62000 64.162
41.64000 63.621
41.66000 61.987
41.68000 58.153
41.70000 58.609
41.72000 50.242
41.74000 47.150
41.76000 46.653
41.78000 45.086
41.80000 39.626
41.82000 38.388
41.84000 38.673
41.86000 36.544
41.88000 33.513
41.90000 30.318
41.92000 34.111
41.94000 29.137
41.96000 27.021
41.98000 24.761
42.00000 27.164
42.02000 24.158
42.04000 25.992
42.06000 24.575
42.08000 23.874
42.10000 16.894
42.12000 17.800
42.14000 21.875
42.16000 17.447
42.18000 17.336
42.20000 15.627
42.22000 13.746
42.24000 15.655
42.26000 13.615
42.28000 15.861
42.30000 13.099
42.32000 11.460
42.34000 14.151
42.36000 11.798
42.38000 6.658
42.40000 10.286
42.42000 13.390
42.44000 12.796
42.46000 11.630
42.48000 11.276
42.50000 10.208
42.52000 11.934
42.54000 9.255
42.56000 4.699
42.58000 3.238
42.60000 0.817
42.62000 4.352
42.64000 8.238
42.66000 7.789
42.68000 6.572
42.70000 6.200
42.72000 1.186
42.74000 -0.019
42.76000 2.742
42.78000 4.142
42.80000 5.128
42.82000 5.429
42.84000 9.688
42.86000 7.935
42.88000 1.370
42.90000 2.361
42.92000 7.127
42.94000 6.321
42.96000 4.413
42.98000 3.624
43.00000 0.205
43.02000 0.424
43.04000 3.005
43.06000 0.939
43.08000 1.406
43.10000 2.039
43.12000 1.240
43.14000 2.230
43.16000 1.609
43.18000 -3.471
43.20000 -1.378
43.22000 2.857
43.24000 -1.291
43.26000 2.381
43.28000 -2.937
43.30000 -0.581
43.32000 -0.532
43.34000 0.823
43.36000 -2.194
43.38000 -2.250
43.40000 0.276
43.42000 1.963
43.44000 2.969
43.46000 -0.985
43.48000 -0.233
43.50000 -2.170
43.52000 -0.626
43.54000 -1.675
43.56000 -0.656
43.58000 2.948
43.60000 1.987
43.62000 3.703
43.64000 3.586
43.66000 1.894
43.68000 0.883
43.70000 3.518
43.72000 0.070
43.74000 0.812
43.76000 0.852
43.78000 1.918
43.80000 1.982
43.82000 2.701
43.84000 3.253
43.86000 1.289
43.88000 2.783
43.90000 1.158
43.92000 2.998
43.94000 0.440
43.96000 0.192
43.98000 -1.379
44.00000 2.174
44.02000 4.250
44.04000 3.618
44.06000 2.409
44.08000 1.764
44.10000 0.272
44.12000 -2.260
44.14000 -3.308
44.16000 1.463
44.18000 0.971
44.20000 3.102
44.22000 5.055
44.24000 6.311
44.26000 4.747
44.28000 1.642
44.30000 -1.037
44.32000 0.141
44.34000 0.169
44.36000 1.149
44.38000 2.994
44.40000 2.480
44.42000 3.691
44.44000 6.985
44.46000 6.769
44.48000 3.401
44.50000 0.593
44.52000 1.917
44.54000 5.662
44.56000 5.418
44.58000 2.450
44.60000 0.937
44.62000 1.145
44.64000 3.547
44.66000 -1.603
44.68000 -3.264
44.70000 -3.306
44.72000 -2.371
44.74000 -0.587
44.76000 1.613
44.78000 1.198
44.80000 2.513
44.82000 3.971
44.84000 -0.006
44.86000 1.215
44.88000 5.054
44.90000 3.888
44.92000 2.649
44.94000 1.627
44.96000 -1.271
44.98000 1.498
45.00000 0.559
45.02000 0.315
45.04000 3.407
45.06000 3.102
45.08000 0.469
45.10000 1.469
45.12000 4.085
45.14000 5.801
45.16000 7.076
45.18000 5.722
45.20000 2.906
45.22000 6.770
45.24000 5.722
45.26000 5.235
45.28000 2.580
45.30000 -1.468
45.32000 -0.967
45.34000 0.941
45.36000 0.205
45.38000 6.877
45.40000 7.777
45.42000 7.312
45.44000 6.233
45.46000 6.942
45.48000 5.077
45.50000 4.824
45.52000 3.870
45.54000 2.505
45.56000 6.563
45.58000 9.418
45.60000 5.608
45.62000 9.704
45.64000 6.019
45.66000 10.090
45.68000 12.405
45.70000 9.531
45.72000 4.842
45.74000 5.964
45.76000 10.097
45.78000 11.049
45.80000 14.027
45.82000 17.658
45.84000 14.755
45.86000 16.882
45.88000 19.759
45.90000 19.708
45.92000 18.908
45.94000 20.518
45.96000 25.043
45.98000 21.077
46.00000 23.136
46.02000 31.098
46.04000 31.626
46.06000 28.479
46.08000 29.153
46.10000 30.318
46.12000 35.368
46.14000 34.202
46.16000 36.875
46.18000 36.286
46.20000 36.812
46.22000 45.470
46.24000 41.142
46.26000 43.640
46.28000 50.639
46.30000 46.439
46.32000 44.299
46.34000 51.057
46.36000 59.448
46.38000 63.205
46.40000 66.121
46.42000 71.654
46.44000 68.600
46.46000 72.748
46.48000 78.830
46.50000 79.189
46.52000 86.787
46.54000 90.135
46.56000 92.838
46.58000 101.861
46.60000 101.545
46.62000 112.183
46.64000 121.062
46.66000 120.683
46.68000 124.117
46.70000 131.908
46.72000 134.686
46.74000 136.324
46.76000 142.467
46.78000 146.984
46.80000 152.455
46.82000 155.634
46.84000 163.978
46.86000 168.102
46.88000 168.364
46.90000 167.164
46.92000 176.473
46.94000 183.938
46.96000 179.959
46.98000 181.889
47.00000 182.075
47.02000 185.373
47.04000 180.426
47.06000 177.553
47.08000 177.945
47.10000 178.266
47.12000 173.711
47.14000 161.361
47.16000 164.085
47.18000 165.446
47.20000 160.345
47.22000 155.052
47.24000 154.546
47.26000 152.246
47.28000 150.526
47.30000 139.020
47.32000 135.702
47.34000 132.775
47.36000 130.125
47.38000 121.899
47.40000 116.034
47.42000 109.135
47.44000 102.456
47.46000 98.511
47.48000 94.501
47.50000 92.494
47.52000 92.405
47.54000 81.046
47.56000 78.773
47.58000 71.988
47.60000 73.856
47.62000 67.007
47.64000 62.971
47.66000 57.808
47.68000 56.453
47.70000 53.770
47.72000 47.951
47.74000 44.996
47.76000 44.158
47.78000 43.398
47.80000 40.391
47.82000 42.688
47.84000 36.445
47.86000 36.129
47.88000 35.446
47.90000 30.307
47.92000 25.678
47.94000 27.325
47.96000 27.067
47.98000 27.682
48.00000 22.847
48.02000 21.839
48.04000 15.163
48.06000 16.171
48.08000 19.724
48.10000 19.983
48.12000 20.526
48.14000 16.175
48.16000 13.486
48.18000 5.182
48.20000 10.297
48.22000 8.706
48.24000 9.160
48.26000 7.687
48.28000 6.538
48.30000 5.915
48.32000 7.080
48.34000 5.055
48.36000 7.764
48.38000 5.336
48.40000 7.953
48.42000 5.999
48.44000 3.812
48.46000 3.796
48.48000 0.437
48.50000 4.986
48.52000 4.241
48.54000 3.991
48.56000 6.912
48.58000 4.223
48.60000 5.386
48.62000 2.407
48.64000 0.820
48.66000 -2.912
48.68000 3.215
48.70000 3.836
48.72000 0.300
48.74000 1.228
48.76000 0.694
48.78000 2.609
48.80000 -0.465
48.82000 -1.787
48.84000 0.304
48.86000 3.907
48.88000 4.386
48.90000 3.007
48.92000 0.323
48.94000 5.010
48.96000 2.849
48.98000 -1.374
49.00000 2.406
49.02000 5.857
49.04000 3.382
49.06000 0.527
49.08000 4.006
49.10000 3.540
49.12000 -0.689
49.14000 -2.178
49.16000 -0.913
49.18000 -0.264
49.20000 -0.714
49.22000 0.121
49.24000 1.883
49.26000 3.890
49.28000 2.417
49.30000 3.726
49.32000 3.993
49.34000 0.175
49.36000 4.462
49.38000 1.998
49.40000 3.661
49.42000 4.579
49.44000 0.717
49.46000 3.868
49.48000 1.594
49.50000 4.649
49.52000 2.100
49.54000 3.071
49.56000 6.340
49.58000 5.656
49.60000 3.784
49.62000 4.597
49.64000 -0.809
49.66000 5.294
49.68000 3.789
49.70000 3.504
49.72000 3.373
49.74000 3.664
49.76000 1.225
49.78000 -2.681
49.80000 -0.678
49.82000 2.462
49.84000 5.474
49.86000 4.886
49.88000 6.920
49.90000 6.204
49.92000 1.306
49.94000 3.399
49.96000 3.968
49.98000 1.761
50.00000 -0.364
50.02000 -1.510
50.04000 -1.115
50.06000 -2.309
50.08000 3.763
50.10000 2.276
50.12000 5.136
50.14000 4.771
50.16000 3.341
50.18000 4.101
50.20000 3.824
50.22000 3.181
50.24000 2.433
50.26000 0.819
50.28000 -1.300
50.30000 1.245
50.32000 1.048
50.34000 0.372
50.36000 3.392
50.38000 2.664
50.40000 3.323
50.42000 1.352
50.44000 2.446
50.46000 3.839
50.48000 2.993
50.50000 1.499
50.52000 -1.001
50.54000 -1.695
50.56000 1.869
50.58000 3.319
50.60000 1.220
50.62000 1.572
50.64000 2.151
50.66000 5.542
50.68000 3.394
50.70000 3.081
50.72000 2.296
50.74000 1.891
50.76000 -0.055
50.78000 -2.178
50.80000 -0.226
50.82000 0.852
50.84000 1.251
50.86000 -2.637
50.88000 0.790
50.90000 8.084
50.92000 2.205
50.94000 1.990
50.96000 2.468
50.98000 1.138
51.00000 -0.118
51.02000 -0.343
51.04000 0.640
51.06000 -0.879
51.08000 -2.357
51.10000 -0.390
51.12000 1.785
51.14000 4.110
51.16000 0.113
51.18000 0.300
51.20000 -1.153
51.22000 -0.767
51.24000 0.288
51.26000 -0.338
51.28000 0.122
51.30000 -0.988
51.32000 -2.330
51.34000 -1.467
51.36000 0.486
51.38000 2.987
51.40000 -0.411
51.42000 0.154
51.44000 1.104
51.46000 2.278
51.48000 2.339
51.50000 2.304
51.52000 0.223
51.54000 1.509
51.56000 -0.247
51.58000 2.524
51.60000 2.865
51.62000 2.180
51.64000 6.874
51.66000 4.109
51.68000 0.459
51.70000 1.014
51.72000 1.088
51.74000 -0.682
51.76000 0.064
51.78000 1.701
51.80000 1.480
51.82000 1.195
51.84000 4.394
51.86000 5.384
51.88000 4.635
51.90000 3.213
51.92000 5.810
51.94000 6.073
51.96000 5.060
51.98000 6.976
52.00000 6.880
52.02000 4.425
52.04000 1.875
52.06000 1.793
52.08000 0.838
52.10000 -2.566
52.12000 0.550
52.14000 3.037
52.16000 3.277
52.18000 7.442
52.20000 5.583
52.22000 5.481
52.24000 3.884
52.26000 6.209
52.28000 0.400
52.30000 -2.545
52.32000 4.116
52.34000 5.191
52.36000 2.048
52.38000 5.284
52.40000 3.448
52.42000 0.365
52.44000 5.986
52.46000 4.418
52.48000 -1.579
52.50000 -2.186
52.52000 0.533
52.54000 1.219
52.56000 1.327
52.58000 2.625
52.60000 3.340
52.62000 3.678
52.64000 2.178
52.66000 2.151
52.68000 2.313
52.70000 2.460
52.72000 3.033
52.74000 3.482
52.76000 1.266
52.78000 1.996
52.80000 3.157
52.82000 3.340
52.84000 1.951
52.86000 1.713
52.88000 2.773
52.90000 1.190
52.92000 -1.265
52.94000 -0.165
52.96000 3.815
52.98000 1.644
53.00000 0.795
53.02000 -0.275
53.04000 0.104
53.06000 0.492
53.08000 5.899
53.10000 6.334
53.12000 5.060
53.14000 7.717
53.16000 4.885
53.18000 2.847
53.20000 5.009
53.22000 0.149
53.24000 2.862
53.26000 -1.851
53.28000 -0.015
53.30000 5.320
53.32000 4.114
53.34000 2.288
53.36000 1.094
53.38000 -0.997
53.40000 0.782
53.42000 6.779
53.44000 2.151
53.46000 2.603
53.48000 3.177
53.50000 6.127
53.52000 6.537
53.54000 5.451
53.56000 -0.267
53.58000 -2.498
53.60000 0.812
53.62000 1.430
53.64000 1.353
53.66000 1.892
53.68000 3.004
53.70000 5.765
53.72000 2.063
53.74000 2.338
53.76000 2.531
53.78000 0.717
53.80000 3.076
53.82000 5.735
53.84000 2.639
53.86000 -0.020
53.88000 -0.724
53.90000 0.639
53.92000 2.173
53.94000 3.561
53.96000 -0.496
53.98000 2.672
54.00000 1.937
54.02000 4.786
54.04000 3.853
54.06000 -1.552
54.08000 1.148
54.10000 2.383
54.12000 3.016
54.14000 2.347
54.16000 -1.739
54.18000 -0.319
54.20000 0.592
54.22000 3.799
54.24000 3.329
54.26000 4.022
54.28000 4.429
54.30000 2.308
54.32000 -1.829
54.34000 -0.659
54.36000 -2.523
54.38000 -0.861
54.40000 0.441
54.42000 3.340
54.44000 1.894
54.46000 -0.852
54.48000 1.904
54.50000 3.783
54.52000 1.485
54.54000 -0.531
54.56000 -0.066
54.58000 1.120
54.60000 -2.015
54.62000 -1.225
54.64000 3.125
54.66000 2.222
54.68000 5.338
54.70000 0.671
54.72000 0.924
54.74000 1.728
54.76000 0.590
54.78000 1.564
54.80000 5.847
54.82000 2.858
54.84000 0.699
54.86000 2.529
54.88000 2.652
54.90000 1.173
54.92000 -0.257
54.94000 -0.142
54.96000 -1.976
54.98000 -0.111
55.00000 -0.489
55.02000 0.012
55.04000 0.920
55.06000 3.876
55.08000 1.106
55.10000 1.681
55.12000 -1.289
55.14000 -0.767
55.16000 1.483
55.18000 1.064
55.20000 -1.289
55.22000 -0.540
55.24000 1.067
55.26000 0.018
55.28000 1.060
55.30000 -1.313
55.32000 -2.485
55.34000 3.524
55.36000 2.458
55.38000 1.452
55.40000 0.741
55.42000 -0.890
55.44000 1.455
55.46000 3.088
55.48000 0.323
55.50000 1.927
55.52000 1.514
55.54000 1.091
55.56000 2.291
55.58000 1.172
55.60000 3.781
55.62000 1.753
55.64000 1.812
55.66000 -0.539
55.68000 1.117
55.70000 3.773
55.72000 -1.306
55.74000 0.520
55.76000 7.744
55.78000 7.095
55.80000 3.585
55.82000 3.474
55.84000 2.808
55.86000 4.859
55.88000 5.702
55.90000 6.565
55.92000 6.761
55.94000 1.545
55.96000 -2.438
55.98000 0.400
56.00000 5.178
56.02000 5.534
56.04000 1.623
56.06000 2.647
56.08000 -0.076
56.10000 2.597
56.12000 1.516
56.14000 3.228
56.16000 2.011
56.18000 3.726
56.20000 2.831
56.22000 5.556
56.24000 2.884
56.26000 2.420
56.28000 2.827
56.30000 -0.712
56.32000 2.248
56.34000 4.146
56.36000 3.555
56.38000 3.679
56.40000 4.041
56.42000 0.810
56.44000 -0.796
56.46000 0.927
56.48000 3.011
56.50000 -2.429
56.52000 -2.203
56.54000 0.231
56.56000 1.646
56.58000 1.092
56.60000 -0.096
56.62000 4.451
56.64000 1.193
56.66000 3.307
56.68000 6.922
56.70000 2.929
56.72000 2.628
56.74000 2.191
56.76000 3.382
56.78000 2.333
56.80000 -1.199
56.82000 -2.426
56.84000 -1.519
56.86000 1.028
56.88000 1.097
56.90000 0.792
56.92000 0.451
56.94000 -0.855
56.96000 -0.394
56.98000 3.260
57.00000 0.472
57.02000 0.072
57.04000 -0.839
57.06000 1.464
57.08000 3.609
57.10000 3.128
57.12000 1.751
57.14000 0.809
57.16000 -1.004
57.18000 -0.309
57.20000 1.487
57.22000 2.456
57.24000 0.746
57.26000 0.495
57.28000 -1.162
57.30000 -0.444
57.32000 -0.754
57.34000 -1.048
57.36000 0.248
57.38000 -0.032
57.40000 -0.678
57.42000 1.892
57.44000 0.547
57.46000 -2.443
57.48000 1.118
57.50000 -1.914
57.52000 -0.880
57.54000 1.632
57.56000 2.009
57.58000 -1.989
57.60000 -1.236
57.62000 -2.442
57.64000 -0.913
57.66000 1.110
57.68000 1.574
57.70000 1.490
57.72000 -1.507
57.74000 -0.054
57.76000 0.819
57.78000 2.420
57.80000 2.170
57.82000 0.399
57.84000 1.287
57.86000 2.629
57.88000 3.296
57.90000 2.672
57.92000 1.392
57.94000 -0.874
57.96000 1.779
57.98000 1.178
58.00000 0.936
58.02000 -0.597
58.04000 -1.341
58.06000 0.877
58.08000 -1.941
58.10000 -0.221
58.12000 1.998
58.14000 2.995
58.16000 1.051
58.18000 1.799
58.20000 1.246
58.22000 2.246
58.24000 1.957
58.26000 3.238
58.28000 1.644
58.30000 -1.929
58.32000 0.980
58.34000 -0.596
58.36000 -0.837
58.38000 -0.076
58.40000 2.397
58.42000 3.443
58.44000 4.017
58.46000 2.060
58.48000 3.668
58.50000 0.656
58.52000 -2.399
58.54000 -2.254
58.56000 -1.932
58.58000 0.600
58.60000 -0.939
58.62000 1.087
58.64000 3.729
58.66000 5.551
58.68000 1.614
58.70000 2.371
58.72000 2.910
58.74000 4.679
58.76000 -1.097
58.78000 -0.858
58.80000 2.763
58.82000 2.468
58.84000 3.168
58.86000 0.334
58.88000 -2.294
58.90000 -1.373
58.92000 -0.105
58.94000 -0.589
58.96000 0.497
58.98000 1.772
59.00000 1.774
59.02000 0.944
59.04000 1.042
59.06000 2.247
59.08000 0.186
59.10000 0.673
59.12000 1.437
59.14000 0.990
59.16000 1.465
59.18000 3.681
59.20000 2.232
59.22000 -1.139
59.24000 1.748
59.26000 -0.159
59.28000 1.087
59.30000 2.332
59.32000 -0.528
59.34000 1.405
59.36000 1.863
59.38000 1.331
59.40000 1.776
59.42000 -2.362
59.44000 -1.099
59.46000 0.527
59.48000 4.387
59.50000 0.167
59.52000 -2.358
59.54000 0.593
59.56000 1.205
59.58000 1.072
59.60000 -0.373
59.62000 1.189
59.64000 5.769
59.66000 6.410
59.68000 5.716
59.70000 -1.434
59.72000 0.633
59.74000 5.476
59.76000 0.840
59.78000 0.130
59.80000 0.509
59.82000 2.975
59.84000 0.729
59.86000 1.098
59.88000 -0.766
59.90000 -0.767
59.92000 2.038
59.94000 0.511
59.96000 -0.847
59.98000 1.853
60.00000 1.163
60.02000 -0.448
60.04000 1.157
60.06000 0.040
60.08000 1.342
60.10000 -0.003
60.12000 -1.687
60.14000 -0.986
60.16000 0.125
60.18000 3.422
60.20000 4.244
60.22000 1.437
60.24000 0.607
60.26000 0.509
60.28000 3.343
60.30000 3.905
60.32000 3.856
60.34000 0.815
60.36000 0.751
60.38000 -1.577
60.40000 1.028
60.42000 3.265
60.44000 1.459
60.46000 -2.338
60.48000 -1.757
60.50000 -1.784
60.52000 0.236
60.54000 -0.121
60.56000 1.170
60.58000 4.132
60.60000 3.437
60.62000 2.006
60.64000 1.164
60.66000 0.678
60.68000 -0.998
60.70000 2.296
60.72000 3.380
60.74000 2.722
60.76000 -0.133
60.78000 -2.327
60.80000 0.469
60.82000 3.021
60.84000 3.948
60.86000 2.025
60.88000 -0.273
60.90000 -1.239
60.92000 0.829
60.94000 1.377
60.96000 1.189
60.98000 3.545
61.00000 1.322
61.02000 0.236
61.04000 1.987
61.06000 2.362
61.08000 3.449
61.10000 4.192
61.12000 1.828
61.14000 0.481
61.16000 -0.577
61.18000 -2.303
61.20000 -0.127
61.22000 3.642
61.24000 5.270
61.26000 2.021
61.28000 4.170
61.30000 3.145
61.32000 1.094
61.34000 1.468
61.36000 3.312
61.38000 3.030
61.40000 1.306
61.42000 5.837
61.44000 3.685
61.46000 0.777
61.48000 -0.453
61.50000 1.061
61.52000 0.849
61.54000 -0.652
61.56000 1.811
61.58000 1.274
61.60000 0.097
61.62000 -1.517
61.64000 -1.061
61.66000 2.079
61.68000 0.887
61.70000 -0.305
61.72000 0.353
61.74000 -0.443
61.76000 0.294
61.78000 0.075
61.80000 0.361
61.82000 1.922
61.84000 2.646
61.86000 3.680
61.88000 5.614
61.90000 4.843
61.92000 1.901
61.94000 0.019
61.96000 1.288
61.98000 4.513
62.00000 6.515
62.02000 4.602
62.04000 4.136
62.06000 4.735
62.08000 0.614
62.10000 0.987
62.12000 1.257
62.14000 0.284
62.16000 -0.532
62.18000 1.330
62.20000 0.680
62.22000 4.974
62.24000 4.438
62.26000 1.028
62.28000 1.029
62.30000 0.900
62.32000 1.019
62.34000 -2.274
62.36000 -1.909
62.38000 0.725
62.40000 1.621
62.42000 1.409
62.44000 1.048
62.46000 1.555
62.48000 1.806
62.50000 2.833
62.52000 2.005
62.54000 2.601
62.56000 -0.301
62.58000 0.064
62.60000 4.035
62.62000 3.758
62.64000 3.397
62.66000 2.536
62.68000 1.215
62.70000 0.827
62.72000 0.784
62.74000 -1.545
62.76000 -1.193
62.78000 2.217
62.80000 0.950
62.82000 -0.730
62.84000 -0.554
62.86000 2.844
62.88000 1.794
62.90000 3.046
62.92000 6.100
62.94000 0.436
62.96000 -1.106
62.98000 2.399
63.00000 4.794
63.02000 0.855
63.04000 -1.212
63.06000 -2.281
63.08000 -1.614
63.10000 -1.143
63.12000 -0.253
63.14000 -0.042
63.16000 0.722
63.18000 4.898
63.20000 5.108
63.22000 2.948
63.24000 1.207
63.26000 1.163
63.28000 0.437
63.30000 -0.367
63.32000 3.320
63.34000 3.020
63.36000 2.788
63.38000 -0.129
63.40000 2.061
63.42000 2.695
63.44000 1.647
63.46000 3.210
63.48000 1.408
63.50000 1.371
63.52000 2.754
63.54000 1.447
63.56000 1.470
63.58000 2.247
63.60000 2.807
63.62000 4.275
63.64000 -0.584
63.66000 -2.076
63.68000 2.071
63.70000 2.446
63.72000 5.690
63.74000 4.275
63.76000 0.507
63.78000 1.691
63.80000 2.667
63.82000 0.915
63.84000 2.389
63.86000 2.000
63.88000 2.635
63.90000 3.681
63.92000 5.184
63.94000 3.883
63.96000 1.945
63.98000 3.953
64.00000 1.289
64.02000 2.153
64.04000 2.488
64.06000 2.881
64.08000 0.407
64.10000 -2.261
64.12000 0.210
64.14000 4.287
64.16000 1.830
64.18000 3.829
64.20000 3.731
64.22000 4.383
64.24000 2.532
64.26000 1.051
64.28000 2.923
64.30000 0.129
64.32000 1.792
64.34000 3.614
64.36000 3.478
64.38000 0.402
64.40000 -0.553
64.42000 1.449
64.44000 1.554
64.46000 1.066
64.48000 1.453
64.50000 3.308
64.52000 1.637
64.54000 1.799
64.56000 3.174
64.58000 4.532
64.60000 3.338
64.62000 0.439
64.64000 -0.421
64.66000 -0.412
64.68000 3.980
64.70000 -0.113
64.72000 -1.782
64.74000 -1.132
64.76000 -1.105
64.78000 -2.278
64.80000 1.479
64.82000 1.483
64.84000 0.485
64.86000 0.563
64.88000 -0.563
64.90000 1.430
64.92000 0.646
64.94000 5.272
64.96000 5.424
64.98000 1.386
65.00000 -0.542
65.02000 2.877
65.04000 5.976
65.06000 4.649
65.08000 4.502
65.10000 3.503
65.12000 1.539
65.14000 4.660
65.16000 2.530
65.18000 1.973
65.20000 4.665
65.22000 1.441
65.24000 2.332
65.26000 2.921
65.28000 5.272
65.30000 6.404
65.32000 6.037
65.34000 1.128
65.36000 2.269
65.38000 2.250
65.40000 -0.207
65.42000 -2.277
65.44000 0.516
65.46000 0.135
65.48000 3.255
65.50000 3.494
65.52000 5.181
65.54000 5.870
65.56000 3.089
65.58000 -1.190
65.60000 3.566
65.62000 4.056
65.64000 3.062
65.66000 0.133
65.68000 0.996
65.70000 1.981
65.72000 3.266
65.74000 1.658
65.76000 2.197
65.78000 3.250
65.80000 0.496
65.82000 -2.145
65.84000 -1.236
65.86000 -2.134
65.88000 0.250
65.90000 1.593
65.92000 0.786
65.94000 1.041
65.96000 1.718
65.98000 3.107
66.00000 0.497
66.02000 -1.245
66.04000 -2.313
66.06000 1.402
66.08000 2.231
66.10000 2.844
66.12000 2.884
66.14000 2.831
66.16000 2.731
66.18000 -0.881
66.20000 -0.084
66.22000 2.312
66.24000 2.921
66.26000 0.949
66.28000 0.133
66.30000 -1.987
66.32000 -0.583
66.34000 0.313
66.36000 -0.569
66.38000 3.249
66.40000 -1.077
66.42000 1.080
66.44000 -1.020
66.46000 -2.330
66.48000 -1.115
66.50000 3.070
66.52000 3.641
66.54000 -0.827
66.56000 0.154
66.58000 2.087
66.60000 0.140
66.62000 -1.359
66.64000 -1.655
66.66000 -2.251
66.68000 -1.735
66.70000 0.470
66.72000 -1.081
66.74000 -0.174
66.76000 -1.378
66.78000 -2.103
66.80000 -2.140
66.82000 0.628
66.84000 2.484
66.86000 -0.694
66.88000 -1.679
66.90000 -2.033
66.92000 -0.012
66.94000 -0.593
66.96000 -1.379
66.98000 -0.558
67.00000 -1.460
67.02000 2.640
67.04000 0.405
67.06000 1.198
67.08000 -0.173
67.10000 -1.296
67.12000 -0.507
67.14000 1.565
67.16000 0.607
67.18000 -2.383
67.20000 -0.215
67.22000 -1.930
67.24000 -0.040
67.26000 0.365
67.28000 -1.784
67.30000 -0.390
67.32000 0.296
67.34000 -1.376
67.36000 0.648
67.38000 0.901
67.40000 1.244
67.42000 1.519
67.44000 3.962
67.46000 2.343
67.48000 -2.070
67.50000 2.364
67.52000 2.634
67.54000 2.307
67.56000 4.733
67.58000 2.837
67.60000 3.125
67.62000 3.310
67.64000 3.476
67.66000 4.066
67.68000 5.202
67.70000 1.507
67.72000 2.152
67.74000 3.539
67.76000 2.685
67.78000 4.728
67.80000 5.646
67.82000 7.930
67.84000 9.892
67.86000 5.903
67.88000 5.970
67.90000 12.542
67.92000 6.440
67.94000 6.672
67.96000 8.810
67.98000 6.124
68.00000 7.068
68.02000 9.540
68.04000 8.524
68.06000 7.266
68.08000 11.296
68.10000 12.103
68.12000 14.963
68.14000 15.433
68.16000 15.143
68.18000 16.313
68.20000 16.906
68.22000 16.830
68.24000 19.425
68.26000 22.783
68.28000 25.473
68.30000 22.236
68.32000 22.099
68.34000 21.320
68.36000 22.511
68.38000 22.660
68.40000 25.582
68.42000 26.558
68.44000 28.590
68.46000 26.723
68.48000 27.587
68.50000 31.774
68.52000 33.905
68.54000 37.153
68.56000 32.790
68.58000 32.450
68.60000 30.954
68.62000 36.460
68.64000 39.059
68.66000 41.269
68.68000 42.552
68.70000 38.902
68.72000 37.040
68.74000 35.773
68.76000 36.797
68.78000 37.512
68.80000 32.865
68.82000 36.270
68.84000 37.693
68.86000 38.190
68.88000 36.313
68.90000 38.542
68.92000 36.470
68.94000 35.403
68.96000 28.980
68.98000 30.293
69.00000 30.146
69.02000 27.370
69.04000 28.534
69.06000 26.861
69.08000 26.420
69.10000 24.663
69.12000 21.500
69.14000 22.566
69.16000 24.017
69.18000 16.429
69.20000 13.944
69.22000 16.541
69.24000 18.862
69.26000 16.867
69.28000 13.988
69.30000 13.104
69.32000 17.617
69.34000 13.838
69.36000 8.628
69.38000 9.396
69.40000 11.639
69.42000 8.326
69.44000 8.856
69.46000 8.522
69.48000 4.503
69.50000 4.796
69.52000 4.005
69.54000 3.261
69.56000 1.415
69.58000 1.527
69.60000 3.429
69.62000 4.798
69.64000 8.142
69.66000 3.301
69.68000 0.558
69.70000 2.157
69.72000 2.831
69.74000 5.678
69.76000 3.816
69.78000 2.143
69.80000 1.533
69.82000 0.867
69.84000 1.306
69.86000 0.626
69.88000 2.473
69.90000 1.080
69.92000 0.626
69.94000 3.297
69.96000 0.772
69.98000 -1.168
70.00000 -2.327
70.02000 -1.471
70.04000 0.255
70.06000 -1.415
70.08000 -0.226
70.10000 0.750
70.12000 2.996
70.14000 4.637
70.16000 3.208
70.18000 -0.007
70.20000 1.260
70.22000 0.172
70.24000 3.738
70.26000 2.322
70.28000 0.957
70.30000 0.585
70.32000 0.811
70.34000 2.149
70.36000 0.879
70.38000 1.477
70.40000 1.557
70.42000 1.365
70.44000 -0.381
70.46000 2.085
70.48000 0.153
70.50000 -0.743
70.52000 -2.243
70.54000 -1.356
70.56000 -0.511
70.58000 0.907
70.60000 1.553
70.62000 2.123
70.64000 6.441
70.66000 6.891
70.68000 4.401
70.70000 4.284
70.72000 3.609
70.74000 1.797
70.76000 3.130
70.78000 1.555
70.80000 1.785
70.82000 1.527
70.84000 0.603
70.86000 2.172
70.88000 1.096
70.90000 0.920
70.92000 3.317
70.94000 2.408
70.96000 2.620
70.98000 2.064
71.00000 3.796
71.02000 -1.293
71.04000 -0.370
71.06000 2.968
71.08000 2.873
71.10000 1.688
71.12000 2.977
71.14000 4.220
71.16000 0.941
71.18000 0.147
71.20000 -0.473
71.22000 0.678
71.24000 -0.802
71.26000 -2.213
71.28000 0.051
71.30000 4.846
71.32000 0.500
71.34000 -0.240
71.36000 0.709
71.38000 0.049
71.40000 -1.453
71.42000 -0.288
71.44000 -0.515
71.46000 -1.586
71.48000 -0.092
71.50000 0.417
71.52000 0.067
71.54000 2.859
71.56000 1.726
71.58000 -1.987
71.60000 -1.361
71.62000 1.020
71.64000 2.315
71.66000 2.554
71.68000 1.977
71.70000 3.437
71.72000 4.094
71.74000 2.513
71.76000 0.237
71.78000 0.201
71.80000 -1.444
71.82000 -2.185
71.84000 -0.144
71.86000 3.426
71.88000 0.592
71.90000 0.109
71.92000 -0.136
71.94000 2.077
71.96000 5.400
71.98000 4.598
72.00000 3.020
72.02000 1.798
72.04000 0.573
72.06000 1.230
72.08000 4.027
72.10000 1.264
72.12000 0.421
72.14000 2.820
72.16000 1.486
72.18000 -1.851
72.20000 -0.273
72.22000 0.100
72.24000 -0.061
72.26000 1.421
72.28000 2.124
72.30000 -1.373
72.32000 -2.134
72.34000 1.312
72.36000 3.283
72.38000 3.559
72.40000 0.334
72.42000 2.930
72.44000 3.961
72.46000 2.538
72.48000 3.416
72.50000 1.942
72.52000 4.530
72.54000 4.482
72.56000 1.787
72.58000 2.367
72.60000 2.223
72.62000 1.654
72.64000 2.701
72.66000 3.652
72.68000 2.933
72.70000 5.315
72.72000 2.671
72.74000 3.172
72.76000 6.327
72.78000 4.816
72.80000 3.002
72.82000 3.954
72.84000 1.192
72.86000 1.434
72.88000 4.971
72.90000 6.753
72.92000 4.581
72.94000 0.157
72.96000 3.284
72.98000 2.779
73.00000 2.575
73.02000 2.517
73.04000 1.108
73.06000 0.723
73.08000 2.172
73.10000 2.948
73.12000 0.245
73.14000 0.147
73.16000 -0.227
73.18000 -0.865
73.20000 0.420
73.22000 0.750
73.24000 2.817
73.26000 3.215
73.28000 3.259
73.30000 3.529
73.32000 -0.659
73.34000 1.340
73.36000 1.606
73.38000 4.227
73.40000 3.340
73.42000 4.470
73.44000 1.564
73.46000 -0.814
73.48000 4.890
73.50000 4.182
73.52000 0.268
73.54000 -0.800
73.56000 1.991
73.58000 2.420
73.60000 2.836
73.62000 2.040
73.64000 4.002
73.66000 2.517
73.68000 0.685
73.70000 -1.816
73.72000 2.788
73.74000 5.689
73.76000 5.640
73.78000 4.729
73.80000 2.919
73.82000 2.145
73.84000 1.425
73.86000 1.138
73.88000 1.901
73.90000 4.118
73.92000 2.649
73.94000 0.655
73.96000 -2.094
73.98000 2.351
74.00000 3.222
74.02000 5.068
74.04000 3.880
74.06000 4.618
74.08000 1.698
74.10000 1.191
74.12000 1.151
74.14000 2.028
74.16000 2.363
74.18000 2.144
74.20000 2.044
74.22000 -0.077
74.24000 3.778
74.26000 4.645
74.28000 3.225
74.30000 4.725
74.32000 1.838
74.34000 4.420
74.36000 4.506
74.38000 1.952
74.40000 1.904
74.42000 0.875
74.44000 -0.331
74.46000 0.408
74.48000 1.738
74.50000 3.834
74.52000 2.615
74.54000 1.201
74.56000 0.190
74.58000 0.602
74.60000 -1.855
74.62000 -2.123
74.64000 1.321
74.66000 3.577
74.68000 -0.544
74.70000 2.598
74.72000 3.667
74.74000 -0.863
74.76000 1.691
74.78000 -1.420
74.80000 -0.819
74.82000 -0.026
74.84000 1.428
74.86000 3.887
74.88000 0.868
74.90000 1.156
74.92000 -0.326
74.94000 1.839
74.96000 3.209
74.98000 1.461
75.00000 0.801
75.02000 5.210
75.04000 5.303
75.06000 1.377
75.08000 -0.927
75.10000 1.500
75.12000 4.719
75.14000 3.768
75.16000 1.930
75.18000 2.056
75.20000 -0.615
75.22000 1.895
75.24000 1.125
75.26000 3.793
75.28000 4.703
75.30000 1.228
75.32000 0.436
75.34000 3.061
75.36000 0.852
75.38000 0.700
75.40000 3.560
75.42000 5.234
75.44000 3.304
75.46000 1.887
75.48000 -0.081
75.50000 3.393
75.52000 3.045
75.54000 -2.134
75.56000 0.010
75.58000 3.814
75.60000 3.817
75.62000 2.204
75.64000 3.257
75.66000 3.287
75.68000 3.072
75.70000 3.915
75.72000 2.589
75.74000 2.975
75.76000 3.969
75.78000 1.033
75.80000 0.224
75.82000 -0.083
75.84000 2.141
75.86000 -0.214
75.88000 2.312
75.90000 2.240
75.92000 3.424
75.94000 1.767
75.96000 4.424
75.98000 1.064
76.00000 3.243
76.02000 0.777
76.04000 1.259
76.06000 4.135
76.08000 3.545
76.10000 1.478
76.12000 2.685
76.14000 3.194
76.16000 2.719
76.18000 0.273
76.20000 2.653
76.22000 1.010
76.24000 2.714
76.26000 4.605
76.28000 6.263
76.30000 4.482
76.32000 2.954
76.34000 0.481
76.36000 -0.405
76.38000 -0.024
76.40000 1.884
76.42000 1.609
76.44000 1.948
76.46000 4.217
76.48000 0.218
76.50000 -2.097
76.52000 5.311
76.54000 1.954
76.56000 2.186
76.58000 3.303
76.60000 4.564
76.62000 5.805
76.64000 8.040
76.66000 2.366
76.68000 0.793
76.70000 -0.790
76.72000 0.193
76.74000 1.671
76.76000 2.483
76.78000 -1.649
76.80000 0.611
76.82000 0.946
76.84000 3.994
76.86000 1.798
76.88000 0.886
76.90000 2.206
76.92000 1.440
76.94000 0.214
76.96000 -0.415
76.98000 3.270
77.00000 5.642
77.02000 2.298
77.04000 1.035
77.06000 4.168
77.08000 1.967
77.10000 2.501
77.12000 2.428
77.14000 4.587
77.16000 9.420
77.18000 5.144
77.20000 1.676
77.22000 0.846
77.24000 2.969
77.26000 7.021
77.28000 2.465
77.30000 4.572
77.32000 5.147
77.34000 2.831
77.36000 4.160
77.38000 4.600
77.40000 3.876
77.42000 6.631
77.44000 3.375
77.46000 0.975
77.48000 -2.128
77.50000 1.789
77.52000 2.184
77.54000 5.247
77.56000 4.059
77.58000 3.249
77.60000 5.062
77.62000 3.900
77.64000 3.719
77.66000 2.347
77.68000 -0.003
77.70000 1.257
77.72000 0.503
77.74000 0.003
77.76000 1.305
77.78000 6.389
77.80000 4.331
77.82000 2.302
77.84000 0.927
77.86000 2.248
77.88000 0.116
77.90000 1.790
77.92000 2.811
77.94000 2.962
77.96000 0.213
77.98000 0.652
78.00000 -1.792
78.02000 -1.323
78.04000 1.800
78.06000 2.293
78.08000 1.661
78.10000 -0.024
78.12000 2.624
78.14000 7.355
78.16000 7.045
78.18000 2.461
78.20000 2.006
78.22000 2.564
78.24000 2.777
78.26000 2.954
78.28000 2.154
78.30000 -1.469
78.32000 1.038
78.34000 3.503
78.36000 3.135
78.38000 -1.633
78.40000 -2.147
78.42000 0.408
78.44000 3.834
78.46000 2.747
78.48000 5.281
78.50000 5.065
78.52000 3.813
78.54000 5.983
78.56000 5.016
78.58000 3.195
78.60000 0.978
78.62000 2.286
78.64000 1.095
78.66000 -0.960
78.68000 3.032
78.70000 3.332
78.72000 2.008
78.74000 -0.810
78.76000 -2.167
78.78000 -1.147
78.80000 4.809
78.82000 5.609
78.84000 3.673
78.86000 4.483
78.88000 1.622
78.90000 2.247
78.92000 0.690
78.94000 -0.403
78.96000 0.057
78.98000 1.458
79.00000 4.351
79.02000 1.405
79.04000 -0.184
79.06000 2.817
79.08000 1.447
79.10000 2.703
79.12000 2.892
79.14000 0.010
79.16000 1.630
79.18000 0.974
79.20000 2.503
79.22000 1.500
79.24000 0.180
79.26000 0.970
79.28000 2.851
79.30000 1.759
79.32000 3.115
79.34000 3.167
79.36000 0.628
79.38000 0.560
79.40000 2.158
79.42000 3.136
79.44000 4.019
79.46000 -0.364
79.48000 -1.416
79.50000 2.985
79.52000 0.990
79.54000 1.870
79.56000 1.159
79.58000 1.003
79.60000 2.074
79.62000 -0.815
79.64000 1.645
79.66000 0.439
79.68000 -1.444
79.70000 -0.429
79.72000 3.483
79.74000 2.485
79.76000 -1.391
79.78000 -1.283
79.80000 2.486
79.82000 4.676
79.84000 3.921
79.86000 0.788
79.88000 1.871
79.90000 3.611
79.92000 4.095
79.94000 0.361
79.96000 1.420
79.98000 0.540
80.00000 0.691
80.02000 2.411
80.04000 2.264
80.06000 -2.190
80.08000 2.395
80.10000 6.394
80.12000 4.869
80.14000 6.947
80.16000 5.927
80.18000 4.738
80.20000 5.859
80.22000 2.991
80.24000 3.538
80.26000 5.740
80.28000 0.784
80.30000 -0.494
80.32000 4.746
80.34000 4.378
80.36000 0.960
80.38000 0.602
80.40000 -2.186
80.42000 0.259
80.44000 8.026
80.46000 7.810
80.48000 5.753
80.50000 5.594
80.52000 5.890
80.54000 3.567
80.56000 4.129
80.58000 1.816
80.60000 4.354
80.62000 3.558
80.64000 0.961
80.66000 -2.220
80.68000 -0.114
80.70000 -0.837
80.72000 2.116
80.74000 2.470
80.76000 3.919
80.78000 3.112
80.80000 3.874
80.82000 6.224
80.84000 0.668
80.86000 2.310
80.88000 5.147
80.90000 4.652
80.92000 3.524
80.94000 8.663
80.96000 8.894
80.98000 3.276
81.00000 -0.600
81.02000 -0.087
81.04000 1.315
81.06000 2.053
81.08000 -0.813
81.10000 1.582
81.12000 5.148
81.14000 4.326
81.16000 -1.078
81.18000 2.834
81.20000 4.305
81.22000 4.097
81.24000 2.212
81.26000 0.658
81.28000 -1.841
81.30000 -2.311
81.32000 4.516
81.34000 1.711
81.36000 2.356
81.38000 1.613
81.40000 0.706
81.42000 5.931
81.44000 5.417
81.46000 5.560
81.48000 3.751
81.50000 3.232
81.52000 6.934
81.54000 7.075
81.56000 6.290
81.58000 4.719
81.60000 9.210
81.62000 10.729
81.64000 11.405
81.66000 9.218
81.68000 6.181
81.70000 4.958
81.72000 8.629
81.74000 10.043
81.76000 4.609
81.78000 6.737
81.80000 7.001
81.82000 9.701
81.84000 11.862
81.86000 9.666
81.88000 9.773
81.90000 13.780
81.92000 13.266
81.94000 12.484
81.96000 12.317
81.98000 15.889
82.00000 13.744
82.02000 16.984
82.04000 18.637
82.06000 19.154
82.08000 20.191
82.10000 21.107
82.12000 21.338
82.14000 18.749
82.16000 15.036
82.18000 15.047
82.20000 21.464
82.22000 29.005
82.24000 29.501
82.26000 34.625
82.28000 32.312
82.30000 28.111
82.32000 31.497
82.34000 35.066
82.36000 30.024
82.38000 29.171
82.40000 38.369
82.42000 41.917
82.44000 40.344
82.46000 37.563
82.48000 38.378
82.50000 39.687
82.52000 39.999
82.54000 44.635
82.56000 44.510
82.58000 45.582
82.60000 51.737
82.62000 56.903
82.64000 53.900
82.66000 54.031
82.68000 56.185
82.70000 59.987
82.72000 53.902
82.74000 61.400
82.76000 59.676
82.78000 59.285
82.80000 62.279
82.82000 60.813
82.84000 57.959
82.86000 60.628
82.88000 64.047
82.90000 61.677
82.92000 55.470
82.94000 57.008
82.96000 63.752
82.98000 64.226
83.00000 61.607
83.02000 58.476
83.04000 55.012
83.06000 55.936
83.08000 52.908
83.10000 56.704
83.12000 54.598
83.14000 50.107
83.16000 55.994
83.18000 57.408
83.20000 47.816
83.22000 43.413
83.24000 42.943
83.26000 46.338
83.28000 48.014
83.30000 47.603
83.32000 44.875
83.34000 43.823
83.36000 41.758
83.38000 46.811
83.40000 43.214
83.42000 35.796
83.44000 26.933
83.46000 30.920
83.48000 34.303
83.50000 32.205
83.52000 28.840
83.54000 26.707
83.56000 24.459
83.58000 27.169
83.60000 25.797
83.62000 22.142
83.64000 21.670
83.66000 21.221
83.68000 21.561
83.70000 20.938
83.72000 21.086
83.74000 16.795
83.76000 15.776
83.78000 15.622
83.80000 15.826
83.82000 13.364
83.84000 13.516
83.86000 12.996
83.88000 9.436
83.90000 9.712
83.92000 10.777
83.94000 11.301
83.96000 13.086
83.98000 16.615
84.00000 13.662
84.02000 10.983
84.04000 9.538
84.06000 8.445
84.08000 9.241
84.10000 10.587
84.12000 8.313
84.14000 7.039
84.16000 8.346
84.18000 3.650
84.20000 1.349
84.22000 0.052
84.24000 0.667
84.26000 -0.364
84.28000 2.187
84.30000 3.670
84.32000 6.438
84.34000 3.503
84.36000 0.084
84.38000 1.317
84.40000 2.366
84.42000 3.876
84.44000 1.657
84.46000 -0.077
84.48000 -0.231
84.50000 0.737
84.52000 -0.360
84.54000 0.321
84.56000 5.829
84.58000 2.040
84.60000 0.524
84.62000 2.128
84.64000 4.635
84.66000 2.834
84.68000 -1.595
84.70000 -1.442
84.72000 -1.255
84.74000 0.536
84.76000 3.721
84.78000 1.776
84.80000 1.927
84.82000 5.122
84.84000 4.268
84.86000 3.207
84.88000 4.236
84.90000 1.267
84.92000 2.049
84.94000 5.640
84.96000 4.894
84.98000 3.174
85.00000 1.327
85.02000 3.521
85.04000 3.898
85.06000 5.127
85.08000 2.047
85.10000 -2.224
85.12000 1.222
85.14000 4.242
85.16000 2.518
85.18000 -0.621
85.20000 1.938
85.22000 4.739
85.24000 4.631
85.26000 4.873
85.28000 2.697
85.30000 2.957
85.32000 1.434
85.34000 1.457
85.36000 5.537
85.38000 -0.267
85.40000 0.932
85.42000 3.891
85.44000 2.621
85.46000 -0.891
85.48000 0.565
85.50000 -2.237
85.52000 -0.383
85.54000 2.475
85.56000 2.838
85.58000 5.063
85.60000 6.535
85.62000 4.476
85.64000 -0.480
85.66000 0.046
85.68000 1.360
85.70000 2.589
85.72000 -0.263
85.74000 -2.255
85.76000 0.020
85.78000 0.887
85.80000 0.973
85.82000 -0.919
85.84000 3.384
85.86000 2.344
85.88000 -0.076
85.90000 3.310
85.92000 1.682
85.94000 -0.606
85.96000 -1.800
85.98000 0.845
86.00000 -0.070
86.02000 3.303
86.04000 2.482
86.06000 -1.095
86.08000 1.286
86.10000 3.825
86.12000 6.177
86.14000 3.701
86.16000 3.533
86.18000 2.776
86.20000 1.867
86.22000 3.579
86.24000 2.369
86.26000 0.298
86.28000 2.332
86.30000 4.370
86.32000 2.746
86.34000 3.325
86.36000 5.481
86.38000 2.252
86.40000 2.801
86.42000 4.307
86.44000 6.460
86.46000 2.900
86.48000 3.007
86.50000 8.698
86.52000 7.608
86.54000 8.103
86.56000 10.211
86.58000 9.525
86.60000 5.985
86.62000 7.430
86.64000 11.800
86.66000 10.623
86.68000 13.670
86.70000 11.705
86.72000 14.270
86.74000 18.151
86.76000 15.816
86.78000 15.229
86.80000 17.349
86.82000 17.376
86.84000 19.345
86.86000 24.002
86.88000 21.702
86.90000 20.827
86.92000 25.918
86.94000 24.371
86.96000 24.641
86.98000 28.941
87.00000 34.204
87.02000 34.511
87.04000 31.408
87.06000 32.052
87.08000 33.341
87.10000 34.663
87.12000 31.792
87.14000 33.474
87.16000 35.179
87.18000 35.623
87.20000 32.499
87.22000 37.697
87.24000 35.377
87.26000 32.352
87.28000 42.902
87.30000 38.467
87.32000 39.946
87.34000 40.777
87.36000 40.044
87.38000 38.848
87.40000 34.909
87.42000 36.946
87.44000 36.608
87.46000 34.158
87.48000 38.695
87.50000 36.143
87.52000 33.155
87.54000 32.320
87.56000 30.615
87.58000 32.422
87.60000 28.585
87.62000 25.446
87.64000 27.696
87.66000 29.991
87.68000 27.367
87.70000 30.264
87.72000 25.553
87.74000 18.483
87.76000 23.718
87.78000 25.644
87.80000 24.191
87.82000 20.020
87.84000 15.804
87.86000 11.888
87.88000 12.263
87.90000 17.698
87.92000 18.006
87.94000 15.044
87.96000 15.474
87.98000 16.376
88.00000 11.628
88.02000 10.102
88.04000 13.335
88.06000 13.862
88.08000 11.648
88.10000 15.564
88.12000 13.531
88.14000 10.214
88.16000 9.838
88.18000 13.025
88.20000 12.039
88.22000 12.931
88.24000 4.499
88.26000 4.604
88.28000 9.416
88.30000 9.324
88.32000 6.306
88.34000 5.759
88.36000 5.827
88.38000 7.725
88.40000 4.701
88.42000 -0.993
88.44000 1.943
88.46000 6.823
88.48000 8.103
88.50000 5.373
88.52000 6.652
88.54000 5.316
88.56000 2.000
88.58000 3.762
88.60000 -2.184
88.62000 3.267
88.64000 4.371
88.66000 3.345
88.68000 3.785
88.70000 1.987
88.72000 -0.835
88.74000 2.796
88.76000 3.914
88.78000 2.337
88.80000 1.968
88.82000 4.251
88.84000 4.658
88.86000 3.255
88.88000 -0.154
88.90000 1.151
88.92000 2.980
88.94000 5.875
88.96000 5.563
88.98000 -0.710
89.00000 -1.639
89.02000 1.320
89.04000 4.753
89.06000 3.086
89.08000 -2.107
89.10000 1.462
89.12000 2.908
89.14000 4.416
89.16000 3.694
89.18000 3.316
89.20000 3.138
89.22000 2.128
89.24000 1.769
89.26000 2.616
89.28000 1.584
89.30000 4.355
89.32000 2.958
89.34000 0.736
89.36000 0.689
89.38000 1.459
89.40000 2.144
89.42000 1.369
89.44000 1.582
89.46000 2.179
89.48000 1.953
89.50000 3.111
89.52000 0.620
89.54000 -1.531
89.56000 2.490
89.58000 3.216
89.60000 4.883
89.62000 4.140
89.64000 1.947
89.66000 2.669
89.68000 3.139
89.70000 3.823
89.72000 -0.159
89.74000 0.829
89.76000 -0.977
89.78000 3.189
89.80000 6.062
89.82000 3.358
89.84000 2.263
89.86000 0.256
89.88000 1.787
89.90000 1.360
89.92000 1.652
89.94000 0.909
89.96000 -0.484
89.98000 0.470
90.00000 3.425
90.02000 4.389
90.04000 2.714
90.06000 1.692
90.08000 2.725
90.10000 5.899
90.12000 1.322
90.14000 -0.033
90.16000 -2.010
90.18000 0.038
90.20000 -0.894
90.22000 5.396
90.24000 5.733
90.26000 4.740
90.28000 2.054
90.30000 2.786
90.32000 3.262
90.34000 2.230
90.36000 -0.367
90.38000 1.089
90.40000 1.329
90.42000 0.931
90.44000 5.086
90.46000 2.587
90.48000 1.126
90.50000 1.099
90.52000 -0.876
90.54000 0.539
90.56000 3.210
90.58000 4.282
90.60000 5.579
90.62000 -0.144
90.64000 0.363
90.66000 2.665
90.68000 4.453
90.70000 5.696
90.72000 3.868
90.74000 1.523
90.76000 2.355
90.78000 3.091
90.80000 2.513
90.82000 2.036
90.84000 1.445
90.86000 1.380
90.88000 2.087
90.90000 2.976
90.92000 4.109
90.94000 2.230
90.96000 1.160
90.98000 5.515
91.00000 6.020
91.02000 2.973
91.04000 0.397
91.06000 1.072
91.08000 1.780
91.10000 -0.441
91.12000 -1.131
91.14000 1.062
91.16000 2.621
91.18000 3.470
91.20000 3.569
91.22000 2.673
91.24000 4.399
91.26000 2.252
91.28000 -1.696
91.30000 0.704
91.32000 1.945
91.34000 1.487
91.36000 -0.911
91.38000 -0.135
91.40000 -2.024
91.42000 1.027
91.44000 -1.055
91.46000 -1.785
91.48000 2.528
91.50000 5.072
91.52000 4.031
91.54000 0.851
91.56000 -1.967
91.58000 1.050
91.60000 1.522
91.62000 1.924
91.64000 1.184
91.66000 1.259
91.68000 3.435
91.70000 1.701
91.72000 3.576
91.74000 2.706
91.76000 3.318
91.78000 5.074
91.80000 4.501
91.82000 5.090
91.84000 7.112
91.86000 4.205
91.88000 0.684
91.90000 2.496
91.92000 2.010
91.94000 5.236
91.96000 2.919
91.98000 1.862
92.00000 3.104
92.02000 1.173
92.04000 2.494
92.06000 3.608
92.08000 7.751
92.10000 7.622
92.12000 6.504
92.14000 2.721
92.16000 2.518
92.18000 0.890
92.20000 -1.962
92.22000 -0.951
92.24000 2.963
92.26000 2.968
92.28000 1.223
92.30000 5.785
92.32000 9.893
92.34000 6.966
92.36000 5.889
92.38000 5.018
92.40000 3.300
92.42000 6.279
92.44000 4.007
92.46000 6.690
92.48000 4.012
92.50000 4.352
92.52000 8.369
92.54000 7.128
92.56000 7.769
92.58000 5.286
92.60000 2.929
92.62000 0.288
92.64000 -1.942
92.66000 1.576
92.68000 4.979
92.70000 8.775
92.72000 7.333
92.74000 6.001
92.76000 1.990
92.78000 5.461
92.80000 5.015
92.82000 5.038
92.84000 2.853
92.86000 5.722
92.88000 6.400
92.90000 7.092
92.92000 7.939
92.94000 8.697
92.96000 5.447
92.98000 6.775
93.00000 2.343
93.02000 0.914
93.04000 2.645
93.06000 5.122
93.08000 4.439
93.10000 3.325
93.12000 4.379
93.14000 -0.533
93.16000 1.592
93.18000 2.676
93.20000 2.110
93.22000 5.576
93.24000 4.909
93.26000 4.086
93.28000 2.829
93.30000 0.766
93.32000 2.689
93.34000 2.181
93.36000 4.715
93.38000 4.748
93.40000 2.784
93.42000 1.449
93.44000 1.484
93.46000 4.038
93.48000 8.656
93.50000 5.280
93.52000 6.144
93.54000 2.478
93.56000 4.465
93.58000 5.490
93.60000 3.959
93.62000 2.233
93.64000 4.637
93.66000 4.548
93.68000 5.605
93.70000 3.813
93.72000 5.350
93.74000 5.988
93.76000 9.385
93.78000 6.287
93.80000 2.988
93.82000 3.890
93.84000 3.622
93.86000 6.286
93.88000 1.185
93.90000 1.354
93.92000 0.824
93.94000 2.242
93.96000 -1.939
93.98000 -0.944
94.00000 -2.023
94.02000 2.332
94.04000 1.141
94.06000 2.073
94.08000 6.094
94.10000 3.062
94.12000 0.973
94.14000 4.464
94.16000 3.360
94.18000 4.644
94.20000 4.966
94.22000 4.028
94.24000 2.291
94.26000 3.095
94.28000 7.813
94.30000 6.576
94.32000 1.516
94.34000 0.068
94.36000 -0.626
94.38000 2.606
94.40000 3.036
94.42000 2.662
94.44000 2.694
94.46000 6.457
94.48000 6.437
94.50000 3.893
94.52000 2.642
94.54000 3.617
94.56000 4.509
94.58000 6.494
94.60000 11.420
94.62000 6.788
94.64000 1.526
94.66000 0.722
94.68000 -1.314
94.70000 2.117
94.72000 8.213
94.74000 6.476
94.76000 3.991
94.78000 4.959
94.80000 7.589
94.82000 8.080
94.84000 10.357
94.86000 7.848
94.88000 4.269
94.90000 7.339
94.92000 6.150
94.94000 4.415
94.96000 4.432
94.98000 3.734
95.00000 3.620
95.02000 3.051
95.04000 2.881
95.06000 2.293
95.08000 3.814
95.10000 6.499
95.12000 6.262
95.14000 4.420
95.16000 4.673
95.18000 1.528
95.20000 6.735
95.22000 6.880
95.24000 -0.972
95.26000 -1.963
95.28000 1.113
95.30000 5.764
95.32000 5.811
95.34000 3.740
95.36000 7.542
95.38000 6.960
95.40000 4.878
95.42000 2.127
95.44000 8.186
95.46000 5.783
95.48000 5.608
95.50000 5.204
95.52000 6.261
95.54000 6.766
95.56000 4.382
95.58000 2.824
95.60000 4.907
95.62000 3.489
95.64000 5.453
95.66000 8.657
95.68000 4.226
95.70000 7.727
95.72000 2.944
95.74000 3.440
95.76000 2.291
95.78000 2.879
95.80000 6.342
95.82000 6.796
95.84000 4.721
95.86000 1.404
95.88000 6.962
95.90000 5.391
95.92000 4.407
95.94000 7.358
95.96000 3.578
95.98000 7.607
96.00000 8.768
96.02000 6.905
96.04000 2.552
96.06000 6.203
96.08000 6.748
96.10000 2.470
96.12000 4.792
96.14000 0.537
96.16000 2.832
96.18000 5.537
96.20000 4.779
96.22000 4.717
96.24000 1.930
96.26000 -0.420
96.28000 5.002
96.30000 3.023
96.32000 1.262
96.34000 -2.006
96.36000 5.379
96.38000 8.222
96.40000 0.973
96.42000 0.992
96.44000 2.139
96.46000 0.400
96.48000 3.543
96.50000 8.093
96.52000 4.280
96.54000 0.831
96.56000 0.878
96.58000 2.554
96.60000 4.102
96.62000 1.258
96.64000 -0.506
96.66000 3.031
96.68000 2.378
96.70000 -0.107
96.72000 5.245
96.74000 2.507
96.76000 3.548
96.78000 2.941
96.80000 4.112
96.82000 3.694
96.84000 7.399
96.86000 8.857
96.88000 5.577
96.90000 8.720
96.92000 6.631
96.94000 3.771
96.96000 7.102
96.98000 8.250
97.00000 4.835
97.02000 3.391
97.04000 2.942
97.06000 5.346
97.08000 4.522
97.10000 1.215
97.12000 3.464
97.14000 7.027
97.16000 5.212
97.18000 3.172
97.20000 5.805
97.22000 2.502
97.24000 2.600
97.26000 8.157
97.28000 6.107
97.30000 11.038
97.32000 4.732
97.34000 4.099
97.36000 7.593
97.38000 3.999
97.40000 4.421
97.42000 1.298
97.44000 -1.988
97.46000 6.010
97.48000 1.698
97.50000 3.736
97.52000 8.726
97.54000 9.365
97.56000 4.968
97.58000 4.124
97.60000 0.889
97.62000 -0.818
97.64000 5.731
97.66000 4.798
97.68000 8.365
97.70000 10.556
97.72000 3.507
97.74000 2.788
97.76000 1.813
97.78000 1.564
97.80000 -0.396
97.82000 -1.596
97.84000 5.534
97.86000 9.958
97.88000 8.839
97.90000 6.602
97.92000 0.334
97.94000 1.722
97.96000 4.069
97.98000 3.784
98.00000 2.173
98.02000 1.172
98.04000 3.657
98.06000 1.207
98.08000 4.741
98.10000 7.483
98.12000 4.153
98.14000 3.379
98.16000 3.087
98.18000 7.220
98.20000 10.567
98.22000 10.907
98.24000 8.736
98.26000 3.712
98.28000 2.017
98.30000 5.679
98.32000 3.222
98.34000 4.192
98.36000 2.252
98.38000 2.996
98.40000 11.930
98.42000 6.842
98.44000 9.872
98.46000 6.099
98.48000 5.407
98.50000 4.126
98.52000 6.955
98.54000 3.674
98.56000 1.844
98.58000 2.080
98.60000 3.745
98.62000 5.380
98.64000 12.934
98.66000 10.925
98.68000 8.382
98.70000 11.091
98.72000 1.879
98.74000 1.604
98.76000 7.593
98.78000 10.030
98.80000 7.754
98.82000 5.763
98.84000 1.739
98.86000 2.971
98.88000 1.579
98.90000 -1.895
98.92000 -0.804
98.94000 -1.501
98.96000 3.276
98.98000 10.491
99.00000 18.180
99.02000 11.043
99.04000 12.825
99.06000 11.231
99.08000 6.204
99.10000 4.447
99.12000 6.171
99.14000 11.305
99.16000 0.951
99.18000 5.991
99.20000 13.873
99.22000 9.042
99.24000 10.911
99.26000 15.603
99.28000 9.728
99.30000 9.713
99.32000 2.207
99.34000 -1.866
99.36000 3.450
99.38000 6.267
99.40000 2.608
99.42000 1.806
99.44000 7.597
99.46000 6.056
99.48000 1.418
99.50000 1.195
99.52000 4.762
99.54000 2.214
99.56000 5.962
99.58000 0.584
99.60000 6.390
99.62000 12.266
99.64000 10.979
99.66000 7.446
99.68000 7.168
99.70000 4.666
99.72000 8.332
99.74000 2.789
99.76000 4.182
99.78000 1.722
99.80000 2.869
99.82000 10.180
99.84000 1.736
99.86000 -1.508
99.88000 -2.074
99.90000 0.851
99.92000 -1.422
99.94000 -2.183
99.96000 -0.652
99.98000 0.000
