'Id: "0011389" Comment: "Integrate frame 0011389_Au-Ir-Rh_Au-Rich_XRD_Mapping-180-0000.gfrmwith cursor Wedge Cursor #5" Operator: "B?rgel" Anode: "Cu" Wavelength: "1.5406" Scantype: "2Theta (TwoTheta)" TimePerStep: "1" X: "-36" Y: "4.5" Z: "5.95" 
10.00000 0.000
10.02000 -4.540
10.04000 3.594
10.06000 12.151
10.08000 8.682
10.10000 -4.374
10.12000 14.637
10.14000 5.887
10.16000 5.562
10.18000 12.375
10.20000 22.844
10.22000 23.323
10.24000 6.803
10.26000 14.876
10.28000 12.459
10.30000 26.609
10.32000 27.371
10.34000 29.043
10.36000 30.547
10.38000 11.144
10.40000 16.895
10.42000 7.552
10.44000 3.305
10.46000 17.055
10.48000 29.618
10.50000 12.771
10.52000 1.227
10.54000 10.724
10.56000 15.265
10.58000 11.478
10.60000 35.138
10.62000 33.271
10.64000 24.034
10.66000 6.447
10.68000 -3.368
10.70000 -4.522
10.72000 1.681
10.74000 6.523
10.76000 17.900
10.78000 38.347
10.80000 38.738
10.82000 18.800
10.84000 5.749
10.86000 9.607
10.88000 23.133
10.90000 19.263
10.92000 5.341
10.94000 7.760
10.96000 -2.234
10.98000 16.226
11.00000 11.630
11.02000 12.821
11.04000 7.303
11.06000 14.330
11.08000 24.581
11.10000 20.220
11.12000 9.092
11.14000 -2.172
11.16000 4.919
11.18000 5.983
11.20000 8.220
11.22000 21.934
11.24000 11.057
11.26000 2.753
11.28000 12.851
11.30000 25.100
11.32000 19.250
11.34000 14.647
11.36000 23.756
11.38000 10.446
11.40000 6.644
11.42000 13.659
11.44000 11.855
11.46000 9.157
11.48000 4.848
11.50000 2.955
11.52000 6.005
11.54000 10.730
11.56000 21.768
11.58000 18.299
11.60000 12.686
11.62000 20.610
11.64000 20.711
11.66000 11.246
11.68000 12.035
11.70000 19.776
11.72000 10.378
11.74000 18.036
11.76000 10.613
11.78000 18.269
11.80000 18.755
11.82000 11.148
11.84000 8.412
11.86000 0.589
11.88000 5.140
11.90000 19.003
11.92000 14.736
11.94000 16.395
11.96000 9.578
11.98000 13.501
12.00000 18.521
12.02000 11.904
12.04000 14.648
12.06000 14.284
12.08000 9.795
12.10000 9.781
12.12000 10.239
12.14000 1.324
12.16000 12.893
12.18000 18.669
12.20000 19.233
12.22000 11.902
12.24000 7.730
12.26000 17.231
12.28000 5.032
12.30000 4.673
12.32000 16.092
12.34000 21.096
12.36000 11.524
12.38000 7.559
12.40000 10.659
12.42000 23.384
12.44000 19.772
12.46000 3.354
12.48000 5.846
12.50000 13.994
12.52000 12.623
12.54000 14.896
12.56000 14.915
12.58000 15.119
12.60000 11.813
12.62000 11.645
12.64000 11.187
12.66000 11.961
12.68000 20.587
12.70000 21.370
12.72000 18.578
12.74000 3.703
12.76000 10.950
12.78000 16.268
12.80000 10.882
12.82000 5.200
12.84000 17.441
12.86000 19.870
12.88000 15.358
12.90000 18.066
12.92000 3.806
12.94000 5.338
12.96000 4.563
12.98000 -4.500
13.00000 6.107
13.02000 21.396
13.04000 10.350
13.06000 9.381
13.08000 17.912
13.10000 16.192
13.12000 6.368
13.14000 7.153
13.16000 12.561
13.18000 20.567
13.20000 24.399
13.22000 19.875
13.24000 13.905
13.26000 7.428
13.28000 4.796
13.30000 7.128
13.32000 4.008
13.34000 7.340
13.36000 3.569
13.38000 12.946
13.40000 17.367
13.42000 10.340
13.44000 2.408
13.46000 -2.114
13.48000 3.036
13.50000 8.279
13.52000 4.233
13.54000 14.360
13.56000 16.227
13.58000 10.527
13.60000 8.463
13.62000 7.490
13.64000 0.719
13.66000 3.913
13.68000 8.046
13.70000 4.758
13.72000 7.306
13.74000 13.727
13.76000 7.092
13.78000 10.189
13.80000 10.032
13.82000 -1.691
13.84000 2.959
13.86000 0.766
13.88000 1.817
13.90000 16.127
13.92000 11.438
13.94000 12.302
13.96000 21.435
13.98000 16.475
14.00000 7.835
14.02000 3.032
14.04000 12.156
14.06000 6.514
14.08000 4.031
14.10000 6.373
14.12000 3.257
14.14000 9.187
14.16000 19.560
14.18000 11.019
14.20000 11.641
14.22000 12.076
14.24000 9.198
14.26000 5.473
14.28000 3.833
14.30000 2.469
14.32000 -0.175
14.34000 -2.505
14.36000 1.058
14.38000 6.444
14.40000 3.019
14.42000 12.872
14.44000 16.891
14.46000 2.869
14.48000 3.088
14.50000 6.232
14.52000 11.617
14.54000 5.047
14.56000 15.565
14.58000 8.158
14.60000 2.184
14.62000 2.212
14.64000 11.356
14.66000 10.288
14.68000 -1.984
14.70000 5.123
14.72000 -1.619
14.74000 -0.911
14.76000 2.564
14.78000 9.708
14.80000 -0.411
14.82000 6.771
14.84000 5.639
14.86000 2.712
14.88000 4.099
14.90000 3.933
14.92000 12.815
14.94000 9.474
14.96000 -4.490
14.98000 10.911
15.00000 14.014
15.02000 12.990
15.04000 1.385
15.06000 6.635
15.08000 12.039
15.10000 10.466
15.12000 8.057
15.14000 8.789
15.16000 3.309
15.18000 4.679
15.20000 9.635
15.22000 9.041
15.24000 8.794
15.26000 9.865
15.28000 14.951
15.30000 12.857
15.32000 7.694
15.34000 7.141
15.36000 15.154
15.38000 7.364
15.40000 -1.445
15.42000 -0.748
15.44000 9.490
15.46000 1.045
15.48000 11.209
15.50000 27.299
15.52000 21.420
15.54000 12.575
15.56000 10.117
15.58000 13.459
15.60000 12.081
15.62000 14.144
15.64000 13.807
15.66000 10.734
15.68000 7.618
15.70000 10.320
15.72000 10.798
15.74000 11.519
15.76000 2.538
15.78000 -1.611
15.80000 2.487
15.82000 9.757
15.84000 15.250
15.86000 16.585
15.88000 10.638
15.90000 10.042
15.92000 9.275
15.94000 11.202
15.96000 11.946
15.98000 6.798
16.00000 5.151
16.02000 7.260
16.04000 8.902
16.06000 16.513
16.08000 13.543
16.10000 -4.437
16.12000 4.044
16.14000 10.409
16.16000 12.494
16.18000 3.142
16.20000 4.844
16.22000 11.079
16.24000 6.929
16.26000 8.327
16.28000 7.228
16.30000 10.615
16.32000 2.351
16.34000 7.137
16.36000 5.777
16.38000 0.256
16.40000 0.349
16.42000 6.338
16.44000 4.173
16.46000 2.935
16.48000 -2.283
16.50000 2.297
16.52000 0.047
16.54000 8.194
16.56000 9.349
16.58000 11.856
16.60000 1.673
16.62000 4.857
16.64000 6.968
16.66000 3.357
16.68000 -1.201
16.70000 -0.620
16.72000 -4.412
16.74000 8.562
16.76000 10.592
16.78000 7.155
16.80000 2.434
16.82000 -2.986
16.84000 7.166
16.86000 7.788
16.88000 11.479
16.90000 10.471
16.92000 10.686
16.94000 13.027
16.96000 10.576
16.98000 8.089
17.00000 3.318
17.02000 7.605
17.04000 15.237
17.06000 14.184
17.08000 10.449
17.10000 0.474
17.12000 0.487
17.14000 2.381
17.16000 0.672
17.18000 -0.804
17.20000 -3.725
17.22000 4.851
17.24000 3.191
17.26000 6.910
17.28000 9.525
17.30000 -1.395
17.32000 -1.378
17.34000 7.714
17.36000 2.397
17.38000 3.790
17.40000 3.901
17.42000 2.040
17.44000 2.140
17.46000 4.988
17.48000 3.735
17.50000 2.901
17.52000 0.643
17.54000 2.091
17.56000 3.689
17.58000 9.041
17.60000 5.401
17.62000 2.854
17.64000 7.769
17.66000 6.468
17.68000 4.255
17.70000 -1.176
17.72000 3.606
17.74000 6.400
17.76000 6.150
17.78000 0.085
17.80000 -2.195
17.82000 3.900
17.84000 3.504
17.86000 5.780
17.88000 10.239
17.90000 3.385
17.92000 0.546
17.94000 12.708
17.96000 5.416
17.98000 -0.260
18.00000 -3.563
18.02000 3.114
18.04000 -0.047
18.06000 4.024
18.08000 12.191
18.10000 11.278
18.12000 7.779
18.14000 6.143
18.16000 7.260
18.18000 3.595
18.20000 5.888
18.22000 -2.869
18.24000 -0.220
18.26000 1.532
18.28000 -0.524
18.30000 1.146
18.32000 -2.262
18.34000 -2.694
18.36000 6.449
18.38000 0.964
18.40000 1.574
18.42000 5.234
18.44000 -0.266
18.46000 0.796
18.48000 7.515
18.50000 0.793
18.52000 -4.303
18.54000 0.088
18.56000 10.554
18.58000 4.220
18.60000 1.098
18.62000 4.878
18.64000 4.787
18.66000 12.535
18.68000 11.285
18.70000 0.438
18.72000 -2.095
18.74000 4.052
18.76000 -2.425
18.78000 -0.961
18.80000 5.065
18.82000 13.378
18.84000 15.721
18.86000 14.335
18.88000 6.283
18.90000 0.136
18.92000 -1.887
18.94000 4.804
18.96000 5.893
18.98000 3.891
19.00000 5.484
19.02000 4.096
19.04000 2.659
19.06000 4.828
19.08000 1.694
19.10000 8.516
19.12000 5.096
19.14000 1.053
19.16000 3.980
19.18000 8.855
19.20000 15.916
19.22000 6.860
19.24000 0.679
19.26000 5.863
19.28000 3.354
19.30000 -1.602
19.32000 2.634
19.34000 6.046
19.36000 -0.133
19.38000 -4.269
19.40000 1.397
19.42000 -1.469
19.44000 2.163
19.46000 15.204
19.48000 8.317
19.50000 4.782
19.52000 1.737
19.54000 1.446
19.56000 1.671
19.58000 -0.297
19.60000 -1.116
19.62000 -1.274
19.64000 0.144
19.66000 -0.588
19.68000 -1.795
19.70000 -2.216
19.72000 -0.735
19.74000 0.359
19.76000 8.549
19.78000 4.608
19.80000 0.252
19.82000 -1.904
19.84000 1.467
19.86000 -0.476
19.88000 2.749
19.90000 2.373
19.92000 2.930
19.94000 1.483
19.96000 6.369
19.98000 3.436
20.00000 3.386
20.02000 0.469
20.04000 2.146
20.06000 1.355
20.08000 -1.630
20.10000 -2.349
20.12000 -0.236
20.14000 5.488
20.16000 11.976
20.18000 8.742
20.20000 6.351
20.22000 7.495
20.24000 4.173
20.26000 5.845
20.28000 -1.618
20.30000 1.694
20.32000 3.124
20.34000 -1.618
20.36000 0.028
20.38000 0.617
20.40000 -0.513
20.42000 0.604
20.44000 1.032
20.46000 3.547
20.48000 6.250
20.50000 1.253
20.52000 -0.147
20.54000 -1.647
20.56000 10.057
20.58000 8.613
20.60000 5.076
20.62000 4.853
20.64000 8.198
20.66000 10.168
20.68000 2.858
20.70000 2.849
20.72000 6.587
20.74000 0.171
20.76000 -1.993
20.78000 2.875
20.80000 4.554
20.82000 3.568
20.84000 1.537
20.86000 0.301
20.88000 -4.175
20.90000 3.358
20.92000 2.738
20.94000 1.788
20.96000 -0.760
20.98000 1.536
21.00000 5.550
21.02000 4.863
21.04000 3.837
21.06000 2.298
21.08000 5.955
21.10000 1.843
21.12000 -0.583
21.14000 10.088
21.16000 9.498
21.18000 9.557
21.20000 1.155
21.22000 -3.668
21.24000 0.167
21.26000 -2.089
21.28000 4.981
21.30000 5.131
21.32000 0.862
21.34000 1.507
21.36000 5.512
21.38000 8.312
21.40000 3.258
21.42000 6.095
21.44000 6.812
21.46000 6.575
21.48000 9.279
21.50000 0.412
21.52000 -3.774
21.54000 0.340
21.56000 7.244
21.58000 4.264
21.60000 0.014
21.62000 -1.609
21.64000 2.622
21.66000 6.404
21.68000 -0.477
21.70000 9.730
21.72000 6.960
21.74000 6.530
21.76000 1.306
21.78000 5.039
21.80000 6.741
21.82000 5.702
21.84000 8.778
21.86000 5.913
21.88000 6.657
21.90000 5.667
21.92000 3.202
21.94000 3.609
21.96000 6.583
21.98000 6.256
22.00000 4.548
22.02000 4.347
22.04000 3.324
22.06000 2.352
22.08000 0.179
22.10000 3.051
22.12000 8.208
22.14000 9.513
22.16000 10.230
22.18000 8.454
22.20000 1.575
22.22000 -0.074
22.24000 5.387
22.26000 8.256
22.28000 8.926
22.30000 6.639
22.32000 7.666
22.34000 1.659
22.36000 3.546
22.38000 4.257
22.40000 0.758
22.42000 -0.577
22.44000 3.509
22.46000 2.889
22.48000 -2.665
22.50000 3.730
22.52000 10.982
22.54000 9.450
22.56000 -4.073
22.58000 -4.071
22.60000 3.570
22.62000 10.263
22.64000 9.524
22.66000 3.355
22.68000 2.547
22.70000 3.484
22.72000 9.257
22.74000 9.479
22.76000 7.719
22.78000 10.560
22.80000 7.156
22.82000 4.105
22.84000 2.273
22.86000 8.494
22.88000 4.272
22.90000 5.426
22.92000 5.611
22.94000 4.822
22.96000 2.581
22.98000 6.734
23.00000 11.912
23.02000 8.618
23.04000 5.733
23.06000 0.712
23.08000 -0.657
23.10000 -2.703
23.12000 -0.404
23.14000 0.527
23.16000 4.373
23.18000 5.830
23.20000 8.848
23.22000 7.330
23.24000 5.698
23.26000 3.098
23.28000 4.221
23.30000 6.027
23.32000 9.061
23.34000 3.336
23.36000 0.986
23.38000 9.787
23.40000 15.925
23.42000 12.034
23.44000 9.803
23.46000 0.753
23.48000 -3.848
23.50000 -0.692
23.52000 2.540
23.54000 11.296
23.56000 12.713
23.58000 12.740
23.60000 12.703
23.62000 2.257
23.64000 -0.302
23.66000 4.672
23.68000 7.764
23.70000 12.780
23.72000 8.737
23.74000 7.179
23.76000 7.706
23.78000 8.019
23.80000 8.925
23.82000 10.337
23.84000 9.093
23.86000 13.465
23.88000 8.636
23.90000 7.642
23.92000 8.851
23.94000 8.147
23.96000 7.258
23.98000 8.207
24.00000 6.383
24.02000 9.358
24.04000 11.598
24.06000 13.296
24.08000 9.334
24.10000 10.578
24.12000 6.175
24.14000 6.292
24.16000 -3.948
24.18000 -2.221
24.20000 2.640
24.22000 9.523
24.24000 0.813
24.26000 0.326
24.28000 5.919
24.30000 11.831
24.32000 15.925
24.34000 9.325
24.36000 10.010
24.38000 11.298
24.40000 7.315
24.42000 10.039
24.44000 10.231
24.46000 6.354
24.48000 4.353
24.50000 4.608
24.52000 5.808
24.54000 7.123
24.56000 10.704
24.58000 13.855
24.60000 10.081
24.62000 5.421
24.64000 9.254
24.66000 6.005
24.68000 7.162
24.70000 11.319
24.72000 5.830
24.74000 6.163
24.76000 6.933
24.78000 6.605
24.80000 5.239
24.82000 0.745
24.84000 1.671
24.86000 2.284
24.88000 4.989
24.90000 6.027
24.92000 3.715
24.94000 0.885
24.96000 -2.617
24.98000 -0.334
25.00000 2.333
25.02000 3.725
25.04000 7.545
25.06000 6.564
25.08000 6.379
25.10000 8.906
25.12000 10.216
25.14000 7.707
25.16000 7.281
25.18000 5.133
25.20000 4.807
25.22000 -0.145
25.24000 0.879
25.26000 4.618
25.28000 -3.920
25.30000 -0.383
25.32000 6.963
25.34000 11.390
25.36000 5.232
25.38000 2.728
25.40000 0.045
25.42000 3.445
25.44000 7.698
25.46000 2.976
25.48000 -1.795
25.50000 -2.571
25.52000 4.279
25.54000 5.892
25.56000 4.118
25.58000 1.752
25.60000 4.068
25.62000 -2.557
25.64000 0.474
25.66000 -1.060
25.68000 7.113
25.70000 6.437
25.72000 2.077
25.74000 5.776
25.76000 8.584
25.78000 6.253
25.80000 3.951
25.82000 6.460
25.84000 5.843
25.86000 -0.121
25.88000 2.559
25.90000 1.224
25.92000 2.432
25.94000 -3.630
25.96000 6.940
25.98000 6.289
26.00000 2.992
26.02000 7.347
26.04000 9.488
26.06000 1.849
26.08000 6.165
26.10000 6.951
26.12000 8.038
26.14000 7.065
26.16000 3.221
26.18000 2.105
26.20000 5.270
26.22000 3.215
26.24000 3.381
26.26000 -0.837
26.28000 0.536
26.30000 1.320
26.32000 0.492
26.34000 2.101
26.36000 2.124
26.38000 2.749
26.40000 1.561
26.42000 2.678
26.44000 4.002
26.46000 2.032
26.48000 2.413
26.50000 1.818
26.52000 -0.762
26.54000 -0.416
26.56000 4.879
26.58000 3.269
26.60000 -0.615
26.62000 2.181
26.64000 5.100
26.66000 3.104
26.68000 -1.144
26.70000 0.263
26.72000 5.458
26.74000 4.269
26.76000 -3.434
26.78000 -1.734
26.80000 7.379
26.82000 4.631
26.84000 -1.766
26.86000 1.163
26.88000 5.013
26.90000 9.922
26.92000 8.237
26.94000 7.704
26.96000 8.234
26.98000 4.903
27.00000 4.733
27.02000 2.220
27.04000 -1.844
27.06000 2.949
27.08000 -0.530
27.10000 2.657
27.12000 -0.521
27.14000 -1.777
27.16000 0.622
27.18000 3.076
27.20000 4.784
27.22000 3.111
27.24000 7.351
27.26000 0.535
27.28000 -3.832
27.30000 0.867
27.32000 1.534
27.34000 -0.701
27.36000 -0.747
27.38000 5.774
27.40000 8.645
27.42000 7.673
27.44000 4.609
27.46000 2.709
27.48000 6.792
27.50000 5.172
27.52000 1.087
27.54000 -1.132
27.56000 2.950
27.58000 4.346
27.60000 3.837
27.62000 -2.077
27.64000 -3.802
27.66000 1.446
27.68000 4.677
27.70000 4.565
27.72000 6.292
27.74000 6.139
27.76000 5.574
27.78000 2.010
27.80000 2.260
27.82000 6.212
27.84000 5.288
27.86000 3.954
27.88000 4.686
27.90000 3.261
27.92000 0.428
27.94000 4.353
27.96000 12.829
27.98000 8.963
28.00000 0.648
28.02000 2.186
28.04000 2.639
28.06000 0.704
28.08000 3.915
28.10000 3.409
28.12000 1.583
28.14000 -2.473
28.16000 1.100
28.18000 3.581
28.20000 2.490
28.22000 3.976
28.24000 7.886
28.26000 5.432
28.28000 -1.163
28.30000 5.139
28.32000 2.664
28.34000 -0.727
28.36000 -3.361
28.38000 -2.876
28.40000 -0.594
28.42000 2.924
28.44000 2.627
28.46000 5.581
28.48000 2.804
28.50000 2.738
28.52000 0.984
28.54000 2.642
28.56000 -2.000
28.58000 2.158
28.60000 4.952
28.62000 6.831
28.64000 7.470
28.66000 1.288
28.68000 0.714
28.70000 1.368
28.72000 -0.486
28.74000 -3.768
28.76000 0.980
28.78000 4.742
28.80000 5.653
28.82000 4.504
28.84000 4.263
28.86000 3.838
28.88000 5.228
28.90000 7.493
28.92000 3.161
28.94000 1.165
28.96000 6.701
28.98000 5.876
29.00000 2.617
29.02000 -2.094
29.04000 -3.372
29.06000 1.808
29.08000 3.277
29.10000 5.120
29.12000 2.658
29.14000 5.460
29.16000 2.282
29.18000 2.964
29.20000 5.872
29.22000 11.697
29.24000 6.254
29.26000 1.544
29.28000 6.826
29.30000 8.726
29.32000 6.396
29.34000 7.482
29.36000 11.118
29.38000 8.654
29.40000 8.124
29.42000 0.972
29.44000 -3.727
29.46000 1.344
29.48000 1.555
29.50000 0.597
29.52000 -1.307
29.54000 -2.139
29.56000 9.775
29.58000 9.384
29.60000 5.050
29.62000 0.400
29.64000 0.059
29.66000 5.479
29.68000 4.091
29.70000 4.195
29.72000 1.757
29.74000 1.282
29.76000 2.731
29.78000 -1.084
29.80000 -2.542
29.82000 3.120
29.84000 7.901
29.86000 2.942
29.88000 -0.688
29.90000 2.027
29.92000 2.912
29.94000 2.846
29.96000 -0.003
29.98000 -0.486
30.00000 1.896
30.02000 3.690
30.04000 -0.420
30.06000 4.857
30.08000 3.151
30.10000 2.798
30.12000 6.349
30.14000 2.640
30.16000 2.630
30.18000 5.690
30.20000 2.942
30.22000 3.609
30.24000 3.200
30.26000 4.026
30.28000 3.410
30.30000 -1.007
30.32000 0.016
30.34000 2.428
30.36000 1.086
30.38000 -3.694
30.40000 -0.605
30.42000 3.430
30.44000 -2.564
30.46000 0.128
30.48000 2.221
30.50000 2.259
30.52000 2.156
30.54000 1.381
30.56000 -1.510
30.58000 -2.704
30.60000 -0.107
30.62000 0.650
30.64000 1.464
30.66000 0.209
30.68000 1.593
30.70000 3.239
30.72000 -3.473
30.74000 0.119
30.76000 2.008
30.78000 3.765
30.80000 5.551
30.82000 0.354
30.84000 -0.446
30.86000 0.835
30.88000 2.249
30.90000 3.483
30.92000 5.969
30.94000 7.014
30.96000 -0.923
30.98000 -2.274
31.00000 -3.517
31.02000 1.319
31.04000 5.169
31.06000 7.515
31.08000 1.059
31.10000 5.043
31.12000 3.019
31.14000 0.003
31.16000 2.685
31.18000 5.341
31.20000 4.674
31.22000 3.929
31.24000 1.505
31.26000 -0.080
31.28000 4.546
31.30000 5.708
31.32000 2.145
31.34000 0.917
31.36000 -3.630
31.38000 -2.153
31.40000 -3.134
31.42000 1.997
31.44000 1.256
31.46000 2.771
31.48000 2.690
31.50000 2.530
31.52000 4.151
31.54000 5.577
31.56000 5.524
31.58000 3.784
31.60000 5.745
31.62000 1.603
31.64000 5.526
31.66000 10.832
31.68000 6.261
31.70000 1.777
31.72000 4.413
31.74000 4.513
31.76000 2.883
31.78000 1.636
31.80000 1.917
31.82000 4.497
31.84000 4.855
31.86000 -2.441
31.88000 -0.728
31.90000 6.930
31.92000 5.632
31.94000 4.930
31.96000 2.895
31.98000 0.484
32.00000 0.775
32.02000 5.602
32.04000 4.745
32.06000 1.037
32.08000 3.142
32.10000 -0.023
32.12000 -0.397
32.14000 1.243
32.16000 -2.732
32.18000 -1.030
32.20000 5.521
32.22000 5.056
32.24000 7.251
32.26000 10.753
32.28000 7.027
32.30000 6.331
32.32000 9.111
32.34000 7.044
32.36000 1.599
32.38000 4.686
32.40000 -3.600
32.42000 -3.361
32.44000 -1.579
32.46000 -0.979
32.48000 3.999
32.50000 5.193
32.52000 1.294
32.54000 -1.983
32.56000 -0.840
32.58000 -1.571
32.60000 2.688
32.62000 2.636
32.64000 3.175
32.66000 6.472
32.68000 5.066
32.70000 5.819
32.72000 6.113
32.74000 10.097
32.76000 4.617
32.78000 5.735
32.80000 5.267
32.82000 4.327
32.84000 3.522
32.86000 5.994
32.88000 4.245
32.90000 4.969
32.92000 9.188
32.94000 9.380
32.96000 0.792
32.98000 -2.760
33.00000 -0.469
33.02000 2.405
33.04000 7.054
33.06000 0.391
33.08000 -0.824
33.10000 -3.587
33.12000 4.609
33.14000 5.996
33.16000 -2.443
33.18000 -1.088
33.20000 0.644
33.22000 1.123
33.24000 3.626
33.26000 5.429
33.28000 7.291
33.30000 8.395
33.32000 2.914
33.34000 3.477
33.36000 2.502
33.38000 2.293
33.40000 4.567
33.42000 3.630
33.44000 2.042
33.46000 7.311
33.48000 13.943
33.50000 5.775
33.52000 5.631
33.54000 5.739
33.56000 5.470
33.58000 3.712
33.60000 2.426
33.62000 6.813
33.64000 4.824
33.66000 2.369
33.68000 4.698
33.70000 2.342
33.72000 -1.288
33.74000 0.777
33.76000 3.969
33.78000 5.222
33.80000 9.804
33.82000 3.372
33.84000 2.774
33.86000 3.550
33.88000 2.822
33.90000 2.264
33.92000 2.820
33.94000 -0.217
33.96000 0.192
33.98000 1.689
34.00000 1.617
34.02000 -0.348
34.04000 4.572
34.06000 6.213
34.08000 2.530
34.10000 -0.629
34.12000 3.156
34.14000 2.508
34.16000 3.484
34.18000 3.228
34.20000 4.438
34.22000 3.677
34.24000 1.859
34.26000 2.588
34.28000 5.476
34.30000 9.228
34.32000 3.693
34.34000 3.307
34.36000 4.681
34.38000 3.087
34.40000 1.445
34.42000 7.303
34.44000 3.265
34.46000 4.177
34.48000 -0.224
34.50000 1.536
34.52000 10.301
34.54000 4.405
34.56000 1.656
34.58000 0.249
34.60000 0.331
34.62000 5.884
34.64000 3.285
34.66000 4.613
34.68000 2.883
34.70000 -1.198
34.72000 -2.701
34.74000 -2.225
34.76000 -3.589
34.78000 0.890
34.80000 0.656
34.82000 -0.921
34.84000 5.654
34.86000 7.544
34.88000 3.240
34.90000 7.338
34.92000 5.233
34.94000 4.268
34.96000 3.786
34.98000 3.000
35.00000 1.471
35.02000 0.830
35.04000 1.188
35.06000 2.383
35.08000 1.428
35.10000 4.054
35.12000 5.168
35.14000 3.938
35.16000 2.955
35.18000 3.677
35.20000 2.024
35.22000 3.240
35.24000 2.941
35.26000 1.032
35.28000 3.495
35.30000 3.917
35.32000 0.090
35.34000 3.026
35.36000 5.427
35.38000 5.714
35.40000 1.441
35.42000 3.522
35.44000 7.008
35.46000 7.236
35.48000 4.775
35.50000 2.323
35.52000 -3.562
35.54000 0.945
35.56000 1.989
35.58000 3.048
35.60000 4.996
35.62000 5.078
35.64000 7.851
35.66000 3.868
35.68000 0.186
35.70000 -2.246
35.72000 -1.627
35.74000 -1.595
35.76000 1.548
35.78000 6.986
35.80000 0.329
35.82000 1.934
35.84000 0.648
35.86000 0.467
35.88000 4.563
35.90000 3.971
35.92000 3.587
35.94000 2.548
35.96000 0.309
35.98000 0.808
36.00000 2.267
36.02000 2.689
36.04000 3.819
36.06000 -1.733
36.08000 -2.862
36.10000 -2.478
36.12000 0.956
36.14000 1.996
36.16000 4.579
36.18000 8.454
36.20000 2.027
36.22000 2.366
36.24000 2.276
36.26000 1.500
36.28000 -2.424
36.30000 1.788
36.32000 -1.372
36.34000 0.861
36.36000 2.870
36.38000 2.399
36.40000 -0.309
36.42000 2.906
36.44000 8.901
36.46000 6.130
36.48000 6.262
36.50000 4.269
36.52000 4.037
36.54000 7.489
36.56000 5.368
36.58000 3.380
36.60000 5.147
36.62000 0.599
36.64000 5.278
36.66000 5.296
36.68000 -0.007
36.70000 1.596
36.72000 4.423
36.74000 3.557
36.76000 4.639
36.78000 5.708
36.80000 4.922
36.82000 4.263
36.84000 6.194
36.86000 9.370
36.88000 7.222
36.90000 8.522
36.92000 10.282
36.94000 6.818
36.96000 7.368
36.98000 2.556
37.00000 0.461
37.02000 5.579
37.04000 12.660
37.06000 8.728
37.08000 9.979
37.10000 10.517
37.12000 8.798
37.14000 10.086
37.16000 8.332
37.18000 9.895
37.20000 9.667
37.22000 14.090
37.24000 15.893
37.26000 14.758
37.28000 14.826
37.30000 11.138
37.32000 9.562
37.34000 9.652
37.36000 10.537
37.38000 12.567
37.40000 12.432
37.42000 16.321
37.44000 17.047
37.46000 17.263
37.48000 20.021
37.50000 17.971
37.52000 18.334
37.54000 18.444
37.56000 17.029
37.58000 17.948
37.60000 21.432
37.62000 23.883
37.64000 24.346
37.66000 17.564
37.68000 20.205
37.70000 19.973
37.72000 23.331
37.74000 26.541
37.76000 26.507
37.78000 23.973
37.80000 29.650
37.82000 29.086
37.84000 28.918
37.86000 25.068
37.88000 28.109
37.90000 30.640
37.92000 37.327
37.94000 35.538
37.96000 34.839
37.98000 35.738
38.00000 40.709
38.02000 40.012
38.04000 40.341
38.06000 45.312
38.08000 42.603
38.10000 40.441
38.12000 41.230
38.14000 46.813
38.16000 50.712
38.18000 57.195
38.20000 55.779
38.22000 61.840
38.24000 64.038
38.26000 61.144
38.28000 67.638
38.30000 71.047
38.32000 71.109
38.34000 75.677
38.36000 75.192
38.38000 80.170
38.40000 80.837
38.42000 84.985
38.44000 91.229
38.46000 93.198
38.48000 95.693
38.50000 104.833
38.52000 111.867
38.54000 119.850
38.56000 129.678
38.58000 133.797
38.60000 144.448
38.62000 155.696
38.64000 160.216
38.66000 171.785
38.68000 181.419
38.70000 201.550
38.72000 211.769
38.74000 224.851
38.76000 235.980
38.78000 250.013
38.80000 262.764
38.82000 269.943
38.84000 287.478
38.86000 301.946
38.88000 312.896
38.90000 324.528
38.92000 331.454
38.94000 347.442
38.96000 358.541
38.98000 367.112
39.00000 368.188
39.02000 375.085
39.04000 381.896
39.06000 390.312
39.08000 380.179
39.10000 378.652
39.12000 377.611
39.14000 375.490
39.16000 378.998
39.18000 371.100
39.20000 365.730
39.22000 353.880
39.24000 349.485
39.26000 334.371
39.28000 325.410
39.30000 319.156
39.32000 300.882
39.34000 282.088
39.36000 273.826
39.38000 256.087
39.40000 241.553
39.42000 232.095
39.44000 219.021
39.46000 203.329
39.48000 195.187
39.50000 181.102
39.52000 173.001
39.54000 157.058
39.56000 153.655
39.58000 142.894
39.60000 137.982
39.62000 125.071
39.64000 110.883
39.66000 96.756
39.68000 90.758
39.70000 94.532
39.72000 95.046
39.74000 91.456
39.76000 87.695
39.78000 78.794
39.80000 74.584
39.82000 72.914
39.84000 69.357
39.86000 61.430
39.88000 57.506
39.90000 58.359
39.92000 52.104
39.94000 49.655
39.96000 47.949
39.98000 51.291
40.00000 45.880
40.02000 43.227
40.04000 39.336
40.06000 37.273
40.08000 38.234
40.10000 40.031
40.12000 32.270
40.14000 30.898
40.16000 32.517
40.18000 30.923
40.20000 32.469
40.22000 30.756
40.24000 26.442
40.26000 21.575
40.28000 24.217
40.30000 21.233
40.32000 18.928
40.34000 19.058
40.36000 20.160
40.38000 22.533
40.40000 25.882
40.42000 21.387
40.44000 25.382
40.46000 20.755
40.48000 20.528
40.50000 19.221
40.52000 20.303
40.54000 17.131
40.56000 15.159
40.58000 13.003
40.60000 15.885
40.62000 10.743
40.64000 8.409
40.66000 11.948
40.68000 15.433
40.70000 15.189
40.72000 14.214
40.74000 14.687
40.76000 10.459
40.78000 10.038
40.80000 11.832
40.82000 9.342
40.84000 9.442
40.86000 4.875
40.88000 5.296
40.90000 4.729
40.92000 8.633
40.94000 8.095
40.96000 6.141
40.98000 4.624
41.00000 4.683
41.02000 3.096
41.04000 6.083
41.06000 7.398
41.08000 7.700
41.10000 6.444
41.12000 2.832
41.14000 6.706
41.16000 8.808
41.18000 3.094
41.20000 3.904
41.22000 2.626
41.24000 1.661
41.26000 5.176
41.28000 4.754
41.30000 3.315
41.32000 4.523
41.34000 -1.588
41.36000 -3.510
41.38000 3.335
41.40000 5.538
41.42000 3.545
41.44000 2.162
41.46000 4.779
41.48000 4.542
41.50000 7.153
41.52000 -1.474
41.54000 1.096
41.56000 2.738
41.58000 3.913
41.60000 2.766
41.62000 1.106
41.64000 0.710
41.66000 2.460
41.68000 -1.574
41.70000 -0.092
41.72000 2.185
41.74000 -3.199
41.76000 -3.031
41.78000 -1.221
41.80000 2.992
41.82000 -3.222
41.84000 -0.643
41.86000 -0.593
41.88000 1.464
41.90000 4.331
41.92000 2.295
41.94000 -2.886
41.96000 -2.500
41.98000 0.006
42.00000 4.738
42.02000 0.891
42.04000 -2.721
42.06000 0.761
42.08000 -1.047
42.10000 -0.843
42.12000 -1.698
42.14000 0.628
42.16000 1.341
42.18000 2.995
42.20000 -1.541
42.22000 0.007
42.24000 -2.316
42.26000 2.189
42.28000 -0.053
42.30000 -1.092
42.32000 -1.910
42.34000 -0.987
42.36000 1.339
42.38000 1.452
42.40000 -1.106
42.42000 1.034
42.44000 -0.047
42.46000 -3.382
42.48000 -1.149
42.50000 2.415
42.52000 0.328
42.54000 2.528
42.56000 2.221
42.58000 1.578
42.60000 -0.910
42.62000 -1.032
42.64000 -0.395
42.66000 0.494
42.68000 1.178
42.70000 -0.659
42.72000 -0.630
42.74000 2.562
42.76000 2.758
42.78000 -0.890
42.80000 -0.929
42.82000 2.077
42.84000 5.268
42.86000 4.035
42.88000 2.548
42.90000 0.226
42.92000 1.582
42.94000 1.131
42.96000 3.074
42.98000 1.543
43.00000 -3.305
43.02000 -2.816
43.04000 1.124
43.06000 4.866
43.08000 1.249
43.10000 -1.074
43.12000 2.191
43.14000 1.805
43.16000 3.481
43.18000 1.141
43.20000 0.261
43.22000 0.989
43.24000 3.416
43.26000 2.175
43.28000 3.479
43.30000 -0.104
43.32000 3.022
43.34000 2.323
43.36000 2.051
43.38000 -3.257
43.40000 -0.960
43.42000 1.848
43.44000 6.682
43.46000 5.296
43.48000 0.384
43.50000 2.453
43.52000 1.770
43.54000 3.587
43.56000 3.570
43.58000 -0.727
43.60000 0.501
43.62000 4.017
43.64000 2.802
43.66000 3.223
43.68000 1.382
43.70000 2.553
43.72000 0.080
43.74000 -0.627
43.76000 0.458
43.78000 2.375
43.80000 1.978
43.82000 3.487
43.84000 1.996
43.86000 4.300
43.88000 1.473
43.90000 0.884
43.92000 -0.600
43.94000 0.997
43.96000 2.492
43.98000 -1.141
44.00000 -1.626
44.02000 0.055
44.04000 2.306
44.06000 4.763
44.08000 4.134
44.10000 4.624
44.12000 3.763
44.14000 4.179
44.16000 2.973
44.18000 2.203
44.20000 1.848
44.22000 6.346
44.24000 5.191
44.26000 2.327
44.28000 3.422
44.30000 4.169
44.32000 4.438
44.34000 3.604
44.36000 0.322
44.38000 3.066
44.40000 5.349
44.42000 7.003
44.44000 5.421
44.46000 3.145
44.48000 3.382
44.50000 6.459
44.52000 6.713
44.54000 8.157
44.56000 12.252
44.58000 10.767
44.60000 13.027
44.62000 13.423
44.64000 6.703
44.66000 10.437
44.68000 14.366
44.70000 14.809
44.72000 13.168
44.74000 18.257
44.76000 15.107
44.78000 12.298
44.80000 13.792
44.82000 20.430
44.84000 19.884
44.86000 19.655
44.88000 20.467
44.90000 22.158
44.92000 24.810
44.94000 27.443
44.96000 26.830
44.98000 30.033
45.00000 28.812
45.02000 32.143
45.04000 33.167
45.06000 38.168
45.08000 43.765
45.10000 41.821
45.12000 40.706
45.14000 44.253
45.16000 44.615
45.18000 43.621
45.20000 46.838
45.22000 46.647
45.24000 48.483
45.26000 52.427
45.28000 51.707
45.30000 55.208
45.32000 59.299
45.34000 62.192
45.36000 64.654
45.38000 61.568
45.40000 67.080
45.42000 70.086
45.44000 68.236
45.46000 72.605
45.48000 68.836
45.50000 72.144
45.52000 76.608
45.54000 74.812
45.56000 74.552
45.58000 72.230
45.60000 74.054
45.62000 75.003
45.64000 77.657
45.66000 79.803
45.68000 77.711
45.70000 70.273
45.72000 69.367
45.74000 65.735
45.76000 69.400
45.78000 71.097
45.80000 67.343
45.82000 62.804
45.84000 56.223
45.86000 55.024
45.88000 53.462
45.90000 57.329
45.92000 62.515
45.94000 60.456
45.96000 52.363
45.98000 49.165
46.00000 47.694
46.02000 42.676
46.04000 42.686
46.06000 43.325
46.08000 39.220
46.10000 38.935
46.12000 33.959
46.14000 28.517
46.16000 25.611
46.18000 25.235
46.20000 30.634
46.22000 27.988
46.24000 22.826
46.26000 18.678
46.28000 17.391
46.30000 19.342
46.32000 18.654
46.34000 18.604
46.36000 13.685
46.38000 13.494
46.40000 12.934
46.42000 12.378
46.44000 9.515
46.46000 7.847
46.48000 6.118
46.50000 6.452
46.52000 5.360
46.54000 5.394
46.56000 4.779
46.58000 4.032
46.60000 4.921
46.62000 9.272
46.64000 8.719
46.66000 2.535
46.68000 2.915
46.70000 7.591
46.72000 2.962
46.74000 1.927
46.76000 3.585
46.78000 2.930
46.80000 4.338
46.82000 5.333
46.84000 1.904
46.86000 -2.022
46.88000 0.509
46.90000 6.722
46.92000 8.112
46.94000 5.557
46.96000 6.626
46.98000 1.258
47.00000 1.652
47.02000 2.640
47.04000 1.291
47.06000 -2.890
47.08000 -0.260
47.10000 3.184
47.12000 -0.612
47.14000 -2.851
47.16000 4.185
47.18000 5.791
47.20000 4.663
47.22000 4.506
47.24000 1.623
47.26000 -1.318
47.28000 -2.213
47.30000 -0.541
47.32000 0.740
47.34000 2.597
47.36000 4.510
47.38000 7.567
47.40000 1.646
47.42000 -2.850
47.44000 -1.374
47.46000 2.967
47.48000 4.898
47.50000 -1.137
47.52000 1.279
47.54000 1.249
47.56000 -0.265
47.58000 1.804
47.60000 2.714
47.62000 4.600
47.64000 5.778
47.66000 2.158
47.68000 3.424
47.70000 1.652
47.72000 1.735
47.74000 3.367
47.76000 2.637
47.78000 4.205
47.80000 3.069
47.82000 2.221
47.84000 4.105
47.86000 2.753
47.88000 5.651
47.90000 3.118
47.92000 2.545
47.94000 3.227
47.96000 3.843
47.98000 2.693
48.00000 2.680
48.02000 1.091
48.04000 3.884
48.06000 3.793
48.08000 1.633
48.10000 5.077
48.12000 3.876
48.14000 1.515
48.16000 0.725
48.18000 1.785
48.20000 -2.228
48.22000 0.719
48.24000 1.992
48.26000 2.354
48.28000 1.088
48.30000 2.583
48.32000 5.807
48.34000 4.786
48.36000 2.979
48.38000 2.705
48.40000 0.505
48.42000 -2.757
48.44000 1.657
48.46000 1.925
48.48000 3.922
48.50000 1.783
48.52000 3.556
48.54000 1.418
48.56000 -0.692
48.58000 2.016
48.60000 0.027
48.62000 1.066
48.64000 0.081
48.66000 1.300
48.68000 3.114
48.70000 2.783
48.72000 1.823
48.74000 1.289
48.76000 -1.263
48.78000 2.541
48.80000 -0.332
48.82000 -0.826
48.84000 2.345
48.86000 4.906
48.88000 5.668
48.90000 1.915
48.92000 4.663
48.94000 3.776
48.96000 3.666
48.98000 7.286
49.00000 3.301
49.02000 0.162
49.04000 5.041
49.06000 2.025
49.08000 0.216
49.10000 4.386
49.12000 8.109
49.14000 6.971
49.16000 2.233
49.18000 1.703
49.20000 -2.668
49.22000 2.059
49.24000 3.500
49.26000 6.133
49.28000 5.001
49.30000 7.142
49.32000 6.189
49.34000 5.887
49.36000 7.171
49.38000 8.987
49.40000 10.115
49.42000 7.238
49.44000 6.897
49.46000 4.886
49.48000 6.736
49.50000 7.834
49.52000 6.691
49.54000 3.520
49.56000 4.424
49.58000 3.535
49.60000 2.419
49.62000 3.564
49.64000 2.495
49.66000 0.331
49.68000 1.810
49.70000 1.829
49.72000 2.840
49.74000 4.198
49.76000 4.895
49.78000 5.565
49.80000 4.491
49.82000 3.873
49.84000 4.173
49.86000 5.902
49.88000 7.942
49.90000 6.818
49.92000 2.833
49.94000 -2.402
49.96000 0.738
49.98000 1.186
50.00000 3.128
50.02000 -0.002
50.04000 1.461
50.06000 5.192
50.08000 6.828
50.10000 5.367
50.12000 5.355
50.14000 3.323
50.16000 2.884
50.18000 0.242
50.20000 1.660
50.22000 2.316
50.24000 1.174
50.26000 -0.578
50.28000 -0.385
50.30000 1.249
50.32000 1.823
50.34000 4.841
50.36000 2.588
50.38000 1.592
50.40000 0.910
50.42000 2.010
50.44000 2.013
50.46000 -0.138
50.48000 -1.311
50.50000 3.926
50.52000 3.235
50.54000 1.179
50.56000 0.718
50.58000 1.131
50.60000 -1.234
50.62000 -2.100
50.64000 3.902
50.66000 3.369
50.68000 1.571
50.70000 -0.612
50.72000 0.785
50.74000 -1.929
50.76000 -2.104
50.78000 2.728
50.80000 6.602
50.82000 4.468
50.84000 1.605
50.86000 -2.643
50.88000 -1.010
50.90000 6.178
50.92000 2.450
50.94000 1.259
50.96000 3.852
50.98000 6.306
51.00000 4.718
51.02000 -0.716
51.04000 -2.300
51.06000 1.227
51.08000 7.003
51.10000 3.732
51.12000 2.583
51.14000 2.256
51.16000 4.989
51.18000 5.935
51.20000 1.995
51.22000 1.322
51.24000 -0.191
51.26000 -2.453
51.28000 3.797
51.30000 7.012
51.32000 3.902
51.34000 1.639
51.36000 3.724
51.38000 -0.624
51.40000 -1.025
51.42000 2.471
51.44000 4.429
51.46000 -1.938
51.48000 -0.293
51.50000 4.255
51.52000 0.739
51.54000 3.306
51.56000 4.061
51.58000 -2.140
51.60000 -0.373
51.62000 1.283
51.64000 -1.505
51.66000 -2.644
51.68000 -2.483
51.70000 -1.502
51.72000 4.606
51.74000 0.254
51.76000 1.904
51.78000 -2.118
51.80000 0.944
51.82000 -0.549
51.84000 -0.467
51.86000 5.595
51.88000 6.713
51.90000 4.784
51.92000 3.296
51.94000 5.010
51.96000 4.116
51.98000 -2.360
52.00000 -2.218
52.02000 3.782
52.04000 2.850
52.06000 1.891
52.08000 -2.469
52.10000 0.012
52.12000 -2.426
52.14000 -1.311
52.16000 1.368
52.18000 0.395
52.20000 -0.451
52.22000 -1.217
52.24000 -0.715
52.26000 0.946
52.28000 -0.215
52.30000 0.021
52.32000 -1.851
52.34000 0.445
52.36000 0.737
52.38000 1.165
52.40000 2.470
52.42000 4.074
52.44000 1.449
52.46000 -2.620
52.48000 2.365
52.50000 2.307
52.52000 3.610
52.54000 0.177
52.56000 1.425
52.58000 1.048
52.60000 -2.285
52.62000 -1.265
52.64000 1.189
52.66000 -1.699
52.68000 -2.232
52.70000 -0.713
52.72000 6.674
52.74000 1.595
52.76000 -2.003
52.78000 -2.609
52.80000 -0.855
52.82000 0.797
52.84000 2.225
52.86000 1.781
52.88000 1.251
52.90000 2.913
52.92000 1.592
52.94000 0.455
52.96000 0.916
52.98000 2.869
53.00000 4.477
53.02000 7.738
53.04000 1.121
53.06000 -0.315
53.08000 0.280
53.10000 1.630
53.12000 1.035
53.14000 -0.077
53.16000 2.884
53.18000 -0.069
53.20000 0.316
53.22000 1.529
53.24000 4.527
53.26000 3.531
53.28000 3.237
53.30000 0.439
53.32000 1.931
53.34000 -2.195
53.36000 -0.208
53.38000 1.633
53.40000 -1.059
53.42000 1.092
53.44000 0.419
53.46000 -0.815
53.48000 1.873
53.50000 -0.547
53.52000 1.266
53.54000 3.374
53.56000 0.637
53.58000 -1.103
53.60000 1.949
53.62000 0.394
53.64000 -2.586
53.66000 -1.485
53.68000 -0.907
53.70000 1.996
53.72000 2.933
53.74000 3.700
53.76000 4.390
53.78000 0.366
53.80000 0.110
53.82000 2.494
53.84000 3.346
53.86000 4.855
53.88000 5.544
53.90000 2.846
53.92000 -1.955
53.94000 0.117
53.96000 -0.932
53.98000 -1.348
54.00000 -0.267
54.02000 0.213
54.04000 -0.807
54.06000 1.357
54.08000 1.343
54.10000 -2.431
54.12000 -2.449
54.14000 -0.919
54.16000 1.311
54.18000 -0.555
54.20000 0.250
54.22000 -0.147
54.24000 1.555
54.26000 0.733
54.28000 3.244
54.30000 1.792
54.32000 1.266
54.34000 4.207
54.36000 3.853
54.38000 1.500
54.40000 2.082
54.42000 3.364
54.44000 2.338
54.46000 0.462
54.48000 0.189
54.50000 1.118
54.52000 4.888
54.54000 5.133
54.56000 6.193
54.58000 0.829
54.60000 -0.470
54.62000 -1.145
54.64000 0.575
54.66000 2.530
54.68000 2.585
54.70000 0.733
54.72000 2.552
54.74000 0.990
54.76000 -1.419
54.78000 -2.556
54.80000 1.072
54.82000 1.919
54.84000 -0.477
54.86000 0.652
54.88000 2.449
54.90000 5.004
54.92000 3.776
54.94000 -1.018
54.96000 0.645
54.98000 2.948
55.00000 3.306
55.02000 1.109
55.04000 0.863
55.06000 -2.082
55.08000 -0.151
55.10000 0.391
55.12000 -2.216
55.14000 1.800
55.16000 -0.682
55.18000 2.757
55.20000 4.477
55.22000 2.752
55.24000 0.120
55.26000 2.172
55.28000 2.874
55.30000 1.776
55.32000 -2.243
55.34000 -1.267
55.36000 -2.531
55.38000 -2.096
55.40000 1.134
55.42000 0.267
55.44000 4.663
55.46000 10.421
55.48000 5.714
55.50000 3.592
55.52000 1.758
55.54000 3.524
55.56000 4.536
55.58000 4.354
55.60000 4.314
55.62000 5.272
55.64000 3.274
55.66000 2.160
55.68000 3.064
55.70000 1.475
55.72000 3.726
55.74000 2.052
55.76000 -0.289
55.78000 1.354
55.80000 4.276
55.82000 2.731
55.84000 3.077
55.86000 0.008
55.88000 1.176
55.90000 2.311
55.92000 3.376
55.94000 6.283
55.96000 7.541
55.98000 2.072
56.00000 0.181
56.02000 -0.081
56.04000 3.325
56.06000 8.948
56.08000 6.713
56.10000 1.087
56.12000 0.034
56.14000 4.268
56.16000 2.884
56.18000 3.803
56.20000 1.107
56.22000 -1.837
56.24000 2.257
56.26000 4.089
56.28000 0.660
56.30000 1.143
56.32000 0.765
56.34000 1.005
56.36000 1.590
56.38000 3.588
56.40000 0.201
56.42000 1.600
56.44000 1.331
56.46000 1.643
56.48000 0.997
56.50000 1.307
56.52000 0.394
56.54000 -0.827
56.56000 5.829
56.58000 1.378
56.60000 -1.195
56.62000 -2.505
56.64000 2.536
56.66000 7.608
56.68000 7.139
56.70000 5.040
56.72000 0.478
56.74000 -2.249
56.76000 3.252
56.78000 -0.255
56.80000 -1.227
56.82000 1.686
56.84000 1.489
56.86000 2.589
56.88000 -0.750
56.90000 4.182
56.92000 2.386
56.94000 1.351
56.96000 -0.034
56.98000 0.173
57.00000 -1.607
57.02000 -0.220
57.04000 0.786
57.06000 2.908
57.08000 0.518
57.10000 1.919
57.12000 0.093
57.14000 -0.377
57.16000 -0.246
57.18000 0.145
57.20000 -1.472
57.22000 -0.600
57.24000 -0.476
57.26000 1.605
57.28000 3.167
57.30000 6.264
57.32000 4.309
57.34000 3.516
57.36000 0.146
57.38000 1.532
57.40000 4.173
57.42000 4.616
57.44000 0.116
57.46000 0.470
57.48000 0.597
57.50000 -1.898
57.52000 -2.475
57.54000 1.507
57.56000 -0.130
57.58000 2.374
57.60000 6.168
57.62000 4.978
57.64000 2.278
57.66000 1.711
57.68000 1.404
57.70000 1.313
57.72000 0.457
57.74000 0.504
57.76000 0.218
57.78000 0.255
57.80000 2.919
57.82000 0.976
57.84000 -1.134
57.86000 -0.564
57.88000 -0.971
57.90000 3.706
57.92000 1.352
57.94000 2.969
57.96000 4.032
57.98000 3.205
58.00000 4.044
58.02000 2.065
58.04000 -1.010
58.06000 0.989
58.08000 2.591
58.10000 0.236
58.12000 0.556
58.14000 -1.447
58.16000 1.715
58.18000 1.167
58.20000 -1.832
58.22000 1.363
58.24000 0.568
58.26000 -2.198
58.28000 -1.217
58.30000 -0.027
58.32000 -0.220
58.34000 1.878
58.36000 -0.249
58.38000 1.893
58.40000 3.201
58.42000 5.493
58.44000 1.630
58.46000 -1.201
58.48000 1.125
58.50000 -0.141
58.52000 6.368
58.54000 8.396
58.56000 5.082
58.58000 1.805
58.60000 2.558
58.62000 1.144
58.64000 2.180
58.66000 0.743
58.68000 5.328
58.70000 3.338
58.72000 0.305
58.74000 1.581
58.76000 1.454
58.78000 -0.248
58.80000 0.515
58.82000 2.194
58.84000 -0.858
58.86000 -0.266
58.88000 -0.967
58.90000 0.204
58.92000 3.768
58.94000 1.313
58.96000 -0.937
58.98000 1.754
59.00000 5.441
59.02000 2.540
59.04000 6.383
59.06000 3.365
59.08000 4.804
59.10000 3.022
59.12000 4.856
59.14000 6.359
59.16000 5.535
59.18000 3.699
59.20000 1.962
59.22000 4.321
59.24000 2.533
59.26000 0.270
59.28000 3.774
59.30000 6.000
59.32000 4.574
59.34000 3.166
59.36000 1.415
59.38000 1.259
59.40000 -0.148
59.42000 -2.367
59.44000 2.902
59.46000 4.379
59.48000 6.612
59.50000 7.881
59.52000 3.101
59.54000 2.538
59.56000 4.160
59.58000 5.948
59.60000 8.951
59.62000 7.050
59.64000 5.149
59.66000 6.015
59.68000 6.887
59.70000 5.132
59.72000 1.072
59.74000 0.602
59.76000 2.680
59.78000 3.336
59.80000 2.766
59.82000 3.098
59.84000 3.419
59.86000 1.355
59.88000 -0.650
59.90000 2.011
59.92000 -2.351
59.94000 -0.447
59.96000 2.236
59.98000 2.214
60.00000 0.163
60.02000 4.003
60.04000 2.386
60.06000 4.273
60.08000 2.944
60.10000 5.023
60.12000 2.255
60.14000 3.347
60.16000 4.744
60.18000 4.457
60.20000 3.929
60.22000 4.709
60.24000 1.382
60.26000 5.597
60.28000 4.823
60.30000 3.988
60.32000 8.796
60.34000 6.462
60.36000 4.760
60.38000 1.183
60.40000 5.707
60.42000 4.012
60.44000 4.935
60.46000 4.489
60.48000 3.195
60.50000 5.157
60.52000 1.877
60.54000 1.332
60.56000 0.519
60.58000 2.437
60.60000 1.593
60.62000 3.023
60.64000 1.517
60.66000 0.667
60.68000 2.480
60.70000 3.329
60.72000 0.863
60.74000 2.255
60.76000 1.785
60.78000 2.842
60.80000 2.917
60.82000 5.909
60.84000 4.631
60.86000 1.826
60.88000 2.040
60.90000 0.362
60.92000 -1.680
60.94000 -2.334
60.96000 -0.947
60.98000 1.383
61.00000 2.802
61.02000 5.681
61.04000 1.754
61.06000 2.869
61.08000 0.284
61.10000 0.522
61.12000 -1.734
61.14000 -0.416
61.16000 -2.328
61.18000 4.280
61.20000 6.558
61.22000 4.837
61.24000 4.584
61.26000 1.232
61.28000 4.264
61.30000 3.186
61.32000 3.685
61.34000 1.050
61.36000 -2.327
61.38000 2.197
61.40000 2.469
61.42000 2.282
61.44000 1.488
61.46000 4.347
61.48000 0.982
61.50000 2.491
61.52000 5.169
61.54000 4.667
61.56000 2.449
61.58000 2.392
61.60000 3.207
61.62000 1.214
61.64000 0.977
61.66000 1.320
61.68000 2.421
61.70000 0.117
61.72000 1.163
61.74000 0.335
61.76000 1.174
61.78000 -0.818
61.80000 -2.328
61.82000 0.208
61.84000 6.048
61.86000 3.169
61.88000 2.458
61.90000 5.014
61.92000 4.326
61.94000 2.348
61.96000 -1.676
61.98000 -0.366
62.00000 2.428
62.02000 1.416
62.04000 0.967
62.06000 -0.099
62.08000 0.376
62.10000 3.167
62.12000 1.932
62.14000 1.784
62.16000 4.427
62.18000 1.612
62.20000 1.819
62.22000 1.182
62.24000 1.241
62.26000 1.425
62.28000 0.273
62.30000 0.877
62.32000 0.301
62.34000 2.354
62.36000 0.725
62.38000 -0.790
62.40000 1.364
62.42000 1.581
62.44000 2.754
62.46000 3.218
62.48000 0.596
62.50000 -1.900
62.52000 0.242
62.54000 -2.319
62.56000 -0.933
62.58000 0.624
62.60000 2.200
62.62000 1.196
62.64000 1.463
62.66000 0.376
62.68000 0.836
62.70000 0.102
62.72000 2.831
62.74000 0.037
62.76000 -0.355
62.78000 0.637
62.80000 -0.283
62.82000 1.559
62.84000 1.142
62.86000 5.064
62.88000 2.428
62.90000 -0.578
62.92000 3.044
62.94000 -0.637
62.96000 -1.594
62.98000 3.643
63.00000 2.972
63.02000 3.045
63.04000 2.024
63.06000 0.031
63.08000 1.802
63.10000 0.979
63.12000 0.204
63.14000 1.773
63.16000 1.729
63.18000 2.718
63.20000 3.673
63.22000 3.751
63.24000 1.799
63.26000 0.206
63.28000 -1.298
63.30000 -1.561
63.32000 -0.764
63.34000 -2.307
63.36000 0.735
63.38000 6.014
63.40000 3.495
63.42000 -0.121
63.44000 -1.689
63.46000 -1.241
63.48000 -0.325
63.50000 0.873
63.52000 0.850
63.54000 1.622
63.56000 -0.817
63.58000 2.064
63.60000 2.631
63.62000 2.176
63.64000 1.468
63.66000 2.732
63.68000 1.511
63.70000 0.653
63.72000 -1.170
63.74000 0.182
63.76000 2.783
63.78000 -0.655
63.80000 4.031
63.82000 3.687
63.84000 3.061
63.86000 0.342
63.88000 -1.201
63.90000 -1.971
63.92000 1.357
63.94000 1.167
63.96000 -0.722
63.98000 -0.313
64.00000 2.582
64.02000 2.037
64.04000 4.945
64.06000 4.551
64.08000 -0.599
64.10000 0.775
64.12000 -0.071
64.14000 1.637
64.16000 -0.300
64.18000 -0.048
64.20000 1.785
64.22000 2.207
64.24000 -0.732
64.26000 -1.460
64.28000 -0.077
64.30000 -1.547
64.32000 -1.742
64.34000 -2.303
64.36000 -0.157
64.38000 2.819
64.40000 3.642
64.42000 2.225
64.44000 -0.352
64.46000 0.235
64.48000 2.750
64.50000 3.271
64.52000 3.218
64.54000 4.611
64.56000 3.811
64.58000 2.565
64.60000 1.627
64.62000 4.276
64.64000 3.659
64.66000 0.921
64.68000 -0.366
64.70000 2.010
64.72000 -0.505
64.74000 -1.750
64.76000 -0.847
64.78000 -1.560
64.80000 -0.750
64.82000 -2.282
64.84000 2.494
64.86000 1.266
64.88000 0.913
64.90000 0.001
64.92000 1.453
64.94000 0.452
64.96000 1.378
64.98000 2.352
65.00000 3.348
65.02000 3.800
65.04000 1.160
65.06000 0.242
65.08000 -0.136
65.10000 3.350
65.12000 3.108
65.14000 2.248
65.16000 2.035
65.18000 1.871
65.20000 1.270
65.22000 0.252
65.24000 -0.674
65.26000 -0.637
65.28000 -0.156
65.30000 -2.318
65.32000 0.306
65.34000 0.833
65.36000 -0.365
65.38000 2.131
65.40000 1.829
65.42000 0.840
65.44000 -0.753
65.46000 0.944
65.48000 -0.234
65.50000 -1.390
65.52000 -0.247
65.54000 0.795
65.56000 -0.321
65.58000 -0.787
65.60000 0.725
65.62000 0.181
65.64000 0.324
65.66000 2.652
65.68000 3.801
65.70000 3.942
65.72000 3.619
65.74000 3.235
65.76000 4.402
65.78000 5.254
65.80000 2.086
65.82000 4.554
65.84000 5.237
65.86000 1.465
65.88000 1.784
65.90000 2.881
65.92000 4.130
65.94000 1.201
65.96000 1.532
65.98000 2.012
66.00000 -2.303
66.02000 -1.913
66.04000 0.973
66.06000 2.442
66.08000 5.649
66.10000 4.416
66.12000 3.033
66.14000 2.644
66.16000 2.934
66.18000 2.883
66.20000 3.842
66.22000 2.531
66.24000 3.083
66.26000 6.770
66.28000 7.529
66.30000 6.400
66.32000 4.840
66.34000 4.080
66.36000 4.346
66.38000 6.201
66.40000 4.470
66.42000 2.730
66.44000 2.479
66.46000 1.612
66.48000 2.845
66.50000 2.291
66.52000 4.825
66.54000 4.756
66.56000 6.762
66.58000 3.065
66.60000 2.891
66.62000 3.131
66.64000 1.293
66.66000 2.276
66.68000 3.744
66.70000 5.163
66.72000 2.230
66.74000 2.044
66.76000 3.120
66.78000 1.958
66.80000 0.750
66.82000 0.111
66.84000 5.911
66.86000 4.918
66.88000 2.953
66.90000 -0.238
66.92000 -2.280
66.94000 -1.155
66.96000 -0.941
66.98000 1.795
67.00000 1.845
67.02000 0.235
67.04000 0.662
67.06000 -1.473
67.08000 0.138
67.10000 0.164
67.12000 -1.436
67.14000 -0.266
67.16000 0.552
67.18000 2.290
67.20000 2.136
67.22000 1.074
67.24000 -1.032
67.26000 0.206
67.28000 0.735
67.30000 0.398
67.32000 0.713
67.34000 1.329
67.36000 0.747
67.38000 -0.166
67.40000 -1.057
67.42000 -0.456
67.44000 0.140
67.46000 0.579
67.48000 0.375
67.50000 -0.025
67.52000 1.588
67.54000 -0.681
67.56000 0.147
67.58000 1.695
67.60000 1.547
67.62000 2.067
67.64000 0.954
67.66000 0.242
67.68000 -0.593
67.70000 1.319
67.72000 -0.145
67.74000 0.225
67.76000 0.148
67.78000 -2.228
67.80000 -0.255
67.82000 1.710
67.84000 0.572
67.86000 1.421
67.88000 2.016
67.90000 2.630
67.92000 0.026
67.94000 -1.543
67.96000 -0.881
67.98000 -0.961
68.00000 -1.117
68.02000 -0.480
68.04000 3.521
68.06000 1.345
68.08000 -2.211
68.10000 0.312
68.12000 0.762
68.14000 -0.160
68.16000 0.314
68.18000 -0.245
68.20000 -1.750
68.22000 -0.585
68.24000 -0.286
68.26000 1.690
68.28000 2.359
68.30000 -0.020
68.32000 -1.514
68.34000 -2.207
68.36000 -0.659
68.38000 0.959
68.40000 0.527
68.42000 0.956
68.44000 -0.469
68.46000 0.572
68.48000 3.297
68.50000 2.315
68.52000 0.504
68.54000 2.738
68.56000 3.380
68.58000 3.210
68.60000 0.034
68.62000 -0.275
68.64000 1.590
68.66000 1.578
68.68000 0.373
68.70000 1.599
68.72000 1.960
68.74000 -0.684
68.76000 -0.066
68.78000 -1.101
68.80000 0.463
68.82000 0.111
68.84000 0.630
68.86000 -0.785
68.88000 -0.634
68.90000 2.869
68.92000 1.838
68.94000 -0.480
68.96000 -0.166
68.98000 3.049
69.00000 1.939
69.02000 0.350
69.04000 -0.707
69.06000 0.479
69.08000 4.090
69.10000 3.020
69.12000 -0.945
69.14000 -1.881
69.16000 1.603
69.18000 0.446
69.20000 1.385
69.22000 0.158
69.24000 1.558
69.26000 1.007
69.28000 -2.159
69.30000 0.566
69.32000 1.655
69.34000 1.545
69.36000 0.884
69.38000 1.882
69.40000 3.816
69.42000 1.264
69.44000 -0.273
69.46000 0.417
69.48000 0.663
69.50000 -0.951
69.52000 -1.125
69.54000 -1.076
69.56000 3.032
69.58000 1.655
69.60000 0.293
69.62000 0.936
69.64000 2.103
69.66000 2.258
69.68000 0.344
69.70000 0.116
69.72000 0.185
69.74000 -2.116
69.76000 -2.140
69.78000 -1.696
69.80000 2.557
69.82000 4.590
69.84000 3.619
69.86000 2.514
69.88000 1.294
69.90000 1.747
69.92000 1.097
69.94000 -1.760
69.96000 0.032
69.98000 1.398
70.00000 -1.250
70.02000 -2.069
70.04000 0.034
70.06000 0.490
70.08000 -0.826
70.10000 -0.119
70.12000 0.875
70.14000 0.833
70.16000 1.612
70.18000 3.201
70.20000 -2.125
70.22000 0.070
70.24000 -1.331
70.26000 2.534
70.28000 2.013
70.30000 0.829
70.32000 0.885
70.34000 -1.173
70.36000 0.327
70.38000 -0.897
70.40000 -1.603
70.42000 0.900
70.44000 2.388
70.46000 4.515
70.48000 1.355
70.50000 -1.002
70.52000 -1.460
70.54000 -0.442
70.56000 1.031
70.58000 2.097
70.60000 4.802
70.62000 4.281
70.64000 0.963
70.66000 2.647
70.68000 3.340
70.70000 2.325
70.72000 4.051
70.74000 0.646
70.76000 3.572
70.78000 4.162
70.80000 2.068
70.82000 0.653
70.84000 1.099
70.86000 0.595
70.88000 -0.304
70.90000 -0.193
70.92000 -2.083
70.94000 -0.440
70.96000 1.671
70.98000 2.822
71.00000 3.618
71.02000 1.439
71.04000 0.360
71.06000 3.968
71.08000 2.020
71.10000 0.931
71.12000 2.950
71.14000 2.434
71.16000 0.243
71.18000 0.245
71.20000 0.468
71.22000 5.841
71.24000 2.427
71.26000 1.943
71.28000 4.528
71.30000 3.794
71.32000 2.958
71.34000 -1.737
71.36000 0.878
71.38000 0.135
71.40000 0.072
71.42000 1.552
71.44000 -0.070
71.46000 -0.969
71.48000 -0.473
71.50000 0.710
71.52000 2.374
71.54000 3.068
71.56000 3.790
71.58000 1.845
71.60000 -0.277
71.62000 1.321
71.64000 0.321
71.66000 -0.449
71.68000 -0.227
71.70000 0.267
71.72000 2.689
71.74000 0.009
71.76000 -0.547
71.78000 -1.235
71.80000 -1.283
71.82000 0.574
71.84000 -0.881
71.86000 3.559
71.88000 5.880
71.90000 5.450
71.92000 3.325
71.94000 1.725
71.96000 2.076
71.98000 0.791
72.00000 1.796
72.02000 1.903
72.04000 2.914
72.06000 4.545
72.08000 2.691
72.10000 0.851
72.12000 -1.605
72.14000 0.427
72.16000 -2.046
72.18000 0.263
72.20000 3.932
72.22000 4.215
72.24000 0.692
72.26000 1.120
72.28000 0.097
72.30000 1.960
72.32000 2.236
72.34000 1.922
72.36000 1.006
72.38000 1.741
72.40000 3.691
72.42000 4.325
72.44000 2.777
72.46000 2.629
72.48000 -0.064
72.50000 2.536
72.52000 1.818
72.54000 1.624
72.56000 4.372
72.58000 0.457
72.60000 1.104
72.62000 1.069
72.64000 -2.014
72.66000 0.274
72.68000 1.887
72.70000 4.738
72.72000 2.239
72.74000 2.956
72.76000 3.121
72.78000 2.176
72.80000 2.306
72.82000 2.978
72.84000 0.627
72.86000 3.077
72.88000 2.962
72.90000 3.338
72.92000 2.710
72.94000 -0.788
72.96000 0.613
72.98000 -0.430
73.00000 0.409
73.02000 3.356
73.04000 2.021
73.06000 -0.079
73.08000 1.054
73.10000 -0.010
73.12000 -2.012
73.14000 1.795
73.16000 -0.122
73.18000 -0.754
73.20000 0.003
73.22000 0.646
73.24000 0.676
73.26000 1.163
73.28000 0.881
73.30000 2.469
73.32000 -1.764
73.34000 0.937
73.36000 1.433
73.38000 3.683
73.40000 3.463
73.42000 2.688
73.44000 2.898
73.46000 2.324
73.48000 4.616
73.50000 5.480
73.52000 5.378
73.54000 2.974
73.56000 -0.316
73.58000 0.950
73.60000 1.431
73.62000 4.237
73.64000 6.079
73.66000 2.965
73.68000 4.295
73.70000 -0.800
73.72000 0.747
73.74000 3.114
73.76000 6.299
73.78000 3.791
73.80000 5.508
73.82000 7.146
73.84000 5.540
73.86000 1.894
73.88000 2.695
73.90000 1.333
73.92000 -1.630
73.94000 -1.975
73.96000 1.310
73.98000 2.921
74.00000 2.636
74.02000 4.721
74.04000 2.503
74.06000 4.058
74.08000 2.731
74.10000 2.010
74.12000 3.927
74.14000 2.208
74.16000 3.857
74.18000 4.370
74.20000 3.977
74.22000 4.429
74.24000 2.962
74.26000 1.656
74.28000 4.017
74.30000 2.099
74.32000 5.749
74.34000 5.993
74.36000 1.327
74.38000 0.667
74.40000 3.810
74.42000 2.805
74.44000 0.566
74.46000 2.491
74.48000 0.386
74.50000 -0.346
74.52000 2.466
74.54000 -1.338
74.56000 -0.455
74.58000 -0.974
74.60000 0.337
74.62000 1.754
74.64000 1.496
74.66000 -0.402
74.68000 0.813
74.70000 2.856
74.72000 4.311
74.74000 1.580
74.76000 1.166
74.78000 0.578
74.80000 1.639
74.82000 2.443
74.84000 0.661
74.86000 1.672
74.88000 1.948
74.90000 2.468
74.92000 4.568
74.94000 4.132
74.96000 0.958
74.98000 0.756
75.00000 2.607
75.02000 1.686
75.04000 0.549
75.06000 1.127
75.08000 1.301
75.10000 3.676
75.12000 3.146
75.14000 3.823
75.16000 3.154
75.18000 3.393
75.20000 4.981
75.22000 3.580
75.24000 0.625
75.26000 2.859
75.28000 3.364
75.30000 5.261
75.32000 3.591
75.34000 1.895
75.36000 1.517
75.38000 1.138
75.40000 -2.021
75.42000 1.685
75.44000 0.677
75.46000 3.692
75.48000 0.313
75.50000 2.991
75.52000 4.936
75.54000 3.548
75.56000 1.838
75.58000 -0.125
75.60000 1.494
75.62000 1.142
75.64000 1.248
75.66000 -1.614
75.68000 -0.402
75.70000 1.985
75.72000 2.232
75.74000 1.530
75.76000 -0.381
75.78000 0.456
75.80000 3.596
75.82000 0.793
75.84000 1.395
75.86000 2.637
75.88000 -0.189
75.90000 1.112
75.92000 2.447
75.94000 3.894
75.96000 2.788
75.98000 2.083
76.00000 -2.028
76.02000 -1.112
76.04000 2.787
76.06000 3.261
76.08000 1.097
76.10000 4.627
76.12000 5.082
76.14000 5.638
76.16000 3.834
76.18000 0.831
76.20000 0.681
76.22000 2.562
76.24000 3.688
76.26000 2.227
76.28000 3.341
76.30000 5.403
76.32000 4.333
76.34000 3.933
76.36000 4.112
76.38000 5.176
76.40000 3.752
76.42000 5.125
76.44000 4.179
76.46000 4.260
76.48000 5.036
76.50000 2.862
76.52000 1.691
76.54000 1.672
76.56000 2.572
76.58000 4.224
76.60000 6.864
76.62000 2.420
76.64000 -1.100
76.66000 -1.513
76.68000 -1.399
76.70000 3.891
76.72000 3.048
76.74000 2.434
76.76000 2.688
76.78000 2.974
76.80000 4.080
76.82000 2.357
76.84000 1.489
76.86000 2.064
76.88000 -2.044
76.90000 0.403
76.92000 2.207
76.94000 0.863
76.96000 4.097
76.98000 4.174
77.00000 5.286
77.02000 0.892
77.04000 -0.617
77.06000 -0.249
77.08000 0.415
77.10000 1.952
77.12000 2.292
77.14000 1.766
77.16000 4.124
77.18000 1.590
77.20000 0.704
77.22000 1.040
77.24000 -0.149
77.26000 1.817
77.28000 2.794
77.30000 1.008
77.32000 0.399
77.34000 -1.628
77.36000 -0.030
77.38000 -0.300
77.40000 3.566
77.42000 -0.392
77.44000 0.870
77.46000 1.494
77.48000 2.167
77.50000 2.009
77.52000 1.205
77.54000 2.077
77.56000 1.634
77.58000 1.979
77.60000 0.576
77.62000 -1.278
77.64000 0.484
77.66000 0.989
77.68000 1.469
77.70000 1.651
77.72000 1.386
77.74000 2.352
77.76000 -0.891
77.78000 -2.123
77.80000 1.581
77.82000 3.835
77.84000 1.867
77.86000 2.050
77.88000 1.489
77.90000 2.358
77.92000 0.965
77.94000 0.730
77.96000 -0.802
77.98000 -1.084
78.00000 1.827
78.02000 2.120
78.04000 3.065
78.06000 1.840
78.08000 0.873
78.10000 2.295
78.12000 -0.678
78.14000 0.418
78.16000 2.015
78.18000 2.498
78.20000 -1.518
78.22000 -2.145
78.24000 -1.716
78.26000 -0.890
78.28000 0.499
78.30000 -0.253
78.32000 2.940
78.34000 1.863
78.36000 2.937
78.38000 2.715
78.40000 0.315
78.42000 2.798
78.44000 -0.431
78.46000 0.862
78.48000 -1.352
78.50000 1.551
78.52000 1.714
78.54000 3.743
78.56000 2.498
78.58000 3.275
78.60000 2.979
78.62000 2.541
78.64000 -1.254
78.66000 0.869
78.68000 3.072
78.70000 4.756
78.72000 5.917
78.74000 4.182
78.76000 2.534
78.78000 0.746
78.80000 1.377
78.82000 2.898
78.84000 2.965
78.86000 4.163
78.88000 5.425
78.90000 5.717
78.92000 3.761
78.94000 1.354
78.96000 1.567
78.98000 4.027
79.00000 6.691
79.02000 2.249
79.04000 2.505
79.06000 7.393
79.08000 7.828
79.10000 9.808
79.12000 8.398
79.14000 9.026
79.16000 7.692
79.18000 9.117
79.20000 11.969
79.22000 11.310
79.24000 8.946
79.26000 9.428
79.28000 8.971
79.30000 12.856
79.32000 11.878
79.34000 8.446
79.36000 7.645
79.38000 9.167
79.40000 12.298
79.42000 11.929
79.44000 9.895
79.46000 14.440
79.48000 17.612
79.50000 16.008
79.52000 16.208
79.54000 15.906
79.56000 13.297
79.58000 13.461
79.60000 10.579
79.62000 13.024
79.64000 17.512
79.66000 16.399
79.68000 11.590
79.70000 12.428
79.72000 12.347
79.74000 11.310
79.76000 13.370
79.78000 16.152
79.80000 18.846
79.82000 20.962
79.84000 20.539
79.86000 17.235
79.88000 13.633
79.90000 16.784
79.92000 14.635
79.94000 15.469
79.96000 16.010
79.98000 15.670
80.00000 16.997
80.02000 19.515
80.04000 16.977
80.06000 17.955
80.08000 14.443
80.10000 12.125
80.12000 12.247
80.14000 13.970
80.16000 13.116
80.18000 13.994
80.20000 14.072
80.22000 13.243
80.24000 8.862
80.26000 9.435
80.28000 11.742
80.30000 12.039
80.32000 13.936
80.34000 11.423
80.36000 6.890
80.38000 7.533
80.40000 6.641
80.42000 12.007
80.44000 9.933
80.46000 6.012
80.48000 5.776
80.50000 5.923
80.52000 6.177
80.54000 3.812
80.56000 0.666
80.58000 6.970
80.60000 11.286
80.62000 7.646
80.64000 6.143
80.66000 4.077
80.68000 2.002
80.70000 1.235
80.72000 4.500
80.74000 5.266
80.76000 3.921
80.78000 0.202
80.80000 0.778
80.82000 1.391
80.84000 1.443
80.86000 4.816
80.88000 2.566
80.90000 0.897
80.92000 2.307
80.94000 0.585
80.96000 2.900
80.98000 -2.311
81.00000 1.924
81.02000 -0.605
81.04000 0.087
81.06000 -1.756
81.08000 -1.141
81.10000 -0.850
81.12000 1.031
81.14000 -0.739
81.16000 1.583
81.18000 0.612
81.20000 3.826
81.22000 2.198
81.24000 2.233
81.26000 1.751
81.28000 -0.118
81.30000 2.663
81.32000 3.967
81.34000 -0.949
81.36000 -0.390
81.38000 2.491
81.40000 1.181
81.42000 1.514
81.44000 -1.540
81.46000 -1.918
81.48000 -0.422
81.50000 -2.294
81.52000 -1.611
81.54000 0.340
81.56000 -0.115
81.58000 -0.115
81.60000 -1.332
81.62000 -1.215
81.64000 0.552
81.66000 -1.242
81.68000 3.037
81.70000 0.536
81.72000 0.521
81.74000 -1.326
81.76000 -1.900
81.78000 0.374
81.80000 -0.598
81.82000 2.818
81.84000 3.967
81.86000 1.389
81.88000 0.440
81.90000 -2.310
81.92000 -1.048
81.94000 -0.254
81.96000 3.938
81.98000 2.528
82.00000 2.744
82.02000 5.466
82.04000 1.301
82.06000 2.568
82.08000 1.025
82.10000 -0.873
82.12000 0.288
82.14000 4.079
82.16000 5.152
82.18000 5.065
82.20000 4.674
82.22000 3.445
82.24000 3.110
82.26000 4.047
82.28000 3.701
82.30000 2.788
82.32000 -0.637
82.34000 1.410
82.36000 4.473
82.38000 4.320
82.40000 3.533
82.42000 2.790
82.44000 2.549
82.46000 2.152
82.48000 3.817
82.50000 6.689
82.52000 7.136
82.54000 7.987
82.56000 5.004
82.58000 8.923
82.60000 5.730
82.62000 6.595
82.64000 6.685
82.66000 4.462
82.68000 5.385
82.70000 4.609
82.72000 7.919
82.74000 10.718
82.76000 12.089
82.78000 15.166
82.80000 13.642
82.82000 11.932
82.84000 15.274
82.86000 14.905
82.88000 14.938
82.90000 12.596
82.92000 15.857
82.94000 18.529
82.96000 17.931
82.98000 19.131
83.00000 19.518
83.02000 18.265
83.04000 15.661
83.06000 18.470
83.08000 24.583
83.10000 27.234
83.12000 22.012
83.14000 23.476
83.16000 23.552
83.18000 27.610
83.20000 29.120
83.22000 29.366
83.24000 30.131
83.26000 31.554
83.28000 34.006
83.30000 35.319
83.32000 34.134
83.34000 38.400
83.36000 39.708
83.38000 39.371
83.40000 41.530
83.42000 45.492
83.44000 44.955
83.46000 43.900
83.48000 46.146
83.50000 48.617
83.52000 48.045
83.54000 52.075
83.56000 53.422
83.58000 50.802
83.60000 56.323
83.62000 57.957
83.64000 57.257
83.66000 57.677
83.68000 56.869
83.70000 52.421
83.72000 52.709
83.74000 54.009
83.76000 54.368
83.78000 63.321
83.80000 62.465
83.82000 60.783
83.84000 61.508
83.86000 59.561
83.88000 57.707
83.90000 59.587
83.92000 57.009
83.94000 55.753
83.96000 54.982
83.98000 54.638
84.00000 54.969
84.02000 52.864
84.04000 54.271
84.06000 51.336
84.08000 48.199
84.10000 49.396
84.12000 45.834
84.14000 46.432
84.16000 44.866
84.18000 38.503
84.20000 43.554
84.22000 39.238
84.24000 38.868
84.26000 32.497
84.28000 32.862
84.30000 33.003
84.32000 30.696
84.34000 31.240
84.36000 35.461
84.38000 33.212
84.40000 26.571
84.42000 20.877
84.44000 23.747
84.46000 19.628
84.48000 20.958
84.50000 22.430
84.52000 20.816
84.54000 20.258
84.56000 20.773
84.58000 16.839
84.60000 15.197
84.62000 14.559
84.64000 11.687
84.66000 11.864
84.68000 12.675
84.70000 11.804
84.72000 10.667
84.74000 11.320
84.76000 7.991
84.78000 4.139
84.80000 5.986
84.82000 8.257
84.84000 5.556
84.86000 4.561
84.88000 5.335
84.90000 4.856
84.92000 5.114
84.94000 1.854
84.96000 4.442
84.98000 3.090
85.00000 3.334
85.02000 0.312
85.04000 1.304
85.06000 6.850
85.08000 6.239
85.10000 4.478
85.12000 -0.065
85.14000 1.036
85.16000 -0.281
85.18000 -1.088
85.20000 -1.279
85.22000 -1.377
85.24000 -1.155
85.26000 -0.240
85.28000 1.827
85.30000 5.736
85.32000 4.050
85.34000 4.017
85.36000 3.642
85.38000 1.140
85.40000 0.095
85.42000 -1.101
85.44000 0.318
85.46000 -1.738
85.48000 -1.377
85.50000 -1.064
85.52000 -0.095
85.54000 0.901
85.56000 1.262
85.58000 0.784
85.60000 0.371
85.62000 -0.260
85.64000 1.219
85.66000 2.020
85.68000 0.951
85.70000 3.605
85.72000 4.180
85.74000 2.982
85.76000 4.568
85.78000 3.436
85.80000 1.415
85.82000 -2.025
85.84000 0.283
85.86000 2.794
85.88000 2.875
85.90000 -1.006
85.92000 -2.012
85.94000 -1.340
85.96000 -1.377
85.98000 1.564
86.00000 6.940
86.02000 3.739
86.04000 4.836
86.06000 4.675
86.08000 3.522
86.10000 1.386
86.12000 0.584
86.14000 1.334
86.16000 0.555
86.18000 6.205
86.20000 4.860
86.22000 4.945
86.24000 3.127
86.26000 1.640
86.28000 -1.971
86.30000 -0.456
86.32000 -1.614
86.34000 0.223
86.36000 4.541
86.38000 1.524
86.40000 2.937
86.42000 4.839
86.44000 0.512
86.46000 -1.954
86.48000 1.013
86.50000 3.076
86.52000 2.746
86.54000 0.080
86.56000 0.402
86.58000 1.724
86.60000 3.789
86.62000 0.003
86.64000 0.298
86.66000 -1.938
86.68000 -0.613
86.70000 -0.276
86.72000 -0.125
86.74000 1.192
86.76000 2.821
86.78000 4.550
86.80000 0.834
86.82000 0.875
86.84000 2.405
86.86000 0.083
86.88000 0.350
86.90000 2.356
86.92000 1.392
86.94000 1.738
86.96000 3.340
86.98000 2.117
87.00000 5.045
87.02000 2.183
87.04000 2.808
87.06000 0.635
87.08000 3.770
87.10000 1.705
87.12000 1.855
87.14000 1.879
87.16000 0.342
87.18000 0.283
87.20000 1.935
87.22000 1.962
87.24000 2.090
87.26000 0.607
87.28000 -0.327
87.30000 0.968
87.32000 2.158
87.34000 2.112
87.36000 2.116
87.38000 2.254
87.40000 3.076
87.42000 4.554
87.44000 -1.211
87.46000 0.406
87.48000 -0.184
87.50000 2.607
87.52000 6.080
87.54000 6.328
87.56000 1.961
87.58000 -1.903
87.60000 -1.348
87.62000 2.304
87.64000 0.929
87.66000 1.074
87.68000 -0.538
87.70000 1.672
87.72000 2.959
87.74000 0.926
87.76000 1.096
87.78000 2.088
87.80000 2.131
87.82000 2.287
87.84000 3.478
87.86000 3.021
87.88000 1.940
87.90000 2.202
87.92000 3.747
87.94000 -1.257
87.96000 1.466
87.98000 2.282
88.00000 3.733
88.02000 2.919
88.04000 5.622
88.06000 3.869
88.08000 1.122
88.10000 2.966
88.12000 1.931
88.14000 2.381
88.16000 2.040
88.18000 2.865
88.20000 0.798
88.22000 -0.853
88.24000 1.763
88.26000 2.526
88.28000 2.139
88.30000 0.262
88.32000 -0.690
88.34000 3.524
88.36000 2.481
88.38000 2.961
88.40000 4.303
88.42000 3.692
88.44000 3.297
88.46000 1.398
88.48000 0.484
88.50000 -1.864
88.52000 -1.101
88.54000 4.217
88.56000 4.766
88.58000 4.132
88.60000 3.813
88.62000 1.887
88.64000 -0.337
88.66000 1.358
88.68000 4.336
88.70000 1.532
88.72000 -0.333
88.74000 0.940
88.76000 3.168
88.78000 2.668
88.80000 3.491
88.82000 3.422
88.84000 3.348
88.86000 4.823
88.88000 6.556
88.90000 4.634
88.92000 1.614
88.94000 1.312
88.96000 0.091
88.98000 2.848
89.00000 2.899
89.02000 1.849
89.04000 5.064
89.06000 1.355
89.08000 1.805
89.10000 4.284
89.12000 2.322
89.14000 0.444
89.16000 4.134
89.18000 3.755
89.20000 3.041
89.22000 0.225
89.24000 -1.851
89.26000 0.492
89.28000 4.735
89.30000 4.410
89.32000 4.717
89.34000 2.480
89.36000 3.699
89.38000 2.639
89.40000 1.942
89.42000 1.400
89.44000 2.112
89.46000 -0.037
89.48000 2.602
89.50000 4.077
89.52000 6.332
89.54000 2.290
89.56000 0.920
89.58000 2.140
89.60000 4.119
89.62000 2.685
89.64000 2.949
89.66000 6.245
89.68000 2.348
89.70000 1.348
89.72000 3.326
89.74000 3.645
89.76000 3.279
89.78000 2.799
89.80000 1.534
89.82000 2.868
89.84000 0.766
89.86000 5.030
89.88000 3.611
89.90000 3.913
89.92000 2.445
89.94000 2.301
89.96000 2.880
89.98000 3.916
90.00000 2.562
90.02000 1.517
90.04000 3.514
90.06000 4.300
90.08000 4.306
90.10000 2.834
90.12000 3.149
90.14000 2.647
90.16000 -1.523
90.18000 2.096
90.20000 3.744
90.22000 2.344
90.24000 6.482
90.26000 1.610
90.28000 0.794
90.30000 0.993
90.32000 1.040
90.34000 4.810
90.36000 5.224
90.38000 5.604
90.40000 4.640
90.42000 4.427
90.44000 -1.837
90.46000 2.612
90.48000 5.637
90.50000 5.740
90.52000 3.408
90.54000 3.275
90.56000 0.099
90.58000 -0.581
90.60000 1.582
90.62000 3.099
90.64000 3.532
90.66000 5.456
90.68000 3.180
90.70000 3.225
90.72000 4.214
90.74000 0.459
90.76000 -1.858
90.78000 0.661
90.80000 5.439
90.82000 5.022
90.84000 2.388
90.86000 2.508
90.88000 0.645
90.90000 -0.505
90.92000 1.598
90.94000 0.469
90.96000 0.255
90.98000 3.380
91.00000 0.274
91.02000 0.664
91.04000 0.540
91.06000 2.942
91.08000 6.891
91.10000 5.522
91.12000 3.595
91.14000 2.101
91.16000 2.286
91.18000 2.170
91.20000 3.126
91.22000 3.756
91.24000 1.947
91.26000 0.739
91.28000 3.148
91.30000 3.695
91.32000 -0.241
91.34000 -0.815
91.36000 -0.375
91.38000 -1.385
91.40000 2.199
91.42000 3.093
91.44000 3.268
91.46000 1.754
91.48000 5.723
91.50000 2.320
91.52000 2.611
91.54000 2.415
91.56000 3.358
91.58000 3.023
91.60000 1.253
91.62000 2.866
91.64000 3.464
91.66000 4.721
91.68000 2.803
91.70000 -0.241
91.72000 1.399
91.74000 0.409
91.76000 -0.934
91.78000 0.845
91.80000 -0.785
91.82000 -0.117
91.84000 -1.542
91.86000 0.776
91.88000 0.860
91.90000 1.322
91.92000 -0.448
91.94000 1.797
91.96000 4.575
91.98000 1.532
92.00000 0.384
92.02000 4.349
92.04000 3.347
92.06000 3.759
92.08000 0.640
92.10000 -1.277
92.12000 1.482
92.14000 3.596
92.16000 -0.001
92.18000 -0.221
92.20000 4.026
92.22000 1.493
92.24000 0.180
92.26000 -1.784
92.28000 -0.999
92.30000 2.701
92.32000 2.680
92.34000 5.929
92.36000 4.744
92.38000 4.864
92.40000 4.871
92.42000 5.570
92.44000 3.403
92.46000 3.098
92.48000 4.793
92.50000 2.563
92.52000 -1.887
92.54000 0.807
92.56000 3.023
92.58000 3.796
92.60000 4.825
92.62000 4.031
92.64000 5.062
92.66000 1.281
92.68000 -0.580
92.70000 2.478
92.72000 4.581
92.74000 1.208
92.76000 1.650
92.78000 0.057
92.80000 1.096
92.82000 0.685
92.84000 1.962
92.86000 3.076
92.88000 4.190
92.90000 4.995
92.92000 3.657
92.94000 0.193
92.96000 1.742
92.98000 0.048
93.00000 0.299
93.02000 1.894
93.04000 4.298
93.06000 4.526
93.08000 5.063
93.10000 2.384
93.12000 1.568
93.14000 2.263
93.16000 2.865
93.18000 3.646
93.20000 4.654
93.22000 -1.852
93.24000 2.065
93.26000 3.747
93.28000 2.905
93.30000 3.133
93.32000 0.942
93.34000 0.838
93.36000 4.019
93.38000 4.885
93.40000 2.528
93.42000 -0.270
93.44000 1.266
93.46000 2.790
93.48000 0.690
93.50000 3.738
93.52000 6.669
93.54000 3.717
93.56000 6.155
93.58000 4.594
93.60000 2.409
93.62000 3.733
93.64000 2.198
93.66000 2.202
93.68000 3.364
93.70000 1.846
93.72000 -0.871
93.74000 0.124
93.76000 0.986
93.78000 -0.248
93.80000 0.940
93.82000 2.728
93.84000 1.365
93.86000 1.768
93.88000 1.755
93.90000 0.903
93.92000 2.460
93.94000 1.305
93.96000 4.150
93.98000 3.892
94.00000 2.190
94.02000 3.738
94.04000 4.941
94.06000 2.090
94.08000 -0.004
94.10000 2.844
94.12000 4.334
94.14000 5.076
94.16000 0.154
94.18000 2.298
94.20000 1.511
94.22000 0.388
94.24000 3.575
94.26000 3.979
94.28000 7.471
94.30000 9.264
94.32000 4.462
94.34000 2.342
94.36000 2.184
94.38000 1.594
94.40000 0.707
94.42000 1.271
94.44000 2.057
94.46000 5.836
94.48000 4.828
94.50000 4.199
94.52000 2.902
94.54000 4.914
94.56000 2.796
94.58000 -1.221
94.60000 -0.235
94.62000 1.382
94.64000 2.470
94.66000 4.684
94.68000 4.510
94.70000 9.610
94.72000 2.228
94.74000 2.131
94.76000 1.961
94.78000 -1.903
94.80000 -0.068
94.82000 2.391
94.84000 3.970
94.86000 5.945
94.88000 2.080
94.90000 4.052
94.92000 1.548
94.94000 1.029
94.96000 0.747
94.98000 -1.800
95.00000 1.110
95.02000 1.832
95.04000 -0.338
95.06000 0.249
95.08000 1.277
95.10000 2.948
95.12000 2.094
95.14000 2.860
95.16000 4.342
95.18000 5.586
95.20000 3.154
95.22000 -0.602
95.24000 0.931
95.26000 3.016
95.28000 2.606
95.30000 1.893
95.32000 3.048
95.34000 4.798
95.36000 4.944
95.38000 4.275
95.40000 4.546
95.42000 3.681
95.44000 3.032
95.46000 0.786
95.48000 1.013
95.50000 2.978
95.52000 -0.130
95.54000 4.539
95.56000 4.483
95.58000 2.004
95.60000 2.526
95.62000 3.737
95.64000 2.517
95.66000 4.694
95.68000 3.891
95.70000 1.528
95.72000 1.381
95.74000 3.083
95.76000 6.920
95.78000 2.199
95.80000 3.694
95.82000 6.335
95.84000 3.648
95.86000 2.292
95.88000 3.798
95.90000 3.221
95.92000 0.146
95.94000 3.148
95.96000 7.622
95.98000 6.558
96.00000 3.046
96.02000 3.714
96.04000 6.864
96.06000 2.739
96.08000 4.280
96.10000 3.175
96.12000 1.978
96.14000 6.444
96.16000 4.392
96.18000 4.234
96.20000 6.756
96.22000 2.479
96.24000 1.804
96.26000 -0.155
96.28000 0.802
96.30000 1.809
96.32000 3.319
96.34000 2.861
96.36000 -0.172
96.38000 -0.042
96.40000 5.638
96.42000 5.508
96.44000 5.213
96.46000 5.232
96.48000 5.920
96.50000 6.200
96.52000 6.639
96.54000 8.067
96.56000 3.297
96.58000 -0.381
96.60000 2.958
96.62000 7.476
96.64000 5.251
96.66000 4.484
96.68000 4.515
96.70000 6.096
96.72000 5.796
96.74000 7.938
96.76000 11.322
96.78000 7.418
96.80000 4.176
96.82000 1.441
96.84000 -1.834
96.86000 2.749
96.88000 7.715
96.90000 5.763
96.92000 7.716
96.94000 7.686
96.96000 4.850
96.98000 5.434
97.00000 5.844
97.02000 3.132
97.04000 5.085
97.06000 4.636
97.08000 5.859
97.10000 7.154
97.12000 4.979
97.14000 6.998
97.16000 3.724
97.18000 4.005
97.20000 4.457
97.22000 4.544
97.24000 2.886
97.26000 -0.582
97.28000 1.904
97.30000 2.295
97.32000 2.288
97.34000 1.913
97.36000 4.560
97.38000 3.056
97.40000 4.696
97.42000 2.176
97.44000 2.605
97.46000 4.149
97.48000 3.894
97.50000 1.556
97.52000 2.533
97.54000 5.608
97.56000 7.412
97.58000 4.449
97.60000 3.650
97.62000 2.036
97.64000 1.039
97.66000 -1.138
97.68000 3.445
97.70000 6.656
97.72000 3.782
97.74000 2.512
97.76000 6.515
97.78000 7.249
97.80000 0.785
97.82000 1.356
97.84000 6.456
97.86000 4.982
97.88000 1.401
97.90000 -0.886
97.92000 5.843
97.94000 7.871
97.96000 1.972
97.98000 3.625
98.00000 7.532
98.02000 5.795
98.04000 3.864
98.06000 6.776
98.08000 6.757
98.10000 4.444
98.12000 0.855
98.14000 -1.441
98.16000 1.948
98.18000 4.032
98.20000 3.326
98.22000 2.007
98.24000 3.064
98.26000 0.907
98.28000 5.734
98.30000 6.928
98.32000 5.863
98.34000 4.124
98.36000 0.950
98.38000 8.609
98.40000 4.095
98.42000 2.821
98.44000 -1.867
98.46000 3.176
98.48000 9.666
98.50000 5.751
98.52000 5.323
98.54000 5.148
98.56000 3.458
98.58000 4.801
98.60000 2.354
98.62000 -0.047
98.64000 4.307
98.66000 7.647
98.68000 4.787
98.70000 0.362
98.72000 3.449
98.74000 1.934
98.76000 5.230
98.78000 -0.465
98.80000 2.508
98.82000 5.715
98.84000 4.907
98.86000 -0.512
98.88000 2.939
98.90000 -1.315
98.92000 5.931
98.94000 6.448
98.96000 5.726
98.98000 0.276
99.00000 -1.839
99.02000 5.547
99.04000 10.974
99.06000 7.244
99.08000 8.166
99.10000 7.119
99.12000 0.026
99.14000 -0.675
99.16000 0.837
99.18000 -1.280
99.20000 4.852
99.22000 1.701
99.24000 -1.831
99.26000 -1.129
99.28000 3.375
99.30000 5.178
99.32000 8.457
99.34000 5.078
99.36000 5.191
99.38000 1.526
99.40000 7.574
99.42000 7.481
99.44000 12.094
99.46000 11.271
99.48000 10.086
99.50000 3.545
99.52000 8.334
99.54000 9.808
99.56000 15.946
99.58000 8.153
99.60000 2.452
99.62000 9.136
99.64000 6.754
99.66000 1.094
99.68000 2.441
99.70000 2.321
99.72000 4.331
99.74000 5.462
99.76000 10.481
99.78000 9.896
99.80000 1.338
99.82000 0.740
99.84000 6.147
99.86000 0.529
99.88000 2.607
99.90000 3.014
99.92000 5.197
99.94000 10.369
99.96000 3.925
99.98000 0.000
