'Id: "0011387" Comment: "Integrate frame 0011387_Au-Ir-Rh_Rh-rich_XRD-Mapping-135-0000.gfrmwith cursor Wedge Cursor #5" Operator: "B?rgel" Anode: "Cu" Wavelength: "1.5406" Scantype: "2Theta (TwoTheta)" TimePerStep: "1" X: "45" Y: "-9" Z: "5.95" 
10.00000 0.000
10.02000 0.656
10.04000 10.637
10.06000 -0.142
10.08000 -2.631
10.10000 9.011
10.12000 10.259
10.14000 11.380
10.16000 10.951
10.18000 19.108
10.20000 15.551
10.22000 16.469
10.24000 8.012
10.26000 14.330
10.28000 16.078
10.30000 9.909
10.32000 14.645
10.34000 16.270
10.36000 12.545
10.38000 13.396
10.40000 21.042
10.42000 33.629
10.44000 31.336
10.46000 22.805
10.48000 28.144
10.50000 21.688
10.52000 24.852
10.54000 29.839
10.56000 21.107
10.58000 18.132
10.60000 14.970
10.62000 16.439
10.64000 25.607
10.66000 38.049
10.68000 33.412
10.70000 20.952
10.72000 20.953
10.74000 41.847
10.76000 37.456
10.78000 34.320
10.80000 37.289
10.82000 34.241
10.84000 32.600
10.86000 32.209
10.88000 24.651
10.90000 35.316
10.92000 31.525
10.94000 31.435
10.96000 42.057
10.98000 33.525
11.00000 33.982
11.02000 38.597
11.04000 39.140
11.06000 37.709
11.08000 45.780
11.10000 43.119
11.12000 35.169
11.14000 40.992
11.16000 38.978
11.18000 30.945
11.20000 30.879
11.22000 36.731
11.24000 39.477
11.26000 44.120
11.28000 43.791
11.30000 54.373
11.32000 50.218
11.34000 42.813
11.36000 38.136
11.38000 45.525
11.40000 41.973
11.42000 44.648
11.44000 37.280
11.46000 41.651
11.48000 46.240
11.50000 38.866
11.52000 42.463
11.54000 55.915
11.56000 46.719
11.58000 45.420
11.60000 50.228
11.62000 48.220
11.64000 52.590
11.66000 54.226
11.68000 50.864
11.70000 46.397
11.72000 46.916
11.74000 54.676
11.76000 72.018
11.78000 64.337
11.80000 53.871
11.82000 50.541
11.84000 37.834
11.86000 45.830
11.88000 55.230
11.90000 58.479
11.92000 57.201
11.94000 59.264
11.96000 52.213
11.98000 56.824
12.00000 60.879
12.02000 54.700
12.04000 62.184
12.06000 53.808
12.08000 57.623
12.10000 73.330
12.12000 58.477
12.14000 55.037
12.16000 67.176
12.18000 62.140
12.20000 58.799
12.22000 58.260
12.24000 68.039
12.26000 65.808
12.28000 68.026
12.30000 70.844
12.32000 66.867
12.34000 62.628
12.36000 60.437
12.38000 62.486
12.40000 60.964
12.42000 68.748
12.44000 66.426
12.46000 53.250
12.48000 67.268
12.50000 75.145
12.52000 70.107
12.54000 71.056
12.56000 80.171
12.58000 84.668
12.60000 72.975
12.62000 62.651
12.64000 60.389
12.66000 69.042
12.68000 66.626
12.70000 60.728
12.72000 64.197
12.74000 69.038
12.76000 74.638
12.78000 69.902
12.80000 63.385
12.82000 63.910
12.84000 58.128
12.86000 59.862
12.88000 59.927
12.90000 65.747
12.92000 69.191
12.94000 69.414
12.96000 70.967
12.98000 63.524
13.00000 68.675
13.02000 67.740
13.04000 71.117
13.06000 71.352
13.08000 67.921
13.10000 62.226
13.12000 59.347
13.14000 70.093
13.16000 65.718
13.18000 61.161
13.20000 65.488
13.22000 71.889
13.24000 57.626
13.26000 57.999
13.28000 56.997
13.30000 58.211
13.32000 58.744
13.34000 67.135
13.36000 71.613
13.38000 67.945
13.40000 66.063
13.42000 59.993
13.44000 59.256
13.46000 53.560
13.48000 51.724
13.50000 55.256
13.52000 59.247
13.54000 60.348
13.56000 54.854
13.58000 58.420
13.60000 57.341
13.62000 48.071
13.64000 54.011
13.66000 62.769
13.68000 60.355
13.70000 58.756
13.72000 58.998
13.74000 62.375
13.76000 56.468
13.78000 55.918
13.80000 61.614
13.82000 59.930
13.84000 54.115
13.86000 57.945
13.88000 60.707
13.90000 62.994
13.92000 61.931
13.94000 58.978
13.96000 55.671
13.98000 54.444
14.00000 51.194
14.02000 48.549
14.04000 50.401
14.06000 55.643
14.08000 60.870
14.10000 58.332
14.12000 55.411
14.14000 54.808
14.16000 44.525
14.18000 45.807
14.20000 60.092
14.22000 60.684
14.24000 52.577
14.26000 53.630
14.28000 57.073
14.30000 55.545
14.32000 55.733
14.34000 50.881
14.36000 51.815
14.38000 49.555
14.40000 47.342
14.42000 53.581
14.44000 45.391
14.46000 38.583
14.48000 52.095
14.50000 43.824
14.52000 43.952
14.54000 52.664
14.56000 49.504
14.58000 46.651
14.60000 45.359
14.62000 46.883
14.64000 47.560
14.66000 51.210
14.68000 54.418
14.70000 59.693
14.72000 52.457
14.74000 48.337
14.76000 41.762
14.78000 39.158
14.80000 35.585
14.82000 40.929
14.84000 48.804
14.86000 45.107
14.88000 30.528
14.90000 33.909
14.92000 44.481
14.94000 51.529
14.96000 42.377
14.98000 29.988
15.00000 38.550
15.02000 43.313
15.04000 51.289
15.06000 57.028
15.08000 40.356
15.10000 35.826
15.12000 39.814
15.14000 36.846
15.16000 43.650
15.18000 37.454
15.20000 41.111
15.22000 35.933
15.24000 36.253
15.26000 35.701
15.28000 47.074
15.30000 44.082
15.32000 42.837
15.34000 43.165
15.36000 35.579
15.38000 35.694
15.40000 35.669
15.42000 38.649
15.44000 39.961
15.46000 36.721
15.48000 37.946
15.50000 33.074
15.52000 33.310
15.54000 24.293
15.56000 27.230
15.58000 32.081
15.60000 36.809
15.62000 36.518
15.64000 37.853
15.66000 39.080
15.68000 40.807
15.70000 38.309
15.72000 33.302
15.74000 32.934
15.76000 30.516
15.78000 32.954
15.80000 27.455
15.82000 28.316
15.84000 29.764
15.86000 31.536
15.88000 38.329
15.90000 32.064
15.92000 29.656
15.94000 31.194
15.96000 30.433
15.98000 34.252
16.00000 32.004
16.02000 36.628
16.04000 37.934
16.06000 38.212
16.08000 34.738
16.10000 37.934
16.12000 35.419
16.14000 36.845
16.16000 26.243
16.18000 18.640
16.20000 25.878
16.22000 21.271
16.24000 28.216
16.26000 27.560
16.28000 20.597
16.30000 24.417
16.32000 24.524
16.34000 16.392
16.36000 21.783
16.38000 32.248
16.40000 28.001
16.42000 26.039
16.44000 21.964
16.46000 21.649
16.48000 26.426
16.50000 29.613
16.52000 22.048
16.54000 24.232
16.56000 22.604
16.58000 20.280
16.60000 20.367
16.62000 14.841
16.64000 10.867
16.66000 22.508
16.68000 24.573
16.70000 21.925
16.72000 23.847
16.74000 23.663
16.76000 24.075
16.78000 24.471
16.80000 18.711
16.82000 19.570
16.84000 17.838
16.86000 21.149
16.88000 15.654
16.90000 21.857
16.92000 19.127
16.94000 18.136
16.96000 26.330
16.98000 25.482
17.00000 21.738
17.02000 22.927
17.04000 22.613
17.06000 18.042
17.08000 12.948
17.10000 17.736
17.12000 25.922
17.14000 19.629
17.16000 18.523
17.18000 19.548
17.20000 19.909
17.22000 24.597
17.24000 30.362
17.26000 33.043
17.28000 24.032
17.30000 21.717
17.32000 21.772
17.34000 11.434
17.36000 12.477
17.38000 22.040
17.40000 22.214
17.42000 14.122
17.44000 25.168
17.46000 26.946
17.48000 20.625
17.50000 23.005
17.52000 23.290
17.54000 17.326
17.56000 11.853
17.58000 15.092
17.60000 17.750
17.62000 14.177
17.64000 16.539
17.66000 11.280
17.68000 13.676
17.70000 15.573
17.72000 16.556
17.74000 19.713
17.76000 16.004
17.78000 15.140
17.80000 12.861
17.82000 17.059
17.84000 21.172
17.86000 13.291
17.88000 4.233
17.90000 9.392
17.92000 11.097
17.94000 16.010
17.96000 16.936
17.98000 19.537
18.00000 17.164
18.02000 13.443
18.04000 5.992
18.06000 3.300
18.08000 5.596
18.10000 13.088
18.12000 10.847
18.14000 3.218
18.16000 2.381
18.18000 7.479
18.20000 8.498
18.22000 6.572
18.24000 5.572
18.26000 7.095
18.28000 5.310
18.30000 9.224
18.32000 11.830
18.34000 5.731
18.36000 6.263
18.38000 14.398
18.40000 12.707
18.42000 3.547
18.44000 6.748
18.46000 12.572
18.48000 9.541
18.50000 10.158
18.52000 11.677
18.54000 7.947
18.56000 6.162
18.58000 4.242
18.60000 -1.605
18.62000 -1.861
18.64000 -0.137
18.66000 3.583
18.68000 9.412
18.70000 9.098
18.72000 -0.033
18.74000 3.595
18.76000 7.163
18.78000 1.337
18.80000 -2.727
18.82000 4.036
18.84000 5.269
18.86000 8.395
18.88000 8.716
18.90000 6.881
18.92000 8.193
18.94000 13.325
18.96000 13.572
18.98000 8.961
19.00000 6.035
19.02000 4.805
19.04000 8.559
19.06000 12.467
19.08000 12.723
19.10000 13.462
19.12000 9.189
19.14000 6.315
19.16000 7.628
19.18000 6.586
19.20000 8.719
19.22000 0.664
19.24000 2.793
19.26000 12.128
19.28000 15.021
19.30000 8.726
19.32000 0.564
19.34000 -2.089
19.36000 -0.765
19.38000 -0.682
19.40000 -4.233
19.42000 2.101
19.44000 7.950
19.46000 7.703
19.48000 6.820
19.50000 5.160
19.52000 2.845
19.54000 0.821
19.56000 2.953
19.58000 4.651
19.60000 7.095
19.62000 4.250
19.64000 -0.529
19.66000 5.136
19.68000 2.634
19.70000 0.084
19.72000 3.061
19.74000 4.647
19.76000 9.522
19.78000 3.231
19.80000 1.539
19.82000 3.246
19.84000 6.343
19.86000 8.774
19.88000 1.456
19.90000 -1.684
19.92000 0.233
19.94000 9.139
19.96000 5.948
19.98000 -2.728
20.00000 -4.210
20.02000 -0.936
20.04000 -0.800
20.06000 2.476
20.08000 0.373
20.10000 1.466
20.12000 7.400
20.14000 5.848
20.16000 0.115
20.18000 0.677
20.20000 -3.618
20.22000 -0.656
20.24000 0.973
20.26000 2.560
20.28000 8.350
20.30000 12.728
20.32000 10.507
20.34000 4.421
20.36000 -2.351
20.38000 11.878
20.40000 9.493
20.42000 3.529
20.44000 3.480
20.46000 4.298
20.48000 6.271
20.50000 3.529
20.52000 4.249
20.54000 5.120
20.56000 8.930
20.58000 13.951
20.60000 8.769
20.62000 4.596
20.64000 8.012
20.66000 11.016
20.68000 10.274
20.70000 9.022
20.72000 1.409
20.74000 5.061
20.76000 5.824
20.78000 3.248
20.80000 5.326
20.82000 4.902
20.84000 3.921
20.86000 5.177
20.88000 7.456
20.90000 3.534
20.92000 8.372
20.94000 9.075
20.96000 9.102
20.98000 6.256
21.00000 9.060
21.02000 6.620
21.04000 0.369
21.06000 -4.165
21.08000 -0.534
21.10000 0.912
21.12000 4.111
21.14000 4.877
21.16000 1.999
21.18000 7.353
21.20000 5.695
21.22000 3.098
21.24000 -0.204
21.26000 -4.052
21.28000 3.935
21.30000 2.438
21.32000 2.258
21.34000 8.541
21.36000 3.249
21.38000 1.653
21.40000 0.798
21.42000 0.396
21.44000 -0.845
21.46000 2.617
21.48000 3.676
21.50000 8.083
21.52000 9.978
21.54000 3.406
21.56000 -0.597
21.58000 3.659
21.60000 -0.869
21.62000 0.389
21.64000 2.309
21.66000 3.056
21.68000 5.136
21.70000 0.650
21.72000 0.246
21.74000 6.458
21.76000 4.364
21.78000 -1.066
21.80000 2.602
21.82000 4.529
21.84000 -4.107
21.86000 -0.869
21.88000 -0.048
21.90000 4.425
21.92000 4.622
21.94000 3.723
21.96000 3.809
21.98000 9.480
22.00000 5.621
22.02000 7.245
22.04000 3.255
22.06000 5.382
22.08000 -1.056
22.10000 1.925
22.12000 5.463
22.14000 5.118
22.16000 -1.410
22.18000 4.899
22.20000 3.240
22.22000 1.622
22.24000 2.224
22.26000 0.953
22.28000 5.715
22.30000 1.612
22.32000 2.018
22.34000 2.624
22.36000 2.240
22.38000 7.232
22.40000 6.990
22.42000 4.052
22.44000 -2.563
22.46000 0.317
22.48000 -2.511
22.50000 -1.411
22.52000 3.004
22.54000 5.108
22.56000 5.605
22.58000 0.380
22.60000 0.862
22.62000 5.141
22.64000 7.530
22.66000 2.437
22.68000 0.169
22.70000 5.114
22.72000 7.196
22.74000 8.346
22.76000 10.485
22.78000 11.896
22.80000 4.951
22.82000 0.390
22.84000 2.892
22.86000 -1.534
22.88000 1.542
22.90000 4.521
22.92000 2.617
22.94000 4.489
22.96000 1.552
22.98000 0.674
23.00000 -2.738
23.02000 1.095
23.04000 7.899
23.06000 5.559
23.08000 8.735
23.10000 8.168
23.12000 3.407
23.14000 -4.047
23.16000 1.577
23.18000 5.161
23.20000 4.561
23.22000 5.992
23.24000 1.902
23.26000 2.469
23.28000 3.193
23.30000 12.540
23.32000 10.945
23.34000 2.950
23.36000 1.998
23.38000 -0.269
23.40000 6.259
23.42000 1.104
23.44000 2.873
23.46000 5.693
23.48000 1.633
23.50000 2.125
23.52000 -2.040
23.54000 0.771
23.56000 4.780
23.58000 3.396
23.60000 3.291
23.62000 1.882
23.64000 6.230
23.66000 6.923
23.68000 9.498
23.70000 9.198
23.72000 0.136
23.74000 4.209
23.76000 3.461
23.78000 6.110
23.80000 9.309
23.82000 7.308
23.84000 0.995
23.86000 0.945
23.88000 -4.010
23.90000 1.736
23.92000 4.105
23.94000 6.369
23.96000 5.240
23.98000 -1.220
24.00000 -0.128
24.02000 4.261
24.04000 3.998
24.06000 2.763
24.08000 3.867
24.10000 7.719
24.12000 1.881
24.14000 -0.692
24.16000 5.221
24.18000 6.090
24.20000 2.914
24.22000 0.708
24.24000 -3.417
24.26000 -1.044
24.28000 1.749
24.30000 0.976
24.32000 4.925
24.34000 5.970
24.36000 -0.444
24.38000 -2.770
24.40000 0.582
24.42000 -0.081
24.44000 5.702
24.46000 5.860
24.48000 6.172
24.50000 4.400
24.52000 2.742
24.54000 -0.630
24.56000 0.211
24.58000 -1.497
24.60000 0.794
24.62000 1.971
24.64000 -0.558
24.66000 1.810
24.68000 1.782
24.70000 3.371
24.72000 1.218
24.74000 3.724
24.76000 2.620
24.78000 -0.078
24.80000 0.990
24.82000 0.287
24.84000 4.048
24.86000 1.901
24.88000 0.630
24.90000 -0.498
24.92000 0.772
24.94000 8.173
24.96000 1.936
24.98000 1.330
25.00000 -0.428
25.02000 3.196
25.04000 3.910
25.06000 4.502
25.08000 4.241
25.10000 -3.954
25.12000 -3.743
25.14000 -0.860
25.16000 -2.850
25.18000 2.790
25.20000 1.804
25.22000 3.448
25.24000 8.562
25.26000 10.155
25.28000 3.601
25.30000 -0.369
25.32000 0.323
25.34000 5.453
25.36000 4.701
25.38000 0.486
25.40000 -1.435
25.42000 -0.855
25.44000 2.333
25.46000 1.122
25.48000 0.864
25.50000 5.367
25.52000 1.522
25.54000 0.728
25.56000 -1.272
25.58000 2.270
25.60000 5.566
25.62000 8.081
25.64000 7.979
25.66000 2.736
25.68000 1.457
25.70000 -3.912
25.72000 0.728
25.74000 7.902
25.76000 7.044
25.78000 0.331
25.80000 0.142
25.82000 -2.781
25.84000 0.563
25.86000 4.029
25.88000 1.945
25.90000 1.348
25.92000 -3.893
25.94000 3.738
25.96000 7.896
25.98000 2.175
26.00000 0.235
26.02000 2.893
26.04000 3.486
26.06000 0.412
26.08000 2.703
26.10000 4.745
26.12000 3.150
26.14000 5.577
26.16000 1.144
26.18000 -0.617
26.20000 6.275
26.22000 7.065
26.24000 0.933
26.26000 -3.016
26.28000 -0.352
26.30000 3.765
26.32000 4.365
26.34000 9.000
26.36000 3.085
26.38000 0.138
26.40000 6.978
26.42000 4.333
26.44000 4.726
26.46000 5.309
26.48000 4.944
26.50000 6.671
26.52000 4.349
26.54000 -0.311
26.56000 4.276
26.58000 7.609
26.60000 5.612
26.62000 0.594
26.64000 0.688
26.66000 9.845
26.68000 2.592
26.70000 -3.868
26.72000 -0.143
26.74000 -0.345
26.76000 0.257
26.78000 -1.932
26.80000 -3.584
26.82000 -0.381
26.84000 -1.178
26.86000 0.023
26.88000 4.856
26.90000 6.883
26.92000 3.945
26.94000 2.923
26.96000 -3.773
26.98000 -0.125
27.00000 6.664
27.02000 2.479
27.04000 -3.849
27.06000 0.732
27.08000 3.456
27.10000 7.818
27.12000 5.780
27.14000 1.595
27.16000 1.178
27.18000 1.052
27.20000 -2.190
27.22000 -3.840
27.24000 0.040
27.26000 1.477
27.28000 1.639
27.30000 5.767
27.32000 4.756
27.34000 2.251
27.36000 3.391
27.38000 2.813
27.40000 3.366
27.42000 6.936
27.44000 7.032
27.46000 3.580
27.48000 0.043
27.50000 1.914
27.52000 3.201
27.54000 3.438
27.56000 4.244
27.58000 3.756
27.60000 1.144
27.62000 5.925
27.64000 4.062
27.66000 2.843
27.68000 -0.815
27.70000 -1.083
27.72000 5.526
27.74000 2.567
27.76000 1.912
27.78000 3.694
27.80000 0.331
27.82000 -2.741
27.84000 1.339
27.86000 4.459
27.88000 4.139
27.90000 0.185
27.92000 0.517
27.94000 -0.849
27.96000 3.012
27.98000 0.166
28.00000 6.447
28.02000 6.237
28.04000 4.934
28.06000 4.128
28.08000 3.663
28.10000 -0.074
28.12000 1.579
28.14000 2.597
28.16000 -0.988
28.18000 -0.633
28.20000 -0.242
28.22000 1.961
28.24000 10.389
28.26000 3.849
28.28000 -0.170
28.30000 1.479
28.32000 7.977
28.34000 6.371
28.36000 7.563
28.38000 7.852
28.40000 3.023
28.42000 1.889
28.44000 1.767
28.46000 -1.384
28.48000 2.946
28.50000 7.927
28.52000 9.769
28.54000 2.337
28.56000 -3.733
28.58000 2.778
28.60000 4.644
28.62000 7.569
28.64000 7.880
28.66000 4.332
28.68000 2.424
28.70000 8.495
28.72000 5.549
28.74000 4.442
28.76000 6.200
28.78000 1.123
28.80000 2.688
28.82000 3.398
28.84000 6.378
28.86000 4.468
28.88000 5.120
28.90000 0.391
28.92000 0.960
28.94000 6.890
28.96000 6.721
28.98000 2.343
29.00000 4.859
29.02000 9.139
29.04000 5.309
29.06000 3.664
29.08000 5.153
29.10000 8.056
29.12000 5.377
29.14000 4.843
29.16000 6.019
29.18000 6.760
29.20000 5.104
29.22000 2.861
29.24000 6.230
29.26000 3.306
29.28000 1.543
29.30000 5.523
29.32000 11.388
29.34000 4.647
29.36000 4.515
29.38000 2.637
29.40000 3.108
29.42000 2.868
29.44000 2.903
29.46000 0.842
29.48000 6.095
29.50000 4.783
29.52000 3.361
29.54000 5.161
29.56000 6.729
29.58000 7.345
29.60000 -2.200
29.62000 -1.112
29.64000 7.746
29.66000 4.437
29.68000 -3.698
29.70000 -0.675
29.72000 1.222
29.74000 1.488
29.76000 6.242
29.78000 3.352
29.80000 1.374
29.82000 2.866
29.84000 8.945
29.86000 2.211
29.88000 0.467
29.90000 3.519
29.92000 1.306
29.94000 3.757
29.96000 3.607
29.98000 0.768
30.00000 -0.141
30.02000 -1.823
30.04000 -3.504
30.06000 1.509
30.08000 4.848
30.10000 1.149
30.12000 5.682
30.14000 5.051
30.16000 6.100
30.18000 7.217
30.20000 3.228
30.22000 1.893
30.24000 -0.572
30.26000 1.402
30.28000 0.485
30.30000 -0.391
30.32000 -2.234
30.34000 -0.716
30.36000 -0.203
30.38000 1.990
30.40000 4.765
30.42000 5.118
30.44000 4.888
30.46000 -1.623
30.48000 -3.185
30.50000 2.673
30.52000 2.164
30.54000 0.376
30.56000 2.638
30.58000 1.895
30.60000 -2.614
30.62000 -0.621
30.64000 -1.586
30.66000 3.263
30.68000 1.994
30.70000 3.569
30.72000 4.198
30.74000 2.056
30.76000 5.328
30.78000 3.269
30.80000 0.112
30.82000 3.833
30.84000 6.317
30.86000 4.901
30.88000 5.640
30.90000 5.100
30.92000 1.169
30.94000 1.661
30.96000 4.018
30.98000 5.924
31.00000 2.261
31.02000 3.073
31.04000 6.783
31.06000 6.383
31.08000 -1.582
31.10000 -0.816
31.12000 1.571
31.14000 3.852
31.16000 3.249
31.18000 2.899
31.20000 3.948
31.22000 1.365
31.24000 3.180
31.26000 4.746
31.28000 5.325
31.30000 4.222
31.32000 0.655
31.34000 -0.175
31.36000 -3.208
31.38000 -3.602
31.40000 1.922
31.42000 3.929
31.44000 1.795
31.46000 2.190
31.48000 3.431
31.50000 3.535
31.52000 0.711
31.54000 -0.982
31.56000 -2.571
31.58000 3.852
31.60000 -1.785
31.62000 1.644
31.64000 8.172
31.66000 6.495
31.68000 5.230
31.70000 2.073
31.72000 0.021
31.74000 2.278
31.76000 5.140
31.78000 1.956
31.80000 1.484
31.82000 -0.214
31.84000 1.732
31.86000 2.408
31.88000 0.645
31.90000 -1.299
31.92000 2.646
31.94000 4.733
31.96000 7.050
31.98000 5.934
32.00000 7.070
32.02000 8.470
32.04000 6.811
32.06000 2.422
32.08000 -0.798
32.10000 -3.591
32.12000 3.190
32.14000 2.225
32.16000 -1.751
32.18000 3.818
32.20000 1.881
32.22000 1.123
32.24000 4.241
32.26000 1.295
32.28000 4.416
32.30000 1.533
32.32000 1.189
32.34000 -1.606
32.36000 -0.861
32.38000 0.608
32.40000 -1.220
32.42000 0.436
32.44000 -2.400
32.46000 3.798
32.48000 2.252
32.50000 3.221
32.52000 3.069
32.54000 1.640
32.56000 4.777
32.58000 4.089
32.60000 1.310
32.62000 1.283
32.64000 0.400
32.66000 4.096
32.68000 2.244
32.70000 -1.086
32.72000 4.643
32.74000 5.072
32.76000 0.303
32.78000 -2.840
32.80000 2.018
32.82000 2.320
32.84000 -2.330
32.86000 -2.777
32.88000 -1.423
32.90000 -0.666
32.92000 0.166
32.94000 3.451
32.96000 3.160
32.98000 -0.237
33.00000 1.657
33.02000 1.640
33.04000 0.010
33.06000 0.564
33.08000 1.089
33.10000 5.036
33.12000 7.466
33.14000 6.726
33.16000 2.477
33.18000 2.308
33.20000 2.494
33.22000 2.338
33.24000 -0.099
33.26000 5.643
33.28000 8.426
33.30000 6.442
33.32000 -0.630
33.34000 3.448
33.36000 7.333
33.38000 5.891
33.40000 1.042
33.42000 -0.997
33.44000 1.828
33.46000 5.305
33.48000 9.423
33.50000 1.999
33.52000 3.974
33.54000 3.756
33.56000 4.172
33.58000 2.143
33.60000 6.941
33.62000 2.406
33.64000 -0.064
33.66000 -3.539
33.68000 0.841
33.70000 7.496
33.72000 3.718
33.74000 4.459
33.76000 4.755
33.78000 5.073
33.80000 9.578
33.82000 4.652
33.84000 2.451
33.86000 2.275
33.88000 3.468
33.90000 1.883
33.92000 -0.408
33.94000 3.102
33.96000 5.156
33.98000 6.851
34.00000 5.406
34.02000 -1.384
34.04000 -0.841
34.06000 1.709
34.08000 3.377
34.10000 3.785
34.12000 6.450
34.14000 4.104
34.16000 1.388
34.18000 6.604
34.20000 5.881
34.22000 8.049
34.24000 5.009
34.26000 5.290
34.28000 9.827
34.30000 8.635
34.32000 8.914
34.34000 6.138
34.36000 1.833
34.38000 -0.145
34.40000 1.585
34.42000 3.963
34.44000 2.939
34.46000 -2.863
34.48000 -3.502
34.50000 -1.511
34.52000 2.280
34.54000 4.284
34.56000 5.507
34.58000 7.186
34.60000 5.018
34.62000 3.313
34.64000 4.394
34.66000 4.080
34.68000 5.578
34.70000 2.150
34.72000 4.005
34.74000 1.403
34.76000 5.126
34.78000 7.815
34.80000 7.374
34.82000 -0.545
34.84000 1.745
34.86000 1.390
34.88000 5.077
34.90000 8.265
34.92000 3.704
34.94000 2.105
34.96000 4.377
34.98000 3.751
35.00000 1.164
35.02000 4.507
35.04000 1.072
35.06000 -1.531
35.08000 -2.663
35.10000 -3.474
35.12000 1.235
35.14000 3.741
35.16000 10.188
35.18000 6.857
35.20000 0.289
35.22000 -0.859
35.24000 -0.805
35.26000 0.706
35.28000 5.758
35.30000 4.292
35.32000 4.344
35.34000 1.658
35.36000 0.100
35.38000 4.222
35.40000 -0.011
35.42000 0.526
35.44000 2.219
35.46000 2.685
35.48000 4.150
35.50000 1.915
35.52000 -2.948
35.54000 0.153
35.56000 1.829
35.58000 -2.679
35.60000 -1.123
35.62000 2.527
35.64000 4.165
35.66000 5.666
35.68000 3.802
35.70000 1.901
35.72000 4.723
35.74000 6.946
35.76000 5.130
35.78000 4.155
35.80000 -1.912
35.82000 -0.386
35.84000 4.104
35.86000 3.272
35.88000 0.837
35.90000 1.990
35.92000 3.569
35.94000 6.759
35.96000 4.201
35.98000 2.892
36.00000 0.622
36.02000 -3.474
36.04000 -2.667
36.06000 -1.725
36.08000 1.562
36.10000 1.728
36.12000 5.627
36.14000 5.910
36.16000 5.834
36.18000 5.143
36.20000 3.115
36.22000 3.773
36.24000 6.159
36.26000 3.662
36.28000 4.167
36.30000 5.246
36.32000 7.145
36.34000 4.470
36.36000 2.415
36.38000 1.525
36.40000 -2.292
36.42000 -3.474
36.44000 2.254
36.46000 2.441
36.48000 2.369
36.50000 4.578
36.52000 0.991
36.54000 5.209
36.56000 2.065
36.58000 -0.296
36.60000 0.529
36.62000 -1.513
36.64000 -3.489
36.66000 -2.154
36.68000 -0.494
36.70000 2.194
36.72000 -0.880
36.74000 0.001
36.76000 0.286
36.78000 -1.047
36.80000 -3.394
36.82000 -2.039
36.84000 -1.269
36.86000 -1.991
36.88000 -2.938
36.90000 2.598
36.92000 5.564
36.94000 2.129
36.96000 1.324
36.98000 3.012
37.00000 2.935
37.02000 5.257
37.04000 3.198
37.06000 -0.372
37.08000 -0.155
37.10000 2.695
37.12000 1.035
37.14000 3.227
37.16000 3.555
37.18000 -1.296
37.20000 -3.515
37.22000 -3.110
37.24000 -0.276
37.26000 0.342
37.28000 0.270
37.30000 1.535
37.32000 0.258
37.34000 -0.780
37.36000 -1.266
37.38000 0.077
37.40000 -1.041
37.42000 0.736
37.44000 1.263
37.46000 1.687
37.48000 2.694
37.50000 3.223
37.52000 5.552
37.54000 1.769
37.56000 -1.777
37.58000 -3.538
37.60000 -0.185
37.62000 3.828
37.64000 -0.937
37.66000 -0.275
37.68000 1.980
37.70000 6.178
37.72000 4.430
37.74000 2.771
37.76000 1.832
37.78000 5.387
37.80000 3.560
37.82000 -0.515
37.84000 -0.729
37.86000 1.221
37.88000 3.855
37.90000 3.796
37.92000 5.137
37.94000 4.766
37.96000 6.121
37.98000 8.265
38.00000 10.545
38.02000 7.501
38.04000 5.579
38.06000 5.319
38.08000 4.087
38.10000 5.361
38.12000 11.882
38.14000 11.175
38.16000 11.788
38.18000 10.718
38.20000 12.729
38.22000 15.809
38.24000 12.912
38.26000 8.354
38.28000 10.146
38.30000 11.278
38.32000 11.913
38.34000 9.278
38.36000 12.478
38.38000 13.638
38.40000 8.805
38.42000 9.096
38.44000 11.780
38.46000 14.603
38.48000 16.505
38.50000 13.984
38.52000 12.934
38.54000 16.117
38.56000 16.757
38.58000 14.168
38.60000 10.710
38.62000 13.334
38.64000 18.727
38.66000 17.128
38.68000 15.935
38.70000 11.741
38.72000 12.199
38.74000 15.987
38.76000 15.259
38.78000 14.863
38.80000 13.981
38.82000 20.466
38.84000 23.556
38.86000 18.302
38.88000 16.863
38.90000 23.501
38.92000 22.580
38.94000 24.347
38.96000 27.383
38.98000 27.742
39.00000 26.957
39.02000 23.486
39.04000 28.605
39.06000 26.145
39.08000 20.807
39.10000 24.386
39.12000 29.633
39.14000 28.327
39.16000 33.135
39.18000 30.325
39.20000 32.797
39.22000 39.146
39.24000 36.353
39.26000 32.280
39.28000 35.403
39.30000 35.487
39.32000 40.895
39.34000 37.125
39.36000 38.157
39.38000 45.043
39.40000 49.923
39.42000 52.222
39.44000 55.131
39.46000 56.749
39.48000 54.742
39.50000 59.015
39.52000 59.785
39.54000 65.606
39.56000 69.975
39.58000 68.982
39.60000 75.973
39.62000 78.335
39.64000 80.912
39.66000 90.417
39.68000 96.858
39.70000 96.044
39.72000 100.503
39.74000 104.677
39.76000 109.807
39.78000 110.358
39.80000 113.085
39.82000 122.958
39.84000 132.129
39.86000 143.483
39.88000 152.120
39.90000 161.385
39.92000 166.860
39.94000 169.716
39.96000 178.752
39.98000 199.405
40.00000 207.871
40.02000 218.446
40.04000 231.107
40.06000 245.668
40.08000 264.776
40.10000 275.821
40.12000 284.634
40.14000 299.303
40.16000 312.290
40.18000 334.862
40.20000 349.815
40.22000 362.155
40.24000 382.073
40.26000 397.052
40.28000 415.726
40.30000 436.701
40.32000 451.902
40.34000 470.652
40.36000 495.687
40.38000 512.688
40.40000 514.295
40.42000 523.295
40.44000 536.238
40.46000 549.834
40.48000 566.006
40.50000 565.415
40.52000 574.112
40.54000 575.594
40.56000 578.459
40.58000 578.614
40.60000 581.195
40.62000 568.647
40.64000 568.260
40.66000 561.164
40.68000 543.969
40.70000 535.751
40.72000 530.248
40.74000 522.942
40.76000 506.740
40.78000 498.227
40.80000 478.402
40.82000 449.861
40.84000 440.934
40.86000 432.774
40.88000 414.168
40.90000 395.182
40.92000 384.284
40.94000 372.540
40.96000 356.752
40.98000 335.236
41.00000 316.373
41.02000 305.771
41.04000 279.858
41.06000 267.081
41.08000 261.988
41.10000 249.227
41.12000 238.162
41.14000 227.796
41.16000 218.370
41.18000 196.859
41.20000 188.169
41.22000 183.050
41.24000 166.285
41.26000 162.393
41.28000 152.183
41.30000 145.158
41.32000 142.175
41.34000 137.195
41.36000 123.895
41.38000 120.762
41.40000 117.393
41.42000 112.055
41.44000 97.831
41.46000 98.983
41.48000 98.349
41.50000 90.036
41.52000 82.749
41.54000 76.122
41.56000 70.762
41.58000 68.013
41.60000 67.012
41.62000 65.393
41.64000 62.308
41.66000 57.515
41.68000 56.135
41.70000 47.706
41.72000 46.938
41.74000 51.048
41.76000 47.939
41.78000 45.747
41.80000 43.420
41.82000 42.802
41.84000 37.456
41.86000 33.432
41.88000 38.502
41.90000 31.794
41.92000 31.143
41.94000 29.315
41.96000 25.581
41.98000 22.418
42.00000 28.700
42.02000 26.744
42.04000 20.907
42.06000 24.371
42.08000 20.227
42.10000 15.507
42.12000 16.801
42.14000 14.006
42.16000 10.510
42.18000 14.795
42.20000 20.302
42.22000 13.576
42.24000 14.593
42.26000 14.868
42.28000 15.136
42.30000 14.234
42.32000 12.857
42.34000 13.823
42.36000 8.162
42.38000 6.806
42.40000 11.794
42.42000 10.190
42.44000 7.964
42.46000 11.343
42.48000 14.214
42.50000 10.774
42.52000 10.080
42.54000 9.282
42.56000 7.346
42.58000 6.699
42.60000 7.846
42.62000 5.160
42.64000 1.263
42.66000 3.023
42.68000 4.621
42.70000 6.077
42.72000 4.924
42.74000 6.408
42.76000 6.448
42.78000 7.059
42.80000 7.912
42.82000 4.449
42.84000 5.400
42.86000 5.292
42.88000 1.061
42.90000 3.411
42.92000 2.423
42.94000 2.203
42.96000 2.234
42.98000 -1.737
43.00000 1.028
43.02000 3.911
43.04000 -1.658
43.06000 2.736
43.08000 2.639
43.10000 -0.464
43.12000 2.560
43.14000 4.359
43.16000 3.717
43.18000 0.747
43.20000 -2.612
43.22000 -1.443
43.24000 -0.203
43.26000 4.418
43.28000 3.286
43.30000 2.611
43.32000 -3.281
43.34000 -0.324
43.36000 3.041
43.38000 0.625
43.40000 -3.408
43.42000 -0.040
43.44000 1.437
43.46000 2.882
43.48000 2.651
43.50000 0.922
43.52000 -0.308
43.54000 0.988
43.56000 0.399
43.58000 2.372
43.60000 -1.447
43.62000 -3.378
43.64000 -0.318
43.66000 1.504
43.68000 -0.226
43.70000 1.217
43.72000 2.732
43.74000 2.729
43.76000 -1.561
43.78000 -2.890
43.80000 0.740
43.82000 -0.458
43.84000 1.335
43.86000 2.426
43.88000 2.768
43.90000 -1.621
43.92000 0.681
43.94000 -2.762
43.96000 -2.951
43.98000 0.547
44.00000 1.674
44.02000 0.582
44.04000 -0.809
44.06000 -0.074
44.08000 1.186
44.10000 -3.315
44.12000 -1.109
44.14000 3.361
44.16000 5.172
44.18000 2.162
44.20000 1.824
44.22000 5.302
44.24000 5.594
44.26000 1.834
44.28000 1.762
44.30000 1.325
44.32000 -0.738
44.34000 1.255
44.36000 6.473
44.38000 1.607
44.40000 -2.088
44.42000 -0.114
44.44000 2.005
44.46000 -0.465
44.48000 -1.187
44.50000 2.392
44.52000 0.883
44.54000 1.887
44.56000 -3.280
44.58000 -1.845
44.60000 1.844
44.62000 7.277
44.64000 4.906
44.66000 4.662
44.68000 3.339
44.70000 5.561
44.72000 4.761
44.74000 2.679
44.76000 2.147
44.78000 -0.337
44.80000 -3.281
44.82000 -1.781
44.84000 2.253
44.86000 5.261
44.88000 5.183
44.90000 -2.434
44.92000 -0.928
44.94000 1.550
44.96000 4.449
44.98000 2.562
45.00000 -0.007
45.02000 2.230
45.04000 -0.574
45.06000 5.025
45.08000 2.719
45.10000 -0.525
45.12000 2.079
45.14000 2.901
45.16000 4.022
45.18000 6.837
45.20000 6.726
45.22000 3.062
45.24000 -0.307
45.26000 2.224
45.28000 2.820
45.30000 -0.795
45.32000 -2.064
45.34000 0.662
45.36000 -0.335
45.38000 5.561
45.40000 6.076
45.42000 1.978
45.44000 2.742
45.46000 3.330
45.48000 2.585
45.50000 5.038
45.52000 7.350
45.54000 2.051
45.56000 2.802
45.58000 5.735
45.60000 6.266
45.62000 9.917
45.64000 11.253
45.66000 10.712
45.68000 8.274
45.70000 5.385
45.72000 7.878
45.74000 8.816
45.76000 8.077
45.78000 8.585
45.80000 7.775
45.82000 11.737
45.84000 11.354
45.86000 11.004
45.88000 15.156
45.90000 8.915
45.92000 8.563
45.94000 10.097
45.96000 13.618
45.98000 12.607
46.00000 13.571
46.02000 14.374
46.04000 14.309
46.06000 14.392
46.08000 15.647
46.10000 20.246
46.12000 18.465
46.14000 18.937
46.16000 14.086
46.18000 13.798
46.20000 24.585
46.22000 21.187
46.24000 20.673
46.26000 20.032
46.28000 21.616
46.30000 24.103
46.32000 26.260
46.34000 24.122
46.36000 26.578
46.38000 29.935
46.40000 31.013
46.42000 33.368
46.44000 36.948
46.46000 38.543
46.48000 35.653
46.50000 31.838
46.52000 35.220
46.54000 40.491
46.56000 36.684
46.58000 39.727
46.60000 47.142
46.62000 47.892
46.64000 43.061
46.66000 46.674
46.68000 49.277
46.70000 44.641
46.72000 47.815
46.74000 54.653
46.76000 58.141
46.78000 54.218
46.80000 57.561
46.82000 57.655
46.84000 61.159
46.86000 60.973
46.88000 59.594
46.90000 64.787
46.92000 64.069
46.94000 66.886
46.96000 69.507
46.98000 71.861
47.00000 72.008
47.02000 75.643
47.04000 70.667
47.06000 68.184
47.08000 72.484
47.10000 77.932
47.12000 78.615
47.14000 78.138
47.16000 77.651
47.18000 82.539
47.20000 77.260
47.22000 80.936
47.24000 79.062
47.26000 76.435
47.28000 75.283
47.30000 74.196
47.32000 72.937
47.34000 72.468
47.36000 74.462
47.38000 70.607
47.40000 73.308
47.42000 68.292
47.44000 63.755
47.46000 60.964
47.48000 62.848
47.50000 61.797
47.52000 63.798
47.54000 64.850
47.56000 61.148
47.58000 56.342
47.60000 51.646
47.62000 55.426
47.64000 54.212
47.66000 54.265
47.68000 48.841
47.70000 43.659
47.72000 42.953
47.74000 44.804
47.76000 43.109
47.78000 40.487
47.80000 37.720
47.82000 38.947
47.84000 35.316
47.86000 34.641
47.88000 33.843
47.90000 34.351
47.92000 33.817
47.94000 32.458
47.96000 33.923
47.98000 27.790
48.00000 26.161
48.02000 26.101
48.04000 24.006
48.06000 17.675
48.08000 19.272
48.10000 20.845
48.12000 19.517
48.14000 19.211
48.16000 18.029
48.18000 17.503
48.20000 18.614
48.22000 16.880
48.24000 11.890
48.26000 12.277
48.28000 17.853
48.30000 15.903
48.32000 9.824
48.34000 7.825
48.36000 9.383
48.38000 11.415
48.40000 11.654
48.42000 8.423
48.44000 8.340
48.46000 3.674
48.48000 6.005
48.50000 11.899
48.52000 13.910
48.54000 5.837
48.56000 3.837
48.58000 5.519
48.60000 6.567
48.62000 5.859
48.64000 6.453
48.66000 2.148
48.68000 -0.321
48.70000 6.379
48.72000 2.159
48.74000 -0.009
48.76000 2.778
48.78000 3.884
48.80000 5.738
48.82000 6.450
48.84000 3.745
48.86000 -0.518
48.88000 -0.026
48.90000 -0.634
48.92000 4.187
48.94000 2.836
48.96000 1.586
48.98000 0.451
49.00000 -0.087
49.02000 2.276
49.04000 0.658
49.06000 0.240
49.08000 6.380
49.10000 1.152
49.12000 -1.010
49.14000 -1.140
49.16000 2.387
49.18000 0.714
49.20000 0.338
49.22000 2.309
49.24000 1.358
49.26000 0.824
49.28000 2.598
49.30000 3.653
49.32000 3.462
49.34000 1.369
49.36000 -1.285
49.38000 -2.834
49.40000 2.904
49.42000 4.373
49.44000 0.225
49.46000 0.893
49.48000 2.824
49.50000 -1.136
49.52000 -0.059
49.54000 1.927
49.56000 1.179
49.58000 1.761
49.60000 1.047
49.62000 0.762
49.64000 1.679
49.66000 3.772
49.68000 2.247
49.70000 2.290
49.72000 -0.544
49.74000 -1.458
49.76000 -0.148
49.78000 1.448
49.80000 2.755
49.82000 -1.336
49.84000 1.306
49.86000 3.456
49.88000 -0.221
49.90000 1.782
49.92000 0.138
49.94000 5.524
49.96000 2.673
49.98000 2.303
50.00000 4.667
50.02000 2.834
50.04000 3.221
50.06000 1.625
50.08000 2.391
50.10000 -1.107
50.12000 -2.338
50.14000 1.201
50.16000 3.176
50.18000 -0.314
50.20000 1.569
50.22000 5.212
50.24000 0.232
50.26000 4.040
50.28000 5.242
50.30000 5.422
50.32000 5.597
50.34000 5.415
50.36000 4.021
50.38000 -1.146
50.40000 -2.499
50.42000 1.968
50.44000 5.218
50.46000 7.812
50.48000 7.039
50.50000 0.521
50.52000 -1.028
50.54000 4.073
50.56000 6.716
50.58000 5.885
50.60000 3.235
50.62000 1.269
50.64000 -0.356
50.66000 -2.680
50.68000 0.587
50.70000 3.302
50.72000 1.110
50.74000 2.413
50.76000 2.276
50.78000 2.154
50.80000 -0.156
50.82000 0.316
50.84000 0.460
50.86000 -0.467
50.88000 0.899
50.90000 2.138
50.92000 4.566
50.94000 7.074
50.96000 5.603
50.98000 4.469
51.00000 2.256
51.02000 1.364
51.04000 5.252
51.06000 5.944
51.08000 4.039
51.10000 -2.108
51.12000 -0.637
51.14000 1.638
51.16000 4.569
51.18000 4.738
51.20000 4.869
51.22000 4.001
51.24000 -0.491
51.26000 3.659
51.28000 2.278
51.30000 1.882
51.32000 0.637
51.34000 -1.094
51.36000 2.707
51.38000 5.614
51.40000 4.494
51.42000 -1.435
51.44000 0.482
51.46000 1.898
51.48000 4.462
51.50000 9.144
51.52000 7.546
51.54000 2.384
51.56000 0.755
51.58000 0.475
51.60000 2.289
51.62000 0.186
51.64000 2.654
51.66000 6.512
51.68000 6.326
51.70000 8.767
51.72000 7.752
51.74000 4.542
51.76000 6.186
51.78000 0.990
51.80000 3.544
51.82000 7.455
51.84000 5.415
51.86000 4.285
51.88000 5.320
51.90000 8.036
51.92000 9.395
51.94000 9.792
51.96000 7.665
51.98000 8.408
52.00000 10.180
52.02000 8.940
52.04000 0.799
52.06000 0.372
52.08000 -2.603
52.10000 0.069
52.12000 3.435
52.14000 7.422
52.16000 7.262
52.18000 2.949
52.20000 2.359
52.22000 3.938
52.24000 5.658
52.26000 4.295
52.28000 2.818
52.30000 1.260
52.32000 3.351
52.34000 4.259
52.36000 4.833
52.38000 1.883
52.40000 -2.011
52.42000 1.541
52.44000 1.947
52.46000 4.822
52.48000 4.167
52.50000 -2.052
52.52000 0.822
52.54000 4.481
52.56000 1.878
52.58000 2.407
52.60000 6.866
52.62000 4.538
52.64000 7.384
52.66000 9.237
52.68000 5.745
52.70000 10.460
52.72000 10.804
52.74000 8.368
52.76000 4.003
52.78000 3.046
52.80000 0.143
52.82000 2.210
52.84000 1.663
52.86000 3.894
52.88000 6.034
52.90000 4.030
52.92000 3.724
52.94000 3.569
52.96000 2.367
52.98000 3.134
53.00000 6.636
53.02000 10.076
53.04000 8.243
53.06000 9.006
53.08000 3.871
53.10000 3.470
53.12000 3.470
53.14000 7.152
53.16000 8.923
53.18000 7.332
53.20000 3.513
53.22000 2.206
53.24000 0.319
53.26000 0.772
53.28000 6.140
53.30000 6.921
53.32000 7.039
53.34000 6.729
53.36000 3.248
53.38000 -2.573
53.40000 -1.525
53.42000 1.213
53.44000 2.698
53.46000 5.200
53.48000 4.329
53.50000 2.677
53.52000 3.731
53.54000 4.144
53.56000 4.115
53.58000 5.403
53.60000 2.632
53.62000 1.413
53.64000 -0.850
53.66000 0.461
53.68000 5.902
53.70000 6.595
53.72000 6.491
53.74000 4.062
53.76000 5.278
53.78000 1.173
53.80000 1.976
53.82000 2.831
53.84000 3.025
53.86000 1.758
53.88000 1.430
53.90000 -0.284
53.92000 -1.673
53.94000 -1.466
53.96000 3.917
53.98000 4.269
54.00000 3.430
54.02000 4.384
54.04000 2.611
54.06000 4.315
54.08000 -2.587
54.10000 -0.322
54.12000 0.437
54.14000 1.942
54.16000 3.461
54.18000 2.534
54.20000 2.097
54.22000 -0.192
54.24000 1.254
54.26000 1.297
54.28000 1.919
54.30000 -0.620
54.32000 -0.329
54.34000 3.287
54.36000 0.643
54.38000 -0.835
54.40000 0.363
54.42000 2.675
54.44000 3.970
54.46000 4.337
54.48000 3.445
54.50000 2.914
54.52000 -0.244
54.54000 0.942
54.56000 3.127
54.58000 6.065
54.60000 7.742
54.62000 4.010
54.64000 2.313
54.66000 -2.587
54.68000 -0.926
54.70000 3.486
54.72000 1.298
54.74000 2.587
54.76000 1.506
54.78000 1.738
54.80000 4.955
54.82000 4.958
54.84000 4.314
54.86000 2.659
54.88000 1.812
54.90000 1.906
54.92000 0.564
54.94000 2.674
54.96000 2.569
54.98000 0.777
55.00000 -0.090
55.02000 -2.440
55.04000 -1.470
55.06000 1.644
55.08000 2.743
55.10000 4.546
55.12000 2.037
55.14000 -2.129
55.16000 -0.898
55.18000 -1.627
55.20000 -1.201
55.22000 -2.030
55.24000 -1.091
55.26000 3.465
55.28000 3.543
55.30000 3.156
55.32000 3.943
55.34000 2.205
55.36000 -0.498
55.38000 -1.718
55.40000 3.770
55.42000 5.105
55.44000 3.248
55.46000 3.442
55.48000 1.365
55.50000 1.989
55.52000 4.187
55.54000 5.165
55.56000 2.065
55.58000 6.425
55.60000 7.985
55.62000 5.319
55.64000 2.029
55.66000 1.940
55.68000 1.306
55.70000 -1.966
55.72000 2.078
55.74000 3.970
55.76000 3.383
55.78000 3.708
55.80000 4.927
55.82000 2.729
55.84000 6.003
55.86000 4.404
55.88000 3.139
55.90000 3.084
55.92000 3.511
55.94000 1.343
55.96000 -2.511
55.98000 0.390
56.00000 2.219
56.02000 4.078
56.04000 5.996
56.06000 3.600
56.08000 3.499
56.10000 0.461
56.12000 -0.053
56.14000 5.063
56.16000 4.700
56.18000 5.494
56.20000 4.503
56.22000 0.718
56.24000 -0.651
56.26000 0.420
56.28000 3.379
56.30000 7.365
56.32000 5.256
56.34000 2.135
56.36000 -0.197
56.38000 1.666
56.40000 2.425
56.42000 2.101
56.44000 3.385
56.46000 6.204
56.48000 9.055
56.50000 2.903
56.52000 -1.716
56.54000 -1.978
56.56000 -0.435
56.58000 2.019
56.60000 -0.160
56.62000 -0.569
56.64000 0.471
56.66000 -0.983
56.68000 -0.179
56.70000 -1.095
56.72000 1.056
56.74000 2.207
56.76000 0.220
56.78000 2.635
56.80000 2.592
56.82000 0.422
56.84000 4.361
56.86000 6.740
56.88000 2.723
56.90000 -0.036
56.92000 2.074
56.94000 0.265
56.96000 0.345
56.98000 -0.186
57.00000 -0.738
57.02000 1.554
57.04000 0.336
57.06000 -0.433
57.08000 6.554
57.10000 4.569
57.12000 2.741
57.14000 -1.917
57.16000 -0.926
57.18000 -1.976
57.20000 1.986
57.22000 0.049
57.24000 0.173
57.26000 0.809
57.28000 0.348
57.30000 -2.514
57.32000 1.303
57.34000 -1.347
57.36000 -1.081
57.38000 -1.043
57.40000 4.439
57.42000 5.691
57.44000 2.036
57.46000 0.718
57.48000 0.865
57.50000 -0.099
57.52000 4.702
57.54000 5.278
57.56000 5.073
57.58000 7.536
57.60000 2.140
57.62000 1.677
57.64000 0.369
57.66000 3.481
57.68000 5.021
57.70000 5.064
57.72000 3.997
57.74000 0.766
57.76000 0.096
57.78000 1.195
57.80000 3.432
57.82000 3.383
57.84000 2.455
57.86000 4.730
57.88000 3.240
57.90000 1.675
57.92000 1.612
57.94000 -2.481
57.96000 1.722
57.98000 -1.387
58.00000 0.230
58.02000 2.030
58.04000 2.247
58.06000 5.095
58.08000 1.964
58.10000 1.156
58.12000 -0.260
58.14000 2.209
58.16000 0.422
58.18000 2.106
58.20000 4.098
58.22000 0.202
58.24000 1.195
58.26000 1.343
58.28000 2.136
58.30000 0.935
58.32000 -0.969
58.34000 2.307
58.36000 6.453
58.38000 6.438
58.40000 4.090
58.42000 5.041
58.44000 1.448
58.46000 -1.210
58.48000 6.699
58.50000 5.580
58.52000 2.270
58.54000 2.656
58.56000 1.399
58.58000 -0.902
58.60000 -1.950
58.62000 -0.678
58.64000 1.262
58.66000 1.516
58.68000 -0.470
58.70000 2.473
58.72000 4.703
58.74000 2.380
58.76000 -0.655
58.78000 0.418
58.80000 1.435
58.82000 -1.769
58.84000 -2.326
58.86000 -1.595
58.88000 0.302
58.90000 2.761
58.92000 2.886
58.94000 -0.103
58.96000 1.630
58.98000 0.713
59.00000 1.117
59.02000 -0.045
59.04000 -1.268
59.06000 -0.648
59.08000 0.594
59.10000 1.118
59.12000 0.063
59.14000 -1.205
59.16000 -0.363
59.18000 3.724
59.20000 4.056
59.22000 0.338
59.24000 -1.559
59.26000 0.317
59.28000 -1.411
59.30000 1.934
59.32000 2.465
59.34000 -2.023
59.36000 1.678
59.38000 5.517
59.40000 0.308
59.42000 6.112
59.44000 6.237
59.46000 1.680
59.48000 -0.281
59.50000 -2.442
59.52000 0.357
59.54000 0.703
59.56000 -0.124
59.58000 1.911
59.60000 3.083
59.62000 3.063
59.64000 1.523
59.66000 1.414
59.68000 3.115
59.70000 3.246
59.72000 4.321
59.74000 3.290
59.76000 4.119
59.78000 5.368
59.80000 2.676
59.82000 2.419
59.84000 3.443
59.86000 4.229
59.88000 -0.148
59.90000 4.193
59.92000 5.687
59.94000 4.276
59.96000 -2.273
59.98000 -1.980
60.00000 -0.588
60.02000 -0.550
60.04000 1.263
60.06000 5.759
60.08000 2.251
60.10000 0.991
60.12000 -2.401
60.14000 0.133
60.16000 0.394
60.18000 2.119
60.20000 3.427
60.22000 0.960
60.24000 6.010
60.26000 4.752
60.28000 3.024
60.30000 3.499
60.32000 2.926
60.34000 2.926
60.36000 2.598
60.38000 1.692
60.40000 1.017
60.42000 5.793
60.44000 5.905
60.46000 5.969
60.48000 1.757
60.50000 2.790
60.52000 4.808
60.54000 3.248
60.56000 2.132
60.58000 1.695
60.60000 1.425
60.62000 3.098
60.64000 0.005
60.66000 -2.399
60.68000 2.138
60.70000 7.685
60.72000 3.810
60.74000 2.511
60.76000 5.242
60.78000 2.936
60.80000 1.387
60.82000 -0.016
60.84000 0.891
60.86000 2.184
60.88000 2.734
60.90000 1.673
60.92000 3.226
60.94000 4.839
60.96000 2.457
60.98000 0.514
61.00000 4.522
61.02000 6.505
61.04000 3.213
61.06000 3.971
61.08000 5.347
61.10000 1.732
61.12000 0.534
61.14000 -0.920
61.16000 0.724
61.18000 4.292
61.20000 0.688
61.22000 -0.202
61.24000 3.382
61.26000 4.004
61.28000 2.649
61.30000 0.700
61.32000 4.483
61.34000 4.148
61.36000 -2.382
61.38000 -0.775
61.40000 2.981
61.42000 2.465
61.44000 3.944
61.46000 0.749
61.48000 -1.958
61.50000 1.172
61.52000 5.837
61.54000 3.602
61.56000 0.131
61.58000 2.983
61.60000 6.809
61.62000 5.394
61.64000 7.052
61.66000 4.422
61.68000 3.421
61.70000 4.902
61.72000 6.601
61.74000 5.847
61.76000 6.437
61.78000 4.585
61.80000 1.859
61.82000 2.760
61.84000 2.688
61.86000 1.080
61.88000 5.445
61.90000 1.791
61.92000 -2.348
61.94000 -1.211
61.96000 3.100
61.98000 5.121
62.00000 -0.200
62.02000 0.433
62.04000 0.577
62.06000 4.826
62.08000 0.740
62.10000 -2.350
62.12000 4.540
62.14000 3.903
62.16000 1.112
62.18000 0.182
62.20000 2.661
62.22000 4.896
62.24000 2.611
62.26000 3.065
62.28000 2.727
62.30000 3.851
62.32000 1.755
62.34000 0.327
62.36000 0.040
62.38000 2.928
62.40000 2.440
62.42000 1.172
62.44000 1.528
62.46000 2.795
62.48000 2.485
62.50000 -2.359
62.52000 -1.617
62.54000 3.250
62.56000 3.589
62.58000 1.194
62.60000 1.872
62.62000 0.987
62.64000 3.726
62.66000 2.398
62.68000 1.948
62.70000 2.175
62.72000 1.594
62.74000 0.913
62.76000 3.160
62.78000 2.028
62.80000 2.387
62.82000 3.772
62.84000 -0.390
62.86000 -0.019
62.88000 2.202
62.90000 6.390
62.92000 6.089
62.94000 5.117
62.96000 4.047
62.98000 2.042
63.00000 1.172
63.02000 0.502
63.04000 -0.387
63.06000 -1.697
63.08000 -0.873
63.10000 -0.831
63.12000 -0.839
63.14000 0.458
63.16000 -0.827
63.18000 3.284
63.20000 3.829
63.22000 0.598
63.24000 -2.361
63.26000 0.122
63.28000 2.761
63.30000 0.567
63.32000 1.574
63.34000 5.708
63.36000 2.604
63.38000 0.340
63.40000 1.940
63.42000 2.524
63.44000 4.224
63.46000 3.841
63.48000 5.599
63.50000 9.555
63.52000 4.575
63.54000 -0.608
63.56000 -0.647
63.58000 0.450
63.60000 -0.989
63.62000 -0.854
63.64000 1.208
63.66000 2.809
63.68000 4.464
63.70000 3.174
63.72000 3.391
63.74000 5.313
63.76000 0.997
63.78000 -2.355
63.80000 0.730
63.82000 2.399
63.84000 0.381
63.86000 0.957
63.88000 1.103
63.90000 1.330
63.92000 -0.717
63.94000 -0.730
63.96000 2.383
63.98000 0.548
64.00000 -2.356
64.02000 -1.957
64.04000 0.736
64.06000 0.867
64.08000 -2.357
64.10000 -0.804
64.12000 -1.219
64.14000 3.489
64.16000 6.054
64.18000 6.741
64.20000 3.072
64.22000 2.640
64.24000 1.190
64.26000 -0.197
64.28000 -0.881
64.30000 -0.569
64.32000 1.868
64.34000 3.007
64.36000 5.072
64.38000 1.129
64.40000 1.810
64.42000 -0.759
64.44000 -0.949
64.46000 1.875
64.48000 2.131
64.50000 0.492
64.52000 -0.304
64.54000 -2.367
64.56000 0.094
64.58000 4.418
64.60000 3.245
64.62000 1.865
64.64000 1.514
64.66000 2.031
64.68000 -0.151
64.70000 -2.296
64.72000 0.735
64.74000 3.386
64.76000 0.803
64.78000 -0.094
64.80000 1.423
64.82000 2.140
64.84000 -1.380
64.86000 0.469
64.88000 1.734
64.90000 1.804
64.92000 -1.276
64.94000 -1.787
64.96000 1.753
64.98000 3.699
65.00000 1.078
65.02000 -1.850
65.04000 -0.735
65.06000 0.565
65.08000 -0.829
65.10000 -1.125
65.12000 2.428
65.14000 1.307
65.16000 0.810
65.18000 -0.904
65.20000 -1.578
65.22000 -0.996
65.24000 -2.151
65.26000 -1.223
65.28000 -1.765
65.30000 -1.044
65.32000 1.784
65.34000 -0.515
65.36000 -1.653
65.38000 -2.379
65.40000 -1.453
65.42000 -0.183
65.44000 0.363
65.46000 0.697
65.48000 0.042
65.50000 0.109
65.52000 -0.058
65.54000 -0.908
65.56000 -0.931
65.58000 -0.421
65.60000 0.841
65.62000 -1.881
65.64000 -1.664
65.66000 -2.006
65.68000 0.306
65.70000 2.855
65.72000 3.788
65.74000 1.355
65.76000 3.830
65.78000 1.090
65.80000 1.984
65.82000 2.291
65.84000 1.638
65.86000 0.942
65.88000 -2.364
65.90000 -0.573
65.92000 -0.995
65.94000 -0.472
65.96000 1.232
65.98000 0.801
66.00000 3.290
66.02000 3.770
66.04000 -0.271
66.06000 0.852
66.08000 1.014
66.10000 1.537
66.12000 0.759
66.14000 -0.722
66.16000 -1.068
66.18000 3.062
66.20000 1.253
66.22000 3.875
66.24000 2.006
66.26000 -0.648
66.28000 -1.637
66.30000 0.569
66.32000 1.541
66.34000 1.310
66.36000 3.036
66.38000 1.043
66.40000 -0.560
66.42000 -2.365
66.44000 -0.724
66.46000 -0.319
66.48000 0.738
66.50000 3.304
66.52000 3.117
66.54000 2.561
66.56000 -0.658
66.58000 -1.126
66.60000 0.759
66.62000 0.546
66.64000 0.218
66.66000 -0.175
66.68000 2.610
66.70000 0.448
66.72000 2.260
66.74000 1.103
66.76000 3.243
66.78000 3.949
66.80000 1.973
66.82000 1.463
66.84000 1.438
66.86000 0.433
66.88000 -0.293
66.90000 1.058
66.92000 3.044
66.94000 2.097
66.96000 2.323
66.98000 3.818
67.00000 1.224
67.02000 1.839
67.04000 -0.193
67.06000 -0.455
67.08000 -2.388
67.10000 -1.673
67.12000 0.670
67.14000 1.519
67.16000 1.738
67.18000 3.190
67.20000 1.240
67.22000 -0.285
67.24000 1.256
67.26000 0.420
67.28000 1.778
67.30000 1.306
67.32000 0.301
67.34000 -1.838
67.36000 0.091
67.38000 0.449
67.40000 3.423
67.42000 3.302
67.44000 4.821
67.46000 0.080
67.48000 1.571
67.50000 2.303
67.52000 1.626
67.54000 2.096
67.56000 -0.532
67.58000 0.239
67.60000 2.855
67.62000 2.914
67.64000 1.106
67.66000 -0.621
67.68000 -2.275
67.70000 -1.993
67.72000 -0.638
67.74000 2.719
67.76000 1.988
67.78000 -0.044
67.80000 -1.343
67.82000 1.590
67.84000 2.785
67.86000 -0.251
67.88000 2.643
67.90000 -0.210
67.92000 -2.043
67.94000 -0.769
67.96000 2.082
67.98000 7.690
68.00000 4.395
68.02000 6.460
68.04000 4.767
68.06000 2.311
68.08000 5.581
68.10000 4.694
68.12000 3.943
68.14000 1.638
68.16000 2.664
68.18000 4.887
68.20000 5.959
68.22000 6.190
68.24000 5.747
68.26000 7.364
68.28000 7.176
68.30000 9.838
68.32000 9.273
68.34000 7.690
68.36000 5.594
68.38000 5.044
68.40000 8.747
68.42000 9.012
68.44000 8.525
68.46000 10.268
68.48000 10.751
68.50000 11.462
68.52000 13.563
68.54000 12.876
68.56000 9.946
68.58000 12.550
68.60000 14.538
68.62000 14.430
68.64000 16.334
68.66000 16.676
68.68000 17.186
68.70000 17.293
68.72000 15.714
68.74000 18.228
68.76000 15.972
68.78000 17.604
68.80000 17.548
68.82000 18.569
68.84000 16.948
68.86000 18.816
68.88000 22.846
68.90000 22.371
68.92000 18.981
68.94000 20.620
68.96000 19.405
68.98000 22.264
69.00000 20.435
69.02000 18.300
69.04000 15.986
69.06000 15.252
69.08000 17.869
69.10000 17.642
69.12000 16.095
69.14000 18.369
69.16000 16.687
69.18000 12.403
69.20000 15.677
69.22000 18.973
69.24000 20.862
69.26000 19.764
69.28000 14.372
69.30000 15.111
69.32000 14.895
69.34000 13.717
69.36000 12.411
69.38000 14.886
69.40000 14.370
69.42000 12.542
69.44000 10.597
69.46000 8.722
69.48000 9.192
69.50000 12.485
69.52000 11.206
69.54000 10.358
69.56000 11.620
69.58000 11.281
69.60000 8.629
69.62000 5.562
69.64000 6.839
69.66000 8.023
69.68000 6.450
69.70000 3.503
69.72000 3.524
69.74000 6.502
69.76000 0.760
69.78000 -0.197
69.80000 0.056
69.82000 0.954
69.84000 1.815
69.86000 0.069
69.88000 4.612
69.90000 3.732
69.92000 6.295
69.94000 4.324
69.96000 3.621
69.98000 6.448
70.00000 6.221
70.02000 1.341
70.04000 -0.240
70.06000 1.526
70.08000 3.008
70.10000 0.684
70.12000 2.361
70.14000 2.935
70.16000 2.170
70.18000 3.197
70.20000 2.895
70.22000 4.849
70.24000 6.564
70.26000 2.056
70.28000 1.424
70.30000 3.159
70.32000 -0.460
70.34000 -0.189
70.36000 2.637
70.38000 0.530
70.40000 1.131
70.42000 1.940
70.44000 -1.537
70.46000 -0.750
70.48000 4.288
70.50000 1.574
70.52000 -0.454
70.54000 -2.336
70.56000 0.092
70.58000 2.851
70.60000 0.710
70.62000 1.069
70.64000 2.432
70.66000 -0.610
70.68000 1.833
70.70000 5.674
70.72000 3.103
70.74000 2.017
70.76000 0.009
70.78000 0.949
70.80000 1.613
70.82000 0.976
70.84000 4.840
70.86000 5.186
70.88000 2.467
70.90000 -0.243
70.92000 3.791
70.94000 5.960
70.96000 6.562
70.98000 6.532
71.00000 6.883
71.02000 0.763
71.04000 -2.262
71.06000 1.016
71.08000 2.536
71.10000 1.751
71.12000 -0.449
71.14000 1.880
71.16000 2.986
71.18000 3.404
71.20000 4.543
71.22000 2.396
71.24000 2.272
71.26000 3.800
71.28000 -0.603
71.30000 1.886
71.32000 2.748
71.34000 5.056
71.36000 2.827
71.38000 3.793
71.40000 4.446
71.42000 7.595
71.44000 7.356
71.46000 6.971
71.48000 8.113
71.50000 5.374
71.52000 2.691
71.54000 2.790
71.56000 2.934
71.58000 4.401
71.60000 2.628
71.62000 2.734
71.64000 8.030
71.66000 5.831
71.68000 5.319
71.70000 3.529
71.72000 1.266
71.74000 2.274
71.76000 2.011
71.78000 0.100
71.80000 1.622
71.82000 3.587
71.84000 1.417
71.86000 -2.223
71.88000 0.908
71.90000 0.849
71.92000 1.241
71.94000 1.290
71.96000 3.252
71.98000 5.617
72.00000 4.775
72.02000 0.774
72.04000 0.641
72.06000 -0.124
72.08000 1.875
72.10000 3.119
72.12000 3.669
72.14000 2.993
72.16000 5.031
72.18000 4.893
72.20000 1.201
72.22000 1.789
72.24000 5.083
72.26000 1.240
72.28000 -0.138
72.30000 1.812
72.32000 1.560
72.34000 2.489
72.36000 1.128
72.38000 0.763
72.40000 2.068
72.42000 2.210
72.44000 4.568
72.46000 4.242
72.48000 3.032
72.50000 0.717
72.52000 0.468
72.54000 2.137
72.56000 4.615
72.58000 0.955
72.60000 -0.715
72.62000 1.386
72.64000 0.839
72.66000 2.787
72.68000 4.786
72.70000 3.461
72.72000 0.406
72.74000 -1.154
72.76000 -0.195
72.78000 2.112
72.80000 5.453
72.82000 1.827
72.84000 1.689
72.86000 1.894
72.88000 0.811
72.90000 6.214
72.92000 6.032
72.94000 1.089
72.96000 1.836
72.98000 2.523
73.00000 0.753
73.02000 -2.197
73.04000 0.874
73.06000 1.921
73.08000 4.912
73.10000 4.755
73.12000 0.961
73.14000 2.493
73.16000 3.097
73.18000 2.617
73.20000 1.241
73.22000 1.643
73.24000 2.071
73.26000 4.572
73.28000 2.592
73.30000 5.739
73.32000 6.134
73.34000 3.565
73.36000 5.290
73.38000 0.376
73.40000 0.115
73.42000 0.374
73.44000 3.027
73.46000 2.736
73.48000 5.247
73.50000 2.305
73.52000 -0.427
73.54000 0.917
73.56000 -0.687
73.58000 0.620
73.60000 4.697
73.62000 7.612
73.64000 5.938
73.66000 3.719
73.68000 1.679
73.70000 2.562
73.72000 3.826
73.74000 3.199
73.76000 3.686
73.78000 6.453
73.80000 3.806
73.82000 1.634
73.84000 0.521
73.86000 4.573
73.88000 1.609
73.90000 2.328
73.92000 3.916
73.94000 7.992
73.96000 8.765
73.98000 2.611
74.00000 4.382
74.02000 4.231
74.04000 2.988
74.06000 4.326
74.08000 6.098
74.10000 9.379
74.12000 10.004
74.14000 6.500
74.16000 4.946
74.18000 5.429
74.20000 -0.526
74.22000 0.709
74.24000 3.089
74.26000 -2.109
74.28000 2.891
74.30000 4.788
74.32000 1.145
74.34000 3.666
74.36000 1.706
74.38000 -0.797
74.40000 -0.315
74.42000 1.391
74.44000 2.008
74.46000 3.437
74.48000 7.569
74.50000 4.348
74.52000 4.198
74.54000 5.507
74.56000 8.250
74.58000 4.883
74.60000 5.190
74.62000 5.708
74.64000 6.241
74.66000 7.830
74.68000 5.224
74.70000 2.027
74.72000 3.848
74.74000 3.777
74.76000 5.707
74.78000 3.811
74.80000 3.708
74.82000 4.389
74.84000 4.317
74.86000 1.714
74.88000 3.819
74.90000 6.539
74.92000 6.652
74.94000 8.481
74.96000 3.769
74.98000 -1.330
75.00000 0.591
75.02000 0.047
75.04000 2.434
75.06000 5.142
75.08000 2.573
75.10000 0.893
75.12000 3.643
75.14000 2.495
75.16000 4.582
75.18000 4.179
75.20000 7.127
75.22000 4.223
75.24000 4.464
75.26000 2.558
75.28000 -2.164
75.30000 1.579
75.32000 5.042
75.34000 3.350
75.36000 6.432
75.38000 6.865
75.40000 6.729
75.42000 5.993
75.44000 5.480
75.46000 1.713
75.48000 0.649
75.50000 0.322
75.52000 -2.168
75.54000 -1.869
75.56000 5.269
75.58000 8.480
75.60000 4.810
75.62000 3.143
75.64000 2.537
75.66000 3.748
75.68000 1.741
75.70000 3.981
75.72000 0.374
75.74000 0.874
75.76000 0.687
75.78000 1.922
75.80000 5.631
75.82000 2.155
75.84000 0.477
75.86000 -0.714
75.88000 0.713
75.90000 2.148
75.92000 1.907
75.94000 -0.424
75.96000 0.692
75.98000 2.702
76.00000 -0.716
76.02000 2.081
76.04000 4.152
76.06000 7.854
76.08000 2.463
76.10000 1.483
76.12000 0.157
76.14000 3.486
76.16000 4.533
76.18000 -0.618
76.20000 -1.297
76.22000 1.353
76.24000 1.848
76.26000 5.411
76.28000 6.573
76.30000 2.848
76.32000 1.632
76.34000 3.325
76.36000 -1.558
76.38000 -0.673
76.40000 2.677
76.42000 4.427
76.44000 3.885
76.46000 1.863
76.48000 3.229
76.50000 -0.907
76.52000 -1.191
76.54000 1.566
76.56000 2.701
76.58000 1.991
76.60000 0.177
76.62000 1.652
76.64000 4.772
76.66000 8.238
76.68000 0.824
76.70000 -0.412
76.72000 0.561
76.74000 2.398
76.76000 1.799
76.78000 1.515
76.80000 2.382
76.82000 3.366
76.84000 2.411
76.86000 -0.997
76.88000 4.308
76.90000 4.429
76.92000 1.765
76.94000 4.327
76.96000 1.075
76.98000 1.897
77.00000 3.023
77.02000 1.973
77.04000 2.855
77.06000 3.868
77.08000 2.308
77.10000 1.240
77.12000 2.541
77.14000 -2.184
77.16000 0.752
77.18000 4.841
77.20000 7.226
77.22000 0.260
77.24000 5.409
77.26000 7.006
77.28000 2.542
77.30000 2.529
77.32000 5.308
77.34000 7.037
77.36000 1.701
77.38000 3.417
77.40000 4.155
77.42000 2.503
77.44000 -0.565
77.46000 2.839
77.48000 0.300
77.50000 0.613
77.52000 -0.462
77.54000 -2.188
77.56000 0.819
77.58000 5.784
77.60000 3.777
77.62000 0.379
77.64000 -0.566
77.66000 0.977
77.68000 3.238
77.70000 0.835
77.72000 0.936
77.74000 -0.117
77.76000 1.981
77.78000 6.941
77.80000 0.866
77.82000 0.434
77.84000 2.837
77.86000 4.686
77.88000 7.250
77.90000 2.119
77.92000 1.413
77.94000 0.224
77.96000 3.809
77.98000 5.465
78.00000 6.704
78.02000 2.673
78.04000 4.231
78.06000 0.241
78.08000 3.400
78.10000 3.653
78.12000 2.683
78.14000 5.380
78.16000 3.665
78.18000 2.303
78.20000 0.579
78.22000 2.875
78.24000 4.049
78.26000 2.467
78.28000 0.153
78.30000 1.601
78.32000 3.662
78.34000 4.685
78.36000 7.357
78.38000 8.687
78.40000 5.252
78.42000 0.830
78.44000 0.934
78.46000 0.235
78.48000 0.501
78.50000 6.772
78.52000 4.348
78.54000 3.811
78.56000 0.970
78.58000 -2.199
78.60000 2.622
78.62000 3.810
78.64000 3.680
78.66000 -1.239
78.68000 1.683
78.70000 4.239
78.72000 3.682
78.74000 5.891
78.76000 3.249
78.78000 5.159
78.80000 1.778
78.82000 4.044
78.84000 3.100
78.86000 2.689
78.88000 3.836
78.90000 4.643
78.92000 3.985
78.94000 -1.434
78.96000 2.204
78.98000 1.210
79.00000 -0.325
79.02000 1.795
79.04000 1.427
79.06000 0.421
79.08000 2.449
79.10000 4.579
79.12000 7.835
79.14000 1.490
79.16000 2.712
79.18000 0.175
79.20000 -1.080
79.22000 -1.049
79.24000 -1.933
79.26000 0.078
79.28000 1.249
79.30000 3.850
79.32000 3.095
79.34000 2.258
79.36000 1.246
79.38000 0.351
79.40000 -0.082
79.42000 0.196
79.44000 1.310
79.46000 6.085
79.48000 4.510
79.50000 -0.072
79.52000 -1.011
79.54000 -0.047
79.56000 0.950
79.58000 -0.541
79.60000 -0.700
79.62000 0.369
79.64000 2.897
79.66000 1.620
79.68000 0.556
79.70000 0.071
79.72000 1.155
79.74000 2.046
79.76000 1.444
79.78000 3.673
79.80000 0.048
79.82000 -1.955
79.84000 -1.734
79.86000 -0.701
79.88000 3.410
79.90000 4.969
79.92000 2.928
79.94000 0.626
79.96000 0.157
79.98000 5.582
80.00000 5.759
80.02000 2.180
80.04000 1.994
80.06000 4.278
80.08000 2.546
80.10000 -1.609
80.12000 -0.787
80.14000 3.583
80.16000 1.088
80.18000 -1.831
80.20000 -1.223
80.22000 1.759
80.24000 0.674
80.26000 4.443
80.28000 2.076
80.30000 0.179
80.32000 -0.233
80.34000 3.441
80.36000 1.938
80.38000 -2.267
80.40000 -1.073
80.42000 2.649
80.44000 5.924
80.46000 5.103
80.48000 0.840
80.50000 0.937
80.52000 2.023
80.54000 3.137
80.56000 2.026
80.58000 9.122
80.60000 8.135
80.62000 3.502
80.64000 1.149
80.66000 -0.143
80.68000 1.020
80.70000 -1.123
80.72000 -2.275
80.74000 2.420
80.76000 6.348
80.78000 6.835
80.80000 3.263
80.82000 3.818
80.84000 3.530
80.86000 5.323
80.88000 4.334
80.90000 1.911
80.92000 4.217
80.94000 3.529
80.96000 4.628
80.98000 5.577
81.00000 1.748
81.02000 -0.268
81.04000 0.380
81.06000 3.770
81.08000 2.680
81.10000 5.261
81.12000 -0.261
81.14000 -0.074
81.16000 2.653
81.18000 3.883
81.20000 6.268
81.22000 3.085
81.24000 0.843
81.26000 3.160
81.28000 3.860
81.30000 1.871
81.32000 1.281
81.34000 2.003
81.36000 6.423
81.38000 4.826
81.40000 1.041
81.42000 -2.326
81.44000 3.784
81.46000 -0.535
81.48000 -1.899
81.50000 -0.407
81.52000 1.966
81.54000 2.025
81.56000 5.999
81.58000 8.586
81.60000 3.467
81.62000 1.427
81.64000 -2.344
81.66000 1.417
81.68000 3.999
81.70000 3.088
81.72000 6.872
81.74000 9.982
81.76000 9.444
81.78000 2.123
81.80000 4.099
81.82000 6.698
81.84000 5.755
81.86000 6.916
81.88000 3.604
81.90000 5.651
81.92000 5.652
81.94000 4.496
81.96000 8.078
81.98000 7.169
82.00000 7.657
82.02000 4.332
82.04000 5.500
82.06000 4.588
82.08000 6.362
82.10000 7.686
82.12000 7.037
82.14000 4.188
82.16000 7.425
82.18000 7.320
82.20000 5.763
82.22000 2.577
82.24000 6.028
82.26000 5.180
82.28000 8.585
82.30000 8.309
82.32000 9.600
82.34000 10.212
82.36000 10.486
82.38000 13.697
82.40000 9.899
82.42000 6.582
82.44000 10.928
82.46000 11.576
82.48000 13.871
82.50000 13.937
82.52000 12.779
82.54000 13.745
82.56000 15.646
82.58000 18.877
82.60000 15.554
82.62000 11.923
82.64000 14.100
82.66000 13.980
82.68000 17.248
82.70000 16.998
82.72000 18.881
82.74000 25.003
82.76000 21.150
82.78000 16.252
82.80000 15.660
82.82000 20.411
82.84000 22.796
82.86000 22.743
82.88000 21.275
82.90000 20.631
82.92000 27.030
82.94000 31.184
82.96000 24.448
82.98000 22.097
83.00000 24.686
83.02000 29.011
83.04000 30.028
83.06000 28.642
83.08000 27.713
83.10000 27.508
83.12000 26.133
83.14000 24.072
83.16000 23.385
83.18000 25.189
83.20000 28.991
83.22000 30.527
83.24000 33.433
83.26000 32.583
83.28000 31.239
83.30000 29.268
83.32000 26.316
83.34000 26.858
83.36000 26.197
83.38000 32.772
83.40000 34.647
83.42000 31.641
83.44000 30.814
83.46000 30.358
83.48000 27.016
83.50000 27.874
83.52000 26.657
83.54000 26.521
83.56000 26.926
83.58000 29.882
83.60000 21.512
83.62000 25.458
83.64000 25.595
83.66000 23.253
83.68000 25.951
83.70000 27.912
83.72000 21.466
83.74000 23.111
83.76000 23.185
83.78000 19.983
83.80000 19.681
83.82000 20.708
83.84000 21.721
83.86000 24.379
83.88000 21.810
83.90000 17.064
83.92000 11.146
83.94000 7.012
83.96000 12.069
83.98000 14.814
84.00000 16.895
84.02000 15.591
84.04000 10.400
84.06000 11.327
84.08000 11.702
84.10000 9.654
84.12000 8.631
84.14000 8.874
84.16000 12.534
84.18000 10.011
84.20000 8.290
84.22000 9.275
84.24000 4.403
84.26000 5.335
84.28000 9.490
84.30000 9.126
84.32000 8.249
84.34000 6.336
84.36000 6.843
84.38000 6.366
84.40000 8.369
84.42000 5.506
84.44000 4.740
84.46000 8.671
84.48000 5.149
84.50000 2.462
84.52000 2.758
84.54000 3.242
84.56000 6.420
84.58000 6.772
84.60000 4.763
84.62000 4.048
84.64000 -0.117
84.66000 -1.135
84.68000 1.642
84.70000 3.077
84.72000 2.939
84.74000 2.056
84.76000 2.476
84.78000 5.857
84.80000 2.459
84.82000 5.752
84.84000 4.799
84.86000 2.397
84.88000 -0.760
84.90000 -1.174
84.92000 -0.848
84.94000 -0.207
84.96000 4.360
84.98000 2.676
85.00000 -0.828
85.02000 0.901
85.04000 2.167
85.06000 0.003
85.08000 0.070
85.10000 -0.385
85.12000 0.371
85.14000 4.697
85.16000 3.658
85.18000 0.380
85.20000 3.126
85.22000 2.270
85.24000 -0.447
85.26000 5.358
85.28000 2.191
85.30000 -1.569
85.32000 0.700
85.34000 3.813
85.36000 2.708
85.38000 -0.058
85.40000 1.822
85.42000 3.164
85.44000 1.215
85.46000 0.957
85.48000 -2.245
85.50000 -0.155
85.52000 1.145
85.54000 2.159
85.56000 2.543
85.58000 3.219
85.60000 3.412
85.62000 2.264
85.64000 2.066
85.66000 1.762
85.68000 0.286
85.70000 0.787
85.72000 -0.136
85.74000 3.468
85.76000 -1.856
85.78000 -2.219
85.80000 -0.507
85.82000 3.085
85.84000 1.547
85.86000 1.051
85.88000 -0.333
85.90000 -1.245
85.92000 0.084
85.94000 3.167
85.96000 4.011
85.98000 2.794
86.00000 1.315
86.02000 2.178
86.04000 2.867
86.06000 -1.404
86.08000 -0.051
86.10000 1.921
86.12000 3.285
86.14000 2.075
86.16000 7.748
86.18000 4.414
86.20000 -2.248
86.22000 -0.915
86.24000 5.332
86.26000 4.092
86.28000 3.109
86.30000 3.048
86.32000 2.628
86.34000 3.500
86.36000 2.027
86.38000 1.648
86.40000 1.397
86.42000 2.155
86.44000 0.198
86.46000 1.474
86.48000 2.524
86.50000 1.901
86.52000 0.518
86.54000 0.094
86.56000 0.947
86.58000 1.909
86.60000 2.099
86.62000 -0.994
86.64000 4.687
86.66000 6.123
86.68000 1.751
86.70000 1.152
86.72000 3.299
86.74000 5.929
86.76000 8.219
86.78000 9.890
86.80000 3.385
86.82000 2.203
86.84000 0.324
86.86000 1.809
86.88000 1.641
86.90000 -0.733
86.92000 4.562
86.94000 8.564
86.96000 10.544
86.98000 11.001
87.00000 9.181
87.02000 10.972
87.04000 6.070
87.06000 4.606
87.08000 7.348
87.10000 11.496
87.12000 11.071
87.14000 9.363
87.16000 11.527
87.18000 10.480
87.20000 7.124
87.22000 4.912
87.24000 11.078
87.26000 9.668
87.28000 12.759
87.30000 9.587
87.32000 9.917
87.34000 13.229
87.36000 15.567
87.38000 13.992
87.40000 14.310
87.42000 18.338
87.44000 15.405
87.46000 12.167
87.48000 17.282
87.50000 17.923
87.52000 14.279
87.54000 20.192
87.56000 17.117
87.58000 17.125
87.60000 13.362
87.62000 14.211
87.64000 20.354
87.66000 20.034
87.68000 19.908
87.70000 16.885
87.72000 17.384
87.74000 20.251
87.76000 17.932
87.78000 16.270
87.80000 17.038
87.82000 16.837
87.84000 13.110
87.86000 18.112
87.88000 23.856
87.90000 22.539
87.92000 23.787
87.94000 21.027
87.96000 16.626
87.98000 18.019
88.00000 20.389
88.02000 18.048
88.04000 13.968
88.06000 16.931
88.08000 12.065
88.10000 13.925
88.12000 16.944
88.14000 22.221
88.16000 19.112
88.18000 18.291
88.20000 16.994
88.22000 15.653
88.24000 13.604
88.26000 14.793
88.28000 13.012
88.30000 14.931
88.32000 13.059
88.34000 11.943
88.36000 10.927
88.38000 7.201
88.40000 9.404
88.42000 7.520
88.44000 6.327
88.46000 6.357
88.48000 8.422
88.50000 11.762
88.52000 15.429
88.54000 14.505
88.56000 8.400
88.58000 5.858
88.60000 5.865
88.62000 9.069
88.64000 8.531
88.66000 12.297
88.68000 10.035
88.70000 6.405
88.72000 7.379
88.74000 8.144
88.76000 5.383
88.78000 3.839
88.80000 5.577
88.82000 3.835
88.84000 5.029
88.86000 1.552
88.88000 0.837
88.90000 1.444
88.92000 -2.200
88.94000 3.956
88.96000 3.388
88.98000 5.393
89.00000 4.274
89.02000 4.411
89.04000 5.983
89.06000 5.096
89.08000 3.711
89.10000 3.069
89.12000 2.002
89.14000 2.582
89.16000 3.271
89.18000 5.814
89.20000 5.012
89.22000 2.088
89.24000 2.502
89.26000 0.788
89.28000 0.908
89.30000 1.512
89.32000 4.079
89.34000 -0.470
89.36000 -1.286
89.38000 0.041
89.40000 -0.458
89.42000 -2.134
89.44000 2.112
89.46000 3.334
89.48000 1.596
89.50000 -0.124
89.52000 0.732
89.54000 3.446
89.56000 6.365
89.58000 -2.111
89.60000 0.485
89.62000 4.381
89.64000 3.115
89.66000 0.221
89.68000 -0.951
89.70000 0.683
89.72000 0.460
89.74000 0.697
89.76000 1.532
89.78000 5.899
89.80000 3.576
89.82000 4.351
89.84000 -0.525
89.86000 3.291
89.88000 4.858
89.90000 4.074
89.92000 0.880
89.94000 0.215
89.96000 3.122
89.98000 1.795
90.00000 -0.439
90.02000 -1.175
90.04000 -0.945
90.06000 2.004
90.08000 1.748
90.10000 -0.401
90.12000 3.751
90.14000 2.437
90.16000 0.151
90.18000 0.670
90.20000 1.981
90.22000 3.004
90.24000 3.494
90.26000 1.785
90.28000 -0.934
90.30000 -0.052
90.32000 1.504
90.34000 0.326
90.36000 -2.116
90.38000 -0.877
90.40000 0.567
90.42000 3.632
90.44000 1.541
90.46000 -0.609
90.48000 1.980
90.50000 1.164
90.52000 -0.111
90.54000 1.461
90.56000 2.672
90.58000 -0.197
90.60000 -0.003
90.62000 0.227
90.64000 -0.060
90.66000 -1.784
90.68000 0.566
90.70000 0.996
90.72000 0.553
90.74000 0.813
90.76000 -1.654
90.78000 -1.174
90.80000 2.713
90.82000 2.865
90.84000 0.251
90.86000 0.208
90.88000 2.373
90.90000 2.739
90.92000 0.862
90.94000 1.749
90.96000 1.204
90.98000 0.669
91.00000 1.616
91.02000 1.907
91.04000 3.013
91.06000 0.863
91.08000 1.413
91.10000 0.005
91.12000 -0.888
91.14000 0.762
91.16000 4.950
91.18000 4.082
91.20000 2.685
91.22000 1.611
91.24000 0.968
91.26000 0.818
91.28000 1.567
91.30000 -2.093
91.32000 1.323
91.34000 3.899
91.36000 3.736
91.38000 2.762
91.40000 2.872
91.42000 3.624
91.44000 5.739
91.46000 6.232
91.48000 7.499
91.50000 -0.627
91.52000 -1.622
91.54000 1.323
91.56000 8.030
91.58000 5.879
91.60000 2.554
91.62000 3.509
91.64000 0.378
91.66000 2.575
91.68000 4.995
91.70000 7.338
91.72000 5.657
91.74000 0.747
91.76000 -1.857
91.78000 1.251
91.80000 7.648
91.82000 1.841
91.84000 1.269
91.86000 -0.999
91.88000 5.307
91.90000 5.812
91.92000 5.579
91.94000 1.207
91.96000 0.673
91.98000 3.786
92.00000 2.479
92.02000 2.481
92.04000 -0.704
92.06000 4.849
92.08000 2.466
92.10000 -1.775
92.12000 -2.077
92.14000 -0.164
92.16000 0.028
92.18000 0.361
92.20000 2.110
92.22000 5.164
92.24000 6.932
92.26000 1.408
92.28000 3.780
92.30000 3.299
92.32000 1.980
92.34000 0.960
92.36000 3.022
92.38000 4.505
92.40000 1.137
92.42000 1.947
92.44000 1.269
92.46000 0.763
92.48000 6.537
92.50000 3.166
92.52000 0.774
92.54000 3.688
92.56000 3.819
92.58000 2.046
92.60000 1.512
92.62000 4.423
92.64000 2.990
92.66000 3.122
92.68000 1.863
92.70000 1.570
92.72000 3.746
92.74000 3.875
92.76000 2.823
92.78000 0.653
92.80000 2.749
92.82000 2.999
92.84000 3.158
92.86000 3.895
92.88000 1.301
92.90000 0.591
92.92000 4.270
92.94000 0.569
92.96000 -2.043
92.98000 0.599
93.00000 4.757
93.02000 3.927
93.04000 3.945
93.06000 3.995
93.08000 6.777
93.10000 8.459
93.12000 6.919
93.14000 5.874
93.16000 5.947
93.18000 7.084
93.20000 5.484
93.22000 0.698
93.24000 -0.271
93.26000 2.941
93.28000 0.989
93.30000 1.345
93.32000 3.706
93.34000 1.488
93.36000 2.460
93.38000 0.893
93.40000 3.466
93.42000 5.041
93.44000 4.763
93.46000 2.410
93.48000 2.854
93.50000 1.926
93.52000 -1.501
93.54000 2.672
93.56000 6.520
93.58000 5.007
93.60000 4.623
93.62000 5.543
93.64000 2.870
93.66000 4.112
93.68000 3.478
93.70000 1.606
93.72000 3.310
93.74000 1.019
93.76000 0.916
93.78000 5.003
93.80000 4.142
93.82000 2.789
93.84000 1.489
93.86000 2.051
93.88000 3.363
93.90000 5.616
93.92000 6.229
93.94000 3.147
93.96000 7.717
93.98000 4.947
94.00000 7.387
94.02000 3.611
94.04000 0.241
94.06000 1.978
94.08000 3.714
94.10000 1.466
94.12000 1.555
94.14000 4.047
94.16000 -0.632
94.18000 -2.034
94.20000 1.158
94.22000 -1.259
94.24000 3.871
94.26000 5.120
94.28000 -0.282
94.30000 -1.870
94.32000 -2.079
94.34000 3.027
94.36000 -1.671
94.38000 -1.606
94.40000 2.898
94.42000 3.735
94.44000 2.109
94.46000 0.233
94.48000 -0.660
94.50000 1.541
94.52000 3.739
94.54000 6.879
94.56000 6.061
94.58000 4.577
94.60000 6.012
94.62000 7.140
94.64000 5.374
94.66000 3.659
94.68000 7.813
94.70000 4.840
94.72000 5.966
94.74000 5.202
94.76000 7.643
94.78000 10.975
94.80000 5.607
94.82000 2.150
94.84000 0.746
94.86000 1.142
94.88000 4.371
94.90000 4.226
94.92000 3.451
94.94000 5.051
94.96000 3.629
94.98000 4.703
95.00000 2.160
95.02000 5.259
95.04000 8.814
95.06000 5.808
95.08000 7.504
95.10000 9.217
95.12000 6.299
95.14000 7.797
95.16000 -2.359
95.18000 2.524
95.20000 6.620
95.22000 6.393
95.24000 7.988
95.26000 9.554
95.28000 6.026
95.30000 9.788
95.32000 11.040
95.34000 6.753
95.36000 0.338
95.38000 -2.040
95.40000 6.333
95.42000 9.550
95.44000 5.037
95.46000 7.479
95.48000 4.049
95.50000 3.339
95.52000 4.345
95.54000 3.407
95.56000 8.239
95.58000 7.960
95.60000 6.412
95.62000 3.110
95.64000 6.297
95.66000 4.904
95.68000 4.802
95.70000 6.060
95.72000 1.861
95.74000 0.254
95.76000 0.765
95.78000 -0.669
95.80000 8.176
95.82000 9.768
95.84000 8.972
95.86000 7.969
95.88000 5.929
95.90000 2.394
95.92000 -1.294
95.94000 3.131
95.96000 3.559
95.98000 5.794
96.00000 3.788
96.02000 5.064
96.04000 1.765
96.06000 2.963
96.08000 2.282
96.10000 5.531
96.12000 2.785
96.14000 10.101
96.16000 9.815
96.18000 11.649
96.20000 7.800
96.22000 3.381
96.24000 8.216
96.26000 5.808
96.28000 3.563
96.30000 6.004
96.32000 2.336
96.34000 -1.893
96.36000 3.752
96.38000 4.850
96.40000 5.101
96.42000 4.876
96.44000 7.116
96.46000 8.425
96.48000 7.246
96.50000 6.081
96.52000 2.775
96.54000 1.889
96.56000 2.546
96.58000 3.170
96.60000 5.742
96.62000 8.896
96.64000 9.253
96.66000 3.378
96.68000 7.622
96.70000 9.292
96.72000 6.655
96.74000 8.449
96.76000 4.797
96.78000 3.756
96.80000 3.329
96.82000 3.738
96.84000 5.303
96.86000 2.378
96.88000 -2.052
96.90000 -0.506
96.92000 2.744
96.94000 7.695
96.96000 6.061
96.98000 12.751
97.00000 7.569
97.02000 4.515
97.04000 6.238
97.06000 7.228
97.08000 2.841
97.10000 7.157
97.12000 8.558
97.14000 4.127
97.16000 0.977
97.18000 3.186
97.20000 4.121
97.22000 13.088
97.24000 9.593
97.26000 8.042
97.28000 5.956
97.30000 2.305
97.32000 3.199
97.34000 2.286
97.36000 0.591
97.38000 3.425
97.40000 4.986
97.42000 1.948
97.44000 -1.031
97.46000 -0.451
97.48000 2.469
97.50000 0.107
97.52000 -1.240
97.54000 0.702
97.56000 6.414
97.58000 10.535
97.60000 4.125
97.62000 2.080
97.64000 0.013
97.66000 3.270
97.68000 3.367
97.70000 5.211
97.72000 5.337
97.74000 4.265
97.76000 5.649
97.78000 4.516
97.80000 0.651
97.82000 2.497
97.84000 0.994
97.86000 4.541
97.88000 3.882
97.90000 5.135
97.92000 7.506
97.94000 2.127
97.96000 -0.485
97.98000 2.000
98.00000 4.359
98.02000 5.408
98.04000 8.903
98.06000 5.571
98.08000 3.246
98.10000 3.683
98.12000 6.761
98.14000 9.737
98.16000 8.524
98.18000 8.649
98.20000 5.345
98.22000 5.197
98.24000 7.662
98.26000 6.972
98.28000 0.555
98.30000 2.190
98.32000 3.787
98.34000 1.532
98.36000 5.517
98.38000 7.844
98.40000 5.156
98.42000 6.048
98.44000 7.019
98.46000 0.702
98.48000 2.330
98.50000 8.024
98.52000 6.427
98.54000 0.339
98.56000 -2.010
98.58000 2.209
98.60000 3.711
98.62000 1.797
98.64000 5.948
98.66000 3.440
98.68000 -1.689
98.70000 5.861
98.72000 7.705
98.74000 6.236
98.76000 1.054
98.78000 9.533
98.80000 10.964
98.82000 9.933
98.84000 5.182
98.86000 0.160
98.88000 2.075
98.90000 4.333
98.92000 5.371
98.94000 6.471
98.96000 2.320
98.98000 -0.502
99.00000 -0.016
99.02000 7.896
99.04000 11.459
99.06000 11.622
99.08000 12.453
99.10000 11.553
99.12000 9.967
99.14000 5.056
99.16000 11.348
99.18000 12.646
99.20000 7.381
99.22000 1.376
99.24000 0.637
99.26000 3.864
99.28000 3.724
99.30000 8.542
99.32000 8.496
99.34000 13.095
99.36000 7.220
99.38000 8.706
99.40000 3.830
99.42000 4.713
99.44000 6.130
99.46000 6.124
99.48000 6.793
99.50000 3.385
99.52000 -1.391
99.54000 5.522
99.56000 3.770
99.58000 6.043
99.60000 7.333
99.62000 -2.021
99.64000 -0.953
99.66000 7.147
99.68000 4.379
99.70000 6.148
99.72000 7.462
99.74000 13.251
99.76000 7.833
99.78000 7.941
99.80000 -1.945
99.82000 5.993
99.84000 11.027
99.86000 8.141
99.88000 11.907
99.90000 4.580
99.92000 2.023
99.94000 11.238
99.96000 9.040
99.98000 0.000
