'Id: "0011389" Comment: "Integrate frame 0011389_Au-Ir-Rh_Au-Rich_XRD_Mapping-120-0000.gfrmwith cursor Wedge Cursor #5" Operator: "B?rgel" Anode: "Cu" Wavelength: "1.5406" Scantype: "2Theta (TwoTheta)" TimePerStep: "1" X: "-22.5" Y: "-9" Z: "5.95" 
10.00000 0.000
10.02000 -4.461
10.04000 3.397
10.06000 12.666
10.08000 10.899
10.10000 4.212
10.12000 18.467
10.14000 19.860
10.16000 17.803
10.18000 4.347
10.20000 11.645
10.22000 11.639
10.24000 8.458
10.26000 3.363
10.28000 -0.397
10.30000 5.402
10.32000 25.204
10.34000 18.173
10.36000 -4.408
10.38000 -3.023
10.40000 10.195
10.42000 20.628
10.44000 21.432
10.46000 27.390
10.48000 30.668
10.50000 26.408
10.52000 23.800
10.54000 25.410
10.56000 9.333
10.58000 2.149
10.60000 1.504
10.62000 3.864
10.64000 1.549
10.66000 0.994
10.68000 7.260
10.70000 3.693
10.72000 7.043
10.74000 10.384
10.76000 12.812
10.78000 20.605
10.80000 19.711
10.82000 15.025
10.84000 0.549
10.86000 18.337
10.88000 21.293
10.90000 8.763
10.92000 6.702
10.94000 12.348
10.96000 11.605
10.98000 15.646
11.00000 19.841
11.02000 9.605
11.04000 10.871
11.06000 33.991
11.08000 28.887
11.10000 16.494
11.12000 13.998
11.14000 22.002
11.16000 14.552
11.18000 12.465
11.20000 18.632
11.22000 10.823
11.24000 9.688
11.26000 17.183
11.28000 17.004
11.30000 17.025
11.32000 4.315
11.34000 5.064
11.36000 18.433
11.38000 29.515
11.40000 21.168
11.42000 18.749
11.44000 22.337
11.46000 13.662
11.48000 7.011
11.50000 -4.359
11.52000 6.135
11.54000 9.755
11.56000 11.846
11.58000 21.694
11.60000 24.257
11.62000 21.597
11.64000 25.470
11.66000 17.306
11.68000 18.845
11.70000 19.639
11.72000 14.514
11.74000 18.801
11.76000 24.305
11.78000 27.271
11.80000 17.425
11.82000 12.454
11.84000 4.686
11.86000 13.117
11.88000 23.781
11.90000 8.381
11.92000 13.018
11.94000 20.841
11.96000 24.977
11.98000 20.042
12.00000 20.963
12.02000 17.387
12.04000 11.465
12.06000 15.211
12.08000 12.648
12.10000 24.181
12.12000 26.773
12.14000 26.900
12.16000 21.728
12.18000 17.696
12.20000 13.510
12.22000 5.218
12.24000 3.085
12.26000 4.474
12.28000 18.914
12.30000 7.643
12.32000 5.588
12.34000 8.189
12.36000 14.841
12.38000 21.893
12.40000 23.573
12.42000 21.357
12.44000 12.991
12.46000 11.236
12.48000 17.485
12.50000 11.701
12.52000 -2.473
12.54000 -0.189
12.56000 11.456
12.58000 9.896
12.60000 12.474
12.62000 15.396
12.64000 16.585
12.66000 26.074
12.68000 27.544
12.70000 13.094
12.72000 13.798
12.74000 19.585
12.76000 20.850
12.78000 12.129
12.80000 -1.646
12.82000 0.347
12.84000 12.968
12.86000 14.346
12.88000 16.852
12.90000 11.548
12.92000 15.607
12.94000 23.271
12.96000 27.527
12.98000 27.034
13.00000 34.614
13.02000 25.915
13.04000 6.467
13.06000 -1.973
13.08000 3.358
13.10000 12.752
13.12000 11.223
13.14000 1.261
13.16000 4.428
13.18000 15.245
13.20000 18.025
13.22000 28.208
13.24000 20.872
13.26000 12.944
13.28000 18.037
13.30000 14.130
13.32000 9.630
13.34000 13.476
13.36000 8.428
13.38000 4.391
13.40000 11.047
13.42000 16.430
13.44000 27.076
13.46000 18.295
13.48000 6.567
13.50000 8.578
13.52000 11.163
13.54000 17.097
13.56000 13.889
13.58000 20.190
13.60000 21.952
13.62000 7.909
13.64000 3.064
13.66000 -4.065
13.68000 3.257
13.70000 3.304
13.72000 6.799
13.74000 11.729
13.76000 13.141
13.78000 3.841
13.80000 7.622
13.82000 11.568
13.84000 10.653
13.86000 9.254
13.88000 5.057
13.90000 4.243
13.92000 14.857
13.94000 17.745
13.96000 7.535
13.98000 4.633
14.00000 3.445
14.02000 13.413
14.04000 9.204
14.06000 11.281
14.08000 7.994
14.10000 4.241
14.12000 5.089
14.14000 10.443
14.16000 14.207
14.18000 3.235
14.20000 -2.911
14.22000 1.844
14.24000 8.934
14.26000 14.157
14.28000 13.975
14.30000 23.418
14.32000 18.219
14.34000 9.747
14.36000 5.495
14.38000 4.940
14.40000 9.186
14.42000 13.899
14.44000 15.680
14.46000 13.900
14.48000 14.277
14.50000 12.741
14.52000 4.903
14.54000 4.295
14.56000 14.908
14.58000 12.003
14.60000 9.673
14.62000 9.942
14.64000 8.850
14.66000 -0.205
14.68000 0.984
14.70000 2.876
14.72000 3.326
14.74000 0.142
14.76000 -3.808
14.78000 -1.943
14.80000 7.617
14.82000 8.223
14.84000 -3.040
14.86000 -4.449
14.88000 3.689
14.90000 9.930
14.92000 12.602
14.94000 9.409
14.96000 8.278
14.98000 5.961
15.00000 13.720
15.02000 8.233
15.04000 1.031
15.06000 2.683
15.08000 7.668
15.10000 12.217
15.12000 13.126
15.14000 11.537
15.16000 8.718
15.18000 10.197
15.20000 12.564
15.22000 11.334
15.24000 11.533
15.26000 7.012
15.28000 8.313
15.30000 12.266
15.32000 9.819
15.34000 15.891
15.36000 9.872
15.38000 14.653
15.40000 7.018
15.42000 12.921
15.44000 7.264
15.46000 2.807
15.48000 9.506
15.50000 13.354
15.52000 5.049
15.54000 6.258
15.56000 10.545
15.58000 12.309
15.60000 16.785
15.62000 8.676
15.64000 6.567
15.66000 12.504
15.68000 19.574
15.70000 19.482
15.72000 13.453
15.74000 4.493
15.76000 -3.209
15.78000 6.213
15.80000 11.337
15.82000 11.710
15.84000 11.730
15.86000 16.471
15.88000 15.213
15.90000 5.439
15.92000 5.434
15.94000 17.757
15.96000 15.015
15.98000 12.063
16.00000 18.211
16.02000 14.740
16.04000 16.750
16.06000 19.904
16.08000 17.537
16.10000 5.906
16.12000 11.113
16.14000 11.227
16.16000 15.855
16.18000 12.335
16.20000 15.856
16.22000 11.509
16.24000 10.444
16.26000 12.107
16.28000 15.986
16.30000 14.237
16.32000 16.641
16.34000 13.369
16.36000 17.203
16.38000 15.879
16.40000 14.317
16.42000 5.191
16.44000 2.565
16.46000 10.700
16.48000 6.738
16.50000 5.665
16.52000 4.277
16.54000 2.426
16.56000 -4.341
16.58000 3.589
16.60000 10.293
16.62000 17.660
16.64000 16.498
16.66000 11.411
16.68000 2.116
16.70000 7.275
16.72000 15.656
16.74000 12.053
16.76000 8.635
16.78000 5.569
16.80000 6.439
16.82000 10.764
16.84000 14.931
16.86000 9.657
16.88000 8.582
16.90000 9.386
16.92000 5.084
16.94000 12.752
16.96000 13.973
16.98000 7.048
17.00000 8.102
17.02000 17.711
17.04000 16.211
17.06000 10.026
17.08000 12.418
17.10000 8.190
17.12000 5.798
17.14000 12.377
17.16000 9.798
17.18000 5.390
17.20000 2.749
17.22000 9.218
17.24000 18.353
17.26000 11.750
17.28000 3.947
17.30000 -0.820
17.32000 1.207
17.34000 0.721
17.36000 9.585
17.38000 7.283
17.40000 10.915
17.42000 15.785
17.44000 14.055
17.46000 7.555
17.48000 3.713
17.50000 0.069
17.52000 3.378
17.54000 11.488
17.56000 9.519
17.58000 14.826
17.60000 15.785
17.62000 9.681
17.64000 0.446
17.66000 2.849
17.68000 2.698
17.70000 6.901
17.72000 0.981
17.74000 2.681
17.76000 8.573
17.78000 9.256
17.80000 8.242
17.82000 9.297
17.84000 3.721
17.86000 -1.394
17.88000 0.919
17.90000 8.888
17.92000 7.001
17.94000 0.016
17.96000 -2.782
17.98000 7.302
18.00000 12.539
18.02000 7.098
18.04000 2.139
18.06000 10.347
18.08000 11.774
18.10000 8.272
18.12000 6.483
18.14000 13.525
18.16000 14.055
18.18000 9.790
18.20000 5.468
18.22000 0.562
18.24000 -3.734
18.26000 -2.815
18.28000 -0.961
18.30000 6.645
18.32000 6.992
18.34000 5.798
18.36000 3.906
18.38000 14.684
18.40000 10.320
18.42000 10.085
18.44000 8.506
18.46000 0.533
18.48000 4.034
18.50000 4.614
18.52000 7.560
18.54000 4.163
18.56000 5.589
18.58000 2.422
18.60000 2.045
18.62000 5.549
18.64000 1.962
18.66000 3.247
18.68000 9.753
18.70000 7.075
18.72000 3.547
18.74000 7.595
18.76000 5.420
18.78000 2.124
18.80000 3.916
18.82000 5.989
18.84000 -0.454
18.86000 2.364
18.88000 1.112
18.90000 -0.199
18.92000 2.410
18.94000 4.284
18.96000 7.020
18.98000 8.871
19.00000 6.021
19.02000 0.152
19.04000 -1.309
19.06000 0.624
19.08000 2.206
19.10000 -1.104
19.12000 -2.653
19.14000 -3.850
19.16000 2.882
19.18000 5.600
19.20000 6.463
19.22000 9.279
19.24000 8.592
19.26000 8.096
19.28000 4.432
19.30000 -2.394
19.32000 -0.099
19.34000 4.061
19.36000 9.133
19.38000 11.307
19.40000 5.487
19.42000 3.030
19.44000 5.480
19.46000 6.309
19.48000 3.917
19.50000 9.542
19.52000 7.916
19.54000 6.407
19.56000 5.444
19.58000 2.902
19.60000 5.653
19.62000 8.608
19.64000 7.145
19.66000 7.814
19.68000 9.668
19.70000 4.192
19.72000 -4.205
19.74000 -0.276
19.76000 1.653
19.78000 -4.199
19.80000 6.119
19.82000 7.040
19.84000 2.684
19.86000 4.845
19.88000 11.488
19.90000 6.492
19.92000 -1.271
19.94000 4.024
19.96000 4.948
19.98000 -2.544
20.00000 1.680
20.02000 10.150
20.04000 6.348
20.06000 2.252
20.08000 4.611
20.10000 7.046
20.12000 4.524
20.14000 5.628
20.16000 0.907
20.18000 2.756
20.20000 -2.588
20.22000 -0.433
20.24000 6.973
20.26000 9.922
20.28000 5.942
20.30000 2.171
20.32000 1.798
20.34000 1.528
20.36000 6.236
20.38000 5.739
20.40000 5.320
20.42000 7.266
20.44000 5.507
20.46000 7.207
20.48000 7.321
20.50000 5.870
20.52000 5.787
20.54000 1.991
20.56000 1.949
20.58000 4.722
20.60000 3.630
20.62000 -4.169
20.64000 -3.011
20.66000 8.763
20.68000 7.604
20.70000 6.344
20.72000 10.009
20.74000 10.073
20.76000 2.696
20.78000 2.564
20.80000 3.329
20.82000 7.625
20.84000 6.742
20.86000 5.127
20.88000 5.519
20.90000 8.220
20.92000 2.033
20.94000 9.904
20.96000 9.727
20.98000 2.138
21.00000 2.869
21.02000 -1.242
21.04000 -2.366
21.06000 -2.355
21.08000 1.590
21.10000 4.514
21.12000 13.697
21.14000 6.833
21.16000 3.091
21.18000 0.007
21.20000 0.613
21.22000 1.933
21.24000 3.366
21.26000 1.381
21.28000 2.692
21.30000 3.347
21.32000 5.178
21.34000 3.612
21.36000 2.134
21.38000 3.116
21.40000 3.951
21.42000 2.687
21.44000 -0.395
21.46000 1.816
21.48000 0.745
21.50000 6.521
21.52000 7.981
21.54000 1.834
21.56000 1.163
21.58000 7.918
21.60000 3.262
21.62000 1.727
21.64000 -0.474
21.66000 0.865
21.68000 0.481
21.70000 3.364
21.72000 7.380
21.74000 8.216
21.76000 4.873
21.78000 4.726
21.80000 3.308
21.82000 6.937
21.84000 4.736
21.86000 1.842
21.88000 7.437
21.90000 8.241
21.92000 5.369
21.94000 1.485
21.96000 0.662
21.98000 -4.113
22.00000 -3.779
22.02000 3.044
22.04000 6.773
22.06000 5.789
22.08000 7.155
22.10000 7.200
22.12000 5.116
22.14000 -3.021
22.16000 0.947
22.18000 -3.216
22.20000 -4.070
22.22000 -0.124
22.24000 -0.261
22.26000 2.030
22.28000 1.113
22.30000 5.578
22.32000 7.189
22.34000 4.745
22.36000 1.368
22.38000 0.548
22.40000 2.339
22.42000 -0.507
22.44000 0.142
22.46000 0.266
22.48000 5.444
22.50000 -0.771
22.52000 -1.158
22.54000 6.093
22.56000 5.639
22.58000 6.626
22.60000 2.174
22.62000 -1.705
22.64000 1.095
22.66000 6.850
22.68000 7.889
22.70000 3.267
22.72000 1.057
22.74000 -0.752
22.76000 -3.600
22.78000 1.349
22.80000 7.779
22.82000 7.408
22.84000 5.059
22.86000 6.800
22.88000 0.631
22.90000 4.747
22.92000 5.456
22.94000 7.062
22.96000 1.541
22.98000 -0.076
23.00000 -2.627
23.02000 -2.616
23.04000 -3.099
23.06000 -2.913
23.08000 -0.687
23.10000 4.913
23.12000 2.034
23.14000 6.344
23.16000 8.158
23.18000 1.058
23.20000 -1.720
23.22000 -1.734
23.24000 1.709
23.26000 3.363
23.28000 3.033
23.30000 1.885
23.32000 2.972
23.34000 3.196
23.36000 3.635
23.38000 2.464
23.40000 3.824
23.42000 6.400
23.44000 1.055
23.46000 -0.440
23.48000 0.019
23.50000 1.803
23.52000 2.895
23.54000 5.407
23.56000 3.965
23.58000 -1.078
23.60000 -3.474
23.62000 1.908
23.64000 3.222
23.66000 4.194
23.68000 2.974
23.70000 -0.629
23.72000 1.650
23.74000 9.807
23.76000 8.150
23.78000 6.183
23.80000 1.237
23.82000 2.195
23.84000 14.247
23.86000 14.220
23.88000 4.465
23.90000 4.300
23.92000 -3.964
23.94000 5.252
23.96000 6.928
23.98000 9.106
24.00000 8.726
24.02000 5.592
24.04000 2.179
24.06000 4.796
24.08000 -0.078
24.10000 6.854
24.12000 11.152
24.14000 8.790
24.16000 2.938
24.18000 2.054
24.20000 8.573
24.22000 11.540
24.24000 6.775
24.26000 -1.442
24.28000 1.495
24.30000 4.417
24.32000 4.460
24.34000 1.996
24.36000 4.545
24.38000 7.479
24.40000 5.314
24.42000 5.527
24.44000 5.792
24.46000 2.260
24.48000 1.649
24.50000 5.637
24.52000 8.615
24.54000 2.803
24.56000 3.699
24.58000 4.967
24.60000 4.830
24.62000 5.126
24.64000 0.393
24.66000 -1.725
24.68000 0.078
24.70000 -2.725
24.72000 -0.564
24.74000 1.579
24.76000 3.715
24.78000 1.128
24.80000 3.396
24.82000 10.983
24.84000 11.836
24.86000 10.991
24.88000 6.635
24.90000 2.297
24.92000 -2.887
24.94000 -3.086
24.96000 -0.166
24.98000 -0.796
25.00000 4.924
25.02000 3.069
25.04000 5.646
25.06000 0.336
25.08000 -0.621
25.10000 -1.486
25.12000 2.761
25.14000 1.567
25.16000 2.469
25.18000 7.209
25.20000 8.560
25.22000 5.798
25.24000 8.736
25.26000 6.906
25.28000 3.805
25.30000 2.453
25.32000 4.927
25.34000 4.504
25.36000 4.658
25.38000 2.318
25.40000 -1.535
25.42000 7.160
25.44000 8.080
25.46000 5.182
25.48000 -3.905
25.50000 -0.615
25.52000 0.475
25.54000 3.549
25.56000 3.324
25.58000 2.860
25.60000 3.969
25.62000 -2.020
25.64000 -3.899
25.66000 0.537
25.68000 4.646
25.70000 5.524
25.72000 4.064
25.74000 2.769
25.76000 -0.322
25.78000 5.470
25.80000 9.237
25.82000 -1.296
25.84000 -1.072
25.86000 6.290
25.88000 4.357
25.90000 2.087
25.92000 1.148
25.94000 2.426
25.96000 2.503
25.98000 5.998
26.00000 7.200
26.02000 -0.040
26.04000 2.624
26.06000 4.277
26.08000 2.109
26.10000 2.031
26.12000 3.437
26.14000 0.861
26.16000 -0.833
26.18000 1.292
26.20000 -0.068
26.22000 1.809
26.24000 2.711
26.26000 7.143
26.28000 8.600
26.30000 3.119
26.32000 -3.876
26.34000 -0.757
26.36000 -0.986
26.38000 -1.633
26.40000 1.587
26.42000 3.674
26.44000 2.935
26.46000 -0.629
26.48000 -0.534
26.50000 4.349
26.52000 4.137
26.54000 1.611
26.56000 1.696
26.58000 -0.819
26.60000 -3.567
26.62000 0.857
26.64000 2.880
26.66000 6.538
26.68000 -2.491
26.70000 -3.106
26.72000 0.784
26.74000 3.536
26.76000 1.710
26.78000 2.504
26.80000 0.370
26.82000 -0.283
26.84000 0.876
26.86000 0.656
26.88000 1.621
26.90000 0.408
26.92000 5.306
26.94000 3.660
26.96000 1.692
26.98000 4.781
27.00000 10.509
27.02000 8.274
27.04000 1.236
27.06000 -1.835
27.08000 1.752
27.10000 6.120
27.12000 -1.450
27.14000 0.915
27.16000 6.436
27.18000 3.858
27.20000 4.335
27.22000 7.011
27.24000 4.225
27.26000 2.174
27.28000 6.320
27.30000 5.852
27.32000 5.911
27.34000 -1.320
27.36000 -2.225
27.38000 2.761
27.40000 1.674
27.42000 -1.436
27.44000 -2.517
27.46000 -1.418
27.48000 1.009
27.50000 6.059
27.52000 7.164
27.54000 5.049
27.56000 4.220
27.58000 6.535
27.60000 7.490
27.62000 5.531
27.64000 0.914
27.66000 5.367
27.68000 13.474
27.70000 11.377
27.72000 7.015
27.74000 3.564
27.76000 3.492
27.78000 6.794
27.80000 7.488
27.82000 7.116
27.84000 3.093
27.86000 -3.769
27.88000 0.113
27.90000 2.989
27.92000 3.426
27.94000 4.641
27.96000 6.388
27.98000 6.031
28.00000 3.222
28.02000 7.646
28.04000 5.644
28.06000 1.537
28.08000 2.802
28.10000 8.089
28.12000 2.482
28.14000 -1.324
28.16000 5.660
28.18000 6.189
28.20000 5.804
28.22000 6.963
28.24000 7.515
28.26000 3.058
28.28000 5.541
28.30000 1.348
28.32000 -1.785
28.34000 1.294
28.36000 4.475
28.38000 1.182
28.40000 0.782
28.42000 -1.045
28.44000 0.407
28.46000 3.520
28.48000 3.352
28.50000 7.676
28.52000 2.131
28.54000 -2.119
28.56000 -0.861
28.58000 2.187
28.60000 2.176
28.62000 2.261
28.64000 2.347
28.66000 2.952
28.68000 0.277
28.70000 0.572
28.72000 0.721
28.74000 6.674
28.76000 2.837
28.78000 0.336
28.80000 -2.881
28.82000 0.687
28.84000 3.741
28.86000 3.851
28.88000 7.204
28.90000 6.526
28.92000 -3.071
28.94000 -0.779
28.96000 0.750
28.98000 -1.965
29.00000 -2.153
29.02000 1.172
29.04000 3.200
29.06000 9.444
29.08000 5.910
29.10000 -1.255
29.12000 0.715
29.14000 1.912
29.16000 1.835
29.18000 3.009
29.20000 1.935
29.22000 3.856
29.24000 5.146
29.26000 3.220
29.28000 -1.807
29.30000 1.610
29.32000 -0.902
29.34000 0.080
29.36000 2.687
29.38000 -1.189
29.40000 -1.671
29.42000 -0.894
29.44000 4.746
29.46000 9.185
29.48000 5.954
29.50000 4.026
29.52000 5.288
29.54000 3.230
29.56000 3.398
29.58000 1.591
29.60000 -2.140
29.62000 -0.883
29.64000 -1.804
29.66000 1.767
29.68000 1.904
29.70000 2.033
29.72000 5.118
29.74000 3.802
29.76000 6.026
29.78000 7.969
29.80000 7.285
29.82000 -0.188
29.84000 -3.286
29.86000 -3.680
29.88000 -0.486
29.90000 5.649
29.92000 7.820
29.94000 3.349
29.96000 2.203
29.98000 1.630
30.00000 4.371
30.02000 2.431
30.04000 3.165
30.06000 3.036
30.08000 3.692
30.10000 4.955
30.12000 0.723
30.14000 -1.769
30.16000 4.043
30.18000 2.294
30.20000 -2.274
30.22000 -1.738
30.24000 2.023
30.26000 7.062
30.28000 6.012
30.30000 5.915
30.32000 3.618
30.34000 6.929
30.36000 9.289
30.38000 5.135
30.40000 6.053
30.42000 11.207
30.44000 6.631
30.46000 2.341
30.48000 2.329
30.50000 5.546
30.52000 12.374
30.54000 6.639
30.56000 8.644
30.58000 7.820
30.60000 4.282
30.62000 3.181
30.64000 2.171
30.66000 6.092
30.68000 5.254
30.70000 0.739
30.72000 -0.867
30.74000 2.118
30.76000 0.827
30.78000 -1.086
30.80000 1.735
30.82000 4.043
30.84000 -3.446
30.86000 -3.403
30.88000 0.729
30.90000 4.702
30.92000 4.511
30.94000 7.222
30.96000 5.382
30.98000 -1.779
31.00000 -3.628
31.02000 5.202
31.04000 5.163
31.06000 4.178
31.08000 3.162
31.10000 3.406
31.12000 4.989
31.14000 3.485
31.16000 7.745
31.18000 7.774
31.20000 8.333
31.22000 4.132
31.24000 4.479
31.26000 1.013
31.28000 3.827
31.30000 6.122
31.32000 3.458
31.34000 0.095
31.36000 -0.163
31.38000 3.909
31.40000 0.847
31.42000 -2.080
31.44000 1.390
31.46000 -1.097
31.48000 -1.362
31.50000 4.228
31.52000 0.972
31.54000 -3.609
31.56000 3.179
31.58000 14.806
31.60000 10.700
31.62000 4.135
31.64000 3.661
31.66000 7.063
31.68000 1.991
31.70000 1.065
31.72000 2.593
31.74000 2.792
31.76000 7.419
31.78000 5.144
31.80000 7.193
31.82000 7.394
31.84000 1.885
31.86000 -3.343
31.88000 0.860
31.90000 3.233
31.92000 8.916
31.94000 16.403
31.96000 11.492
31.98000 3.933
32.00000 5.713
32.02000 4.340
32.04000 0.359
32.06000 3.030
32.08000 -0.552
32.10000 2.636
32.12000 -0.853
32.14000 -2.924
32.16000 -1.559
32.18000 4.622
32.20000 6.139
32.22000 8.707
32.24000 4.771
32.26000 2.615
32.28000 7.407
32.30000 6.211
32.32000 1.326
32.34000 -1.142
32.36000 5.067
32.38000 4.146
32.40000 0.538
32.42000 -2.358
32.44000 2.249
32.46000 1.836
32.48000 2.580
32.50000 2.598
32.52000 0.429
32.54000 -0.713
32.56000 5.040
32.58000 7.559
32.60000 3.898
32.62000 3.568
32.64000 0.964
32.66000 1.813
32.68000 5.454
32.70000 3.659
32.72000 1.437
32.74000 1.551
32.76000 3.104
32.78000 6.919
32.80000 -0.340
32.82000 -3.587
32.84000 -0.506
32.86000 1.880
32.88000 5.044
32.90000 2.069
32.92000 3.261
32.94000 -1.420
32.96000 -1.222
32.98000 0.807
33.00000 2.168
33.02000 3.269
33.04000 1.544
33.06000 2.544
33.08000 -0.511
33.10000 -3.590
33.12000 -3.148
33.14000 -0.337
33.16000 -0.269
33.18000 3.251
33.20000 2.398
33.22000 -1.398
33.24000 0.419
33.26000 2.529
33.28000 3.302
33.30000 3.532
33.32000 4.377
33.34000 -1.216
33.36000 5.626
33.38000 9.876
33.40000 8.962
33.42000 7.011
33.44000 10.531
33.46000 5.064
33.48000 4.428
33.50000 1.815
33.52000 2.995
33.54000 -0.975
33.56000 1.781
33.58000 1.051
33.60000 -0.106
33.62000 3.331
33.64000 3.569
33.66000 -0.992
33.68000 5.425
33.70000 3.063
33.72000 -3.335
33.74000 2.966
33.76000 0.925
33.78000 1.176
33.80000 0.770
33.82000 -0.029
33.84000 -0.332
33.86000 -0.815
33.88000 2.281
33.90000 5.877
33.92000 8.073
33.94000 5.225
33.96000 2.823
33.98000 0.711
34.00000 6.081
34.02000 9.404
34.04000 5.870
34.06000 -0.316
34.08000 1.119
34.10000 5.319
34.12000 3.255
34.14000 0.617
34.16000 -3.270
34.18000 1.274
34.20000 4.898
34.22000 3.718
34.24000 2.550
34.26000 -0.420
34.28000 -1.183
34.30000 2.997
34.32000 8.850
34.34000 0.378
34.36000 4.129
34.38000 8.530
34.40000 5.107
34.42000 7.873
34.44000 5.694
34.46000 -0.248
34.48000 6.041
34.50000 9.692
34.52000 5.367
34.54000 1.175
34.56000 1.352
34.58000 -0.567
34.60000 2.361
34.62000 1.923
34.64000 6.036
34.66000 9.502
34.68000 4.481
34.70000 -0.251
34.72000 0.904
34.74000 1.683
34.76000 -1.328
34.78000 -1.545
34.80000 2.948
34.82000 3.531
34.84000 1.181
34.86000 2.729
34.88000 6.442
34.90000 1.936
34.92000 1.111
34.94000 1.257
34.96000 4.185
34.98000 1.596
35.00000 1.506
35.02000 -3.555
35.04000 -0.512
35.06000 3.773
35.08000 -0.329
35.10000 2.918
35.12000 3.595
35.14000 0.427
35.16000 0.462
35.18000 -0.070
35.20000 1.041
35.22000 4.867
35.24000 3.949
35.26000 4.071
35.28000 8.534
35.30000 5.150
35.32000 7.666
35.34000 5.043
35.36000 2.802
35.38000 -3.059
35.40000 -3.542
35.42000 0.908
35.44000 1.833
35.46000 2.591
35.48000 6.077
35.50000 7.436
35.52000 5.638
35.54000 1.565
35.56000 -0.352
35.58000 3.422
35.60000 2.883
35.62000 5.134
35.64000 2.193
35.66000 4.222
35.68000 7.172
35.70000 2.187
35.72000 -0.154
35.74000 2.429
35.76000 0.731
35.78000 5.716
35.80000 7.909
35.82000 -0.084
35.84000 2.181
35.86000 0.035
35.88000 0.305
35.90000 -0.688
35.92000 1.509
35.94000 1.301
35.96000 0.613
35.98000 -3.578
36.00000 -2.550
36.02000 -1.990
36.04000 3.604
36.06000 2.753
36.08000 -0.187
36.10000 0.533
36.12000 0.103
36.14000 0.182
36.16000 1.657
36.18000 4.419
36.20000 0.870
36.22000 3.457
36.24000 5.145
36.26000 1.670
36.28000 -3.604
36.30000 1.163
36.32000 0.023
36.34000 0.068
36.36000 3.097
36.38000 7.061
36.40000 1.231
36.42000 0.462
36.44000 -0.871
36.46000 2.609
36.48000 1.804
36.50000 0.975
36.52000 0.928
36.54000 0.576
36.56000 -0.484
36.58000 2.328
36.60000 1.266
36.62000 3.073
36.64000 1.618
36.66000 1.304
36.68000 3.930
36.70000 6.831
36.72000 4.126
36.74000 1.275
36.76000 0.064
36.78000 2.115
36.80000 8.168
36.82000 7.832
36.84000 8.967
36.86000 6.629
36.88000 6.052
36.90000 4.104
36.92000 3.682
36.94000 3.445
36.96000 5.269
36.98000 4.103
37.00000 7.464
37.02000 9.037
37.04000 7.427
37.06000 4.954
37.08000 2.202
37.10000 4.400
37.12000 2.894
37.14000 -3.026
37.16000 -1.083
37.18000 6.395
37.20000 5.932
37.22000 3.169
37.24000 3.769
37.26000 5.231
37.28000 6.703
37.30000 2.227
37.32000 4.749
37.34000 8.139
37.36000 7.248
37.38000 12.476
37.40000 12.142
37.42000 15.699
37.44000 13.824
37.46000 9.894
37.48000 8.354
37.50000 6.505
37.52000 9.542
37.54000 10.163
37.56000 12.264
37.58000 12.795
37.60000 11.848
37.62000 15.879
37.64000 13.737
37.66000 11.150
37.68000 9.365
37.70000 13.080
37.72000 16.732
37.74000 15.110
37.76000 14.968
37.78000 17.128
37.80000 16.755
37.82000 18.555
37.84000 21.372
37.86000 22.745
37.88000 20.816
37.90000 20.802
37.92000 24.115
37.94000 29.553
37.96000 25.509
37.98000 21.340
38.00000 21.821
38.02000 21.809
38.04000 28.148
38.06000 29.512
38.08000 27.591
38.10000 28.378
38.12000 32.669
38.14000 37.271
38.16000 37.444
38.18000 37.294
38.20000 40.002
38.22000 42.033
38.24000 41.441
38.26000 39.582
38.28000 45.402
38.30000 48.690
38.32000 48.302
38.34000 48.867
38.36000 51.459
38.38000 61.912
38.40000 59.884
38.42000 57.733
38.44000 62.970
38.46000 67.439
38.48000 65.637
38.50000 65.899
38.52000 68.923
38.54000 75.677
38.56000 83.353
38.58000 86.425
38.60000 83.188
38.62000 83.775
38.64000 91.081
38.66000 99.070
38.68000 106.656
38.70000 114.215
38.72000 120.872
38.74000 131.799
38.76000 137.232
38.78000 138.263
38.80000 148.900
38.82000 159.629
38.84000 162.729
38.86000 171.995
38.88000 185.506
38.90000 197.182
38.92000 210.145
38.94000 221.695
38.96000 232.977
38.98000 252.214
39.00000 263.107
39.02000 277.059
39.04000 299.498
39.06000 313.826
39.08000 328.031
39.10000 350.318
39.12000 371.789
39.14000 378.397
39.16000 391.927
39.18000 414.721
39.20000 429.708
39.22000 440.064
39.24000 453.273
39.26000 459.190
39.28000 469.736
39.30000 484.432
39.32000 493.517
39.34000 496.898
39.36000 510.458
39.38000 506.863
39.40000 497.783
39.42000 500.848
39.44000 498.062
39.46000 496.775
39.48000 482.516
39.50000 471.290
39.52000 466.773
39.54000 454.473
39.56000 439.786
39.58000 428.804
39.60000 404.968
39.62000 390.240
39.64000 372.922
39.66000 354.992
39.68000 344.682
39.70000 330.116
39.72000 307.745
39.74000 295.598
39.76000 274.319
39.78000 249.990
39.80000 239.332
39.82000 224.201
39.84000 216.216
39.86000 203.897
39.88000 190.196
39.90000 178.772
39.92000 167.357
39.94000 158.793
39.96000 149.541
39.98000 136.098
40.00000 120.363
40.02000 113.146
40.04000 109.785
40.06000 102.488
40.08000 99.046
40.10000 100.897
40.12000 89.587
40.14000 83.570
40.16000 75.682
40.18000 68.349
40.20000 66.489
40.22000 64.778
40.24000 61.663
40.26000 59.895
40.28000 58.164
40.30000 53.683
40.32000 49.324
40.34000 46.529
40.36000 44.187
40.38000 47.167
40.40000 41.276
40.42000 42.020
40.44000 35.900
40.46000 33.530
40.48000 29.799
40.50000 29.136
40.52000 25.274
40.54000 18.472
40.56000 25.439
40.58000 28.818
40.60000 28.179
40.62000 26.879
40.64000 24.664
40.66000 18.907
40.68000 18.900
40.70000 18.253
40.72000 18.911
40.74000 20.310
40.76000 16.779
40.78000 13.426
40.80000 14.465
40.82000 9.266
40.84000 11.777
40.86000 14.534
40.88000 14.451
40.90000 11.078
40.92000 10.921
40.94000 10.567
40.96000 13.216
40.98000 12.779
41.00000 7.626
41.02000 8.247
41.04000 7.674
41.06000 10.108
41.08000 11.906
41.10000 13.621
41.12000 9.433
41.14000 5.865
41.16000 6.312
41.18000 10.436
41.20000 6.740
41.22000 5.349
41.24000 3.320
41.26000 9.277
41.28000 9.011
41.30000 6.812
41.32000 2.295
41.34000 5.388
41.36000 4.769
41.38000 3.215
41.40000 2.877
41.42000 4.662
41.44000 5.280
41.46000 2.056
41.48000 1.380
41.50000 1.698
41.52000 5.367
41.54000 2.386
41.56000 -2.581
41.58000 -0.316
41.60000 3.593
41.62000 2.956
41.64000 1.670
41.66000 3.633
41.68000 6.819
41.70000 2.044
41.72000 2.358
41.74000 1.233
41.76000 -0.322
41.78000 1.196
41.80000 0.890
41.82000 1.730
41.84000 1.716
41.86000 0.159
41.88000 -1.139
41.90000 -2.929
41.92000 1.568
41.94000 4.411
41.96000 6.727
41.98000 3.148
42.00000 0.987
42.02000 3.733
42.04000 8.456
42.06000 7.079
42.08000 7.167
42.10000 5.886
42.12000 1.625
42.14000 4.984
42.16000 1.862
42.18000 -1.343
42.20000 -0.240
42.22000 0.638
42.24000 4.124
42.26000 3.987
42.28000 3.897
42.30000 2.169
42.32000 -3.320
42.34000 0.248
42.36000 2.030
42.38000 2.029
42.40000 2.431
42.42000 5.871
42.44000 4.979
42.46000 1.707
42.48000 0.538
42.50000 1.306
42.52000 4.430
42.54000 2.148
42.56000 1.183
42.58000 3.984
42.60000 0.285
42.62000 -1.289
42.64000 -2.235
42.66000 0.667
42.68000 -3.280
42.70000 -1.501
42.72000 0.180
42.74000 -0.991
42.76000 0.437
42.78000 3.813
42.80000 5.636
42.82000 2.045
42.84000 -0.794
42.86000 0.779
42.88000 1.118
42.90000 0.644
42.92000 2.373
42.94000 0.580
42.96000 1.462
42.98000 -2.052
43.00000 1.155
43.02000 4.809
43.04000 2.738
43.06000 1.630
43.08000 -1.116
43.10000 1.513
43.12000 0.396
43.14000 1.797
43.16000 4.853
43.18000 4.266
43.20000 4.135
43.22000 -0.771
43.24000 -2.765
43.26000 0.931
43.28000 1.663
43.30000 2.722
43.32000 0.446
43.34000 0.362
43.36000 -0.506
43.38000 0.315
43.40000 -1.484
43.42000 -0.280
43.44000 1.730
43.46000 4.789
43.48000 2.771
43.50000 -0.023
43.52000 1.484
43.54000 -0.027
43.56000 1.220
43.58000 0.328
43.60000 0.133
43.62000 -1.086
43.64000 1.246
43.66000 1.770
43.68000 -1.603
43.70000 -0.791
43.72000 -3.188
43.74000 -0.778
43.76000 2.041
43.78000 2.849
43.80000 -0.559
43.82000 -1.332
43.84000 3.298
43.86000 1.754
43.88000 -1.039
43.90000 -1.163
43.92000 -2.188
43.94000 -1.919
43.96000 2.779
43.98000 3.513
44.00000 -0.294
44.02000 2.022
44.04000 4.379
44.06000 3.528
44.08000 -1.314
44.10000 -0.954
44.12000 1.345
44.14000 2.763
44.16000 1.286
44.18000 3.590
44.20000 8.260
44.22000 3.901
44.24000 2.399
44.26000 -1.120
44.28000 -3.176
44.30000 -2.031
44.32000 -1.668
44.34000 0.111
44.36000 -0.311
44.38000 1.028
44.40000 3.859
44.42000 4.517
44.44000 6.853
44.46000 6.743
44.48000 4.530
44.50000 0.960
44.52000 -0.132
44.54000 -1.814
44.56000 -2.221
44.58000 2.059
44.60000 5.022
44.62000 1.515
44.64000 2.007
44.66000 4.331
44.68000 7.698
44.70000 8.466
44.72000 9.474
44.74000 5.992
44.76000 7.307
44.78000 6.330
44.80000 8.310
44.82000 6.227
44.84000 4.615
44.86000 6.744
44.88000 6.115
44.90000 8.511
44.92000 8.917
44.94000 8.266
44.96000 8.086
44.98000 9.493
45.00000 8.208
45.02000 8.297
45.04000 7.637
45.06000 8.534
45.08000 12.619
45.10000 12.305
45.12000 11.786
45.14000 13.350
45.16000 18.669
45.18000 19.220
45.20000 17.923
45.22000 19.571
45.24000 22.911
45.26000 23.781
45.28000 22.977
45.30000 22.163
45.32000 22.739
45.34000 21.566
45.36000 24.945
45.38000 28.494
45.40000 24.597
45.42000 26.384
45.44000 28.128
45.46000 27.170
45.48000 31.291
45.50000 37.758
45.52000 36.102
45.54000 34.177
45.56000 37.301
45.58000 43.609
45.60000 44.057
45.62000 43.666
45.64000 49.022
45.66000 51.149
45.68000 47.055
45.70000 50.304
45.72000 51.969
45.74000 51.477
45.76000 49.600
45.78000 52.872
45.80000 57.522
45.82000 60.992
45.84000 58.692
45.86000 59.423
45.88000 66.833
45.90000 63.819
45.92000 64.452
45.94000 68.061
45.96000 69.103
45.98000 67.300
46.00000 64.887
46.02000 68.362
46.04000 68.311
46.06000 64.334
46.08000 64.537
46.10000 67.013
46.12000 60.394
46.14000 63.243
46.16000 67.191
46.18000 63.884
46.20000 58.599
46.22000 63.215
46.24000 62.524
46.26000 56.272
46.28000 52.867
46.30000 50.911
46.32000 49.407
46.34000 50.436
46.36000 53.076
46.38000 47.085
46.40000 44.833
46.42000 43.169
46.44000 37.956
46.46000 35.907
46.48000 33.676
46.50000 32.162
46.52000 33.670
46.54000 33.573
46.56000 33.101
46.58000 28.878
46.60000 27.999
46.62000 25.941
46.64000 23.909
46.66000 26.120
46.68000 24.960
46.70000 19.284
46.72000 21.928
46.74000 22.502
46.76000 15.824
46.78000 15.713
46.80000 17.455
46.82000 13.517
46.84000 8.569
46.86000 9.449
46.88000 9.307
46.90000 9.752
46.92000 6.426
46.94000 7.445
46.96000 9.374
46.98000 4.319
47.00000 2.100
47.02000 4.377
47.04000 6.577
47.06000 3.997
47.08000 7.212
47.10000 5.628
47.12000 1.129
47.14000 2.202
47.16000 3.065
47.18000 1.979
47.20000 1.683
47.22000 -0.397
47.24000 -1.053
47.26000 1.166
47.28000 2.904
47.30000 7.557
47.32000 3.838
47.34000 2.624
47.36000 -0.066
47.38000 3.651
47.40000 -0.177
47.42000 -2.816
47.44000 0.218
47.46000 2.494
47.48000 1.528
47.50000 -1.193
47.52000 0.195
47.54000 -0.050
47.56000 0.858
47.58000 -0.519
47.60000 4.124
47.62000 6.391
47.64000 1.216
47.66000 5.718
47.68000 2.814
47.70000 0.846
47.72000 -1.377
47.74000 -0.353
47.76000 1.046
47.78000 2.567
47.80000 -0.277
47.82000 0.408
47.84000 3.057
47.86000 0.574
47.88000 -1.571
47.90000 1.988
47.92000 3.562
47.94000 4.358
47.96000 1.347
47.98000 4.065
48.00000 4.467
48.02000 0.943
48.04000 -2.730
48.06000 0.387
48.08000 -1.785
48.10000 0.448
48.12000 -1.952
48.14000 -1.904
48.16000 -2.719
48.18000 0.621
48.20000 0.986
48.22000 3.327
48.24000 1.513
48.26000 0.480
48.28000 1.248
48.30000 -0.243
48.32000 2.244
48.34000 5.932
48.36000 2.062
48.38000 2.692
48.40000 2.062
48.42000 0.195
48.44000 0.869
48.46000 4.348
48.48000 3.529
48.50000 9.863
48.52000 3.791
48.54000 -0.747
48.56000 -1.167
48.58000 -0.427
48.60000 4.163
48.62000 3.680
48.64000 3.026
48.66000 -0.825
48.68000 2.672
48.70000 6.622
48.72000 5.751
48.74000 5.176
48.76000 4.834
48.78000 3.635
48.80000 -2.643
48.82000 -1.414
48.84000 1.052
48.86000 2.367
48.88000 3.358
48.90000 2.775
48.92000 3.489
48.94000 3.858
48.96000 3.622
48.98000 2.415
49.00000 1.504
49.02000 2.391
49.04000 2.647
49.06000 0.028
49.08000 3.891
49.10000 7.459
49.12000 3.836
49.14000 -0.486
49.16000 0.014
49.18000 1.914
49.20000 1.945
49.22000 2.978
49.24000 3.006
49.26000 3.246
49.28000 1.074
49.30000 -0.520
49.32000 2.255
49.34000 -1.548
49.36000 3.768
49.38000 2.248
49.40000 3.460
49.42000 0.837
49.44000 -0.841
49.46000 0.634
49.48000 4.410
49.50000 3.364
49.52000 4.036
49.54000 4.226
49.56000 4.136
49.58000 -1.532
49.60000 -2.621
49.62000 2.130
49.64000 3.796
49.66000 -0.461
49.68000 5.000
49.70000 2.588
49.72000 -1.058
49.74000 1.721
49.76000 -0.633
49.78000 -0.736
49.80000 0.578
49.82000 -1.313
49.84000 1.093
49.86000 3.549
49.88000 2.303
49.90000 -0.005
49.92000 0.633
49.94000 1.067
49.96000 0.413
49.98000 -2.494
50.00000 -1.381
50.02000 -1.326
50.04000 -0.636
50.06000 3.589
50.08000 -0.466
50.10000 1.505
50.12000 -0.467
50.14000 -0.050
50.16000 -0.682
50.18000 -0.338
50.20000 -1.289
50.22000 0.312
50.24000 1.546
50.26000 -0.124
50.28000 0.216
50.30000 0.307
50.32000 -0.613
50.34000 3.535
50.36000 0.512
50.38000 1.988
50.40000 2.170
50.42000 2.080
50.44000 0.613
50.46000 1.694
50.48000 1.500
50.50000 2.100
50.52000 -0.399
50.54000 3.219
50.56000 2.834
50.58000 -0.571
50.60000 -1.860
50.62000 -2.257
50.64000 2.813
50.66000 1.513
50.68000 1.479
50.70000 2.118
50.72000 2.897
50.74000 4.802
50.76000 4.283
50.78000 3.494
50.80000 4.894
50.82000 5.737
50.84000 2.700
50.86000 -0.056
50.88000 2.005
50.90000 2.335
50.92000 1.670
50.94000 -1.296
50.96000 -2.575
50.98000 1.034
51.00000 5.254
51.02000 7.242
51.04000 3.806
51.06000 3.791
51.08000 3.261
51.10000 0.427
51.12000 3.775
51.14000 2.764
51.16000 -1.706
51.18000 -2.034
51.20000 0.440
51.22000 1.254
51.24000 0.883
51.26000 0.246
51.28000 0.273
51.30000 1.707
51.32000 3.539
51.34000 3.287
51.36000 -1.017
51.38000 -1.246
51.40000 -0.962
51.42000 5.242
51.44000 4.397
51.46000 0.099
51.48000 -1.635
51.50000 2.478
51.52000 2.424
51.54000 0.576
51.56000 1.112
51.58000 1.159
51.60000 -0.925
51.62000 3.664
51.64000 3.494
51.66000 1.209
51.68000 0.216
51.70000 -0.521
51.72000 2.646
51.74000 2.212
51.76000 0.398
51.78000 -0.876
51.80000 2.028
51.82000 3.106
51.84000 1.185
51.86000 1.689
51.88000 2.095
51.90000 2.653
51.92000 2.761
51.94000 3.099
51.96000 1.034
51.98000 2.505
52.00000 4.650
52.02000 2.422
52.04000 1.862
52.06000 3.976
52.08000 -1.653
52.10000 -1.094
52.12000 0.943
52.14000 2.794
52.16000 0.427
52.18000 2.525
52.20000 3.316
52.22000 6.283
52.24000 3.584
52.26000 1.213
52.28000 5.772
52.30000 3.342
52.32000 -0.749
52.34000 -0.410
52.36000 -1.542
52.38000 4.539
52.40000 6.593
52.42000 3.112
52.44000 -2.518
52.46000 2.213
52.48000 3.763
52.50000 4.117
52.52000 2.792
52.54000 1.344
52.56000 0.974
52.58000 1.889
52.60000 1.853
52.62000 0.613
52.64000 2.678
52.66000 0.501
52.68000 -2.111
52.70000 -0.533
52.72000 -0.576
52.74000 -1.642
52.76000 0.857
52.78000 -2.282
52.80000 1.707
52.82000 5.268
52.84000 1.936
52.86000 2.276
52.88000 5.231
52.90000 1.380
52.92000 3.109
52.94000 3.869
52.96000 3.930
52.98000 2.731
53.00000 2.510
53.02000 0.568
53.04000 2.181
53.06000 4.089
53.08000 4.055
53.10000 2.762
53.12000 2.451
53.14000 3.377
53.16000 3.891
53.18000 3.611
53.20000 1.209
53.22000 2.581
53.24000 2.923
53.26000 0.866
53.28000 -0.477
53.30000 4.644
53.32000 3.099
53.34000 -0.905
53.36000 1.086
53.38000 3.156
53.40000 2.385
53.42000 3.099
53.44000 0.093
53.46000 1.321
53.48000 3.573
53.50000 2.353
53.52000 2.220
53.54000 5.192
53.56000 4.067
53.58000 0.560
53.60000 1.209
53.62000 3.007
53.64000 3.571
53.66000 3.035
53.68000 3.493
53.70000 4.216
53.72000 -1.394
53.74000 -0.587
53.76000 0.253
53.78000 3.179
53.80000 2.065
53.82000 -1.499
53.84000 3.040
53.86000 7.204
53.88000 2.295
53.90000 1.266
53.92000 0.476
53.94000 0.223
53.96000 7.522
53.98000 4.668
54.00000 -0.984
54.02000 1.075
54.04000 4.608
54.06000 5.217
54.08000 2.361
54.10000 5.829
54.12000 6.389
54.14000 3.520
54.16000 4.078
54.18000 2.703
54.20000 2.240
54.22000 3.303
54.24000 6.608
54.26000 1.338
54.28000 1.567
54.30000 1.708
54.32000 -0.886
54.34000 2.100
54.36000 3.659
54.38000 2.463
54.40000 -0.151
54.42000 0.413
54.44000 -1.314
54.46000 1.444
54.48000 4.267
54.50000 2.738
54.52000 3.658
54.54000 0.141
54.56000 -2.448
54.58000 2.605
54.60000 5.968
54.62000 3.609
54.64000 3.415
54.66000 0.700
54.68000 -2.440
54.70000 0.506
54.72000 0.295
54.74000 0.855
54.76000 1.780
54.78000 4.074
54.80000 7.273
54.82000 5.304
54.84000 0.878
54.86000 2.067
54.88000 -0.527
54.90000 1.646
54.92000 4.231
54.94000 4.390
54.96000 4.121
54.98000 0.725
55.00000 1.114
55.02000 0.320
55.04000 -0.360
55.06000 1.347
55.08000 1.020
55.10000 4.590
55.12000 7.480
55.14000 5.880
55.16000 4.877
55.18000 2.658
55.20000 3.773
55.22000 4.013
55.24000 1.953
55.26000 0.200
55.28000 -2.418
55.30000 0.974
55.32000 2.674
55.34000 4.484
55.36000 1.793
55.38000 4.817
55.40000 3.501
55.42000 3.844
55.44000 3.525
55.46000 3.862
55.48000 4.186
55.50000 4.587
55.52000 2.211
55.54000 1.520
55.56000 3.928
55.58000 6.619
55.60000 7.289
55.62000 4.734
55.64000 4.549
55.66000 2.638
55.68000 0.221
55.70000 2.290
55.72000 2.181
55.74000 2.276
55.76000 3.995
55.78000 5.721
55.80000 4.980
55.82000 0.570
55.84000 -0.152
55.86000 -0.397
55.88000 3.720
55.90000 2.549
55.92000 2.992
55.94000 2.408
55.96000 4.851
55.98000 1.462
56.00000 -0.446
56.02000 4.431
56.04000 2.175
56.06000 2.766
56.08000 -2.189
56.10000 -1.117
56.12000 2.260
56.14000 0.767
56.16000 0.652
56.18000 -0.572
56.20000 1.287
56.22000 4.084
56.24000 -0.858
56.26000 3.083
56.28000 5.040
56.30000 2.573
56.32000 -1.764
56.34000 3.005
56.36000 6.379
56.38000 4.891
56.40000 3.547
56.42000 5.564
56.44000 2.819
56.46000 -1.783
56.48000 -2.422
56.50000 -1.786
56.52000 -1.134
56.54000 4.453
56.56000 4.651
56.58000 8.499
56.60000 6.199
56.62000 2.061
56.64000 3.474
56.66000 3.259
56.68000 1.770
56.70000 3.662
56.72000 4.758
56.74000 2.014
56.76000 -1.569
56.78000 -0.386
56.80000 -0.510
56.82000 1.341
56.84000 2.564
56.86000 5.552
56.88000 7.640
56.90000 5.629
56.92000 5.005
56.94000 3.405
56.96000 2.073
56.98000 -0.475
57.00000 1.106
57.02000 2.347
57.04000 3.898
57.06000 3.244
57.08000 3.872
57.10000 3.222
57.12000 9.177
57.14000 9.770
57.16000 1.935
57.18000 -2.377
57.20000 -1.052
57.22000 0.305
57.24000 1.470
57.26000 2.912
57.28000 3.012
57.30000 0.873
57.32000 3.214
57.34000 4.792
57.36000 2.324
57.38000 1.041
57.40000 1.879
57.42000 2.652
57.44000 2.646
57.46000 2.024
57.48000 -2.049
57.50000 -1.109
57.52000 2.817
57.54000 2.179
57.56000 3.158
57.58000 0.223
57.60000 2.131
57.62000 2.729
57.64000 2.932
57.66000 1.809
57.68000 4.474
57.70000 1.489
57.72000 0.092
57.74000 4.271
57.76000 2.109
57.78000 1.917
57.80000 3.580
57.82000 1.023
57.84000 1.432
57.86000 3.241
57.88000 1.644
57.90000 0.770
57.92000 1.804
57.94000 2.796
57.96000 3.149
57.98000 -0.619
58.00000 0.515
58.02000 -1.433
58.04000 3.172
58.06000 0.661
58.08000 -2.386
58.10000 -1.319
58.12000 -2.303
58.14000 -0.850
58.16000 0.812
58.18000 5.060
58.20000 7.197
58.22000 4.092
58.24000 3.447
58.26000 0.622
58.28000 -2.068
58.30000 -1.817
58.32000 3.235
58.34000 4.131
58.36000 1.574
58.38000 3.041
58.40000 1.407
58.42000 2.174
58.44000 -0.118
58.46000 2.888
58.48000 0.933
58.50000 1.689
58.52000 -0.505
58.54000 -1.170
58.56000 -0.362
58.58000 -1.358
58.60000 3.659
58.62000 1.972
58.64000 0.515
58.66000 2.490
58.68000 1.898
58.70000 1.400
58.72000 1.855
58.74000 2.204
58.76000 2.184
58.78000 -0.463
58.80000 -2.190
58.82000 -1.950
58.84000 1.932
58.86000 4.767
58.88000 4.433
58.90000 3.129
58.92000 1.082
58.94000 1.352
58.96000 2.004
58.98000 5.745
59.00000 4.207
59.02000 2.178
59.04000 0.850
59.06000 5.349
59.08000 5.310
59.10000 1.139
59.12000 1.569
59.14000 -2.340
59.16000 -1.320
59.18000 -0.129
59.20000 1.577
59.22000 4.280
59.24000 3.599
59.26000 5.489
59.28000 4.123
59.30000 4.095
59.32000 1.950
59.34000 0.020
59.36000 0.296
59.38000 4.018
59.40000 3.097
59.42000 -0.355
59.44000 1.358
59.46000 1.268
59.48000 0.861
59.50000 2.780
59.52000 2.678
59.54000 0.711
59.56000 3.240
59.58000 1.196
59.60000 1.481
59.62000 2.661
59.64000 2.201
59.66000 2.629
59.68000 3.205
59.70000 -0.306
59.72000 -0.685
59.74000 0.765
59.76000 3.361
59.78000 1.678
59.80000 1.446
59.82000 2.000
59.84000 2.187
59.86000 3.900
59.88000 3.036
59.90000 3.699
59.92000 0.345
59.94000 4.314
59.96000 0.749
59.98000 -0.169
60.00000 2.117
60.02000 3.650
60.04000 4.679
60.06000 1.927
60.08000 0.422
60.10000 1.659
60.12000 5.415
60.14000 4.636
60.16000 3.279
60.18000 3.691
60.20000 3.514
60.22000 1.719
60.24000 0.698
60.26000 0.949
60.28000 -0.692
60.30000 -0.997
60.32000 2.283
60.34000 3.560
60.36000 3.867
60.38000 4.047
60.40000 2.724
60.42000 3.133
60.44000 1.306
60.46000 -2.269
60.48000 1.066
60.50000 1.248
60.52000 1.648
60.54000 2.519
60.56000 1.934
60.58000 2.076
60.60000 2.572
60.62000 -1.315
60.64000 1.892
60.66000 3.548
60.68000 4.395
60.70000 4.138
60.72000 1.894
60.74000 1.360
60.76000 0.590
60.78000 3.217
60.80000 5.622
60.82000 5.221
60.84000 3.252
60.86000 2.750
60.88000 3.298
60.90000 1.983
60.92000 3.397
60.94000 2.143
60.96000 4.887
60.98000 5.122
61.00000 5.705
61.02000 3.280
61.04000 1.161
61.06000 1.684
61.08000 1.696
61.10000 1.204
61.12000 3.922
61.14000 6.158
61.16000 5.151
61.18000 1.208
61.20000 0.694
61.22000 -0.892
61.24000 -2.254
61.26000 0.578
61.28000 5.105
61.30000 3.251
61.32000 -0.590
61.34000 0.125
61.36000 1.459
61.38000 2.264
61.40000 5.203
61.42000 4.688
61.44000 4.090
61.46000 2.407
61.48000 1.226
61.50000 1.103
61.52000 -0.202
61.54000 -0.259
61.56000 -0.457
61.58000 0.968
61.60000 -1.646
61.62000 1.258
61.64000 1.234
61.66000 1.191
61.68000 -0.853
61.70000 0.248
61.72000 2.238
61.74000 4.477
61.76000 6.417
61.78000 4.947
61.80000 5.458
61.82000 0.748
61.84000 1.327
61.86000 2.769
61.88000 2.411
61.90000 2.529
61.92000 0.901
61.94000 -2.261
61.96000 -1.042
61.98000 3.405
62.00000 1.867
62.02000 2.676
62.04000 -0.021
62.06000 -1.428
62.08000 1.189
62.10000 3.427
62.12000 4.943
62.14000 1.019
62.16000 0.511
62.18000 2.076
62.20000 3.229
62.22000 0.234
62.24000 3.079
62.26000 3.831
62.28000 0.235
62.30000 1.605
62.32000 0.060
62.34000 0.659
62.36000 0.139
62.38000 -2.228
62.40000 -0.527
62.42000 3.295
62.44000 4.223
62.46000 2.614
62.48000 1.969
62.50000 1.136
62.52000 0.431
62.54000 -1.420
62.56000 2.505
62.58000 2.879
62.60000 3.184
62.62000 4.548
62.64000 3.585
62.66000 3.337
62.68000 4.487
62.70000 3.343
62.72000 3.076
62.74000 4.251
62.76000 0.533
62.78000 -0.804
62.80000 1.360
62.82000 2.213
62.84000 -2.061
62.86000 -0.266
62.88000 2.932
62.90000 2.553
62.92000 1.085
62.94000 0.131
62.96000 4.416
62.98000 0.653
63.00000 1.383
63.02000 0.925
63.04000 3.115
63.06000 5.885
63.08000 1.722
63.10000 2.418
63.12000 4.101
63.14000 2.403
63.16000 1.744
63.18000 1.343
63.20000 1.578
63.22000 1.147
63.24000 1.821
63.26000 2.661
63.28000 -0.413
63.30000 -2.227
63.32000 -0.490
63.34000 -1.039
63.36000 -0.126
63.38000 0.617
63.40000 -0.112
63.42000 0.919
63.44000 1.906
63.46000 2.690
63.48000 3.193
63.50000 5.867
63.52000 3.229
63.54000 1.921
63.56000 3.039
63.58000 6.211
63.60000 5.841
63.62000 5.086
63.64000 5.743
63.66000 4.605
63.68000 1.799
63.70000 2.301
63.72000 2.729
63.74000 4.798
63.76000 2.810
63.78000 1.652
63.80000 1.957
63.82000 1.880
63.84000 2.719
63.86000 3.374
63.88000 3.992
63.90000 3.933
63.92000 -1.605
63.94000 1.413
63.96000 3.923
63.98000 1.429
64.00000 0.696
64.02000 4.146
64.04000 4.058
64.06000 4.087
64.08000 5.631
64.10000 3.541
64.12000 2.763
64.14000 3.941
64.16000 1.737
64.18000 -1.502
64.20000 1.064
64.22000 4.227
64.24000 0.286
64.26000 1.891
64.28000 -0.014
64.30000 -0.276
64.32000 2.760
64.34000 1.890
64.36000 5.393
64.38000 5.262
64.40000 5.541
64.42000 1.850
64.44000 2.926
64.46000 3.024
64.48000 -2.181
64.50000 0.646
64.52000 2.735
64.54000 5.906
64.56000 6.224
64.58000 7.225
64.60000 8.255
64.62000 4.673
64.64000 1.111
64.66000 4.900
64.68000 4.151
64.70000 0.518
64.72000 2.860
64.74000 0.211
64.76000 -1.261
64.78000 1.449
64.80000 1.057
64.82000 4.379
64.84000 6.390
64.86000 0.621
64.88000 -0.045
64.90000 -0.583
64.92000 -1.838
64.94000 2.727
64.96000 4.527
64.98000 3.511
65.00000 1.808
65.02000 0.485
65.04000 1.316
65.06000 2.343
65.08000 5.504
65.10000 5.773
65.12000 1.268
65.14000 -1.374
65.16000 2.787
65.18000 2.581
65.20000 0.901
65.22000 -0.012
65.24000 0.670
65.26000 0.932
65.28000 1.282
65.30000 1.645
65.32000 1.589
65.34000 1.422
65.36000 2.161
65.38000 1.564
65.40000 1.294
65.42000 -0.852
65.44000 -0.612
65.46000 -1.381
65.48000 -0.767
65.50000 -0.481
65.52000 -1.935
65.54000 -2.004
65.56000 -0.808
65.58000 -1.676
65.60000 -2.030
65.62000 -0.493
65.64000 1.476
65.66000 -0.218
65.68000 -0.041
65.70000 -2.245
65.72000 -1.312
65.74000 -1.772
65.76000 -1.765
65.78000 0.297
65.80000 -0.183
65.82000 -0.666
65.84000 -2.135
65.86000 -2.251
65.88000 -2.149
65.90000 -0.230
65.92000 1.280
65.94000 0.597
65.96000 -0.451
65.98000 -0.224
66.00000 -0.941
66.02000 0.383
66.04000 -1.028
66.06000 0.655
66.08000 -1.428
66.10000 -0.514
66.12000 0.368
66.14000 1.967
66.16000 2.064
66.18000 1.977
66.20000 2.871
66.22000 0.733
66.24000 -1.141
66.26000 -2.004
66.28000 -1.070
66.30000 1.093
66.32000 2.316
66.34000 5.211
66.36000 4.983
66.38000 2.426
66.40000 1.137
66.42000 -0.312
66.44000 0.809
66.46000 3.053
66.48000 2.811
66.50000 2.364
66.52000 2.543
66.54000 3.521
66.56000 3.588
66.58000 2.044
66.60000 3.390
66.62000 1.888
66.64000 1.344
66.66000 4.581
66.68000 5.481
66.70000 2.770
66.72000 4.252
66.74000 6.567
66.76000 4.130
66.78000 4.234
66.80000 5.437
66.82000 8.478
66.84000 7.033
66.86000 5.814
66.88000 5.653
66.90000 6.050
66.92000 4.389
66.94000 3.329
66.96000 4.930
66.98000 6.124
67.00000 6.119
67.02000 5.356
67.04000 6.824
67.06000 7.869
67.08000 2.996
67.10000 3.374
67.12000 5.138
67.14000 1.737
67.16000 1.918
67.18000 3.719
67.20000 5.361
67.22000 6.107
67.24000 2.557
67.26000 4.770
67.28000 6.853
67.30000 4.316
67.32000 4.805
67.34000 3.228
67.36000 4.056
67.38000 4.615
67.40000 2.420
67.42000 3.852
67.44000 2.546
67.46000 4.080
67.48000 3.861
67.50000 4.375
67.52000 0.678
67.54000 0.240
67.56000 2.802
67.58000 1.410
67.60000 -0.041
67.62000 2.054
67.64000 1.804
67.66000 2.811
67.68000 2.198
67.70000 3.203
67.72000 1.773
67.74000 3.803
67.76000 4.640
67.78000 1.006
67.80000 1.558
67.82000 1.486
67.84000 0.385
67.86000 -1.195
67.88000 -2.186
67.90000 -0.242
67.92000 -1.438
67.94000 -1.308
67.96000 -0.684
67.98000 -1.559
68.00000 -0.667
68.02000 1.362
68.04000 2.013
68.06000 0.008
68.08000 -0.223
68.10000 1.716
68.12000 0.670
68.14000 -1.105
68.16000 -1.702
68.18000 -0.691
68.20000 -1.681
68.22000 1.746
68.24000 1.245
68.26000 -1.022
68.28000 -0.876
68.30000 0.695
68.32000 1.568
68.34000 2.155
68.36000 0.551
68.38000 -0.834
68.40000 -2.137
68.42000 -1.328
68.44000 -0.216
68.46000 1.202
68.48000 0.128
68.50000 -0.329
68.52000 0.022
68.54000 0.762
68.56000 -0.126
68.58000 -0.580
68.60000 -1.356
68.62000 -0.752
68.64000 -1.082
68.66000 0.321
68.68000 -0.583
68.70000 0.012
68.72000 2.553
68.74000 0.460
68.76000 -0.917
68.78000 0.257
68.80000 0.840
68.82000 1.039
68.84000 0.431
68.86000 0.893
68.88000 1.035
68.90000 1.294
68.92000 0.356
68.94000 0.762
68.96000 1.342
68.98000 -0.173
69.00000 -0.759
69.02000 -0.072
69.04000 -0.557
69.06000 2.039
69.08000 1.905
69.10000 0.560
69.12000 -0.728
69.14000 1.948
69.16000 3.718
69.18000 -0.469
69.20000 0.951
69.22000 4.383
69.24000 0.584
69.26000 -0.276
69.28000 0.945
69.30000 4.065
69.32000 1.874
69.34000 -1.696
69.36000 -2.071
69.38000 -1.843
69.40000 0.904
69.42000 -0.807
69.44000 0.201
69.46000 1.763
69.48000 -0.330
69.50000 1.492
69.52000 0.442
69.54000 1.185
69.56000 1.611
69.58000 -0.617
69.60000 -0.390
69.62000 0.620
69.64000 3.183
69.66000 1.543
69.68000 1.053
69.70000 2.183
69.72000 1.880
69.74000 1.057
69.76000 3.157
69.78000 1.552
69.80000 1.376
69.82000 -0.454
69.84000 -0.834
69.86000 -1.887
69.88000 -0.531
69.90000 3.384
69.92000 -0.504
69.94000 -0.392
69.96000 -0.194
69.98000 0.404
70.00000 1.489
70.02000 -1.153
70.04000 0.192
70.06000 0.149
70.08000 1.069
70.10000 3.108
70.12000 3.302
70.14000 1.969
70.16000 2.560
70.18000 -0.181
70.20000 0.951
70.22000 2.935
70.24000 0.383
70.26000 -0.777
70.28000 0.756
70.30000 1.909
70.32000 -0.748
70.34000 -1.402
70.36000 -1.740
70.38000 -1.247
70.40000 -1.784
70.42000 1.429
70.44000 1.052
70.46000 0.894
70.48000 0.043
70.50000 -0.872
70.52000 -0.930
70.54000 -0.483
70.56000 0.714
70.58000 -1.228
70.60000 -2.061
70.62000 -1.759
70.64000 -0.219
70.66000 1.920
70.68000 0.845
70.70000 0.732
70.72000 -0.121
70.74000 -0.582
70.76000 1.677
70.78000 0.115
70.80000 0.938
70.82000 1.307
70.84000 2.410
70.86000 3.597
70.88000 1.803
70.90000 -1.213
70.92000 -2.046
70.94000 -1.686
70.96000 0.138
70.98000 0.840
71.00000 -0.762
71.02000 0.393
71.04000 -0.879
71.06000 1.160
71.08000 1.510
71.10000 -0.737
71.12000 2.295
71.14000 3.715
71.16000 2.525
71.18000 1.506
71.20000 1.061
71.22000 3.103
71.24000 2.031
71.26000 0.362
71.28000 1.197
71.30000 0.752
71.32000 1.403
71.34000 3.282
71.36000 3.203
71.38000 4.120
71.40000 6.573
71.42000 3.564
71.44000 2.887
71.46000 2.088
71.48000 3.005
71.50000 3.239
71.52000 3.638
71.54000 1.078
71.56000 2.673
71.58000 1.104
71.60000 1.966
71.62000 1.690
71.64000 1.499
71.66000 1.557
71.68000 0.571
71.70000 2.820
71.72000 4.668
71.74000 4.779
71.76000 1.537
71.78000 2.753
71.80000 1.856
71.82000 2.031
71.84000 1.325
71.86000 -1.953
71.88000 1.177
71.90000 1.914
71.92000 1.823
71.94000 0.586
71.96000 1.224
71.98000 3.349
72.00000 4.631
72.02000 1.558
72.04000 1.201
72.06000 4.766
72.08000 4.245
72.10000 3.241
72.12000 0.422
72.14000 -1.492
72.16000 0.806
72.18000 6.223
72.20000 6.024
72.22000 4.505
72.24000 1.131
72.26000 2.938
72.28000 4.538
72.30000 3.265
72.32000 3.023
72.34000 4.956
72.36000 3.621
72.38000 4.535
72.40000 3.564
72.42000 2.044
72.44000 3.668
72.46000 2.594
72.48000 2.194
72.50000 2.349
72.52000 1.591
72.54000 0.770
72.56000 1.733
72.58000 4.332
72.60000 3.867
72.62000 1.562
72.64000 2.013
72.66000 1.175
72.68000 1.084
72.70000 0.993
72.72000 0.559
72.74000 2.330
72.76000 4.089
72.78000 2.840
72.80000 2.601
72.82000 2.373
72.84000 3.388
72.86000 5.199
72.88000 4.445
72.90000 1.357
72.92000 0.084
72.94000 2.588
72.96000 3.897
72.98000 3.934
73.00000 5.719
73.02000 2.194
73.04000 0.994
73.06000 0.827
73.08000 1.234
73.10000 0.412
73.12000 1.481
73.14000 3.209
73.16000 1.617
73.18000 0.359
73.20000 -1.918
73.22000 0.156
73.24000 3.537
73.26000 2.649
73.28000 0.985
73.30000 1.013
73.32000 1.265
73.34000 4.049
73.36000 4.330
73.38000 2.906
73.40000 2.028
73.42000 -1.116
73.44000 1.476
73.46000 2.431
73.48000 -1.277
73.50000 2.196
73.52000 3.183
73.54000 -0.130
73.56000 0.874
73.58000 0.644
73.60000 2.610
73.62000 4.770
73.64000 4.297
73.66000 1.749
73.68000 1.254
73.70000 -0.802
73.72000 0.953
73.74000 2.647
73.76000 3.653
73.78000 2.738
73.80000 1.725
73.82000 2.053
73.84000 1.650
73.86000 2.337
73.88000 2.505
73.90000 2.734
73.92000 1.177
73.94000 2.346
73.96000 1.406
73.98000 7.472
74.00000 6.718
74.02000 1.252
74.04000 -1.482
74.06000 -0.492
74.08000 2.955
74.10000 2.436
74.12000 2.567
74.14000 4.309
74.16000 2.805
74.18000 0.676
74.20000 -1.921
74.22000 -0.125
74.24000 1.928
74.26000 2.201
74.28000 0.154
74.30000 -0.137
74.32000 3.138
74.34000 2.894
74.36000 0.746
74.38000 2.983
74.40000 2.194
74.42000 0.654
74.44000 -1.038
74.46000 0.138
74.48000 1.310
74.50000 -0.584
74.52000 -0.790
74.54000 1.453
74.56000 1.981
74.58000 0.407
74.60000 1.853
74.62000 3.496
74.64000 4.474
74.66000 2.564
74.68000 5.402
74.70000 4.470
74.72000 2.288
74.74000 0.466
74.76000 -0.008
74.78000 1.223
74.80000 -0.278
74.82000 -1.956
74.84000 -1.434
74.86000 0.166
74.88000 -0.773
74.90000 -0.630
74.92000 -0.390
74.94000 0.398
74.96000 -0.826
74.98000 0.620
75.00000 2.757
75.02000 2.896
75.04000 0.734
75.06000 1.457
75.08000 0.223
75.10000 -0.407
75.12000 -0.413
75.14000 0.405
75.16000 -1.336
75.18000 -1.548
75.20000 1.370
75.22000 3.878
75.24000 2.715
75.26000 1.165
75.28000 2.721
75.30000 5.458
75.32000 2.788
75.34000 2.384
75.36000 2.441
75.38000 2.305
75.40000 1.509
75.42000 -0.869
75.44000 -0.885
75.46000 0.099
75.48000 0.941
75.50000 0.742
75.52000 3.089
75.54000 0.321
75.56000 -0.676
75.58000 -1.958
75.60000 0.175
75.62000 3.476
75.64000 4.810
75.66000 0.975
75.68000 -0.340
75.70000 0.958
75.72000 1.131
75.74000 4.778
75.76000 3.465
75.78000 2.762
75.80000 -0.555
75.82000 1.332
75.84000 2.160
75.86000 3.137
75.88000 1.593
75.90000 3.786
75.92000 5.084
75.94000 4.256
75.96000 0.830
75.98000 -0.870
76.00000 0.883
76.02000 2.329
76.04000 3.831
76.06000 3.452
76.08000 1.597
76.10000 -0.819
76.12000 0.215
76.14000 2.143
76.16000 0.683
76.18000 0.018
76.20000 2.451
76.22000 0.703
76.24000 2.077
76.26000 1.109
76.28000 0.512
76.30000 2.048
76.32000 3.969
76.34000 0.101
76.36000 3.880
76.38000 2.245
76.40000 0.467
76.42000 2.771
76.44000 2.724
76.46000 2.724
76.48000 1.839
76.50000 0.743
76.52000 0.485
76.54000 -0.880
76.56000 -1.754
76.58000 1.110
76.60000 1.382
76.62000 2.696
76.64000 2.239
76.66000 2.745
76.68000 2.902
76.70000 -1.321
76.72000 -1.224
76.74000 0.339
76.76000 1.808
76.78000 2.601
76.80000 3.634
76.82000 2.782
76.84000 2.803
76.86000 4.426
76.88000 2.891
76.90000 5.026
76.92000 5.197
76.94000 0.256
76.96000 -1.922
76.98000 0.856
77.00000 8.102
77.02000 5.670
77.04000 1.380
77.06000 3.930
77.08000 2.268
77.10000 1.575
77.12000 1.965
77.14000 3.901
77.16000 8.280
77.18000 6.812
77.20000 2.907
77.22000 3.891
77.24000 5.209
77.26000 4.479
77.28000 3.614
77.30000 3.838
77.32000 5.471
77.34000 3.104
77.36000 3.117
77.38000 3.050
77.40000 3.808
77.42000 2.530
77.44000 3.613
77.46000 1.465
77.48000 5.625
77.50000 6.570
77.52000 4.709
77.54000 4.672
77.56000 -0.437
77.58000 -0.019
77.60000 1.019
77.62000 3.990
77.64000 5.880
77.66000 4.477
77.68000 4.059
77.70000 4.603
77.72000 2.434
77.74000 0.452
77.76000 2.357
77.78000 2.297
77.80000 2.113
77.82000 6.563
77.84000 6.237
77.86000 3.672
77.88000 5.079
77.90000 6.157
77.92000 1.606
77.94000 -0.111
77.96000 -1.978
77.98000 0.850
78.00000 3.621
78.02000 5.958
78.04000 6.750
78.06000 0.959
78.08000 -1.063
78.10000 1.170
78.12000 3.539
78.14000 1.424
78.16000 1.434
78.18000 6.195
78.20000 1.925
78.22000 0.829
78.24000 0.212
78.26000 -0.854
78.28000 -1.096
78.30000 1.600
78.32000 1.514
78.34000 0.977
78.36000 0.776
78.38000 3.052
78.40000 3.099
78.42000 -1.022
78.44000 0.207
78.46000 -0.125
78.48000 -0.628
78.50000 -0.223
78.52000 -0.867
78.54000 -2.010
78.56000 -0.865
78.58000 1.115
78.60000 2.927
78.62000 1.186
78.64000 0.902
78.66000 4.690
78.68000 2.397
78.70000 1.934
78.72000 3.899
78.74000 2.620
78.76000 0.977
78.78000 -1.572
78.80000 -0.364
78.82000 -0.739
78.84000 1.323
78.86000 3.053
78.88000 -0.042
78.90000 0.791
78.92000 3.392
78.94000 0.277
78.96000 0.062
78.98000 -1.045
79.00000 3.437
79.02000 1.722
79.04000 0.383
79.06000 1.238
79.08000 4.164
79.10000 4.685
79.12000 -0.262
79.14000 0.962
79.16000 2.212
79.18000 0.571
79.20000 0.506
79.22000 5.236
79.24000 1.878
79.26000 3.015
79.28000 4.360
79.30000 0.450
79.32000 -2.117
79.34000 0.094
79.36000 5.161
79.38000 2.662
79.40000 2.951
79.42000 3.240
79.44000 5.493
79.46000 1.976
79.48000 1.809
79.50000 3.605
79.52000 3.159
79.54000 3.559
79.56000 2.107
79.58000 1.682
79.60000 4.428
79.62000 2.836
79.64000 2.713
79.66000 4.387
79.68000 4.627
79.70000 7.857
79.72000 12.449
79.74000 9.096
79.76000 3.119
79.78000 6.042
79.80000 3.395
79.82000 5.905
79.84000 5.618
79.86000 7.649
79.88000 7.037
79.90000 4.588
79.92000 5.640
79.94000 6.373
79.96000 7.515
79.98000 9.014
80.00000 12.394
80.02000 8.527
80.04000 6.956
80.06000 12.506
80.08000 11.366
80.10000 10.102
80.12000 12.412
80.14000 10.560
80.16000 6.936
80.18000 8.896
80.20000 14.247
80.22000 14.971
80.24000 8.893
80.26000 11.028
80.28000 12.367
80.30000 13.787
80.32000 11.299
80.34000 13.442
80.36000 18.824
80.38000 17.377
80.40000 13.475
80.42000 16.346
80.44000 15.777
80.46000 13.018
80.48000 18.390
80.50000 17.998
80.52000 18.406
80.54000 19.344
80.56000 19.730
80.58000 17.240
80.60000 18.193
80.62000 19.893
80.64000 17.380
80.66000 16.077
80.68000 18.333
80.70000 18.870
80.72000 19.092
80.74000 19.782
80.76000 20.350
80.78000 16.014
80.80000 16.523
80.82000 20.623
80.84000 18.454
80.86000 19.386
80.88000 18.800
80.90000 16.595
80.92000 15.621
80.94000 14.494
80.96000 15.749
80.98000 13.813
81.00000 13.124
81.02000 13.068
81.04000 14.919
81.06000 11.963
81.08000 16.236
81.10000 14.898
81.12000 16.438
81.14000 14.253
81.16000 16.548
81.18000 15.635
81.20000 12.150
81.22000 10.161
81.24000 10.155
81.26000 10.364
81.28000 8.843
81.30000 9.221
81.32000 10.092
81.34000 11.249
81.36000 5.076
81.38000 8.458
81.40000 8.947
81.42000 7.890
81.44000 5.810
81.46000 5.569
81.48000 8.686
81.50000 9.948
81.52000 7.047
81.54000 4.400
81.56000 5.077
81.58000 5.247
81.60000 4.690
81.62000 4.460
81.64000 5.764
81.66000 4.045
81.68000 2.651
81.70000 5.230
81.72000 5.245
81.74000 1.192
81.76000 2.774
81.78000 4.649
81.80000 6.697
81.82000 2.905
81.84000 -2.185
81.86000 -1.623
81.88000 2.577
81.90000 6.621
81.92000 3.076
81.94000 0.429
81.96000 -1.609
81.98000 -0.852
82.00000 -1.219
82.02000 -1.642
82.04000 0.318
82.06000 2.134
82.08000 -0.124
82.10000 0.709
82.12000 2.699
82.14000 2.379
82.16000 2.499
82.18000 -1.231
82.20000 -2.140
82.22000 -0.678
82.24000 -0.198
82.26000 0.662
82.28000 -1.755
82.30000 0.376
82.32000 -1.335
82.34000 -0.133
82.36000 -1.523
82.38000 -2.141
82.40000 -0.432
82.42000 -0.594
82.44000 -0.849
82.46000 0.606
82.48000 0.854
82.50000 -0.920
82.52000 0.457
82.54000 1.201
82.56000 -1.141
82.58000 -0.575
82.60000 -1.752
82.62000 0.575
82.64000 1.719
82.66000 0.762
82.68000 1.751
82.70000 0.931
82.72000 -0.599
82.74000 0.992
82.76000 0.719
82.78000 2.476
82.80000 4.000
82.82000 -1.983
82.84000 -0.216
82.86000 -1.429
82.88000 -1.952
82.90000 -0.049
82.92000 0.075
82.94000 1.934
82.96000 6.146
82.98000 10.295
83.00000 6.556
83.02000 2.608
83.04000 4.124
83.06000 -2.174
83.08000 0.223
83.10000 4.687
83.12000 2.189
83.14000 2.021
83.16000 3.632
83.18000 3.060
83.20000 6.661
83.22000 4.094
83.24000 2.596
83.26000 4.131
83.28000 3.757
83.30000 4.452
83.32000 5.445
83.34000 6.674
83.36000 5.474
83.38000 5.957
83.40000 3.054
83.42000 3.326
83.44000 4.878
83.46000 4.779
83.48000 2.627
83.50000 6.866
83.52000 9.586
83.54000 8.536
83.56000 8.537
83.58000 7.369
83.60000 7.997
83.62000 5.593
83.64000 6.636
83.66000 8.043
83.68000 7.200
83.70000 10.267
83.72000 10.226
83.74000 9.663
83.76000 11.886
83.78000 15.507
83.80000 14.250
83.82000 11.666
83.84000 13.437
83.86000 13.845
83.88000 14.092
83.90000 11.793
83.92000 13.473
83.94000 13.624
83.96000 14.702
83.98000 13.621
84.00000 12.005
84.02000 17.567
84.04000 18.647
84.06000 19.410
84.08000 20.815
84.10000 21.047
84.12000 21.406
84.14000 22.499
84.16000 26.617
84.18000 26.908
84.20000 26.681
84.22000 23.717
84.24000 23.896
84.26000 23.985
84.28000 27.591
84.30000 30.818
84.32000 30.414
84.34000 32.530
84.36000 33.741
84.38000 31.863
84.40000 33.904
84.42000 32.941
84.44000 33.404
84.46000 29.949
84.48000 32.863
84.50000 34.004
84.52000 31.974
84.54000 31.497
84.56000 35.269
84.58000 35.130
84.60000 34.218
84.62000 35.088
84.64000 32.271
84.66000 27.040
84.68000 30.149
84.70000 34.885
84.72000 31.283
84.74000 30.185
84.76000 31.358
84.78000 30.013
84.80000 33.436
84.82000 30.989
84.84000 28.780
84.86000 27.100
84.88000 28.278
84.90000 28.594
84.92000 29.196
84.94000 26.408
84.96000 23.374
84.98000 24.867
85.00000 24.630
85.02000 24.962
85.04000 21.210
85.06000 22.206
85.08000 18.127
85.10000 21.072
85.12000 17.454
85.14000 15.762
85.16000 15.987
85.18000 17.542
85.20000 17.861
85.22000 16.943
85.24000 14.901
85.26000 14.752
85.28000 13.576
85.30000 10.116
85.32000 8.253
85.34000 4.177
85.36000 5.527
85.38000 5.906
85.40000 7.836
85.42000 7.347
85.44000 8.621
85.46000 8.120
85.48000 6.970
85.50000 7.297
85.52000 5.997
85.54000 1.822
85.56000 2.588
85.58000 4.153
85.60000 4.258
85.62000 4.447
85.64000 6.228
85.66000 6.582
85.68000 3.384
85.70000 2.768
85.72000 6.986
85.74000 5.182
85.76000 5.445
85.78000 3.428
85.80000 3.639
85.82000 2.643
85.84000 3.315
85.86000 3.508
85.88000 1.709
85.90000 2.317
85.92000 4.411
85.94000 3.896
85.96000 0.721
85.98000 4.063
86.00000 1.280
86.02000 -2.000
86.04000 -1.840
86.06000 2.687
86.08000 2.754
86.10000 0.317
86.12000 0.531
86.14000 0.640
86.16000 1.432
86.18000 2.726
86.20000 2.492
86.22000 5.109
86.24000 2.506
86.26000 2.659
86.28000 3.056
86.30000 3.021
86.32000 4.015
86.34000 1.065
86.36000 1.921
86.38000 2.288
86.40000 2.844
86.42000 4.975
86.44000 6.081
86.46000 4.827
86.48000 0.676
86.50000 -1.916
86.52000 0.662
86.54000 1.119
86.56000 -0.144
86.58000 0.388
86.60000 1.915
86.62000 3.853
86.64000 6.315
86.66000 3.244
86.68000 1.632
86.70000 1.225
86.72000 0.808
86.74000 1.320
86.76000 4.537
86.78000 0.720
86.80000 2.425
86.82000 2.242
86.84000 2.629
86.86000 1.462
86.88000 0.739
86.90000 -0.994
86.92000 -1.870
86.94000 -1.188
86.96000 2.289
86.98000 2.546
87.00000 0.367
87.02000 1.783
87.04000 3.668
87.06000 4.460
87.08000 3.614
87.10000 4.455
87.12000 1.116
87.14000 2.131
87.16000 3.568
87.18000 4.178
87.20000 1.917
87.22000 5.026
87.24000 4.387
87.26000 -0.335
87.28000 1.018
87.30000 -0.013
87.32000 3.792
87.34000 3.484
87.36000 4.016
87.38000 5.192
87.40000 6.154
87.42000 3.966
87.44000 5.315
87.46000 3.895
87.48000 3.326
87.50000 -0.281
87.52000 0.595
87.54000 1.902
87.56000 1.697
87.58000 0.842
87.60000 0.751
87.62000 1.596
87.64000 3.297
87.66000 0.714
87.68000 -0.768
87.70000 0.171
87.72000 1.793
87.74000 1.224
87.76000 2.143
87.78000 3.623
87.80000 5.431
87.82000 7.575
87.84000 3.949
87.86000 3.745
87.88000 4.548
87.90000 2.489
87.92000 2.518
87.94000 1.786
87.96000 3.129
87.98000 5.704
88.00000 2.333
88.02000 2.533
88.04000 2.278
88.06000 -1.810
88.08000 1.554
88.10000 1.504
88.12000 1.576
88.14000 2.609
88.16000 3.324
88.18000 0.706
88.20000 -0.807
88.22000 4.033
88.24000 5.293
88.26000 0.709
88.28000 -1.811
88.30000 3.416
88.32000 4.188
88.34000 5.058
88.36000 5.427
88.38000 4.462
88.40000 4.576
88.42000 3.961
88.44000 4.519
88.46000 5.404
88.48000 4.109
88.50000 1.212
88.52000 0.987
88.54000 0.199
88.56000 3.888
88.58000 5.782
88.60000 2.250
88.62000 2.978
88.64000 1.672
88.66000 3.975
88.68000 3.189
88.70000 4.072
88.72000 1.809
88.74000 2.423
88.76000 6.225
88.78000 4.363
88.80000 1.853
88.82000 1.656
88.84000 2.716
88.86000 3.227
88.88000 1.800
88.90000 2.514
88.92000 5.898
88.94000 6.516
88.96000 3.977
88.98000 1.585
89.00000 0.887
89.02000 -1.807
89.04000 -1.792
89.06000 2.365
89.08000 6.016
89.10000 4.070
89.12000 2.335
89.14000 4.831
89.16000 1.730
89.18000 -0.768
89.20000 -1.551
89.22000 1.599
89.24000 1.051
89.26000 2.718
89.28000 7.300
89.30000 3.185
89.32000 4.472
89.34000 4.074
89.36000 2.729
89.38000 4.866
89.40000 6.199
89.42000 2.439
89.44000 1.800
89.46000 1.036
89.48000 1.949
89.50000 1.388
89.52000 0.903
89.54000 2.420
89.56000 -1.109
89.58000 -1.801
89.60000 5.062
89.62000 1.665
89.64000 1.305
89.66000 1.239
89.68000 0.685
89.70000 -0.408
89.72000 0.503
89.74000 2.310
89.76000 1.278
89.78000 0.239
89.80000 -0.492
89.82000 -1.604
89.84000 -1.446
89.86000 2.669
89.88000 0.924
89.90000 0.160
89.92000 -1.497
89.94000 0.117
89.96000 1.343
89.98000 1.957
90.00000 3.012
90.02000 2.658
90.04000 1.630
90.06000 1.468
90.08000 0.690
90.10000 1.510
90.12000 0.164
90.14000 1.447
90.16000 1.588
90.18000 2.309
90.20000 2.088
90.22000 -1.814
90.24000 1.342
90.26000 2.794
90.28000 2.278
90.30000 5.252
90.32000 5.147
90.34000 3.684
90.36000 4.349
90.38000 3.926
90.40000 2.043
90.42000 1.409
90.44000 2.651
90.46000 1.725
90.48000 0.609
90.50000 0.722
90.52000 -1.302
90.54000 -1.809
90.56000 2.007
90.58000 3.067
90.60000 4.252
90.62000 3.888
90.64000 1.547
90.66000 2.580
90.68000 1.621
90.70000 2.662
90.72000 1.496
90.74000 0.061
90.76000 1.215
90.78000 1.253
90.80000 0.763
90.82000 0.560
90.84000 1.390
90.86000 1.099
90.88000 0.685
90.90000 1.618
90.92000 -0.224
90.94000 -0.647
90.96000 1.728
90.98000 -1.348
91.00000 0.042
91.02000 1.599
91.04000 2.115
91.06000 1.372
91.08000 1.854
91.10000 1.221
91.12000 -1.469
91.14000 0.012
91.16000 0.597
91.18000 4.105
91.20000 4.253
91.22000 2.164
91.24000 0.732
91.26000 4.111
91.28000 6.021
91.30000 3.157
91.32000 1.635
91.34000 0.881
91.36000 4.018
91.38000 3.528
91.40000 2.890
91.42000 3.759
91.44000 7.128
91.46000 5.268
91.48000 3.335
91.50000 3.264
91.52000 5.969
91.54000 5.598
91.56000 2.783
91.58000 2.072
91.60000 1.987
91.62000 3.568
91.64000 2.258
91.66000 3.337
91.68000 1.511
91.70000 4.347
91.72000 0.861
91.74000 -1.253
91.76000 -1.283
91.78000 -1.805
91.80000 -0.425
91.82000 1.231
91.84000 2.437
91.86000 6.374
91.88000 4.289
91.90000 0.662
91.92000 -0.529
91.94000 1.783
91.96000 3.306
91.98000 4.461
92.00000 3.785
92.02000 0.507
92.04000 3.079
92.06000 1.319
92.08000 1.866
92.10000 2.583
92.12000 -0.979
92.14000 0.782
92.16000 1.952
92.18000 3.516
92.20000 6.123
92.22000 5.329
92.24000 4.126
92.26000 4.434
92.28000 4.128
92.30000 5.869
92.32000 4.733
92.34000 2.483
92.36000 3.187
92.38000 1.144
92.40000 -0.948
92.42000 -1.809
92.44000 1.731
92.46000 1.320
92.48000 0.713
92.50000 1.791
92.52000 4.904
92.54000 3.472
92.56000 4.261
92.58000 4.468
92.60000 0.965
92.62000 0.825
92.64000 0.770
92.66000 3.223
92.68000 3.024
92.70000 6.565
92.72000 4.690
92.74000 3.635
92.76000 3.483
92.78000 4.183
92.80000 3.235
92.82000 -1.161
92.84000 2.030
92.86000 3.535
92.88000 2.332
92.90000 4.699
92.92000 4.840
92.94000 2.201
92.96000 1.601
92.98000 4.985
93.00000 2.730
93.02000 2.147
93.04000 4.601
93.06000 1.542
93.08000 0.489
93.10000 1.987
93.12000 2.447
93.14000 3.821
93.16000 3.527
93.18000 3.276
93.20000 1.606
93.22000 2.230
93.24000 3.091
93.26000 -0.114
93.28000 -0.508
93.30000 -0.467
93.32000 1.746
93.34000 -0.327
93.36000 0.108
93.38000 2.997
93.40000 1.919
93.42000 1.604
93.44000 -0.248
93.46000 0.998
93.48000 3.186
93.50000 2.051
93.52000 0.972
93.54000 2.439
93.56000 2.362
93.58000 3.392
93.60000 3.848
93.62000 0.331
93.64000 -1.365
93.66000 -1.813
93.68000 -1.036
93.70000 -0.785
93.72000 -1.859
93.74000 2.276
93.76000 1.315
93.78000 -1.236
93.80000 0.552
93.82000 2.325
93.84000 1.563
93.86000 0.668
93.88000 2.875
93.90000 4.677
93.92000 3.620
93.94000 0.024
93.96000 1.522
93.98000 -0.371
94.00000 2.111
94.02000 2.683
94.04000 4.246
94.06000 0.816
94.08000 -0.413
94.10000 0.017
94.12000 0.244
94.14000 -1.491
94.16000 -1.114
94.18000 0.185
94.20000 0.311
94.22000 3.072
94.24000 2.034
94.26000 -0.525
94.28000 -0.130
94.30000 0.679
94.32000 0.685
94.34000 1.805
94.36000 0.993
94.38000 1.068
94.40000 1.090
94.42000 3.617
94.44000 6.376
94.46000 2.049
94.48000 -1.813
94.50000 -1.882
94.52000 -1.037
94.54000 -1.467
94.56000 0.957
94.58000 2.126
94.60000 0.368
94.62000 0.153
94.64000 -0.278
94.66000 4.068
94.68000 4.095
94.70000 2.289
94.72000 2.413
94.74000 3.987
94.76000 2.292
94.78000 -0.496
94.80000 1.551
94.82000 -0.275
94.84000 -0.713
94.86000 -0.741
94.88000 2.558
94.90000 2.347
94.92000 4.793
94.94000 1.598
94.96000 -0.374
94.98000 0.927
95.00000 2.402
95.02000 1.372
95.04000 -0.729
95.06000 -1.244
95.08000 1.067
95.10000 -1.886
95.12000 -1.083
95.14000 -0.253
95.16000 1.417
95.18000 -1.213
95.20000 -0.062
95.22000 2.630
95.24000 0.596
95.26000 0.161
95.28000 3.149
95.30000 4.437
95.32000 4.324
95.34000 4.381
95.36000 3.196
95.38000 0.855
95.40000 1.096
95.42000 3.706
95.44000 2.986
95.46000 3.131
95.48000 7.898
95.50000 5.640
95.52000 1.645
95.54000 1.248
95.56000 2.442
95.58000 1.623
95.60000 -0.214
95.62000 3.687
95.64000 1.646
95.66000 3.237
95.68000 3.680
95.70000 1.514
95.72000 2.517
95.74000 0.159
95.76000 -0.586
95.78000 -1.209
95.80000 -1.637
95.82000 -0.364
95.84000 0.217
95.86000 0.260
95.88000 2.285
95.90000 -0.999
95.92000 2.493
95.94000 -1.851
95.96000 0.083
95.98000 4.462
96.00000 3.076
96.02000 2.125
96.04000 2.255
96.06000 5.233
96.08000 3.995
96.10000 1.437
96.12000 1.849
96.14000 -0.827
96.16000 0.209
96.18000 -1.196
96.20000 -1.732
96.22000 0.413
96.24000 6.771
96.26000 3.696
96.28000 1.002
96.30000 1.494
96.32000 1.038
96.34000 1.742
96.36000 4.079
96.38000 5.447
96.40000 5.425
96.42000 2.131
96.44000 0.449
96.46000 -1.764
96.48000 0.569
96.50000 2.925
96.52000 0.385
96.54000 2.674
96.56000 2.393
96.58000 2.349
96.60000 -1.053
96.62000 -1.837
96.64000 0.548
96.66000 1.940
96.68000 1.733
96.70000 1.573
96.72000 2.571
96.74000 3.494
96.76000 7.006
96.78000 1.860
96.80000 -0.841
96.82000 4.489
96.84000 4.942
96.86000 3.138
96.88000 2.805
96.90000 6.480
96.92000 5.412
96.94000 6.041
96.96000 6.155
96.98000 2.808
97.00000 2.855
97.02000 7.614
97.04000 3.884
97.06000 2.802
97.08000 7.560
97.10000 5.701
97.12000 0.080
97.14000 0.492
97.16000 3.288
97.18000 6.759
97.20000 10.112
97.22000 8.922
97.24000 7.264
97.26000 3.087
97.28000 1.802
97.30000 -1.792
97.32000 3.573
97.34000 4.630
97.36000 4.785
97.38000 2.912
97.40000 4.217
97.42000 9.014
97.44000 5.344
97.46000 3.022
97.48000 2.885
97.50000 3.750
97.52000 4.610
97.54000 7.243
97.56000 7.341
97.58000 0.692
97.60000 1.566
97.62000 4.820
97.64000 7.238
97.66000 2.239
97.68000 6.081
97.70000 3.378
97.72000 3.179
97.74000 4.119
97.76000 3.412
97.78000 -0.265
97.80000 -1.740
97.82000 1.487
97.84000 5.253
97.86000 9.753
97.88000 8.126
97.90000 9.332
97.92000 10.103
97.94000 7.497
97.96000 3.954
97.98000 2.526
98.00000 5.613
98.02000 7.503
98.04000 7.685
98.06000 6.725
98.08000 3.311
98.10000 2.307
98.12000 5.333
98.14000 4.635
98.16000 5.993
98.18000 6.133
98.20000 3.577
98.22000 0.890
98.24000 1.716
98.26000 5.404
98.28000 5.925
98.30000 10.410
98.32000 8.512
98.34000 6.163
98.36000 3.427
98.38000 2.822
98.40000 1.132
98.42000 -1.760
98.44000 3.422
98.46000 2.584
98.48000 4.453
98.50000 7.984
98.52000 6.113
98.54000 5.166
98.56000 3.920
98.58000 6.857
98.60000 2.705
98.62000 2.044
98.64000 4.889
98.66000 6.708
98.68000 9.623
98.70000 5.080
98.72000 7.003
98.74000 7.783
98.76000 8.396
98.78000 5.754
98.80000 5.798
98.82000 2.999
98.84000 1.143
98.86000 6.808
98.88000 0.884
98.90000 0.210
98.92000 6.139
98.94000 7.646
98.96000 8.868
98.98000 8.968
99.00000 8.859
99.02000 1.123
99.04000 2.055
99.06000 1.709
99.08000 1.373
99.10000 2.686
99.12000 9.383
99.14000 11.027
99.16000 11.743
99.18000 5.084
99.20000 5.344
99.22000 2.361
99.24000 3.006
99.26000 1.130
99.28000 -1.789
99.30000 -1.353
99.32000 1.004
99.34000 3.404
99.36000 1.575
99.38000 -1.420
99.40000 0.581
99.42000 1.318
99.44000 0.619
99.46000 2.088
99.48000 -1.122
99.50000 1.174
99.52000 7.020
99.54000 5.956
99.56000 -1.817
99.58000 2.847
99.60000 7.386
99.62000 14.393
99.64000 7.871
99.66000 4.939
99.68000 0.040
99.70000 -1.320
99.72000 3.467
99.74000 8.365
99.76000 9.936
99.78000 4.433
99.80000 2.395
99.82000 4.623
99.84000 0.409
99.86000 -0.319
99.88000 -1.843
99.90000 5.643
99.92000 6.412
99.94000 12.505
99.96000 5.575
99.98000 0.000
