'Id: "0011388" Comment: "Integrate frame 0011388_Au-Ir-Rh_Rh-rich_XRD-Mapping-305-0000.gfrmwith cursor Wedge Cursor #5" Operator: "B?rgel" Anode: "Cu" Wavelength: "1.5406" Scantype: "2Theta (TwoTheta)" TimePerStep: "1" X: "9" Y: "31.5" Z: "5.95" 
10.00000 0.000
10.02000 -0.849
10.04000 -4.171
10.06000 3.651
10.08000 -3.052
10.10000 12.617
10.12000 3.374
10.14000 -4.129
10.16000 0.624
10.18000 -4.118
10.20000 -4.019
10.22000 4.213
10.24000 -1.331
10.26000 10.292
10.28000 8.275
10.30000 15.778
10.32000 16.992
10.34000 13.347
10.36000 9.986
10.38000 4.180
10.40000 2.690
10.42000 11.190
10.44000 10.422
10.46000 9.242
10.48000 19.424
10.50000 18.643
10.52000 22.525
10.54000 19.857
10.56000 12.618
10.58000 6.741
10.60000 8.450
10.62000 10.083
10.64000 2.889
10.66000 8.234
10.68000 7.128
10.70000 10.591
10.72000 15.616
10.74000 13.650
10.76000 17.832
10.78000 11.457
10.80000 9.109
10.82000 7.885
10.84000 6.866
10.86000 13.081
10.88000 19.945
10.90000 31.196
10.92000 11.380
10.94000 3.775
10.96000 4.326
10.98000 10.431
11.00000 11.192
11.02000 12.441
11.04000 9.353
11.06000 16.979
11.08000 28.807
11.10000 20.303
11.12000 5.968
11.14000 0.463
11.16000 7.978
11.18000 11.183
11.20000 16.400
11.22000 23.085
11.24000 17.877
11.26000 15.000
11.28000 17.661
11.30000 18.637
11.32000 20.944
11.34000 17.101
11.36000 15.103
11.38000 6.718
11.40000 14.386
11.42000 17.907
11.44000 21.318
11.46000 15.027
11.48000 14.780
11.50000 10.875
11.52000 6.531
11.54000 11.952
11.56000 19.825
11.58000 22.455
11.60000 15.016
11.62000 4.098
11.64000 8.306
11.66000 3.234
11.68000 9.538
11.70000 7.754
11.72000 6.063
11.74000 4.202
11.76000 4.998
11.78000 4.449
11.80000 11.154
11.82000 14.880
11.84000 16.216
11.86000 15.305
11.88000 8.588
11.90000 5.440
11.92000 20.730
11.94000 25.118
11.96000 13.549
11.98000 8.197
12.00000 4.177
12.02000 9.251
12.04000 17.872
12.06000 11.969
12.08000 1.358
12.10000 5.819
12.12000 12.127
12.14000 17.207
12.16000 15.310
12.18000 12.256
12.20000 14.101
12.22000 15.303
12.24000 12.591
12.26000 17.252
12.28000 15.638
12.30000 8.642
12.32000 11.144
12.34000 6.514
12.36000 4.716
12.38000 -2.407
12.40000 6.797
12.42000 3.761
12.44000 10.276
12.46000 16.110
12.48000 10.516
12.50000 15.954
12.52000 13.567
12.54000 14.507
12.56000 9.753
12.58000 13.271
12.60000 11.437
12.62000 15.022
12.64000 24.122
12.66000 22.823
12.68000 16.132
12.70000 20.681
12.72000 15.160
12.74000 14.177
12.76000 10.090
12.78000 13.343
12.80000 16.808
12.82000 10.634
12.84000 7.344
12.86000 18.115
12.88000 11.442
12.90000 5.438
12.92000 10.761
12.94000 12.969
12.96000 12.679
12.98000 6.750
13.00000 11.414
13.02000 6.570
13.04000 14.729
13.06000 18.404
13.08000 10.281
13.10000 12.634
13.12000 7.121
13.14000 6.742
13.16000 11.010
13.18000 10.248
13.20000 11.369
13.22000 6.684
13.24000 9.344
13.26000 10.848
13.28000 16.772
13.30000 24.256
13.32000 16.640
13.34000 7.561
13.36000 8.669
13.38000 12.689
13.40000 18.718
13.42000 20.514
13.44000 12.053
13.46000 11.511
13.48000 6.001
13.50000 8.640
13.52000 10.290
13.54000 13.567
13.56000 8.359
13.58000 9.576
13.60000 16.396
13.62000 11.516
13.64000 10.614
13.66000 3.113
13.68000 6.949
13.70000 12.737
13.72000 19.774
13.74000 10.827
13.76000 0.122
13.78000 11.206
13.80000 12.801
13.82000 4.089
13.84000 4.470
13.86000 10.920
13.88000 15.242
13.90000 5.844
13.92000 9.950
13.94000 11.638
13.96000 7.831
13.98000 -4.479
14.00000 5.881
14.02000 -1.717
14.04000 7.930
14.06000 18.700
14.08000 17.970
14.10000 8.211
14.12000 7.391
14.14000 13.797
14.16000 10.365
14.18000 3.255
14.20000 1.525
14.22000 3.846
14.24000 5.992
14.26000 13.154
14.28000 11.135
14.30000 4.320
14.32000 10.944
14.34000 10.520
14.36000 2.825
14.38000 5.941
14.40000 7.360
14.42000 13.151
14.44000 14.257
14.46000 10.816
14.48000 7.147
14.50000 4.805
14.52000 10.145
14.54000 4.410
14.56000 -1.460
14.58000 -1.356
14.60000 2.385
14.62000 6.206
14.64000 11.522
14.66000 6.778
14.68000 11.705
14.70000 8.251
14.72000 4.028
14.74000 6.232
14.76000 6.448
14.78000 -0.700
14.80000 5.635
14.82000 6.004
14.84000 13.136
14.86000 9.081
14.88000 6.857
14.90000 8.943
14.92000 6.561
14.94000 -0.489
14.96000 -1.638
14.98000 -2.522
15.00000 13.385
15.02000 12.182
15.04000 1.085
15.06000 -0.278
15.08000 11.130
15.10000 9.335
15.12000 4.201
15.14000 0.080
15.16000 -0.826
15.18000 1.172
15.20000 14.278
15.22000 18.089
15.24000 12.614
15.26000 11.044
15.28000 11.559
15.30000 -0.394
15.32000 6.203
15.34000 4.001
15.36000 2.553
15.38000 9.197
15.40000 11.261
15.42000 8.259
15.44000 6.663
15.46000 -1.579
15.48000 2.990
15.50000 0.367
15.52000 2.486
15.54000 5.476
15.56000 -4.466
15.58000 -2.246
15.60000 8.803
15.62000 10.499
15.64000 2.538
15.66000 9.261
15.68000 4.788
15.70000 2.827
15.72000 8.114
15.74000 6.325
15.76000 1.786
15.78000 1.983
15.80000 4.143
15.82000 5.370
15.84000 7.932
15.86000 7.279
15.88000 8.099
15.90000 7.653
15.92000 9.823
15.94000 4.840
15.96000 3.999
15.98000 16.280
16.00000 14.529
16.02000 8.810
16.04000 0.476
16.06000 -1.395
16.08000 1.472
16.10000 -0.852
16.12000 1.579
16.14000 11.385
16.16000 12.290
16.18000 11.241
16.20000 4.921
16.22000 1.650
16.24000 5.338
16.26000 11.997
16.28000 13.073
16.30000 10.918
16.32000 -2.496
16.34000 -3.862
16.36000 6.233
16.38000 3.690
16.40000 1.944
16.42000 -1.626
16.44000 1.940
16.46000 7.117
16.48000 1.677
16.50000 2.119
16.52000 12.089
16.54000 10.769
16.56000 8.174
16.58000 7.114
16.60000 9.195
16.62000 2.237
16.64000 -1.797
16.66000 -1.450
16.68000 11.373
16.70000 6.256
16.72000 1.447
16.74000 6.537
16.76000 13.940
16.78000 9.561
16.80000 0.876
16.82000 3.764
16.84000 8.631
16.86000 2.881
16.88000 1.052
16.90000 3.725
16.92000 3.810
16.94000 0.275
16.96000 3.630
16.98000 3.044
17.00000 3.799
17.02000 5.144
17.04000 8.408
17.06000 13.640
17.08000 9.244
17.10000 7.357
17.12000 13.499
17.14000 9.259
17.16000 3.889
17.18000 2.104
17.20000 8.398
17.22000 16.901
17.24000 13.268
17.26000 5.411
17.28000 3.095
17.30000 5.428
17.32000 3.873
17.34000 6.093
17.36000 3.816
17.38000 4.295
17.40000 8.147
17.42000 8.138
17.44000 11.777
17.46000 10.032
17.48000 -2.284
17.50000 -1.637
17.52000 1.069
17.54000 1.199
17.56000 3.422
17.58000 9.245
17.60000 10.428
17.62000 3.876
17.64000 -0.064
17.66000 6.079
17.68000 13.164
17.70000 4.175
17.72000 8.568
17.74000 3.854
17.76000 6.812
17.78000 14.309
17.80000 1.340
17.82000 1.260
17.84000 0.309
17.86000 -3.717
17.88000 -0.071
17.90000 0.651
17.92000 0.217
17.94000 1.227
17.96000 5.997
17.98000 9.079
18.00000 7.570
18.02000 3.820
18.04000 5.163
18.06000 5.118
18.08000 10.927
18.10000 10.296
18.12000 12.373
18.14000 15.708
18.16000 2.099
18.18000 -1.799
18.20000 -3.255
18.22000 -4.334
18.24000 0.403
18.26000 2.577
18.28000 13.373
18.30000 15.354
18.32000 9.717
18.34000 3.876
18.36000 -2.839
18.38000 2.044
18.40000 4.161
18.42000 6.855
18.44000 1.630
18.46000 10.371
18.48000 14.011
18.50000 7.427
18.52000 3.020
18.54000 3.819
18.56000 2.163
18.58000 4.577
18.60000 4.305
18.62000 6.218
18.64000 3.411
18.66000 6.121
18.68000 1.734
18.70000 7.417
18.72000 11.645
18.74000 9.996
18.76000 8.124
18.78000 12.997
18.80000 16.670
18.82000 12.286
18.84000 6.257
18.86000 3.596
18.88000 3.087
18.90000 5.533
18.92000 -0.827
18.94000 -1.392
18.96000 -0.613
18.98000 -2.554
19.00000 2.550
19.02000 0.820
19.04000 5.877
19.06000 6.367
19.08000 13.055
19.10000 16.723
19.12000 11.125
19.14000 10.196
19.16000 9.584
19.18000 14.396
19.20000 17.070
19.22000 10.214
19.24000 9.113
19.26000 1.152
19.28000 -2.730
19.30000 2.454
19.32000 8.609
19.34000 15.272
19.36000 10.738
19.38000 7.696
19.40000 9.572
19.42000 12.227
19.44000 8.198
19.46000 7.219
19.48000 6.858
19.50000 0.637
19.52000 10.158
19.54000 9.044
19.56000 4.822
19.58000 2.553
19.60000 -2.429
19.62000 6.297
19.64000 4.400
19.66000 -1.931
19.68000 0.165
19.70000 -4.243
19.72000 2.427
19.74000 7.054
19.76000 12.499
19.78000 4.817
19.80000 5.107
19.82000 8.934
19.84000 7.213
19.86000 7.686
19.88000 3.331
19.90000 2.843
19.92000 4.307
19.94000 7.771
19.96000 10.952
19.98000 8.438
20.00000 9.071
20.02000 4.509
20.04000 0.279
20.06000 -1.610
20.08000 3.346
20.10000 6.596
20.12000 8.207
20.14000 7.200
20.16000 2.007
20.18000 6.641
20.20000 8.403
20.22000 7.662
20.24000 6.182
20.26000 11.270
20.28000 1.261
20.30000 2.447
20.32000 6.495
20.34000 6.593
20.36000 18.471
20.38000 8.791
20.40000 2.205
20.42000 5.934
20.44000 7.060
20.46000 2.133
20.48000 8.601
20.50000 11.551
20.52000 10.282
20.54000 2.916
20.56000 -3.316
20.58000 -2.885
20.60000 -1.308
20.62000 -4.201
20.64000 -0.179
20.66000 0.209
20.68000 10.138
20.70000 16.070
20.72000 15.185
20.74000 11.688
20.76000 9.995
20.78000 7.050
20.80000 4.073
20.82000 2.330
20.84000 9.153
20.86000 3.411
20.88000 6.402
20.90000 14.102
20.92000 5.678
20.94000 -0.351
20.96000 3.990
20.98000 4.552
21.00000 4.939
21.02000 7.779
21.04000 9.372
21.06000 7.373
21.08000 4.192
21.10000 8.407
21.12000 9.045
21.14000 3.848
21.16000 2.814
21.18000 7.133
21.20000 15.712
21.22000 11.936
21.24000 0.819
21.26000 1.175
21.28000 -2.448
21.30000 6.803
21.32000 3.087
21.34000 -2.285
21.36000 1.349
21.38000 0.648
21.40000 5.485
21.42000 9.257
21.44000 7.979
21.46000 8.103
21.48000 7.719
21.50000 3.415
21.52000 5.896
21.54000 11.804
21.56000 5.205
21.58000 4.108
21.60000 4.953
21.62000 2.927
21.64000 -2.367
21.66000 7.613
21.68000 11.055
21.70000 9.504
21.72000 2.501
21.74000 -4.142
21.76000 -2.634
21.78000 3.685
21.80000 5.348
21.82000 5.935
21.84000 16.736
21.86000 9.272
21.88000 1.719
21.90000 -4.131
21.92000 0.389
21.94000 3.462
21.96000 0.600
21.98000 3.071
22.00000 10.075
22.02000 10.352
22.04000 4.246
22.06000 4.288
22.08000 0.303
22.10000 1.760
22.12000 4.225
22.14000 7.529
22.16000 5.521
22.18000 5.285
22.20000 6.017
22.22000 5.121
22.24000 7.502
22.26000 9.211
22.28000 6.721
22.30000 6.040
22.32000 9.345
22.34000 6.127
22.36000 4.454
22.38000 7.328
22.40000 8.430
22.42000 3.141
22.44000 6.778
22.46000 9.382
22.48000 10.322
22.50000 9.169
22.52000 3.502
22.54000 4.822
22.56000 3.562
22.58000 9.365
22.60000 8.290
22.62000 -0.147
22.64000 2.247
22.66000 6.433
22.68000 11.680
22.70000 7.889
22.72000 0.868
22.74000 3.695
22.76000 2.434
22.78000 1.661
22.80000 1.614
22.82000 2.514
22.84000 0.173
22.86000 2.364
22.88000 2.087
22.90000 3.477
22.92000 2.966
22.94000 -0.123
22.96000 -2.023
22.98000 2.446
23.00000 6.139
23.02000 7.422
23.04000 4.572
23.06000 -2.583
23.08000 0.907
23.10000 0.066
23.12000 -0.459
23.14000 0.623
23.16000 5.987
23.18000 3.157
23.20000 2.063
23.22000 7.685
23.24000 3.445
23.26000 -2.045
23.28000 3.663
23.30000 9.434
23.32000 6.860
23.34000 3.709
23.36000 3.281
23.38000 4.695
23.40000 5.645
23.42000 3.694
23.44000 4.120
23.46000 6.351
23.48000 3.814
23.50000 0.165
23.52000 -4.062
23.54000 -0.943
23.56000 2.568
23.58000 8.698
23.60000 6.414
23.62000 7.071
23.64000 8.099
23.66000 11.447
23.68000 10.555
23.70000 6.397
23.72000 2.852
23.74000 5.428
23.76000 5.969
23.78000 1.715
23.80000 3.498
23.82000 5.491
23.84000 5.730
23.86000 8.758
23.88000 4.549
23.90000 4.457
23.92000 1.419
23.94000 4.685
23.96000 7.090
23.98000 8.024
24.00000 1.915
24.02000 4.284
24.04000 9.778
24.06000 6.081
24.08000 1.976
24.10000 3.227
24.12000 -0.657
24.14000 -0.270
24.16000 8.136
24.18000 5.863
24.20000 2.085
24.22000 -0.965
24.24000 0.732
24.26000 1.688
24.28000 -1.185
24.30000 0.961
24.32000 2.973
24.34000 1.552
24.36000 6.445
24.38000 7.827
24.40000 4.679
24.42000 11.827
24.44000 8.986
24.46000 5.579
24.48000 -3.023
24.50000 2.986
24.52000 10.688
24.54000 3.973
24.56000 1.954
24.58000 2.008
24.60000 0.346
24.62000 3.319
24.64000 5.596
24.66000 6.315
24.68000 7.687
24.70000 3.669
24.72000 7.519
24.74000 6.774
24.76000 8.411
24.78000 0.182
24.80000 -3.992
24.82000 -0.853
24.84000 -1.124
24.86000 4.198
24.88000 7.442
24.90000 7.521
24.92000 0.566
24.94000 5.506
24.96000 4.266
24.98000 1.680
25.00000 6.225
25.02000 4.019
25.04000 2.886
25.06000 0.085
25.08000 1.587
25.10000 3.312
25.12000 4.932
25.14000 3.672
25.16000 2.092
25.18000 0.097
25.20000 1.288
25.22000 7.192
25.24000 7.506
25.26000 7.267
25.28000 4.825
25.30000 1.620
25.32000 1.692
25.34000 1.391
25.36000 3.974
25.38000 -0.138
25.40000 -2.889
25.42000 1.892
25.44000 2.491
25.46000 -0.509
25.48000 1.136
25.50000 2.445
25.52000 1.638
25.54000 3.301
25.56000 8.564
25.58000 3.145
25.60000 1.214
25.62000 7.666
25.64000 5.402
25.66000 -1.701
25.68000 -0.815
25.70000 3.325
25.72000 2.836
25.74000 -2.797
25.76000 3.540
25.78000 4.138
25.80000 6.302
25.82000 8.654
25.84000 1.211
25.86000 -2.061
25.88000 0.800
25.90000 3.556
25.92000 2.026
25.94000 2.192
25.96000 0.748
25.98000 1.385
26.00000 -3.946
26.02000 0.466
26.04000 -0.864
26.06000 4.458
26.08000 3.258
26.10000 1.150
26.12000 1.186
26.14000 2.850
26.16000 4.093
26.18000 5.951
26.20000 5.599
26.22000 5.253
26.24000 7.119
26.26000 5.952
26.28000 -0.499
26.30000 1.535
26.32000 6.558
26.34000 3.532
26.36000 0.563
26.38000 -3.390
26.40000 1.973
26.42000 14.299
26.44000 6.526
26.46000 -0.550
26.48000 0.457
26.50000 3.578
26.52000 3.658
26.54000 6.451
26.56000 8.295
26.58000 5.546
26.60000 6.948
26.62000 4.512
26.64000 8.576
26.66000 10.958
26.68000 5.466
26.70000 8.053
26.72000 9.000
26.74000 2.342
26.76000 0.475
26.78000 4.942
26.80000 5.564
26.82000 6.150
26.84000 6.035
26.86000 10.600
26.88000 6.285
26.90000 4.882
26.92000 1.252
26.94000 1.809
26.96000 -3.860
26.98000 -1.264
27.00000 7.145
27.02000 3.481
27.04000 5.142
27.06000 9.214
27.08000 8.180
27.10000 5.626
27.12000 4.241
27.14000 7.068
27.16000 7.359
27.18000 5.649
27.20000 0.590
27.22000 -1.998
27.24000 -1.993
27.26000 3.436
27.28000 6.535
27.30000 1.950
27.32000 7.791
27.34000 5.259
27.36000 4.349
27.38000 10.402
27.40000 11.447
27.42000 9.770
27.44000 1.417
27.46000 3.174
27.48000 5.263
27.50000 -0.310
27.52000 4.082
27.54000 0.909
27.56000 0.176
27.58000 3.904
27.60000 1.424
27.62000 2.165
27.64000 6.286
27.66000 7.056
27.68000 8.152
27.70000 3.087
27.72000 3.821
27.74000 3.861
27.76000 0.816
27.78000 7.389
27.80000 1.856
27.82000 0.421
27.84000 5.273
27.86000 8.711
27.88000 7.393
27.90000 8.411
27.92000 8.809
27.94000 4.860
27.96000 4.655
27.98000 0.920
28.00000 5.180
28.02000 5.053
28.04000 9.283
28.06000 7.173
28.08000 7.471
28.10000 1.257
28.12000 1.730
28.14000 3.501
28.16000 9.110
28.18000 3.873
28.20000 -0.826
28.22000 2.638
28.24000 2.754
28.26000 -1.650
28.28000 7.710
28.30000 7.498
28.32000 5.063
28.34000 1.164
28.36000 5.518
28.38000 1.044
28.40000 -3.777
28.42000 6.347
28.44000 5.225
28.46000 0.606
28.48000 3.653
28.50000 -1.862
28.52000 6.040
28.54000 8.337
28.56000 5.362
28.58000 5.052
28.60000 5.993
28.62000 5.543
28.64000 8.251
28.66000 2.730
28.68000 3.663
28.70000 10.153
28.72000 6.421
28.74000 4.083
28.76000 3.099
28.78000 5.135
28.80000 3.163
28.82000 5.662
28.84000 7.152
28.86000 5.969
28.88000 3.312
28.90000 1.025
28.92000 -2.707
28.94000 -3.324
28.96000 -2.800
28.98000 -0.468
29.00000 1.733
29.02000 -0.133
29.04000 -1.256
29.06000 4.310
29.08000 2.962
29.10000 -0.525
29.12000 0.582
29.14000 2.774
29.16000 -0.927
29.18000 -2.553
29.20000 -2.225
29.22000 3.315
29.24000 4.372
29.26000 5.508
29.28000 7.529
29.30000 10.220
29.32000 7.969
29.34000 4.065
29.36000 3.041
29.38000 -0.788
29.40000 2.170
29.42000 3.401
29.44000 7.348
29.46000 9.713
29.48000 5.251
29.50000 -1.644
29.52000 -0.304
29.54000 -0.901
29.56000 2.771
29.58000 6.161
29.60000 3.758
29.62000 6.782
29.64000 7.076
29.66000 2.774
29.68000 -1.458
29.70000 -0.221
29.72000 3.761
29.74000 6.657
29.76000 0.054
29.78000 3.274
29.80000 5.929
29.82000 2.209
29.84000 -2.036
29.86000 -3.737
29.88000 -0.205
29.90000 1.789
29.92000 -0.382
29.94000 -1.712
29.96000 0.051
29.98000 -0.839
30.00000 0.523
30.02000 4.841
30.04000 5.781
30.06000 0.457
30.08000 3.996
30.10000 4.960
30.12000 -0.944
30.14000 -2.425
30.16000 3.707
30.18000 2.314
30.20000 -0.870
30.22000 1.025
30.24000 3.752
30.26000 4.144
30.28000 3.364
30.30000 2.152
30.32000 -0.799
30.34000 -1.243
30.36000 3.309
30.38000 1.320
30.40000 -1.401
30.42000 -2.919
30.44000 -1.989
30.46000 0.907
30.48000 3.155
30.50000 4.954
30.52000 2.681
30.54000 5.852
30.56000 3.247
30.58000 3.660
30.60000 3.730
30.62000 0.000
30.64000 -0.277
30.66000 2.124
30.68000 1.508
30.70000 0.318
30.72000 3.247
30.74000 4.443
30.76000 1.995
30.78000 -0.615
30.80000 -2.194
30.82000 -0.718
30.84000 2.383
30.86000 5.311
30.88000 2.918
30.90000 0.046
30.92000 -0.931
30.94000 -3.204
30.96000 -3.458
30.98000 1.772
31.00000 7.452
31.02000 3.730
31.04000 0.387
31.06000 -0.924
31.08000 -3.571
31.10000 -2.405
31.12000 0.813
31.14000 1.904
31.16000 4.582
31.18000 5.060
31.20000 2.702
31.22000 -0.390
31.24000 -2.370
31.26000 5.330
31.28000 0.845
31.30000 -1.733
31.32000 -0.785
31.34000 1.424
31.36000 3.147
31.38000 6.755
31.40000 5.033
31.42000 3.674
31.44000 0.776
31.46000 1.485
31.48000 5.472
31.50000 7.347
31.52000 1.323
31.54000 3.200
31.56000 4.971
31.58000 4.836
31.60000 4.057
31.62000 2.665
31.64000 1.806
31.66000 3.837
31.68000 3.111
31.70000 0.078
31.72000 0.145
31.74000 1.328
31.76000 4.688
31.78000 5.717
31.80000 -0.614
31.82000 -3.646
31.84000 -1.108
31.86000 4.868
31.88000 2.066
31.90000 1.413
31.92000 5.530
31.94000 5.595
31.96000 7.584
31.98000 3.270
32.00000 3.429
32.02000 5.304
32.04000 2.904
32.06000 2.860
32.08000 3.047
32.10000 7.382
32.12000 9.713
32.14000 9.726
32.16000 6.824
32.18000 1.557
32.20000 0.111
32.22000 0.302
32.24000 4.571
32.26000 5.088
32.28000 4.726
32.30000 2.750
32.32000 0.981
32.34000 6.783
32.36000 11.595
32.38000 7.257
32.40000 7.919
32.42000 3.177
32.44000 -0.111
32.46000 3.222
32.48000 4.334
32.50000 6.329
32.52000 5.456
32.54000 5.987
32.56000 3.845
32.58000 8.677
32.60000 8.599
32.62000 4.077
32.64000 -0.672
32.66000 3.878
32.68000 4.130
32.70000 5.211
32.72000 3.220
32.74000 7.092
32.76000 4.384
32.78000 -0.478
32.80000 2.957
32.82000 2.225
32.84000 -0.892
32.86000 0.572
32.88000 2.119
32.90000 -3.591
32.92000 0.382
32.94000 4.301
32.96000 3.107
32.98000 2.383
33.00000 3.411
33.02000 4.536
33.04000 4.675
33.06000 5.740
33.08000 4.512
33.10000 3.716
33.12000 8.051
33.14000 5.777
33.16000 2.790
33.18000 3.621
33.20000 2.857
33.22000 2.311
33.24000 1.861
33.26000 5.373
33.28000 7.839
33.30000 9.157
33.32000 7.383
33.34000 6.222
33.36000 2.534
33.38000 4.986
33.40000 9.060
33.42000 3.641
33.44000 4.134
33.46000 7.352
33.48000 4.320
33.50000 2.108
33.52000 3.148
33.54000 4.214
33.56000 4.955
33.58000 9.451
33.60000 5.864
33.62000 2.977
33.64000 1.636
33.66000 3.119
33.68000 3.974
33.70000 -0.543
33.72000 1.700
33.74000 4.809
33.76000 4.873
33.78000 5.288
33.80000 5.969
33.82000 3.294
33.84000 6.067
33.86000 13.123
33.88000 11.758
33.90000 5.048
33.92000 4.904
33.94000 8.222
33.96000 5.718
33.98000 3.356
34.00000 5.397
34.02000 5.642
34.04000 5.407
34.06000 4.837
34.08000 3.014
34.10000 4.388
34.12000 3.073
34.14000 6.208
34.16000 6.014
34.18000 3.893
34.20000 1.392
34.22000 5.061
34.24000 7.180
34.26000 6.355
34.28000 4.714
34.30000 2.265
34.32000 4.058
34.34000 9.134
34.36000 9.375
34.38000 8.398
34.40000 6.649
34.42000 5.836
34.44000 5.415
34.46000 2.486
34.48000 4.604
34.50000 2.121
34.52000 5.872
34.54000 6.832
34.56000 5.796
34.58000 7.143
34.60000 5.635
34.62000 7.146
34.64000 5.520
34.66000 3.750
34.68000 6.667
34.70000 5.169
34.72000 8.853
34.74000 5.777
34.76000 13.682
34.78000 9.126
34.80000 6.427
34.82000 3.841
34.84000 4.613
34.86000 7.108
34.88000 9.811
34.90000 6.368
34.92000 5.025
34.94000 4.713
34.96000 8.731
34.98000 5.868
35.00000 4.588
35.02000 5.020
35.04000 3.660
35.06000 5.256
35.08000 8.035
35.10000 3.657
35.12000 1.585
35.14000 -3.526
35.16000 1.644
35.18000 6.533
35.20000 6.652
35.22000 4.211
35.24000 3.767
35.26000 3.590
35.28000 9.114
35.30000 7.282
35.32000 8.392
35.34000 6.909
35.36000 5.341
35.38000 5.620
35.40000 8.832
35.42000 5.459
35.44000 2.645
35.46000 3.181
35.48000 1.204
35.50000 -0.793
35.52000 4.729
35.54000 3.453
35.56000 5.409
35.58000 1.288
35.60000 1.224
35.62000 1.313
35.64000 6.370
35.66000 2.044
35.68000 -2.482
35.70000 0.357
35.72000 1.937
35.74000 -1.905
35.76000 0.774
35.78000 -0.298
35.80000 0.756
35.82000 -1.528
35.84000 -0.896
35.86000 1.087
35.88000 3.151
35.90000 3.471
35.92000 -0.999
35.94000 -0.622
35.96000 -2.389
35.98000 -1.799
36.00000 -2.337
36.02000 0.860
36.04000 1.505
36.06000 2.286
36.08000 2.163
36.10000 -2.092
36.12000 0.095
36.14000 -0.079
36.16000 -2.538
36.18000 1.384
36.20000 5.519
36.22000 1.949
36.24000 -1.123
36.26000 -2.460
36.28000 -3.195
36.30000 -0.029
36.32000 0.242
36.34000 -2.221
36.36000 -2.478
36.38000 3.477
36.40000 0.883
36.42000 2.621
36.44000 4.953
36.46000 3.006
36.48000 -0.249
36.50000 -0.635
36.52000 0.961
36.54000 3.174
36.56000 4.477
36.58000 2.199
36.60000 -0.470
36.62000 -0.245
36.64000 -0.355
36.66000 -0.813
36.68000 -2.095
36.70000 -3.145
36.72000 -3.650
36.74000 0.176
36.76000 -1.945
36.78000 -3.615
36.80000 0.675
36.82000 1.040
36.84000 -3.093
36.86000 -3.657
36.88000 -1.720
36.90000 -3.349
36.92000 -1.105
36.94000 -2.465
36.96000 -1.762
36.98000 -2.190
37.00000 -0.785
37.02000 -2.121
37.04000 -1.790
37.06000 -3.682
37.08000 -1.866
37.10000 0.175
37.12000 -1.668
37.14000 2.208
37.16000 3.797
37.18000 -0.311
37.20000 1.211
37.22000 3.198
37.24000 7.239
37.26000 9.690
37.28000 -1.973
37.30000 -2.469
37.32000 6.003
37.34000 1.793
37.36000 -0.690
37.38000 3.897
37.40000 -0.905
37.42000 -3.627
37.44000 -1.906
37.46000 1.420
37.48000 -1.352
37.50000 -1.745
37.52000 1.869
37.54000 3.298
37.56000 4.032
37.58000 3.841
37.60000 1.993
37.62000 1.523
37.64000 4.702
37.66000 6.157
37.68000 0.297
37.70000 2.911
37.72000 -0.525
37.74000 0.580
37.76000 0.310
37.78000 2.552
37.80000 7.336
37.82000 1.980
37.84000 1.763
37.86000 6.379
37.88000 8.914
37.90000 8.793
37.92000 7.272
37.94000 9.741
37.96000 9.028
37.98000 5.900
38.00000 8.043
38.02000 9.488
38.04000 8.940
38.06000 7.209
38.08000 7.029
38.10000 10.176
38.12000 11.496
38.14000 8.664
38.16000 11.094
38.18000 11.258
38.20000 16.205
38.22000 18.960
38.24000 14.460
38.26000 14.903
38.28000 18.705
38.30000 15.372
38.32000 16.633
38.34000 12.411
38.36000 13.737
38.38000 17.613
38.40000 14.118
38.42000 17.621
38.44000 20.045
38.46000 20.396
38.48000 20.805
38.50000 25.114
38.52000 28.200
38.54000 23.480
38.56000 23.950
38.58000 21.333
38.60000 22.945
38.62000 25.996
38.64000 32.265
38.66000 29.915
38.68000 31.795
38.70000 36.595
38.72000 41.640
38.74000 35.984
38.76000 36.869
38.78000 38.318
38.80000 42.378
38.82000 37.677
38.84000 37.109
38.86000 44.145
38.88000 48.883
38.90000 45.742
38.92000 46.942
38.94000 51.390
38.96000 50.272
38.98000 53.260
39.00000 59.585
39.02000 60.648
39.04000 62.933
39.06000 62.853
39.08000 60.955
39.10000 68.755
39.12000 70.663
39.14000 74.069
39.16000 72.633
39.18000 76.205
39.20000 78.948
39.22000 82.465
39.24000 88.474
39.26000 93.590
39.28000 98.240
39.30000 97.673
39.32000 107.909
39.34000 117.658
39.36000 122.681
39.38000 129.053
39.40000 132.089
39.42000 138.058
39.44000 137.583
39.46000 145.036
39.48000 151.118
39.50000 162.280
39.52000 180.261
39.54000 179.793
39.56000 183.516
39.58000 193.832
39.60000 203.342
39.62000 214.381
39.64000 224.866
39.66000 229.502
39.68000 249.077
39.70000 259.264
39.72000 270.533
39.74000 286.845
39.76000 298.960
39.78000 314.288
39.80000 328.819
39.82000 344.492
39.84000 357.914
39.86000 380.088
39.88000 392.461
39.90000 407.965
39.92000 418.861
39.94000 436.118
39.96000 454.923
39.98000 466.533
40.00000 489.509
40.02000 515.511
40.04000 542.347
40.06000 548.571
40.08000 563.621
40.10000 589.085
40.12000 609.037
40.14000 620.642
40.16000 618.011
40.18000 630.144
40.20000 638.208
40.22000 659.620
40.24000 673.519
40.26000 693.044
40.28000 702.419
40.30000 694.374
40.32000 695.598
40.34000 688.988
40.36000 682.728
40.38000 682.065
40.40000 678.784
40.42000 680.510
40.44000 670.980
40.46000 668.068
40.48000 652.726
40.50000 632.351
40.52000 615.258
40.54000 606.900
40.56000 581.329
40.58000 566.464
40.60000 547.957
40.62000 531.168
40.64000 520.937
40.66000 504.284
40.68000 475.987
40.70000 449.787
40.72000 427.257
40.74000 416.753
40.76000 412.425
40.78000 388.309
40.80000 363.697
40.82000 345.977
40.84000 336.124
40.86000 315.874
40.88000 298.309
40.90000 280.379
40.92000 266.010
40.94000 257.118
40.96000 242.145
40.98000 228.726
41.00000 215.253
41.02000 203.273
41.04000 190.114
41.06000 182.585
41.08000 173.319
41.10000 165.522
41.12000 158.075
41.14000 148.116
41.16000 145.698
41.18000 136.554
41.20000 129.912
41.22000 123.592
41.24000 112.540
41.26000 107.405
41.28000 103.094
41.30000 92.794
41.32000 88.020
41.34000 81.209
41.36000 79.277
41.38000 76.075
41.40000 71.118
41.42000 66.780
41.44000 63.967
41.46000 60.978
41.48000 58.670
41.50000 54.950
41.52000 56.314
41.54000 47.729
41.56000 44.117
41.58000 44.317
41.60000 47.350
41.62000 37.832
41.64000 34.385
41.66000 35.387
41.68000 35.691
41.70000 29.150
41.72000 29.977
41.74000 30.781
41.76000 28.887
41.78000 35.472
41.80000 30.100
41.82000 26.581
41.84000 23.004
41.86000 16.800
41.88000 17.333
41.90000 15.548
41.92000 13.626
41.94000 9.951
41.96000 15.716
41.98000 20.314
42.00000 16.936
42.02000 15.993
42.04000 15.135
42.06000 14.953
42.08000 14.169
42.10000 10.599
42.12000 6.788
42.14000 9.579
42.16000 9.774
42.18000 9.607
42.20000 7.456
42.22000 7.070
42.24000 8.287
42.26000 5.278
42.28000 8.815
42.30000 7.597
42.32000 5.841
42.34000 7.049
42.36000 4.864
42.38000 2.628
42.40000 3.782
42.42000 0.376
42.44000 1.220
42.46000 1.349
42.48000 4.466
42.50000 1.625
42.52000 1.011
42.54000 4.369
42.56000 3.937
42.58000 6.367
42.60000 4.118
42.62000 1.593
42.64000 1.828
42.66000 1.596
42.68000 3.966
42.70000 1.348
42.72000 0.750
42.74000 6.617
42.76000 4.472
42.78000 -3.641
42.80000 -1.863
42.82000 0.877
42.84000 3.692
42.86000 1.451
42.88000 0.863
42.90000 0.058
42.92000 -3.623
42.94000 0.874
42.96000 6.044
42.98000 5.020
43.00000 -0.024
43.02000 -1.424
43.04000 1.273
43.06000 1.935
43.08000 2.111
43.10000 1.188
43.12000 -1.475
43.14000 -0.991
43.16000 0.667
43.18000 0.765
43.20000 -0.215
43.22000 -1.697
43.24000 -0.828
43.26000 2.208
43.28000 3.619
43.30000 2.487
43.32000 -3.400
43.34000 1.395
43.36000 0.901
43.38000 0.779
43.40000 1.922
43.42000 0.397
43.44000 4.733
43.46000 0.347
43.48000 -1.313
43.50000 -2.040
43.52000 -1.337
43.54000 0.197
43.56000 2.170
43.58000 -3.051
43.60000 -1.035
43.62000 -2.831
43.64000 5.868
43.66000 5.447
43.68000 2.466
43.70000 0.724
43.72000 1.801
43.74000 0.550
43.76000 -0.293
43.78000 -3.271
43.80000 -3.534
43.82000 2.300
43.84000 3.959
43.86000 0.700
43.88000 2.841
43.90000 1.427
43.92000 1.115
43.94000 0.167
43.96000 2.741
43.98000 3.476
44.00000 1.283
44.02000 0.109
44.04000 1.358
44.06000 2.169
44.08000 5.041
44.10000 5.909
44.12000 5.516
44.14000 3.684
44.16000 1.680
44.18000 -0.949
44.20000 -3.503
44.22000 -0.352
44.24000 4.301
44.26000 3.402
44.28000 1.516
44.30000 3.760
44.32000 4.892
44.34000 1.933
44.36000 1.893
44.38000 2.606
44.40000 4.185
44.42000 9.145
44.44000 8.844
44.46000 10.762
44.48000 6.964
44.50000 5.075
44.52000 3.726
44.54000 0.619
44.56000 -1.113
44.58000 4.440
44.60000 3.107
44.62000 0.777
44.64000 3.002
44.66000 3.751
44.68000 2.405
44.70000 -0.537
44.72000 0.342
44.74000 5.134
44.76000 3.237
44.78000 3.656
44.80000 1.616
44.82000 0.430
44.84000 5.735
44.86000 9.686
44.88000 3.041
44.90000 1.175
44.92000 4.467
44.94000 5.055
44.96000 1.315
44.98000 3.642
45.00000 4.252
45.02000 10.632
45.04000 11.064
45.06000 10.246
45.08000 10.086
45.10000 4.836
45.12000 6.801
45.14000 8.897
45.16000 12.830
45.18000 4.469
45.20000 10.192
45.22000 14.942
45.24000 10.643
45.26000 11.299
45.28000 11.187
45.30000 3.952
45.32000 13.222
45.34000 17.811
45.36000 13.769
45.38000 17.112
45.40000 11.869
45.42000 16.400
45.44000 17.347
45.46000 17.758
45.48000 13.783
45.50000 12.411
45.52000 18.750
45.54000 14.801
45.56000 19.635
45.58000 18.876
45.60000 17.971
45.62000 22.373
45.64000 23.896
45.66000 18.655
45.68000 20.443
45.70000 22.946
45.72000 27.534
45.74000 31.457
45.76000 29.200
45.78000 23.245
45.80000 22.699
45.82000 23.610
45.84000 24.984
45.86000 22.057
45.88000 22.721
45.90000 24.183
45.92000 29.388
45.94000 29.105
45.96000 36.529
45.98000 37.033
46.00000 38.879
46.02000 31.371
46.04000 33.965
46.06000 36.932
46.08000 40.711
46.10000 39.550
46.12000 46.863
46.14000 45.803
46.16000 45.308
46.18000 44.055
46.20000 50.124
46.22000 50.096
46.24000 59.005
46.26000 46.901
46.28000 49.032
46.30000 52.648
46.32000 53.688
46.34000 57.273
46.36000 65.643
46.38000 58.893
46.40000 59.487
46.42000 62.421
46.44000 62.997
46.46000 66.816
46.48000 62.185
46.50000 65.150
46.52000 72.983
46.54000 78.083
46.56000 79.535
46.58000 73.294
46.60000 69.763
46.62000 74.087
46.64000 74.131
46.66000 66.771
46.68000 67.559
46.70000 76.418
46.72000 78.265
46.74000 76.868
46.76000 83.117
46.78000 87.000
46.80000 84.102
46.82000 83.238
46.84000 81.522
46.86000 87.891
46.88000 83.170
46.90000 80.272
46.92000 79.505
46.94000 80.801
46.96000 78.434
46.98000 78.624
47.00000 79.943
47.02000 84.204
47.04000 75.616
47.06000 73.538
47.08000 76.513
47.10000 71.466
47.12000 74.621
47.14000 70.871
47.16000 70.754
47.18000 70.646
47.20000 71.272
47.22000 69.184
47.24000 75.000
47.26000 76.938
47.28000 70.610
47.30000 66.329
47.32000 68.993
47.34000 61.087
47.36000 58.500
47.38000 61.330
47.40000 58.170
47.42000 60.593
47.44000 60.657
47.46000 62.636
47.48000 56.277
47.50000 54.134
47.52000 53.888
47.54000 50.945
47.56000 47.345
47.58000 43.289
47.60000 47.794
47.62000 46.892
47.64000 40.841
47.66000 35.695
47.68000 35.653
47.70000 38.655
47.72000 39.395
47.74000 33.957
47.76000 29.940
47.78000 29.777
47.80000 29.363
47.82000 34.715
47.84000 34.291
47.86000 24.202
47.88000 22.557
47.90000 27.250
47.92000 26.234
47.94000 30.171
47.96000 19.608
47.98000 21.125
48.00000 18.701
48.02000 16.228
48.04000 13.768
48.06000 17.500
48.08000 16.439
48.10000 14.635
48.12000 15.659
48.14000 22.454
48.16000 15.749
48.18000 12.865
48.20000 9.309
48.22000 15.441
48.24000 14.647
48.26000 10.313
48.28000 9.512
48.30000 13.082
48.32000 10.600
48.34000 8.632
48.36000 7.675
48.38000 6.324
48.40000 2.944
48.42000 5.416
48.44000 5.014
48.46000 2.795
48.48000 2.421
48.50000 2.987
48.52000 1.272
48.54000 7.526
48.56000 8.674
48.58000 4.046
48.60000 4.222
48.62000 7.311
48.64000 9.333
48.66000 2.922
48.68000 1.172
48.70000 2.852
48.72000 3.343
48.74000 5.098
48.76000 -0.364
48.78000 -3.229
48.80000 3.277
48.82000 5.280
48.84000 5.670
48.86000 0.282
48.88000 1.361
48.90000 4.416
48.92000 4.983
48.94000 1.946
48.96000 -1.389
48.98000 -0.341
49.00000 -3.199
49.02000 -1.947
49.04000 2.258
49.06000 2.640
49.08000 0.863
49.10000 3.912
49.12000 0.449
49.14000 1.032
49.16000 -3.181
49.18000 -2.578
49.20000 -0.708
49.22000 -2.273
49.24000 1.927
49.26000 -2.039
49.28000 -1.094
49.30000 3.186
49.32000 1.350
49.34000 3.384
49.36000 3.600
49.38000 8.131
49.40000 3.511
49.42000 5.812
49.44000 5.668
49.46000 6.572
49.48000 4.692
49.50000 -1.295
49.52000 -1.767
49.54000 -2.739
49.56000 0.940
49.58000 7.275
49.60000 10.956
49.62000 5.135
49.64000 1.625
49.66000 -0.735
49.68000 0.234
49.70000 -0.901
49.72000 -3.113
49.74000 2.909
49.76000 4.512
49.78000 4.894
49.80000 1.481
49.82000 -2.450
49.84000 -0.572
49.86000 2.537
49.88000 8.719
49.90000 6.138
49.92000 4.030
49.94000 4.390
49.96000 4.195
49.98000 3.309
50.00000 4.810
50.02000 4.673
50.04000 2.411
50.06000 0.973
50.08000 2.733
50.10000 3.707
50.12000 2.319
50.14000 2.241
50.16000 -1.023
50.18000 2.592
50.20000 6.622
50.22000 3.850
50.24000 3.299
50.26000 2.215
50.28000 0.772
50.30000 0.444
50.32000 3.219
50.34000 1.769
50.36000 3.653
50.38000 1.352
50.40000 3.775
50.42000 3.719
50.44000 3.571
50.46000 4.518
50.48000 4.045
50.50000 3.767
50.52000 4.402
50.54000 -0.971
50.56000 -3.027
50.58000 -0.594
50.60000 4.058
50.62000 5.540
50.64000 6.518
50.66000 2.929
50.68000 3.370
50.70000 11.031
50.72000 6.025
50.74000 3.584
50.76000 8.997
50.78000 10.049
50.80000 11.151
50.82000 8.518
50.84000 4.829
50.86000 3.709
50.88000 2.444
50.90000 8.286
50.92000 3.866
50.94000 -1.501
50.96000 -2.441
50.98000 2.653
51.00000 2.604
51.02000 2.736
51.04000 -1.315
51.06000 5.820
51.08000 8.367
51.10000 3.810
51.12000 -0.617
51.14000 3.199
51.16000 3.997
51.18000 1.190
51.20000 -1.261
51.22000 2.423
51.24000 2.324
51.26000 -0.458
51.28000 2.848
51.30000 2.761
51.32000 -1.092
51.34000 0.338
51.36000 -2.796
51.38000 -2.711
51.40000 0.851
51.42000 5.280
51.44000 2.483
51.46000 -1.886
51.48000 6.973
51.50000 9.668
51.52000 5.746
51.54000 5.122
51.56000 3.518
51.58000 -0.887
51.60000 -0.447
51.62000 -0.572
51.64000 4.611
51.66000 5.282
51.68000 4.987
51.70000 6.678
51.72000 3.537
51.74000 1.602
51.76000 -0.467
51.78000 -1.966
51.80000 0.155
51.82000 -0.974
51.84000 -1.801
51.86000 2.078
51.88000 1.943
51.90000 4.433
51.92000 0.827
51.94000 -1.404
51.96000 1.099
51.98000 7.027
52.00000 2.762
52.02000 -2.168
52.04000 -0.992
52.06000 -1.952
52.08000 -1.823
52.10000 2.479
52.12000 -2.108
52.14000 -3.001
52.16000 -1.154
52.18000 -2.355
52.20000 1.598
52.22000 5.440
52.24000 6.651
52.26000 2.612
52.28000 2.914
52.30000 5.193
52.32000 4.638
52.34000 10.113
52.36000 7.119
52.38000 4.823
52.40000 4.882
52.42000 1.662
52.44000 -2.979
52.46000 0.619
52.48000 -0.041
52.50000 1.600
52.52000 1.728
52.54000 4.365
52.56000 3.931
52.58000 5.610
52.60000 0.695
52.62000 -1.836
52.64000 1.307
52.66000 3.229
52.68000 3.362
52.70000 0.491
52.72000 2.507
52.74000 3.629
52.76000 4.823
52.78000 5.081
52.80000 4.656
52.82000 -2.303
52.84000 -0.798
52.86000 2.728
52.88000 2.732
52.90000 -1.486
52.92000 2.109
52.94000 6.918
52.96000 3.284
52.98000 -1.534
53.00000 1.981
53.02000 5.497
53.04000 3.590
53.06000 2.537
53.08000 2.795
53.10000 -0.464
53.12000 -1.729
53.14000 2.096
53.16000 4.159
53.18000 6.065
53.20000 4.009
53.22000 3.968
53.24000 7.472
53.26000 0.461
53.28000 0.898
53.30000 -0.052
53.32000 2.946
53.34000 1.674
53.36000 1.822
53.38000 0.786
53.40000 1.692
53.42000 2.677
53.44000 0.515
53.46000 1.219
53.48000 3.672
53.50000 8.030
53.52000 8.965
53.54000 6.512
53.56000 5.295
53.58000 2.645
53.60000 3.130
53.62000 0.944
53.64000 4.221
53.66000 5.003
53.68000 0.879
53.70000 -2.950
53.72000 2.559
53.74000 5.432
53.76000 1.449
53.78000 6.680
53.80000 7.699
53.82000 6.333
53.84000 -1.757
53.86000 0.749
53.88000 0.953
53.90000 -1.064
53.92000 2.826
53.94000 2.988
53.96000 2.567
53.98000 -0.568
54.00000 1.805
54.02000 5.475
54.04000 4.938
54.06000 7.653
54.08000 1.257
54.10000 2.048
54.12000 3.592
54.14000 1.553
54.16000 -2.918
54.18000 2.803
54.20000 -0.357
54.22000 3.812
54.24000 6.671
54.26000 4.825
54.28000 7.573
54.30000 3.216
54.32000 0.784
54.34000 3.871
54.36000 9.322
54.38000 9.547
54.40000 10.541
54.42000 6.832
54.44000 7.656
54.46000 6.415
54.48000 2.108
54.50000 3.209
54.52000 5.934
54.54000 8.283
54.56000 8.679
54.58000 8.640
54.60000 8.806
54.62000 5.633
54.64000 2.197
54.66000 5.575
54.68000 7.100
54.70000 0.562
54.72000 5.498
54.74000 4.925
54.76000 3.841
54.78000 4.300
54.80000 5.445
54.82000 0.162
54.84000 2.723
54.86000 -0.041
54.88000 2.728
54.90000 2.539
54.92000 4.736
54.94000 -0.622
54.96000 2.351
54.98000 4.579
55.00000 5.094
55.02000 1.877
55.04000 5.517
55.06000 6.769
55.08000 5.233
55.10000 4.675
55.12000 4.497
55.14000 4.695
55.16000 2.989
55.18000 0.948
55.20000 5.042
55.22000 2.906
55.24000 6.151
55.26000 7.811
55.28000 4.279
55.30000 4.630
55.32000 11.535
55.34000 12.711
55.36000 3.477
55.38000 2.616
55.40000 3.918
55.42000 -2.879
55.44000 -0.281
55.46000 2.067
55.48000 4.947
55.50000 2.585
55.52000 3.973
55.54000 4.961
55.56000 5.894
55.58000 9.167
55.60000 11.366
55.62000 5.913
55.64000 2.881
55.66000 4.415
55.68000 7.534
55.70000 4.933
55.72000 7.173
55.74000 5.837
55.76000 10.769
55.78000 9.792
55.80000 10.277
55.82000 6.647
55.84000 9.574
55.86000 2.885
55.88000 1.725
55.90000 4.966
55.92000 2.567
55.94000 5.144
55.96000 7.139
55.98000 3.047
56.00000 5.303
56.02000 7.176
56.04000 -1.818
56.06000 -1.408
56.08000 -2.834
56.10000 -1.528
56.12000 0.468
56.14000 5.855
56.16000 4.072
56.18000 1.765
56.20000 7.694
56.22000 8.472
56.24000 5.268
56.26000 9.339
56.28000 13.560
56.30000 9.217
56.32000 4.807
56.34000 1.122
56.36000 3.030
56.38000 2.669
56.40000 4.165
56.42000 0.773
56.44000 1.206
56.46000 -1.077
56.48000 -1.081
56.50000 0.534
56.52000 4.628
56.54000 2.881
56.56000 4.864
56.58000 1.251
56.60000 0.329
56.62000 4.261
56.64000 7.901
56.66000 7.074
56.68000 7.775
56.70000 1.200
56.72000 -0.703
56.74000 0.146
56.76000 3.746
56.78000 3.198
56.80000 4.395
56.82000 4.155
56.84000 7.645
56.86000 6.068
56.88000 7.855
56.90000 6.811
56.92000 3.343
56.94000 4.762
56.96000 4.202
56.98000 5.180
57.00000 1.914
57.02000 7.020
57.04000 8.093
57.06000 5.607
57.08000 6.583
57.10000 0.121
57.12000 -2.823
57.14000 -1.936
57.16000 1.403
57.18000 4.946
57.20000 2.914
57.22000 4.653
57.24000 4.448
57.26000 7.278
57.28000 4.670
57.30000 3.382
57.32000 7.848
57.34000 7.181
57.36000 2.058
57.38000 2.705
57.40000 3.878
57.42000 0.495
57.44000 4.198
57.46000 1.763
57.48000 2.979
57.50000 -1.382
57.52000 2.125
57.54000 3.842
57.56000 4.808
57.58000 3.421
57.60000 1.829
57.62000 3.909
57.64000 2.952
57.66000 4.623
57.68000 5.714
57.70000 -0.112
57.72000 2.597
57.74000 2.827
57.76000 -2.521
57.78000 1.218
57.80000 6.706
57.82000 2.506
57.84000 0.094
57.86000 0.503
57.88000 0.655
57.90000 3.417
57.92000 2.568
57.94000 1.826
57.96000 4.631
57.98000 0.767
58.00000 0.673
58.02000 4.142
58.04000 -0.785
58.06000 1.310
58.08000 1.447
58.10000 0.368
58.12000 2.680
58.14000 5.831
58.16000 2.878
58.18000 2.209
58.20000 5.411
58.22000 6.644
58.24000 7.014
58.26000 4.001
58.28000 0.680
58.30000 -1.039
58.32000 -2.794
58.34000 -2.793
58.36000 -2.460
58.38000 1.496
58.40000 4.419
58.42000 1.906
58.44000 5.282
58.46000 4.656
58.48000 3.845
58.50000 5.369
58.52000 0.207
58.54000 0.175
58.56000 3.591
58.58000 2.640
58.60000 0.533
58.62000 -1.549
58.64000 2.235
58.66000 4.508
58.68000 6.010
58.70000 8.272
58.72000 8.944
58.74000 3.024
58.76000 -0.829
58.78000 4.546
58.80000 2.299
58.82000 6.568
58.84000 4.421
58.86000 0.740
58.88000 2.264
58.90000 4.169
58.92000 0.622
58.94000 1.752
58.96000 4.826
58.98000 6.885
59.00000 1.075
59.02000 0.055
59.04000 5.572
59.06000 0.831
59.08000 0.337
59.10000 0.705
59.12000 -2.763
59.14000 0.582
59.16000 3.310
59.18000 0.591
59.20000 2.541
59.22000 7.716
59.24000 4.977
59.26000 -0.852
59.28000 1.860
59.30000 0.341
59.32000 0.517
59.34000 -2.184
59.36000 1.344
59.38000 1.974
59.40000 -2.158
59.42000 2.321
59.44000 3.759
59.46000 2.553
59.48000 2.561
59.50000 5.270
59.52000 -0.115
59.54000 -2.142
59.56000 2.739
59.58000 5.926
59.60000 4.296
59.62000 -1.963
59.64000 -1.186
59.66000 -0.697
59.68000 0.849
59.70000 3.338
59.72000 4.142
59.74000 2.980
59.76000 5.011
59.78000 6.297
59.80000 4.259
59.82000 0.586
59.84000 1.469
59.86000 4.129
59.88000 4.561
59.90000 4.076
59.92000 3.554
59.94000 1.547
59.96000 -1.924
59.98000 1.564
60.00000 2.593
60.02000 6.181
60.04000 5.934
60.06000 7.536
60.08000 4.987
60.10000 1.134
60.12000 3.675
60.14000 6.786
60.16000 4.584
60.18000 2.246
60.20000 4.267
60.22000 3.176
60.24000 3.619
60.26000 2.605
60.28000 7.000
60.30000 8.593
60.32000 4.922
60.34000 7.548
60.36000 4.229
60.38000 1.713
60.40000 1.482
60.42000 3.395
60.44000 1.238
60.46000 1.478
60.48000 3.586
60.50000 4.103
60.52000 1.283
60.54000 -2.467
60.56000 0.178
60.58000 9.895
60.60000 8.813
60.62000 5.613
60.64000 2.930
60.66000 -2.659
60.68000 1.494
60.70000 2.162
60.72000 3.103
60.74000 3.811
60.76000 4.917
60.78000 5.837
60.80000 10.317
60.82000 5.488
60.84000 7.017
60.86000 8.652
60.88000 9.068
60.90000 4.737
60.92000 0.762
60.94000 -1.709
60.96000 -1.746
60.98000 3.920
61.00000 5.920
61.02000 5.110
61.04000 5.447
61.06000 9.852
61.08000 3.503
61.10000 6.237
61.12000 8.941
61.14000 3.036
61.16000 1.584
61.18000 0.359
61.20000 -0.860
61.22000 4.220
61.24000 3.748
61.26000 4.931
61.28000 6.128
61.30000 5.056
61.32000 4.349
61.34000 0.818
61.36000 4.045
61.38000 6.051
61.40000 4.399
61.42000 3.042
61.44000 0.956
61.46000 5.229
61.48000 7.324
61.50000 6.837
61.52000 4.306
61.54000 5.922
61.56000 2.952
61.58000 -1.485
61.60000 4.682
61.62000 4.169
61.64000 3.523
61.66000 6.575
61.68000 2.265
61.70000 4.572
61.72000 3.247
61.74000 2.511
61.76000 4.398
61.78000 7.186
61.80000 4.968
61.82000 -2.660
61.84000 2.044
61.86000 0.810
61.88000 -2.659
61.90000 0.018
61.92000 1.094
61.94000 -0.007
61.96000 2.031
61.98000 1.657
62.00000 5.382
62.02000 6.654
62.04000 2.108
62.06000 2.180
62.08000 1.325
62.10000 -0.964
62.12000 1.536
62.14000 0.856
62.16000 0.603
62.18000 -0.926
62.20000 4.156
62.22000 5.884
62.24000 7.317
62.26000 8.053
62.28000 4.674
62.30000 2.672
62.32000 5.673
62.34000 4.557
62.36000 8.312
62.38000 9.089
62.40000 2.330
62.42000 8.322
62.44000 4.458
62.46000 -2.641
62.48000 0.471
62.50000 2.163
62.52000 6.385
62.54000 4.014
62.56000 3.954
62.58000 5.750
62.60000 3.468
62.62000 3.613
62.64000 4.986
62.66000 2.913
62.68000 -2.098
62.70000 1.287
62.72000 2.772
62.74000 2.794
62.76000 5.191
62.78000 4.852
62.80000 3.543
62.82000 3.549
62.84000 0.875
62.86000 2.097
62.88000 2.914
62.90000 3.134
62.92000 3.346
62.94000 6.200
62.96000 1.973
62.98000 4.127
63.00000 6.931
63.02000 7.274
63.04000 5.906
63.06000 5.216
63.08000 6.510
63.10000 5.621
63.12000 3.737
63.14000 4.108
63.16000 0.328
63.18000 -0.133
63.20000 1.408
63.22000 2.106
63.24000 -2.645
63.26000 0.992
63.28000 4.450
63.30000 3.125
63.32000 4.984
63.34000 3.745
63.36000 2.211
63.38000 3.233
63.40000 -0.570
63.42000 0.243
63.44000 5.310
63.46000 6.391
63.48000 3.453
63.50000 4.682
63.52000 4.241
63.54000 6.019
63.56000 3.722
63.58000 1.711
63.60000 5.824
63.62000 12.460
63.64000 9.460
63.66000 4.798
63.68000 2.053
63.70000 2.825
63.72000 6.955
63.74000 6.370
63.76000 7.403
63.78000 6.923
63.80000 5.189
63.82000 1.927
63.84000 4.226
63.86000 2.036
63.88000 1.860
63.90000 0.566
63.92000 3.906
63.94000 1.175
63.96000 -1.401
63.98000 -2.672
64.00000 -1.138
64.02000 0.288
64.04000 1.240
64.06000 2.160
64.08000 0.979
64.10000 3.314
64.12000 6.681
64.14000 8.015
64.16000 3.614
64.18000 1.523
64.20000 2.923
64.22000 3.315
64.24000 2.744
64.26000 4.778
64.28000 3.101
64.30000 3.292
64.32000 5.675
64.34000 6.200
64.36000 4.698
64.38000 -0.222
64.40000 2.823
64.42000 3.811
64.44000 3.663
64.46000 6.658
64.48000 6.149
64.50000 4.095
64.52000 5.702
64.54000 2.905
64.56000 -1.163
64.58000 -2.218
64.60000 -2.130
64.62000 0.462
64.64000 2.305
64.66000 1.615
64.68000 1.786
64.70000 -1.877
64.72000 -1.739
64.74000 0.673
64.76000 1.050
64.78000 -2.454
64.80000 -0.613
64.82000 -1.774
64.84000 -0.168
64.86000 3.233
64.88000 -0.186
64.90000 4.620
64.92000 2.181
64.94000 -0.516
64.96000 -2.212
64.98000 -2.033
65.00000 -1.262
65.02000 -1.338
65.04000 -0.792
65.06000 0.074
65.08000 -0.906
65.10000 1.263
65.12000 1.656
65.14000 0.185
65.16000 3.785
65.18000 3.330
65.20000 1.195
65.22000 2.850
65.24000 1.700
65.26000 1.146
65.28000 0.108
65.30000 -0.561
65.32000 0.307
65.34000 -1.982
65.36000 -0.840
65.38000 -1.178
65.40000 1.698
65.42000 -1.455
65.44000 3.749
65.46000 9.183
65.48000 5.741
65.50000 2.509
65.52000 0.779
65.54000 0.034
65.56000 3.182
65.58000 6.101
65.60000 2.631
65.62000 -2.289
65.64000 -2.697
65.66000 0.659
65.68000 5.509
65.70000 4.196
65.72000 4.681
65.74000 4.134
65.76000 7.689
65.78000 7.814
65.80000 5.090
65.82000 1.805
65.84000 -1.697
65.86000 -1.403
65.88000 0.396
65.90000 1.701
65.92000 4.217
65.94000 2.889
65.96000 3.816
65.98000 1.616
66.00000 4.169
66.02000 5.262
66.04000 0.068
66.06000 -2.707
66.08000 -2.708
66.10000 1.672
66.12000 2.289
66.14000 2.361
66.16000 1.185
66.18000 -0.157
66.20000 0.441
66.22000 2.463
66.24000 2.115
66.26000 3.588
66.28000 3.953
66.30000 5.580
66.32000 4.889
66.34000 2.210
66.36000 0.250
66.38000 1.394
66.40000 4.764
66.42000 2.001
66.44000 0.722
66.46000 4.180
66.48000 2.204
66.50000 -2.049
66.52000 -2.306
66.54000 -2.563
66.56000 2.551
66.58000 3.879
66.60000 4.244
66.62000 1.476
66.64000 2.914
66.66000 4.876
66.68000 5.357
66.70000 8.682
66.72000 5.312
66.74000 0.371
66.76000 1.167
66.78000 4.134
66.80000 -0.807
66.82000 3.102
66.84000 7.986
66.86000 8.973
66.88000 12.186
66.90000 6.634
66.92000 6.543
66.94000 2.613
66.96000 5.156
66.98000 9.533
67.00000 9.918
67.02000 3.132
67.04000 2.505
67.06000 4.903
67.08000 6.780
67.10000 9.275
67.12000 10.708
67.14000 5.022
67.16000 2.226
67.18000 3.091
67.20000 5.029
67.22000 6.999
67.24000 6.036
67.26000 6.309
67.28000 5.513
67.30000 6.764
67.32000 4.957
67.34000 2.677
67.36000 4.320
67.38000 15.131
67.40000 12.286
67.42000 7.821
67.44000 7.081
67.46000 8.670
67.48000 9.399
67.50000 10.690
67.52000 15.838
67.54000 13.545
67.56000 11.657
67.58000 13.356
67.60000 12.785
67.62000 10.278
67.64000 6.738
67.66000 6.434
67.68000 11.287
67.70000 14.171
67.72000 12.156
67.74000 10.555
67.76000 14.270
67.78000 18.648
67.80000 17.502
67.82000 16.742
67.84000 15.273
67.86000 13.955
67.88000 11.597
67.90000 11.424
67.92000 20.396
67.94000 17.022
67.96000 14.854
67.98000 20.102
68.00000 18.135
68.02000 15.008
68.04000 15.629
68.06000 16.903
68.08000 18.971
68.10000 20.578
68.12000 23.261
68.14000 23.076
68.16000 22.866
68.18000 20.356
68.20000 18.510
68.22000 18.394
68.24000 19.336
68.26000 21.625
68.28000 28.254
68.30000 32.907
68.32000 28.761
68.34000 22.151
68.36000 26.436
68.38000 26.413
68.40000 26.480
68.42000 20.639
68.44000 25.375
68.46000 27.830
68.48000 31.765
68.50000 28.723
68.52000 32.789
68.54000 33.113
68.56000 27.553
68.58000 23.696
68.60000 22.721
68.62000 25.693
68.64000 25.732
68.66000 26.414
68.68000 30.688
68.70000 23.580
68.72000 25.519
68.74000 28.709
68.76000 23.715
68.78000 25.507
68.80000 24.889
68.82000 23.264
68.84000 22.432
68.86000 23.200
68.88000 20.863
68.90000 22.242
68.92000 26.288
68.94000 25.077
68.96000 22.816
68.98000 24.818
69.00000 25.572
69.02000 23.658
69.04000 24.453
69.06000 26.637
69.08000 16.282
69.10000 13.589
69.12000 16.811
69.14000 13.796
69.16000 12.305
69.18000 13.233
69.20000 16.288
69.22000 15.648
69.24000 17.662
69.26000 15.933
69.28000 12.981
69.30000 14.607
69.32000 14.953
69.34000 14.126
69.36000 11.054
69.38000 10.883
69.40000 9.563
69.42000 8.581
69.44000 8.980
69.46000 10.186
69.48000 7.615
69.50000 6.503
69.52000 6.435
69.54000 3.921
69.56000 6.400
69.58000 3.691
69.60000 6.180
69.62000 10.134
69.64000 5.883
69.66000 1.853
69.68000 6.061
69.70000 8.006
69.72000 6.753
69.74000 5.362
69.76000 5.964
69.78000 4.688
69.80000 5.355
69.82000 4.447
69.84000 5.899
69.86000 7.184
69.88000 4.811
69.90000 4.606
69.92000 5.638
69.94000 0.981
69.96000 0.409
69.98000 2.809
70.00000 -0.398
70.02000 -1.663
70.04000 1.419
70.06000 2.125
70.08000 0.369
70.10000 0.287
70.12000 2.792
70.14000 5.623
70.16000 5.305
70.18000 3.504
70.20000 5.088
70.22000 7.255
70.24000 4.188
70.26000 0.940
70.28000 -0.634
70.30000 4.202
70.32000 4.917
70.34000 6.020
70.36000 3.126
70.38000 5.495
70.40000 7.620
70.42000 3.567
70.44000 -2.319
70.46000 -2.602
70.48000 0.357
70.50000 5.120
70.52000 6.143
70.54000 6.380
70.56000 2.541
70.58000 4.964
70.60000 3.149
70.62000 1.394
70.64000 1.537
70.66000 2.049
70.68000 5.765
70.70000 7.741
70.72000 4.642
70.74000 6.238
70.76000 3.572
70.78000 -0.173
70.80000 -0.295
70.82000 1.985
70.84000 3.986
70.86000 3.867
70.88000 5.834
70.90000 1.444
70.92000 0.238
70.94000 -0.239
70.96000 1.985
70.98000 4.545
71.00000 1.334
71.02000 1.964
71.04000 2.388
71.06000 7.415
71.08000 7.029
71.10000 5.206
71.12000 3.845
71.14000 5.008
71.16000 2.452
71.18000 1.440
71.20000 1.520
71.22000 1.629
71.24000 2.025
71.26000 3.672
71.28000 0.596
71.30000 3.991
71.32000 5.919
71.34000 7.665
71.36000 7.449
71.38000 2.490
71.40000 0.939
71.42000 2.160
71.44000 0.457
71.46000 6.552
71.48000 3.679
71.50000 -2.517
71.52000 1.609
71.54000 1.406
71.56000 5.639
71.58000 1.462
71.60000 1.273
71.62000 8.269
71.64000 11.748
71.66000 6.766
71.68000 2.333
71.70000 6.335
71.72000 4.932
71.74000 1.843
71.76000 1.183
71.78000 2.875
71.80000 3.346
71.82000 5.816
71.84000 6.902
71.86000 1.960
71.88000 -1.102
71.90000 -2.512
71.92000 0.139
71.94000 5.414
71.96000 2.863
71.98000 4.674
72.00000 0.568
72.02000 -0.316
72.04000 3.145
72.06000 1.605
72.08000 0.068
72.10000 -0.254
72.12000 3.414
72.14000 5.525
72.16000 1.758
72.18000 3.120
72.20000 6.583
72.22000 2.594
72.24000 1.949
72.26000 2.540
72.28000 1.336
72.30000 2.570
72.32000 0.303
72.34000 -0.897
72.36000 3.729
72.38000 5.333
72.40000 4.471
72.42000 2.380
72.44000 3.762
72.46000 5.810
72.48000 7.667
72.50000 4.517
72.52000 -1.300
72.54000 1.454
72.56000 2.044
72.58000 1.368
72.60000 2.419
72.62000 1.522
72.64000 0.033
72.66000 2.872
72.68000 5.687
72.70000 7.642
72.72000 4.819
72.74000 0.194
72.76000 2.105
72.78000 3.902
72.80000 0.517
72.82000 0.817
72.84000 7.859
72.86000 5.832
72.88000 1.673
72.90000 1.301
72.92000 0.636
72.94000 1.313
72.96000 3.301
72.98000 2.093
73.00000 -2.474
73.02000 -0.149
73.04000 6.601
73.06000 2.201
73.08000 3.497
73.10000 3.175
73.12000 6.283
73.14000 0.594
73.16000 3.043
73.18000 0.265
73.20000 4.651
73.22000 7.249
73.24000 5.991
73.26000 3.896
73.28000 1.975
73.30000 1.344
73.32000 4.566
73.34000 3.353
73.36000 0.132
73.38000 1.602
73.40000 4.771
73.42000 7.353
73.44000 6.450
73.46000 5.569
73.48000 2.204
73.50000 0.944
73.52000 3.939
73.54000 5.483
73.56000 4.334
73.58000 6.375
73.60000 4.259
73.62000 3.136
73.64000 2.738
73.66000 5.535
73.68000 3.763
73.70000 2.676
73.72000 -1.808
73.74000 -0.943
73.76000 -1.322
73.78000 4.515
73.80000 5.502
73.82000 2.641
73.84000 2.820
73.86000 -0.501
73.88000 3.490
73.90000 1.693
73.92000 1.985
73.94000 3.879
73.96000 0.759
73.98000 1.416
74.00000 2.224
74.02000 5.009
74.04000 1.886
74.06000 0.011
74.08000 0.043
74.10000 1.572
74.12000 0.490
74.14000 -0.809
74.16000 5.846
74.18000 5.786
74.20000 5.016
74.22000 0.730
74.24000 -0.806
74.26000 1.017
74.28000 0.325
74.30000 0.288
74.32000 4.311
74.34000 5.899
74.36000 0.436
74.38000 -1.243
74.40000 8.125
74.42000 7.964
74.44000 5.506
74.46000 5.191
74.48000 5.514
74.50000 9.648
74.52000 4.420
74.54000 5.161
74.56000 -0.946
74.58000 -2.441
74.60000 5.314
74.62000 5.064
74.64000 4.321
74.66000 3.262
74.68000 4.413
74.70000 3.933
74.72000 9.690
74.74000 5.243
74.76000 2.789
74.78000 5.981
74.80000 5.770
74.82000 2.321
74.84000 2.256
74.86000 7.753
74.88000 8.321
74.90000 3.886
74.92000 1.626
74.94000 -1.646
74.96000 1.145
74.98000 7.286
75.00000 6.487
75.02000 4.794
75.04000 7.588
75.06000 2.155
75.08000 -0.113
75.10000 -1.274
75.12000 1.039
75.14000 1.054
75.16000 0.085
75.18000 4.752
75.20000 6.916
75.22000 3.586
75.24000 1.638
75.26000 1.371
75.28000 -2.347
75.30000 2.613
75.32000 2.738
75.34000 5.456
75.36000 5.328
75.38000 3.392
75.40000 0.094
75.42000 1.795
75.44000 5.496
75.46000 7.271
75.48000 6.993
75.50000 6.686
75.52000 -0.590
75.54000 -2.455
75.56000 2.626
75.58000 5.570
75.60000 1.149
75.62000 3.525
75.64000 2.955
75.66000 5.341
75.68000 4.726
75.70000 2.523
75.72000 1.438
75.74000 8.980
75.76000 10.396
75.78000 6.773
75.80000 9.551
75.82000 5.448
75.84000 5.483
75.86000 2.428
75.88000 7.365
75.90000 3.064
75.92000 3.631
75.94000 6.109
75.96000 8.743
75.98000 6.217
76.00000 2.766
76.02000 0.913
76.04000 4.600
76.06000 6.063
76.08000 5.448
76.10000 6.870
76.12000 8.393
76.14000 4.578
76.16000 6.587
76.18000 3.505
76.20000 3.728
76.22000 10.620
76.24000 9.566
76.26000 5.384
76.28000 1.819
76.30000 -0.100
76.32000 0.554
76.34000 1.694
76.36000 7.609
76.38000 5.759
76.40000 3.553
76.42000 6.977
76.44000 6.980
76.46000 7.037
76.48000 7.590
76.50000 -2.417
76.52000 3.225
76.54000 5.194
76.56000 7.633
76.58000 7.926
76.60000 1.347
76.62000 5.200
76.64000 10.091
76.66000 7.315
76.68000 5.510
76.70000 5.501
76.72000 5.116
76.74000 6.478
76.76000 7.329
76.78000 6.142
76.80000 7.879
76.82000 2.719
76.84000 0.925
76.86000 1.237
76.88000 -0.993
76.90000 2.562
76.92000 7.480
76.94000 6.845
76.96000 3.750
76.98000 -1.128
77.00000 3.504
77.02000 8.386
77.04000 3.927
77.06000 0.744
77.08000 1.461
77.10000 7.466
77.12000 1.458
77.14000 0.655
77.16000 7.231
77.18000 8.688
77.20000 3.979
77.22000 2.682
77.24000 2.404
77.26000 3.718
77.28000 2.634
77.30000 3.448
77.32000 6.205
77.34000 6.614
77.36000 3.189
77.38000 9.657
77.40000 7.155
77.42000 6.825
77.44000 3.048
77.46000 7.164
77.48000 7.397
77.50000 0.681
77.52000 0.629
77.54000 -0.555
77.56000 2.922
77.58000 3.078
77.60000 -0.131
77.62000 4.762
77.64000 7.217
77.66000 3.927
77.68000 5.862
77.70000 2.502
77.72000 2.550
77.74000 0.418
77.76000 2.773
77.78000 3.182
77.80000 2.319
77.82000 1.807
77.84000 4.317
77.86000 6.525
77.88000 5.130
77.90000 4.657
77.92000 -0.190
77.94000 -2.502
77.96000 -2.502
77.98000 7.303
78.00000 9.110
78.02000 3.381
78.04000 4.435
78.06000 4.854
78.08000 10.466
78.10000 4.307
78.12000 2.034
78.14000 3.537
78.16000 3.249
78.18000 1.814
78.20000 2.387
78.22000 2.951
78.24000 2.323
78.26000 3.400
78.28000 2.570
78.30000 1.521
78.32000 5.933
78.34000 -0.122
78.36000 -1.500
78.38000 -0.537
78.40000 2.789
78.42000 0.362
78.44000 1.332
78.46000 1.448
78.48000 2.486
78.50000 2.098
78.52000 0.540
78.54000 0.648
78.56000 -0.171
78.58000 -0.295
78.60000 0.930
78.62000 4.135
78.64000 4.005
78.66000 2.304
78.68000 1.740
78.70000 4.398
78.72000 5.700
78.74000 3.289
78.76000 1.442
78.78000 -1.868
78.80000 2.393
78.82000 2.826
78.84000 2.015
78.86000 1.166
78.88000 0.406
78.90000 1.026
78.92000 -0.617
78.94000 1.147
78.96000 4.521
78.98000 4.857
79.00000 3.508
79.02000 0.625
79.04000 -2.546
79.06000 0.045
79.08000 -0.853
79.10000 -2.550
79.12000 -0.976
79.14000 0.349
79.16000 2.378
79.18000 5.173
79.20000 5.911
79.22000 4.330
79.24000 4.081
79.26000 6.366
79.28000 5.262
79.30000 1.799
79.32000 3.892
79.34000 1.263
79.36000 1.231
79.38000 4.076
79.40000 2.156
79.42000 1.287
79.44000 2.284
79.46000 1.122
79.48000 1.342
79.50000 2.840
79.52000 1.170
79.54000 2.132
79.56000 3.082
79.58000 1.610
79.60000 5.221
79.62000 1.910
79.64000 4.472
79.66000 2.086
79.68000 5.419
79.70000 2.869
79.72000 -2.006
79.74000 -0.531
79.76000 1.089
79.78000 2.001
79.80000 1.549
79.82000 4.566
79.84000 -0.011
79.86000 -1.493
79.88000 -0.929
79.90000 0.077
79.92000 -1.495
79.94000 7.134
79.96000 4.960
79.98000 -0.158
80.00000 2.967
80.02000 0.294
80.04000 -1.336
80.06000 4.177
80.08000 5.360
80.10000 6.931
80.12000 5.014
80.14000 9.635
80.16000 6.588
80.18000 3.307
80.20000 3.931
80.22000 -2.172
80.24000 -2.622
80.26000 0.578
80.28000 1.333
80.30000 -1.552
80.32000 2.571
80.34000 4.877
80.36000 4.660
80.38000 5.442
80.40000 3.671
80.42000 1.831
80.44000 1.630
80.46000 0.582
80.48000 0.981
80.50000 5.852
80.52000 1.854
80.54000 -1.459
80.56000 5.346
80.58000 3.304
80.60000 10.636
80.62000 4.493
80.64000 1.541
80.66000 4.727
80.68000 -0.367
80.70000 1.788
80.72000 1.694
80.74000 5.026
80.76000 8.028
80.78000 0.263
80.80000 2.472
80.82000 2.566
80.84000 -2.259
80.86000 5.520
80.88000 4.441
80.90000 2.541
80.92000 -1.064
80.94000 6.219
80.96000 8.135
80.98000 3.029
81.00000 3.422
81.02000 1.125
81.04000 -1.151
81.06000 4.318
81.08000 4.218
81.10000 -2.728
81.12000 2.858
81.14000 4.687
81.16000 7.242
81.18000 9.439
81.20000 9.588
81.22000 6.749
81.24000 1.819
81.26000 5.086
81.28000 5.529
81.30000 3.910
81.32000 2.419
81.34000 3.757
81.36000 2.048
81.38000 9.790
81.40000 9.144
81.42000 4.173
81.44000 3.771
81.46000 -0.641
81.48000 -2.759
81.50000 1.160
81.52000 11.372
81.54000 10.355
81.56000 13.790
81.58000 11.779
81.60000 6.488
81.62000 4.606
81.64000 7.730
81.66000 2.618
81.68000 5.512
81.70000 8.371
81.72000 13.839
81.74000 15.882
81.76000 8.083
81.78000 10.155
81.80000 13.736
81.82000 11.253
81.84000 11.682
81.86000 17.440
81.88000 17.434
81.90000 15.856
81.92000 11.826
81.94000 10.317
81.96000 12.217
81.98000 15.293
82.00000 15.895
82.02000 12.625
82.04000 14.501
82.06000 20.914
82.08000 13.894
82.10000 12.747
82.12000 14.163
82.14000 14.989
82.16000 15.917
82.18000 17.506
82.20000 20.367
82.22000 19.613
82.24000 25.520
82.26000 20.259
82.28000 19.445
82.30000 22.712
82.32000 22.048
82.34000 18.790
82.36000 17.844
82.38000 18.450
82.40000 20.728
82.42000 24.654
82.44000 23.613
82.46000 20.407
82.48000 19.819
82.50000 26.013
82.52000 21.946
82.54000 22.029
82.56000 32.714
82.58000 29.160
82.60000 25.498
82.62000 23.927
82.64000 23.581
82.66000 22.513
82.68000 23.334
82.70000 23.350
82.72000 25.622
82.74000 21.744
82.76000 21.205
82.78000 26.479
82.80000 20.593
82.82000 30.723
82.84000 29.912
82.86000 25.221
82.88000 22.388
82.90000 20.639
82.92000 22.489
82.94000 27.635
82.96000 34.577
82.98000 23.710
83.00000 18.080
83.02000 22.831
83.04000 20.911
83.06000 26.053
83.08000 26.308
83.10000 24.863
83.12000 20.408
83.14000 24.852
83.16000 27.374
83.18000 24.663
83.20000 23.119
83.22000 24.059
83.24000 28.492
83.26000 26.928
83.28000 17.872
83.30000 15.691
83.32000 18.545
83.34000 21.966
83.36000 22.188
83.38000 15.106
83.40000 16.738
83.42000 18.732
83.44000 17.124
83.46000 11.440
83.48000 15.344
83.50000 14.434
83.52000 16.515
83.54000 16.742
83.56000 12.587
83.58000 10.189
83.60000 13.387
83.62000 16.327
83.64000 23.889
83.66000 20.037
83.68000 11.261
83.70000 13.906
83.72000 15.285
83.74000 13.485
83.76000 15.599
83.78000 14.631
83.80000 9.363
83.82000 10.234
83.84000 8.855
83.86000 12.346
83.88000 14.099
83.90000 14.657
83.92000 14.289
83.94000 10.691
83.96000 4.693
83.98000 12.386
84.00000 8.898
84.02000 2.863
84.04000 5.102
84.06000 9.667
84.08000 16.081
84.10000 12.670
84.12000 6.720
84.14000 -0.598
84.16000 -1.996
84.18000 2.565
84.20000 5.149
84.22000 6.566
84.24000 7.551
84.26000 4.064
84.28000 -1.424
84.30000 2.233
84.32000 4.263
84.34000 4.664
84.36000 5.840
84.38000 3.929
84.40000 4.626
84.42000 6.455
84.44000 12.257
84.46000 6.319
84.48000 0.047
84.50000 0.403
84.52000 3.882
84.54000 4.173
84.56000 9.120
84.58000 7.352
84.60000 6.728
84.62000 9.580
84.64000 6.055
84.66000 3.581
84.68000 7.009
84.70000 3.484
84.72000 -2.625
84.74000 1.543
84.76000 1.758
84.78000 0.240
84.80000 0.009
84.82000 1.248
84.84000 -1.012
84.86000 -0.099
84.88000 3.805
84.90000 2.225
84.92000 0.490
84.94000 3.120
84.96000 0.585
84.98000 -2.604
85.00000 -0.531
85.02000 7.468
85.04000 10.205
85.06000 6.381
85.08000 3.682
85.10000 3.065
85.12000 3.986
85.14000 6.256
85.16000 7.400
85.18000 2.070
85.20000 5.750
85.22000 7.592
85.24000 1.853
85.26000 1.940
85.28000 4.341
85.30000 7.852
85.32000 4.357
85.34000 1.628
85.36000 4.796
85.38000 3.865
85.40000 2.663
85.42000 3.536
85.44000 4.028
85.46000 3.965
85.48000 6.306
85.50000 4.382
85.52000 -2.578
85.54000 -2.577
85.56000 1.369
85.58000 1.955
85.60000 4.439
85.62000 5.017
85.64000 10.025
85.66000 9.798
85.68000 10.697
85.70000 5.996
85.72000 0.229
85.74000 -0.017
85.76000 -0.484
85.78000 1.180
85.80000 3.290
85.82000 2.111
85.84000 3.589
85.86000 9.980
85.88000 6.177
85.90000 4.432
85.92000 4.328
85.94000 4.956
85.96000 4.108
85.98000 2.822
86.00000 6.212
86.02000 5.713
86.04000 2.777
86.06000 5.366
86.08000 7.471
86.10000 7.217
86.12000 12.725
86.14000 9.792
86.16000 8.478
86.18000 7.680
86.20000 3.942
86.22000 5.897
86.24000 10.761
86.26000 10.615
86.28000 5.211
86.30000 5.343
86.32000 12.012
86.34000 11.465
86.36000 12.019
86.38000 13.968
86.40000 12.649
86.42000 10.590
86.44000 15.649
86.46000 19.768
86.48000 17.908
86.50000 18.495
86.52000 19.918
86.54000 24.295
86.56000 19.589
86.58000 14.384
86.60000 19.957
86.62000 17.753
86.64000 15.166
86.66000 19.906
86.68000 24.337
86.70000 23.751
86.72000 21.509
86.74000 21.244
86.76000 24.462
86.78000 22.070
86.80000 21.418
86.82000 18.015
86.84000 15.933
86.86000 26.146
86.88000 30.093
86.90000 28.346
86.92000 31.399
86.94000 28.909
86.96000 21.405
86.98000 25.427
87.00000 26.026
87.02000 22.333
87.04000 28.061
87.06000 32.403
87.08000 36.617
87.10000 35.151
87.12000 33.571
87.14000 35.826
87.16000 32.602
87.18000 29.684
87.20000 32.677
87.22000 29.980
87.24000 26.163
87.26000 24.885
87.28000 28.253
87.30000 34.045
87.32000 33.247
87.34000 35.607
87.36000 31.760
87.38000 27.222
87.40000 27.230
87.42000 25.460
87.44000 31.194
87.46000 34.034
87.48000 31.550
87.50000 33.713
87.52000 27.875
87.54000 31.420
87.56000 33.521
87.58000 27.340
87.60000 27.681
87.62000 22.527
87.64000 27.869
87.66000 29.118
87.68000 23.774
87.70000 19.098
87.72000 20.723
87.74000 26.312
87.76000 25.655
87.78000 22.806
87.80000 18.002
87.82000 18.148
87.84000 20.961
87.86000 14.685
87.88000 11.848
87.90000 11.610
87.92000 15.453
87.94000 16.458
87.96000 23.732
87.98000 23.538
88.00000 24.460
88.02000 16.077
88.04000 14.221
88.06000 19.594
88.08000 20.120
88.10000 11.720
88.12000 10.947
88.14000 14.247
88.16000 13.842
88.18000 16.110
88.20000 16.267
88.22000 13.136
88.24000 13.104
88.26000 8.210
88.28000 4.029
88.30000 6.761
88.32000 5.959
88.34000 9.298
88.36000 13.412
88.38000 14.617
88.40000 8.312
88.42000 6.927
88.44000 9.421
88.46000 5.312
88.48000 6.582
88.50000 6.045
88.52000 5.275
88.54000 0.914
88.56000 3.024
88.58000 7.409
88.60000 2.076
88.62000 1.025
88.64000 -2.472
88.66000 -1.085
88.68000 7.960
88.70000 5.860
88.72000 1.975
88.74000 1.371
88.76000 6.217
88.78000 3.865
88.80000 7.190
88.82000 1.654
88.84000 7.248
88.86000 5.439
88.88000 6.720
88.90000 7.699
88.92000 8.780
88.94000 6.008
88.96000 2.787
88.98000 1.368
89.00000 2.891
89.02000 3.034
89.04000 8.038
89.06000 10.496
89.08000 6.991
89.10000 -0.571
89.12000 -1.452
89.14000 1.119
89.16000 1.196
89.18000 -0.267
89.20000 1.793
89.22000 3.609
89.24000 -0.547
89.26000 1.783
89.28000 6.984
89.30000 4.988
89.32000 0.012
89.34000 1.131
89.36000 -0.890
89.38000 -0.092
89.40000 1.441
89.42000 3.193
89.44000 5.158
89.46000 1.451
89.48000 5.532
89.50000 -0.108
89.52000 -0.590
89.54000 -0.539
89.56000 4.840
89.58000 2.737
89.60000 4.197
89.62000 4.884
89.64000 3.771
89.66000 1.205
89.68000 -0.383
89.70000 0.891
89.72000 5.156
89.74000 0.453
89.76000 2.730
89.78000 0.315
89.80000 -0.550
89.82000 -2.379
89.84000 2.081
89.86000 6.142
89.88000 5.610
89.90000 3.430
89.92000 3.343
89.94000 3.961
89.96000 0.727
89.98000 4.711
90.00000 8.869
90.02000 7.137
90.04000 6.095
90.06000 4.960
90.08000 4.745
90.10000 6.221
90.12000 3.376
90.14000 -0.701
90.16000 -2.337
90.18000 -0.230
90.20000 2.331
90.22000 1.984
90.24000 2.651
90.26000 5.166
90.28000 6.954
90.30000 3.475
90.32000 2.362
90.34000 0.627
90.36000 0.366
90.38000 4.951
90.40000 1.430
90.42000 -0.250
90.44000 0.473
90.46000 1.162
90.48000 -1.307
90.50000 0.397
90.52000 3.929
90.54000 7.966
90.56000 10.139
90.58000 3.789
90.60000 1.248
90.62000 7.437
90.64000 5.373
90.66000 5.585
90.68000 2.518
90.70000 6.007
90.72000 3.525
90.74000 -2.348
90.76000 5.758
90.78000 5.317
90.80000 3.403
90.82000 6.967
90.84000 5.034
90.86000 4.499
90.88000 1.957
90.90000 1.177
90.92000 0.705
90.94000 -0.181
90.96000 2.498
90.98000 1.352
91.00000 7.384
91.02000 5.692
91.04000 5.225
91.06000 3.834
91.08000 0.069
91.10000 4.276
91.12000 9.283
91.14000 7.214
91.16000 8.282
91.18000 8.735
91.20000 10.238
91.22000 5.436
91.24000 5.943
91.26000 3.911
91.28000 0.957
91.30000 0.588
91.32000 5.204
91.34000 11.027
91.36000 8.707
91.38000 6.710
91.40000 6.652
91.42000 2.002
91.44000 2.974
91.46000 1.761
91.48000 1.685
91.50000 1.267
91.52000 1.083
91.54000 4.231
91.56000 1.700
91.58000 0.029
91.60000 1.640
91.62000 3.993
91.64000 7.716
91.66000 10.304
91.68000 10.196
91.70000 4.943
91.72000 4.490
91.74000 4.225
91.76000 5.712
91.78000 1.291
91.80000 2.988
91.82000 0.692
91.84000 -2.309
91.86000 2.867
91.88000 8.236
91.90000 4.707
91.92000 0.501
91.94000 0.133
91.96000 3.654
91.98000 9.208
92.00000 9.307
92.02000 6.890
92.04000 4.742
92.06000 6.680
92.08000 4.575
92.10000 5.171
92.12000 12.234
92.14000 6.415
92.16000 8.722
92.18000 5.499
92.20000 11.357
92.22000 16.569
92.24000 8.292
92.26000 7.025
92.28000 8.045
92.30000 5.983
92.32000 5.903
92.34000 6.410
92.36000 3.076
92.38000 3.589
92.40000 4.232
92.42000 4.236
92.44000 4.830
92.46000 7.759
92.48000 4.181
92.50000 1.935
92.52000 9.214
92.54000 15.558
92.56000 10.571
92.58000 7.831
92.60000 6.278
92.62000 5.313
92.64000 3.417
92.66000 6.045
92.68000 4.002
92.70000 -1.597
92.72000 0.756
92.74000 6.061
92.76000 8.290
92.78000 10.823
92.80000 10.590
92.82000 5.796
92.84000 5.965
92.86000 7.220
92.88000 9.895
92.90000 6.792
92.92000 6.063
92.94000 4.378
92.96000 5.423
92.98000 -2.270
93.00000 0.781
93.02000 7.352
93.04000 6.007
93.06000 5.930
93.08000 4.613
93.10000 4.914
93.12000 5.426
93.14000 7.728
93.16000 8.982
93.18000 6.740
93.20000 6.172
93.22000 10.839
93.24000 4.661
93.26000 5.182
93.28000 3.862
93.30000 5.156
93.32000 2.210
93.34000 3.064
93.36000 3.769
93.38000 0.717
93.40000 0.468
93.42000 6.246
93.44000 4.071
93.46000 3.992
93.48000 7.116
93.50000 9.647
93.52000 9.824
93.54000 8.376
93.56000 10.364
93.58000 3.607
93.60000 4.017
93.62000 8.141
93.64000 6.305
93.66000 8.557
93.68000 6.653
93.70000 6.568
93.72000 3.943
93.74000 2.789
93.76000 3.786
93.78000 3.904
93.80000 8.097
93.82000 9.193
93.84000 6.599
93.86000 7.619
93.88000 1.623
93.90000 3.515
93.92000 0.907
93.94000 0.932
93.96000 4.072
93.98000 0.935
94.00000 6.190
94.02000 6.069
94.04000 1.854
94.06000 5.778
94.08000 4.304
94.10000 -1.448
94.12000 3.668
94.14000 3.797
94.16000 4.830
94.18000 -2.332
94.20000 2.117
94.22000 5.537
94.24000 3.158
94.26000 2.104
94.28000 -0.019
94.30000 2.851
94.32000 3.389
94.34000 3.473
94.36000 1.918
94.38000 2.817
94.40000 4.652
94.42000 2.576
94.44000 1.484
94.46000 4.860
94.48000 5.891
94.50000 3.053
94.52000 3.989
94.54000 6.147
94.56000 8.578
94.58000 3.841
94.60000 -0.371
94.62000 0.262
94.64000 6.557
94.66000 8.277
94.68000 7.403
94.70000 6.220
94.72000 3.418
94.74000 4.882
94.76000 10.848
94.78000 6.324
94.80000 5.596
94.82000 3.492
94.84000 5.199
94.86000 2.580
94.88000 0.423
94.90000 4.662
94.92000 -0.195
94.94000 2.956
94.96000 6.446
94.98000 6.748
95.00000 5.298
95.02000 10.147
95.04000 2.196
95.06000 1.135
95.08000 4.092
95.10000 6.730
95.12000 10.488
95.14000 13.329
95.16000 6.764
95.18000 0.513
95.20000 1.337
95.22000 8.445
95.24000 9.789
95.26000 7.089
95.28000 8.391
95.30000 8.317
95.32000 9.154
95.34000 6.824
95.36000 9.864
95.38000 7.739
95.40000 6.602
95.42000 4.246
95.44000 1.184
95.46000 3.406
95.48000 6.159
95.50000 5.544
95.52000 6.599
95.54000 4.475
95.56000 4.904
95.58000 3.035
95.60000 5.836
95.62000 6.464
95.64000 7.278
95.66000 5.460
95.68000 5.000
95.70000 10.181
95.72000 11.027
95.74000 4.762
95.76000 6.319
95.78000 5.118
95.80000 -2.301
95.82000 1.423
95.84000 7.491
95.86000 7.975
95.88000 5.290
95.90000 7.561
95.92000 6.132
95.94000 11.816
95.96000 8.061
95.98000 7.583
96.00000 6.449
96.02000 6.596
96.04000 13.602
96.06000 11.255
96.08000 7.696
96.10000 9.365
96.12000 11.688
96.14000 10.583
96.16000 12.531
96.18000 8.316
96.20000 5.010
96.22000 2.136
96.24000 8.788
96.26000 6.774
96.28000 6.724
96.30000 6.518
96.32000 5.472
96.34000 6.517
96.36000 10.736
96.38000 7.909
96.40000 5.358
96.42000 6.284
96.44000 3.374
96.46000 3.218
96.48000 1.776
96.50000 6.406
96.52000 7.581
96.54000 6.821
96.56000 8.691
96.58000 9.025
96.60000 11.940
96.62000 6.515
96.64000 9.242
96.66000 12.986
96.68000 6.638
96.70000 7.429
96.72000 14.434
96.74000 10.279
96.76000 2.864
96.78000 9.899
96.80000 12.598
96.82000 11.942
96.84000 17.340
96.86000 18.852
96.88000 12.934
96.90000 9.301
96.92000 8.463
96.94000 12.594
96.96000 7.257
96.98000 1.209
97.00000 -2.252
97.02000 1.424
97.04000 7.324
97.06000 14.378
97.08000 19.513
97.10000 13.451
97.12000 14.603
97.14000 6.274
97.16000 5.199
97.18000 8.052
97.20000 10.934
97.22000 18.122
97.24000 17.891
97.26000 11.243
97.28000 6.954
97.30000 6.835
97.32000 7.509
97.34000 9.762
97.36000 12.655
97.38000 11.448
97.40000 15.280
97.42000 14.318
97.44000 8.381
97.46000 6.882
97.48000 6.052
97.50000 10.706
97.52000 17.601
97.54000 12.357
97.56000 7.466
97.58000 9.379
97.60000 6.975
97.62000 9.184
97.64000 10.200
97.66000 11.984
97.68000 11.619
97.70000 6.848
97.72000 7.715
97.74000 3.259
97.76000 5.586
97.78000 6.427
97.80000 7.355
97.82000 5.205
97.84000 7.438
97.86000 10.042
97.88000 16.586
97.90000 13.599
97.92000 12.505
97.94000 10.377
97.96000 14.321
97.98000 12.674
98.00000 9.628
98.02000 10.428
98.04000 14.879
98.06000 14.164
98.08000 9.314
98.10000 7.927
98.12000 7.454
98.14000 2.877
98.16000 6.754
98.18000 3.503
98.20000 5.824
98.22000 11.127
98.24000 10.309
98.26000 7.959
98.28000 3.438
98.30000 7.872
98.32000 5.991
98.34000 6.002
98.36000 11.976
98.38000 10.348
98.40000 12.700
98.42000 6.679
98.44000 -0.795
98.46000 7.591
98.48000 18.615
98.50000 15.059
98.52000 9.444
98.54000 8.175
98.56000 -1.444
98.58000 2.151
98.60000 14.015
98.62000 13.624
98.64000 7.475
98.66000 13.214
98.68000 11.412
98.70000 3.336
98.72000 3.997
98.74000 15.480
98.76000 9.424
98.78000 15.682
98.80000 18.136
98.82000 11.882
98.84000 6.975
98.86000 14.022
98.88000 11.011
98.90000 11.366
98.92000 10.194
98.94000 14.593
98.96000 12.167
98.98000 -2.179
99.00000 -1.369
99.02000 6.370
99.04000 8.794
99.06000 8.708
99.08000 15.711
99.10000 12.964
99.12000 14.260
99.14000 13.691
99.16000 10.625
99.18000 14.243
99.20000 15.845
99.22000 9.375
99.24000 7.186
99.26000 5.221
99.28000 0.788
99.30000 9.715
99.32000 9.864
99.34000 18.101
99.36000 17.156
99.38000 14.402
99.40000 10.326
99.42000 11.632
99.44000 7.212
99.46000 10.247
99.48000 15.364
99.50000 11.221
99.52000 8.568
99.54000 17.098
99.56000 6.869
99.58000 6.535
99.60000 17.773
99.62000 9.651
99.64000 1.654
99.66000 8.956
99.68000 4.996
99.70000 -4.110
99.72000 6.539
99.74000 3.556
99.76000 1.528
99.78000 -2.310
99.80000 -2.109
99.82000 4.313
99.84000 13.864
99.86000 6.971
99.88000 -2.387
99.90000 1.890
99.92000 7.813
99.94000 13.637
99.96000 -4.999
99.98000 0.000
