'Id: "0011387" Comment: "Integrate frame 0011387_Au-Ir-Rh_Rh-rich_XRD-Mapping-127-0000.gfrmwith cursor Wedge Cursor #5" Operator: "B?rgel" Anode: "Cu" Wavelength: "1.5406" Scantype: "2Theta (TwoTheta)" TimePerStep: "1" X: "9" Y: "-9" Z: "5.95" 
10.00000 0.000
10.02000 0.635
10.04000 10.962
10.06000 2.694
10.08000 -9.901
10.10000 14.715
10.12000 29.394
10.14000 19.086
10.16000 7.199
10.18000 2.319
10.20000 5.441
10.22000 14.889
10.24000 27.489
10.26000 22.033
10.28000 4.229
10.30000 10.697
10.32000 6.834
10.34000 3.640
10.36000 3.364
10.38000 7.845
10.40000 4.539
10.42000 10.809
10.44000 4.350
10.46000 7.804
10.48000 12.459
10.50000 15.308
10.52000 10.716
10.54000 13.340
10.56000 15.553
10.58000 25.419
10.60000 15.468
10.62000 10.925
10.64000 6.584
10.66000 9.048
10.68000 -0.025
10.70000 4.972
10.72000 9.074
10.74000 0.953
10.76000 9.524
10.78000 13.969
10.80000 7.441
10.82000 6.707
10.84000 6.290
10.86000 -2.404
10.88000 -1.970
10.90000 13.293
10.92000 19.002
10.94000 17.718
10.96000 8.802
10.98000 23.175
11.00000 13.765
11.02000 17.858
11.04000 14.011
11.06000 23.629
11.08000 26.836
11.10000 21.762
11.12000 14.994
11.14000 22.075
11.16000 17.677
11.18000 14.432
11.20000 17.057
11.22000 29.899
11.24000 26.808
11.26000 21.306
11.28000 8.124
11.30000 8.775
11.32000 5.202
11.34000 2.896
11.36000 12.671
11.38000 11.658
11.40000 7.561
11.42000 6.347
11.44000 8.729
11.46000 6.377
11.48000 7.865
11.50000 8.742
11.52000 10.602
11.54000 10.997
11.56000 10.686
11.58000 18.510
11.60000 19.087
11.62000 22.193
11.64000 4.925
11.66000 9.311
11.68000 18.370
11.70000 15.766
11.72000 17.712
11.74000 17.542
11.76000 10.918
11.78000 1.115
11.80000 -3.450
11.82000 10.491
11.84000 18.316
11.86000 4.539
11.88000 3.558
11.90000 5.964
11.92000 14.585
11.94000 11.207
11.96000 4.272
11.98000 2.995
12.00000 2.929
12.02000 14.121
12.04000 13.830
12.06000 12.891
12.08000 18.316
12.10000 26.943
12.12000 20.010
12.14000 19.800
12.16000 14.089
12.18000 11.674
12.20000 19.576
12.22000 5.505
12.24000 9.919
12.26000 19.342
12.28000 17.922
12.30000 19.084
12.32000 13.810
12.34000 11.995
12.36000 16.186
12.38000 20.910
12.40000 5.411
12.42000 12.727
12.44000 23.418
12.46000 19.004
12.48000 28.193
12.50000 21.072
12.52000 22.452
12.54000 32.613
12.56000 22.563
12.58000 5.795
12.60000 21.208
12.62000 14.422
12.64000 13.233
12.66000 15.274
12.68000 13.917
12.70000 19.558
12.72000 29.817
12.74000 27.709
12.76000 10.322
12.78000 10.026
12.80000 16.657
12.82000 16.761
12.84000 21.995
12.86000 23.688
12.88000 10.585
12.90000 7.151
12.92000 12.564
12.94000 11.190
12.96000 13.951
12.98000 19.003
13.00000 17.857
13.02000 18.191
13.04000 21.302
13.06000 12.350
13.08000 12.476
13.10000 15.423
13.12000 9.538
13.14000 20.166
13.16000 17.133
13.18000 10.998
13.20000 12.254
13.22000 13.840
13.24000 4.009
13.26000 -3.429
13.28000 -1.737
13.30000 0.003
13.32000 -3.261
13.34000 10.418
13.36000 8.802
13.38000 2.596
13.40000 14.096
13.42000 19.907
13.44000 21.691
13.46000 15.508
13.48000 6.324
13.50000 13.650
13.52000 4.418
13.54000 2.898
13.56000 6.346
13.58000 6.819
13.60000 1.884
13.62000 -0.419
13.64000 3.695
13.66000 8.576
13.68000 7.511
13.70000 1.746
13.72000 10.858
13.74000 4.933
13.76000 11.478
13.78000 21.105
13.80000 17.094
13.82000 11.962
13.84000 15.801
13.86000 10.325
13.88000 11.936
13.90000 9.838
13.92000 -1.009
13.94000 2.942
13.96000 -0.525
13.98000 1.669
14.00000 3.025
14.02000 15.343
14.04000 14.670
14.06000 12.643
14.08000 11.626
14.10000 11.193
14.12000 14.705
14.14000 6.249
14.16000 9.771
14.18000 7.424
14.20000 3.845
14.22000 -0.868
14.24000 4.854
14.26000 3.260
14.28000 5.019
14.30000 -4.443
14.32000 -1.358
14.34000 8.968
14.36000 9.845
14.38000 10.372
14.40000 6.786
14.42000 6.456
14.44000 0.299
14.46000 5.185
14.48000 10.216
14.50000 3.629
14.52000 3.956
14.54000 11.695
14.56000 16.303
14.58000 18.992
14.60000 8.052
14.62000 6.450
14.64000 4.704
14.66000 8.444
14.68000 16.308
14.70000 6.865
14.72000 0.039
14.74000 -1.136
14.76000 5.349
14.78000 -0.599
14.80000 6.665
14.82000 9.666
14.84000 4.036
14.86000 12.154
14.88000 18.968
14.90000 20.646
14.92000 7.391
14.94000 1.902
14.96000 4.858
14.98000 6.642
15.00000 11.105
15.02000 12.544
15.04000 6.758
15.06000 8.484
15.08000 1.190
15.10000 1.999
15.12000 -3.079
15.14000 -0.799
15.16000 3.045
15.18000 8.885
15.20000 10.055
15.22000 9.575
15.24000 5.482
15.26000 9.698
15.28000 10.699
15.30000 9.703
15.32000 11.739
15.34000 5.810
15.36000 8.129
15.38000 10.886
15.40000 8.391
15.42000 6.578
15.44000 5.910
15.46000 8.572
15.48000 8.274
15.50000 0.321
15.52000 2.778
15.54000 11.221
15.56000 16.861
15.58000 14.059
15.60000 10.497
15.62000 3.356
15.64000 5.744
15.66000 0.570
15.68000 6.253
15.70000 2.870
15.72000 4.991
15.74000 10.135
15.76000 5.467
15.78000 1.805
15.80000 8.025
15.82000 6.518
15.84000 4.353
15.86000 0.100
15.88000 2.768
15.90000 9.408
15.92000 7.027
15.94000 -4.425
15.96000 -2.298
15.98000 -3.992
16.00000 -1.667
16.02000 2.418
16.04000 9.941
16.06000 11.964
16.08000 10.285
16.10000 8.274
16.12000 9.663
16.14000 5.710
16.16000 0.419
16.18000 5.037
16.20000 4.870
16.22000 5.373
16.24000 14.303
16.26000 11.805
16.28000 9.111
16.30000 4.306
16.32000 -4.233
16.34000 -2.747
16.36000 3.694
16.38000 6.185
16.40000 10.736
16.42000 2.493
16.44000 9.000
16.46000 21.375
16.48000 10.489
16.50000 14.020
16.52000 19.816
16.54000 5.490
16.56000 4.435
16.58000 -2.372
16.60000 -1.782
16.62000 1.595
16.64000 6.299
16.66000 3.815
16.68000 3.541
16.70000 1.769
16.72000 4.109
16.74000 13.753
16.76000 8.007
16.78000 -2.018
16.80000 -2.480
16.82000 8.264
16.84000 16.947
16.86000 13.515
16.88000 7.142
16.90000 2.332
16.92000 9.300
16.94000 4.382
16.96000 5.161
16.98000 1.989
17.00000 11.694
17.02000 14.216
17.04000 8.966
17.06000 3.910
17.08000 6.960
17.10000 9.144
17.12000 5.506
17.14000 10.594
17.16000 19.711
17.18000 13.295
17.20000 15.094
17.22000 9.771
17.24000 9.535
17.26000 8.454
17.28000 2.990
17.30000 3.439
17.32000 5.445
17.34000 14.926
17.36000 18.650
17.38000 8.945
17.40000 -4.324
17.42000 6.454
17.44000 10.491
17.46000 1.907
17.48000 10.417
17.50000 7.399
17.52000 8.436
17.54000 8.465
17.56000 7.685
17.58000 5.040
17.60000 2.681
17.62000 5.147
17.64000 4.524
17.66000 13.883
17.68000 11.525
17.70000 2.659
17.72000 5.440
17.74000 9.232
17.76000 9.001
17.78000 8.700
17.80000 8.106
17.82000 9.057
17.84000 4.449
17.86000 5.645
17.88000 12.157
17.90000 4.797
17.92000 3.437
17.94000 9.698
17.96000 4.892
17.98000 1.924
18.00000 6.155
18.02000 6.397
18.04000 7.920
18.06000 4.316
18.08000 2.805
18.10000 7.632
18.12000 5.052
18.14000 3.897
18.16000 6.583
18.18000 4.240
18.20000 2.055
18.22000 5.206
18.24000 9.574
18.26000 3.815
18.28000 6.851
18.30000 2.612
18.32000 6.732
18.34000 8.825
18.36000 9.038
18.38000 8.055
18.40000 6.772
18.42000 12.056
18.44000 4.610
18.46000 1.624
18.48000 6.531
18.50000 10.643
18.52000 6.531
18.54000 7.013
18.56000 9.821
18.58000 6.702
18.60000 4.424
18.62000 -4.276
18.64000 1.650
18.66000 2.737
18.68000 12.699
18.70000 13.646
18.72000 4.508
18.74000 1.702
18.76000 0.946
18.78000 9.876
18.80000 8.941
18.82000 5.290
18.84000 4.311
18.86000 5.670
18.88000 0.451
18.90000 2.945
18.92000 6.792
18.94000 6.411
18.96000 1.814
18.98000 1.538
19.00000 10.089
19.02000 9.768
19.04000 6.426
19.06000 1.841
19.08000 0.815
19.10000 5.976
19.12000 7.709
19.14000 5.438
19.16000 4.293
19.18000 8.407
19.20000 8.733
19.22000 12.559
19.24000 5.692
19.26000 3.653
19.28000 1.691
19.30000 2.787
19.32000 4.580
19.34000 5.516
19.36000 0.502
19.38000 3.827
19.40000 14.143
19.42000 13.505
19.44000 11.889
19.46000 1.675
19.48000 6.788
19.50000 6.534
19.52000 1.455
19.54000 -0.834
19.56000 7.585
19.58000 5.753
19.60000 -2.634
19.62000 3.658
19.64000 6.200
19.66000 1.483
19.68000 -1.087
19.70000 1.741
19.72000 7.768
19.74000 7.555
19.76000 5.671
19.78000 7.662
19.80000 6.448
19.82000 5.371
19.84000 11.148
19.86000 7.582
19.88000 3.414
19.90000 5.572
19.92000 7.268
19.94000 11.273
19.96000 6.886
19.98000 3.951
20.00000 8.793
20.02000 9.639
20.04000 9.301
20.06000 8.498
20.08000 11.983
20.10000 11.153
20.12000 9.039
20.14000 2.393
20.16000 -4.166
20.18000 -0.730
20.20000 7.779
20.22000 12.037
20.24000 10.507
20.26000 11.487
20.28000 10.155
20.30000 7.221
20.32000 9.006
20.34000 5.456
20.36000 6.879
20.38000 7.121
20.40000 8.476
20.42000 1.479
20.44000 5.235
20.46000 -0.953
20.48000 2.081
20.50000 2.418
20.52000 1.603
20.54000 4.684
20.56000 6.580
20.58000 6.360
20.60000 7.709
20.62000 2.086
20.64000 9.176
20.66000 10.645
20.68000 7.671
20.70000 10.829
20.72000 5.876
20.74000 7.716
20.76000 2.324
20.78000 6.722
20.80000 7.165
20.82000 6.415
20.84000 2.989
20.86000 3.850
20.88000 6.942
20.90000 2.936
20.92000 0.918
20.94000 12.563
20.96000 8.350
20.98000 10.147
21.00000 10.739
21.02000 3.245
21.04000 -1.503
21.06000 0.211
21.08000 -3.256
21.10000 5.132
21.12000 4.341
21.14000 -1.196
21.16000 -1.124
21.18000 5.080
21.20000 4.921
21.22000 4.270
21.24000 1.807
21.26000 2.232
21.28000 2.286
21.30000 2.514
21.32000 6.580
21.34000 3.425
21.36000 3.703
21.38000 6.519
21.40000 7.660
21.42000 7.004
21.44000 3.476
21.46000 4.582
21.48000 4.857
21.50000 15.418
21.52000 14.206
21.54000 11.651
21.56000 8.323
21.58000 8.266
21.60000 4.791
21.62000 6.855
21.64000 7.817
21.66000 5.670
21.68000 6.013
21.70000 12.603
21.72000 9.944
21.74000 6.545
21.76000 6.425
21.78000 3.614
21.80000 5.743
21.82000 -0.411
21.84000 2.844
21.86000 4.669
21.88000 5.839
21.90000 3.351
21.92000 5.885
21.94000 16.102
21.96000 15.160
21.98000 10.805
22.00000 9.077
22.02000 7.854
22.04000 2.972
22.06000 3.191
22.08000 8.169
22.10000 6.128
22.12000 3.146
22.14000 3.114
22.16000 2.026
22.18000 -3.483
22.20000 -4.052
22.22000 -1.257
22.24000 7.838
22.26000 8.229
22.28000 9.574
22.30000 5.533
22.32000 0.696
22.34000 6.365
22.36000 10.967
22.38000 8.985
22.40000 5.754
22.42000 0.715
22.44000 -0.417
22.46000 -1.635
22.48000 2.592
22.50000 2.705
22.52000 5.755
22.54000 5.813
22.56000 5.628
22.58000 2.459
22.60000 2.508
22.62000 6.609
22.64000 6.639
22.66000 5.131
22.68000 7.750
22.70000 5.047
22.72000 4.482
22.74000 5.597
22.76000 8.917
22.78000 7.428
22.80000 -3.621
22.82000 -0.427
22.84000 4.603
22.86000 8.123
22.88000 4.803
22.90000 4.024
22.92000 -0.836
22.94000 2.943
22.96000 3.461
22.98000 3.792
23.00000 6.057
23.02000 0.770
23.04000 -1.123
23.06000 6.957
23.08000 -1.121
23.10000 -2.097
23.12000 1.171
23.14000 3.768
23.16000 -1.273
23.18000 2.691
23.20000 -3.039
23.22000 -3.011
23.24000 3.712
23.26000 6.800
23.28000 8.202
23.30000 0.987
23.32000 -1.833
23.34000 -4.044
23.36000 -2.815
23.38000 0.653
23.40000 -0.490
23.42000 -1.031
23.44000 1.867
23.46000 2.722
23.48000 4.309
23.50000 5.154
23.52000 0.296
23.54000 0.522
23.56000 2.894
23.58000 6.379
23.60000 4.367
23.62000 4.912
23.64000 9.334
23.66000 1.969
23.68000 3.874
23.70000 5.412
23.72000 -1.186
23.74000 3.919
23.76000 8.652
23.78000 5.936
23.80000 0.935
23.82000 5.464
23.84000 3.135
23.86000 3.535
23.88000 8.418
23.90000 9.028
23.92000 0.500
23.94000 -1.137
23.96000 3.944
23.98000 -0.424
24.00000 0.305
24.02000 1.764
24.04000 1.316
24.06000 -1.122
24.08000 -2.656
24.10000 0.430
24.12000 0.606
24.14000 0.018
24.16000 -1.452
24.18000 3.408
24.20000 1.616
24.22000 2.370
24.24000 2.877
24.26000 3.925
24.28000 4.139
24.30000 9.467
24.32000 4.207
24.34000 2.044
24.36000 4.009
24.38000 -2.866
24.40000 -1.692
24.42000 -0.485
24.44000 3.064
24.46000 7.596
24.48000 3.738
24.50000 8.970
24.52000 6.711
24.54000 0.340
24.56000 2.920
24.58000 5.633
24.60000 5.940
24.62000 6.617
24.64000 5.414
24.66000 2.615
24.68000 -1.043
24.70000 7.466
24.72000 3.521
24.74000 3.989
24.76000 3.631
24.78000 2.999
24.80000 6.759
24.82000 6.086
24.84000 5.920
24.86000 3.201
24.88000 3.469
24.90000 3.611
24.92000 3.746
24.94000 3.806
24.96000 -3.410
24.98000 2.075
25.00000 0.507
25.02000 -3.933
25.04000 -0.821
25.06000 -1.681
25.08000 0.456
25.10000 6.290
25.12000 8.454
25.14000 3.110
25.16000 0.484
25.18000 0.690
25.20000 1.402
25.22000 6.001
25.24000 9.098
25.26000 2.173
25.28000 3.559
25.30000 4.020
25.32000 2.507
25.34000 6.091
25.36000 4.198
25.38000 -0.383
25.40000 1.383
25.42000 5.049
25.44000 9.244
25.46000 4.546
25.48000 1.579
25.50000 0.317
25.52000 3.410
25.54000 5.338
25.56000 4.755
25.58000 -0.446
25.60000 3.163
25.62000 1.118
25.64000 -2.666
25.66000 1.077
25.68000 5.814
25.70000 -3.601
25.72000 -3.150
25.74000 2.277
25.76000 1.424
25.78000 -1.479
25.80000 -3.885
25.82000 -2.397
25.84000 3.625
25.86000 5.073
25.88000 0.043
25.90000 2.779
25.92000 -2.230
25.94000 -3.487
25.96000 -1.813
25.98000 4.821
26.00000 2.386
26.02000 4.671
26.04000 -0.164
26.06000 -0.529
26.08000 -1.911
26.10000 6.103
26.12000 5.894
26.14000 3.971
26.16000 2.279
26.18000 -1.503
26.20000 5.305
26.22000 7.091
26.24000 2.403
26.26000 2.153
26.28000 2.206
26.30000 2.362
26.32000 2.673
26.34000 6.294
26.36000 2.645
26.38000 2.066
26.40000 -2.373
26.42000 -3.874
26.44000 0.749
26.46000 5.305
26.48000 -1.480
26.50000 -0.127
26.52000 -3.526
26.54000 -1.624
26.56000 1.626
26.58000 3.517
26.60000 3.787
26.62000 6.558
26.64000 10.105
26.66000 6.410
26.68000 1.511
26.70000 2.572
26.72000 -0.911
26.74000 0.076
26.76000 -0.782
26.78000 4.222
26.80000 9.204
26.82000 9.323
26.84000 11.966
26.86000 5.299
26.88000 -3.807
26.90000 -1.033
26.92000 3.778
26.94000 -2.972
26.96000 -1.407
26.98000 -0.475
27.00000 0.913
27.02000 0.541
27.04000 -0.410
27.06000 -0.334
27.08000 -3.204
27.10000 3.766
27.12000 -1.281
27.14000 -1.690
27.16000 3.921
27.18000 7.577
27.20000 3.929
27.22000 -3.837
27.24000 -2.009
27.26000 1.105
27.28000 1.161
27.30000 0.305
27.32000 -0.377
27.34000 8.415
27.36000 7.282
27.38000 6.419
27.40000 5.575
27.42000 2.668
27.44000 4.086
27.46000 3.889
27.48000 1.649
27.50000 4.136
27.52000 4.265
27.54000 0.242
27.56000 -1.173
27.58000 3.892
27.60000 3.022
27.62000 1.563
27.64000 -1.925
27.66000 -3.803
27.68000 -0.806
27.70000 3.986
27.72000 2.785
27.74000 5.250
27.76000 2.840
27.78000 2.749
27.80000 1.470
27.82000 -0.446
27.84000 4.090
27.86000 1.406
27.88000 1.674
27.90000 0.925
27.92000 -1.912
27.94000 -3.781
27.96000 1.732
27.98000 3.836
28.00000 2.759
28.02000 4.490
28.04000 2.023
28.06000 2.217
28.08000 2.921
28.10000 6.343
28.12000 5.806
28.14000 1.132
28.16000 2.135
28.18000 1.762
28.20000 3.111
28.22000 -3.621
28.24000 -3.762
28.26000 -3.094
28.28000 -1.203
28.30000 4.953
28.32000 4.985
28.34000 0.430
28.36000 -0.010
28.38000 0.412
28.40000 2.008
28.42000 2.606
28.44000 2.826
28.46000 3.197
28.48000 5.771
28.50000 5.128
28.52000 0.102
28.54000 -0.533
28.56000 0.287
28.58000 0.711
28.60000 -1.077
28.62000 -0.246
28.64000 -3.751
28.66000 1.490
28.68000 4.654
28.70000 2.620
28.72000 2.133
28.74000 2.597
28.76000 0.418
28.78000 -0.842
28.80000 1.563
28.82000 3.178
28.84000 0.461
28.86000 4.194
28.88000 4.641
28.90000 6.377
28.92000 2.722
28.94000 3.188
28.96000 2.865
28.98000 4.026
29.00000 1.926
29.02000 4.083
29.04000 -0.208
29.06000 4.763
29.08000 2.289
29.10000 -1.848
29.12000 -1.828
29.14000 0.833
29.16000 3.554
29.18000 2.944
29.20000 3.917
29.22000 -0.557
29.24000 -3.367
29.26000 -2.181
29.28000 -3.725
29.30000 -1.185
29.32000 2.587
29.34000 4.390
29.36000 -1.333
29.38000 0.960
29.40000 6.070
29.42000 4.089
29.44000 -1.250
29.46000 -0.531
29.48000 -0.641
29.50000 3.356
29.52000 5.325
29.54000 3.315
29.56000 3.022
29.58000 4.987
29.60000 3.375
29.62000 1.565
29.64000 0.262
29.66000 2.376
29.68000 2.600
29.70000 4.720
29.72000 0.262
29.74000 -1.036
29.76000 2.719
29.78000 -0.277
29.80000 3.251
29.82000 5.982
29.84000 7.563
29.86000 6.236
29.88000 1.824
29.90000 3.250
29.92000 0.076
29.94000 0.150
29.96000 2.864
29.98000 -0.258
30.00000 2.909
30.02000 2.675
30.04000 1.905
30.06000 3.356
30.08000 1.839
30.10000 3.747
30.12000 5.264
30.14000 8.585
30.16000 7.061
30.18000 5.572
30.20000 2.648
30.22000 -2.126
30.24000 3.094
30.26000 2.706
30.28000 2.601
30.30000 0.739
30.32000 -3.653
30.34000 1.792
30.36000 8.289
30.38000 7.107
30.40000 2.801
30.42000 1.498
30.44000 -0.022
30.46000 0.605
30.48000 2.549
30.50000 1.943
30.52000 5.994
30.54000 6.172
30.56000 3.553
30.58000 1.140
30.60000 -3.200
30.62000 -2.621
30.64000 -1.061
30.66000 -0.670
30.68000 4.428
30.70000 3.891
30.72000 1.514
30.74000 1.609
30.76000 2.497
30.78000 2.791
30.80000 2.115
30.82000 3.738
30.84000 6.569
30.86000 6.762
30.88000 4.466
30.90000 1.235
30.92000 0.940
30.94000 0.429
30.96000 -1.386
30.98000 -0.207
31.00000 2.661
31.02000 1.728
31.04000 1.018
31.06000 2.110
31.08000 1.372
31.10000 4.333
31.12000 -0.199
31.14000 -0.111
31.16000 -1.883
31.18000 -2.165
31.20000 2.302
31.22000 1.592
31.24000 3.066
31.26000 -1.379
31.28000 1.677
31.30000 5.587
31.32000 3.328
31.34000 5.536
31.36000 8.438
31.38000 4.968
31.40000 -0.421
31.42000 -0.125
31.44000 1.601
31.46000 1.227
31.48000 -1.309
31.50000 -3.618
31.52000 -2.982
31.54000 -1.988
31.56000 2.773
31.58000 6.147
31.60000 5.526
31.62000 7.373
31.64000 3.904
31.66000 2.742
31.68000 1.529
31.70000 -3.608
31.72000 -1.666
31.74000 -0.481
31.76000 -2.223
31.78000 -0.149
31.80000 0.689
31.82000 -0.082
31.84000 2.958
31.86000 3.769
31.88000 1.864
31.90000 -1.160
31.92000 -1.200
31.94000 1.777
31.96000 0.164
31.98000 4.885
32.00000 0.556
32.02000 -0.259
32.04000 -0.816
32.06000 2.391
32.08000 0.206
32.10000 1.939
32.12000 -0.629
32.14000 -3.350
32.16000 0.324
32.18000 2.638
32.20000 6.848
32.22000 3.018
32.24000 5.861
32.26000 4.519
32.28000 1.369
32.30000 1.870
32.32000 9.578
32.34000 8.055
32.36000 -1.727
32.38000 -0.185
32.40000 2.066
32.42000 3.537
32.44000 4.210
32.46000 1.652
32.48000 -3.092
32.50000 1.047
32.52000 4.175
32.54000 4.565
32.56000 -0.033
32.58000 -0.767
32.60000 1.093
32.62000 3.762
32.64000 -0.175
32.66000 -1.364
32.68000 0.307
32.70000 1.081
32.72000 -2.355
32.74000 0.203
32.76000 2.071
32.78000 2.507
32.80000 1.359
32.82000 -0.020
32.84000 1.168
32.86000 4.963
32.88000 4.623
32.90000 0.814
32.92000 3.771
32.94000 3.731
32.96000 -0.782
32.98000 -0.649
33.00000 2.359
33.02000 -0.033
33.04000 5.435
33.06000 -0.900
33.08000 -0.997
33.10000 5.241
33.12000 1.179
33.14000 -1.797
33.16000 -1.537
33.18000 -3.558
33.20000 -3.042
33.22000 1.624
33.24000 2.979
33.26000 3.702
33.28000 3.787
33.30000 3.621
33.32000 3.977
33.34000 9.015
33.36000 7.503
33.38000 4.784
33.40000 4.372
33.42000 9.147
33.44000 9.028
33.46000 5.593
33.48000 2.690
33.50000 -0.444
33.52000 4.348
33.54000 6.508
33.56000 9.629
33.58000 6.637
33.60000 0.419
33.62000 2.000
33.64000 4.531
33.66000 5.726
33.68000 0.646
33.70000 -1.737
33.72000 0.521
33.74000 2.413
33.76000 1.722
33.78000 -1.486
33.80000 2.264
33.82000 2.901
33.84000 5.452
33.86000 5.213
33.88000 -0.084
33.90000 2.083
33.92000 -1.315
33.94000 -2.466
33.96000 -0.837
33.98000 1.487
34.00000 0.503
34.02000 1.042
34.04000 3.244
34.06000 1.347
34.08000 -1.078
34.10000 -0.164
34.12000 2.369
34.14000 9.377
34.16000 2.306
34.18000 1.235
34.20000 4.552
34.22000 8.421
34.24000 5.707
34.26000 3.072
34.28000 5.512
34.30000 1.143
34.32000 1.584
34.34000 -0.742
34.36000 1.552
34.38000 -0.220
34.40000 2.163
34.42000 5.379
34.44000 5.665
34.46000 -1.234
34.48000 2.983
34.50000 2.660
34.52000 3.141
34.54000 3.001
34.56000 5.189
34.58000 8.198
34.60000 7.447
34.62000 5.832
34.64000 2.020
34.66000 0.481
34.68000 0.075
34.70000 2.861
34.72000 4.217
34.74000 9.413
34.76000 3.069
34.78000 0.029
34.80000 -1.999
34.82000 -3.476
34.84000 3.003
34.86000 9.221
34.88000 3.790
34.90000 0.812
34.92000 8.702
34.94000 9.506
34.96000 4.192
34.98000 5.702
35.00000 7.345
35.02000 7.372
35.04000 8.571
35.06000 7.862
35.08000 2.259
35.10000 3.979
35.12000 8.708
35.14000 5.624
35.16000 -1.997
35.18000 -3.464
35.20000 0.275
35.22000 1.243
35.24000 1.199
35.26000 7.194
35.28000 7.683
35.30000 7.105
35.32000 3.245
35.34000 4.010
35.36000 1.181
35.38000 4.352
35.40000 3.362
35.42000 3.134
35.44000 1.685
35.46000 3.923
35.48000 8.884
35.50000 8.217
35.52000 5.248
35.54000 4.560
35.56000 4.112
35.58000 3.694
35.60000 8.543
35.62000 4.748
35.64000 6.290
35.66000 3.654
35.68000 -0.379
35.70000 4.735
35.72000 5.441
35.74000 3.256
35.76000 1.534
35.78000 3.899
35.80000 3.199
35.82000 1.564
35.84000 -0.102
35.86000 1.336
35.88000 3.985
35.90000 3.067
35.92000 -3.473
35.94000 1.201
35.96000 0.349
35.98000 2.394
36.00000 2.870
36.02000 3.834
36.04000 6.946
36.06000 6.741
36.08000 5.961
36.10000 5.328
36.12000 1.826
36.14000 -3.482
36.16000 -1.668
36.18000 1.582
36.20000 4.245
36.22000 1.306
36.24000 2.299
36.26000 0.399
36.28000 3.085
36.30000 3.336
36.32000 4.356
36.34000 0.810
36.36000 -2.244
36.38000 1.019
36.40000 -1.314
36.42000 1.068
36.44000 3.167
36.46000 2.196
36.48000 -1.381
36.50000 -0.769
36.52000 2.673
36.54000 8.998
36.56000 6.963
36.58000 7.236
36.60000 4.850
36.62000 4.176
36.64000 0.217
36.66000 -1.431
36.68000 0.383
36.70000 2.703
36.72000 3.717
36.74000 3.123
36.76000 2.206
36.78000 4.906
36.80000 3.666
36.82000 4.223
36.84000 5.260
36.86000 2.022
36.88000 7.114
36.90000 3.219
36.92000 0.430
36.94000 1.396
36.96000 2.011
36.98000 2.568
37.00000 2.654
37.02000 -3.521
37.04000 0.027
37.06000 0.029
37.08000 -0.559
37.10000 -3.110
37.12000 -3.242
37.14000 0.496
37.16000 0.762
37.18000 1.509
37.20000 2.116
37.22000 -0.403
37.24000 0.100
37.26000 2.384
37.28000 -1.289
37.30000 -0.707
37.32000 1.210
37.34000 0.485
37.36000 -2.120
37.38000 -0.408
37.40000 2.623
37.42000 5.275
37.44000 4.353
37.46000 2.417
37.48000 -0.476
37.50000 0.944
37.52000 3.467
37.54000 4.289
37.56000 2.026
37.58000 -1.760
37.60000 0.082
37.62000 4.701
37.64000 0.129
37.66000 -1.139
37.68000 -3.586
37.70000 -1.766
37.72000 3.671
37.74000 1.428
37.76000 1.590
37.78000 0.758
37.80000 -1.685
37.82000 -0.398
37.84000 0.180
37.86000 4.504
37.88000 4.955
37.90000 0.951
37.92000 2.118
37.94000 -1.180
37.96000 -0.639
37.98000 0.644
38.00000 -0.106
38.02000 1.523
38.04000 1.623
38.06000 2.098
38.08000 4.368
38.10000 6.109
38.12000 7.152
38.14000 10.715
38.16000 9.439
38.18000 6.042
38.20000 6.420
38.22000 7.654
38.24000 11.897
38.26000 17.673
38.28000 15.809
38.30000 8.954
38.32000 9.978
38.34000 15.749
38.36000 11.295
38.38000 14.039
38.40000 16.779
38.42000 13.267
38.44000 14.030
38.46000 17.069
38.48000 18.107
38.50000 14.760
38.52000 17.106
38.54000 11.624
38.56000 10.072
38.58000 15.904
38.60000 21.652
38.62000 20.129
38.64000 18.085
38.66000 18.132
38.68000 17.012
38.70000 22.384
38.72000 20.792
38.74000 20.560
38.76000 22.513
38.78000 21.773
38.80000 23.208
38.82000 24.743
38.84000 21.439
38.86000 20.876
38.88000 27.577
38.90000 30.850
38.92000 29.328
38.94000 25.309
38.96000 25.798
38.98000 31.935
39.00000 34.318
39.02000 29.367
39.04000 30.537
39.06000 30.034
39.08000 34.944
39.10000 38.240
39.12000 32.835
39.14000 32.913
39.16000 38.783
39.18000 38.708
39.20000 41.273
39.22000 43.829
39.24000 47.396
39.26000 47.382
39.28000 50.694
39.30000 51.879
39.32000 50.126
39.34000 52.840
39.36000 64.166
39.38000 60.848
39.40000 62.373
39.42000 65.704
39.44000 67.647
39.46000 79.798
39.48000 80.414
39.50000 77.522
39.52000 85.168
39.54000 94.655
39.56000 101.403
39.58000 97.583
39.60000 101.581
39.62000 110.721
39.64000 117.368
39.66000 126.497
39.68000 130.338
39.70000 130.841
39.72000 142.400
39.74000 157.090
39.76000 162.324
39.78000 171.145
39.80000 182.979
39.82000 195.288
39.84000 208.844
39.86000 217.970
39.88000 236.170
39.90000 247.215
39.92000 259.715
39.94000 282.598
39.96000 301.564
39.98000 319.370
40.00000 327.034
40.02000 344.435
40.04000 375.157
40.06000 393.219
40.08000 419.014
40.10000 446.495
40.12000 470.832
40.14000 494.804
40.16000 516.815
40.18000 555.332
40.20000 583.651
40.22000 597.493
40.24000 621.356
40.26000 649.057
40.28000 680.783
40.30000 709.792
40.32000 724.977
40.34000 734.863
40.36000 752.557
40.38000 774.472
40.40000 791.113
40.42000 799.791
40.44000 798.499
40.46000 796.625
40.48000 797.270
40.50000 790.601
40.52000 778.354
40.54000 774.286
40.56000 769.388
40.58000 762.719
40.60000 748.269
40.62000 735.911
40.64000 721.486
40.66000 703.838
40.68000 666.287
40.70000 640.911
40.72000 619.370
40.74000 602.838
40.76000 587.161
40.78000 565.872
40.80000 540.009
40.82000 515.542
40.84000 490.616
40.86000 465.219
40.88000 444.642
40.90000 427.548
40.92000 396.635
40.94000 375.368
40.96000 357.039
40.98000 342.953
41.00000 325.345
41.02000 305.754
41.04000 286.681
41.06000 271.612
41.08000 262.823
41.10000 247.273
41.12000 230.436
41.14000 219.581
41.16000 211.856
41.18000 202.383
41.20000 194.888
41.22000 177.074
41.24000 164.636
41.26000 155.231
41.28000 151.495
41.30000 146.527
41.32000 140.724
41.34000 133.941
41.36000 122.520
41.38000 112.492
41.40000 107.528
41.42000 101.626
41.44000 95.651
41.46000 86.578
41.48000 87.607
41.50000 84.923
41.52000 81.773
41.54000 75.500
41.56000 74.059
41.58000 71.406
41.60000 70.588
41.62000 68.099
41.64000 62.063
41.66000 57.900
41.68000 53.468
41.70000 49.080
41.72000 49.855
41.74000 45.136
41.76000 48.905
41.78000 47.773
41.80000 37.400
41.82000 36.708
41.84000 40.855
41.86000 36.250
41.88000 33.234
41.90000 32.976
41.92000 27.177
41.94000 30.098
41.96000 32.859
41.98000 28.125
42.00000 22.648
42.02000 24.871
42.04000 24.627
42.06000 20.493
42.08000 18.205
42.10000 18.607
42.12000 20.244
42.14000 16.315
42.16000 15.705
42.18000 15.371
42.20000 16.822
42.22000 18.911
42.24000 12.518
42.26000 11.641
42.28000 10.995
42.30000 15.383
42.32000 15.945
42.34000 13.470
42.36000 12.789
42.38000 14.899
42.40000 15.090
42.42000 12.333
42.44000 7.256
42.46000 6.050
42.48000 3.734
42.50000 5.047
42.52000 7.165
42.54000 8.723
42.56000 9.728
42.58000 8.861
42.60000 7.861
42.62000 7.095
42.64000 6.158
42.66000 5.633
42.68000 5.582
42.70000 7.548
42.72000 5.201
42.74000 0.742
42.76000 0.857
42.78000 2.925
42.80000 6.820
42.82000 5.079
42.84000 6.747
42.86000 7.379
42.88000 1.135
42.90000 1.112
42.92000 4.009
42.94000 4.507
42.96000 5.689
42.98000 5.489
43.00000 3.612
43.02000 2.611
43.04000 1.658
43.06000 2.173
43.08000 7.224
43.10000 3.569
43.12000 -0.497
43.14000 2.469
43.16000 -3.476
43.18000 -1.421
43.20000 -0.924
43.22000 1.597
43.24000 3.553
43.26000 0.594
43.28000 -1.253
43.30000 0.250
43.32000 1.699
43.34000 -2.327
43.36000 -1.412
43.38000 2.577
43.40000 2.158
43.42000 1.843
43.44000 -0.779
43.46000 -0.018
43.48000 0.429
43.50000 -0.351
43.52000 -2.060
43.54000 -2.122
43.56000 0.994
43.58000 2.509
43.60000 0.838
43.62000 2.276
43.64000 1.582
43.66000 1.842
43.68000 2.089
43.70000 -0.113
43.72000 -1.287
43.74000 -0.196
43.76000 0.095
43.78000 -3.379
43.80000 -2.606
43.82000 0.839
43.84000 -0.338
43.86000 3.060
43.88000 3.451
43.90000 0.288
43.92000 -0.047
43.94000 1.197
43.96000 4.713
43.98000 3.217
44.00000 -0.937
44.02000 0.501
44.04000 3.193
44.06000 1.234
44.08000 -0.191
44.10000 0.501
44.12000 1.146
44.14000 5.859
44.16000 2.489
44.18000 -1.451
44.20000 -0.076
44.22000 -3.093
44.24000 -2.362
44.26000 -0.719
44.28000 3.518
44.30000 2.739
44.32000 0.684
44.34000 0.932
44.36000 3.607
44.38000 1.201
44.40000 1.861
44.42000 4.950
44.44000 8.034
44.46000 5.653
44.48000 0.905
44.50000 5.688
44.52000 5.426
44.54000 3.836
44.56000 0.260
44.58000 0.101
44.60000 -3.267
44.62000 0.575
44.64000 3.916
44.66000 8.177
44.68000 2.696
44.70000 4.120
44.72000 7.758
44.74000 5.780
44.76000 2.913
44.78000 4.062
44.80000 4.667
44.82000 0.188
44.84000 3.608
44.86000 4.392
44.88000 0.551
44.90000 3.293
44.92000 5.274
44.94000 3.409
44.96000 4.760
44.98000 5.219
45.00000 4.407
45.02000 5.576
45.04000 5.998
45.06000 1.147
45.08000 5.463
45.10000 5.538
45.12000 5.771
45.14000 4.881
45.16000 7.006
45.18000 1.987
45.20000 1.508
45.22000 3.586
45.24000 3.745
45.26000 4.042
45.28000 3.378
45.30000 0.951
45.32000 0.576
45.34000 6.554
45.36000 5.759
45.38000 7.268
45.40000 6.970
45.42000 4.707
45.44000 2.806
45.46000 4.254
45.48000 5.007
45.50000 6.978
45.52000 4.376
45.54000 5.096
45.56000 10.293
45.58000 8.660
45.60000 9.023
45.62000 13.623
45.64000 15.422
45.66000 11.543
45.68000 8.918
45.70000 13.505
45.72000 9.856
45.74000 13.175
45.76000 12.819
45.78000 16.453
45.80000 16.180
45.82000 15.055
45.84000 13.578
45.86000 12.534
45.88000 17.151
45.90000 20.292
45.92000 20.053
45.94000 22.337
45.96000 21.076
45.98000 24.414
46.00000 24.819
46.02000 23.801
46.04000 25.412
46.06000 28.385
46.08000 28.621
46.10000 26.089
46.12000 26.605
46.14000 28.900
46.16000 37.698
46.18000 35.238
46.20000 30.460
46.22000 33.458
46.24000 36.459
46.26000 37.479
46.28000 39.923
46.30000 38.602
46.32000 42.309
46.34000 48.047
46.36000 54.648
46.38000 48.710
46.40000 47.777
46.42000 47.375
46.44000 52.616
46.46000 59.078
46.48000 63.011
46.50000 66.458
46.52000 67.871
46.54000 72.440
46.56000 71.486
46.58000 80.378
46.60000 83.930
46.62000 80.067
46.64000 83.641
46.66000 88.554
46.68000 85.669
46.70000 85.461
46.72000 93.964
46.74000 94.772
46.76000 103.125
46.78000 109.610
46.80000 104.618
46.82000 112.091
46.84000 112.268
46.86000 118.115
46.88000 120.162
46.90000 122.832
46.92000 127.153
46.94000 128.806
46.96000 125.754
46.98000 121.862
47.00000 131.056
47.02000 137.331
47.04000 134.304
47.06000 131.968
47.08000 126.224
47.10000 134.786
47.12000 135.403
47.14000 124.927
47.16000 122.833
47.18000 126.613
47.20000 131.629
47.22000 133.130
47.24000 129.666
47.26000 127.136
47.28000 122.587
47.30000 118.493
47.32000 118.158
47.34000 109.755
47.36000 114.525
47.38000 113.639
47.40000 110.967
47.42000 102.362
47.44000 98.492
47.46000 96.543
47.48000 94.940
47.50000 90.250
47.52000 84.782
47.54000 82.573
47.56000 79.645
47.58000 78.963
47.60000 78.500
47.62000 74.729
47.64000 67.377
47.66000 66.420
47.68000 62.736
47.70000 60.090
47.72000 55.903
47.74000 50.540
47.76000 48.895
47.78000 49.514
47.80000 47.793
47.82000 42.749
47.84000 43.786
47.86000 41.182
47.88000 43.724
47.90000 39.835
47.92000 38.266
47.94000 33.502
47.96000 34.726
47.98000 31.892
48.00000 25.014
48.02000 24.163
48.04000 28.971
48.06000 23.501
48.08000 23.254
48.10000 22.047
48.12000 20.572
48.14000 19.488
48.16000 20.150
48.18000 17.720
48.20000 15.578
48.22000 10.191
48.24000 14.271
48.26000 14.281
48.28000 15.657
48.30000 10.783
48.32000 10.991
48.34000 9.099
48.36000 5.852
48.38000 6.687
48.40000 10.892
48.42000 13.025
48.44000 10.484
48.46000 7.165
48.48000 5.494
48.50000 7.098
48.52000 7.053
48.54000 3.706
48.56000 2.418
48.58000 5.514
48.60000 4.231
48.62000 8.417
48.64000 8.330
48.66000 9.320
48.68000 5.829
48.70000 5.865
48.72000 2.495
48.74000 5.088
48.76000 5.876
48.78000 1.176
48.80000 -0.244
48.82000 3.838
48.84000 3.485
48.86000 6.571
48.88000 8.783
48.90000 9.322
48.92000 7.071
48.94000 8.200
48.96000 6.302
48.98000 3.031
49.00000 5.650
49.02000 3.493
49.04000 3.585
49.06000 4.714
49.08000 3.310
49.10000 4.019
49.12000 1.894
49.14000 2.869
49.16000 3.063
49.18000 -2.804
49.20000 0.628
49.22000 3.293
49.24000 0.639
49.26000 0.919
49.28000 4.931
49.30000 4.759
49.32000 6.410
49.34000 4.700
49.36000 2.177
49.38000 1.955
49.40000 0.272
49.42000 -1.056
49.44000 2.317
49.46000 0.487
49.48000 -0.026
49.50000 4.347
49.52000 7.477
49.54000 6.148
49.56000 6.256
49.58000 5.020
49.60000 1.863
49.62000 5.138
49.64000 5.174
49.66000 5.931
49.68000 3.865
49.70000 1.524
49.72000 1.997
49.74000 5.944
49.76000 5.415
49.78000 4.053
49.80000 3.528
49.82000 6.182
49.84000 5.970
49.86000 2.914
49.88000 1.427
49.90000 6.924
49.92000 5.448
49.94000 6.336
49.96000 7.475
49.98000 5.342
50.00000 1.925
50.02000 1.569
50.04000 -2.691
50.06000 -0.774
50.08000 9.398
50.10000 9.470
50.12000 3.771
50.14000 -1.503
50.16000 -2.072
50.18000 3.179
50.20000 1.953
50.22000 5.440
50.24000 6.837
50.26000 9.733
50.28000 5.086
50.30000 3.899
50.32000 0.541
50.34000 3.309
50.36000 2.715
50.38000 -0.791
50.40000 -1.423
50.42000 1.221
50.44000 1.589
50.46000 4.066
50.48000 5.212
50.50000 6.462
50.52000 1.278
50.54000 -2.672
50.56000 1.726
50.58000 6.497
50.60000 7.814
50.62000 5.342
50.64000 7.638
50.66000 5.062
50.68000 0.512
50.70000 4.182
50.72000 2.704
50.74000 3.803
50.76000 1.506
50.78000 4.734
50.80000 1.836
50.82000 1.435
50.84000 2.977
50.86000 1.396
50.88000 0.623
50.90000 2.543
50.92000 2.273
50.94000 0.217
50.96000 -0.107
50.98000 0.824
51.00000 1.562
51.02000 1.844
51.04000 0.859
51.06000 6.293
51.08000 7.218
51.10000 1.353
51.12000 4.501
51.14000 2.073
51.16000 0.244
51.18000 2.878
51.20000 9.185
51.22000 5.801
51.24000 4.432
51.26000 3.101
51.28000 -0.119
51.30000 -2.269
51.32000 -1.190
51.34000 2.600
51.36000 2.474
51.38000 5.266
51.40000 1.543
51.42000 5.209
51.44000 4.152
51.46000 1.795
51.48000 6.225
51.50000 6.353
51.52000 3.273
51.54000 2.905
51.56000 4.729
51.58000 3.160
51.60000 1.732
51.62000 6.341
51.64000 7.718
51.66000 2.331
51.68000 0.006
51.70000 -1.659
51.72000 -1.632
51.74000 -2.643
51.76000 0.826
51.78000 -0.822
51.80000 0.908
51.82000 3.470
51.84000 2.992
51.86000 -0.487
51.88000 1.267
51.90000 4.340
51.92000 3.684
51.94000 1.576
51.96000 5.505
51.98000 3.698
52.00000 0.916
52.02000 -0.624
52.04000 -1.647
52.06000 3.396
52.08000 2.392
52.10000 -0.704
52.12000 -0.890
52.14000 0.008
52.16000 2.221
52.18000 2.253
52.20000 4.442
52.22000 3.639
52.24000 0.909
52.26000 3.261
52.28000 3.988
52.30000 2.138
52.32000 0.010
52.34000 3.165
52.36000 0.165
52.38000 -0.371
52.40000 -1.582
52.42000 2.260
52.44000 3.722
52.46000 3.152
52.48000 -1.657
52.50000 0.174
52.52000 0.846
52.54000 0.876
52.56000 1.883
52.58000 0.051
52.60000 -2.619
52.62000 2.361
52.64000 2.738
52.66000 2.757
52.68000 3.144
52.70000 0.031
52.72000 -2.255
52.74000 2.732
52.76000 3.542
52.78000 1.641
52.80000 1.801
52.82000 3.270
52.84000 0.557
52.86000 4.219
52.88000 4.599
52.90000 2.828
52.92000 2.745
52.94000 -0.133
52.96000 0.966
52.98000 1.105
53.00000 3.750
53.02000 4.224
53.04000 0.913
53.06000 -2.604
53.08000 0.852
53.10000 3.221
53.12000 0.320
53.14000 1.450
53.16000 3.337
53.18000 -0.725
53.20000 -2.383
53.22000 -0.731
53.24000 0.337
53.26000 -0.905
53.28000 -0.528
53.30000 -1.454
53.32000 -0.216
53.34000 -0.911
53.36000 2.160
53.38000 -1.596
53.40000 -2.214
53.42000 -0.675
53.44000 2.978
53.46000 2.405
53.48000 -1.935
53.50000 -2.590
53.52000 -0.480
53.54000 1.995
53.56000 0.446
53.58000 6.316
53.60000 4.902
53.62000 1.526
53.64000 2.245
53.66000 3.515
53.68000 0.021
53.70000 1.628
53.72000 2.606
53.74000 2.468
53.76000 3.332
53.78000 0.149
53.80000 -1.129
53.82000 -0.903
53.84000 1.765
53.86000 -0.627
53.88000 -0.875
53.90000 2.182
53.92000 5.045
53.94000 1.689
53.96000 -1.421
53.98000 4.631
54.00000 2.244
54.02000 1.944
54.04000 3.167
54.06000 1.930
54.08000 3.170
54.10000 5.420
54.12000 4.718
54.14000 0.955
54.16000 -2.557
54.18000 -0.254
54.20000 3.764
54.22000 1.319
54.24000 -2.552
54.26000 -0.070
54.28000 1.400
54.30000 0.778
54.32000 1.812
54.34000 5.478
54.36000 3.314
54.38000 -0.499
54.40000 -2.554
54.42000 1.115
54.44000 -1.396
54.46000 2.640
54.48000 0.291
54.50000 1.606
54.52000 1.856
54.54000 2.008
54.56000 -2.123
54.58000 0.484
54.60000 2.721
54.62000 0.508
54.64000 0.683
54.66000 2.035
54.68000 0.614
54.70000 1.039
54.72000 -2.092
54.74000 -1.892
54.76000 1.177
54.78000 0.491
54.80000 0.045
54.82000 -1.503
54.84000 0.513
54.86000 1.655
54.88000 -0.602
54.90000 0.509
54.92000 0.536
54.94000 1.946
54.96000 1.027
54.98000 -0.549
55.00000 0.885
55.02000 1.759
55.04000 2.461
55.06000 1.157
55.08000 0.834
55.10000 0.330
55.12000 2.679
55.14000 5.096
55.16000 0.683
55.18000 -0.519
55.20000 -0.341
55.22000 2.448
55.24000 -1.823
55.26000 -2.546
55.28000 -1.444
55.30000 6.169
55.32000 1.966
55.34000 0.677
55.36000 2.714
55.38000 2.004
55.40000 -0.455
55.42000 -2.310
55.44000 1.607
55.46000 0.546
55.48000 0.655
55.50000 0.836
55.52000 4.043
55.54000 2.185
55.56000 -0.369
55.58000 0.217
55.60000 -2.284
55.62000 0.521
55.64000 4.244
55.66000 4.792
55.68000 1.541
55.70000 -2.422
55.72000 -1.881
55.74000 -0.587
55.76000 1.493
55.78000 6.881
55.80000 3.063
55.82000 1.377
55.84000 0.503
55.86000 2.426
55.88000 5.222
55.90000 3.890
55.92000 5.249
55.94000 0.911
55.96000 -2.509
55.98000 0.150
56.00000 4.921
56.02000 4.900
56.04000 -1.779
56.06000 -2.507
56.08000 0.289
56.10000 1.971
56.12000 0.794
56.14000 4.466
56.16000 0.596
56.18000 -0.062
56.20000 4.939
56.22000 5.060
56.24000 2.181
56.26000 0.652
56.28000 0.355
56.30000 1.035
56.32000 2.504
56.34000 0.775
56.36000 1.341
56.38000 3.797
56.40000 3.492
56.42000 -1.537
56.44000 -2.501
56.46000 0.152
56.48000 0.963
56.50000 1.002
56.52000 2.462
56.54000 5.824
56.56000 5.608
56.58000 2.839
56.60000 2.449
56.62000 5.042
56.64000 4.769
56.66000 5.089
56.68000 6.211
56.70000 1.718
56.72000 1.737
56.74000 -0.510
56.76000 -0.239
56.78000 0.353
56.80000 3.237
56.82000 2.686
56.84000 3.888
56.86000 -1.224
56.88000 2.018
56.90000 0.320
56.92000 -0.099
56.94000 0.221
56.96000 0.671
56.98000 1.644
57.00000 2.923
57.02000 5.219
57.04000 3.978
57.06000 3.277
57.08000 3.887
57.10000 1.616
57.12000 3.107
57.14000 4.273
57.16000 2.282
57.18000 -1.764
57.20000 -2.457
57.22000 4.876
57.24000 2.697
57.26000 1.452
57.28000 -1.810
57.30000 4.227
57.32000 3.329
57.34000 -0.482
57.36000 -1.317
57.38000 4.326
57.40000 4.511
57.42000 3.120
57.44000 1.813
57.46000 3.082
57.48000 2.824
57.50000 -0.688
57.52000 2.610
57.54000 5.487
57.56000 6.575
57.58000 4.288
57.60000 0.967
57.62000 0.316
57.64000 1.458
57.66000 -1.348
57.68000 -1.145
57.70000 0.462
57.72000 2.477
57.74000 1.333
57.76000 -1.822
57.78000 3.450
57.80000 1.720
57.82000 -0.091
57.84000 0.041
57.86000 0.008
57.88000 -0.765
57.90000 -1.665
57.92000 -1.221
57.94000 -0.758
57.96000 1.281
57.98000 5.049
58.00000 2.985
58.02000 1.602
58.04000 1.097
58.06000 2.792
58.08000 -1.555
58.10000 -0.751
58.12000 0.677
58.14000 2.371
58.16000 1.307
58.18000 0.356
58.20000 0.219
58.22000 1.733
58.24000 0.119
58.26000 3.317
58.28000 0.453
58.30000 0.872
58.32000 -0.742
58.34000 -0.495
58.36000 -0.369
58.38000 1.249
58.40000 1.984
58.42000 2.341
58.44000 1.265
58.46000 3.212
58.48000 5.509
58.50000 7.903
58.52000 2.450
58.54000 2.844
58.56000 2.288
58.58000 4.019
58.60000 5.589
58.62000 1.738
58.64000 2.112
58.66000 -2.445
58.68000 2.600
58.70000 2.931
58.72000 1.620
58.74000 1.439
58.76000 2.826
58.78000 1.335
58.80000 0.574
58.82000 1.567
58.84000 5.129
58.86000 5.273
58.88000 3.125
58.90000 2.088
58.92000 -1.054
58.94000 2.560
58.96000 3.388
58.98000 4.667
59.00000 -0.134
59.02000 3.684
59.04000 5.254
59.06000 -0.596
59.08000 3.484
59.10000 2.519
59.12000 0.666
59.14000 0.245
59.16000 1.159
59.18000 2.424
59.20000 -0.576
59.22000 -1.882
59.24000 0.050
59.26000 0.282
59.28000 1.356
59.30000 2.970
59.32000 -1.187
59.34000 -2.397
59.36000 0.722
59.38000 3.301
59.40000 2.539
59.42000 3.609
59.44000 4.449
59.46000 1.759
59.48000 2.259
59.50000 3.740
59.52000 2.292
59.54000 3.576
59.56000 5.831
59.58000 5.722
59.60000 2.553
59.62000 1.775
59.64000 5.545
59.66000 2.875
59.68000 3.279
59.70000 6.242
59.72000 5.904
59.74000 3.357
59.76000 2.534
59.78000 3.071
59.80000 3.195
59.82000 4.728
59.84000 5.031
59.86000 0.032
59.88000 -1.190
59.90000 0.862
59.92000 1.220
59.94000 3.339
59.96000 4.204
59.98000 2.004
60.00000 0.807
60.02000 2.206
60.04000 0.798
60.06000 0.855
60.08000 0.764
60.10000 3.113
60.12000 -0.157
60.14000 0.980
60.16000 2.624
60.18000 4.195
60.20000 3.404
60.22000 -0.314
60.24000 -0.965
60.26000 2.384
60.28000 4.710
60.30000 2.098
60.32000 1.577
60.34000 -2.388
60.36000 -1.969
60.38000 -0.720
60.40000 3.094
60.42000 4.513
60.44000 -1.134
60.46000 -2.385
60.48000 1.396
60.50000 2.450
60.52000 2.560
60.54000 1.841
60.56000 1.537
60.58000 -0.125
60.60000 3.230
60.62000 0.167
60.64000 0.801
60.66000 3.370
60.68000 -0.058
60.70000 -1.183
60.72000 2.344
60.74000 3.254
60.76000 0.748
60.78000 2.303
60.80000 1.671
60.82000 0.615
60.84000 -1.873
60.86000 -2.120
60.88000 5.120
60.90000 1.880
60.92000 1.323
60.94000 2.516
60.96000 1.473
60.98000 2.017
61.00000 1.360
61.02000 0.762
61.04000 2.836
61.06000 3.840
61.08000 2.737
61.10000 -0.559
61.12000 2.011
61.14000 -0.746
61.16000 1.058
61.18000 0.799
61.20000 1.257
61.22000 0.448
61.24000 -1.852
61.26000 2.198
61.28000 1.890
61.30000 0.806
61.32000 2.321
61.34000 1.957
61.36000 2.990
61.38000 -2.333
61.40000 0.518
61.42000 -0.457
61.44000 -1.443
61.46000 -0.131
61.48000 0.060
61.50000 4.405
61.52000 3.088
61.54000 2.266
61.56000 3.717
61.58000 2.641
61.60000 2.041
61.62000 -0.991
61.64000 -1.318
61.66000 -0.311
61.68000 4.839
61.70000 -0.746
61.72000 0.117
61.74000 -0.435
61.76000 -0.203
61.78000 2.418
61.80000 1.197
61.82000 -0.515
61.84000 2.196
61.86000 0.007
61.88000 1.742
61.90000 -0.479
61.92000 2.277
61.94000 3.488
61.96000 2.231
61.98000 2.521
62.00000 2.544
62.02000 0.175
62.04000 -1.196
62.06000 0.092
62.08000 1.673
62.10000 2.400
62.12000 0.109
62.14000 1.898
62.16000 2.875
62.18000 1.729
62.20000 3.486
62.22000 5.541
62.24000 2.492
62.26000 1.743
62.28000 3.390
62.30000 1.337
62.32000 1.438
62.34000 3.541
62.36000 4.099
62.38000 2.680
62.40000 0.240
62.42000 1.100
62.44000 0.252
62.46000 -0.247
62.48000 0.714
62.50000 -0.087
62.52000 2.182
62.54000 2.428
62.56000 0.632
62.58000 -0.787
62.60000 2.252
62.62000 1.342
62.64000 -1.120
62.66000 -1.230
62.68000 0.398
62.70000 -1.961
62.72000 1.013
62.74000 1.809
62.76000 1.711
62.78000 -1.320
62.80000 -0.026
62.82000 2.927
62.84000 -2.309
62.86000 -0.282
62.88000 1.346
62.90000 1.465
62.92000 4.043
62.94000 1.248
62.96000 1.777
62.98000 -2.301
63.00000 -0.521
63.02000 1.109
63.04000 -0.844
63.06000 -2.297
63.08000 -1.181
63.10000 -0.288
63.12000 2.787
63.14000 0.845
63.16000 -1.347
63.18000 3.295
63.20000 3.040
63.22000 1.453
63.24000 2.733
63.26000 1.908
63.28000 3.891
63.30000 4.134
63.32000 3.218
63.34000 0.707
63.36000 3.964
63.38000 5.224
63.40000 3.892
63.42000 -1.839
63.44000 -0.307
63.46000 3.967
63.48000 7.032
63.50000 4.675
63.52000 0.143
63.54000 0.014
63.56000 2.901
63.58000 -2.111
63.60000 0.168
63.62000 -0.186
63.64000 1.178
63.66000 2.284
63.68000 1.282
63.70000 1.810
63.72000 5.525
63.74000 4.761
63.76000 4.985
63.78000 3.771
63.80000 3.000
63.82000 3.296
63.84000 0.670
63.86000 -1.253
63.88000 -0.317
63.90000 2.579
63.92000 3.819
63.94000 1.603
63.96000 2.892
63.98000 2.560
64.00000 2.878
64.02000 3.310
64.04000 1.213
64.06000 2.685
64.08000 2.358
64.10000 -1.018
64.12000 3.077
64.14000 4.930
64.16000 3.586
64.18000 1.891
64.20000 3.061
64.22000 1.682
64.24000 1.104
64.26000 0.939
64.28000 -1.993
64.30000 -2.315
64.32000 2.415
64.34000 2.365
64.36000 0.276
64.38000 -0.248
64.40000 1.185
64.42000 0.247
64.44000 -1.832
64.46000 1.560
64.48000 1.640
64.50000 -0.039
64.52000 -1.243
64.54000 0.420
64.56000 4.324
64.58000 3.745
64.60000 4.178
64.62000 2.797
64.64000 1.504
64.66000 1.435
64.68000 0.565
64.70000 3.293
64.72000 3.333
64.74000 4.481
64.76000 4.396
64.78000 6.058
64.80000 3.308
64.82000 1.041
64.84000 -1.092
64.86000 -2.161
64.88000 0.848
64.90000 1.068
64.92000 -0.911
64.94000 1.272
64.96000 0.128
64.98000 -2.320
65.00000 -0.171
65.02000 2.417
65.04000 0.699
65.06000 1.237
65.08000 1.952
65.10000 1.916
65.12000 2.620
65.14000 2.883
65.16000 -1.637
65.18000 -1.146
65.20000 -0.887
65.22000 1.680
65.24000 2.880
65.26000 0.790
65.28000 2.169
65.30000 2.497
65.32000 0.810
65.34000 -0.172
65.36000 1.335
65.38000 -1.322
65.40000 -1.829
65.42000 -0.488
65.44000 -0.929
65.46000 1.258
65.48000 0.505
65.50000 5.178
65.52000 0.907
65.54000 0.083
65.56000 -2.104
65.58000 1.317
65.60000 2.766
65.62000 3.873
65.64000 2.497
65.66000 1.028
65.68000 -0.340
65.70000 -0.816
65.72000 -0.100
65.74000 1.166
65.76000 1.039
65.78000 2.561
65.80000 2.365
65.82000 1.263
65.84000 -0.936
65.86000 -0.192
65.88000 -1.039
65.90000 1.194
65.92000 2.899
65.94000 0.128
65.96000 0.233
65.98000 -1.623
66.00000 -2.349
66.02000 -2.014
66.04000 -0.405
66.06000 1.624
66.08000 2.617
66.10000 0.203
66.12000 0.338
66.14000 0.710
66.16000 2.358
66.18000 4.490
66.20000 1.570
66.22000 0.269
66.24000 -0.651
66.26000 -1.194
66.28000 0.373
66.30000 3.866
66.32000 1.275
66.34000 -2.341
66.36000 1.875
66.38000 0.413
66.40000 0.903
66.42000 -0.199
66.44000 -2.247
66.46000 0.271
66.48000 3.692
66.50000 3.340
66.52000 -0.280
66.54000 0.813
66.56000 1.886
66.58000 -0.333
66.60000 2.244
66.62000 1.539
66.64000 2.763
66.66000 3.265
66.68000 0.445
66.70000 1.280
66.72000 4.072
66.74000 3.948
66.76000 3.036
66.78000 2.059
66.80000 3.545
66.82000 3.468
66.84000 1.476
66.86000 -2.335
66.88000 -0.472
66.90000 0.687
66.92000 3.683
66.94000 2.242
66.96000 4.224
66.98000 0.911
67.00000 1.365
67.02000 0.940
67.04000 2.292
67.06000 0.401
67.08000 3.825
67.10000 4.400
67.12000 3.193
67.14000 0.544
67.16000 3.833
67.18000 5.402
67.20000 5.434
67.22000 3.975
67.24000 0.542
67.26000 -0.362
67.28000 3.995
67.30000 7.374
67.32000 2.745
67.34000 1.337
67.36000 2.080
67.38000 2.983
67.40000 3.250
67.42000 5.715
67.44000 5.246
67.46000 2.674
67.48000 0.828
67.50000 0.480
67.52000 1.104
67.54000 2.162
67.56000 0.964
67.58000 3.746
67.60000 1.137
67.62000 3.189
67.64000 2.886
67.66000 2.171
67.68000 4.592
67.70000 2.058
67.72000 4.574
67.74000 2.558
67.76000 2.571
67.78000 4.946
67.80000 10.884
67.82000 6.883
67.84000 6.312
67.86000 7.330
67.88000 7.602
67.90000 7.025
67.92000 8.130
67.94000 5.776
67.96000 6.177
67.98000 7.624
68.00000 6.515
68.02000 6.937
68.04000 8.185
68.06000 10.201
68.08000 14.331
68.10000 13.009
68.12000 10.471
68.14000 13.443
68.16000 15.088
68.18000 13.364
68.20000 11.614
68.22000 13.778
68.24000 15.101
68.26000 12.787
68.28000 16.959
68.30000 20.817
68.32000 20.420
68.34000 21.595
68.36000 19.638
68.38000 19.466
68.40000 20.874
68.42000 18.140
68.44000 20.985
68.46000 21.491
68.48000 24.272
68.50000 24.342
68.52000 26.685
68.54000 28.164
68.56000 29.633
68.58000 28.278
68.60000 25.139
68.62000 28.612
68.64000 30.936
68.66000 30.506
68.68000 32.091
68.70000 32.998
68.72000 34.476
68.74000 35.280
68.76000 33.571
68.78000 30.415
68.80000 33.043
68.82000 32.193
68.84000 33.908
68.86000 35.752
68.88000 35.863
68.90000 32.350
68.92000 34.374
68.94000 35.443
68.96000 32.918
68.98000 32.343
69.00000 34.619
69.02000 31.103
69.04000 31.186
69.06000 32.399
69.08000 29.770
69.10000 26.786
69.12000 27.192
69.14000 24.442
69.16000 20.600
69.18000 20.575
69.20000 19.596
69.22000 22.971
69.24000 22.564
69.26000 20.976
69.28000 19.015
69.30000 18.099
69.32000 16.651
69.34000 16.619
69.36000 18.496
69.38000 17.198
69.40000 14.750
69.42000 16.480
69.44000 18.857
69.46000 15.028
69.48000 15.005
69.50000 12.882
69.52000 13.512
69.54000 11.365
69.56000 11.932
69.58000 10.086
69.60000 11.304
69.62000 8.656
69.64000 8.938
69.66000 8.361
69.68000 11.395
69.70000 10.212
69.72000 4.665
69.74000 6.375
69.76000 7.997
69.78000 9.311
69.80000 9.020
69.82000 6.680
69.84000 2.273
69.86000 5.972
69.88000 4.658
69.90000 1.826
69.92000 4.732
69.94000 3.378
69.96000 0.739
69.98000 2.594
70.00000 1.236
70.02000 4.351
70.04000 2.373
70.06000 5.684
70.08000 6.239
70.10000 4.691
70.12000 2.773
70.14000 4.258
70.16000 6.510
70.18000 4.062
70.20000 3.133
70.22000 3.131
70.24000 -1.381
70.26000 -2.321
70.28000 0.973
70.30000 3.432
70.32000 4.660
70.34000 2.491
70.36000 -0.518
70.38000 -1.188
70.40000 0.613
70.42000 1.721
70.44000 4.088
70.46000 2.815
70.48000 3.586
70.50000 3.931
70.52000 2.005
70.54000 1.736
70.56000 4.686
70.58000 1.907
70.60000 2.170
70.62000 0.472
70.64000 1.647
70.66000 2.200
70.68000 -1.181
70.70000 0.497
70.72000 6.761
70.74000 7.093
70.76000 3.840
70.78000 5.006
70.80000 0.760
70.82000 -2.232
70.84000 1.753
70.86000 7.051
70.88000 6.425
70.90000 4.293
70.92000 3.626
70.94000 4.167
70.96000 2.019
70.98000 -0.715
71.00000 0.671
71.02000 3.680
71.04000 2.580
71.06000 3.837
71.08000 3.309
71.10000 3.030
71.12000 3.416
71.14000 0.912
71.16000 2.579
71.18000 3.327
71.20000 -0.983
71.22000 1.511
71.24000 7.478
71.26000 4.119
71.28000 1.392
71.30000 1.232
71.32000 1.240
71.34000 2.648
71.36000 0.106
71.38000 2.767
71.40000 0.012
71.42000 2.799
71.44000 4.209
71.46000 2.257
71.48000 2.169
71.50000 -1.895
71.52000 -2.210
71.54000 2.546
71.56000 3.169
71.58000 2.455
71.60000 2.172
71.62000 0.618
71.64000 -0.310
71.66000 2.727
71.68000 3.777
71.70000 2.552
71.72000 6.599
71.74000 4.018
71.76000 3.580
71.78000 3.055
71.80000 2.010
71.82000 1.477
71.84000 6.200
71.86000 6.281
71.88000 6.176
71.90000 3.667
71.92000 2.567
71.94000 0.853
71.96000 -2.182
71.98000 1.293
72.00000 1.276
72.02000 1.249
72.04000 1.572
72.06000 1.591
72.08000 1.128
72.10000 0.429
72.12000 1.280
72.14000 1.545
72.16000 1.469
72.18000 0.067
72.20000 1.860
72.22000 2.241
72.24000 0.918
72.26000 2.020
72.28000 2.591
72.30000 3.410
72.32000 3.009
72.34000 1.610
72.36000 0.422
72.38000 0.119
72.40000 -0.774
72.42000 2.491
72.44000 0.629
72.46000 1.106
72.48000 1.787
72.50000 1.370
72.52000 0.379
72.54000 -0.167
72.56000 3.271
72.58000 3.316
72.60000 1.799
72.62000 1.374
72.64000 0.022
72.66000 -0.032
72.68000 3.397
72.70000 3.253
72.72000 7.273
72.74000 5.091
72.76000 5.553
72.78000 5.309
72.80000 4.484
72.82000 -0.914
72.84000 5.002
72.86000 6.136
72.88000 4.735
72.90000 4.283
72.92000 0.622
72.94000 -2.160
72.96000 0.074
72.98000 3.340
73.00000 1.728
73.02000 3.731
73.04000 1.795
73.06000 1.388
73.08000 2.405
73.10000 -1.765
73.12000 4.257
73.14000 5.394
73.16000 2.889
73.18000 3.117
73.20000 4.201
73.22000 7.138
73.24000 6.327
73.26000 2.762
73.28000 2.841
73.30000 3.687
73.32000 3.625
73.34000 8.413
73.36000 13.328
73.38000 9.206
73.40000 3.906
73.42000 1.661
73.44000 5.321
73.46000 2.805
73.48000 3.393
73.50000 5.359
73.52000 3.710
73.54000 3.432
73.56000 3.957
73.58000 5.145
73.60000 1.355
73.62000 2.089
73.64000 1.909
73.66000 1.788
73.68000 3.412
73.70000 3.666
73.72000 3.978
73.74000 4.005
73.76000 1.122
73.78000 0.410
73.80000 1.948
73.82000 2.886
73.84000 3.908
73.86000 4.823
73.88000 3.219
73.90000 3.931
73.92000 4.277
73.94000 6.927
73.96000 5.631
73.98000 3.181
74.00000 3.464
74.02000 0.195
74.04000 -2.079
74.06000 4.147
74.08000 7.461
74.10000 5.012
74.12000 3.847
74.14000 3.805
74.16000 3.739
74.18000 3.353
74.20000 4.221
74.22000 6.756
74.24000 6.077
74.26000 9.135
74.28000 8.213
74.30000 5.368
74.32000 6.011
74.34000 7.148
74.36000 7.180
74.38000 5.104
74.40000 4.303
74.42000 2.697
74.44000 2.581
74.46000 3.455
74.48000 2.898
74.50000 1.348
74.52000 0.695
74.54000 3.212
74.56000 3.774
74.58000 3.384
74.60000 2.806
74.62000 3.939
74.64000 1.125
74.66000 2.676
74.68000 4.851
74.70000 2.244
74.72000 4.559
74.74000 7.063
74.76000 2.836
74.78000 0.751
74.80000 -0.486
74.82000 1.444
74.84000 3.895
74.86000 4.397
74.88000 2.340
74.90000 3.645
74.92000 5.317
74.94000 3.293
74.96000 1.816
74.98000 3.810
75.00000 6.996
75.02000 4.476
75.04000 1.494
75.06000 3.345
75.08000 6.739
75.10000 1.959
75.12000 0.703
75.14000 -1.408
75.16000 -1.138
75.18000 -0.175
75.20000 0.553
75.22000 5.611
75.24000 5.842
75.26000 0.608
75.28000 2.813
75.30000 1.458
75.32000 0.903
75.34000 7.296
75.36000 6.637
75.38000 8.153
75.40000 6.950
75.42000 4.123
75.44000 2.549
75.46000 3.213
75.48000 4.557
75.50000 1.501
75.52000 0.177
75.54000 1.407
75.56000 -1.155
75.58000 2.873
75.60000 4.136
75.62000 4.073
75.64000 -2.121
75.66000 1.072
75.68000 5.344
75.70000 5.537
75.72000 3.405
75.74000 3.338
75.76000 0.790
75.78000 2.398
75.80000 4.176
75.82000 3.145
75.84000 3.321
75.86000 1.941
75.88000 3.926
75.90000 5.918
75.92000 6.072
75.94000 0.766
75.96000 0.571
75.98000 1.729
76.00000 1.348
76.02000 3.389
76.04000 5.903
76.06000 6.072
76.08000 2.333
76.10000 1.914
76.12000 0.886
76.14000 1.288
76.16000 1.911
76.18000 1.517
76.20000 0.533
76.22000 -0.909
76.24000 0.483
76.26000 3.136
76.28000 1.374
76.30000 0.315
76.32000 0.614
76.34000 1.466
76.36000 1.398
76.38000 1.085
76.40000 1.985
76.42000 1.812
76.44000 3.551
76.46000 1.639
76.48000 0.531
76.50000 6.657
76.52000 6.483
76.54000 3.256
76.56000 1.769
76.58000 2.239
76.60000 -0.565
76.62000 1.163
76.64000 1.150
76.66000 -1.601
76.68000 1.893
76.70000 -0.478
76.72000 -1.674
76.74000 0.003
76.76000 0.129
76.78000 0.330
76.80000 -1.441
76.82000 -1.176
76.84000 3.373
76.86000 3.843
76.88000 1.261
76.90000 0.571
76.92000 3.234
76.94000 2.092
76.96000 2.246
76.98000 0.216
77.00000 0.134
77.02000 1.159
77.04000 1.573
77.06000 4.706
77.08000 2.033
77.10000 6.156
77.12000 3.106
77.14000 4.071
77.16000 3.160
77.18000 3.875
77.20000 7.388
77.22000 2.833
77.24000 -0.223
77.26000 -1.784
77.28000 -1.839
77.30000 0.395
77.32000 -0.634
77.34000 0.999
77.36000 1.066
77.38000 0.708
77.40000 -2.163
77.42000 0.525
77.44000 2.217
77.46000 2.416
77.48000 2.725
77.50000 3.448
77.52000 3.951
77.54000 2.136
77.56000 -1.957
77.58000 -0.553
77.60000 3.867
77.62000 0.317
77.64000 0.380
77.66000 0.431
77.68000 3.965
77.70000 3.087
77.72000 -0.085
77.74000 4.064
77.76000 3.729
77.78000 -0.938
77.80000 1.064
77.82000 0.302
77.84000 -0.378
77.86000 1.214
77.88000 8.029
77.90000 8.785
77.92000 5.072
77.94000 2.720
77.96000 1.138
77.98000 2.683
78.00000 2.858
78.02000 5.437
78.04000 -0.129
78.06000 -0.233
78.08000 1.311
78.10000 0.076
78.12000 0.677
78.14000 1.993
78.16000 1.726
78.18000 0.617
78.20000 -2.198
78.22000 2.785
78.24000 1.748
78.26000 2.078
78.28000 0.362
78.30000 0.512
78.32000 3.240
78.34000 2.027
78.36000 -0.456
78.38000 1.611
78.40000 0.325
78.42000 -0.303
78.44000 0.404
78.46000 -1.937
78.48000 -0.270
78.50000 1.631
78.52000 0.240
78.54000 0.632
78.56000 0.603
78.58000 1.704
78.60000 1.658
78.62000 4.517
78.64000 3.612
78.66000 1.610
78.68000 3.193
78.70000 3.669
78.72000 2.842
78.74000 2.390
78.76000 -0.121
78.78000 -0.788
78.80000 3.155
78.82000 1.272
78.84000 5.169
78.86000 2.712
78.88000 -0.196
78.90000 -1.008
78.92000 0.668
78.94000 1.434
78.96000 0.629
78.98000 4.019
79.00000 3.263
79.02000 2.381
79.04000 -1.625
79.06000 -0.766
79.08000 0.369
79.10000 2.932
79.12000 -2.203
79.14000 1.830
79.16000 3.433
79.18000 -1.160
79.20000 1.282
79.22000 -0.067
79.24000 -2.204
79.26000 -0.837
79.28000 0.677
79.30000 0.941
79.32000 0.715
79.34000 2.958
79.36000 1.220
79.38000 -1.088
79.40000 0.832
79.42000 1.297
79.44000 -0.869
79.46000 -0.884
79.48000 3.780
79.50000 2.921
79.52000 0.279
79.54000 2.400
79.56000 -1.577
79.58000 0.391
79.60000 0.747
79.62000 4.648
79.64000 3.948
79.66000 3.725
79.68000 2.755
79.70000 1.517
79.72000 -0.686
79.74000 1.486
79.76000 3.433
79.78000 0.708
79.80000 1.610
79.82000 1.571
79.84000 1.688
79.86000 4.037
79.88000 2.996
79.90000 5.030
79.92000 5.247
79.94000 2.498
79.96000 2.466
79.98000 -2.199
80.00000 0.722
80.02000 -0.243
80.04000 0.317
80.06000 0.979
80.08000 7.009
80.10000 6.302
80.12000 6.410
80.14000 2.069
80.16000 0.422
80.18000 3.829
80.20000 4.399
80.22000 3.164
80.24000 3.527
80.26000 3.180
80.28000 1.486
80.30000 3.105
80.32000 3.122
80.34000 2.792
80.36000 4.207
80.38000 2.607
80.40000 1.684
80.42000 5.144
80.44000 3.732
80.46000 4.461
80.48000 0.684
80.50000 -1.192
80.52000 0.095
80.54000 3.652
80.56000 4.308
80.58000 2.946
80.60000 0.815
80.62000 2.686
80.64000 1.237
80.66000 2.186
80.68000 1.865
80.70000 2.884
80.72000 3.292
80.74000 0.824
80.76000 4.335
80.78000 9.530
80.80000 1.794
80.82000 -2.270
80.84000 0.077
80.86000 1.379
80.88000 2.679
80.90000 -0.024
80.92000 1.812
80.94000 0.992
80.96000 2.544
80.98000 2.794
81.00000 4.803
81.02000 4.376
81.04000 -0.104
81.06000 0.485
81.08000 0.501
81.10000 3.807
81.12000 5.451
81.14000 5.448
81.16000 3.124
81.18000 0.387
81.20000 2.419
81.22000 3.856
81.24000 -1.379
81.26000 -2.309
81.28000 -0.967
81.30000 -0.045
81.32000 -0.090
81.34000 -1.629
81.36000 3.394
81.38000 -0.095
81.40000 2.086
81.42000 0.728
81.44000 0.054
81.46000 0.585
81.48000 1.647
81.50000 6.591
81.52000 3.606
81.54000 5.604
81.56000 3.249
81.58000 4.203
81.60000 3.089
81.62000 3.121
81.64000 6.161
81.66000 3.360
81.68000 5.252
81.70000 10.360
81.72000 7.324
81.74000 8.231
81.76000 6.507
81.78000 7.018
81.80000 6.428
81.82000 4.035
81.84000 7.225
81.86000 7.310
81.88000 10.141
81.90000 10.200
81.92000 6.827
81.94000 9.309
81.96000 9.573
81.98000 11.591
82.00000 13.689
82.02000 9.122
82.04000 10.828
82.06000 12.897
82.08000 12.407
82.10000 12.940
82.12000 10.133
82.14000 8.635
82.16000 10.567
82.18000 9.239
82.20000 11.601
82.22000 14.535
82.24000 17.172
82.26000 21.389
82.28000 19.243
82.30000 16.651
82.32000 22.836
82.34000 21.914
82.36000 25.838
82.38000 20.635
82.40000 19.233
82.42000 20.036
82.44000 24.997
82.46000 26.466
82.48000 24.955
82.50000 23.525
82.52000 27.083
82.54000 30.814
82.56000 30.548
82.58000 27.950
82.60000 30.770
82.62000 36.352
82.64000 36.253
82.66000 35.323
82.68000 34.942
82.70000 35.871
82.72000 34.572
82.74000 38.784
82.76000 44.179
82.78000 41.151
82.80000 39.234
82.82000 44.143
82.84000 41.032
82.86000 40.916
82.88000 40.460
82.90000 39.926
82.92000 43.255
82.94000 49.162
82.96000 50.665
82.98000 47.079
83.00000 50.110
83.02000 50.927
83.04000 52.902
83.06000 49.325
83.08000 50.337
83.10000 48.505
83.12000 44.463
83.14000 46.121
83.16000 51.323
83.18000 52.601
83.20000 51.244
83.22000 53.345
83.24000 51.742
83.26000 53.794
83.28000 44.668
83.30000 43.443
83.32000 49.365
83.34000 49.961
83.36000 45.959
83.38000 46.956
83.40000 44.332
83.42000 39.736
83.44000 37.286
83.46000 39.103
83.48000 40.648
83.50000 35.626
83.52000 36.721
83.54000 38.629
83.56000 36.943
83.58000 34.468
83.60000 33.648
83.62000 31.210
83.64000 32.185
83.66000 26.025
83.68000 25.752
83.70000 26.371
83.72000 24.646
83.74000 27.920
83.76000 24.277
83.78000 25.186
83.80000 24.407
83.82000 22.974
83.84000 24.276
83.86000 21.065
83.88000 18.507
83.90000 16.357
83.92000 17.547
83.94000 13.328
83.96000 18.292
83.98000 17.891
84.00000 13.325
84.02000 14.321
84.04000 9.872
84.06000 12.319
84.08000 11.343
84.10000 11.914
84.12000 8.048
84.14000 9.144
84.16000 4.604
84.18000 10.100
84.20000 8.256
84.22000 6.201
84.24000 9.108
84.26000 8.272
84.28000 9.702
84.30000 8.068
84.32000 6.847
84.34000 6.559
84.36000 5.621
84.38000 0.062
84.40000 6.177
84.42000 6.933
84.44000 7.488
84.46000 2.438
84.48000 4.011
84.50000 6.887
84.52000 4.982
84.54000 6.739
84.56000 5.124
84.58000 3.611
84.60000 6.786
84.62000 7.234
84.64000 5.535
84.66000 4.563
84.68000 9.539
84.70000 4.566
84.72000 1.470
84.74000 1.414
84.76000 6.335
84.78000 4.624
84.80000 4.939
84.82000 5.789
84.84000 1.057
84.86000 0.557
84.88000 -2.266
84.90000 3.405
84.92000 4.971
84.94000 -0.453
84.96000 4.430
84.98000 4.051
85.00000 3.764
85.02000 1.181
85.04000 -0.326
85.06000 2.071
85.08000 1.218
85.10000 2.053
85.12000 0.215
85.14000 0.893
85.16000 1.563
85.18000 0.036
85.20000 1.274
85.22000 -1.449
85.24000 -0.940
85.26000 -0.156
85.28000 1.048
85.30000 0.944
85.32000 0.727
85.34000 1.492
85.36000 3.520
85.38000 4.022
85.40000 2.658
85.42000 -1.242
85.44000 -2.256
85.46000 2.132
85.48000 0.059
85.50000 -0.676
85.52000 -1.091
85.54000 -2.010
85.56000 2.136
85.58000 7.011
85.60000 5.325
85.62000 3.373
85.64000 3.945
85.66000 2.215
85.68000 -1.163
85.70000 -2.244
85.72000 -1.931
85.74000 0.824
85.76000 0.111
85.78000 0.885
85.80000 0.354
85.82000 0.639
85.84000 1.004
85.86000 -0.814
85.88000 1.184
85.90000 -0.230
85.92000 -2.250
85.94000 1.177
85.96000 1.146
85.98000 1.910
86.00000 3.543
86.02000 8.685
86.04000 4.962
86.06000 2.080
86.08000 0.711
86.10000 -0.385
86.12000 0.202
86.14000 1.181
86.16000 3.294
86.18000 1.010
86.20000 3.793
86.22000 5.076
86.24000 0.417
86.26000 1.753
86.28000 -0.961
86.30000 1.328
86.32000 2.280
86.34000 0.873
86.36000 0.586
86.38000 4.416
86.40000 7.412
86.42000 6.965
86.44000 5.811
86.46000 4.893
86.48000 1.320
86.50000 -1.680
86.52000 0.764
86.54000 0.016
86.56000 0.780
86.58000 0.644
86.60000 4.525
86.62000 10.114
86.64000 5.540
86.66000 6.177
86.68000 8.724
86.70000 5.884
86.72000 2.859
86.74000 3.694
86.76000 8.448
86.78000 9.041
86.80000 10.090
86.82000 7.457
86.84000 6.275
86.86000 4.571
86.88000 6.871
86.90000 6.496
86.92000 9.432
86.94000 7.495
86.96000 7.173
86.98000 9.345
87.00000 15.846
87.02000 11.321
87.04000 12.659
87.06000 13.667
87.08000 15.542
87.10000 16.419
87.12000 22.563
87.14000 21.809
87.16000 23.844
87.18000 19.599
87.20000 17.031
87.22000 20.405
87.24000 23.466
87.26000 27.493
87.28000 20.502
87.30000 19.369
87.32000 23.624
87.34000 29.699
87.36000 29.426
87.38000 28.710
87.40000 27.861
87.42000 25.689
87.44000 28.684
87.46000 27.893
87.48000 23.764
87.50000 30.660
87.52000 30.024
87.54000 24.255
87.56000 21.633
87.58000 24.407
87.60000 26.024
87.62000 23.884
87.64000 25.872
87.66000 25.498
87.68000 23.120
87.70000 21.940
87.72000 29.030
87.74000 28.071
87.76000 29.189
87.78000 22.286
87.80000 16.339
87.82000 22.532
87.84000 26.603
87.86000 28.815
87.88000 24.816
87.90000 19.724
87.92000 18.972
87.94000 21.200
87.96000 15.222
87.98000 15.614
88.00000 16.458
88.02000 18.569
88.04000 17.730
88.06000 19.130
88.08000 16.579
88.10000 17.398
88.12000 14.717
88.14000 13.640
88.16000 15.991
88.18000 14.235
88.20000 9.589
88.22000 8.816
88.24000 8.088
88.26000 6.887
88.28000 9.720
88.30000 12.564
88.32000 16.456
88.34000 10.755
88.36000 2.515
88.38000 7.192
88.40000 9.125
88.42000 5.065
88.44000 3.787
88.46000 5.591
88.48000 5.240
88.50000 5.656
88.52000 2.114
88.54000 6.697
88.56000 3.774
88.58000 6.890
88.60000 6.737
88.62000 6.055
88.64000 7.378
88.66000 6.112
88.68000 4.507
88.70000 8.857
88.72000 2.294
88.74000 -2.148
88.76000 0.932
88.78000 3.788
88.80000 2.080
88.82000 3.529
88.84000 1.985
88.86000 5.162
88.88000 4.238
88.90000 5.267
88.92000 3.981
88.94000 5.697
88.96000 5.166
88.98000 8.176
89.00000 7.901
89.02000 6.930
89.04000 3.416
89.06000 0.849
89.08000 1.787
89.10000 -1.251
89.12000 -2.085
89.14000 3.534
89.16000 4.359
89.18000 5.645
89.20000 4.796
89.22000 6.168
89.24000 6.266
89.26000 3.325
89.28000 2.920
89.30000 0.182
89.32000 2.767
89.34000 2.609
89.36000 3.399
89.38000 6.717
89.40000 7.037
89.42000 3.500
89.44000 -0.114
89.46000 -0.287
89.48000 0.206
89.50000 -0.045
89.52000 -1.312
89.54000 -0.491
89.56000 0.269
89.58000 4.114
89.60000 6.697
89.62000 2.796
89.64000 -0.080
89.66000 -1.853
89.68000 -0.257
89.70000 0.822
89.72000 3.374
89.74000 5.838
89.76000 4.604
89.78000 3.328
89.80000 3.093
89.82000 5.340
89.84000 3.565
89.86000 4.344
89.88000 8.775
89.90000 1.591
89.92000 5.658
89.94000 8.294
89.96000 5.354
89.98000 3.236
90.00000 3.477
90.02000 5.380
90.04000 7.228
90.06000 4.753
90.08000 2.958
90.10000 2.327
90.12000 0.245
90.14000 6.394
90.16000 1.224
90.18000 0.185
90.20000 1.251
90.22000 2.584
90.24000 5.162
90.26000 5.903
90.28000 5.665
90.30000 4.076
90.32000 4.423
90.34000 4.901
90.36000 3.381
90.38000 3.878
90.40000 5.340
90.42000 5.040
90.44000 3.933
90.46000 1.976
90.48000 3.192
90.50000 3.716
90.52000 -1.989
90.54000 -1.473
90.56000 1.800
90.58000 2.679
90.60000 6.385
90.62000 7.397
90.64000 6.544
90.66000 8.685
90.68000 7.740
90.70000 7.327
90.72000 0.916
90.74000 2.706
90.76000 3.584
90.78000 3.602
90.80000 2.431
90.82000 2.745
90.84000 2.062
90.86000 0.163
90.88000 1.017
90.90000 0.672
90.92000 -2.023
90.94000 1.050
90.96000 1.952
90.98000 7.939
91.00000 4.840
91.02000 1.471
91.04000 2.964
91.06000 5.114
91.08000 4.420
91.10000 1.768
91.12000 1.923
91.14000 1.174
91.16000 1.938
91.18000 8.590
91.20000 5.135
91.22000 3.859
91.24000 1.615
91.26000 2.693
91.28000 3.198
91.30000 2.030
91.32000 3.801
91.34000 4.388
91.36000 2.278
91.38000 4.616
91.40000 3.478
91.42000 1.058
91.44000 0.252
91.46000 -2.058
91.48000 5.217
91.50000 9.954
91.52000 3.968
91.54000 1.573
91.56000 0.164
91.58000 -2.035
91.60000 -1.605
91.62000 -1.639
91.64000 -0.625
91.66000 3.007
91.68000 5.902
91.70000 5.281
91.72000 4.275
91.74000 2.161
91.76000 1.384
91.78000 1.554
91.80000 -1.931
91.82000 -0.268
91.84000 5.738
91.86000 2.196
91.88000 4.723
91.90000 2.259
91.92000 4.407
91.94000 1.383
91.96000 1.348
91.98000 1.950
92.00000 3.433
92.02000 3.191
92.04000 4.723
92.06000 2.095
92.08000 2.402
92.10000 3.190
92.12000 6.240
92.14000 4.365
92.16000 2.338
92.18000 -0.323
92.20000 3.291
92.22000 1.702
92.24000 -0.528
92.26000 1.655
92.28000 0.545
92.30000 -1.750
92.32000 3.085
92.34000 3.538
92.36000 0.150
92.38000 2.791
92.40000 1.603
92.42000 -1.627
92.44000 2.233
92.46000 1.847
92.48000 -2.049
92.50000 0.552
92.52000 3.442
92.54000 2.457
92.56000 5.594
92.58000 6.832
92.60000 0.992
92.62000 -0.010
92.64000 -1.155
92.66000 1.393
92.68000 3.719
92.70000 4.523
92.72000 4.109
92.74000 0.218
92.76000 3.254
92.78000 7.216
92.80000 6.238
92.82000 6.146
92.84000 5.917
92.86000 5.347
92.88000 5.392
92.90000 1.700
92.92000 -2.045
92.94000 2.772
92.96000 3.185
92.98000 1.082
93.00000 2.403
93.02000 4.228
93.04000 4.448
93.06000 2.275
93.08000 3.341
93.10000 4.127
93.12000 3.087
93.14000 6.416
93.16000 4.020
93.18000 4.547
93.20000 1.650
93.22000 1.622
93.24000 3.127
93.26000 2.647
93.28000 5.001
93.30000 6.049
93.32000 6.728
93.34000 6.830
93.36000 3.925
93.38000 1.802
93.40000 1.130
93.42000 5.209
93.44000 5.689
93.46000 5.510
93.48000 -0.333
93.50000 2.802
93.52000 1.890
93.54000 4.928
93.56000 6.476
93.58000 5.340
93.60000 6.880
93.62000 5.673
93.64000 2.340
93.66000 0.914
93.68000 1.435
93.70000 4.506
93.72000 7.894
93.74000 7.326
93.76000 10.153
93.78000 7.297
93.80000 4.858
93.82000 3.023
93.84000 1.228
93.86000 1.442
93.88000 0.815
93.90000 3.219
93.92000 1.813
93.94000 -1.405
93.96000 -1.306
93.98000 7.163
94.00000 8.451
94.02000 6.378
94.04000 3.485
94.06000 -2.005
94.08000 4.443
94.10000 9.703
94.12000 7.918
94.14000 5.819
94.16000 6.477
94.18000 1.372
94.20000 5.414
94.22000 11.101
94.24000 10.720
94.26000 7.801
94.28000 6.078
94.30000 7.713
94.32000 7.079
94.34000 7.670
94.36000 7.325
94.38000 5.199
94.40000 10.066
94.42000 13.137
94.44000 7.849
94.46000 5.955
94.48000 5.748
94.50000 3.272
94.52000 6.318
94.54000 8.032
94.56000 7.411
94.58000 3.897
94.60000 4.245
94.62000 5.205
94.64000 5.710
94.66000 3.566
94.68000 5.027
94.70000 4.874
94.72000 4.773
94.74000 1.227
94.76000 3.732
94.78000 2.681
94.80000 4.508
94.82000 7.500
94.84000 9.969
94.86000 6.830
94.88000 8.003
94.90000 8.710
94.92000 6.931
94.94000 3.889
94.96000 2.840
94.98000 1.759
95.00000 1.563
95.02000 6.714
95.04000 9.963
95.06000 7.891
95.08000 2.008
95.10000 2.207
95.12000 5.323
95.14000 4.923
95.16000 6.871
95.18000 2.507
95.20000 2.580
95.22000 2.898
95.24000 2.192
95.26000 6.958
95.28000 5.968
95.30000 7.441
95.32000 3.989
95.34000 6.720
95.36000 9.077
95.38000 6.075
95.40000 5.248
95.42000 2.119
95.44000 -2.003
95.46000 1.368
95.48000 2.747
95.50000 3.871
95.52000 5.063
95.54000 5.639
95.56000 5.188
95.58000 3.331
95.60000 4.925
95.62000 5.301
95.64000 2.640
95.66000 2.720
95.68000 5.477
95.70000 7.619
95.72000 5.053
95.74000 4.236
95.76000 3.094
95.78000 2.154
95.80000 8.359
95.82000 10.153
95.84000 9.033
95.86000 9.875
95.88000 12.217
95.90000 7.811
95.92000 9.793
95.94000 9.674
95.96000 4.582
95.98000 -0.567
96.00000 7.331
96.02000 5.634
96.04000 2.868
96.06000 6.056
96.08000 3.270
96.10000 0.152
96.12000 0.973
96.14000 -1.719
96.16000 5.264
96.18000 8.714
96.20000 7.171
96.22000 3.044
96.24000 -2.471
96.26000 7.474
96.28000 6.776
96.30000 2.530
96.32000 4.709
96.34000 7.240
96.36000 4.781
96.38000 0.869
96.40000 -0.802
96.42000 2.849
96.44000 5.675
96.46000 4.531
96.48000 8.201
96.50000 6.536
96.52000 0.922
96.54000 2.013
96.56000 7.117
96.58000 5.628
96.60000 5.741
96.62000 7.750
96.64000 7.615
96.66000 4.255
96.68000 5.270
96.70000 2.190
96.72000 7.282
96.74000 7.936
96.76000 2.102
96.78000 5.964
96.80000 5.527
96.82000 5.145
96.84000 3.011
96.86000 4.023
96.88000 3.841
96.90000 4.075
96.92000 4.842
96.94000 0.071
96.96000 1.691
96.98000 5.223
97.00000 5.863
97.02000 5.096
97.04000 8.494
97.06000 1.046
97.08000 6.013
97.10000 1.640
97.12000 2.560
97.14000 4.193
97.16000 0.275
97.18000 4.160
97.20000 5.936
97.22000 5.376
97.24000 4.983
97.26000 7.582
97.28000 9.556
97.30000 3.199
97.32000 2.585
97.34000 8.886
97.36000 9.461
97.38000 5.271
97.40000 2.976
97.42000 2.959
97.44000 1.616
97.46000 -2.019
97.48000 4.813
97.50000 8.339
97.52000 12.808
97.54000 13.310
97.56000 10.661
97.58000 9.427
97.60000 5.089
97.62000 1.362
97.64000 2.784
97.66000 5.792
97.68000 5.914
97.70000 4.884
97.72000 2.040
97.74000 1.649
97.76000 4.485
97.78000 6.700
97.80000 3.546
97.82000 9.042
97.84000 10.510
97.86000 11.550
97.88000 9.431
97.90000 4.665
97.92000 2.626
97.94000 2.720
97.96000 5.951
97.98000 8.415
98.00000 6.493
98.02000 7.281
98.04000 8.425
98.06000 8.378
98.08000 8.629
98.10000 1.351
98.12000 4.498
98.14000 4.954
98.16000 6.146
98.18000 8.068
98.20000 4.206
98.22000 9.754
98.24000 -0.705
98.26000 4.654
98.28000 8.260
98.30000 10.407
98.32000 8.684
98.34000 8.288
98.36000 5.052
98.38000 4.986
98.40000 9.696
98.42000 11.840
98.44000 9.304
98.46000 5.920
98.48000 11.299
98.50000 10.069
98.52000 7.176
98.54000 6.516
98.56000 1.516
98.58000 8.885
98.60000 6.239
98.62000 12.715
98.64000 15.091
98.66000 14.073
98.68000 6.355
98.70000 6.283
98.72000 3.873
98.74000 -1.930
98.76000 5.096
98.78000 9.444
98.80000 11.780
98.82000 12.190
98.84000 7.496
98.86000 10.090
98.88000 9.125
98.90000 1.663
98.92000 0.737
98.94000 5.738
98.96000 5.270
98.98000 2.992
99.00000 -0.292
99.02000 1.674
99.04000 7.106
99.06000 3.825
99.08000 9.226
99.10000 10.672
99.12000 6.951
99.14000 8.238
99.16000 4.944
99.18000 5.734
99.20000 5.423
99.22000 7.149
99.24000 13.856
99.26000 12.801
99.28000 14.076
99.30000 11.081
99.32000 3.483
99.34000 4.866
99.36000 5.854
99.38000 5.009
99.40000 1.364
99.42000 2.385
99.44000 5.935
99.46000 6.554
99.48000 9.370
99.50000 7.942
99.52000 6.459
99.54000 3.217
99.56000 2.963
99.58000 0.458
99.60000 1.149
99.62000 7.481
99.64000 0.051
99.66000 -1.902
99.68000 -1.942
99.70000 0.938
99.72000 2.781
99.74000 10.880
99.76000 12.805
99.78000 7.401
99.80000 10.026
99.82000 7.337
99.84000 11.117
99.86000 9.570
99.88000 21.381
99.90000 6.607
99.92000 -5.025
99.94000 7.589
99.96000 6.106
99.98000 0.000
