'Id: "0011387" Comment: "Integrate frame 0011387_Au-Ir-Rh_Rh-rich_XRD-Mapping-113-0000.gfrmwith cursor Wedge Cursor #5" Operator: "B?rgel" Anode: "Cu" Wavelength: "1.5406" Scantype: "2Theta (TwoTheta)" TimePerStep: "1" X: "40.5" Y: "-13.5" Z: "5.95" 
10.00000 0.000
10.02000 2.675
10.04000 -2.944
10.06000 0.183
10.08000 8.184
10.10000 9.748
10.12000 10.725
10.14000 7.584
10.16000 3.511
10.18000 0.138
10.20000 2.963
10.22000 10.590
10.24000 25.392
10.26000 25.589
10.28000 18.874
10.30000 2.572
10.32000 4.479
10.34000 17.001
10.36000 19.756
10.38000 20.372
10.40000 17.927
10.42000 29.708
10.44000 19.800
10.46000 31.151
10.48000 28.588
10.50000 27.235
10.52000 16.707
10.54000 13.522
10.56000 9.530
10.58000 8.967
10.60000 12.302
10.62000 20.711
10.64000 30.896
10.66000 31.199
10.68000 21.477
10.70000 16.892
10.72000 19.891
10.74000 20.015
10.76000 11.718
10.78000 19.761
10.80000 31.775
10.82000 37.055
10.84000 25.468
10.86000 24.593
10.88000 34.164
10.90000 38.005
10.92000 41.267
10.94000 37.205
10.96000 32.421
10.98000 22.350
11.00000 29.468
11.02000 12.083
11.04000 16.289
11.06000 25.320
11.08000 32.014
11.10000 33.323
11.12000 34.741
11.14000 39.212
11.16000 31.330
11.18000 30.227
11.20000 37.436
11.22000 40.844
11.24000 46.814
11.26000 48.386
11.28000 42.113
11.30000 41.459
11.32000 36.941
11.34000 29.763
11.36000 30.100
11.38000 40.030
11.40000 43.940
11.42000 42.922
11.44000 44.293
11.46000 38.445
11.48000 36.950
11.50000 39.641
11.52000 36.963
11.54000 32.607
11.56000 41.795
11.58000 44.129
11.60000 41.425
11.62000 42.937
11.64000 52.467
11.66000 42.573
11.68000 34.669
11.70000 41.814
11.72000 40.628
11.74000 43.874
11.76000 48.737
11.78000 41.851
11.80000 39.758
11.82000 35.111
11.84000 32.333
11.86000 47.579
11.88000 48.809
11.90000 44.266
11.92000 45.684
11.94000 51.053
11.96000 52.321
11.98000 36.654
12.00000 39.172
12.02000 41.092
12.04000 44.240
12.06000 42.114
12.08000 50.021
12.10000 53.448
12.12000 59.947
12.14000 51.161
12.16000 55.490
12.18000 50.749
12.20000 50.748
12.22000 51.771
12.24000 61.390
12.26000 61.054
12.28000 52.168
12.30000 52.763
12.32000 58.768
12.34000 48.315
12.36000 44.816
12.38000 48.517
12.40000 56.073
12.42000 50.404
12.44000 45.887
12.46000 53.845
12.48000 55.066
12.50000 52.105
12.52000 51.657
12.54000 47.851
12.56000 46.587
12.58000 45.741
12.60000 53.349
12.62000 53.157
12.64000 49.275
12.66000 56.871
12.68000 54.304
12.70000 47.167
12.72000 47.522
12.74000 56.347
12.76000 63.896
12.78000 59.035
12.80000 60.834
12.82000 59.668
12.84000 56.354
12.86000 58.208
12.88000 54.280
12.90000 59.415
12.92000 58.264
12.94000 57.386
12.96000 59.178
12.98000 61.919
13.00000 60.578
13.02000 56.011
13.04000 57.042
13.06000 58.775
13.08000 50.475
13.10000 46.717
13.12000 49.148
13.14000 47.537
13.16000 49.885
13.18000 51.679
13.20000 57.071
13.22000 54.262
13.24000 52.534
13.26000 49.375
13.28000 52.306
13.30000 52.973
13.32000 50.108
13.34000 51.369
13.36000 45.284
13.38000 46.330
13.40000 50.313
13.42000 58.469
13.44000 63.120
13.46000 51.551
13.48000 48.087
13.50000 46.967
13.52000 59.708
13.54000 62.685
13.56000 62.721
13.58000 47.971
13.60000 50.248
13.62000 51.011
13.64000 52.822
13.66000 54.540
13.68000 40.690
13.70000 42.543
13.72000 42.711
13.74000 47.405
13.76000 56.019
13.78000 51.651
13.80000 46.689
13.82000 54.575
13.84000 57.578
13.86000 59.777
13.88000 55.271
13.90000 48.590
13.92000 47.732
13.94000 56.387
13.96000 53.426
13.98000 44.902
14.00000 39.038
14.02000 49.776
14.04000 47.598
14.06000 42.040
14.08000 48.820
14.10000 49.910
14.12000 47.550
14.14000 50.688
14.16000 46.370
14.18000 36.565
14.20000 29.692
14.22000 35.341
14.24000 41.385
14.26000 42.299
14.28000 47.017
14.30000 49.918
14.32000 47.158
14.34000 37.718
14.36000 39.867
14.38000 44.035
14.40000 41.821
14.42000 38.295
14.44000 40.207
14.46000 47.496
14.48000 49.483
14.50000 34.136
14.52000 30.638
14.54000 35.835
14.56000 33.665
14.58000 38.657
14.60000 42.306
14.62000 42.667
14.64000 35.022
14.66000 33.609
14.68000 29.767
14.70000 41.523
14.72000 41.815
14.74000 41.437
14.76000 34.843
14.78000 40.996
14.80000 43.494
14.82000 33.564
14.84000 31.400
14.86000 21.451
14.88000 26.544
14.90000 41.794
14.92000 41.654
14.94000 37.616
14.96000 31.634
14.98000 35.540
15.00000 40.505
15.02000 32.118
15.04000 35.549
15.06000 29.216
15.08000 29.315
15.10000 35.780
15.12000 33.144
15.14000 34.222
15.16000 37.365
15.18000 35.344
15.20000 30.067
15.22000 28.144
15.24000 31.563
15.26000 30.039
15.28000 30.906
15.30000 32.127
15.32000 30.877
15.34000 25.922
15.36000 25.091
15.38000 26.705
15.40000 28.840
15.42000 29.427
15.44000 30.525
15.46000 35.107
15.48000 28.886
15.50000 20.301
15.52000 19.501
15.54000 21.743
15.56000 20.647
15.58000 21.255
15.60000 26.156
15.62000 29.740
15.64000 20.398
15.66000 14.984
15.68000 21.255
15.70000 26.431
15.72000 24.058
15.74000 24.162
15.76000 26.324
15.78000 30.189
15.80000 28.168
15.82000 30.673
15.84000 27.031
15.86000 19.958
15.88000 25.078
15.90000 32.826
15.92000 31.272
15.94000 22.527
15.96000 20.764
15.98000 26.792
16.00000 27.403
16.02000 17.094
16.04000 28.311
16.06000 29.558
16.08000 25.246
16.10000 19.189
16.12000 25.476
16.14000 20.267
16.16000 19.694
16.18000 18.134
16.20000 19.780
16.22000 16.500
16.24000 23.338
16.26000 28.314
16.28000 21.164
16.30000 22.448
16.32000 25.645
16.34000 28.020
16.36000 25.335
16.38000 19.989
16.40000 18.887
16.42000 26.044
16.44000 22.758
16.46000 19.259
16.48000 32.331
16.50000 20.340
16.52000 20.356
16.54000 21.965
16.56000 22.993
16.58000 20.714
16.60000 17.843
16.62000 11.324
16.64000 15.046
16.66000 16.115
16.68000 20.646
16.70000 20.178
16.72000 25.601
16.74000 31.379
16.76000 21.927
16.78000 18.324
16.80000 9.687
16.82000 11.408
16.84000 16.013
16.86000 22.765
16.88000 23.484
16.90000 23.876
16.92000 21.479
16.94000 16.064
16.96000 21.400
16.98000 18.590
17.00000 12.571
17.02000 15.959
17.04000 17.754
17.06000 17.796
17.08000 19.278
17.10000 14.559
17.12000 19.466
17.14000 18.120
17.16000 11.889
17.18000 20.153
17.20000 11.060
17.22000 10.591
17.24000 11.570
17.26000 16.202
17.28000 11.743
17.30000 11.187
17.32000 10.196
17.34000 13.516
17.36000 11.032
17.38000 9.716
17.40000 15.763
17.42000 17.184
17.44000 12.632
17.46000 10.901
17.48000 14.644
17.50000 14.799
17.52000 9.470
17.54000 6.246
17.56000 8.952
17.58000 17.445
17.60000 18.234
17.62000 14.042
17.64000 7.065
17.66000 6.823
17.68000 12.635
17.70000 18.187
17.72000 14.835
17.74000 18.376
17.76000 17.540
17.78000 17.367
17.80000 14.952
17.82000 7.465
17.84000 1.478
17.86000 -4.273
17.88000 9.935
17.90000 18.957
17.92000 13.213
17.94000 10.965
17.96000 13.019
17.98000 5.072
18.00000 8.628
18.02000 10.696
18.04000 5.467
18.06000 4.456
18.08000 6.793
18.10000 15.619
18.12000 15.917
18.14000 6.746
18.16000 12.981
18.18000 8.987
18.20000 10.012
18.22000 10.104
18.24000 9.870
18.26000 17.760
18.28000 17.859
18.30000 8.223
18.32000 5.540
18.34000 1.425
18.36000 6.317
18.38000 7.641
18.40000 1.472
18.42000 -1.651
18.44000 4.601
18.46000 7.854
18.48000 2.885
18.50000 3.619
18.52000 5.855
18.54000 5.370
18.56000 11.874
18.58000 6.891
18.60000 -2.711
18.62000 1.298
18.64000 10.136
18.66000 9.039
18.68000 3.583
18.70000 2.570
18.72000 -0.452
18.74000 1.241
18.76000 5.779
18.78000 6.023
18.80000 0.679
18.82000 5.512
18.84000 11.712
18.86000 6.511
18.88000 6.057
18.90000 9.330
18.92000 8.456
18.94000 9.363
18.96000 9.061
18.98000 -0.777
19.00000 2.093
19.02000 4.090
19.04000 2.671
19.06000 6.317
19.08000 8.205
19.10000 7.429
19.12000 3.008
19.14000 1.590
19.16000 6.472
19.18000 8.362
19.20000 3.198
19.22000 0.463
19.24000 1.642
19.26000 9.300
19.28000 6.702
19.30000 5.895
19.32000 9.751
19.34000 1.520
19.36000 6.373
19.38000 0.332
19.40000 -4.248
19.42000 1.611
19.44000 4.828
19.46000 2.122
19.48000 -2.793
19.50000 2.491
19.52000 5.261
19.54000 5.538
19.56000 0.766
19.58000 2.154
19.60000 3.099
19.62000 3.435
19.64000 -0.345
19.66000 -0.296
19.68000 -1.313
19.70000 2.200
19.72000 -0.457
19.74000 5.583
19.76000 4.866
19.78000 6.727
19.80000 0.848
19.82000 0.339
19.84000 0.190
19.86000 1.519
19.88000 -2.469
19.90000 3.567
19.92000 14.735
19.94000 10.166
19.96000 0.183
19.98000 1.894
20.00000 6.075
20.02000 1.006
20.04000 -2.718
20.06000 -2.901
20.08000 6.980
20.10000 1.059
20.12000 1.888
20.14000 2.521
20.16000 9.712
20.18000 6.104
20.20000 9.042
20.22000 8.671
20.24000 11.209
20.26000 6.930
20.28000 2.685
20.30000 6.526
20.32000 8.743
20.34000 6.370
20.36000 6.196
20.38000 9.373
20.40000 9.289
20.42000 6.287
20.44000 3.880
20.46000 6.190
20.48000 4.925
20.50000 4.528
20.52000 5.659
20.54000 7.580
20.56000 5.239
20.58000 2.532
20.60000 7.905
20.62000 11.902
20.64000 11.681
20.66000 6.043
20.68000 7.148
20.70000 4.863
20.72000 4.255
20.74000 2.600
20.76000 5.501
20.78000 3.501
20.80000 1.021
20.82000 -3.557
20.84000 -3.500
20.86000 7.685
20.88000 6.771
20.90000 11.205
20.92000 12.701
20.94000 7.120
20.96000 3.788
20.98000 3.786
21.00000 1.518
21.02000 0.954
21.04000 -2.840
21.06000 3.052
21.08000 9.308
21.10000 8.583
21.12000 9.732
21.14000 6.987
21.16000 7.438
21.18000 5.878
21.20000 1.632
21.22000 4.266
21.24000 2.045
21.26000 -4.084
21.28000 6.536
21.30000 10.065
21.32000 16.292
21.34000 16.074
21.36000 12.736
21.38000 7.333
21.40000 15.467
21.42000 16.863
21.44000 11.223
21.46000 12.594
21.48000 6.393
21.50000 9.110
21.52000 13.294
21.54000 9.003
21.56000 10.454
21.58000 10.651
21.60000 12.931
21.62000 11.086
21.64000 5.199
21.66000 -2.886
21.68000 -1.855
21.70000 4.167
21.72000 5.405
21.74000 9.091
21.76000 1.448
21.78000 8.633
21.80000 13.914
21.82000 11.064
21.84000 13.401
21.86000 18.144
21.88000 9.100
21.90000 6.381
21.92000 11.500
21.94000 2.036
21.96000 2.262
21.98000 8.819
22.00000 7.942
22.02000 3.390
22.04000 1.362
22.06000 0.750
22.08000 4.345
22.10000 7.378
22.12000 3.085
22.14000 5.971
22.16000 2.974
22.18000 7.064
22.20000 8.403
22.22000 9.827
22.24000 13.378
22.26000 10.040
22.28000 7.841
22.30000 9.552
22.32000 12.130
22.34000 9.539
22.36000 15.790
22.38000 15.538
22.40000 14.426
22.42000 10.030
22.44000 11.596
22.46000 7.398
22.48000 4.547
22.50000 4.536
22.52000 6.763
22.54000 0.018
22.56000 2.898
22.58000 8.686
22.60000 12.492
22.62000 10.946
22.64000 9.499
22.66000 8.244
22.68000 13.752
22.70000 10.836
22.72000 7.078
22.74000 7.938
22.76000 7.970
22.78000 2.190
22.80000 1.486
22.82000 1.983
22.84000 2.922
22.86000 7.877
22.88000 10.790
22.90000 15.187
22.92000 14.836
22.94000 8.563
22.96000 7.568
22.98000 5.427
23.00000 12.308
23.02000 8.607
23.04000 5.648
23.06000 2.391
23.08000 7.058
23.10000 10.226
23.12000 9.573
23.14000 5.793
23.16000 7.779
23.18000 10.963
23.20000 5.709
23.22000 -2.453
23.24000 4.565
23.26000 13.128
23.28000 5.003
23.30000 5.154
23.32000 9.002
23.34000 12.624
23.36000 9.039
23.38000 5.038
23.40000 5.709
23.42000 4.855
23.44000 8.354
23.46000 5.047
23.48000 5.196
23.50000 11.094
23.52000 10.445
23.54000 12.170
23.56000 11.208
23.58000 5.404
23.60000 2.931
23.62000 4.423
23.64000 5.284
23.66000 10.111
23.68000 14.940
23.70000 10.380
23.72000 1.538
23.74000 -3.922
23.76000 7.152
23.78000 13.844
23.80000 7.667
23.82000 7.848
23.84000 3.342
23.86000 7.222
23.88000 12.150
23.90000 11.763
23.92000 12.153
23.94000 12.449
23.96000 11.791
23.98000 14.712
24.00000 9.431
24.02000 6.122
24.04000 5.620
24.06000 3.085
24.08000 5.397
24.10000 4.547
24.12000 7.342
24.14000 6.615
24.16000 10.002
24.18000 7.956
24.20000 5.538
24.22000 6.110
24.24000 -0.592
24.26000 -2.705
24.28000 1.593
24.30000 7.101
24.32000 10.396
24.34000 11.251
24.36000 4.952
24.38000 6.318
24.40000 7.962
24.42000 14.920
24.44000 15.307
24.46000 11.112
24.48000 10.763
24.50000 9.971
24.52000 4.578
24.54000 3.914
24.56000 3.130
24.58000 2.268
24.60000 4.930
24.62000 7.454
24.64000 7.897
24.66000 9.074
24.68000 4.692
24.70000 3.220
24.72000 3.945
24.74000 9.979
24.76000 6.130
24.78000 6.722
24.80000 6.652
24.82000 6.595
24.84000 3.234
24.86000 -0.776
24.88000 5.337
24.90000 4.869
24.92000 0.483
24.94000 2.600
24.96000 5.388
24.98000 6.936
25.00000 6.222
25.02000 8.359
25.04000 7.418
25.06000 9.208
25.08000 8.280
25.10000 3.432
25.12000 3.457
25.14000 3.458
25.16000 1.068
25.18000 2.647
25.20000 5.549
25.22000 2.349
25.24000 4.821
25.26000 3.477
25.28000 3.242
25.30000 10.082
25.32000 16.831
25.34000 13.948
25.36000 4.917
25.38000 2.711
25.40000 8.295
25.42000 2.638
25.44000 1.660
25.46000 4.946
25.48000 10.882
25.50000 10.285
25.52000 4.286
25.54000 8.068
25.56000 3.488
25.58000 1.019
25.60000 6.354
25.62000 -0.461
25.64000 0.901
25.66000 1.433
25.68000 1.256
25.70000 2.706
25.72000 6.595
25.74000 7.767
25.76000 8.300
25.78000 4.634
25.80000 4.016
25.82000 9.050
25.84000 7.580
25.86000 8.608
25.88000 11.411
25.90000 8.155
25.92000 7.918
25.94000 4.868
25.96000 5.153
25.98000 2.480
26.00000 5.050
26.02000 2.982
26.04000 4.042
26.06000 5.571
26.08000 2.312
26.10000 2.288
26.12000 0.011
26.14000 0.723
26.16000 3.295
26.18000 5.585
26.20000 5.723
26.22000 5.618
26.24000 4.575
26.26000 -3.836
26.28000 2.394
26.30000 2.431
26.32000 4.131
26.34000 9.989
26.36000 8.381
26.38000 3.030
26.40000 2.273
26.42000 6.432
26.44000 6.582
26.46000 5.106
26.48000 2.058
26.50000 1.475
26.52000 6.430
26.54000 7.641
26.56000 4.578
26.58000 2.544
26.60000 3.998
26.62000 8.045
26.64000 11.481
26.66000 2.741
26.68000 1.054
26.70000 2.347
26.72000 4.341
26.74000 4.787
26.76000 6.408
26.78000 2.058
26.80000 2.951
26.82000 2.954
26.84000 2.971
26.86000 3.543
26.88000 3.119
26.90000 7.337
26.92000 6.545
26.94000 1.166
26.96000 4.016
26.98000 -1.532
27.00000 -0.619
27.02000 -0.114
27.04000 1.631
27.06000 1.697
27.08000 1.492
27.10000 -0.183
27.12000 1.652
27.14000 1.949
27.16000 1.687
27.18000 3.325
27.20000 -2.028
27.22000 2.613
27.24000 5.599
27.26000 3.878
27.28000 0.867
27.30000 5.438
27.32000 4.748
27.34000 1.573
27.36000 6.157
27.38000 5.365
27.40000 4.871
27.42000 3.220
27.44000 3.076
27.46000 2.293
27.48000 1.655
27.50000 0.391
27.52000 1.033
27.54000 2.821
27.56000 8.888
27.58000 5.527
27.60000 7.169
27.62000 3.427
27.64000 8.787
27.66000 5.873
27.68000 5.260
27.70000 0.072
27.72000 2.850
27.74000 6.775
27.76000 7.257
27.78000 5.689
27.80000 4.773
27.82000 3.157
27.84000 1.156
27.86000 3.258
27.88000 -0.703
27.90000 -1.549
27.92000 -3.782
27.94000 -1.587
27.96000 -1.679
27.98000 8.269
28.00000 7.208
28.02000 7.008
28.04000 7.181
28.06000 3.183
28.08000 3.301
28.10000 3.284
28.12000 9.881
28.14000 8.371
28.16000 3.564
28.18000 2.206
28.20000 -2.711
28.22000 -1.419
28.24000 3.266
28.26000 0.855
28.28000 1.060
28.30000 3.999
28.32000 5.990
28.34000 5.323
28.36000 2.930
28.38000 6.267
28.40000 6.047
28.42000 -1.372
28.44000 2.905
28.46000 0.611
28.48000 -0.662
28.50000 0.761
28.52000 3.996
28.54000 6.220
28.56000 6.615
28.58000 1.439
28.60000 -0.426
28.62000 1.133
28.64000 2.784
28.66000 2.074
28.68000 -1.048
28.70000 -0.285
28.72000 6.435
28.74000 4.648
28.76000 -0.311
28.78000 -0.459
28.80000 1.470
28.82000 2.968
28.84000 7.743
28.86000 6.291
28.88000 5.433
28.90000 1.526
28.92000 1.496
28.94000 6.910
28.96000 8.845
28.98000 5.843
29.00000 1.047
29.02000 7.867
29.04000 9.563
29.06000 5.598
29.08000 -1.019
29.10000 -1.623
29.12000 -3.696
29.14000 0.010
29.16000 5.220
29.18000 6.012
29.20000 4.235
29.22000 1.902
29.24000 2.762
29.26000 2.573
29.28000 4.303
29.30000 3.270
29.32000 0.465
29.34000 -2.924
29.36000 -0.557
29.38000 1.382
29.40000 5.704
29.42000 0.592
29.44000 1.021
29.46000 4.711
29.48000 6.337
29.50000 7.133
29.52000 6.433
29.54000 0.586
29.56000 6.588
29.58000 7.069
29.60000 2.346
29.62000 0.936
29.64000 -3.679
29.66000 -2.128
29.68000 3.394
29.70000 2.176
29.72000 1.899
29.74000 1.933
29.76000 3.158
29.78000 -0.440
29.80000 0.361
29.82000 0.903
29.84000 0.680
29.86000 2.355
29.88000 7.240
29.90000 4.792
29.92000 -0.407
29.94000 0.195
29.96000 5.209
29.98000 0.656
30.00000 -1.187
30.02000 -0.389
30.04000 3.456
30.06000 3.063
30.08000 -0.446
30.10000 3.254
30.12000 3.535
30.14000 5.186
30.16000 5.080
30.18000 0.147
30.20000 1.819
30.22000 1.095
30.24000 3.263
30.26000 4.434
30.28000 1.025
30.30000 1.581
30.32000 5.413
30.34000 -1.707
30.36000 1.452
30.38000 5.132
30.40000 7.849
30.42000 11.184
30.44000 13.054
30.46000 9.535
30.48000 3.711
30.50000 2.927
30.52000 -1.654
30.54000 -3.004
30.56000 -2.031
30.58000 0.923
30.60000 6.285
30.62000 4.357
30.64000 4.178
30.66000 3.234
30.68000 -1.403
30.70000 -3.643
30.72000 2.448
30.74000 2.341
30.76000 0.291
30.78000 1.829
30.80000 2.578
30.82000 5.828
30.84000 5.860
30.86000 5.065
30.88000 -2.785
30.90000 0.188
30.92000 0.984
30.94000 -1.165
30.96000 2.244
30.98000 1.924
31.00000 -2.220
31.02000 -3.633
31.04000 0.389
31.06000 2.643
31.08000 7.418
31.10000 5.749
31.12000 1.654
31.14000 3.997
31.16000 0.794
31.18000 -1.006
31.20000 0.757
31.22000 3.491
31.24000 1.424
31.26000 -2.174
31.28000 -0.956
31.30000 5.308
31.32000 0.541
31.34000 -1.896
31.36000 -2.147
31.38000 0.743
31.40000 1.538
31.42000 2.110
31.44000 0.214
31.46000 2.195
31.48000 -0.965
31.50000 1.306
31.52000 2.167
31.54000 1.721
31.56000 1.369
31.58000 -1.610
31.60000 -3.179
31.62000 -1.903
31.64000 0.544
31.66000 4.782
31.68000 4.167
31.70000 5.401
31.72000 3.361
31.74000 -1.974
31.76000 -3.116
31.78000 -3.596
31.80000 -2.293
31.82000 2.987
31.84000 5.898
31.86000 1.139
31.88000 -2.902
31.90000 0.308
31.92000 7.290
31.94000 7.859
31.96000 3.510
31.98000 0.609
32.00000 0.174
32.02000 -0.143
32.04000 1.456
32.06000 0.418
32.08000 -1.211
32.10000 2.660
32.12000 3.042
32.14000 0.870
32.16000 -3.378
32.18000 1.897
32.20000 -1.063
32.22000 -3.441
32.24000 3.081
32.26000 2.609
32.28000 -3.015
32.30000 3.499
32.32000 2.075
32.34000 0.905
32.36000 1.982
32.38000 0.280
32.40000 -3.265
32.42000 0.503
32.44000 2.951
32.46000 5.663
32.48000 1.388
32.50000 -1.283
32.52000 2.566
32.54000 4.394
32.56000 2.011
32.58000 -1.004
32.60000 1.150
32.62000 4.555
32.64000 4.087
32.66000 4.560
32.68000 4.128
32.70000 2.588
32.72000 5.852
32.74000 0.205
32.76000 2.386
32.78000 4.902
32.80000 1.767
32.82000 1.001
32.84000 2.438
32.86000 0.768
32.88000 5.944
32.90000 2.639
32.92000 0.391
32.94000 4.467
32.96000 7.043
32.98000 3.560
33.00000 -2.864
33.02000 0.400
33.04000 3.873
33.06000 5.354
33.08000 -0.532
33.10000 -3.509
33.12000 0.399
33.14000 0.589
33.16000 2.529
33.18000 2.086
33.20000 3.086
33.22000 3.370
33.24000 5.153
33.26000 5.763
33.28000 3.352
33.30000 1.860
33.32000 -1.652
33.34000 -3.529
33.36000 1.527
33.38000 8.886
33.40000 5.935
33.42000 9.047
33.44000 9.574
33.46000 6.764
33.48000 3.168
33.50000 -0.997
33.52000 4.642
33.54000 10.881
33.56000 7.400
33.58000 2.549
33.60000 -0.596
33.62000 3.127
33.64000 8.800
33.66000 6.342
33.68000 6.545
33.70000 7.147
33.72000 8.972
33.74000 4.546
33.76000 4.284
33.78000 5.197
33.80000 4.400
33.82000 5.422
33.84000 5.190
33.86000 5.812
33.88000 3.848
33.90000 4.731
33.92000 0.133
33.94000 0.452
33.96000 2.830
33.98000 -1.211
34.00000 -0.500
34.02000 -1.613
34.04000 1.699
34.06000 5.817
34.08000 4.229
34.10000 7.213
34.12000 3.708
34.14000 4.052
34.16000 4.161
34.18000 8.211
34.20000 9.854
34.22000 7.107
34.24000 4.718
34.26000 4.472
34.28000 2.755
34.30000 2.456
34.32000 4.268
34.34000 -1.163
34.36000 -1.008
34.38000 -1.752
34.40000 5.482
34.42000 7.247
34.44000 0.301
34.46000 -1.004
34.48000 0.406
34.50000 -0.419
34.52000 8.730
34.54000 7.880
34.56000 8.347
34.58000 6.391
34.60000 3.807
34.62000 3.779
34.64000 3.952
34.66000 2.872
34.68000 -0.017
34.70000 3.623
34.72000 4.778
34.74000 7.565
34.76000 7.003
34.78000 5.285
34.80000 4.230
34.82000 8.902
34.84000 8.459
34.86000 2.645
34.88000 3.504
34.90000 2.680
34.92000 6.195
34.94000 4.403
34.96000 0.945
34.98000 -3.471
35.00000 -0.286
35.02000 4.092
35.04000 3.591
35.06000 3.035
35.08000 3.001
35.10000 0.410
35.12000 2.744
35.14000 3.498
35.16000 -1.122
35.18000 -3.031
35.20000 2.967
35.22000 6.221
35.24000 5.620
35.26000 4.415
35.28000 2.428
35.30000 2.813
35.32000 0.950
35.34000 4.611
35.36000 5.595
35.38000 0.461
35.40000 -2.334
35.42000 1.605
35.44000 1.523
35.46000 3.043
35.48000 3.296
35.50000 3.413
35.52000 5.514
35.54000 3.528
35.56000 1.489
35.58000 -0.988
35.60000 -0.793
35.62000 1.168
35.64000 1.114
35.66000 -1.444
35.68000 0.405
35.70000 6.261
35.72000 2.172
35.74000 0.291
35.76000 1.171
35.78000 3.062
35.80000 -3.483
35.82000 -0.877
35.84000 2.174
35.86000 1.492
35.88000 3.653
35.90000 1.720
35.92000 5.055
35.94000 5.205
35.96000 0.301
35.98000 1.986
36.00000 3.197
36.02000 1.823
36.04000 -3.154
36.06000 -1.849
36.08000 1.470
36.10000 -3.164
36.12000 2.660
36.14000 3.593
36.16000 -0.137
36.18000 -3.484
36.20000 0.168
36.22000 4.187
36.24000 0.950
36.26000 -1.733
36.28000 -2.273
36.30000 1.264
36.32000 4.001
36.34000 5.091
36.36000 8.723
36.38000 2.045
36.40000 0.859
36.42000 3.323
36.44000 3.858
36.46000 3.136
36.48000 2.012
36.50000 1.291
36.52000 -1.078
36.54000 1.793
36.56000 1.016
36.58000 -1.104
36.60000 -1.436
36.62000 -0.245
36.64000 2.969
36.66000 10.480
36.68000 8.410
36.70000 7.994
36.72000 2.499
36.74000 3.304
36.76000 3.301
36.78000 2.106
36.80000 -2.127
36.82000 0.993
36.84000 -0.191
36.86000 1.020
36.88000 -2.472
36.90000 -1.793
36.92000 2.455
36.94000 -0.361
36.96000 -1.207
36.98000 2.138
37.00000 2.221
37.02000 -1.857
37.04000 -3.484
37.06000 1.227
37.08000 7.289
37.10000 7.449
37.12000 2.662
37.14000 8.246
37.16000 6.614
37.18000 6.245
37.20000 4.686
37.22000 1.498
37.24000 -2.153
37.26000 4.092
37.28000 7.125
37.30000 6.072
37.32000 5.291
37.34000 3.341
37.36000 1.377
37.38000 -1.592
37.40000 -3.503
37.42000 0.802
37.44000 4.219
37.46000 3.252
37.48000 1.854
37.50000 0.857
37.52000 3.006
37.54000 1.465
37.56000 1.149
37.58000 1.940
37.60000 -1.485
37.62000 0.961
37.64000 3.917
37.66000 3.253
37.68000 4.367
37.70000 2.152
37.72000 5.201
37.74000 8.294
37.76000 0.369
37.78000 -0.596
37.80000 6.410
37.82000 6.257
37.84000 7.411
37.86000 4.245
37.88000 5.027
37.90000 5.023
37.92000 -0.232
37.94000 5.034
37.96000 2.609
37.98000 4.393
38.00000 2.964
38.02000 5.484
38.04000 7.820
38.06000 5.529
38.08000 7.145
38.10000 6.326
38.12000 7.222
38.14000 10.486
38.16000 13.691
38.18000 10.774
38.20000 9.696
38.22000 11.354
38.24000 8.786
38.26000 7.119
38.28000 8.249
38.30000 12.536
38.32000 16.120
38.34000 19.827
38.36000 15.674
38.38000 11.976
38.40000 11.825
38.42000 12.236
38.44000 10.995
38.46000 10.732
38.48000 10.024
38.50000 13.315
38.52000 13.418
38.54000 19.314
38.56000 14.275
38.58000 15.204
38.60000 13.825
38.62000 15.698
38.64000 13.859
38.66000 12.673
38.68000 14.262
38.70000 14.037
38.72000 11.671
38.74000 14.552
38.76000 15.982
38.78000 20.942
38.80000 17.254
38.82000 21.980
38.84000 25.689
38.86000 25.230
38.88000 23.376
38.90000 23.712
38.92000 22.408
38.94000 24.685
38.96000 21.829
38.98000 18.888
39.00000 23.355
39.02000 25.127
39.04000 28.758
39.06000 32.075
39.08000 31.441
39.10000 32.322
39.12000 34.626
39.14000 32.996
39.16000 32.669
39.18000 32.121
39.20000 40.063
39.22000 43.443
39.24000 41.512
39.26000 38.080
39.28000 33.981
39.30000 34.732
39.32000 40.551
39.34000 40.579
39.36000 45.419
39.38000 54.860
39.40000 51.659
39.42000 48.863
39.44000 55.700
39.46000 61.045
39.48000 60.897
39.50000 53.745
39.52000 56.109
39.54000 58.287
39.56000 66.859
39.58000 69.426
39.60000 73.622
39.62000 77.420
39.64000 82.762
39.66000 85.255
39.68000 92.561
39.70000 93.238
39.72000 96.392
39.74000 105.566
39.76000 111.108
39.78000 112.750
39.80000 123.167
39.82000 133.044
39.84000 139.667
39.86000 149.021
39.88000 149.264
39.90000 160.960
39.92000 172.052
39.94000 180.356
39.96000 186.885
39.98000 199.529
40.00000 216.182
40.02000 229.351
40.04000 246.826
40.06000 254.924
40.08000 263.657
40.10000 274.791
40.12000 290.143
40.14000 305.106
40.16000 324.046
40.18000 347.763
40.20000 362.204
40.22000 379.960
40.24000 405.133
40.26000 428.469
40.28000 438.590
40.30000 456.918
40.32000 479.178
40.34000 493.982
40.36000 511.959
40.38000 539.425
40.40000 546.118
40.42000 562.993
40.44000 582.010
40.46000 597.910
40.48000 608.495
40.50000 612.458
40.52000 613.684
40.54000 621.489
40.56000 618.872
40.58000 615.019
40.60000 621.666
40.62000 617.729
40.64000 613.938
40.66000 608.356
40.68000 590.392
40.70000 580.971
40.72000 569.129
40.74000 562.250
40.76000 544.370
40.78000 527.883
40.80000 516.111
40.82000 497.113
40.84000 477.495
40.86000 463.583
40.88000 443.446
40.90000 419.947
40.92000 403.949
40.94000 388.790
40.96000 378.541
40.98000 354.756
41.00000 332.896
41.02000 317.473
41.04000 303.384
41.06000 284.423
41.08000 268.824
41.10000 256.211
41.12000 244.334
41.14000 231.388
41.16000 222.428
41.18000 207.428
41.20000 195.097
41.22000 186.623
41.24000 177.478
41.26000 166.750
41.28000 162.497
41.30000 161.136
41.32000 152.136
41.34000 139.971
41.36000 132.964
41.38000 134.464
41.40000 128.427
41.42000 116.973
41.44000 109.282
41.46000 108.244
41.48000 100.021
41.50000 91.772
41.52000 91.349
41.54000 84.849
41.56000 82.808
41.58000 74.548
41.60000 71.627
41.62000 71.050
41.64000 62.063
41.66000 60.176
41.68000 59.578
41.70000 57.064
41.72000 53.444
41.74000 51.818
41.76000 55.780
41.78000 51.492
41.80000 47.087
41.82000 42.065
41.84000 39.306
41.86000 39.109
41.88000 35.061
41.90000 36.297
41.92000 38.509
41.94000 38.574
41.96000 33.571
41.98000 30.872
42.00000 29.602
42.02000 30.645
42.04000 29.511
42.06000 30.486
42.08000 27.951
42.10000 27.037
42.12000 21.766
42.14000 17.289
42.16000 19.699
42.18000 19.588
42.20000 21.250
42.22000 17.811
42.24000 16.791
42.26000 15.226
42.28000 12.648
42.30000 16.714
42.32000 16.498
42.34000 19.864
42.36000 17.612
42.38000 12.075
42.40000 7.636
42.42000 10.056
42.44000 12.622
42.46000 11.047
42.48000 8.220
42.50000 7.582
42.52000 11.573
42.54000 13.400
42.56000 11.428
42.58000 4.233
42.60000 5.937
42.62000 8.811
42.64000 9.856
42.66000 8.983
42.68000 8.248
42.70000 5.278
42.72000 3.136
42.74000 2.653
42.76000 3.567
42.78000 6.284
42.80000 6.386
42.82000 7.667
42.84000 6.142
42.86000 5.992
42.88000 6.656
42.90000 4.039
42.92000 0.211
42.94000 0.293
42.96000 1.112
42.98000 -0.295
43.00000 -0.136
43.02000 -1.180
43.04000 0.782
43.06000 1.352
43.08000 3.090
43.10000 6.328
43.12000 6.986
43.14000 1.219
43.16000 3.609
43.18000 3.071
43.20000 2.781
43.22000 0.112
43.24000 -1.224
43.26000 -0.310
43.28000 2.878
43.30000 -1.034
43.32000 2.277
43.34000 -3.404
43.36000 -1.920
43.38000 0.935
43.40000 0.598
43.42000 0.778
43.44000 4.706
43.46000 2.809
43.48000 1.841
43.50000 -0.345
43.52000 4.516
43.54000 4.047
43.56000 3.010
43.58000 -0.249
43.60000 2.994
43.62000 0.253
43.64000 -0.485
43.66000 4.812
43.68000 2.842
43.70000 -1.549
43.72000 -0.403
43.74000 3.095
43.76000 2.529
43.78000 3.025
43.80000 1.300
43.82000 4.313
43.84000 4.856
43.86000 5.503
43.88000 5.724
43.90000 0.922
43.92000 3.431
43.94000 3.404
43.96000 2.068
43.98000 0.078
44.00000 2.186
44.02000 1.324
44.04000 0.462
44.06000 -3.299
44.08000 -2.673
44.10000 3.516
44.12000 4.786
44.14000 1.751
44.16000 -1.453
44.18000 0.863
44.20000 2.374
44.22000 2.925
44.24000 3.130
44.26000 -1.087
44.28000 0.264
44.30000 1.933
44.32000 2.382
44.34000 4.255
44.36000 4.956
44.38000 4.561
44.40000 1.297
44.42000 1.166
44.44000 5.261
44.46000 3.439
44.48000 4.195
44.50000 4.015
44.52000 1.769
44.54000 1.425
44.56000 1.796
44.58000 1.719
44.60000 6.949
44.62000 3.371
44.64000 -0.510
44.66000 0.053
44.68000 3.759
44.70000 5.560
44.72000 5.742
44.74000 2.623
44.76000 -0.973
44.78000 -0.701
44.80000 0.350
44.82000 -0.891
44.84000 0.813
44.86000 -0.024
44.88000 1.688
44.90000 4.763
44.92000 6.698
44.94000 4.062
44.96000 1.287
44.98000 2.854
45.00000 2.976
45.02000 0.300
45.04000 -3.252
45.06000 1.941
45.08000 4.393
45.10000 5.618
45.12000 2.661
45.14000 4.730
45.16000 2.068
45.18000 4.044
45.20000 7.596
45.22000 4.547
45.24000 2.723
45.26000 2.204
45.28000 4.898
45.30000 4.919
45.32000 3.035
45.34000 0.466
45.36000 1.653
45.38000 1.121
45.40000 4.621
45.42000 6.057
45.44000 7.145
45.46000 6.838
45.48000 1.381
45.50000 -0.134
45.52000 2.589
45.54000 5.119
45.56000 6.436
45.58000 4.129
45.60000 6.605
45.62000 9.938
45.64000 11.222
45.66000 8.755
45.68000 0.931
45.70000 6.911
45.72000 6.721
45.74000 7.806
45.76000 9.480
45.78000 7.959
45.80000 9.894
45.82000 11.023
45.84000 11.114
45.86000 9.409
45.88000 11.578
45.90000 11.404
45.92000 10.905
45.94000 11.031
45.96000 15.226
45.98000 19.397
46.00000 16.778
46.02000 14.593
46.04000 16.726
46.06000 17.057
46.08000 14.978
46.10000 16.470
46.12000 16.076
46.14000 19.200
46.16000 24.057
46.18000 21.286
46.20000 15.273
46.22000 21.583
46.24000 25.156
46.26000 23.723
46.28000 21.079
46.30000 26.470
46.32000 29.695
46.34000 31.763
46.36000 29.268
46.38000 33.008
46.40000 34.709
46.42000 29.873
46.44000 30.479
46.46000 33.360
46.48000 37.924
46.50000 39.312
46.52000 43.337
46.54000 41.359
46.56000 46.709
46.58000 44.106
46.60000 47.652
46.62000 48.565
46.64000 48.760
46.66000 50.753
46.68000 57.436
46.70000 52.861
46.72000 57.989
46.74000 66.864
46.76000 67.166
46.78000 72.345
46.80000 70.950
46.82000 67.190
46.84000 64.936
46.86000 67.588
46.88000 67.069
46.90000 66.632
46.92000 78.325
46.94000 79.007
46.96000 77.001
46.98000 73.002
47.00000 82.231
47.02000 90.130
47.04000 81.984
47.06000 80.950
47.08000 82.508
47.10000 78.153
47.12000 80.512
47.14000 81.284
47.16000 79.288
47.18000 76.951
47.20000 76.637
47.22000 74.118
47.24000 83.652
47.26000 82.673
47.28000 82.851
47.30000 84.449
47.32000 80.945
47.34000 78.813
47.36000 79.603
47.38000 84.339
47.40000 84.123
47.42000 78.683
47.44000 77.068
47.46000 74.250
47.48000 72.928
47.50000 68.716
47.52000 64.336
47.54000 59.328
47.56000 62.122
47.58000 61.942
47.60000 64.530
47.62000 58.852
47.64000 51.049
47.66000 50.090
47.68000 49.171
47.70000 51.782
47.72000 51.827
47.74000 43.884
47.76000 37.130
47.78000 41.907
47.80000 42.106
47.82000 39.760
47.84000 37.028
47.86000 35.645
47.88000 36.041
47.90000 37.810
47.92000 36.714
47.94000 37.517
47.96000 29.851
47.98000 26.161
48.00000 27.623
48.02000 28.022
48.04000 23.052
48.06000 21.800
48.08000 25.463
48.10000 20.961
48.12000 19.684
48.14000 17.141
48.16000 16.914
48.18000 21.754
48.20000 16.684
48.22000 16.504
48.24000 17.530
48.26000 13.307
48.28000 12.539
48.30000 10.935
48.32000 12.218
48.34000 9.259
48.36000 9.968
48.38000 5.908
48.40000 6.171
48.42000 3.380
48.44000 1.820
48.46000 4.640
48.48000 7.810
48.50000 6.060
48.52000 4.244
48.54000 8.001
48.56000 7.246
48.58000 4.529
48.60000 5.908
48.62000 8.024
48.64000 4.282
48.66000 0.549
48.68000 0.562
48.70000 -0.317
48.72000 2.533
48.74000 0.470
48.76000 0.558
48.78000 1.741
48.80000 1.113
48.82000 -1.457
48.84000 -2.474
48.86000 -1.343
48.88000 3.200
48.90000 -2.909
48.92000 -2.498
48.94000 -0.677
48.96000 1.573
48.98000 2.935
49.00000 3.462
49.02000 2.906
49.04000 5.403
49.06000 3.919
49.08000 1.026
49.10000 2.317
49.12000 2.404
49.14000 -1.608
49.16000 -0.029
49.18000 4.203
49.20000 3.385
49.22000 6.489
49.24000 7.337
49.26000 2.711
49.28000 6.506
49.30000 4.692
49.32000 3.906
49.34000 4.509
49.36000 3.227
49.38000 4.435
49.40000 1.316
49.42000 -1.709
49.44000 -2.807
49.46000 -0.857
49.48000 1.742
49.50000 4.601
49.52000 6.786
49.54000 8.643
49.56000 7.790
49.58000 4.690
49.60000 2.406
49.62000 -0.634
49.64000 -0.231
49.66000 -1.194
49.68000 -1.185
49.70000 1.514
49.72000 1.688
49.74000 3.047
49.76000 3.106
49.78000 1.408
49.80000 -0.028
49.82000 -1.679
49.84000 -2.651
49.86000 4.031
49.88000 7.361
49.90000 2.122
49.92000 3.874
49.94000 1.979
49.96000 4.446
49.98000 3.569
50.00000 3.244
50.02000 1.080
50.04000 2.015
50.06000 6.518
50.08000 8.444
50.10000 5.356
50.12000 -1.072
50.14000 -1.061
50.16000 -0.768
50.18000 -2.733
50.20000 -2.347
50.22000 0.370
50.24000 -0.667
50.26000 -2.327
50.28000 2.700
50.30000 3.758
50.32000 1.667
50.34000 -0.279
50.36000 0.086
50.38000 1.207
50.40000 1.370
50.42000 4.027
50.44000 2.391
50.46000 0.663
50.48000 -1.502
50.50000 2.628
50.52000 4.696
50.54000 1.714
50.56000 1.336
50.58000 2.113
50.60000 1.883
50.62000 0.850
50.64000 4.748
50.66000 7.039
50.68000 -0.422
50.70000 -1.844
50.72000 -0.057
50.74000 -1.118
50.76000 -2.048
50.78000 2.043
50.80000 1.528
50.82000 0.675
50.84000 -0.488
50.86000 0.458
50.88000 2.578
50.90000 2.189
50.92000 -1.560
50.94000 -1.225
50.96000 0.727
50.98000 -1.055
51.00000 0.109
51.02000 -0.369
51.04000 -0.598
51.06000 0.563
51.08000 1.915
51.10000 3.121
51.12000 5.153
51.14000 2.121
51.16000 -0.574
51.18000 1.055
51.20000 1.435
51.22000 -2.418
51.24000 0.372
51.26000 2.461
51.28000 0.766
51.30000 -1.007
51.32000 -2.685
51.34000 -1.261
51.36000 1.387
51.38000 -2.186
51.40000 -1.495
51.42000 1.275
51.44000 -0.540
51.46000 -0.288
51.48000 0.035
51.50000 0.007
51.52000 -2.092
51.54000 0.346
51.56000 6.794
51.58000 2.593
51.60000 -0.831
51.62000 1.504
51.64000 3.145
51.66000 7.376
51.68000 1.522
51.70000 4.021
51.72000 4.159
51.74000 1.681
51.76000 1.648
51.78000 3.960
51.80000 4.784
51.82000 3.274
51.84000 3.085
51.86000 2.512
51.88000 2.663
51.90000 6.358
51.92000 0.033
51.94000 2.096
51.96000 1.550
51.98000 3.899
52.00000 3.779
52.02000 3.828
52.04000 4.487
52.06000 2.270
52.08000 -2.610
52.10000 -0.557
52.12000 0.607
52.14000 -0.653
52.16000 0.969
52.18000 4.383
52.20000 3.817
52.22000 2.770
52.24000 5.591
52.26000 4.229
52.28000 2.230
52.30000 1.365
52.32000 -2.226
52.34000 2.111
52.36000 4.840
52.38000 4.382
52.40000 2.011
52.42000 0.448
52.44000 2.003
52.46000 -0.442
52.48000 0.829
52.50000 1.045
52.52000 3.379
52.54000 9.326
52.56000 6.440
52.58000 0.476
52.60000 4.752
52.62000 3.265
52.64000 0.900
52.66000 1.524
52.68000 1.911
52.70000 4.111
52.72000 3.839
52.74000 4.848
52.76000 6.955
52.78000 5.017
52.80000 2.152
52.82000 3.193
52.84000 1.754
52.86000 1.539
52.88000 1.626
52.90000 3.641
52.92000 5.930
52.94000 3.127
52.96000 0.885
52.98000 3.768
53.00000 3.172
53.02000 0.676
53.04000 1.773
53.06000 5.738
53.08000 5.786
53.10000 -0.115
53.12000 -2.570
53.14000 2.937
53.16000 3.626
53.18000 4.703
53.20000 -1.557
53.22000 3.613
53.24000 1.861
53.26000 4.679
53.28000 3.788
53.30000 1.054
53.32000 -1.660
53.34000 3.396
53.36000 7.913
53.38000 5.189
53.40000 1.918
53.42000 4.435
53.44000 5.186
53.46000 2.591
53.48000 3.185
53.50000 5.102
53.52000 2.422
53.54000 2.643
53.56000 1.885
53.58000 -0.671
53.60000 0.162
53.62000 5.758
53.64000 4.574
53.66000 2.506
53.68000 4.109
53.70000 2.843
53.72000 -0.202
53.74000 -0.092
53.76000 2.162
53.78000 2.036
53.80000 5.786
53.82000 4.919
53.84000 3.392
53.86000 3.505
53.88000 2.708
53.90000 4.245
53.92000 3.007
53.94000 2.710
53.96000 2.086
53.98000 0.772
54.00000 1.762
54.02000 -0.942
54.04000 3.256
54.06000 0.446
54.08000 1.937
54.10000 2.616
54.12000 6.904
54.14000 6.382
54.16000 3.859
54.18000 2.710
54.20000 -1.520
54.22000 2.947
54.24000 7.245
54.26000 2.685
54.28000 5.037
54.30000 3.645
54.32000 3.724
54.34000 1.178
54.36000 1.759
54.38000 3.603
54.40000 6.368
54.42000 3.400
54.44000 2.261
54.46000 2.680
54.48000 3.197
54.50000 2.004
54.52000 -0.851
54.54000 0.006
54.56000 -1.272
54.58000 5.871
54.60000 9.111
54.62000 0.653
54.64000 -1.625
54.66000 1.758
54.68000 4.313
54.70000 -0.045
54.72000 -2.533
54.74000 0.470
54.76000 2.334
54.78000 1.628
54.80000 1.797
54.82000 1.713
54.84000 1.631
54.86000 6.448
54.88000 7.172
54.90000 8.157
54.92000 4.813
54.94000 0.523
54.96000 -0.671
54.98000 1.611
55.00000 2.694
55.02000 2.549
55.04000 2.389
55.06000 5.005
55.08000 4.851
55.10000 3.832
55.12000 2.875
55.14000 0.292
55.16000 3.091
55.18000 3.038
55.20000 2.251
55.22000 4.213
55.24000 0.539
55.26000 1.047
55.28000 4.447
55.30000 3.153
55.32000 1.922
55.34000 3.816
55.36000 7.430
55.38000 4.912
55.40000 1.186
55.42000 2.846
55.44000 2.177
55.46000 6.651
55.48000 2.618
55.50000 1.720
55.52000 3.782
55.54000 3.935
55.56000 2.334
55.58000 0.903
55.60000 2.506
55.62000 1.810
55.64000 4.637
55.66000 3.614
55.68000 3.732
55.70000 8.040
55.72000 7.436
55.74000 2.210
55.76000 7.037
55.78000 2.322
55.80000 1.597
55.82000 3.079
55.84000 2.651
55.86000 4.149
55.88000 5.984
55.90000 7.645
55.92000 7.587
55.94000 7.108
55.96000 2.352
55.98000 -2.502
56.00000 -0.997
56.02000 4.353
56.04000 3.639
56.06000 -1.358
56.08000 0.481
56.10000 2.084
56.12000 1.847
56.14000 5.918
56.16000 5.325
56.18000 1.176
56.20000 -0.573
56.22000 3.363
56.24000 0.930
56.26000 5.261
56.28000 -0.636
56.30000 -0.233
56.32000 -0.210
56.34000 3.214
56.36000 2.770
56.38000 2.179
56.40000 0.909
56.42000 3.375
56.44000 4.177
56.46000 -2.044
56.48000 -1.244
56.50000 3.573
56.52000 4.761
56.54000 3.052
56.56000 2.693
56.58000 -0.063
56.60000 -0.821
56.62000 4.532
56.64000 1.719
56.66000 4.362
56.68000 1.204
56.70000 0.019
56.72000 4.808
56.74000 1.205
56.76000 1.854
56.78000 -1.386
56.80000 3.017
56.82000 1.485
56.84000 1.679
56.86000 -0.644
56.88000 0.229
56.90000 1.003
56.92000 2.458
56.94000 6.045
56.96000 5.014
56.98000 1.041
57.00000 1.971
57.02000 3.036
57.04000 3.246
57.06000 2.418
57.08000 2.157
57.10000 1.057
57.12000 1.637
57.14000 0.553
57.16000 -2.488
57.18000 -1.171
57.20000 4.350
57.22000 4.150
57.24000 2.753
57.26000 2.640
57.28000 1.970
57.30000 3.322
57.32000 0.436
57.34000 0.638
57.36000 2.363
57.38000 0.679
57.40000 -0.850
57.42000 -0.012
57.44000 -2.224
57.46000 -1.382
57.48000 0.002
57.50000 0.289
57.52000 1.631
57.54000 -0.599
57.56000 0.648
57.58000 1.970
57.60000 -0.319
57.62000 -2.294
57.64000 2.116
57.66000 4.557
57.68000 2.513
57.70000 4.052
57.72000 3.055
57.74000 2.465
57.76000 2.096
57.78000 1.327
57.80000 0.015
57.82000 1.567
57.84000 -0.771
57.86000 1.417
57.88000 8.744
57.90000 5.307
57.92000 3.107
57.94000 2.156
57.96000 5.425
57.98000 -1.308
58.00000 1.504
58.02000 1.747
58.04000 1.926
58.06000 -1.196
58.08000 -0.365
58.10000 2.167
58.12000 0.878
58.14000 4.530
58.16000 -0.241
58.18000 -1.369
58.20000 -0.360
58.22000 -2.340
58.24000 -1.230
58.26000 0.957
58.28000 -2.464
58.30000 0.694
58.32000 1.612
58.34000 -0.337
58.36000 2.676
58.38000 5.106
58.40000 1.729
58.42000 1.648
58.44000 1.484
58.46000 -1.123
58.48000 -0.147
58.50000 3.695
58.52000 0.628
58.54000 -0.350
58.56000 3.360
58.58000 -0.024
58.60000 0.712
58.62000 -0.195
58.64000 5.179
58.66000 5.217
58.68000 -0.870
58.70000 1.392
58.72000 3.501
58.74000 -1.760
58.76000 -1.580
58.78000 1.275
58.80000 6.897
58.82000 3.763
58.84000 3.170
58.86000 2.288
58.88000 5.317
58.90000 3.444
58.92000 1.200
58.94000 1.214
58.96000 -0.196
58.98000 1.729
59.00000 -0.566
59.02000 -0.282
59.04000 2.172
59.06000 -0.283
59.08000 -1.819
59.10000 1.441
59.12000 4.752
59.14000 4.884
59.16000 2.620
59.18000 0.802
59.20000 0.247
59.22000 1.991
59.24000 2.118
59.26000 6.610
59.28000 9.174
59.30000 5.242
59.32000 2.842
59.34000 3.860
59.36000 5.588
59.38000 3.968
59.40000 2.414
59.42000 4.619
59.44000 -2.376
59.46000 2.217
59.48000 3.852
59.50000 3.420
59.52000 3.522
59.54000 4.051
59.56000 3.065
59.58000 3.232
59.60000 1.237
59.62000 2.206
59.64000 4.061
59.66000 4.229
59.68000 2.242
59.70000 3.900
59.72000 3.294
59.74000 3.389
59.76000 6.801
59.78000 3.162
59.80000 -0.239
59.82000 1.123
59.84000 3.065
59.86000 2.111
59.88000 1.949
59.90000 -0.685
59.92000 1.782
59.94000 0.638
59.96000 0.971
59.98000 2.266
60.00000 1.400
60.02000 2.085
60.04000 0.542
60.06000 0.338
60.08000 2.418
60.10000 4.854
60.12000 5.760
60.14000 3.815
60.16000 6.178
60.18000 2.223
60.20000 4.411
60.22000 6.158
60.24000 5.684
60.26000 5.230
60.28000 5.592
60.30000 2.049
60.32000 0.372
60.34000 -0.314
60.36000 -1.766
60.38000 -1.526
60.40000 -1.147
60.42000 -2.385
60.44000 1.279
60.46000 2.325
60.48000 0.313
60.50000 -1.952
60.52000 -0.510
60.54000 1.400
60.56000 1.508
60.58000 0.621
60.60000 5.066
60.62000 0.974
60.64000 0.606
60.66000 3.195
60.68000 0.935
60.70000 0.949
60.72000 -0.567
60.74000 -0.375
60.76000 1.595
60.78000 4.797
60.80000 3.892
60.82000 3.388
60.84000 1.775
60.86000 0.130
60.88000 0.864
60.90000 -0.252
60.92000 2.658
60.94000 1.443
60.96000 0.374
60.98000 0.727
61.00000 0.224
61.02000 3.939
61.04000 2.006
61.06000 2.972
61.08000 2.258
61.10000 -0.298
61.12000 0.919
61.14000 -1.134
61.16000 -0.025
61.18000 0.418
61.20000 1.581
61.22000 2.801
61.24000 3.818
61.26000 0.499
61.28000 0.069
61.30000 1.000
61.32000 0.804
61.34000 1.449
61.36000 6.338
61.38000 4.621
61.40000 1.600
61.42000 5.378
61.44000 0.752
61.46000 1.491
61.48000 -0.517
61.50000 -2.362
61.52000 -0.768
61.54000 2.360
61.56000 3.201
61.58000 1.636
61.60000 1.301
61.62000 3.531
61.64000 0.231
61.66000 -2.156
61.68000 2.365
61.70000 6.171
61.72000 3.255
61.74000 -0.223
61.76000 1.493
61.78000 -2.360
61.80000 -0.240
61.82000 1.923
61.84000 1.764
61.86000 -1.455
61.88000 -0.797
61.90000 3.264
61.92000 0.808
61.94000 1.598
61.96000 0.951
61.98000 3.478
62.00000 3.903
62.02000 4.459
62.04000 4.492
62.06000 0.406
62.08000 -1.272
62.10000 2.636
62.12000 5.671
62.14000 4.086
62.16000 0.749
62.18000 0.024
62.20000 2.617
62.22000 2.443
62.24000 1.775
62.26000 1.966
62.28000 0.268
62.30000 2.123
62.32000 1.250
62.34000 -0.027
62.36000 -1.030
62.38000 -2.340
62.40000 0.910
62.42000 3.255
62.44000 1.035
62.46000 0.014
62.48000 1.382
62.50000 1.727
62.52000 2.664
62.54000 4.933
62.56000 3.732
62.58000 2.615
62.60000 1.334
62.62000 1.197
62.64000 -1.155
62.66000 1.849
62.68000 0.559
62.70000 2.979
62.72000 2.209
62.74000 2.522
62.76000 1.444
62.78000 3.336
62.80000 4.159
62.82000 0.826
62.84000 -2.328
62.86000 -1.738
62.88000 0.653
62.90000 0.641
62.92000 2.961
62.94000 5.194
62.96000 0.287
62.98000 1.786
63.00000 1.446
63.02000 0.397
63.04000 1.201
63.06000 0.584
63.08000 1.766
63.10000 2.639
63.12000 0.977
63.14000 2.260
63.16000 0.494
63.18000 1.909
63.20000 1.421
63.22000 -0.365
63.24000 0.038
63.26000 1.787
63.28000 0.835
63.30000 -0.157
63.32000 2.594
63.34000 4.834
63.36000 4.889
63.38000 0.975
63.40000 1.227
63.42000 -0.315
63.44000 -0.674
63.46000 3.895
63.48000 4.932
63.50000 2.373
63.52000 -2.314
63.54000 -1.854
63.56000 4.240
63.58000 4.409
63.60000 2.898
63.62000 2.711
63.64000 2.260
63.66000 1.094
63.68000 -0.158
63.70000 0.631
63.72000 -1.024
63.74000 1.506
63.76000 2.199
63.78000 1.418
63.80000 3.917
63.82000 4.671
63.84000 1.205
63.86000 0.840
63.88000 5.148
63.90000 2.031
63.92000 1.784
63.94000 4.339
63.96000 2.148
63.98000 5.808
64.00000 1.755
64.02000 -2.316
64.04000 1.932
64.06000 2.507
64.08000 -0.007
64.10000 -0.321
64.12000 0.963
64.14000 2.846
64.16000 2.755
64.18000 1.465
64.20000 6.080
64.22000 7.006
64.24000 3.443
64.26000 2.230
64.28000 2.015
64.30000 2.635
64.32000 2.585
64.34000 -0.775
64.36000 -1.119
64.38000 0.124
64.40000 2.194
64.42000 5.613
64.44000 4.938
64.46000 1.486
64.48000 3.146
64.50000 0.930
64.52000 3.147
64.54000 4.932
64.56000 -0.919
64.58000 -2.325
64.60000 3.573
64.62000 2.243
64.64000 0.240
64.66000 1.914
64.68000 3.607
64.70000 4.152
64.72000 4.082
64.74000 -0.662
64.76000 -2.283
64.78000 1.240
64.80000 0.689
64.82000 2.443
64.84000 3.695
64.86000 1.367
64.88000 2.020
64.90000 0.673
64.92000 0.399
64.94000 -0.814
64.96000 1.359
64.98000 1.922
65.00000 0.538
65.02000 3.961
65.04000 1.467
65.06000 1.302
65.08000 0.426
65.10000 0.245
65.12000 3.743
65.14000 3.859
65.16000 1.699
65.18000 0.748
65.20000 3.104
65.22000 2.183
65.24000 1.486
65.26000 1.009
65.28000 1.209
65.30000 -1.195
65.32000 0.810
65.34000 1.906
65.36000 0.993
65.38000 3.704
65.40000 1.523
65.42000 0.333
65.44000 -1.924
65.46000 0.196
65.48000 -2.060
65.50000 -0.484
65.52000 -0.105
65.54000 -1.174
65.56000 -1.575
65.58000 1.950
65.60000 1.444
65.62000 -0.167
65.64000 0.598
65.66000 -0.592
65.68000 -1.354
65.70000 -0.766
65.72000 -0.023
65.74000 2.479
65.76000 2.552
65.78000 2.867
65.80000 2.647
65.82000 1.623
65.84000 4.029
65.86000 4.967
65.88000 4.382
65.90000 0.452
65.92000 -2.331
65.94000 -2.331
65.96000 0.733
65.98000 1.237
66.00000 0.640
66.02000 0.452
66.04000 2.057
66.06000 0.590
66.08000 2.233
66.10000 3.682
66.12000 4.275
66.14000 1.716
66.16000 3.485
66.18000 2.223
66.20000 1.149
66.22000 0.101
66.24000 0.775
66.26000 -1.094
66.28000 1.748
66.30000 -2.338
66.32000 -2.239
66.34000 1.917
66.36000 1.884
66.38000 2.776
66.40000 2.859
66.42000 3.361
66.44000 4.616
66.46000 4.905
66.48000 3.658
66.50000 2.475
66.52000 3.724
66.54000 0.969
66.56000 0.392
66.58000 -1.297
66.60000 -1.761
66.62000 0.293
66.64000 0.502
66.66000 0.480
66.68000 0.619
66.70000 1.284
66.72000 0.590
66.74000 2.366
66.76000 0.869
66.78000 -1.021
66.80000 -1.105
66.82000 -0.112
66.84000 1.128
66.86000 2.542
66.88000 -0.373
66.90000 1.468
66.92000 0.542
66.94000 1.471
66.96000 -2.356
66.98000 0.324
67.00000 2.965
67.02000 1.954
67.04000 0.121
67.06000 0.040
67.08000 3.291
67.10000 0.693
67.12000 0.831
67.14000 2.135
67.16000 0.059
67.18000 0.135
67.20000 0.159
67.22000 -2.231
67.24000 -2.203
67.26000 -2.133
67.28000 -1.581
67.30000 -0.329
67.32000 3.208
67.34000 5.978
67.36000 3.548
67.38000 3.098
67.40000 0.712
67.42000 1.790
67.44000 4.006
67.46000 1.964
67.48000 1.350
67.50000 0.936
67.52000 -0.676
67.54000 2.855
67.56000 5.243
67.58000 0.475
67.60000 0.596
67.62000 0.163
67.64000 0.123
67.66000 1.656
67.68000 1.799
67.70000 1.096
67.72000 0.794
67.74000 -0.050
67.76000 -2.382
67.78000 0.547
67.80000 2.582
67.82000 2.035
67.84000 0.542
67.86000 -1.205
67.88000 1.892
67.90000 2.221
67.92000 0.791
67.94000 1.458
67.96000 2.646
67.98000 -0.854
68.00000 2.092
68.02000 4.017
68.04000 4.576
68.06000 6.086
68.08000 4.675
68.10000 5.611
68.12000 8.064
68.14000 4.944
68.16000 5.422
68.18000 7.356
68.20000 5.365
68.22000 6.538
68.24000 6.643
68.26000 8.286
68.28000 8.359
68.30000 4.582
68.32000 10.566
68.34000 9.388
68.36000 7.320
68.38000 10.801
68.40000 11.514
68.42000 12.531
68.44000 11.753
68.46000 13.236
68.48000 12.823
68.50000 12.308
68.52000 12.282
68.54000 16.385
68.56000 15.679
68.58000 15.234
68.60000 13.899
68.62000 17.072
68.64000 15.164
68.66000 15.382
68.68000 19.259
68.70000 18.071
68.72000 19.648
68.74000 24.486
68.76000 24.149
68.78000 20.118
68.80000 20.546
68.82000 20.088
68.84000 21.786
68.86000 21.482
68.88000 20.609
68.90000 19.081
68.92000 18.708
68.94000 19.934
68.96000 21.917
68.98000 21.770
69.00000 19.830
69.02000 20.738
69.04000 24.176
69.06000 24.359
69.08000 22.484
69.10000 26.198
69.12000 23.319
69.14000 19.592
69.16000 18.663
69.18000 19.867
69.20000 21.639
69.22000 20.408
69.24000 19.185
69.26000 18.703
69.28000 19.012
69.30000 19.830
69.32000 19.449
69.34000 18.880
69.36000 13.198
69.38000 10.335
69.40000 15.429
69.42000 13.090
69.44000 15.619
69.46000 12.649
69.48000 13.078
69.50000 11.145
69.52000 9.415
69.54000 9.016
69.56000 11.263
69.58000 11.028
69.60000 13.947
69.62000 12.828
69.64000 10.808
69.66000 7.962
69.68000 8.210
69.70000 2.458
69.72000 1.408
69.74000 7.382
69.76000 7.842
69.78000 6.775
69.80000 6.607
69.82000 7.362
69.84000 4.340
69.86000 3.696
69.88000 -0.128
69.90000 1.130
69.92000 5.756
69.94000 4.819
69.96000 5.164
69.98000 4.240
70.00000 1.705
70.02000 0.837
70.04000 3.135
70.06000 0.961
70.08000 1.580
70.10000 1.049
70.12000 0.817
70.14000 -1.416
70.16000 0.849
70.18000 1.404
70.20000 1.532
70.22000 0.606
70.24000 -1.206
70.26000 -0.944
70.28000 2.487
70.30000 3.212
70.32000 3.181
70.34000 6.275
70.36000 4.441
70.38000 3.640
70.40000 2.586
70.42000 2.333
70.44000 -1.161
70.46000 3.561
70.48000 1.610
70.50000 2.494
70.52000 0.606
70.54000 0.852
70.56000 3.938
70.58000 6.761
70.60000 -1.639
70.62000 -2.307
70.64000 -1.092
70.66000 -0.860
70.68000 1.142
70.70000 1.574
70.72000 0.044
70.74000 -0.659
70.76000 -2.101
70.78000 0.302
70.80000 3.097
70.82000 0.395
70.84000 -0.035
70.86000 3.931
70.88000 1.121
70.90000 -0.319
70.92000 2.569
70.94000 4.515
70.96000 3.462
70.98000 0.581
71.00000 -0.993
71.02000 0.893
71.04000 2.512
71.06000 3.978
71.08000 2.991
71.10000 -0.520
71.12000 0.432
71.14000 0.875
71.16000 -1.424
71.18000 -0.852
71.20000 -0.913
71.22000 2.294
71.24000 2.124
71.26000 -0.023
71.28000 -2.270
71.30000 -1.038
71.32000 -1.661
71.34000 -1.075
71.36000 -1.584
71.38000 -1.623
71.40000 1.216
71.42000 -0.259
71.44000 -1.462
71.46000 2.589
71.48000 1.070
71.50000 0.487
71.52000 -0.515
71.54000 0.535
71.56000 -2.034
71.58000 -0.403
71.60000 0.345
71.62000 -1.585
71.64000 0.161
71.66000 -0.259
71.68000 -0.660
71.70000 -0.988
71.72000 -1.209
71.74000 -1.483
71.76000 0.561
71.78000 1.723
71.80000 -0.617
71.82000 1.682
71.84000 1.304
71.86000 -1.644
71.88000 -1.451
71.90000 0.949
71.92000 -0.363
71.94000 -2.112
71.96000 2.649
71.98000 -1.235
72.00000 0.480
72.02000 0.715
72.04000 0.031
72.06000 -1.260
72.08000 1.543
72.10000 0.849
72.12000 -0.111
72.14000 2.037
72.16000 0.589
72.18000 1.566
72.20000 3.482
72.22000 -0.648
72.24000 -2.224
72.26000 -1.806
72.28000 1.250
72.30000 -2.219
72.32000 -1.549
72.34000 2.204
72.36000 3.185
72.38000 0.041
72.40000 1.921
72.42000 4.932
72.44000 5.219
72.46000 0.721
72.48000 -1.434
72.50000 -1.920
72.52000 -0.948
72.54000 -2.200
72.56000 1.835
72.58000 2.896
72.60000 3.408
72.62000 1.085
72.64000 -1.754
72.66000 -0.959
72.68000 2.610
72.70000 2.130
72.72000 6.299
72.74000 6.157
72.76000 -0.112
72.78000 -0.735
72.80000 3.822
72.82000 2.858
72.84000 -1.820
72.86000 -2.197
72.88000 -1.836
72.90000 -0.692
72.92000 0.214
72.94000 0.495
72.96000 0.452
72.98000 -1.247
73.00000 -0.347
73.02000 -1.477
73.04000 -1.259
73.06000 0.512
73.08000 2.451
73.10000 0.931
73.12000 -0.923
73.14000 -0.014
73.16000 2.179
73.18000 2.052
73.20000 0.808
73.22000 -0.988
73.24000 -1.271
73.26000 1.699
73.28000 -0.088
73.30000 -1.582
73.32000 -0.341
73.34000 0.133
73.36000 -0.374
73.38000 2.097
73.40000 5.773
73.42000 4.202
73.44000 2.410
73.46000 0.509
73.48000 0.183
73.50000 0.765
73.52000 2.395
73.54000 7.452
73.56000 6.795
73.58000 2.030
73.60000 1.788
73.62000 1.711
73.64000 3.442
73.66000 4.609
73.68000 2.158
73.70000 1.321
73.72000 2.003
73.74000 3.953
73.76000 2.096
73.78000 -0.011
73.80000 2.130
73.82000 0.863
73.84000 0.676
73.86000 0.640
73.88000 4.307
73.90000 4.238
73.92000 3.848
73.94000 1.858
73.96000 1.629
73.98000 2.536
74.00000 3.722
74.02000 5.937
74.04000 5.550
74.06000 0.052
74.08000 4.045
74.10000 1.173
74.12000 -2.150
74.14000 1.814
74.16000 4.954
74.18000 -0.237
74.20000 -1.788
74.22000 1.882
74.24000 0.373
74.26000 1.849
74.28000 2.724
74.30000 1.655
74.32000 0.692
74.34000 4.041
74.36000 1.955
74.38000 2.252
74.40000 1.288
74.42000 3.696
74.44000 1.844
74.46000 3.886
74.48000 3.038
74.50000 4.865
74.52000 6.380
74.54000 5.615
74.56000 1.832
74.58000 1.506
74.60000 4.724
74.62000 6.297
74.64000 3.692
74.66000 0.841
74.68000 2.003
74.70000 2.843
74.72000 2.379
74.74000 4.238
74.76000 2.943
74.78000 -1.540
74.80000 -1.768
74.82000 1.801
74.84000 2.848
74.86000 6.008
74.88000 6.589
74.90000 2.766
74.92000 -1.333
74.94000 0.143
74.96000 1.329
74.98000 4.813
75.00000 2.451
75.02000 0.415
75.04000 -2.129
75.06000 0.777
75.08000 4.714
75.10000 2.757
75.12000 2.025
75.14000 2.559
75.16000 2.561
75.18000 1.641
75.20000 2.937
75.22000 5.847
75.24000 5.749
75.26000 2.118
75.28000 0.388
75.30000 1.184
75.32000 2.675
75.34000 6.078
75.36000 4.568
75.38000 5.893
75.40000 6.847
75.42000 5.806
75.44000 5.460
75.46000 2.897
75.48000 2.145
75.50000 0.204
75.52000 -1.501
75.54000 -0.923
75.56000 -0.952
75.58000 2.406
75.60000 3.989
75.62000 4.618
75.64000 6.826
75.66000 0.320
75.68000 -0.864
75.70000 -0.284
75.72000 4.492
75.74000 5.872
75.76000 1.753
75.78000 5.773
75.80000 4.690
75.82000 2.016
75.84000 0.946
75.86000 1.930
75.88000 4.712
75.90000 5.172
75.92000 3.704
75.94000 0.343
75.96000 0.360
75.98000 -0.279
76.00000 0.877
76.02000 -0.394
76.04000 0.878
76.06000 -1.337
76.08000 1.312
76.10000 7.279
76.12000 3.542
76.14000 1.600
76.16000 5.694
76.18000 2.602
76.20000 0.369
76.22000 0.615
76.24000 3.186
76.26000 -0.431
76.28000 -2.085
76.30000 -1.028
76.32000 1.540
76.34000 0.945
76.36000 1.234
76.38000 -0.195
76.40000 1.740
76.42000 4.763
76.44000 1.714
76.46000 2.878
76.48000 1.017
76.50000 6.266
76.52000 5.573
76.54000 6.006
76.56000 2.452
76.58000 0.799
76.60000 0.194
76.62000 -0.271
76.64000 -2.128
76.66000 6.164
76.68000 7.594
76.70000 4.999
76.72000 6.188
76.74000 5.004
76.76000 5.611
76.78000 3.755
76.80000 0.988
76.82000 2.518
76.84000 0.102
76.86000 3.859
76.88000 1.289
76.90000 -0.844
76.92000 3.595
76.94000 1.295
76.96000 -2.143
76.98000 0.915
77.00000 6.771
77.02000 3.360
77.04000 2.690
77.06000 2.983
77.08000 3.790
77.10000 3.357
77.12000 1.698
77.14000 5.720
77.16000 7.254
77.18000 6.294
77.20000 3.549
77.22000 3.353
77.24000 0.181
77.26000 -2.051
77.28000 1.401
77.30000 2.316
77.32000 2.825
77.34000 -0.107
77.36000 -0.987
77.38000 1.745
77.40000 1.641
77.42000 -0.131
77.44000 1.000
77.46000 2.613
77.48000 1.513
77.50000 0.931
77.52000 1.380
77.54000 -1.067
77.56000 0.886
77.58000 5.084
77.60000 7.365
77.62000 2.911
77.64000 2.927
77.66000 4.054
77.68000 4.471
77.70000 -0.423
77.72000 -2.181
77.74000 2.008
77.76000 2.127
77.78000 -0.439
77.80000 3.132
77.82000 6.063
77.84000 3.726
77.86000 3.963
77.88000 3.052
77.90000 1.421
77.92000 0.354
77.94000 2.561
77.96000 2.333
77.98000 2.537
78.00000 1.895
78.02000 6.620
78.04000 6.732
78.06000 3.500
78.08000 1.000
78.10000 0.068
78.12000 -0.578
78.14000 6.151
78.16000 2.031
78.18000 -0.490
78.20000 -0.667
78.22000 1.610
78.24000 1.944
78.26000 4.078
78.28000 3.385
78.30000 2.934
78.32000 1.997
78.34000 -1.949
78.36000 0.036
78.38000 5.009
78.40000 0.153
78.42000 0.865
78.44000 2.763
78.46000 4.026
78.48000 2.127
78.50000 0.951
78.52000 -0.624
78.54000 -0.959
78.56000 3.256
78.58000 5.638
78.60000 4.483
78.62000 3.673
78.64000 -1.932
78.66000 -0.484
78.68000 1.241
78.70000 -0.183
78.72000 0.932
78.74000 4.885
78.76000 0.646
78.78000 -0.891
78.80000 0.633
78.82000 0.636
78.84000 -0.248
78.86000 2.748
78.88000 3.557
78.90000 3.064
78.92000 2.737
78.94000 1.662
78.96000 0.721
78.98000 0.971
79.00000 1.816
79.02000 1.478
79.04000 1.253
79.06000 -0.309
79.08000 -0.731
79.10000 2.572
79.12000 3.455
79.14000 1.592
79.16000 -0.252
79.18000 2.389
79.20000 1.796
79.22000 2.291
79.24000 2.357
79.26000 3.353
79.28000 8.428
79.30000 4.226
79.32000 0.692
79.34000 2.676
79.36000 1.862
79.38000 2.320
79.40000 0.528
79.42000 3.784
79.44000 2.778
79.46000 1.719
79.48000 0.613
79.50000 2.588
79.52000 3.934
79.54000 3.040
79.56000 -2.169
79.58000 6.149
79.60000 4.655
79.62000 1.718
79.64000 5.362
79.66000 4.127
79.68000 1.159
79.70000 -0.109
79.72000 4.145
79.74000 3.645
79.76000 0.770
79.78000 3.087
79.80000 2.485
79.82000 4.670
79.84000 3.439
79.86000 1.456
79.88000 -0.070
79.90000 3.890
79.92000 -1.874
79.94000 2.292
79.96000 3.618
79.98000 6.455
80.00000 2.394
80.02000 1.310
80.04000 -0.973
80.06000 -1.045
80.08000 4.445
80.10000 1.665
80.12000 1.784
80.14000 -0.148
80.16000 -1.286
80.18000 -2.092
80.20000 0.451
80.22000 0.708
80.24000 -1.793
80.26000 -0.125
80.28000 1.240
80.30000 0.290
80.32000 -0.461
80.34000 1.672
80.36000 2.394
80.38000 0.956
80.40000 -0.756
80.42000 2.676
80.44000 0.515
80.46000 0.063
80.48000 0.358
80.50000 0.681
80.52000 1.354
80.54000 -1.203
80.56000 1.438
80.58000 2.501
80.60000 1.187
80.62000 0.936
80.64000 -0.133
80.66000 -0.362
80.68000 2.682
80.70000 0.388
80.72000 0.506
80.74000 0.172
80.76000 2.065
80.78000 2.765
80.80000 3.754
80.82000 1.142
80.84000 -0.067
80.86000 -2.274
80.88000 -0.154
80.90000 -0.382
80.92000 1.105
80.94000 0.753
80.96000 -2.226
80.98000 -1.741
81.00000 -2.056
81.02000 2.081
81.04000 3.935
81.06000 4.590
81.08000 0.803
81.10000 1.002
81.12000 3.070
81.14000 -0.179
81.16000 -0.893
81.18000 1.360
81.20000 1.526
81.22000 0.145
81.24000 -1.705
81.26000 1.544
81.28000 -0.569
81.30000 -0.837
81.32000 -2.311
81.34000 -1.141
81.36000 1.304
81.38000 4.787
81.40000 4.980
81.42000 -0.303
81.44000 -1.012
81.46000 1.922
81.48000 3.224
81.50000 1.146
81.52000 5.928
81.54000 -0.956
81.56000 2.645
81.58000 1.656
81.60000 3.380
81.62000 5.668
81.64000 3.980
81.66000 4.100
81.68000 0.499
81.70000 0.297
81.72000 2.225
81.74000 -1.254
81.76000 -1.884
81.78000 0.017
81.80000 2.998
81.82000 2.081
81.84000 1.211
81.86000 -0.702
81.88000 4.276
81.90000 5.797
81.92000 3.675
81.94000 2.196
81.96000 -1.507
81.98000 0.681
82.00000 4.526
82.02000 5.389
82.04000 4.906
82.06000 1.909
82.08000 -1.636
82.10000 -1.004
82.12000 1.733
82.14000 4.609
82.16000 6.435
82.18000 6.593
82.20000 5.880
82.22000 5.206
82.24000 5.710
82.26000 6.666
82.28000 3.713
82.30000 5.940
82.32000 5.210
82.34000 9.544
82.36000 5.121
82.38000 9.799
82.40000 11.269
82.42000 5.107
82.44000 6.769
82.46000 8.778
82.48000 9.845
82.50000 11.932
82.52000 5.630
82.54000 8.674
82.56000 9.278
82.58000 14.549
82.60000 20.749
82.62000 19.632
82.64000 16.208
82.66000 14.652
82.68000 19.237
82.70000 22.781
82.72000 21.546
82.74000 18.292
82.76000 15.422
82.78000 22.538
82.80000 20.238
82.82000 19.313
82.84000 20.174
82.86000 22.261
82.88000 22.667
82.90000 23.052
82.92000 24.369
82.94000 22.925
82.96000 23.998
82.98000 22.640
83.00000 26.786
83.02000 27.325
83.04000 26.286
83.06000 28.430
83.08000 25.592
83.10000 26.499
83.12000 29.213
83.14000 32.421
83.16000 30.176
83.18000 32.860
83.20000 32.721
83.22000 34.067
83.24000 32.513
83.26000 29.752
83.28000 25.778
83.30000 27.261
83.32000 31.111
83.34000 28.300
83.36000 30.859
83.38000 34.052
83.40000 29.361
83.42000 29.652
83.44000 31.336
83.46000 28.373
83.48000 33.361
83.50000 30.582
83.52000 30.497
83.54000 30.633
83.56000 30.387
83.58000 28.240
83.60000 27.845
83.62000 27.732
83.64000 29.868
83.66000 26.141
83.68000 20.776
83.70000 22.845
83.72000 25.705
83.74000 26.301
83.76000 22.950
83.78000 23.305
83.80000 22.042
83.82000 18.747
83.84000 15.347
83.86000 18.556
83.88000 18.653
83.90000 20.582
83.92000 19.000
83.94000 20.587
83.96000 17.699
83.98000 19.246
84.00000 17.479
84.02000 11.496
84.04000 15.922
84.06000 19.709
84.08000 19.790
84.10000 16.969
84.12000 16.980
84.14000 10.348
84.16000 6.860
84.18000 11.823
84.20000 11.033
84.22000 13.371
84.24000 13.334
84.26000 7.607
84.28000 7.223
84.30000 6.931
84.32000 5.064
84.34000 4.978
84.36000 5.662
84.38000 5.221
84.40000 3.718
84.42000 5.257
84.44000 7.474
84.46000 6.086
84.48000 8.211
84.50000 8.328
84.52000 4.151
84.54000 4.224
84.56000 3.399
84.58000 1.981
84.60000 2.960
84.62000 9.419
84.64000 9.016
84.66000 6.388
84.68000 2.904
84.70000 7.960
84.72000 5.586
84.74000 4.765
84.76000 9.823
84.78000 8.002
84.80000 5.897
84.82000 3.137
84.84000 -0.937
84.86000 0.727
84.88000 -1.652
84.90000 1.838
84.92000 -0.302
84.94000 -0.385
84.96000 2.323
84.98000 4.061
85.00000 2.407
85.02000 -2.268
85.04000 2.501
85.06000 2.862
85.08000 4.233
85.10000 2.667
85.12000 4.093
85.14000 8.806
85.16000 0.797
85.18000 -0.282
85.20000 0.815
85.22000 1.106
85.24000 1.986
85.26000 0.452
85.28000 0.391
85.30000 2.687
85.32000 2.515
85.34000 2.227
85.36000 2.607
85.38000 -2.208
85.40000 1.917
85.42000 1.704
85.44000 0.432
85.46000 0.529
85.48000 2.605
85.50000 5.141
85.52000 5.424
85.54000 3.852
85.56000 2.216
85.58000 3.676
85.60000 5.253
85.62000 3.257
85.64000 -0.181
85.66000 0.260
85.68000 4.991
85.70000 5.729
85.72000 1.861
85.74000 1.757
85.76000 0.686
85.78000 0.552
85.80000 4.291
85.82000 6.288
85.84000 2.450
85.86000 1.130
85.88000 0.072
85.90000 1.413
85.92000 4.178
85.94000 3.714
85.96000 0.952
85.98000 2.366
86.00000 1.632
86.02000 0.948
86.04000 5.729
86.06000 3.364
86.08000 3.919
86.10000 6.253
86.12000 6.785
86.14000 3.981
86.16000 1.138
86.18000 -1.527
86.20000 -2.209
86.22000 0.255
86.24000 6.009
86.26000 4.130
86.28000 4.830
86.30000 2.056
86.32000 -0.070
86.34000 4.397
86.36000 2.559
86.38000 1.873
86.40000 3.070
86.42000 8.624
86.44000 6.537
86.46000 3.895
86.48000 2.543
86.50000 4.826
86.52000 6.648
86.54000 2.754
86.56000 0.024
86.58000 -1.307
86.60000 -2.212
86.62000 -0.158
86.64000 2.471
86.66000 2.288
86.68000 6.855
86.70000 3.672
86.72000 4.583
86.74000 5.787
86.76000 4.132
86.78000 8.940
86.80000 7.414
86.82000 4.031
86.84000 0.279
86.86000 5.175
86.88000 6.317
86.90000 7.278
86.92000 5.084
86.94000 7.688
86.96000 9.266
86.98000 8.655
87.00000 8.733
87.02000 6.649
87.04000 6.683
87.06000 5.850
87.08000 9.866
87.10000 11.957
87.12000 13.133
87.14000 10.465
87.16000 6.276
87.18000 10.366
87.20000 10.830
87.22000 12.234
87.24000 11.291
87.26000 15.208
87.28000 13.193
87.30000 12.392
87.32000 11.921
87.34000 16.376
87.36000 17.910
87.38000 13.800
87.40000 11.190
87.42000 13.579
87.44000 11.221
87.46000 11.935
87.48000 14.513
87.50000 14.115
87.52000 15.959
87.54000 18.557
87.56000 20.451
87.58000 16.237
87.60000 15.848
87.62000 12.374
87.64000 18.360
87.66000 29.144
87.68000 25.534
87.70000 19.878
87.72000 21.117
87.74000 16.886
87.76000 17.633
87.78000 19.213
87.80000 20.827
87.82000 18.916
87.84000 22.596
87.86000 23.661
87.88000 21.678
87.90000 21.583
87.92000 15.643
87.94000 24.464
87.96000 21.248
87.98000 18.761
88.00000 16.618
88.02000 17.697
88.04000 15.933
88.06000 13.985
88.08000 18.406
88.10000 14.417
88.12000 11.445
88.14000 14.770
88.16000 11.507
88.18000 14.121
88.20000 17.278
88.22000 16.010
88.24000 12.719
88.26000 13.357
88.28000 13.960
88.30000 14.653
88.32000 16.386
88.34000 13.046
88.36000 12.899
88.38000 13.862
88.40000 10.098
88.42000 8.794
88.44000 10.180
88.46000 10.492
88.48000 7.967
88.50000 7.341
88.52000 8.026
88.54000 6.911
88.56000 8.059
88.58000 7.701
88.60000 7.574
88.62000 4.219
88.64000 6.967
88.66000 6.848
88.68000 6.166
88.70000 6.058
88.72000 4.008
88.74000 3.577
88.76000 6.909
88.78000 10.225
88.80000 3.755
88.82000 1.583
88.84000 4.231
88.86000 1.559
88.88000 -0.925
88.90000 -0.040
88.92000 -0.337
88.94000 0.970
88.96000 1.485
88.98000 1.953
89.00000 4.702
89.02000 4.962
89.04000 3.340
89.06000 5.494
89.08000 2.890
89.10000 -0.499
89.12000 -0.640
89.14000 -0.031
89.16000 2.771
89.18000 3.931
89.20000 0.638
89.22000 0.247
89.24000 2.568
89.26000 2.932
89.28000 -2.150
89.30000 1.109
89.32000 4.867
89.34000 1.674
89.36000 -1.785
89.38000 2.913
89.40000 0.203
89.42000 0.542
89.44000 -0.387
89.46000 -0.696
89.48000 0.057
89.50000 2.328
89.52000 2.930
89.54000 1.038
89.56000 -1.671
89.58000 -0.948
89.60000 -0.212
89.62000 2.852
89.64000 2.158
89.66000 -2.099
89.68000 0.095
89.70000 0.903
89.72000 1.441
89.74000 1.306
89.76000 0.158
89.78000 0.705
89.80000 -0.243
89.82000 -0.141
89.84000 1.453
89.86000 2.183
89.88000 0.752
89.90000 2.974
89.92000 3.390
89.94000 -0.707
89.96000 0.958
89.98000 4.085
90.00000 2.042
90.02000 -1.015
90.04000 -0.737
90.06000 1.676
90.08000 4.457
90.10000 2.533
90.12000 3.404
90.14000 0.351
90.16000 1.018
90.18000 -0.785
90.20000 0.074
90.22000 1.805
90.24000 4.198
90.26000 3.827
90.28000 0.635
90.30000 0.312
90.32000 1.924
90.34000 4.949
90.36000 4.788
90.38000 1.402
90.40000 0.740
90.42000 -2.068
90.44000 5.579
90.46000 3.062
90.48000 0.452
90.50000 2.769
90.52000 3.218
90.54000 -0.114
90.56000 4.221
90.58000 4.926
90.60000 3.591
90.62000 3.220
90.64000 2.258
90.66000 0.580
90.68000 1.158
90.70000 1.100
90.72000 2.795
90.74000 3.050
90.76000 3.431
90.78000 5.944
90.80000 2.548
90.82000 1.190
90.84000 3.692
90.86000 4.626
90.88000 6.522
90.90000 4.365
90.92000 4.843
90.94000 3.923
90.96000 5.457
90.98000 5.411
91.00000 4.072
91.02000 3.945
91.04000 2.767
91.06000 4.713
91.08000 6.048
91.10000 4.812
91.12000 3.376
91.14000 5.587
91.16000 4.728
91.18000 3.994
91.20000 0.557
91.22000 1.678
91.24000 -2.033
91.26000 2.773
91.28000 7.949
91.30000 1.988
91.32000 5.601
91.34000 7.394
91.36000 10.316
91.38000 6.221
91.40000 3.779
91.42000 6.266
91.44000 5.580
91.46000 7.841
91.48000 7.765
91.50000 10.443
91.52000 9.088
91.54000 5.026
91.56000 3.345
91.58000 1.262
91.60000 3.114
91.62000 4.005
91.64000 1.425
91.66000 0.650
91.68000 2.961
91.70000 1.523
91.72000 4.235
91.74000 7.831
91.76000 3.473
91.78000 2.857
91.80000 4.872
91.82000 0.500
91.84000 0.293
91.86000 4.858
91.88000 3.613
91.90000 2.422
91.92000 1.763
91.94000 2.671
91.96000 1.919
91.98000 4.399
92.00000 2.223
92.02000 3.498
92.04000 4.847
92.06000 4.112
92.08000 1.080
92.10000 6.045
92.12000 8.104
92.14000 3.169
92.16000 1.297
92.18000 1.192
92.20000 4.767
92.22000 4.980
92.24000 2.305
92.26000 5.871
92.28000 6.744
92.30000 8.820
92.32000 7.243
92.34000 3.003
92.36000 1.975
92.38000 4.455
92.40000 2.519
92.42000 2.616
92.44000 1.316
92.46000 5.194
92.48000 3.777
92.50000 -2.044
92.52000 0.798
92.54000 4.169
92.56000 5.336
92.58000 4.498
92.60000 2.399
92.62000 3.781
92.64000 5.328
92.66000 2.495
92.68000 5.869
92.70000 -0.596
92.72000 1.573
92.74000 2.508
92.76000 1.172
92.78000 2.583
92.80000 2.166
92.82000 8.583
92.84000 7.236
92.86000 6.567
92.88000 5.968
92.90000 6.050
92.92000 7.219
92.94000 4.924
92.96000 1.925
92.98000 -0.118
93.00000 1.040
93.02000 3.336
93.04000 3.651
93.06000 3.488
93.08000 3.205
93.10000 4.317
93.12000 5.493
93.14000 2.297
93.16000 1.278
93.18000 3.630
93.20000 4.436
93.22000 2.212
93.24000 0.391
93.26000 1.041
93.28000 5.903
93.30000 4.376
93.32000 0.834
93.34000 -0.568
93.36000 3.115
93.38000 0.533
93.40000 -2.057
93.42000 2.467
93.44000 8.876
93.46000 4.984
93.48000 2.219
93.50000 1.856
93.52000 4.519
93.54000 1.969
93.56000 5.913
93.58000 5.318
93.60000 1.395
93.62000 6.766
93.64000 9.012
93.66000 5.922
93.68000 3.843
93.70000 6.136
93.72000 5.224
93.74000 3.705
93.76000 4.794
93.78000 3.450
93.80000 9.777
93.82000 7.478
93.84000 4.600
93.86000 1.237
93.88000 3.666
93.90000 3.785
93.92000 2.023
93.94000 6.191
93.96000 10.658
93.98000 4.450
94.00000 2.698
94.02000 3.388
94.04000 6.277
94.06000 5.711
94.08000 2.889
94.10000 4.251
94.12000 2.379
94.14000 2.438
94.16000 1.367
94.18000 2.061
94.20000 3.985
94.22000 4.250
94.24000 2.650
94.26000 6.575
94.28000 5.541
94.30000 7.107
94.32000 0.754
94.34000 1.068
94.36000 0.533
94.38000 -1.032
94.40000 -2.023
94.42000 0.918
94.44000 3.181
94.46000 7.334
94.48000 8.244
94.50000 7.598
94.52000 6.420
94.54000 3.453
94.56000 2.534
94.58000 2.884
94.60000 7.361
94.62000 6.219
94.64000 3.285
94.66000 5.129
94.68000 5.712
94.70000 5.975
94.72000 3.242
94.74000 6.550
94.76000 9.367
94.78000 5.969
94.80000 0.298
94.82000 2.834
94.84000 3.452
94.86000 1.918
94.88000 -1.252
94.90000 3.908
94.92000 3.598
94.94000 -1.825
94.96000 -1.024
94.98000 1.567
95.00000 4.784
95.02000 4.999
95.04000 1.600
95.06000 4.308
95.08000 2.881
95.10000 3.254
95.12000 2.890
95.14000 4.847
95.16000 3.207
95.18000 4.892
95.20000 7.187
95.22000 -0.577
95.24000 3.249
95.26000 7.305
95.28000 1.535
95.30000 3.003
95.32000 1.968
95.34000 1.829
95.36000 7.774
95.38000 3.475
95.40000 2.026
95.42000 3.242
95.44000 0.678
95.46000 4.398
95.48000 6.068
95.50000 6.811
95.52000 3.807
95.54000 5.664
95.56000 7.553
95.58000 6.781
95.60000 4.495
95.62000 7.924
95.64000 9.155
95.66000 6.907
95.68000 4.260
95.70000 4.344
95.72000 2.857
95.74000 3.352
95.76000 6.624
95.78000 4.258
95.80000 6.646
95.82000 7.983
95.84000 6.202
95.86000 2.827
95.88000 -0.292
95.90000 2.721
95.92000 0.187
95.94000 -2.034
95.96000 3.368
95.98000 4.144
96.00000 3.926
96.02000 3.860
96.04000 7.715
96.06000 8.521
96.08000 4.924
96.10000 2.865
96.12000 1.576
96.14000 2.928
96.16000 7.547
96.18000 3.714
96.20000 2.352
96.22000 3.357
96.24000 2.813
96.26000 5.296
96.28000 4.879
96.30000 5.890
96.32000 5.630
96.34000 3.087
96.36000 1.217
96.38000 -0.887
96.40000 0.750
96.42000 4.070
96.44000 6.604
96.46000 1.401
96.48000 3.034
96.50000 6.416
96.52000 5.241
96.54000 1.304
96.56000 6.310
96.58000 6.034
96.60000 2.319
96.62000 1.340
96.64000 6.509
96.66000 5.126
96.68000 2.644
96.70000 6.479
96.72000 5.653
96.74000 5.734
96.76000 1.680
96.78000 5.226
96.80000 7.362
96.82000 7.149
96.84000 9.995
96.86000 5.551
96.88000 4.481
96.90000 8.155
96.92000 8.520
96.94000 4.488
96.96000 1.524
96.98000 2.185
97.00000 5.311
97.02000 9.445
97.04000 3.691
97.06000 6.114
97.08000 3.859
97.10000 9.301
97.12000 4.652
97.14000 5.389
97.16000 7.516
97.18000 7.986
97.20000 7.575
97.22000 7.239
97.24000 9.449
97.26000 7.030
97.28000 6.321
97.30000 9.929
97.32000 9.113
97.34000 11.682
97.36000 11.785
97.38000 7.237
97.40000 8.043
97.42000 8.533
97.44000 1.691
97.46000 0.367
97.48000 2.229
97.50000 -2.002
97.52000 5.546
97.54000 7.107
97.56000 8.301
97.58000 7.618
97.60000 4.526
97.62000 7.664
97.64000 9.967
97.66000 4.605
97.68000 8.600
97.70000 7.416
97.72000 6.875
97.74000 9.001
97.76000 8.908
97.78000 5.843
97.80000 5.772
97.82000 5.850
97.84000 5.938
97.86000 4.459
97.88000 9.146
97.90000 3.126
97.92000 -2.008
97.94000 -0.257
97.96000 3.519
97.98000 -0.037
98.00000 4.679
98.02000 2.814
98.04000 6.942
98.06000 5.534
98.08000 7.098
98.10000 3.357
98.12000 2.469
98.14000 5.786
98.16000 7.735
98.18000 5.732
98.20000 7.448
98.22000 3.209
98.24000 2.430
98.26000 7.740
98.28000 1.568
98.30000 0.909
98.32000 1.196
98.34000 1.936
98.36000 6.051
98.38000 4.545
98.40000 1.794
98.42000 4.907
98.44000 2.496
98.46000 1.279
98.48000 3.547
98.50000 -0.936
98.52000 -1.520
98.54000 1.765
98.56000 0.730
98.58000 -1.107
98.60000 -2.019
98.62000 5.069
98.64000 4.865
98.66000 7.219
98.68000 3.480
98.70000 -0.872
98.72000 7.840
98.74000 13.603
98.76000 3.057
98.78000 3.414
98.80000 13.113
98.82000 9.429
98.84000 1.603
98.86000 -0.314
98.88000 0.467
98.90000 -1.886
98.92000 2.991
98.94000 3.646
98.96000 6.569
98.98000 8.229
99.00000 2.043
99.02000 2.052
99.04000 5.995
99.06000 8.235
99.08000 4.675
99.10000 0.476
99.12000 -1.377
99.14000 0.876
99.16000 2.247
99.18000 5.165
99.20000 3.383
99.22000 9.374
99.24000 6.162
99.26000 5.002
99.28000 2.550
99.30000 7.482
99.32000 5.530
99.34000 5.630
99.36000 7.082
99.38000 9.982
99.40000 -2.160
99.42000 0.330
99.44000 10.577
99.46000 4.879
99.48000 1.345
99.50000 9.089
99.52000 8.485
99.54000 6.797
99.56000 5.872
99.58000 10.040
99.60000 4.286
99.62000 7.314
99.64000 7.394
99.66000 12.240
99.68000 12.770
99.70000 7.910
99.72000 3.744
99.74000 10.508
99.76000 6.116
99.78000 -1.975
99.80000 1.900
99.82000 5.673
99.84000 1.842
99.86000 5.306
99.88000 4.430
99.90000 4.745
99.92000 7.026
99.94000 3.941
99.96000 -2.133
99.98000 0.000
