'Id: "0011389" Comment: "Integrate frame 0011389_Au-Ir-Rh_Au-Rich_XRD_Mapping-290-0000.gfrmwith cursor Wedge Cursor #5" Operator: "B?rgel" Anode: "Cu" Wavelength: "1.5406" Scantype: "2Theta (TwoTheta)" TimePerStep: "1" X: "13.5" Y: "27" Z: "5.95" 
10.00000 0.000
10.02000 -0.366
10.04000 -4.126
10.06000 -4.064
10.08000 1.586
10.10000 0.108
10.12000 -4.126
10.14000 8.433
10.16000 6.052
10.18000 -4.126
10.20000 -2.736
10.22000 2.497
10.24000 12.829
10.26000 19.011
10.28000 18.449
10.30000 10.392
10.32000 19.457
10.34000 17.973
10.36000 9.241
10.38000 4.995
10.40000 3.339
10.42000 13.678
10.44000 11.173
10.46000 2.830
10.48000 2.888
10.50000 3.579
10.52000 5.103
10.54000 -4.126
10.56000 -2.869
10.58000 10.790
10.60000 13.113
10.62000 7.650
10.64000 15.949
10.66000 17.192
10.68000 6.423
10.70000 -3.191
10.72000 10.367
10.74000 2.913
10.76000 17.551
10.78000 32.792
10.80000 23.972
10.82000 -2.731
10.84000 7.832
10.86000 5.474
10.88000 6.926
10.90000 36.600
10.92000 24.491
10.94000 17.363
10.96000 21.422
10.98000 24.815
11.00000 26.742
11.02000 23.012
11.04000 20.660
11.06000 21.062
11.08000 35.262
11.10000 25.152
11.12000 11.928
11.14000 14.103
11.16000 7.480
11.18000 15.569
11.20000 17.307
11.22000 12.998
11.24000 19.611
11.26000 10.976
11.28000 17.935
11.30000 14.483
11.32000 10.405
11.34000 5.461
11.36000 -5.113
11.38000 15.300
11.40000 21.220
11.42000 11.546
11.44000 8.500
11.46000 18.017
11.48000 16.025
11.50000 13.289
11.52000 2.253
11.54000 9.070
11.56000 20.509
11.58000 15.676
11.60000 19.103
11.62000 16.814
11.64000 21.885
11.66000 22.002
11.68000 15.551
11.70000 25.105
11.72000 23.988
11.74000 21.590
11.76000 12.786
11.78000 18.627
11.80000 15.618
11.82000 13.782
11.84000 13.753
11.86000 18.642
11.88000 22.433
11.90000 11.761
11.92000 16.223
11.94000 33.183
11.96000 26.905
11.98000 18.039
12.00000 17.395
12.02000 21.417
12.04000 22.218
12.06000 8.185
12.08000 16.066
12.10000 23.364
12.12000 19.220
12.14000 8.002
12.16000 12.477
12.18000 31.779
12.20000 28.107
12.22000 17.743
12.24000 19.321
12.26000 24.916
12.28000 21.285
12.30000 16.451
12.32000 12.658
12.34000 17.178
12.36000 11.426
12.38000 19.543
12.40000 24.679
12.42000 26.320
12.44000 18.116
12.46000 14.388
12.48000 16.557
12.50000 16.555
12.52000 17.015
12.54000 16.492
12.56000 17.772
12.58000 17.183
12.60000 16.293
12.62000 21.344
12.64000 31.335
12.66000 24.272
12.68000 21.355
12.70000 15.366
12.72000 25.048
12.74000 28.411
12.76000 20.923
12.78000 19.110
12.80000 21.657
12.82000 27.590
12.84000 26.610
12.86000 10.139
12.88000 15.757
12.90000 22.112
12.92000 19.776
12.94000 20.271
12.96000 7.577
12.98000 2.142
13.00000 15.392
13.02000 15.537
13.04000 21.444
13.06000 37.765
13.08000 29.288
13.10000 19.897
13.12000 15.926
13.14000 15.767
13.16000 20.108
13.18000 21.118
13.20000 29.302
13.22000 19.937
13.24000 16.780
13.26000 21.765
13.28000 14.689
13.30000 12.006
13.32000 23.365
13.34000 24.434
13.36000 21.383
13.38000 22.876
13.40000 14.269
13.42000 17.987
13.44000 18.496
13.46000 17.307
13.48000 15.478
13.50000 8.397
13.52000 3.544
13.54000 20.025
13.56000 25.809
13.58000 19.155
13.60000 13.013
13.62000 9.313
13.64000 14.691
13.66000 11.440
13.68000 6.693
13.70000 15.385
13.72000 9.286
13.74000 13.520
13.76000 11.152
13.78000 12.197
13.80000 9.838
13.82000 17.879
13.84000 12.891
13.86000 15.382
13.88000 16.911
13.90000 13.398
13.92000 23.041
13.94000 17.840
13.96000 18.839
13.98000 3.318
14.00000 5.292
14.02000 13.594
14.04000 15.413
14.06000 14.830
14.08000 24.589
14.10000 8.015
14.12000 10.499
14.14000 15.004
14.16000 18.601
14.18000 16.514
14.20000 17.122
14.22000 10.449
14.24000 16.701
14.26000 12.250
14.28000 12.955
14.30000 19.207
14.32000 26.668
14.34000 16.570
14.36000 20.828
14.38000 20.365
14.40000 10.029
14.42000 9.772
14.44000 10.012
14.46000 5.421
14.48000 7.059
14.50000 18.740
14.52000 23.360
14.54000 10.445
14.56000 11.228
14.58000 10.786
14.60000 4.633
14.62000 10.813
14.64000 18.929
14.66000 24.680
14.68000 21.502
14.70000 8.261
14.72000 2.687
14.74000 6.667
14.76000 9.167
14.78000 13.785
14.80000 20.239
14.82000 22.838
14.84000 10.609
14.86000 8.215
14.88000 11.542
14.90000 9.460
14.92000 16.619
14.94000 27.855
14.96000 14.467
14.98000 10.328
15.00000 16.238
15.02000 19.105
15.04000 15.679
15.06000 25.638
15.08000 24.456
15.10000 18.810
15.12000 17.169
15.14000 16.651
15.16000 10.722
15.18000 7.037
15.20000 8.934
15.22000 12.054
15.24000 9.900
15.26000 9.992
15.28000 13.531
15.30000 13.036
15.32000 18.704
15.34000 13.790
15.36000 13.938
15.38000 12.635
15.40000 5.916
15.42000 5.631
15.44000 10.767
15.46000 19.670
15.48000 11.525
15.50000 14.444
15.52000 11.242
15.54000 0.622
15.56000 -3.262
15.58000 6.213
15.60000 7.557
15.62000 9.939
15.64000 12.282
15.66000 16.479
15.68000 8.401
15.70000 9.479
15.72000 7.862
15.74000 5.890
15.76000 9.548
15.78000 15.942
15.80000 17.142
15.82000 16.804
15.84000 5.967
15.86000 6.771
15.88000 12.269
15.90000 15.336
15.92000 13.649
15.94000 8.233
15.96000 10.747
15.98000 14.215
16.00000 11.103
16.02000 7.969
16.04000 5.656
16.06000 4.988
16.08000 10.749
16.10000 -0.604
16.12000 3.129
16.14000 9.982
16.16000 2.834
16.18000 2.182
16.20000 7.089
16.22000 8.797
16.24000 10.342
16.26000 5.601
16.28000 8.756
16.30000 0.710
16.32000 -4.455
16.34000 6.417
16.36000 11.485
16.38000 14.342
16.40000 14.843
16.42000 15.186
16.44000 17.159
16.46000 16.174
16.48000 19.141
16.50000 14.894
16.52000 6.549
16.54000 9.623
16.56000 10.286
16.58000 7.517
16.60000 12.451
16.62000 9.016
16.64000 -1.538
16.66000 -0.679
16.68000 8.930
16.70000 0.939
16.72000 3.712
16.74000 4.672
16.76000 4.456
16.78000 3.590
16.80000 5.782
16.82000 10.203
16.84000 11.249
16.86000 5.695
16.88000 8.015
16.90000 10.671
16.92000 14.572
16.94000 13.089
16.96000 9.555
16.98000 14.397
17.00000 23.494
17.02000 14.907
17.04000 9.924
17.06000 8.847
17.08000 2.723
17.10000 4.902
17.12000 13.064
17.14000 9.959
17.16000 7.438
17.18000 11.305
17.20000 6.947
17.22000 5.119
17.24000 0.581
17.26000 4.819
17.28000 13.976
17.30000 4.091
17.32000 7.898
17.34000 8.569
17.36000 7.017
17.38000 7.235
17.40000 3.758
17.42000 6.507
17.44000 12.249
17.46000 13.526
17.48000 5.540
17.50000 6.666
17.52000 3.332
17.54000 7.527
17.56000 6.053
17.58000 13.155
17.60000 16.347
17.62000 8.993
17.64000 7.850
17.66000 5.854
17.68000 3.529
17.70000 7.828
17.72000 12.323
17.74000 4.601
17.76000 3.668
17.78000 10.907
17.80000 7.620
17.82000 8.662
17.84000 4.931
17.86000 0.343
17.88000 2.696
17.90000 3.274
17.92000 1.844
17.94000 0.470
17.96000 5.759
17.98000 1.686
18.00000 4.756
18.02000 7.800
18.04000 5.350
18.06000 11.455
18.08000 7.223
18.10000 9.809
18.12000 9.112
18.14000 8.482
18.16000 3.136
18.18000 -0.763
18.20000 4.876
18.22000 -0.949
18.24000 -4.371
18.26000 0.528
18.28000 -1.394
18.30000 -2.151
18.32000 7.784
18.34000 10.123
18.36000 7.433
18.38000 2.056
18.40000 2.224
18.42000 6.857
18.44000 16.438
18.46000 7.412
18.48000 5.953
18.50000 -1.066
18.52000 2.056
18.54000 12.335
18.56000 16.362
18.58000 4.308
18.60000 3.800
18.62000 7.034
18.64000 -0.950
18.66000 4.018
18.68000 3.573
18.70000 2.027
18.72000 -1.753
18.74000 -0.785
18.76000 4.469
18.78000 2.757
18.80000 1.556
18.82000 0.751
18.84000 -2.276
18.86000 6.147
18.88000 6.853
18.90000 9.577
18.92000 13.225
18.94000 11.968
18.96000 9.602
18.98000 5.164
19.00000 2.346
19.02000 2.262
19.04000 2.003
19.06000 6.415
19.08000 5.868
19.10000 5.257
19.12000 4.673
19.14000 5.867
19.16000 7.470
19.18000 12.727
19.20000 0.128
19.22000 -0.815
19.24000 2.894
19.26000 10.139
19.28000 10.912
19.30000 4.672
19.32000 7.864
19.34000 4.080
19.36000 4.364
19.38000 5.351
19.40000 3.394
19.42000 6.006
19.44000 10.269
19.46000 16.004
19.48000 12.250
19.50000 1.867
19.52000 0.478
19.54000 -4.290
19.56000 -0.882
19.58000 5.388
19.60000 0.901
19.62000 0.950
19.64000 4.894
19.66000 5.963
19.68000 3.738
19.70000 7.728
19.72000 5.510
19.74000 5.045
19.76000 3.125
19.78000 3.674
19.80000 3.496
19.82000 2.288
19.84000 4.682
19.86000 4.903
19.88000 2.620
19.90000 6.398
19.92000 7.961
19.94000 4.967
19.96000 4.102
19.98000 4.793
20.00000 8.533
20.02000 10.212
20.04000 3.335
20.06000 2.312
20.08000 8.002
20.10000 5.265
20.12000 9.176
20.14000 7.524
20.16000 6.563
20.18000 6.802
20.20000 1.672
20.22000 9.361
20.24000 3.374
20.26000 9.039
20.28000 9.707
20.30000 10.195
20.32000 6.262
20.34000 1.236
20.36000 2.152
20.38000 3.183
20.40000 1.805
20.42000 0.948
20.44000 -3.206
20.46000 -4.222
20.48000 4.514
20.50000 5.264
20.52000 2.982
20.54000 1.276
20.56000 -1.062
20.58000 1.404
20.60000 2.591
20.62000 1.143
20.64000 3.813
20.66000 6.424
20.68000 7.167
20.70000 10.995
20.72000 5.268
20.74000 5.903
20.76000 5.587
20.78000 6.259
20.80000 1.812
20.82000 7.014
20.84000 12.087
20.86000 1.702
20.88000 -0.649
20.90000 6.031
20.92000 6.029
20.94000 4.768
20.96000 8.367
20.98000 12.411
21.00000 4.495
21.02000 9.073
21.04000 12.479
21.06000 7.968
21.08000 2.465
21.10000 3.951
21.12000 8.745
21.14000 15.903
21.16000 8.250
21.18000 5.353
21.20000 2.853
21.22000 0.074
21.24000 6.620
21.26000 6.975
21.28000 10.904
21.30000 8.809
21.32000 16.860
21.34000 16.001
21.36000 13.079
21.38000 5.897
21.40000 2.503
21.42000 -4.123
21.44000 5.880
21.46000 11.841
21.48000 6.700
21.50000 8.918
21.52000 12.121
21.54000 5.794
21.56000 3.512
21.58000 5.077
21.60000 7.723
21.62000 12.541
21.64000 13.622
21.66000 1.940
21.68000 2.237
21.70000 3.954
21.72000 4.123
21.74000 1.243
21.76000 9.037
21.78000 13.369
21.80000 8.746
21.82000 3.817
21.84000 2.334
21.86000 7.161
21.88000 6.324
21.90000 7.702
21.92000 11.920
21.94000 2.193
21.96000 5.461
21.98000 6.463
22.00000 7.455
22.02000 7.086
22.04000 7.485
22.06000 10.788
22.08000 10.784
22.10000 -0.079
22.12000 3.532
22.14000 -0.670
22.16000 7.007
22.18000 9.299
22.20000 8.131
22.22000 10.321
22.24000 5.897
22.26000 0.235
22.28000 0.815
22.30000 1.256
22.32000 7.276
22.34000 7.166
22.36000 9.448
22.38000 7.277
22.40000 14.351
22.42000 10.620
22.44000 9.512
22.46000 7.572
22.48000 4.122
22.50000 2.021
22.52000 1.948
22.54000 7.822
22.56000 3.986
22.58000 0.791
22.60000 3.411
22.62000 4.005
22.64000 8.870
22.66000 7.187
22.68000 6.434
22.70000 6.945
22.72000 2.950
22.74000 3.679
22.76000 9.611
22.78000 4.144
22.80000 2.214
22.82000 -1.640
22.84000 0.475
22.86000 2.542
22.88000 4.020
22.90000 1.149
22.92000 1.550
22.94000 -0.310
22.96000 4.245
22.98000 3.532
23.00000 4.217
23.02000 3.799
23.04000 -0.529
23.06000 -3.218
23.08000 0.851
23.10000 6.587
23.12000 2.538
23.14000 5.233
23.16000 8.695
23.18000 10.381
23.20000 10.947
23.22000 10.281
23.24000 5.474
23.26000 3.066
23.28000 1.913
23.30000 -3.082
23.32000 -3.092
23.34000 0.648
23.36000 10.780
23.38000 7.548
23.40000 6.669
23.42000 -0.856
23.44000 -0.240
23.46000 1.196
23.48000 3.916
23.50000 1.932
23.52000 5.709
23.54000 1.252
23.56000 2.346
23.58000 1.970
23.60000 3.511
23.62000 6.886
23.64000 8.764
23.66000 0.430
23.68000 -1.216
23.70000 -4.063
23.72000 1.995
23.74000 6.844
23.76000 6.430
23.78000 7.582
23.80000 4.918
23.82000 2.217
23.84000 -1.136
23.86000 -2.606
23.88000 4.392
23.90000 3.046
23.92000 1.745
23.94000 1.476
23.96000 0.145
23.98000 0.544
24.00000 -0.475
24.02000 5.135
24.04000 2.797
24.06000 -2.718
24.08000 -0.207
24.10000 9.774
24.12000 2.694
24.14000 -3.955
24.16000 -0.575
24.18000 5.810
24.20000 2.754
24.22000 2.083
24.24000 7.376
24.26000 10.704
24.28000 1.973
24.30000 -3.026
24.32000 1.093
24.34000 -1.135
24.36000 -0.262
24.38000 3.552
24.40000 -0.846
24.42000 2.760
24.44000 7.172
24.46000 4.982
24.48000 5.013
24.50000 1.449
24.52000 1.983
24.54000 3.171
24.56000 3.046
24.58000 3.526
24.60000 6.564
24.62000 6.713
24.64000 10.650
24.66000 8.048
24.68000 5.451
24.70000 8.216
24.72000 -0.520
24.74000 -4.006
24.76000 2.720
24.78000 7.599
24.80000 4.375
24.82000 6.172
24.84000 5.951
24.86000 5.824
24.88000 7.458
24.90000 5.477
24.92000 10.211
24.94000 3.875
24.96000 6.263
24.98000 11.160
25.00000 7.928
25.02000 4.200
25.04000 3.641
25.06000 6.233
25.08000 7.924
25.10000 8.068
25.12000 5.145
25.14000 5.026
25.16000 10.760
25.18000 11.486
25.20000 6.460
25.22000 -2.101
25.24000 -0.874
25.26000 -0.403
25.28000 4.052
25.30000 6.315
25.32000 4.089
25.34000 4.838
25.36000 4.846
25.38000 -2.622
25.40000 2.016
25.42000 6.838
25.44000 6.456
25.46000 4.287
25.48000 5.995
25.50000 9.361
25.52000 3.645
25.54000 1.524
25.56000 11.981
25.58000 11.958
25.60000 8.473
25.62000 5.016
25.64000 3.035
25.66000 0.439
25.68000 1.064
25.70000 7.774
25.72000 4.621
25.74000 2.069
25.76000 3.077
25.78000 10.333
25.80000 5.144
25.82000 9.382
25.84000 11.050
25.86000 9.155
25.88000 6.909
25.90000 4.452
25.92000 8.562
25.94000 6.395
25.96000 7.459
25.98000 9.711
26.00000 14.056
26.02000 16.214
26.04000 7.237
26.06000 5.783
26.08000 11.995
26.10000 14.485
26.12000 8.042
26.14000 5.665
26.16000 6.407
26.18000 0.090
26.20000 -3.886
26.22000 1.353
26.24000 2.917
26.26000 4.989
26.28000 9.092
26.30000 11.416
26.32000 9.447
26.34000 10.403
26.36000 5.566
26.38000 9.402
26.40000 5.579
26.42000 2.936
26.44000 3.474
26.46000 4.619
26.48000 4.817
26.50000 4.257
26.52000 1.071
26.54000 -2.042
26.56000 -1.475
26.58000 2.506
26.60000 8.385
26.62000 11.775
26.64000 7.252
26.66000 9.599
26.68000 9.586
26.70000 7.160
26.72000 7.881
26.74000 8.458
26.76000 9.701
26.78000 12.045
26.80000 4.970
26.82000 2.041
26.84000 7.708
26.86000 9.492
26.88000 6.178
26.90000 3.203
26.92000 2.970
26.94000 3.853
26.96000 8.387
26.98000 9.341
27.00000 10.020
27.02000 8.371
27.04000 2.503
27.06000 1.915
27.08000 -0.534
27.10000 4.609
27.12000 8.019
27.14000 10.340
27.16000 4.969
27.18000 3.830
27.20000 5.784
27.22000 6.342
27.24000 2.980
27.26000 -3.862
27.28000 0.448
27.30000 -2.169
27.32000 -3.861
27.34000 5.280
27.36000 5.557
27.38000 6.886
27.40000 8.345
27.42000 6.967
27.44000 11.503
27.46000 8.692
27.48000 1.893
27.50000 2.677
27.52000 12.088
27.54000 10.325
27.56000 0.976
27.58000 3.084
27.60000 7.110
27.62000 7.781
27.64000 7.492
27.66000 3.481
27.68000 8.403
27.70000 9.855
27.72000 7.557
27.74000 4.142
27.76000 1.687
27.78000 0.822
27.80000 3.866
27.82000 6.869
27.84000 4.829
27.86000 5.262
27.88000 3.813
27.90000 2.398
27.92000 1.171
27.94000 0.718
27.96000 2.699
27.98000 4.255
28.00000 0.238
28.02000 3.085
28.04000 6.566
28.06000 3.220
28.08000 1.358
28.10000 0.847
28.12000 4.414
28.14000 4.040
28.16000 8.279
28.18000 3.164
28.20000 2.847
28.22000 7.123
28.24000 2.459
28.26000 0.253
28.28000 4.124
28.30000 2.970
28.32000 1.031
28.34000 5.957
28.36000 3.598
28.38000 3.353
28.40000 8.060
28.42000 9.725
28.44000 5.072
28.46000 6.030
28.48000 4.150
28.50000 6.574
28.52000 11.614
28.54000 7.400
28.56000 -2.028
28.58000 -0.453
28.60000 0.293
28.62000 2.820
28.64000 1.147
28.66000 0.954
28.68000 3.258
28.70000 4.118
28.72000 4.109
28.74000 1.901
28.76000 -0.483
28.78000 1.093
28.80000 6.117
28.82000 6.154
28.84000 -3.802
28.86000 2.183
28.88000 6.478
28.90000 5.609
28.92000 1.883
28.94000 -0.480
28.96000 1.267
28.98000 -0.866
29.00000 0.559
29.02000 2.306
29.04000 -2.244
29.06000 1.152
29.08000 4.005
29.10000 7.943
29.12000 3.683
29.14000 1.645
29.16000 -0.092
29.18000 2.486
29.20000 2.919
29.22000 6.708
29.24000 4.283
29.26000 3.654
29.28000 2.425
29.30000 4.400
29.32000 0.752
29.34000 -3.783
29.36000 5.768
29.38000 6.393
29.40000 7.355
29.42000 5.879
29.44000 3.484
29.46000 4.408
29.48000 6.621
29.50000 9.262
29.52000 11.184
29.54000 7.244
29.56000 4.767
29.58000 1.482
29.60000 2.020
29.62000 3.834
29.64000 -0.318
29.66000 -0.966
29.68000 3.362
29.70000 3.057
29.72000 -0.828
29.74000 0.896
29.76000 1.860
29.78000 -0.213
29.80000 2.810
29.82000 2.879
29.84000 7.197
29.86000 6.704
29.88000 6.552
29.90000 6.523
29.92000 1.279
29.94000 -3.751
29.96000 0.595
29.98000 3.871
30.00000 4.296
30.02000 0.662
30.04000 3.968
30.06000 5.529
30.08000 7.634
30.10000 3.834
30.12000 -0.072
30.14000 4.555
30.16000 2.362
30.18000 2.980
30.20000 4.818
30.22000 7.452
30.24000 5.999
30.26000 6.355
30.28000 1.794
30.30000 -2.231
30.32000 -0.429
30.34000 0.702
30.36000 0.640
30.38000 1.759
30.40000 -0.550
30.42000 0.080
30.44000 6.299
30.46000 3.553
30.48000 1.552
30.50000 0.866
30.52000 5.682
30.54000 8.862
30.56000 2.645
30.58000 0.505
30.60000 -2.483
30.62000 0.690
30.64000 6.063
30.66000 2.651
30.68000 -2.860
30.70000 4.853
30.72000 7.495
30.74000 2.957
30.76000 -3.721
30.78000 3.149
30.80000 2.402
30.82000 1.079
30.84000 1.015
30.86000 3.512
30.88000 3.485
30.90000 1.862
30.92000 1.445
30.94000 0.124
30.96000 -1.191
30.98000 -1.779
31.00000 1.706
31.02000 3.480
31.04000 1.226
31.06000 1.615
31.08000 7.953
31.10000 2.715
31.12000 0.577
31.14000 -1.092
31.16000 -2.944
31.18000 -2.724
31.20000 -1.487
31.22000 -2.607
31.24000 -3.718
31.26000 -1.917
31.28000 3.324
31.30000 -0.939
31.32000 5.389
31.34000 5.197
31.36000 3.251
31.38000 -0.858
31.40000 -1.879
31.42000 0.219
31.44000 0.632
31.46000 2.593
31.48000 3.796
31.50000 5.725
31.52000 3.610
31.54000 0.456
31.56000 -2.870
31.58000 -2.150
31.60000 0.581
31.62000 0.042
31.64000 3.062
31.66000 1.410
31.68000 -3.473
31.70000 -2.352
31.72000 1.331
31.74000 3.389
31.76000 4.636
31.78000 1.119
31.80000 -0.225
31.82000 0.568
31.84000 2.659
31.86000 2.113
31.88000 0.764
31.90000 -3.360
31.92000 2.412
31.94000 6.004
31.96000 3.332
31.98000 -3.628
32.00000 2.181
32.02000 8.444
32.04000 5.658
32.06000 4.200
32.08000 3.615
32.10000 4.071
32.12000 1.946
32.14000 0.047
32.16000 -2.146
32.18000 -2.137
32.20000 -1.495
32.22000 -3.636
32.24000 0.796
32.26000 3.567
32.28000 4.114
32.30000 0.844
32.32000 2.148
32.34000 6.257
32.36000 4.059
32.38000 5.692
32.40000 2.244
32.42000 0.124
32.44000 -0.964
32.46000 -1.609
32.48000 1.520
32.50000 3.231
32.52000 0.188
32.54000 -1.842
32.56000 -3.677
32.58000 3.128
32.60000 0.329
32.62000 0.432
32.64000 3.767
32.66000 4.634
32.68000 0.878
32.70000 1.875
32.72000 -1.348
32.74000 0.151
32.76000 -2.723
32.78000 1.243
32.80000 5.658
32.82000 8.055
32.84000 6.662
32.86000 -3.076
32.88000 -2.972
32.90000 -0.142
32.92000 0.662
32.94000 0.782
32.96000 1.937
32.98000 -1.790
33.00000 -1.523
33.02000 -0.816
33.04000 5.405
33.06000 2.633
33.08000 0.467
33.10000 0.156
33.12000 -1.241
33.14000 -0.440
33.16000 -1.333
33.18000 -2.681
33.20000 -2.360
33.22000 4.475
33.24000 8.731
33.26000 6.571
33.28000 5.054
33.30000 4.258
33.32000 3.803
33.34000 4.605
33.36000 1.600
33.38000 -2.875
33.40000 0.792
33.42000 0.947
33.44000 1.927
33.46000 -1.942
33.48000 0.981
33.50000 2.173
33.52000 -3.670
33.54000 1.171
33.56000 -0.712
33.58000 1.541
33.60000 2.541
33.62000 0.971
33.64000 0.527
33.66000 -1.485
33.68000 3.755
33.70000 10.884
33.72000 6.350
33.74000 6.319
33.76000 3.763
33.78000 5.060
33.80000 6.532
33.82000 6.721
33.84000 1.076
33.86000 4.064
33.88000 4.945
33.90000 3.111
33.92000 0.966
33.94000 5.461
33.96000 5.631
33.98000 -0.354
34.00000 5.020
34.02000 3.940
34.04000 0.986
34.06000 -0.430
34.08000 -0.084
34.10000 4.348
34.12000 6.658
34.14000 7.822
34.16000 -0.515
34.18000 2.831
34.20000 3.155
34.22000 -2.256
34.24000 0.933
34.26000 4.553
34.28000 1.789
34.30000 4.972
34.32000 5.960
34.34000 3.111
34.36000 6.048
34.38000 3.424
34.40000 2.014
34.42000 6.602
34.44000 2.734
34.46000 1.097
34.48000 7.479
34.50000 8.455
34.52000 4.965
34.54000 -1.482
34.56000 -0.983
34.58000 -0.529
34.60000 1.510
34.62000 0.721
34.64000 3.133
34.66000 2.415
34.68000 -3.304
34.70000 0.059
34.72000 3.236
34.74000 -1.022
34.76000 -3.646
34.78000 -1.661
34.80000 -0.568
34.82000 4.634
34.84000 1.379
34.86000 2.086
34.88000 0.068
34.90000 2.873
34.92000 3.326
34.94000 1.660
34.96000 1.407
34.98000 0.485
35.00000 1.620
35.02000 0.391
35.04000 1.171
35.06000 -3.641
35.08000 -0.437
35.10000 5.532
35.12000 5.508
35.14000 -1.779
35.16000 3.765
35.18000 3.658
35.20000 -1.332
35.22000 0.663
35.24000 -0.581
35.26000 -0.901
35.28000 3.064
35.30000 -0.089
35.32000 -1.744
35.34000 -0.814
35.36000 2.178
35.38000 -1.676
35.40000 -1.853
35.42000 3.052
35.44000 -0.099
35.46000 -3.412
35.48000 2.242
35.50000 5.060
35.52000 4.788
35.54000 1.306
35.56000 -0.866
35.58000 -0.484
35.60000 2.597
35.62000 1.664
35.64000 -2.352
35.66000 -1.642
35.68000 3.076
35.70000 2.713
35.72000 0.441
35.74000 1.285
35.76000 2.847
35.78000 8.567
35.80000 -0.184
35.82000 -2.173
35.84000 -0.244
35.86000 1.046
35.88000 2.454
35.90000 0.519
35.92000 5.284
35.94000 3.839
35.96000 -0.644
35.98000 1.328
36.00000 1.040
36.02000 -3.647
36.04000 -2.204
36.06000 2.333
36.08000 3.356
36.10000 7.133
36.12000 6.914
36.14000 5.612
36.16000 2.573
36.18000 3.833
36.20000 5.926
36.22000 7.898
36.24000 2.740
36.26000 -0.869
36.28000 0.747
36.30000 3.820
36.32000 1.938
36.34000 4.786
36.36000 5.600
36.38000 3.209
36.40000 9.699
36.42000 8.429
36.44000 4.383
36.46000 2.171
36.48000 0.554
36.50000 0.764
36.52000 2.360
36.54000 3.650
36.56000 4.929
36.58000 3.959
36.60000 4.601
36.62000 7.564
36.64000 7.683
36.66000 7.874
36.68000 2.818
36.70000 8.407
36.72000 12.319
36.74000 11.364
36.76000 8.809
36.78000 5.473
36.80000 6.459
36.82000 7.110
36.84000 5.826
36.86000 -0.298
36.88000 1.662
36.90000 5.391
36.92000 4.524
36.94000 3.522
36.96000 5.472
36.98000 8.036
37.00000 11.187
37.02000 5.530
37.04000 6.163
37.06000 7.748
37.08000 5.966
37.10000 11.085
37.12000 14.505
37.14000 13.907
37.16000 13.505
37.18000 7.657
37.20000 9.694
37.22000 9.744
37.24000 10.696
37.26000 9.639
37.28000 11.702
37.30000 13.440
37.32000 15.167
37.34000 12.445
37.36000 12.368
37.38000 16.107
37.40000 15.134
37.42000 12.326
37.44000 14.670
37.46000 13.988
37.48000 13.943
37.50000 15.386
37.52000 18.220
37.54000 17.151
37.56000 13.732
37.58000 18.714
37.60000 15.030
37.62000 15.579
37.64000 17.878
37.66000 22.741
37.68000 20.173
37.70000 21.358
37.72000 24.215
37.74000 21.729
37.76000 25.040
37.78000 25.723
37.80000 22.447
37.82000 24.599
37.84000 30.149
37.86000 28.831
37.88000 30.804
37.90000 33.517
37.92000 33.957
37.94000 35.397
37.96000 41.606
37.98000 39.180
38.00000 38.544
38.02000 36.430
38.04000 41.193
38.06000 40.296
38.08000 40.619
38.10000 40.555
38.12000 43.631
38.14000 49.013
38.16000 44.732
38.18000 46.097
38.20000 49.034
38.22000 48.135
38.24000 53.578
38.26000 57.822
38.28000 56.268
38.30000 59.232
38.32000 60.677
38.34000 63.833
38.36000 70.643
38.38000 64.697
38.40000 71.407
38.42000 77.037
38.44000 77.234
38.46000 78.346
38.48000 84.891
38.50000 92.303
38.52000 89.081
38.54000 96.625
38.56000 104.436
38.58000 108.924
38.60000 116.290
38.62000 124.564
38.64000 130.543
38.66000 131.096
38.68000 141.941
38.70000 149.225
38.72000 158.525
38.74000 171.258
38.76000 180.897
38.78000 190.161
38.80000 194.724
38.82000 211.288
38.84000 223.446
38.86000 231.709
38.88000 244.480
38.90000 251.943
38.92000 266.431
38.94000 282.321
38.96000 290.107
38.98000 298.540
39.00000 310.498
39.02000 325.926
39.04000 341.129
39.06000 350.399
39.08000 358.593
39.10000 376.859
39.12000 384.443
39.14000 383.416
39.16000 382.271
39.18000 385.480
39.20000 387.917
39.22000 389.537
39.24000 377.847
39.26000 370.200
39.28000 367.138
39.30000 355.884
39.32000 339.473
39.34000 335.482
39.36000 324.753
39.38000 315.851
39.40000 305.085
39.42000 291.850
39.44000 281.444
39.46000 273.263
39.48000 257.512
39.50000 242.714
39.52000 231.180
39.54000 214.879
39.56000 206.072
39.58000 196.013
39.60000 184.250
39.62000 173.045
39.64000 162.191
39.66000 149.154
39.68000 140.095
39.70000 132.857
39.72000 127.298
39.74000 118.111
39.76000 103.095
39.78000 97.109
39.80000 92.254
39.82000 88.967
39.84000 81.114
39.86000 77.738
39.88000 72.583
39.90000 65.241
39.92000 64.078
39.94000 59.793
39.96000 56.251
39.98000 57.238
40.00000 55.984
40.02000 45.058
40.04000 47.101
40.06000 46.825
40.08000 45.540
40.10000 42.017
40.12000 41.526
40.14000 38.366
40.16000 33.491
40.18000 31.805
40.20000 23.809
40.22000 23.790
40.24000 26.615
40.26000 25.746
40.28000 22.637
40.30000 26.260
40.32000 25.041
40.34000 20.288
40.36000 22.733
40.38000 23.269
40.40000 22.735
40.42000 22.041
40.44000 17.924
40.46000 17.259
40.48000 20.587
40.50000 16.787
40.52000 15.707
40.54000 17.925
40.56000 14.314
40.58000 10.320
40.60000 12.281
40.62000 13.431
40.64000 9.395
40.66000 8.063
40.68000 13.889
40.70000 12.133
40.72000 10.258
40.74000 6.436
40.76000 5.113
40.78000 4.836
40.80000 8.055
40.82000 9.513
40.84000 7.209
40.86000 6.196
40.88000 9.145
40.90000 5.501
40.92000 4.278
40.94000 1.783
40.96000 4.450
40.98000 6.809
41.00000 4.911
41.02000 1.685
41.04000 1.397
41.06000 1.182
41.08000 2.881
41.10000 3.723
41.12000 3.825
41.14000 6.935
41.16000 3.991
41.18000 0.162
41.20000 0.628
41.22000 2.510
41.24000 0.593
41.26000 3.959
41.28000 4.429
41.30000 -0.017
41.32000 2.747
41.34000 2.263
41.36000 3.704
41.38000 4.652
41.40000 3.504
41.42000 4.795
41.44000 5.732
41.46000 1.894
41.48000 -2.168
41.50000 -0.307
41.52000 2.617
41.54000 2.555
41.56000 0.940
41.58000 0.396
41.60000 4.149
41.62000 -2.499
41.64000 -0.860
41.66000 0.322
41.68000 1.950
41.70000 -1.452
41.72000 -1.854
41.74000 -3.436
41.76000 -0.556
41.78000 3.000
41.80000 0.812
41.82000 -1.607
41.84000 -1.785
41.86000 -1.678
41.88000 -2.286
41.90000 -3.414
41.92000 -2.285
41.94000 0.945
41.96000 -0.010
41.98000 -2.931
42.00000 -2.738
42.02000 -1.875
42.04000 -0.836
42.06000 -1.297
42.08000 -0.742
42.10000 -2.497
42.12000 0.130
42.14000 -0.014
42.16000 0.894
42.18000 2.367
42.20000 -1.427
42.22000 -1.618
42.24000 -3.363
42.26000 -0.432
42.28000 1.519
42.30000 3.140
42.32000 -0.423
42.34000 -2.084
42.36000 0.522
42.38000 4.486
42.40000 1.468
42.42000 3.623
42.44000 0.077
42.46000 -0.066
42.48000 -2.311
42.50000 -1.356
42.52000 2.820
42.54000 3.005
42.56000 2.684
42.58000 5.261
42.60000 3.377
42.62000 0.445
42.64000 -0.529
42.66000 -0.696
42.68000 -0.833
42.70000 -2.489
42.72000 -1.033
42.74000 1.233
42.76000 -0.134
42.78000 -1.480
42.80000 -1.463
42.82000 -0.712
42.84000 0.944
42.86000 4.701
42.88000 2.445
42.90000 1.346
42.92000 1.880
42.94000 2.098
42.96000 2.920
42.98000 2.871
43.00000 0.710
43.02000 -0.767
43.04000 1.511
43.06000 3.463
43.08000 3.086
43.10000 3.447
43.12000 4.055
43.14000 0.225
43.16000 -2.888
43.18000 -0.313
43.20000 1.751
43.22000 0.516
43.24000 0.266
43.26000 -0.114
43.28000 -0.852
43.30000 3.554
43.32000 1.490
43.34000 0.992
43.36000 1.572
43.38000 -3.206
43.40000 2.896
43.42000 6.661
43.44000 4.411
43.46000 3.963
43.48000 3.784
43.50000 1.325
43.52000 3.490
43.54000 3.603
43.56000 3.336
43.58000 0.209
43.60000 1.451
43.62000 5.712
43.64000 4.191
43.66000 4.263
43.68000 5.132
43.70000 1.754
43.72000 1.650
43.74000 -1.332
43.76000 1.895
43.78000 4.253
43.80000 2.767
43.82000 3.130
43.84000 2.599
43.86000 3.696
43.88000 3.988
43.90000 2.344
43.92000 4.729
43.94000 6.104
43.96000 3.419
43.98000 2.886
44.00000 1.775
44.02000 3.680
44.04000 0.768
44.06000 -0.463
44.08000 -1.950
44.10000 -1.273
44.12000 -0.913
44.14000 0.278
44.16000 3.201
44.18000 8.595
44.20000 8.082
44.22000 4.617
44.24000 0.894
44.26000 0.514
44.28000 -1.149
44.30000 1.043
44.32000 2.830
44.34000 3.196
44.36000 2.150
44.38000 3.505
44.40000 4.758
44.42000 8.045
44.44000 5.345
44.46000 5.975
44.48000 7.485
44.50000 8.504
44.52000 5.332
44.54000 6.995
44.56000 4.005
44.58000 1.922
44.60000 6.811
44.62000 7.170
44.64000 11.722
44.66000 8.388
44.68000 9.662
44.70000 12.013
44.72000 13.571
44.74000 16.696
44.76000 16.752
44.78000 13.199
44.80000 14.172
44.82000 10.472
44.84000 12.925
44.86000 17.924
44.88000 18.762
44.90000 19.590
44.92000 20.191
44.94000 18.920
44.96000 18.152
44.98000 17.302
45.00000 18.751
45.02000 24.314
45.04000 29.546
45.06000 30.512
45.08000 31.100
45.10000 35.106
45.12000 32.733
45.14000 33.301
45.16000 34.082
45.18000 35.971
45.20000 41.637
45.22000 43.749
45.24000 42.614
45.26000 47.696
45.28000 46.593
45.30000 44.660
45.32000 47.710
45.34000 51.021
45.36000 49.435
45.38000 51.170
45.40000 53.578
45.42000 59.641
45.44000 62.832
45.46000 60.300
45.48000 62.408
45.50000 70.471
45.52000 68.682
45.54000 74.300
45.56000 77.454
45.58000 80.586
45.60000 79.411
45.62000 84.740
45.64000 85.224
45.66000 86.916
45.68000 85.384
45.70000 83.921
45.72000 85.807
45.74000 91.295
45.76000 90.845
45.78000 82.734
45.80000 78.601
45.82000 81.768
45.84000 88.552
45.86000 86.601
45.88000 85.201
45.90000 83.321
45.92000 80.183
45.94000 82.047
45.96000 82.902
45.98000 80.993
46.00000 79.068
46.02000 78.663
46.04000 77.485
46.06000 74.923
46.08000 71.201
46.10000 70.483
46.12000 62.765
46.14000 59.068
46.16000 56.686
46.18000 58.439
46.20000 56.573
46.22000 51.313
46.24000 47.526
46.26000 43.613
46.28000 44.551
46.30000 45.181
46.32000 40.496
46.34000 42.829
46.36000 37.686
46.38000 32.058
46.40000 33.422
46.42000 32.963
46.44000 29.379
46.46000 26.602
46.48000 25.653
46.50000 26.362
46.52000 22.713
46.54000 19.528
46.56000 20.000
46.58000 19.724
46.60000 17.139
46.62000 15.198
46.64000 13.588
46.66000 14.175
46.68000 13.693
46.70000 11.001
46.72000 10.757
46.74000 11.600
46.76000 10.197
46.78000 8.784
46.80000 9.500
46.82000 8.538
46.84000 3.373
46.86000 3.335
46.88000 4.513
46.90000 4.171
46.92000 3.736
46.94000 3.582
46.96000 6.845
46.98000 3.776
47.00000 2.210
47.02000 -0.808
47.04000 0.936
47.06000 1.674
47.08000 1.243
47.10000 0.521
47.12000 1.749
47.14000 0.954
47.16000 -2.435
47.18000 -1.543
47.20000 0.786
47.22000 1.530
47.24000 -2.858
47.26000 -0.403
47.28000 2.975
47.30000 6.616
47.32000 2.266
47.34000 1.741
47.36000 4.277
47.38000 3.557
47.40000 5.162
47.42000 4.479
47.44000 0.913
47.46000 -0.935
47.48000 -0.750
47.50000 -0.250
47.52000 1.741
47.54000 1.471
47.56000 0.534
47.58000 -0.928
47.60000 0.176
47.62000 -2.278
47.64000 0.630
47.66000 1.774
47.68000 1.163
47.70000 0.988
47.72000 -0.613
47.74000 -0.279
47.76000 1.007
47.78000 2.379
47.80000 0.355
47.82000 2.302
47.84000 7.453
47.86000 4.902
47.88000 -1.881
47.90000 -1.073
47.92000 2.108
47.94000 3.123
47.96000 4.342
47.98000 1.763
48.00000 -2.724
48.02000 -2.278
48.04000 -2.617
48.06000 0.078
48.08000 -2.627
48.10000 1.444
48.12000 3.347
48.14000 2.097
48.16000 3.387
48.18000 3.132
48.20000 3.310
48.22000 2.037
48.24000 1.319
48.26000 5.490
48.28000 4.320
48.30000 4.945
48.32000 1.490
48.34000 -0.235
48.36000 1.040
48.38000 -0.982
48.40000 3.162
48.42000 4.312
48.44000 3.756
48.46000 1.315
48.48000 -0.131
48.50000 -0.350
48.52000 1.832
48.54000 -0.772
48.56000 -0.942
48.58000 0.635
48.60000 -1.216
48.62000 3.917
48.64000 4.604
48.66000 2.740
48.68000 -0.236
48.70000 3.191
48.72000 3.991
48.74000 2.904
48.76000 1.618
48.78000 -0.225
48.80000 7.093
48.82000 2.573
48.84000 0.434
48.86000 1.652
48.88000 -2.018
48.90000 5.681
48.92000 4.593
48.94000 4.963
48.96000 2.869
48.98000 5.203
49.00000 3.452
49.02000 0.868
49.04000 0.898
49.06000 1.644
49.08000 1.850
49.10000 3.567
49.12000 5.066
49.14000 1.989
49.16000 -2.632
49.18000 -0.397
49.20000 2.156
49.22000 1.424
49.24000 2.357
49.26000 3.677
49.28000 0.729
49.30000 1.185
49.32000 0.383
49.34000 -0.729
49.36000 7.624
49.38000 5.148
49.40000 5.790
49.42000 2.788
49.44000 1.665
49.46000 7.189
49.48000 7.337
49.50000 5.590
49.52000 3.176
49.54000 3.638
49.56000 4.019
49.58000 -0.940
49.60000 1.100
49.62000 4.607
49.64000 6.531
49.66000 2.634
49.68000 0.229
49.70000 1.358
49.72000 3.581
49.74000 2.032
49.76000 4.239
49.78000 3.391
49.80000 3.275
49.82000 2.216
49.84000 2.566
49.86000 -0.348
49.88000 -0.452
49.90000 -0.400
49.92000 1.293
49.94000 1.694
49.96000 0.537
49.98000 0.918
50.00000 0.121
50.02000 1.614
50.04000 1.932
50.06000 5.415
50.08000 2.995
50.10000 3.101
50.12000 4.704
50.14000 8.831
50.16000 5.818
50.18000 2.458
50.20000 0.410
50.22000 4.682
50.24000 3.386
50.26000 2.739
50.28000 0.901
50.30000 1.941
50.32000 -1.577
50.34000 -1.496
50.36000 -2.100
50.38000 -0.129
50.40000 4.826
50.42000 5.850
50.44000 3.134
50.46000 2.568
50.48000 -0.718
50.50000 -0.335
50.52000 -2.561
50.54000 -1.206
50.56000 2.791
50.58000 4.307
50.60000 3.108
50.62000 3.407
50.64000 3.203
50.66000 3.125
50.68000 6.689
50.70000 7.605
50.72000 3.858
50.74000 5.061
50.76000 2.398
50.78000 2.124
50.80000 1.211
50.82000 1.415
50.84000 1.133
50.86000 3.440
50.88000 2.668
50.90000 1.757
50.92000 5.286
50.94000 2.196
50.96000 -0.343
50.98000 -0.789
51.00000 2.632
51.02000 2.323
51.04000 0.790
51.06000 -1.804
51.08000 0.622
51.10000 3.662
51.12000 5.761
51.14000 4.105
51.16000 3.501
51.18000 5.937
51.20000 5.516
51.22000 2.244
51.24000 -2.555
51.26000 1.946
51.28000 6.180
51.30000 1.408
51.32000 -1.764
51.34000 2.239
51.36000 1.414
51.38000 -0.458
51.40000 -0.305
51.42000 1.734
51.44000 0.987
51.46000 4.771
51.48000 2.034
51.50000 -1.096
51.52000 1.468
51.54000 4.751
51.56000 3.247
51.58000 2.699
51.60000 2.755
51.62000 1.409
51.64000 0.027
51.66000 4.540
51.68000 1.954
51.70000 5.643
51.72000 0.947
51.74000 -0.177
51.76000 -1.462
51.78000 1.873
51.80000 5.850
51.82000 1.361
51.84000 1.480
51.86000 0.148
51.88000 4.483
51.90000 3.818
51.92000 0.442
51.94000 1.680
51.96000 -0.187
51.98000 0.255
52.00000 3.272
52.02000 1.150
52.04000 2.970
52.06000 -0.261
52.08000 0.138
52.10000 0.176
52.12000 -2.528
52.14000 -0.837
52.16000 1.652
52.18000 4.440
52.20000 5.352
52.22000 6.581
52.24000 5.718
52.26000 2.466
52.28000 6.313
52.30000 2.878
52.32000 0.524
52.34000 5.262
52.36000 5.653
52.38000 3.485
52.40000 -1.239
52.42000 1.168
52.44000 3.672
52.46000 1.133
52.48000 1.139
52.50000 2.044
52.52000 2.928
52.54000 2.048
52.56000 0.412
52.58000 1.906
52.60000 2.829
52.62000 4.006
52.64000 2.918
52.66000 1.475
52.68000 6.306
52.70000 7.729
52.72000 7.520
52.74000 2.910
52.76000 4.293
52.78000 3.297
52.80000 0.180
52.82000 -0.964
52.84000 1.230
52.86000 1.173
52.88000 1.720
52.90000 1.429
52.92000 3.371
52.94000 2.714
52.96000 -2.524
52.98000 2.198
53.00000 3.131
53.02000 7.212
53.04000 3.315
53.06000 3.840
53.08000 -2.326
53.10000 -0.368
53.12000 1.810
53.14000 3.685
53.16000 4.076
53.18000 0.841
53.20000 4.969
53.22000 2.826
53.24000 3.321
53.26000 0.035
53.28000 1.023
53.30000 1.076
53.32000 3.101
53.34000 0.866
53.36000 0.965
53.38000 0.144
53.40000 1.043
53.42000 -1.270
53.44000 0.321
53.46000 2.235
53.48000 5.546
53.50000 0.049
53.52000 -1.786
53.54000 -2.068
53.56000 -1.060
53.58000 2.974
53.60000 5.659
53.62000 5.999
53.64000 2.130
53.66000 2.518
53.68000 -0.461
53.70000 1.358
53.72000 3.472
53.74000 1.184
53.76000 -2.048
53.78000 1.895
53.80000 1.868
53.82000 2.931
53.84000 2.186
53.86000 0.207
53.88000 2.326
53.90000 1.312
53.92000 3.102
53.94000 0.947
53.96000 4.286
53.98000 7.421
54.00000 6.457
54.02000 0.438
54.04000 0.499
54.06000 0.758
54.08000 6.557
54.10000 4.715
54.12000 4.498
54.14000 3.055
54.16000 2.661
54.18000 -2.466
54.20000 1.679
54.22000 5.704
54.24000 4.862
54.26000 3.826
54.28000 3.194
54.30000 2.022
54.32000 1.072
54.34000 2.217
54.36000 5.782
54.38000 1.630
54.40000 1.418
54.42000 3.072
54.44000 4.259
54.46000 2.154
54.48000 1.894
54.50000 0.766
54.52000 4.530
54.54000 4.942
54.56000 0.809
54.58000 2.262
54.60000 4.664
54.62000 4.679
54.64000 2.520
54.66000 -0.365
54.68000 3.663
54.70000 2.758
54.72000 2.190
54.74000 4.130
54.76000 4.921
54.78000 1.544
54.80000 -0.009
54.82000 3.821
54.84000 3.431
54.86000 1.783
54.88000 2.075
54.90000 -0.440
54.92000 2.588
54.94000 1.248
54.96000 3.533
54.98000 1.542
55.00000 2.982
55.02000 2.975
55.04000 2.151
55.06000 3.837
55.08000 2.934
55.10000 3.529
55.12000 9.442
55.14000 4.701
55.16000 6.032
55.18000 4.702
55.20000 3.448
55.22000 3.333
55.24000 4.615
55.26000 5.052
55.28000 4.398
55.30000 1.815
55.32000 -1.364
55.34000 0.923
55.36000 1.294
55.38000 0.418
55.40000 0.471
55.42000 -2.452
55.44000 -2.038
55.46000 0.424
55.48000 -0.599
55.50000 1.201
55.52000 1.739
55.54000 -0.479
55.56000 1.035
55.58000 0.998
55.60000 -2.451
55.62000 -0.403
55.64000 -0.613
55.66000 1.293
55.68000 3.023
55.70000 1.120
55.72000 3.381
55.74000 2.270
55.76000 2.235
55.78000 1.853
55.80000 0.202
55.82000 3.646
55.84000 6.866
55.86000 3.527
55.88000 0.462
55.90000 1.780
55.92000 2.212
55.94000 -1.363
55.96000 -1.723
55.98000 1.627
56.00000 0.074
56.02000 1.890
56.04000 1.402
56.06000 0.785
56.08000 0.403
56.10000 0.928
56.12000 -0.443
56.14000 4.887
56.16000 2.407
56.18000 -0.866
56.20000 1.958
56.22000 1.561
56.24000 3.928
56.26000 1.588
56.28000 -0.052
56.30000 0.316
56.32000 2.154
56.34000 -1.311
56.36000 -2.435
56.38000 0.087
56.40000 -0.541
56.42000 0.090
56.44000 2.682
56.46000 4.488
56.48000 3.208
56.50000 0.765
56.52000 1.942
56.54000 -0.583
56.56000 2.292
56.58000 0.098
56.60000 1.616
56.62000 2.133
56.64000 2.460
56.66000 0.750
56.68000 1.814
56.70000 5.112
56.72000 3.253
56.74000 3.249
56.76000 -0.717
56.78000 1.878
56.80000 0.456
56.82000 -1.828
56.84000 0.926
56.86000 1.678
56.88000 3.545
56.90000 5.373
56.92000 1.431
56.94000 0.762
56.96000 1.438
56.98000 2.230
57.00000 2.944
57.02000 5.451
57.04000 3.223
57.06000 1.475
57.08000 -1.646
57.10000 -0.116
57.12000 1.131
57.14000 -1.630
57.16000 1.007
57.18000 0.493
57.20000 1.359
57.22000 1.419
57.24000 1.449
57.26000 -0.199
57.28000 0.438
57.30000 -0.923
57.32000 -2.288
57.34000 1.899
57.36000 7.877
57.38000 2.537
57.40000 0.317
57.42000 2.407
57.44000 3.212
57.46000 3.394
57.48000 2.245
57.50000 2.330
57.52000 0.358
57.54000 1.236
57.56000 0.685
57.58000 1.926
57.60000 3.572
57.62000 2.439
57.64000 4.558
57.66000 1.557
57.68000 2.309
57.70000 3.377
57.72000 6.137
57.74000 4.781
57.76000 1.428
57.78000 1.346
57.80000 1.201
57.82000 1.711
57.84000 -0.359
57.86000 -1.259
57.88000 -2.380
57.90000 1.478
57.92000 4.151
57.94000 3.366
57.96000 3.793
57.98000 3.044
58.00000 2.693
58.02000 0.351
58.04000 1.030
58.06000 -0.274
58.08000 1.186
58.10000 0.053
58.12000 2.144
58.14000 3.345
58.16000 1.059
58.18000 2.490
58.20000 2.540
58.22000 0.818
58.24000 -1.368
58.26000 -0.565
58.28000 1.163
58.30000 3.467
58.32000 4.994
58.34000 1.244
58.36000 2.738
58.38000 2.487
58.40000 1.837
58.42000 -0.319
58.44000 -0.429
58.46000 3.298
58.48000 2.120
58.50000 2.137
58.52000 5.861
58.54000 4.620
58.56000 4.831
58.58000 3.066
58.60000 1.673
58.62000 3.328
58.64000 5.343
58.66000 1.787
58.68000 2.050
58.70000 2.502
58.72000 5.295
58.74000 0.694
58.76000 -2.046
58.78000 -0.111
58.80000 1.661
58.82000 1.458
58.84000 0.051
58.86000 -0.009
58.88000 -0.902
58.90000 1.136
58.92000 0.784
58.94000 -1.847
58.96000 0.279
58.98000 4.569
59.00000 2.394
59.02000 -0.536
59.04000 1.043
59.06000 3.144
59.08000 1.801
59.10000 -2.355
59.12000 -1.265
59.14000 0.862
59.16000 -1.896
59.18000 -2.035
59.20000 -1.039
59.22000 -0.959
59.24000 1.059
59.26000 1.415
59.28000 2.692
59.30000 3.087
59.32000 2.678
59.34000 1.591
59.36000 5.163
59.38000 0.664
59.40000 -0.127
59.42000 -0.947
59.44000 0.341
59.46000 -1.435
59.48000 1.315
59.50000 1.645
59.52000 -2.340
59.54000 -1.163
59.56000 0.591
59.58000 1.327
59.60000 2.970
59.62000 2.427
59.64000 2.279
59.66000 -0.021
59.68000 1.689
59.70000 -0.312
59.72000 0.431
59.74000 4.077
59.76000 1.789
59.78000 3.138
59.80000 2.527
59.82000 4.106
59.84000 4.840
59.86000 3.014
59.88000 2.378
59.90000 3.505
59.92000 3.238
59.94000 1.525
59.96000 0.296
59.98000 -0.859
60.00000 0.460
60.02000 -2.331
60.04000 2.875
60.06000 6.279
60.08000 2.806
60.10000 2.970
60.12000 3.307
60.14000 -0.148
60.16000 -0.368
60.18000 2.821
60.20000 1.398
60.22000 2.096
60.24000 2.956
60.26000 1.615
60.28000 -0.388
60.30000 -0.097
60.32000 2.327
60.34000 -1.169
60.36000 -0.833
60.38000 1.253
60.40000 3.126
60.42000 3.421
60.44000 1.611
60.46000 1.273
60.48000 -0.535
60.50000 0.884
60.52000 -0.061
60.54000 -0.945
60.56000 0.750
60.58000 0.096
60.60000 -0.668
60.62000 0.098
60.64000 -2.257
60.66000 -1.074
60.68000 5.145
60.70000 2.830
60.72000 1.015
60.74000 -1.639
60.76000 0.760
60.78000 2.238
60.80000 1.657
60.82000 1.897
60.84000 1.538
60.86000 1.013
60.88000 0.816
60.90000 1.356
60.92000 1.461
60.94000 0.374
60.96000 0.390
60.98000 0.990
61.00000 1.692
61.02000 3.095
61.04000 1.974
61.06000 3.417
61.08000 0.829
61.10000 -2.290
61.12000 1.833
61.14000 1.311
61.16000 2.146
61.18000 3.627
61.20000 2.260
61.22000 1.704
61.24000 -0.162
61.26000 2.020
61.28000 0.936
61.30000 1.737
61.32000 5.798
61.34000 4.646
61.36000 1.721
61.38000 0.663
61.40000 1.298
61.42000 -0.056
61.44000 -2.282
61.46000 -1.078
61.48000 -0.371
61.50000 -0.140
61.52000 0.339
61.54000 1.417
61.56000 1.146
61.58000 5.579
61.60000 4.574
61.62000 2.571
61.64000 3.503
61.66000 5.668
61.68000 2.060
61.70000 1.135
61.72000 0.401
61.74000 -0.562
61.76000 -0.788
61.78000 2.945
61.80000 0.941
61.82000 -0.649
61.84000 -0.536
61.86000 -2.268
61.88000 -0.582
61.90000 0.160
61.92000 1.320
61.94000 1.596
61.96000 3.974
61.98000 4.050
62.00000 5.257
62.02000 6.135
62.04000 3.392
62.06000 0.447
62.08000 0.218
62.10000 0.453
62.12000 0.953
62.14000 -0.472
62.16000 -0.632
62.18000 -1.095
62.20000 0.974
62.22000 1.752
62.24000 1.191
62.26000 -1.298
62.28000 -2.263
62.30000 -1.339
62.32000 2.558
62.34000 3.584
62.36000 2.619
62.38000 0.085
62.40000 -0.619
62.42000 0.620
62.44000 1.830
62.46000 3.858
62.48000 6.552
62.50000 0.112
62.52000 0.170
62.54000 0.343
62.56000 -1.804
62.58000 -0.235
62.60000 0.026
62.62000 2.400
62.64000 2.196
62.66000 2.635
62.68000 -2.263
62.70000 -0.745
62.72000 0.500
62.74000 0.852
62.76000 1.896
62.78000 3.707
62.80000 3.841
62.82000 -1.076
62.84000 -0.836
62.86000 0.983
62.88000 2.569
62.90000 2.774
62.92000 2.067
62.94000 2.871
62.96000 -0.283
62.98000 1.418
63.00000 1.611
63.02000 0.156
63.04000 0.558
63.06000 -1.238
63.08000 1.478
63.10000 2.308
63.12000 0.785
63.14000 0.145
63.16000 1.525
63.18000 2.147
63.20000 3.111
63.22000 2.559
63.24000 1.808
63.26000 1.356
63.28000 0.670
63.30000 -1.952
63.32000 0.615
63.34000 0.437
63.36000 3.111
63.38000 4.518
63.40000 3.753
63.42000 2.095
63.44000 4.563
63.46000 4.345
63.48000 2.134
63.50000 3.956
63.52000 3.653
63.54000 3.392
63.56000 1.707
63.58000 2.250
63.60000 -0.035
63.62000 -0.067
63.64000 2.748
63.66000 3.363
63.68000 0.953
63.70000 0.726
63.72000 3.031
63.74000 4.711
63.76000 0.702
63.78000 -0.416
63.80000 2.100
63.82000 3.389
63.84000 2.729
63.86000 2.816
63.88000 1.422
63.90000 -2.214
63.92000 -2.103
63.94000 -0.834
63.96000 0.908
63.98000 1.562
64.00000 1.113
64.02000 4.608
64.04000 2.927
64.06000 2.886
64.08000 1.617
64.10000 2.366
64.12000 1.540
64.14000 2.533
64.16000 1.816
64.18000 0.377
64.20000 0.662
64.22000 2.328
64.24000 2.061
64.26000 -1.889
64.28000 -1.624
64.30000 1.451
64.32000 2.427
64.34000 0.170
64.36000 0.629
64.38000 4.038
64.40000 1.548
64.42000 -1.641
64.44000 0.246
64.46000 1.910
64.48000 -0.027
64.50000 1.554
64.52000 -0.008
64.54000 0.300
64.56000 4.731
64.58000 8.173
64.60000 4.387
64.62000 -1.696
64.64000 -0.489
64.66000 0.697
64.68000 0.501
64.70000 0.847
64.72000 3.396
64.74000 2.115
64.76000 0.699
64.78000 -0.030
64.80000 1.140
64.82000 1.254
64.84000 1.559
64.86000 2.077
64.88000 2.348
64.90000 1.541
64.92000 2.385
64.94000 0.159
64.96000 -0.844
64.98000 2.582
65.00000 4.712
65.02000 2.350
65.04000 -0.613
65.06000 2.022
65.08000 0.964
65.10000 -0.882
65.12000 -0.699
65.14000 -0.505
65.16000 1.285
65.18000 1.777
65.20000 0.728
65.22000 -2.268
65.24000 -0.800
65.26000 0.287
65.28000 0.835
65.30000 -1.460
65.32000 -0.949
65.34000 2.949
65.36000 2.753
65.38000 0.526
65.40000 -1.656
65.42000 -1.287
65.44000 0.050
65.46000 0.269
65.48000 -0.100
65.50000 -1.211
65.52000 -0.031
65.54000 0.044
65.56000 2.478
65.58000 1.524
65.60000 0.624
65.62000 -2.266
65.64000 -1.608
65.66000 1.800
65.68000 2.832
65.70000 -0.588
65.72000 0.915
65.74000 0.441
65.76000 1.873
65.78000 3.142
65.80000 1.528
65.82000 2.422
65.84000 5.354
65.86000 4.878
65.88000 0.190
65.90000 1.552
65.92000 4.312
65.94000 5.005
65.96000 4.070
65.98000 2.587
66.00000 2.417
66.02000 1.593
66.04000 1.001
66.06000 2.662
66.08000 4.338
66.10000 4.976
66.12000 4.380
66.14000 4.623
66.16000 3.784
66.18000 4.969
66.20000 6.893
66.22000 6.783
66.24000 7.530
66.26000 5.908
66.28000 5.550
66.30000 4.919
66.32000 4.865
66.34000 4.310
66.36000 5.715
66.38000 9.529
66.40000 10.299
66.42000 4.663
66.44000 5.446
66.46000 7.091
66.48000 7.164
66.50000 8.239
66.52000 7.416
66.54000 9.879
66.56000 8.225
66.58000 8.138
66.60000 7.824
66.62000 6.308
66.64000 9.001
66.66000 9.575
66.68000 8.905
66.70000 9.858
66.72000 9.654
66.74000 10.170
66.76000 7.247
66.78000 5.276
66.80000 4.936
66.82000 8.650
66.84000 8.373
66.86000 8.793
66.88000 6.755
66.90000 5.424
66.92000 6.394
66.94000 6.680
66.96000 3.229
66.98000 2.471
67.00000 2.556
67.02000 3.149
67.04000 4.058
67.06000 6.021
67.08000 6.419
67.10000 4.977
67.12000 2.832
67.14000 2.622
67.16000 6.593
67.18000 8.139
67.20000 5.420
67.22000 3.410
67.24000 2.596
67.26000 2.784
67.28000 0.544
67.30000 2.263
67.32000 2.583
67.34000 0.202
67.36000 -1.652
67.38000 2.632
67.40000 3.491
67.42000 -1.107
67.44000 -1.114
67.46000 1.591
67.48000 2.226
67.50000 1.022
67.52000 1.852
67.54000 1.356
67.56000 -0.309
67.58000 -2.186
67.60000 0.214
67.62000 0.430
67.64000 1.214
67.66000 -1.259
67.68000 0.831
67.70000 1.631
67.72000 -0.140
67.74000 2.053
67.76000 2.705
67.78000 0.899
67.80000 0.772
67.82000 1.232
67.84000 0.856
67.86000 -0.683
67.88000 0.053
67.90000 0.929
67.92000 0.360
67.94000 -0.058
67.96000 1.650
67.98000 0.930
68.00000 0.117
68.02000 -0.258
68.04000 2.452
68.06000 -0.877
68.08000 -2.111
68.10000 0.458
68.12000 1.348
68.14000 -0.224
68.16000 -0.705
68.18000 1.219
68.20000 0.806
68.22000 -1.238
68.24000 -2.153
68.26000 0.193
68.28000 1.742
68.30000 3.544
68.32000 5.408
68.34000 2.710
68.36000 0.854
68.38000 0.745
68.40000 0.483
68.42000 -1.307
68.44000 -1.990
68.46000 -1.895
68.48000 -0.157
68.50000 1.644
68.52000 2.098
68.54000 1.123
68.56000 0.193
68.58000 0.545
68.60000 -1.305
68.62000 -1.944
68.64000 -1.393
68.66000 -1.020
68.68000 2.795
68.70000 1.885
68.72000 1.194
68.74000 0.502
68.76000 -1.010
68.78000 0.556
68.80000 -0.156
68.82000 -2.118
68.84000 -1.393
68.86000 0.672
68.88000 0.904
68.90000 1.805
68.92000 0.590
68.94000 -0.571
68.96000 0.291
68.98000 -1.590
69.00000 -0.569
69.02000 3.255
69.04000 2.974
69.06000 -0.272
69.08000 -0.681
69.10000 0.559
69.12000 -0.655
69.14000 0.572
69.16000 3.281
69.18000 4.294
69.20000 3.161
69.22000 -0.565
69.24000 -0.969
69.26000 0.911
69.28000 0.347
69.30000 4.076
69.32000 3.451
69.34000 0.636
69.36000 -2.090
69.38000 -0.844
69.40000 -1.498
69.42000 -1.306
69.44000 2.654
69.46000 0.524
69.48000 -0.666
69.50000 1.481
69.52000 2.699
69.54000 0.113
69.56000 -0.457
69.58000 2.410
69.60000 2.195
69.62000 1.676
69.64000 1.385
69.66000 1.760
69.68000 2.212
69.70000 -1.175
69.72000 1.120
69.74000 1.320
69.76000 -0.373
69.78000 -0.491
69.80000 2.108
69.82000 4.250
69.84000 0.743
69.86000 -0.347
69.88000 -2.078
69.90000 -0.039
69.92000 -1.928
69.94000 0.316
69.96000 0.346
69.98000 0.394
70.00000 -0.580
70.02000 2.853
70.04000 2.410
70.06000 0.175
70.08000 -0.382
70.10000 0.627
70.12000 0.142
70.14000 1.229
70.16000 0.184
70.18000 0.989
70.20000 -0.121
70.22000 0.565
70.24000 -0.206
70.26000 -0.131
70.28000 -0.432
70.30000 -2.047
70.32000 -2.073
70.34000 -1.867
70.36000 -0.295
70.38000 -1.440
70.40000 -0.708
70.42000 1.762
70.44000 -1.622
70.46000 0.900
70.48000 -0.385
70.50000 0.130
70.52000 -0.466
70.54000 1.476
70.56000 0.985
70.58000 0.664
70.60000 -1.428
70.62000 -1.279
70.64000 -1.991
70.66000 -1.832
70.68000 -2.059
70.70000 -0.214
70.72000 -0.517
70.74000 2.458
70.76000 1.023
70.78000 1.141
70.80000 0.807
70.82000 -1.238
70.84000 1.786
70.86000 0.364
70.88000 -1.967
70.90000 -1.045
70.92000 -0.726
70.94000 1.053
70.96000 3.183
70.98000 3.146
71.00000 2.195
71.02000 1.330
71.04000 0.921
71.06000 1.950
71.08000 1.095
71.10000 2.358
71.12000 1.963
71.14000 0.570
71.16000 2.342
71.18000 2.099
71.20000 -0.477
71.22000 -1.586
71.24000 -0.667
71.26000 2.769
71.28000 0.722
71.30000 0.790
71.32000 0.864
71.34000 3.350
71.36000 2.125
71.38000 0.576
71.40000 1.544
71.42000 0.917
71.44000 3.294
71.46000 1.717
71.48000 -2.015
71.50000 -1.038
71.52000 -0.500
71.54000 1.608
71.56000 2.877
71.58000 0.961
71.60000 1.212
71.62000 4.758
71.64000 1.335
71.66000 4.099
71.68000 3.120
71.70000 4.213
71.72000 3.497
71.74000 1.110
71.76000 -1.494
71.78000 -1.994
71.80000 0.732
71.82000 0.832
71.84000 -0.618
71.86000 -1.185
71.88000 0.143
71.90000 0.256
71.92000 -1.964
71.94000 0.641
71.96000 2.391
71.98000 3.307
72.00000 2.425
72.02000 1.211
72.04000 -1.642
72.06000 0.534
72.08000 1.375
72.10000 -0.427
72.12000 2.132
72.14000 2.236
72.16000 1.085
72.18000 2.257
72.20000 -0.082
72.22000 -0.178
72.24000 -0.708
72.26000 -1.925
72.28000 0.318
72.30000 0.649
72.32000 -0.854
72.34000 0.234
72.36000 0.129
72.38000 -0.219
72.40000 -0.077
72.42000 0.526
72.44000 2.271
72.46000 2.570
72.48000 1.925
72.50000 1.118
72.52000 0.044
72.54000 2.775
72.56000 0.710
72.58000 0.746
72.60000 0.551
72.62000 2.597
72.64000 -0.406
72.66000 1.832
72.68000 -0.077
72.70000 -1.983
72.72000 0.094
72.74000 2.500
72.76000 2.608
72.78000 2.619
72.80000 2.864
72.82000 0.291
72.84000 -0.063
72.86000 -0.579
72.88000 2.203
72.90000 4.485
72.92000 -1.713
72.94000 0.246
72.96000 -0.422
72.98000 1.437
73.00000 1.215
73.02000 1.116
73.04000 -0.385
73.06000 -1.231
73.08000 2.852
73.10000 4.257
73.12000 1.926
73.14000 1.901
73.16000 2.327
73.18000 3.525
73.20000 1.458
73.22000 0.760
73.24000 3.263
73.26000 3.427
73.28000 -0.194
73.30000 0.659
73.32000 0.948
73.34000 2.569
73.36000 2.526
73.38000 1.097
73.40000 -0.116
73.42000 3.106
73.44000 4.373
73.46000 3.986
73.48000 1.396
73.50000 -0.684
73.52000 0.910
73.54000 2.555
73.56000 4.259
73.58000 3.962
73.60000 1.047
73.62000 3.565
73.64000 4.150
73.66000 -0.209
73.68000 1.138
73.70000 2.635
73.72000 1.628
73.74000 1.155
73.76000 0.871
73.78000 2.599
73.80000 4.208
73.82000 2.246
73.84000 2.327
73.86000 3.394
73.88000 0.750
73.90000 -1.924
73.92000 0.551
73.94000 1.874
73.96000 2.021
73.98000 1.302
74.00000 2.414
74.02000 3.064
74.04000 2.095
74.06000 3.046
74.08000 2.094
74.10000 3.644
74.12000 3.021
74.14000 4.285
74.16000 1.065
74.18000 1.743
74.20000 2.683
74.22000 2.445
74.24000 1.114
74.26000 3.733
74.28000 3.963
74.30000 3.771
74.32000 2.699
74.34000 2.182
74.36000 -0.324
74.38000 1.790
74.40000 1.299
74.42000 2.471
74.44000 2.029
74.46000 2.951
74.48000 2.283
74.50000 2.280
74.52000 1.084
74.54000 0.083
74.56000 0.390
74.58000 0.165
74.60000 1.283
74.62000 -1.435
74.64000 0.885
74.66000 1.912
74.68000 1.835
74.70000 0.243
74.72000 3.021
74.74000 6.179
74.76000 5.731
74.78000 3.005
74.80000 4.545
74.82000 0.795
74.84000 1.380
74.86000 2.058
74.88000 2.339
74.90000 3.264
74.92000 1.084
74.94000 2.889
74.96000 3.114
74.98000 0.299
75.00000 -1.835
75.02000 1.722
75.04000 4.344
75.06000 4.081
75.08000 0.798
75.10000 3.205
75.12000 2.882
75.14000 2.115
75.16000 5.742
75.18000 3.366
75.20000 0.678
75.22000 1.785
75.24000 3.704
75.26000 0.381
75.28000 -1.575
75.30000 -1.963
75.32000 -1.424
75.34000 1.534
75.36000 -0.424
75.38000 0.103
75.40000 4.392
75.42000 3.993
75.44000 0.855
75.46000 -0.261
75.48000 3.590
75.50000 4.244
75.52000 3.565
75.54000 2.057
75.56000 1.008
75.58000 0.509
75.60000 3.205
75.62000 3.390
75.64000 2.741
75.66000 3.141
75.68000 0.557
75.70000 -1.273
75.72000 -0.408
75.74000 1.013
75.76000 2.072
75.78000 2.554
75.80000 0.124
75.82000 0.963
75.84000 -1.810
75.86000 -1.986
75.88000 0.511
75.90000 0.899
75.92000 3.889
75.94000 3.144
75.96000 1.225
75.98000 -0.242
76.00000 -0.728
76.02000 -0.895
76.04000 1.016
76.06000 2.051
76.08000 3.761
76.10000 1.473
76.12000 2.447
76.14000 0.815
76.16000 1.243
76.18000 -0.339
76.20000 -0.461
76.22000 -1.326
76.24000 -0.722
76.26000 1.327
76.28000 2.458
76.30000 1.592
76.32000 3.332
76.34000 1.351
76.36000 2.043
76.38000 3.133
76.40000 0.490
76.42000 -0.591
76.44000 0.163
76.46000 0.976
76.48000 2.322
76.50000 1.874
76.52000 3.010
76.54000 0.872
76.56000 2.106
76.58000 5.387
76.60000 1.951
76.62000 2.640
76.64000 1.523
76.66000 2.115
76.68000 -1.863
76.70000 0.834
76.72000 -0.411
76.74000 0.483
76.76000 3.108
76.78000 2.841
76.80000 2.371
76.82000 2.232
76.84000 -1.373
76.86000 -1.474
76.88000 -0.951
76.90000 -2.006
76.92000 -0.976
76.94000 -1.035
76.96000 1.665
76.98000 -0.212
77.00000 2.003
77.02000 3.082
77.04000 -0.797
77.06000 -0.074
77.08000 2.581
77.10000 3.230
77.12000 2.301
77.14000 3.921
77.16000 4.928
77.18000 3.579
77.20000 2.311
77.22000 3.597
77.24000 3.830
77.26000 2.744
77.28000 2.234
77.30000 0.638
77.32000 5.369
77.34000 2.491
77.36000 0.601
77.38000 0.511
77.40000 2.235
77.42000 0.846
77.44000 -0.539
77.46000 2.704
77.48000 1.045
77.50000 0.663
77.52000 4.157
77.54000 0.033
77.56000 -0.938
77.58000 0.881
77.60000 3.891
77.62000 2.114
77.64000 -1.195
77.66000 -0.057
77.68000 1.464
77.70000 2.280
77.72000 2.980
77.74000 2.433
77.76000 0.723
77.78000 4.821
77.80000 2.057
77.82000 -2.009
77.84000 1.716
77.86000 4.420
77.88000 1.545
77.90000 -0.038
77.92000 2.419
77.94000 3.474
77.96000 2.248
77.98000 1.620
78.00000 1.922
78.02000 4.918
78.04000 4.218
78.06000 3.156
78.08000 1.194
78.10000 3.414
78.12000 3.252
78.14000 4.616
78.16000 3.127
78.18000 3.310
78.20000 2.182
78.22000 2.123
78.24000 3.336
78.26000 3.959
78.28000 4.333
78.30000 0.466
78.32000 0.520
78.34000 2.124
78.36000 3.294
78.38000 4.515
78.40000 4.414
78.42000 3.914
78.44000 6.286
78.46000 6.870
78.48000 0.109
78.50000 -0.783
78.52000 -2.064
78.54000 -0.678
78.56000 0.114
78.58000 3.070
78.60000 2.151
78.62000 1.785
78.64000 4.631
78.66000 7.601
78.68000 6.079
78.70000 6.306
78.72000 8.351
78.74000 5.056
78.76000 1.880
78.78000 5.014
78.80000 5.788
78.82000 4.889
78.84000 1.429
78.86000 1.409
78.88000 2.490
78.90000 1.099
78.92000 1.334
78.94000 1.037
78.96000 1.690
78.98000 4.516
79.00000 3.866
79.02000 4.884
79.04000 4.904
79.06000 4.626
79.08000 2.568
79.10000 2.476
79.12000 4.822
79.14000 3.673
79.16000 2.226
79.18000 9.807
79.20000 3.721
79.22000 7.330
79.24000 5.599
79.26000 4.194
79.28000 6.124
79.30000 6.942
79.32000 3.304
79.34000 8.859
79.36000 7.084
79.38000 6.174
79.40000 6.356
79.42000 7.550
79.44000 8.179
79.46000 6.396
79.48000 6.941
79.50000 13.017
79.52000 14.496
79.54000 9.214
79.56000 11.155
79.58000 12.966
79.60000 9.365
79.62000 10.243
79.64000 9.679
79.66000 12.506
79.68000 15.463
79.70000 15.898
79.72000 16.083
79.74000 14.628
79.76000 18.198
79.78000 15.536
79.80000 13.114
79.82000 15.687
79.84000 22.787
79.86000 22.352
79.88000 22.068
79.90000 20.661
79.92000 17.328
79.94000 18.953
79.96000 19.296
79.98000 16.789
80.00000 16.445
80.02000 19.553
80.04000 21.434
80.06000 25.051
80.08000 25.228
80.10000 25.555
80.12000 23.905
80.14000 17.500
80.16000 22.620
80.18000 26.919
80.20000 26.284
80.22000 25.320
80.24000 27.794
80.26000 27.009
80.28000 24.411
80.30000 24.382
80.32000 20.398
80.34000 23.977
80.36000 26.026
80.38000 21.092
80.40000 19.904
80.42000 20.287
80.44000 23.987
80.46000 23.294
80.48000 21.571
80.50000 21.537
80.52000 20.663
80.54000 25.218
80.56000 26.872
80.58000 21.036
80.60000 20.720
80.62000 20.692
80.64000 22.484
80.66000 20.716
80.68000 17.896
80.70000 20.540
80.72000 18.745
80.74000 20.449
80.76000 17.821
80.78000 15.403
80.80000 14.544
80.82000 13.988
80.84000 12.251
80.86000 13.029
80.88000 13.656
80.90000 15.529
80.92000 12.221
80.94000 12.666
80.96000 8.541
80.98000 8.640
81.00000 9.173
81.02000 13.193
81.04000 12.682
81.06000 6.934
81.08000 9.816
81.10000 8.315
81.12000 8.710
81.14000 9.654
81.16000 9.380
81.18000 6.433
81.20000 8.329
81.22000 6.396
81.24000 5.939
81.26000 7.123
81.28000 4.560
81.30000 5.380
81.32000 3.566
81.34000 2.630
81.36000 2.190
81.38000 1.114
81.40000 6.538
81.42000 2.292
81.44000 3.957
81.46000 1.269
81.48000 2.306
81.50000 1.817
81.52000 2.495
81.54000 3.173
81.56000 2.982
81.58000 1.338
81.60000 4.374
81.62000 2.113
81.64000 -0.712
81.66000 0.864
81.68000 0.980
81.70000 1.822
81.72000 2.131
81.74000 -0.492
81.76000 -0.379
81.78000 2.185
81.80000 3.393
81.82000 0.039
81.84000 0.453
81.86000 2.401
81.88000 -1.833
81.90000 0.225
81.92000 0.454
81.94000 -2.207
81.96000 -1.261
81.98000 -1.004
82.00000 -1.359
82.02000 0.917
82.04000 2.033
82.06000 2.943
82.08000 0.485
82.10000 1.393
82.12000 3.246
82.14000 5.267
82.16000 2.164
82.18000 2.337
82.20000 3.153
82.22000 -0.112
82.24000 -1.067
82.26000 2.680
82.28000 4.006
82.30000 4.222
82.32000 6.437
82.34000 3.940
82.36000 0.572
82.38000 4.435
82.40000 2.669
82.42000 1.777
82.44000 1.952
82.46000 2.860
82.48000 -0.756
82.50000 3.325
82.52000 1.949
82.54000 -2.158
82.56000 2.780
82.58000 0.432
82.60000 1.754
82.62000 5.038
82.64000 4.953
82.66000 5.777
82.68000 3.807
82.70000 4.261
82.72000 4.121
82.74000 4.870
82.76000 4.363
82.78000 5.646
82.80000 3.008
82.82000 2.575
82.84000 5.320
82.86000 6.379
82.88000 7.922
82.90000 2.663
82.92000 4.009
82.94000 3.202
82.96000 4.023
82.98000 5.809
83.00000 4.534
83.02000 6.445
83.04000 8.165
83.06000 6.725
83.08000 5.532
83.10000 6.473
83.12000 9.003
83.14000 8.665
83.16000 7.994
83.18000 5.357
83.20000 5.726
83.22000 9.471
83.24000 9.699
83.26000 8.466
83.28000 11.270
83.30000 10.689
83.32000 9.390
83.34000 11.884
83.36000 10.769
83.38000 9.713
83.40000 10.276
83.42000 8.427
83.44000 12.124
83.46000 12.944
83.48000 12.339
83.50000 12.570
83.52000 14.019
83.54000 14.825
83.56000 15.830
83.58000 15.566
83.60000 14.604
83.62000 17.163
83.64000 18.400
83.66000 19.432
83.68000 19.807
83.70000 21.023
83.72000 23.774
83.74000 21.813
83.76000 24.240
83.78000 23.138
83.80000 22.102
83.82000 24.592
83.84000 28.565
83.86000 26.816
83.88000 22.925
83.90000 25.846
83.92000 30.187
83.94000 26.798
83.96000 28.481
83.98000 23.770
84.00000 26.515
84.02000 29.339
84.04000 30.545
84.06000 29.023
84.08000 33.071
84.10000 34.458
84.12000 33.201
84.14000 35.378
84.16000 38.435
84.18000 38.384
84.20000 35.853
84.22000 34.832
84.24000 32.473
84.26000 31.844
84.28000 34.061
84.30000 34.351
84.32000 31.888
84.34000 32.883
84.36000 34.440
84.38000 30.668
84.40000 27.025
84.42000 25.924
84.44000 27.678
84.46000 26.655
84.48000 24.466
84.50000 22.496
84.52000 21.260
84.54000 25.328
84.56000 29.434
84.58000 26.484
84.60000 22.002
84.62000 20.202
84.64000 18.162
84.66000 19.898
84.68000 20.840
84.70000 19.815
84.72000 16.461
84.74000 17.367
84.76000 14.612
84.78000 15.690
84.80000 17.723
84.82000 13.263
84.84000 11.421
84.86000 12.038
84.88000 14.293
84.90000 14.950
84.92000 11.812
84.94000 10.425
84.96000 9.001
84.98000 7.938
85.00000 6.773
85.02000 6.693
85.04000 9.335
85.06000 10.621
85.08000 6.072
85.10000 4.818
85.12000 6.341
85.14000 4.008
85.16000 4.687
85.18000 4.102
85.20000 4.057
85.22000 5.574
85.24000 4.058
85.26000 7.330
85.28000 8.382
85.30000 4.812
85.32000 4.037
85.34000 2.724
85.36000 1.332
85.38000 -0.141
85.40000 2.012
85.42000 3.673
85.44000 1.188
85.46000 3.027
85.48000 3.105
85.50000 4.429
85.52000 3.990
85.54000 3.025
85.56000 0.731
85.58000 2.803
85.60000 0.936
85.62000 0.645
85.64000 1.694
85.66000 2.823
85.68000 2.165
85.70000 2.557
85.72000 -1.982
85.74000 0.995
85.76000 -1.713
85.78000 0.873
85.80000 3.164
85.82000 2.135
85.84000 0.606
85.86000 -1.973
85.88000 -0.408
85.90000 0.913
85.92000 1.915
85.94000 0.000
85.96000 0.143
85.98000 1.302
86.00000 4.029
86.02000 1.839
86.04000 -0.926
86.06000 1.203
86.08000 1.259
86.10000 0.403
86.12000 1.921
86.14000 1.454
86.16000 1.253
86.18000 1.650
86.20000 -1.321
86.22000 -0.605
86.24000 2.903
86.26000 1.077
86.28000 -0.719
86.30000 0.521
86.32000 0.505
86.34000 0.107
86.36000 -1.189
86.38000 -0.295
86.40000 0.609
86.42000 -0.581
86.44000 1.268
86.46000 -1.272
86.48000 -0.839
86.50000 1.662
86.52000 2.114
86.54000 2.403
86.56000 1.421
86.58000 -1.928
86.60000 -1.090
86.62000 1.186
86.64000 0.181
86.66000 -0.299
86.68000 1.530
86.70000 2.032
86.72000 1.824
86.74000 5.345
86.76000 2.427
86.78000 0.421
86.80000 2.869
86.82000 7.093
86.84000 5.377
86.86000 2.164
86.88000 2.653
86.90000 1.585
86.92000 3.763
86.94000 1.502
86.96000 1.282
86.98000 1.742
87.00000 0.762
87.02000 -1.230
87.04000 -0.642
87.06000 2.478
87.08000 5.671
87.10000 1.358
87.12000 -0.484
87.14000 0.657
87.16000 1.322
87.18000 4.114
87.20000 2.150
87.22000 0.195
87.24000 2.182
87.26000 4.945
87.28000 2.303
87.30000 -1.855
87.32000 2.793
87.34000 4.410
87.36000 5.092
87.38000 5.566
87.40000 1.344
87.42000 0.430
87.44000 2.112
87.46000 1.684
87.48000 1.543
87.50000 2.189
87.52000 1.650
87.54000 2.666
87.56000 4.736
87.58000 3.355
87.60000 3.217
87.62000 -0.373
87.64000 -0.077
87.66000 0.063
87.68000 1.810
87.70000 0.750
87.72000 0.455
87.74000 -1.066
87.76000 -0.938
87.78000 2.839
87.80000 2.753
87.82000 0.560
87.84000 0.722
87.86000 2.619
87.88000 -0.659
87.90000 -0.626
87.92000 4.174
87.94000 4.992
87.96000 1.967
87.98000 0.956
88.00000 0.467
88.02000 0.943
88.04000 2.530
88.06000 1.287
88.08000 1.181
88.10000 0.662
88.12000 -0.532
88.14000 2.532
88.16000 3.796
88.18000 3.128
88.20000 1.548
88.22000 0.765
88.24000 1.450
88.26000 1.256
88.28000 0.778
88.30000 0.951
88.32000 2.949
88.34000 0.022
88.36000 -0.069
88.38000 0.432
88.40000 3.221
88.42000 2.817
88.44000 1.486
88.46000 3.693
88.48000 1.117
88.50000 0.928
88.52000 2.113
88.54000 -1.830
88.56000 -1.178
88.58000 -1.549
88.60000 -1.394
88.62000 -0.647
88.64000 2.351
88.66000 0.308
88.68000 2.804
88.70000 2.855
88.72000 3.557
88.74000 0.283
88.76000 3.067
88.78000 6.420
88.80000 4.603
88.82000 1.153
88.84000 2.688
88.86000 1.052
88.88000 2.151
88.90000 1.194
88.92000 1.813
88.94000 1.682
88.96000 0.187
88.98000 0.324
89.00000 2.103
89.02000 1.029
89.04000 -0.827
89.06000 0.581
89.08000 3.343
89.10000 1.244
89.12000 -0.753
89.14000 4.886
89.16000 3.573
89.18000 3.823
89.20000 4.852
89.22000 3.545
89.24000 0.764
89.26000 1.541
89.28000 -0.292
89.30000 0.770
89.32000 6.420
89.34000 5.686
89.36000 2.248
89.38000 2.374
89.40000 1.512
89.42000 -0.097
89.44000 -0.208
89.46000 0.864
89.48000 3.334
89.50000 3.824
89.52000 2.956
89.54000 1.388
89.56000 0.692
89.58000 -1.833
89.60000 -0.139
89.62000 1.231
89.64000 0.450
89.66000 1.651
89.68000 0.828
89.70000 -1.181
89.72000 1.346
89.74000 1.407
89.76000 1.998
89.78000 0.814
89.80000 1.156
89.82000 2.636
89.84000 -0.865
89.86000 0.324
89.88000 2.746
89.90000 2.069
89.92000 -0.043
89.94000 2.098
89.96000 3.605
89.98000 3.123
90.00000 0.758
90.02000 -1.750
90.04000 -1.834
90.06000 0.218
90.08000 -0.544
90.10000 3.218
90.12000 2.109
90.14000 2.876
90.16000 4.730
90.18000 2.658
90.20000 -0.100
90.22000 -1.274
90.24000 -0.115
90.26000 0.142
90.28000 1.849
90.30000 -0.189
90.32000 -0.821
90.34000 2.505
90.36000 2.789
90.38000 3.695
90.40000 4.062
90.42000 1.611
90.44000 -0.282
90.46000 1.473
90.48000 -0.049
90.50000 0.318
90.52000 1.224
90.54000 1.687
90.56000 0.702
90.58000 1.815
90.60000 3.161
90.62000 1.465
90.64000 1.169
90.66000 -0.116
90.68000 1.130
90.70000 2.357
90.72000 1.466
90.74000 1.166
90.76000 2.592
90.78000 -0.601
90.80000 0.508
90.82000 1.706
90.84000 2.126
90.86000 3.642
90.88000 3.486
90.90000 3.018
90.92000 1.119
90.94000 3.625
90.96000 2.511
90.98000 0.856
91.00000 0.333
91.02000 0.907
91.04000 3.006
91.06000 3.626
91.08000 0.366
91.10000 -1.812
91.12000 0.421
91.14000 0.832
91.16000 0.054
91.18000 0.483
91.20000 3.831
91.22000 4.673
91.24000 6.335
91.26000 5.005
91.28000 1.738
91.30000 2.154
91.32000 4.398
91.34000 1.175
91.36000 3.988
91.38000 3.503
91.40000 -0.205
91.42000 -1.797
91.44000 2.194
91.46000 5.035
91.48000 3.551
91.50000 2.136
91.52000 4.269
91.54000 3.241
91.56000 3.400
91.58000 3.428
91.60000 6.497
91.62000 5.733
91.64000 2.207
91.66000 4.346
91.68000 1.775
91.70000 1.349
91.72000 1.359
91.74000 -0.165
91.76000 0.725
91.78000 3.201
91.80000 3.076
91.82000 3.518
91.84000 6.636
91.86000 3.299
91.88000 0.703
91.90000 0.308
91.92000 0.895
91.94000 0.752
91.96000 0.265
91.98000 1.373
92.00000 2.333
92.02000 2.875
92.04000 0.014
92.06000 1.408
92.08000 0.569
92.10000 3.505
92.12000 0.090
92.14000 0.118
92.16000 1.145
92.18000 0.562
92.20000 3.118
92.22000 4.663
92.24000 3.919
92.26000 3.123
92.28000 0.989
92.30000 -0.468
92.32000 1.240
92.34000 5.467
92.36000 2.918
92.38000 3.540
92.40000 4.830
92.42000 1.657
92.44000 1.909
92.46000 4.053
92.48000 1.295
92.50000 -0.067
92.52000 0.975
92.54000 1.387
92.56000 4.592
92.58000 3.264
92.60000 3.556
92.62000 2.642
92.64000 3.479
92.66000 1.570
92.68000 2.793
92.70000 4.346
92.72000 3.096
92.74000 4.239
92.76000 4.655
92.78000 2.798
92.80000 -0.198
92.82000 1.725
92.84000 4.270
92.86000 3.538
92.88000 2.758
92.90000 6.306
92.92000 4.879
92.94000 -0.070
92.96000 1.268
92.98000 2.532
93.00000 2.867
93.02000 3.573
93.04000 6.740
93.06000 7.457
93.08000 3.028
93.10000 3.863
93.12000 4.399
93.14000 -1.786
93.16000 -0.994
93.18000 2.517
93.20000 4.137
93.22000 3.967
93.24000 3.926
93.26000 3.139
93.28000 1.206
93.30000 1.952
93.32000 4.364
93.34000 2.015
93.36000 0.174
93.38000 3.869
93.40000 1.113
93.42000 1.357
93.44000 2.211
93.46000 2.796
93.48000 2.495
93.50000 3.635
93.52000 4.005
93.54000 4.101
93.56000 2.602
93.58000 3.622
93.60000 1.512
93.62000 2.795
93.64000 3.878
93.66000 7.092
93.68000 4.943
93.70000 3.909
93.72000 1.276
93.74000 -0.706
93.76000 2.801
93.78000 7.688
93.80000 6.947
93.82000 3.405
93.84000 0.930
93.86000 1.774
93.88000 2.309
93.90000 1.543
93.92000 2.806
93.94000 3.722
93.96000 3.644
93.98000 -1.053
94.00000 1.507
94.02000 3.489
94.04000 3.621
94.06000 5.090
94.08000 3.796
94.10000 -0.578
94.12000 -1.136
94.14000 1.389
94.16000 1.824
94.18000 3.719
94.20000 5.392
94.22000 1.939
94.24000 0.152
94.26000 2.299
94.28000 1.203
94.30000 0.481
94.32000 1.200
94.34000 2.297
94.36000 2.114
94.38000 1.061
94.40000 0.566
94.42000 0.895
94.44000 0.622
94.46000 -0.726
94.48000 3.447
94.50000 5.524
94.52000 3.959
94.54000 2.670
94.56000 1.699
94.58000 1.701
94.60000 2.264
94.62000 3.633
94.64000 0.722
94.66000 0.820
94.68000 2.313
94.70000 0.095
94.72000 1.777
94.74000 2.462
94.76000 0.832
94.78000 -0.097
94.80000 2.249
94.82000 1.743
94.84000 3.479
94.86000 1.361
94.88000 5.012
94.90000 4.438
94.92000 1.349
94.94000 3.087
94.96000 4.922
94.98000 5.505
95.00000 0.312
95.02000 -1.855
95.04000 3.659
95.06000 5.162
95.08000 2.635
95.10000 2.598
95.12000 1.346
95.14000 3.600
95.16000 5.657
95.18000 1.789
95.20000 2.619
95.22000 3.701
95.24000 2.945
95.26000 0.499
95.28000 0.334
95.30000 3.753
95.32000 5.169
95.34000 4.103
95.36000 0.646
95.38000 2.716
95.40000 0.522
95.42000 4.653
95.44000 4.665
95.46000 2.812
95.48000 2.312
95.50000 3.334
95.52000 6.657
95.54000 2.709
95.56000 1.774
95.58000 1.204
95.60000 0.159
95.62000 0.513
95.64000 4.359
95.66000 3.781
95.68000 2.837
95.70000 1.497
95.72000 -1.856
95.74000 1.406
95.76000 6.040
95.78000 5.049
95.80000 4.339
95.82000 4.426
95.84000 2.587
95.86000 2.743
95.88000 -0.256
95.90000 -0.120
95.92000 0.904
95.94000 2.993
95.96000 4.119
95.98000 2.885
96.00000 4.000
96.02000 6.304
96.04000 1.750
96.06000 3.470
96.08000 4.004
96.10000 4.288
96.12000 5.914
96.14000 5.749
96.16000 2.054
96.18000 3.430
96.20000 3.041
96.22000 0.614
96.24000 -0.869
96.26000 -0.169
96.28000 0.165
96.30000 1.162
96.32000 2.066
96.34000 -0.331
96.36000 -1.873
96.38000 1.332
96.40000 6.969
96.42000 2.980
96.44000 0.296
96.46000 1.861
96.48000 4.269
96.50000 0.659
96.52000 1.079
96.54000 0.814
96.56000 1.131
96.58000 1.882
96.60000 2.093
96.62000 0.707
96.64000 4.890
96.66000 2.775
96.68000 0.902
96.70000 0.878
96.72000 2.342
96.74000 0.119
96.76000 1.691
96.78000 -1.703
96.80000 2.013
96.82000 -0.950
96.84000 -0.618
96.86000 1.462
96.88000 7.110
96.90000 5.350
96.92000 5.863
96.94000 7.630
96.96000 1.557
96.98000 -1.111
97.00000 4.248
97.02000 0.467
97.04000 -0.030
97.06000 1.642
97.08000 -0.974
97.10000 0.091
97.12000 1.499
97.14000 5.699
97.16000 4.399
97.18000 4.346
97.20000 5.389
97.22000 4.696
97.24000 0.915
97.26000 -0.261
97.28000 2.468
97.30000 4.798
97.32000 5.692
97.34000 4.529
97.36000 3.646
97.38000 1.626
97.40000 2.273
97.42000 5.831
97.44000 4.789
97.46000 0.656
97.48000 2.774
97.50000 3.252
97.52000 2.904
97.54000 2.339
97.56000 3.998
97.58000 2.286
97.60000 0.280
97.62000 -1.821
97.64000 0.693
97.66000 4.298
97.68000 7.206
97.70000 4.351
97.72000 4.816
97.74000 1.417
97.76000 4.065
97.78000 4.569
97.80000 1.246
97.82000 2.146
97.84000 1.903
97.86000 6.527
97.88000 7.869
97.90000 4.094
97.92000 5.842
97.94000 4.187
97.96000 -1.759
97.98000 -1.807
98.00000 3.930
98.02000 4.570
98.04000 1.144
98.06000 3.173
98.08000 1.963
98.10000 -1.064
98.12000 0.394
98.14000 0.861
98.16000 5.859
98.18000 1.450
98.20000 2.677
98.22000 -1.283
98.24000 -1.065
98.26000 2.732
98.28000 4.806
98.30000 4.526
98.32000 5.664
98.34000 9.877
98.36000 11.694
98.38000 6.398
98.40000 1.232
98.42000 0.269
98.44000 0.671
98.46000 2.573
98.48000 0.547
98.50000 0.875
98.52000 1.301
98.54000 -0.759
98.56000 3.843
98.58000 1.808
98.60000 3.333
98.62000 6.523
98.64000 6.164
98.66000 5.191
98.68000 6.855
98.70000 10.479
98.72000 6.708
98.74000 7.789
98.76000 3.889
98.78000 -1.729
98.80000 4.043
98.82000 11.194
98.84000 7.289
98.86000 7.224
98.88000 7.084
98.90000 2.913
98.92000 3.628
98.94000 3.626
98.96000 3.182
98.98000 5.858
99.00000 5.527
99.02000 3.074
99.04000 0.004
99.06000 1.817
99.08000 9.231
99.10000 7.874
99.12000 4.865
99.14000 6.213
99.16000 6.810
99.18000 7.346
99.20000 -1.224
99.22000 0.936
99.24000 8.433
99.26000 6.886
99.28000 5.978
99.30000 7.573
99.32000 8.255
99.34000 8.443
99.36000 11.063
99.38000 7.893
99.40000 8.138
99.42000 5.002
99.44000 8.608
99.46000 11.670
99.48000 9.442
99.50000 4.030
99.52000 -1.716
99.54000 0.467
99.56000 4.084
99.58000 9.830
99.60000 10.431
99.62000 7.808
99.64000 4.839
99.66000 2.841
99.68000 2.626
99.70000 3.297
99.72000 7.100
99.74000 1.754
99.76000 2.718
99.78000 -0.759
99.80000 -0.978
99.82000 0.535
99.84000 0.802
99.86000 -0.558
99.88000 -1.957
99.90000 2.671
99.92000 -2.020
99.94000 -0.574
99.96000 -2.102
99.98000 0.000
