'Id: "0011388" Comment: "Integrate frame 0011388_Au-Ir-Rh_Rh-rich_XRD-Mapping-204-0000.gfrmwith cursor Wedge Cursor #5" Operator: "B?rgel" Anode: "Cu" Wavelength: "1.5406" Scantype: "2Theta (TwoTheta)" TimePerStep: "1" X: "-22.5" Y: "9" Z: "5.95" 
10.00000 0.000
10.02000 -1.285
10.04000 -4.351
10.06000 5.765
10.08000 13.856
10.10000 27.179
10.12000 27.891
10.14000 33.546
10.16000 12.294
10.18000 7.085
10.20000 -4.354
10.22000 7.100
10.24000 7.438
10.26000 6.230
10.28000 18.989
10.30000 12.014
10.32000 6.582
10.34000 5.459
10.36000 10.453
10.38000 15.846
10.40000 8.104
10.42000 13.124
10.44000 13.811
10.46000 3.239
10.48000 6.328
10.50000 15.100
10.52000 17.890
10.54000 15.797
10.56000 9.261
10.58000 20.176
10.60000 7.088
10.62000 9.410
10.64000 7.120
10.66000 3.958
10.68000 21.787
10.70000 28.898
10.72000 15.789
10.74000 5.245
10.76000 20.353
10.78000 13.332
10.80000 19.151
10.82000 12.831
10.84000 17.666
10.86000 16.768
10.88000 10.846
10.90000 2.314
10.92000 12.127
10.94000 18.818
10.96000 18.500
10.98000 11.945
11.00000 21.896
11.02000 17.229
11.04000 4.297
11.06000 9.603
11.08000 4.776
11.10000 6.986
11.12000 7.158
11.14000 1.488
11.16000 10.037
11.18000 16.673
11.20000 23.505
11.22000 24.763
11.24000 17.203
11.26000 10.742
11.28000 12.487
11.30000 8.167
11.32000 8.727
11.34000 13.308
11.36000 11.131
11.38000 12.104
11.40000 19.102
11.42000 16.815
11.44000 6.204
11.46000 13.338
11.48000 12.514
11.50000 17.047
11.52000 9.640
11.54000 12.065
11.56000 12.725
11.58000 15.364
11.60000 17.974
11.62000 10.319
11.64000 15.825
11.66000 -2.756
11.68000 -0.990
11.70000 10.418
11.72000 4.966
11.74000 -4.445
11.76000 -2.109
11.78000 7.042
11.80000 8.346
11.82000 18.418
11.84000 20.917
11.86000 14.817
11.88000 15.196
11.90000 16.688
11.92000 11.494
11.94000 16.103
11.96000 16.158
11.98000 15.997
12.00000 12.333
12.02000 7.711
12.04000 14.531
12.06000 13.849
12.08000 12.757
12.10000 13.369
12.12000 12.313
12.14000 4.986
12.16000 9.439
12.18000 8.643
12.20000 4.460
12.22000 8.195
12.24000 -1.678
12.26000 10.938
12.28000 19.074
12.30000 11.302
12.32000 16.295
12.34000 -3.721
12.36000 -2.234
12.38000 3.431
12.40000 5.553
12.42000 12.793
12.44000 16.913
12.46000 10.774
12.48000 0.613
12.50000 -4.473
12.52000 7.553
12.54000 11.590
12.56000 4.948
12.58000 8.802
12.60000 14.567
12.62000 15.066
12.64000 11.693
12.66000 11.272
12.68000 3.780
12.70000 7.209
12.72000 19.167
12.74000 17.514
12.76000 19.016
12.78000 19.174
12.80000 16.574
12.82000 10.053
12.84000 12.899
12.86000 14.366
12.88000 16.254
12.90000 1.206
12.92000 -1.364
12.94000 1.897
12.96000 7.265
12.98000 1.926
13.00000 11.398
13.02000 11.409
13.04000 14.288
13.06000 18.345
13.08000 8.884
13.10000 8.692
13.12000 4.939
13.14000 8.967
13.16000 9.775
13.18000 14.057
13.20000 8.557
13.22000 8.896
13.24000 7.489
13.26000 7.788
13.28000 -1.615
13.30000 6.243
13.32000 3.337
13.34000 14.060
13.36000 9.261
13.38000 7.648
13.40000 6.774
13.42000 8.893
13.44000 6.619
13.46000 0.836
13.48000 2.400
13.50000 0.353
13.52000 6.578
13.54000 1.778
13.56000 4.926
13.58000 18.241
13.60000 17.406
13.62000 8.476
13.64000 5.418
13.66000 6.797
13.68000 10.575
13.70000 8.050
13.72000 6.984
13.74000 13.327
13.76000 10.722
13.78000 11.357
13.80000 14.705
13.82000 9.237
13.84000 1.258
13.86000 5.141
13.88000 13.045
13.90000 5.136
13.92000 8.078
13.94000 8.632
13.96000 19.506
13.98000 22.029
14.00000 22.232
14.02000 14.441
14.04000 5.312
14.06000 11.025
14.08000 7.343
14.10000 8.309
14.12000 9.096
14.14000 0.278
14.16000 0.618
14.18000 4.816
14.20000 14.942
14.22000 14.235
14.24000 10.109
14.26000 13.090
14.28000 7.660
14.30000 2.953
14.32000 7.489
14.34000 8.175
14.36000 -2.960
14.38000 8.016
14.40000 6.478
14.42000 -1.276
14.44000 6.267
14.46000 9.802
14.48000 6.979
14.50000 3.237
14.52000 5.088
14.54000 13.677
14.56000 14.627
14.58000 9.156
14.60000 9.749
14.62000 9.443
14.64000 4.745
14.66000 5.113
14.68000 1.942
14.70000 0.708
14.72000 3.486
14.74000 7.638
14.76000 7.931
14.78000 9.171
14.80000 9.458
14.82000 4.477
14.84000 3.196
14.86000 3.796
14.88000 7.433
14.90000 5.697
14.92000 -0.739
14.94000 0.458
14.96000 0.196
14.98000 7.108
15.00000 6.036
15.02000 10.094
15.04000 12.772
15.06000 13.701
15.08000 18.597
15.10000 19.900
15.12000 15.763
15.14000 8.459
15.16000 5.850
15.18000 11.566
15.20000 9.868
15.22000 12.528
15.24000 17.226
15.26000 15.873
15.28000 15.404
15.30000 18.720
15.32000 21.111
15.34000 14.906
15.36000 8.156
15.38000 10.138
15.40000 18.837
15.42000 4.890
15.44000 10.578
15.46000 9.344
15.48000 -3.216
15.50000 -4.436
15.52000 -0.029
15.54000 1.565
15.56000 8.183
15.58000 15.932
15.60000 11.488
15.62000 15.933
15.64000 11.030
15.66000 10.698
15.68000 6.931
15.70000 8.258
15.72000 4.362
15.74000 -0.123
15.76000 4.624
15.78000 11.107
15.80000 15.366
15.82000 9.220
15.84000 7.171
15.86000 1.784
15.88000 -0.453
15.90000 5.827
15.92000 5.700
15.94000 -0.345
15.96000 -2.238
15.98000 5.133
16.00000 5.974
16.02000 -0.274
16.04000 6.731
16.06000 4.767
16.08000 4.916
16.10000 6.278
16.12000 15.986
16.14000 22.189
16.16000 7.842
16.18000 5.990
16.20000 6.577
16.22000 5.329
16.24000 2.599
16.26000 9.775
16.28000 11.267
16.30000 8.053
16.32000 10.143
16.34000 18.255
16.36000 19.194
16.38000 12.511
16.40000 9.487
16.42000 8.320
16.44000 9.107
16.46000 6.699
16.48000 4.528
16.50000 -0.184
16.52000 4.576
16.54000 8.364
16.56000 7.489
16.58000 9.787
16.60000 9.962
16.62000 11.718
16.64000 5.873
16.66000 9.735
16.68000 10.640
16.70000 13.721
16.72000 6.588
16.74000 10.118
16.76000 17.724
16.78000 20.306
16.80000 4.121
16.82000 -0.240
16.84000 11.033
16.86000 12.773
16.88000 5.651
16.90000 3.013
16.92000 2.473
16.94000 9.214
16.96000 8.172
16.98000 10.486
17.00000 7.346
17.02000 7.276
17.04000 8.810
17.06000 7.296
17.08000 10.029
17.10000 9.636
17.12000 4.084
17.14000 4.333
17.16000 2.201
17.18000 3.790
17.20000 8.206
17.22000 11.438
17.24000 11.356
17.26000 11.463
17.28000 8.491
17.30000 16.959
17.32000 18.549
17.34000 9.856
17.36000 14.911
17.38000 11.302
17.40000 9.295
17.42000 7.222
17.44000 7.853
17.46000 10.911
17.48000 9.678
17.50000 8.495
17.52000 9.884
17.54000 9.941
17.56000 0.009
17.58000 -4.321
17.60000 5.003
17.62000 16.242
17.64000 12.148
17.66000 11.143
17.68000 6.088
17.70000 1.190
17.72000 6.629
17.74000 3.225
17.76000 -1.989
17.78000 -0.303
17.80000 3.294
17.82000 2.917
17.84000 7.819
17.86000 1.836
17.88000 2.640
17.90000 7.411
17.92000 8.542
17.94000 14.569
17.96000 11.103
17.98000 12.698
18.00000 15.594
18.02000 5.571
18.04000 1.391
18.06000 11.931
18.08000 8.245
18.10000 5.679
18.12000 8.150
18.14000 5.924
18.16000 4.707
18.18000 3.831
18.20000 -0.693
18.22000 1.324
18.24000 1.826
18.26000 6.227
18.28000 6.998
18.30000 8.530
18.32000 3.765
18.34000 -1.316
18.36000 1.971
18.38000 9.160
18.40000 9.415
18.42000 8.599
18.44000 9.407
18.46000 2.544
18.48000 1.813
18.50000 -2.065
18.52000 3.364
18.54000 4.634
18.56000 5.203
18.58000 4.533
18.60000 6.350
18.62000 8.412
18.64000 7.841
18.66000 3.154
18.68000 -1.373
18.70000 -3.570
18.72000 0.584
18.74000 -3.784
18.76000 -0.667
18.78000 7.051
18.80000 7.130
18.82000 -1.219
18.84000 0.658
18.86000 1.686
18.88000 6.345
18.90000 8.643
18.92000 4.660
18.94000 -1.292
18.96000 1.171
18.98000 6.314
19.00000 6.878
19.02000 6.037
19.04000 5.955
19.06000 2.642
19.08000 5.223
19.10000 0.400
19.12000 1.447
19.14000 0.780
19.16000 0.017
19.18000 0.515
19.20000 3.716
19.22000 4.123
19.24000 2.082
19.26000 -1.418
19.28000 4.444
19.30000 0.723
19.32000 -1.100
19.34000 0.933
19.36000 3.315
19.38000 -0.851
19.40000 -2.454
19.42000 -1.421
19.44000 3.073
19.46000 1.377
19.48000 5.396
19.50000 5.188
19.52000 -0.962
19.54000 -3.280
19.56000 7.301
19.58000 6.114
19.60000 2.178
19.62000 4.649
19.64000 5.132
19.66000 3.250
19.68000 3.214
19.70000 2.264
19.72000 2.401
19.74000 7.975
19.76000 0.685
19.78000 -0.277
19.80000 0.987
19.82000 0.275
19.84000 -2.589
19.86000 -0.066
19.88000 8.227
19.90000 4.990
19.92000 -1.244
19.94000 1.333
19.96000 5.656
19.98000 2.622
20.00000 -3.239
20.02000 6.671
20.04000 1.561
20.06000 10.067
20.08000 10.698
20.10000 11.751
20.12000 8.730
20.14000 1.558
20.16000 -2.306
20.18000 -1.972
20.20000 -4.240
20.22000 -3.942
20.24000 -0.475
20.26000 1.282
20.28000 6.158
20.30000 5.809
20.32000 0.651
20.34000 6.438
20.36000 4.847
20.38000 -0.655
20.40000 0.117
20.42000 1.904
20.44000 0.402
20.46000 -1.764
20.48000 2.754
20.50000 5.118
20.52000 2.989
20.54000 -0.151
20.56000 3.946
20.58000 6.535
20.60000 5.612
20.62000 4.812
20.64000 1.335
20.66000 -0.302
20.68000 5.172
20.70000 9.707
20.72000 10.105
20.74000 3.848
20.76000 3.347
20.78000 2.029
20.80000 8.663
20.82000 7.884
20.84000 -4.202
20.86000 -2.153
20.88000 1.012
20.90000 -0.606
20.92000 2.697
20.94000 2.145
20.96000 5.639
20.98000 0.879
21.00000 0.620
21.02000 7.202
21.04000 7.679
21.06000 2.057
21.08000 5.245
21.10000 2.209
21.12000 0.718
21.14000 2.987
21.16000 1.405
21.18000 4.946
21.20000 1.666
21.22000 -2.214
21.24000 -2.660
21.26000 -2.491
21.28000 2.981
21.30000 10.360
21.32000 7.052
21.34000 2.384
21.36000 -1.239
21.38000 -2.393
21.40000 -3.263
21.42000 -0.118
21.44000 -0.114
21.46000 3.500
21.48000 -1.915
21.50000 2.746
21.52000 7.789
21.54000 9.168
21.56000 2.080
21.58000 0.437
21.60000 1.949
21.62000 0.851
21.64000 3.184
21.66000 2.198
21.68000 2.911
21.70000 -1.381
21.72000 -3.191
21.74000 -0.947
21.76000 3.083
21.78000 4.750
21.80000 10.229
21.82000 8.309
21.84000 7.177
21.86000 -2.731
21.88000 1.925
21.90000 6.916
21.92000 4.339
21.94000 -1.642
21.96000 1.530
21.98000 4.024
22.00000 3.783
22.02000 1.393
22.04000 6.532
22.06000 7.669
22.08000 1.648
22.10000 -0.900
22.12000 1.625
22.14000 4.348
22.16000 6.000
22.18000 9.310
22.20000 6.508
22.22000 4.234
22.24000 -3.012
22.26000 1.639
22.28000 9.503
22.30000 7.794
22.32000 11.838
22.34000 13.134
22.36000 7.618
22.38000 6.547
22.40000 4.527
22.42000 7.328
22.44000 3.492
22.46000 -4.096
22.48000 2.703
22.50000 9.003
22.52000 4.849
22.54000 9.706
22.56000 8.891
22.58000 2.898
22.60000 5.040
22.62000 4.748
22.64000 3.569
22.66000 0.743
22.68000 1.572
22.70000 4.513
22.72000 0.254
22.74000 -3.278
22.76000 1.295
22.78000 -0.281
22.80000 5.457
22.82000 1.833
22.84000 4.567
22.86000 4.595
22.88000 2.356
22.90000 4.551
22.92000 4.204
22.94000 8.771
22.96000 7.098
22.98000 5.328
23.00000 1.669
23.02000 -2.937
23.04000 -0.202
23.06000 4.768
23.08000 3.020
23.10000 1.761
23.12000 0.054
23.14000 -4.022
23.16000 -0.549
23.18000 1.836
23.20000 2.658
23.22000 1.423
23.24000 6.572
23.26000 0.281
23.28000 0.361
23.30000 2.019
23.32000 -0.777
23.34000 4.971
23.36000 7.233
23.38000 -0.093
23.40000 2.334
23.42000 3.703
23.44000 3.851
23.46000 3.965
23.48000 7.106
23.50000 4.580
23.52000 4.649
23.54000 1.472
23.56000 4.305
23.58000 1.788
23.60000 4.744
23.62000 4.907
23.64000 2.379
23.66000 0.725
23.68000 0.814
23.70000 6.942
23.72000 4.594
23.74000 4.112
23.76000 4.023
23.78000 1.547
23.80000 4.404
23.82000 5.467
23.84000 4.908
23.86000 1.006
23.88000 -4.030
23.90000 1.168
23.92000 2.489
23.94000 -0.782
23.96000 -3.589
23.98000 1.450
24.00000 4.625
24.02000 4.365
24.04000 -0.015
24.06000 -0.729
24.08000 8.601
24.10000 6.812
24.12000 2.212
24.14000 -0.697
24.16000 3.067
24.18000 8.518
24.20000 7.256
24.22000 10.129
24.24000 1.758
24.26000 -3.997
24.28000 1.369
24.30000 2.951
24.32000 1.787
24.34000 5.114
24.36000 8.235
24.38000 6.736
24.40000 10.167
24.42000 6.918
24.44000 7.042
24.46000 0.188
24.48000 0.729
24.50000 4.466
24.52000 9.517
24.54000 10.169
24.56000 0.805
24.58000 8.262
24.60000 6.584
24.62000 2.346
24.64000 -1.455
24.66000 -0.897
24.68000 2.624
24.70000 11.605
24.72000 6.431
24.74000 5.477
24.76000 3.860
24.78000 8.402
24.80000 11.100
24.82000 5.606
24.84000 2.083
24.86000 -3.970
24.88000 -1.329
24.90000 3.970
24.92000 4.373
24.94000 3.029
24.96000 5.883
24.98000 6.110
25.00000 6.531
25.02000 5.187
25.04000 4.527
25.06000 1.811
25.08000 1.553
25.10000 2.536
25.12000 2.993
25.14000 1.977
25.16000 0.402
25.18000 3.367
25.20000 -0.711
25.22000 3.669
25.24000 8.200
25.26000 -0.873
25.28000 -2.380
25.30000 4.664
25.32000 2.069
25.34000 0.598
25.36000 -2.806
25.38000 4.501
25.40000 6.281
25.42000 2.615
25.44000 4.620
25.46000 5.431
25.48000 12.608
25.50000 8.269
25.52000 14.664
25.54000 9.639
25.56000 0.753
25.58000 -1.378
25.60000 -0.319
25.62000 -0.540
25.64000 4.777
25.66000 3.562
25.68000 -3.936
25.70000 -3.018
25.72000 0.592
25.74000 -0.612
25.76000 3.605
25.78000 5.105
25.80000 2.020
25.82000 3.476
25.84000 5.755
25.86000 3.299
25.88000 1.417
25.90000 1.849
25.92000 0.307
25.94000 -1.007
25.96000 1.115
25.98000 3.763
26.00000 3.777
26.02000 -3.341
26.04000 -0.981
26.06000 3.947
26.08000 4.676
26.10000 -2.392
26.12000 2.233
26.14000 1.944
26.16000 4.209
26.18000 3.010
26.20000 0.605
26.22000 -1.664
26.24000 1.176
26.26000 -0.226
26.28000 -2.538
26.30000 4.370
26.32000 5.182
26.34000 3.193
26.36000 2.783
26.38000 0.444
26.40000 -0.927
26.42000 -0.717
26.44000 4.070
26.46000 -0.805
26.48000 0.926
26.50000 9.358
26.52000 5.639
26.54000 7.223
26.56000 5.987
26.58000 5.373
26.60000 3.937
26.62000 4.223
26.64000 -3.880
26.66000 2.939
26.68000 8.315
26.70000 3.784
26.72000 2.334
26.74000 3.958
26.76000 5.351
26.78000 2.153
26.80000 2.339
26.82000 0.679
26.84000 2.237
26.86000 7.339
26.88000 3.100
26.90000 -1.467
26.92000 3.892
26.94000 3.602
26.96000 4.507
26.98000 9.387
27.00000 4.834
27.02000 1.280
27.04000 7.127
27.06000 4.087
27.08000 1.620
27.10000 -0.713
27.12000 0.716
27.14000 4.470
27.16000 3.517
27.18000 2.845
27.20000 6.181
27.22000 7.039
27.24000 4.122
27.26000 -1.940
27.28000 3.654
27.30000 6.135
27.32000 2.620
27.34000 2.835
27.36000 -0.132
27.38000 0.080
27.40000 2.957
27.42000 4.965
27.44000 5.187
27.46000 0.927
27.48000 3.218
27.50000 5.381
27.52000 6.890
27.54000 8.757
27.56000 9.001
27.58000 5.663
27.60000 5.080
27.62000 3.282
27.64000 -1.207
27.66000 1.846
27.68000 -0.475
27.70000 3.989
27.72000 7.790
27.74000 1.477
27.76000 5.210
27.78000 1.477
27.80000 -1.865
27.82000 -2.826
27.84000 -1.810
27.86000 3.421
27.88000 3.635
27.90000 3.080
27.92000 6.019
27.94000 2.558
27.96000 3.743
27.98000 1.152
28.00000 2.646
28.02000 -3.805
28.04000 -2.964
28.06000 6.997
28.08000 7.224
28.10000 5.534
28.12000 2.159
28.14000 1.630
28.16000 3.099
28.18000 6.787
28.20000 3.985
28.22000 6.647
28.24000 7.505
28.26000 4.060
28.28000 0.942
28.30000 0.291
28.32000 2.923
28.34000 8.615
28.36000 7.629
28.38000 8.190
28.40000 7.792
28.42000 3.626
28.44000 3.454
28.46000 1.514
28.48000 7.343
28.50000 0.043
28.52000 2.607
28.54000 2.482
28.56000 6.748
28.58000 7.220
28.60000 3.364
28.62000 -2.102
28.64000 3.678
28.66000 -2.189
28.68000 -3.761
28.70000 5.173
28.72000 5.362
28.74000 4.253
28.76000 5.277
28.78000 3.377
28.80000 1.642
28.82000 5.667
28.84000 6.987
28.86000 8.142
28.88000 2.875
28.90000 -3.755
28.92000 0.242
28.94000 -1.782
28.96000 -0.020
28.98000 -0.865
29.00000 -0.539
29.02000 -0.853
29.04000 0.813
29.06000 6.566
29.08000 5.452
29.10000 7.056
29.12000 3.648
29.14000 4.913
29.16000 2.159
29.18000 1.424
29.20000 0.427
29.22000 -0.631
29.24000 0.031
29.26000 3.187
29.28000 4.315
29.30000 -2.500
29.32000 2.797
29.34000 -1.364
29.36000 3.045
29.38000 7.075
29.40000 8.485
29.42000 4.970
29.44000 -0.256
29.46000 2.492
29.48000 4.588
29.50000 7.095
29.52000 6.574
29.54000 1.786
29.56000 7.210
29.58000 4.474
29.60000 -0.256
29.62000 -2.053
29.64000 -1.289
29.66000 3.401
29.68000 1.364
29.70000 0.755
29.72000 -1.937
29.74000 -2.255
29.76000 4.387
29.78000 4.472
29.80000 3.156
29.82000 -0.532
29.84000 0.014
29.86000 1.225
29.88000 0.633
29.90000 3.917
29.92000 2.993
29.94000 4.694
29.96000 0.861
29.98000 0.026
30.00000 8.597
30.02000 9.830
30.04000 6.473
30.06000 6.302
30.08000 -0.310
30.10000 -3.692
30.12000 3.391
30.14000 8.225
30.16000 4.514
30.18000 1.153
30.20000 5.558
30.22000 11.478
30.24000 5.785
30.26000 4.813
30.28000 9.192
30.30000 5.573
30.32000 0.846
30.34000 -1.262
30.36000 -1.457
30.38000 3.414
30.40000 2.260
30.42000 -3.675
30.44000 0.354
30.46000 4.117
30.48000 3.553
30.50000 4.090
30.52000 1.056
30.54000 4.986
30.56000 6.455
30.58000 3.361
30.60000 0.417
30.62000 2.407
30.64000 -1.837
30.66000 -2.625
30.68000 1.762
30.70000 1.801
30.72000 0.208
30.74000 -2.959
30.76000 -2.591
30.78000 1.733
30.80000 -1.158
30.82000 2.639
30.84000 5.685
30.86000 6.339
30.88000 6.472
30.90000 6.583
30.92000 2.463
30.94000 0.520
30.96000 1.633
30.98000 0.695
31.00000 0.559
31.02000 1.666
31.04000 2.056
31.06000 1.436
31.08000 5.223
31.10000 6.635
31.12000 3.172
31.14000 3.466
31.16000 2.905
31.18000 6.126
31.20000 7.818
31.22000 5.016
31.24000 2.173
31.26000 -1.174
31.28000 3.008
31.30000 2.084
31.32000 4.583
31.34000 7.952
31.36000 2.572
31.38000 -0.521
31.40000 3.278
31.42000 5.908
31.44000 -0.151
31.46000 -1.600
31.48000 1.969
31.50000 1.832
31.52000 6.540
31.54000 6.894
31.56000 6.875
31.58000 3.299
31.60000 2.405
31.62000 3.666
31.64000 7.726
31.66000 2.321
31.68000 3.852
31.70000 4.277
31.72000 5.325
31.74000 10.086
31.76000 10.354
31.78000 5.346
31.80000 -3.612
31.82000 -0.339
31.84000 3.146
31.86000 6.727
31.88000 1.149
31.90000 2.995
31.92000 7.976
31.94000 8.130
31.96000 7.799
31.98000 4.619
32.00000 7.659
32.02000 4.062
32.04000 1.654
32.06000 1.473
32.08000 3.172
32.10000 8.009
32.12000 5.260
32.14000 -0.551
32.16000 -3.113
32.18000 -0.264
32.20000 3.431
32.22000 2.123
32.24000 -1.258
32.26000 2.045
32.28000 -0.191
32.30000 1.781
32.32000 0.400
32.34000 0.302
32.36000 3.109
32.38000 -0.583
32.40000 -0.537
32.42000 0.447
32.44000 -0.406
32.46000 -2.847
32.48000 -2.311
32.50000 -0.383
32.52000 5.829
32.54000 4.053
32.56000 3.406
32.58000 -1.244
32.60000 -0.282
32.62000 -1.931
32.64000 -0.537
32.66000 2.854
32.68000 0.431
32.70000 -2.164
32.72000 -0.758
32.74000 -0.741
32.76000 1.724
32.78000 -1.199
32.80000 3.257
32.82000 5.607
32.84000 -1.806
32.86000 1.099
32.88000 1.787
32.90000 2.071
32.92000 0.617
32.94000 1.826
32.96000 3.558
32.98000 -1.021
33.00000 0.325
33.02000 2.898
33.04000 3.061
33.06000 1.140
33.08000 -0.961
33.10000 -0.650
33.12000 -0.871
33.14000 -1.589
33.16000 2.475
33.18000 3.618
33.20000 3.917
33.22000 6.508
33.24000 9.049
33.26000 8.944
33.28000 5.146
33.30000 5.414
33.32000 3.611
33.34000 3.626
33.36000 1.757
33.38000 0.437
33.40000 3.331
33.42000 6.003
33.44000 3.494
33.46000 4.291
33.48000 3.281
33.50000 5.024
33.52000 3.233
33.54000 5.832
33.56000 2.487
33.58000 2.401
33.60000 2.973
33.62000 5.808
33.64000 6.300
33.66000 1.729
33.68000 2.347
33.70000 8.761
33.72000 5.484
33.74000 3.725
33.76000 0.041
33.78000 4.875
33.80000 5.890
33.82000 5.734
33.84000 4.396
33.86000 1.833
33.88000 6.144
33.90000 3.184
33.92000 -3.550
33.94000 0.545
33.96000 3.255
33.98000 2.579
34.00000 4.822
34.02000 7.902
34.04000 6.496
34.06000 8.853
34.08000 3.490
34.10000 2.013
34.12000 7.956
34.14000 10.455
34.16000 10.027
34.18000 6.477
34.20000 6.215
34.22000 6.911
34.24000 9.642
34.26000 8.081
34.28000 6.634
34.30000 3.130
34.32000 -3.513
34.34000 2.597
34.36000 7.540
34.38000 1.963
34.40000 -1.790
34.42000 2.402
34.44000 7.501
34.46000 6.235
34.48000 3.966
34.50000 -0.467
34.52000 2.570
34.54000 3.075
34.56000 3.707
34.58000 5.696
34.60000 6.378
34.62000 2.052
34.64000 4.171
34.66000 3.212
34.68000 -0.350
34.70000 3.162
34.72000 7.024
34.74000 7.348
34.76000 2.536
34.78000 3.237
34.80000 6.317
34.82000 2.787
34.84000 4.562
34.86000 7.240
34.88000 3.078
34.90000 0.505
34.92000 1.226
34.94000 2.337
34.96000 2.547
34.98000 2.009
35.00000 0.556
35.02000 2.581
35.04000 4.808
35.06000 3.506
35.08000 6.814
35.10000 4.226
35.12000 5.503
35.14000 2.624
35.16000 1.478
35.18000 4.036
35.20000 3.832
35.22000 0.071
35.24000 0.823
35.26000 0.224
35.28000 3.777
35.30000 2.896
35.32000 2.057
35.34000 4.333
35.36000 2.771
35.38000 4.126
35.40000 3.043
35.42000 2.497
35.44000 -3.513
35.46000 1.888
35.48000 -0.334
35.50000 1.630
35.52000 6.211
35.54000 5.835
35.56000 4.246
35.58000 4.009
35.60000 1.778
35.62000 3.347
35.64000 -0.204
35.66000 0.520
35.68000 2.502
35.70000 4.430
35.72000 1.625
35.74000 6.109
35.76000 3.067
35.78000 1.718
35.80000 0.467
35.82000 -3.541
35.84000 -1.797
35.86000 5.075
35.88000 8.111
35.90000 1.015
35.92000 3.505
35.94000 4.093
35.96000 4.446
35.98000 6.703
36.00000 2.991
36.02000 0.744
36.04000 4.151
36.06000 5.234
36.08000 1.815
36.10000 -3.545
36.12000 2.027
36.14000 4.456
36.16000 -0.041
36.18000 -0.523
36.20000 3.949
36.22000 5.503
36.24000 0.424
36.26000 0.531
36.28000 1.863
36.30000 0.459
36.32000 1.566
36.34000 -2.145
36.36000 3.781
36.38000 7.584
36.40000 0.558
36.42000 -1.586
36.44000 2.324
36.46000 3.368
36.48000 2.921
36.50000 -1.147
36.52000 0.510
36.54000 -2.760
36.56000 -1.934
36.58000 -0.409
36.60000 -0.512
36.62000 -0.599
36.64000 0.384
36.66000 5.377
36.68000 4.073
36.70000 8.366
36.72000 7.752
36.74000 3.968
36.76000 1.349
36.78000 0.052
36.80000 2.885
36.82000 3.976
36.84000 2.740
36.86000 5.685
36.88000 2.133
36.90000 -0.166
36.92000 1.442
36.94000 1.260
36.96000 2.904
36.98000 5.345
37.00000 3.371
37.02000 3.669
37.04000 5.742
37.06000 10.163
37.08000 3.988
37.10000 0.310
37.12000 4.057
37.14000 0.381
37.16000 -3.586
37.18000 -0.966
37.20000 -0.628
37.22000 2.225
37.24000 7.393
37.26000 0.951
37.28000 2.975
37.30000 4.697
37.32000 7.323
37.34000 6.804
37.36000 2.412
37.38000 3.859
37.40000 6.038
37.42000 5.251
37.44000 9.066
37.46000 8.394
37.48000 11.498
37.50000 9.413
37.52000 4.142
37.54000 3.453
37.56000 6.683
37.58000 9.352
37.60000 7.867
37.62000 7.859
37.64000 8.214
37.66000 5.973
37.68000 3.598
37.70000 2.758
37.72000 2.484
37.74000 3.853
37.76000 4.227
37.78000 5.576
37.80000 6.035
37.82000 8.070
37.84000 9.864
37.86000 10.460
37.88000 8.837
37.90000 8.776
37.92000 9.080
37.94000 10.646
37.96000 8.482
37.98000 8.215
38.00000 10.579
38.02000 8.373
38.04000 12.573
38.06000 12.030
38.08000 12.190
38.10000 11.199
38.12000 17.934
38.14000 16.466
38.16000 17.754
38.18000 10.721
38.20000 12.655
38.22000 13.192
38.24000 17.383
38.26000 21.837
38.28000 18.320
38.30000 15.994
38.32000 17.965
38.34000 20.064
38.36000 15.660
38.38000 22.424
38.40000 21.084
38.42000 21.884
38.44000 23.532
38.46000 28.740
38.48000 24.883
38.50000 23.457
38.52000 23.142
38.54000 25.842
38.56000 30.655
38.58000 29.829
38.60000 24.760
38.62000 31.347
38.64000 29.870
38.66000 33.929
38.68000 37.497
38.70000 33.860
38.72000 38.083
38.74000 38.509
38.76000 44.358
38.78000 49.310
38.80000 47.633
38.82000 40.415
38.84000 41.423
38.86000 47.954
38.88000 55.161
38.90000 55.464
38.92000 54.451
38.94000 54.514
38.96000 55.841
38.98000 54.466
39.00000 52.896
39.02000 63.308
39.04000 61.929
39.06000 65.849
39.08000 70.467
39.10000 67.275
39.12000 70.566
39.14000 73.891
39.16000 77.109
39.18000 80.174
39.20000 90.833
39.22000 94.814
39.24000 98.880
39.26000 102.620
39.28000 107.744
39.30000 109.957
39.32000 112.241
39.34000 116.808
39.36000 119.546
39.38000 122.430
39.40000 129.116
39.42000 135.375
39.44000 142.067
39.46000 153.900
39.48000 161.175
39.50000 165.591
39.52000 167.265
39.54000 176.336
39.56000 191.572
39.58000 202.384
39.60000 210.949
39.62000 226.964
39.64000 234.578
39.66000 243.462
39.68000 260.130
39.70000 275.189
39.72000 280.906
39.74000 293.490
39.76000 302.808
39.78000 316.881
39.80000 331.121
39.82000 350.017
39.84000 370.663
39.86000 383.200
39.88000 395.232
39.90000 415.378
39.92000 430.640
39.94000 441.489
39.96000 456.035
39.98000 475.279
40.00000 492.698
40.02000 499.337
40.04000 514.568
40.06000 534.544
40.08000 539.723
40.10000 558.442
40.12000 565.935
40.14000 577.993
40.16000 586.936
40.18000 594.008
40.20000 592.961
40.22000 597.097
40.24000 604.424
40.26000 602.309
40.28000 610.990
40.30000 607.305
40.32000 598.424
40.34000 594.431
40.36000 592.004
40.38000 576.141
40.40000 559.588
40.42000 560.058
40.44000 554.518
40.46000 524.465
40.48000 515.469
40.50000 502.768
40.52000 490.675
40.54000 471.383
40.56000 459.060
40.58000 453.605
40.60000 437.893
40.62000 413.858
40.64000 393.555
40.66000 373.669
40.68000 357.238
40.70000 335.709
40.72000 318.860
40.74000 318.690
40.76000 310.860
40.78000 285.422
40.80000 263.758
40.82000 257.299
40.84000 244.284
40.86000 237.439
40.88000 215.912
40.90000 208.942
40.92000 197.438
40.94000 187.267
40.96000 177.936
40.98000 170.226
41.00000 155.982
41.02000 138.745
41.04000 131.183
41.06000 129.310
41.08000 126.866
41.10000 119.895
41.12000 112.722
41.14000 104.647
41.16000 103.505
41.18000 100.436
41.20000 92.306
41.22000 84.526
41.24000 83.059
41.26000 80.054
41.28000 74.536
41.30000 72.172
41.32000 68.507
41.34000 67.957
41.36000 66.465
41.38000 58.707
41.40000 55.925
41.42000 52.482
41.44000 50.169
41.46000 46.974
41.48000 44.785
41.50000 46.300
41.52000 39.151
41.54000 40.285
41.56000 37.774
41.58000 32.998
41.60000 28.549
41.62000 30.456
41.64000 28.537
41.66000 25.014
41.68000 24.468
41.70000 23.664
41.72000 15.883
41.74000 17.215
41.76000 20.345
41.78000 15.214
41.80000 17.154
41.82000 20.741
41.84000 15.404
41.86000 15.896
41.88000 14.169
41.90000 11.683
41.92000 11.638
41.94000 14.622
41.96000 11.542
41.98000 5.071
42.00000 7.114
42.02000 8.788
42.04000 10.161
42.06000 9.718
42.08000 9.066
42.10000 6.878
42.12000 4.332
42.14000 3.259
42.16000 6.126
42.18000 9.436
42.20000 7.710
42.22000 6.239
42.24000 5.290
42.26000 3.925
42.28000 4.672
42.30000 2.310
42.32000 2.438
42.34000 3.212
42.36000 2.224
42.38000 3.592
42.40000 2.857
42.42000 3.416
42.44000 2.153
42.46000 -0.745
42.48000 0.310
42.50000 5.059
42.52000 2.126
42.54000 -0.628
42.56000 -0.711
42.58000 -0.326
42.60000 2.140
42.62000 3.024
42.64000 2.821
42.66000 3.522
42.68000 3.696
42.70000 4.106
42.72000 5.892
42.74000 4.616
42.76000 2.873
42.78000 5.629
42.80000 5.686
42.82000 5.804
42.84000 8.287
42.86000 7.425
42.88000 3.997
42.90000 -2.391
42.92000 -0.782
42.94000 0.063
42.96000 3.916
42.98000 2.949
43.00000 -0.333
43.02000 0.146
43.04000 1.890
43.06000 3.173
43.08000 1.653
43.10000 1.406
43.12000 -0.023
43.14000 -0.019
43.16000 1.203
43.18000 3.610
43.20000 1.615
43.22000 -1.206
43.24000 -0.009
43.26000 1.989
43.28000 5.281
43.30000 5.341
43.32000 4.814
43.34000 5.384
43.36000 3.452
43.38000 -3.481
43.40000 -0.205
43.42000 4.971
43.44000 2.736
43.46000 0.828
43.48000 1.541
43.50000 5.045
43.52000 10.630
43.54000 7.442
43.56000 0.857
43.58000 3.511
43.60000 3.264
43.62000 2.980
43.64000 1.620
43.66000 4.112
43.68000 2.042
43.70000 3.060
43.72000 5.079
43.74000 0.760
43.76000 0.419
43.78000 -0.775
43.80000 0.008
43.82000 0.883
43.84000 -3.250
43.86000 -3.466
43.88000 0.415
43.90000 8.405
43.92000 4.551
43.94000 2.213
43.96000 1.667
43.98000 2.147
44.00000 -0.060
44.02000 1.169
44.04000 3.970
44.06000 6.597
44.08000 4.771
44.10000 0.028
44.12000 1.673
44.14000 0.612
44.16000 9.181
44.18000 7.193
44.20000 2.715
44.22000 -0.322
44.24000 -3.469
44.26000 -0.960
44.28000 3.795
44.30000 1.120
44.32000 3.486
44.34000 6.201
44.36000 0.187
44.38000 0.239
44.40000 5.776
44.42000 4.692
44.44000 5.725
44.46000 3.885
44.48000 2.025
44.50000 1.205
44.52000 0.824
44.54000 2.044
44.56000 1.961
44.58000 1.890
44.60000 0.362
44.62000 2.598
44.64000 -1.988
44.66000 -0.221
44.68000 3.357
44.70000 3.932
44.72000 9.607
44.74000 8.522
44.76000 8.090
44.78000 8.484
44.80000 1.654
44.82000 2.485
44.84000 1.237
44.86000 1.846
44.88000 -0.959
44.90000 0.700
44.92000 1.199
44.94000 6.458
44.96000 2.925
44.98000 -0.840
45.00000 4.641
45.02000 2.947
45.04000 2.498
45.06000 8.197
45.08000 9.762
45.10000 12.429
45.12000 9.457
45.14000 4.354
45.16000 2.852
45.18000 3.683
45.20000 9.232
45.22000 14.516
45.24000 11.013
45.26000 10.807
45.28000 8.496
45.30000 7.079
45.32000 6.481
45.34000 11.835
45.36000 14.885
45.38000 16.842
45.40000 21.676
45.42000 22.727
45.44000 19.308
45.46000 16.387
45.48000 18.564
45.50000 20.203
45.52000 21.142
45.54000 23.446
45.56000 29.637
45.58000 26.113
45.60000 22.090
45.62000 24.885
45.64000 30.443
45.66000 24.180
45.68000 29.186
45.70000 31.135
45.72000 30.747
45.74000 26.822
45.76000 27.348
45.78000 30.400
45.80000 34.789
45.82000 31.349
45.84000 31.731
45.86000 30.555
45.88000 34.312
45.90000 39.503
45.92000 36.948
45.94000 39.022
45.96000 39.295
45.98000 41.259
46.00000 38.802
46.02000 43.191
46.04000 43.224
46.06000 41.699
46.08000 40.184
46.10000 44.375
46.12000 45.850
46.14000 45.992
46.16000 51.332
46.18000 51.523
46.20000 53.921
46.22000 58.137
46.24000 60.423
46.26000 57.197
46.28000 59.881
46.30000 63.094
46.32000 67.723
46.34000 61.585
46.36000 61.127
46.38000 63.486
46.40000 71.468
46.42000 75.046
46.44000 75.248
46.46000 68.860
46.48000 68.922
46.50000 74.253
46.52000 75.602
46.54000 77.474
46.56000 79.627
46.58000 81.946
46.60000 81.105
46.62000 81.050
46.64000 82.092
46.66000 78.918
46.68000 71.595
46.70000 73.719
46.72000 87.239
46.74000 89.533
46.76000 84.094
46.78000 79.031
46.80000 83.391
46.82000 86.661
46.84000 85.694
46.86000 88.535
46.88000 90.299
46.90000 89.727
46.92000 88.827
46.94000 84.395
46.96000 89.182
46.98000 84.902
47.00000 87.575
47.02000 80.155
47.04000 79.742
47.06000 75.050
47.08000 74.625
47.10000 80.876
47.12000 81.621
47.14000 72.949
47.16000 68.592
47.18000 66.590
47.20000 64.295
47.22000 68.217
47.24000 65.878
47.26000 63.414
47.28000 65.901
47.30000 60.056
47.32000 57.624
47.34000 56.197
47.36000 54.596
47.38000 57.037
47.40000 55.883
47.42000 54.227
47.44000 54.899
47.46000 52.713
47.48000 49.027
47.50000 45.839
47.52000 48.885
47.54000 51.024
47.56000 56.386
47.58000 50.710
47.60000 42.912
47.62000 37.363
47.64000 38.862
47.66000 36.129
47.68000 31.688
47.70000 30.830
47.72000 29.089
47.74000 32.147
47.76000 31.052
47.78000 28.968
47.80000 27.977
47.82000 21.928
47.84000 22.021
47.86000 25.859
47.88000 23.235
47.90000 21.266
47.92000 22.880
47.94000 17.183
47.96000 16.828
47.98000 24.130
48.00000 23.516
48.02000 16.870
48.04000 19.216
48.06000 16.556
48.08000 10.437
48.10000 10.533
48.12000 15.239
48.14000 19.862
48.16000 19.451
48.18000 12.296
48.20000 6.995
48.22000 3.647
48.24000 10.161
48.26000 9.934
48.28000 10.699
48.30000 5.850
48.32000 10.321
48.34000 13.114
48.36000 13.806
48.38000 7.398
48.40000 5.799
48.42000 10.174
48.44000 7.736
48.46000 5.439
48.48000 3.465
48.50000 1.515
48.52000 3.392
48.54000 -2.611
48.56000 2.551
48.58000 3.259
48.60000 3.807
48.62000 6.304
48.64000 7.206
48.66000 8.991
48.68000 2.262
48.70000 0.361
48.72000 -1.121
48.74000 -3.158
48.76000 -1.409
48.78000 3.163
48.80000 3.051
48.82000 7.787
48.84000 3.415
48.86000 0.297
48.88000 8.682
48.90000 6.215
48.92000 -0.241
48.94000 2.386
48.96000 9.051
48.98000 -0.309
49.00000 1.246
49.02000 1.063
49.04000 -0.674
49.06000 1.285
49.08000 3.067
49.10000 4.651
49.12000 1.910
49.14000 3.733
49.16000 0.421
49.18000 -0.367
49.20000 -0.202
49.22000 0.994
49.24000 4.360
49.26000 5.717
49.28000 1.368
49.30000 3.751
49.32000 -0.746
49.34000 2.995
49.36000 2.918
49.38000 4.555
49.40000 -1.731
49.42000 -2.478
49.44000 2.958
49.46000 7.837
49.48000 0.293
49.50000 0.412
49.52000 2.834
49.54000 6.111
49.56000 5.727
49.58000 2.066
49.60000 0.888
49.62000 0.873
49.64000 2.228
49.66000 -0.026
49.68000 -1.228
49.70000 -0.899
49.72000 1.423
49.74000 0.593
49.76000 3.029
49.78000 9.693
49.80000 8.193
49.82000 9.901
49.84000 4.856
49.86000 1.130
49.88000 2.980
49.90000 6.747
49.92000 2.797
49.94000 0.473
49.96000 4.276
49.98000 -3.001
50.00000 -1.364
50.02000 1.550
50.04000 5.207
50.06000 7.811
50.08000 9.200
50.10000 6.776
50.12000 2.730
50.14000 2.490
50.16000 1.578
50.18000 5.720
50.20000 3.132
50.22000 -0.104
50.24000 -1.980
50.26000 -1.329
50.28000 4.130
50.30000 5.479
50.32000 5.138
50.34000 6.993
50.36000 8.294
50.38000 6.440
50.40000 9.701
50.42000 9.232
50.44000 7.511
50.46000 5.098
50.48000 6.293
50.50000 9.126
50.52000 11.112
50.54000 8.174
50.56000 8.281
50.58000 2.647
50.60000 8.439
50.62000 7.732
50.64000 5.769
50.66000 6.846
50.68000 2.493
50.70000 -2.899
50.72000 4.658
50.74000 7.925
50.76000 9.407
50.78000 12.388
50.80000 9.298
50.82000 5.547
50.84000 5.968
50.86000 5.637
50.88000 6.251
50.90000 1.368
50.92000 8.834
50.94000 7.596
50.96000 5.631
50.98000 4.047
51.00000 0.345
51.02000 7.633
51.04000 3.324
51.06000 2.741
51.08000 6.306
51.10000 6.358
51.12000 3.495
51.14000 4.271
51.16000 7.560
51.18000 8.659
51.20000 8.347
51.22000 5.034
51.24000 4.671
51.26000 11.676
51.28000 10.286
51.30000 9.509
51.32000 7.584
51.34000 4.589
51.36000 6.832
51.38000 7.192
51.40000 1.511
51.42000 3.506
51.44000 4.474
51.46000 0.297
51.48000 -2.909
51.50000 3.854
51.52000 3.150
51.54000 2.287
51.56000 2.519
51.58000 5.371
51.60000 3.457
51.62000 1.348
51.64000 1.024
51.66000 1.704
51.68000 0.865
51.70000 2.141
51.72000 5.847
51.74000 3.735
51.76000 1.055
51.78000 8.636
51.80000 11.380
51.82000 10.623
51.84000 7.071
51.86000 4.022
51.88000 2.456
51.90000 7.065
51.92000 2.490
51.94000 5.690
51.96000 4.288
51.98000 5.303
52.00000 5.066
52.02000 4.915
52.04000 6.045
52.06000 9.389
52.08000 3.979
52.10000 1.471
52.12000 1.387
52.14000 4.647
52.16000 1.238
52.18000 3.165
52.20000 5.746
52.22000 4.364
52.24000 3.300
52.26000 3.432
52.28000 3.495
52.30000 -0.026
52.32000 0.467
52.34000 0.195
52.36000 4.364
52.38000 6.186
52.40000 7.145
52.42000 6.040
52.44000 1.072
52.46000 -0.062
52.48000 3.539
52.50000 4.512
52.52000 5.481
52.54000 6.106
52.56000 4.380
52.58000 2.362
52.60000 3.903
52.62000 4.338
52.64000 1.114
52.66000 -0.954
52.68000 -0.785
52.70000 0.709
52.72000 3.218
52.74000 7.718
52.76000 7.304
52.78000 1.893
52.80000 3.756
52.82000 4.347
52.84000 4.586
52.86000 5.401
52.88000 5.494
52.90000 9.688
52.92000 4.475
52.94000 -1.207
52.96000 -2.854
52.98000 2.884
53.00000 1.256
53.02000 3.708
53.04000 7.320
53.06000 3.164
53.08000 3.600
53.10000 3.841
53.12000 -0.393
53.14000 3.604
53.16000 7.039
53.18000 7.621
53.20000 10.851
53.22000 6.171
53.24000 4.406
53.26000 0.960
53.28000 2.438
53.30000 0.195
53.32000 -0.096
53.34000 4.388
53.36000 5.474
53.38000 2.788
53.40000 3.863
53.42000 10.020
53.44000 7.860
53.46000 6.913
53.48000 3.247
53.50000 0.304
53.52000 3.767
53.54000 9.283
53.56000 5.761
53.58000 6.243
53.60000 5.612
53.62000 4.882
53.64000 6.541
53.66000 7.799
53.68000 5.468
53.70000 8.238
53.72000 7.378
53.74000 3.978
53.76000 4.966
53.78000 5.028
53.80000 6.478
53.82000 5.956
53.84000 5.874
53.86000 2.877
53.88000 0.808
53.90000 0.962
53.92000 3.242
53.94000 5.199
53.96000 3.759
53.98000 4.288
54.00000 5.278
54.02000 -2.816
54.04000 1.610
54.06000 3.532
54.08000 7.583
54.10000 8.773
54.12000 4.296
54.14000 6.389
54.16000 7.909
54.18000 5.949
54.20000 3.889
54.22000 7.233
54.24000 6.769
54.26000 5.953
54.28000 2.257
54.30000 3.733
54.32000 11.726
54.34000 8.715
54.36000 5.426
54.38000 1.441
54.40000 0.410
54.42000 7.252
54.44000 9.952
54.46000 3.884
54.48000 1.311
54.50000 3.658
54.52000 4.651
54.54000 5.411
54.56000 1.925
54.58000 -1.784
54.60000 0.016
54.62000 10.217
54.64000 10.159
54.66000 2.235
54.68000 3.800
54.70000 6.407
54.72000 2.984
54.74000 6.316
54.76000 5.128
54.78000 3.922
54.80000 1.950
54.82000 1.491
54.84000 2.295
54.86000 3.066
54.88000 4.543
54.90000 2.377
54.92000 0.993
54.94000 3.598
54.96000 7.590
54.98000 1.567
55.00000 2.932
55.02000 0.141
55.04000 3.855
55.06000 5.497
55.08000 6.043
55.10000 1.677
55.12000 5.976
55.14000 4.687
55.16000 3.724
55.18000 4.673
55.20000 -1.422
55.22000 2.373
55.24000 6.247
55.26000 7.302
55.28000 0.241
55.30000 1.074
55.32000 5.901
55.34000 -1.197
55.36000 4.150
55.38000 7.420
55.40000 4.393
55.42000 2.354
55.44000 7.450
55.46000 4.998
55.48000 2.103
55.50000 5.231
55.52000 3.762
55.54000 4.336
55.56000 5.019
55.58000 0.320
55.60000 2.361
55.62000 2.261
55.64000 3.426
55.66000 7.324
55.68000 0.525
55.70000 -1.077
55.72000 -1.834
55.74000 0.320
55.76000 6.523
55.78000 3.490
55.80000 6.818
55.82000 5.630
55.84000 1.762
55.86000 1.212
55.88000 3.329
55.90000 4.302
55.92000 3.071
55.94000 3.850
55.96000 2.293
55.98000 3.561
56.00000 1.579
56.02000 0.455
56.04000 -0.238
56.06000 2.264
56.08000 4.245
56.10000 3.204
56.12000 5.886
56.14000 -2.775
56.16000 -0.717
56.18000 4.180
56.20000 5.648
56.22000 5.375
56.24000 6.960
56.26000 4.479
56.28000 0.595
56.30000 -2.770
56.32000 0.494
56.34000 -0.423
56.36000 1.386
56.38000 0.776
56.40000 3.612
56.42000 0.503
56.44000 -1.300
56.46000 3.111
56.48000 2.676
56.50000 -0.851
56.52000 5.567
56.54000 2.857
56.56000 5.062
56.58000 5.365
56.60000 3.416
56.62000 -0.222
56.64000 -2.159
56.66000 4.170
56.68000 2.004
56.70000 -0.715
56.72000 2.552
56.74000 1.184
56.76000 -2.755
56.78000 0.243
56.80000 4.757
56.82000 4.249
56.84000 3.919
56.86000 1.966
56.88000 5.441
56.90000 10.036
56.92000 6.550
56.94000 4.201
56.96000 7.344
56.98000 4.164
57.00000 0.182
57.02000 2.409
57.04000 9.098
57.06000 10.500
57.08000 6.707
57.10000 4.316
57.12000 0.338
57.14000 2.383
57.16000 3.431
57.18000 -0.355
57.20000 2.218
57.22000 10.122
57.24000 7.558
57.26000 8.737
57.28000 8.094
57.30000 5.972
57.32000 4.477
57.34000 4.643
57.36000 -2.751
57.38000 2.949
57.40000 2.369
57.42000 -0.430
57.44000 1.304
57.46000 0.748
57.48000 3.004
57.50000 1.907
57.52000 4.358
57.54000 4.806
57.56000 5.587
57.58000 5.020
57.60000 4.646
57.62000 1.752
57.64000 4.306
57.66000 4.316
57.68000 -2.740
57.70000 -1.776
57.72000 2.738
57.74000 0.977
57.76000 2.353
57.78000 2.688
57.80000 2.351
57.82000 4.563
57.84000 6.572
57.86000 4.672
57.88000 7.832
57.90000 3.575
57.92000 -0.817
57.94000 -2.732
57.96000 2.259
57.98000 2.835
58.00000 2.951
58.02000 2.545
58.04000 0.755
58.06000 0.637
58.08000 1.363
58.10000 1.558
58.12000 5.420
58.14000 2.111
58.16000 0.779
58.18000 2.353
58.20000 5.335
58.22000 5.557
58.24000 5.920
58.26000 5.660
58.28000 1.203
58.30000 4.948
58.32000 1.474
58.34000 -1.017
58.36000 -0.131
58.38000 -2.361
58.40000 -2.720
58.42000 1.204
58.44000 6.512
58.46000 2.713
58.48000 4.089
58.50000 5.087
58.52000 1.675
58.54000 1.858
58.56000 5.296
58.58000 5.565
58.60000 3.995
58.62000 4.520
58.64000 4.091
58.66000 3.836
58.68000 1.732
58.70000 2.058
58.72000 0.947
58.74000 2.590
58.76000 -0.685
58.78000 2.257
58.80000 2.095
58.82000 1.940
58.84000 1.354
58.86000 1.016
58.88000 4.099
58.90000 3.922
58.92000 0.507
58.94000 0.749
58.96000 1.456
58.98000 5.048
59.00000 6.522
59.02000 5.063
59.04000 -1.477
59.06000 4.630
59.08000 3.171
59.10000 4.168
59.12000 5.826
59.14000 5.083
59.16000 5.982
59.18000 3.749
59.20000 3.979
59.22000 3.286
59.24000 2.477
59.26000 -1.714
59.28000 0.924
59.30000 1.700
59.32000 2.246
59.34000 1.597
59.36000 -2.678
59.38000 2.035
59.40000 2.779
59.42000 0.154
59.44000 1.875
59.46000 5.211
59.48000 2.583
59.50000 6.054
59.52000 2.764
59.54000 5.461
59.56000 4.484
59.58000 3.507
59.60000 1.367
59.62000 5.382
59.64000 6.111
59.66000 0.746
59.68000 0.872
59.70000 3.426
59.72000 2.119
59.74000 -2.663
59.76000 0.013
59.78000 0.272
59.80000 3.162
59.82000 2.055
59.84000 2.626
59.86000 7.472
59.88000 1.288
59.90000 -2.657
59.92000 -2.626
59.94000 -1.129
59.96000 -0.037
59.98000 1.900
60.00000 4.614
60.02000 3.208
60.04000 -0.096
60.06000 3.454
60.08000 6.545
60.10000 6.305
60.12000 6.357
60.14000 6.320
60.16000 1.534
60.18000 4.657
60.20000 2.581
60.22000 4.213
60.24000 2.496
60.26000 -1.589
60.28000 0.886
60.30000 2.060
60.32000 2.042
60.34000 5.112
60.36000 6.258
60.38000 0.234
60.40000 -0.398
60.42000 -0.190
60.44000 2.322
60.46000 0.260
60.48000 -2.658
60.50000 -0.552
60.52000 -1.169
60.54000 0.444
60.56000 0.510
60.58000 2.491
60.60000 5.901
60.62000 6.306
60.64000 3.431
60.66000 4.331
60.68000 2.896
60.70000 0.364
60.72000 -0.260
60.74000 3.107
60.76000 2.245
60.78000 1.011
60.80000 4.647
60.82000 1.020
60.84000 3.139
60.86000 0.721
60.88000 2.535
60.90000 2.350
60.92000 -2.278
60.94000 2.917
60.96000 5.377
60.98000 4.627
61.00000 6.188
61.02000 4.336
61.04000 3.966
61.06000 5.382
61.08000 0.458
61.10000 -0.048
61.12000 1.535
61.14000 -2.648
61.16000 3.132
61.18000 2.819
61.20000 0.271
61.22000 -2.306
61.24000 3.855
61.26000 5.048
61.28000 1.132
61.30000 -0.848
61.32000 0.472
61.34000 -0.640
61.36000 -2.639
61.38000 0.896
61.40000 1.945
61.42000 -1.277
61.44000 -1.054
61.46000 3.034
61.48000 5.797
61.50000 4.817
61.52000 7.920
61.54000 1.844
61.56000 1.231
61.58000 2.276
61.60000 4.452
61.62000 3.320
61.64000 3.356
61.66000 1.758
61.68000 3.318
61.70000 3.979
61.72000 4.161
61.74000 3.794
61.76000 2.564
61.78000 0.931
61.80000 0.491
61.82000 2.442
61.84000 4.009
61.86000 4.652
61.88000 1.296
61.90000 -0.702
61.92000 1.932
61.94000 2.969
61.96000 4.425
61.98000 3.653
62.00000 5.402
62.02000 4.495
62.04000 0.675
62.06000 4.717
62.08000 3.974
62.10000 3.676
62.12000 2.841
62.14000 1.426
62.16000 2.698
62.18000 2.819
62.20000 4.777
62.22000 1.637
62.24000 2.899
62.26000 0.894
62.28000 1.970
62.30000 10.593
62.32000 8.021
62.34000 1.446
62.36000 -1.559
62.38000 -2.533
62.40000 2.394
62.42000 4.956
62.44000 6.205
62.46000 3.629
62.48000 7.983
62.50000 6.881
62.52000 1.112
62.54000 1.463
62.56000 3.629
62.58000 0.866
62.60000 5.055
62.62000 8.954
62.64000 5.717
62.66000 1.117
62.68000 -1.217
62.70000 0.835
62.72000 2.775
62.74000 -2.573
62.76000 -1.418
62.78000 1.962
62.80000 4.130
62.82000 5.397
62.84000 5.719
62.86000 3.079
62.88000 6.031
62.90000 6.531
62.92000 3.486
62.94000 2.995
62.96000 6.063
62.98000 5.903
63.00000 3.452
63.02000 0.933
63.04000 -1.926
63.06000 2.403
63.08000 0.630
63.10000 1.315
63.12000 -1.891
63.14000 3.372
63.16000 4.006
63.18000 2.280
63.20000 0.937
63.22000 2.557
63.24000 4.657
63.26000 4.468
63.28000 4.277
63.30000 4.408
63.32000 4.428
63.34000 3.100
63.36000 7.369
63.38000 3.713
63.40000 3.791
63.42000 4.068
63.44000 2.487
63.46000 4.138
63.48000 3.088
63.50000 -0.691
63.52000 1.649
63.54000 3.399
63.56000 2.053
63.58000 2.323
63.60000 3.506
63.62000 6.499
63.64000 3.045
63.66000 1.950
63.68000 2.291
63.70000 0.148
63.72000 2.955
63.74000 -0.689
63.76000 1.503
63.78000 6.866
63.80000 3.096
63.82000 3.150
63.84000 4.383
63.86000 5.482
63.88000 3.381
63.90000 7.350
63.92000 9.555
63.94000 10.422
63.96000 5.509
63.98000 0.793
64.00000 1.462
64.02000 2.674
64.04000 3.182
64.06000 2.810
64.08000 3.364
64.10000 1.085
64.12000 1.211
64.14000 -1.374
64.16000 2.602
64.18000 6.004
64.20000 4.670
64.22000 0.264
64.24000 -1.843
64.26000 -2.598
64.28000 -0.649
64.30000 -1.600
64.32000 -1.112
64.34000 1.967
64.36000 5.019
64.38000 2.050
64.40000 1.280
64.42000 1.249
64.44000 1.215
64.46000 -0.851
64.48000 0.461
64.50000 1.653
64.52000 4.982
64.54000 4.941
64.56000 1.483
64.58000 1.453
64.60000 3.386
64.62000 2.269
64.64000 2.656
64.66000 7.468
64.68000 7.283
64.70000 6.803
64.72000 5.156
64.74000 4.102
64.76000 5.407
64.78000 2.239
64.80000 2.158
64.82000 1.381
64.84000 2.589
64.86000 2.681
64.88000 -1.062
64.90000 3.985
64.92000 4.108
64.94000 3.358
64.96000 2.553
64.98000 0.732
65.00000 -2.614
65.02000 -0.027
65.04000 2.893
65.06000 0.474
65.08000 -0.626
65.10000 0.249
65.12000 1.125
65.14000 2.176
65.16000 3.288
65.18000 7.932
65.20000 4.998
65.22000 4.218
65.24000 4.910
65.26000 8.838
65.28000 8.053
65.30000 8.968
65.32000 6.695
65.34000 5.548
65.36000 2.278
65.38000 5.702
65.40000 6.078
65.42000 1.024
65.44000 2.216
65.46000 4.220
65.48000 4.187
65.50000 5.019
65.52000 2.122
65.54000 -2.607
65.56000 2.644
65.58000 4.417
65.60000 1.333
65.62000 2.456
65.64000 4.330
65.66000 3.803
65.68000 5.349
65.70000 5.649
65.72000 3.429
65.74000 1.728
65.76000 0.892
65.78000 3.205
65.80000 2.526
65.82000 5.954
65.84000 3.937
65.86000 4.200
65.88000 4.925
65.90000 8.068
65.92000 8.038
65.94000 2.304
65.96000 0.161
65.98000 3.584
66.00000 3.500
66.02000 1.474
66.04000 2.263
66.06000 1.776
66.08000 -1.319
66.10000 -1.505
66.12000 -2.646
66.14000 -0.579
66.16000 0.433
66.18000 3.785
66.20000 4.695
66.22000 3.807
66.24000 5.304
66.26000 4.757
66.28000 2.751
66.30000 0.610
66.32000 -0.212
66.34000 2.638
66.36000 3.239
66.38000 -0.054
66.40000 0.580
66.42000 1.802
66.44000 3.495
66.46000 4.279
66.48000 3.698
66.50000 2.853
66.52000 3.356
66.54000 2.290
66.56000 5.597
66.58000 0.569
66.60000 1.935
66.62000 0.124
66.64000 -0.816
66.66000 -0.893
66.68000 1.735
66.70000 4.829
66.72000 1.706
66.74000 0.963
66.76000 -0.472
66.78000 0.569
66.80000 3.399
66.82000 7.439
66.84000 5.863
66.86000 2.060
66.88000 2.480
66.90000 2.283
66.92000 4.411
66.94000 4.430
66.96000 3.354
66.98000 -0.127
67.00000 3.498
67.02000 4.888
67.04000 1.782
67.06000 0.744
67.08000 3.047
67.10000 5.197
67.12000 3.416
67.14000 5.539
67.16000 6.436
67.18000 4.273
67.20000 2.983
67.22000 1.423
67.24000 1.763
67.26000 9.822
67.28000 9.341
67.30000 8.026
67.32000 7.944
67.34000 8.910
67.36000 4.101
67.38000 9.513
67.40000 7.551
67.42000 8.493
67.44000 16.048
67.46000 12.375
67.48000 11.758
67.50000 9.491
67.52000 10.563
67.54000 11.424
67.56000 9.126
67.58000 11.849
67.60000 12.239
67.62000 8.419
67.64000 6.420
67.66000 14.728
67.68000 16.263
67.70000 18.583
67.72000 17.857
67.74000 14.726
67.76000 15.404
67.78000 17.213
67.80000 18.792
67.82000 15.093
67.84000 14.624
67.86000 17.315
67.88000 15.533
67.90000 15.884
67.92000 14.637
67.94000 18.906
67.96000 21.039
67.98000 18.402
68.00000 17.322
68.02000 16.921
68.04000 17.384
68.06000 19.868
68.08000 22.074
68.10000 21.627
68.12000 20.838
68.14000 20.721
68.16000 21.410
68.18000 21.037
68.20000 23.856
68.22000 21.380
68.24000 22.849
68.26000 18.298
68.28000 18.323
68.30000 18.117
68.32000 20.459
68.34000 23.944
68.36000 24.580
68.38000 26.571
68.40000 26.201
68.42000 25.850
68.44000 26.163
68.46000 22.078
68.48000 23.767
68.50000 22.096
68.52000 22.545
68.54000 25.762
68.56000 21.794
68.58000 19.497
68.60000 18.323
68.62000 14.899
68.64000 17.325
68.66000 17.461
68.68000 18.549
68.70000 17.235
68.72000 17.232
68.74000 21.968
68.76000 19.384
68.78000 18.780
68.80000 17.263
68.82000 18.844
68.84000 18.420
68.86000 18.693
68.88000 15.590
68.90000 18.081
68.92000 17.658
68.94000 14.560
68.96000 17.219
68.98000 15.228
69.00000 15.397
69.02000 14.264
69.04000 14.884
69.06000 17.407
69.08000 13.949
69.10000 13.007
69.12000 13.097
69.14000 11.905
69.16000 11.207
69.18000 12.651
69.20000 9.167
69.22000 8.494
69.24000 9.023
69.26000 7.469
69.28000 5.994
69.30000 8.723
69.32000 4.269
69.34000 5.215
69.36000 5.144
69.38000 6.318
69.40000 6.592
69.42000 6.232
69.44000 2.826
69.46000 6.549
69.48000 8.623
69.50000 4.647
69.52000 2.271
69.54000 2.920
69.56000 6.125
69.58000 8.509
69.60000 7.202
69.62000 4.273
69.64000 3.910
69.66000 -0.067
69.68000 4.071
69.70000 3.585
69.72000 3.051
69.74000 2.552
69.76000 3.682
69.78000 6.051
69.80000 4.742
69.82000 3.803
69.84000 4.518
69.86000 2.015
69.88000 1.528
69.90000 1.612
69.92000 0.147
69.94000 0.303
69.96000 2.892
69.98000 3.878
70.00000 4.751
70.02000 2.684
70.04000 5.494
70.06000 5.098
70.08000 2.733
70.10000 -0.131
70.12000 1.705
70.14000 6.673
70.16000 3.999
70.18000 2.438
70.20000 0.774
70.22000 2.232
70.24000 3.745
70.26000 0.347
70.28000 2.974
70.30000 1.767
70.32000 4.411
70.34000 5.826
70.36000 3.960
70.38000 1.443
70.40000 3.917
70.42000 7.224
70.44000 3.125
70.46000 -2.513
70.48000 -0.809
70.50000 1.497
70.52000 5.017
70.54000 3.526
70.56000 0.703
70.58000 4.316
70.60000 5.152
70.62000 5.063
70.64000 5.140
70.66000 4.393
70.68000 4.079
70.70000 6.177
70.72000 3.819
70.74000 4.415
70.76000 2.985
70.78000 0.273
70.80000 1.615
70.82000 7.524
70.84000 7.680
70.86000 2.339
70.88000 2.227
70.90000 0.353
70.92000 5.449
70.94000 3.553
70.96000 -0.161
70.98000 1.874
71.00000 2.598
71.02000 0.507
71.04000 -0.327
71.06000 -2.504
71.08000 -2.146
71.10000 -0.211
71.12000 -1.106
71.14000 2.665
71.16000 2.005
71.18000 3.124
71.20000 1.923
71.22000 1.536
71.24000 3.171
71.26000 6.438
71.28000 0.667
71.30000 1.218
71.32000 4.492
71.34000 1.704
71.36000 2.742
71.38000 -0.786
71.40000 -0.416
71.42000 1.083
71.44000 0.787
71.46000 2.133
71.48000 4.309
71.50000 4.041
71.52000 3.581
71.54000 1.459
71.56000 4.793
71.58000 0.135
71.60000 -1.385
71.62000 0.740
71.64000 -1.799
71.66000 1.548
71.68000 2.232
71.70000 4.441
71.72000 5.374
71.74000 1.858
71.76000 2.588
71.78000 6.718
71.80000 2.469
71.82000 3.897
71.84000 5.660
71.86000 7.395
71.88000 3.734
71.90000 3.479
71.92000 7.186
71.94000 9.464
71.96000 4.773
71.98000 5.435
72.00000 7.728
72.02000 3.027
72.04000 -2.452
72.06000 0.435
72.08000 2.254
72.10000 2.462
72.12000 1.980
72.14000 -0.138
72.16000 -0.310
72.18000 -1.377
72.20000 1.721
72.22000 7.779
72.24000 11.195
72.26000 4.278
72.28000 1.184
72.30000 3.194
72.32000 -0.869
72.34000 0.240
72.36000 1.201
72.38000 3.770
72.40000 1.189
72.42000 -0.651
72.44000 -0.274
72.46000 3.588
72.48000 2.874
72.50000 7.674
72.52000 5.447
72.54000 4.779
72.56000 1.581
72.58000 4.524
72.60000 1.868
72.62000 0.594
72.64000 -0.137
72.66000 4.099
72.68000 4.986
72.70000 2.640
72.72000 4.823
72.74000 4.217
72.76000 5.078
72.78000 -1.582
72.80000 2.344
72.82000 5.342
72.84000 5.691
72.86000 1.914
72.88000 0.930
72.90000 2.738
72.92000 2.966
72.94000 8.043
72.96000 7.670
72.98000 4.740
73.00000 0.622
73.02000 0.331
73.04000 1.819
73.06000 5.713
73.08000 2.411
73.10000 -1.025
73.12000 1.662
73.14000 6.035
73.16000 4.304
73.18000 2.985
73.20000 1.979
73.22000 0.233
73.24000 2.423
73.26000 1.195
73.28000 3.671
73.30000 1.505
73.32000 -1.507
73.34000 -2.424
73.36000 0.129
73.38000 -0.936
73.40000 1.181
73.42000 2.310
73.44000 5.310
73.46000 4.626
73.48000 -0.920
73.50000 0.961
73.52000 2.916
73.54000 1.858
73.56000 6.041
73.58000 9.434
73.60000 3.410
73.62000 4.486
73.64000 7.480
73.66000 8.396
73.68000 3.788
73.70000 3.798
73.72000 3.564
73.74000 4.810
73.76000 -0.198
73.78000 1.139
73.80000 1.137
73.82000 -2.220
73.84000 -0.705
73.86000 2.571
73.88000 1.449
73.90000 0.793
73.92000 2.048
73.94000 6.466
73.96000 1.658
73.98000 1.641
74.00000 4.045
74.02000 3.244
74.04000 1.813
74.06000 1.583
74.08000 4.016
74.10000 -0.276
74.12000 1.354
74.14000 2.557
74.16000 -2.430
74.18000 -1.154
74.20000 -0.886
74.22000 0.759
74.24000 1.042
74.26000 -0.405
74.28000 3.259
74.30000 6.517
74.32000 7.940
74.34000 7.915
74.36000 7.884
74.38000 6.600
74.40000 2.036
74.42000 -1.050
74.44000 -0.617
74.46000 -1.929
74.48000 -0.135
74.50000 -0.536
74.52000 -1.101
74.54000 3.747
74.56000 0.165
74.58000 0.691
74.60000 -2.161
74.62000 0.945
74.64000 4.629
74.66000 3.159
74.68000 4.804
74.70000 0.010
74.72000 6.452
74.74000 3.549
74.76000 3.160
74.78000 8.844
74.80000 9.374
74.82000 1.565
74.84000 1.972
74.86000 4.378
74.88000 9.001
74.90000 8.040
74.92000 4.099
74.94000 5.543
74.96000 5.659
74.98000 0.025
75.00000 3.442
75.02000 3.976
75.04000 4.653
75.06000 3.423
75.08000 5.123
75.10000 3.040
75.12000 -0.499
75.14000 0.177
75.16000 4.165
75.18000 1.517
75.20000 2.167
75.22000 2.134
75.24000 -1.773
75.26000 0.563
75.28000 -2.392
75.30000 4.687
75.32000 7.653
75.34000 10.043
75.36000 4.062
75.38000 1.600
75.40000 3.785
75.42000 8.135
75.44000 8.539
75.46000 7.192
75.48000 3.002
75.50000 0.521
75.52000 4.524
75.54000 4.950
75.56000 1.550
75.58000 -1.740
75.60000 1.809
75.62000 6.338
75.64000 4.704
75.66000 3.980
75.68000 6.443
75.70000 4.068
75.72000 3.485
75.74000 -1.518
75.76000 0.180
75.78000 5.835
75.80000 2.921
75.82000 2.376
75.84000 1.414
75.86000 3.988
75.88000 3.176
75.90000 1.061
75.92000 2.447
75.94000 3.536
75.96000 5.140
75.98000 2.072
76.00000 4.324
76.02000 3.201
76.04000 3.926
76.06000 4.210
76.08000 5.782
76.10000 6.179
76.12000 7.366
76.14000 5.573
76.16000 -1.620
76.18000 -2.404
76.20000 2.510
76.22000 5.659
76.24000 2.056
76.26000 0.872
76.28000 -2.210
76.30000 3.038
76.32000 -1.080
76.34000 -0.771
76.36000 -0.640
76.38000 3.347
76.40000 6.810
76.42000 6.321
76.44000 4.179
76.46000 5.207
76.48000 7.266
76.50000 6.676
76.52000 7.344
76.54000 5.753
76.56000 2.521
76.58000 2.830
76.60000 2.195
76.62000 4.323
76.64000 4.359
76.66000 4.322
76.68000 2.514
76.70000 -0.753
76.72000 3.187
76.74000 5.161
76.76000 3.440
76.78000 3.616
76.80000 1.678
76.82000 4.618
76.84000 1.746
76.86000 -1.339
76.88000 2.227
76.90000 2.002
76.92000 2.714
76.94000 4.280
76.96000 2.134
76.98000 4.047
77.00000 2.982
77.02000 -0.718
77.04000 3.731
77.06000 -1.061
77.08000 -1.615
77.10000 3.944
77.12000 1.824
77.14000 7.331
77.16000 9.801
77.18000 9.793
77.20000 1.834
77.22000 -0.697
77.24000 2.405
77.26000 5.180
77.28000 2.695
77.30000 2.420
77.32000 3.297
77.34000 -1.846
77.36000 1.478
77.38000 3.792
77.40000 1.806
77.42000 3.426
77.44000 1.969
77.46000 1.494
77.48000 2.852
77.50000 -1.416
77.52000 2.702
77.54000 0.972
77.56000 1.820
77.58000 9.281
77.60000 9.225
77.62000 4.524
77.64000 -2.445
77.66000 0.416
77.68000 2.256
77.70000 2.020
77.72000 9.585
77.74000 9.914
77.76000 4.636
77.78000 2.368
77.80000 4.005
77.82000 4.888
77.84000 2.739
77.86000 3.565
77.88000 5.226
77.90000 4.852
77.92000 6.368
77.94000 5.136
77.96000 5.896
77.98000 5.694
78.00000 2.439
78.02000 0.832
78.04000 0.559
78.06000 4.705
78.08000 1.773
78.10000 -2.461
78.12000 2.497
78.14000 2.280
78.16000 5.290
78.18000 6.139
78.20000 1.843
78.22000 1.034
78.24000 4.715
78.26000 6.027
78.28000 3.297
78.30000 5.793
78.32000 10.606
78.34000 8.891
78.36000 2.145
78.38000 0.987
78.40000 0.048
78.42000 4.578
78.44000 3.844
78.46000 0.003
78.48000 4.153
78.50000 9.933
78.52000 7.889
78.54000 6.692
78.56000 -0.784
78.58000 4.098
78.60000 9.633
78.62000 8.629
78.64000 4.942
78.66000 7.782
78.68000 2.920
78.70000 -0.163
78.72000 5.239
78.74000 4.004
78.76000 1.377
78.78000 2.478
78.80000 2.350
78.82000 7.806
78.84000 9.811
78.86000 5.289
78.88000 -2.469
78.90000 -0.179
78.92000 5.665
78.94000 10.559
78.96000 7.398
78.98000 6.030
79.00000 8.654
79.02000 5.514
79.04000 1.645
79.06000 0.399
79.08000 -2.478
79.10000 -0.258
79.12000 2.370
79.14000 5.807
79.16000 3.941
79.18000 7.508
79.20000 5.221
79.22000 3.150
79.24000 0.986
79.26000 1.495
79.28000 6.714
79.30000 5.297
79.32000 -0.796
79.34000 2.875
79.36000 3.199
79.38000 3.152
79.40000 2.525
79.42000 3.849
79.44000 2.892
79.46000 4.257
79.48000 6.018
79.50000 5.311
79.52000 8.837
79.54000 8.329
79.56000 6.092
79.58000 9.706
79.60000 4.229
79.62000 5.044
79.64000 4.557
79.66000 6.264
79.68000 5.256
79.70000 5.898
79.72000 1.372
79.74000 0.934
79.76000 0.406
79.78000 0.071
79.80000 -0.406
79.82000 3.119
79.84000 0.236
79.86000 -2.225
79.88000 2.339
79.90000 0.867
79.92000 -2.037
79.94000 -0.508
79.96000 1.092
79.98000 1.363
80.00000 1.236
80.02000 4.634
80.04000 4.262
80.06000 0.961
80.08000 2.384
80.10000 9.352
80.12000 9.819
80.14000 4.071
80.16000 -0.996
80.18000 -0.395
80.20000 1.811
80.22000 3.112
80.24000 2.825
80.26000 2.288
80.28000 3.178
80.30000 -2.602
80.32000 -1.834
80.34000 0.513
80.36000 4.652
80.38000 0.560
80.40000 1.194
80.42000 0.680
80.44000 4.997
80.46000 12.503
80.48000 6.331
80.50000 1.592
80.52000 4.547
80.54000 1.795
80.56000 -0.917
80.58000 0.749
80.60000 3.735
80.62000 5.721
80.64000 0.603
80.66000 -0.334
80.68000 0.458
80.70000 2.677
80.72000 1.177
80.74000 1.056
80.76000 2.055
80.78000 4.153
80.80000 3.520
80.82000 7.747
80.84000 6.910
80.86000 5.660
80.88000 8.926
80.90000 7.575
80.92000 4.472
80.94000 5.239
80.96000 4.486
80.98000 2.294
81.00000 -2.251
81.02000 0.883
81.04000 4.095
81.06000 5.255
81.08000 6.742
81.10000 7.140
81.12000 5.254
81.14000 8.456
81.16000 -0.971
81.18000 0.989
81.20000 8.535
81.22000 5.713
81.24000 6.162
81.26000 6.573
81.28000 4.484
81.30000 1.730
81.32000 7.171
81.34000 8.709
81.36000 10.451
81.38000 11.277
81.40000 9.742
81.42000 8.530
81.44000 10.347
81.46000 11.706
81.48000 10.383
81.50000 11.401
81.52000 9.132
81.54000 9.439
81.56000 8.086
81.58000 10.430
81.60000 8.775
81.62000 11.076
81.64000 11.691
81.66000 12.591
81.68000 13.143
81.70000 13.243
81.72000 17.614
81.74000 18.905
81.76000 22.664
81.78000 24.040
81.80000 12.834
81.82000 9.877
81.84000 11.505
81.86000 19.143
81.88000 18.963
81.90000 18.250
81.92000 13.269
81.94000 13.646
81.96000 13.542
81.98000 11.165
82.00000 12.669
82.02000 19.970
82.04000 22.322
82.06000 20.204
82.08000 19.279
82.10000 19.550
82.12000 15.351
82.14000 20.358
82.16000 16.938
82.18000 21.454
82.20000 28.140
82.22000 22.865
82.24000 18.751
82.26000 19.511
82.28000 22.155
82.30000 19.683
82.32000 19.678
82.34000 23.482
82.36000 28.881
82.38000 17.096
82.40000 17.806
82.42000 18.023
82.44000 19.087
82.46000 17.116
82.48000 20.310
82.50000 19.798
82.52000 25.203
82.54000 25.598
82.56000 19.632
82.58000 24.899
82.60000 22.810
82.62000 25.299
82.64000 30.513
82.66000 31.770
82.68000 27.646
82.70000 19.164
82.72000 13.850
82.74000 18.978
82.76000 19.375
82.78000 15.257
82.80000 18.974
82.82000 16.330
82.84000 19.037
82.86000 19.230
82.88000 22.210
82.90000 21.803
82.92000 22.369
82.94000 16.930
82.96000 19.778
82.98000 22.266
83.00000 17.905
83.02000 16.323
83.04000 24.382
83.06000 16.811
83.08000 18.973
83.10000 17.214
83.12000 15.509
83.14000 15.091
83.16000 21.623
83.18000 23.042
83.20000 19.576
83.22000 16.177
83.24000 15.088
83.26000 18.180
83.28000 18.959
83.30000 15.124
83.32000 16.431
83.34000 14.276
83.36000 13.216
83.38000 8.306
83.40000 7.297
83.42000 11.937
83.44000 13.716
83.46000 10.629
83.48000 12.115
83.50000 11.975
83.52000 6.931
83.54000 5.331
83.56000 9.329
83.58000 7.208
83.60000 11.935
83.62000 13.131
83.64000 10.610
83.66000 9.968
83.68000 8.579
83.70000 11.406
83.72000 11.256
83.74000 5.737
83.76000 4.949
83.78000 8.333
83.80000 7.536
83.82000 8.365
83.84000 9.609
83.86000 9.521
83.88000 1.660
83.90000 3.671
83.92000 9.091
83.94000 7.918
83.96000 3.151
83.98000 3.683
84.00000 -0.023
84.02000 8.008
84.04000 4.774
84.06000 0.772
84.08000 -1.468
84.10000 4.575
84.12000 -0.518
84.14000 -0.898
84.16000 0.168
84.18000 3.210
84.20000 3.156
84.22000 0.604
84.24000 2.209
84.26000 3.683
84.28000 2.188
84.30000 -2.585
84.32000 1.696
84.34000 6.365
84.36000 7.418
84.38000 0.849
84.40000 -1.353
84.42000 1.960
84.44000 3.157
84.46000 -0.598
84.48000 3.426
84.50000 3.584
84.52000 3.713
84.54000 1.534
84.56000 1.469
84.58000 -0.179
84.60000 2.705
84.62000 3.008
84.64000 1.788
84.66000 -1.351
84.68000 -2.584
84.70000 -1.395
84.72000 1.043
84.74000 5.182
84.76000 3.338
84.78000 2.979
84.80000 2.768
84.82000 6.088
84.84000 4.115
84.86000 2.982
84.88000 4.266
84.90000 6.605
84.92000 0.490
84.94000 -0.292
84.96000 2.047
84.98000 2.677
85.00000 2.796
85.02000 0.965
85.04000 -2.059
85.06000 -1.340
85.08000 0.702
85.10000 0.343
85.12000 1.396
85.14000 4.014
85.16000 1.125
85.18000 4.158
85.20000 4.010
85.22000 -1.550
85.24000 -2.566
85.26000 -1.797
85.28000 1.592
85.30000 -0.280
85.32000 1.810
85.34000 3.424
85.36000 2.559
85.38000 0.325
85.40000 2.257
85.42000 1.714
85.44000 -0.094
85.46000 0.613
85.48000 3.459
85.50000 0.864
85.52000 -1.670
85.54000 4.449
85.56000 1.191
85.58000 -0.419
85.60000 6.553
85.62000 4.507
85.64000 6.233
85.66000 5.489
85.68000 1.810
85.70000 -0.567
85.72000 2.150
85.74000 5.510
85.76000 3.062
85.78000 5.767
85.80000 2.533
85.82000 10.877
85.84000 8.309
85.86000 5.612
85.88000 2.558
85.90000 0.839
85.92000 8.643
85.94000 11.010
85.96000 10.986
85.98000 7.227
86.00000 3.605
86.02000 2.767
86.04000 14.824
86.06000 12.840
86.08000 9.117
86.10000 9.300
86.12000 7.944
86.14000 10.045
86.16000 9.011
86.18000 13.723
86.20000 13.455
86.22000 13.701
86.24000 8.451
86.26000 10.270
86.28000 16.075
86.30000 14.228
86.32000 11.018
86.34000 13.950
86.36000 16.037
86.38000 11.645
86.40000 7.846
86.42000 10.791
86.44000 17.240
86.46000 16.566
86.48000 17.693
86.50000 13.801
86.52000 12.364
86.54000 12.244
86.56000 11.624
86.58000 17.565
86.60000 17.872
86.62000 17.965
86.64000 21.066
86.66000 24.844
86.68000 28.701
86.70000 24.834
86.72000 14.322
86.74000 17.686
86.76000 18.679
86.78000 21.111
86.80000 27.413
86.82000 24.579
86.84000 22.510
86.86000 21.747
86.88000 23.374
86.90000 23.607
86.92000 28.043
86.94000 27.218
86.96000 20.541
86.98000 22.192
87.00000 23.117
87.02000 24.135
87.04000 29.188
87.06000 23.101
87.08000 22.548
87.10000 23.550
87.12000 24.334
87.14000 23.901
87.16000 24.236
87.18000 21.480
87.20000 20.860
87.22000 20.408
87.24000 19.063
87.26000 16.343
87.28000 14.772
87.30000 20.110
87.32000 20.158
87.34000 15.513
87.36000 14.748
87.38000 17.759
87.40000 18.703
87.42000 17.410
87.44000 18.259
87.46000 19.812
87.48000 20.845
87.50000 20.100
87.52000 17.138
87.54000 14.125
87.56000 12.583
87.58000 9.204
87.60000 13.012
87.62000 17.282
87.64000 17.472
87.66000 14.515
87.68000 13.456
87.70000 11.672
87.72000 12.725
87.74000 15.798
87.76000 13.454
87.78000 8.440
87.80000 8.950
87.82000 7.878
87.84000 6.208
87.86000 6.739
87.88000 12.986
87.90000 9.878
87.92000 13.929
87.94000 8.183
87.96000 0.812
87.98000 5.758
88.00000 8.815
88.02000 7.252
88.04000 1.536
88.06000 5.625
88.08000 12.184
88.10000 9.122
88.12000 4.803
88.14000 4.952
88.16000 7.422
88.18000 8.092
88.20000 8.728
88.22000 6.289
88.24000 2.628
88.26000 8.026
88.28000 2.784
88.30000 5.118
88.32000 1.115
88.34000 1.827
88.36000 6.482
88.38000 5.895
88.40000 5.548
88.42000 2.997
88.44000 4.423
88.46000 3.332
88.48000 -0.579
88.50000 2.293
88.52000 5.298
88.54000 0.737
88.56000 -0.285
88.58000 2.898
88.60000 5.593
88.62000 6.227
88.64000 3.858
88.66000 4.678
88.68000 8.964
88.70000 6.221
88.72000 7.317
88.74000 6.627
88.76000 6.339
88.78000 7.754
88.80000 10.100
88.82000 11.757
88.84000 12.793
88.86000 6.537
88.88000 7.146
88.90000 6.019
88.92000 1.490
88.94000 1.790
88.96000 6.066
88.98000 2.743
89.00000 -2.264
89.02000 2.802
89.04000 9.129
89.06000 10.044
89.08000 9.452
89.10000 7.964
89.12000 10.444
89.14000 5.877
89.16000 6.705
89.18000 6.871
89.20000 8.319
89.22000 7.440
89.24000 12.671
89.26000 11.470
89.28000 3.870
89.30000 6.647
89.32000 6.658
89.34000 4.261
89.36000 6.972
89.38000 10.337
89.40000 6.249
89.42000 3.834
89.44000 6.707
89.46000 7.638
89.48000 7.523
89.50000 5.928
89.52000 7.686
89.54000 8.369
89.56000 7.974
89.58000 2.960
89.60000 1.983
89.62000 5.705
89.64000 8.140
89.66000 6.417
89.68000 6.993
89.70000 7.570
89.72000 5.628
89.74000 5.227
89.76000 6.398
89.78000 5.741
89.80000 4.836
89.82000 1.972
89.84000 3.536
89.86000 4.663
89.88000 6.758
89.90000 7.725
89.92000 8.224
89.94000 1.715
89.96000 -0.771
89.98000 2.304
90.00000 3.277
90.02000 1.914
90.04000 2.925
90.06000 5.035
90.08000 3.660
90.10000 1.980
90.12000 3.756
90.14000 7.130
90.16000 10.429
90.18000 1.649
90.20000 7.020
90.22000 6.034
90.24000 8.869
90.26000 8.178
90.28000 8.437
90.30000 13.504
90.32000 6.853
90.34000 4.843
90.36000 5.899
90.38000 12.321
90.40000 12.109
90.42000 5.709
90.44000 2.546
90.46000 4.142
90.48000 5.442
90.50000 6.418
90.52000 4.451
90.54000 3.566
90.56000 -2.190
90.58000 1.407
90.60000 7.208
90.62000 6.543
90.64000 6.715
90.66000 2.630
90.68000 1.636
90.70000 6.963
90.72000 7.991
90.74000 9.234
90.76000 7.576
90.78000 7.813
90.80000 6.804
90.82000 5.321
90.84000 5.874
90.86000 5.979
90.88000 8.604
90.90000 6.009
90.92000 0.675
90.94000 4.033
90.96000 1.844
90.98000 -0.647
91.00000 7.256
91.02000 4.940
91.04000 4.474
91.06000 5.851
91.08000 3.762
91.10000 6.358
91.12000 10.630
91.14000 8.777
91.16000 6.850
91.18000 6.244
91.20000 5.091
91.22000 2.715
91.24000 7.464
91.26000 9.091
91.28000 8.470
91.30000 8.819
91.32000 6.493
91.34000 5.493
91.36000 -2.256
91.38000 2.127
91.40000 3.278
91.42000 3.493
91.44000 3.850
91.46000 -0.195
91.48000 0.951
91.50000 4.407
91.52000 3.080
91.54000 3.991
91.56000 4.701
91.58000 2.549
91.60000 0.737
91.62000 -0.226
91.64000 -0.102
91.66000 2.657
91.68000 6.841
91.70000 8.195
91.72000 9.632
91.74000 6.157
91.76000 5.093
91.78000 1.482
91.80000 3.838
91.82000 7.885
91.84000 6.964
91.86000 3.911
91.88000 4.784
91.90000 5.074
91.92000 7.762
91.94000 7.352
91.96000 7.347
91.98000 2.646
92.00000 5.488
92.02000 9.463
92.04000 6.922
92.06000 9.487
92.08000 6.531
92.10000 0.177
92.12000 7.191
92.14000 5.031
92.16000 3.030
92.18000 5.615
92.20000 2.435
92.22000 0.360
92.24000 6.372
92.26000 4.003
92.28000 4.533
92.30000 1.568
92.32000 -0.603
92.34000 -1.202
92.36000 1.295
92.38000 -2.284
92.40000 2.144
92.42000 7.361
92.44000 4.652
92.46000 2.057
92.48000 1.325
92.50000 1.149
92.52000 0.663
92.54000 2.503
92.56000 6.365
92.58000 0.296
92.60000 0.085
92.62000 0.404
92.64000 0.169
92.66000 4.513
92.68000 2.102
92.70000 -1.574
92.72000 1.952
92.74000 3.910
92.76000 8.937
92.78000 8.313
92.80000 6.821
92.82000 -0.567
92.84000 1.081
92.86000 5.450
92.88000 5.539
92.90000 6.660
92.92000 3.867
92.94000 5.697
92.96000 3.126
92.98000 2.928
93.00000 2.140
93.02000 7.133
93.04000 8.875
93.06000 7.597
93.08000 0.271
93.10000 3.669
93.12000 9.102
93.14000 8.157
93.16000 9.778
93.18000 8.625
93.20000 6.307
93.22000 7.294
93.24000 4.925
93.26000 10.030
93.28000 6.166
93.30000 4.260
93.32000 3.536
93.34000 5.324
93.36000 7.184
93.38000 10.413
93.40000 9.752
93.42000 9.615
93.44000 9.867
93.46000 7.222
93.48000 5.976
93.50000 3.981
93.52000 -2.237
93.54000 5.216
93.56000 10.940
93.58000 7.566
93.60000 3.772
93.62000 4.383
93.64000 1.654
93.66000 4.461
93.68000 3.900
93.70000 0.571
93.72000 8.262
93.74000 7.703
93.76000 1.878
93.78000 6.777
93.80000 9.367
93.82000 7.837
93.84000 6.380
93.86000 7.870
93.88000 5.794
93.90000 4.120
93.92000 2.471
93.94000 3.802
93.96000 1.041
93.98000 3.123
94.00000 3.876
94.02000 4.291
94.04000 6.481
94.06000 1.460
94.08000 2.930
94.10000 5.717
94.12000 2.077
94.14000 -1.362
94.16000 2.593
94.18000 4.696
94.20000 7.306
94.22000 7.295
94.24000 6.324
94.26000 8.978
94.28000 7.530
94.30000 6.578
94.32000 10.016
94.34000 10.687
94.36000 5.220
94.38000 5.207
94.40000 4.001
94.42000 11.555
94.44000 9.227
94.46000 7.094
94.48000 3.643
94.50000 5.803
94.52000 7.516
94.54000 6.423
94.56000 4.457
94.58000 4.528
94.60000 12.374
94.62000 9.472
94.64000 4.122
94.66000 2.545
94.68000 2.361
94.70000 3.255
94.72000 11.790
94.74000 9.206
94.76000 1.151
94.78000 4.423
94.80000 7.611
94.82000 8.235
94.84000 14.478
94.86000 10.739
94.88000 6.070
94.90000 8.772
94.92000 8.319
94.94000 2.587
94.96000 2.163
94.98000 2.905
95.00000 8.501
95.02000 3.227
95.04000 2.573
95.06000 -2.305
95.08000 -0.701
95.10000 3.572
95.12000 4.508
95.14000 3.820
95.16000 6.328
95.18000 2.738
95.20000 10.018
95.22000 5.164
95.24000 1.429
95.26000 -0.060
95.28000 3.534
95.30000 1.147
95.32000 3.056
95.34000 2.916
95.36000 4.299
95.38000 10.079
95.40000 9.128
95.42000 3.411
95.44000 1.376
95.46000 0.035
95.48000 3.479
95.50000 7.304
95.52000 4.409
95.54000 10.150
95.56000 8.495
95.58000 7.997
95.60000 4.052
95.62000 1.173
95.64000 4.013
95.66000 7.265
95.68000 3.593
95.70000 6.337
95.72000 2.347
95.74000 3.990
95.76000 4.545
95.78000 3.923
95.80000 2.597
95.82000 0.669
95.84000 2.348
95.86000 1.504
95.88000 7.986
95.90000 6.326
95.92000 -2.166
95.94000 -1.180
95.96000 2.085
95.98000 1.702
96.00000 2.532
96.02000 -0.288
96.04000 0.692
96.06000 4.789
96.08000 8.975
96.10000 8.014
96.12000 -2.315
96.14000 1.709
96.16000 3.803
96.18000 4.334
96.20000 8.956
96.22000 -2.239
96.24000 -1.947
96.26000 2.307
96.28000 2.506
96.30000 -0.229
96.32000 -0.202
96.34000 7.867
96.36000 10.328
96.38000 11.806
96.40000 5.360
96.42000 6.539
96.44000 0.735
96.46000 4.827
96.48000 6.225
96.50000 2.412
96.52000 1.457
96.54000 6.064
96.56000 8.600
96.58000 6.486
96.60000 8.833
96.62000 9.509
96.64000 7.626
96.66000 7.462
96.68000 6.291
96.70000 8.123
96.72000 4.156
96.74000 4.611
96.76000 6.110
96.78000 0.333
96.80000 9.288
96.82000 8.571
96.84000 14.289
96.86000 12.630
96.88000 9.830
96.90000 8.595
96.92000 12.150
96.94000 15.027
96.96000 4.473
96.98000 1.718
97.00000 3.314
97.02000 6.444
97.04000 10.928
97.06000 5.390
97.08000 -0.514
97.10000 6.672
97.12000 12.939
97.14000 9.583
97.16000 6.056
97.18000 12.189
97.20000 10.978
97.22000 5.942
97.24000 3.045
97.26000 -3.510
97.28000 8.438
97.30000 10.466
97.32000 3.808
97.34000 0.336
97.36000 3.986
97.38000 4.962
97.40000 9.691
97.42000 7.572
97.44000 7.037
97.46000 8.049
97.48000 6.583
97.50000 8.671
97.52000 7.971
97.54000 9.542
97.56000 11.617
97.58000 7.125
97.60000 4.746
97.62000 3.659
97.64000 -2.229
97.66000 3.620
97.68000 8.170
97.70000 10.097
97.72000 11.132
97.74000 8.992
97.76000 11.468
97.78000 11.212
97.80000 7.153
97.82000 6.555
97.84000 12.918
97.86000 11.213
97.88000 16.423
97.90000 9.926
97.92000 7.789
97.94000 7.616
97.96000 5.564
97.98000 7.768
98.00000 9.691
98.02000 4.676
98.04000 5.074
98.06000 8.396
98.08000 8.209
98.10000 5.155
98.12000 1.694
98.14000 6.653
98.16000 12.780
98.18000 19.674
98.20000 10.856
98.22000 4.497
98.24000 13.845
98.26000 9.377
98.28000 8.404
98.30000 8.434
98.32000 5.297
98.34000 -0.369
98.36000 4.521
98.38000 9.297
98.40000 4.102
98.42000 9.699
98.44000 -1.076
98.46000 -2.193
98.48000 4.661
98.50000 18.633
98.52000 10.711
98.54000 5.077
98.56000 3.308
98.58000 2.193
98.60000 3.475
98.62000 -1.744
98.64000 6.832
98.66000 15.498
98.68000 11.895
98.70000 10.929
98.72000 9.875
98.74000 7.149
98.76000 2.263
98.78000 2.943
98.80000 -0.299
98.82000 4.377
98.84000 1.539
98.86000 5.223
98.88000 10.153
98.90000 9.025
98.92000 7.952
98.94000 13.439
98.96000 12.227
98.98000 6.516
99.00000 4.146
99.02000 2.746
99.04000 -4.047
99.06000 8.641
99.08000 -2.178
99.10000 0.423
99.12000 5.290
99.14000 1.316
99.16000 -2.129
99.18000 6.358
99.20000 2.291
99.22000 4.515
99.24000 10.782
99.26000 5.367
99.28000 6.547
99.30000 14.108
99.32000 8.512
99.34000 7.398
99.36000 5.737
99.38000 0.711
99.40000 -1.387
99.42000 0.050
99.44000 1.559
99.46000 8.175
99.48000 6.357
99.50000 5.307
99.52000 12.373
99.54000 5.199
99.56000 12.159
99.58000 10.052
99.60000 4.610
99.62000 7.195
99.64000 12.246
99.66000 3.437
99.68000 4.649
99.70000 4.384
99.72000 7.345
99.74000 0.526
99.76000 5.015
99.78000 4.528
99.80000 0.235
99.82000 8.318
99.84000 7.773
99.86000 -3.446
99.88000 3.463
99.90000 8.586
99.92000 14.267
99.94000 16.447
99.96000 10.308
99.98000 0.000
