'Id: "0011387" Comment: "Integrate frame 0011387_Au-Ir-Rh_Rh-rich_XRD-Mapping-238-0000.gfrmwith cursor Wedge Cursor #5" Operator: "B?rgel" Anode: "Cu" Wavelength: "1.5406" Scantype: "2Theta (TwoTheta)" TimePerStep: "1" X: "36" Y: "13.5" Z: "5.95" 
10.00000 0.000
10.02000 -3.185
10.04000 1.947
10.06000 7.788
10.08000 3.368
10.10000 -3.168
10.12000 8.258
10.14000 16.593
10.16000 17.836
10.18000 12.859
10.20000 13.059
10.22000 10.558
10.24000 17.970
10.26000 15.835
10.28000 22.885
10.30000 15.924
10.32000 15.514
10.34000 12.956
10.36000 17.505
10.38000 7.424
10.40000 8.667
10.42000 14.698
10.44000 16.672
10.46000 25.405
10.48000 16.773
10.50000 16.604
10.52000 16.115
10.54000 24.583
10.56000 29.005
10.58000 21.919
10.60000 15.830
10.62000 22.936
10.64000 33.507
10.66000 30.946
10.68000 26.491
10.70000 25.681
10.72000 27.540
10.74000 36.278
10.76000 38.154
10.78000 39.107
10.80000 41.193
10.82000 25.886
10.84000 30.376
10.86000 19.201
10.88000 27.223
10.90000 37.245
10.92000 41.455
10.94000 36.942
10.96000 29.374
10.98000 26.093
11.00000 26.350
11.02000 31.943
11.04000 25.485
11.06000 24.187
11.08000 34.203
11.10000 51.964
11.12000 41.380
11.14000 32.505
11.16000 23.212
11.18000 26.663
11.20000 23.279
11.22000 43.520
11.24000 51.031
11.26000 50.064
11.28000 41.251
11.30000 33.354
11.32000 24.008
11.34000 26.167
11.36000 33.277
11.38000 40.207
11.40000 34.747
11.42000 37.524
11.44000 34.628
11.46000 45.980
11.48000 50.429
11.50000 40.378
11.52000 40.591
11.54000 45.115
11.56000 44.652
11.58000 48.298
11.60000 37.834
11.62000 31.370
11.64000 41.189
11.66000 44.149
11.68000 40.022
11.70000 45.075
11.72000 32.779
11.74000 28.534
11.76000 36.237
11.78000 38.805
11.80000 37.868
11.82000 40.913
11.84000 41.594
11.86000 41.342
11.88000 37.761
11.90000 33.466
11.92000 41.517
11.94000 51.212
11.96000 49.813
11.98000 41.732
12.00000 47.994
12.02000 43.564
12.04000 42.608
12.06000 46.302
12.08000 45.182
12.10000 48.978
12.12000 32.126
12.14000 40.645
12.16000 52.697
12.18000 46.037
12.20000 45.829
12.22000 48.915
12.24000 54.276
12.26000 47.717
12.28000 44.037
12.30000 37.844
12.32000 33.289
12.34000 44.675
12.36000 37.164
12.38000 31.963
12.40000 50.490
12.42000 50.554
12.44000 42.225
12.46000 44.279
12.48000 51.599
12.50000 38.705
12.52000 32.108
12.54000 36.046
12.56000 44.752
12.58000 49.210
12.60000 49.784
12.62000 53.786
12.64000 51.044
12.66000 54.524
12.68000 54.263
12.70000 41.924
12.72000 39.277
12.74000 48.698
12.76000 49.808
12.78000 61.701
12.80000 54.538
12.82000 57.253
12.84000 49.468
12.86000 36.950
12.88000 49.007
12.90000 55.171
12.92000 49.669
12.94000 54.394
12.96000 54.059
12.98000 52.464
13.00000 46.331
13.02000 44.072
13.04000 51.461
13.06000 56.541
13.08000 48.545
13.10000 39.998
13.12000 45.765
13.14000 49.279
13.16000 47.617
13.18000 50.593
13.20000 47.922
13.22000 45.564
13.24000 43.174
13.26000 40.875
13.28000 41.203
13.30000 38.809
13.32000 39.689
13.34000 44.010
13.36000 41.591
13.38000 42.803
13.40000 42.918
13.42000 38.178
13.44000 38.760
13.46000 45.105
13.48000 37.264
13.50000 38.880
13.52000 43.807
13.54000 39.771
13.56000 40.203
13.58000 44.592
13.60000 45.502
13.62000 39.660
13.64000 31.077
13.66000 39.239
13.68000 43.563
13.70000 47.028
13.72000 41.260
13.74000 49.452
13.76000 42.747
13.78000 33.718
13.80000 35.590
13.82000 39.950
13.84000 45.833
13.86000 50.063
13.88000 52.364
13.90000 46.082
13.92000 42.693
13.94000 40.700
13.96000 36.712
13.98000 43.869
14.00000 52.202
14.02000 45.661
14.04000 41.068
14.06000 40.341
14.08000 39.702
14.10000 42.896
14.12000 47.207
14.14000 39.549
14.16000 35.935
14.18000 36.014
14.20000 38.141
14.22000 43.362
14.24000 46.831
14.26000 42.431
14.28000 39.750
14.30000 37.197
14.32000 35.866
14.34000 33.053
14.36000 31.745
14.38000 21.873
14.40000 29.113
14.42000 38.927
14.44000 39.067
14.46000 38.928
14.48000 43.165
14.50000 45.410
14.52000 41.944
14.54000 34.696
14.56000 37.405
14.58000 35.868
14.60000 35.470
14.62000 37.747
14.64000 39.183
14.66000 34.220
14.68000 39.053
14.70000 37.732
14.72000 33.857
14.74000 34.792
14.76000 34.627
14.78000 26.730
14.80000 32.459
14.82000 31.265
14.84000 39.525
14.86000 35.789
14.88000 29.538
14.90000 26.553
14.92000 33.160
14.94000 43.707
14.96000 38.463
14.98000 26.450
15.00000 21.164
15.02000 23.356
15.04000 25.228
15.06000 31.916
15.08000 32.572
15.10000 27.452
15.12000 28.092
15.14000 19.802
15.16000 33.290
15.18000 37.735
15.20000 27.221
15.22000 28.386
15.24000 30.876
15.26000 21.112
15.28000 21.140
15.30000 32.859
15.32000 29.430
15.34000 24.043
15.36000 27.823
15.38000 32.200
15.40000 25.077
15.42000 15.761
15.44000 18.042
15.46000 27.537
15.48000 32.992
15.50000 25.043
15.52000 23.299
15.54000 22.662
15.56000 27.770
15.58000 23.332
15.60000 24.792
15.62000 21.791
15.64000 22.820
15.66000 23.880
15.68000 17.547
15.70000 7.600
15.72000 11.777
15.74000 24.167
15.76000 24.072
15.78000 24.431
15.80000 20.412
15.82000 19.163
15.84000 23.533
15.86000 30.741
15.88000 17.326
15.90000 10.640
15.92000 17.684
15.94000 29.196
15.96000 23.279
15.98000 22.385
16.00000 14.788
16.02000 18.427
16.04000 22.319
16.06000 15.535
16.08000 23.066
16.10000 27.854
16.12000 20.581
16.14000 12.466
16.16000 16.279
16.18000 26.684
16.20000 23.142
16.22000 22.772
16.24000 16.678
16.26000 26.154
16.28000 24.145
16.30000 12.955
16.32000 5.704
16.34000 8.079
16.36000 12.609
16.38000 22.444
16.40000 12.820
16.42000 10.185
16.44000 17.538
16.46000 19.614
16.48000 18.479
16.50000 22.510
16.52000 15.152
16.54000 10.824
16.56000 10.638
16.58000 20.044
16.60000 17.055
16.62000 5.336
16.64000 13.551
16.66000 12.432
16.68000 12.215
16.70000 8.591
16.72000 17.268
16.74000 23.247
16.76000 15.703
16.78000 14.222
16.80000 11.398
16.82000 9.674
16.84000 22.562
16.86000 15.814
16.88000 16.401
16.90000 26.048
16.92000 22.619
16.94000 17.336
16.96000 14.651
16.98000 14.658
17.00000 11.878
17.02000 9.752
17.04000 14.909
17.06000 16.410
17.08000 11.210
17.10000 12.468
17.12000 20.843
17.14000 10.439
17.16000 6.335
17.18000 10.231
17.20000 9.499
17.22000 9.384
17.24000 21.558
17.26000 18.709
17.28000 8.585
17.30000 8.547
17.32000 7.291
17.34000 8.757
17.36000 12.299
17.38000 13.064
17.40000 7.460
17.42000 11.050
17.44000 8.027
17.46000 10.652
17.48000 13.772
17.50000 13.510
17.52000 11.720
17.54000 9.841
17.56000 11.869
17.58000 7.557
17.60000 11.444
17.62000 15.322
17.64000 8.337
17.66000 3.840
17.68000 7.160
17.70000 4.156
17.72000 5.671
17.74000 9.253
17.76000 8.013
17.78000 6.811
17.80000 9.832
17.82000 2.353
17.84000 -3.491
17.86000 -0.109
17.88000 5.811
17.90000 6.463
17.92000 -1.058
17.94000 0.443
17.96000 0.237
17.98000 2.433
18.00000 9.872
18.02000 9.173
18.04000 12.204
18.06000 9.348
18.08000 -3.038
18.10000 4.707
18.12000 10.880
18.14000 6.052
18.16000 5.734
18.18000 6.834
18.20000 5.742
18.22000 6.739
18.24000 7.713
18.26000 4.268
18.28000 0.195
18.30000 0.979
18.32000 2.995
18.34000 14.712
18.36000 1.426
18.38000 -0.845
18.40000 6.959
18.42000 4.626
18.44000 5.674
18.46000 8.316
18.48000 4.164
18.50000 3.902
18.52000 8.126
18.54000 1.349
18.56000 3.555
18.58000 -2.226
18.60000 -3.941
18.62000 -3.257
18.64000 4.110
18.66000 12.086
18.68000 3.724
18.70000 1.700
18.72000 -4.317
18.74000 1.527
18.76000 7.075
18.78000 11.166
18.80000 6.730
18.82000 0.427
18.84000 3.008
18.86000 10.278
18.88000 6.911
18.90000 3.080
18.92000 -4.034
18.94000 0.501
18.96000 3.272
18.98000 1.318
19.00000 5.639
19.02000 7.617
19.04000 8.854
19.06000 2.559
19.08000 2.686
19.10000 4.025
19.12000 -0.475
19.14000 6.234
19.16000 7.342
19.18000 5.987
19.20000 4.881
19.22000 5.907
19.24000 0.417
19.26000 3.915
19.28000 2.685
19.30000 1.302
19.32000 5.610
19.34000 8.284
19.36000 5.421
19.38000 -1.290
19.40000 3.978
19.42000 5.974
19.44000 -0.097
19.46000 8.363
19.48000 14.731
19.50000 6.829
19.52000 -0.143
19.54000 -0.656
19.56000 -0.580
19.58000 8.607
19.60000 8.334
19.62000 -0.809
19.64000 0.213
19.66000 9.319
19.68000 10.299
19.70000 -2.414
19.72000 -4.262
19.74000 -3.819
19.76000 2.651
19.78000 3.003
19.80000 2.931
19.82000 5.661
19.84000 2.392
19.86000 -1.953
19.88000 -0.354
19.90000 -0.552
19.92000 -3.140
19.94000 -0.195
19.96000 0.257
19.98000 3.869
20.00000 9.413
20.02000 7.836
20.04000 6.985
20.06000 6.330
20.08000 7.412
20.10000 6.095
20.12000 6.517
20.14000 1.465
20.16000 2.720
20.18000 5.148
20.20000 5.839
20.22000 6.116
20.24000 3.276
20.26000 5.059
20.28000 3.103
20.30000 4.285
20.32000 3.406
20.34000 7.454
20.36000 8.965
20.38000 1.523
20.40000 1.967
20.42000 -0.832
20.44000 3.424
20.46000 5.686
20.48000 5.603
20.50000 5.210
20.52000 6.411
20.54000 3.958
20.56000 4.610
20.58000 -4.187
20.60000 5.618
20.62000 1.921
20.64000 5.585
20.66000 8.994
20.68000 5.518
20.70000 5.654
20.72000 7.083
20.74000 7.661
20.76000 1.920
20.78000 6.074
20.80000 9.038
20.82000 8.163
20.84000 11.220
20.86000 4.195
20.88000 0.160
20.90000 6.355
20.92000 4.163
20.94000 5.641
20.96000 8.727
20.98000 3.518
21.00000 5.754
21.02000 4.432
21.04000 -0.280
21.06000 0.411
21.08000 -0.221
21.10000 7.213
21.12000 6.106
21.14000 1.193
21.16000 5.129
21.18000 1.825
21.20000 3.127
21.22000 7.744
21.24000 2.696
21.26000 3.393
21.28000 0.662
21.30000 1.265
21.32000 4.972
21.34000 -2.224
21.36000 -0.215
21.38000 3.058
21.40000 5.399
21.42000 8.683
21.44000 4.633
21.46000 11.608
21.48000 3.261
21.50000 7.885
21.52000 9.845
21.54000 4.823
21.56000 3.483
21.58000 3.534
21.60000 -4.151
21.62000 -4.067
21.64000 2.384
21.66000 1.416
21.68000 -2.336
21.70000 -0.084
21.72000 0.626
21.74000 -1.203
21.76000 1.372
21.78000 1.221
21.80000 -0.108
21.82000 5.420
21.84000 10.833
21.86000 8.107
21.88000 7.864
21.90000 8.870
21.92000 8.508
21.94000 6.731
21.96000 5.785
21.98000 5.509
22.00000 3.012
22.02000 0.886
22.04000 3.992
22.06000 3.523
22.08000 2.169
22.10000 -1.118
22.12000 5.291
22.14000 7.778
22.16000 7.334
22.18000 1.574
22.20000 3.806
22.22000 3.270
22.24000 -4.122
22.26000 -3.123
22.28000 4.684
22.30000 3.700
22.32000 3.878
22.34000 8.946
22.36000 4.939
22.38000 3.849
22.40000 1.799
22.42000 1.924
22.44000 -2.305
22.46000 1.391
22.48000 7.649
22.50000 6.848
22.52000 4.081
22.54000 4.087
22.56000 4.433
22.58000 6.606
22.60000 6.621
22.62000 2.420
22.64000 -3.200
22.66000 -1.475
22.68000 7.308
22.70000 2.244
22.72000 2.416
22.74000 4.588
22.76000 2.119
22.78000 5.846
22.80000 7.494
22.82000 9.555
22.84000 3.965
22.86000 2.704
22.88000 8.086
22.90000 8.887
22.92000 2.330
22.94000 0.898
22.96000 4.464
22.98000 8.356
23.00000 16.773
23.02000 6.165
23.04000 0.234
23.06000 1.495
23.08000 5.520
23.10000 7.158
23.12000 2.312
23.14000 5.085
23.16000 5.082
23.18000 1.124
23.20000 2.911
23.22000 2.703
23.24000 4.137
23.26000 7.597
23.28000 3.679
23.30000 1.840
23.32000 3.446
23.34000 -1.963
23.36000 -0.100
23.38000 3.932
23.40000 3.718
23.42000 2.934
23.44000 5.267
23.46000 9.117
23.48000 8.368
23.50000 12.951
23.52000 10.314
23.54000 6.276
23.56000 10.034
23.58000 10.509
23.60000 7.321
23.62000 4.609
23.64000 6.167
23.66000 1.813
23.68000 -1.967
23.70000 4.374
23.72000 4.109
23.74000 3.555
23.76000 3.865
23.78000 6.327
23.80000 1.292
23.82000 -3.999
23.84000 -1.366
23.86000 4.478
23.88000 4.014
23.90000 2.177
23.92000 5.847
23.94000 2.820
23.96000 9.281
23.98000 5.832
24.00000 8.802
24.02000 10.921
24.04000 14.525
24.06000 13.973
24.08000 10.993
24.10000 4.235
24.12000 5.047
24.14000 7.569
24.16000 6.531
24.18000 11.582
24.20000 13.943
24.22000 6.896
24.24000 5.000
24.26000 4.026
24.28000 5.993
24.30000 5.058
24.32000 -0.899
24.34000 2.786
24.36000 8.268
24.38000 11.755
24.40000 9.735
24.42000 11.688
24.44000 8.211
24.46000 9.028
24.48000 8.415
24.50000 5.798
24.52000 9.907
24.54000 10.196
24.56000 10.246
24.58000 4.286
24.60000 3.286
24.62000 1.356
24.64000 7.565
24.66000 10.097
24.68000 8.610
24.70000 10.826
24.72000 4.953
24.74000 -0.554
24.76000 -0.127
24.78000 5.680
24.80000 3.211
24.82000 -0.691
24.84000 3.506
24.86000 6.007
24.88000 5.170
24.90000 2.660
24.92000 4.184
24.94000 3.869
24.96000 5.815
24.98000 8.508
25.00000 3.537
25.02000 0.547
25.04000 1.912
25.06000 2.858
25.08000 -1.091
25.10000 -3.077
25.12000 -0.593
25.14000 5.814
25.16000 8.242
25.18000 4.368
25.20000 2.669
25.22000 0.375
25.24000 4.116
25.26000 1.991
25.28000 3.350
25.30000 1.291
25.32000 4.215
25.34000 1.426
25.36000 -3.938
25.38000 -1.590
25.40000 10.146
25.42000 4.949
25.44000 5.184
25.46000 3.650
25.48000 10.344
25.50000 3.884
25.52000 1.960
25.54000 2.800
25.56000 -0.878
25.58000 1.125
25.60000 5.386
25.62000 2.976
25.64000 -1.186
25.66000 2.989
25.68000 1.090
25.70000 0.741
25.72000 3.512
25.74000 4.254
25.76000 9.022
25.78000 8.396
25.80000 7.471
25.82000 2.088
25.84000 -1.766
25.86000 -1.379
25.88000 0.141
25.90000 3.736
25.92000 6.742
25.94000 3.582
25.96000 -1.207
25.98000 -1.825
26.00000 0.582
26.02000 0.489
26.04000 0.258
26.06000 3.257
26.08000 4.453
26.10000 -0.264
26.12000 -0.087
26.14000 -0.018
26.16000 2.208
26.18000 3.516
26.20000 3.796
26.22000 6.255
26.24000 7.216
26.26000 -2.974
26.28000 -0.701
26.30000 2.928
26.32000 2.216
26.34000 -3.378
26.36000 4.180
26.38000 6.652
26.40000 8.154
26.42000 10.142
26.44000 4.561
26.46000 2.784
26.48000 -3.894
26.50000 1.572
26.52000 4.877
26.54000 0.535
26.56000 0.211
26.58000 4.978
26.60000 4.129
26.62000 0.489
26.64000 4.203
26.66000 1.625
26.68000 -3.882
26.70000 -1.646
26.72000 0.966
26.74000 2.978
26.76000 5.526
26.78000 5.975
26.80000 4.971
26.82000 1.712
26.84000 -0.791
26.86000 0.495
26.88000 2.810
26.90000 3.679
26.92000 4.918
26.94000 2.697
26.96000 1.325
26.98000 -1.447
27.00000 -2.283
27.02000 5.062
27.04000 3.144
27.06000 1.392
27.08000 4.219
27.10000 2.515
27.12000 1.919
27.14000 3.053
27.16000 4.673
27.18000 1.123
27.20000 1.263
27.22000 3.151
27.24000 4.513
27.26000 3.770
27.28000 4.921
27.30000 4.702
27.32000 3.093
27.34000 4.001
27.36000 2.065
27.38000 6.844
27.40000 6.250
27.42000 3.725
27.44000 -3.450
27.46000 -0.621
27.48000 0.022
27.50000 6.059
27.52000 5.700
27.54000 4.971
27.56000 6.321
27.58000 10.201
27.60000 8.902
27.62000 2.574
27.64000 1.108
27.66000 -1.765
27.68000 0.287
27.70000 5.348
27.72000 4.957
27.74000 6.011
27.76000 7.492
27.78000 5.283
27.80000 3.602
27.82000 5.348
27.84000 3.467
27.86000 -2.132
27.88000 -2.813
27.90000 -0.040
27.92000 3.782
27.94000 1.828
27.96000 3.954
27.98000 1.340
28.00000 0.093
28.02000 3.048
28.04000 4.464
28.06000 3.194
28.08000 1.763
28.10000 5.214
28.12000 1.743
28.14000 -0.531
28.16000 8.996
28.18000 7.838
28.20000 6.075
28.22000 6.867
28.24000 2.841
28.26000 -0.859
28.28000 -3.762
28.30000 3.725
28.32000 7.837
28.34000 7.366
28.36000 1.840
28.38000 0.961
28.40000 7.990
28.42000 0.673
28.44000 1.931
28.46000 3.160
28.48000 6.600
28.50000 9.317
28.52000 7.158
28.54000 4.978
28.56000 6.103
28.58000 11.728
28.60000 5.156
28.62000 3.108
28.64000 5.294
28.66000 9.397
28.68000 4.030
28.70000 -1.057
28.72000 1.166
28.74000 -2.266
28.76000 -2.733
28.78000 -1.063
28.80000 1.998
28.82000 4.193
28.84000 0.327
28.86000 1.379
28.88000 3.667
28.90000 6.292
28.92000 3.787
28.94000 0.479
28.96000 0.716
28.98000 5.843
29.00000 4.238
29.02000 6.910
29.04000 5.683
29.06000 5.534
29.08000 7.854
29.10000 1.808
29.12000 -1.284
29.14000 0.883
29.16000 2.343
29.18000 6.300
29.20000 4.113
29.22000 5.678
29.24000 6.965
29.26000 9.979
29.28000 7.553
29.30000 4.361
29.32000 2.511
29.34000 4.503
29.36000 0.536
29.38000 -2.717
29.40000 -1.274
29.42000 4.148
29.44000 2.381
29.46000 6.519
29.48000 6.608
29.50000 5.475
29.52000 5.175
29.54000 5.454
29.56000 6.270
29.58000 4.486
29.60000 1.315
29.62000 3.067
29.64000 5.978
29.66000 7.556
29.68000 5.477
29.70000 7.279
29.72000 2.768
29.74000 0.143
29.76000 8.217
29.78000 3.402
29.80000 0.451
29.82000 5.307
29.84000 7.405
29.86000 3.944
29.88000 1.158
29.90000 9.180
29.92000 5.226
29.94000 -0.906
29.96000 7.856
29.98000 9.012
30.00000 5.420
30.02000 5.601
30.04000 5.087
30.06000 1.740
30.08000 4.487
30.10000 5.511
30.12000 6.959
30.14000 4.038
30.16000 1.899
30.18000 2.139
30.20000 3.098
30.22000 1.355
30.24000 2.735
30.26000 9.485
30.28000 8.489
30.30000 5.793
30.32000 8.388
30.34000 11.367
30.36000 7.569
30.38000 10.303
30.40000 9.303
30.42000 11.843
30.44000 16.246
30.46000 9.879
30.48000 3.175
30.50000 0.013
30.52000 -0.020
30.54000 3.417
30.56000 11.240
30.58000 10.667
30.60000 8.129
30.62000 6.265
30.64000 12.063
30.66000 7.776
30.68000 10.563
30.70000 8.791
30.72000 2.934
30.74000 1.594
30.76000 -3.590
30.78000 3.609
30.80000 4.363
30.82000 4.938
30.84000 2.462
30.86000 3.553
30.88000 8.934
30.90000 11.665
30.92000 8.321
30.94000 5.648
30.96000 8.551
30.98000 7.920
31.00000 7.947
31.02000 12.213
31.04000 13.401
31.06000 13.968
31.08000 11.107
31.10000 8.139
31.12000 2.918
31.14000 8.487
31.16000 12.864
31.18000 8.799
31.20000 4.498
31.22000 7.700
31.24000 9.731
31.26000 9.722
31.28000 3.508
31.30000 1.712
31.32000 5.229
31.34000 8.459
31.36000 11.784
31.38000 10.836
31.40000 4.016
31.42000 7.088
31.44000 6.762
31.46000 3.528
31.48000 1.621
31.50000 3.247
31.52000 4.060
31.54000 4.599
31.56000 -0.574
31.58000 -0.658
31.60000 -2.920
31.62000 -1.820
31.64000 -1.198
31.66000 5.974
31.68000 6.202
31.70000 4.798
31.72000 3.132
31.74000 3.860
31.76000 -0.084
31.78000 2.471
31.80000 1.253
31.82000 -1.486
31.84000 0.913
31.86000 3.647
31.88000 7.326
31.90000 4.495
31.92000 -3.613
31.94000 -0.338
31.96000 -1.215
31.98000 1.936
32.00000 6.610
32.02000 8.132
32.04000 6.001
32.06000 1.625
32.08000 -1.458
32.10000 3.373
32.12000 5.671
32.14000 1.016
32.16000 0.838
32.18000 1.024
32.20000 1.376
32.22000 1.896
32.24000 7.353
32.26000 9.043
32.28000 7.868
32.30000 5.161
32.32000 3.516
32.34000 1.540
32.36000 4.496
32.38000 3.885
32.40000 1.163
32.42000 3.933
32.44000 5.168
32.46000 3.723
32.48000 3.843
32.50000 -2.986
32.52000 -0.697
32.54000 2.885
32.56000 2.181
32.58000 4.457
32.60000 4.509
32.62000 -2.784
32.64000 -0.363
32.66000 7.409
32.68000 2.395
32.70000 3.317
32.72000 3.814
32.74000 4.283
32.76000 8.935
32.78000 6.949
32.80000 -0.115
32.82000 0.548
32.84000 -0.321
32.86000 -2.952
32.88000 -2.391
32.90000 0.695
32.92000 2.236
32.94000 -3.602
32.96000 0.415
32.98000 2.524
33.00000 0.520
33.02000 3.366
33.04000 0.210
33.06000 -0.223
33.08000 -0.526
33.10000 1.039
33.12000 -2.243
33.14000 -2.813
33.16000 -2.955
33.18000 -1.838
33.20000 0.375
33.22000 3.799
33.24000 2.743
33.26000 -1.250
33.28000 -3.591
33.30000 1.974
33.32000 8.213
33.34000 5.398
33.36000 3.653
33.38000 1.949
33.40000 4.432
33.42000 6.859
33.44000 3.459
33.46000 2.201
33.48000 4.917
33.50000 1.294
33.52000 1.961
33.54000 1.227
33.56000 5.767
33.58000 2.572
33.60000 2.442
33.62000 2.914
33.64000 -1.193
33.66000 0.998
33.68000 1.232
33.70000 1.317
33.72000 5.273
33.74000 3.797
33.76000 5.128
33.78000 3.250
33.80000 6.691
33.82000 4.085
33.84000 1.856
33.86000 0.633
33.88000 5.373
33.90000 2.610
33.92000 5.684
33.94000 7.376
33.96000 3.164
33.98000 -0.502
34.00000 4.271
34.02000 1.816
34.04000 2.122
34.06000 6.030
34.08000 2.714
34.10000 2.687
34.12000 -0.193
34.14000 -0.505
34.16000 -1.560
34.18000 3.491
34.20000 7.760
34.22000 1.318
34.24000 1.224
34.26000 -0.037
34.28000 1.474
34.30000 4.406
34.32000 -0.199
34.34000 1.347
34.36000 0.604
34.38000 1.775
34.40000 4.030
34.42000 -1.530
34.44000 -3.044
34.46000 -3.555
34.48000 -0.269
34.50000 2.481
34.52000 5.431
34.54000 0.717
34.56000 -0.346
34.58000 -1.607
34.60000 -1.079
34.62000 -3.138
34.64000 -1.455
34.66000 2.523
34.68000 6.152
34.70000 5.808
34.72000 -0.983
34.74000 -2.347
34.76000 -1.148
34.78000 1.130
34.80000 6.814
34.82000 3.391
34.84000 2.810
34.86000 1.390
34.88000 1.761
34.90000 3.698
34.92000 -0.138
34.94000 -1.561
34.96000 0.596
34.98000 -2.332
35.00000 -0.354
35.02000 4.271
35.04000 5.576
35.06000 4.188
35.08000 1.086
35.10000 1.691
35.12000 8.412
35.14000 4.530
35.16000 2.482
35.18000 2.838
35.20000 1.632
35.22000 5.774
35.24000 3.480
35.26000 4.347
35.28000 2.663
35.30000 1.254
35.32000 3.676
35.34000 0.251
35.36000 -3.524
35.38000 1.924
35.40000 6.637
35.42000 3.607
35.44000 8.186
35.46000 4.832
35.48000 -1.187
35.50000 -0.225
35.52000 -0.077
35.54000 4.980
35.56000 7.058
35.58000 4.077
35.60000 5.694
35.62000 1.478
35.64000 4.329
35.66000 9.521
35.68000 5.069
35.70000 2.543
35.72000 6.738
35.74000 6.428
35.76000 6.393
35.78000 0.476
35.80000 -0.394
35.82000 -3.511
35.84000 4.402
35.86000 4.413
35.88000 0.870
35.90000 -0.076
35.92000 1.556
35.94000 3.364
35.96000 1.170
35.98000 -1.335
36.00000 0.582
36.02000 1.061
36.04000 3.006
36.06000 7.783
36.08000 5.575
36.10000 0.855
36.12000 -1.325
36.14000 1.453
36.16000 1.954
36.18000 -0.086
36.20000 -3.520
36.22000 -2.607
36.24000 3.030
36.26000 4.467
36.28000 5.230
36.30000 6.288
36.32000 7.417
36.34000 5.331
36.36000 4.057
36.38000 5.334
36.40000 1.089
36.42000 2.329
36.44000 0.613
36.46000 1.432
36.48000 3.681
36.50000 -0.920
36.52000 -1.945
36.54000 2.226
36.56000 5.908
36.58000 3.301
36.60000 -1.799
36.62000 3.437
36.64000 4.657
36.66000 1.196
36.68000 -1.469
36.70000 -0.546
36.72000 2.706
36.74000 3.302
36.76000 2.684
36.78000 -1.180
36.80000 -3.534
36.82000 -0.728
36.84000 3.686
36.86000 2.418
36.88000 -0.692
36.90000 -0.559
36.92000 2.843
36.94000 -2.443
36.96000 1.814
36.98000 5.657
37.00000 2.894
37.02000 -0.110
37.04000 -3.088
37.06000 -1.876
37.08000 1.101
37.10000 0.156
37.12000 5.826
37.14000 3.542
37.16000 -0.554
37.18000 -1.614
37.20000 1.445
37.22000 2.635
37.24000 0.883
37.26000 -2.188
37.28000 -1.147
37.30000 2.202
37.32000 1.964
37.34000 -0.113
37.36000 -0.819
37.38000 2.824
37.40000 5.172
37.42000 1.608
37.44000 -2.789
37.46000 -1.392
37.48000 1.241
37.50000 2.645
37.52000 0.812
37.54000 -1.480
37.56000 -0.376
37.58000 2.699
37.60000 -2.991
37.62000 -0.729
37.64000 4.244
37.66000 -1.649
37.68000 -2.162
37.70000 -1.838
37.72000 0.716
37.74000 -1.330
37.76000 -2.799
37.78000 -1.151
37.80000 1.109
37.82000 -0.781
37.84000 6.683
37.86000 4.168
37.88000 3.255
37.90000 5.969
37.92000 8.665
37.94000 7.847
37.96000 3.972
37.98000 7.317
38.00000 5.473
38.02000 4.328
38.04000 4.107
38.06000 2.603
38.08000 5.128
38.10000 10.372
38.12000 12.956
38.14000 10.765
38.16000 7.699
38.18000 11.895
38.20000 13.118
38.22000 12.848
38.24000 9.562
38.26000 8.285
38.28000 8.534
38.30000 7.044
38.32000 14.112
38.34000 12.741
38.36000 13.642
38.38000 11.162
38.40000 14.296
38.42000 15.664
38.44000 10.663
38.46000 13.336
38.48000 13.013
38.50000 11.877
38.52000 15.856
38.54000 12.019
38.56000 12.792
38.58000 19.673
38.60000 18.513
38.62000 19.709
38.64000 19.359
38.66000 20.740
38.68000 22.027
38.70000 23.659
38.72000 19.758
38.74000 17.379
38.76000 21.544
38.78000 26.089
38.80000 24.659
38.82000 25.009
38.84000 25.807
38.86000 25.771
38.88000 24.220
38.90000 23.953
38.92000 28.593
38.94000 33.998
38.96000 38.060
38.98000 38.896
39.00000 30.706
39.02000 31.433
39.04000 34.686
39.06000 43.120
39.08000 42.932
39.10000 42.890
39.12000 44.114
39.14000 45.402
39.16000 44.025
39.18000 45.857
39.20000 49.416
39.22000 54.021
39.24000 59.200
39.26000 54.142
39.28000 53.802
39.30000 54.903
39.32000 62.318
39.34000 66.596
39.36000 67.844
39.38000 78.126
39.40000 78.884
39.42000 79.797
39.44000 80.798
39.46000 82.461
39.48000 88.578
39.50000 92.563
39.52000 90.427
39.54000 95.426
39.56000 106.313
39.58000 113.259
39.60000 117.375
39.62000 122.402
39.64000 129.443
39.66000 137.365
39.68000 139.064
39.70000 143.944
39.72000 160.948
39.74000 166.732
39.76000 172.209
39.78000 188.542
39.80000 193.936
39.82000 210.363
39.84000 218.660
39.86000 228.181
39.88000 233.841
39.90000 246.348
39.92000 264.571
39.94000 283.651
39.96000 294.867
39.98000 298.717
40.00000 313.306
40.02000 326.595
40.04000 343.784
40.06000 361.189
40.08000 383.122
40.10000 391.730
40.12000 397.016
40.14000 417.267
40.16000 427.629
40.18000 440.135
40.20000 459.878
40.22000 475.270
40.24000 488.861
40.26000 493.822
40.28000 506.153
40.30000 516.578
40.32000 528.100
40.34000 517.550
40.36000 526.670
40.38000 532.346
40.40000 533.442
40.42000 537.760
40.44000 534.391
40.46000 535.112
40.48000 525.837
40.50000 514.465
40.52000 513.764
40.54000 503.516
40.56000 489.415
40.58000 487.364
40.60000 472.386
40.62000 451.153
40.64000 438.423
40.66000 427.943
40.68000 402.234
40.70000 386.540
40.72000 377.426
40.74000 365.469
40.76000 353.731
40.78000 337.656
40.80000 326.463
40.82000 317.582
40.84000 306.508
40.86000 286.930
40.88000 274.620
40.90000 259.360
40.92000 252.044
40.94000 238.497
40.96000 223.915
40.98000 216.168
41.00000 209.906
41.02000 196.262
41.04000 177.958
41.06000 172.023
41.08000 163.141
41.10000 151.442
41.12000 141.299
41.14000 133.247
41.16000 128.918
41.18000 126.847
41.20000 121.316
41.22000 114.214
41.24000 107.834
41.26000 104.826
41.28000 99.990
41.30000 94.602
41.32000 84.534
41.34000 79.434
41.36000 76.858
41.38000 72.297
41.40000 71.656
41.42000 66.246
41.44000 64.798
41.46000 61.709
41.48000 60.480
41.50000 58.464
41.52000 56.584
41.54000 50.980
41.56000 49.167
41.58000 46.557
41.60000 42.784
41.62000 40.589
41.64000 39.156
41.66000 39.088
41.68000 36.143
41.70000 37.960
41.72000 36.086
41.74000 35.092
41.76000 35.104
41.78000 32.885
41.80000 26.939
41.82000 26.453
41.84000 26.343
41.86000 23.611
41.88000 22.785
41.90000 23.083
41.92000 22.185
41.94000 16.998
41.96000 14.881
41.98000 18.543
42.00000 13.914
42.02000 14.534
42.04000 20.204
42.06000 17.142
42.08000 16.116
42.10000 15.137
42.12000 10.510
42.14000 10.923
42.16000 13.843
42.18000 11.252
42.20000 13.164
42.22000 14.625
42.24000 11.906
42.26000 9.317
42.28000 5.810
42.30000 7.219
42.32000 7.290
42.34000 10.024
42.36000 7.669
42.38000 4.492
42.40000 2.346
42.42000 1.755
42.44000 4.690
42.46000 3.638
42.48000 5.610
42.50000 5.191
42.52000 4.808
42.54000 2.656
42.56000 4.491
42.58000 4.834
42.60000 4.927
42.62000 5.019
42.64000 2.896
42.66000 4.817
42.68000 7.315
42.70000 7.433
42.72000 5.066
42.74000 4.580
42.76000 3.817
42.78000 3.439
42.80000 2.476
42.82000 2.898
42.84000 1.816
42.86000 0.581
42.88000 0.846
42.90000 1.204
42.92000 3.806
42.94000 7.978
42.96000 6.121
42.98000 4.319
43.00000 0.504
43.02000 2.418
43.04000 2.001
43.06000 5.161
43.08000 1.464
43.10000 2.399
43.12000 5.651
43.14000 6.557
43.16000 3.802
43.18000 2.300
43.20000 2.877
43.22000 2.543
43.24000 0.917
43.26000 0.254
43.28000 1.210
43.30000 5.067
43.32000 0.441
43.34000 3.913
43.36000 6.318
43.38000 0.947
43.40000 -3.383
43.42000 -0.565
43.44000 1.846
43.46000 0.966
43.48000 5.268
43.50000 1.987
43.52000 3.150
43.54000 3.181
43.56000 3.528
43.58000 3.639
43.60000 1.901
43.62000 6.860
43.64000 8.333
43.66000 7.081
43.68000 8.196
43.70000 3.198
43.72000 -0.901
43.74000 4.284
43.76000 1.039
43.78000 -0.160
43.80000 4.435
43.82000 4.155
43.84000 -0.957
43.86000 -0.092
43.88000 3.289
43.90000 -0.268
43.92000 -3.374
43.94000 -2.519
43.96000 1.669
43.98000 -1.147
44.00000 -1.228
44.02000 4.504
44.04000 6.736
44.06000 -0.563
44.08000 0.915
44.10000 -2.286
44.12000 -1.785
44.14000 -0.413
44.16000 -0.751
44.18000 -0.321
44.20000 2.427
44.22000 -0.799
44.24000 -2.390
44.26000 -1.219
44.28000 2.049
44.30000 2.106
44.32000 0.292
44.34000 -1.999
44.36000 0.724
44.38000 1.492
44.40000 4.199
44.42000 0.975
44.44000 2.776
44.46000 3.193
44.48000 1.228
44.50000 0.357
44.52000 -2.133
44.54000 -1.011
44.56000 -1.778
44.58000 -1.151
44.60000 1.734
44.62000 5.497
44.64000 -0.514
44.66000 1.110
44.68000 3.126
44.70000 1.874
44.72000 3.249
44.74000 5.815
44.76000 6.305
44.78000 4.342
44.80000 3.129
44.82000 5.315
44.84000 0.532
44.86000 0.457
44.88000 6.052
44.90000 2.172
44.92000 -0.400
44.94000 0.274
44.96000 -3.317
44.98000 -1.984
45.00000 0.333
45.02000 3.620
45.04000 5.494
45.06000 3.689
45.08000 6.486
45.10000 6.123
45.12000 5.565
45.14000 7.340
45.16000 7.511
45.18000 4.763
45.20000 6.553
45.22000 6.223
45.24000 9.063
45.26000 11.949
45.28000 9.678
45.30000 8.913
45.32000 4.430
45.34000 7.739
45.36000 10.473
45.38000 10.593
45.40000 12.206
45.42000 9.538
45.44000 6.508
45.46000 10.178
45.48000 8.081
45.50000 10.126
45.52000 9.817
45.54000 13.274
45.56000 13.296
45.58000 12.931
45.60000 13.450
45.62000 15.971
45.64000 20.779
45.66000 18.278
45.68000 13.116
45.70000 7.800
45.72000 10.557
45.74000 19.062
45.76000 16.538
45.78000 13.420
45.80000 16.902
45.82000 20.493
45.84000 20.786
45.86000 24.959
45.88000 20.878
45.90000 22.405
45.92000 21.212
45.94000 23.769
45.96000 28.646
45.98000 29.638
46.00000 28.622
46.02000 26.013
46.04000 28.804
46.06000 32.011
46.08000 35.156
46.10000 28.229
46.12000 33.576
46.14000 36.739
46.16000 35.008
46.18000 30.922
46.20000 34.275
46.22000 36.070
46.24000 37.949
46.26000 34.709
46.28000 36.937
46.30000 40.327
46.32000 48.154
46.34000 38.634
46.36000 43.046
46.38000 43.562
46.40000 49.083
46.42000 54.846
46.44000 57.911
46.46000 55.177
46.48000 56.205
46.50000 64.052
46.52000 61.314
46.54000 57.435
46.56000 58.414
46.58000 60.838
46.60000 68.480
46.62000 66.668
46.64000 65.570
46.66000 68.643
46.68000 68.538
46.70000 69.312
46.72000 70.480
46.74000 66.375
46.76000 71.380
46.78000 78.399
46.80000 76.074
46.82000 75.515
46.84000 76.088
46.86000 80.385
46.88000 82.521
46.90000 88.069
46.92000 84.015
46.94000 77.177
46.96000 79.076
46.98000 82.471
47.00000 86.625
47.02000 88.547
47.04000 89.882
47.06000 87.108
47.08000 85.882
47.10000 82.517
47.12000 74.187
47.14000 76.223
47.16000 83.676
47.18000 84.376
47.20000 74.525
47.22000 72.149
47.24000 75.699
47.26000 72.722
47.28000 72.181
47.30000 72.345
47.32000 72.474
47.34000 72.872
47.36000 72.402
47.38000 65.842
47.40000 64.144
47.42000 61.452
47.44000 66.149
47.46000 65.114
47.48000 63.146
47.50000 60.324
47.52000 57.374
47.54000 55.218
47.56000 53.835
47.58000 51.674
47.60000 49.872
47.62000 48.374
47.64000 46.498
47.66000 42.409
47.68000 41.820
47.70000 37.853
47.72000 38.233
47.74000 43.031
47.76000 43.650
47.78000 34.717
47.80000 34.065
47.82000 35.424
47.84000 30.596
47.86000 32.361
47.88000 28.659
47.90000 28.063
47.92000 26.841
47.94000 30.435
47.96000 23.336
47.98000 20.424
48.00000 22.305
48.02000 23.367
48.04000 21.823
48.06000 20.314
48.08000 19.263
48.10000 17.983
48.12000 13.542
48.14000 20.849
48.16000 17.714
48.18000 15.487
48.20000 19.001
48.22000 14.840
48.24000 12.587
48.26000 9.838
48.28000 9.823
48.30000 13.274
48.32000 15.816
48.34000 12.487
48.36000 10.185
48.38000 7.342
48.40000 1.010
48.42000 0.935
48.44000 1.806
48.46000 6.525
48.48000 11.736
48.50000 9.705
48.52000 8.088
48.54000 8.243
48.56000 2.964
48.58000 1.981
48.60000 5.946
48.62000 2.644
48.64000 0.132
48.66000 1.865
48.68000 2.369
48.70000 0.710
48.72000 1.229
48.74000 3.795
48.76000 -2.285
48.78000 3.147
48.80000 3.377
48.82000 1.230
48.84000 1.491
48.86000 3.495
48.88000 -0.770
48.90000 2.012
48.92000 4.589
48.94000 6.372
48.96000 5.390
48.98000 4.884
49.00000 3.535
49.02000 1.886
49.04000 6.401
49.06000 3.006
49.08000 3.415
49.10000 0.906
49.12000 -0.254
49.14000 2.932
49.16000 -1.259
49.18000 -2.934
49.20000 -1.081
49.22000 -0.433
49.24000 -1.208
49.26000 4.514
49.28000 2.082
49.30000 -0.493
49.32000 -2.913
49.34000 -0.611
49.36000 5.710
49.38000 6.736
49.40000 7.480
49.42000 12.708
49.44000 8.052
49.46000 3.442
49.48000 4.345
49.50000 2.729
49.52000 4.114
49.54000 5.939
49.56000 5.618
49.58000 3.562
49.60000 2.075
49.62000 -2.100
49.64000 -2.735
49.66000 0.390
49.68000 -1.014
49.70000 -2.880
49.72000 -1.979
49.74000 0.523
49.76000 2.437
49.78000 3.619
49.80000 0.708
49.82000 1.491
49.84000 1.720
49.86000 2.882
49.88000 0.640
49.90000 2.518
49.92000 1.652
49.94000 0.969
49.96000 -2.607
49.98000 0.181
50.00000 0.808
50.02000 3.142
50.04000 5.502
50.06000 5.937
50.08000 4.804
50.10000 3.174
50.12000 3.462
50.14000 0.175
50.16000 4.268
50.18000 -0.736
50.20000 -1.187
50.22000 0.393
50.24000 2.681
50.26000 0.729
50.28000 2.425
50.30000 3.350
50.32000 0.254
50.34000 -2.821
50.36000 4.532
50.38000 3.067
50.40000 0.434
50.42000 3.429
50.44000 4.174
50.46000 1.456
50.48000 2.020
50.50000 5.555
50.52000 3.939
50.54000 2.947
50.56000 5.204
50.58000 4.456
50.60000 -2.799
50.62000 0.044
50.64000 0.671
50.66000 2.603
50.68000 7.791
50.70000 6.448
50.72000 0.584
50.74000 -0.294
50.76000 2.308
50.78000 4.021
50.80000 7.135
50.82000 2.756
50.84000 0.380
50.86000 -1.642
50.88000 -2.779
50.90000 3.690
50.92000 1.246
50.94000 -0.227
50.96000 1.793
50.98000 -1.113
51.00000 1.905
51.02000 5.517
51.04000 1.862
51.06000 3.807
51.08000 2.217
51.10000 -1.431
51.12000 0.063
51.14000 1.821
51.16000 -0.978
51.18000 -0.506
51.20000 2.730
51.22000 5.342
51.24000 5.163
51.26000 2.161
51.28000 3.357
51.30000 5.129
51.32000 4.349
51.34000 1.234
51.36000 4.809
51.38000 2.374
51.40000 1.424
51.42000 4.402
51.44000 4.649
51.46000 -0.800
51.48000 -0.227
51.50000 4.815
51.52000 3.665
51.54000 2.256
51.56000 0.406
51.58000 -0.346
51.60000 3.668
51.62000 -0.270
51.64000 0.508
51.66000 3.776
51.68000 -2.737
51.70000 -0.643
51.72000 1.531
51.74000 4.545
51.76000 9.773
51.78000 5.813
51.80000 3.705
51.82000 3.659
51.84000 3.027
51.86000 3.407
51.88000 5.364
51.90000 6.415
51.92000 2.637
51.94000 4.193
51.96000 6.480
51.98000 0.807
52.00000 1.698
52.02000 3.346
52.04000 3.314
52.06000 4.148
52.08000 -0.631
52.10000 -1.187
52.12000 0.999
52.14000 -0.101
52.16000 3.953
52.18000 3.148
52.20000 1.058
52.22000 -0.327
52.24000 -2.721
52.26000 -0.246
52.28000 3.365
52.30000 5.111
52.32000 4.358
52.34000 1.702
52.36000 2.070
52.38000 4.468
52.40000 5.571
52.42000 2.446
52.44000 -0.801
52.46000 2.915
52.48000 4.768
52.50000 1.329
52.52000 1.825
52.54000 1.673
52.56000 5.598
52.58000 3.682
52.60000 1.800
52.62000 1.799
52.64000 5.475
52.66000 3.042
52.68000 2.620
52.70000 2.858
52.72000 5.165
52.74000 4.415
52.76000 5.858
52.78000 5.609
52.80000 4.339
52.82000 3.090
52.84000 2.791
52.86000 2.934
52.88000 6.249
52.90000 4.293
52.92000 3.037
52.94000 -0.266
52.96000 5.992
52.98000 8.182
53.00000 6.177
53.02000 8.161
53.04000 7.439
53.06000 4.758
53.08000 8.356
53.10000 3.912
53.12000 0.743
53.14000 5.146
53.16000 6.047
53.18000 3.601
53.20000 1.438
53.22000 2.853
53.24000 1.856
53.26000 -2.664
53.28000 0.881
53.30000 4.589
53.32000 8.623
53.34000 7.099
53.36000 3.729
53.38000 3.253
53.40000 7.139
53.42000 5.693
53.44000 -1.222
53.46000 0.731
53.48000 6.753
53.50000 4.056
53.52000 0.023
53.54000 6.337
53.56000 7.816
53.58000 0.130
53.60000 2.499
53.62000 7.751
53.64000 7.679
53.66000 5.739
53.68000 1.848
53.70000 4.589
53.72000 1.545
53.74000 1.311
53.76000 2.006
53.78000 1.485
53.80000 4.770
53.82000 1.134
53.84000 -0.849
53.86000 2.011
53.88000 2.349
53.90000 1.017
53.92000 7.268
53.94000 8.511
53.96000 1.199
53.98000 3.917
54.00000 3.570
54.02000 5.090
54.04000 1.735
54.06000 2.451
54.08000 0.748
54.10000 -0.849
54.12000 2.355
54.14000 6.227
54.16000 3.013
54.18000 0.662
54.20000 0.004
54.22000 5.037
54.24000 1.617
54.26000 0.274
54.28000 -0.345
54.30000 0.629
54.32000 4.558
54.34000 8.477
54.36000 6.996
54.38000 4.253
54.40000 5.346
54.42000 6.906
54.44000 4.018
54.46000 1.847
54.48000 3.095
54.50000 3.429
54.52000 2.373
54.54000 2.358
54.56000 2.589
54.58000 2.816
54.60000 4.361
54.62000 7.853
54.64000 8.189
54.66000 5.998
54.68000 4.545
54.70000 1.165
54.72000 5.219
54.74000 6.617
54.76000 2.751
54.78000 7.012
54.80000 2.749
54.82000 -1.047
54.84000 0.961
54.86000 -0.349
54.88000 1.675
54.90000 0.112
54.92000 3.378
54.94000 7.842
54.96000 10.273
54.98000 5.206
55.00000 2.717
55.02000 2.572
55.04000 2.674
55.06000 0.347
55.08000 2.683
55.10000 2.141
55.12000 -1.780
55.14000 1.144
55.16000 -2.612
55.18000 0.689
55.20000 6.623
55.22000 1.911
55.24000 2.988
55.26000 10.455
55.28000 7.459
55.30000 3.500
55.32000 5.064
55.34000 6.450
55.36000 6.283
55.38000 4.274
55.40000 3.400
55.42000 3.781
55.44000 4.535
55.46000 3.731
55.48000 3.603
55.50000 3.490
55.52000 5.478
55.54000 9.201
55.56000 8.884
55.58000 5.963
55.60000 7.894
55.62000 12.948
55.64000 9.970
55.66000 7.453
55.68000 10.198
55.70000 12.668
55.72000 2.841
55.74000 -2.567
55.76000 0.887
55.78000 4.117
55.80000 6.740
55.82000 5.455
55.84000 2.540
55.86000 6.818
55.88000 7.842
55.90000 7.664
55.92000 9.962
55.94000 7.385
55.96000 9.824
55.98000 7.885
56.00000 5.911
56.02000 4.089
56.04000 5.840
56.06000 8.570
56.08000 9.538
56.10000 6.530
56.12000 8.877
56.14000 7.321
56.16000 8.326
56.18000 2.026
56.20000 6.975
56.22000 6.635
56.24000 1.478
56.26000 4.370
56.28000 6.662
56.30000 7.321
56.32000 3.202
56.34000 2.242
56.36000 5.392
56.38000 1.987
56.40000 3.311
56.42000 3.351
56.44000 3.683
56.46000 3.866
56.48000 1.971
56.50000 3.743
56.52000 3.327
56.54000 0.134
56.56000 0.549
56.58000 4.723
56.60000 3.305
56.62000 3.456
56.64000 2.478
56.66000 5.803
56.68000 4.543
56.70000 3.985
56.72000 6.138
56.74000 1.977
56.76000 1.849
56.78000 0.220
56.80000 -1.475
56.82000 -0.885
56.84000 3.379
56.86000 3.947
56.88000 1.530
56.90000 1.248
56.92000 2.556
56.94000 5.993
56.96000 4.611
56.98000 0.999
57.00000 -1.941
57.02000 -0.644
57.04000 2.557
57.06000 -0.751
57.08000 0.288
57.10000 0.045
57.12000 2.676
57.14000 2.492
57.16000 1.246
57.18000 1.621
57.20000 6.787
57.22000 6.139
57.24000 2.380
57.26000 4.123
57.28000 1.130
57.30000 -1.479
57.32000 1.070
57.34000 2.229
57.36000 4.402
57.38000 5.155
57.40000 4.127
57.42000 2.715
57.44000 1.753
57.46000 3.050
57.48000 5.333
57.50000 -2.220
57.52000 2.344
57.54000 2.211
57.56000 0.979
57.58000 3.188
57.60000 5.103
57.62000 3.407
57.64000 2.496
57.66000 2.613
57.68000 5.229
57.70000 2.841
57.72000 1.037
57.74000 -0.620
57.76000 -1.603
57.78000 -0.086
57.80000 -1.085
57.82000 3.294
57.84000 4.849
57.86000 4.604
57.88000 4.521
57.90000 6.776
57.92000 5.991
57.94000 5.885
57.96000 4.902
57.98000 4.478
58.00000 4.466
58.02000 7.338
58.04000 8.440
58.06000 6.468
58.08000 6.009
58.10000 6.135
58.12000 2.031
58.14000 3.227
58.16000 8.774
58.18000 7.138
58.20000 3.012
58.22000 3.208
58.24000 1.344
58.26000 -2.518
58.28000 1.217
58.30000 -1.140
58.32000 0.109
58.34000 3.655
58.36000 5.128
58.38000 4.198
58.40000 2.177
58.42000 2.770
58.44000 2.482
58.46000 0.312
58.48000 4.541
58.50000 5.171
58.52000 2.994
58.54000 3.944
58.56000 4.262
58.58000 4.272
58.60000 1.511
58.62000 2.609
58.64000 3.085
58.66000 2.711
58.68000 5.994
58.70000 4.356
58.72000 4.172
58.74000 5.393
58.76000 1.727
58.78000 -0.098
58.80000 -0.767
58.82000 0.286
58.84000 0.694
58.86000 0.726
58.88000 1.734
58.90000 2.192
58.92000 4.740
58.94000 4.865
58.96000 -1.241
58.98000 -0.660
59.00000 -1.190
59.02000 2.171
59.04000 1.464
59.06000 3.653
59.08000 2.245
59.10000 2.348
59.12000 0.549
59.14000 -0.566
59.16000 0.119
59.18000 -0.464
59.20000 -0.932
59.22000 -0.910
59.24000 3.305
59.26000 1.794
59.28000 3.172
59.30000 6.704
59.32000 2.762
59.34000 -2.004
59.36000 -0.518
59.38000 1.107
59.40000 -2.539
59.42000 -1.739
59.44000 2.955
59.46000 -1.618
59.48000 2.113
59.50000 0.696
59.52000 0.900
59.54000 -1.192
59.56000 -1.917
59.58000 3.788
59.60000 3.748
59.62000 -1.858
59.64000 -0.527
59.66000 1.438
59.68000 0.816
59.70000 -0.307
59.72000 0.763
59.74000 3.327
59.76000 3.092
59.78000 2.184
59.80000 0.602
59.82000 1.535
59.84000 1.877
59.86000 0.333
59.88000 2.545
59.90000 -1.285
59.92000 2.472
59.94000 3.370
59.96000 2.061
59.98000 2.202
60.00000 -1.736
60.02000 -0.687
60.04000 0.858
60.06000 -2.513
60.08000 2.059
60.10000 0.736
60.12000 -1.804
60.14000 1.380
60.16000 1.858
60.18000 0.101
60.20000 4.260
60.22000 4.373
60.24000 3.068
60.26000 1.067
60.28000 0.827
60.30000 2.980
60.32000 1.830
60.34000 2.408
60.36000 -0.934
60.38000 -0.764
60.40000 -0.348
60.42000 0.237
60.44000 -0.012
60.46000 1.068
60.48000 0.173
60.50000 -0.532
60.52000 -0.522
60.54000 0.544
60.56000 3.112
60.58000 -0.010
60.60000 2.426
60.62000 0.632
60.64000 -2.124
60.66000 -0.044
60.68000 -0.675
60.70000 -0.024
60.72000 0.017
60.74000 0.998
60.76000 2.002
60.78000 0.604
60.80000 5.061
60.82000 -0.835
60.84000 -2.498
60.86000 3.008
60.88000 1.202
60.90000 2.168
60.92000 0.466
60.94000 5.643
60.96000 2.723
60.98000 2.127
61.00000 0.099
61.02000 -0.349
61.04000 -0.084
61.06000 1.221
61.08000 -0.785
61.10000 0.729
61.12000 -0.660
61.14000 -0.497
61.16000 1.516
61.18000 4.208
61.20000 0.745
61.22000 0.718
61.24000 6.060
61.26000 3.441
61.28000 1.573
61.30000 -0.466
61.32000 1.245
61.34000 1.036
61.36000 -1.124
61.38000 -0.412
61.40000 0.341
61.42000 2.146
61.44000 1.471
61.46000 3.462
61.48000 0.824
61.50000 -2.042
61.52000 -0.724
61.54000 1.031
61.56000 3.358
61.58000 -0.348
61.60000 -2.475
61.62000 2.922
61.64000 -0.692
61.66000 0.006
61.68000 -0.943
61.70000 -2.471
61.72000 -1.371
61.74000 0.871
61.76000 3.745
61.78000 1.594
61.80000 0.305
61.82000 0.857
61.84000 3.782
61.86000 -1.127
61.88000 -0.288
61.90000 0.955
61.92000 -0.016
61.94000 1.481
61.96000 2.530
61.98000 1.774
62.00000 2.785
62.02000 2.390
62.04000 -0.109
62.06000 -2.460
62.08000 1.662
62.10000 -0.388
62.12000 0.560
62.14000 1.531
62.16000 1.104
62.18000 2.264
62.20000 1.380
62.22000 -0.869
62.24000 0.435
62.26000 2.726
62.28000 3.929
62.30000 6.141
62.32000 5.537
62.34000 3.115
62.36000 0.726
62.38000 -1.658
62.40000 0.499
62.42000 1.109
62.44000 3.444
62.46000 3.531
62.48000 2.932
62.50000 1.553
62.52000 -1.401
62.54000 -2.442
62.56000 -0.857
62.58000 1.492
62.60000 3.909
62.62000 3.387
62.64000 5.297
62.66000 3.192
62.68000 3.461
62.70000 0.662
62.72000 0.397
62.74000 2.949
62.76000 2.380
62.78000 1.138
62.80000 1.313
62.82000 2.716
62.84000 1.059
62.86000 0.648
62.88000 -0.452
62.90000 -0.063
62.92000 0.771
62.94000 2.207
62.96000 4.617
62.98000 2.327
63.00000 1.930
63.02000 0.971
63.04000 3.428
63.06000 1.857
63.08000 0.638
63.10000 1.521
63.12000 0.922
63.14000 1.289
63.16000 0.141
63.18000 3.791
63.20000 5.994
63.22000 3.785
63.24000 0.627
63.26000 0.216
63.28000 1.382
63.30000 2.801
63.32000 -1.182
63.34000 -2.438
63.36000 -2.303
63.38000 -0.989
63.40000 1.959
63.42000 2.113
63.44000 -1.749
63.46000 2.037
63.48000 4.065
63.50000 2.110
63.52000 3.067
63.54000 1.445
63.56000 1.972
63.58000 2.788
63.60000 1.176
63.62000 1.923
63.64000 0.370
63.66000 1.426
63.68000 -0.408
63.70000 2.647
63.72000 1.950
63.74000 -2.287
63.76000 0.564
63.78000 1.539
63.80000 -0.477
63.82000 -1.835
63.84000 4.262
63.86000 3.570
63.88000 0.358
63.90000 -0.628
63.92000 -1.574
63.94000 1.610
63.96000 1.682
63.98000 1.347
64.00000 -1.668
64.02000 0.754
64.04000 -0.237
64.06000 -0.577
64.08000 0.012
64.10000 -2.447
64.12000 1.344
64.14000 2.357
64.16000 4.696
64.18000 2.951
64.20000 0.632
64.22000 5.012
64.24000 4.924
64.26000 3.484
64.28000 5.821
64.30000 4.781
64.32000 0.203
64.34000 1.212
64.36000 0.013
64.38000 -0.017
64.40000 -0.340
64.42000 2.743
64.44000 1.363
64.46000 2.978
64.48000 1.328
64.50000 -0.382
64.52000 1.151
64.54000 2.082
64.56000 1.397
64.58000 -1.072
64.60000 1.261
64.62000 3.933
64.64000 4.069
64.66000 3.038
64.68000 3.967
64.70000 2.506
64.72000 1.869
64.74000 0.771
64.76000 5.731
64.78000 4.428
64.80000 1.032
64.82000 1.998
64.84000 4.042
64.86000 3.680
64.88000 1.092
64.90000 0.864
64.92000 1.416
64.94000 2.276
64.96000 3.522
64.98000 1.065
65.00000 -0.451
65.02000 -0.229
65.04000 1.085
65.06000 0.963
65.08000 4.130
65.10000 2.119
65.12000 4.141
65.14000 2.974
65.16000 -1.040
65.18000 -2.456
65.20000 0.624
65.22000 0.670
65.24000 1.889
65.26000 1.192
65.28000 0.598
65.30000 0.445
65.32000 3.033
65.34000 3.023
65.36000 -0.008
65.38000 2.172
65.40000 2.025
65.42000 4.226
65.44000 1.883
65.46000 -1.954
65.48000 -0.095
65.50000 0.239
65.52000 0.666
65.54000 0.694
65.56000 3.632
65.58000 7.829
65.60000 5.369
65.62000 3.092
65.64000 2.340
65.66000 3.601
65.68000 3.704
65.70000 4.147
65.72000 1.066
65.74000 2.141
65.76000 5.255
65.78000 4.634
65.80000 4.277
65.82000 1.435
65.84000 0.302
65.86000 0.980
65.88000 3.520
65.90000 4.302
65.92000 4.605
65.94000 1.075
65.96000 -2.457
65.98000 -0.206
66.00000 -1.481
66.02000 0.686
66.04000 -2.462
66.06000 -1.899
66.08000 2.093
66.10000 3.478
66.12000 5.533
66.14000 1.388
66.16000 -2.101
66.18000 1.571
66.20000 1.489
66.22000 3.447
66.24000 2.399
66.26000 0.735
66.28000 2.213
66.30000 1.997
66.32000 -0.491
66.34000 -0.327
66.36000 0.562
66.38000 0.978
66.40000 3.130
66.42000 -1.130
66.44000 0.924
66.46000 0.025
66.48000 0.625
66.50000 0.467
66.52000 0.626
66.54000 -2.503
66.56000 -0.049
66.58000 -1.750
66.60000 -1.915
66.62000 -0.124
66.64000 3.026
66.66000 3.244
66.68000 0.508
66.70000 2.675
66.72000 1.021
66.74000 -0.738
66.76000 -1.627
66.78000 -0.771
66.80000 1.768
66.82000 0.347
66.84000 0.593
66.86000 -0.633
66.88000 -2.522
66.90000 0.570
66.92000 1.893
66.94000 2.513
66.96000 -0.277
66.98000 -2.441
67.00000 -0.342
67.02000 -0.520
67.04000 0.519
67.06000 1.692
67.08000 3.362
67.10000 -0.466
67.12000 -1.423
67.14000 1.697
67.16000 2.692
67.18000 2.869
67.20000 4.154
67.22000 3.125
67.24000 1.387
67.26000 0.459
67.28000 2.828
67.30000 7.714
67.32000 3.694
67.34000 1.058
67.36000 4.796
67.38000 0.820
67.40000 3.247
67.42000 3.862
67.44000 5.397
67.46000 -2.555
67.48000 -1.450
67.50000 -0.605
67.52000 3.228
67.54000 3.190
67.56000 3.913
67.58000 3.054
67.60000 2.891
67.62000 3.204
67.64000 4.235
67.66000 3.822
67.68000 5.422
67.70000 2.114
67.72000 4.862
67.74000 7.133
67.76000 8.801
67.78000 6.011
67.80000 6.472
67.82000 7.921
67.84000 7.081
67.86000 7.704
67.88000 3.354
67.90000 6.456
67.92000 11.463
67.94000 8.405
67.96000 5.479
67.98000 3.137
68.00000 4.173
68.02000 7.142
68.04000 11.748
68.06000 14.531
68.08000 16.116
68.10000 16.474
68.12000 14.900
68.14000 13.259
68.16000 16.337
68.18000 15.941
68.20000 13.056
68.22000 13.351
68.24000 17.140
68.26000 19.595
68.28000 17.935
68.30000 14.199
68.32000 14.498
68.34000 12.441
68.36000 13.358
68.38000 16.958
68.40000 19.110
68.42000 21.682
68.44000 22.024
68.46000 22.401
68.48000 21.137
68.50000 22.548
68.52000 21.218
68.54000 19.728
68.56000 19.784
68.58000 20.347
68.60000 19.668
68.62000 18.800
68.64000 21.062
68.66000 22.052
68.68000 22.031
68.70000 24.273
68.72000 23.748
68.74000 22.906
68.76000 20.114
68.78000 19.318
68.80000 16.490
68.82000 20.801
68.84000 21.234
68.86000 22.235
68.88000 19.156
68.90000 16.475
68.92000 20.060
68.94000 21.767
68.96000 19.959
68.98000 19.310
69.00000 17.067
69.02000 18.175
69.04000 18.887
69.06000 15.483
69.08000 12.912
69.10000 13.975
69.12000 14.016
69.14000 13.481
69.16000 14.214
69.18000 15.903
69.20000 14.436
69.22000 10.517
69.24000 10.889
69.26000 10.182
69.28000 14.920
69.30000 12.654
69.32000 9.984
69.34000 13.132
69.36000 11.759
69.38000 11.639
69.40000 11.022
69.42000 9.744
69.44000 10.345
69.46000 11.530
69.48000 10.706
69.50000 9.666
69.52000 7.030
69.54000 11.340
69.56000 10.345
69.58000 6.393
69.60000 3.493
69.62000 4.904
69.64000 2.673
69.66000 3.545
69.68000 6.577
69.70000 3.800
69.72000 3.268
69.74000 3.182
69.76000 4.709
69.78000 7.403
69.80000 8.940
69.82000 1.830
69.84000 3.803
69.86000 4.172
69.88000 4.639
69.90000 2.978
69.92000 0.652
69.94000 3.619
69.96000 4.323
69.98000 2.339
70.00000 3.061
70.02000 6.641
70.04000 5.621
70.06000 1.954
70.08000 0.260
70.10000 0.183
70.12000 -1.059
70.14000 0.487
70.16000 2.746
70.18000 3.427
70.20000 3.421
70.22000 3.002
70.24000 0.859
70.26000 -0.933
70.28000 2.392
70.30000 2.100
70.32000 2.369
70.34000 -0.266
70.36000 -0.096
70.38000 -0.413
70.40000 3.236
70.42000 1.572
70.44000 2.040
70.46000 1.436
70.48000 3.215
70.50000 -0.226
70.52000 -0.284
70.54000 -0.308
70.56000 2.501
70.58000 2.000
70.60000 -0.141
70.62000 -2.402
70.64000 0.857
70.66000 2.434
70.68000 2.308
70.70000 0.297
70.72000 2.089
70.74000 0.617
70.76000 -1.600
70.78000 -0.287
70.80000 0.042
70.82000 -1.567
70.84000 1.635
70.86000 2.554
70.88000 1.604
70.90000 1.127
70.92000 2.290
70.94000 3.063
70.96000 3.578
70.98000 -0.557
71.00000 1.790
71.02000 1.287
71.04000 2.035
71.06000 3.550
71.08000 2.586
71.10000 1.515
71.12000 -1.368
71.14000 -2.365
71.16000 -0.355
71.18000 0.106
71.20000 3.975
71.22000 0.384
71.24000 2.811
71.26000 4.632
71.28000 2.789
71.30000 0.949
71.32000 2.374
71.34000 4.694
71.36000 5.866
71.38000 2.657
71.40000 4.227
71.42000 2.153
71.44000 5.096
71.46000 4.756
71.48000 3.605
71.50000 -0.229
71.52000 -0.081
71.54000 0.732
71.56000 4.372
71.58000 0.520
71.60000 3.227
71.62000 2.597
71.64000 3.037
71.66000 5.129
71.68000 7.123
71.70000 4.247
71.72000 3.184
71.74000 2.004
71.76000 0.150
71.78000 0.129
71.80000 1.750
71.82000 1.710
71.84000 0.533
71.86000 0.054
71.88000 1.952
71.90000 2.776
71.92000 3.907
71.94000 3.029
71.96000 1.334
71.98000 3.595
72.00000 2.076
72.02000 -0.543
72.04000 2.092
72.06000 5.000
72.08000 3.387
72.10000 0.280
72.12000 -2.298
72.14000 0.440
72.16000 1.920
72.18000 4.643
72.20000 5.530
72.22000 6.400
72.24000 4.739
72.26000 2.488
72.28000 3.259
72.30000 3.415
72.32000 5.895
72.34000 4.380
72.36000 3.573
72.38000 2.616
72.40000 3.230
72.42000 1.686
72.44000 4.033
72.46000 4.486
72.48000 2.743
72.50000 0.526
72.52000 2.703
72.54000 8.109
72.56000 7.441
72.58000 5.516
72.60000 2.180
72.62000 3.587
72.64000 3.682
72.66000 3.707
72.68000 2.597
72.70000 2.644
72.72000 2.615
72.74000 5.718
72.76000 3.254
72.78000 5.803
72.80000 3.697
72.82000 2.944
72.84000 4.546
72.86000 6.881
72.88000 3.370
72.90000 2.245
72.92000 -2.246
72.94000 2.086
72.96000 3.263
72.98000 2.351
73.00000 0.442
73.02000 0.865
73.04000 5.317
73.06000 5.748
73.08000 6.952
73.10000 4.784
73.12000 2.462
73.14000 5.046
73.16000 6.402
73.18000 5.907
73.20000 5.255
73.22000 3.901
73.24000 0.638
73.26000 0.013
73.28000 3.837
73.30000 5.188
73.32000 5.956
73.34000 3.666
73.36000 3.416
73.38000 5.312
73.40000 5.475
73.42000 4.143
73.44000 2.884
73.46000 4.506
73.48000 3.780
73.50000 3.569
73.52000 4.678
73.54000 3.692
73.56000 5.588
73.58000 7.625
73.60000 4.895
73.62000 8.311
73.64000 6.707
73.66000 7.475
73.68000 6.397
73.70000 3.970
73.72000 4.182
73.74000 4.712
73.76000 4.789
73.78000 5.711
73.80000 4.795
73.82000 7.372
73.84000 6.871
73.86000 4.378
73.88000 7.797
73.90000 5.740
73.92000 7.643
73.94000 5.362
73.96000 4.191
73.98000 -2.210
74.00000 2.661
74.02000 6.166
74.04000 5.581
74.06000 6.639
74.08000 4.578
74.10000 6.195
74.12000 8.804
74.14000 7.731
74.16000 5.809
74.18000 2.332
74.20000 3.457
74.22000 3.067
74.24000 1.656
74.26000 7.962
74.28000 2.877
74.30000 6.113
74.32000 8.145
74.34000 9.343
74.36000 4.078
74.38000 3.958
74.40000 4.595
74.42000 4.732
74.44000 -0.259
74.46000 1.608
74.48000 -1.406
74.50000 3.002
74.52000 6.380
74.54000 3.405
74.56000 2.409
74.58000 4.939
74.60000 7.256
74.62000 9.959
74.64000 7.354
74.66000 7.702
74.68000 6.708
74.70000 7.465
74.72000 6.400
74.74000 6.492
74.76000 3.150
74.78000 -2.243
74.80000 1.446
74.82000 2.236
74.84000 -0.064
74.86000 3.215
74.88000 4.608
74.90000 5.363
74.92000 1.318
74.94000 4.410
74.96000 1.621
74.98000 -1.316
75.00000 2.521
75.02000 5.391
75.04000 5.121
75.06000 6.493
75.08000 4.249
75.10000 4.656
75.12000 5.995
75.14000 1.823
75.16000 4.227
75.18000 -2.145
75.20000 -2.263
75.22000 1.460
75.24000 5.128
75.26000 4.413
75.28000 1.096
75.30000 -1.810
75.32000 2.391
75.34000 2.158
75.36000 1.913
75.38000 2.570
75.40000 0.055
75.42000 2.576
75.44000 2.968
75.46000 0.243
75.48000 0.325
75.50000 -0.348
75.52000 -0.724
75.54000 1.958
75.56000 -0.386
75.58000 0.561
75.60000 2.479
75.62000 0.591
75.64000 -0.202
75.66000 1.949
75.68000 -0.225
75.70000 -0.359
75.72000 -1.336
75.74000 3.678
75.76000 4.247
75.78000 -1.668
75.80000 0.169
75.82000 4.287
75.84000 1.485
75.86000 4.593
75.88000 7.706
75.90000 4.376
75.92000 -0.590
75.94000 2.515
75.96000 -0.394
75.98000 1.594
76.00000 -0.658
76.02000 -0.158
76.04000 1.616
76.06000 5.359
76.08000 6.905
76.10000 3.459
76.12000 3.836
76.14000 3.776
76.16000 2.671
76.18000 -0.447
76.20000 0.018
76.22000 3.041
76.24000 0.390
76.26000 1.372
76.28000 0.395
76.30000 -2.206
76.32000 -1.592
76.34000 0.812
76.36000 0.506
76.38000 0.093
76.40000 -0.289
76.42000 1.381
76.44000 3.127
76.46000 4.090
76.48000 4.868
76.50000 5.444
76.52000 2.745
76.54000 -1.643
76.56000 -2.157
76.58000 -2.298
76.60000 1.325
76.62000 2.166
76.64000 3.564
76.66000 3.827
76.68000 3.580
76.70000 1.980
76.72000 3.630
76.74000 2.813
76.76000 5.611
76.78000 5.151
76.80000 2.301
76.82000 -0.644
76.84000 3.314
76.86000 4.776
76.88000 3.060
76.90000 3.017
76.92000 2.091
76.94000 3.225
76.96000 4.242
76.98000 3.905
77.00000 2.950
77.02000 4.339
77.04000 2.379
77.06000 2.959
77.08000 2.168
77.10000 1.517
77.12000 2.246
77.14000 -1.286
77.16000 0.352
77.18000 4.243
77.20000 6.997
77.22000 6.335
77.24000 3.438
77.26000 4.205
77.28000 -1.261
77.30000 1.380
77.32000 2.469
77.34000 2.338
77.36000 2.675
77.38000 0.655
77.40000 1.655
77.42000 1.745
77.44000 0.684
77.46000 1.185
77.48000 -0.287
77.50000 0.134
77.52000 3.341
77.54000 1.492
77.56000 2.828
77.58000 2.257
77.60000 1.175
77.62000 -2.282
77.64000 -1.202
77.66000 -1.426
77.68000 1.332
77.70000 2.044
77.72000 -0.294
77.74000 2.460
77.76000 -2.193
77.78000 -0.645
77.80000 -0.760
77.82000 1.361
77.84000 4.926
77.86000 3.141
77.88000 0.636
77.90000 4.561
77.92000 2.809
77.94000 2.368
77.96000 4.390
77.98000 3.966
78.00000 3.944
78.02000 -0.710
78.04000 1.959
78.06000 2.437
78.08000 5.019
78.10000 3.774
78.12000 0.496
78.14000 2.817
78.16000 1.132
78.18000 1.572
78.20000 2.659
78.22000 -0.116
78.24000 0.527
78.26000 0.812
78.28000 4.154
78.30000 2.705
78.32000 0.920
78.34000 1.576
78.36000 -0.858
78.38000 1.881
78.40000 3.463
78.42000 1.525
78.44000 5.244
78.46000 2.567
78.48000 1.252
78.50000 2.231
78.52000 4.021
78.54000 4.145
78.56000 5.012
78.58000 2.361
78.60000 0.625
78.62000 -1.259
78.64000 3.083
78.66000 4.138
78.68000 0.831
78.70000 1.644
78.72000 1.729
78.74000 3.300
78.76000 2.502
78.78000 3.250
78.80000 3.055
78.82000 -2.323
78.84000 0.283
78.86000 1.114
78.88000 2.424
78.90000 -1.832
78.92000 1.655
78.94000 2.074
78.96000 1.464
78.98000 0.461
79.00000 4.473
79.02000 1.598
79.04000 3.022
79.06000 9.307
79.08000 6.260
79.10000 6.588
79.12000 7.563
79.14000 6.392
79.16000 1.748
79.18000 0.253
79.20000 1.644
79.22000 2.481
79.24000 2.583
79.26000 3.617
79.28000 5.243
79.30000 3.657
79.32000 0.714
79.34000 0.278
79.36000 1.382
79.38000 0.325
79.40000 3.485
79.42000 2.673
79.44000 0.523
79.46000 2.234
79.48000 -2.337
79.50000 1.138
79.52000 1.278
79.54000 2.732
79.56000 4.075
79.58000 0.929
79.60000 1.478
79.62000 0.115
79.64000 1.477
79.66000 0.625
79.68000 -0.873
79.70000 2.065
79.72000 4.797
79.74000 4.415
79.76000 2.100
79.78000 3.360
79.80000 3.442
79.82000 5.566
79.84000 1.791
79.86000 1.083
79.88000 3.966
79.90000 0.314
79.92000 0.707
79.94000 0.678
79.96000 3.533
79.98000 5.273
80.00000 4.089
80.02000 2.603
80.04000 2.278
80.06000 0.142
80.08000 -2.050
80.10000 2.833
80.12000 2.574
80.14000 -1.331
80.16000 0.515
80.18000 2.017
80.20000 1.794
80.22000 -0.487
80.24000 -2.368
80.26000 1.614
80.28000 -2.220
80.30000 3.543
80.32000 3.457
80.34000 4.230
80.36000 6.513
80.38000 3.931
80.40000 5.472
80.42000 3.987
80.44000 2.901
80.46000 2.496
80.48000 0.993
80.50000 -2.388
80.52000 -1.080
80.54000 0.214
80.56000 6.033
80.58000 1.258
80.60000 0.943
80.62000 3.767
80.64000 2.685
80.66000 0.766
80.68000 0.916
80.70000 4.820
80.72000 1.917
80.74000 5.265
80.76000 4.668
80.78000 4.488
80.80000 8.970
80.82000 2.132
80.84000 0.197
80.86000 1.616
80.88000 1.190
80.90000 0.626
80.92000 4.278
80.94000 3.672
80.96000 2.492
80.98000 2.494
81.00000 4.772
81.02000 6.884
81.04000 9.039
81.06000 7.494
81.08000 4.722
81.10000 2.839
81.12000 1.388
81.14000 3.408
81.16000 6.063
81.18000 6.726
81.20000 3.795
81.22000 6.083
81.24000 5.319
81.26000 6.518
81.28000 4.590
81.30000 5.682
81.32000 9.187
81.34000 4.369
81.36000 2.137
81.38000 3.700
81.40000 3.684
81.42000 1.260
81.44000 -2.435
81.46000 0.661
81.48000 5.174
81.50000 8.795
81.52000 8.152
81.54000 5.008
81.56000 5.509
81.58000 4.645
81.60000 2.929
81.62000 4.656
81.64000 5.973
81.66000 6.878
81.68000 8.156
81.70000 10.603
81.72000 6.220
81.74000 3.151
81.76000 8.409
81.78000 10.979
81.80000 6.491
81.82000 7.016
81.84000 13.357
81.86000 9.474
81.88000 8.861
81.90000 14.759
81.92000 15.697
81.94000 16.134
81.96000 12.412
81.98000 11.164
82.00000 11.409
82.02000 9.290
82.04000 9.879
82.06000 13.120
82.08000 12.040
82.10000 11.198
82.12000 8.988
82.14000 4.812
82.16000 13.634
82.18000 16.178
82.20000 15.157
82.22000 14.471
82.24000 16.634
82.26000 19.093
82.28000 18.651
82.30000 18.623
82.32000 19.816
82.34000 21.487
82.36000 21.387
82.38000 24.774
82.40000 18.392
82.42000 16.454
82.44000 24.119
82.46000 27.486
82.48000 24.980
82.50000 25.778
82.52000 22.409
82.54000 22.157
82.56000 25.934
82.58000 28.018
82.60000 30.744
82.62000 28.702
82.64000 26.847
82.66000 28.910
82.68000 29.261
82.70000 28.910
82.72000 23.539
82.74000 31.526
82.76000 31.010
82.78000 30.376
82.80000 29.711
82.82000 28.909
82.84000 29.473
82.86000 28.262
82.88000 25.928
82.90000 32.528
82.92000 30.281
82.94000 28.846
82.96000 29.591
82.98000 32.683
83.00000 30.868
83.02000 33.270
83.04000 35.180
83.06000 30.727
83.08000 26.135
83.10000 23.294
83.12000 25.421
83.14000 30.493
83.16000 29.597
83.18000 25.312
83.20000 31.142
83.22000 29.684
83.24000 29.269
83.26000 28.043
83.28000 23.253
83.30000 18.408
83.32000 22.776
83.34000 21.375
83.36000 28.231
83.38000 29.240
83.40000 27.582
83.42000 22.744
83.44000 21.259
83.46000 27.916
83.48000 23.904
83.50000 21.925
83.52000 23.342
83.54000 21.093
83.56000 20.413
83.58000 21.677
83.60000 20.037
83.62000 23.080
83.64000 21.709
83.66000 16.528
83.68000 20.210
83.70000 17.764
83.72000 17.189
83.74000 12.751
83.76000 14.069
83.78000 12.928
83.80000 13.955
83.82000 14.181
83.84000 13.325
83.86000 12.783
83.88000 11.232
83.90000 13.652
83.92000 13.363
83.94000 14.350
83.96000 6.191
83.98000 4.864
84.00000 6.726
84.02000 10.552
84.04000 5.206
84.06000 6.612
84.08000 8.067
84.10000 5.936
84.12000 8.839
84.14000 5.029
84.16000 6.264
84.18000 7.434
84.20000 7.319
84.22000 8.353
84.24000 10.850
84.26000 9.399
84.28000 0.393
84.30000 1.226
84.32000 1.361
84.34000 2.897
84.36000 7.320
84.38000 9.691
84.40000 4.895
84.42000 3.272
84.44000 3.750
84.46000 4.710
84.48000 4.201
84.50000 1.467
84.52000 3.649
84.54000 3.401
84.56000 0.613
84.58000 6.326
84.60000 3.691
84.62000 -1.595
84.64000 0.119
84.66000 0.125
84.68000 -2.400
84.70000 0.103
84.72000 4.457
84.74000 1.493
84.76000 1.030
84.78000 -1.669
84.80000 3.258
84.82000 6.820
84.84000 8.713
84.86000 5.086
84.88000 3.678
84.90000 4.742
84.92000 1.895
84.94000 4.228
84.96000 3.508
84.98000 3.864
85.00000 3.502
85.02000 4.122
85.04000 1.045
85.06000 2.529
85.08000 0.248
85.10000 -0.589
85.12000 1.321
85.14000 -0.171
85.16000 0.659
85.18000 0.089
85.20000 0.912
85.22000 2.465
85.24000 5.242
85.26000 4.507
85.28000 6.345
85.30000 3.485
85.32000 3.920
85.34000 3.446
85.36000 2.548
85.38000 1.172
85.40000 4.568
85.42000 4.668
85.44000 2.188
85.46000 1.134
85.48000 0.875
85.50000 1.064
85.52000 0.249
85.54000 -0.030
85.56000 -2.314
85.58000 2.343
85.60000 2.583
85.62000 -0.034
85.64000 -0.696
85.66000 -1.598
85.68000 0.761
85.70000 1.550
85.72000 -2.330
85.74000 2.897
85.76000 5.849
85.78000 2.416
85.80000 2.400
85.82000 2.791
85.84000 4.322
85.86000 3.911
85.88000 1.080
85.90000 2.497
85.92000 3.406
85.94000 3.335
85.96000 0.690
85.98000 3.334
86.00000 6.245
86.02000 4.862
86.04000 5.637
86.06000 3.904
86.08000 0.656
86.10000 3.480
86.12000 2.498
86.14000 -1.170
86.16000 4.715
86.18000 7.864
86.20000 7.729
86.22000 3.964
86.24000 3.365
86.26000 2.114
86.28000 3.870
86.30000 1.829
86.32000 1.488
86.34000 1.788
86.36000 -2.136
86.38000 -2.129
86.40000 2.250
86.42000 4.409
86.44000 1.178
86.46000 -2.171
86.48000 2.815
86.50000 3.728
86.52000 2.501
86.54000 0.640
86.56000 0.451
86.58000 8.273
86.60000 10.455
86.62000 7.551
86.64000 7.028
86.66000 7.405
86.68000 8.126
86.70000 10.606
86.72000 3.964
86.74000 3.925
86.76000 6.297
86.78000 5.060
86.80000 6.604
86.82000 6.652
86.84000 9.670
86.86000 10.924
86.88000 8.136
86.90000 11.062
86.92000 12.558
86.94000 13.716
86.96000 12.179
86.98000 12.297
87.00000 14.603
87.02000 16.989
87.04000 12.553
87.06000 13.860
87.08000 13.513
87.10000 14.402
87.12000 15.226
87.14000 12.974
87.16000 14.065
87.18000 14.876
87.20000 16.734
87.22000 14.427
87.24000 9.833
87.26000 14.461
87.28000 15.872
87.30000 11.550
87.32000 15.592
87.34000 20.260
87.36000 23.634
87.38000 17.743
87.40000 14.162
87.42000 15.255
87.44000 19.032
87.46000 18.943
87.48000 18.150
87.50000 19.430
87.52000 17.546
87.54000 19.991
87.56000 21.878
87.58000 18.911
87.60000 17.129
87.62000 8.911
87.64000 12.087
87.66000 13.153
87.68000 15.437
87.70000 16.296
87.72000 18.168
87.74000 12.813
87.76000 11.234
87.78000 14.461
87.80000 15.965
87.82000 10.730
87.84000 11.586
87.86000 14.132
87.88000 9.988
87.90000 12.783
87.92000 10.230
87.94000 9.491
87.96000 9.571
87.98000 12.540
88.00000 15.537
88.02000 9.591
88.04000 4.869
88.06000 3.474
88.08000 4.048
88.10000 6.001
88.12000 8.444
88.14000 9.431
88.16000 10.266
88.18000 9.216
88.20000 5.554
88.22000 1.569
88.24000 1.003
88.26000 3.554
88.28000 6.123
88.30000 4.428
88.32000 3.382
88.34000 2.824
88.36000 5.404
88.38000 -0.106
88.40000 0.216
88.42000 0.410
88.44000 2.217
88.46000 4.323
88.48000 5.604
88.50000 6.148
88.52000 3.625
88.54000 3.792
88.56000 -1.185
88.58000 0.668
88.60000 2.534
88.62000 2.583
88.64000 3.728
88.66000 4.732
88.68000 2.471
88.70000 4.985
88.72000 3.597
88.74000 2.698
88.76000 0.695
88.78000 -0.343
88.80000 1.352
88.82000 -1.458
88.84000 -1.004
88.86000 0.536
88.88000 1.411
88.90000 -1.053
88.92000 -0.114
88.94000 1.052
88.96000 -0.074
88.98000 0.939
89.00000 2.123
89.02000 2.496
89.04000 0.577
89.06000 0.547
89.08000 1.087
89.10000 6.424
89.12000 3.031
89.14000 1.143
89.16000 0.775
89.18000 -1.649
89.20000 2.742
89.22000 1.331
89.24000 -1.381
89.26000 -1.183
89.28000 -0.771
89.30000 -0.534
89.32000 -2.201
89.34000 -1.350
89.36000 2.493
89.38000 5.591
89.40000 4.448
89.42000 2.233
89.44000 3.868
89.46000 4.227
89.48000 0.979
89.50000 0.695
89.52000 -1.078
89.54000 -1.741
89.56000 -2.191
89.58000 1.019
89.60000 1.919
89.62000 1.413
89.64000 2.611
89.66000 4.557
89.68000 11.806
89.70000 6.958
89.72000 3.733
89.74000 4.761
89.76000 4.962
89.78000 1.942
89.80000 3.119
89.82000 1.040
89.84000 3.554
89.86000 3.548
89.88000 0.224
89.90000 0.895
89.92000 4.241
89.94000 3.125
89.96000 3.493
89.98000 3.529
90.00000 1.656
90.02000 3.674
90.04000 7.080
90.06000 5.351
90.08000 1.192
90.10000 -0.521
90.12000 6.272
90.14000 5.068
90.16000 3.411
90.18000 0.114
90.20000 0.929
90.22000 3.180
90.24000 3.188
90.26000 5.151
90.28000 2.336
90.30000 -1.931
90.32000 -0.627
90.34000 0.623
90.36000 -1.184
90.38000 -1.615
90.40000 -1.838
90.42000 1.022
90.44000 7.049
90.46000 2.634
90.48000 4.607
90.50000 3.828
90.52000 6.027
90.54000 7.448
90.56000 3.806
90.58000 3.304
90.60000 6.222
90.62000 -2.132
90.64000 0.345
90.66000 -0.265
90.68000 0.627
90.70000 3.300
90.72000 1.822
90.74000 1.141
90.76000 6.584
90.78000 8.579
90.80000 0.127
90.82000 -1.527
90.84000 -0.946
90.86000 1.967
90.88000 2.728
90.90000 -1.858
90.92000 1.274
90.94000 4.914
90.96000 4.951
90.98000 1.394
91.00000 -0.496
91.02000 1.516
91.04000 6.296
91.06000 5.319
91.08000 3.671
91.10000 4.005
91.12000 5.793
91.14000 3.044
91.16000 2.334
91.18000 2.079
91.20000 1.859
91.22000 2.240
91.24000 2.847
91.26000 5.122
91.28000 2.351
91.30000 2.739
91.32000 0.057
91.34000 1.275
91.36000 5.065
91.38000 4.911
91.40000 5.724
91.42000 3.282
91.44000 2.676
91.46000 5.713
91.48000 5.739
91.50000 2.545
91.52000 2.232
91.54000 2.265
91.56000 2.462
91.58000 2.899
91.60000 1.947
91.62000 3.071
91.64000 5.112
91.66000 4.520
91.68000 3.525
91.70000 -0.615
91.72000 0.743
91.74000 4.070
91.76000 2.662
91.78000 4.742
91.80000 7.943
91.82000 5.209
91.84000 4.330
91.86000 6.490
91.88000 2.880
91.90000 3.943
91.92000 8.311
91.94000 7.430
91.96000 0.629
91.98000 -2.115
92.00000 -0.597
92.02000 4.164
92.04000 4.599
92.06000 3.771
92.08000 6.716
92.10000 5.197
92.12000 4.222
92.14000 3.787
92.16000 3.179
92.18000 3.802
92.20000 4.838
92.22000 10.471
92.24000 4.744
92.26000 2.448
92.28000 4.111
92.30000 5.243
92.32000 4.619
92.34000 6.187
92.36000 -0.188
92.38000 6.585
92.40000 8.002
92.42000 9.879
92.44000 12.452
92.46000 8.445
92.48000 9.847
92.50000 6.530
92.52000 2.944
92.54000 5.068
92.56000 5.667
92.58000 6.347
92.60000 8.900
92.62000 5.183
92.64000 5.442
92.66000 -2.110
92.68000 0.399
92.70000 7.603
92.72000 6.659
92.74000 6.741
92.76000 5.752
92.78000 4.052
92.80000 4.777
92.82000 3.724
92.84000 3.035
92.86000 3.840
92.88000 8.634
92.90000 7.354
92.92000 3.050
92.94000 3.497
92.96000 7.732
92.98000 0.878
93.00000 1.953
93.02000 5.943
93.04000 1.034
93.06000 2.134
93.08000 4.158
93.10000 8.687
93.12000 12.660
93.14000 7.083
93.16000 1.644
93.18000 -1.418
93.20000 2.928
93.22000 4.690
93.24000 5.090
93.26000 4.808
93.28000 3.157
93.30000 5.278
93.32000 5.880
93.34000 4.367
93.36000 0.222
93.38000 1.597
93.40000 1.804
93.42000 2.044
93.44000 6.723
93.46000 7.876
93.48000 4.601
93.50000 3.469
93.52000 -0.304
93.54000 0.615
93.56000 4.140
93.58000 6.283
93.60000 5.275
93.62000 1.535
93.64000 -2.154
93.66000 5.001
93.68000 3.843
93.70000 2.224
93.72000 5.713
93.74000 -0.417
93.76000 2.003
93.78000 1.630
93.80000 5.905
93.82000 4.228
93.84000 -0.121
93.86000 1.870
93.88000 3.340
93.90000 2.132
93.92000 2.893
93.94000 1.729
93.96000 2.595
93.98000 0.726
94.00000 -0.045
94.02000 4.699
94.04000 4.264
94.06000 0.307
94.08000 -1.009
94.10000 -0.751
94.12000 0.528
94.14000 -1.070
94.16000 0.448
94.18000 2.688
94.20000 3.879
94.22000 7.532
94.24000 6.604
94.26000 5.420
94.28000 3.509
94.30000 5.574
94.32000 5.618
94.34000 5.015
94.36000 2.691
94.38000 2.811
94.40000 7.814
94.42000 5.106
94.44000 9.395
94.46000 2.837
94.48000 -0.985
94.50000 0.578
94.52000 -0.208
94.54000 0.417
94.56000 -0.136
94.58000 3.885
94.60000 4.465
94.62000 2.291
94.64000 3.678
94.66000 6.119
94.68000 1.799
94.70000 -2.173
94.72000 2.175
94.74000 4.701
94.76000 5.733
94.78000 1.928
94.80000 4.065
94.82000 7.449
94.84000 5.211
94.86000 2.150
94.88000 3.676
94.90000 0.336
94.92000 2.646
94.94000 3.854
94.96000 3.205
94.98000 1.431
95.00000 2.676
95.02000 3.709
95.04000 5.139
95.06000 8.366
95.08000 2.071
95.10000 -0.476
95.12000 3.530
95.14000 -0.433
95.16000 -0.746
95.18000 -2.195
95.20000 3.671
95.22000 3.341
95.24000 3.363
95.26000 5.045
95.28000 2.400
95.30000 0.265
95.32000 2.870
95.34000 7.500
95.36000 1.636
95.38000 -1.125
95.40000 -1.658
95.42000 0.388
95.44000 0.220
95.46000 3.703
95.48000 4.700
95.50000 3.364
95.52000 2.484
95.54000 -1.315
95.56000 -0.334
95.58000 1.871
95.60000 2.739
95.62000 6.305
95.64000 0.989
95.66000 -0.315
95.68000 -0.286
95.70000 2.670
95.72000 0.879
95.74000 7.625
95.76000 4.130
95.78000 -0.569
95.80000 -0.737
95.82000 2.172
95.84000 0.922
95.86000 0.364
95.88000 1.762
95.90000 6.705
95.92000 5.700
95.94000 0.522
95.96000 3.701
95.98000 4.179
96.00000 2.659
96.02000 3.147
96.04000 4.876
96.06000 6.412
96.08000 1.306
96.10000 -2.204
96.12000 6.942
96.14000 5.096
96.16000 2.432
96.18000 5.851
96.20000 8.842
96.22000 -1.130
96.24000 0.701
96.26000 5.140
96.28000 -0.925
96.30000 5.201
96.32000 6.622
96.34000 6.706
96.36000 7.955
96.38000 2.198
96.40000 4.422
96.42000 4.293
96.44000 3.711
96.46000 4.574
96.48000 4.522
96.50000 -1.039
96.52000 0.346
96.54000 -0.057
96.56000 0.611
96.58000 -0.832
96.60000 2.421
96.62000 3.255
96.64000 5.743
96.66000 5.768
96.68000 7.302
96.70000 7.110
96.72000 1.666
96.74000 3.481
96.76000 6.185
96.78000 1.678
96.80000 1.877
96.82000 3.623
96.84000 1.793
96.86000 4.343
96.88000 4.492
96.90000 3.560
96.92000 2.534
96.94000 8.204
96.96000 3.284
96.98000 1.782
97.00000 0.051
97.02000 -2.168
97.04000 2.321
97.06000 1.354
97.08000 6.386
97.10000 8.232
97.12000 3.734
97.14000 0.374
97.16000 2.834
97.18000 6.850
97.20000 6.716
97.22000 7.678
97.24000 6.478
97.26000 8.869
97.28000 6.992
97.30000 5.379
97.32000 6.330
97.34000 6.247
97.36000 6.056
97.38000 2.917
97.40000 4.337
97.42000 8.377
97.44000 3.433
97.46000 3.103
97.48000 1.035
97.50000 -2.128
97.52000 3.275
97.54000 5.223
97.56000 0.950
97.58000 5.285
97.60000 6.738
97.62000 7.276
97.64000 2.725
97.66000 1.415
97.68000 5.661
97.70000 11.254
97.72000 9.761
97.74000 5.854
97.76000 4.475
97.78000 3.043
97.80000 1.966
97.82000 6.994
97.84000 11.804
97.86000 6.996
97.88000 8.573
97.90000 9.468
97.92000 1.024
97.94000 -0.793
97.96000 2.702
97.98000 6.523
98.00000 0.742
98.02000 4.849
98.04000 5.240
98.06000 5.800
98.08000 5.036
98.10000 -2.231
98.12000 7.854
98.14000 10.905
98.16000 6.684
98.18000 6.569
98.20000 3.832
98.22000 9.459
98.24000 12.271
98.26000 4.913
98.28000 -2.941
98.30000 6.026
98.32000 4.837
98.34000 4.504
98.36000 9.136
98.38000 4.307
98.40000 0.611
98.42000 -1.639
98.44000 1.484
98.46000 2.716
98.48000 2.577
98.50000 6.539
98.52000 9.523
98.54000 11.830
98.56000 1.688
98.58000 -0.022
98.60000 2.366
98.62000 13.029
98.64000 10.952
98.66000 11.920
98.68000 7.684
98.70000 0.784
98.72000 9.142
98.74000 3.597
98.76000 -0.361
98.78000 5.428
98.80000 10.223
98.82000 15.801
98.84000 12.045
98.86000 5.243
98.88000 1.973
98.90000 0.944
98.92000 5.821
98.94000 4.382
98.96000 6.689
98.98000 7.400
99.00000 6.498
99.02000 0.537
99.04000 5.919
99.06000 11.868
99.08000 9.292
99.10000 5.771
99.12000 -0.660
99.14000 1.629
99.16000 1.541
99.18000 6.213
99.20000 5.638
99.22000 3.625
99.24000 -2.117
99.26000 1.891
99.28000 -0.785
99.30000 3.973
99.32000 9.105
99.34000 0.686
99.36000 -3.996
99.38000 12.154
99.40000 9.337
99.42000 3.782
99.44000 5.239
99.46000 4.787
99.48000 8.077
99.50000 9.046
99.52000 6.548
99.54000 3.478
99.56000 6.736
99.58000 4.390
99.60000 1.551
99.62000 3.128
99.64000 3.941
99.66000 2.775
99.68000 -2.636
99.70000 8.181
99.72000 14.434
99.74000 -0.083
99.76000 1.729
99.78000 10.303
99.80000 5.229
99.82000 -2.201
99.84000 -1.493
99.86000 5.312
99.88000 5.174
99.90000 7.919
99.92000 11.859
99.94000 9.487
99.96000 4.692
99.98000 0.000
